Aug. 15, 2024   12:12:44
Cyclic Voltammetry
File: c:/users/guazh/data/20240813_batch_94_500/2024-08-15-exp95\exp95-2024-08-15t11_49_48-arkoh\exp95_cv_sr_100mvs_efin_-1900mv.bin
Data Source:  Experiment
Instrument Model:  CHI760E
Header: CV ran at 100 mVs
Note: 

Init E (V) = -1
High E (V) = -1
Low E (V) = -1.9
Final E (V) = -1
Init P/N = N
Scan Rate (V/s) = 0.1
Segment = 3
Sample Interval (V) = 0.001
Quiet Time (sec) = 2
Sensitivity (A/V) = 0.01
Comp R (ohm) = 2.0

Results:

Channel 1:
Segment 1:

Segment 2:

Segment 3:

Potential/V, Current/A

-1.000, 2.249e-7
-1.001, 4.420e-7
-1.002, 4.025e-7
-1.003, 4.519e-7
-1.004, 5.111e-7
-1.005, 5.012e-7
-1.006, 5.407e-7
-1.007, 5.209e-7
-1.008, 7.182e-7
-1.009, 5.604e-7
-1.010, 5.900e-7
-1.011, 7.577e-7
-1.012, 6.393e-7
-1.013, 8.169e-7
-1.014, 6.393e-7
-1.015, 6.886e-7
-1.016, 7.478e-7
-1.017, 7.281e-7
-1.018, 7.972e-7
-1.019, 7.972e-7
-1.020, 8.465e-7
-1.021, 8.662e-7
-1.022, 7.676e-7
-1.023, 9.156e-7
-1.024, 8.268e-7
-1.025, 8.958e-7
-1.026, 9.057e-7
-1.027, 9.353e-7
-1.028, 1.004e-6
-1.029, 9.649e-7
-1.030, 9.156e-7
-1.031, 9.156e-7
-1.032, 9.452e-7
-1.033, 1.073e-6
-1.034, 9.550e-7
-1.035, 9.945e-7
-1.036, 1.054e-6
-1.037, 1.113e-6
-1.038, 1.212e-6
-1.039, 1.064e-6
-1.040, 1.083e-6
-1.041, 1.014e-6
-1.042, 1.034e-6
-1.043, 1.182e-6
-1.044, 1.142e-6
-1.045, 1.300e-6
-1.046, 1.093e-6
-1.047, 1.024e-6
-1.048, 1.231e-6
-1.049, 1.142e-6
-1.050, 1.290e-6
-1.051, 1.281e-6
-1.052, 1.182e-6
-1.053, 1.281e-6
-1.054, 1.231e-6
-1.055, 1.103e-6
-1.056, 1.251e-6
-1.057, 1.182e-6
-1.058, 1.290e-6
-1.059, 1.330e-6
-1.060, 1.290e-6
-1.061, 1.261e-6
-1.062, 1.360e-6
-1.063, 1.399e-6
-1.064, 1.221e-6
-1.065, 1.409e-6
-1.066, 1.300e-6
-1.067, 1.350e-6
-1.068, 1.379e-6
-1.069, 1.350e-6
-1.070, 1.310e-6
-1.071, 1.389e-6
-1.072, 1.340e-6
-1.073, 1.389e-6
-1.074, 1.192e-6
-1.075, 1.290e-6
-1.076, 1.438e-6
-1.077, 1.468e-6
-1.078, 1.488e-6
-1.079, 1.517e-6
-1.080, 1.379e-6
-1.081, 1.478e-6
-1.082, 1.527e-6
-1.083, 1.547e-6
-1.084, 1.429e-6
-1.085, 1.468e-6
-1.086, 1.389e-6
-1.087, 1.389e-6
-1.088, 1.577e-6
-1.089, 1.567e-6
-1.090, 1.438e-6
-1.091, 1.478e-6
-1.092, 1.527e-6
-1.093, 1.508e-6
-1.094, 1.557e-6
-1.095, 1.508e-6
-1.096, 1.537e-6
-1.097, 1.438e-6
-1.098, 1.577e-6
-1.099, 1.517e-6
-1.100, 1.547e-6
-1.101, 1.557e-6
-1.102, 1.488e-6
-1.103, 1.675e-6
-1.104, 1.616e-6
-1.105, 1.636e-6
-1.106, 1.478e-6
-1.107, 1.606e-6
-1.108, 1.734e-6
-1.109, 1.626e-6
-1.110, 1.734e-6
-1.111, 1.685e-6
-1.112, 1.606e-6
-1.113, 1.636e-6
-1.114, 1.774e-6
-1.115, 1.715e-6
-1.116, 1.715e-6
-1.117, 1.744e-6
-1.118, 1.734e-6
-1.119, 1.675e-6
-1.120, 1.823e-6
-1.121, 1.646e-6
-1.122, 1.813e-6
-1.123, 1.833e-6
-1.124, 1.695e-6
-1.125, 1.586e-6
-1.126, 1.803e-6
-1.127, 1.705e-6
-1.128, 1.833e-6
-1.129, 1.754e-6
-1.130, 1.853e-6
-1.131, 1.636e-6
-1.132, 1.695e-6
-1.133, 1.942e-6
-1.134, 1.843e-6
-1.135, 1.705e-6
-1.136, 1.863e-6
-1.137, 1.725e-6
-1.138, 1.813e-6
-1.139, 1.902e-6
-1.140, 1.882e-6
-1.141, 1.803e-6
-1.142, 1.922e-6
-1.143, 2.040e-6
-1.144, 1.882e-6
-1.145, 1.823e-6
-1.146, 1.873e-6
-1.147, 1.863e-6
-1.148, 1.892e-6
-1.149, 1.981e-6
-1.150, 1.892e-6
-1.151, 1.882e-6
-1.152, 1.971e-6
-1.153, 2.011e-6
-1.154, 1.912e-6
-1.155, 1.991e-6
-1.156, 2.011e-6
-1.157, 1.892e-6
-1.158, 2.090e-6
-1.159, 1.981e-6
-1.160, 2.001e-6
-1.161, 1.863e-6
-1.162, 2.050e-6
-1.163, 2.109e-6
-1.164, 1.961e-6
-1.165, 2.188e-6
-1.166, 1.942e-6
-1.167, 1.932e-6
-1.168, 2.001e-6
-1.169, 2.001e-6
-1.170, 2.011e-6
-1.171, 2.040e-6
-1.172, 2.011e-6
-1.173, 2.011e-6
-1.174, 2.040e-6
-1.175, 2.139e-6
-1.176, 2.040e-6
-1.177, 2.011e-6
-1.178, 2.238e-6
-1.179, 2.060e-6
-1.180, 2.208e-6
-1.181, 2.139e-6
-1.182, 2.149e-6
-1.183, 2.208e-6
-1.184, 2.109e-6
-1.185, 2.208e-6
-1.186, 2.099e-6
-1.187, 2.218e-6
-1.188, 2.238e-6
-1.189, 2.178e-6
-1.190, 2.119e-6
-1.191, 2.169e-6
-1.192, 2.149e-6
-1.193, 2.346e-6
-1.194, 2.257e-6
-1.195, 2.208e-6
-1.196, 2.208e-6
-1.197, 2.149e-6
-1.198, 2.287e-6
-1.199, 2.346e-6
-1.200, 2.139e-6
-1.201, 2.228e-6
-1.202, 2.247e-6
-1.203, 2.366e-6
-1.204, 2.395e-6
-1.205, 2.326e-6
-1.206, 2.346e-6
-1.207, 2.277e-6
-1.208, 2.297e-6
-1.209, 2.208e-6
-1.210, 2.336e-6
-1.211, 2.376e-6
-1.212, 2.346e-6
-1.213, 2.534e-6
-1.214, 2.405e-6
-1.215, 2.425e-6
-1.216, 2.494e-6
-1.217, 2.376e-6
-1.218, 2.386e-6
-1.219, 2.307e-6
-1.220, 2.395e-6
-1.221, 2.415e-6
-1.222, 2.405e-6
-1.223, 2.474e-6
-1.224, 2.415e-6
-1.225, 2.514e-6
-1.226, 2.484e-6
-1.227, 2.395e-6
-1.228, 2.514e-6
-1.229, 2.701e-6
-1.230, 2.632e-6
-1.231, 2.603e-6
-1.232, 2.632e-6
-1.233, 2.613e-6
-1.234, 2.573e-6
-1.235, 2.682e-6
-1.236, 2.593e-6
-1.237, 2.573e-6
-1.238, 2.682e-6
-1.239, 2.603e-6
-1.240, 2.632e-6
-1.241, 2.632e-6
-1.242, 2.701e-6
-1.243, 2.751e-6
-1.244, 2.593e-6
-1.245, 2.731e-6
-1.246, 2.760e-6
-1.247, 2.613e-6
-1.248, 2.790e-6
-1.249, 2.790e-6
-1.250, 2.741e-6
-1.251, 2.691e-6
-1.252, 2.652e-6
-1.253, 2.780e-6
-1.254, 2.613e-6
-1.255, 2.760e-6
-1.256, 2.800e-6
-1.257, 2.839e-6
-1.258, 2.859e-6
-1.259, 2.751e-6
-1.260, 2.731e-6
-1.261, 2.800e-6
-1.262, 2.849e-6
-1.263, 2.908e-6
-1.264, 2.849e-6
-1.265, 2.889e-6
-1.266, 2.701e-6
-1.267, 2.869e-6
-1.268, 2.928e-6
-1.269, 3.007e-6
-1.270, 2.889e-6
-1.271, 2.869e-6
-1.272, 2.889e-6
-1.273, 2.938e-6
-1.274, 2.830e-6
-1.275, 2.948e-6
-1.276, 2.918e-6
-1.277, 2.968e-6
-1.278, 2.987e-6
-1.279, 2.918e-6
-1.280, 2.948e-6
-1.281, 3.056e-6
-1.282, 3.106e-6
-1.283, 3.234e-6
-1.284, 3.096e-6
-1.285, 2.978e-6
-1.286, 2.978e-6
-1.287, 3.116e-6
-1.288, 3.185e-6
-1.289, 3.175e-6
-1.290, 3.135e-6
-1.291, 3.106e-6
-1.292, 3.126e-6
-1.293, 3.303e-6
-1.294, 3.283e-6
-1.295, 3.116e-6
-1.296, 3.195e-6
-1.297, 3.135e-6
-1.298, 3.323e-6
-1.299, 3.343e-6
-1.300, 3.244e-6
-1.301, 3.283e-6
-1.302, 3.362e-6
-1.303, 3.431e-6
-1.304, 3.274e-6
-1.305, 3.283e-6
-1.306, 3.382e-6
-1.307, 3.422e-6
-1.308, 3.510e-6
-1.309, 3.530e-6
-1.310, 3.451e-6
-1.311, 3.402e-6
-1.312, 3.481e-6
-1.313, 3.619e-6
-1.314, 3.619e-6
-1.315, 3.599e-6
-1.316, 3.500e-6
-1.317, 3.599e-6
-1.318, 3.708e-6
-1.319, 3.658e-6
-1.320, 3.698e-6
-1.321, 3.757e-6
-1.322, 3.806e-6
-1.323, 3.925e-6
-1.324, 3.737e-6
-1.325, 3.875e-6
-1.326, 3.826e-6
-1.327, 3.895e-6
-1.328, 3.925e-6
-1.329, 4.023e-6
-1.330, 4.013e-6
-1.331, 4.092e-6
-1.332, 4.053e-6
-1.333, 4.270e-6
-1.334, 4.260e-6
-1.335, 4.270e-6
-1.336, 4.309e-6
-1.337, 4.467e-6
-1.338, 4.674e-6
-1.339, 4.655e-6
-1.340, 4.526e-6
-1.341, 4.635e-6
-1.342, 4.605e-6
-1.343, 4.852e-6
-1.344, 4.842e-6
-1.345, 4.852e-6
-1.346, 4.921e-6
-1.347, 5.079e-6
-1.348, 5.079e-6
-1.349, 5.118e-6
-1.350, 5.257e-6
-1.351, 5.414e-6
-1.352, 5.326e-6
-1.353, 5.483e-6
-1.354, 5.592e-6
-1.355, 5.562e-6
-1.356, 5.730e-6
-1.357, 5.809e-6
-1.358, 6.056e-6
-1.359, 6.046e-6
-1.360, 6.105e-6
-1.361, 6.312e-6
-1.362, 6.371e-6
-1.363, 6.608e-6
-1.364, 6.529e-6
-1.365, 6.766e-6
-1.366, 6.796e-6
-1.367, 7.013e-6
-1.368, 7.171e-6
-1.369, 7.289e-6
-1.370, 7.526e-6
-1.371, 7.545e-6
-1.372, 7.674e-6
-1.373, 7.871e-6
-1.374, 8.029e-6
-1.375, 8.098e-6
-1.376, 8.384e-6
-1.377, 8.552e-6
-1.378, 8.759e-6
-1.379, 8.877e-6
-1.380, 9.114e-6
-1.381, 9.203e-6
-1.382, 9.400e-6
-1.383, 9.765e-6
-1.384, 9.933e-6
-1.385, 1.024e-5
-1.386, 1.034e-5
-1.387, 1.045e-5
-1.388, 1.087e-5
-1.389, 1.110e-5
-1.390, 1.127e-5
-1.391, 1.141e-5
-1.392, 1.164e-5
-1.393, 1.200e-5
-1.394, 1.216e-5
-1.395, 1.257e-5
-1.396, 1.288e-5
-1.397, 1.312e-5
-1.398, 1.346e-5
-1.399, 1.361e-5
-1.400, 1.399e-5
-1.401, 1.416e-5
-1.402, 1.452e-5
-1.403, 1.488e-5
-1.404, 1.531e-5
-1.405, 1.546e-5
-1.406, 1.576e-5
-1.407, 1.610e-5
-1.408, 1.656e-5
-1.409, 1.692e-5
-1.410, 1.722e-5
-1.411, 1.767e-5
-1.412, 1.800e-5
-1.413, 1.846e-5
-1.414, 1.879e-5
-1.415, 1.914e-5
-1.416, 1.957e-5
-1.417, 2.002e-5
-1.418, 2.050e-5
-1.419, 2.086e-5
-1.420, 2.129e-5
-1.421, 2.177e-5
-1.422, 2.223e-5
-1.423, 2.271e-5
-1.424, 2.311e-5
-1.425, 2.354e-5
-1.426, 2.417e-5
-1.427, 2.462e-5
-1.428, 2.518e-5
-1.429, 2.568e-5
-1.430, 2.619e-5
-1.431, 2.671e-5
-1.432, 2.724e-5
-1.433, 2.803e-5
-1.434, 2.850e-5
-1.435, 2.921e-5
-1.436, 2.974e-5
-1.437, 3.037e-5
-1.438, 3.104e-5
-1.439, 3.151e-5
-1.440, 3.214e-5
-1.441, 3.267e-5
-1.442, 3.340e-5
-1.443, 3.399e-5
-1.444, 3.471e-5
-1.445, 3.533e-5
-1.446, 3.586e-5
-1.447, 3.655e-5
-1.448, 3.733e-5
-1.449, 3.788e-5
-1.450, 3.866e-5
-1.451, 3.934e-5
-1.452, 4.005e-5
-1.453, 4.084e-5
-1.454, 4.169e-5
-1.455, 4.232e-5
-1.456, 4.320e-5
-1.457, 4.383e-5
-1.458, 4.458e-5
-1.459, 4.540e-5
-1.460, 4.619e-5
-1.461, 4.693e-5
-1.462, 4.789e-5
-1.463, 4.859e-5
-1.464, 4.951e-5
-1.465, 5.025e-5
-1.466, 5.128e-5
-1.467, 5.215e-5
-1.468, 5.315e-5
-1.469, 5.390e-5
-1.470, 5.469e-5
-1.471, 5.547e-5
-1.472, 5.649e-5
-1.473, 5.735e-5
-1.474, 5.821e-5
-1.475, 5.910e-5
-1.476, 6.006e-5
-1.477, 6.106e-5
-1.478, 6.229e-5
-1.479, 6.328e-5
-1.480, 6.417e-5
-1.481, 6.535e-5
-1.482, 6.645e-5
-1.483, 6.742e-5
-1.484, 6.850e-5
-1.485, 6.978e-5
-1.486, 7.064e-5
-1.487, 7.187e-5
-1.488, 7.322e-5
-1.489, 7.430e-5
-1.490, 7.557e-5
-1.491, 7.685e-5
-1.492, 7.799e-5
-1.493, 7.948e-5
-1.494, 8.083e-5
-1.495, 8.209e-5
-1.496, 8.299e-5
-1.497, 8.413e-5
-1.498, 8.534e-5
-1.499, 8.666e-5
-1.500, 8.827e-5
-1.501, 8.928e-5
-1.502, 9.069e-5
-1.503, 9.268e-5
-1.504, 9.443e-5
-1.505, 9.580e-5
-1.506, 9.621e-5
-1.507, 9.796e-5
-1.508, 9.993e-5
-1.509, 1.018e-4
-1.510, 1.027e-4
-1.511, 1.042e-4
-1.512, 1.065e-4
-1.513, 1.077e-4
-1.514, 1.084e-4
-1.515, 1.096e-4
-1.516, 1.121e-4
-1.517, 1.145e-4
-1.518, 1.157e-4
-1.519, 1.159e-4
-1.520, 1.182e-4
-1.521, 1.201e-4
-1.522, 1.216e-4
-1.523, 1.220e-4
-1.524, 1.241e-4
-1.525, 1.256e-4
-1.526, 1.268e-4
-1.527, 1.284e-4
-1.528, 1.312e-4
-1.529, 1.329e-4
-1.530, 1.341e-4
-1.531, 1.355e-4
-1.532, 1.381e-4
-1.533, 1.400e-4
-1.534, 1.401e-4
-1.535, 1.432e-4
-1.536, 1.451e-4
-1.537, 1.465e-4
-1.538, 1.483e-4
-1.539, 1.512e-4
-1.540, 1.536e-4
-1.541, 1.537e-4
-1.542, 1.575e-4
-1.543, 1.595e-4
-1.544, 1.593e-4
-1.545, 1.617e-4
-1.546, 1.636e-4
-1.547, 1.648e-4
-1.548, 1.671e-4
-1.549, 1.694e-4
-1.550, 1.718e-4
-1.551, 1.730e-4
-1.552, 1.753e-4
-1.553, 1.772e-4
-1.554, 1.786e-4
-1.555, 1.818e-4
-1.556, 1.841e-4
-1.557, 1.854e-4
-1.558, 1.886e-4
-1.559, 1.904e-4
-1.560, 1.922e-4
-1.561, 1.948e-4
-1.562, 1.974e-4
-1.563, 2.003e-4
-1.564, 2.021e-4
-1.565, 2.032e-4
-1.566, 2.063e-4
-1.567, 2.086e-4
-1.568, 2.100e-4
-1.569, 2.139e-4
-1.570, 2.161e-4
-1.571, 2.185e-4
-1.572, 2.221e-4
-1.573, 2.229e-4
-1.574, 2.258e-4
-1.575, 2.279e-4
-1.576, 2.288e-4
-1.577, 2.323e-4
-1.578, 2.406e-4
-1.579, 2.405e-4
-1.580, 2.429e-4
-1.581, 2.434e-4
-1.582, 2.470e-4
-1.583, 2.496e-4
-1.584, 2.505e-4
-1.585, 2.565e-4
-1.586, 2.571e-4
-1.587, 2.598e-4
-1.588, 2.628e-4
-1.589, 2.639e-4
-1.590, 2.674e-4
-1.591, 2.698e-4
-1.592, 2.717e-4
-1.593, 2.746e-4
-1.594, 2.759e-4
-1.595, 2.799e-4
-1.596, 2.814e-4
-1.597, 2.824e-4
-1.598, 2.871e-4
-1.599, 2.877e-4
-1.600, 2.913e-4
-1.601, 2.923e-4
-1.602, 2.935e-4
-1.603, 2.984e-4
-1.604, 2.999e-4
-1.605, 3.029e-4
-1.606, 3.048e-4
-1.607, 3.065e-4
-1.608, 3.116e-4
-1.609, 3.127e-4
-1.610, 3.154e-4
-1.611, 3.182e-4
-1.612, 3.192e-4
-1.613, 3.241e-4
-1.614, 3.253e-4
-1.615, 3.286e-4
-1.616, 3.360e-4
-1.617, 3.389e-4
-1.618, 3.426e-4
-1.619, 3.435e-4
-1.620, 3.482e-4
-1.621, 3.513e-4
-1.622, 3.578e-4
-1.623, 3.584e-4
-1.624, 3.594e-4
-1.625, 3.612e-4
-1.626, 3.660e-4
-1.627, 3.699e-4
-1.628, 3.721e-4
-1.629, 3.748e-4
-1.630, 3.786e-4
-1.631, 3.815e-4
-1.632, 3.837e-4
-1.633, 3.871e-4
-1.634, 3.906e-4
-1.635, 3.918e-4
-1.636, 3.956e-4
-1.637, 3.976e-4
-1.638, 4.030e-4
-1.639, 4.050e-4
-1.640, 4.099e-4
-1.641, 4.111e-4
-1.642, 4.177e-4
-1.643, 4.192e-4
-1.644, 4.238e-4
-1.645, 4.261e-4
-1.646, 4.278e-4
-1.647, 4.323e-4
-1.648, 4.349e-4
-1.649, 4.378e-4
-1.650, 4.432e-4
-1.651, 4.452e-4
-1.652, 4.485e-4
-1.653, 4.523e-4
-1.654, 4.581e-4
-1.655, 4.610e-4
-1.656, 4.678e-4
-1.657, 4.716e-4
-1.658, 4.747e-4
-1.659, 4.802e-4
-1.660, 4.816e-4
-1.661, 4.850e-4
-1.662, 4.966e-4
-1.663, 4.961e-4
-1.664, 5.025e-4
-1.665, 5.044e-4
-1.666, 5.121e-4
-1.667, 5.166e-4
-1.668, 5.194e-4
-1.669, 5.240e-4
-1.670, 5.277e-4
-1.671, 5.321e-4
-1.672, 5.374e-4
-1.673, 5.428e-4
-1.674, 5.443e-4
-1.675, 5.550e-4
-1.676, 5.705e-4
-1.677, 5.867e-4
-1.678, 5.888e-4
-1.679, 5.923e-4
-1.680, 5.977e-4
-1.681, 5.969e-4
-1.682, 6.030e-4
-1.683, 6.074e-4
-1.684, 6.130e-4
-1.685, 6.200e-4
-1.686, 6.218e-4
-1.687, 6.297e-4
-1.688, 6.393e-4
-1.689, 6.439e-4
-1.690, 6.467e-4
-1.691, 6.494e-4
-1.692, 6.527e-4
-1.693, 6.572e-4
-1.694, 6.620e-4
-1.695, 6.692e-4
-1.696, 6.747e-4
-1.697, 6.817e-4
-1.698, 6.862e-4
-1.699, 6.906e-4
-1.700, 6.980e-4
-1.701, 7.056e-4
-1.702, 7.115e-4
-1.703, 7.136e-4
-1.704, 7.193e-4
-1.705, 7.287e-4
-1.706, 7.481e-4
-1.707, 7.493e-4
-1.708, 7.548e-4
-1.709, 7.620e-4
-1.710, 7.667e-4
-1.711, 7.738e-4
-1.712, 7.813e-4
-1.713, 7.875e-4
-1.714, 7.947e-4
-1.715, 8.006e-4
-1.716, 8.073e-4
-1.717, 8.124e-4
-1.718, 8.202e-4
-1.719, 8.293e-4
-1.720, 8.373e-4
-1.721, 8.434e-4
-1.722, 8.512e-4
-1.723, 8.574e-4
-1.724, 8.642e-4
-1.725, 8.771e-4
-1.726, 8.837e-4
-1.727, 8.913e-4
-1.728, 8.958e-4
-1.729, 9.069e-4
-1.730, 9.179e-4
-1.731, 9.235e-4
-1.732, 9.325e-4
-1.733, 9.385e-4
-1.734, 9.482e-4
-1.735, 9.569e-4
-1.736, 9.711e-4
-1.737, 9.811e-4
-1.738, 9.902e-4
-1.739, 1.003e-3
-1.740, 1.014e-3
-1.741, 1.023e-3
-1.742, 1.033e-3
-1.743, 1.043e-3
-1.744, 1.065e-3
-1.745, 1.085e-3
-1.746, 1.098e-3
-1.747, 1.105e-3
-1.748, 1.114e-3
-1.749, 1.135e-3
-1.750, 1.161e-3
-1.751, 1.185e-3
-1.752, 1.197e-3
-1.753, 1.205e-3
-1.754, 1.217e-3
-1.755, 1.227e-3
-1.756, 1.240e-3
-1.757, 1.252e-3
-1.758, 1.263e-3
-1.759, 1.282e-3
-1.760, 1.297e-3
-1.761, 1.311e-3
-1.762, 1.320e-3
-1.763, 1.335e-3
-1.764, 1.351e-3
-1.765, 1.367e-3
-1.766, 1.380e-3
-1.767, 1.401e-3
-1.768, 1.418e-3
-1.769, 1.442e-3
-1.770, 1.452e-3
-1.771, 1.467e-3
-1.772, 1.486e-3
-1.773, 1.503e-3
-1.774, 1.519e-3
-1.775, 1.546e-3
-1.776, 1.568e-3
-1.777, 1.579e-3
-1.778, 1.596e-3
-1.779, 1.617e-3
-1.780, 1.649e-3
-1.781, 1.666e-3
-1.782, 1.686e-3
-1.783, 1.726e-3
-1.784, 1.750e-3
-1.785, 1.769e-3
-1.786, 1.787e-3
-1.787, 1.808e-3
-1.788, 1.832e-3
-1.789, 1.855e-3
-1.790, 1.878e-3
-1.791, 1.901e-3
-1.792, 1.926e-3
-1.793, 1.953e-3
-1.794, 1.975e-3
-1.795, 1.998e-3
-1.796, 2.024e-3
-1.797, 2.046e-3
-1.798, 2.071e-3
-1.799, 2.103e-3
-1.800, 2.148e-3
-1.801, 2.172e-3
-1.802, 2.201e-3
-1.803, 2.220e-3
-1.804, 2.249e-3
-1.805, 2.274e-3
-1.806, 2.303e-3
-1.807, 2.336e-3
-1.808, 2.362e-3
-1.809, 2.391e-3
-1.810, 2.421e-3
-1.811, 2.451e-3
-1.812, 2.492e-3
-1.813, 2.526e-3
-1.814, 2.577e-3
-1.815, 2.613e-3
-1.816, 2.635e-3
-1.817, 2.663e-3
-1.818, 2.698e-3
-1.819, 2.726e-3
-1.820, 2.759e-3
-1.821, 2.784e-3
-1.822, 2.821e-3
-1.823, 2.847e-3
-1.824, 2.880e-3
-1.825, 2.910e-3
-1.826, 2.947e-3
-1.827, 2.976e-3
-1.828, 3.014e-3
-1.829, 3.046e-3
-1.830, 3.085e-3
-1.831, 3.125e-3
-1.832, 3.168e-3
-1.833, 3.203e-3
-1.834, 3.241e-3
-1.835, 3.274e-3
-1.836, 3.311e-3
-1.837, 3.352e-3
-1.838, 3.390e-3
-1.839, 3.426e-3
-1.840, 3.460e-3
-1.841, 3.536e-3
-1.842, 3.564e-3
-1.843, 3.598e-3
-1.844, 3.640e-3
-1.845, 3.673e-3
-1.846, 3.709e-3
-1.847, 3.745e-3
-1.848, 3.783e-3
-1.849, 3.835e-3
-1.850, 3.895e-3
-1.851, 3.933e-3
-1.852, 3.969e-3
-1.853, 4.008e-3
-1.854, 4.041e-3
-1.855, 4.079e-3
-1.856, 4.119e-3
-1.857, 4.157e-3
-1.858, 4.195e-3
-1.859, 4.240e-3
-1.860, 4.276e-3
-1.861, 4.315e-3
-1.862, 4.353e-3
-1.863, 4.391e-3
-1.864, 4.428e-3
-1.865, 4.469e-3
-1.866, 4.524e-3
-1.867, 4.564e-3
-1.868, 4.600e-3
-1.869, 4.643e-3
-1.870, 4.682e-3
-1.871, 4.722e-3
-1.872, 4.764e-3
-1.873, 4.811e-3
-1.874, 4.870e-3
-1.875, 4.928e-3
-1.876, 4.969e-3
-1.877, 5.000e-3
-1.878, 5.043e-3
-1.879, 5.090e-3
-1.880, 5.139e-3
-1.881, 5.178e-3
-1.882, 5.216e-3
-1.883, 5.259e-3
-1.884, 5.299e-3
-1.885, 5.336e-3
-1.886, 5.376e-3
-1.887, 5.425e-3
-1.888, 5.467e-3
-1.889, 5.502e-3
-1.890, 5.550e-3
-1.891, 5.595e-3
-1.892, 5.648e-3
-1.893, 5.708e-3
-1.894, 5.750e-3
-1.895, 5.790e-3
-1.896, 5.834e-3
-1.897, 5.877e-3
-1.898, 5.917e-3
-1.899, 5.969e-3
-1.900, 5.980e-3
-1.899, 5.953e-3
-1.898, 5.924e-3
-1.897, 5.898e-3
-1.896, 5.897e-3
-1.895, 5.863e-3
-1.894, 5.837e-3
-1.893, 5.811e-3
-1.892, 5.780e-3
-1.891, 5.760e-3
-1.890, 5.724e-3
-1.889, 5.693e-3
-1.888, 5.660e-3
-1.887, 5.627e-3
-1.886, 5.594e-3
-1.885, 5.566e-3
-1.884, 5.528e-3
-1.883, 5.498e-3
-1.882, 5.467e-3
-1.881, 5.429e-3
-1.880, 5.402e-3
-1.879, 5.381e-3
-1.878, 5.345e-3
-1.877, 5.309e-3
-1.876, 5.278e-3
-1.875, 5.249e-3
-1.874, 5.212e-3
-1.873, 5.176e-3
-1.872, 5.150e-3
-1.871, 5.119e-3
-1.870, 5.121e-3
-1.869, 5.093e-3
-1.868, 5.052e-3
-1.867, 5.015e-3
-1.866, 4.976e-3
-1.865, 4.941e-3
-1.864, 4.915e-3
-1.863, 4.971e-3
-1.862, 4.935e-3
-1.861, 4.895e-3
-1.860, 4.845e-3
-1.859, 4.811e-3
-1.858, 4.770e-3
-1.857, 4.740e-3
-1.856, 4.706e-3
-1.855, 4.676e-3
-1.854, 4.641e-3
-1.853, 4.606e-3
-1.852, 4.570e-3
-1.851, 4.534e-3
-1.850, 4.502e-3
-1.849, 4.466e-3
-1.848, 4.432e-3
-1.847, 4.397e-3
-1.846, 4.368e-3
-1.845, 4.343e-3
-1.844, 4.312e-3
-1.843, 4.287e-3
-1.842, 4.252e-3
-1.841, 4.214e-3
-1.840, 4.184e-3
-1.839, 4.152e-3
-1.838, 4.115e-3
-1.837, 4.080e-3
-1.836, 4.045e-3
-1.835, 4.010e-3
-1.834, 3.983e-3
-1.833, 3.948e-3
-1.832, 3.913e-3
-1.831, 3.881e-3
-1.830, 3.860e-3
-1.829, 3.823e-3
-1.828, 3.788e-3
-1.827, 3.758e-3
-1.826, 3.731e-3
-1.825, 3.699e-3
-1.824, 3.667e-3
-1.823, 3.637e-3
-1.822, 3.606e-3
-1.821, 3.583e-3
-1.820, 3.557e-3
-1.819, 3.528e-3
-1.818, 3.497e-3
-1.817, 3.467e-3
-1.816, 3.435e-3
-1.815, 3.403e-3
-1.814, 3.372e-3
-1.813, 3.342e-3
-1.812, 3.313e-3
-1.811, 3.283e-3
-1.810, 3.255e-3
-1.809, 3.239e-3
-1.808, 3.234e-3
-1.807, 3.199e-3
-1.806, 3.162e-3
-1.805, 3.134e-3
-1.804, 3.106e-3
-1.803, 3.084e-3
-1.802, 3.055e-3
-1.801, 3.030e-3
-1.800, 3.001e-3
-1.799, 2.973e-3
-1.798, 2.945e-3
-1.797, 2.918e-3
-1.796, 2.892e-3
-1.795, 2.863e-3
-1.794, 2.836e-3
-1.793, 2.815e-3
-1.792, 2.794e-3
-1.791, 2.767e-3
-1.790, 2.738e-3
-1.789, 2.711e-3
-1.788, 2.686e-3
-1.787, 2.661e-3
-1.786, 2.634e-3
-1.785, 2.613e-3
-1.784, 2.588e-3
-1.783, 2.562e-3
-1.782, 2.539e-3
-1.781, 2.513e-3
-1.780, 2.484e-3
-1.779, 2.460e-3
-1.778, 2.435e-3
-1.777, 2.417e-3
-1.776, 2.389e-3
-1.775, 2.365e-3
-1.774, 2.350e-3
-1.773, 2.320e-3
-1.772, 2.296e-3
-1.771, 2.273e-3
-1.770, 2.253e-3
-1.769, 2.235e-3
-1.768, 2.211e-3
-1.767, 2.186e-3
-1.766, 2.164e-3
-1.765, 2.140e-3
-1.764, 2.118e-3
-1.763, 2.098e-3
-1.762, 2.074e-3
-1.761, 2.051e-3
-1.760, 2.035e-3
-1.759, 2.011e-3
-1.758, 1.993e-3
-1.757, 1.972e-3
-1.756, 1.949e-3
-1.755, 1.930e-3
-1.754, 1.907e-3
-1.753, 1.902e-3
-1.752, 1.882e-3
-1.751, 1.859e-3
-1.750, 1.842e-3
-1.749, 1.821e-3
-1.748, 1.799e-3
-1.747, 1.777e-3
-1.746, 1.757e-3
-1.745, 1.737e-3
-1.744, 1.718e-3
-1.743, 1.700e-3
-1.742, 1.683e-3
-1.741, 1.662e-3
-1.740, 1.643e-3
-1.739, 1.622e-3
-1.738, 1.606e-3
-1.737, 1.589e-3
-1.736, 1.571e-3
-1.735, 1.553e-3
-1.734, 1.535e-3
-1.733, 1.518e-3
-1.732, 1.501e-3
-1.731, 1.483e-3
-1.730, 1.464e-3
-1.729, 1.449e-3
-1.728, 1.432e-3
-1.727, 1.418e-3
-1.726, 1.405e-3
-1.725, 1.384e-3
-1.724, 1.372e-3
-1.723, 1.358e-3
-1.722, 1.356e-3
-1.721, 1.344e-3
-1.720, 1.330e-3
-1.719, 1.313e-3
-1.718, 1.295e-3
-1.717, 1.278e-3
-1.716, 1.263e-3
-1.715, 1.246e-3
-1.714, 1.231e-3
-1.713, 1.219e-3
-1.712, 1.207e-3
-1.711, 1.194e-3
-1.710, 1.176e-3
-1.709, 1.164e-3
-1.708, 1.148e-3
-1.707, 1.134e-3
-1.706, 1.120e-3
-1.705, 1.108e-3
-1.704, 1.096e-3
-1.703, 1.080e-3
-1.702, 1.065e-3
-1.701, 1.053e-3
-1.700, 1.037e-3
-1.699, 1.027e-3
-1.698, 1.014e-3
-1.697, 1.003e-3
-1.696, 9.876e-4
-1.695, 9.762e-4
-1.694, 9.637e-4
-1.693, 9.529e-4
-1.692, 9.405e-4
-1.691, 9.302e-4
-1.690, 9.171e-4
-1.689, 9.038e-4
-1.688, 8.949e-4
-1.687, 8.838e-4
-1.686, 8.721e-4
-1.685, 8.652e-4
-1.684, 8.581e-4
-1.683, 8.417e-4
-1.682, 8.319e-4
-1.681, 8.195e-4
-1.680, 8.103e-4
-1.679, 7.982e-4
-1.678, 7.889e-4
-1.677, 7.776e-4
-1.676, 7.702e-4
-1.675, 7.587e-4
-1.674, 7.487e-4
-1.673, 7.394e-4
-1.672, 7.289e-4
-1.671, 7.208e-4
-1.670, 7.109e-4
-1.669, 7.013e-4
-1.668, 6.925e-4
-1.667, 6.834e-4
-1.666, 6.730e-4
-1.665, 6.641e-4
-1.664, 6.562e-4
-1.663, 6.491e-4
-1.662, 6.382e-4
-1.661, 6.297e-4
-1.660, 6.208e-4
-1.659, 6.142e-4
-1.658, 6.115e-4
-1.657, 6.012e-4
-1.656, 5.938e-4
-1.655, 5.840e-4
-1.654, 5.780e-4
-1.653, 5.681e-4
-1.652, 5.616e-4
-1.651, 5.529e-4
-1.650, 5.451e-4
-1.649, 5.374e-4
-1.648, 5.308e-4
-1.647, 5.247e-4
-1.646, 5.160e-4
-1.645, 5.110e-4
-1.644, 5.045e-4
-1.643, 4.977e-4
-1.642, 4.910e-4
-1.641, 4.853e-4
-1.640, 4.791e-4
-1.639, 4.714e-4
-1.638, 4.655e-4
-1.637, 4.606e-4
-1.636, 4.560e-4
-1.635, 4.489e-4
-1.634, 4.430e-4
-1.633, 4.391e-4
-1.632, 4.357e-4
-1.631, 4.272e-4
-1.630, 4.206e-4
-1.629, 4.166e-4
-1.628, 4.101e-4
-1.627, 4.049e-4
-1.626, 3.995e-4
-1.625, 3.936e-4
-1.624, 3.890e-4
-1.623, 3.871e-4
-1.622, 3.819e-4
-1.621, 3.751e-4
-1.620, 3.706e-4
-1.619, 3.648e-4
-1.618, 3.608e-4
-1.617, 3.559e-4
-1.616, 3.523e-4
-1.615, 3.459e-4
-1.614, 3.411e-4
-1.613, 3.378e-4
-1.612, 3.338e-4
-1.611, 3.280e-4
-1.610, 3.236e-4
-1.609, 3.192e-4
-1.608, 3.148e-4
-1.607, 3.095e-4
-1.606, 3.054e-4
-1.605, 3.019e-4
-1.604, 2.970e-4
-1.603, 2.925e-4
-1.602, 2.882e-4
-1.601, 2.851e-4
-1.600, 2.825e-4
-1.599, 2.765e-4
-1.598, 2.736e-4
-1.597, 2.689e-4
-1.596, 2.672e-4
-1.595, 2.637e-4
-1.594, 2.594e-4
-1.593, 2.555e-4
-1.592, 2.517e-4
-1.591, 2.488e-4
-1.590, 2.497e-4
-1.589, 2.464e-4
-1.588, 2.422e-4
-1.587, 2.382e-4
-1.586, 2.352e-4
-1.585, 2.321e-4
-1.584, 2.297e-4
-1.583, 2.253e-4
-1.582, 2.221e-4
-1.581, 2.197e-4
-1.580, 2.158e-4
-1.579, 2.134e-4
-1.578, 2.102e-4
-1.577, 2.059e-4
-1.576, 2.021e-4
-1.575, 1.998e-4
-1.574, 1.965e-4
-1.573, 1.936e-4
-1.572, 1.912e-4
-1.571, 1.887e-4
-1.570, 1.849e-4
-1.569, 1.825e-4
-1.568, 1.788e-4
-1.567, 1.763e-4
-1.566, 1.738e-4
-1.565, 1.722e-4
-1.564, 1.691e-4
-1.563, 1.655e-4
-1.562, 1.632e-4
-1.561, 1.602e-4
-1.560, 1.574e-4
-1.559, 1.552e-4
-1.558, 1.525e-4
-1.557, 1.512e-4
-1.556, 1.484e-4
-1.555, 1.463e-4
-1.554, 1.433e-4
-1.553, 1.410e-4
-1.552, 1.391e-4
-1.551, 1.368e-4
-1.550, 1.343e-4
-1.549, 1.323e-4
-1.548, 1.300e-4
-1.547, 1.277e-4
-1.546, 1.258e-4
-1.545, 1.243e-4
-1.544, 1.224e-4
-1.543, 1.205e-4
-1.542, 1.182e-4
-1.541, 1.162e-4
-1.540, 1.140e-4
-1.539, 1.120e-4
-1.538, 1.103e-4
-1.537, 1.082e-4
-1.536, 1.064e-4
-1.535, 1.041e-4
-1.534, 1.026e-4
-1.533, 1.008e-4
-1.532, 9.817e-5
-1.531, 9.718e-5
-1.530, 9.499e-5
-1.529, 9.333e-5
-1.528, 9.171e-5
-1.527, 9.009e-5
-1.526, 8.887e-5
-1.525, 8.717e-5
-1.524, 8.529e-5
-1.523, 8.424e-5
-1.522, 8.254e-5
-1.521, 8.092e-5
-1.520, 7.949e-5
-1.519, 7.794e-5
-1.518, 7.663e-5
-1.517, 7.441e-5
-1.516, 7.311e-5
-1.515, 7.187e-5
-1.514, 7.058e-5
-1.513, 6.925e-5
-1.512, 6.783e-5
-1.511, 6.663e-5
-1.510, 6.498e-5
-1.509, 6.364e-5
-1.508, 6.258e-5
-1.507, 6.120e-5
-1.506, 6.014e-5
-1.505, 5.886e-5
-1.504, 5.745e-5
-1.503, 5.657e-5
-1.502, 5.540e-5
-1.501, 5.422e-5
-1.500, 5.316e-5
-1.499, 5.205e-5
-1.498, 5.097e-5
-1.497, 4.957e-5
-1.496, 4.885e-5
-1.495, 4.760e-5
-1.494, 4.640e-5
-1.493, 4.541e-5
-1.492, 4.446e-5
-1.491, 4.359e-5
-1.490, 4.258e-5
-1.489, 4.164e-5
-1.488, 4.072e-5
-1.487, 3.992e-5
-1.486, 3.897e-5
-1.485, 3.795e-5
-1.484, 3.706e-5
-1.483, 3.625e-5
-1.482, 3.549e-5
-1.481, 3.455e-5
-1.480, 3.398e-5
-1.479, 3.308e-5
-1.478, 3.211e-5
-1.477, 3.140e-5
-1.476, 3.074e-5
-1.475, 2.993e-5
-1.474, 2.928e-5
-1.473, 2.833e-5
-1.472, 2.773e-5
-1.471, 2.700e-5
-1.470, 2.637e-5
-1.469, 2.578e-5
-1.468, 2.491e-5
-1.467, 2.445e-5
-1.466, 2.368e-5
-1.465, 2.341e-5
-1.464, 2.258e-5
-1.463, 2.195e-5
-1.462, 2.150e-5
-1.461, 2.102e-5
-1.460, 2.036e-5
-1.459, 1.972e-5
-1.458, 1.938e-5
-1.457, 1.865e-5
-1.456, 1.819e-5
-1.455, 1.788e-5
-1.454, 1.724e-5
-1.453, 1.675e-5
-1.452, 1.632e-5
-1.451, 1.580e-5
-1.450, 1.555e-5
-1.449, 1.498e-5
-1.448, 1.466e-5
-1.447, 1.424e-5
-1.446, 1.369e-5
-1.445, 1.333e-5
-1.444, 1.288e-5
-1.443, 1.262e-5
-1.442, 1.215e-5
-1.441, 1.181e-5
-1.440, 1.151e-5
-1.439, 1.116e-5
-1.438, 1.078e-5
-1.437, 1.045e-5
-1.436, 1.024e-5
-1.435, 9.943e-6
-1.434, 9.410e-6
-1.433, 9.045e-6
-1.432, 8.868e-6
-1.431, 8.572e-6
-1.430, 8.404e-6
-1.429, 8.039e-6
-1.428, 7.851e-6
-1.427, 7.496e-6
-1.426, 7.240e-6
-1.425, 7.131e-6
-1.424, 6.796e-6
-1.423, 6.500e-6
-1.422, 6.381e-6
-1.421, 6.075e-6
-1.420, 5.967e-6
-1.419, 5.651e-6
-1.418, 5.444e-6
-1.417, 5.336e-6
-1.416, 5.118e-6
-1.415, 4.970e-6
-1.414, 4.694e-6
-1.413, 4.615e-6
-1.412, 4.398e-6
-1.411, 4.290e-6
-1.410, 4.152e-6
-1.409, 3.865e-6
-1.408, 3.708e-6
-1.407, 3.570e-6
-1.406, 3.520e-6
-1.405, 3.422e-6
-1.404, 3.145e-6
-1.403, 3.027e-6
-1.402, 2.987e-6
-1.401, 2.721e-6
-1.400, 2.682e-6
-1.399, 2.553e-6
-1.398, 2.484e-6
-1.397, 2.336e-6
-1.396, 2.247e-6
-1.395, 2.149e-6
-1.394, 1.843e-6
-1.393, 1.882e-6
-1.392, 1.794e-6
-1.391, 1.715e-6
-1.390, 1.695e-6
-1.389, 1.606e-6
-1.388, 1.429e-6
-1.387, 1.409e-6
-1.386, 1.290e-6
-1.385, 1.212e-6
-1.384, 1.251e-6
-1.383, 1.093e-6
-1.382, 1.083e-6
-1.381, 9.353e-7
-1.380, 9.353e-7
-1.379, 7.182e-7
-1.378, 7.577e-7
-1.377, 8.070e-7
-1.376, 5.407e-7
-1.375, 5.801e-7
-1.374, 6.985e-7
-1.373, 4.716e-7
-1.372, 3.433e-7
-1.371, 3.137e-7
-1.370, 4.223e-7
-1.369, 1.559e-7
-1.368, 2.545e-7
-1.367, 3.236e-7
-1.366, 1.263e-7
-1.365, 2.348e-7
-1.364, -6.117e-8
-1.363, -9.077e-8
-1.362, 1.776e-8
-1.361, -1.500e-7
-1.360, -1.184e-8
-1.359, -1.105e-7
-1.358, -2.092e-7
-1.357, -2.585e-7
-1.356, -2.585e-7
-1.355, -2.585e-7
-1.354, -3.571e-7
-1.353, -3.670e-7
-1.352, -3.374e-7
-1.351, -5.249e-7
-1.350, -4.163e-7
-1.349, -5.347e-7
-1.348, -3.177e-7
-1.347, -4.459e-7
-1.346, -4.953e-7
-1.345, -3.571e-7
-1.344, -6.433e-7
-1.343, -5.841e-7
-1.342, -6.630e-7
-1.341, -6.827e-7
-1.340, -6.334e-7
-1.339, -7.222e-7
-1.338, -7.222e-7
-1.337, -8.110e-7
-1.336, -6.926e-7
-1.335, -4.755e-7
-1.334, -7.617e-7
-1.333, -7.617e-7
-1.332, -7.419e-7
-1.331, -8.110e-7
-1.330, -8.603e-7
-1.329, -8.307e-7
-1.328, -8.603e-7
-1.327, -8.504e-7
-1.326, -8.603e-7
-1.325, -7.419e-7
-1.324, -8.110e-7
-1.323, -8.603e-7
-1.322, -8.800e-7
-1.321, -1.028e-6
-1.320, -7.912e-7
-1.319, -9.491e-7
-1.318, -9.392e-7
-1.317, -9.294e-7
-1.316, -9.984e-7
-1.315, -8.406e-7
-1.314, -1.008e-6
-1.313, -1.048e-6
-1.312, -9.688e-7
-1.311, -1.087e-6
-1.310, -8.406e-7
-1.309, -9.392e-7
-1.308, -9.491e-7
-1.307, -9.886e-7
-1.306, -1.058e-6
-1.305, -1.077e-6
-1.304, -1.058e-6
-1.303, -1.048e-6
-1.302, -1.087e-6
-1.301, -1.077e-6
-1.300, -9.195e-7
-1.299, -1.127e-6
-1.298, -1.186e-6
-1.297, -1.067e-6
-1.296, -1.156e-6
-1.295, -1.058e-6
-1.294, -1.077e-6
-1.293, -1.048e-6
-1.292, -1.038e-6
-1.291, -1.186e-6
-1.290, -1.018e-6
-1.289, -1.137e-6
-1.288, -1.087e-6
-1.287, -1.156e-6
-1.286, -1.137e-6
-1.285, -1.028e-6
-1.284, -1.097e-6
-1.283, -1.176e-6
-1.282, -1.176e-6
-1.281, -1.097e-6
-1.280, -1.018e-6
-1.279, -1.077e-6
-1.278, -1.048e-6
-1.277, -1.176e-6
-1.276, -1.215e-6
-1.275, -1.137e-6
-1.274, -1.156e-6
-1.273, -1.137e-6
-1.272, -1.206e-6
-1.271, -1.087e-6
-1.270, -9.984e-7
-1.269, -1.255e-6
-1.268, -1.255e-6
-1.267, -1.137e-6
-1.266, -1.225e-6
-1.265, -1.137e-6
-1.264, -1.275e-6
-1.263, -1.215e-6
-1.262, -1.255e-6
-1.261, -1.275e-6
-1.260, -9.984e-7
-1.259, -1.107e-6
-1.258, -1.117e-6
-1.257, -1.127e-6
-1.256, -1.186e-6
-1.255, -1.146e-6
-1.254, -1.255e-6
-1.253, -1.235e-6
-1.252, -1.285e-6
-1.251, -1.255e-6
-1.250, -1.067e-6
-1.249, -1.117e-6
-1.248, -1.294e-6
-1.247, -1.294e-6
-1.246, -1.334e-6
-1.245, -1.176e-6
-1.244, -1.206e-6
-1.243, -1.196e-6
-1.242, -1.176e-6
-1.241, -1.196e-6
-1.240, -1.215e-6
-1.239, -1.235e-6
-1.238, -1.215e-6
-1.237, -1.275e-6
-1.236, -1.275e-6
-1.235, -1.225e-6
-1.234, -1.137e-6
-1.233, -1.275e-6
-1.232, -1.196e-6
-1.231, -1.235e-6
-1.230, -1.206e-6
-1.229, -1.334e-6
-1.228, -1.393e-6
-1.227, -1.413e-6
-1.226, -1.344e-6
-1.225, -1.314e-6
-1.224, -1.344e-6
-1.223, -1.393e-6
-1.222, -1.373e-6
-1.221, -1.294e-6
-1.220, -1.255e-6
-1.219, -1.294e-6
-1.218, -1.285e-6
-1.217, -1.235e-6
-1.216, -1.265e-6
-1.215, -1.304e-6
-1.214, -1.373e-6
-1.213, -1.363e-6
-1.212, -1.344e-6
-1.211, -1.285e-6
-1.210, -1.176e-6
-1.209, -1.363e-6
-1.208, -1.344e-6
-1.207, -1.344e-6
-1.206, -1.265e-6
-1.205, -1.265e-6
-1.204, -1.423e-6
-1.203, -1.373e-6
-1.202, -1.403e-6
-1.201, -1.255e-6
-1.200, -1.334e-6
-1.199, -1.285e-6
-1.198, -1.393e-6
-1.197, -1.502e-6
-1.196, -1.363e-6
-1.195, -1.314e-6
-1.194, -1.383e-6
-1.193, -1.324e-6
-1.192, -1.363e-6
-1.191, -1.413e-6
-1.190, -1.206e-6
-1.189, -1.373e-6
-1.188, -1.334e-6
-1.187, -1.423e-6
-1.186, -1.413e-6
-1.185, -1.265e-6
-1.184, -1.324e-6
-1.183, -1.363e-6
-1.182, -1.334e-6
-1.181, -1.314e-6
-1.180, -1.275e-6
-1.179, -1.285e-6
-1.178, -1.472e-6
-1.177, -1.472e-6
-1.176, -1.354e-6
-1.175, -1.383e-6
-1.174, -1.433e-6
-1.173, -1.482e-6
-1.172, -1.452e-6
-1.171, -1.433e-6
-1.170, -1.334e-6
-1.169, -1.423e-6
-1.168, -1.433e-6
-1.167, -1.433e-6
-1.166, -1.324e-6
-1.165, -1.433e-6
-1.164, -1.413e-6
-1.163, -1.462e-6
-1.162, -1.373e-6
-1.161, -1.462e-6
-1.160, -1.225e-6
-1.159, -1.442e-6
-1.158, -1.383e-6
-1.157, -1.472e-6
-1.156, -1.393e-6
-1.155, -1.363e-6
-1.154, -1.334e-6
-1.153, -1.383e-6
-1.152, -1.373e-6
-1.151, -1.600e-6
-1.150, -1.354e-6
-1.149, -1.393e-6
-1.148, -1.452e-6
-1.147, -1.383e-6
-1.146, -1.472e-6
-1.145, -1.433e-6
-1.144, -1.442e-6
-1.143, -1.354e-6
-1.142, -1.433e-6
-1.141, -1.413e-6
-1.140, -1.314e-6
-1.139, -1.472e-6
-1.138, -1.413e-6
-1.137, -1.620e-6
-1.136, -1.511e-6
-1.135, -1.383e-6
-1.134, -1.275e-6
-1.133, -1.433e-6
-1.132, -1.452e-6
-1.131, -1.393e-6
-1.130, -1.393e-6
-1.129, -1.462e-6
-1.128, -1.442e-6
-1.127, -1.531e-6
-1.126, -1.561e-6
-1.125, -1.433e-6
-1.124, -1.383e-6
-1.123, -1.630e-6
-1.122, -1.590e-6
-1.121, -1.482e-6
-1.120, -1.551e-6
-1.119, -1.511e-6
-1.118, -1.640e-6
-1.117, -1.551e-6
-1.116, -1.452e-6
-1.115, -1.511e-6
-1.114, -1.383e-6
-1.113, -1.551e-6
-1.112, -1.561e-6
-1.111, -1.600e-6
-1.110, -1.442e-6
-1.109, -1.413e-6
-1.108, -1.531e-6
-1.107, -1.630e-6
-1.106, -1.541e-6
-1.105, -1.413e-6
-1.104, -1.571e-6
-1.103, -1.423e-6
-1.102, -1.502e-6
-1.101, -1.502e-6
-1.100, -1.531e-6
-1.099, -1.571e-6
-1.098, -1.531e-6
-1.097, -1.492e-6
-1.096, -1.600e-6
-1.095, -1.521e-6
-1.094, -1.511e-6
-1.093, -1.669e-6
-1.092, -1.581e-6
-1.091, -1.610e-6
-1.090, -1.472e-6
-1.089, -1.541e-6
-1.088, -1.531e-6
-1.087, -1.531e-6
-1.086, -1.620e-6
-1.085, -1.433e-6
-1.084, -1.541e-6
-1.083, -1.511e-6
-1.082, -1.452e-6
-1.081, -1.561e-6
-1.080, -1.531e-6
-1.079, -1.620e-6
-1.078, -1.452e-6
-1.077, -1.541e-6
-1.076, -1.531e-6
-1.075, -1.758e-6
-1.074, -1.640e-6
-1.073, -1.610e-6
-1.072, -1.531e-6
-1.071, -1.669e-6
-1.070, -1.511e-6
-1.069, -1.659e-6
-1.068, -1.561e-6
-1.067, -1.561e-6
-1.066, -1.640e-6
-1.065, -1.541e-6
-1.064, -1.531e-6
-1.063, -1.502e-6
-1.062, -1.659e-6
-1.061, -1.817e-6
-1.060, -1.669e-6
-1.059, -1.669e-6
-1.058, -1.630e-6
-1.057, -1.630e-6
-1.056, -1.709e-6
-1.055, -1.600e-6
-1.054, -1.581e-6
-1.053, -1.659e-6
-1.052, -1.659e-6
-1.051, -1.620e-6
-1.050, -1.630e-6
-1.049, -1.719e-6
-1.048, -1.788e-6
-1.047, -1.640e-6
-1.046, -1.689e-6
-1.045, -1.669e-6
-1.044, -1.679e-6
-1.043, -1.748e-6
-1.042, -1.837e-6
-1.041, -1.699e-6
-1.040, -1.650e-6
-1.039, -1.738e-6
-1.038, -1.571e-6
-1.037, -1.798e-6
-1.036, -1.729e-6
-1.035, -1.600e-6
-1.034, -1.679e-6
-1.033, -1.886e-6
-1.032, -1.729e-6
-1.031, -1.729e-6
-1.030, -1.669e-6
-1.029, -1.719e-6
-1.028, -1.758e-6
-1.027, -1.807e-6
-1.026, -1.650e-6
-1.025, -1.699e-6
-1.024, -1.955e-6
-1.023, -1.965e-6
-1.022, -1.827e-6
-1.021, -1.807e-6
-1.020, -1.807e-6
-1.019, -1.817e-6
-1.018, -1.788e-6
-1.017, -1.877e-6
-1.016, -1.768e-6
-1.015, -1.778e-6
-1.014, -1.738e-6
-1.013, -1.798e-6
-1.012, -1.738e-6
-1.011, -1.926e-6
-1.010, -1.827e-6
-1.009, -1.719e-6
-1.008, -1.896e-6
-1.007, -1.798e-6
-1.006, -1.847e-6
-1.005, -1.867e-6
-1.004, -1.768e-6
-1.003, -1.936e-6
-1.002, -1.817e-6
-1.001, -1.916e-6
