Apr. 16, 2025   14:59:50
Cyclic Voltammetry
File: c:/users/guazh/data/banditlqround7_x0exp590_r20/2025-04-16-exp1099\exp1099-2025-04-16t14_38_22-arkoh\exp1099_cv_sr_800mvs_efin_-1900mv.bin
Data Source:  Experiment
Instrument Model:  CHI760E
Header: CV ran at 800 mVs
Note: 

Init E (V) = -1
High E (V) = -1
Low E (V) = -1.9
Final E (V) = -1
Init P/N = N
Scan Rate (V/s) = 0.8
Segment = 3
Sample Interval (V) = 0.001
Quiet Time (sec) = 2
Sensitivity (A/V) = 0.01
Comp R (ohm) = 1.9

Results:

Channel 1:
Segment 1:

Segment 2:
Ep = -1.270V
ip = -7.009e-6A
Ah = -2.878e-7C

Segment 3:

Potential/V, Current/A

-1.000, 1.559e-7
-1.001, 3.239e-6
-1.002, 3.239e-6
-1.003, 3.239e-6
-1.004, 3.239e-6
-1.005, 3.239e-6
-1.006, 3.239e-6
-1.007, 3.239e-6
-1.008, 3.239e-6
-1.009, 3.239e-6
-1.010, 3.239e-6
-1.011, 3.239e-6
-1.012, 3.239e-6
-1.013, 3.239e-6
-1.014, 3.239e-6
-1.015, 3.239e-6
-1.016, 3.239e-6
-1.017, 3.239e-6
-1.018, 3.239e-6
-1.019, 3.239e-6
-1.020, 3.239e-6
-1.021, 3.239e-6
-1.022, 3.239e-6
-1.023, 3.239e-6
-1.024, 3.239e-6
-1.025, 3.239e-6
-1.026, 3.239e-6
-1.027, 3.239e-6
-1.028, 3.239e-6
-1.029, 3.239e-6
-1.030, 3.239e-6
-1.031, 3.239e-6
-1.032, 6.322e-6
-1.033, 3.239e-6
-1.034, 3.239e-6
-1.035, 3.239e-6
-1.036, 3.239e-6
-1.037, 6.322e-6
-1.038, 3.239e-6
-1.039, 3.239e-6
-1.040, 3.239e-6
-1.041, 3.239e-6
-1.042, 3.239e-6
-1.043, 3.239e-6
-1.044, 3.239e-6
-1.045, 6.322e-6
-1.046, 6.322e-6
-1.047, 6.322e-6
-1.048, 3.239e-6
-1.049, 6.322e-6
-1.050, 3.239e-6
-1.051, 6.322e-6
-1.052, 3.239e-6
-1.053, 6.322e-6
-1.054, 3.239e-6
-1.055, 6.322e-6
-1.056, 3.239e-6
-1.057, 6.322e-6
-1.058, 6.322e-6
-1.059, 6.322e-6
-1.060, 3.239e-6
-1.061, 6.322e-6
-1.062, 6.322e-6
-1.063, 6.322e-6
-1.064, 6.322e-6
-1.065, 6.322e-6
-1.066, 6.322e-6
-1.067, 6.322e-6
-1.068, 3.239e-6
-1.069, 6.322e-6
-1.070, 3.239e-6
-1.071, 6.322e-6
-1.072, 6.322e-6
-1.073, 6.322e-6
-1.074, 6.322e-6
-1.075, 6.322e-6
-1.076, 6.322e-6
-1.077, 6.322e-6
-1.078, 6.322e-6
-1.079, 6.322e-6
-1.080, 6.322e-6
-1.081, 3.239e-6
-1.082, 6.322e-6
-1.083, 6.322e-6
-1.084, 6.322e-6
-1.085, 6.322e-6
-1.086, 6.322e-6
-1.087, 3.239e-6
-1.088, 6.322e-6
-1.089, 6.322e-6
-1.090, 6.322e-6
-1.091, 6.322e-6
-1.092, 6.322e-6
-1.093, 6.322e-6
-1.094, 6.322e-6
-1.095, 6.322e-6
-1.096, 6.322e-6
-1.097, 6.322e-6
-1.098, 6.322e-6
-1.099, 6.322e-6
-1.100, 6.322e-6
-1.101, 6.322e-6
-1.102, 6.322e-6
-1.103, 6.322e-6
-1.104, 6.322e-6
-1.105, 6.322e-6
-1.106, 6.322e-6
-1.107, 6.322e-6
-1.108, 6.322e-6
-1.109, 6.322e-6
-1.110, 6.322e-6
-1.111, 6.322e-6
-1.112, 6.322e-6
-1.113, 6.322e-6
-1.114, 6.322e-6
-1.115, 6.322e-6
-1.116, 6.322e-6
-1.117, 6.322e-6
-1.118, 6.322e-6
-1.119, 6.322e-6
-1.120, 6.322e-6
-1.121, 6.322e-6
-1.122, 6.322e-6
-1.123, 9.405e-6
-1.124, 6.322e-6
-1.125, 6.322e-6
-1.126, 6.322e-6
-1.127, 6.322e-6
-1.128, 6.322e-6
-1.129, 9.405e-6
-1.130, 6.322e-6
-1.131, 6.322e-6
-1.132, 6.322e-6
-1.133, 9.405e-6
-1.134, 6.322e-6
-1.135, 6.322e-6
-1.136, 6.322e-6
-1.137, 9.405e-6
-1.138, 6.322e-6
-1.139, 6.322e-6
-1.140, 6.322e-6
-1.141, 6.322e-6
-1.142, 9.405e-6
-1.143, 6.322e-6
-1.144, 9.405e-6
-1.145, 6.322e-6
-1.146, 6.322e-6
-1.147, 9.405e-6
-1.148, 9.405e-6
-1.149, 6.322e-6
-1.150, 9.405e-6
-1.151, 9.405e-6
-1.152, 9.405e-6
-1.153, 6.322e-6
-1.154, 9.405e-6
-1.155, 6.322e-6
-1.156, 9.405e-6
-1.157, 9.405e-6
-1.158, 9.405e-6
-1.159, 6.322e-6
-1.160, 9.405e-6
-1.161, 9.405e-6
-1.162, 9.405e-6
-1.163, 9.405e-6
-1.164, 9.405e-6
-1.165, 9.405e-6
-1.166, 6.322e-6
-1.167, 9.405e-6
-1.168, 9.405e-6
-1.169, 9.405e-6
-1.170, 9.405e-6
-1.171, 9.405e-6
-1.172, 9.405e-6
-1.173, 9.405e-6
-1.174, 9.405e-6
-1.175, 9.405e-6
-1.176, 9.405e-6
-1.177, 9.405e-6
-1.178, 9.405e-6
-1.179, 9.405e-6
-1.180, 9.405e-6
-1.181, 9.405e-6
-1.182, 9.405e-6
-1.183, 9.405e-6
-1.184, 9.405e-6
-1.185, 9.405e-6
-1.186, 9.405e-6
-1.187, 9.405e-6
-1.188, 9.405e-6
-1.189, 9.405e-6
-1.190, 9.405e-6
-1.191, 9.405e-6
-1.192, 9.405e-6
-1.193, 9.405e-6
-1.194, 9.405e-6
-1.195, 9.405e-6
-1.196, 9.405e-6
-1.197, 9.405e-6
-1.198, 9.405e-6
-1.199, 9.405e-6
-1.200, 9.405e-6
-1.201, 9.405e-6
-1.202, 9.405e-6
-1.203, 9.405e-6
-1.204, 9.405e-6
-1.205, 9.405e-6
-1.206, 9.405e-6
-1.207, 9.405e-6
-1.208, 1.249e-5
-1.209, 9.405e-6
-1.210, 1.249e-5
-1.211, 9.405e-6
-1.212, 9.405e-6
-1.213, 1.249e-5
-1.214, 1.249e-5
-1.215, 9.405e-6
-1.216, 1.249e-5
-1.217, 9.405e-6
-1.218, 1.249e-5
-1.219, 9.405e-6
-1.220, 1.249e-5
-1.221, 9.405e-6
-1.222, 1.249e-5
-1.223, 9.405e-6
-1.224, 1.249e-5
-1.225, 1.249e-5
-1.226, 1.249e-5
-1.227, 9.405e-6
-1.228, 1.249e-5
-1.229, 9.405e-6
-1.230, 1.249e-5
-1.231, 1.249e-5
-1.232, 1.249e-5
-1.233, 1.249e-5
-1.234, 1.249e-5
-1.235, 1.249e-5
-1.236, 1.249e-5
-1.237, 1.249e-5
-1.238, 1.249e-5
-1.239, 1.249e-5
-1.240, 1.249e-5
-1.241, 1.249e-5
-1.242, 1.249e-5
-1.243, 1.249e-5
-1.244, 1.249e-5
-1.245, 1.249e-5
-1.246, 1.249e-5
-1.247, 1.557e-5
-1.248, 1.249e-5
-1.249, 1.249e-5
-1.250, 1.249e-5
-1.251, 1.557e-5
-1.252, 1.557e-5
-1.253, 1.557e-5
-1.254, 1.249e-5
-1.255, 1.557e-5
-1.256, 1.249e-5
-1.257, 1.557e-5
-1.258, 1.557e-5
-1.259, 1.557e-5
-1.260, 1.557e-5
-1.261, 1.557e-5
-1.262, 1.249e-5
-1.263, 1.249e-5
-1.264, 1.249e-5
-1.265, 1.249e-5
-1.266, 1.557e-5
-1.267, 1.557e-5
-1.268, 1.557e-5
-1.269, 1.557e-5
-1.270, 1.557e-5
-1.271, 1.557e-5
-1.272, 1.557e-5
-1.273, 1.249e-5
-1.274, 1.557e-5
-1.275, 1.557e-5
-1.276, 1.557e-5
-1.277, 1.557e-5
-1.278, 1.557e-5
-1.279, 1.557e-5
-1.280, 1.557e-5
-1.281, 1.557e-5
-1.282, 1.557e-5
-1.283, 1.557e-5
-1.284, 1.557e-5
-1.285, 1.557e-5
-1.286, 1.557e-5
-1.287, 1.557e-5
-1.288, 1.557e-5
-1.289, 1.557e-5
-1.290, 1.557e-5
-1.291, 1.557e-5
-1.292, 1.557e-5
-1.293, 1.557e-5
-1.294, 1.557e-5
-1.295, 1.557e-5
-1.296, 1.557e-5
-1.297, 1.557e-5
-1.298, 1.557e-5
-1.299, 1.557e-5
-1.300, 1.557e-5
-1.301, 1.557e-5
-1.302, 1.557e-5
-1.303, 1.557e-5
-1.304, 1.557e-5
-1.305, 1.557e-5
-1.306, 1.557e-5
-1.307, 1.557e-5
-1.308, 1.557e-5
-1.309, 1.557e-5
-1.310, 1.557e-5
-1.311, 1.865e-5
-1.312, 1.557e-5
-1.313, 1.557e-5
-1.314, 1.557e-5
-1.315, 1.865e-5
-1.316, 1.557e-5
-1.317, 1.865e-5
-1.318, 1.865e-5
-1.319, 1.865e-5
-1.320, 1.557e-5
-1.321, 1.865e-5
-1.322, 1.557e-5
-1.323, 1.557e-5
-1.324, 1.557e-5
-1.325, 1.557e-5
-1.326, 1.865e-5
-1.327, 1.557e-5
-1.328, 1.557e-5
-1.329, 1.865e-5
-1.330, 1.865e-5
-1.331, 1.865e-5
-1.332, 1.557e-5
-1.333, 1.557e-5
-1.334, 1.865e-5
-1.335, 1.865e-5
-1.336, 1.865e-5
-1.337, 1.557e-5
-1.338, 1.865e-5
-1.339, 1.557e-5
-1.340, 1.865e-5
-1.341, 1.865e-5
-1.342, 1.865e-5
-1.343, 1.865e-5
-1.344, 1.865e-5
-1.345, 1.865e-5
-1.346, 1.865e-5
-1.347, 1.865e-5
-1.348, 1.865e-5
-1.349, 1.865e-5
-1.350, 1.865e-5
-1.351, 1.865e-5
-1.352, 1.865e-5
-1.353, 1.865e-5
-1.354, 1.865e-5
-1.355, 1.865e-5
-1.356, 1.865e-5
-1.357, 1.865e-5
-1.358, 1.865e-5
-1.359, 1.865e-5
-1.360, 1.865e-5
-1.361, 1.865e-5
-1.362, 1.865e-5
-1.363, 1.865e-5
-1.364, 1.865e-5
-1.365, 1.865e-5
-1.366, 1.865e-5
-1.367, 1.865e-5
-1.368, 1.865e-5
-1.369, 1.865e-5
-1.370, 1.865e-5
-1.371, 1.865e-5
-1.372, 1.865e-5
-1.373, 1.865e-5
-1.374, 1.865e-5
-1.375, 1.865e-5
-1.376, 1.865e-5
-1.377, 1.865e-5
-1.378, 2.174e-5
-1.379, 1.865e-5
-1.380, 2.174e-5
-1.381, 2.174e-5
-1.382, 2.174e-5
-1.383, 2.174e-5
-1.384, 2.174e-5
-1.385, 2.174e-5
-1.386, 2.174e-5
-1.387, 2.174e-5
-1.388, 2.174e-5
-1.389, 2.174e-5
-1.390, 2.174e-5
-1.391, 2.174e-5
-1.392, 2.174e-5
-1.393, 2.174e-5
-1.394, 2.174e-5
-1.395, 2.174e-5
-1.396, 2.174e-5
-1.397, 2.174e-5
-1.398, 2.174e-5
-1.399, 2.174e-5
-1.400, 2.174e-5
-1.401, 2.174e-5
-1.402, 2.482e-5
-1.403, 2.174e-5
-1.404, 2.482e-5
-1.405, 2.174e-5
-1.406, 2.174e-5
-1.407, 2.174e-5
-1.408, 2.174e-5
-1.409, 2.174e-5
-1.410, 2.482e-5
-1.411, 2.482e-5
-1.412, 2.482e-5
-1.413, 2.174e-5
-1.414, 2.482e-5
-1.415, 2.482e-5
-1.416, 2.482e-5
-1.417, 2.482e-5
-1.418, 2.482e-5
-1.419, 2.482e-5
-1.420, 2.482e-5
-1.421, 2.482e-5
-1.422, 2.482e-5
-1.423, 2.482e-5
-1.424, 2.482e-5
-1.425, 2.482e-5
-1.426, 2.482e-5
-1.427, 2.482e-5
-1.428, 2.482e-5
-1.429, 2.482e-5
-1.430, 2.482e-5
-1.431, 2.790e-5
-1.432, 2.790e-5
-1.433, 2.790e-5
-1.434, 2.482e-5
-1.435, 2.790e-5
-1.436, 2.790e-5
-1.437, 2.790e-5
-1.438, 2.790e-5
-1.439, 2.790e-5
-1.440, 2.790e-5
-1.441, 2.790e-5
-1.442, 2.790e-5
-1.443, 2.790e-5
-1.444, 2.790e-5
-1.445, 2.790e-5
-1.446, 2.790e-5
-1.447, 2.790e-5
-1.448, 2.790e-5
-1.449, 3.099e-5
-1.450, 2.790e-5
-1.451, 3.099e-5
-1.452, 3.099e-5
-1.453, 3.099e-5
-1.454, 2.790e-5
-1.455, 3.099e-5
-1.456, 3.099e-5
-1.457, 3.099e-5
-1.458, 3.099e-5
-1.459, 3.099e-5
-1.460, 3.099e-5
-1.461, 3.099e-5
-1.462, 3.099e-5
-1.463, 3.099e-5
-1.464, 3.099e-5
-1.465, 3.099e-5
-1.466, 3.099e-5
-1.467, 3.099e-5
-1.468, 3.099e-5
-1.469, 3.407e-5
-1.470, 3.407e-5
-1.471, 3.099e-5
-1.472, 3.407e-5
-1.473, 3.099e-5
-1.474, 3.407e-5
-1.475, 3.407e-5
-1.476, 3.407e-5
-1.477, 3.407e-5
-1.478, 3.407e-5
-1.479, 3.407e-5
-1.480, 3.407e-5
-1.481, 3.407e-5
-1.482, 3.407e-5
-1.483, 3.407e-5
-1.484, 3.407e-5
-1.485, 3.407e-5
-1.486, 3.407e-5
-1.487, 3.407e-5
-1.488, 3.407e-5
-1.489, 3.715e-5
-1.490, 3.407e-5
-1.491, 3.407e-5
-1.492, 3.715e-5
-1.493, 3.715e-5
-1.494, 3.715e-5
-1.495, 3.715e-5
-1.496, 3.715e-5
-1.497, 3.715e-5
-1.498, 3.715e-5
-1.499, 3.715e-5
-1.500, 3.715e-5
-1.501, 3.715e-5
-1.502, 3.715e-5
-1.503, 3.715e-5
-1.504, 3.715e-5
-1.505, 3.715e-5
-1.506, 3.715e-5
-1.507, 4.024e-5
-1.508, 3.715e-5
-1.509, 4.024e-5
-1.510, 4.024e-5
-1.511, 4.024e-5
-1.512, 4.024e-5
-1.513, 4.024e-5
-1.514, 4.024e-5
-1.515, 4.024e-5
-1.516, 4.024e-5
-1.517, 4.024e-5
-1.518, 4.024e-5
-1.519, 4.024e-5
-1.520, 4.024e-5
-1.521, 4.024e-5
-1.522, 4.024e-5
-1.523, 4.024e-5
-1.524, 4.024e-5
-1.525, 4.024e-5
-1.526, 4.332e-5
-1.527, 4.024e-5
-1.528, 4.332e-5
-1.529, 4.332e-5
-1.530, 4.332e-5
-1.531, 4.332e-5
-1.532, 4.332e-5
-1.533, 4.332e-5
-1.534, 4.640e-5
-1.535, 4.332e-5
-1.536, 4.332e-5
-1.537, 4.640e-5
-1.538, 4.640e-5
-1.539, 4.640e-5
-1.540, 4.640e-5
-1.541, 4.640e-5
-1.542, 4.640e-5
-1.543, 4.640e-5
-1.544, 4.949e-5
-1.545, 4.640e-5
-1.546, 4.949e-5
-1.547, 4.949e-5
-1.548, 4.949e-5
-1.549, 4.949e-5
-1.550, 4.949e-5
-1.551, 4.949e-5
-1.552, 4.949e-5
-1.553, 4.949e-5
-1.554, 4.949e-5
-1.555, 5.257e-5
-1.556, 5.257e-5
-1.557, 5.257e-5
-1.558, 5.257e-5
-1.559, 5.257e-5
-1.560, 5.257e-5
-1.561, 5.565e-5
-1.562, 5.565e-5
-1.563, 5.565e-5
-1.564, 5.565e-5
-1.565, 5.873e-5
-1.566, 5.873e-5
-1.567, 5.873e-5
-1.568, 5.873e-5
-1.569, 6.182e-5
-1.570, 6.182e-5
-1.571, 6.182e-5
-1.572, 6.182e-5
-1.573, 6.490e-5
-1.574, 6.490e-5
-1.575, 6.798e-5
-1.576, 6.490e-5
-1.577, 6.798e-5
-1.578, 6.798e-5
-1.579, 6.798e-5
-1.580, 7.107e-5
-1.581, 7.107e-5
-1.582, 7.107e-5
-1.583, 7.415e-5
-1.584, 7.415e-5
-1.585, 7.415e-5
-1.586, 7.723e-5
-1.587, 7.723e-5
-1.588, 8.032e-5
-1.589, 8.032e-5
-1.590, 8.032e-5
-1.591, 8.340e-5
-1.592, 8.648e-5
-1.593, 8.340e-5
-1.594, 8.648e-5
-1.595, 8.957e-5
-1.596, 8.957e-5
-1.597, 9.265e-5
-1.598, 9.265e-5
-1.599, 9.573e-5
-1.600, 9.573e-5
-1.601, 9.882e-5
-1.602, 1.019e-4
-1.603, 1.019e-4
-1.604, 1.050e-4
-1.605, 1.050e-4
-1.606, 1.081e-4
-1.607, 1.081e-4
-1.608, 1.111e-4
-1.609, 1.111e-4
-1.610, 1.142e-4
-1.611, 1.173e-4
-1.612, 1.173e-4
-1.613, 1.204e-4
-1.614, 1.235e-4
-1.615, 1.235e-4
-1.616, 1.266e-4
-1.617, 1.296e-4
-1.618, 1.327e-4
-1.619, 1.327e-4
-1.620, 1.358e-4
-1.621, 1.389e-4
-1.622, 1.389e-4
-1.623, 1.451e-4
-1.624, 1.451e-4
-1.625, 1.481e-4
-1.626, 1.512e-4
-1.627, 1.543e-4
-1.628, 1.574e-4
-1.629, 1.605e-4
-1.630, 1.605e-4
-1.631, 1.636e-4
-1.632, 1.666e-4
-1.633, 1.697e-4
-1.634, 1.728e-4
-1.635, 1.759e-4
-1.636, 1.790e-4
-1.637, 1.821e-4
-1.638, 1.851e-4
-1.639, 1.882e-4
-1.640, 1.913e-4
-1.641, 1.944e-4
-1.642, 1.975e-4
-1.643, 2.006e-4
-1.644, 2.036e-4
-1.645, 2.067e-4
-1.646, 2.098e-4
-1.647, 2.129e-4
-1.648, 2.160e-4
-1.649, 2.191e-4
-1.650, 2.252e-4
-1.651, 2.283e-4
-1.652, 2.314e-4
-1.653, 2.345e-4
-1.654, 2.376e-4
-1.655, 2.406e-4
-1.656, 2.468e-4
-1.657, 2.499e-4
-1.658, 2.530e-4
-1.659, 2.561e-4
-1.660, 2.622e-4
-1.661, 2.653e-4
-1.662, 2.684e-4
-1.663, 2.715e-4
-1.664, 2.776e-4
-1.665, 2.807e-4
-1.666, 2.869e-4
-1.667, 2.900e-4
-1.668, 2.961e-4
-1.669, 2.992e-4
-1.670, 3.023e-4
-1.671, 3.085e-4
-1.672, 3.115e-4
-1.673, 3.177e-4
-1.674, 3.208e-4
-1.675, 3.270e-4
-1.676, 3.331e-4
-1.677, 3.362e-4
-1.678, 3.424e-4
-1.679, 3.455e-4
-1.680, 3.516e-4
-1.681, 3.578e-4
-1.682, 3.609e-4
-1.683, 3.670e-4
-1.684, 3.732e-4
-1.685, 3.763e-4
-1.686, 3.825e-4
-1.687, 3.886e-4
-1.688, 3.917e-4
-1.689, 4.010e-4
-1.690, 4.040e-4
-1.691, 4.133e-4
-1.692, 4.164e-4
-1.693, 4.225e-4
-1.694, 4.287e-4
-1.695, 4.349e-4
-1.696, 4.410e-4
-1.697, 4.472e-4
-1.698, 4.534e-4
-1.699, 4.595e-4
-1.700, 4.657e-4
-1.701, 4.750e-4
-1.702, 4.811e-4
-1.703, 4.873e-4
-1.704, 4.965e-4
-1.705, 5.027e-4
-1.706, 5.089e-4
-1.707, 5.181e-4
-1.708, 5.243e-4
-1.709, 5.305e-4
-1.710, 5.397e-4
-1.711, 5.459e-4
-1.712, 5.551e-4
-1.713, 5.644e-4
-1.714, 5.705e-4
-1.715, 5.798e-4
-1.716, 5.890e-4
-1.717, 5.952e-4
-1.718, 6.075e-4
-1.719, 6.137e-4
-1.720, 6.229e-4
-1.721, 6.322e-4
-1.722, 6.414e-4
-1.723, 6.507e-4
-1.724, 6.630e-4
-1.725, 6.692e-4
-1.726, 6.815e-4
-1.727, 6.908e-4
-1.728, 7.031e-4
-1.729, 7.124e-4
-1.730, 7.216e-4
-1.731, 7.339e-4
-1.732, 7.463e-4
-1.733, 7.555e-4
-1.734, 7.679e-4
-1.735, 7.802e-4
-1.736, 7.925e-4
-1.737, 8.048e-4
-1.738, 8.172e-4
-1.739, 8.295e-4
-1.740, 8.418e-4
-1.741, 8.542e-4
-1.742, 8.665e-4
-1.743, 8.819e-4
-1.744, 8.943e-4
-1.745, 9.097e-4
-1.746, 9.220e-4
-1.747, 9.374e-4
-1.748, 9.528e-4
-1.749, 9.683e-4
-1.750, 9.806e-4
-1.751, 9.991e-4
-1.752, 1.011e-3
-1.753, 1.027e-3
-1.754, 1.042e-3
-1.755, 1.061e-3
-1.756, 1.076e-3
-1.757, 1.095e-3
-1.758, 1.110e-3
-1.759, 1.129e-3
-1.760, 1.144e-3
-1.761, 1.166e-3
-1.762, 1.181e-3
-1.763, 1.199e-3
-1.764, 1.218e-3
-1.765, 1.236e-3
-1.766, 1.255e-3
-1.767, 1.277e-3
-1.768, 1.295e-3
-1.769, 1.317e-3
-1.770, 1.338e-3
-1.771, 1.360e-3
-1.772, 1.381e-3
-1.773, 1.403e-3
-1.774, 1.425e-3
-1.775, 1.446e-3
-1.776, 1.468e-3
-1.777, 1.492e-3
-1.778, 1.514e-3
-1.779, 1.539e-3
-1.780, 1.563e-3
-1.781, 1.588e-3
-1.782, 1.613e-3
-1.783, 1.637e-3
-1.784, 1.665e-3
-1.785, 1.687e-3
-1.786, 1.714e-3
-1.787, 1.742e-3
-1.788, 1.770e-3
-1.789, 1.798e-3
-1.790, 1.825e-3
-1.791, 1.853e-3
-1.792, 1.881e-3
-1.793, 1.909e-3
-1.794, 1.939e-3
-1.795, 1.967e-3
-1.796, 1.998e-3
-1.797, 2.029e-3
-1.798, 2.060e-3
-1.799, 2.091e-3
-1.800, 2.124e-3
-1.801, 2.155e-3
-1.802, 2.189e-3
-1.803, 2.220e-3
-1.804, 2.254e-3
-1.805, 2.294e-3
-1.806, 2.331e-3
-1.807, 2.362e-3
-1.808, 2.393e-3
-1.809, 2.430e-3
-1.810, 2.467e-3
-1.811, 2.504e-3
-1.812, 2.541e-3
-1.813, 2.578e-3
-1.814, 2.615e-3
-1.815, 2.655e-3
-1.816, 2.692e-3
-1.817, 2.732e-3
-1.818, 2.769e-3
-1.819, 2.809e-3
-1.820, 2.849e-3
-1.821, 2.889e-3
-1.822, 2.929e-3
-1.823, 2.972e-3
-1.824, 3.012e-3
-1.825, 3.062e-3
-1.826, 3.102e-3
-1.827, 3.145e-3
-1.828, 3.188e-3
-1.829, 3.234e-3
-1.830, 3.281e-3
-1.831, 3.327e-3
-1.832, 3.370e-3
-1.833, 3.422e-3
-1.834, 3.466e-3
-1.835, 3.512e-3
-1.836, 3.558e-3
-1.837, 3.610e-3
-1.838, 3.660e-3
-1.839, 3.709e-3
-1.840, 3.765e-3
-1.841, 3.814e-3
-1.842, 3.863e-3
-1.843, 3.916e-3
-1.844, 3.968e-3
-1.845, 4.024e-3
-1.846, 4.073e-3
-1.847, 4.125e-3
-1.848, 4.175e-3
-1.849, 4.230e-3
-1.850, 4.286e-3
-1.851, 4.341e-3
-1.852, 4.397e-3
-1.853, 4.455e-3
-1.854, 4.511e-3
-1.855, 4.569e-3
-1.856, 4.628e-3
-1.857, 4.686e-3
-1.858, 4.745e-3
-1.859, 4.804e-3
-1.860, 4.865e-3
-1.861, 4.924e-3
-1.862, 4.986e-3
-1.863, 5.047e-3
-1.864, 5.112e-3
-1.865, 5.174e-3
-1.866, 5.238e-3
-1.867, 5.300e-3
-1.868, 5.365e-3
-1.869, 5.433e-3
-1.870, 5.497e-3
-1.871, 5.562e-3
-1.872, 5.630e-3
-1.873, 5.698e-3
-1.874, 5.766e-3
-1.875, 5.833e-3
-1.876, 5.904e-3
-1.877, 5.975e-3
-1.878, 6.046e-3
-1.879, 6.117e-3
-1.880, 6.188e-3
-1.881, 6.259e-3
-1.882, 6.333e-3
-1.883, 6.404e-3
-1.884, 6.481e-3
-1.885, 6.552e-3
-1.886, 6.629e-3
-1.887, 6.700e-3
-1.888, 6.774e-3
-1.889, 6.851e-3
-1.890, 6.925e-3
-1.891, 7.002e-3
-1.892, 7.079e-3
-1.893, 7.156e-3
-1.894, 7.236e-3
-1.895, 7.316e-3
-1.896, 7.397e-3
-1.897, 7.471e-3
-1.898, 7.548e-3
-1.899, 7.628e-3
-1.900, 7.659e-3
-1.899, 7.594e-3
-1.898, 7.532e-3
-1.897, 7.467e-3
-1.896, 7.406e-3
-1.895, 7.341e-3
-1.894, 7.279e-3
-1.893, 7.215e-3
-1.892, 7.153e-3
-1.891, 7.091e-3
-1.890, 7.030e-3
-1.889, 6.962e-3
-1.888, 6.900e-3
-1.887, 6.838e-3
-1.886, 6.777e-3
-1.885, 6.715e-3
-1.884, 6.654e-3
-1.883, 6.595e-3
-1.882, 6.533e-3
-1.881, 6.475e-3
-1.880, 6.413e-3
-1.879, 6.351e-3
-1.878, 6.293e-3
-1.877, 6.234e-3
-1.876, 6.173e-3
-1.875, 6.114e-3
-1.874, 6.058e-3
-1.873, 6.000e-3
-1.872, 5.941e-3
-1.871, 5.880e-3
-1.870, 5.827e-3
-1.869, 5.769e-3
-1.868, 5.710e-3
-1.867, 5.655e-3
-1.866, 5.602e-3
-1.865, 5.547e-3
-1.864, 5.491e-3
-1.863, 5.436e-3
-1.862, 5.383e-3
-1.861, 5.328e-3
-1.860, 5.275e-3
-1.859, 5.220e-3
-1.858, 5.167e-3
-1.857, 5.115e-3
-1.856, 5.063e-3
-1.855, 5.013e-3
-1.854, 4.964e-3
-1.853, 4.912e-3
-1.852, 4.862e-3
-1.851, 4.810e-3
-1.850, 4.757e-3
-1.849, 4.708e-3
-1.848, 4.656e-3
-1.847, 4.609e-3
-1.846, 4.560e-3
-1.845, 4.511e-3
-1.844, 4.464e-3
-1.843, 4.421e-3
-1.842, 4.372e-3
-1.841, 4.326e-3
-1.840, 4.283e-3
-1.839, 4.236e-3
-1.838, 4.190e-3
-1.837, 4.144e-3
-1.836, 4.101e-3
-1.835, 4.054e-3
-1.834, 4.011e-3
-1.833, 3.962e-3
-1.832, 3.919e-3
-1.831, 3.873e-3
-1.830, 3.832e-3
-1.829, 3.789e-3
-1.828, 3.746e-3
-1.827, 3.706e-3
-1.826, 3.663e-3
-1.825, 3.620e-3
-1.824, 3.580e-3
-1.823, 3.540e-3
-1.822, 3.496e-3
-1.821, 3.456e-3
-1.820, 3.416e-3
-1.819, 3.376e-3
-1.818, 3.342e-3
-1.817, 3.302e-3
-1.816, 3.265e-3
-1.815, 3.225e-3
-1.814, 3.185e-3
-1.813, 3.145e-3
-1.812, 3.108e-3
-1.811, 3.071e-3
-1.810, 3.034e-3
-1.809, 2.994e-3
-1.808, 2.957e-3
-1.807, 2.923e-3
-1.806, 2.886e-3
-1.805, 2.849e-3
-1.804, 2.812e-3
-1.803, 2.778e-3
-1.802, 2.747e-3
-1.801, 2.713e-3
-1.800, 2.679e-3
-1.799, 2.645e-3
-1.798, 2.612e-3
-1.797, 2.581e-3
-1.796, 2.547e-3
-1.795, 2.513e-3
-1.794, 2.482e-3
-1.793, 2.451e-3
-1.792, 2.417e-3
-1.791, 2.390e-3
-1.790, 2.356e-3
-1.789, 2.328e-3
-1.788, 2.297e-3
-1.787, 2.266e-3
-1.786, 2.238e-3
-1.785, 2.211e-3
-1.784, 2.180e-3
-1.783, 2.149e-3
-1.782, 2.121e-3
-1.781, 2.091e-3
-1.780, 2.063e-3
-1.779, 2.035e-3
-1.778, 2.004e-3
-1.777, 1.980e-3
-1.776, 1.955e-3
-1.775, 1.924e-3
-1.774, 1.899e-3
-1.773, 1.872e-3
-1.772, 1.847e-3
-1.771, 1.822e-3
-1.770, 1.798e-3
-1.769, 1.773e-3
-1.768, 1.748e-3
-1.767, 1.724e-3
-1.766, 1.699e-3
-1.765, 1.674e-3
-1.764, 1.650e-3
-1.763, 1.628e-3
-1.762, 1.603e-3
-1.761, 1.582e-3
-1.760, 1.560e-3
-1.759, 1.539e-3
-1.758, 1.517e-3
-1.757, 1.492e-3
-1.756, 1.471e-3
-1.755, 1.449e-3
-1.754, 1.428e-3
-1.753, 1.409e-3
-1.752, 1.388e-3
-1.751, 1.369e-3
-1.750, 1.344e-3
-1.749, 1.326e-3
-1.748, 1.307e-3
-1.747, 1.289e-3
-1.746, 1.270e-3
-1.745, 1.249e-3
-1.744, 1.230e-3
-1.743, 1.215e-3
-1.742, 1.196e-3
-1.741, 1.178e-3
-1.740, 1.159e-3
-1.739, 1.144e-3
-1.738, 1.125e-3
-1.737, 1.110e-3
-1.736, 1.095e-3
-1.735, 1.076e-3
-1.734, 1.061e-3
-1.733, 1.045e-3
-1.732, 1.027e-3
-1.731, 1.014e-3
-1.730, 9.991e-4
-1.729, 9.837e-4
-1.728, 9.652e-4
-1.727, 9.528e-4
-1.726, 9.374e-4
-1.725, 9.220e-4
-1.724, 9.066e-4
-1.723, 8.943e-4
-1.722, 8.819e-4
-1.721, 8.665e-4
-1.720, 8.542e-4
-1.719, 8.418e-4
-1.718, 8.295e-4
-1.717, 8.141e-4
-1.716, 8.018e-4
-1.715, 7.894e-4
-1.714, 7.740e-4
-1.713, 7.648e-4
-1.712, 7.524e-4
-1.711, 7.401e-4
-1.710, 7.278e-4
-1.709, 7.185e-4
-1.708, 7.062e-4
-1.707, 6.939e-4
-1.706, 6.846e-4
-1.705, 6.723e-4
-1.704, 6.630e-4
-1.703, 6.507e-4
-1.702, 6.414e-4
-1.701, 6.291e-4
-1.700, 6.199e-4
-1.699, 6.106e-4
-1.698, 5.983e-4
-1.697, 5.921e-4
-1.696, 5.829e-4
-1.695, 5.736e-4
-1.694, 5.644e-4
-1.693, 5.551e-4
-1.692, 5.459e-4
-1.691, 5.366e-4
-1.690, 5.274e-4
-1.689, 5.181e-4
-1.688, 5.120e-4
-1.687, 4.996e-4
-1.686, 4.935e-4
-1.685, 4.842e-4
-1.684, 4.780e-4
-1.683, 4.719e-4
-1.682, 4.626e-4
-1.681, 4.565e-4
-1.680, 4.472e-4
-1.679, 4.410e-4
-1.678, 4.349e-4
-1.677, 4.256e-4
-1.676, 4.195e-4
-1.675, 4.133e-4
-1.674, 4.071e-4
-1.673, 3.979e-4
-1.672, 3.917e-4
-1.671, 3.855e-4
-1.670, 3.794e-4
-1.669, 3.732e-4
-1.668, 3.670e-4
-1.667, 3.640e-4
-1.666, 3.547e-4
-1.665, 3.485e-4
-1.664, 3.424e-4
-1.663, 3.393e-4
-1.662, 3.300e-4
-1.661, 3.270e-4
-1.660, 3.208e-4
-1.659, 3.146e-4
-1.658, 3.115e-4
-1.657, 3.054e-4
-1.656, 3.023e-4
-1.655, 2.961e-4
-1.654, 2.900e-4
-1.653, 2.838e-4
-1.652, 2.807e-4
-1.651, 2.746e-4
-1.650, 2.715e-4
-1.649, 2.653e-4
-1.648, 2.622e-4
-1.647, 2.561e-4
-1.646, 2.530e-4
-1.645, 2.468e-4
-1.644, 2.437e-4
-1.643, 2.406e-4
-1.642, 2.376e-4
-1.641, 2.314e-4
-1.640, 2.283e-4
-1.639, 2.252e-4
-1.638, 2.221e-4
-1.637, 2.160e-4
-1.636, 2.129e-4
-1.635, 2.098e-4
-1.634, 2.067e-4
-1.633, 2.036e-4
-1.632, 2.006e-4
-1.631, 1.944e-4
-1.630, 1.913e-4
-1.629, 1.882e-4
-1.628, 1.851e-4
-1.627, 1.821e-4
-1.626, 1.790e-4
-1.625, 1.759e-4
-1.624, 1.728e-4
-1.623, 1.697e-4
-1.622, 1.666e-4
-1.621, 1.636e-4
-1.620, 1.605e-4
-1.619, 1.574e-4
-1.618, 1.543e-4
-1.617, 1.543e-4
-1.616, 1.512e-4
-1.615, 1.481e-4
-1.614, 1.451e-4
-1.613, 1.420e-4
-1.612, 1.389e-4
-1.611, 1.358e-4
-1.610, 1.358e-4
-1.609, 1.327e-4
-1.608, 1.296e-4
-1.607, 1.266e-4
-1.606, 1.235e-4
-1.605, 1.235e-4
-1.604, 1.204e-4
-1.603, 1.204e-4
-1.602, 1.173e-4
-1.601, 1.142e-4
-1.600, 1.111e-4
-1.599, 1.111e-4
-1.598, 1.081e-4
-1.597, 1.050e-4
-1.596, 1.050e-4
-1.595, 1.019e-4
-1.594, 9.882e-5
-1.593, 9.882e-5
-1.592, 9.882e-5
-1.591, 9.573e-5
-1.590, 9.265e-5
-1.589, 9.265e-5
-1.588, 8.957e-5
-1.587, 8.648e-5
-1.586, 8.648e-5
-1.585, 8.340e-5
-1.584, 8.340e-5
-1.583, 8.340e-5
-1.582, 8.032e-5
-1.581, 8.032e-5
-1.580, 7.723e-5
-1.579, 7.415e-5
-1.578, 7.415e-5
-1.577, 7.415e-5
-1.576, 7.107e-5
-1.575, 7.107e-5
-1.574, 6.798e-5
-1.573, 6.798e-5
-1.572, 6.798e-5
-1.571, 6.490e-5
-1.570, 6.490e-5
-1.569, 6.182e-5
-1.568, 6.182e-5
-1.567, 5.873e-5
-1.566, 5.873e-5
-1.565, 5.873e-5
-1.564, 5.873e-5
-1.563, 5.565e-5
-1.562, 5.565e-5
-1.561, 5.257e-5
-1.560, 5.257e-5
-1.559, 5.257e-5
-1.558, 5.257e-5
-1.557, 4.949e-5
-1.556, 4.949e-5
-1.555, 4.640e-5
-1.554, 4.949e-5
-1.553, 4.640e-5
-1.552, 4.640e-5
-1.551, 4.332e-5
-1.550, 4.332e-5
-1.549, 4.332e-5
-1.548, 4.024e-5
-1.547, 4.024e-5
-1.546, 4.024e-5
-1.545, 4.024e-5
-1.544, 4.024e-5
-1.543, 3.715e-5
-1.542, 3.715e-5
-1.541, 3.715e-5
-1.540, 3.407e-5
-1.539, 3.715e-5
-1.538, 3.407e-5
-1.537, 3.407e-5
-1.536, 3.407e-5
-1.535, 3.407e-5
-1.534, 3.099e-5
-1.533, 3.099e-5
-1.532, 3.099e-5
-1.531, 3.099e-5
-1.530, 2.790e-5
-1.529, 2.790e-5
-1.528, 2.790e-5
-1.527, 2.790e-5
-1.526, 2.482e-5
-1.525, 2.790e-5
-1.524, 2.482e-5
-1.523, 2.482e-5
-1.522, 2.482e-5
-1.521, 2.482e-5
-1.520, 2.482e-5
-1.519, 2.174e-5
-1.518, 2.174e-5
-1.517, 2.174e-5
-1.516, 2.174e-5
-1.515, 2.174e-5
-1.514, 2.174e-5
-1.513, 1.865e-5
-1.512, 1.865e-5
-1.511, 1.865e-5
-1.510, 1.865e-5
-1.509, 1.865e-5
-1.508, 1.865e-5
-1.507, 1.865e-5
-1.506, 1.865e-5
-1.505, 1.557e-5
-1.504, 1.557e-5
-1.503, 1.557e-5
-1.502, 1.865e-5
-1.501, 1.557e-5
-1.500, 1.557e-5
-1.499, 1.249e-5
-1.498, 1.557e-5
-1.497, 1.249e-5
-1.496, 1.557e-5
-1.495, 1.249e-5
-1.494, 1.249e-5
-1.493, 1.249e-5
-1.492, 1.249e-5
-1.491, 1.249e-5
-1.490, 1.249e-5
-1.489, 1.249e-5
-1.488, 1.249e-5
-1.487, 1.249e-5
-1.486, 1.249e-5
-1.485, 9.405e-6
-1.484, 1.249e-5
-1.483, 1.249e-5
-1.482, 9.405e-6
-1.481, 9.405e-6
-1.480, 9.405e-6
-1.479, 9.405e-6
-1.478, 9.405e-6
-1.477, 9.405e-6
-1.476, 9.405e-6
-1.475, 9.405e-6
-1.474, 9.405e-6
-1.473, 9.405e-6
-1.472, 6.322e-6
-1.471, 9.405e-6
-1.470, 6.322e-6
-1.469, 9.405e-6
-1.468, 6.322e-6
-1.467, 9.405e-6
-1.466, 6.322e-6
-1.465, 6.322e-6
-1.464, 6.322e-6
-1.463, 6.322e-6
-1.462, 6.322e-6
-1.461, 6.322e-6
-1.460, 6.322e-6
-1.459, 6.322e-6
-1.458, 6.322e-6
-1.457, 6.322e-6
-1.456, 6.322e-6
-1.455, 3.239e-6
-1.454, 3.239e-6
-1.453, 3.239e-6
-1.452, 3.239e-6
-1.451, 6.322e-6
-1.450, 3.239e-6
-1.449, 6.322e-6
-1.448, 3.239e-6
-1.447, 3.239e-6
-1.446, 3.239e-6
-1.445, 3.239e-6
-1.444, 3.239e-6
-1.443, 3.239e-6
-1.442, 3.239e-6
-1.441, 3.239e-6
-1.440, 3.239e-6
-1.439, 3.239e-6
-1.438, 3.239e-6
-1.437, 3.239e-6
-1.436, 3.239e-6
-1.435, 3.239e-6
-1.434, 3.239e-6
-1.433, 1.559e-7
-1.432, 3.239e-6
-1.431, 3.239e-6
-1.430, 3.239e-6
-1.429, 3.239e-6
-1.428, 3.239e-6
-1.427, 1.559e-7
-1.426, 1.559e-7
-1.425, 1.559e-7
-1.424, 3.239e-6
-1.423, 1.559e-7
-1.422, 3.239e-6
-1.421, 1.559e-7
-1.420, 1.559e-7
-1.419, 1.559e-7
-1.418, 1.559e-7
-1.417, 1.559e-7
-1.416, 1.559e-7
-1.415, 1.559e-7
-1.414, 1.559e-7
-1.413, 1.559e-7
-1.412, 1.559e-7
-1.411, 1.559e-7
-1.410, 1.559e-7
-1.409, 1.559e-7
-1.408, 1.559e-7
-1.407, 1.559e-7
-1.406, 1.559e-7
-1.405, 1.559e-7
-1.404, 1.559e-7
-1.403, 1.559e-7
-1.402, 1.559e-7
-1.401, -2.927e-6
-1.400, 1.559e-7
-1.399, 1.559e-7
-1.398, -2.927e-6
-1.397, 1.559e-7
-1.396, 1.559e-7
-1.395, 1.559e-7
-1.394, -2.927e-6
-1.393, -2.927e-6
-1.392, 1.559e-7
-1.391, 1.559e-7
-1.390, -2.927e-6
-1.389, 1.559e-7
-1.388, -2.927e-6
-1.387, -2.927e-6
-1.386, -2.927e-6
-1.385, -2.927e-6
-1.384, -2.927e-6
-1.383, -2.927e-6
-1.382, -2.927e-6
-1.381, -2.927e-6
-1.380, -2.927e-6
-1.379, -2.927e-6
-1.378, -2.927e-6
-1.377, -2.927e-6
-1.376, -2.927e-6
-1.375, -2.927e-6
-1.374, -2.927e-6
-1.373, -2.927e-6
-1.372, -2.927e-6
-1.371, -2.927e-6
-1.370, -2.927e-6
-1.369, -2.927e-6
-1.368, -2.927e-6
-1.367, -2.927e-6
-1.366, -2.927e-6
-1.365, -2.927e-6
-1.364, -2.927e-6
-1.363, -2.927e-6
-1.362, -2.927e-6
-1.361, -6.010e-6
-1.360, -2.927e-6
-1.359, -2.927e-6
-1.358, -2.927e-6
-1.357, -2.927e-6
-1.356, -2.927e-6
-1.355, -2.927e-6
-1.354, -2.927e-6
-1.353, -2.927e-6
-1.352, -6.010e-6
-1.351, -6.010e-6
-1.350, -2.927e-6
-1.349, -2.927e-6
-1.348, -2.927e-6
-1.347, -6.010e-6
-1.346, -2.927e-6
-1.345, -6.010e-6
-1.344, -2.927e-6
-1.343, -2.927e-6
-1.342, -2.927e-6
-1.341, -6.010e-6
-1.340, -6.010e-6
-1.339, -2.927e-6
-1.338, -6.010e-6
-1.337, -6.010e-6
-1.336, -2.927e-6
-1.335, -6.010e-6
-1.334, -6.010e-6
-1.333, -6.010e-6
-1.332, -6.010e-6
-1.331, -6.010e-6
-1.330, -6.010e-6
-1.329, -6.010e-6
-1.328, -6.010e-6
-1.327, -6.010e-6
-1.326, -6.010e-6
-1.325, -6.010e-6
-1.324, -6.010e-6
-1.323, -6.010e-6
-1.322, -6.010e-6
-1.321, -6.010e-6
-1.320, -6.010e-6
-1.319, -6.010e-6
-1.318, -6.010e-6
-1.317, -6.010e-6
-1.316, -6.010e-6
-1.315, -6.010e-6
-1.314, -6.010e-6
-1.313, -6.010e-6
-1.312, -6.010e-6
-1.311, -6.010e-6
-1.310, -9.093e-6
-1.309, -6.010e-6
-1.308, -6.010e-6
-1.307, -9.093e-6
-1.306, -6.010e-6
-1.305, -6.010e-6
-1.304, -6.010e-6
-1.303, -6.010e-6
-1.302, -9.093e-6
-1.301, -6.010e-6
-1.300, -6.010e-6
-1.299, -9.093e-6
-1.298, -9.093e-6
-1.297, -9.093e-6
-1.296, -9.093e-6
-1.295, -9.093e-6
-1.294, -9.093e-6
-1.293, -9.093e-6
-1.292, -6.010e-6
-1.291, -9.093e-6
-1.290, -9.093e-6
-1.289, -9.093e-6
-1.288, -9.093e-6
-1.287, -9.093e-6
-1.286, -9.093e-6
-1.285, -9.093e-6
-1.284, -9.093e-6
-1.283, -9.093e-6
-1.282, -9.093e-6
-1.281, -9.093e-6
-1.280, -9.093e-6
-1.279, -9.093e-6
-1.278, -9.093e-6
-1.277, -9.093e-6
-1.276, -9.093e-6
-1.275, -9.093e-6
-1.274, -9.093e-6
-1.273, -9.093e-6
-1.272, -9.093e-6
-1.271, -9.093e-6
-1.270, -1.218e-5
-1.269, -9.093e-6
-1.268, -9.093e-6
-1.267, -9.093e-6
-1.266, -9.093e-6
-1.265, -9.093e-6
-1.264, -9.093e-6
-1.263, -9.093e-6
-1.262, -1.218e-5
-1.261, -9.093e-6
-1.260, -1.218e-5
-1.259, -9.093e-6
-1.258, -1.218e-5
-1.257, -1.218e-5
-1.256, -9.093e-6
-1.255, -9.093e-6
-1.254, -1.218e-5
-1.253, -1.218e-5
-1.252, -1.218e-5
-1.251, -1.218e-5
-1.250, -1.218e-5
-1.249, -1.218e-5
-1.248, -1.218e-5
-1.247, -1.218e-5
-1.246, -1.218e-5
-1.245, -1.218e-5
-1.244, -1.218e-5
-1.243, -9.093e-6
-1.242, -1.218e-5
-1.241, -1.218e-5
-1.240, -1.218e-5
-1.239, -1.218e-5
-1.238, -1.218e-5
-1.237, -1.218e-5
-1.236, -1.218e-5
-1.235, -1.218e-5
-1.234, -1.218e-5
-1.233, -1.218e-5
-1.232, -1.218e-5
-1.231, -1.218e-5
-1.230, -1.218e-5
-1.229, -1.218e-5
-1.228, -1.218e-5
-1.227, -1.218e-5
-1.226, -1.218e-5
-1.225, -1.218e-5
-1.224, -1.218e-5
-1.223, -1.218e-5
-1.222, -1.218e-5
-1.221, -1.218e-5
-1.220, -1.218e-5
-1.219, -1.218e-5
-1.218, -1.218e-5
-1.217, -1.218e-5
-1.216, -1.218e-5
-1.215, -1.218e-5
-1.214, -1.218e-5
-1.213, -1.218e-5
-1.212, -1.218e-5
-1.211, -1.218e-5
-1.210, -1.218e-5
-1.209, -1.218e-5
-1.208, -1.218e-5
-1.207, -1.218e-5
-1.206, -1.218e-5
-1.205, -1.218e-5
-1.204, -1.218e-5
-1.203, -1.218e-5
-1.202, -1.218e-5
-1.201, -1.218e-5
-1.200, -1.218e-5
-1.199, -1.218e-5
-1.198, -1.218e-5
-1.197, -1.218e-5
-1.196, -1.218e-5
-1.195, -1.218e-5
-1.194, -1.218e-5
-1.193, -1.218e-5
-1.192, -1.218e-5
-1.191, -1.218e-5
-1.190, -1.218e-5
-1.189, -1.218e-5
-1.188, -1.218e-5
-1.187, -1.218e-5
-1.186, -1.218e-5
-1.185, -1.218e-5
-1.184, -1.218e-5
-1.183, -1.218e-5
-1.182, -1.218e-5
-1.181, -1.218e-5
-1.180, -1.218e-5
-1.179, -1.218e-5
-1.178, -1.218e-5
-1.177, -9.093e-6
-1.176, -1.218e-5
-1.175, -1.218e-5
-1.174, -1.218e-5
-1.173, -1.218e-5
-1.172, -9.093e-6
-1.171, -1.218e-5
-1.170, -1.218e-5
-1.169, -9.093e-6
-1.168, -1.218e-5
-1.167, -1.218e-5
-1.166, -1.218e-5
-1.165, -1.218e-5
-1.164, -1.218e-5
-1.163, -1.218e-5
-1.162, -1.218e-5
-1.161, -1.218e-5
-1.160, -1.218e-5
-1.159, -1.218e-5
-1.158, -1.218e-5
-1.157, -1.218e-5
-1.156, -1.218e-5
-1.155, -1.218e-5
-1.154, -1.218e-5
-1.153, -1.218e-5
-1.152, -1.218e-5
-1.151, -1.218e-5
-1.150, -9.093e-6
-1.149, -1.218e-5
-1.148, -9.093e-6
-1.147, -1.218e-5
-1.146, -1.218e-5
-1.145, -1.218e-5
-1.144, -9.093e-6
-1.143, -1.218e-5
-1.142, -9.093e-6
-1.141, -1.218e-5
-1.140, -9.093e-6
-1.139, -1.218e-5
-1.138, -1.218e-5
-1.137, -1.218e-5
-1.136, -9.093e-6
-1.135, -1.218e-5
-1.134, -1.218e-5
-1.133, -9.093e-6
-1.132, -1.218e-5
-1.131, -1.218e-5
-1.130, -9.093e-6
-1.129, -1.218e-5
-1.128, -1.218e-5
-1.127, -9.093e-6
-1.126, -1.218e-5
-1.125, -9.093e-6
-1.124, -1.218e-5
-1.123, -9.093e-6
-1.122, -1.218e-5
-1.121, -1.218e-5
-1.120, -1.218e-5
-1.119, -9.093e-6
-1.118, -1.218e-5
-1.117, -9.093e-6
-1.116, -1.218e-5
-1.115, -1.218e-5
-1.114, -1.218e-5
-1.113, -9.093e-6
-1.112, -1.218e-5
-1.111, -1.218e-5
-1.110, -1.218e-5
-1.109, -9.093e-6
-1.108, -1.218e-5
-1.107, -1.218e-5
-1.106, -1.218e-5
-1.105, -1.218e-5
-1.104, -1.218e-5
-1.103, -1.218e-5
-1.102, -1.218e-5
-1.101, -9.093e-6
-1.100, -1.218e-5
-1.099, -9.093e-6
-1.098, -9.093e-6
-1.097, -1.218e-5
-1.096, -1.218e-5
-1.095, -1.218e-5
-1.094, -1.218e-5
-1.093, -1.218e-5
-1.092, -1.218e-5
-1.091, -1.218e-5
-1.090, -9.093e-6
-1.089, -1.218e-5
-1.088, -1.218e-5
-1.087, -1.218e-5
-1.086, -1.218e-5
-1.085, -1.218e-5
-1.084, -1.218e-5
-1.083, -1.218e-5
-1.082, -9.093e-6
-1.081, -1.218e-5
-1.080, -1.218e-5
-1.079, -1.218e-5
-1.078, -1.218e-5
-1.077, -1.218e-5
-1.076, -9.093e-6
-1.075, -1.218e-5
-1.074, -9.093e-6
-1.073, -1.218e-5
-1.072, -9.093e-6
-1.071, -1.218e-5
-1.070, -9.093e-6
-1.069, -9.093e-6
-1.068, -1.218e-5
-1.067, -1.218e-5
-1.066, -1.218e-5
-1.065, -1.218e-5
-1.064, -1.218e-5
-1.063, -1.218e-5
-1.062, -1.218e-5
-1.061, -1.218e-5
-1.060, -1.218e-5
-1.059, -1.218e-5
-1.058, -1.218e-5
-1.057, -1.218e-5
-1.056, -1.218e-5
-1.055, -1.218e-5
-1.054, -1.218e-5
-1.053, -1.218e-5
-1.052, -1.218e-5
-1.051, -1.218e-5
-1.050, -1.218e-5
-1.049, -1.218e-5
-1.048, -1.218e-5
-1.047, -1.218e-5
-1.046, -1.218e-5
-1.045, -1.218e-5
-1.044, -1.218e-5
-1.043, -1.218e-5
-1.042, -1.218e-5
-1.041, -1.218e-5
-1.040, -1.218e-5
-1.039, -1.218e-5
-1.038, -1.218e-5
-1.037, -9.093e-6
-1.036, -1.218e-5
-1.035, -9.093e-6
-1.034, -1.218e-5
-1.033, -1.218e-5
-1.032, -1.218e-5
-1.031, -1.218e-5
-1.030, -1.218e-5
-1.029, -9.093e-6
-1.028, -1.218e-5
-1.027, -1.218e-5
-1.026, -1.218e-5
-1.025, -1.218e-5
-1.024, -1.218e-5
-1.023, -1.218e-5
-1.022, -1.218e-5
-1.021, -1.218e-5
-1.020, -1.218e-5
-1.019, -1.218e-5
-1.018, -1.218e-5
-1.017, -1.218e-5
-1.016, -1.218e-5
-1.015, -1.218e-5
-1.014, -1.218e-5
-1.013, -1.218e-5
-1.012, -1.218e-5
-1.011, -1.218e-5
-1.010, -1.218e-5
-1.009, -1.218e-5
-1.008, -1.218e-5
-1.007, -1.218e-5
-1.006, -1.218e-5
-1.005, -1.218e-5
-1.004, -1.218e-5
-1.003, -1.218e-5
-1.002, -1.218e-5
-1.001, -1.218e-5
