Apr. 16, 2025   22:30:48
Cyclic Voltammetry
File: c:/users/guazh/data/banditlqround7_x0exp590_r20/2025-04-16-exp1102\exp1102-2025-04-16t22_11_58-arkoh\exp1102_cv_sr_200mvs_efin_-1800mv.bin
Data Source:  Experiment
Instrument Model:  CHI760E
Header: CV ran at 200 mVs
Note: 

Init E (V) = -1
High E (V) = -1
Low E (V) = -1.8
Final E (V) = -1
Init P/N = N
Scan Rate (V/s) = 0.2
Segment = 3
Sample Interval (V) = 0.001
Quiet Time (sec) = 2
Sensitivity (A/V) = 0.01
Comp R (ohm) = 1.8

Results:

Channel 1:
Segment 1:

Segment 2:

Segment 3:

Potential/V, Current/A

-1.000, -1.973e-9
-1.001, 1.665e-6
-1.002, 2.267e-6
-1.003, 2.307e-6
-1.004, 2.721e-6
-1.005, 3.402e-6
-1.006, 3.343e-6
-1.007, 3.323e-6
-1.008, 4.004e-6
-1.009, 3.964e-6
-1.010, 3.915e-6
-1.011, 4.428e-6
-1.012, 4.546e-6
-1.013, 4.625e-6
-1.014, 4.497e-6
-1.015, 5.296e-6
-1.016, 4.704e-6
-1.017, 4.872e-6
-1.018, 5.483e-6
-1.019, 5.227e-6
-1.020, 5.207e-6
-1.021, 5.701e-6
-1.022, 5.809e-6
-1.023, 5.385e-6
-1.024, 5.789e-6
-1.025, 6.115e-6
-1.026, 6.066e-6
-1.027, 6.036e-6
-1.028, 6.411e-6
-1.029, 6.263e-6
-1.030, 6.293e-6
-1.031, 6.658e-6
-1.032, 6.707e-6
-1.033, 6.490e-6
-1.034, 6.440e-6
-1.035, 6.993e-6
-1.036, 6.855e-6
-1.037, 7.003e-6
-1.038, 7.289e-6
-1.039, 7.161e-6
-1.040, 7.032e-6
-1.041, 7.427e-6
-1.042, 7.407e-6
-1.043, 7.358e-6
-1.044, 7.407e-6
-1.045, 7.841e-6
-1.046, 7.427e-6
-1.047, 7.545e-6
-1.048, 8.019e-6
-1.049, 7.644e-6
-1.050, 7.703e-6
-1.051, 8.049e-6
-1.052, 8.059e-6
-1.053, 7.989e-6
-1.054, 8.068e-6
-1.055, 8.512e-6
-1.056, 8.197e-6
-1.057, 8.118e-6
-1.058, 8.493e-6
-1.059, 8.512e-6
-1.060, 8.039e-6
-1.061, 8.700e-6
-1.062, 8.680e-6
-1.063, 8.749e-6
-1.064, 8.621e-6
-1.065, 9.144e-6
-1.066, 8.749e-6
-1.067, 8.542e-6
-1.068, 9.203e-6
-1.069, 8.956e-6
-1.070, 9.055e-6
-1.071, 9.203e-6
-1.072, 9.272e-6
-1.073, 9.104e-6
-1.074, 9.154e-6
-1.075, 9.627e-6
-1.076, 9.420e-6
-1.077, 9.124e-6
-1.078, 9.805e-6
-1.079, 9.381e-6
-1.080, 9.489e-6
-1.081, 9.598e-6
-1.082, 9.943e-6
-1.083, 9.578e-6
-1.084, 9.726e-6
-1.085, 1.013e-5
-1.086, 9.755e-6
-1.087, 9.864e-6
-1.088, 1.042e-5
-1.089, 1.003e-5
-1.090, 1.006e-5
-1.091, 1.034e-5
-1.092, 1.035e-5
-1.093, 1.016e-5
-1.094, 1.006e-5
-1.095, 1.058e-5
-1.096, 1.019e-5
-1.097, 1.016e-5
-1.098, 1.061e-5
-1.099, 1.052e-5
-1.100, 1.035e-5
-1.101, 1.075e-5
-1.102, 1.078e-5
-1.103, 1.060e-5
-1.104, 1.053e-5
-1.105, 1.124e-5
-1.106, 1.064e-5
-1.107, 1.070e-5
-1.108, 1.111e-5
-1.109, 1.077e-5
-1.110, 1.068e-5
-1.111, 1.118e-5
-1.112, 1.099e-5
-1.113, 1.082e-5
-1.114, 1.093e-5
-1.115, 1.149e-5
-1.116, 1.120e-5
-1.117, 1.116e-5
-1.118, 1.147e-5
-1.119, 1.126e-5
-1.120, 1.103e-5
-1.121, 1.160e-5
-1.122, 1.152e-5
-1.123, 1.126e-5
-1.124, 1.131e-5
-1.125, 1.171e-5
-1.126, 1.139e-5
-1.127, 1.135e-5
-1.128, 1.185e-5
-1.129, 1.141e-5
-1.130, 1.137e-5
-1.131, 1.172e-5
-1.132, 1.163e-5
-1.133, 1.168e-5
-1.134, 1.163e-5
-1.135, 1.221e-5
-1.136, 1.167e-5
-1.137, 1.159e-5
-1.138, 1.216e-5
-1.139, 1.179e-5
-1.140, 1.171e-5
-1.141, 1.211e-5
-1.142, 1.198e-5
-1.143, 1.212e-5
-1.144, 1.173e-5
-1.145, 1.222e-5
-1.146, 1.207e-5
-1.147, 1.181e-5
-1.148, 1.249e-5
-1.149, 1.215e-5
-1.150, 1.203e-5
-1.151, 1.236e-5
-1.152, 1.212e-5
-1.153, 1.204e-5
-1.154, 1.216e-5
-1.155, 1.254e-5
-1.156, 1.211e-5
-1.157, 1.206e-5
-1.158, 1.260e-5
-1.159, 1.241e-5
-1.160, 1.227e-5
-1.161, 1.249e-5
-1.162, 1.258e-5
-1.163, 1.206e-5
-1.164, 1.228e-5
-1.165, 1.273e-5
-1.166, 1.248e-5
-1.167, 1.213e-5
-1.168, 1.286e-5
-1.169, 1.259e-5
-1.170, 1.262e-5
-1.171, 1.266e-5
-1.172, 1.264e-5
-1.173, 1.246e-5
-1.174, 1.252e-5
-1.175, 1.309e-5
-1.176, 1.269e-5
-1.177, 1.244e-5
-1.178, 1.316e-5
-1.179, 1.281e-5
-1.180, 1.267e-5
-1.181, 1.306e-5
-1.182, 1.288e-5
-1.183, 1.281e-5
-1.184, 1.280e-5
-1.185, 1.327e-5
-1.186, 1.286e-5
-1.187, 1.270e-5
-1.188, 1.313e-5
-1.189, 1.289e-5
-1.190, 1.271e-5
-1.191, 1.312e-5
-1.192, 1.310e-5
-1.193, 1.287e-5
-1.194, 1.292e-5
-1.195, 1.343e-5
-1.196, 1.317e-5
-1.197, 1.303e-5
-1.198, 1.358e-5
-1.199, 1.327e-5
-1.200, 1.303e-5
-1.201, 1.342e-5
-1.202, 1.348e-5
-1.203, 1.312e-5
-1.204, 1.311e-5
-1.205, 1.370e-5
-1.206, 1.333e-5
-1.207, 1.338e-5
-1.208, 1.374e-5
-1.209, 1.345e-5
-1.210, 1.330e-5
-1.211, 1.378e-5
-1.212, 1.349e-5
-1.213, 1.349e-5
-1.214, 1.361e-5
-1.215, 1.381e-5
-1.216, 1.358e-5
-1.217, 1.335e-5
-1.218, 1.413e-5
-1.219, 1.361e-5
-1.220, 1.352e-5
-1.221, 1.401e-5
-1.222, 1.394e-5
-1.223, 1.378e-5
-1.224, 1.380e-5
-1.225, 1.426e-5
-1.226, 1.400e-5
-1.227, 1.363e-5
-1.228, 1.422e-5
-1.229, 1.427e-5
-1.230, 1.389e-5
-1.231, 1.448e-5
-1.232, 1.424e-5
-1.233, 1.397e-5
-1.234, 1.407e-5
-1.235, 1.468e-5
-1.236, 1.420e-5
-1.237, 1.410e-5
-1.238, 1.458e-5
-1.239, 1.435e-5
-1.240, 1.407e-5
-1.241, 1.457e-5
-1.242, 1.469e-5
-1.243, 1.428e-5
-1.244, 1.441e-5
-1.245, 1.487e-5
-1.246, 1.461e-5
-1.247, 1.461e-5
-1.248, 1.522e-5
-1.249, 1.467e-5
-1.250, 1.470e-5
-1.251, 1.523e-5
-1.252, 1.488e-5
-1.253, 1.470e-5
-1.254, 1.473e-5
-1.255, 1.542e-5
-1.256, 1.501e-5
-1.257, 1.482e-5
-1.258, 1.564e-5
-1.259, 1.525e-5
-1.260, 1.506e-5
-1.261, 1.552e-5
-1.262, 1.547e-5
-1.263, 1.528e-5
-1.264, 1.518e-5
-1.265, 1.564e-5
-1.266, 1.530e-5
-1.267, 1.521e-5
-1.268, 1.563e-5
-1.269, 1.565e-5
-1.270, 1.538e-5
-1.271, 1.594e-5
-1.272, 1.547e-5
-1.273, 1.550e-5
-1.274, 1.578e-5
-1.275, 1.594e-5
-1.276, 1.570e-5
-1.277, 1.557e-5
-1.278, 1.608e-5
-1.279, 1.578e-5
-1.280, 1.569e-5
-1.281, 1.639e-5
-1.282, 1.613e-5
-1.283, 1.592e-5
-1.284, 1.607e-5
-1.285, 1.653e-5
-1.286, 1.609e-5
-1.287, 1.618e-5
-1.288, 1.660e-5
-1.289, 1.630e-5
-1.290, 1.621e-5
-1.291, 1.664e-5
-1.292, 1.637e-5
-1.293, 1.632e-5
-1.294, 1.642e-5
-1.295, 1.700e-5
-1.296, 1.645e-5
-1.297, 1.660e-5
-1.298, 1.711e-5
-1.299, 1.681e-5
-1.300, 1.674e-5
-1.301, 1.709e-5
-1.302, 1.693e-5
-1.303, 1.685e-5
-1.304, 1.668e-5
-1.305, 1.724e-5
-1.306, 1.712e-5
-1.307, 1.715e-5
-1.308, 1.738e-5
-1.309, 1.723e-5
-1.310, 1.703e-5
-1.311, 1.760e-5
-1.312, 1.734e-5
-1.313, 1.727e-5
-1.314, 1.735e-5
-1.315, 1.783e-5
-1.316, 1.749e-5
-1.317, 1.740e-5
-1.318, 1.810e-5
-1.319, 1.768e-5
-1.320, 1.767e-5
-1.321, 1.793e-5
-1.322, 1.787e-5
-1.323, 1.766e-5
-1.324, 1.797e-5
-1.325, 1.819e-5
-1.326, 1.796e-5
-1.327, 1.794e-5
-1.328, 1.847e-5
-1.329, 1.796e-5
-1.330, 1.805e-5
-1.331, 1.848e-5
-1.332, 1.850e-5
-1.333, 1.839e-5
-1.334, 1.832e-5
-1.335, 1.891e-5
-1.336, 1.846e-5
-1.337, 1.834e-5
-1.338, 1.896e-5
-1.339, 1.855e-5
-1.340, 1.836e-5
-1.341, 1.902e-5
-1.342, 1.891e-5
-1.343, 1.870e-5
-1.344, 1.880e-5
-1.345, 1.921e-5
-1.346, 1.906e-5
-1.347, 1.877e-5
-1.348, 1.928e-5
-1.349, 1.896e-5
-1.350, 1.881e-5
-1.351, 1.937e-5
-1.352, 1.930e-5
-1.353, 1.915e-5
-1.354, 1.927e-5
-1.355, 1.967e-5
-1.356, 1.939e-5
-1.357, 1.934e-5
-1.358, 1.976e-5
-1.359, 1.956e-5
-1.360, 1.927e-5
-1.361, 2.014e-5
-1.362, 1.979e-5
-1.363, 1.965e-5
-1.364, 1.956e-5
-1.365, 2.035e-5
-1.366, 1.970e-5
-1.367, 2.005e-5
-1.368, 2.016e-5
-1.369, 1.990e-5
-1.370, 2.020e-5
-1.371, 2.058e-5
-1.372, 2.025e-5
-1.373, 2.014e-5
-1.374, 2.045e-5
-1.375, 2.062e-5
-1.376, 2.017e-5
-1.377, 2.005e-5
-1.378, 2.088e-5
-1.379, 2.035e-5
-1.380, 2.029e-5
-1.381, 2.083e-5
-1.382, 2.083e-5
-1.383, 2.058e-5
-1.384, 2.072e-5
-1.385, 2.104e-5
-1.386, 2.084e-5
-1.387, 2.054e-5
-1.388, 2.124e-5
-1.389, 2.098e-5
-1.390, 2.092e-5
-1.391, 2.151e-5
-1.392, 2.119e-5
-1.393, 2.106e-5
-1.394, 2.124e-5
-1.395, 2.176e-5
-1.396, 2.143e-5
-1.397, 2.146e-5
-1.398, 2.199e-5
-1.399, 2.156e-5
-1.400, 2.161e-5
-1.401, 2.203e-5
-1.402, 2.195e-5
-1.403, 2.179e-5
-1.404, 2.205e-5
-1.405, 2.245e-5
-1.406, 2.208e-5
-1.407, 2.201e-5
-1.408, 2.244e-5
-1.409, 2.251e-5
-1.410, 2.241e-5
-1.411, 2.283e-5
-1.412, 2.259e-5
-1.413, 2.256e-5
-1.414, 2.274e-5
-1.415, 2.331e-5
-1.416, 2.271e-5
-1.417, 2.286e-5
-1.418, 2.338e-5
-1.419, 2.311e-5
-1.420, 2.296e-5
-1.421, 2.387e-5
-1.422, 2.364e-5
-1.423, 2.365e-5
-1.424, 2.373e-5
-1.425, 2.398e-5
-1.426, 2.385e-5
-1.427, 2.401e-5
-1.428, 2.433e-5
-1.429, 2.439e-5
-1.430, 2.425e-5
-1.431, 2.490e-5
-1.432, 2.467e-5
-1.433, 2.461e-5
-1.434, 2.524e-5
-1.435, 2.537e-5
-1.436, 2.523e-5
-1.437, 2.533e-5
-1.438, 2.586e-5
-1.439, 2.560e-5
-1.440, 2.574e-5
-1.441, 2.615e-5
-1.442, 2.612e-5
-1.443, 2.607e-5
-1.444, 2.643e-5
-1.445, 2.675e-5
-1.446, 2.669e-5
-1.447, 2.694e-5
-1.448, 2.749e-5
-1.449, 2.734e-5
-1.450, 2.757e-5
-1.451, 2.805e-5
-1.452, 2.801e-5
-1.453, 2.820e-5
-1.454, 2.843e-5
-1.455, 2.890e-5
-1.456, 2.876e-5
-1.457, 2.899e-5
-1.458, 2.970e-5
-1.459, 2.958e-5
-1.460, 2.973e-5
-1.461, 3.050e-5
-1.462, 3.041e-5
-1.463, 3.074e-5
-1.464, 3.088e-5
-1.465, 3.156e-5
-1.466, 3.156e-5
-1.467, 3.165e-5
-1.468, 3.246e-5
-1.469, 3.255e-5
-1.470, 3.245e-5
-1.471, 3.335e-5
-1.472, 3.352e-5
-1.473, 3.376e-5
-1.474, 3.419e-5
-1.475, 3.472e-5
-1.476, 3.501e-5
-1.477, 3.513e-5
-1.478, 3.608e-5
-1.479, 3.620e-5
-1.480, 3.652e-5
-1.481, 3.733e-5
-1.482, 3.763e-5
-1.483, 3.782e-5
-1.484, 3.834e-5
-1.485, 3.935e-5
-1.486, 3.931e-5
-1.487, 3.996e-5
-1.488, 4.068e-5
-1.489, 4.089e-5
-1.490, 4.144e-5
-1.491, 4.239e-5
-1.492, 4.285e-5
-1.493, 4.295e-5
-1.494, 4.372e-5
-1.495, 4.491e-5
-1.496, 4.515e-5
-1.497, 4.560e-5
-1.498, 4.698e-5
-1.499, 4.731e-5
-1.500, 4.759e-5
-1.501, 4.914e-5
-1.502, 4.953e-5
-1.503, 5.026e-5
-1.504, 5.105e-5
-1.505, 5.201e-5
-1.506, 5.270e-5
-1.507, 5.341e-5
-1.508, 5.478e-5
-1.509, 5.551e-5
-1.510, 5.626e-5
-1.511, 5.769e-5
-1.512, 5.841e-5
-1.513, 5.937e-5
-1.514, 6.015e-5
-1.515, 6.173e-5
-1.516, 6.252e-5
-1.517, 6.338e-5
-1.518, 6.505e-5
-1.519, 6.607e-5
-1.520, 6.691e-5
-1.521, 6.885e-5
-1.522, 6.977e-5
-1.523, 7.090e-5
-1.524, 7.256e-5
-1.525, 7.400e-5
-1.526, 7.512e-5
-1.527, 7.659e-5
-1.528, 7.861e-5
-1.529, 7.975e-5
-1.530, 8.105e-5
-1.531, 8.326e-5
-1.532, 8.457e-5
-1.533, 8.615e-5
-1.534, 8.792e-5
-1.535, 9.000e-5
-1.536, 9.152e-5
-1.537, 9.350e-5
-1.538, 9.574e-5
-1.539, 9.722e-5
-1.540, 9.901e-5
-1.541, 1.015e-4
-1.542, 1.036e-4
-1.543, 1.055e-4
-1.544, 1.078e-4
-1.545, 1.102e-4
-1.546, 1.120e-4
-1.547, 1.142e-4
-1.548, 1.171e-4
-1.549, 1.192e-4
-1.550, 1.215e-4
-1.551, 1.245e-4
-1.552, 1.270e-4
-1.553, 1.294e-4
-1.554, 1.320e-4
-1.555, 1.352e-4
-1.556, 1.377e-4
-1.557, 1.404e-4
-1.558, 1.438e-4
-1.559, 1.468e-4
-1.560, 1.495e-4
-1.561, 1.531e-4
-1.562, 1.565e-4
-1.563, 1.595e-4
-1.564, 1.632e-4
-1.565, 1.669e-4
-1.566, 1.702e-4
-1.567, 1.739e-4
-1.568, 1.780e-4
-1.569, 1.816e-4
-1.570, 1.851e-4
-1.571, 1.896e-4
-1.572, 1.938e-4
-1.573, 1.977e-4
-1.574, 2.022e-4
-1.575, 2.071e-4
-1.576, 2.114e-4
-1.577, 2.154e-4
-1.578, 2.211e-4
-1.579, 2.257e-4
-1.580, 2.303e-4
-1.581, 2.361e-4
-1.582, 2.413e-4
-1.583, 2.465e-4
-1.584, 2.522e-4
-1.585, 2.588e-4
-1.586, 2.641e-4
-1.587, 2.706e-4
-1.588, 2.776e-4
-1.589, 2.840e-4
-1.590, 2.903e-4
-1.591, 2.979e-4
-1.592, 3.052e-4
-1.593, 3.124e-4
-1.594, 3.203e-4
-1.595, 3.287e-4
-1.596, 3.369e-4
-1.597, 3.450e-4
-1.598, 3.547e-4
-1.599, 3.637e-4
-1.600, 3.728e-4
-1.601, 3.833e-4
-1.602, 3.935e-4
-1.603, 4.034e-4
-1.604, 4.143e-4
-1.605, 4.260e-4
-1.606, 4.371e-4
-1.607, 4.491e-4
-1.608, 4.624e-4
-1.609, 4.753e-4
-1.610, 4.884e-4
-1.611, 5.028e-4
-1.612, 5.175e-4
-1.613, 5.320e-4
-1.614, 5.476e-4
-1.615, 5.648e-4
-1.616, 5.810e-4
-1.617, 5.974e-4
-1.618, 6.161e-4
-1.619, 6.340e-4
-1.620, 6.524e-4
-1.621, 6.727e-4
-1.622, 6.933e-4
-1.623, 7.137e-4
-1.624, 7.347e-4
-1.625, 7.577e-4
-1.626, 7.798e-4
-1.627, 8.025e-4
-1.628, 8.276e-4
-1.629, 8.521e-4
-1.630, 8.756e-4
-1.631, 9.016e-4
-1.632, 9.277e-4
-1.633, 9.531e-4
-1.634, 9.792e-4
-1.635, 1.007e-3
-1.636, 1.033e-3
-1.637, 1.059e-3
-1.638, 1.088e-3
-1.639, 1.116e-3
-1.640, 1.143e-3
-1.641, 1.172e-3
-1.642, 1.199e-3
-1.643, 1.225e-3
-1.644, 1.253e-3
-1.645, 1.283e-3
-1.646, 1.311e-3
-1.647, 1.339e-3
-1.648, 1.369e-3
-1.649, 1.399e-3
-1.650, 1.427e-3
-1.651, 1.458e-3
-1.652, 1.489e-3
-1.653, 1.518e-3
-1.654, 1.549e-3
-1.655, 1.582e-3
-1.656, 1.613e-3
-1.657, 1.645e-3
-1.658, 1.679e-3
-1.659, 1.712e-3
-1.660, 1.744e-3
-1.661, 1.779e-3
-1.662, 1.814e-3
-1.663, 1.847e-3
-1.664, 1.882e-3
-1.665, 1.919e-3
-1.666, 1.954e-3
-1.667, 1.989e-3
-1.668, 2.026e-3
-1.669, 2.064e-3
-1.670, 2.100e-3
-1.671, 2.139e-3
-1.672, 2.178e-3
-1.673, 2.214e-3
-1.674, 2.252e-3
-1.675, 2.294e-3
-1.676, 2.335e-3
-1.677, 2.374e-3
-1.678, 2.418e-3
-1.679, 2.459e-3
-1.680, 2.500e-3
-1.681, 2.543e-3
-1.682, 2.587e-3
-1.683, 2.628e-3
-1.684, 2.671e-3
-1.685, 2.716e-3
-1.686, 2.759e-3
-1.687, 2.801e-3
-1.688, 2.847e-3
-1.689, 2.893e-3
-1.690, 2.938e-3
-1.691, 2.985e-3
-1.692, 3.033e-3
-1.693, 3.078e-3
-1.694, 3.125e-3
-1.695, 3.175e-3
-1.696, 3.223e-3
-1.697, 3.270e-3
-1.698, 3.321e-3
-1.699, 3.371e-3
-1.700, 3.418e-3
-1.701, 3.469e-3
-1.702, 3.521e-3
-1.703, 3.571e-3
-1.704, 3.621e-3
-1.705, 3.674e-3
-1.706, 3.724e-3
-1.707, 3.775e-3
-1.708, 3.829e-3
-1.709, 3.882e-3
-1.710, 3.933e-3
-1.711, 3.985e-3
-1.712, 4.042e-3
-1.713, 4.092e-3
-1.714, 4.146e-3
-1.715, 4.204e-3
-1.716, 4.258e-3
-1.717, 4.313e-3
-1.718, 4.372e-3
-1.719, 4.427e-3
-1.720, 4.485e-3
-1.721, 4.542e-3
-1.722, 4.597e-3
-1.723, 4.654e-3
-1.724, 4.714e-3
-1.725, 4.776e-3
-1.726, 4.830e-3
-1.727, 4.887e-3
-1.728, 4.949e-3
-1.729, 5.011e-3
-1.730, 5.063e-3
-1.731, 5.125e-3
-1.732, 5.190e-3
-1.733, 5.248e-3
-1.734, 5.307e-3
-1.735, 5.371e-3
-1.736, 5.432e-3
-1.737, 5.489e-3
-1.738, 5.559e-3
-1.739, 5.623e-3
-1.740, 5.682e-3
-1.741, 5.748e-3
-1.742, 5.813e-3
-1.743, 5.874e-3
-1.744, 5.940e-3
-1.745, 6.005e-3
-1.746, 6.066e-3
-1.747, 6.134e-3
-1.748, 6.203e-3
-1.749, 6.271e-3
-1.750, 6.332e-3
-1.751, 6.406e-3
-1.752, 6.476e-3
-1.753, 6.540e-3
-1.754, 6.608e-3
-1.755, 6.678e-3
-1.756, 6.743e-3
-1.757, 6.807e-3
-1.758, 6.876e-3
-1.759, 6.951e-3
-1.760, 7.017e-3
-1.761, 7.092e-3
-1.762, 7.165e-3
-1.763, 7.232e-3
-1.764, 7.307e-3
-1.765, 7.379e-3
-1.766, 7.455e-3
-1.767, 7.527e-3
-1.768, 7.601e-3
-1.769, 7.678e-3
-1.770, 7.746e-3
-1.771, 7.822e-3
-1.772, 7.900e-3
-1.773, 7.973e-3
-1.774, 8.048e-3
-1.775, 8.128e-3
-1.776, 8.205e-3
-1.777, 8.283e-3
-1.778, 8.365e-3
-1.779, 8.447e-3
-1.780, 8.522e-3
-1.781, 8.602e-3
-1.782, 8.682e-3
-1.783, 8.761e-3
-1.784, 8.837e-3
-1.785, 8.922e-3
-1.786, 8.999e-3
-1.787, 9.077e-3
-1.788, 9.160e-3
-1.789, 9.241e-3
-1.790, 9.318e-3
-1.791, 9.402e-3
-1.792, 9.488e-3
-1.793, 9.564e-3
-1.794, 9.643e-3
-1.795, 9.726e-3
-1.796, 9.805e-3
-1.797, 9.885e-3
-1.798, 9.970e-3
-1.799, 1.005e-2
-1.800, 1.006e-2
-1.799, 9.992e-3
-1.798, 9.928e-3
-1.797, 9.857e-3
-1.796, 9.788e-3
-1.795, 9.724e-3
-1.794, 9.656e-3
-1.793, 9.585e-3
-1.792, 9.517e-3
-1.791, 9.448e-3
-1.790, 9.374e-3
-1.789, 9.308e-3
-1.788, 9.243e-3
-1.787, 9.172e-3
-1.786, 9.102e-3
-1.785, 9.036e-3
-1.784, 8.968e-3
-1.783, 8.898e-3
-1.782, 8.832e-3
-1.781, 8.765e-3
-1.780, 8.694e-3
-1.779, 8.628e-3
-1.778, 8.564e-3
-1.777, 8.494e-3
-1.776, 8.426e-3
-1.775, 8.362e-3
-1.774, 8.293e-3
-1.773, 8.226e-3
-1.772, 8.162e-3
-1.771, 8.095e-3
-1.770, 8.020e-3
-1.769, 7.955e-3
-1.768, 7.889e-3
-1.767, 7.818e-3
-1.766, 7.749e-3
-1.765, 7.684e-3
-1.764, 7.614e-3
-1.763, 7.544e-3
-1.762, 7.481e-3
-1.761, 7.413e-3
-1.760, 7.344e-3
-1.759, 7.276e-3
-1.758, 7.208e-3
-1.757, 7.138e-3
-1.756, 7.071e-3
-1.755, 7.008e-3
-1.754, 6.943e-3
-1.753, 6.875e-3
-1.752, 6.814e-3
-1.751, 6.749e-3
-1.750, 6.682e-3
-1.749, 6.621e-3
-1.748, 6.558e-3
-1.747, 6.495e-3
-1.746, 6.434e-3
-1.745, 6.375e-3
-1.744, 6.313e-3
-1.743, 6.250e-3
-1.742, 6.192e-3
-1.741, 6.133e-3
-1.740, 6.069e-3
-1.739, 6.010e-3
-1.738, 5.951e-3
-1.737, 5.892e-3
-1.736, 5.834e-3
-1.735, 5.777e-3
-1.734, 5.718e-3
-1.733, 5.658e-3
-1.732, 5.603e-3
-1.731, 5.544e-3
-1.730, 5.483e-3
-1.729, 5.427e-3
-1.728, 5.373e-3
-1.727, 5.313e-3
-1.726, 5.255e-3
-1.725, 5.202e-3
-1.724, 5.146e-3
-1.723, 5.090e-3
-1.722, 5.037e-3
-1.721, 4.983e-3
-1.720, 4.926e-3
-1.719, 4.876e-3
-1.718, 4.822e-3
-1.717, 4.766e-3
-1.716, 4.711e-3
-1.715, 4.661e-3
-1.714, 4.608e-3
-1.713, 4.554e-3
-1.712, 4.505e-3
-1.711, 4.455e-3
-1.710, 4.401e-3
-1.709, 4.353e-3
-1.708, 4.304e-3
-1.707, 4.251e-3
-1.706, 4.201e-3
-1.705, 4.154e-3
-1.704, 4.105e-3
-1.703, 4.055e-3
-1.702, 4.009e-3
-1.701, 3.960e-3
-1.700, 3.909e-3
-1.699, 3.864e-3
-1.698, 3.817e-3
-1.697, 3.769e-3
-1.696, 3.723e-3
-1.695, 3.675e-3
-1.694, 3.628e-3
-1.693, 3.584e-3
-1.692, 3.540e-3
-1.691, 3.493e-3
-1.690, 3.447e-3
-1.689, 3.403e-3
-1.688, 3.360e-3
-1.687, 3.315e-3
-1.686, 3.272e-3
-1.685, 3.231e-3
-1.684, 3.186e-3
-1.683, 3.141e-3
-1.682, 3.101e-3
-1.681, 3.059e-3
-1.680, 3.018e-3
-1.679, 2.978e-3
-1.678, 2.937e-3
-1.677, 2.896e-3
-1.676, 2.855e-3
-1.675, 2.818e-3
-1.674, 2.778e-3
-1.673, 2.739e-3
-1.672, 2.702e-3
-1.671, 2.663e-3
-1.670, 2.623e-3
-1.669, 2.589e-3
-1.668, 2.552e-3
-1.667, 2.513e-3
-1.666, 2.478e-3
-1.665, 2.442e-3
-1.664, 2.404e-3
-1.663, 2.367e-3
-1.662, 2.334e-3
-1.661, 2.299e-3
-1.660, 2.263e-3
-1.659, 2.230e-3
-1.658, 2.197e-3
-1.657, 2.163e-3
-1.656, 2.129e-3
-1.655, 2.097e-3
-1.654, 2.063e-3
-1.653, 2.030e-3
-1.652, 1.999e-3
-1.651, 1.969e-3
-1.650, 1.935e-3
-1.649, 1.906e-3
-1.648, 1.877e-3
-1.647, 1.843e-3
-1.646, 1.814e-3
-1.645, 1.784e-3
-1.644, 1.754e-3
-1.643, 1.724e-3
-1.642, 1.696e-3
-1.641, 1.667e-3
-1.640, 1.638e-3
-1.639, 1.612e-3
-1.638, 1.584e-3
-1.637, 1.554e-3
-1.636, 1.528e-3
-1.635, 1.502e-3
-1.634, 1.475e-3
-1.633, 1.449e-3
-1.632, 1.424e-3
-1.631, 1.400e-3
-1.630, 1.375e-3
-1.629, 1.351e-3
-1.628, 1.327e-3
-1.627, 1.302e-3
-1.626, 1.278e-3
-1.625, 1.256e-3
-1.624, 1.231e-3
-1.623, 1.209e-3
-1.622, 1.190e-3
-1.621, 1.168e-3
-1.620, 1.145e-3
-1.619, 1.124e-3
-1.618, 1.103e-3
-1.617, 1.081e-3
-1.616, 1.061e-3
-1.615, 1.042e-3
-1.614, 1.022e-3
-1.613, 1.001e-3
-1.612, 9.841e-4
-1.611, 9.643e-4
-1.610, 9.450e-4
-1.609, 9.276e-4
-1.608, 9.095e-4
-1.607, 8.910e-4
-1.606, 8.742e-4
-1.605, 8.577e-4
-1.604, 8.406e-4
-1.603, 8.235e-4
-1.602, 8.076e-4
-1.601, 7.911e-4
-1.600, 7.749e-4
-1.599, 7.597e-4
-1.598, 7.443e-4
-1.597, 7.284e-4
-1.596, 7.144e-4
-1.595, 7.000e-4
-1.594, 6.856e-4
-1.593, 6.713e-4
-1.592, 6.581e-4
-1.591, 6.445e-4
-1.590, 6.306e-4
-1.589, 6.184e-4
-1.588, 6.057e-4
-1.587, 5.927e-4
-1.586, 5.812e-4
-1.585, 5.695e-4
-1.584, 5.572e-4
-1.583, 5.454e-4
-1.582, 5.346e-4
-1.581, 5.231e-4
-1.580, 5.118e-4
-1.579, 5.013e-4
-1.578, 4.906e-4
-1.577, 4.800e-4
-1.576, 4.703e-4
-1.575, 4.604e-4
-1.574, 4.498e-4
-1.573, 4.401e-4
-1.572, 4.312e-4
-1.571, 4.219e-4
-1.570, 4.127e-4
-1.569, 4.046e-4
-1.568, 3.958e-4
-1.567, 3.873e-4
-1.566, 3.788e-4
-1.565, 3.710e-4
-1.564, 3.623e-4
-1.563, 3.542e-4
-1.562, 3.473e-4
-1.561, 3.394e-4
-1.560, 3.313e-4
-1.559, 3.248e-4
-1.558, 3.176e-4
-1.557, 3.104e-4
-1.556, 3.037e-4
-1.555, 2.971e-4
-1.554, 2.902e-4
-1.553, 2.837e-4
-1.552, 2.781e-4
-1.551, 2.718e-4
-1.550, 2.650e-4
-1.549, 2.597e-4
-1.548, 2.536e-4
-1.547, 2.477e-4
-1.546, 2.429e-4
-1.545, 2.374e-4
-1.544, 2.318e-4
-1.543, 2.267e-4
-1.542, 2.219e-4
-1.541, 2.168e-4
-1.540, 2.118e-4
-1.539, 2.073e-4
-1.538, 2.025e-4
-1.537, 1.974e-4
-1.536, 1.932e-4
-1.535, 1.887e-4
-1.534, 1.841e-4
-1.533, 1.799e-4
-1.532, 1.761e-4
-1.531, 1.717e-4
-1.530, 1.675e-4
-1.529, 1.640e-4
-1.528, 1.598e-4
-1.527, 1.561e-4
-1.526, 1.527e-4
-1.525, 1.489e-4
-1.524, 1.455e-4
-1.523, 1.418e-4
-1.522, 1.388e-4
-1.521, 1.353e-4
-1.520, 1.318e-4
-1.519, 1.292e-4
-1.518, 1.257e-4
-1.517, 1.227e-4
-1.516, 1.201e-4
-1.515, 1.168e-4
-1.514, 1.138e-4
-1.513, 1.112e-4
-1.512, 1.089e-4
-1.511, 1.058e-4
-1.510, 1.031e-4
-1.509, 1.009e-4
-1.508, 9.817e-5
-1.507, 9.544e-5
-1.506, 9.347e-5
-1.505, 9.091e-5
-1.504, 8.838e-5
-1.503, 8.627e-5
-1.502, 8.428e-5
-1.501, 8.192e-5
-1.500, 7.938e-5
-1.499, 7.822e-5
-1.498, 7.561e-5
-1.497, 7.349e-5
-1.496, 7.179e-5
-1.495, 6.980e-5
-1.494, 6.769e-5
-1.493, 6.601e-5
-1.492, 6.457e-5
-1.491, 6.236e-5
-1.490, 6.057e-5
-1.489, 5.940e-5
-1.488, 5.739e-5
-1.487, 5.577e-5
-1.486, 5.432e-5
-1.485, 5.258e-5
-1.484, 5.084e-5
-1.483, 4.940e-5
-1.482, 4.842e-5
-1.481, 4.650e-5
-1.480, 4.520e-5
-1.479, 4.419e-5
-1.478, 4.238e-5
-1.477, 4.123e-5
-1.476, 4.028e-5
-1.475, 3.881e-5
-1.474, 3.738e-5
-1.473, 3.588e-5
-1.472, 3.498e-5
-1.471, 3.392e-5
-1.470, 3.212e-5
-1.469, 3.178e-5
-1.468, 3.012e-5
-1.467, 2.902e-5
-1.466, 2.823e-5
-1.465, 2.714e-5
-1.464, 2.598e-5
-1.463, 2.505e-5
-1.462, 2.417e-5
-1.461, 2.300e-5
-1.460, 2.185e-5
-1.459, 2.136e-5
-1.458, 2.041e-5
-1.457, 1.927e-5
-1.456, 1.869e-5
-1.455, 1.763e-5
-1.454, 1.664e-5
-1.453, 1.611e-5
-1.452, 1.553e-5
-1.451, 1.459e-5
-1.450, 1.355e-5
-1.449, 1.335e-5
-1.448, 1.240e-5
-1.447, 1.128e-5
-1.446, 1.095e-5
-1.445, 9.815e-6
-1.444, 9.371e-6
-1.443, 8.493e-6
-1.442, 8.295e-6
-1.441, 7.269e-6
-1.440, 6.658e-6
-1.439, 6.529e-6
-1.438, 5.691e-6
-1.437, 5.030e-6
-1.436, 4.724e-6
-1.435, 4.092e-6
-1.434, 3.283e-6
-1.433, 2.731e-6
-1.432, 2.701e-6
-1.431, 1.803e-6
-1.430, 1.281e-6
-1.429, 1.271e-6
-1.428, 7.676e-7
-1.427, -1.973e-9
-1.426, -7.103e-8
-1.425, -6.531e-7
-1.424, -1.314e-6
-1.423, -1.689e-6
-1.422, -1.768e-6
-1.421, -2.350e-6
-1.420, -2.991e-6
-1.419, -2.804e-6
-1.418, -3.524e-6
-1.417, -4.294e-6
-1.416, -4.037e-6
-1.415, -4.698e-6
-1.414, -5.251e-6
-1.413, -5.330e-6
-1.412, -5.537e-6
-1.411, -6.464e-6
-1.410, -6.750e-6
-1.409, -6.326e-6
-1.408, -7.214e-6
-1.407, -7.638e-6
-1.406, -7.727e-6
-1.405, -8.181e-6
-1.404, -8.635e-6
-1.403, -8.694e-6
-1.402, -8.812e-6
-1.401, -9.552e-6
-1.400, -9.513e-6
-1.399, -9.483e-6
-1.398, -1.007e-5
-1.397, -1.024e-5
-1.396, -1.008e-5
-1.395, -1.067e-5
-1.394, -1.105e-5
-1.393, -1.125e-5
-1.392, -1.105e-5
-1.391, -1.150e-5
-1.390, -1.186e-5
-1.389, -1.138e-5
-1.388, -1.212e-5
-1.387, -1.242e-5
-1.386, -1.202e-5
-1.385, -1.262e-5
-1.384, -1.282e-5
-1.383, -1.310e-5
-1.382, -1.284e-5
-1.381, -1.347e-5
-1.380, -1.378e-5
-1.379, -1.355e-5
-1.378, -1.378e-5
-1.377, -1.416e-5
-1.376, -1.352e-5
-1.375, -1.417e-5
-1.374, -1.475e-5
-1.373, -1.463e-5
-1.372, -1.471e-5
-1.371, -1.524e-5
-1.370, -1.556e-5
-1.369, -1.525e-5
-1.368, -1.580e-5
-1.367, -1.640e-5
-1.366, -1.594e-5
-1.365, -1.637e-5
-1.364, -1.659e-5
-1.363, -1.660e-5
-1.362, -1.647e-5
-1.361, -1.688e-5
-1.360, -1.699e-5
-1.359, -1.670e-5
-1.358, -1.697e-5
-1.357, -1.706e-5
-1.356, -1.686e-5
-1.355, -1.732e-5
-1.354, -1.732e-5
-1.353, -1.732e-5
-1.352, -1.701e-5
-1.351, -1.763e-5
-1.350, -1.790e-5
-1.349, -1.761e-5
-1.348, -1.787e-5
-1.347, -1.824e-5
-1.346, -1.765e-5
-1.345, -1.815e-5
-1.344, -1.853e-5
-1.343, -1.823e-5
-1.342, -1.821e-5
-1.341, -1.847e-5
-1.340, -1.864e-5
-1.339, -1.810e-5
-1.338, -1.840e-5
-1.337, -1.872e-5
-1.336, -1.833e-5
-1.335, -1.847e-5
-1.334, -1.878e-5
-1.333, -1.858e-5
-1.332, -1.835e-5
-1.331, -1.897e-5
-1.330, -1.929e-5
-1.329, -1.860e-5
-1.328, -1.905e-5
-1.327, -1.907e-5
-1.326, -1.883e-5
-1.325, -1.911e-5
-1.324, -1.934e-5
-1.323, -1.917e-5
-1.322, -1.908e-5
-1.321, -1.944e-5
-1.320, -1.942e-5
-1.319, -1.884e-5
-1.318, -1.957e-5
-1.317, -1.959e-5
-1.316, -1.903e-5
-1.315, -1.927e-5
-1.314, -1.967e-5
-1.313, -1.944e-5
-1.312, -1.930e-5
-1.311, -1.968e-5
-1.310, -1.980e-5
-1.309, -1.921e-5
-1.308, -1.978e-5
-1.307, -2.004e-5
-1.306, -1.952e-5
-1.305, -1.982e-5
-1.304, -2.004e-5
-1.303, -1.972e-5
-1.302, -1.986e-5
-1.301, -2.000e-5
-1.300, -2.008e-5
-1.299, -2.013e-5
-1.298, -2.018e-5
-1.297, -2.059e-5
-1.296, -1.984e-5
-1.295, -2.030e-5
-1.294, -2.038e-5
-1.293, -2.046e-5
-1.292, -2.022e-5
-1.291, -2.063e-5
-1.290, -2.055e-5
-1.289, -2.050e-5
-1.288, -2.072e-5
-1.287, -2.101e-5
-1.286, -2.061e-5
-1.285, -2.108e-5
-1.284, -2.091e-5
-1.283, -2.091e-5
-1.282, -2.073e-5
-1.281, -2.119e-5
-1.280, -2.138e-5
-1.279, -2.086e-5
-1.278, -2.128e-5
-1.277, -2.134e-5
-1.276, -2.093e-5
-1.275, -2.122e-5
-1.274, -2.136e-5
-1.273, -2.129e-5
-1.272, -2.090e-5
-1.271, -2.118e-5
-1.270, -2.162e-5
-1.269, -2.101e-5
-1.268, -2.144e-5
-1.267, -2.184e-5
-1.266, -2.133e-5
-1.265, -2.172e-5
-1.264, -2.169e-5
-1.263, -2.166e-5
-1.262, -2.137e-5
-1.261, -2.180e-5
-1.260, -2.177e-5
-1.259, -2.164e-5
-1.258, -2.194e-5
-1.257, -2.212e-5
-1.256, -2.172e-5
-1.255, -2.193e-5
-1.254, -2.222e-5
-1.253, -2.196e-5
-1.252, -2.181e-5
-1.251, -2.221e-5
-1.250, -2.240e-5
-1.249, -2.193e-5
-1.248, -2.234e-5
-1.247, -2.238e-5
-1.246, -2.189e-5
-1.245, -2.216e-5
-1.244, -2.260e-5
-1.243, -2.211e-5
-1.242, -2.198e-5
-1.241, -2.253e-5
-1.240, -2.264e-5
-1.239, -2.196e-5
-1.238, -2.245e-5
-1.237, -2.258e-5
-1.236, -2.220e-5
-1.235, -2.260e-5
-1.234, -2.279e-5
-1.233, -2.258e-5
-1.232, -2.244e-5
-1.231, -2.276e-5
-1.230, -2.287e-5
-1.229, -2.256e-5
-1.228, -2.296e-5
-1.227, -2.313e-5
-1.226, -2.272e-5
-1.225, -2.298e-5
-1.224, -2.302e-5
-1.223, -2.270e-5
-1.222, -2.291e-5
-1.221, -2.312e-5
-1.220, -2.330e-5
-1.219, -2.284e-5
-1.218, -2.332e-5
-1.217, -2.344e-5
-1.216, -2.292e-5
-1.215, -2.332e-5
-1.214, -2.334e-5
-1.213, -2.324e-5
-1.212, -2.313e-5
-1.211, -2.349e-5
-1.210, -2.353e-5
-1.209, -2.305e-5
-1.208, -2.357e-5
-1.207, -2.386e-5
-1.206, -2.349e-5
-1.205, -2.376e-5
-1.204, -2.395e-5
-1.203, -2.398e-5
-1.202, -2.392e-5
-1.201, -2.440e-5
-1.200, -2.423e-5
-1.199, -2.383e-5
-1.198, -2.449e-5
-1.197, -2.450e-5
-1.196, -2.400e-5
-1.195, -2.444e-5
-1.194, -2.453e-5
-1.193, -2.438e-5
-1.192, -2.410e-5
-1.191, -2.455e-5
-1.190, -2.453e-5
-1.189, -2.407e-5
-1.188, -2.438e-5
-1.187, -2.470e-5
-1.186, -2.414e-5
-1.185, -2.444e-5
-1.184, -2.459e-5
-1.183, -2.453e-5
-1.182, -2.433e-5
-1.181, -2.472e-5
-1.180, -2.468e-5
-1.179, -2.432e-5
-1.178, -2.458e-5
-1.177, -2.499e-5
-1.176, -2.433e-5
-1.175, -2.457e-5
-1.174, -2.478e-5
-1.173, -2.461e-5
-1.172, -2.441e-5
-1.171, -2.487e-5
-1.170, -2.507e-5
-1.169, -2.442e-5
-1.168, -2.487e-5
-1.167, -2.493e-5
-1.166, -2.477e-5
-1.165, -2.493e-5
-1.164, -2.524e-5
-1.163, -2.488e-5
-1.162, -2.506e-5
-1.161, -2.527e-5
-1.160, -2.541e-5
-1.159, -2.504e-5
-1.158, -2.546e-5
-1.157, -2.552e-5
-1.156, -2.520e-5
-1.155, -2.560e-5
-1.154, -2.590e-5
-1.153, -2.571e-5
-1.152, -2.597e-5
-1.151, -2.615e-5
-1.150, -2.624e-5
-1.149, -2.574e-5
-1.148, -2.620e-5
-1.147, -2.659e-5
-1.146, -2.603e-5
-1.145, -2.644e-5
-1.144, -2.656e-5
-1.143, -2.625e-5
-1.142, -2.629e-5
-1.141, -2.648e-5
-1.140, -2.670e-5
-1.139, -2.628e-5
-1.138, -2.677e-5
-1.137, -2.670e-5
-1.136, -2.625e-5
-1.135, -2.665e-5
-1.134, -2.681e-5
-1.133, -2.667e-5
-1.132, -2.639e-5
-1.131, -2.700e-5
-1.130, -2.672e-5
-1.129, -2.647e-5
-1.128, -2.675e-5
-1.127, -2.726e-5
-1.126, -2.673e-5
-1.125, -2.704e-5
-1.124, -2.725e-5
-1.123, -2.710e-5
-1.122, -2.679e-5
-1.121, -2.738e-5
-1.120, -2.759e-5
-1.119, -2.681e-5
-1.118, -2.753e-5
-1.117, -2.764e-5
-1.116, -2.720e-5
-1.115, -2.762e-5
-1.114, -2.776e-5
-1.113, -2.756e-5
-1.112, -2.750e-5
-1.111, -2.790e-5
-1.110, -2.812e-5
-1.109, -2.748e-5
-1.108, -2.812e-5
-1.107, -2.842e-5
-1.106, -2.780e-5
-1.105, -2.822e-5
-1.104, -2.840e-5
-1.103, -2.799e-5
-1.102, -2.812e-5
-1.101, -2.852e-5
-1.100, -2.873e-5
-1.099, -2.825e-5
-1.098, -2.855e-5
-1.097, -2.909e-5
-1.096, -2.840e-5
-1.095, -2.873e-5
-1.094, -2.892e-5
-1.093, -2.875e-5
-1.092, -2.872e-5
-1.091, -2.931e-5
-1.090, -2.910e-5
-1.089, -2.876e-5
-1.088, -2.915e-5
-1.087, -2.928e-5
-1.086, -2.909e-5
-1.085, -2.923e-5
-1.084, -2.965e-5
-1.083, -2.931e-5
-1.082, -2.943e-5
-1.081, -2.975e-5
-1.080, -2.995e-5
-1.079, -2.946e-5
-1.078, -3.020e-5
-1.077, -3.049e-5
-1.076, -3.004e-5
-1.075, -3.038e-5
-1.074, -3.102e-5
-1.073, -3.032e-5
-1.072, -3.039e-5
-1.071, -3.096e-5
-1.070, -3.092e-5
-1.069, -3.031e-5
-1.068, -3.100e-5
-1.067, -3.130e-5
-1.066, -3.059e-5
-1.065, -3.106e-5
-1.064, -3.120e-5
-1.063, -3.099e-5
-1.062, -3.133e-5
-1.061, -3.145e-5
-1.060, -3.168e-5
-1.059, -3.129e-5
-1.058, -3.187e-5
-1.057, -3.190e-5
-1.056, -3.153e-5
-1.055, -3.192e-5
-1.054, -3.212e-5
-1.053, -3.191e-5
-1.052, -3.171e-5
-1.051, -3.243e-5
-1.050, -3.210e-5
-1.049, -3.196e-5
-1.048, -3.242e-5
-1.047, -3.285e-5
-1.046, -3.244e-5
-1.045, -3.292e-5
-1.044, -3.293e-5
-1.043, -3.266e-5
-1.042, -3.270e-5
-1.041, -3.322e-5
-1.040, -3.335e-5
-1.039, -3.294e-5
-1.038, -3.348e-5
-1.037, -3.379e-5
-1.036, -3.316e-5
-1.035, -3.362e-5
-1.034, -3.405e-5
-1.033, -3.363e-5
-1.032, -3.363e-5
-1.031, -3.402e-5
-1.030, -3.409e-5
-1.029, -3.381e-5
-1.028, -3.422e-5
-1.027, -3.466e-5
-1.026, -3.401e-5
-1.025, -3.451e-5
-1.024, -3.495e-5
-1.023, -3.468e-5
-1.022, -3.466e-5
-1.021, -3.520e-5
-1.020, -3.518e-5
-1.019, -3.470e-5
-1.018, -3.534e-5
-1.017, -3.570e-5
-1.016, -3.531e-5
-1.015, -3.551e-5
-1.014, -3.590e-5
-1.013, -3.538e-5
-1.012, -3.568e-5
-1.011, -3.605e-5
-1.010, -3.613e-5
-1.009, -3.561e-5
-1.008, -3.628e-5
-1.007, -3.655e-5
-1.006, -3.593e-5
-1.005, -3.627e-5
-1.004, -3.691e-5
-1.003, -3.622e-5
-1.002, -3.658e-5
-1.001, -3.710e-5
