Potential V vs RHE, Current mA cm-2
0.013299999999999867,-0.4034756627215085
0.012299999999999978,-2.32861479957785
0.011299999999999866,-3.669761111849905
0.010299999999999976,-4.794456595242609
0.009299999999999864,-6.16814126741156
0.008299999999999974,-7.219271763211282
0.007299999999999862,-7.901162609746229
0.006299999999999972,-8.830627933757558
0.00529999999999986,-9.710578362273612
0.0042999999999999705,-10.144894731332178
0.0032999999999998586,-10.698046849579406
0.0022999999999999687,-11.463405662806393
0.0012999999999998568,-11.835474734670896
0.00029999999999996696,-12.080219789547549
-0.000700000000000145,-12.660251422492214
-0.0017000000000000348,-13.006855690959148
-0.0027000000000001467,-13.030905783056852
-0.0037000000000000366,-13.427024947019063
-0.0047000000000001485,-13.825973533581003
-0.005700000000000038,-13.77787334938559
-0.00670000000000015,-13.946223994069532
-0.00770000000000004,-14.359319693630123
-0.008700000000000152,-14.401761032626075
-0.009700000000000042,-14.373466806628771
-0.010700000000000154,-14.69885040559773
-0.011700000000000044,-14.797880196588284
-0.012700000000000156,-14.67055617960043
-0.013700000000000045,-14.939351326574789
-0.014700000000000157,-15.250587812545096
-0.015700000000000047,-15.137410908555893
-0.01670000000000016,-15.137410908555893
-0.01770000000000005,-15.335470490536997
-0.01870000000000016,-15.165705134553193
-0.01970000000000005,-15.05252823056399
-0.020700000000000163,-15.321323377538347
-0.021700000000000053,-15.4203531685289
-0.022700000000000164,-15.250587812545096
-0.023700000000000054,-15.3920589425316
-0.024700000000000166,-15.547677185516752
-0.025700000000000056,-15.321323377538347
-0.026700000000000168,-15.264734925543747
-0.027700000000000058,-15.491088733522153
-0.02870000000000017,-15.363764716534297
-0.02970000000000006,-15.193999360550496
-0.03070000000000017,-15.4203531685289
-0.03170000000000006,-15.462794507524851
-0.03270000000000017,-15.222293586547794
-0.03370000000000006,-15.335470490536997
-0.034700000000000175,-15.4769416205235
-0.035700000000000065,-15.236440699546446
-0.03670000000000018,-15.193999360550496
-0.03770000000000007,-15.43450028152755
-0.03870000000000018,-15.321323377538347
-0.03970000000000007,-15.179852247551842
-0.04070000000000018,-15.3920589425316
-0.04170000000000007,-15.3920589425316
-0.04270000000000018,-15.123263795557243
-0.04370000000000007,-15.222293586547794
-0.044700000000000184,-15.363764716534297
-0.045700000000000074,-15.137410908555893
-0.046700000000000186,-15.10911668255859
-0.047700000000000076,-15.335470490536997
-0.04870000000000019,-15.193999360550496
-0.04970000000000008,-15.02423400456669
-0.05070000000000019,-15.208146473549144
-0.05170000000000008,-15.236440699546446
-0.05270000000000019,-14.98179266557074
-0.05370000000000008,-15.094969569559943
-0.05470000000000019,-15.236440699546446
-0.05570000000000008,-15.02423400456669
-0.056700000000000195,-15.01008689156804
-0.057700000000000085,-15.264734925543747
-0.058700000000000196,-15.123263795557243
-0.059700000000000086,-14.98179266557074
-0.0607000000000002,-15.222293586547794
-0.06170000000000009,-15.236440699546446
-0.0627000000000002,-14.98179266557074
-0.06370000000000009,-15.06667534356264
-0.0647000000000002,-15.193999360550496
-0.06570000000000009,-14.98179266557074
-0.0667000000000002,-14.925204213576137
-0.0677000000000001,-15.151558021554543
-0.0687000000000002,-15.02423400456669
-0.0697000000000001,-14.854468648582884
-0.07070000000000021,-15.06667534356264
-0.0717000000000001,-15.094969569559943
-0.07270000000000021,-14.840321535584234
-0.0737000000000001,-14.953498439573437
-0.07470000000000021,-15.080822456561293
-0.0757000000000001,-14.840321535584234
-0.07670000000000021,-14.840321535584234
-0.0777000000000001,-15.080822456561293
-0.07870000000000021,-14.925204213576137
-0.0797000000000001,-14.741291744593681
-0.08070000000000022,-14.939351326574789
-0.0817000000000001,-14.967645552572087
-0.08270000000000022,-14.741291744593681
-0.08370000000000011,-14.911057100577487
-0.08470000000000022,-15.080822456561293
-0.08570000000000011,-14.840321535584234
-0.08670000000000022,-14.797880196588284
-0.08770000000000011,-15.03838111756534
-0.08870000000000022,-14.911057100577487
-0.08970000000000011,-14.769585970590983
-0.09070000000000022,-14.98179266557074
-0.09170000000000011,-15.01008689156804
-0.09270000000000023,-14.755438857592333
-0.09370000000000012,-14.854468648582884
-0.09470000000000023,-14.995939778569388
-0.09570000000000012,-14.727144631595033
-0.09670000000000023,-14.684703292599082
-0.09770000000000012,-14.953498439573437
-0.09870000000000023,-14.797880196588284
-0.09970000000000012,-14.61396772760583
-0.10070000000000023,-14.826174422585586
-0.10170000000000012,-14.840321535584234
-0.10270000000000024,-14.62811484060448
-0.10370000000000013,-14.783733083589633
-0.10470000000000024,-14.953498439573437
-0.10570000000000013,-14.769585970590983
-0.10670000000000024,-14.727144631595033
-0.10770000000000013,-14.939351326574789
-0.10870000000000024,-14.812027309586934
-0.10970000000000013,-14.62811484060448
-0.11070000000000024,-14.840321535584234
-0.11170000000000013,-14.854468648582884
-0.11270000000000002,-14.642261953603128
-0.11370000000000013,-14.812027309586934
-0.11470000000000002,-14.98179266557074
-0.11570000000000014,-14.783733083589633
-0.11670000000000003,-14.741291744593681
-0.11770000000000014,-14.953498439573437
-0.11870000000000003,-14.840321535584234
-0.11970000000000014,-14.684703292599082
-0.12070000000000003,-14.896909987578834
-0.12170000000000014,-14.939351326574789
-0.12270000000000003,-14.684703292599082
-0.12370000000000014,-14.812027309586934
-0.12470000000000003,-14.953498439573437
-0.12570000000000014,-14.741291744593681
-0.12670000000000003,-14.755438857592333
-0.12770000000000015,-14.98179266557074
-0.12870000000000004,-14.882762874580186
-0.12970000000000015,-14.741291744593681
-0.13070000000000004,-14.967645552572087
-0.13170000000000015,-14.967645552572087
-0.13270000000000004,-14.69885040559773
-0.13370000000000015,-14.797880196588284
-0.13470000000000004,-14.953498439573437
-0.13570000000000015,-14.755438857592333
-0.13670000000000004,-14.769585970590983
-0.13770000000000016,-14.995939778569388
-0.13870000000000005,-14.854468648582884
-0.13970000000000016,-14.71299751859638
-0.14070000000000005,-14.925204213576137
-0.14170000000000016,-14.953498439573437
-0.14270000000000005,-14.755438857592333
-0.14370000000000016,-14.911057100577487
-0.14470000000000005,-15.094969569559943
-0.14570000000000016,-14.882762874580186
-0.14670000000000005,-14.868615761581536
-0.14770000000000016,-15.094969569559943
-0.14870000000000005,-14.953498439573437
-0.14970000000000017,-14.783733083589633
-0.15070000000000006,-14.98179266557074
-0.15170000000000017,-14.98179266557074
-0.15270000000000006,-14.797880196588284
-0.15370000000000017,-14.953498439573437
-0.15470000000000006,-15.123263795557243
-0.15570000000000017,-14.925204213576137
-0.15670000000000006,-14.896909987578834
-0.15770000000000017,-15.10911668255859
-0.15870000000000006,-14.953498439573437
-0.15970000000000018,-14.783733083589633
-0.16070000000000007,-15.02423400456669
-0.16170000000000018,-15.123263795557243
-0.16270000000000007,-14.967645552572087
-0.16370000000000018,-15.165705134553193
-0.16470000000000007,-15.349617603535648
-0.16570000000000018,-15.137410908555893
-0.16670000000000007,-15.123263795557243
-0.16770000000000018,-15.307176264539699
-0.16870000000000007,-15.123263795557243
-0.16970000000000018,-15.05252823056399
-0.17070000000000007,-15.37791182953295
-0.17170000000000019,-15.3920589425316
-0.17270000000000008,-15.137410908555893
-0.1737000000000002,-15.293029151541045
-0.17470000000000008,-15.4769416205235
-0.1757000000000002,-15.250587812545096
-0.17670000000000008,-15.179852247551842
-0.1777000000000002,-15.335470490536997
-0.17870000000000008,-15.137410908555893
-0.1797000000000002,-15.02423400456669
-0.18070000000000008,-15.4769416205235
-0.1817000000000002,-15.70329542850191
-0.18270000000000008,-15.4769416205235
-0.1837000000000002,-15.448647394526201
-0.1847000000000001,-15.37791182953295
-0.1857000000000002,-14.868615761581536
-0.1867000000000001,-14.65640906660178
-0.1877000000000002,-14.854468648582884
-0.1887000000000001,-14.854468648582884
-0.1897000000000002,-15.01008689156804
-0.1907000000000001,-15.491088733522153
-0.1917000000000001,-15.632559863508657
-0.19269999999999998,-15.4769416205235
-0.1937000000000001,-15.604265637511356
-0.19469999999999998,-15.689148315503255
-0.1957000000000001,-15.43450028152755
-0.19669999999999999,-15.406206055530248
-0.1977000000000001,-15.660854089505953
-0.1987,-15.604265637511356
-0.1997000000000001,-15.519382959519453
-0.2007,-15.802325219492458
-0.2017000000000001,-15.858913671487063
-0.2027,-15.675001202504609
-0.2037000000000001,-15.858913671487063
-0.2047,-16.056973253468165
-0.2057000000000001,-15.901355010483012
-0.2067,-15.957943462477614
-0.2077000000000001,-16.21259149645332
-0.2087,-16.071120366466815
-0.2097000000000001,-15.91550212348166
-0.2107,-16.127708818461418
-0.2117000000000001,-16.127708818461418
-0.2127,-15.88720789748436
-0.2137000000000001,-16.071120366466815
-0.2147,-16.339915513441174
-0.2157000000000001,-16.25503283544927
-0.2167,-16.29747417444522
-0.21770000000000012,-16.495533756426326
-0.2187,-16.269179948447924
-0.21970000000000012,-16.099414592464115
-0.2207,-16.311621287443874
-0.22170000000000012,-16.339915513441174
-0.2227,-16.24088572245062
-0.22370000000000012,-16.481386643427676
-0.2247,-16.721887564404735
-0.22570000000000012,-16.580416434418233
-0.2267,-16.59456354741688
-0.22770000000000012,-16.835064468393938
-0.22870000000000001,-16.721887564404735
-0.22970000000000013,-16.59456354741688
-0.23070000000000002,-16.877505807389888
-0.23170000000000013,-16.99068271137909
-0.23270000000000002,-16.877505807389888
-0.23370000000000013,-17.103859615368293
-0.23470000000000002,-17.3302134233467
-0.23570000000000013,-17.160448067362896
-0.23670000000000002,-17.20288940635885
-0.2376999999999999,-17.471684553333205
-0.23870000000000002,-17.40094898833995
-0.2396999999999999,-17.34436053634535
-0.24070000000000003,-17.683891248312957
-0.24169999999999991,-17.76877392630486
-0.24270000000000003,-17.641449909317007
-0.24369999999999992,-17.839509491298113
-0.24470000000000003,-18.03756907327922
-0.24569999999999992,-17.896097943292716
-0.24670000000000003,-18.009274847281915
-0.24769999999999992,-18.334658446250877
-0.24870000000000003,-18.320511333252224
-0.24969999999999992,-18.27806999425627
-0.25070000000000003,-18.57515936722793
-0.2516999999999999,-18.674189158218486
-0.25270000000000004,-18.53271802823198
-0.2536999999999999,-18.77321894920904
-0.25470000000000004,-19.042014096183394
-0.2556999999999999,-18.92883719219419
-0.25670000000000004,-19.070308322180697
-0.25769999999999993,-19.409839034148305
-0.25870000000000004,-19.381544808151002
-0.25969999999999993,-19.353250582153702
-0.26070000000000004,-19.721075520118614
-0.26169999999999993,-19.805958198110513
-0.26270000000000004,-19.721075520118614
-0.26369999999999993,-20.06060623208622
-0.26470000000000005,-20.414284057052477
-0.26569999999999994,-20.371842718056527
-0.26670000000000005,-20.52746096104168
-0.26769999999999994,-20.881138786007945
-0.26870000000000005,-20.881138786007945
-0.26969999999999994,-20.86699167300929
-0.27070000000000005,-21.248963723972853
-0.27169999999999994,-21.404581966958006
-0.27270000000000005,-21.362140627962056
-0.27369999999999994,-21.67337711393236
-0.27470000000000006,-22.012907825899973
-0.27569999999999995,-22.04120205189727
-0.27670000000000006,-22.324144311870278
-0.27769999999999995,-22.776851927827092
-0.27870000000000006,-22.833440379821692
-0.27969999999999995,-22.890028831816295
-0.28070000000000006,-23.356883560771752
-0.28169999999999995,-23.639825820744765
-0.28270000000000006,-23.710561385738018
-0.28369999999999995,-24.092533436701576
-0.28470000000000006,-24.432064148669184
-0.28569999999999995,-24.40376992267188
-0.28670000000000007,-24.61597661765164
-0.28769999999999996,-25.06868423360845
-0.28870000000000007,-25.266743815589557
-0.28969999999999996,-25.521391849565262
-0.29070000000000007,-26.087276369511276
-0.29169999999999996,-26.313630177489685
-0.29270000000000007,-26.21460038649913
-0.29369999999999996,-26.455101307476184
-0.2947000000000001,-26.63901377645864
-0.29569999999999996,-26.62486666345999
-0.2967000000000001,-27.162456957408708
-0.29769999999999996,-28.13860775431558
-0.2987000000000001,-28.619609596269694
-0.29969999999999997,-28.789374952253496
-0.3007000000000001,-28.97328742123595
-0.30169999999999997,-28.8176691782508
-0.3027000000000001,-28.619609596269694
-0.30369999999999997,-29.072317212226505
-0.3047000000000001,-29.779672862159025
-0.30569999999999997,-30.232380478115836
-0.3067000000000001,-30.82655922405915
-0.3077,-31.519767760993016
-0.3087000000000001,-31.675386003978172
-0.3097,-31.788562907967375
-0.3107000000000001,-32.340300314914735
-0.3117,-32.70812525287965
-0.3127000000000001,-32.93447906085806
-0.3137,-33.670128936787876
-0.3147000000000001,-34.377484586720385
-0.3157,-34.6604268466934
-0.3167000000000001,-35.11313446265021
-0.3177,-35.679018982596226
-0.3187000000000001,-35.91951990357328
-0.3197,-36.25905061554089
-0.3207000000000001,-36.98055337847206
-0.3217,-37.47570233342482
-0.3227000000000001,-37.758644593397825
-0.3237,-38.32452911334384
-0.3247000000000001,-38.90456074628851
-0.3257,-39.130914554266916
-0.3267000000000001,-39.55532794422642
-0.3277,-40.30512493315489
-0.3287000000000001,-40.729538323114404
-0.3297,-41.196393052069865
-0.3307000000000001,-42.130102509980794
-0.3317,-42.695987029926805
-0.3327000000000001,-43.007223515897124
-0.3337,-43.74287339182693
-0.3347000000000001,-44.42193481576215
-0.3357,-44.81805397972436
-0.3367000000000001,-45.53955674265553
-0.3377,-46.43082486157051
-0.3387000000000001,-46.89767959052597
-0.3397,-47.30794586748683
-0.3407000000000001,-47.95871306542474
-0.3417,-48.48215624637481
-0.3427000000000001,-48.97730520132757
-0.3437,-49.81198486824794
-0.3447000000000001,-50.68910587416426
-0.3457,-51.21254905511432
-0.3467000000000001,-51.919904705046854
-0.3477,-52.81117282396182
-0.3487000000000001,-53.27802755291728
-0.3497,-53.75902939487139
-0.3507000000000001,-54.73518019177827
-0.3517,-55.49912429370539
-0.3527000000000001,-56.022567474655446
-0.3537,-56.98457115856368
-0.3547000000000001,-57.87583927747865
-0.3557,-58.35684111943277
-0.35670000000000013,-59.12078522135989
-0.3577,-60.054494679270796
-0.35870000000000013,-60.64867342521412
-0.3597,-61.20041083216149
-0.36070000000000013,-61.936060708091304
-0.3617,-62.68585769701977
-0.3626999999999999,-63.43565468594825
-0.3637,-64.55327661284163
-0.3646999999999999,-65.60016297474175
-0.3657,-66.19434172068507
-0.3666999999999999,-66.9582858226122
-0.3677,-68.07590774950557
-0.3686999999999999,-68.93888164242324
-0.36970000000000003,-70.05650356931662
-0.3706999999999999,-70.96191880123024
-0.37170000000000003,-71.49950909517896
-0.3726999999999999,-71.95221671113578
-0.37370000000000003,-72.8859261690467
-0.3746999999999999,-73.8479298529549
-0.37570000000000003,-74.58357972888473
-0.3766999999999999,-75.55973052579161
-0.37770000000000004,-76.50758709670117
-0.3786999999999999,-77.1583542946391
-0.37970000000000004,-77.78082726657972
-0.3806999999999999,-78.62965404649873
-0.38170000000000004,-79.57751061740831
-0.38269999999999993,-80.45463162332464
-0.38370000000000004,-81.55810643721937
-0.38469999999999993,-82.64743413811544
-0.38570000000000004,-83.31234844905201
-0.38669999999999993,-82.43522744313569
-0.38570000000000004,-80.10095379835838
-0.38469999999999993,-77.85156283157298
-0.38370000000000004,-76.05487948074436
-0.38269999999999993,-74.92311044085234
-0.38170000000000004,-73.50839914098731
-0.3806999999999999,-71.83903980714656
-0.37970000000000004,-70.50921118527343
-0.3786999999999999,-69.10864699840704
-0.37770000000000004,-67.51002322955955
-0.3766999999999999,-66.56216665864997
-0.37570000000000003,-65.8972523477134
-0.3746999999999999,-64.9352486638052
-0.37370000000000003,-63.88836230190506
-0.3726999999999999,-62.99709418299008
-0.37170000000000003,-61.95020782108996
-0.3706999999999999,-60.67696765121143
-0.36970000000000003,-59.7432581933005
-0.3686999999999999,-58.880284300382826
-0.3677,-57.6070441305043
-0.3666999999999999,-57.26751341853669
-0.3657,-56.39039241262036
-0.3646999999999999,-55.088858016744524
-0.3637,-53.85805918586195
-0.3626999999999999,-53.094115083934824
-0.3617,-52.16040562602391
-0.36070000000000013,-51.05693081212917
-0.3597,-50.40616361419126
-0.35870000000000013,-49.72710219025603
-0.3577,-48.59533315036401
-0.35670000000000013,-47.73235925744634
-0.3557,-46.982562268517874
-0.3547000000000001,-45.85079322862584
-0.3537,-44.87464243171897
-0.3527000000000001,-44.195581007783744
-0.3517,-43.205283097878215
-0.3507000000000001,-42.115955396982145
-0.3497,-41.46518819904423
-0.3487000000000001,-40.75783254911171
-0.3477,-39.739240413208876
-0.3467000000000001,-38.97529631128177
-0.3457,-38.31038200034519
-0.3447000000000001,-37.40496676843157
-0.3437,-36.5985813275085
-0.3427000000000001,-36.11757948555439
-0.3417,-35.311194044631314
-0.3407000000000001,-34.292601908728486
-0.3397,-33.698423162785176
-0.3387000000000001,-33.13253864283916
-0.3377,-32.255417636922836
-0.3367000000000001,-31.604650438984915
-0.3357,-31.095354371033505
-0.3347000000000001,-30.21823336511718
-0.3337,-29.35525947219951
-0.3327000000000001,-28.80352206525215
-0.3317,-28.011283737327723
-0.3307000000000001,-27.06342716641815
-0.3297,-26.469248420474838
-0.3287000000000001,-25.91751101352747
-0.3277,-25.054537120609798
-0.3267000000000001,-24.417917035670534
-0.3257,-23.96520941971372
-0.3247000000000001,-23.1163826397947
-0.3237,-22.267555859875678
-0.3227000000000001,-21.814848243918867
-0.3217,-21.13578681998365
-0.3207000000000001,-20.301107153063278
-0.3197,-19.834252424107817
-0.3187000000000001,-19.353250582153702
-0.3177,-18.589306480226583
-0.3167000000000001,-18.02342196028057
-0.3157,-17.641449909317007
-0.3147000000000001,-16.962388485381787
-0.3137,-16.25503283544927
-0.3127000000000001,-15.844766558488407
-0.3117,-15.222293586547794
-0.3107000000000001,-14.444202371622024
-0.3097,-14.03535080596103
-0.3087000000000001,-13.605278570802058
-0.3077,-12.86114042707305
-0.3067000000000001,-12.392870986817721
-0.30569999999999997,-12.075975655647953
-0.3047000000000001,-11.382767118714085
-0.30369999999999997,-10.724926364276843
-0.3027000000000001,-10.408031033107076
-0.30169999999999997,-9.876099584357823
-0.3007000000000001,-9.174402779624762
-0.29969999999999997,-8.834872067657153
-0.2987000000000001,-8.482608953990761
-0.29769999999999996,-7.7653503249591855
-0.2967000000000001,-7.3183015542018355
-0.29569999999999996,-7.0367740055286925
-0.2947000000000001,-6.410056899688482
-0.29369999999999996,-5.839928245842872
-0.29270000000000007,-5.612159726564601
-0.29169999999999996,-5.149549131508733
-0.29070000000000007,-4.5171731804690625
-0.28969999999999996,-4.239889765695515
-0.28870000000000007,-3.9371415475243974
-0.28769999999999996,-3.321742132083106
-0.28670000000000007,-2.9482583489187366
-0.28569999999999995,-2.7530281895373614
-0.28470000000000006,-2.1984613599902674
-0.28369999999999995,-1.694824137238314
-0.28270000000000006,-1.540620605553025
-0.28169999999999995,-1.1306372708521373
-0.28070000000000006,-0.5549912429370539
-0.27969999999999995,-0.3405210098775144
-0.27870000000000006,-0.08846189758056075
-0.27769999999999995,0.4859533315036401
-0.27670000000000006,0.7984630576438266
-0.27569999999999995,0.9450271483098445
-0.27470000000000006,1.4022618404262244
-0.27369999999999994,1.8589306480226582
-0.27270000000000005,1.980595819811051
-0.27169999999999994,2.3371030673770408
-0.27070000000000005,2.8690345161262942
-0.26969999999999994,2.996358533114148
-0.26870000000000005,3.122267838802136
