Potential V vs RHE, Current mA cm-2
0.013299999999999867,-0.5692798270656908
0.012299999999999978,-2.3569090255751513
0.011299999999999866,-4.0588067193127895
0.010299999999999976,-5.715433651454749
0.009299999999999864,-7.329619244600755
0.008299999999999974,-8.899948787450944
0.007299999999999862,-10.470278330301136
0.006299999999999972,-11.996751822855511
0.00529999999999986,-13.523225315409885
0.0042999999999999705,-15.05252823056399
0.0032999999999998586,-16.396503965435777
0.0022999999999999687,-17.75462681330621
0.0012999999999998568,-19.01371987018609
0.00029999999999996696,-20.159636023076775
-0.000700000000000145,-21.291405062968803
-0.0017000000000000348,-22.38073276386488
-0.0027000000000001467,-23.385177786769056
-0.0037000000000000366,-24.432064148669184
-0.0047000000000001485,-25.43650917157336
-0.005700000000000038,-26.440954194477534
-0.00670000000000015,-27.487840556377662
-0.00770000000000004,-28.478138466283188
-0.008700000000000152,-29.482583489187363
-0.009700000000000042,-30.444587173095588
-0.010700000000000154,-31.321708179011907
-0.011700000000000044,-32.184682071929586
-0.012700000000000156,-32.93447906085806
-0.013700000000000045,-33.712570275783825
-0.014700000000000157,-34.41992592571634
-0.015700000000000047,-35.02825178465831
-0.01670000000000016,-35.679018982596226
-0.01770000000000005,-36.329786180534136
-0.01870000000000016,-37.037141830466666
-0.01970000000000005,-37.73035036740053
-0.020700000000000163,-38.38111756533845
-0.021700000000000053,-39.08847321527096
-0.022700000000000164,-39.739240413208876
-0.023700000000000054,-40.30512493315489
-0.024700000000000166,-40.91345079209687
-0.025700000000000056,-41.43689397304693
-0.026700000000000168,-41.87545447600508
-0.027700000000000058,-42.31401497896325
-0.02870000000000017,-42.71013414292546
-0.02970000000000006,-43.134547532884966
-0.03070000000000017,-43.53066669684718
-0.03170000000000006,-43.92678586080939
-0.03270000000000017,-44.36534636376755
-0.03370000000000006,-44.84634820572166
-0.034700000000000175,-45.27076159568118
-0.035700000000000065,-45.75176343763528
-0.03670000000000018,-46.10544126260155
-0.03770000000000007,-46.544001765559706
-0.03870000000000018,-46.84109113853137
-0.03970000000000007,-47.10988628550572
-0.04070000000000018,-47.36453431948143
-0.04170000000000007,-47.590888127459834
-0.04270000000000018,-47.84553616143554
-0.04370000000000007,-48.071889969413945
-0.044700000000000184,-48.2840966643937
-0.045700000000000074,-48.55289181136806
-0.046700000000000186,-48.80753984534376
-0.047700000000000076,-49.076334992318124
-0.04870000000000019,-49.41586570428573
-0.04970000000000008,-49.68466085126009
-0.05070000000000019,-49.89686754623985
-0.05170000000000008,-50.1656626932142
-0.05270000000000019,-50.29298671020206
-0.05370000000000008,-50.46275206618586
-0.05470000000000019,-50.60422319617236
-0.05570000000000008,-50.68910587416426
-0.056700000000000195,-50.85887123014807
-0.057700000000000085,-50.98619524713592
-0.058700000000000196,-51.17010771611838
-0.059700000000000086,-51.38231441109813
-0.0607000000000002,-51.55207976708194
-0.06170000000000009,-51.82087491405629
-0.0627000000000002,-52.11796428702795
-0.06370000000000009,-52.30187675601041
-0.0647000000000002,-52.471642111994214
-0.06570000000000009,-52.59896612898206
-0.0667000000000002,-52.69799591997262
-0.0677000000000001,-52.78287859796452
-0.0687000000000002,-52.74043725896857
-0.0697000000000001,-52.82531993696047
-0.07070000000000021,-52.82531993696047
-0.0717000000000001,-52.86776127595642
-0.07270000000000021,-52.95264395394832
-0.0737000000000001,-53.079967970936174
-0.07470000000000021,-53.22143910092268
-0.0757000000000001,-53.433645795902436
-0.07670000000000021,-53.518528473894335
-0.0777000000000001,-53.64585249088219
-0.07870000000000021,-53.74488228187274
-0.0797000000000001,-53.74488228187274
-0.08070000000000022,-53.7873236208687
-0.0817000000000001,-53.74488228187274
-0.08270000000000022,-53.68829382987814
-0.08370000000000011,-53.68829382987814
-0.08470000000000022,-53.64585249088219
-0.08570000000000011,-53.68829382987814
-0.08670000000000022,-53.7873236208687
-0.08770000000000011,-53.872206298860604
-0.08870000000000022,-54.0419716548444
-0.08970000000000011,-54.1268543328363
-0.09070000000000022,-54.2117370108282
-0.09170000000000011,-54.31076680181876
-0.09270000000000023,-54.26832546282281
-0.09370000000000012,-54.26832546282281
-0.09470000000000023,-54.26832546282281
-0.09570000000000012,-54.16929567183226
-0.09670000000000023,-54.16929567183226
-0.09770000000000012,-54.1268543328363
-0.09870000000000023,-54.16929567183226
-0.09970000000000012,-54.31076680181876
-0.10070000000000023,-54.39564947981066
-0.10170000000000012,-54.52297349679851
-0.10270000000000024,-54.60785617479041
-0.10370000000000013,-54.69273885278232
-0.10470000000000024,-54.791768643772876
-0.10570000000000013,-54.791768643772876
-0.10670000000000024,-54.73518019177827
-0.10770000000000013,-54.69273885278232
-0.10870000000000024,-54.65029751378637
-0.10970000000000013,-54.60785617479041
-0.11070000000000024,-54.60785617479041
-0.11170000000000013,-54.60785617479041
-0.11270000000000002,-54.65029751378637
-0.11370000000000013,-54.73518019177827
-0.11470000000000002,-54.791768643772876
-0.11570000000000014,-54.919092660760725
-0.11670000000000003,-54.919092660760725
-0.11770000000000014,-54.961533999756675
-0.11870000000000003,-54.961533999756675
-0.11970000000000014,-54.876651321764776
-0.12070000000000003,-54.834209982768826
-0.12170000000000014,-54.791768643772876
-0.12270000000000003,-54.69273885278232
-0.12370000000000014,-54.65029751378637
-0.12470000000000003,-54.65029751378637
-0.12570000000000014,-54.65029751378637
-0.12670000000000003,-54.73518019177827
-0.12770000000000015,-54.791768643772876
-0.12870000000000004,-54.919092660760725
-0.12970000000000015,-54.961533999756675
-0.13070000000000004,-55.003975338752625
-0.13170000000000015,-55.003975338752625
-0.13270000000000004,-55.003975338752625
-0.13370000000000015,-54.961533999756675
-0.13470000000000004,-54.919092660760725
-0.13570000000000015,-54.791768643772876
-0.13670000000000004,-54.791768643772876
-0.13770000000000016,-54.73518019177827
-0.13870000000000005,-54.791768643772876
-0.13970000000000016,-54.834209982768826
-0.14070000000000005,-54.876651321764776
-0.14170000000000016,-54.961533999756675
-0.14270000000000005,-55.046416677748574
-0.14370000000000016,-55.088858016744524
-0.14470000000000005,-55.17374069473642
-0.14570000000000016,-55.13129935574048
-0.14670000000000005,-55.13129935574048
-0.14770000000000016,-55.13129935574048
-0.14870000000000005,-55.046416677748574
-0.14970000000000017,-55.046416677748574
-0.15070000000000006,-55.046416677748574
-0.15170000000000017,-55.046416677748574
-0.15270000000000006,-55.088858016744524
-0.15370000000000017,-55.17374069473642
-0.15470000000000006,-55.25862337272834
-0.15570000000000017,-55.400094502714836
-0.15670000000000006,-55.484977180706736
-0.15770000000000017,-55.527418519702685
-0.15870000000000006,-55.527418519702685
-0.15970000000000018,-55.442535841710786
-0.16070000000000007,-55.357653163718886
-0.16170000000000018,-55.21618203373238
-0.16270000000000007,-55.088858016744524
-0.16370000000000018,-55.046416677748574
-0.16470000000000007,-54.961533999756675
-0.16570000000000018,-55.003975338752625
-0.16670000000000007,-55.046416677748574
-0.16770000000000018,-55.088858016744524
-0.16870000000000007,-55.21618203373238
-0.16970000000000018,-55.25862337272834
-0.17070000000000007,-55.357653163718886
-0.17170000000000019,-55.400094502714836
-0.17270000000000008,-55.357653163718886
-0.1737000000000002,-55.31521182472294
-0.17470000000000008,-55.31521182472294
-0.1757000000000002,-55.31521182472294
-0.17670000000000008,-55.357653163718886
-0.1777000000000002,-55.357653163718886
-0.17870000000000008,-55.442535841710786
-0.1797000000000002,-55.612301197694585
-0.18070000000000008,-55.6971838756865
-0.1817000000000002,-55.7820665536784
-0.18270000000000008,-55.9235376836649
-0.1837000000000002,-55.96597902266086
-0.1847000000000001,-56.093303039648696
-0.1857000000000002,-56.13574437864466
-0.1867000000000001,-56.1781857176406
-0.1877000000000002,-56.26306839563251
-0.1887000000000001,-56.30550973462846
-0.1897000000000002,-56.404539525619015
-0.1907000000000001,-56.489422203610914
-0.1917000000000001,-56.57430488160282
-0.19269999999999998,-56.74407023758662
-0.1937000000000001,-56.88554136757313
-0.19469999999999998,-57.012865384560975
-0.1957000000000001,-57.14018940154883
-0.19669999999999999,-57.22507207954074
-0.1977000000000001,-57.30995475753264
-0.1987,-57.30995475753264
-0.1997000000000001,-57.30995475753264
-0.2007,-57.26751341853669
-0.2017000000000001,-57.22507207954074
-0.2027,-57.14018940154883
-0.2037000000000001,-57.14018940154883
-0.2047,-57.097748062552874
-0.2057000000000001,-57.097748062552874
-0.2067,-57.097748062552874
-0.2077000000000001,-57.097748062552874
-0.2087,-57.097748062552874
-0.2097000000000001,-57.097748062552874
-0.2107,-57.012865384560975
-0.2117000000000001,-56.927982706569075
-0.2127,-56.82895291557852
-0.2137000000000001,-56.74407023758662
-0.2147,-56.65918755959472
-0.2157000000000001,-56.57430488160282
-0.2167,-56.53186354260687
-0.21770000000000012,-56.44698086461496
-0.2187,-56.44698086461496
-0.21970000000000012,-56.489422203610914
-0.2207,-56.53186354260687
-0.22170000000000012,-56.57430488160282
-0.2227,-56.65918755959472
-0.22370000000000012,-56.70162889859067
-0.2247,-56.74407023758662
-0.22570000000000012,-56.74407023758662
-0.2267,-56.74407023758662
-0.22770000000000012,-56.70162889859067
-0.22870000000000001,-56.61674622059877
-0.22970000000000013,-56.53186354260687
-0.23070000000000002,-56.53186354260687
-0.23170000000000013,-56.53186354260687
-0.23270000000000002,-56.65918755959472
-0.23370000000000013,-56.786511576582576
-0.23470000000000002,-56.88554136757313
-0.23570000000000013,-57.012865384560975
-0.23670000000000002,-57.14018940154883
-0.2376999999999999,-57.26751341853669
-0.23870000000000002,-57.408984548523186
-0.2396999999999999,-57.408984548523186
-0.24070000000000003,-57.408984548523186
-0.24169999999999991,-57.408984548523186
-0.24270000000000003,-57.352396096528594
-0.24369999999999992,-57.352396096528594
-0.24470000000000003,-57.352396096528594
-0.24569999999999992,-57.45142588751914
-0.24670000000000003,-57.53630856551105
-0.24769999999999992,-57.62119124350295
-0.24870000000000003,-57.79095659948675
-0.24969999999999992,-57.87583927747865
-0.25070000000000003,-58.017310407465146
-0.2516999999999999,-58.05975174646111
-0.25270000000000004,-58.10219308545706
-0.2536999999999999,-58.10219308545706
-0.25470000000000004,-58.10219308545706
-0.2556999999999999,-58.05975174646111
-0.25670000000000004,-58.10219308545706
-0.25769999999999993,-58.10219308545706
-0.25870000000000004,-58.18707576344896
-0.25969999999999993,-58.31439978043681
-0.26070000000000004,-58.39928245842871
-0.26169999999999993,-58.583194927411164
-0.26270000000000004,-58.71051894439902
-0.26369999999999993,-58.79540162239092
-0.26470000000000005,-58.92272563937878
-0.26569999999999994,-58.97931409137338
-0.26670000000000005,-59.02175543036933
-0.26769999999999994,-59.06419676936528
-0.26870000000000005,-59.06419676936528
-0.26969999999999994,-59.10663810836124
-0.27070000000000005,-59.14907944735718
-0.27169999999999994,-59.19152078635314
-0.27270000000000005,-59.31884480334099
-0.27369999999999994,-59.44616882032884
-0.27470000000000006,-59.587639950315335
-0.27569999999999995,-59.7998466452951
-0.27670000000000006,-59.9696120012789
-0.27769999999999995,-60.15352447026136
-0.27870000000000006,-60.23840714825326
-0.27969999999999995,-60.32328982624517
-0.28070000000000006,-60.40817250423707
-0.28169999999999995,-60.45061384323302
-0.28270000000000006,-60.49305518222897
-0.28369999999999995,-60.63452631221547
-0.28470000000000006,-60.71940899020737
-0.28569999999999995,-60.889174346191176
-0.28670000000000007,-61.15796949316553
-0.28769999999999996,-61.37017618814529
-0.28870000000000007,-61.6814126741156
-0.28969999999999996,-61.89361936909536
-0.29070000000000007,-62.06338472507916
-0.29169999999999996,-62.24729719406162
-0.29270000000000007,-62.33217987205352
-0.29369999999999996,-62.459503889041365
-0.2947000000000001,-62.544386567033264
-0.29569999999999996,-62.58682790602922
-0.2967000000000001,-62.68585769701977
-0.29769999999999996,-62.77074037501168
-0.2987000000000001,-62.94050573099548
-0.29969999999999997,-63.15271242597524
-0.3007000000000001,-63.37906623395363
-0.30169999999999997,-63.59127292893339
-0.3027000000000001,-63.860068075907755
-0.30369999999999997,-64.02983343189156
-0.3047000000000001,-64.25618723986996
-0.30569999999999997,-64.38351125685783
-0.3067000000000001,-64.46839393484973
-0.3077,-64.59571795183757
-0.3087000000000001,-64.68060062982947
-0.3097,-64.86451309881193
-0.3107000000000001,-65.03427845479574
-0.3117,-65.2464851497755
-0.3127000000000001,-65.5577216357458
-0.3137,-65.86895812171612
-0.3147000000000001,-66.20848883368372
-0.3157,-66.60460799764593
-0.3167000000000001,-66.87340314462028
-0.3177,-67.21293385658788
-0.3187000000000001,-67.48172900356225
-0.3197,-67.693935698542
-0.3207000000000001,-67.9202895065204
-0.3217,-68.13249620150016
-0.3227000000000001,-68.34470289647993
-0.3237,-68.61349804345427
-0.3247000000000001,-68.82570473843404
-0.3257,-69.13694122440434
-0.3267000000000001,-69.53306038836655
-0.3277,-69.87259110033416
-0.3287000000000001,-70.26871026429637
-0.3297,-70.57994675026669
-0.3307000000000001,-70.91947746223428
-0.3317,-71.2307139482046
-0.3327000000000001,-71.48536198218031
-0.3337,-71.7117157901587
-0.3347000000000001,-71.96636382413442
-0.3357,-72.10783495412092
-0.3367000000000001,-72.40492432709259
-0.3377,-72.67371947406694
-0.3387000000000001,-73.01325018603454
-0.3397,-73.40936934999675
-0.3407000000000001,-73.80548851395896
-0.3417,-74.24404901691713
-0.3427000000000001,-74.72505085887124
-0.3437,-75.1070229098348
-0.3447000000000001,-75.54558341279296
-0.3457,-75.94170257675518
-0.3467000000000001,-76.33782174071737
-0.3477,-76.71979379168094
-0.3487000000000001,-77.11591295564315
-0.3497,-77.55447345860131
-0.3507000000000001,-78.03547530055542
-0.3517,-78.51647714250953
-0.3527000000000001,-79.0399203234596
-0.3537,-79.60580484340561
-0.3547000000000001,-80.17168936335163
-0.3557,-80.7800152222936
-0.35670000000000013,-81.30345840324367
-0.3577,-81.86934292318966
-0.35870000000000013,-82.39278610413973
-0.3597,-82.87378794609386
-0.36070000000000013,-83.35478978804795
-0.3617,-83.83579163000208
-0.3626999999999999,-84.23191079396429
-0.3637,-84.75535397491434
-0.3646999999999999,-85.27879715586442
-0.3657,-85.80224033681448
-0.3666999999999999,-86.36812485676049
-0.3677,-86.97645071570246
-0.3686999999999999,-87.58477657464444
-0.36970000000000003,-88.23554377258235
-0.3706999999999999,-88.8438696315243
-0.37170000000000003,-89.46634260346492
-0.3726999999999999,-90.03222712341093
-0.37370000000000003,-90.59811164335694
-0.3746999999999999,-91.20643750229891
-0.37570000000000003,-91.64499800525708
-0.3766999999999999,-92.2108825252031
-0.37770000000000004,-92.73432570615316
-0.3786999999999999,-93.34265156509512
-0.37970000000000004,-93.99341876303303
-0.3806999999999999,-94.70077441296557
-0.38170000000000004,-95.39398294989942
-0.38269999999999993,-96.12963282582925
-0.38370000000000004,-96.83698847576176
-0.38469999999999993,-97.57263835169158
-0.38570000000000004,-98.3082882276214
-0.38669999999999993,-97.61507969068752
-0.38570000000000004,-94.55930328297906
-0.38469999999999993,-91.64499800525708
-0.38370000000000004,-88.8438696315243
-0.38269999999999993,-86.18421238777805
-0.38170000000000004,-83.70846761301424
-0.3806999999999999,-81.3458997422396
-0.37970000000000004,-79.08236166245555
-0.3786999999999999,-76.98858893865528
-0.37770000000000004,-74.89481621485504
-0.3766999999999999,-72.8859261690467
-0.37570000000000003,-70.96191880123024
-0.3746999999999999,-69.05205854641244
-0.37370000000000003,-67.08560983960004
-0.3726999999999999,-65.2464851497755
-0.37170000000000003,-63.46394891194555
-0.3706999999999999,-61.7662953521075
-0.36970000000000003,-60.11108313126541
-0.3686999999999999,-58.498312249419264
-0.3677,-57.012865384560975
-0.3666999999999999,-55.56985985869864
-0.3657,-54.16929567183226
-0.3646999999999999,-52.82531993696047
-0.3637,-51.424755750094086
-0.3626999999999999,-50.0807800152223
-0.3617,-48.63777448935996
-0.36070000000000013,-47.23721030249357
-0.3597,-45.79420477663124
-0.35870000000000013,-44.36534636376755
-0.3577,-42.96478217690117
-0.35670000000000013,-41.606659329030734
-0.3557,-40.30512493315489
-0.3547000000000001,-39.130914554266916
-0.3537,-37.90011572338433
-0.3527000000000001,-36.768346683492304
-0.3517,-35.679018982596226
-0.3507000000000001,-34.58969128170015
-0.3497,-33.45792224180811
-0.3487000000000001,-32.368594540912035
-0.3477,-31.23682550102001
-0.3467000000000001,-30.10505646112798
-0.3457,-28.91669896924135
-0.3447000000000001,-27.78492992934932
-0.3437,-26.65316088945729
-0.3427000000000001,-25.563833188561212
-0.3417,-24.559388165657033
-0.3407000000000001,-23.55494314275286
-0.3397,-22.592939458844636
-0.3387000000000001,-21.729965565926964
-0.3377,-20.810403221014692
-0.3367000000000001,-19.890840876102416
-0.3357,-19.01371987018609
-0.3347000000000001,-18.009274847281915
-0.3337,-17.061418276372343
-0.3327000000000001,-16.141855931460068
-0.3317,-15.094969569559943
-0.3307000000000001,-14.090524546655764
-0.3297,-13.13135028534727
-0.3287000000000001,-12.214617363034726
-0.3277,-11.343155202317865
-0.3267000000000001,-10.470278330301136
-0.3257,-9.685113558876042
-0.3247000000000001,-8.899948787450944
-0.3237,-8.070927965730034
-0.3227000000000001,-7.28576319430494
-0.3217,-6.458157083883892
-0.3207000000000001,-5.585280211867165
-0.3197,-4.712403339850438
-0.3187000000000001,-3.7970851288377587
-0.3177,-2.924208256821031
-0.3167000000000001,-2.052746096104168
-0.3157,-1.2234423321232837
-0.3147000000000001,-0.4384190318281749
-0.3137,0.3467457395969205
-0.3127000000000001,1.0446228238203432
-0.3117,1.7429243214337253
-0.3107000000000001,2.396520941971372
-0.3097,3.1378296631006513
-0.3087000000000001,3.8366970452339793
-0.3077,4.578005766363259
-0.3067000000000001,5.3631705377883545
-0.30569999999999997,6.14833530921345
-0.3047000000000001,6.975941419634496
-0.30369999999999997,7.674808801767824
-0.3027000000000001,8.459973573192919
-0.30169999999999997,9.157426244026382
-0.3007000000000001,9.854878914859846
-0.29969999999999997,10.509890246697358
-0.2987000000000001,11.119630816939189
-0.29769999999999996,11.686930048185067
-0.2967000000000001,12.341941380022579
-0.29569999999999996,12.995538000560227
-0.2947000000000001,13.69299067139369
-0.29369999999999996,14.387613919627421
-0.29270000000000007,15.094969569559943
-0.29169999999999996,15.830619445489761
-0.29070000000000007,16.481386643427676
-0.28969999999999996,17.188742293360193
-0.28870000000000007,17.797068152302163
-0.28769999999999996,18.362952672248177
-0.28670000000000007,18.92883719219419
-0.28569999999999995,19.452280373144255
-0.28470000000000006,19.97572355409432
-0.28369999999999995,20.541608074040333
-0.28270000000000006,21.107492593986347
-0.28169999999999995,21.71581845292831
-0.28070000000000006,22.324144311870278
-0.27969999999999995,22.946617283810895
-0.27870000000000006,23.639825820744765
-0.27769999999999995,24.33303435767863
-0.27670000000000006,24.898918877624645
-0.27569999999999995,25.507244736566612
-0.27470000000000006,25.988246578520723
-0.27369999999999994,26.469248420474838
-0.27270000000000005,26.95025026242895
-0.27169999999999994,27.38881076538711
-0.27070000000000005,27.742488590353368
-0.26969999999999994,28.12446064131693
-0.26870000000000005,28.56302114427509
-0.26769999999999994,29.086464325225155
-0.26670000000000005,29.652348845171172
-0.26569999999999994,30.17579202612123
-0.26470000000000005,30.79826499806185
-0.26369999999999993,31.265119727017314
