Dec. 26, 2024   21:16:09
Cyclic Voltammetry
File: c:/users/guazh/data/banditlqround7_x0exp136_r20/2024-12-24-exp751\exp751-2024-12-26t21_07_54-h2koh\exp751_cv_sr_800mvs_efin_-1400mv.bin
Data Source:  Experiment
Instrument Model:  CHI760E
Header: CV ran at 800 mVs
Note: 

Init E (V) = -1
High E (V) = -1
Low E (V) = -1.4
Final E (V) = -1
Init P/N = N
Scan Rate (V/s) = 0.8
Segment = 3
Sample Interval (V) = 0.001
Quiet Time (sec) = 2
Sensitivity (A/V) = 0.01
Comp R (ohm) = 1.5

Results:

Channel 1:
Segment 1:

Segment 2:

Segment 3:

Potential/V, Current/A

-1.000, 4.024e-5
-1.001, 1.666e-4
-1.002, 2.869e-4
-1.003, 4.040e-4
-1.004, 5.181e-4
-1.005, 6.291e-4
-1.006, 7.401e-4
-1.007, 8.480e-4
-1.008, 9.559e-4
-1.009, 1.064e-3
-1.010, 1.159e-3
-1.011, 1.255e-3
-1.012, 1.344e-3
-1.013, 1.425e-3
-1.014, 1.505e-3
-1.015, 1.582e-3
-1.016, 1.653e-3
-1.017, 1.727e-3
-1.018, 1.798e-3
-1.019, 1.869e-3
-1.020, 1.943e-3
-1.021, 2.013e-3
-1.022, 2.084e-3
-1.023, 2.152e-3
-1.024, 2.214e-3
-1.025, 2.275e-3
-1.026, 2.328e-3
-1.027, 2.383e-3
-1.028, 2.433e-3
-1.029, 2.476e-3
-1.030, 2.522e-3
-1.031, 2.568e-3
-1.032, 2.618e-3
-1.033, 2.667e-3
-1.034, 2.713e-3
-1.035, 2.763e-3
-1.036, 2.809e-3
-1.037, 2.849e-3
-1.038, 2.892e-3
-1.039, 2.929e-3
-1.040, 2.960e-3
-1.041, 2.991e-3
-1.042, 3.019e-3
-1.043, 3.049e-3
-1.044, 3.077e-3
-1.045, 3.105e-3
-1.046, 3.136e-3
-1.047, 3.170e-3
-1.048, 3.200e-3
-1.049, 3.234e-3
-1.050, 3.259e-3
-1.051, 3.290e-3
-1.052, 3.311e-3
-1.053, 3.330e-3
-1.054, 3.348e-3
-1.055, 3.364e-3
-1.056, 3.382e-3
-1.057, 3.398e-3
-1.058, 3.413e-3
-1.059, 3.432e-3
-1.060, 3.450e-3
-1.061, 3.469e-3
-1.062, 3.493e-3
-1.063, 3.512e-3
-1.064, 3.527e-3
-1.065, 3.546e-3
-1.066, 3.555e-3
-1.067, 3.567e-3
-1.068, 3.577e-3
-1.069, 3.583e-3
-1.070, 3.595e-3
-1.071, 3.604e-3
-1.072, 3.617e-3
-1.073, 3.632e-3
-1.074, 3.644e-3
-1.075, 3.663e-3
-1.076, 3.684e-3
-1.077, 3.697e-3
-1.078, 3.709e-3
-1.079, 3.718e-3
-1.080, 3.725e-3
-1.081, 3.731e-3
-1.082, 3.728e-3
-1.083, 3.734e-3
-1.084, 3.734e-3
-1.085, 3.737e-3
-1.086, 3.743e-3
-1.087, 3.752e-3
-1.088, 3.762e-3
-1.089, 3.777e-3
-1.090, 3.783e-3
-1.091, 3.792e-3
-1.092, 3.799e-3
-1.093, 3.799e-3
-1.094, 3.802e-3
-1.095, 3.799e-3
-1.096, 3.795e-3
-1.097, 3.795e-3
-1.098, 3.792e-3
-1.099, 3.795e-3
-1.100, 3.802e-3
-1.101, 3.808e-3
-1.102, 3.820e-3
-1.103, 3.826e-3
-1.104, 3.832e-3
-1.105, 3.839e-3
-1.106, 3.836e-3
-1.107, 3.836e-3
-1.108, 3.836e-3
-1.109, 3.829e-3
-1.110, 3.829e-3
-1.111, 3.826e-3
-1.112, 3.829e-3
-1.113, 3.839e-3
-1.114, 3.845e-3
-1.115, 3.854e-3
-1.116, 3.860e-3
-1.117, 3.866e-3
-1.118, 3.873e-3
-1.119, 3.873e-3
-1.120, 3.869e-3
-1.121, 3.866e-3
-1.122, 3.863e-3
-1.123, 3.860e-3
-1.124, 3.860e-3
-1.125, 3.860e-3
-1.126, 3.863e-3
-1.127, 3.869e-3
-1.128, 3.873e-3
-1.129, 3.882e-3
-1.130, 3.882e-3
-1.131, 3.885e-3
-1.132, 3.885e-3
-1.133, 3.879e-3
-1.134, 3.876e-3
-1.135, 3.873e-3
-1.136, 3.866e-3
-1.137, 3.863e-3
-1.138, 3.863e-3
-1.139, 3.863e-3
-1.140, 3.869e-3
-1.141, 3.873e-3
-1.142, 3.882e-3
-1.143, 3.885e-3
-1.144, 3.888e-3
-1.145, 3.888e-3
-1.146, 3.888e-3
-1.147, 3.885e-3
-1.148, 3.882e-3
-1.149, 3.873e-3
-1.150, 3.873e-3
-1.151, 3.869e-3
-1.152, 3.873e-3
-1.153, 3.876e-3
-1.154, 3.879e-3
-1.155, 3.885e-3
-1.156, 3.891e-3
-1.157, 3.894e-3
-1.158, 3.900e-3
-1.159, 3.897e-3
-1.160, 3.897e-3
-1.161, 3.897e-3
-1.162, 3.891e-3
-1.163, 3.891e-3
-1.164, 3.891e-3
-1.165, 3.891e-3
-1.166, 3.894e-3
-1.167, 3.900e-3
-1.168, 3.906e-3
-1.169, 3.916e-3
-1.170, 3.922e-3
-1.171, 3.925e-3
-1.172, 3.925e-3
-1.173, 3.919e-3
-1.174, 3.913e-3
-1.175, 3.903e-3
-1.176, 3.894e-3
-1.177, 3.891e-3
-1.178, 3.885e-3
-1.179, 3.888e-3
-1.180, 3.891e-3
-1.181, 3.894e-3
-1.182, 3.903e-3
-1.183, 3.906e-3
-1.184, 3.913e-3
-1.185, 3.916e-3
-1.186, 3.913e-3
-1.187, 3.910e-3
-1.188, 3.910e-3
-1.189, 3.910e-3
-1.190, 3.913e-3
-1.191, 3.913e-3
-1.192, 3.919e-3
-1.193, 3.931e-3
-1.194, 3.937e-3
-1.195, 3.943e-3
-1.196, 3.953e-3
-1.197, 3.956e-3
-1.198, 3.965e-3
-1.199, 3.968e-3
-1.200, 3.971e-3
-1.201, 3.977e-3
-1.202, 3.980e-3
-1.203, 3.987e-3
-1.204, 3.993e-3
-1.205, 3.999e-3
-1.206, 4.011e-3
-1.207, 4.021e-3
-1.208, 4.030e-3
-1.209, 4.039e-3
-1.210, 4.045e-3
-1.211, 4.051e-3
-1.212, 4.051e-3
-1.213, 4.051e-3
-1.214, 4.048e-3
-1.215, 4.045e-3
-1.216, 4.039e-3
-1.217, 4.039e-3
-1.218, 4.036e-3
-1.219, 4.036e-3
-1.220, 4.036e-3
-1.221, 4.036e-3
-1.222, 4.036e-3
-1.223, 4.036e-3
-1.224, 4.030e-3
-1.225, 4.024e-3
-1.226, 4.017e-3
-1.227, 4.011e-3
-1.228, 4.005e-3
-1.229, 3.999e-3
-1.230, 3.996e-3
-1.231, 3.990e-3
-1.232, 3.990e-3
-1.233, 3.993e-3
-1.234, 3.996e-3
-1.235, 3.999e-3
-1.236, 4.005e-3
-1.237, 4.008e-3
-1.238, 4.011e-3
-1.239, 4.011e-3
-1.240, 4.011e-3
-1.241, 4.008e-3
-1.242, 4.002e-3
-1.243, 3.996e-3
-1.244, 3.996e-3
-1.245, 3.996e-3
-1.246, 4.005e-3
-1.247, 4.014e-3
-1.248, 4.021e-3
-1.249, 4.030e-3
-1.250, 4.039e-3
-1.251, 4.048e-3
-1.252, 4.058e-3
-1.253, 4.058e-3
-1.254, 4.058e-3
-1.255, 4.058e-3
-1.256, 4.054e-3
-1.257, 4.054e-3
-1.258, 4.054e-3
-1.259, 4.061e-3
-1.260, 4.067e-3
-1.261, 4.073e-3
-1.262, 4.085e-3
-1.263, 4.091e-3
-1.264, 4.101e-3
-1.265, 4.104e-3
-1.266, 4.107e-3
-1.267, 4.107e-3
-1.268, 4.107e-3
-1.269, 4.104e-3
-1.270, 4.107e-3
-1.271, 4.107e-3
-1.272, 4.113e-3
-1.273, 4.122e-3
-1.274, 4.128e-3
-1.275, 4.141e-3
-1.276, 4.150e-3
-1.277, 4.156e-3
-1.278, 4.165e-3
-1.279, 4.169e-3
-1.280, 4.172e-3
-1.281, 4.175e-3
-1.282, 4.175e-3
-1.283, 4.178e-3
-1.284, 4.181e-3
-1.285, 4.184e-3
-1.286, 4.193e-3
-1.287, 4.202e-3
-1.288, 4.212e-3
-1.289, 4.227e-3
-1.290, 4.239e-3
-1.291, 4.252e-3
-1.292, 4.258e-3
-1.293, 4.264e-3
-1.294, 4.270e-3
-1.295, 4.273e-3
-1.296, 4.276e-3
-1.297, 4.286e-3
-1.298, 4.292e-3
-1.299, 4.304e-3
-1.300, 4.323e-3
-1.301, 4.338e-3
-1.302, 4.360e-3
-1.303, 4.375e-3
-1.304, 4.387e-3
-1.305, 4.400e-3
-1.306, 4.406e-3
-1.307, 4.415e-3
-1.308, 4.421e-3
-1.309, 4.424e-3
-1.310, 4.431e-3
-1.311, 4.437e-3
-1.312, 4.449e-3
-1.313, 4.464e-3
-1.314, 4.480e-3
-1.315, 4.495e-3
-1.316, 4.514e-3
-1.317, 4.526e-3
-1.318, 4.542e-3
-1.319, 4.551e-3
-1.320, 4.557e-3
-1.321, 4.566e-3
-1.322, 4.572e-3
-1.323, 4.585e-3
-1.324, 4.597e-3
-1.325, 4.612e-3
-1.326, 4.634e-3
-1.327, 4.656e-3
-1.328, 4.680e-3
-1.329, 4.708e-3
-1.330, 4.727e-3
-1.331, 4.751e-3
-1.332, 4.770e-3
-1.333, 4.785e-3
-1.334, 4.801e-3
-1.335, 4.816e-3
-1.336, 4.831e-3
-1.337, 4.850e-3
-1.338, 4.865e-3
-1.339, 4.887e-3
-1.340, 4.915e-3
-1.341, 4.939e-3
-1.342, 4.967e-3
-1.343, 4.989e-3
-1.344, 5.013e-3
-1.345, 5.035e-3
-1.346, 5.053e-3
-1.347, 5.069e-3
-1.348, 5.087e-3
-1.349, 5.097e-3
-1.350, 5.118e-3
-1.351, 5.137e-3
-1.352, 5.161e-3
-1.353, 5.189e-3
-1.354, 5.217e-3
-1.355, 5.248e-3
-1.356, 5.282e-3
-1.357, 5.309e-3
-1.358, 5.340e-3
-1.359, 5.368e-3
-1.360, 5.396e-3
-1.361, 5.423e-3
-1.362, 5.451e-3
-1.363, 5.482e-3
-1.364, 5.516e-3
-1.365, 5.550e-3
-1.366, 5.587e-3
-1.367, 5.627e-3
-1.368, 5.667e-3
-1.369, 5.710e-3
-1.370, 5.747e-3
-1.371, 5.787e-3
-1.372, 5.824e-3
-1.373, 5.858e-3
-1.374, 5.892e-3
-1.375, 5.926e-3
-1.376, 5.954e-3
-1.377, 5.991e-3
-1.378, 6.028e-3
-1.379, 6.065e-3
-1.380, 6.105e-3
-1.381, 6.148e-3
-1.382, 6.191e-3
-1.383, 6.237e-3
-1.384, 6.280e-3
-1.385, 6.324e-3
-1.386, 6.364e-3
-1.387, 6.404e-3
-1.388, 6.447e-3
-1.389, 6.478e-3
-1.390, 6.518e-3
-1.391, 6.555e-3
-1.392, 6.598e-3
-1.393, 6.644e-3
-1.394, 6.694e-3
-1.395, 6.743e-3
-1.396, 6.795e-3
-1.397, 6.845e-3
-1.398, 6.897e-3
-1.399, 6.949e-3
-1.400, 6.900e-3
-1.399, 6.684e-3
-1.398, 6.478e-3
-1.397, 6.280e-3
-1.396, 6.092e-3
-1.395, 5.917e-3
-1.394, 5.750e-3
-1.393, 5.590e-3
-1.392, 5.442e-3
-1.391, 5.294e-3
-1.390, 5.152e-3
-1.389, 5.016e-3
-1.388, 4.881e-3
-1.387, 4.742e-3
-1.386, 4.612e-3
-1.385, 4.486e-3
-1.384, 4.366e-3
-1.383, 4.249e-3
-1.382, 4.135e-3
-1.381, 4.030e-3
-1.380, 3.928e-3
-1.379, 3.829e-3
-1.378, 3.734e-3
-1.377, 3.635e-3
-1.376, 3.540e-3
-1.375, 3.438e-3
-1.374, 3.339e-3
-1.373, 3.237e-3
-1.372, 3.136e-3
-1.371, 3.037e-3
-1.370, 2.941e-3
-1.369, 2.849e-3
-1.368, 2.766e-3
-1.367, 2.679e-3
-1.366, 2.599e-3
-1.365, 2.522e-3
-1.364, 2.445e-3
-1.363, 2.365e-3
-1.362, 2.288e-3
-1.361, 2.208e-3
-1.360, 2.128e-3
-1.359, 2.044e-3
-1.358, 1.964e-3
-1.357, 1.884e-3
-1.356, 1.807e-3
-1.355, 1.736e-3
-1.354, 1.665e-3
-1.353, 1.597e-3
-1.352, 1.536e-3
-1.351, 1.471e-3
-1.350, 1.406e-3
-1.349, 1.344e-3
-1.348, 1.273e-3
-1.347, 1.206e-3
-1.346, 1.141e-3
-1.345, 1.067e-3
-1.344, 9.960e-4
-1.343, 9.282e-4
-1.342, 8.634e-4
-1.341, 8.018e-4
-1.340, 7.401e-4
-1.339, 6.846e-4
-1.338, 6.291e-4
-1.337, 5.705e-4
-1.336, 5.150e-4
-1.335, 4.565e-4
-1.334, 3.948e-4
-1.333, 3.331e-4
-1.332, 2.684e-4
-1.331, 2.067e-4
-1.330, 1.451e-4
-1.329, 8.648e-5
-1.328, 3.099e-5
-1.327, -2.451e-5
-1.326, -7.384e-5
-1.325, -1.232e-4
-1.324, -1.694e-4
-1.323, -2.218e-4
-1.322, -2.712e-4
-1.321, -3.236e-4
-1.320, -3.791e-4
-1.319, -4.346e-4
-1.318, -4.931e-4
-1.317, -5.425e-4
-1.316, -5.980e-4
-1.315, -6.473e-4
-1.314, -6.966e-4
-1.313, -7.429e-4
-1.312, -7.860e-4
-1.311, -8.261e-4
-1.310, -8.724e-4
-1.309, -9.186e-4
-1.308, -9.679e-4
-1.307, -1.017e-3
-1.306, -1.067e-3
-1.305, -1.119e-3
-1.304, -1.165e-3
-1.303, -1.215e-3
-1.302, -1.258e-3
-1.301, -1.298e-3
-1.300, -1.338e-3
-1.299, -1.375e-3
-1.298, -1.412e-3
-1.297, -1.452e-3
-1.296, -1.492e-3
-1.295, -1.535e-3
-1.294, -1.578e-3
-1.293, -1.622e-3
-1.292, -1.671e-3
-1.291, -1.720e-3
-1.290, -1.760e-3
-1.289, -1.803e-3
-1.288, -1.837e-3
-1.287, -1.871e-3
-1.286, -1.905e-3
-1.285, -1.936e-3
-1.284, -1.961e-3
-1.283, -1.988e-3
-1.282, -2.019e-3
-1.281, -2.056e-3
-1.280, -2.096e-3
-1.279, -2.133e-3
-1.278, -2.177e-3
-1.277, -2.210e-3
-1.276, -2.241e-3
-1.275, -2.266e-3
-1.274, -2.294e-3
-1.273, -2.321e-3
-1.272, -2.346e-3
-1.271, -2.362e-3
-1.270, -2.383e-3
-1.269, -2.408e-3
-1.268, -2.442e-3
-1.267, -2.479e-3
-1.266, -2.516e-3
-1.265, -2.553e-3
-1.264, -2.590e-3
-1.263, -2.627e-3
-1.262, -2.664e-3
-1.261, -2.691e-3
-1.260, -2.716e-3
-1.259, -2.741e-3
-1.258, -2.756e-3
-1.257, -2.778e-3
-1.256, -2.796e-3
-1.255, -2.821e-3
-1.254, -2.849e-3
-1.253, -2.876e-3
-1.252, -2.904e-3
-1.251, -2.938e-3
-1.250, -2.966e-3
-1.249, -2.994e-3
-1.248, -3.015e-3
-1.247, -3.031e-3
-1.246, -3.046e-3
-1.245, -3.058e-3
-1.244, -3.071e-3
-1.243, -3.086e-3
-1.242, -3.098e-3
-1.241, -3.117e-3
-1.240, -3.132e-3
-1.239, -3.154e-3
-1.238, -3.172e-3
-1.237, -3.188e-3
-1.236, -3.203e-3
-1.235, -3.212e-3
-1.234, -3.216e-3
-1.233, -3.222e-3
-1.232, -3.225e-3
-1.231, -3.231e-3
-1.230, -3.240e-3
-1.229, -3.249e-3
-1.228, -3.265e-3
-1.227, -3.283e-3
-1.226, -3.302e-3
-1.225, -3.323e-3
-1.224, -3.345e-3
-1.223, -3.367e-3
-1.222, -3.385e-3
-1.221, -3.404e-3
-1.220, -3.422e-3
-1.219, -3.438e-3
-1.218, -3.450e-3
-1.217, -3.462e-3
-1.216, -3.475e-3
-1.215, -3.493e-3
-1.214, -3.508e-3
-1.213, -3.524e-3
-1.212, -3.542e-3
-1.211, -3.561e-3
-1.210, -3.576e-3
-1.209, -3.589e-3
-1.208, -3.595e-3
-1.207, -3.601e-3
-1.206, -3.601e-3
-1.205, -3.601e-3
-1.204, -3.601e-3
-1.203, -3.598e-3
-1.202, -3.601e-3
-1.201, -3.604e-3
-1.200, -3.610e-3
-1.199, -3.619e-3
-1.198, -3.629e-3
-1.197, -3.638e-3
-1.196, -3.647e-3
-1.195, -3.656e-3
-1.194, -3.663e-3
-1.193, -3.672e-3
-1.192, -3.675e-3
-1.191, -3.678e-3
-1.190, -3.684e-3
-1.189, -3.687e-3
-1.188, -3.696e-3
-1.187, -3.712e-3
-1.186, -3.724e-3
-1.185, -3.743e-3
-1.184, -3.758e-3
-1.183, -3.777e-3
-1.182, -3.792e-3
-1.181, -3.804e-3
-1.180, -3.814e-3
-1.179, -3.820e-3
-1.178, -3.820e-3
-1.177, -3.826e-3
-1.176, -3.826e-3
-1.175, -3.829e-3
-1.174, -3.835e-3
-1.173, -3.838e-3
-1.172, -3.844e-3
-1.171, -3.854e-3
-1.170, -3.857e-3
-1.169, -3.863e-3
-1.168, -3.866e-3
-1.167, -3.869e-3
-1.166, -3.866e-3
-1.165, -3.866e-3
-1.164, -3.863e-3
-1.163, -3.860e-3
-1.162, -3.860e-3
-1.161, -3.860e-3
-1.160, -3.863e-3
-1.159, -3.866e-3
-1.158, -3.872e-3
-1.157, -3.875e-3
-1.156, -3.878e-3
-1.155, -3.885e-3
-1.154, -3.885e-3
-1.153, -3.885e-3
-1.152, -3.888e-3
-1.151, -3.885e-3
-1.150, -3.891e-3
-1.149, -3.891e-3
-1.148, -3.900e-3
-1.147, -3.906e-3
-1.146, -3.915e-3
-1.145, -3.925e-3
-1.144, -3.934e-3
-1.143, -3.940e-3
-1.142, -3.946e-3
-1.141, -3.949e-3
-1.140, -3.949e-3
-1.139, -3.946e-3
-1.138, -3.943e-3
-1.137, -3.943e-3
-1.136, -3.940e-3
-1.135, -3.940e-3
-1.134, -3.943e-3
-1.133, -3.946e-3
-1.132, -3.949e-3
-1.131, -3.955e-3
-1.130, -3.962e-3
-1.129, -3.965e-3
-1.128, -3.959e-3
-1.127, -3.955e-3
-1.126, -3.952e-3
-1.125, -3.946e-3
-1.124, -3.940e-3
-1.123, -3.931e-3
-1.122, -3.928e-3
-1.121, -3.925e-3
-1.120, -3.928e-3
-1.119, -3.931e-3
-1.118, -3.937e-3
-1.117, -3.943e-3
-1.116, -3.946e-3
-1.115, -3.949e-3
-1.114, -3.949e-3
-1.113, -3.949e-3
-1.112, -3.946e-3
-1.111, -3.943e-3
-1.110, -3.943e-3
-1.109, -3.940e-3
-1.108, -3.946e-3
-1.107, -3.952e-3
-1.106, -3.959e-3
-1.105, -3.968e-3
-1.104, -3.974e-3
-1.103, -3.980e-3
-1.102, -3.983e-3
-1.101, -3.983e-3
-1.100, -3.980e-3
-1.099, -3.974e-3
-1.098, -3.968e-3
-1.097, -3.962e-3
-1.096, -3.955e-3
-1.095, -3.952e-3
-1.094, -3.955e-3
-1.093, -3.955e-3
-1.092, -3.962e-3
-1.091, -3.971e-3
-1.090, -3.974e-3
-1.089, -3.980e-3
-1.088, -3.983e-3
-1.087, -3.983e-3
-1.086, -3.980e-3
-1.085, -3.974e-3
-1.084, -3.968e-3
-1.083, -3.962e-3
-1.082, -3.955e-3
-1.081, -3.952e-3
-1.080, -3.952e-3
-1.079, -3.955e-3
-1.078, -3.962e-3
-1.077, -3.962e-3
-1.076, -3.965e-3
-1.075, -3.968e-3
-1.074, -3.965e-3
-1.073, -3.965e-3
-1.072, -3.959e-3
-1.071, -3.955e-3
-1.070, -3.952e-3
-1.069, -3.952e-3
-1.068, -3.959e-3
-1.067, -3.965e-3
-1.066, -3.971e-3
-1.065, -3.980e-3
-1.064, -3.986e-3
-1.063, -3.992e-3
-1.062, -3.999e-3
-1.061, -3.999e-3
-1.060, -3.996e-3
-1.059, -3.989e-3
-1.058, -3.986e-3
-1.057, -3.983e-3
-1.056, -3.980e-3
-1.055, -3.983e-3
-1.054, -3.986e-3
-1.053, -3.992e-3
-1.052, -3.999e-3
-1.051, -4.005e-3
-1.050, -4.011e-3
-1.049, -4.014e-3
-1.048, -4.014e-3
-1.047, -4.011e-3
-1.046, -4.008e-3
-1.045, -4.005e-3
-1.044, -4.002e-3
-1.043, -3.999e-3
-1.042, -3.999e-3
-1.041, -3.999e-3
-1.040, -4.005e-3
-1.039, -4.008e-3
-1.038, -4.017e-3
-1.037, -4.020e-3
-1.036, -4.026e-3
-1.035, -4.026e-3
-1.034, -4.026e-3
-1.033, -4.026e-3
-1.032, -4.023e-3
-1.031, -4.026e-3
-1.030, -4.026e-3
-1.029, -4.026e-3
-1.028, -4.036e-3
-1.027, -4.045e-3
-1.026, -4.051e-3
-1.025, -4.063e-3
-1.024, -4.073e-3
-1.023, -4.076e-3
-1.022, -4.085e-3
-1.021, -4.088e-3
-1.020, -4.094e-3
-1.019, -4.097e-3
-1.018, -4.094e-3
-1.017, -4.097e-3
-1.016, -4.097e-3
-1.015, -4.103e-3
-1.014, -4.110e-3
-1.013, -4.116e-3
-1.012, -4.122e-3
-1.011, -4.134e-3
-1.010, -4.140e-3
-1.009, -4.147e-3
-1.008, -4.147e-3
-1.007, -4.147e-3
-1.006, -4.150e-3
-1.005, -4.147e-3
-1.004, -4.150e-3
-1.003, -4.150e-3
-1.002, -4.150e-3
-1.001, -4.156e-3
