Potential V vs RHE, Current mA cm-2
0.013299999999999867,-0.8745745255765657
0.012299999999999978,-4.364384360083638
0.011299999999999866,-7.4173313451923875
0.010299999999999976,-10.340124890713554
0.009299999999999864,-13.13135028534727
0.008299999999999974,-15.660854089505953
0.007299999999999862,-18.009274847281915
0.006299999999999972,-20.371842718056527
0.00529999999999986,-22.592939458844636
0.0042999999999999705,-24.686712182644893
0.0032999999999998586,-26.738043567449193
0.0022999999999999687,-28.662050935265643
0.0012999999999998568,-30.571911190083444
0.00029999999999996696,-32.368594540912035
-0.000700000000000145,-34.10868943974604
-0.0017000000000000348,-35.679018982596226
-0.0027000000000001467,-37.291789864442364
-0.0037000000000000366,-38.734795390304704
-0.0047000000000001485,-40.03632978618054
-0.005700000000000038,-41.352011295055014
-0.00670000000000015,-42.568663012938956
-0.00770000000000004,-43.657990713835034
-0.008700000000000152,-44.84634820572166
-0.009700000000000042,-45.97811724561369
-0.010700000000000154,-47.067444946509774
-0.011700000000000044,-48.1992139864018
-0.012700000000000156,-49.24610034830193
-0.013700000000000045,-50.2505453712061
-0.014700000000000157,-51.25499039411028
-0.015700000000000047,-52.2169940780185
-0.01670000000000016,-53.12240930993213
-0.01770000000000005,-53.999530315848446
-0.01870000000000016,-54.791768643772876
-0.01970000000000005,-55.527418519702685
-0.020700000000000163,-56.26306839563251
-0.021700000000000053,-56.927982706569075
-0.022700000000000164,-57.53630856551105
-0.023700000000000054,-58.18707576344896
-0.024700000000000166,-58.83784296138688
-0.025700000000000056,-59.44616882032884
-0.026700000000000168,-60.11108313126541
-0.027700000000000058,-60.761850329203334
-0.02870000000000017,-61.37017618814529
-0.02970000000000006,-61.97850204708726
-0.03070000000000017,-62.64341635802381
-0.03170000000000006,-63.20930087796983
-0.03270000000000017,-63.77518539791585
-0.03370000000000006,-64.29862857886593
-0.034700000000000175,-64.72304196882543
-0.035700000000000065,-65.16160247178358
-0.03670000000000018,-65.60016297474175
-0.03770000000000007,-65.95384079970802
-0.03870000000000018,-66.43484264166212
-0.03970000000000007,-66.77437335362974
-0.04070000000000018,-67.21293385658788
-0.04170000000000007,-67.693935698542
-0.04270000000000018,-68.13249620150016
-0.04370000000000007,-68.61349804345427
-0.044700000000000184,-69.0096172074165
-0.045700000000000074,-69.53306038836655
-0.046700000000000186,-69.91503243933012
-0.047700000000000076,-70.31115160329232
-0.04870000000000019,-70.62238808926263
-0.04970000000000008,-70.91947746223428
-0.05070000000000019,-71.27315528720055
-0.05170000000000008,-71.52780332117625
-0.05270000000000019,-71.75415712915466
-0.05370000000000008,-72.00880516313036
-0.05470000000000019,-72.32004164910067
-0.05570000000000008,-72.57468968307639
-0.056700000000000195,-72.8859261690467
-0.057700000000000085,-73.23960399401295
-0.058700000000000196,-73.53669336698461
-0.059700000000000086,-73.89037119195086
-0.0607000000000002,-74.24404901691713
-0.06170000000000009,-74.54113838988879
-0.0627000000000002,-74.89481621485504
-0.06370000000000009,-75.06458157083884
-0.0647000000000002,-75.29093537881725
-0.06570000000000009,-75.46070073480107
-0.0667000000000002,-75.63046609078486
-0.0677000000000001,-75.77193722077136
-0.0687000000000002,-75.94170257675518
-0.0697000000000001,-76.11146793273898
-0.07070000000000021,-76.29538040172143
-0.0717000000000001,-76.55002843569714
-0.07270000000000021,-76.7622351306769
-0.0737000000000001,-77.03103027765125
-0.07470000000000021,-77.243236972631
-0.0757000000000001,-77.55447345860131
-0.07670000000000021,-77.7242388145851
-0.0777000000000001,-77.95059262256353
-0.07870000000000021,-78.07791663955136
-0.0797000000000001,-78.16279931754329
-0.08070000000000022,-78.33256467352709
-0.0817000000000001,-78.43159446451764
-0.08270000000000022,-78.47403580351359
-0.08370000000000011,-78.64380115949739
-0.08470000000000022,-78.77112517648524
-0.08570000000000011,-78.91259630647174
-0.08670000000000022,-79.08236166245555
-0.08770000000000011,-79.25212701843935
-0.08870000000000022,-79.47848082641775
-0.08970000000000011,-79.64824618240156
-0.09070000000000022,-79.81801153838538
-0.09170000000000011,-80.00192400736783
-0.09270000000000023,-80.17168936335163
-0.09370000000000012,-80.25657204134353
-0.09470000000000023,-80.34145471933543
-0.09570000000000012,-80.42633739732734
-0.09670000000000023,-80.52536718831789
-0.09770000000000012,-80.52536718831789
-0.09870000000000023,-80.61024986630979
-0.09970000000000012,-80.73757388329766
-0.10070000000000023,-80.82245656128954
-0.10170000000000012,-80.90733923928146
-0.10270000000000024,-81.09125170826391
-0.10370000000000013,-81.26101706424771
-0.10470000000000024,-81.43078242023151
-0.10570000000000013,-81.65713622820991
-0.10670000000000024,-81.69957756720586
-0.10770000000000013,-81.91178426218562
-0.10870000000000024,-81.95422560118158
-0.10970000000000013,-81.99666694017753
-0.11070000000000024,-82.09569673116808
-0.11170000000000013,-82.13813807016405
-0.11270000000000002,-82.18057940915998
-0.11370000000000013,-82.26546208715187
-0.11470000000000002,-82.35034476514379
-0.11570000000000014,-82.43522744313569
-0.11670000000000003,-82.52011012112759
-0.11770000000000014,-82.70402259011003
-0.11870000000000003,-82.8313466070979
-0.11970000000000014,-83.0011119630817
-0.12070000000000003,-83.18502443206415
-0.12170000000000014,-83.31234844905201
-0.12270000000000003,-83.43967246603985
-0.12370000000000014,-83.48211380503581
-0.12470000000000003,-83.56699648302772
-0.12570000000000014,-83.60943782202366
-0.12670000000000003,-83.66602627401826
-0.12770000000000015,-83.66602627401826
-0.12870000000000004,-83.75090895201016
-0.12970000000000015,-83.83579163000208
-0.13070000000000004,-83.87823296899803
-0.13170000000000015,-84.04799832498183
-0.13270000000000004,-84.13288100297372
-0.13370000000000015,-84.35923481095215
-0.13470000000000004,-84.48655882793999
-0.13570000000000015,-84.61388284492786
-0.13670000000000004,-84.75535397491434
-0.13770000000000016,-84.8826779919022
-0.13870000000000005,-84.96756066989411
-0.13970000000000016,-85.01000200889004
-0.14070000000000005,-85.01000200889004
-0.14170000000000016,-85.052443347886
-0.14270000000000005,-85.052443347886
-0.14370000000000016,-85.09488468688197
-0.14470000000000005,-85.17976736487385
-0.14570000000000016,-85.23635581686847
-0.14670000000000005,-85.36367983385631
-0.14770000000000016,-85.49100385084417
-0.14870000000000005,-85.57588652883607
-0.14970000000000017,-85.75979899781852
-0.15070000000000006,-85.92956435380233
-0.15170000000000017,-86.01444703179425
-0.15270000000000006,-86.14177104878208
-0.15370000000000017,-86.18421238777805
-0.15470000000000006,-86.18421238777805
-0.15570000000000017,-86.28324217876859
-0.15670000000000006,-86.28324217876859
-0.15770000000000017,-86.28324217876859
-0.15870000000000006,-86.32568351776455
-0.15970000000000018,-86.32568351776455
-0.16070000000000007,-86.41056619575643
-0.16170000000000018,-86.5378902127443
-0.16270000000000007,-86.66521422973216
-0.16370000000000018,-86.84912669871461
-0.16470000000000007,-87.01889205469841
-0.16570000000000018,-87.18865741068221
-0.16670000000000007,-87.33012854066871
-0.16770000000000018,-87.41501121866061
-0.16870000000000007,-87.49989389665252
-0.16970000000000018,-87.49989389665252
-0.17070000000000007,-87.58477657464444
-0.17170000000000019,-87.62721791364037
-0.17270000000000008,-87.62721791364037
-0.1737000000000002,-87.66965925263632
-0.17470000000000008,-87.79698326962418
-0.1757000000000002,-87.85357172161878
-0.17670000000000008,-88.02333707760259
-0.1777000000000002,-88.15066109459043
-0.17870000000000008,-88.32042645057423
-0.1797000000000002,-88.5043389195567
-0.18070000000000008,-88.6741042755405
-0.1817000000000002,-88.7589869535324
-0.18270000000000008,-88.94289942251486
-0.1837000000000002,-88.9853407615108
-0.1847000000000001,-89.07022343950271
-0.1857000000000002,-89.11266477849867
-0.1867000000000001,-89.19754745649055
-0.1877000000000002,-89.23998879548651
-0.1887000000000001,-89.28243013448247
-0.1897000000000002,-89.42390126446898
-0.1907000000000001,-89.46634260346492
-0.1917000000000001,-89.59366662045278
-0.19269999999999998,-89.76343197643658
-0.1937000000000001,-89.89075599342443
-0.19469999999999998,-90.11710980140283
-0.1957000000000001,-90.32931649638259
-0.19669999999999999,-90.47078762636909
-0.1977000000000001,-90.6405529823529
-0.1987,-90.7254356603448
-0.1997000000000001,-90.76787699934074
-0.2007,-90.85275967733266
-0.2017000000000001,-90.93764235532454
-0.2027,-90.99423080731917
-0.2037000000000001,-91.12155482430701
-0.2047,-91.20643750229891
-0.2057000000000001,-91.29132018029082
-0.2067,-91.51767398826922
-0.2077000000000001,-91.64499800525708
-0.2087,-91.85720470023682
-0.2097000000000001,-92.08355850821525
-0.2107,-92.25332386419905
-0.2117000000000001,-92.4655305591788
-0.2127,-92.64944302816124
-0.2137000000000001,-92.7767670451491
-0.2147,-92.90409106213696
-0.2157000000000001,-93.08800353111941
-0.2167,-93.21532754810727
-0.21770000000000012,-93.25776888710321
-0.2187,-93.38509290409107
-0.21970000000000012,-93.55485826007487
-0.2207,-93.65388805106544
-0.22170000000000012,-93.90853608504113
-0.2227,-94.17733123201549
-0.22370000000000012,-94.34709658799929
-0.2247,-94.55930328297906
-0.22570000000000012,-94.8280984299534
-0.2267,-95.04030512493317
-0.22770000000000012,-95.30910027190752
-0.22870000000000001,-95.43642428889537
-0.22970000000000013,-95.52130696688728
-0.23070000000000002,-95.69107232287108
-0.23170000000000013,-95.83254345285758
-0.23270000000000002,-95.91742613084948
-0.23370000000000013,-96.0871914868333
-0.23470000000000002,-96.27110395581576
-0.23570000000000013,-96.44086931179956
-0.23670000000000002,-96.65307600677932
-0.2376999999999999,-96.92187115375367
-0.23870000000000002,-97.17651918772938
-0.2396999999999999,-97.40287299570777
-0.24070000000000003,-97.69996236867944
-0.24169999999999991,-97.92631617665783
-0.24270000000000003,-98.18096421063355
-0.24369999999999992,-98.40731801861195
-0.24470000000000003,-98.5346420355998
-0.24569999999999992,-98.7044073915836
-0.24670000000000003,-98.88831986056607
-0.24769999999999992,-99.01564387755391
-0.24870000000000003,-99.18540923353773
-0.24969999999999992,-99.41176304151614
-0.25070000000000003,-99.58152839749994
-0.2516999999999999,-99.87861777047159
-0.25270000000000004,-100.14741291744595
-0.2536999999999999,-100.40206095142165
-0.25470000000000004,-100.75573877638791
-0.2556999999999999,-101.10941660135417
-0.25670000000000004,-101.40650597432582
-0.25769999999999993,-101.71774246029614
-0.25870000000000004,-101.92994915527588
-0.25969999999999993,-102.19874430225026
-0.26070000000000004,-102.41095099723
-0.26169999999999993,-102.63730480520842
-0.26270000000000004,-102.84951150018817
-0.26369999999999993,-103.11830664716253
-0.26470000000000005,-103.41539602013418
-0.26569999999999994,-103.7266325061045
-0.26670000000000005,-104.12275167006669
-0.26769999999999994,-104.50472372103027
-0.26870000000000005,-104.90084288499246
-0.26969999999999994,-105.25452070995874
-0.27070000000000005,-105.69308121291688
-0.27169999999999994,-105.99017058588855
-0.27270000000000005,-106.4287310888467
-0.27369999999999994,-106.73996757481702
-0.27470000000000006,-106.99461560879273
-0.27569999999999995,-107.34829343375898
-0.27670000000000006,-107.6029414677347
-0.27769999999999995,-107.914177953705
-0.27870000000000006,-108.2537086656726
-0.27969999999999995,-108.60738649063886
-0.28070000000000006,-109.00350565460108
-0.28169999999999995,-109.44206615755924
-0.28270000000000006,-109.8806266605174
-0.28369999999999995,-110.3050400504769
-0.28470000000000006,-110.78604189243102
-0.28569999999999995,-111.35192641237703
-0.28670000000000007,-111.74804557633925
-0.28769999999999996,-112.22904741829338
-0.28870000000000007,-112.71004926024747
-0.28969999999999996,-113.06372708521374
-0.29070000000000007,-113.48814047517324
-0.29169999999999996,-113.88425963913545
-0.29270000000000007,-114.28037880309766
-0.29369999999999996,-114.71893930605583
-0.2947000000000001,-115.19994114800993
-0.29569999999999996,-115.5819131989735
-0.2967000000000001,-116.10535637992358
-0.29769999999999996,-116.67124089986959
-0.2987000000000001,-117.25127253281424
-0.29969999999999997,-117.81715705276027
-0.3007000000000001,-118.42548291170223
-0.30169999999999997,-118.94892609265229
-0.3027000000000001,-119.55725195159425
-0.30369999999999997,-120.08069513254432
-0.3047000000000001,-120.60413831349437
-0.30569999999999997,-121.12758149444444
-0.3067000000000001,-121.65102467539451
-0.3077,-122.21690919534053
-0.3087000000000001,-122.74035237629057
-0.3097,-123.34867823523254
-0.3107000000000001,-123.95700409417452
-0.3117,-124.62191840511109
-0.3127000000000001,-125.31512694204494
-0.3137,-125.96589413998288
-0.3147000000000001,-126.71569112891132
-0.3157,-127.45134100484115
-0.3167000000000001,-128.144549541775
-0.3177,-128.89434653070347
-0.3187000000000001,-129.58755506763737
-0.3197,-130.19588092657932
-0.3207000000000001,-130.9456779155078
-0.3217,-131.5964451134457
-0.3227000000000001,-132.20477097238768
-0.3237,-132.89797950932152
-0.3247000000000001,-133.64777649825
-0.3257,-134.38342637417986
-0.3267000000000001,-135.2181060411002
-0.3277,-135.99619725602597
-0.3287000000000001,-136.83087692294635
-0.3297,-137.70799792886265
-0.3307000000000001,-138.57097182178035
-0.3317,-139.44809282769666
-0.3327000000000001,-140.325213833613
-0.3337,-141.10330504853877
-0.3347000000000001,-141.89554337646317
-0.3357,-142.7443701563822
-0.3367000000000001,-143.5931969363012
-0.3377,-144.44202371622026
-0.3387000000000001,-145.29085049613926
-0.3397,-146.1396772760583
-0.3407000000000001,-146.9885040559773
-0.3417,-147.97880196588284
-0.3427000000000001,-148.96909987578834
-0.3437,-149.95939778569388
-0.3447000000000001,-150.94969569559944
-0.3457,-151.93999360550492
-0.3467000000000001,-152.93029151541046
-0.3477,-154.0620605553025
-0.3487000000000001,-155.05235846520802
-0.3497,-156.04265637511355
-0.3507000000000001,-157.03295428501906
-0.3517,-158.02325219492457
-0.3527000000000001,-159.01355010483013
-0.3537,-160.00384801473567
-0.3547000000000001,-161.1356170546277
-0.3557,-162.2673860945197
-0.35670000000000013,-163.39915513441173
-0.3577,-164.53092417430375
-0.35870000000000013,-165.8041643441823
-0.3597,-166.93593338407433
-0.36070000000000013,-168.20917355395284
-0.3617,-169.3409425938449
-0.3626999999999999,-170.61418276372342
-0.3637,-171.88742293360195
-0.3646999999999999,-173.01919197349397
-0.3657,-174.2924321433725
-0.3666999999999999,-175.42420118326456
-0.3677,-176.55597022315658
-0.3686999999999999,-177.82921039303508
-0.36970000000000003,-179.10245056291362
-0.3706999999999999,-180.37569073279218
-0.37170000000000003,-181.64893090267074
-0.3726999999999999,-183.06364220253573
-0.37370000000000003,-184.47835350240078
-0.3746999999999999,-185.89306480226583
-0.37570000000000003,-187.16630497214436
-0.3766999999999999,-188.58101627200938
-0.37770000000000004,-189.99572757187443
-0.3786999999999999,-191.41043887173947
-0.37970000000000004,-192.683679041618
-0.3806999999999999,-194.09839034148303
-0.38170000000000004,-195.37163051136156
-0.38269999999999993,-196.7863418112266
-0.38370000000000004,-198.05958198110514
-0.38469999999999993,-199.61576441095667
-0.38570000000000004,-200.88900458083523
-0.38669999999999993,-199.89870667092967
-0.38570000000000004,-194.66427486142905
-0.38469999999999993,-189.71278531190143
-0.38370000000000004,-185.1857091523333
-0.38269999999999993,-180.94157525273818
-0.38170000000000004,-176.8389124831296
-0.3806999999999999,-172.87772084350746
-0.37970000000000004,-169.19947146385837
-0.3786999999999999,-165.5212220842093
-0.37770000000000004,-161.9844438345467
-0.3766999999999999,-158.5891367148706
-0.37570000000000003,-155.33530072518104
-0.3746999999999999,-152.22293586547795
-0.37370000000000003,-149.1105710057749
-0.3726999999999999,-146.1396772760583
-0.37170000000000003,-143.3102546763282
-0.3706999999999999,-140.62230320658463
-0.36970000000000003,-137.9626459628384
-0.3686999999999999,-135.26054738009617
-0.3677,-132.72821415333775
-0.3666999999999999,-130.1534395875834
-0.3657,-127.76257749081147
-0.3646999999999999,-125.23024426405304
-0.3637,-122.74035237629057
-0.3626999999999999,-120.33534316652002
-0.3617,-117.94448106974811
-0.36070000000000013,-115.4970305209816
-0.3597,-113.14860976320564
-0.35870000000000013,-110.87092457042293
-0.3577,-108.56494515164292
-0.35670000000000013,-106.4287310888467
-0.3557,-104.33495836504645
-0.3547000000000001,-102.19874430225026
-0.3537,-100.10497157844999
-0.3527000000000001,-98.05364019364569
-0.3517,-96.00230880884139
-0.3507000000000001,-93.95097742403709
-0.3497,-91.89964603923279
-0.3487000000000001,-89.80587331543254
-0.3477,-87.79698326962418
-0.3467000000000001,-85.70321054582392
-0.3457,-83.66602627401826
-0.3447000000000001,-81.69957756720586
-0.3437,-79.73312886039348
-0.3427000000000001,-77.76668015358106
-0.3417,-75.94170257675518
-0.3407000000000001,-74.10257788693062
-0.3397,-72.23515897110877
-0.3387000000000001,-70.48091695927613
-0.3377,-68.74082206044213
-0.3367000000000001,-66.91584448361623
-0.3357,-65.16160247178358
-0.3347000000000001,-63.3366248949577
-0.3337,-61.49750020513315
-0.3327000000000001,-59.757405306299155
-0.3317,-57.93242772947325
-0.3307000000000001,-56.13574437864466
-0.3297,-54.39564947981066
-0.3287000000000001,-52.69799591997262
-0.3277,-50.98619524713592
-0.3267000000000001,-49.373424365289786
-0.3257,-47.76065348344364
-0.3247000000000001,-46.2327652795894
-0.3237,-44.66243573673921
-0.3227000000000001,-43.134547532884966
-0.3217,-41.56421799003478
-0.3207000000000001,-40.03632978618054
-0.3197,-38.46600024333035
-0.3187000000000001,-36.8532293614842
-0.3177,-35.32534115762997
-0.3167000000000001,-33.755011614779775
-0.3157,-32.14224073293363
-0.3147000000000001,-30.614352529079397
-0.3137,-29.14305277721976
-0.3127000000000001,-27.65760591236147
-0.3117,-26.257041725495082
-0.3107000000000001,-24.814036199632742
-0.3097,-23.51250180375691
-0.3087000000000001,-22.111937616890522
-0.3077,-20.76796188201874
-0.3067000000000001,-19.409839034148305
-0.30569999999999997,-18.10830463827247
-0.3047000000000001,-16.70774045140608
-0.30369999999999997,-15.307176264539699
-0.3027000000000001,-13.960371107068182
-0.30169999999999997,-12.56405105410139
-0.3007000000000001,-11.123874950838783
-0.29969999999999997,-9.81668170976349
-0.2987000000000001,-8.508073757388331
-0.29769999999999996,-7.199465805013171
-0.2967000000000001,-5.977155241929781
-0.29569999999999996,-4.756259390146253
-0.2947000000000001,-3.579219588658543
-0.29369999999999996,-2.4007650758709675
-0.29270000000000007,-1.2671569112891135
-0.29169999999999996,-0.04582249900262853
-0.29070000000000007,1.0881959318561862
-0.28969999999999996,2.2663675023837886
-0.28870000000000007,3.5311194044631313
-0.28769999999999996,4.664303155655026
-0.28670000000000007,5.929055057734368
-0.28569999999999995,7.15136562081776
-0.28470000000000006,8.284549372009655
-0.28369999999999995,9.419147834501414
-0.28270000000000006,10.553746296993173
-0.28169999999999995,11.643073997889251
-0.28070000000000006,12.68996035978938
-0.27969999999999995,13.65054933239774
-0.27870000000000006,14.741291744593681
-0.27769999999999995,15.70329542850191
-0.27670000000000006,16.70774045140608
-0.27569999999999995,17.71218547431026
-0.27470000000000006,18.702483384215785
-0.27369999999999994,19.805958198110513
-0.27270000000000005,20.79625610801604
-0.27169999999999994,21.899730921910766
-0.27070000000000005,22.989058622806844
-0.26969999999999994,23.93691519371642
-0.26870000000000005,24.898918877624645
-0.26769999999999994,25.90336390052882
-0.26670000000000005,26.86536758443705
-0.26569999999999994,27.742488590353368
-0.26470000000000005,28.60546248327104
