Potential V vs RHE, Current mA cm-2
0.013299999999999867,-0.6128529351015338
0.012299999999999978,-3.927238568425342
0.011299999999999866,-6.981600264833956
0.010299999999999976,-9.81668170976349
0.009299999999999864,-12.520195003805576
0.008299999999999974,-15.05252823056399
0.007299999999999862,-17.316066310348052
0.006299999999999972,-19.49472171214021
0.00529999999999986,-21.461170418952605
0.0042999999999999705,-23.300295108777156
0.0032999999999998586,-24.997948668615198
0.0022999999999999687,-26.568278211465387
0.0012999999999998568,-28.09616641531963
0.00029999999999996696,-29.525024828183312
-0.000700000000000145,-31.010471693041605
-0.0017000000000000348,-32.368594540912035
-0.0027000000000001467,-33.712570275783825
-0.0037000000000000366,-35.07069312365426
-0.0047000000000001485,-36.20246216354629
-0.005700000000000038,-37.334231203438314
-0.00670000000000015,-38.29623488734655
-0.00770000000000004,-39.258238571254765
-0.008700000000000152,-40.092918238175145
-0.009700000000000042,-40.95589213109281
-0.010700000000000154,-41.83301313700913
-0.011700000000000044,-42.653545690930855
-0.012700000000000156,-43.48822535785123
-0.013700000000000045,-44.28046368577565
-0.014700000000000157,-45.10099623969737
-0.015700000000000047,-45.85079322862584
-0.01670000000000016,-46.544001765559706
-0.01770000000000005,-47.19476896349763
-0.01870000000000016,-47.76065348344364
-0.01970000000000005,-48.2840966643937
-0.020700000000000163,-48.80753984534376
-0.021700000000000053,-49.28854168729788
-0.022700000000000164,-49.81198486824794
-0.023700000000000054,-50.335428049198
-0.024700000000000166,-50.85887123014807
-0.025700000000000056,-51.424755750094086
-0.026700000000000168,-52.033081609036046
-0.027700000000000058,-52.514083450990164
-0.02870000000000017,-52.995085292944275
-0.02970000000000006,-53.348763117910536
-0.03070000000000017,-53.74488228187274
-0.03170000000000006,-54.0419716548444
-0.03270000000000017,-54.31076680181876
-0.03370000000000006,-54.65029751378637
-0.034700000000000175,-54.961533999756675
-0.035700000000000065,-55.357653163718886
-0.03670000000000018,-55.73962521468245
-0.03770000000000007,-56.13574437864466
-0.03870000000000018,-56.57430488160282
-0.03970000000000007,-56.88554136757313
-0.04070000000000018,-57.182630740544774
-0.04170000000000007,-57.408984548523186
-0.04270000000000018,-57.57874990450699
-0.04370000000000007,-57.7485152604908
-0.044700000000000184,-57.93242772947325
-0.045700000000000074,-58.14463442445301
-0.046700000000000186,-58.39928245842871
-0.047700000000000076,-58.71051894439902
-0.04870000000000019,-58.97931409137338
-0.04970000000000008,-59.27640346434504
-0.05070000000000019,-59.54519861131939
-0.05170000000000008,-59.7998466452951
-0.05270000000000019,-60.02620045327351
-0.05370000000000008,-60.11108313126541
-0.05470000000000019,-60.28084848724921
-0.05570000000000008,-60.32328982624517
-0.056700000000000195,-60.49305518222897
-0.057700000000000085,-60.63452631221547
-0.058700000000000196,-60.84673300719523
-0.059700000000000086,-61.07308681517363
-0.0607000000000002,-61.327734849149344
-0.06170000000000009,-61.63897133511965
-0.0627000000000002,-61.80873669110345
-0.06370000000000009,-61.97850204708726
-0.0647000000000002,-62.11997317707376
-0.06570000000000009,-62.24729719406162
-0.0667000000000002,-62.28973853305756
-0.0677000000000001,-62.28973853305756
-0.0687000000000002,-62.41706255004542
-0.0697000000000001,-62.501945228037314
-0.07070000000000021,-62.72829903601572
-0.0717000000000001,-62.855623053003576
-0.07270000000000021,-63.06782974798333
-0.0737000000000001,-63.29418355596174
-0.07470000000000021,-63.421507572949594
-0.0757000000000001,-63.633714267929356
-0.07670000000000021,-63.633714267929356
-0.0777000000000001,-63.732744058919906
-0.07870000000000021,-63.77518539791585
-0.0797000000000001,-63.860068075907755
-0.08070000000000022,-63.902509414903705
-0.0817000000000001,-64.02983343189156
-0.08270000000000022,-64.15715744887942
-0.08370000000000011,-64.34106991786187
-0.08470000000000022,-64.51083527384567
-0.08570000000000011,-64.68060062982947
-0.08670000000000022,-64.86451309881193
-0.08770000000000011,-64.90695443780788
-0.08870000000000022,-64.94939577680383
-0.08970000000000011,-64.99183711579978
-0.09070000000000022,-64.99183711579978
-0.09170000000000011,-65.03427845479574
-0.09270000000000023,-65.0767197937917
-0.09370000000000012,-65.20404381077954
-0.09470000000000023,-65.34551494076604
-0.09570000000000012,-65.4728389577539
-0.09670000000000023,-65.64260431373769
-0.09770000000000012,-65.76992833072556
-0.09870000000000023,-65.91139946071206
-0.09970000000000012,-65.95384079970802
-0.10070000000000023,-65.95384079970802
-0.10170000000000012,-65.95384079970802
-0.10270000000000024,-65.91139946071206
-0.10370000000000013,-65.95384079970802
-0.10470000000000024,-65.99628213870396
-0.10570000000000013,-66.12360615569182
-0.10670000000000024,-66.20848883368372
-0.10770000000000013,-66.39240130266617
-0.10870000000000024,-66.51972531965401
-0.10970000000000013,-66.60460799764593
-0.11070000000000024,-66.68949067563783
-0.11170000000000013,-66.68949067563783
-0.11270000000000002,-66.68949067563783
-0.11370000000000013,-66.68949067563783
-0.11470000000000002,-66.64704933664189
-0.11570000000000014,-66.68949067563783
-0.11670000000000003,-66.68949067563783
-0.11770000000000014,-66.87340314462028
-0.11870000000000003,-67.00072716160814
-0.11970000000000014,-67.128051178596
-0.12070000000000003,-67.25537519558385
-0.12170000000000014,-67.34025787357575
-0.12270000000000003,-67.39684632557035
-0.12370000000000014,-67.39684632557035
-0.12470000000000003,-67.39684632557035
-0.12570000000000014,-67.39684632557035
-0.12670000000000003,-67.43928766456631
-0.12770000000000015,-67.43928766456631
-0.12870000000000004,-67.52417034255821
-0.12970000000000015,-67.65149435954605
-0.13070000000000004,-67.73637703753796
-0.13170000000000015,-67.96273084551636
-0.13270000000000004,-68.04761352350828
-0.13370000000000015,-68.17493754049613
-0.13470000000000004,-68.21737887949207
-0.13570000000000015,-68.21737887949207
-0.13670000000000004,-68.21737887949207
-0.13770000000000016,-68.17493754049613
-0.13870000000000005,-68.21737887949207
-0.13970000000000016,-68.25982021848802
-0.14070000000000005,-68.38714423547587
-0.14170000000000016,-68.52861536546239
-0.14270000000000005,-68.69838072144618
-0.14370000000000016,-68.82570473843404
-0.14470000000000005,-68.91058741642594
-0.14570000000000016,-69.05205854641244
-0.14670000000000005,-69.05205854641244
-0.14770000000000016,-69.05205854641244
-0.14870000000000005,-69.05205854641244
-0.14970000000000017,-69.05205854641244
-0.15070000000000006,-69.0944998854084
-0.15170000000000017,-69.13694122440434
-0.15270000000000006,-69.26426524139221
-0.15370000000000017,-69.39158925838004
-0.15470000000000006,-69.53306038836655
-0.15570000000000017,-69.6603844053544
-0.15670000000000006,-69.74526708334632
-0.15770000000000017,-69.8301497613382
-0.15870000000000006,-69.87259110033416
-0.15970000000000018,-69.8301497613382
-0.16070000000000007,-69.8301497613382
-0.16170000000000018,-69.87259110033416
-0.16270000000000007,-69.87259110033416
-0.16370000000000018,-70.01406223032066
-0.16470000000000007,-70.14138624730852
-0.16570000000000018,-70.26871026429637
-0.16670000000000007,-70.43847562028017
-0.16770000000000018,-70.53750541127073
-0.16870000000000007,-70.66482942825859
-0.16970000000000018,-70.66482942825859
-0.17070000000000007,-70.66482942825859
-0.17170000000000019,-70.66482942825859
-0.17270000000000008,-70.62238808926263
-0.1737000000000002,-70.66482942825859
-0.17470000000000008,-70.70727076725453
-0.1757000000000002,-70.8345947842424
-0.17670000000000008,-70.96191880123024
-0.1777000000000002,-71.10338993121674
-0.17870000000000008,-71.27315528720055
-0.1797000000000002,-71.35803796519245
-0.18070000000000008,-71.44292064318435
-0.1817000000000002,-71.48536198218031
-0.18270000000000008,-71.52780332117625
-0.1837000000000002,-71.52780332117625
-0.1847000000000001,-71.52780332117625
-0.1857000000000002,-71.58439177317086
-0.1867000000000001,-71.6268331121668
-0.1877000000000002,-71.7965984681506
-0.1887000000000001,-71.92392248513846
-0.1897000000000002,-72.15027629311687
-0.1907000000000001,-72.27760031010472
-0.1917000000000001,-72.40492432709259
-0.19269999999999998,-72.48980700508447
-0.1937000000000001,-72.53224834408043
-0.19469999999999998,-72.57468968307639
-0.1957000000000001,-72.57468968307639
-0.19669999999999999,-72.63127813507097
-0.1977000000000001,-72.67371947406694
-0.1987,-72.80104349105478
-0.1997000000000001,-72.92836750804264
-0.2007,-73.15472131602105
-0.2017000000000001,-73.3669280110008
-0.2027,-73.49425202798865
-0.2037000000000001,-73.6781644969711
-0.2047,-73.76304717496302
-0.2057000000000001,-73.8479298529549
-0.2067,-73.89037119195086
-0.2077000000000001,-73.89037119195086
-0.2087,-74.0176952089387
-0.2097000000000001,-74.10257788693062
-0.2107,-74.28649035591307
-0.2117000000000001,-74.49869705089283
-0.2127,-74.66846240687663
-0.2137000000000001,-74.93725755385098
-0.2147,-75.1070229098348
-0.2157000000000001,-75.37581805680915
-0.2167,-75.46070073480107
-0.21770000000000012,-75.54558341279296
-0.2187,-75.63046609078486
-0.21970000000000012,-75.71534876877676
-0.2207,-75.81437855976732
-0.22170000000000012,-75.94170257675518
-0.2227,-76.15390927173492
-0.22370000000000012,-76.38026307971333
-0.2247,-76.63491111368903
-0.22570000000000012,-76.86126492166746
-0.2267,-77.03103027765125
-0.22770000000000012,-77.20079563363505
-0.22870000000000001,-77.243236972631
-0.22970000000000013,-77.34226676362155
-0.23070000000000002,-77.46959078060941
-0.23170000000000013,-77.55447345860131
-0.23270000000000002,-77.7242388145851
-0.23370000000000013,-77.90815128356756
-0.23470000000000002,-78.16279931754329
-0.23570000000000013,-78.43159446451764
-0.23670000000000002,-78.72868383748929
-0.2376999999999999,-78.99747898446365
-0.23870000000000002,-79.20968567944341
-0.2396999999999999,-79.33700969643127
-0.24070000000000003,-79.56336350440966
-0.24169999999999991,-79.69068752139752
-0.24270000000000003,-79.7755701993894
-0.24369999999999992,-80.00192400736783
-0.24470000000000003,-80.17168936335163
-0.24569999999999992,-80.46877873632329
-0.24670000000000003,-80.7800152222936
-0.24769999999999992,-81.09125170826391
-0.24870000000000003,-81.43078242023151
-0.24969999999999992,-81.69957756720586
-0.25070000000000003,-81.95422560118158
-0.2516999999999999,-82.18057940915998
-0.25270000000000004,-82.39278610413973
-0.2536999999999999,-82.56255146012353
-0.25470000000000004,-82.746463929106
-0.2556999999999999,-83.0011119630817
-0.25670000000000004,-83.26990711005605
-0.25769999999999993,-83.60943782202366
-0.25870000000000004,-83.92067430799398
-0.25969999999999993,-84.35923481095215
-0.26070000000000004,-84.7129126359184
-0.26169999999999993,-85.052443347886
-0.26270000000000004,-85.40612117285227
-0.26369999999999993,-85.61832786783202
-0.26470000000000005,-85.88712301480638
-0.26569999999999994,-86.09932970978613
-0.26670000000000005,-86.41056619575643
-0.26769999999999994,-86.7076555687281
-0.26870000000000005,-87.10377473269031
-0.26969999999999994,-87.45745255765657
-0.27070000000000005,-87.85357172161878
-0.27169999999999994,-88.27798511157829
-0.27270000000000005,-88.71654561453644
-0.27369999999999994,-89.11266477849867
-0.27470000000000006,-89.42390126446898
-0.27569999999999995,-89.80587331543254
-0.27670000000000006,-90.07466846240689
-0.27769999999999995,-90.37175783537855
-0.27870000000000006,-90.7254356603448
-0.27969999999999995,-91.07911348531105
-0.28070000000000006,-91.56011532726518
-0.28169999999999995,-91.98452871722468
-0.28270000000000006,-92.4655305591788
-0.28369999999999995,-92.98897374012887
-0.28470000000000006,-93.42753424308701
-0.28569999999999995,-93.90853608504113
-0.28670000000000007,-94.34709658799929
-0.28769999999999996,-94.7432157519615
-0.28870000000000007,-95.12518780292505
-0.28969999999999996,-95.56374830588322
-0.29070000000000007,-96.00230880884139
-0.29169999999999996,-96.52575198979144
-0.29270000000000007,-97.04919517074151
-0.29369999999999996,-97.61507969068752
-0.2947000000000001,-98.18096421063355
-0.29569999999999996,-98.83173140857146
-0.2967000000000001,-99.35517458952152
-0.29769999999999996,-99.93520622246619
-0.2987000000000001,-100.40206095142165
-0.29969999999999997,-100.92550413237171
-0.3007000000000001,-101.40650597432582
-0.30169999999999997,-101.92994915527588
-0.3027000000000001,-102.5524221272165
-0.30369999999999997,-103.16074798615847
-0.3047000000000001,-103.85395652309235
-0.30569999999999997,-104.50472372103027
-0.3067000000000001,-105.25452070995874
-0.3077,-105.90528790789664
-0.3087000000000001,-106.59849644483052
-0.3097,-107.16438096477653
-0.3107000000000001,-107.8292952757131
-0.3117,-108.39517979565912
-0.3127000000000001,-108.96106431560513
-0.3137,-109.61183151354304
-0.3147000000000001,-110.22015737248502
-0.3157,-111.01239570040943
-0.3167000000000001,-111.74804557633925
-0.3177,-112.58272524325962
-0.3187000000000001,-113.40325779718134
-0.3197,-114.1530547861098
-0.3207000000000001,-114.93114600103557
-0.3217,-115.62435453796945
-0.3227000000000001,-116.37415152689792
-0.3237,-117.06736006383179
-0.3247000000000001,-117.77471571376431
-0.3257,-118.55280692869007
-0.3267000000000001,-119.38748659561045
-0.3277,-120.29290182752408
-0.3287000000000001,-121.17002283344038
-0.3297,-122.17446785634456
-0.3307000000000001,-123.1364715402528
-0.3317,-124.09847522416102
-0.3327000000000001,-124.9614491170787
-0.3337,-125.83857012299501
-0.3347000000000001,-126.71569112891132
-0.3357,-127.53622368283307
-0.3367000000000001,-128.41334468874936
-0.3377,-129.33290703366166
-0.3387000000000001,-130.28076360457123
-0.3397,-131.32764996647134
-0.3407000000000001,-132.37453632837148
-0.3417,-133.52045248126214
-0.3427000000000001,-134.56733884316228
-0.3437,-135.65666654405837
-0.3447000000000001,-136.70355290595847
-0.3457,-137.75043926785864
-0.3467000000000001,-138.7548842907628
-0.3477,-139.74518220066832
-0.3487000000000001,-140.79206856256846
-0.3497,-141.89554337646317
-0.3507000000000001,-143.0273124163552
-0.3517,-144.15908145624724
-0.3527000000000001,-145.43232162612577
-0.3537,-146.7055617960043
-0.3547000000000001,-147.83733083589632
-0.3557,-149.1105710057749
-0.35670000000000013,-150.1008689156804
-0.3577,-151.23263795557244
-0.35870000000000013,-152.36440699546444
-0.3597,-153.49617603535648
-0.36070000000000013,-154.76941620523502
-0.3617,-155.90118524512707
-0.3626999999999999,-157.17442541500557
-0.3637,-158.5891367148706
-0.3646999999999999,-160.00384801473567
-0.3657,-161.2770881846142
-0.3666999999999999,-162.5503283544927
-0.3677,-163.96503965435775
-0.3686999999999999,-165.2382798242363
-0.36970000000000003,-166.51151999411482
-0.3706999999999999,-167.78476016399335
-0.37170000000000003,-169.19947146385837
-0.3726999999999999,-170.47271163373694
-0.37370000000000003,-171.88742293360195
-0.3746999999999999,-173.44360536345349
-0.37570000000000003,-174.85831666331853
-0.3766999999999999,-176.4144990931701
-0.37770000000000004,-177.9706815230216
-0.3786999999999999,-179.52686395287316
-0.37970000000000004,-180.94157525273818
-0.3806999999999999,-182.35628655260325
-0.38170000000000004,-183.77099785246824
-0.38269999999999993,-185.1857091523333
-0.38370000000000004,-186.74189158218485
-0.38469999999999993,-188.15660288204987
-0.38570000000000004,-189.8542564418879
-0.38669999999999993,-189.0054296619689
-0.38570000000000004,-183.91246898245475
-0.38469999999999993,-179.38539282288664
-0.38370000000000004,-175.14125892329156
-0.38269999999999993,-171.18006728366944
-0.38170000000000004,-167.21887564404733
-0.3806999999999999,-163.68209739438475
-0.37970000000000004,-160.14531914472215
-0.3786999999999999,-156.89148315503257
-0.37770000000000004,-153.77911829532948
-0.3766999999999999,-150.66675343562642
-0.37570000000000003,-147.83733083589632
-0.3746999999999999,-145.00790823616626
-0.37370000000000003,-142.4614278964092
-0.3726999999999999,-139.80177065266292
-0.37170000000000003,-137.2694374259045
-0.3706999999999999,-134.69466286015015
-0.36970000000000003,-132.11988829439576
-0.3686999999999999,-129.58755506763737
-0.3677,-127.09766317987489
-0.3666999999999999,-124.70680108310299
-0.3657,-122.34423321232836
-0.3646999999999999,-120.08069513254432
-0.3637,-117.85959839175621
-0.3626999999999999,-115.76582566795594
-0.3617,-113.67205294415571
-0.36070000000000013,-111.5358388813595
-0.3597,-109.4845074965552
-0.35870000000000013,-107.34829343375898
-0.3577,-105.29696204895468
-0.35670000000000013,-103.20318932515443
-0.3557,-101.02453392336226
-0.3547000000000001,-99.01564387755391
-0.3537,-97.00675383174556
-0.3527000000000001,-95.12518780292505
-0.3517,-93.21532754810727
-0.3507000000000001,-91.33376151928677
-0.3497,-89.55122528145681
-0.3487000000000001,-87.71210059163228
-0.3477,-85.88712301480638
-0.3467000000000001,-84.00555698598588
-0.3457,-82.13813807016405
-0.3447000000000001,-80.29901338033947
-0.3437,-78.38915312552167
-0.3427000000000001,-76.5924697746931
-0.3417,-74.80993353686314
-0.3407000000000001,-73.09813286402644
-0.3397,-71.4004793041884
-0.3387000000000001,-69.8301497613382
-0.3377,-68.17493754049613
-0.3367000000000001,-66.51972531965401
-0.3357,-64.86451309881193
-0.3347000000000001,-63.11027108697928
-0.3337,-61.412617527141244
-0.3327000000000001,-59.67252262830725
-0.3317,-58.017310407465146
-0.3307000000000001,-56.36209818662306
-0.3297,-54.791768643772876
-0.3287000000000001,-53.26388043991864
-0.3277,-51.73599223606439
-0.3267000000000001,-50.335428049198
-0.3257,-48.80753984534376
-0.3247000000000001,-47.32209298048547
-0.3237,-45.79420477663124
-0.3227000000000001,-44.28046368577565
-0.3217,-42.653545690930855
-0.3207000000000001,-41.139804600075266
-0.3197,-39.696799074212926
-0.3187000000000001,-38.16891087035869
-0.3177,-36.81078802248826
-0.3167000000000001,-35.46681228761647
-0.3157,-34.10868943974604
-0.3147000000000001,-32.84959638286615
-0.3137,-31.49147353499572
-0.3127000000000001,-30.147497800123933
-0.3117,-28.746933613257543
-0.3107000000000001,-27.34636942639116
-0.3097,-25.959952352523427
-0.3087000000000001,-24.559388165657033
-0.3077,-23.2012653177866
-0.3067000000000001,-21.899730921910766
-0.30569999999999997,-20.683079204026836
-0.3047000000000001,-19.49472171214021
-0.30369999999999997,-18.320511333252224
-0.3027000000000001,-17.188742293360193
-0.30169999999999997,-15.972090575476265
-0.3007000000000001,-14.783733083589633
-0.29969999999999997,-13.523225315409885
-0.2987000000000001,-12.258473413330542
-0.29769999999999996,-10.949865460955383
-0.2967000000000001,-9.772825659467674
-0.29569999999999996,-8.55051509638428
-0.2947000000000001,-7.4173313451923875
-0.29369999999999996,-6.326588932996443
-0.29270000000000007,-5.279702571096316
-0.29169999999999996,-4.23281620919619
-0.29070000000000007,-3.1420737970002466
-0.28969999999999996,-2.095187435100119
-0.28870000000000007,-1.0054353208140816
-0.28769999999999996,0.12863969849672777
-0.28670000000000007,1.3063444142953748
-0.28569999999999995,2.4403769922671885
-0.28470000000000006,3.5311194044631313
-0.28369999999999995,4.578005766363259
-0.28270000000000006,5.537180027671754
-0.28169999999999995,6.496354288980249
-0.28070000000000006,7.456943261588608
-0.27969999999999995,8.284549372009655
-0.27870000000000006,9.287579683613965
-0.27769999999999995,10.20431260592651
-0.27670000000000006,11.251198967826637
-0.27569999999999995,12.210373229135131
-0.27470000000000006,13.213403540739444
-0.27369999999999994,14.217848563643619
-0.27270000000000005,15.179852247551842
-0.27169999999999994,16.099414592464115
-0.27070000000000005,16.919947146385837
-0.26969999999999994,17.75462681330621
-0.26870000000000005,18.49027668923603
-0.26769999999999994,19.3249563561564
-0.26670000000000005,20.14548891007812
-0.26569999999999994,20.980168576998494
-0.26470000000000005,21.899730921910766
