Potential V vs RHE, Current mA cm-2
0.05339999999999995,-0.03754643789841807
0.05239999999999995,-0.039088473215270966
0.051399999999999946,-0.039696799074212925
0.050399999999999945,-0.04014950669016974
0.049399999999999944,-0.04058806719312791
0.04839999999999994,-0.041012480583087416
0.04739999999999994,-0.041465188199044226
0.04639999999999994,-0.04186130736300644
0.04539999999999994,-0.04222913230097135
0.04439999999999994,-0.04262525146493356
0.04339999999999994,-0.04304966485489307
0.04239999999999994,-0.043474078244852575
0.04139999999999994,-0.043841903182817485
0.040399999999999936,-0.04423802234677969
0.039399999999999935,-0.04464828862374056
0.038399999999999934,-0.045072702013700075
0.03739999999999993,-0.04548296829066093
0.03639999999999993,-0.04585079322862584
0.03539999999999993,-0.046232765279589395
0.03439999999999993,-0.04662888444355161
0.03339999999999993,-0.04703915072051247
0.03239999999999993,-0.04747771122347064
0.03139999999999993,-0.04787383038743284
0.030399999999999927,-0.0482558024383964
0.029399999999999926,-0.048637774489359964
0.028399999999999925,-0.04910462921831542
0.027399999999999924,-0.04951489549527628
0.026399999999999924,-0.049925161772237145
0.025399999999999923,-0.0503071338232007
0.024399999999999922,-0.05070325298716292
0.02339999999999992,-0.051127666377122426
0.02239999999999992,-0.051580373993079236
0.02139999999999992,-0.0519623460440428
0.020399999999999918,-0.052386759434002304
0.019399999999999917,-0.052782878597964523
0.018399999999999916,-0.053235586213921327
0.017399999999999916,-0.05368829382987814
0.016399999999999915,-0.0540702658808417
0.015399999999999914,-0.05450882638379986
0.014399999999999913,-0.05490494554776207
0.013399999999999912,-0.055357653163718885
0.012399999999999911,-0.0558103607796757
0.01139999999999991,-0.05620647994363791
0.01039999999999991,-0.05661674622059877
0.009399999999999908,-0.05702701249755963
0.008399999999999908,-0.05746557300051779
0.007399999999999907,-0.05793242772947325
0.006399999999999906,-0.05834269400643411
0.005399999999999905,-0.058752960283394974
0.004399999999999904,-0.05916322656035583
0.003399999999999903,-0.059573492837316694
0.002399999999999902,-0.0599979062272762
0.0013999999999999013,-0.060422319617235716
0.00039999999999990044,-0.060846733007195224
-0.0006000000000001005,-0.06128529351015339
-0.0016000000000001013,-0.0617097069001129
-0.0026000000000001022,-0.06217656162906836
-0.003600000000000103,-0.06260097501902787
-0.004600000000000104,-0.06302538840898737
-0.005600000000000105,-0.0634780960249442
-0.006600000000000106,-0.06394495075389965
-0.007600000000000107,-0.06439765836985646
-0.008600000000000108,-0.06483621887281464
-0.009600000000000108,-0.06524648514977549
-0.01060000000000011,-0.065670898539735
-0.01160000000000011,-0.06613775326869047
-0.012600000000000111,-0.06661875511064458
-0.013600000000000112,-0.06702902138760544
-0.014600000000000113,-0.06745343477756495
-0.015600000000000114,-0.0678637010545258
-0.016600000000000115,-0.06834470289647993
-0.017600000000000116,-0.06876911628643943
-0.018600000000000116,-0.06919352967639894
-0.019600000000000117,-0.06960379595335982
-0.020600000000000118,-0.07004235645631796
-0.02160000000000012,-0.07050921118527342
-0.02260000000000012,-0.07096191880123023
-0.02360000000000012,-0.0713721850781911
-0.024600000000000122,-0.07181074558114926
-0.025600000000000123,-0.07220686474511147
-0.026600000000000124,-0.07265957236106828
-0.027600000000000124,-0.0730839857510278
-0.028600000000000125,-0.07348010491499
-0.029600000000000126,-0.07390451830494953
-0.030600000000000127,-0.07431478458191038
-0.03160000000000013,-0.07476749219786719
-0.03260000000000013,-0.07520605270082535
-0.03360000000000013,-0.07560217186478757
-0.03460000000000002,-0.07601243814174842
-0.03560000000000002,-0.07642270441870928
-0.03660000000000002,-0.07681882358267149
-0.03760000000000002,-0.07727153119862831
-0.03860000000000002,-0.07768179747558916
-0.039600000000000024,-0.07807791663955138
-0.040600000000000025,-0.07848818291651223
-0.041600000000000026,-0.07891259630647175
-0.04260000000000003,-0.0793228625834326
-0.04360000000000003,-0.07969068752139752
-0.04460000000000003,-0.08005851245936244
-0.04560000000000003,-0.080440484510326
-0.04660000000000003,-0.08085075078728685
-0.04760000000000003,-0.08126101706424771
-0.04860000000000003,-0.08164298911521127
-0.04960000000000003,-0.08201081405317617
-0.050600000000000034,-0.08239278610413973
-0.051600000000000035,-0.08277475815510331
-0.052600000000000036,-0.08315673020606687
-0.053600000000000037,-0.08349626091803447
-0.05460000000000004,-0.08380749740400478
-0.05560000000000004,-0.08414702811597238
-0.05660000000000004,-0.08450070594093864
-0.05760000000000004,-0.08486853087890354
-0.05860000000000004,-0.08520806159087116
-0.05960000000000004,-0.08554759230283876
-0.06060000000000004,-0.08585882878880907
-0.061600000000000044,-0.08621250661377533
-0.06260000000000004,-0.08656618443874159
-0.06360000000000005,-0.0868774209247119
-0.06460000000000005,-0.08717451029768356
-0.06560000000000005,-0.0874433054446579
-0.06660000000000005,-0.08776868904362688
-0.06760000000000005,-0.08806577841659853
-0.06860000000000005,-0.08833457356357288
-0.06960000000000005,-0.08863166293654455
-0.07060000000000005,-0.0889004580835189
-0.07160000000000005,-0.08919754745649056
-0.07260000000000005,-0.08953707816845817
-0.07360000000000005,-0.08976343197643659
-0.07460000000000006,-0.09003222712341094
-0.07560000000000006,-0.09025858093138935
-0.07660000000000006,-0.09054152319136234
-0.07760000000000006,-0.09082446545133536
-0.07860000000000006,-0.09105081925931376
-0.07960000000000006,-0.09127717306729217
-0.08060000000000006,-0.09148937976227192
-0.08160000000000006,-0.09170158645725168
-0.08260000000000006,-0.09195623449122738
-0.08360000000000006,-0.09216844118620715
-0.08460000000000006,-0.09233820654219095
-0.08560000000000006,-0.09256456035016934
-0.08660000000000007,-0.0927767670451491
-0.08760000000000007,-0.09298897374012885
-0.08860000000000007,-0.09318703332210997
-0.08960000000000007,-0.09334265156509512
-0.09060000000000007,-0.09349826980808028
-0.09160000000000007,-0.09368218227706274
-0.09260000000000007,-0.09385194763304654
-0.09360000000000007,-0.09400756587603168
-0.09460000000000007,-0.09412074278002087
-0.09560000000000007,-0.09424806679700874
-0.09660000000000007,-0.09441783215299256
-0.09760000000000008,-0.09455930328297905
-0.09860000000000008,-0.09468662729996691
-0.09960000000000008,-0.09478565709095746
-0.10060000000000008,-0.09488468688194801
-0.10160000000000008,-0.09501201089893586
-0.10260000000000008,-0.09513933491592372
-0.10360000000000008,-0.09519592336791832
-0.10460000000000008,-0.09530910027190752
-0.10560000000000008,-0.09536568872390214
-0.10660000000000008,-0.09545057140189403
-0.10760000000000008,-0.09556374830588323
-0.10860000000000009,-0.09559204253188053
-0.10960000000000009,-0.09564863098387513
-0.11060000000000009,-0.09569107232287108
-0.11160000000000009,-0.09574766077486568
-0.11260000000000009,-0.09583254345285759
-0.11360000000000009,-0.09583254345285759
-0.11460000000000009,-0.09588913190485218
-0.11560000000000009,-0.09591742613084948
-0.11660000000000009,-0.09593157324384814
-0.1176000000000001,-0.09597401458284409
-0.1186000000000001,-0.09595986746984543
-0.1196000000000001,-0.09594572035684679
-0.1206000000000001,-0.09593157324384814
-0.1216000000000001,-0.09595986746984543
-0.1226000000000001,-0.09595986746984543
-0.1236000000000001,-0.09593157324384814
-0.1246000000000001,-0.09590327901785084
-0.1256000000000001,-0.0958608376788549
-0.1266000000000001,-0.09584669056585624
-0.1276000000000001,-0.09584669056585624
-0.1286000000000001,-0.09580424922686027
-0.1296000000000001,-0.09573351366186703
-0.1306000000000001,-0.09566277809687378
-0.1316000000000001,-0.09563448387087647
-0.1326000000000001,-0.09557789541888188
-0.1336000000000001,-0.09552130696688728
-0.1346000000000001,-0.09545057140189403
-0.1356000000000001,-0.09536568872390214
-0.1366000000000001,-0.09532324738490616
-0.1376000000000001,-0.09526665893291157
-0.1386000000000001,-0.09518177625491966
-0.1396000000000001,-0.09508274646392911
-0.1406000000000001,-0.0949978637859372
-0.14160000000000011,-0.09492712822094396
-0.14260000000000012,-0.09485639265595071
-0.14360000000000012,-0.0947432157519615
-0.14460000000000012,-0.09464418596097096
-0.14560000000000012,-0.09453100905698175
-0.14660000000000012,-0.09444612637898986
-0.14760000000000012,-0.0943753908139966
-0.14860000000000012,-0.09423391968401008
-0.14960000000000012,-0.09410659566702224
-0.15060000000000012,-0.09399341876303305
-0.15160000000000012,-0.09388024185904384
-0.15260000000000012,-0.09379535918105193
-0.15360000000000013,-0.09365388805106543
-0.15460000000000013,-0.09354071114707624
-0.15560000000000013,-0.09339924001708971
-0.15660000000000013,-0.09327191600010187
-0.15760000000000013,-0.09317288620911131
-0.15860000000000013,-0.09303141507912481
-0.15960000000000002,-0.09287579683613965
-0.16060000000000002,-0.0927484728191518
-0.16160000000000002,-0.09262114880216396
-0.16260000000000002,-0.0924938247851761
-0.16360000000000002,-0.0923523536551896
-0.16460000000000002,-0.09218258829920578
-0.16560000000000002,-0.09208355850821524
-0.16660000000000003,-0.09197038160422603
-0.16760000000000003,-0.09182891047423952
-0.16860000000000003,-0.09167329223125438
-0.16960000000000003,-0.09151767398826924
-0.17060000000000003,-0.09136205574528407
-0.17160000000000003,-0.09122058461529756
-0.17260000000000003,-0.09110740771130836
-0.17360000000000003,-0.09093764235532456
-0.17460000000000003,-0.09076787699934075
-0.17560000000000003,-0.09061225875635559
-0.17660000000000003,-0.09047078762636909
-0.17760000000000004,-0.09034346360938124
-0.17860000000000004,-0.09018784536639608
-0.17960000000000004,-0.09001808001041228
-0.18060000000000004,-0.08984831465442847
-0.18160000000000004,-0.08970684352444197
-0.18260000000000004,-0.08960781373345142
-0.18360000000000004,-0.08942390126446896
-0.18460000000000004,-0.08925413590848516
-0.18560000000000004,-0.08908437055250136
-0.18660000000000004,-0.08894289942251486
-0.18760000000000004,-0.08882972251852565
-0.18860000000000005,-0.08863166293654455
-0.18960000000000005,-0.08847604469355938
-0.19060000000000005,-0.08832042645057424
-0.19160000000000005,-0.08817895532058774
-0.19260000000000005,-0.08807992552959719
-0.19360000000000005,-0.08792430728661203
-0.19460000000000005,-0.08775454193062822
-0.19560000000000005,-0.08758477657464442
-0.19660000000000005,-0.08745745255765658
-0.19760000000000005,-0.08734427565366736
-0.19860000000000005,-0.08718865741068221
-0.19960000000000006,-0.0870188920546984
-0.20060000000000006,-0.0868774209247119
-0.20160000000000006,-0.08672180268172675
-0.20260000000000006,-0.0865944786647389
-0.20360000000000006,-0.08645300753475238
-0.20460000000000006,-0.08629738929176724
-0.20560000000000006,-0.08614177104878207
-0.20660000000000006,-0.08600029991879557
-0.20760000000000006,-0.08587297590180773
-0.20860000000000006,-0.08571735765882257
-0.20960000000000006,-0.08554759230283876
-0.21060000000000006,-0.08537782694685496
-0.21160000000000007,-0.08527879715586441
-0.21260000000000007,-0.08513732602587791
-0.21360000000000007,-0.0849958548958914
-0.21460000000000007,-0.08484023665290626
-0.21560000000000007,-0.0846846184099211
-0.21660000000000007,-0.0845714415059319
-0.21760000000000007,-0.08448655882793998
-0.21860000000000007,-0.08431679347195618
-0.21960000000000007,-0.08416117522897103
-0.22060000000000007,-0.08401970409898453
-0.22160000000000007,-0.08389238008199668
-0.22260000000000008,-0.08377920317800747
-0.22360000000000008,-0.08366602627401826
-0.22460000000000008,-0.08351040803103311
-0.22560000000000008,-0.08338308401404526
-0.22660000000000008,-0.08326990711005607
-0.22760000000000008,-0.0831708773190655
-0.22860000000000008,-0.083029406189079
-0.22960000000000008,-0.08290208217209115
-0.23060000000000008,-0.08277475815510331
-0.23160000000000008,-0.08264743413811544
-0.23260000000000008,-0.08254840434712489
-0.23360000000000009,-0.08239278610413973
-0.2346000000000001,-0.08223716786115459
-0.2356000000000001,-0.08212399095716538
-0.2366000000000001,-0.08201081405317617
-0.2376000000000001,-0.08191178426218561
-0.2386000000000001,-0.08178446024519778
-0.2396000000000001,-0.08164298911521127
-0.2406000000000001,-0.08152981221122206
-0.2416000000000001,-0.08140248819423422
-0.2426000000000001,-0.08130345840324366
-0.2436000000000001,-0.08119028149925445
-0.2446000000000001,-0.0810346632562693
-0.2456000000000001,-0.08090733923928145
-0.2466000000000001,-0.08082245656128956
-0.2476000000000001,-0.08073757388329764
-0.2486000000000001,-0.08062439697930844
-0.2496000000000001,-0.08048292584932194
-0.2506000000000001,-0.08035560183233408
-0.2516000000000001,-0.08027071915434218
-0.2526000000000001,-0.08018583647635028
-0.2536000000000001,-0.08005851245936244
-0.2546000000000001,-0.07994533555537323
-0.2556000000000001,-0.07983215865138403
-0.2566000000000001,-0.07973312886039347
-0.2576000000000001,-0.07966239329540022
-0.2586000000000001,-0.079549216391411
-0.2596000000000001,-0.0794360394874218
-0.2606000000000001,-0.07930871547043396
-0.2616000000000001,-0.07923797990544071
-0.2626000000000001,-0.0791530972274488
-0.2636000000000001,-0.07901162609746229
-0.2646000000000001,-0.0789267434194704
-0.2656000000000001,-0.07882771362847985
-0.2666000000000001,-0.0787569780634866
-0.2676000000000001,-0.07870038961149198
-0.2686000000000001,-0.0786155069335001
-0.2696000000000001,-0.07851647714250953
-0.2706000000000001,-0.07843159446451763
-0.2716000000000001,-0.07833256467352707
-0.2726000000000001,-0.07824768199553518
-0.2736000000000001,-0.07814865220454463
-0.2746000000000001,-0.07802132818755676
-0.2756000000000001,-0.07793644550956487
-0.2766000000000001,-0.07783741571857432
-0.2776000000000001,-0.0777808272665797
-0.2786000000000001,-0.0776676503625905
-0.2796000000000001,-0.07756862057159995
-0.2806000000000001,-0.07748373789360806
-0.28160000000000013,-0.07739885521561615
-0.28260000000000013,-0.0773281196506229
-0.28360000000000013,-0.07725738408562965
-0.2846,-0.0771583542946391
-0.2856,-0.0770734716166472
-0.2866,-0.07698858893865529
-0.2876,-0.07691785337366204
-0.2886,-0.07683297069567015
-0.2896,-0.0767339409046796
-0.2906,-0.07664905822668767
-0.2916,-0.07660661688769173
-0.2926,-0.07653588132269848
-0.2936,-0.07646514575770523
-0.29460000000000003,-0.07638026307971334
-0.29560000000000003,-0.07628123328872279
-0.29660000000000003,-0.07622464483672817
-0.29760000000000003,-0.07616805638473358
-0.29860000000000003,-0.07609732081974033
-0.29960000000000003,-0.07599829102874978
-0.30060000000000003,-0.07591340835075787
-0.30160000000000003,-0.07585681989876326
-0.30260000000000004,-0.07581437855976732
-0.30360000000000004,-0.07572949588177541
-0.30460000000000004,-0.0756446132037835
-0.30560000000000004,-0.07555973052579161
-0.30660000000000004,-0.07551728918679566
-0.30760000000000004,-0.07548899496079836
-0.30860000000000004,-0.07537581805680914
-0.30960000000000004,-0.07531922960481456
-0.31060000000000004,-0.07523434692682264
-0.31160000000000004,-0.07517775847482806
-0.31260000000000004,-0.0751353171358321
-0.31360000000000005,-0.07506458157083885
-0.31460000000000005,-0.07496555177984829
-0.31560000000000005,-0.0749089633278537
-0.31660000000000005,-0.07483822776286045
-0.31760000000000005,-0.07480993353686313
-0.31860000000000005,-0.07473919797186988
-0.31960000000000005,-0.07469675663287394
-0.32060000000000005,-0.07459772684188339
-0.32160000000000005,-0.07452699127689014
-0.32260000000000005,-0.07449869705089282
-0.32360000000000005,-0.07441381437290093
-0.32460000000000006,-0.07432893169490903
-0.32560000000000006,-0.07431478458191038
-0.32660000000000006,-0.07425819612991578
-0.32760000000000006,-0.07421575479091982
-0.32860000000000006,-0.07415916633892522
-0.32960000000000006,-0.07406013654793467
-0.33060000000000006,-0.07400354809594006
-0.33160000000000006,-0.07398940098294142
-0.33260000000000006,-0.0739328125309468
-0.33360000000000006,-0.07387622407895222
-0.33460000000000006,-0.0738196356269576
-0.33560000000000006,-0.07372060583596705
-0.33660000000000007,-0.07367816449697111
-0.33760000000000007,-0.0736498702709738
-0.33860000000000007,-0.07359328181897921
-0.33960000000000007,-0.07353669336698461
-0.34060000000000007,-0.07346595780199136
-0.34160000000000007,-0.07343766357599404
-0.34260000000000007,-0.07342351646299541
-0.34360000000000007,-0.07335278089800215
-0.3446000000000001,-0.0732820453330089
-0.3456000000000001,-0.0732254568810143
-0.3466000000000001,-0.07318301554201835
-0.34759999999999996,-0.07314057420302239
-0.3486000000000001,-0.0730839857510278
-0.34959999999999997,-0.07304154441203185
-0.3506000000000001,-0.07295666173403995
-0.35159999999999997,-0.072914220395044
-0.3526000000000001,-0.0728859261690467
-0.35359999999999997,-0.07282933771705208
-0.3546000000000001,-0.07275860215205883
-0.35559999999999997,-0.07270201370006424
-0.3566000000000001,-0.07265957236106828
-0.3576,-0.07265957236106828
-0.3586000000000001,-0.07258883679607502
-0.3596,-0.07250395411808314
-0.3606000000000001,-0.07246151277908719
-0.3616,-0.07244736566608852
-0.3626000000000001,-0.07244736566608852
-0.3636,-0.07237663010109527
-0.3646000000000001,-0.07229174742310338
-0.3656,-0.07226345319710607
-0.3666000000000001,-0.07222101185811013
-0.3676,-0.07220686474511147
-0.3686000000000001,-0.07219271763211282
-0.3696,-0.07209368784112226
-0.3706000000000001,-0.07209368784112226
-0.3716,-0.07205124650212633
-0.3726000000000001,-0.07202295227612901
-0.3736,-0.07192392248513847
-0.3746000000000001,-0.07186733403314385
-0.3756,-0.0717965984681506
-0.3766000000000001,-0.0717965984681506
-0.3776,-0.07176830424215332
-0.3786000000000001,-0.07174001001615601
-0.3796,-0.07175415712915466
-0.3806000000000001,-0.0717117157901587
-0.3816,-0.0716551273381641
-0.3826000000000001,-0.07166927445116276
-0.3836,-0.0716268331121668
-0.3846000000000001,-0.07154195043417491
-0.3856,-0.07154195043417491
-0.3866000000000001,-0.07158439177317086
-0.3876,-0.07154195043417491
-0.3886000000000001,-0.07141462641718704
-0.3896,-0.0713438908521938
-0.3906000000000001,-0.07127315528720055
-0.3916,-0.07121656683520594
-0.3926000000000001,-0.0712590081742019
-0.3936,-0.07121656683520594
-0.3946000000000001,-0.07114583127021269
-0.3956,-0.07115997838321135
-0.3966000000000001,-0.07114583127021269
-0.3976,-0.0710892428182181
-0.3986000000000001,-0.07103265436622348
-0.3996,-0.07096191880123023
-0.4006000000000001,-0.07093362457523293
-0.4016,-0.07091947746223429
-0.4026000000000001,-0.07091947746223429
-0.4036,-0.07089118323623698
-0.4046000000000001,-0.07084874189724104
-0.4056,-0.07082044767124374
-0.40660000000000013,-0.07083459478424238
-0.4076,-0.07080630055824509
-0.40860000000000013,-0.07073556499325184
-0.4096,-0.07067897654125724
-0.41060000000000013,-0.07067897654125724
-0.4116,-0.07065068231525992
-0.41260000000000013,-0.07063653520226129
-0.4136,-0.07060824097626398
-0.41460000000000014,-0.07062238808926263
-0.4156,-0.07067897654125724
-0.41660000000000014,-0.07072141788025317
-0.4176,-0.07060824097626398
-0.41860000000000014,-0.07057994675026667
-0.41960000000000003,-0.07046676984627748
-0.42060000000000014,-0.07042432850728152
-0.42160000000000003,-0.07036774005528693
-0.42260000000000014,-0.07039603428128423
-0.42360000000000003,-0.07032529871629098
-0.42460000000000014,-0.07026871026429637
-0.42560000000000003,-0.07021212181230177
-0.42660000000000015,-0.07021212181230177
-0.42760000000000004,-0.07022626892530041
-0.42860000000000015,-0.07018382758630445
-0.42960000000000004,-0.07015553336030717
-0.43060000000000015,-0.0701130920213112
-0.43160000000000004,-0.07009894490831257
-0.43260000000000015,-0.07009894490831257
-0.43360000000000004,-0.07005650356931663
-0.43460000000000015,-0.06999991511732201
-0.43560000000000004,-0.0699716208913247
-0.43660000000000015,-0.06992917955232876
