Potential V vs RHE, Current mA cm-2
0.013299999999999867,30.614352529079397
0.012299999999999978,28.746933613257543
0.011299999999999866,27.0775742794168
0.010299999999999976,25.42236205857471
0.009299999999999864,23.597384481748815
0.008299999999999974,21.758259791924264
0.007299999999999862,20.10304757108217
0.006299999999999972,18.660042045219836
0.00529999999999986,17.188742293360193
0.0042999999999999705,15.519382959519453
0.0032999999999998586,13.868414872576954
0.0022999999999999687,12.384382719018532
0.0012999999999998568,11.077189477943236
0.00029999999999996696,9.724725475272262
-0.000700000000000145,8.154395932422071
-0.0017000000000000348,6.627922439867697
-0.0027000000000001467,5.275458437196722
-0.0037000000000000366,4.01070653511738
-0.0047000000000001485,2.7898106833338523
-0.005700000000000038,1.349917522331218
-0.00670000000000015,-0.1330535977523067
-0.00770000000000004,-1.4415908145624723
-0.008700000000000152,-2.576189277054232
-0.009700000000000042,-3.7532290785419424
-0.010700000000000154,-5.105693081212917
-0.011700000000000044,-6.500598422879844
-0.012700000000000156,-7.722908985963235
-0.013700000000000045,-8.769795347863363
-0.014700000000000157,-9.902979099055257
-0.015700000000000047,-11.211587051430415
-0.01670000000000016,-12.56405105410139
-0.01770000000000005,-13.698649516593148
-0.01870000000000016,-14.65640906660178
-0.01970000000000005,-15.74573676749786
-0.020700000000000163,-16.962388485381787
-0.021700000000000053,-18.23562865526032
-0.022700000000000164,-19.3249563561564
-0.023700000000000054,-20.244518701068674
-0.024700000000000166,-21.248963723972853
-0.025700000000000056,-22.46561544185678
-0.026700000000000168,-23.682267159740714
-0.027700000000000058,-24.729153521640843
-0.02870000000000017,-25.60627452755716
-0.02970000000000006,-26.568278211465387
-0.03070000000000017,-27.742488590353368
-0.03170000000000006,-28.8742576302454
-0.03270000000000017,-29.921143992145527
-0.03370000000000006,-30.7558236590659
-0.034700000000000175,-31.717827342974125
-0.035700000000000065,-32.807155043870196
-0.03670000000000018,-33.93892408376223
-0.03770000000000007,-34.90092776767045
-0.03870000000000018,-35.721460321592176
-0.03970000000000007,-36.5985813275085
-0.04070000000000018,-37.687909028404576
-0.04170000000000007,-38.777236729300654
-0.04270000000000018,-39.654357735216976
-0.04370000000000007,-40.43244895014274
-0.044700000000000184,-41.267128617063115
-0.045700000000000074,-42.2715736399673
-0.046700000000000186,-43.36090134086337
-0.047700000000000076,-44.28046368577565
-0.04870000000000019,-45.05855490070142
-0.04970000000000008,-45.89323456762179
-0.05070000000000019,-46.88353247752732
-0.05170000000000008,-47.93041883942744
-0.05270000000000019,-48.80753984534376
-0.05370000000000008,-49.59977817326819
-0.05470000000000019,-50.37786938819396
-0.05570000000000008,-51.33987307210218
-0.056700000000000195,-52.386759434002315
-0.057700000000000085,-53.22143910092268
-0.058700000000000196,-53.91464763785655
-0.059700000000000086,-54.69273885278232
-0.0607000000000002,-55.65474253669055
-0.06170000000000009,-56.70162889859067
-0.0627000000000002,-57.53630856551105
-0.06370000000000009,-58.22951710244491
-0.0647000000000002,-58.97931409137338
-0.06570000000000009,-59.92717066228296
-0.0667000000000002,-60.93161568518713
-0.0677000000000001,-61.72385401311155
-0.0687000000000002,-62.37462121104946
-0.0697000000000001,-63.11027108697928
-0.07070000000000021,-64.02983343189156
-0.0717000000000001,-64.94939577680383
-0.07270000000000021,-65.76992833072556
-0.0737000000000001,-66.43484264166212
-0.07470000000000021,-67.128051178596
-0.0757000000000001,-68.04761352350828
-0.07670000000000021,-69.0096172074165
-0.0777000000000001,-69.78770842234226
-0.07870000000000021,-70.39603428128423
-0.0797000000000001,-71.10338993121674
-0.08070000000000022,-72.00880516313036
-0.0817000000000001,-72.92836750804264
-0.08270000000000022,-73.6781644969711
-0.08370000000000011,-74.28649035591307
-0.08470000000000022,-74.97969889284694
-0.08570000000000011,-75.85681989876326
-0.08670000000000022,-76.7622351306769
-0.08770000000000011,-77.55447345860131
-0.08870000000000022,-78.20524065653922
-0.08970000000000011,-78.85600785447714
-0.09070000000000022,-79.7755701993894
-0.09170000000000011,-80.69513254430169
-0.09270000000000023,-81.3458997422396
-0.09370000000000012,-81.95422560118158
-0.09470000000000023,-82.6615812511141
-0.09570000000000012,-83.52455514403178
-0.09670000000000023,-84.44411748894404
-0.09770000000000012,-85.13732602587791
-0.09870000000000023,-85.70321054582392
-0.09970000000000012,-86.41056619575643
-0.10070000000000023,-87.27354008867411
-0.10170000000000012,-88.19310243358639
-0.10270000000000024,-88.94289942251486
-0.10370000000000013,-89.50878394246087
-0.10470000000000024,-90.20199247939475
-0.10570000000000013,-91.12155482430701
-0.10670000000000024,-91.98452871722468
-0.10770000000000013,-92.6918843671572
-0.10870000000000024,-93.25776888710321
-0.10970000000000013,-93.95097742403709
-0.11070000000000024,-94.8280984299534
-0.11170000000000013,-95.74766077486568
-0.11270000000000002,-96.44086931179956
-0.11370000000000013,-97.04919517074151
-0.11470000000000002,-97.74240370767538
-0.11570000000000014,-98.57708337459576
-0.11670000000000003,-99.49664571950804
-0.11770000000000014,-100.18985425644189
-0.11870000000000003,-100.79818011538387
-0.11970000000000014,-101.44894731332178
-0.12070000000000003,-102.3260683192381
-0.12170000000000014,-103.20318932515443
-0.12270000000000003,-103.89639786208829
-0.12370000000000014,-104.46228238203432
-0.12470000000000003,-105.11304957997223
-0.12570000000000014,-105.99017058588855
-0.12670000000000003,-106.86729159180487
-0.12770000000000015,-107.56050012873874
-0.12870000000000004,-108.1688259876807
-0.12970000000000015,-108.83374029861727
-0.13070000000000004,-109.654272852539
-0.13170000000000015,-110.57383519745127
-0.13270000000000004,-111.26704373438514
-0.13370000000000015,-111.8753695933271
-0.13470000000000004,-112.58272524325962
-0.13570000000000015,-113.40325779718134
-0.13670000000000004,-114.3228201420936
-0.13770000000000016,-115.05847001802343
-0.13870000000000005,-115.62435453796945
-0.13970000000000016,-116.28926884890602
-0.14070000000000005,-117.19468408081964
-0.14170000000000016,-118.11424642573192
-0.14270000000000005,-118.90648475365633
-0.14370000000000016,-119.47236927360234
-0.14470000000000005,-120.12313647154028
-0.14570000000000016,-120.95781613846064
-0.14670000000000005,-121.77834869238235
-0.14770000000000016,-122.57058702030677
-0.14870000000000005,-123.09403020125686
-0.14970000000000017,-123.78723873819072
-0.15070000000000006,-124.66435974410705
-0.15170000000000017,-125.5273336370247
-0.15270000000000006,-126.27713062595316
-0.15370000000000017,-126.84301514589919
-0.15470000000000006,-127.4937823438371
-0.15570000000000017,-128.28602067176152
-0.15670000000000006,-129.1489945646792
-0.15770000000000017,-129.89879155360765
-0.15870000000000006,-130.46467607355368
-0.15970000000000018,-131.07300193249566
-0.16070000000000007,-131.89353448641737
-0.16170000000000018,-132.81309683132966
-0.16270000000000007,-133.52045248126214
-0.16370000000000018,-134.12877834020412
-0.16470000000000007,-134.77954553814206
-0.16570000000000018,-135.65666654405837
-0.16670000000000007,-136.562081775972
-0.16770000000000018,-137.2694374259045
-0.16870000000000007,-137.83532194585052
-0.16970000000000018,-138.48608914378846
-0.17070000000000007,-139.3207688107088
-0.17170000000000019,-140.22618404262244
-0.17270000000000008,-140.93353969255494
-0.1737000000000002,-141.47112998650366
-0.17470000000000008,-142.17848563643616
-0.1757000000000002,-143.0273124163552
-0.17670000000000008,-143.87613919627424
-0.1777000000000002,-144.72496597619326
-0.17870000000000008,-145.29085049613926
-0.1797000000000002,-145.9982061460718
-0.18070000000000008,-146.8470329259908
-0.1817000000000002,-147.83733083589632
-0.18270000000000008,-148.54468648582886
-0.1837000000000002,-149.1105710057749
-0.1847000000000001,-149.8179266557074
-0.1857000000000002,-150.66675343562642
-0.1867000000000001,-151.37410908555893
-0.1877000000000002,-152.0814647354914
-0.1887000000000001,-152.64734925543743
-0.1897000000000002,-153.35470490536997
-0.1907000000000001,-154.203531685289
-0.1917000000000001,-155.05235846520802
-0.19269999999999998,-155.75971411514055
-0.1937000000000001,-156.32559863508658
-0.19469999999999998,-156.89148315503257
-0.1957000000000001,-157.7403099349516
-0.19669999999999999,-158.5891367148706
-0.1977000000000001,-159.29649236480313
-0.1987,-159.86237688474912
-0.1997000000000001,-160.42826140469515
-0.2007,-161.2770881846142
-0.2017000000000001,-162.2673860945197
-0.2027,-162.97474174445222
-0.2037000000000001,-163.54062626439824
-0.2047,-164.24798191433075
-0.2057000000000001,-165.09680869424977
-0.2067,-165.94563547416882
-0.2077000000000001,-166.65299112410133
-0.2087,-167.21887564404733
-0.2097000000000001,-167.92623129397984
-0.2107,-168.77505807389886
-0.2117000000000001,-169.6238848538179
-0.2127,-170.47271163373694
-0.2137000000000001,-171.03859615368293
-0.2147,-171.74595180361547
-0.2157000000000001,-172.73624971352098
-0.2167,-173.58507649344
-0.21770000000000012,-174.2924321433725
-0.2187,-174.71684553333202
-0.21970000000000012,-175.42420118326456
-0.2207,-176.27302796318358
-0.22170000000000012,-177.1218547431026
-0.2227,-178.1121526530081
-0.22370000000000012,-178.67803717295413
-0.2247,-179.24392169290016
-0.22570000000000012,-180.09274847281918
-0.2267,-181.08304638272472
-0.22770000000000012,-181.79040203265723
-0.22870000000000001,-182.21481542261674
-0.22970000000000013,-182.92217107254925
-0.23070000000000002,-183.77099785246824
-0.23170000000000013,-184.47835350240078
-0.23270000000000002,-185.1857091523333
-0.23370000000000013,-185.6101225422928
-0.23470000000000002,-186.31747819222534
-0.23570000000000013,-187.02483384215788
-0.23670000000000002,-188.01513175206335
-0.2376999999999999,-188.58101627200938
-0.23870000000000002,-189.2883719219419
-0.2396999999999999,-189.8542564418879
-0.24070000000000003,-190.84455435179345
-0.24169999999999991,-191.69338113171247
-0.24270000000000003,-192.54220791163152
-0.24369999999999992,-193.10809243157752
-0.24470000000000003,-193.9569192114965
-0.24569999999999992,-194.80574599141553
-0.24670000000000003,-195.65457277133459
-0.24769999999999992,-196.50339955125358
-0.24870000000000003,-197.0692840711996
-0.24969999999999992,-197.77663972113214
-0.25070000000000003,-198.62546650105114
-0.2516999999999999,-199.61576441095667
-0.25270000000000004,-200.3231200608892
-0.2536999999999999,-200.88900458083523
-0.25470000000000004,-201.73783136075423
-0.2556999999999999,-202.58665814067325
-0.25670000000000004,-203.43548492059227
-0.25769999999999993,-204.14284057052478
-0.25870000000000004,-204.8501962204573
-0.25969999999999993,-205.41608074040332
-0.26070000000000004,-206.26490752032234
-0.26169999999999993,-207.1137343002414
-0.26270000000000004,-207.8210899501739
-0.26369999999999993,-208.52844560010638
-0.26470000000000005,-209.37727238002543
-0.26569999999999994,-210.22609915994445
-0.26670000000000005,-211.07492593986345
-0.26769999999999994,-211.782281589796
-0.26870000000000005,-212.34816610974204
-0.26969999999999994,-213.19699288966103
-0.27070000000000005,-214.04581966958003
-0.27169999999999994,-214.89464644949908
-0.27270000000000005,-215.6020020994316
-0.27369999999999994,-216.1678866193776
-0.27470000000000006,-216.87524226931012
-0.27569999999999995,-217.58259791924263
-0.27670000000000006,-218.57289582914817
-0.27769999999999995,-219.28025147908068
-0.27870000000000006,-219.8461359990267
-0.27969999999999995,-220.5534916489592
-0.28070000000000006,-221.40231842887826
-0.28169999999999995,-222.3926163387838
-0.28270000000000006,-223.09997198871628
-0.28369999999999995,-223.80732763864881
-0.28470000000000006,-224.5146832885813
-0.28569999999999995,-225.36351006850035
-0.28670000000000007,-226.35380797840588
-0.28769999999999996,-226.91969249835188
-0.28870000000000007,-227.4855770182979
-0.28969999999999996,-228.1929326682304
-0.29070000000000007,-229.18323057813595
-0.29169999999999996,-230.03205735805497
-0.29270000000000007,-230.880884137974
-0.29369999999999996,-231.5882397879065
-0.2947000000000001,-232.15412430785253
-0.29569999999999996,-233.1444222177581
-0.2967000000000001,-233.99324899767706
-0.29769999999999996,-234.7006046476096
-0.2987000000000001,-235.40796029754208
-0.29969999999999997,-236.1153159474746
-0.3007000000000001,-236.96414272739366
-0.30169999999999997,-237.9544406372992
-0.3027000000000001,-238.66179628723168
-0.30369999999999997,-239.2276808071777
-0.3047000000000001,-240.0765075870967
-0.30569999999999997,-241.06680549700224
-0.3067000000000001,-242.05710340690777
-0.3077,-242.76445905684034
-0.3087000000000001,-243.47181470677282
-0.3097,-244.32064148669184
-0.3107000000000001,-245.31093939659738
-0.3117,-246.15976617651637
-0.3127000000000001,-246.8671218264489
-0.3137,-247.4330063463949
-0.3147000000000001,-248.14036199632744
-0.3157,-248.9891887762465
-0.3167000000000001,-249.979486686152
-0.3177,-250.828313466071
-0.3187000000000001,-251.53566911600356
-0.3197,-252.243024765936
-0.3207000000000001,-253.09185154585506
-0.3217,-254.08214945576057
-0.3227000000000001,-254.93097623567962
-0.3237,-255.49686075562562
-0.3247000000000001,-256.20421640555816
-0.3257,-257.1945143154637
-0.3267000000000001,-258.0433410953827
-0.3277,-258.8921678753017
-0.3287000000000001,-259.4580523952477
-0.3297,-260.02393691519376
-0.3307000000000001,-261.01423482509927
-0.3317,-261.8630616050183
-0.3327000000000001,-262.57041725495077
-0.3337,-263.13630177489676
-0.3347000000000001,-263.84365742482936
-0.3357,-264.6924842047484
-0.3367000000000001,-265.6827821146539
-0.3377,-266.5316088945729
-0.3387000000000001,-267.38043567449193
-0.3397,-268.22926245441096
-0.3407000000000001,-268.93661810434344
-0.3417,-269.926916014249
-0.3427000000000001,-270.63427166418154
-0.3437,-271.20015618412754
-0.3447000000000001,-271.9075118340601
-0.3457,-272.8978097439656
-0.3467000000000001,-273.8881076538711
-0.3477,-274.5954633038036
-0.3487000000000001,-275.30281895373616
-0.3497,-276.15164573365513
-0.3507000000000001,-277.4248859035337
-0.3517,-278.4151838134392
-0.3527000000000001,-279.40548172334474
-0.3537,-280.11283737327733
-0.3547000000000001,-280.82019302320975
-0.3557,-281.8104909331153
-0.35670000000000013,-282.8007888430208
-0.3577,-283.79108675292633
-0.35870000000000013,-284.63991353284536
-0.3597,-285.3472691827779
-0.36070000000000013,-286.33756709268346
-0.3617,-287.327865002589
-0.3626999999999999,-288.03522065252145
-0.3637,-288.742576302454
-0.3646999999999999,-289.59140308237295
-0.3657,-290.5817009922785
-0.3666999999999999,-291.571998902184
-0.3677,-292.4208256821031
-0.3686999999999999,-293.1281813320356
-0.36970000000000003,-293.8355369819681
-0.3706999999999999,-294.96730602186017
-0.37170000000000003,-295.9576039317657
-0.3726999999999999,-296.80643071168464
-0.37370000000000003,-297.51378636161724
-0.3746999999999999,-298.3626131415362
-0.37570000000000003,-299.3529110514418
-0.3766999999999999,-300.3432089613473
-0.37770000000000004,-301.1920357412663
-0.3786999999999999,-301.8993913911989
-0.37970000000000004,-302.74821817111786
-0.3806999999999999,-303.73851608102336
-0.38170000000000004,-304.8702851209154
-0.38269999999999993,-305.71911190083443
-0.38370000000000004,-306.4264675507669
-0.38469999999999993,-307.1338232006995
-0.38570000000000004,-307.98264998061853
-0.38669999999999993,-307.55823659065896
-0.38570000000000004,-304.5873428609424
-0.38469999999999993,-301.47497800123926
-0.38370000000000004,-298.6455554015092
-0.38269999999999993,-296.0990750617522
-0.38170000000000004,-293.4111235920086
-0.3806999999999999,-290.723172122265
-0.37970000000000004,-287.7522783925485
-0.3786999999999999,-285.2057980527914
-0.37770000000000004,-282.65931771303434
-0.3766999999999999,-280.25430850326376
-0.37570000000000003,-277.56635703352015
-0.3746999999999999,-274.87840556377665
-0.37370000000000003,-272.1904540940331
-0.3726999999999999,-269.78544488426246
-0.37170000000000003,-267.23896454450545
-0.3706999999999999,-264.55101307476184
-0.36970000000000003,-262.2874749949778
-0.3686999999999999,-259.4580523952477
-0.3677,-257.0530431854772
-0.3666999999999999,-254.93097623567962
-0.3657,-252.38449589592256
-0.3646999999999999,-249.41360216620598
-0.3637,-246.7256506964624
-0.3626999999999999,-244.32064148669184
-0.3617,-241.9156322769213
-0.36070000000000013,-239.5106230671507
-0.3597,-236.96414272739366
-0.35870000000000013,-234.7006046476096
-0.3577,-232.43706656782552
-0.35670000000000013,-230.17352848804146
-0.3557,-227.7685192782709
-0.3547000000000001,-225.22203893851383
-0.3537,-222.81702972874328
-0.3527000000000001,-220.6949627789457
-0.3517,-218.57289582914817
-0.3507000000000001,-216.1678866193776
-0.3497,-213.62140627962054
-0.3487000000000001,-211.35786819983647
-0.3477,-209.37727238002543
-0.3467000000000001,-207.1137343002414
-0.3457,-204.8501962204573
-0.3447000000000001,-202.58665814067325
-0.3437,-200.3231200608892
-0.3427000000000001,-198.3425242410781
-0.3417,-196.2204572912806
-0.3407000000000001,-194.09839034148303
-0.3397,-191.83485226169896
-0.3387000000000001,-189.57131418191491
-0.3377,-187.59071836210387
-0.3367000000000001,-185.6101225422928
-0.3357,-183.34658446250873
-0.3347000000000001,-181.08304638272472
-0.3337,-179.10245056291362
-0.3327000000000001,-177.2633258730891
-0.3317,-175.28273005327804
-0.3307000000000001,-173.302134233467
-0.3297,-171.03859615368293
-0.3287000000000001,-168.77505807389886
-0.3277,-166.79446225408785
-0.3267000000000001,-164.9553375642633
-0.3257,-162.8332706144657
-0.3247000000000001,-160.71120366466818
-0.3237,-158.5891367148706
-0.3227000000000001,-156.60854089505958
-0.3217,-154.76941620523502
-0.3207000000000001,-152.64734925543743
-0.3197,-150.5252823056399
-0.3187000000000001,-148.54468648582886
-0.3177,-146.5640906660178
-0.3167000000000001,-144.58349484620675
-0.3157,-142.6028990263957
-0.3147000000000001,-140.45253785060083
-0.3137,-138.40120646579655
-0.3127000000000001,-136.562081775972
-0.3117,-134.77954553814206
-0.3107000000000001,-132.81309683132966
-0.3097,-130.63444142953747
-0.3087000000000001,-128.752875400717
-0.3077,-126.9278978238911
-0.3067000000000001,-125.18780292505707
-0.30569999999999997,-123.34867823523254
-0.3047000000000001,-121.29734685042824
-0.30369999999999997,-119.3450452566145
-0.3027000000000001,-117.50592056678994
-0.30169999999999997,-115.80826700695191
-0.3007000000000001,-113.84181830013951
-0.29969999999999997,-111.7056042373433
-0.2987000000000001,-109.8806266605174
-0.29769999999999996,-108.1688259876807
-0.2967000000000001,-106.4287310888467
-0.29569999999999996,-104.5471650600262
-0.2947000000000001,-102.5524221272165
-0.29369999999999996,-100.54353208140815
-0.29270000000000007,-98.88831986056607
-0.29169999999999996,-97.17651918772938
-0.29070000000000007,-95.30910027190752
-0.28969999999999996,-93.30021022609918
-0.28870000000000007,-91.41864419727867
-0.28769999999999996,-89.72099063744062
-0.28670000000000007,-88.06577841659853
-0.28569999999999995,-86.22665372677399
-0.28470000000000006,-84.31679347195619
-0.28369999999999995,-82.47766878213164
-0.28270000000000006,-80.82245656128954
-0.28169999999999995,-79.20968567944341
-0.28070000000000006,-77.42714944161345
-0.27969999999999995,-75.54558341279296
-0.27870000000000006,-73.76304717496302
-0.27769999999999995,-72.23515897110877
-0.27670000000000006,-70.70727076725453
-0.27569999999999995,-68.91058741642594
-0.27470000000000006,-67.128051178596
-0.27369999999999994,-65.43039761875795
-0.27270000000000005,-63.902509414903705
-0.27169999999999994,-62.37462121104946
-0.27070000000000005,-60.71940899020737
-0.26969999999999994,-58.97931409137338
-0.26870000000000005,-57.30995475753264
-0.26769999999999994,-55.838655005673
-0.26670000000000005,-54.35320814081471
