Potential V vs RHE, Current mA cm-2
0.013299999999999867,-0.3511313446265021
0.012299999999999978,-1.3543031273607997
0.011299999999999866,-2.1390434853959355
0.010299999999999976,-2.794054817233447
0.009299999999999864,-3.361354048479327
0.008299999999999974,-3.7970851288377587
0.007299999999999862,-4.23281620919619
0.006299999999999972,-4.582249900262854
0.00529999999999986,-4.887827541033701
0.0042999999999999705,-5.149549131508733
0.0032999999999998586,-5.411270721983764
0.0022999999999999687,-5.585280211867165
0.0012999999999998568,-5.759289701750564
0.00029999999999996696,-5.890857852638012
-0.000700000000000145,-6.021011292225596
-0.0017000000000000348,-6.152579443113044
-0.0027000000000001467,-6.238876832404812
-0.0037000000000000366,-6.37044498329226
-0.0047000000000001485,-6.458157083883892
-0.005700000000000038,-6.54445447317566
-0.00670000000000015,-6.588310523471475
-0.00770000000000004,-6.632166573767292
-0.008700000000000152,-6.6760226240631075
-0.009700000000000042,-6.719878674358924
-0.010700000000000154,-6.762320013354876
-0.011700000000000044,-6.762320013354876
-0.012700000000000156,-6.806176063650692
-0.013700000000000045,-6.850032113946507
-0.014700000000000157,-6.893888164242324
-0.015700000000000047,-6.893888164242324
-0.01670000000000016,-6.893888164242324
-0.01770000000000005,-6.893888164242324
-0.01870000000000016,-6.93774421453814
-0.01970000000000005,-6.93774421453814
-0.020700000000000163,-6.93774421453814
-0.021700000000000053,-6.93774421453814
-0.022700000000000164,-6.981600264833956
-0.023700000000000054,-6.981600264833956
-0.024700000000000166,-6.981600264833956
-0.025700000000000056,-7.024041603829907
-0.026700000000000168,-6.981600264833956
-0.027700000000000058,-6.981600264833956
-0.02870000000000017,-6.981600264833956
-0.02970000000000006,-6.981600264833956
-0.03070000000000017,-6.981600264833956
-0.03170000000000006,-6.981600264833956
-0.03270000000000017,-6.981600264833956
-0.03370000000000006,-6.981600264833956
-0.034700000000000175,-6.981600264833956
-0.035700000000000065,-7.024041603829907
-0.03670000000000018,-7.024041603829907
-0.03770000000000007,-7.024041603829907
-0.03870000000000018,-7.024041603829907
-0.03970000000000007,-7.024041603829907
-0.04070000000000018,-6.981600264833956
-0.04170000000000007,-6.981600264833956
-0.04270000000000018,-7.024041603829907
-0.04370000000000007,-7.024041603829907
-0.044700000000000184,-7.024041603829907
-0.045700000000000074,-7.024041603829907
-0.046700000000000186,-7.024041603829907
-0.047700000000000076,-7.024041603829907
-0.04870000000000019,-7.024041603829907
-0.04970000000000008,-7.024041603829907
-0.05070000000000019,-6.981600264833956
-0.05170000000000008,-6.981600264833956
-0.05270000000000019,-6.981600264833956
-0.05370000000000008,-7.024041603829907
-0.05470000000000019,-7.024041603829907
-0.05570000000000008,-7.024041603829907
-0.056700000000000195,-7.024041603829907
-0.057700000000000085,-7.024041603829907
-0.058700000000000196,-6.981600264833956
-0.059700000000000086,-7.024041603829907
-0.0607000000000002,-7.024041603829907
-0.06170000000000009,-7.024041603829907
-0.0627000000000002,-7.024041603829907
-0.06370000000000009,-7.024041603829907
-0.0647000000000002,-7.024041603829907
-0.06570000000000009,-7.067897654125724
-0.0667000000000002,-7.024041603829907
-0.0677000000000001,-7.024041603829907
-0.0687000000000002,-7.024041603829907
-0.0697000000000001,-7.024041603829907
-0.07070000000000021,-7.024041603829907
-0.0717000000000001,-7.024041603829907
-0.07270000000000021,-7.024041603829907
-0.0737000000000001,-7.067897654125724
-0.07470000000000021,-7.024041603829907
-0.0757000000000001,-7.067897654125724
-0.07670000000000021,-7.024041603829907
-0.0777000000000001,-7.024041603829907
-0.07870000000000021,-7.024041603829907
-0.0797000000000001,-7.024041603829907
-0.08070000000000022,-7.024041603829907
-0.0817000000000001,-7.024041603829907
-0.08270000000000022,-7.024041603829907
-0.08370000000000011,-7.024041603829907
-0.08470000000000022,-7.024041603829907
-0.08570000000000011,-7.024041603829907
-0.08670000000000022,-7.024041603829907
-0.08770000000000011,-7.024041603829907
-0.08870000000000022,-7.024041603829907
-0.08970000000000011,-7.024041603829907
-0.09070000000000022,-7.024041603829907
-0.09170000000000011,-7.024041603829907
-0.09270000000000023,-7.024041603829907
-0.09370000000000012,-7.067897654125724
-0.09470000000000023,-7.067897654125724
-0.09570000000000012,-7.067897654125724
-0.09670000000000023,-7.067897654125724
-0.09770000000000012,-7.067897654125724
-0.09870000000000023,-7.067897654125724
-0.09970000000000012,-7.067897654125724
-0.10070000000000023,-7.067897654125724
-0.10170000000000012,-7.067897654125724
-0.10270000000000024,-7.067897654125724
-0.10370000000000013,-7.067897654125724
-0.10470000000000024,-7.111753704421539
-0.10570000000000013,-7.111753704421539
-0.10670000000000024,-7.111753704421539
-0.10770000000000013,-7.111753704421539
-0.10870000000000024,-7.111753704421539
-0.10970000000000013,-7.067897654125724
-0.11070000000000024,-7.111753704421539
-0.11170000000000013,-7.111753704421539
-0.11270000000000002,-7.111753704421539
-0.11370000000000013,-7.155609754717355
-0.11470000000000002,-7.155609754717355
-0.11570000000000014,-7.155609754717355
-0.11670000000000003,-7.155609754717355
-0.11770000000000014,-7.155609754717355
-0.11870000000000003,-7.155609754717355
-0.11970000000000014,-7.155609754717355
-0.12070000000000003,-7.155609754717355
-0.12170000000000014,-7.155609754717355
-0.12270000000000003,-7.155609754717355
-0.12370000000000014,-7.199465805013171
-0.12470000000000003,-7.199465805013171
-0.12570000000000014,-7.243321855308987
-0.12670000000000003,-7.243321855308987
-0.12770000000000015,-7.199465805013171
-0.12870000000000004,-7.199465805013171
-0.12970000000000015,-7.199465805013171
-0.13070000000000004,-7.199465805013171
-0.13170000000000015,-7.243321855308987
-0.13270000000000004,-7.199465805013171
-0.13370000000000015,-7.243321855308987
-0.13470000000000004,-7.243321855308987
-0.13570000000000015,-7.243321855308987
-0.13670000000000004,-7.28576319430494
-0.13770000000000016,-7.28576319430494
-0.13870000000000005,-7.28576319430494
-0.13970000000000016,-7.28576319430494
-0.14070000000000005,-7.28576319430494
-0.14170000000000016,-7.329619244600755
-0.14270000000000005,-7.329619244600755
-0.14370000000000016,-7.329619244600755
-0.14470000000000005,-7.37347529489657
-0.14570000000000016,-7.37347529489657
-0.14670000000000005,-7.37347529489657
-0.14770000000000016,-7.4173313451923875
-0.14870000000000005,-7.4173313451923875
-0.14970000000000017,-7.4173313451923875
-0.15070000000000006,-7.4173313451923875
-0.15170000000000017,-7.4173313451923875
-0.15270000000000006,-7.461187395488204
-0.15370000000000017,-7.461187395488204
-0.15470000000000006,-7.461187395488204
-0.15570000000000017,-7.50504344578402
-0.15670000000000006,-7.50504344578402
-0.15770000000000017,-7.50504344578402
-0.15870000000000006,-7.50504344578402
-0.15970000000000018,-7.5474847847799715
-0.16070000000000007,-7.5474847847799715
-0.16170000000000018,-7.5474847847799715
-0.16270000000000007,-7.591340835075788
-0.16370000000000018,-7.591340835075788
-0.16470000000000007,-7.635196885371603
-0.16570000000000018,-7.635196885371603
-0.16670000000000007,-7.679052935667419
-0.16770000000000018,-7.679052935667419
-0.16870000000000007,-7.679052935667419
-0.16970000000000018,-7.679052935667419
-0.17070000000000007,-7.722908985963235
-0.17170000000000019,-7.722908985963235
-0.17270000000000008,-7.7653503249591855
-0.1737000000000002,-7.7653503249591855
-0.17470000000000008,-7.809206375255003
-0.1757000000000002,-7.853062425550818
-0.17670000000000008,-7.853062425550818
-0.1777000000000002,-7.896918475846635
-0.17870000000000008,-7.896918475846635
-0.1797000000000002,-7.940774526142452
-0.18070000000000008,-7.940774526142452
-0.1817000000000002,-7.984630576438266
-0.18270000000000008,-7.984630576438266
-0.1837000000000002,-8.027071915434218
-0.1847000000000001,-8.070927965730034
-0.1857000000000002,-8.11478401602585
-0.1867000000000001,-8.11478401602585
-0.1877000000000002,-8.158640066321666
-0.1887000000000001,-8.158640066321666
-0.1897000000000002,-8.202496116617484
-0.1907000000000001,-8.202496116617484
-0.1917000000000001,-8.246352166913299
-0.19269999999999998,-8.288793505909249
-0.1937000000000001,-8.332649556205066
-0.19469999999999998,-8.376505606500881
-0.1957000000000001,-8.4203616567967
-0.19669999999999999,-8.464217707092514
-0.1977000000000001,-8.464217707092514
-0.1987,-8.508073757388331
-0.1997000000000001,-8.55051509638428
-0.2007,-8.594371146680096
-0.2017000000000001,-8.638227196975913
-0.2027,-8.68208324727173
-0.2037000000000001,-8.725939297567548
-0.2047,-8.769795347863363
-0.2057000000000001,-8.812236686859313
-0.2067,-8.85609273715513
-0.2077000000000001,-8.899948787450944
-0.2087,-8.899948787450944
-0.2097000000000001,-8.943804837746763
-0.2107,-8.987660888042578
-0.2117000000000001,-9.073958277334345
-0.2127,-9.073958277334345
-0.2137000000000001,-9.161670377925978
-0.2147,-9.24938247851761
-0.2157000000000001,-9.293238528813426
-0.2167,-9.335679867809377
-0.21770000000000012,-9.423391968401008
-0.2187,-9.423391968401008
-0.21970000000000012,-9.511104068992642
-0.2207,-9.55496011928846
-0.22170000000000012,-9.641257508580225
-0.2227,-9.728969609171857
-0.22370000000000012,-9.772825659467674
-0.2247,-9.85912304875944
-0.22570000000000012,-9.946835149351072
-0.2267,-9.99069119964689
-0.22770000000000012,-10.078403300238522
-0.22870000000000001,-10.164700689530287
-0.22970000000000013,-10.208556739826104
-0.23070000000000002,-10.296268840417738
-0.23170000000000013,-10.382566229709504
-0.23270000000000002,-10.470278330301136
-0.23370000000000013,-10.557990430892769
-0.23470000000000002,-10.644287820184536
-0.23570000000000013,-10.731999920776168
-0.23670000000000002,-10.819712021367803
-0.2376999999999999,-10.863568071663616
-0.23870000000000002,-10.993721511251199
-0.2396999999999999,-11.037577561547016
-0.24070000000000003,-11.123874950838783
-0.24169999999999991,-11.255443101726232
-0.24270000000000003,-11.343155202317865
-0.24369999999999992,-11.473308641905447
-0.24470000000000003,-11.56102074249708
-0.24569999999999992,-11.691174182084664
-0.24670000000000003,-11.778886282676295
-0.24769999999999992,-11.86659838326793
-0.24870000000000003,-11.996751822855511
-0.24969999999999992,-12.12831997374296
-0.25070000000000003,-12.214617363034726
-0.2516999999999999,-12.346185513922174
-0.25270000000000004,-12.432482903213943
-0.2536999999999999,-12.607907104397206
-0.25470000000000004,-12.73806054398479
-0.2556999999999999,-12.825772644576423
-0.25670000000000004,-12.955926084164007
-0.25769999999999993,-13.087494235051453
-0.25870000000000004,-13.217647674639037
-0.25969999999999993,-13.349215825526485
-0.26070000000000004,-13.47936926511407
-0.26169999999999993,-13.610937416001518
-0.26270000000000004,-13.784946905884919
-0.26369999999999993,-13.916515056772363
-0.26470000000000005,-14.046668496359947
-0.26569999999999994,-14.217848563643619
-0.26670000000000005,-14.401761032626075
-0.26769999999999994,-14.57152638860988
-0.26870000000000005,-14.741291744593681
-0.26969999999999994,-14.868615761581536
-0.27070000000000005,-15.01008689156804
-0.27169999999999994,-15.179852247551842
-0.27270000000000005,-15.349617603535648
-0.27369999999999994,-15.575971411514052
-0.27470000000000006,-15.74573676749786
-0.27569999999999995,-15.972090575476265
-0.27670000000000006,-16.099414592464115
-0.27769999999999995,-16.269179948447924
-0.27870000000000006,-16.495533756426326
-0.27969999999999995,-16.665299112410132
-0.28070000000000006,-16.835064468393938
-0.28169999999999995,-17.061418276372343
-0.28270000000000006,-17.231183632356142
-0.28369999999999995,-17.4433903273359
-0.28470000000000006,-17.627302796318357
-0.28569999999999995,-17.839509491298113
-0.28670000000000007,-18.06586329927652
-0.28769999999999996,-18.23562865526032
-0.28870000000000007,-18.44783535024008
-0.28969999999999996,-18.674189158218486
-0.29070000000000007,-18.88639585319824
-0.29169999999999996,-19.112749661176647
-0.29270000000000007,-19.3249563561564
-0.29369999999999996,-19.579604390132108
-0.2947000000000001,-19.805958198110513
-0.29569999999999996,-20.06060623208622
-0.2967000000000001,-20.286960040064624
-0.29769999999999996,-20.541608074040333
-0.2987000000000001,-20.76796188201874
-0.29969999999999997,-21.065051254990397
-0.3007000000000001,-21.291405062968803
-0.30169999999999997,-21.54605309694451
-0.3027000000000001,-21.814848243918867
-0.30369999999999997,-22.069496277894572
-0.3047000000000001,-22.38073276386488
-0.30569999999999997,-22.63538079784059
-0.3067000000000001,-22.946617283810895
-0.3077,-23.2012653177866
-0.3087000000000001,-23.51250180375691
-0.3097,-23.767149837732617
-0.3107000000000001,-24.078386323702922
-0.3117,-24.389622809673234
-0.3127000000000001,-24.64427084364894
-0.3137,-24.95550732961925
-0.3147000000000001,-25.252596702590903
-0.3157,-25.563833188561212
-0.3167000000000001,-25.81848122253692
-0.3177,-26.17215904750318
-0.3187000000000001,-26.483395533473487
-0.3197,-26.780484906445146
-0.3207000000000001,-27.134162731411404
-0.3217,-27.43125210438306
-0.3227000000000001,-27.78492992934932
-0.3237,-28.13860775431558
-0.3247000000000001,-28.478138466283188
-0.3257,-28.831816291249446
-0.3267000000000001,-29.18549411621571
-0.3277,-29.482583489187363
-0.3287000000000001,-29.836261314153624
-0.3297,-30.189939139119886
-0.3307000000000001,-30.571911190083444
-0.3317,-30.925589015049702
-0.3327000000000001,-31.27926684001596
-0.3337,-31.661238890979522
-0.3347000000000001,-32.01491671594578
-0.3357,-32.41103587990799
-0.3367000000000001,-32.807155043870196
-0.3377,-33.14668575583781
-0.3387000000000001,-33.54280491980002
-0.3397,-33.93892408376223
-0.3407000000000001,-34.33504324772444
-0.3417,-34.717015298688004
-0.3427000000000001,-35.11313446265021
-0.3437,-35.55169496560837
-0.3447000000000001,-35.94781412957058
-0.3457,-36.37222751953009
-0.3467000000000001,-36.768346683492304
-0.3477,-37.164465847454515
-0.3487000000000001,-37.60302635041268
-0.3497,-37.99914551437489
-0.3507000000000001,-38.42355890433439
-0.3517,-38.86211940729255
-0.3527000000000001,-39.30067991025072
-0.3537,-39.739240413208876
-0.3547000000000001,-40.177800916167044
-0.3557,-40.65880275812115
-0.35670000000000013,-41.139804600075266
-0.3577,-41.606659329030734
-0.35870000000000013,-42.04521983198889
-0.3597,-42.483780334947056
-0.36070000000000013,-42.96478217690117
-0.3617,-43.44578401885527
-0.3626999999999999,-43.92678586080939
-0.3637,-44.4077877027635
-0.3646999999999999,-44.93123088371356
-0.3657,-45.412232725667685
-0.3666999999999999,-45.89323456762179
-0.3677,-46.37423640957591
-0.3686999999999999,-46.84109113853137
-0.36970000000000003,-47.36453431948143
-0.3706999999999999,-47.84553616143554
-0.37170000000000003,-48.32653800338966
-0.3726999999999999,-48.80753984534376
-0.37370000000000003,-49.373424365289786
-0.3746999999999999,-49.89686754623985
-0.37570000000000003,-50.37786938819396
-0.3766999999999999,-50.90131256914402
-0.37770000000000004,-51.424755750094086
-0.3786999999999999,-51.948198931044146
-0.37970000000000004,-52.471642111994214
-0.3806999999999999,-52.995085292944275
-0.38170000000000004,-53.518528473894335
-0.38269999999999993,-54.08441299384035
-0.38370000000000004,-54.65029751378637
-0.38469999999999993,-55.17374069473642
-0.38570000000000004,-55.73962521468245
-0.38669999999999993,-55.442535841710786
-0.38570000000000004,-53.9570889768525
-0.38469999999999993,-52.74043725896857
-0.38370000000000004,-51.65110955807249
-0.38269999999999993,-50.68910587416426
-0.38170000000000004,-49.85442620724389
-0.3806999999999999,-49.03389365332217
-0.37970000000000004,-48.24165532539775
-0.3786999999999999,-47.54844678846388
-0.37770000000000004,-46.84109113853137
-0.3766999999999999,-46.147882601597495
-0.37570000000000003,-45.45467406466363
-0.3746999999999999,-44.80390686672572
-0.37370000000000003,-44.138992555789144
-0.3726999999999999,-43.53066669684718
-0.37170000000000003,-42.92234083790521
-0.3706999999999999,-42.31401497896325
-0.36970000000000003,-41.70568912002128
-0.3686999999999999,-41.083216148080666
-0.3677,-40.51733162813464
-0.3666999999999999,-39.95144710818864
-0.3657,-39.42800392723857
-0.3646999999999999,-38.86211940729255
-0.3637,-38.253793548350586
-0.3626999999999999,-37.687909028404576
-0.3617,-37.164465847454515
-0.36070000000000013,-36.5985813275085
-0.3597,-36.11757948555439
-0.35870000000000013,-35.55169496560837
-0.3577,-35.02825178465831
-0.35670000000000013,-34.462367264712285
-0.3557,-33.89648274476628
-0.3547000000000001,-33.373039563816214
-0.3537,-32.84959638286615
-0.3527000000000001,-32.283711862920136
-0.3517,-31.76026868197007
-0.3507000000000001,-31.23682550102001
-0.3497,-30.7558236590659
-0.3487000000000001,-30.232380478115836
-0.3477,-29.751378636161718
-0.3467000000000001,-29.22793545521166
-0.3457,-28.746933613257543
-0.3447000000000001,-28.265931771303435
-0.3437,-27.742488590353368
-0.3427000000000001,-27.261486748399253
-0.3417,-26.780484906445146
-0.3407000000000001,-26.29948306449103
-0.3397,-25.81848122253692
-0.3387000000000001,-25.39406783257741
-0.3377,-24.9130659906233
-0.3367000000000001,-24.432064148669184
-0.3357,-23.993503645711023
-0.3347000000000001,-23.51250180375691
-0.3337,-23.073941300798747
-0.3327000000000001,-22.592939458844636
-0.3317,-22.15437895588647
-0.3307000000000001,-21.772406904922917
-0.3297,-21.291405062968803
-0.3287000000000001,-20.89528589900659
-0.3277,-20.456725396048434
-0.3267000000000001,-20.01816489309027
-0.3257,-19.636192842126707
-0.3247000000000001,-19.2400736781645
-0.3237,-18.80151317520634
-0.3227000000000001,-18.40539401124413
-0.3217,-17.966833508285966
-0.3207000000000001,-17.627302796318357
-0.3197,-17.231183632356142
-0.3187000000000001,-16.835064468393938
-0.3177,-16.438945304431726
-0.3167000000000001,-16.099414592464115
-0.3157,-15.660854089505953
-0.3147000000000001,-15.307176264539699
-0.3137,-14.925204213576137
-0.3127000000000001,-14.57152638860988
-0.3117,-14.175407224647667
-0.3107000000000001,-13.828802956180734
-0.3097,-13.47936926511407
-0.3087000000000001,-13.13135028534727
-0.3077,-12.73806054398479
-0.3067000000000001,-12.390041564217992
-0.30569999999999997,-12.040607873151327
-0.3047000000000001,-11.691174182084664
-0.30369999999999997,-11.343155202317865
-0.3027000000000001,-10.993721511251199
-0.30169999999999997,-10.688143870480351
-0.3007000000000001,-10.340124890713554
-0.29969999999999997,-10.034547249942705
-0.2987000000000001,-9.685113558876042
-0.29769999999999996,-9.379535918105192
-0.2967000000000001,-9.073958277334345
-0.29569999999999996,-8.769795347863363
-0.2947000000000001,-8.464217707092514
-0.29369999999999996,-8.158640066321666
-0.29270000000000007,-7.853062425550818
-0.29169999999999996,-7.5474847847799715
-0.29070000000000007,-7.28576319430494
-0.28969999999999996,-6.981600264833956
-0.28870000000000007,-6.719878674358924
-0.28769999999999996,-6.458157083883892
-0.28670000000000007,-6.152579443113044
-0.28569999999999995,-5.890857852638012
-0.28470000000000006,-5.629136262162981
-0.28369999999999995,-5.323558621392133
-0.28270000000000006,-5.0618370309171015
-0.28169999999999995,-4.800115440442069
-0.28070000000000006,-4.538393849967037
-0.27969999999999995,-4.3205283097878215
-0.27870000000000006,-4.0588067193127895
-0.27769999999999995,-3.7970851288377587
-0.27670000000000006,-3.579219588658543
-0.27569999999999995,-3.317497998183511
-0.27470000000000006,-3.055776407708479
-0.27369999999999994,-2.8379108675292635
-0.27270000000000005,-2.576189277054232
-0.27169999999999994,-2.3569090255751513
-0.27070000000000005,-2.1390434853959355
-0.26969999999999994,-1.92117794521672
-0.26870000000000005,-1.7033124050375041
-0.26769999999999994,-1.5293029151541047
-0.26670000000000005,-1.2671569112891135
-0.26569999999999994,-1.0490084288499246
-0.26470000000000005,-0.8308599464107361
