Potential V vs RHE, Current mA cm-2
0.4132999999999999,0.0025577980301559862
0.4122999999999999,0.0007331033955900619
0.4112999999999999,0.0002543650917157336
0.4102999999999999,-8.09497805782774e-06
0.4092999999999999,-0.00018249775768258974
0.4082999999999999,-0.0003011920357412663
0.4072999999999999,-0.00045468821177662284
0.4062999999999999,-0.0005943202170733019
0.4052999999999999,-0.0007520605270082535
0.4042999999999999,-0.0008762721791364037
0.4032999999999999,-0.0009529495315890887
0.4022999999999999,-0.0010632970129785617
0.4012999999999999,-0.0011777471571376428
0.4002999999999999,-0.0012977146753661982
0.3992999999999999,-0.001434517258063147
0.3982999999999999,-0.0015038381117565341
0.3972999999999999,-0.0015561824298515404
0.3962999999999999,-0.001690580003338719
0.3952999999999999,-0.0017881950830294063
0.3942999999999999,-0.001875907183621039
0.39329999999999987,-0.001936739769515235
0.39229999999999987,-0.002014548891007812
0.39129999999999987,-0.002085284456001064
0.39029999999999987,-0.002205534916489592
0.38929999999999987,-0.002279099904082574
0.38829999999999987,-0.002339932489976771
0.38729999999999987,-0.002375300272473396
0.38629999999999987,-0.0024997948668615197
0.38529999999999986,-0.0025931658126526124
0.38429999999999986,-0.002652583687246944
0.38329999999999986,-0.0027134162731411405
0.38229999999999986,-0.0027657605912361468
0.38129999999999986,-0.0028322520223298033
0.38029999999999986,-0.0029779672862159027
0.37929999999999986,-0.0030387998721100986
0.37829999999999986,-0.0030755823659065896
0.37729999999999986,-0.0031293413953014607
0.37629999999999986,-0.003202906382894443
0.37529999999999986,-0.0033217421320831065
0.37429999999999986,-0.003354280491980002
0.37329999999999985,-0.0034080395213748733
0.37229999999999985,-0.00348584864286745
0.37129999999999985,-0.0035325341157629968
0.37029999999999985,-0.003635808040653144
0.36929999999999985,-0.0036853229361484205
0.36829999999999985,-0.0036952259152474754
0.36729999999999985,-0.0037617173463411328
0.36629999999999985,-0.0038282087774347898
0.36529999999999985,-0.003932897413624802
0.36429999999999985,-0.003983827020419943
0.36329999999999985,-0.003996559422118728
0.36229999999999984,-0.00405880671931279
0.36129999999999984,-0.0041479335312042875
0.36029999999999984,-0.00423847505439565
0.35929999999999984,-0.004287989949890926
0.35829999999999984,-0.004309210619388902
0.35729999999999984,-0.004329016577587013
0.35629999999999984,-0.004416728678178645
0.35529999999999984,-0.004508684912669872
0.35429999999999984,-0.004561029230764878
0.35329999999999984,-0.004578005766363259
0.35229999999999984,-0.004619032394059345
0.35129999999999983,-0.004694012092952192
0.35029999999999983,-0.004747771122347063
0.34929999999999983,-0.00481709197604045
0.34829999999999983,-0.004849630335937346
0.34729999999999983,-0.0049189511896307325
0.34629999999999983,-0.004959977817326819
0.34529999999999983,-0.0050335428049198
0.34429999999999983,-0.0050731547213160215
0.3432999999999998,-0.005097204813413728
0.3422999999999998,-0.0051240843281111625
0.3412999999999998,-0.005194819893104414
0.3402999999999998,-0.0052910202614952365
0.3392999999999998,-0.005303752663194023
0.3382999999999998,-0.005322143910092268
0.3372999999999998,-0.005371658805587544
0.3362999999999998,-0.00541834427848309
0.3352999999999998,-0.005490494554776207
0.3342999999999998,-0.005545668295470945
0.3332999999999998,-0.0055612301197694594
0.3322999999999998,-0.005617818571764061
0.3312999999999998,-0.005646112797761361
0.3302999999999998,-0.005736654320952724
0.3292999999999998,-0.005786169216448001
0.3282999999999998,-0.005760704413050429
0.3272999999999998,-0.005828610555443951
0.3262999999999998,-0.0058738813170396325
0.3252999999999999,-0.0059601787063314
0.3242999999999999,-0.0059983759114277556
0.3232999999999999,-0.006001205334027485
0.3222999999999999,-0.006056379074722222
0.3212999999999999,-0.006124285217115744
0.3202999999999999,-0.0061738001126110205
0.3192999999999999,-0.006241706255004542
0.3182999999999999,-0.006238876832404812
0.3172999999999999,-0.006267171058402112
0.3162999999999999,-0.006339321334695229
0.3152999999999999,-0.006415715744887941
0.3142999999999999,-0.006458157083883892
0.3132999999999999,-0.0064737189081824085
0.3122999999999999,-0.006485036598581328
0.3112999999999999,-0.00655294274097485
0.3102999999999999,-0.0066109459042693166
0.3092999999999999,-0.0066618755110644575
0.3082999999999999,-0.006677437335362973
0.3072999999999999,-0.006690169737061759
0.3062999999999999,-0.00675524645685555
0.3052999999999999,-0.006831640867048261
0.3042999999999999,-0.006859935093045563
0.3032999999999999,-0.0068853998964431345
0.3022999999999999,-0.006900961720741649
0.3012999999999999,-0.006946232482337331
0.3002999999999999,-0.007031115160329232
0.2992999999999999,-0.0070650682315259936
0.2982999999999999,-0.007074971210625048
0.2972999999999999,-0.0071287302400199195
0.2962999999999999,-0.007183903980714656
0.2952999999999999,-0.007254639545707908
0.2942999999999999,-0.007281519060405344
0.2932999999999999,-0.007288592616904669
0.2922999999999999,-0.00732254568810143
0.2912999999999999,-0.007355084047998325
0.2902999999999999,-0.007439966725990228
0.2892999999999999,-0.007486652198885773
0.2882999999999999,-0.0075022140231842905
0.2872999999999999,-0.007536167094381051
0.2862999999999999,-0.007568705454277946
0.2852999999999999,-0.007645099864470658
0.2842999999999999,-0.007690370626066339
0.2832999999999999,-0.00770168831646526
0.2822999999999999,-0.007728567831162695
0.2812999999999999,-0.007786570994457162
0.2802999999999999,-0.007843159446451763
0.2792999999999999,-0.007875697806348659
0.2782999999999999,-0.007872868383748928
0.2772999999999999,-0.007896918475846634
0.2762999999999999,-0.007969068752139753
0.2752999999999999,-0.008017168936335162
0.2742999999999999,-0.008052536718831788
0.2732999999999999,-0.00807517209962963
0.2722999999999999,-0.008087904501328413
0.2712999999999999,-0.008154395932422072
0.2702999999999999,-0.008212399095716538
0.2692999999999999,-0.008264743413811542
0.26829999999999987,-0.008270402259011005
0.26729999999999987,-0.008284549372009654
0.26629999999999987,-0.008335478978804796
0.26529999999999987,-0.008410458677697642
0.26429999999999987,-0.008448655882793999
0.26329999999999987,-0.008467047129692245
0.26229999999999987,-0.008495341355689546
0.26129999999999987,-0.0085335385607859
0.26029999999999986,-0.00861417710487821
0.25929999999999986,-0.008621250661377535
0.25829999999999986,-0.008628324217876859
0.25729999999999986,-0.00867076555687281
0.25629999999999986,-0.00869340093767065
0.25529999999999986,-0.008776868904362687
0.25429999999999986,-0.008817895532058775
0.25329999999999986,-0.008822139665958368
0.25229999999999986,-0.00885892215975486
0.25129999999999986,-0.008899948787450946
0.25029999999999986,-0.008965025507244737
0.24929999999999986,-0.009006052134940823
0.24829999999999985,-0.009011710980140282
0.24729999999999985,-0.009031516938338395
0.24629999999999985,-0.00906971414343475
0.24529999999999985,-0.009181476336124088
0.24429999999999985,-0.009212599984721119
0.24329999999999985,-0.009192794026523008
0.24229999999999985,-0.00923240594291923
0.24129999999999985,-0.00928333554971437
0.24029999999999985,-0.009328606311310052
0.23929999999999985,-0.009375291784205599
0.23829999999999985,-0.009378121206805328
0.23729999999999984,-0.009409244855402359
0.23629999999999984,-0.009461589173497365
0.23529999999999984,-0.009515348202892238
0.23429999999999984,-0.009549301274088998
0.23329999999999984,-0.009579010211386164
0.23229999999999984,-0.009593157324384814
0.23129999999999984,-0.009666722311977795
0.23029999999999984,-0.009717651918772937
0.22929999999999984,-0.009764337391668482
0.22829999999999984,-0.009765752102968348
0.22729999999999984,-0.009781313927266864
0.22629999999999983,-0.009823755266262814
0.22529999999999983,-0.009898734965155663
0.22429999999999983,-0.009922785057253367
0.22329999999999983,-0.009936932170252018
0.22229999999999983,-0.009952493994550532
0.22129999999999983,-0.01000200889004581
0.22029999999999983,-0.0100670856098396
0.21929999999999983,-0.010116600505334878
0.21829999999999983,-0.010113771082735147
0.21729999999999983,-0.010161871266930559
0.21629999999999983,-0.010180262513828803
0.21529999999999982,-0.010236850965823406
0.21429999999999982,-0.010266559903120571
0.21329999999999982,-0.010287780572618546
0.21229999999999982,-0.010327392489014767
0.21129999999999982,-0.010371248539310585
0.21029999999999982,-0.01044056939300397
0.20929999999999982,-0.010477351886800462
0.20829999999999982,-0.010481596020700056
0.20729999999999982,-0.010509890246697358
0.20629999999999982,-0.010548087451793715
0.20529999999999982,-0.01061174946028764
0.20429999999999982,-0.010654190799283592
0.20329999999999981,-0.010634384841085481
0.2022999999999998,-0.010676826180081431
0.2012999999999998,-0.010727755786876573
0.20029999999999992,-0.010787173661470905
0.19929999999999992,-0.010831029711766721
0.19829999999999992,-0.01083668855696618
0.19729999999999992,-0.010863568071663617
0.19629999999999992,-0.010927230080157543
0.19529999999999992,-0.010975330264352956
0.19429999999999992,-0.011075774766643372
0.19329999999999992,-0.011075774766643372
0.19229999999999992,-0.011064457076244451
0.19129999999999991,-0.011116801394339458
0.1902999999999999,-0.011171975135034195
0.1892999999999999,-0.011205928206230956
0.1882999999999999,-0.011225734164429065
0.1872999999999999,-0.011222904741829336
0.1862999999999999,-0.011276663771224207
0.1852999999999999,-0.01135022875881719
0.1842999999999999,-0.011379937696114355
0.1832999999999999,-0.01139267009781314
0.1822999999999999,-0.011408231922111656
0.1812999999999999,-0.011459161528906798
0.1802999999999999,-0.011553947185997754
0.1792999999999999,-0.01156102074249708
0.1782999999999999,-0.011563850165096808
0.1772999999999999,-0.0116006326588933
0.1762999999999999,-0.011633171018790198
0.1752999999999999,-0.011729371387181019
0.1742999999999999,-0.011750592056678996
0.1732999999999999,-0.011754836190578589
0.1722999999999999,-0.011784545127875756
0.1712999999999999,-0.011812839353873056
0.1702999999999999,-0.011899136743164824
0.1692999999999999,-0.01193733394826118
0.1682999999999999,-0.01192884568046199
0.1672999999999999,-0.011958554617759154
0.1662999999999999,-0.012012313647154027
0.1652999999999999,-0.012074560944348087
0.1642999999999999,-0.012114172860744309
0.1632999999999999,-0.012112758149444444
0.1622999999999999,-0.012160858333639855
0.1612999999999999,-0.012200470250036077
0.1602999999999999,-0.012254229279430947
0.1592999999999999,-0.012309403020125686
0.15829999999999989,-0.012316476576625008
0.15729999999999988,-0.01234477080262231
0.15629999999999988,-0.012404188677216642
0.15529999999999988,-0.012456532995311648
0.15429999999999988,-0.012481997798709218
0.15329999999999988,-0.012508877313406655
0.15229999999999988,-0.012525853849005035
0.15129999999999988,-0.012571124610600715
0.15029999999999988,-0.012646104309493564
0.14929999999999988,-0.01267015440159127
0.14829999999999988,-0.01268713093718965
0.14729999999999988,-0.012699863338888435
0.14629999999999987,-0.012760695924782631
0.14529999999999987,-0.012837090334975343
0.14429999999999987,-0.012844163891474669
0.14329999999999987,-0.01288943465307035
0.14229999999999987,-0.012910655322568325
0.14129999999999987,-0.01294319368246522
0.14029999999999987,-0.013016758670058201
0.13929999999999987,-0.01302666164915726
0.13829999999999987,-0.013052126452554828
0.13729999999999987,-0.013079005967252264
0.13629999999999987,-0.01312569144014781
0.13529999999999986,-0.013186524026042009
0.13429999999999986,-0.013219062385938904
0.13329999999999986,-0.013221891808538633
0.13229999999999986,-0.013251600745835798
0.13129999999999986,-0.013289797950932155
0.13029999999999986,-0.013376095340223921
0.12929999999999986,-0.013425610235719199
0.12829999999999986,-0.013410048411420683
0.12729999999999986,-0.013446830905217174
0.12629999999999986,-0.013496345800712453
0.12529999999999986,-0.013564251943105973
0.12429999999999986,-0.013625084529000167
0.12329999999999985,-0.013612352127301384
0.12229999999999985,-0.013646305198498144
0.12129999999999985,-0.013683087692294635
0.12029999999999985,-0.013748164412088424
0.11929999999999985,-0.013803338152783165
0.11829999999999985,-0.013786361617184781
0.11729999999999985,-0.013837291223979923
0.11629999999999985,-0.0138868061194752
0.11529999999999985,-0.013939150437570205
0.11429999999999985,-0.014011300713863323
0.11329999999999985,-0.014005641868663864
0.11229999999999984,-0.014018374270362647
0.11129999999999984,-0.014084865701456305
0.11029999999999984,-0.014124477617852528
0.10929999999999984,-0.014175407224647668
0.10829999999999984,-0.014203701450644968
0.10729999999999984,-0.014203701450644968
0.10629999999999984,-0.01426028990263957
0.10529999999999984,-0.014331025467632824
0.10429999999999984,-0.014359319693630123
0.10329999999999984,-0.014387613919627423
0.10229999999999984,-0.014401761032626074
0.10129999999999983,-0.014458349484620674
0.10029999999999983,-0.014543232162612576
0.09929999999999983,-0.014557379275611227
0.09829999999999983,-0.014585673501608528
0.09729999999999983,-0.01461396772760583
0.09629999999999983,-0.014642261953603129
0.09529999999999983,-0.014741291744593682
0.09429999999999983,-0.014755438857592333
0.09329999999999983,-0.014769585970590984
0.09229999999999983,-0.014826174422585584
0.09129999999999983,-0.014868615761581536
0.09029999999999982,-0.014925204213576137
0.08929999999999982,-0.014967645552572089
0.08829999999999982,-0.014981792665570736
0.08729999999999982,-0.015024234004566688
0.08629999999999982,-0.015066675343562642
0.08529999999999982,-0.015123263795557243
0.08429999999999982,-0.015193999360550494
0.08329999999999982,-0.015179852247551842
0.08229999999999982,-0.015222293586547794
0.08129999999999982,-0.015250587812545097
0.08029999999999982,-0.015335470490536997
0.07929999999999982,-0.015392058942531598
0.07829999999999981,-0.015392058942531598
0.07729999999999981,-0.01543450028152755
0.07629999999999981,-0.015491088733522153
0.07529999999999992,-0.015561824298515404
0.07429999999999992,-0.015604265637511355
0.07329999999999992,-0.015604265637511355
0.07229999999999992,-0.015646706976507305
0.07129999999999992,-0.015703295428501907
0.07029999999999992,-0.01575988388049651
0.06929999999999992,-0.01580232521949246
0.06829999999999992,-0.01583061944548976
0.06729999999999992,-0.01585891367148706
0.06629999999999991,-0.015929649236480315
0.06529999999999991,-0.016000384801473564
0.06429999999999991,-0.016028679027470863
0.06329999999999991,-0.016042826140469518
0.06229999999999991,-0.016071120366466816
0.06129999999999991,-0.01611356170546277
0.06029999999999991,-0.01619844438345467
0.05929999999999991,-0.01624088572245062
0.05829999999999991,-0.016283327061446574
0.05729999999999991,-0.016283327061446574
0.056299999999999906,-0.016325768400442524
0.055299999999999905,-0.016410651078434424
0.054299999999999904,-0.016424798191433075
0.0532999999999999,-0.01646723953042903
0.0522999999999999,-0.01650968086942498
0.0512999999999999,-0.016537975095422278
0.0502999999999999,-0.016637004886412832
0.0492999999999999,-0.01666529911241013
0.0482999999999999,-0.016679446225408782
0.0472999999999999,-0.016750181790402035
0.0462999999999999,-0.016792623129397985
0.045299999999999896,-0.01687750580738989
0.044299999999999895,-0.01691994714638584
0.043299999999999894,-0.01691994714638584
0.04229999999999989,-0.016962388485381792
0.04129999999999989,-0.017018976937376393
0.04029999999999989,-0.017118006728366945
0.03929999999999989,-0.017174595180361543
0.03829999999999989,-0.017188742293360197
0.03729999999999989,-0.017217036519357496
0.03629999999999989,-0.017259477858353446
0.03529999999999989,-0.01734436053634535
0.034299999999999886,-0.0173868018753413
0.033299999999999885,-0.017400948988339954
0.032299999999999884,-0.017429243214337253
0.031299999999999883,-0.01748583166633185
0.030299999999999883,-0.017542420118326456
0.02929999999999988,-0.017599008570321057
0.02829999999999988,-0.017613155683319705
0.02729999999999988,-0.01768389124831296
0.02629999999999988,-0.01772633258730891
0.025299999999999878,-0.01781121526530081
0.024299999999999877,-0.01785365660429676
0.023299999999999876,-0.017867803717295416
0.022299999999999875,-0.017896097943292714
0.021299999999999875,-0.017966833508285963
0.020299999999999874,-0.018065863299276518
0.019299999999999873,-0.018108304638272472
0.018299999999999872,-0.01813659886426977
0.01729999999999987,-0.01817904020326572
0.01629999999999987,-0.01820733442926302
0.01529999999999987,-0.018306364220253574
0.014299999999999868,-0.018362952672248176
0.013299999999999867,-0.018391246898245478
0.012299999999999978,-0.018433688237241428
0.011299999999999866,-0.018461982463238727
0.010299999999999976,-0.018546865141230634
0.009299999999999864,-0.018617600706223883
0.008299999999999974,-0.018631747819222534
0.007299999999999862,-0.018688336271217135
0.006299999999999972,-0.018744924723211737
0.00529999999999986,-0.018815660288204986
0.0042999999999999705,-0.01887224874019959
0.0032999999999998586,-0.018886395853198238
0.0022999999999999687,-0.018957131418191494
0.0012999999999998568,-0.019013719870186095
0.00029999999999996696,-0.019098602548177995
-0.000700000000000145,-0.0191551910001726
-0.0017000000000000348,-0.0191551910001726
-0.0027000000000001467,-0.019211779452167198
-0.0037000000000000366,-0.0192966621301591
-0.0047000000000001485,-0.019381544808151
-0.005700000000000038,-0.019438133260145606
-0.00670000000000015,-0.019452280373144254
-0.00770000000000004,-0.01950886882513886
-0.008700000000000152,-0.019579604390132108
-0.009700000000000042,-0.01963619284212671
-0.010700000000000154,-0.01970692840711996
-0.011700000000000044,-0.019763516859114563
-0.012700000000000156,-0.019791811085111865
-0.013700000000000045,-0.019848399537106463
-0.014700000000000157,-0.019933282215098366
-0.015700000000000047,-0.01997572355409432
-0.01670000000000016,-0.020018164893090266
-0.01770000000000005,-0.02006060623208622
-0.01870000000000016,-0.020145488910078124
-0.01970000000000005,-0.020244518701068675
-0.020700000000000163,-0.020272812927065977
-0.021700000000000053,-0.020301107153063276
-0.022700000000000164,-0.020343548492059226
-0.023700000000000054,-0.02038598983105518
-0.024700000000000166,-0.020499166735044382
-0.025700000000000056,-0.02052746096104168
-0.026700000000000168,-0.020569902300037635
-0.027700000000000058,-0.020612343639033585
-0.02870000000000017,-0.020654784978029535
-0.02970000000000006,-0.020767961882018737
-0.03070000000000017,-0.020824550334013342
-0.03170000000000006,-0.020824550334013342
-0.03270000000000017,-0.020895285899006594
-0.03370000000000006,-0.020937727238002544
-0.034700000000000175,-0.021022609915994445
-0.035700000000000065,-0.021079198367989046
-0.03670000000000018,-0.021107492593986348
-0.03770000000000007,-0.021149933932982302
-0.03870000000000018,-0.02119237527197825
-0.03970000000000007,-0.021291405062968803
-0.04070000000000018,-0.021347993514963404
-0.04170000000000007,-0.021347993514963404
-0.04270000000000018,-0.021404581966958002
-0.04370000000000007,-0.021461170418952607
-0.044700000000000184,-0.02153190598394586
-0.045700000000000074,-0.021602641548939108
-0.046700000000000186,-0.02163093577493641
-0.047700000000000076,-0.02167337711393236
-0.04870000000000019,-0.021744112678925617
-0.04970000000000008,-0.021828995356917517
-0.05070000000000019,-0.02189973092191077
-0.05170000000000008,-0.021928025147908068
-0.05270000000000019,-0.02194217226090672
-0.05370000000000008,-0.02204120205189727
-0.05470000000000019,-0.022126084729889174
-0.05570000000000008,-0.022154378955886473
-0.056700000000000195,-0.022168526068885124
-0.057700000000000085,-0.022225114520879725
-0.058700000000000196,-0.022281702972874327
-0.059700000000000086,-0.022366585650866227
-0.0607000000000002,-0.02242317410286083
-0.06170000000000009,-0.022465615441856785
