Dec. 27, 2024   08:45:18
Cyclic Voltammetry
File: c:/users/guazh/data/banditlqround7_x0exp136_r20/2024-12-24-exp756\exp756-2024-12-27t08_40_20-h2koh\exp756_cv_50mvs_efin_-1400mv.bin
Data Source:  Experiment
Instrument Model:  CHI760E
Header: CV ran at 50 mVs
Note: 

Init E (V) = -1
High E (V) = -1
Low E (V) = -1.4
Final E (V) = -1
Init P/N = N
Scan Rate (V/s) = 0.05
Segment = 7
Sample Interval (V) = 0.001
Quiet Time (sec) = 60
Sensitivity (A/V) = 0.001
Comp R (ohm) = 1.5

Results:

Channel 1:
Segment 1:

Segment 2:

Segment 3:

Segment 4:

Segment 5:

Segment 6:

Segment 7:

Potential/V, Current/A

-1.000, 5.873e-5
-1.001, 1.457e-4
-1.002, 1.918e-4
-1.003, 2.206e-4
-1.004, 2.421e-4
-1.005, 2.547e-4
-1.006, 2.606e-4
-1.007, 2.646e-4
-1.008, 2.688e-4
-1.009, 2.754e-4
-1.010, 2.792e-4
-1.011, 2.791e-4
-1.012, 2.790e-4
-1.013, 2.808e-4
-1.014, 2.863e-4
-1.015, 2.902e-4
-1.016, 2.889e-4
-1.017, 2.874e-4
-1.018, 2.891e-4
-1.019, 2.938e-4
-1.020, 2.967e-4
-1.021, 2.941e-4
-1.022, 2.911e-4
-1.023, 2.928e-4
-1.024, 2.990e-4
-1.025, 3.022e-4
-1.026, 3.007e-4
-1.027, 2.995e-4
-1.028, 3.022e-4
-1.029, 3.059e-4
-1.030, 3.086e-4
-1.031, 3.073e-4
-1.032, 3.051e-4
-1.033, 3.071e-4
-1.034, 3.110e-4
-1.035, 3.140e-4
-1.036, 3.130e-4
-1.037, 3.120e-4
-1.038, 3.147e-4
-1.039, 3.189e-4
-1.040, 3.198e-4
-1.041, 3.200e-4
-1.042, 3.188e-4
-1.043, 3.217e-4
-1.044, 3.273e-4
-1.045, 3.296e-4
-1.046, 3.291e-4
-1.047, 3.290e-4
-1.048, 3.308e-4
-1.049, 3.360e-4
-1.050, 3.387e-4
-1.051, 3.375e-4
-1.052, 3.374e-4
-1.053, 3.391e-4
-1.054, 3.445e-4
-1.055, 3.485e-4
-1.056, 3.471e-4
-1.057, 3.467e-4
-1.058, 3.497e-4
-1.059, 3.545e-4
-1.060, 3.574e-4
-1.061, 3.561e-4
-1.062, 3.559e-4
-1.063, 3.592e-4
-1.064, 3.641e-4
-1.065, 3.677e-4
-1.066, 3.672e-4
-1.067, 3.666e-4
-1.068, 3.699e-4
-1.069, 3.743e-4
-1.070, 3.772e-4
-1.071, 3.771e-4
-1.072, 3.760e-4
-1.073, 3.793e-4
-1.074, 3.847e-4
-1.075, 3.881e-4
-1.076, 3.872e-4
-1.077, 3.858e-4
-1.078, 3.883e-4
-1.079, 3.941e-4
-1.080, 3.959e-4
-1.081, 3.953e-4
-1.082, 3.947e-4
-1.083, 3.973e-4
-1.084, 4.030e-4
-1.085, 4.048e-4
-1.086, 4.038e-4
-1.087, 4.029e-4
-1.088, 4.046e-4
-1.089, 4.097e-4
-1.090, 4.121e-4
-1.091, 4.104e-4
-1.092, 4.095e-4
-1.093, 4.112e-4
-1.094, 4.160e-4
-1.095, 4.180e-4
-1.096, 4.159e-4
-1.097, 4.149e-4
-1.098, 4.165e-4
-1.099, 4.210e-4
-1.100, 4.228e-4
-1.101, 4.209e-4
-1.102, 4.185e-4
-1.103, 4.198e-4
-1.104, 4.230e-4
-1.105, 4.251e-4
-1.106, 4.225e-4
-1.107, 4.207e-4
-1.108, 4.225e-4
-1.109, 4.258e-4
-1.110, 4.272e-4
-1.111, 4.239e-4
-1.112, 4.209e-4
-1.113, 4.222e-4
-1.114, 4.254e-4
-1.115, 4.264e-4
-1.116, 4.237e-4
-1.117, 4.201e-4
-1.118, 4.214e-4
-1.119, 4.253e-4
-1.120, 4.255e-4
-1.121, 4.219e-4
-1.122, 4.188e-4
-1.123, 4.187e-4
-1.124, 4.222e-4
-1.125, 4.221e-4
-1.126, 4.188e-4
-1.127, 4.158e-4
-1.128, 4.152e-4
-1.129, 4.176e-4
-1.130, 4.180e-4
-1.131, 4.147e-4
-1.132, 4.124e-4
-1.133, 4.121e-4
-1.134, 4.146e-4
-1.135, 4.149e-4
-1.136, 4.111e-4
-1.137, 4.083e-4
-1.138, 4.089e-4
-1.139, 4.109e-4
-1.140, 4.109e-4
-1.141, 4.071e-4
-1.142, 4.035e-4
-1.143, 4.045e-4
-1.144, 4.067e-4
-1.145, 4.075e-4
-1.146, 4.039e-4
-1.147, 4.002e-4
-1.148, 4.010e-4
-1.149, 4.032e-4
-1.150, 4.034e-4
-1.151, 3.998e-4
-1.152, 3.972e-4
-1.153, 3.997e-4
-1.154, 4.024e-4
-1.155, 4.020e-4
-1.156, 3.991e-4
-1.157, 3.954e-4
-1.158, 3.968e-4
-1.159, 3.993e-4
-1.160, 4.000e-4
-1.161, 3.978e-4
-1.162, 3.949e-4
-1.163, 3.957e-4
-1.164, 3.996e-4
-1.165, 3.999e-4
-1.166, 3.974e-4
-1.167, 3.961e-4
-1.168, 3.980e-4
-1.169, 4.017e-4
-1.170, 4.021e-4
-1.171, 3.998e-4
-1.172, 3.984e-4
-1.173, 3.994e-4
-1.174, 4.024e-4
-1.175, 4.045e-4
-1.176, 4.022e-4
-1.177, 4.015e-4
-1.178, 4.030e-4
-1.179, 4.062e-4
-1.180, 4.080e-4
-1.181, 4.068e-4
-1.182, 4.070e-4
-1.183, 4.103e-4
-1.184, 4.147e-4
-1.185, 4.159e-4
-1.186, 4.148e-4
-1.187, 4.146e-4
-1.188, 4.184e-4
-1.189, 4.227e-4
-1.190, 4.256e-4
-1.191, 4.246e-4
-1.192, 4.237e-4
-1.193, 4.277e-4
-1.194, 4.332e-4
-1.195, 4.362e-4
-1.196, 4.367e-4
-1.197, 4.363e-4
-1.198, 4.405e-4
-1.199, 4.470e-4
-1.200, 4.501e-4
-1.201, 4.510e-4
-1.202, 4.516e-4
-1.203, 4.567e-4
-1.204, 4.642e-4
-1.205, 4.673e-4
-1.206, 4.690e-4
-1.207, 4.709e-4
-1.208, 4.759e-4
-1.209, 4.839e-4
-1.210, 4.883e-4
-1.211, 4.907e-4
-1.212, 4.945e-4
-1.213, 5.004e-4
-1.214, 5.082e-4
-1.215, 5.128e-4
-1.216, 5.144e-4
-1.217, 5.178e-4
-1.218, 5.252e-4
-1.219, 5.353e-4
-1.220, 5.426e-4
-1.221, 5.460e-4
-1.222, 5.503e-4
-1.223, 5.586e-4
-1.224, 5.695e-4
-1.225, 5.770e-4
-1.226, 5.817e-4
-1.227, 5.867e-4
-1.228, 5.967e-4
-1.229, 6.102e-4
-1.230, 6.185e-4
-1.231, 6.241e-4
-1.232, 6.304e-4
-1.233, 6.415e-4
-1.234, 6.542e-4
-1.235, 6.649e-4
-1.236, 6.721e-4
-1.237, 6.793e-4
-1.238, 6.920e-4
-1.239, 7.069e-4
-1.240, 7.190e-4
-1.241, 7.292e-4
-1.242, 7.383e-4
-1.243, 7.516e-4
-1.244, 7.674e-4
-1.245, 7.809e-4
-1.246, 7.928e-4
-1.247, 8.053e-4
-1.248, 8.218e-4
-1.249, 8.406e-4
-1.250, 8.562e-4
-1.251, 8.692e-4
-1.252, 8.835e-4
-1.253, 9.017e-4
-1.254, 9.221e-4
-1.255, 9.402e-4
-1.256, 9.539e-4
-1.257, 9.716e-4
-1.258, 9.932e-4
-1.259, 1.016e-3
-1.260, 1.037e-3
-1.261, 1.055e-3
-1.262, 1.073e-3
-1.263, 1.095e-3
-1.264, 1.123e-3
-1.265, 1.147e-3
-1.266, 1.168e-3
-1.267, 1.190e-3
-1.268, 1.217e-3
-1.269, 1.245e-3
-1.270, 1.271e-3
-1.271, 1.295e-3
-1.272, 1.320e-3
-1.273, 1.352e-3
-1.274, 1.385e-3
-1.275, 1.416e-3
-1.276, 1.443e-3
-1.277, 1.471e-3
-1.278, 1.503e-3
-1.279, 1.538e-3
-1.280, 1.572e-3
-1.281, 1.603e-3
-1.282, 1.636e-3
-1.283, 1.670e-3
-1.284, 1.709e-3
-1.285, 1.745e-3
-1.286, 1.779e-3
-1.287, 1.819e-3
-1.288, 1.860e-3
-1.289, 1.904e-3
-1.290, 1.944e-3
-1.291, 1.982e-3
-1.292, 2.020e-3
-1.293, 2.065e-3
-1.294, 2.114e-3
-1.295, 2.157e-3
-1.296, 2.199e-3
-1.297, 2.244e-3
-1.298, 2.293e-3
-1.299, 2.343e-3
-1.300, 2.389e-3
-1.301, 2.435e-3
-1.302, 2.485e-3
-1.303, 2.538e-3
-1.304, 2.591e-3
-1.305, 2.643e-3
-1.306, 2.693e-3
-1.307, 2.744e-3
-1.308, 2.801e-3
-1.309, 2.855e-3
-1.310, 2.913e-3
-1.311, 2.969e-3
-1.312, 3.022e-3
-1.313, 3.079e-3
-1.314, 3.143e-3
-1.315, 3.204e-3
-1.316, 3.263e-3
-1.317, 3.319e-3
-1.318, 3.382e-3
-1.319, 3.445e-3
-1.320, 3.509e-3
-1.321, 3.569e-3
-1.322, 3.633e-3
-1.323, 3.697e-3
-1.324, 3.763e-3
-1.325, 3.828e-3
-1.326, 3.895e-3
-1.327, 3.958e-3
-1.328, 4.025e-3
-1.329, 4.099e-3
-1.330, 4.168e-3
-1.331, 4.238e-3
-1.332, 4.310e-3
-1.333, 4.383e-3
-1.334, 4.454e-3
-1.335, 4.522e-3
-1.336, 4.587e-3
-1.337, 4.660e-3
-1.338, 4.727e-3
-1.339, 4.802e-3
-1.340, 4.872e-3
-1.341, 4.940e-3
-1.342, 5.012e-3
-1.343, 5.083e-3
-1.344, 5.161e-3
-1.345, 5.235e-3
-1.346, 5.301e-3
-1.347, 5.381e-3
-1.348, 5.458e-3
-1.349, 5.530e-3
-1.350, 5.595e-3
-1.351, 5.666e-3
-1.352, 5.739e-3
-1.353, 5.823e-3
-1.354, 5.893e-3
-1.355, 5.970e-3
-1.356, 6.036e-3
-1.357, 6.114e-3
-1.358, 6.193e-3
-1.359, 6.268e-3
-1.360, 6.343e-3
-1.361, 6.410e-3
-1.362, 6.484e-3
-1.363, 6.564e-3
-1.364, 6.647e-3
-1.365, 6.724e-3
-1.366, 6.799e-3
-1.367, 6.872e-3
-1.368, 6.948e-3
-1.369, 7.021e-3
-1.370, 7.095e-3
-1.371, 7.167e-3
-1.372, 7.245e-3
-1.373, 7.321e-3
-1.374, 7.394e-3
-1.375, 7.472e-3
-1.376, 7.551e-3
-1.377, 7.648e-3
-1.378, 7.726e-3
-1.379, 7.809e-3
-1.380, 7.852e-3
-1.381, 7.912e-3
-1.382, 7.964e-3
-1.383, 8.058e-3
-1.384, 8.145e-3
-1.385, 8.222e-3
-1.386, 8.282e-3
-1.387, 8.373e-3
-1.388, 8.454e-3
-1.389, 8.545e-3
-1.390, 8.612e-3
-1.391, 8.674e-3
-1.392, 8.734e-3
-1.393, 8.800e-3
-1.394, 8.864e-3
-1.395, 8.924e-3
-1.396, 8.997e-3
-1.397, 9.084e-3
-1.398, 9.149e-3
-1.399, 9.232e-3
-1.400, 9.181e-3
-1.399, 9.026e-3
-1.398, 8.906e-3
-1.397, 8.813e-3
-1.396, 8.710e-3
-1.395, 8.576e-3
-1.394, 8.490e-3
-1.393, 8.403e-3
-1.392, 8.292e-3
-1.391, 8.182e-3
-1.390, 8.079e-3
-1.389, 8.009e-3
-1.388, 7.903e-3
-1.387, 7.808e-3
-1.386, 7.698e-3
-1.385, 7.597e-3
-1.384, 7.507e-3
-1.383, 7.388e-3
-1.382, 7.295e-3
-1.381, 7.201e-3
-1.380, 7.086e-3
-1.379, 7.006e-3
-1.378, 6.908e-3
-1.377, 6.806e-3
-1.376, 6.709e-3
-1.375, 6.649e-3
-1.374, 6.566e-3
-1.373, 6.513e-3
-1.372, 6.411e-3
-1.371, 6.335e-3
-1.370, 6.253e-3
-1.369, 6.167e-3
-1.368, 6.070e-3
-1.367, 5.986e-3
-1.366, 5.909e-3
-1.365, 5.827e-3
-1.364, 5.725e-3
-1.363, 5.665e-3
-1.362, 5.582e-3
-1.361, 5.527e-3
-1.360, 5.451e-3
-1.359, 5.361e-3
-1.358, 5.298e-3
-1.357, 5.218e-3
-1.356, 5.154e-3
-1.355, 5.092e-3
-1.354, 5.033e-3
-1.353, 5.008e-3
-1.352, 4.918e-3
-1.351, 4.861e-3
-1.350, 4.777e-3
-1.349, 4.713e-3
-1.348, 4.637e-3
-1.347, 4.564e-3
-1.346, 4.510e-3
-1.345, 4.449e-3
-1.344, 4.363e-3
-1.343, 4.301e-3
-1.342, 4.239e-3
-1.341, 4.175e-3
-1.340, 4.111e-3
-1.339, 4.038e-3
-1.338, 3.981e-3
-1.337, 3.920e-3
-1.336, 3.857e-3
-1.335, 3.790e-3
-1.334, 3.746e-3
-1.333, 3.698e-3
-1.332, 3.670e-3
-1.331, 3.660e-3
-1.330, 3.621e-3
-1.329, 3.526e-3
-1.328, 3.440e-3
-1.327, 3.375e-3
-1.326, 3.323e-3
-1.325, 3.271e-3
-1.324, 3.237e-3
-1.323, 3.168e-3
-1.322, 3.116e-3
-1.321, 3.071e-3
-1.320, 3.014e-3
-1.319, 2.945e-3
-1.318, 2.883e-3
-1.317, 2.825e-3
-1.316, 2.768e-3
-1.315, 2.725e-3
-1.314, 2.671e-3
-1.313, 2.619e-3
-1.312, 2.564e-3
-1.311, 2.517e-3
-1.310, 2.460e-3
-1.309, 2.403e-3
-1.308, 2.353e-3
-1.307, 2.311e-3
-1.306, 2.267e-3
-1.305, 2.208e-3
-1.304, 2.156e-3
-1.303, 2.102e-3
-1.302, 2.058e-3
-1.301, 2.014e-3
-1.300, 1.967e-3
-1.299, 1.916e-3
-1.298, 1.870e-3
-1.297, 1.827e-3
-1.296, 1.784e-3
-1.295, 1.746e-3
-1.294, 1.693e-3
-1.293, 1.647e-3
-1.292, 1.604e-3
-1.291, 1.569e-3
-1.290, 1.526e-3
-1.289, 1.483e-3
-1.288, 1.443e-3
-1.287, 1.405e-3
-1.286, 1.371e-3
-1.285, 1.341e-3
-1.284, 1.296e-3
-1.283, 1.257e-3
-1.282, 1.221e-3
-1.281, 1.216e-3
-1.280, 1.208e-3
-1.279, 1.160e-3
-1.278, 1.111e-3
-1.277, 1.073e-3
-1.276, 1.041e-3
-1.275, 1.006e-3
-1.274, 9.724e-4
-1.273, 9.390e-4
-1.272, 9.093e-4
-1.271, 8.824e-4
-1.270, 8.514e-4
-1.269, 8.173e-4
-1.268, 7.864e-4
-1.267, 7.583e-4
-1.266, 7.308e-4
-1.265, 7.021e-4
-1.264, 6.714e-4
-1.263, 6.418e-4
-1.262, 6.156e-4
-1.261, 5.923e-4
-1.260, 5.673e-4
-1.259, 5.391e-4
-1.258, 5.109e-4
-1.257, 4.884e-4
-1.256, 4.690e-4
-1.255, 4.457e-4
-1.254, 4.205e-4
-1.253, 3.976e-4
-1.252, 3.770e-4
-1.251, 3.596e-4
-1.250, 3.395e-4
-1.249, 3.162e-4
-1.248, 2.949e-4
-1.247, 2.756e-4
-1.246, 2.593e-4
-1.245, 2.420e-4
-1.244, 2.219e-4
-1.243, 2.031e-4
-1.242, 1.870e-4
-1.241, 1.725e-4
-1.240, 1.564e-4
-1.239, 1.381e-4
-1.238, 1.205e-4
-1.237, 1.079e-4
-1.236, 9.615e-5
-1.235, 8.223e-5
-1.234, 6.540e-5
-1.233, 5.030e-5
-1.232, 3.916e-5
-1.231, 2.888e-5
-1.230, 1.699e-5
-1.229, -6.827e-8
-1.228, -1.352e-5
-1.227, -2.233e-5
-1.226, -2.975e-5
-1.225, -4.053e-5
-1.224, -5.274e-5
-1.223, -6.458e-5
-1.222, -7.289e-5
-1.221, -7.876e-5
-1.220, -8.799e-5
-1.219, -9.894e-5
-1.218, -1.095e-4
-1.217, -1.167e-4
-1.216, -1.213e-4
-1.215, -1.290e-4
-1.214, -1.392e-4
-1.213, -1.478e-4
-1.212, -1.535e-4
-1.211, -1.568e-4
-1.210, -1.633e-4
-1.209, -1.724e-4
-1.208, -1.796e-4
-1.207, -1.846e-4
-1.206, -1.879e-4
-1.205, -1.930e-4
-1.204, -2.009e-4
-1.203, -2.071e-4
-1.202, -2.104e-4
-1.201, -2.127e-4
-1.200, -2.166e-4
-1.199, -2.241e-4
-1.198, -2.303e-4
-1.197, -2.326e-4
-1.196, -2.335e-4
-1.195, -2.368e-4
-1.194, -2.425e-4
-1.193, -2.499e-4
-1.192, -2.502e-4
-1.191, -2.503e-4
-1.190, -2.535e-4
-1.189, -2.586e-4
-1.188, -2.637e-4
-1.187, -2.647e-4
-1.186, -2.648e-4
-1.185, -2.672e-4
-1.184, -2.714e-4
-1.183, -2.757e-4
-1.182, -2.768e-4
-1.181, -2.761e-4
-1.180, -2.787e-4
-1.179, -2.831e-4
-1.178, -2.873e-4
-1.177, -2.881e-4
-1.176, -2.846e-4
-1.175, -2.874e-4
-1.174, -2.937e-4
-1.173, -2.949e-4
-1.172, -2.934e-4
-1.171, -2.910e-4
-1.170, -2.926e-4
-1.169, -2.976e-4
-1.168, -3.013e-4
-1.167, -3.020e-4
-1.166, -2.990e-4
-1.165, -2.994e-4
-1.164, -3.031e-4
-1.163, -3.058e-4
-1.162, -3.047e-4
-1.161, -3.022e-4
-1.160, -3.030e-4
-1.159, -3.068e-4
-1.158, -3.102e-4
-1.157, -3.084e-4
-1.156, -3.069e-4
-1.155, -3.070e-4
-1.154, -3.104e-4
-1.153, -3.130e-4
-1.152, -3.116e-4
-1.151, -3.086e-4
-1.150, -3.092e-4
-1.149, -3.116e-4
-1.148, -3.140e-4
-1.147, -3.126e-4
-1.146, -3.094e-4
-1.145, -3.100e-4
-1.144, -3.129e-4
-1.143, -3.155e-4
-1.142, -3.152e-4
-1.141, -3.113e-4
-1.140, -3.120e-4
-1.139, -3.150e-4
-1.138, -3.171e-4
-1.137, -3.194e-4
-1.136, -3.148e-4
-1.135, -3.141e-4
-1.134, -3.167e-4
-1.133, -3.186e-4
-1.132, -3.180e-4
-1.131, -3.147e-4
-1.130, -3.144e-4
-1.129, -3.163e-4
-1.128, -3.175e-4
-1.127, -3.173e-4
-1.126, -3.153e-4
-1.125, -3.149e-4
-1.124, -3.179e-4
-1.123, -3.198e-4
-1.122, -3.206e-4
-1.121, -3.181e-4
-1.120, -3.167e-4
-1.119, -3.206e-4
-1.118, -3.219e-4
-1.117, -3.197e-4
-1.116, -3.174e-4
-1.115, -3.174e-4
-1.114, -3.195e-4
-1.113, -3.219e-4
-1.112, -3.202e-4
-1.111, -3.169e-4
-1.110, -3.176e-4
-1.109, -3.195e-4
-1.108, -3.226e-4
-1.107, -3.211e-4
-1.106, -3.184e-4
-1.105, -3.191e-4
-1.104, -3.219e-4
-1.103, -3.239e-4
-1.102, -3.220e-4
-1.101, -3.190e-4
-1.100, -3.194e-4
-1.099, -3.223e-4
-1.098, -3.246e-4
-1.097, -3.233e-4
-1.096, -3.198e-4
-1.095, -3.215e-4
-1.094, -3.254e-4
-1.093, -3.275e-4
-1.092, -3.254e-4
-1.091, -3.214e-4
-1.090, -3.218e-4
-1.089, -3.254e-4
-1.088, -3.279e-4
-1.087, -3.267e-4
-1.086, -3.244e-4
-1.085, -3.241e-4
-1.084, -3.266e-4
-1.083, -3.284e-4
-1.082, -3.271e-4
-1.081, -3.246e-4
-1.080, -3.243e-4
-1.079, -3.280e-4
-1.078, -3.305e-4
-1.077, -3.288e-4
-1.076, -3.273e-4
-1.075, -3.285e-4
-1.074, -3.313e-4
-1.073, -3.346e-4
-1.072, -3.327e-4
-1.071, -3.299e-4
-1.070, -3.305e-4
-1.069, -3.330e-4
-1.068, -3.355e-4
-1.067, -3.336e-4
-1.066, -3.315e-4
-1.065, -3.321e-4
-1.064, -3.349e-4
-1.063, -3.376e-4
-1.062, -3.368e-4
-1.061, -3.337e-4
-1.060, -3.356e-4
-1.059, -3.385e-4
-1.058, -3.409e-4
-1.057, -3.404e-4
-1.056, -3.373e-4
-1.055, -3.380e-4
-1.054, -3.410e-4
-1.053, -3.438e-4
-1.052, -3.430e-4
-1.051, -3.404e-4
-1.050, -3.415e-4
-1.049, -3.452e-4
-1.048, -3.472e-4
-1.047, -3.467e-4
-1.046, -3.444e-4
-1.045, -3.456e-4
-1.044, -3.492e-4
-1.043, -3.518e-4
-1.042, -3.508e-4
-1.041, -3.491e-4
-1.040, -3.495e-4
-1.039, -3.537e-4
-1.038, -3.567e-4
-1.037, -3.554e-4
-1.036, -3.539e-4
-1.035, -3.553e-4
-1.034, -3.587e-4
-1.033, -3.625e-4
-1.032, -3.610e-4
-1.031, -3.592e-4
-1.030, -3.608e-4
-1.029, -3.657e-4
-1.028, -3.703e-4
-1.027, -3.687e-4
-1.026, -3.647e-4
-1.025, -3.670e-4
-1.024, -3.719e-4
-1.023, -3.754e-4
-1.022, -3.753e-4
-1.021, -3.732e-4
-1.020, -3.752e-4
-1.019, -3.796e-4
-1.018, -3.836e-4
-1.017, -3.840e-4
-1.016, -3.826e-4
-1.015, -3.842e-4
-1.014, -3.884e-4
-1.013, -3.914e-4
-1.012, -3.923e-4
-1.011, -3.918e-4
-1.010, -3.938e-4
-1.009, -3.984e-4
-1.008, -4.018e-4
-1.007, -4.026e-4
-1.006, -4.021e-4
-1.005, -4.043e-4
-1.004, -4.099e-4
-1.003, -4.142e-4
-1.002, -4.150e-4
-1.001, -4.149e-4
-1.000, -3.023e-4
-1.001, -1.277e-4
-1.002, -2.525e-5
-1.003, 4.282e-5
-1.004, 9.018e-5
-1.005, 1.203e-4
-1.006, 1.398e-4
-1.007, 1.553e-4
-1.008, 1.697e-4
-1.009, 1.841e-4
-1.010, 1.928e-4
-1.011, 1.974e-4
-1.012, 2.025e-4
-1.013, 2.095e-4
-1.014, 2.178e-4
-1.015, 2.226e-4
-1.016, 2.233e-4
-1.017, 2.247e-4
-1.018, 2.280e-4
-1.019, 2.349e-4
-1.020, 2.383e-4
-1.021, 2.371e-4
-1.022, 2.376e-4
-1.023, 2.418e-4
-1.024, 2.465e-4
-1.025, 2.482e-4
-1.026, 2.465e-4
-1.027, 2.458e-4
-1.028, 2.496e-4
-1.029, 2.532e-4
-1.030, 2.541e-4
-1.031, 2.525e-4
-1.032, 2.513e-4
-1.033, 2.541e-4
-1.034, 2.579e-4
-1.035, 2.578e-4
-1.036, 2.559e-4
-1.037, 2.542e-4
-1.038, 2.567e-4
-1.039, 2.604e-4
-1.040, 2.604e-4
-1.041, 2.585e-4
-1.042, 2.569e-4
-1.043, 2.585e-4
-1.044, 2.623e-4
-1.045, 2.626e-4
-1.046, 2.600e-4
-1.047, 2.586e-4
-1.048, 2.602e-4
-1.049, 2.632e-4
-1.050, 2.630e-4
-1.051, 2.600e-4
-1.052, 2.588e-4
-1.053, 2.609e-4
-1.054, 2.650e-4
-1.055, 2.651e-4
-1.056, 2.616e-4
-1.057, 2.598e-4
-1.058, 2.612e-4
-1.059, 2.642e-4
-1.060, 2.645e-4
-1.061, 2.609e-4
-1.062, 2.601e-4
-1.063, 2.623e-4
-1.064, 2.642e-4
-1.065, 2.640e-4
-1.066, 2.604e-4
-1.067, 2.586e-4
-1.068, 2.610e-4
-1.069, 2.645e-4
-1.070, 2.642e-4
-1.071, 2.621e-4
-1.072, 2.603e-4
-1.073, 2.623e-4
-1.074, 2.651e-4
-1.075, 2.656e-4
-1.076, 2.626e-4
-1.077, 2.597e-4
-1.078, 2.616e-4
-1.079, 2.635e-4
-1.080, 2.630e-4
-1.081, 2.612e-4
-1.082, 2.594e-4
-1.083, 2.612e-4
-1.084, 2.642e-4
-1.085, 2.637e-4
-1.086, 2.613e-4
-1.087, 2.597e-4
-1.088, 2.612e-4
-1.089, 2.646e-4
-1.090, 2.645e-4
-1.091, 2.617e-4
-1.092, 2.604e-4
-1.093, 2.611e-4
-1.094, 2.646e-4
-1.095, 2.645e-4
-1.096, 2.612e-4
-1.097, 2.602e-4
-1.098, 2.623e-4
-1.099, 2.660e-4
-1.100, 2.658e-4
-1.101, 2.626e-4
-1.102, 2.609e-4
-1.103, 2.633e-4
-1.104, 2.658e-4
-1.105, 2.657e-4
-1.106, 2.629e-4
-1.107, 2.609e-4
-1.108, 2.630e-4
-1.109, 2.653e-4
-1.110, 2.654e-4
-1.111, 2.627e-4
-1.112, 2.611e-4
-1.113, 2.636e-4
-1.114, 2.666e-4
-1.115, 2.662e-4
-1.116, 2.630e-4
-1.117, 2.613e-4
-1.118, 2.641e-4
-1.119, 2.682e-4
-1.120, 2.686e-4
-1.121, 2.657e-4
-1.122, 2.640e-4
-1.123, 2.656e-4
-1.124, 2.693e-4
-1.125, 2.690e-4
-1.126, 2.661e-4
-1.127, 2.650e-4
-1.128, 2.669e-4
-1.129, 2.705e-4
-1.130, 2.707e-4
-1.131, 2.685e-4
-1.132, 2.672e-4
-1.133, 2.688e-4
-1.134, 2.723e-4
-1.135, 2.726e-4
-1.136, 2.698e-4
-1.137, 2.688e-4
-1.138, 2.709e-4
-1.139, 2.752e-4
-1.140, 2.768e-4
-1.141, 2.732e-4
-1.142, 2.718e-4
-1.143, 2.740e-4
-1.144, 2.769e-4
-1.145, 2.782e-4
-1.146, 2.770e-4
-1.147, 2.755e-4
-1.148, 2.780e-4
-1.149, 2.818e-4
-1.150, 2.816e-4
-1.151, 2.791e-4
-1.152, 2.777e-4
-1.153, 2.806e-4
-1.154, 2.843e-4
-1.155, 2.846e-4
-1.156, 2.830e-4
-1.157, 2.813e-4
-1.158, 2.850e-4
-1.159, 2.898e-4
-1.160, 2.898e-4
-1.161, 2.879e-4
-1.162, 2.868e-4
-1.163, 2.895e-4
-1.164, 2.940e-4
-1.165, 2.948e-4
-1.166, 2.931e-4
-1.167, 2.930e-4
-1.168, 2.958e-4
-1.169, 3.001e-4
-1.170, 3.011e-4
-1.171, 2.998e-4
-1.172, 2.998e-4
-1.173, 3.022e-4
-1.174, 3.069e-4
-1.175, 3.084e-4
-1.176, 3.067e-4
-1.177, 3.078e-4
-1.178, 3.119e-4
-1.179, 3.162e-4
-1.180, 3.182e-4
-1.181, 3.164e-4
-1.182, 3.163e-4
-1.183, 3.202e-4
-1.184, 3.247e-4
-1.185, 3.276e-4
-1.186, 3.268e-4
-1.187, 3.271e-4
-1.188, 3.313e-4
-1.189, 3.353e-4
-1.190, 3.390e-4
-1.191, 3.394e-4
-1.192, 3.403e-4
-1.193, 3.452e-4
-1.194, 3.504e-4
-1.195, 3.527e-4
-1.196, 3.527e-4
-1.197, 3.540e-4
-1.198, 3.602e-4
-1.199, 3.666e-4
-1.200, 3.689e-4
-1.201, 3.705e-4
-1.202, 3.719e-4
-1.203, 3.778e-4
-1.204, 3.848e-4
-1.205, 3.876e-4
-1.206, 3.891e-4
-1.207, 3.933e-4
-1.208, 3.992e-4
-1.209, 4.055e-4
-1.210, 4.098e-4
-1.211, 4.116e-4
-1.212, 4.153e-4
-1.213, 4.224e-4
-1.214, 4.310e-4
-1.215, 4.367e-4
-1.216, 4.386e-4
-1.217, 4.426e-4
-1.218, 4.511e-4
-1.219, 4.594e-4
-1.220, 4.662e-4
-1.221, 4.696e-4
-1.222, 4.754e-4
-1.223, 4.840e-4
-1.224, 4.935e-4
-1.225, 5.009e-4
-1.226, 5.055e-4
-1.227, 5.122e-4
-1.228, 5.223e-4
-1.229, 5.367e-4
-1.230, 5.444e-4
-1.231, 5.504e-4
-1.232, 5.571e-4
-1.233, 5.677e-4
-1.234, 5.799e-4
-1.235, 5.892e-4
-1.236, 5.963e-4
-1.237, 6.048e-4
-1.238, 6.177e-4
-1.239, 6.315e-4
-1.240, 6.429e-4
-1.241, 6.522e-4
-1.242, 6.624e-4
-1.243, 6.757e-4
-1.244, 6.921e-4
-1.245, 7.027e-4
-1.246, 7.144e-4
-1.247, 7.286e-4
-1.248, 7.458e-4
-1.249, 7.648e-4
-1.250, 7.785e-4
-1.251, 7.896e-4
-1.252, 8.032e-4
-1.253, 8.202e-4
-1.254, 8.409e-4
-1.255, 8.582e-4
-1.256, 8.722e-4
-1.257, 8.902e-4
-1.258, 9.113e-4
-1.259, 9.322e-4
-1.260, 9.512e-4
-1.261, 9.692e-4
-1.262, 9.880e-4
-1.263, 1.009e-3
-1.264, 1.034e-3
-1.265, 1.057e-3
-1.266, 1.076e-3
-1.267, 1.097e-3
-1.268, 1.124e-3
-1.269, 1.150e-3
-1.270, 1.174e-3
-1.271, 1.196e-3
-1.272, 1.219e-3
-1.273, 1.248e-3
-1.274, 1.278e-3
-1.275, 1.305e-3
-1.276, 1.333e-3
-1.277, 1.360e-3
-1.278, 1.393e-3
-1.279, 1.425e-3
-1.280, 1.456e-3
-1.281, 1.484e-3
-1.282, 1.517e-3
-1.283, 1.553e-3
-1.284, 1.590e-3
-1.285, 1.622e-3
-1.286, 1.652e-3
-1.287, 1.688e-3
-1.288, 1.725e-3
-1.289, 1.764e-3
-1.290, 1.800e-3
-1.291, 1.834e-3
-1.292, 1.873e-3
-1.293, 1.920e-3
-1.294, 1.962e-3
-1.295, 2.001e-3
-1.296, 2.032e-3
-1.297, 2.071e-3
-1.298, 2.119e-3
-1.299, 2.168e-3
-1.300, 2.214e-3
-1.301, 2.254e-3
-1.302, 2.299e-3
-1.303, 2.346e-3
-1.304, 2.394e-3
-1.305, 2.444e-3
-1.306, 2.488e-3
-1.307, 2.534e-3
-1.308, 2.586e-3
-1.309, 2.639e-3
-1.310, 2.692e-3
-1.311, 2.738e-3
-1.312, 2.789e-3
-1.313, 2.840e-3
-1.314, 2.892e-3
-1.315, 2.941e-3
-1.316, 2.997e-3
-1.317, 3.054e-3
-1.318, 3.118e-3
-1.319, 3.167e-3
-1.320, 3.217e-3
-1.321, 3.274e-3
-1.322, 3.331e-3
-1.323, 3.386e-3
-1.324, 3.449e-3
-1.325, 3.512e-3
-1.326, 3.572e-3
-1.327, 3.628e-3
-1.328, 3.683e-3
-1.329, 3.751e-3
-1.330, 3.812e-3
-1.331, 3.865e-3
-1.332, 3.930e-3
-1.333, 3.996e-3
-1.334, 4.060e-3
-1.335, 4.125e-3
-1.336, 4.187e-3
-1.337, 4.251e-3
-1.338, 4.322e-3
-1.339, 4.398e-3
-1.340, 4.457e-3
-1.341, 4.511e-3
-1.342, 4.587e-3
-1.343, 4.652e-3
-1.344, 4.713e-3
-1.345, 4.780e-3
-1.346, 4.846e-3
-1.347, 4.914e-3
-1.348, 4.976e-3
-1.349, 5.044e-3
-1.350, 5.115e-3
-1.351, 5.186e-3
-1.352, 5.253e-3
-1.353, 5.327e-3
-1.354, 5.401e-3
-1.355, 5.466e-3
-1.356, 5.528e-3
-1.357, 5.587e-3
-1.358, 5.669e-3
-1.359, 5.736e-3
-1.360, 5.810e-3
-1.361, 5.883e-3
-1.362, 5.958e-3
-1.363, 6.030e-3
-1.364, 6.115e-3
-1.365, 6.213e-3
-1.366, 6.291e-3
-1.367, 6.358e-3
-1.368, 6.423e-3
-1.369, 6.490e-3
-1.370, 6.554e-3
-1.371, 6.615e-3
-1.372, 6.689e-3
-1.373, 6.771e-3
-1.374, 6.853e-3
-1.375, 6.908e-3
-1.376, 6.966e-3
-1.377, 7.046e-3
-1.378, 7.122e-3
-1.379, 7.203e-3
-1.380, 7.275e-3
-1.381, 7.343e-3
-1.382, 7.409e-3
-1.383, 7.479e-3
-1.384, 7.563e-3
-1.385, 7.622e-3
-1.386, 7.687e-3
-1.387, 7.766e-3
-1.388, 7.839e-3
-1.389, 7.915e-3
-1.390, 7.986e-3
-1.391, 8.063e-3
-1.392, 8.139e-3
-1.393, 8.210e-3
-1.394, 8.281e-3
-1.395, 8.349e-3
-1.396, 8.423e-3
-1.397, 8.495e-3
-1.398, 8.578e-3
-1.399, 8.652e-3
-1.400, 8.601e-3
-1.399, 8.474e-3
-1.398, 8.351e-3
-1.397, 8.251e-3
-1.396, 8.174e-3
-1.395, 8.130e-3
-1.394, 8.019e-3
-1.393, 7.960e-3
-1.392, 7.844e-3
-1.391, 7.728e-3
-1.390, 7.637e-3
-1.389, 7.520e-3
-1.388, 7.459e-3
-1.387, 7.362e-3
-1.386, 7.295e-3
-1.385, 7.197e-3
-1.384, 7.118e-3
-1.383, 7.007e-3
-1.382, 6.923e-3
-1.381, 6.871e-3
-1.380, 6.768e-3
-1.379, 6.639e-3
-1.378, 6.556e-3
-1.377, 6.532e-3
-1.376, 6.402e-3
-1.375, 6.297e-3
-1.374, 6.257e-3
-1.373, 6.152e-3
-1.372, 6.090e-3
-1.371, 6.027e-3
-1.370, 5.937e-3
-1.369, 5.830e-3
-1.368, 5.737e-3
-1.367, 5.684e-3
-1.366, 5.634e-3
-1.365, 5.597e-3
-1.364, 5.554e-3
-1.363, 5.455e-3
-1.362, 5.411e-3
-1.361, 5.333e-3
-1.360, 5.253e-3
-1.359, 5.172e-3
-1.358, 5.089e-3
-1.357, 5.016e-3
-1.356, 4.969e-3
-1.355, 4.932e-3
-1.354, 4.874e-3
-1.353, 4.784e-3
-1.352, 4.755e-3
-1.351, 4.684e-3
-1.350, 4.588e-3
-1.349, 4.526e-3
-1.348, 4.448e-3
-1.347, 4.375e-3
-1.346, 4.315e-3
-1.345, 4.250e-3
-1.344, 4.178e-3
-1.343, 4.132e-3
-1.342, 4.055e-3
-1.341, 3.988e-3
-1.340, 3.927e-3
-1.339, 3.866e-3
-1.338, 3.798e-3
-1.337, 3.729e-3
-1.336, 3.668e-3
-1.335, 3.642e-3
-1.334, 3.603e-3
-1.333, 3.534e-3
-1.332, 3.438e-3
-1.331, 3.370e-3
-1.330, 3.312e-3
-1.329, 3.260e-3
-1.328, 3.201e-3
-1.327, 3.140e-3
-1.326, 3.086e-3
-1.325, 3.022e-3
-1.324, 2.979e-3
-1.323, 2.918e-3
-1.322, 2.878e-3
-1.321, 2.810e-3
-1.320, 2.749e-3
-1.319, 2.695e-3
-1.318, 2.642e-3
-1.317, 2.595e-3
-1.316, 2.554e-3
-1.315, 2.496e-3
-1.314, 2.444e-3
-1.313, 2.387e-3
-1.312, 2.337e-3
-1.311, 2.289e-3
-1.310, 2.241e-3
-1.309, 2.186e-3
-1.308, 2.138e-3
-1.307, 2.092e-3
-1.306, 2.055e-3
-1.305, 2.006e-3
-1.304, 1.957e-3
-1.303, 1.921e-3
-1.302, 1.878e-3
-1.301, 1.831e-3
-1.300, 1.794e-3
-1.299, 1.759e-3
-1.298, 1.731e-3
-1.297, 1.679e-3
-1.296, 1.621e-3
-1.295, 1.575e-3
-1.294, 1.543e-3
-1.293, 1.508e-3
-1.292, 1.469e-3
-1.291, 1.436e-3
-1.290, 1.400e-3
-1.289, 1.360e-3
-1.288, 1.321e-3
-1.287, 1.285e-3
-1.286, 1.268e-3
-1.285, 1.224e-3
-1.284, 1.175e-3
-1.283, 1.146e-3
-1.282, 1.119e-3
-1.281, 1.085e-3
-1.280, 1.046e-3
-1.279, 1.012e-3
-1.278, 9.804e-4
-1.277, 9.515e-4
-1.276, 9.250e-4
-1.275, 8.921e-4
-1.274, 8.589e-4
-1.273, 8.277e-4
-1.272, 8.019e-4
-1.271, 7.750e-4
-1.270, 7.486e-4
-1.269, 7.163e-4
-1.268, 6.891e-4
-1.267, 6.637e-4
-1.266, 6.476e-4
-1.265, 6.195e-4
-1.264, 5.930e-4
-1.263, 5.646e-4
-1.262, 5.448e-4
-1.261, 5.241e-4
-1.260, 4.995e-4
-1.259, 4.739e-4
-1.258, 4.515e-4
-1.257, 4.309e-4
-1.256, 4.145e-4
-1.255, 3.932e-4
-1.254, 3.698e-4
-1.253, 3.494e-4
-1.252, 3.311e-4
-1.251, 3.148e-4
-1.250, 2.970e-4
-1.249, 2.764e-4
-1.248, 2.575e-4
-1.247, 2.419e-4
-1.246, 2.272e-4
-1.245, 2.106e-4
-1.244, 1.933e-4
-1.243, 1.767e-4
-1.242, 1.630e-4
-1.241, 1.496e-4
-1.240, 1.355e-4
-1.239, 1.188e-4
-1.238, 1.040e-4
-1.237, 9.324e-5
-1.236, 8.191e-5
-1.235, 6.882e-5
-1.234, 5.404e-5
-1.233, 4.114e-5
-1.232, 3.184e-5
-1.231, 2.192e-5
-1.230, 1.069e-5
-1.229, -4.261e-6
-1.228, -1.554e-5
-1.227, -2.311e-5
-1.226, -3.024e-5
-1.225, -4.023e-5
-1.224, -5.174e-5
-1.223, -6.218e-5
-1.222, -6.889e-5
-1.221, -7.470e-5
-1.220, -8.320e-5
-1.219, -9.331e-5
-1.218, -1.019e-4
-1.217, -1.079e-4
-1.216, -1.134e-4
-1.215, -1.208e-4
-1.214, -1.302e-4
-1.213, -1.372e-4
-1.212, -1.421e-4
-1.211, -1.455e-4
-1.210, -1.515e-4
-1.209, -1.600e-4
-1.208, -1.660e-4
-1.207, -1.700e-4
-1.206, -1.733e-4
-1.205, -1.789e-4
-1.204, -1.882e-4
-1.203, -1.988e-4
-1.202, -2.075e-4
-1.201, -2.077e-4
-1.200, -2.079e-4
-1.199, -2.117e-4
-1.198, -2.161e-4
-1.197, -2.177e-4
-1.196, -2.199e-4
-1.195, -2.263e-4
-1.194, -2.369e-4
-1.193, -2.457e-4
-1.192, -2.420e-4
-1.191, -2.394e-4
-1.190, -2.411e-4
-1.189, -2.463e-4
-1.188, -2.497e-4
-1.187, -2.489e-4
-1.186, -2.478e-4
-1.185, -2.511e-4
-1.184, -2.550e-4
-1.183, -2.585e-4
-1.182, -2.581e-4
-1.181, -2.567e-4
-1.180, -2.590e-4
-1.179, -2.638e-4
-1.178, -2.677e-4
-1.177, -2.680e-4
-1.176, -2.662e-4
-1.175, -2.677e-4
-1.174, -2.722e-4
-1.173, -2.743e-4
-1.172, -2.740e-4
-1.171, -2.730e-4
-1.170, -2.742e-4
-1.169, -2.779e-4
-1.168, -2.797e-4
-1.167, -2.789e-4
-1.166, -2.775e-4
-1.165, -2.790e-4
-1.164, -2.814e-4
-1.163, -2.829e-4
-1.162, -2.815e-4
-1.161, -2.802e-4
-1.160, -2.829e-4
-1.159, -2.877e-4
-1.158, -2.890e-4
-1.157, -2.869e-4
-1.156, -2.852e-4
-1.155, -2.864e-4
-1.154, -2.896e-4
-1.153, -2.918e-4
-1.152, -2.893e-4
-1.151, -2.880e-4
-1.150, -2.893e-4
-1.149, -2.925e-4
-1.148, -2.949e-4
-1.147, -2.923e-4
-1.146, -2.897e-4
-1.145, -2.914e-4
-1.144, -2.943e-4
-1.143, -2.958e-4
-1.142, -2.941e-4
-1.141, -2.913e-4
-1.140, -2.924e-4
-1.139, -2.960e-4
-1.138, -2.974e-4
-1.137, -2.960e-4
-1.136, -2.934e-4
-1.135, -2.944e-4
-1.134, -2.978e-4
-1.133, -2.992e-4
-1.132, -2.974e-4
-1.131, -2.943e-4
-1.130, -2.955e-4
-1.129, -2.999e-4
-1.128, -3.015e-4
-1.127, -2.995e-4
-1.126, -2.968e-4
-1.125, -2.965e-4
-1.124, -3.001e-4
-1.123, -3.018e-4
-1.122, -2.999e-4
-1.121, -2.981e-4
-1.120, -2.981e-4
-1.119, -3.018e-4
-1.118, -3.037e-4
-1.117, -3.009e-4
-1.116, -2.989e-4
-1.115, -2.986e-4
-1.114, -3.007e-4
-1.113, -3.038e-4
-1.112, -3.026e-4
-1.111, -2.997e-4
-1.110, -3.020e-4
-1.109, -3.055e-4
-1.108, -3.079e-4
-1.107, -3.035e-4
-1.106, -3.012e-4
-1.105, -3.019e-4
-1.104, -3.046e-4
-1.103, -3.073e-4
-1.102, -3.057e-4
-1.101, -3.038e-4
-1.100, -3.043e-4
-1.099, -3.072e-4
-1.098, -3.088e-4
-1.097, -3.074e-4
-1.096, -3.043e-4
-1.095, -3.050e-4
-1.094, -3.087e-4
-1.093, -3.098e-4
-1.092, -3.075e-4
-1.091, -3.053e-4
-1.090, -3.067e-4
-1.089, -3.108e-4
-1.088, -3.123e-4
-1.087, -3.105e-4
-1.086, -3.076e-4
-1.085, -3.072e-4
-1.084, -3.114e-4
-1.083, -3.128e-4
-1.082, -3.116e-4
-1.081, -3.104e-4
-1.080, -3.121e-4
-1.079, -3.154e-4
-1.078, -3.165e-4
-1.077, -3.138e-4
-1.076, -3.114e-4
-1.075, -3.127e-4
-1.074, -3.155e-4
-1.073, -3.170e-4
-1.072, -3.152e-4
-1.071, -3.145e-4
-1.070, -3.166e-4
-1.069, -3.202e-4
-1.068, -3.211e-4
-1.067, -3.180e-4
-1.066, -3.153e-4
-1.065, -3.174e-4
-1.064, -3.209e-4
-1.063, -3.230e-4
-1.062, -3.215e-4
-1.061, -3.190e-4
-1.060, -3.206e-4
-1.059, -3.243e-4
-1.058, -3.267e-4
-1.057, -3.254e-4
-1.056, -3.222e-4
-1.055, -3.237e-4
-1.054, -3.277e-4
-1.053, -3.292e-4
-1.052, -3.278e-4
-1.051, -3.259e-4
-1.050, -3.268e-4
-1.049, -3.305e-4
-1.048, -3.323e-4
-1.047, -3.312e-4
-1.046, -3.299e-4
-1.045, -3.313e-4
-1.044, -3.360e-4
-1.043, -3.377e-4
-1.042, -3.356e-4
-1.041, -3.345e-4
-1.040, -3.354e-4
-1.039, -3.391e-4
-1.038, -3.404e-4
-1.037, -3.398e-4
-1.036, -3.415e-4
-1.035, -3.428e-4
-1.034, -3.464e-4
-1.033, -3.497e-4
-1.032, -3.485e-4
-1.031, -3.465e-4
-1.030, -3.477e-4
-1.029, -3.511e-4
-1.028, -3.540e-4
-1.027, -3.537e-4
-1.026, -3.523e-4
-1.025, -3.545e-4
-1.024, -3.600e-4
-1.023, -3.625e-4
-1.022, -3.622e-4
-1.021, -3.601e-4
-1.020, -3.626e-4
-1.019, -3.673e-4
-1.018, -3.702e-4
-1.017, -3.706e-4
-1.016, -3.684e-4
-1.015, -3.710e-4
-1.014, -3.761e-4
-1.013, -3.792e-4
-1.012, -3.797e-4
-1.011, -3.797e-4
-1.010, -3.829e-4
-1.009, -3.883e-4
-1.008, -3.910e-4
-1.007, -3.912e-4
-1.006, -3.910e-4
-1.005, -3.934e-4
-1.004, -3.994e-4
-1.003, -4.036e-4
-1.002, -4.044e-4
-1.001, -4.050e-4
-1.000, -2.946e-4
-1.001, -1.233e-4
-1.002, -2.103e-5
-1.003, 4.630e-5
-1.004, 9.232e-5
-1.005, 1.205e-4
-1.006, 1.395e-4
-1.007, 1.550e-4
-1.008, 1.696e-4
-1.009, 1.826e-4
-1.010, 1.900e-4
-1.011, 1.943e-4
-1.012, 1.992e-4
-1.013, 2.064e-4
-1.014, 2.138e-4
-1.015, 2.178e-4
-1.016, 2.186e-4
-1.017, 2.204e-4
-1.018, 2.254e-4
-1.019, 2.302e-4
-1.020, 2.331e-4
-1.021, 2.320e-4
-1.022, 2.328e-4
-1.023, 2.370e-4
-1.024, 2.419e-4
-1.025, 2.426e-4
-1.026, 2.408e-4
-1.027, 2.407e-4
-1.028, 2.445e-4
-1.029, 2.474e-4
-1.030, 2.485e-4
-1.031, 2.463e-4
-1.032, 2.449e-4
-1.033, 2.484e-4
-1.034, 2.517e-4
-1.035, 2.520e-4
-1.036, 2.504e-4
-1.037, 2.494e-4
-1.038, 2.518e-4
-1.039, 2.555e-4
-1.040, 2.550e-4
-1.041, 2.523e-4
-1.042, 2.516e-4
-1.043, 2.537e-4
-1.044, 2.576e-4
-1.045, 2.573e-4
-1.046, 2.543e-4
-1.047, 2.533e-4
-1.048, 2.553e-4
-1.049, 2.581e-4
-1.050, 2.580e-4
-1.051, 2.550e-4
-1.052, 2.547e-4
-1.053, 2.570e-4
-1.054, 2.604e-4
-1.055, 2.592e-4
-1.056, 2.557e-4
-1.057, 2.547e-4
-1.058, 2.566e-4
-1.059, 2.594e-4
-1.060, 2.592e-4
-1.061, 2.561e-4
-1.062, 2.548e-4
-1.063, 2.576e-4
-1.064, 2.594e-4
-1.065, 2.593e-4
-1.066, 2.563e-4
-1.067, 2.551e-4
-1.068, 2.578e-4
-1.069, 2.603e-4
-1.070, 2.599e-4
-1.071, 2.569e-4
-1.072, 2.548e-4
-1.073, 2.568e-4
-1.074, 2.590e-4
-1.075, 2.587e-4
-1.076, 2.570e-4
-1.077, 2.559e-4
-1.078, 2.586e-4
-1.079, 2.611e-4
-1.080, 2.599e-4
-1.081, 2.565e-4
-1.082, 2.544e-4
-1.083, 2.562e-4
-1.084, 2.601e-4
-1.085, 2.592e-4
-1.086, 2.564e-4
-1.087, 2.555e-4
-1.088, 2.575e-4
-1.089, 2.607e-4
-1.090, 2.599e-4
-1.091, 2.569e-4
-1.092, 2.561e-4
-1.093, 2.578e-4
-1.094, 2.603e-4
-1.095, 2.603e-4
-1.096, 2.566e-4
-1.097, 2.559e-4
-1.098, 2.584e-4
-1.099, 2.609e-4
-1.100, 2.611e-4
-1.101, 2.572e-4
-1.102, 2.563e-4
-1.103, 2.585e-4
-1.104, 2.604e-4
-1.105, 2.612e-4
-1.106, 2.580e-4
-1.107, 2.572e-4
-1.108, 2.598e-4
-1.109, 2.619e-4
-1.110, 2.616e-4
-1.111, 2.587e-4
-1.112, 2.569e-4
-1.113, 2.596e-4
-1.114, 2.626e-4
-1.115, 2.621e-4
-1.116, 2.596e-4
-1.117, 2.577e-4
-1.118, 2.605e-4
-1.119, 2.634e-4
-1.120, 2.624e-4
-1.121, 2.604e-4
-1.122, 2.593e-4
-1.123, 2.615e-4
-1.124, 2.645e-4
-1.125, 2.637e-4
-1.126, 2.614e-4
-1.127, 2.608e-4
-1.128, 2.632e-4
-1.129, 2.665e-4
-1.130, 2.665e-4
-1.131, 2.628e-4
-1.132, 2.621e-4
-1.133, 2.644e-4
-1.134, 2.675e-4
-1.135, 2.671e-4
-1.136, 2.641e-4
-1.137, 2.641e-4
-1.138, 2.666e-4
-1.139, 2.689e-4
-1.140, 2.692e-4
-1.141, 2.665e-4
-1.142, 2.658e-4
-1.143, 2.691e-4
-1.144, 2.716e-4
-1.145, 2.717e-4
-1.146, 2.693e-4
-1.147, 2.685e-4
-1.148, 2.713e-4
-1.149, 2.740e-4
-1.150, 2.735e-4
-1.151, 2.718e-4
-1.152, 2.705e-4
-1.153, 2.748e-4
-1.154, 2.786e-4
-1.155, 2.791e-4
-1.156, 2.767e-4
-1.157, 2.754e-4
-1.158, 2.782e-4
-1.159, 2.817e-4
-1.160, 2.822e-4
-1.161, 2.800e-4
-1.162, 2.799e-4
-1.163, 2.833e-4
-1.164, 2.870e-4
-1.165, 2.876e-4
-1.166, 2.855e-4
-1.167, 2.848e-4
-1.168, 2.881e-4
-1.169, 2.922e-4
-1.170, 2.933e-4
-1.171, 2.923e-4
-1.172, 2.925e-4
-1.173, 2.952e-4
-1.174, 2.996e-4
-1.175, 3.001e-4
-1.176, 3.001e-4
-1.177, 3.007e-4
-1.178, 3.051e-4
-1.179, 3.080e-4
-1.180, 3.097e-4
-1.181, 3.076e-4
-1.182, 3.082e-4
-1.183, 3.123e-4
-1.184, 3.157e-4
-1.185, 3.173e-4
-1.186, 3.163e-4
-1.187, 3.172e-4
-1.188, 3.216e-4
-1.189, 3.265e-4
-1.190, 3.286e-4
-1.191, 3.283e-4
-1.192, 3.288e-4
-1.193, 3.347e-4
-1.194, 3.406e-4
-1.195, 3.426e-4
-1.196, 3.428e-4
-1.197, 3.432e-4
-1.198, 3.490e-4
-1.199, 3.547e-4
-1.200, 3.570e-4
-1.201, 3.562e-4
-1.202, 3.595e-4
-1.203, 3.661e-4
-1.204, 3.733e-4
-1.205, 3.758e-4
-1.206, 3.769e-4
-1.207, 3.791e-4
-1.208, 3.855e-4
-1.209, 3.932e-4
-1.210, 3.967e-4
-1.211, 3.979e-4
-1.212, 4.027e-4
-1.213, 4.095e-4
-1.214, 4.174e-4
-1.215, 4.219e-4
-1.216, 4.234e-4
-1.217, 4.282e-4
-1.218, 4.360e-4
-1.219, 4.447e-4
-1.220, 4.505e-4
-1.221, 4.531e-4
-1.222, 4.583e-4
-1.223, 4.673e-4
-1.224, 4.754e-4
-1.225, 4.824e-4
-1.226, 4.863e-4
-1.227, 4.933e-4
-1.228, 5.041e-4
-1.229, 5.168e-4
-1.230, 5.231e-4
-1.231, 5.277e-4
-1.232, 5.350e-4
-1.233, 5.466e-4
-1.234, 5.585e-4
-1.235, 5.673e-4
-1.236, 5.739e-4
-1.237, 5.818e-4
-1.238, 5.944e-4
-1.239, 6.078e-4
-1.240, 6.204e-4
-1.241, 6.321e-4
-1.242, 6.411e-4
-1.243, 6.512e-4
-1.244, 6.663e-4
-1.245, 6.791e-4
-1.246, 6.898e-4
-1.247, 7.023e-4
-1.248, 7.176e-4
-1.249, 7.340e-4
-1.250, 7.479e-4
-1.251, 7.586e-4
-1.252, 7.724e-4
-1.253, 7.903e-4
-1.254, 8.095e-4
-1.255, 8.259e-4
-1.256, 8.405e-4
-1.257, 8.576e-4
-1.258, 8.767e-4
-1.259, 8.979e-4
-1.260, 9.160e-4
-1.261, 9.315e-4
-1.262, 9.495e-4
-1.263, 9.723e-4
-1.264, 9.949e-4
-1.265, 1.015e-3
-1.266, 1.034e-3
-1.267, 1.055e-3
-1.268, 1.079e-3
-1.269, 1.106e-3
-1.270, 1.130e-3
-1.271, 1.151e-3
-1.272, 1.175e-3
-1.273, 1.203e-3
-1.274, 1.230e-3
-1.275, 1.255e-3
-1.276, 1.277e-3
-1.277, 1.304e-3
-1.278, 1.338e-3
-1.279, 1.371e-3
-1.280, 1.403e-3
-1.281, 1.428e-3
-1.282, 1.453e-3
-1.283, 1.485e-3
-1.284, 1.519e-3
-1.285, 1.550e-3
-1.286, 1.583e-3
-1.287, 1.620e-3
-1.288, 1.655e-3
-1.289, 1.691e-3
-1.290, 1.726e-3
-1.291, 1.759e-3
-1.292, 1.798e-3
-1.293, 1.836e-3
-1.294, 1.877e-3
-1.295, 1.916e-3
-1.296, 1.952e-3
-1.297, 1.993e-3
-1.298, 2.036e-3
-1.299, 2.079e-3
-1.300, 2.121e-3
-1.301, 2.162e-3
-1.302, 2.201e-3
-1.303, 2.252e-3
-1.304, 2.307e-3
-1.305, 2.353e-3
-1.306, 2.396e-3
-1.307, 2.435e-3
-1.308, 2.481e-3
-1.309, 2.521e-3
-1.310, 2.565e-3
-1.311, 2.618e-3
-1.312, 2.670e-3
-1.313, 2.743e-3
-1.314, 2.783e-3
-1.315, 2.830e-3
-1.316, 2.877e-3
-1.317, 2.922e-3
-1.318, 2.980e-3
-1.319, 3.041e-3
-1.320, 3.095e-3
-1.321, 3.150e-3
-1.322, 3.208e-3
-1.323, 3.267e-3
-1.324, 3.327e-3
-1.325, 3.381e-3
-1.326, 3.432e-3
-1.327, 3.486e-3
-1.328, 3.548e-3
-1.329, 3.611e-3
-1.330, 3.669e-3
-1.331, 3.724e-3
-1.332, 3.786e-3
-1.333, 3.850e-3
-1.334, 3.914e-3
-1.335, 3.973e-3
-1.336, 4.031e-3
-1.337, 4.091e-3
-1.338, 4.153e-3
-1.339, 4.220e-3
-1.340, 4.279e-3
-1.341, 4.320e-3
-1.342, 4.389e-3
-1.343, 4.465e-3
-1.344, 4.540e-3
-1.345, 4.610e-3
-1.346, 4.678e-3
-1.347, 4.740e-3
-1.348, 4.804e-3
-1.349, 4.870e-3
-1.350, 4.931e-3
-1.351, 4.993e-3
-1.352, 5.060e-3
-1.353, 5.134e-3
-1.354, 5.206e-3
-1.355, 5.270e-3
-1.356, 5.342e-3
-1.357, 5.403e-3
-1.358, 5.473e-3
-1.359, 5.547e-3
-1.360, 5.618e-3
-1.361, 5.681e-3
-1.362, 5.754e-3
-1.363, 5.822e-3
-1.364, 5.909e-3
-1.365, 6.002e-3
-1.366, 6.052e-3
-1.367, 6.092e-3
-1.368, 6.155e-3
-1.369, 6.233e-3
-1.370, 6.306e-3
-1.371, 6.389e-3
-1.372, 6.465e-3
-1.373, 6.536e-3
-1.374, 6.600e-3
-1.375, 6.670e-3
-1.376, 6.735e-3
-1.377, 6.808e-3
-1.378, 6.877e-3
-1.379, 6.941e-3
-1.380, 7.018e-3
-1.381, 7.087e-3
-1.382, 7.156e-3
-1.383, 7.246e-3
-1.384, 7.307e-3
-1.385, 7.383e-3
-1.386, 7.459e-3
-1.387, 7.510e-3
-1.388, 7.588e-3
-1.389, 7.655e-3
-1.390, 7.747e-3
-1.391, 7.819e-3
-1.392, 7.876e-3
-1.393, 7.939e-3
-1.394, 8.022e-3
-1.395, 8.148e-3
-1.396, 8.229e-3
-1.397, 8.296e-3
-1.398, 8.361e-3
-1.399, 8.454e-3
-1.400, 8.416e-3
-1.399, 8.292e-3
-1.398, 8.117e-3
-1.397, 8.012e-3
-1.396, 7.928e-3
-1.395, 7.842e-3
-1.394, 7.763e-3
-1.393, 7.673e-3
-1.392, 7.597e-3
-1.391, 7.515e-3
-1.390, 7.427e-3
-1.389, 7.335e-3
-1.388, 7.227e-3
-1.387, 7.116e-3
-1.386, 7.015e-3
-1.385, 6.921e-3
-1.384, 6.884e-3
-1.383, 6.772e-3
-1.382, 6.679e-3
-1.381, 6.579e-3
-1.380, 6.512e-3
-1.379, 6.436e-3
-1.378, 6.366e-3
-1.377, 6.347e-3
-1.376, 6.262e-3
-1.375, 6.193e-3
-1.374, 6.066e-3
-1.373, 5.975e-3
-1.372, 5.926e-3
-1.371, 5.843e-3
-1.370, 5.772e-3
-1.369, 5.682e-3
-1.368, 5.618e-3
-1.367, 5.536e-3
-1.366, 5.480e-3
-1.365, 5.383e-3
-1.364, 5.340e-3
-1.363, 5.272e-3
-1.362, 5.204e-3
-1.361, 5.130e-3
-1.360, 5.062e-3
-1.359, 4.996e-3
-1.358, 4.922e-3
-1.357, 4.891e-3
-1.356, 4.808e-3
-1.355, 4.766e-3
-1.354, 4.723e-3
-1.353, 4.651e-3
-1.352, 4.584e-3
-1.351, 4.532e-3
-1.350, 4.469e-3
-1.349, 4.395e-3
-1.348, 4.333e-3
-1.347, 4.268e-3
-1.346, 4.207e-3
-1.345, 4.177e-3
-1.344, 4.088e-3
-1.343, 4.005e-3
-1.342, 3.936e-3
-1.341, 3.879e-3
-1.340, 3.830e-3
-1.339, 3.786e-3
-1.338, 3.726e-3
-1.337, 3.638e-3
-1.336, 3.553e-3
-1.335, 3.499e-3
-1.334, 3.450e-3
-1.333, 3.392e-3
-1.332, 3.336e-3
-1.331, 3.285e-3
-1.330, 3.228e-3
-1.329, 3.155e-3
-1.328, 3.103e-3
-1.327, 3.058e-3
-1.326, 3.023e-3
-1.325, 2.972e-3
-1.324, 2.917e-3
-1.323, 2.855e-3
-1.322, 2.797e-3
-1.321, 2.745e-3
-1.320, 2.694e-3
-1.319, 2.641e-3
-1.318, 2.589e-3
-1.317, 2.540e-3
-1.316, 2.493e-3
-1.315, 2.444e-3
-1.314, 2.387e-3
-1.313, 2.328e-3
-1.312, 2.283e-3
-1.311, 2.244e-3
-1.310, 2.195e-3
-1.309, 2.146e-3
-1.308, 2.100e-3
-1.307, 2.052e-3
-1.306, 2.013e-3
-1.305, 1.968e-3
-1.304, 1.923e-3
-1.303, 1.882e-3
-1.302, 1.840e-3
-1.301, 1.798e-3
-1.300, 1.746e-3
-1.299, 1.699e-3
-1.298, 1.656e-3
-1.297, 1.622e-3
-1.296, 1.585e-3
-1.295, 1.545e-3
-1.294, 1.503e-3
-1.293, 1.464e-3
-1.292, 1.429e-3
-1.291, 1.412e-3
-1.290, 1.375e-3
-1.289, 1.328e-3
-1.288, 1.289e-3
-1.287, 1.254e-3
-1.286, 1.220e-3
-1.285, 1.186e-3
-1.284, 1.149e-3
-1.283, 1.113e-3
-1.282, 1.084e-3
-1.281, 1.050e-3
-1.280, 1.013e-3
-1.279, 9.760e-4
-1.278, 9.433e-4
-1.277, 9.193e-4
-1.276, 8.943e-4
-1.275, 8.659e-4
-1.274, 8.344e-4
-1.273, 8.036e-4
-1.272, 7.761e-4
-1.271, 7.496e-4
-1.270, 7.207e-4
-1.269, 6.913e-4
-1.268, 6.633e-4
-1.267, 6.396e-4
-1.266, 6.160e-4
-1.265, 5.919e-4
-1.264, 5.654e-4
-1.263, 5.405e-4
-1.262, 5.181e-4
-1.261, 4.974e-4
-1.260, 4.747e-4
-1.259, 4.512e-4
-1.258, 4.287e-4
-1.257, 4.100e-4
-1.256, 3.943e-4
-1.255, 3.731e-4
-1.254, 3.502e-4
-1.253, 3.297e-4
-1.252, 3.123e-4
-1.251, 2.981e-4
-1.250, 2.792e-4
-1.249, 2.586e-4
-1.248, 2.403e-4
-1.247, 2.244e-4
-1.246, 2.125e-4
-1.245, 1.979e-4
-1.244, 1.789e-4
-1.243, 1.606e-4
-1.242, 1.477e-4
-1.241, 1.364e-4
-1.240, 1.235e-4
-1.239, 1.071e-4
-1.238, 9.205e-5
-1.237, 8.079e-5
-1.236, 7.104e-5
-1.235, 5.868e-5
-1.234, 4.432e-5
-1.233, 3.129e-5
-1.232, 2.234e-5
-1.231, 1.407e-5
-1.230, 3.340e-6
-1.229, -1.159e-5
-1.228, -2.260e-5
-1.227, -2.966e-5
-1.226, -3.587e-5
-1.225, -4.524e-5
-1.224, -5.569e-5
-1.223, -6.578e-5
-1.222, -7.235e-5
-1.221, -7.764e-5
-1.220, -8.568e-5
-1.219, -9.567e-5
-1.218, -1.045e-4
-1.217, -1.100e-4
-1.216, -1.132e-4
-1.215, -1.199e-4
-1.214, -1.292e-4
-1.213, -1.366e-4
-1.212, -1.412e-4
-1.211, -1.445e-4
-1.210, -1.510e-4
-1.209, -1.593e-4
-1.208, -1.645e-4
-1.207, -1.671e-4
-1.206, -1.697e-4
-1.205, -1.742e-4
-1.204, -1.816e-4
-1.203, -1.878e-4
-1.202, -1.904e-4
-1.201, -1.916e-4
-1.200, -1.945e-4
-1.199, -2.014e-4
-1.198, -2.068e-4
-1.197, -2.084e-4
-1.196, -2.095e-4
-1.195, -2.127e-4
-1.194, -2.178e-4
-1.193, -2.227e-4
-1.192, -2.243e-4
-1.191, -2.241e-4
-1.190, -2.271e-4
-1.189, -2.317e-4
-1.188, -2.359e-4
-1.187, -2.368e-4
-1.186, -2.362e-4
-1.185, -2.386e-4
-1.184, -2.424e-4
-1.183, -2.462e-4
-1.182, -2.469e-4
-1.181, -2.477e-4
-1.180, -2.486e-4
-1.179, -2.520e-4
-1.178, -2.578e-4
-1.177, -2.575e-4
-1.176, -2.543e-4
-1.175, -2.550e-4
-1.174, -2.592e-4
-1.173, -2.625e-4
-1.172, -2.626e-4
-1.171, -2.613e-4
-1.170, -2.626e-4
-1.169, -2.667e-4
-1.168, -2.690e-4
-1.167, -2.684e-4
-1.166, -2.664e-4
-1.165, -2.671e-4
-1.164, -2.713e-4
-1.163, -2.740e-4
-1.162, -2.725e-4
-1.161, -2.710e-4
-1.160, -2.716e-4
-1.159, -2.746e-4
-1.158, -2.770e-4
-1.157, -2.758e-4
-1.156, -2.744e-4
-1.155, -2.752e-4
-1.154, -2.786e-4
-1.153, -2.817e-4
-1.152, -2.806e-4
-1.151, -2.789e-4
-1.150, -2.783e-4
-1.149, -2.808e-4
-1.148, -2.842e-4
-1.147, -2.825e-4
-1.146, -2.799e-4
-1.145, -2.807e-4
-1.144, -2.841e-4
-1.143, -2.864e-4
-1.142, -2.852e-4
-1.141, -2.823e-4
-1.140, -2.826e-4
-1.139, -2.852e-4
-1.138, -2.876e-4
-1.137, -2.868e-4
-1.136, -2.836e-4
-1.135, -2.839e-4
-1.134, -2.874e-4
-1.133, -2.895e-4
-1.132, -2.884e-4
-1.131, -2.837e-4
-1.130, -2.832e-4
-1.129, -2.895e-4
-1.128, -2.929e-4
-1.127, -2.928e-4
-1.126, -2.894e-4
-1.125, -2.885e-4
-1.124, -2.899e-4
-1.123, -2.922e-4
-1.122, -2.909e-4
-1.121, -2.890e-4
-1.120, -2.885e-4
-1.119, -2.915e-4
-1.118, -2.934e-4
-1.117, -2.916e-4
-1.116, -2.891e-4
-1.115, -2.900e-4
-1.114, -2.927e-4
-1.113, -2.957e-4
-1.112, -2.944e-4
-1.111, -2.912e-4
-1.110, -2.909e-4
-1.109, -2.932e-4
-1.108, -2.952e-4
-1.107, -2.937e-4
-1.106, -2.937e-4
-1.105, -2.946e-4
-1.104, -2.951e-4
-1.103, -2.970e-4
-1.102, -2.980e-4
-1.101, -2.962e-4
-1.100, -2.957e-4
-1.099, -2.967e-4
-1.098, -2.982e-4
-1.097, -2.975e-4
-1.096, -2.951e-4
-1.095, -2.959e-4
-1.094, -3.005e-4
-1.093, -3.013e-4
-1.092, -2.993e-4
-1.091, -2.964e-4
-1.090, -2.965e-4
-1.089, -3.006e-4
-1.088, -3.025e-4
-1.087, -3.014e-4
-1.086, -2.988e-4
-1.085, -2.982e-4
-1.084, -3.007e-4
-1.083, -3.034e-4
-1.082, -3.021e-4
-1.081, -3.003e-4
-1.080, -3.008e-4
-1.079, -3.042e-4
-1.078, -3.068e-4
-1.077, -3.044e-4
-1.076, -3.027e-4
-1.075, -3.036e-4
-1.074, -3.061e-4
-1.073, -3.084e-4
-1.072, -3.070e-4
-1.071, -3.051e-4
-1.070, -3.065e-4
-1.069, -3.117e-4
-1.068, -3.156e-4
-1.067, -3.117e-4
-1.066, -3.069e-4
-1.065, -3.071e-4
-1.064, -3.099e-4
-1.063, -3.127e-4
-1.062, -3.122e-4
-1.061, -3.103e-4
-1.060, -3.120e-4
-1.059, -3.149e-4
-1.058, -3.170e-4
-1.057, -3.160e-4
-1.056, -3.129e-4
-1.055, -3.136e-4
-1.054, -3.179e-4
-1.053, -3.204e-4
-1.052, -3.198e-4
-1.051, -3.173e-4
-1.050, -3.184e-4
-1.049, -3.222e-4
-1.048, -3.240e-4
-1.047, -3.235e-4
-1.046, -3.206e-4
-1.045, -3.212e-4
-1.044, -3.254e-4
-1.043, -3.278e-4
-1.042, -3.274e-4
-1.041, -3.248e-4
-1.040, -3.273e-4
-1.039, -3.324e-4
-1.038, -3.333e-4
-1.037, -3.311e-4
-1.036, -3.293e-4
-1.035, -3.314e-4
-1.034, -3.358e-4
-1.033, -3.390e-4
-1.032, -3.379e-4
-1.031, -3.366e-4
-1.030, -3.386e-4
-1.029, -3.422e-4
-1.028, -3.461e-4
-1.027, -3.454e-4
-1.026, -3.433e-4
-1.025, -3.448e-4
-1.024, -3.499e-4
-1.023, -3.533e-4
-1.022, -3.535e-4
-1.021, -3.511e-4
-1.020, -3.531e-4
-1.019, -3.573e-4
-1.018, -3.615e-4
-1.017, -3.616e-4
-1.016, -3.609e-4
-1.015, -3.609e-4
-1.014, -3.655e-4
-1.013, -3.695e-4
-1.012, -3.708e-4
-1.011, -3.702e-4
-1.010, -3.731e-4
-1.009, -3.790e-4
-1.008, -3.825e-4
-1.007, -3.838e-4
-1.006, -3.828e-4
-1.005, -3.850e-4
-1.004, -3.905e-4
-1.003, -3.957e-4
-1.002, -3.967e-4
-1.001, -3.971e-4
