Potential V vs RHE, Current mA cm-2
0.013299999999999867,-0.5692798270656908
0.012299999999999978,-2.4007650758709675
0.011299999999999866,-3.840941179133574
0.010299999999999976,-5.235846520800501
0.009299999999999864,-6.806176063650692
0.008299999999999974,-8.288793505909249
0.007299999999999862,-9.379535918105192
0.006299999999999972,-10.164700689530287
0.00529999999999986,-10.993721511251199
0.0042999999999999705,-11.996751822855511
0.0032999999999998586,-12.955926084164007
0.0022999999999999687,-13.610937416001518
0.0012999999999998568,-13.960371107068182
0.00029999999999996696,-14.444202371622024
-0.000700000000000145,-15.137410908555893
-0.0017000000000000348,-15.87306078448571
-0.0027000000000001467,-16.269179948447924
-0.0037000000000000366,-16.354062626439823
-0.0047000000000001485,-16.622857773414182
-0.005700000000000038,-17.103859615368293
-0.00670000000000015,-17.584861457322408
-0.00770000000000004,-17.839509491298113
-0.008700000000000152,-17.839509491298113
-0.009700000000000042,-18.009274847281915
-0.010700000000000154,-18.49027668923603
-0.011700000000000044,-19.01371987018609
-0.012700000000000156,-19.197632339168546
-0.013700000000000045,-19.112749661176647
-0.014700000000000157,-19.197632339168546
-0.015700000000000047,-19.452280373144255
-0.01670000000000016,-19.763516859114564
-0.01770000000000005,-19.848399537106463
-0.01870000000000016,-19.721075520118614
-0.01970000000000005,-19.848399537106463
-0.020700000000000163,-20.159636023076775
-0.021700000000000053,-20.499166735044383
-0.022700000000000164,-20.584049413036283
-0.023700000000000054,-20.371842718056527
-0.024700000000000166,-20.329401379060574
-0.025700000000000056,-20.541608074040333
-0.026700000000000168,-20.810403221014692
-0.027700000000000058,-20.85284456001064
-0.02870000000000017,-20.626490752032236
-0.02970000000000006,-20.541608074040333
-0.03070000000000017,-20.76796188201874
-0.03170000000000006,-20.980168576998494
-0.03270000000000017,-20.93772723800254
-0.03370000000000006,-20.626490752032236
-0.034700000000000175,-20.541608074040333
-0.035700000000000065,-20.72552054302279
-0.03670000000000018,-20.93772723800254
-0.03770000000000007,-20.89528589900659
-0.03870000000000018,-20.683079204026836
-0.03970000000000007,-20.584049413036283
-0.04070000000000018,-20.76796188201874
-0.04170000000000007,-20.980168576998494
-0.04270000000000018,-20.93772723800254
-0.04370000000000007,-20.72552054302279
-0.044700000000000184,-20.584049413036283
-0.045700000000000074,-20.76796188201874
-0.046700000000000186,-20.93772723800254
-0.047700000000000076,-20.85284456001064
-0.04870000000000019,-20.541608074040333
-0.04970000000000008,-20.499166735044383
-0.05070000000000019,-20.683079204026836
-0.05170000000000008,-20.93772723800254
-0.05270000000000019,-20.89528589900659
-0.05370000000000008,-20.683079204026836
-0.05470000000000019,-20.541608074040333
-0.05570000000000008,-20.72552054302279
-0.056700000000000195,-20.89528589900659
-0.057700000000000085,-20.810403221014692
-0.058700000000000196,-20.584049413036283
-0.059700000000000086,-20.499166735044383
-0.0607000000000002,-20.72552054302279
-0.06170000000000009,-20.93772723800254
-0.0627000000000002,-20.93772723800254
-0.06370000000000009,-20.683079204026836
-0.0647000000000002,-20.584049413036283
-0.06570000000000009,-20.76796188201874
-0.0667000000000002,-20.93772723800254
-0.0677000000000001,-20.89528589900659
-0.0687000000000002,-20.626490752032236
-0.0697000000000001,-20.499166735044383
-0.07070000000000021,-20.683079204026836
-0.0717000000000001,-20.89528589900659
-0.07270000000000021,-20.85284456001064
-0.0737000000000001,-20.626490752032236
-0.07470000000000021,-20.499166735044383
-0.0757000000000001,-20.72552054302279
-0.07670000000000021,-20.89528589900659
-0.0777000000000001,-20.810403221014692
-0.07870000000000021,-20.584049413036283
-0.0797000000000001,-20.456725396048434
-0.08070000000000022,-20.683079204026836
-0.0817000000000001,-20.89528589900659
-0.08270000000000022,-20.85284456001064
-0.08370000000000011,-20.626490752032236
-0.08470000000000022,-20.499166735044383
-0.08570000000000011,-20.72552054302279
-0.08670000000000022,-20.93772723800254
-0.08770000000000011,-20.89528589900659
-0.08870000000000022,-20.683079204026836
-0.08970000000000011,-20.626490752032236
-0.09070000000000022,-20.76796188201874
-0.09170000000000011,-20.980168576998494
-0.09270000000000023,-20.93772723800254
-0.09370000000000012,-20.683079204026836
-0.09470000000000023,-20.584049413036283
-0.09570000000000012,-20.76796188201874
-0.09670000000000023,-20.980168576998494
-0.09770000000000012,-20.980168576998494
-0.09870000000000023,-20.72552054302279
-0.09970000000000012,-20.683079204026836
-0.10070000000000023,-20.810403221014692
-0.10170000000000012,-21.022609915994444
-0.10270000000000024,-21.022609915994444
-0.10370000000000013,-20.76796188201874
-0.10470000000000024,-20.683079204026836
-0.10570000000000013,-20.89528589900659
-0.10670000000000024,-21.065051254990397
-0.10770000000000013,-20.980168576998494
-0.10870000000000024,-20.72552054302279
-0.10970000000000013,-20.584049413036283
-0.11070000000000024,-20.810403221014692
-0.11170000000000013,-20.980168576998494
-0.11270000000000002,-20.93772723800254
-0.11370000000000013,-20.72552054302279
-0.11470000000000002,-20.626490752032236
-0.11570000000000014,-20.810403221014692
-0.11670000000000003,-20.980168576998494
-0.11770000000000014,-20.89528589900659
-0.11870000000000003,-20.626490752032236
-0.11970000000000014,-20.499166735044383
-0.12070000000000003,-20.683079204026836
-0.12170000000000014,-20.93772723800254
-0.12270000000000003,-20.93772723800254
-0.12370000000000014,-20.72552054302279
-0.12470000000000003,-20.626490752032236
-0.12570000000000014,-20.85284456001064
-0.12670000000000003,-21.022609915994444
-0.12770000000000015,-20.93772723800254
-0.12870000000000004,-20.683079204026836
-0.12970000000000015,-20.626490752032236
-0.13070000000000004,-20.85284456001064
-0.13170000000000015,-21.107492593986347
-0.13270000000000004,-21.065051254990397
-0.13370000000000015,-20.85284456001064
-0.13470000000000004,-20.76796188201874
-0.13570000000000015,-20.93772723800254
-0.13670000000000004,-21.149933932982297
-0.13770000000000016,-21.107492593986347
-0.13870000000000005,-20.89528589900659
-0.13970000000000016,-20.810403221014692
-0.14070000000000005,-20.980168576998494
-0.14170000000000016,-21.2065223849769
-0.14270000000000005,-21.2065223849769
-0.14370000000000016,-20.93772723800254
-0.14470000000000005,-20.85284456001064
-0.14570000000000016,-21.065051254990397
-0.14670000000000005,-21.291405062968803
-0.14770000000000016,-21.248963723972853
-0.14870000000000005,-20.980168576998494
-0.14970000000000017,-20.93772723800254
-0.15070000000000006,-21.107492593986347
-0.15170000000000017,-21.333846401964752
-0.15270000000000006,-21.291405062968803
-0.15370000000000017,-21.065051254990397
-0.15470000000000006,-21.022609915994444
-0.15570000000000017,-21.248963723972853
-0.15670000000000006,-21.461170418952605
-0.15770000000000017,-21.418729079956652
-0.15870000000000006,-21.2065223849769
-0.15970000000000018,-21.107492593986347
-0.16070000000000007,-21.333846401964752
-0.16170000000000018,-21.54605309694451
-0.16270000000000007,-21.54605309694451
-0.16370000000000018,-21.333846401964752
-0.16470000000000007,-21.291405062968803
-0.16570000000000018,-21.503611757948562
-0.16670000000000007,-21.729965565926964
-0.16770000000000018,-21.63093577493641
-0.16870000000000007,-21.461170418952605
-0.16970000000000018,-21.376287740960702
-0.17070000000000007,-21.58849443594046
-0.17170000000000019,-21.857289582914817
-0.17270000000000008,-21.772406904922917
-0.1737000000000002,-21.54605309694451
-0.17470000000000008,-21.503611757948562
-0.1757000000000002,-21.67337711393236
-0.17670000000000008,-21.899730921910766
-0.1777000000000002,-21.899730921910766
-0.17870000000000008,-21.67337711393236
-0.1797000000000002,-21.63093577493641
-0.18070000000000008,-21.857289582914817
-0.1817000000000002,-22.069496277894572
-0.18270000000000008,-22.069496277894572
-0.1837000000000002,-21.857289582914817
-0.1847000000000001,-21.772406904922917
-0.1857000000000002,-21.98461359990267
-0.1867000000000001,-22.196820294882425
-0.1877000000000002,-22.15437895588647
-0.1887000000000001,-21.98461359990267
-0.1897000000000002,-21.94217226090672
-0.1907000000000001,-22.15437895588647
-0.1917000000000001,-22.38073276386488
-0.19269999999999998,-22.38073276386488
-0.1937000000000001,-22.196820294882425
-0.19469999999999998,-22.15437895588647
-0.1957000000000001,-22.38073276386488
-0.19669999999999999,-22.63538079784059
-0.1977000000000001,-22.63538079784059
-0.1987,-22.42317410286083
-0.1997000000000001,-22.38073276386488
-0.2007,-22.63538079784059
-0.2017000000000001,-22.904175944814945
-0.2027,-22.904175944814945
-0.2037000000000001,-22.72026347583249
-0.2047,-22.72026347583249
-0.2057000000000001,-22.946617283810895
-0.2067,-23.24370665678255
-0.2077000000000001,-23.24370665678255
-0.2087,-23.073941300798747
-0.2097000000000001,-23.073941300798747
-0.2107,-23.300295108777156
-0.2117000000000001,-23.597384481748815
-0.2127,-23.55494314275286
-0.2137000000000001,-23.427619125765005
-0.2147,-23.427619125765005
-0.2157000000000001,-23.767149837732617
-0.2167,-24.035944984706973
-0.21770000000000012,-24.078386323702922
-0.2187,-23.951062306715073
-0.21970000000000012,-23.951062306715073
-0.2207,-24.20571034069078
-0.22170000000000012,-24.516946826661083
-0.2227,-24.559388165657033
-0.22370000000000012,-24.432064148669184
-0.2247,-24.432064148669184
-0.22570000000000012,-24.771594860636792
-0.2267,-25.0828313466071
-0.22770000000000012,-25.12527268560305
-0.22870000000000001,-24.997948668615198
-0.22970000000000013,-24.997948668615198
-0.23070000000000002,-25.295038041586857
-0.23170000000000013,-25.60627452755716
-0.23270000000000002,-25.691157205549064
-0.23370000000000013,-25.60627452755716
-0.23470000000000002,-25.691157205549064
-0.23570000000000013,-26.002393691519377
-0.23670000000000002,-26.29948306449103
-0.2376999999999999,-26.29948306449103
-0.23870000000000002,-26.129717708507226
-0.2396999999999999,-26.17215904750318
-0.24070000000000003,-26.568278211465387
-0.24169999999999991,-26.907808923433
-0.24270000000000003,-27.049280053419505
-0.24369999999999992,-27.049280053419505
-0.24470000000000003,-27.091721392415455
-0.24569999999999992,-27.43125210438306
-0.24670000000000003,-27.78492992934932
-0.24769999999999992,-27.827371268345274
-0.24870000000000003,-27.742488590353368
-0.24969999999999992,-27.827371268345274
-0.25070000000000003,-28.265931771303435
-0.2516999999999999,-28.662050935265643
-0.25270000000000004,-28.789374952253496
-0.2536999999999999,-28.746933613257543
-0.25470000000000004,-28.8742576302454
-0.2556999999999999,-29.27037679420761
-0.25670000000000004,-29.751378636161718
-0.25769999999999993,-29.96358533114148
-0.25870000000000004,-30.00602667013743
-0.25969999999999993,-30.189939139119886
-0.26070000000000004,-30.614352529079397
-0.26169999999999993,-31.052913032037555
-0.26270000000000004,-31.23682550102001
-0.26369999999999993,-31.27926684001596
-0.26470000000000005,-31.49147353499572
-0.26569999999999994,-32.01491671594578
-0.26670000000000005,-32.53835989689585
-0.26769999999999994,-32.764713704874254
-0.26870000000000005,-32.807155043870196
-0.26969999999999994,-32.93447906085806
-0.27070000000000005,-33.373039563816214
-0.27169999999999994,-33.81160006677438
-0.27270000000000005,-34.02380676175414
-0.27369999999999994,-34.193572117737936
-0.27470000000000006,-34.50480860370825
-0.27569999999999995,-35.07069312365426
-0.27670000000000006,-35.594136304604326
-0.27769999999999995,-35.848784338580025
-0.27870000000000006,-35.94781412957058
-0.27969999999999995,-36.20246216354629
-0.28070000000000006,-36.768346683492304
-0.28169999999999995,-37.376672542434264
-0.28270000000000006,-37.73035036740053
-0.28369999999999995,-37.85767438438838
-0.28470000000000006,-38.253793548350586
-0.28569999999999995,-38.86211940729255
-0.28670000000000007,-39.47044526623452
-0.28769999999999996,-39.82412309120078
-0.28870000000000007,-39.99388844718459
-0.28969999999999996,-40.3900076111468
-0.29070000000000007,-40.99833347008877
-0.29169999999999996,-41.66324778102533
-0.29270000000000007,-42.04521983198889
-0.29369999999999996,-42.3564563179592
-0.2947000000000001,-42.79501682091736
-0.29569999999999996,-43.53066669684718
-0.2967000000000001,-44.4077877027635
-0.29769999999999996,-45.05855490070142
-0.2987000000000001,-45.36979138667173
-0.29969999999999997,-45.75176343763528
-0.3007000000000001,-46.3176479575813
-0.30169999999999997,-46.94012092952192
-0.3027000000000001,-47.36453431948143
-0.30369999999999997,-47.76065348344364
-0.3047000000000001,-48.41142068138156
-0.30569999999999997,-49.33098302629383
-0.3067000000000001,-50.2505453712061
-0.3077,-50.81642989115212
-0.3087000000000001,-51.17010771611838
-0.3097,-51.65110955807249
-0.3107000000000001,-52.42920077299826
-0.3117,-53.22143910092268
-0.3127000000000001,-53.7873236208687
-0.3137,-54.16929567183226
-0.3147000000000001,-54.73518019177827
-0.3157,-55.65474253669055
-0.3167000000000001,-56.57430488160282
-0.3177,-57.30995475753264
-0.3187000000000001,-57.8333979384827
-0.3197,-58.45587091042332
-0.3207000000000001,-59.36128614233694
-0.3217,-60.23840714825326
-0.3227000000000001,-60.889174346191176
-0.3237,-61.412617527141244
-0.3247000000000001,-62.11997317707376
-0.3257,-63.11027108697928
-0.3267000000000001,-64.02983343189156
-0.3277,-64.63815929083353
-0.3287000000000001,-65.0767197937917
-0.3297,-65.64260431373769
-0.3307000000000001,-66.60460799764593
-0.3317,-67.73637703753796
-0.3327000000000001,-68.65593938245023
-0.3337,-69.39158925838004
-0.3347000000000001,-70.14138624730852
-0.3357,-71.10338993121674
-0.3367000000000001,-72.00880516313036
-0.3377,-72.67371947406694
-0.3387000000000001,-73.2820453330089
-0.3397,-74.14501922592657
-0.3407000000000001,-75.37581805680915
-0.3417,-76.63491111368903
-0.3427000000000001,-77.59691479759726
-0.3437,-78.38915312552167
-0.3447000000000001,-79.2945683574353
-0.3457,-80.34145471933543
-0.3467000000000001,-81.43078242023151
-0.3477,-82.30790342614785
-0.3487000000000001,-82.95867062408576
-0.3497,-83.83579163000208
-0.3507000000000001,-85.052443347886
-0.3517,-86.22665372677399
-0.3527000000000001,-87.18865741068221
-0.3537,-87.89601306061473
-0.3547000000000001,-88.80142829252836
-0.3557,-90.03222712341093
-0.35670000000000013,-91.33376151928677
-0.3577,-92.4655305591788
-0.35870000000000013,-93.38509290409107
-0.3597,-94.4319792659912
-0.36070000000000013,-95.60618964487918
-0.3617,-96.73795868477121
-0.3626999999999999,-97.69996236867944
-0.3637,-98.57708337459576
-0.3646999999999999,-99.58152839749994
-0.3657,-101.19429927934607
-0.3666999999999999,-102.97683551717601
-0.3677,-104.3773997040424
-0.3686999999999999,-105.29696204895468
-0.36970000000000003,-106.11749460287639
-0.3706999999999999,-107.03705694778867
-0.37170000000000003,-108.12638464868475
-0.3726999999999999,-109.00350565460108
-0.37370000000000003,-109.8806266605174
-0.3746999999999999,-111.05483703940537
-0.37570000000000003,-112.44125411327312
-0.3766999999999999,-113.71449428315165
-0.37770000000000004,-114.63405662806393
-0.3786999999999999,-115.19994114800993
-0.37970000000000004,-115.85070834594785
-0.3806999999999999,-116.85515336885203
-0.38170000000000004,-118.11424642573192
-0.38269999999999993,-119.2884568046199
-0.38370000000000004,-120.43437295751058
-0.38469999999999993,-121.56614199740261
-0.38570000000000004,-122.78279371528653
-0.38669999999999993,-122.42911589032028
-0.38570000000000004,-119.38748659561045
-0.38469999999999993,-116.62879956087362
-0.38370000000000004,-114.4925854980774
-0.38269999999999993,-113.06372708521374
-0.38170000000000004,-111.7904869153352
-0.3806999999999999,-110.26259871148096
-0.37970000000000004,-108.60738649063886
-0.3786999999999999,-107.07949828678463
-0.37770000000000004,-105.90528790789664
-0.3766999999999999,-104.73107752900866
-0.37570000000000003,-103.33051334214227
-0.3746999999999999,-101.76018379929208
-0.37370000000000003,-100.35961961242569
-0.3726999999999999,-99.22785057253368
-0.37170000000000003,-98.13852287163759
-0.3706999999999999,-96.73795868477121
-0.36970000000000003,-95.18177625491967
-0.3686999999999999,-93.82365340704924
-0.3677,-92.86164972314101
-0.3666999999999999,-91.94208737822873
-0.3657,-90.68299432134886
-0.3646999999999999,-89.19754745649055
-0.3637,-87.79698326962418
-0.3626999999999999,-86.66521422973216
-0.3617,-85.53344518984011
-0.36070000000000013,-84.18946945496833
-0.3597,-82.78890526810196
-0.35870000000000013,-81.65713622820991
-0.3577,-80.82245656128954
-0.35670000000000013,-79.94533555537322
-0.3557,-78.68624249849334
-0.3547000000000001,-77.1583542946391
-0.3537,-75.77193722077136
-0.3527000000000001,-74.72505085887124
-0.3517,-73.62157604497652
-0.3507000000000001,-72.36248298809663
-0.3497,-71.0043601402262
-0.3487000000000001,-69.87259110033416
-0.3477,-69.0096172074165
-0.3467000000000001,-68.0900548625042
-0.3457,-66.87340314462028
-0.3447000000000001,-65.51528029674984
-0.3437,-64.34106991786187
-0.3427000000000001,-63.3366248949577
-0.3417,-62.37462121104946
-0.3407000000000001,-61.28529351015339
-0.3397,-60.06864179226946
-0.3387000000000001,-59.02175543036933
-0.3377,-58.18707576344896
-0.3367000000000001,-57.22507207954074
-0.3357,-56.093303039648696
-0.3347000000000001,-54.791768643772876
-0.3337,-53.64585249088219
-0.3327000000000001,-52.86776127595642
-0.3317,-52.033081609036046
-0.3307000000000001,-50.943753908139975
-0.3297,-49.72710219025603
-0.3287000000000001,-48.55289181136806
-0.3277,-47.71821214444768
-0.3267000000000001,-46.88353247752732
-0.3257,-45.89323456762179
-0.3247000000000001,-44.704877075735155
-0.3237,-43.70043205283099
-0.3227000000000001,-43.007223515897124
-0.3217,-42.2715736399673
-0.3207000000000001,-41.267128617063115
-0.3197,-40.135359577171094
-0.3187000000000001,-39.130914554266916
-0.3177,-38.29623488734655
-0.3167000000000001,-37.51814367242077
-0.3157,-36.55613998851254
-0.3147000000000001,-35.50925362661242
-0.3137,-34.67457395969205
-0.3127000000000001,-34.193572117737936
-0.3117,-33.627687597791926
-0.3107000000000001,-32.764713704874254
-0.3097,-31.618797551983565
-0.3087000000000001,-30.614352529079397
-0.3077,-29.878702653149578
-0.3067000000000001,-29.18549411621571
-0.30569999999999997,-28.308373110299385
-0.3047000000000001,-27.261486748399253
-0.30369999999999997,-26.440954194477534
-0.3027000000000001,-25.73359854454502
-0.30169999999999997,-25.04039000761115
-0.3007000000000001,-24.120827662698876
-0.29969999999999997,-23.031499961802798
-0.2987000000000001,-22.111937616890522
-0.29769999999999996,-21.461170418952605
-0.2967000000000001,-20.89528589900659
-0.29569999999999996,-20.06060623208622
-0.2947000000000001,-19.112749661176647
-0.29369999999999996,-18.27806999425627
-0.29270000000000007,-17.71218547431026
-0.29169999999999996,-17.188742293360193
-0.29070000000000007,-16.396503965435777
-0.28969999999999996,-15.491088733522153
-0.28870000000000007,-14.741291744593681
-0.28769999999999996,-14.26028990263957
-0.28670000000000007,-13.741090855589102
-0.28569999999999995,-12.99978213445982
-0.28470000000000006,-12.084463923447142
-0.28369999999999995,-11.343155202317865
-0.28270000000000006,-10.863568071663616
-0.28169999999999995,-10.42642228000532
-0.28070000000000006,-9.728969609171857
-0.27969999999999995,-8.85609273715513
-0.27870000000000006,-8.158640066321666
-0.27769999999999995,-7.7653503249591855
-0.27670000000000006,-7.329619244600755
-0.27569999999999995,-6.632166573767292
-0.27470000000000006,-5.80314575204638
-0.27369999999999994,-5.149549131508733
-0.27270000000000005,-4.756259390146253
-0.27169999999999994,-4.364384360083638
-0.27070000000000005,-3.7532290785419424
-0.26969999999999994,-2.968064307116847
-0.26870000000000005,-2.3569090255751513
-0.26769999999999994,-2.008890045808352
