Potential V vs RHE, Current mA cm-2
0.05339999999999995,0.09184305758723818
0.05239999999999995,0.08117613438625582
0.051399999999999946,0.07431478458191038
0.050399999999999945,0.0692642652413922
0.049399999999999944,0.06489280732480923
0.04839999999999994,0.06100235125018039
0.04739999999999994,0.057281660531535335
0.04639999999999994,0.05377317650787005
0.04539999999999994,0.05042031072718991
0.04439999999999994,0.04718062185049897
0.04339999999999994,0.044124845442790495
0.04239999999999994,0.04106906903508201
0.04139999999999994,0.03808402819236679
0.040399999999999936,0.03516972291464481
0.039399999999999935,0.03236859454091204
0.038399999999999934,0.029624054619173872
0.03739999999999993,0.027006838714423546
0.03639999999999993,0.024375475696674583
0.03539999999999993,0.021800701130920214
0.03439999999999993,0.0193249563561564
0.03339999999999993,0.017018976937376393
0.03239999999999993,0.014628114840604478
0.03139999999999993,0.012139637664141879
0.030399999999999927,0.009820925843663083
0.029399999999999926,0.0075404112282806465
0.028399999999999925,0.005334876311791053
0.027399999999999924,0.003217053495893093
0.026399999999999924,0.0009661063466778336
0.025399999999999923,-0.0012489071355208544
0.024399999999999922,-0.003358524625879597
0.02339999999999992,-0.005479176864377287
0.02239999999999992,-0.007434307880790768
0.02139999999999992,-0.009569107232287107
0.020399999999999918,-0.011669953512586689
0.019399999999999917,-0.013557178386606646
0.018399999999999916,-0.015491088733522153
0.017399999999999916,-0.01734436053634535
0.016399999999999915,-0.019353250582153703
0.015399999999999914,-0.021347993514963404
0.014399999999999913,-0.023172971091789302
0.013399999999999912,-0.024969654442617898
0.012399999999999911,-0.02682292624544109
0.01139999999999991,-0.028662050935265648
0.01039999999999991,-0.03055776407708479
0.009399999999999908,-0.03226956474992148
0.008399999999999908,-0.033924776970763584
0.007399999999999907,-0.03569316609559487
0.006399999999999906,-0.037503996559422124
0.005399999999999905,-0.03928653279725207
0.004399999999999904,-0.041012480583087416
0.003399999999999903,-0.04259695723893625
0.002399999999999902,-0.0443229050247716
0.0013999999999999013,-0.046077147036604246
0.00039999999999990044,-0.04783138904843689
-0.0006000000000001005,-0.04951489549527628
-0.0016000000000001013,-0.05105693081212918
-0.0026000000000001022,-0.05271214303297127
-0.003600000000000103,-0.05442394370580796
-0.004600000000000104,-0.056121597265646014
-0.005600000000000105,-0.05773436814749215
-0.006600000000000106,-0.05926225635134639
-0.007600000000000107,-0.06079014455520062
-0.008600000000000108,-0.06250194522803733
-0.009600000000000108,-0.06417130456187807
-0.01060000000000011,-0.06578407544372422
-0.01160000000000011,-0.06736855209957304
-0.012600000000000111,-0.06900961720741648
-0.013600000000000112,-0.07066482942825858
-0.014600000000000113,-0.07227760031010473
-0.015600000000000114,-0.0738196356269576
-0.016600000000000115,-0.07540411228280645
-0.017600000000000116,-0.07686126492166745
-0.018600000000000116,-0.07860135982050144
-0.019600000000000117,-0.08028486626734083
-0.020600000000000118,-0.08182690158419371
-0.02160000000000012,-0.08336893690104662
-0.02260000000000012,-0.0848543837659049
-0.02360000000000012,-0.08656618443874159
-0.024600000000000122,-0.08822139665958369
-0.025600000000000123,-0.08977757908943522
-0.026600000000000124,-0.09131961440628812
-0.027600000000000124,-0.09290409106213696
-0.028600000000000125,-0.09455930328297905
-0.029600000000000126,-0.0962852510688144
-0.030600000000000127,-0.0978838748376619
-0.03160000000000013,-0.09941176304151612
-0.03260000000000013,-0.10108112237535687
-0.03360000000000013,-0.1027221874832003
-0.03460000000000002,-0.10444813526903567
-0.03560000000000002,-0.10610334748987776
-0.03660000000000002,-0.10767367703272793
-0.03760000000000002,-0.10938547770556464
-0.03860000000000002,-0.11112557260439863
-0.039600000000000024,-0.11287981461623127
-0.040600000000000025,-0.11454917395007203
-0.041600000000000026,-0.11617609194491682
-0.04260000000000003,-0.11793033395674946
-0.04360000000000003,-0.11975531153357535
-0.04460000000000003,-0.12153784777140529
-0.04560000000000003,-0.12324964844424201
-0.04660000000000003,-0.1249614491170787
-0.04760000000000003,-0.12665910267691674
-0.04860000000000003,-0.12852652159273859
-0.04960000000000003,-0.13042223473455772
-0.050600000000000034,-0.13224721231138362
-0.051600000000000035,-0.13400145432321628
-0.052600000000000036,-0.13574154922205028
-0.053600000000000037,-0.13770799792886268
-0.05460000000000004,-0.13966029952267642
-0.05560000000000004,-0.14147112998650369
-0.05660000000000004,-0.1433102546763282
-0.05760000000000004,-0.14514937936615277
-0.05860000000000004,-0.14712997518596382
-0.05960000000000004,-0.14925204213576138
-0.06060000000000004,-0.1510911668255859
-0.061600000000000044,-0.15307176264539696
-0.06260000000000004,-0.155052358465208
-0.06360000000000005,-0.15717442541500556
-0.06460000000000005,-0.15929649236480314
-0.06560000000000005,-0.16127708818461417
-0.06660000000000005,-0.16325768400442522
-0.06760000000000005,-0.16537975095422278
-0.06860000000000005,-0.16750181790402036
-0.06960000000000005,-0.1697653559838044
-0.07060000000000005,-0.17160448067362896
-0.07160000000000005,-0.1737265476234265
-0.07260000000000005,-0.17584861457322407
-0.07360000000000005,-0.17811215265300812
-0.07460000000000006,-0.1805171618627787
-0.07560000000000006,-0.18278069994256274
-0.07660000000000006,-0.1850442380223468
-0.07760000000000006,-0.18744924723211737
-0.07860000000000006,-0.18971278531190142
-0.07960000000000006,-0.1922592656516585
-0.08060000000000006,-0.19466427486142904
-0.08160000000000006,-0.19692781294121312
-0.08260000000000006,-0.19933282215098366
-0.08360000000000006,-0.20187930249074074
-0.08460000000000006,-0.2044257828304978
-0.08560000000000006,-0.20697226317025488
-0.08660000000000007,-0.20951874351001196
-0.08760000000000007,-0.212065223849769
-0.08860000000000007,-0.21475317531951257
-0.08960000000000007,-0.21758259791924262
-0.09060000000000007,-0.22012907825899972
-0.09160000000000007,-0.2228170297287433
-0.09260000000000007,-0.22550498119848683
-0.09360000000000007,-0.2284758749282034
-0.09460000000000007,-0.2313052975279335
-0.09560000000000007,-0.23427619125765006
-0.09660000000000007,-0.23710561385738013
-0.09760000000000008,-0.2399350364571102
-0.09860000000000008,-0.24304740131681332
-0.09960000000000008,-0.24615976617651636
-0.10060000000000008,-0.24913065990623293
-0.10160000000000008,-0.2521015536359495
-0.10260000000000008,-0.25507244736566614
-0.10360000000000008,-0.2581848122253692
-0.10460000000000008,-0.2615801193450453
-0.10560000000000008,-0.2646924842047484
-0.10660000000000008,-0.267946320194438
-0.10760000000000008,-0.27120015618412757
-0.10860000000000009,-0.27445399217381716
-0.10960000000000009,-0.2779907704234797
-0.11060000000000009,-0.2813860775431558
-0.11160000000000009,-0.2846399135328454
-0.11260000000000009,-0.2880352206525215
-0.11360000000000009,-0.2915719989021841
-0.11460000000000009,-0.2955331905418062
-0.11560000000000009,-0.2992114399214552
-0.11660000000000009,-0.30260674704113133
-0.1176000000000001,-0.30628499642078044
-0.1186000000000001,-0.3099632458004295
-0.1196000000000001,-0.3136414951800786
-0.1206000000000001,-0.3174612156897142
-0.1216000000000001,-0.32128093619934983
-0.1226000000000001,-0.3251006567089854
-0.1236000000000001,-0.3290618483486075
-0.1246000000000001,-0.33302303998822963
-0.1256000000000001,-0.33698423162785174
-0.1266000000000001,-0.34094542326747385
-0.1276000000000001,-0.34476514377710943
-0.1286000000000001,-0.34900927767670453
-0.1296000000000001,-0.35311194044631317
-0.1306000000000001,-0.3572146032159218
-0.1316000000000001,-0.3613172659855304
-0.1326000000000001,-0.36541992875513896
-0.1336000000000001,-0.3695225915247476
-0.1346000000000001,-0.3737667254243427
-0.1356000000000001,-0.3780108593239378
-0.1366000000000001,-0.3822549932235329
-0.1376000000000001,-0.38635765599314154
-0.1386000000000001,-0.3907432610227231
-0.1396000000000001,-0.3951288660523047
-0.1406000000000001,-0.39937299995189984
-0.14160000000000011,-0.4037586049814815
-0.14260000000000012,-0.4081442100110631
-0.14360000000000012,-0.4125298150406447
-0.14460000000000012,-0.41691542007022636
-0.14560000000000012,-0.42144249622979446
-0.14660000000000012,-0.42582810125937604
-0.14760000000000012,-0.43007223515897114
-0.14860000000000012,-0.4344578401885528
-0.14960000000000012,-0.4391263874781074
-0.15060000000000012,-0.443511992507689
-0.15160000000000012,-0.4480390686672571
-0.15260000000000012,-0.45256614482682517
-0.15360000000000013,-0.4570932209863934
-0.15460000000000013,-0.46176176827594795
-0.15560000000000013,-0.4661473733055296
-0.15660000000000013,-0.47053297833511115
-0.15760000000000013,-0.4750600544946793
-0.15860000000000013,-0.4795871306542474
-0.15960000000000002,-0.4841142068138156
-0.16060000000000002,-0.4886412829733836
-0.16160000000000002,-0.49302688800296524
-0.16260000000000002,-0.49741249303254687
-0.16360000000000002,-0.5019395691921149
-0.16460000000000002,-0.5066081164816696
-0.16560000000000002,-0.5114181349012108
-0.16660000000000003,-0.5163696244507384
-0.16760000000000003,-0.520472287220347
-0.16860000000000003,-0.5248578922499286
-0.16960000000000003,-0.5293849684094968
-0.17060000000000003,-0.5337705734390784
-0.17160000000000003,-0.5380147073386735
-0.17260000000000003,-0.5422588412382686
-0.17360000000000003,-0.5467859173978367
-0.17460000000000003,-0.5513129935574048
-0.17560000000000003,-0.5555571274569999
-0.17660000000000003,-0.5599427324865814
-0.17760000000000004,-0.5641868663861767
-0.17860000000000004,-0.5685724714157583
-0.17960000000000004,-0.5730995475753263
-0.18060000000000004,-0.5773436814749214
-0.18160000000000004,-0.5815878153745165
-0.18260000000000004,-0.5858319492741116
-0.18360000000000004,-0.5900760831737067
-0.18460000000000004,-0.5944616882032884
-0.18560000000000004,-0.5987058221028836
-0.18660000000000004,-0.6029499560024787
-0.18760000000000004,-0.6070526187720873
-0.18860000000000005,-0.6111552815416958
-0.18960000000000005,-0.6156823577012639
-0.19060000000000005,-0.6195020782108995
-0.19160000000000005,-0.6236047409805081
-0.19260000000000005,-0.6278488748801032
-0.19360000000000005,-0.6319515376497118
-0.19460000000000005,-0.6363371426792934
-0.19560000000000005,-0.6402983343189155
-0.19660000000000005,-0.6442595259585376
-0.19760000000000005,-0.6482207175981597
-0.19860000000000005,-0.6523233803677684
-0.19960000000000006,-0.6564260431373771
-0.20060000000000006,-0.6603872347769991
-0.20160000000000006,-0.6643484264166213
-0.20260000000000006,-0.6683096180562434
-0.20360000000000006,-0.6722708096958655
-0.20460000000000006,-0.6763734724654741
-0.20560000000000006,-0.6804761352350827
-0.20660000000000006,-0.6842958557447183
-0.20760000000000006,-0.6881155762543539
-0.20860000000000006,-0.6922182390239625
-0.20960000000000006,-0.6961794306635846
-0.21060000000000006,-0.7001406223032067
-0.21160000000000007,-0.7038188716828558
-0.21260000000000007,-0.7074971210625048
-0.21360000000000007,-0.711458312702127
-0.21460000000000007,-0.7151365620817761
-0.21560000000000007,-0.7189562825914116
-0.21660000000000007,-0.7229174742310338
-0.21760000000000007,-0.7268786658706559
-0.21860000000000007,-0.730556915250305
-0.21960000000000007,-0.7342351646299541
-0.22060000000000007,-0.7379134140096032
-0.22160000000000007,-0.7414501922592658
-0.22260000000000008,-0.7449869705089284
-0.22360000000000008,-0.748806691018564
-0.22460000000000008,-0.7526264115281995
-0.22560000000000008,-0.756163189777862
-0.22660000000000008,-0.7598414391575111
-0.22760000000000008,-0.7632367462771872
-0.22860000000000008,-0.7669149956568363
-0.22960000000000008,-0.7707347161664719
-0.23060000000000008,-0.7742714944161345
-0.23160000000000008,-0.7778082726657971
-0.23260000000000008,-0.7812035797854733
-0.23360000000000009,-0.7847403580351359
-0.2346000000000001,-0.7885600785447714
-0.2356000000000001,-0.7922383279244205
-0.2366000000000001,-0.7957751061740831
-0.2376000000000001,-0.7993118844237457
-0.2386000000000001,-0.8025657204134353
-0.2396000000000001,-0.8062439697930843
-0.2406000000000001,-0.8097807480427469
-0.2416000000000001,-0.8131760551624231
-0.2426000000000001,-0.8167128334120857
-0.2436000000000001,-0.8202496116617483
-0.2446000000000001,-0.823786389911411
-0.2456000000000001,-0.82746463929106
-0.2466000000000001,-0.8308599464107361
-0.2476000000000001,-0.8341137824004257
-0.2486000000000001,-0.8375090895201018
-0.2496000000000001,-0.8410458677697643
-0.2506000000000001,-0.8447241171494134
-0.2516000000000001,-0.848260895399076
-0.2526000000000001,-0.8515147313887655
-0.2536000000000001,-0.8550515096384281
-0.2546000000000001,-0.8587297590180772
-0.2556000000000001,-0.8622665372677398
-0.2566000000000001,-0.8658033155174024
-0.2576000000000001,-0.8690571515070921
-0.2586000000000001,-0.8727354008867412
-0.2596000000000001,-0.8762721791364039
-0.2606000000000001,-0.8799504285160528
-0.2616000000000001,-0.8834872067657155
-0.2626000000000001,-0.8868825138853914
-0.2636000000000001,-0.8905607632650405
-0.2646000000000001,-0.8942390126446896
-0.2656000000000001,-0.8977757908943523
-0.2666000000000001,-0.9014540402740014
-0.2676000000000001,-0.9049908185236639
-0.2686000000000001,-0.908669067903313
-0.2696000000000001,-0.9126302595429352
-0.2706000000000001,-0.9161670377925977
-0.2716000000000001,-0.9197038160422604
-0.2726000000000001,-0.9232405942919228
-0.2736000000000001,-0.926918843671572
-0.2746000000000001,-0.9307385641812077
-0.2756000000000001,-0.9344168135608568
-0.2766000000000001,-0.9380950629405057
-0.2776000000000001,-0.9419147834501415
-0.2786000000000001,-0.9455930328297906
-0.2796000000000001,-0.9495542244694126
-0.2806000000000001,-0.9532324738490617
-0.28160000000000013,-0.9569107232287108
-0.28260000000000013,-0.9607304437383465
-0.28360000000000013,-0.9645501642479821
-0.2846,-0.9685113558876042
-0.2856,-0.9724725475272262
-0.2866,-0.9761507969068753
-0.2876,-0.9799705174165111
-0.2886,-0.983931709056133
-0.2896,-0.9878929006957552
-0.2906,-0.9919955634653637
-0.2916,-0.9956738128450128
-0.2926,-0.9993520622246619
-0.2936,-1.003313253864284
-0.29460000000000003,-1.007274445503906
-0.29560000000000003,-1.0113771082735146
-0.29660000000000003,-1.0151968287831503
-0.29760000000000003,-1.0188750781627993
-0.29860000000000003,-1.0228362698024216
-0.29960000000000003,-1.0267974614420434
-0.30060000000000003,-1.0306171819516792
-0.30160000000000003,-1.0347198447212878
-0.30260000000000004,-1.038398094100937
-0.30360000000000004,-1.042642228000532
-0.30460000000000004,-1.0467448907701407
-0.30560000000000004,-1.0507060824097627
-0.30660000000000004,-1.0546672740493848
-0.30760000000000004,-1.0579211100390744
-0.30860000000000004,-1.061457888288737
-0.30960000000000004,-1.0658434933183185
-0.31060000000000004,-1.0699461560879273
-0.31160000000000004,-1.0739073477275494
-0.31260000000000004,-1.0777270682371851
-0.31360000000000005,-1.0815467887468206
-0.31460000000000005,-1.0857909226464155
-0.31560000000000005,-1.0897521142860378
-0.31660000000000005,-1.0935718347956733
-0.31760000000000005,-1.097391555305309
-0.31860000000000005,-1.101352746944931
-0.31960000000000005,-1.1058798231044993
-0.32060000000000005,-1.1102654281340807
-0.32160000000000005,-1.11394367751373
-0.32260000000000005,-1.118187811413325
-0.32360000000000005,-1.1221490030529473
-0.32460000000000006,-1.1261101946925691
-0.32560000000000006,-1.1302128574621777
-0.32660000000000006,-1.1341740491017998
-0.32760000000000006,-1.137852298481449
-0.32860000000000006,-1.141813490121071
-0.32960000000000006,-1.1459161528906798
-0.33060000000000006,-1.1497358734003151
-0.33160000000000006,-1.1534141227799644
-0.33260000000000006,-1.1570923721596134
-0.33360000000000006,-1.1610535637992356
-0.33460000000000006,-1.1647318131788846
-0.33560000000000006,-1.1685515336885204
-0.33660000000000007,-1.1722297830681694
-0.33760000000000007,-1.1759080324478186
-0.33860000000000007,-1.180010695217427
-0.33960000000000007,-1.1842548291170223
-0.34060000000000007,-1.1882160207566443
-0.34160000000000007,-1.192318683526253
-0.34260000000000007,-1.1958554617759156
-0.34360000000000007,-1.1998166534155377
-0.3446000000000001,-1.204202258445119
-0.3456000000000001,-1.2081634500847414
-0.3466000000000001,-1.21226611285435
-0.34759999999999996,-1.2159443622339992
-0.3486000000000001,-1.2196226116136482
-0.34959999999999997,-1.2234423321232837
-0.3506000000000001,-1.2274035237629057
-0.35159999999999997,-1.2312232442725415
-0.3526000000000001,-1.2350429647821768
-0.35359999999999997,-1.238721214161826
-0.3546000000000001,-1.2431068191914076
-0.35559999999999997,-1.2469265397010434
-0.3566000000000001,-1.2508877313406654
-0.3576,-1.2548489229802875
-0.3586000000000001,-1.2585271723599365
-0.3596,-1.2624883639995588
-0.3606000000000001,-1.2665910267691676
-0.3616,-1.2704107472788029
-0.3626000000000001,-1.2738060543984788
-0.3636,-1.2776257749081146
-0.3646000000000001,-1.28186990880771
-0.3656,-1.285831100447332
-0.3666000000000001,-1.289509349826981
-0.3676,-1.293470541466603
-0.3686000000000001,-1.2977146753661983
-0.3696,-1.3019588092657932
-0.3706000000000001,-1.3063444142953748
-0.3716,-1.3107300193249565
-0.3726000000000001,-1.3146912109645787
-0.3736,-1.3186524026042006
-0.3746000000000001,-1.3226135942438229
-0.3756,-1.3271406704033908
-0.3766000000000001,-1.331667746562959
-0.3776,-1.3359118804625543
-0.3786000000000001,-1.340297485492136
-0.3796,-1.3449660327816904
-0.3806000000000001,-1.349068695551299
-0.3816,-1.3530298871909212
-0.3826000000000001,-1.3574154922205026
-0.3836,-1.3620840395100575
-0.3846000000000001,-1.3671770001895716
-0.3856,-1.371562605219153
-0.3866000000000001,-1.3762311525087079
-0.3876,-1.380899699798262
-0.3886000000000001,-1.385285304827844
-0.3896,-1.3905197366373445
-0.3906000000000001,-1.3958956395768316
-0.3916,-1.4012715425163187
-0.3926000000000001,-1.40608156093586
-0.3936,-1.4108915793554009
-0.3946000000000001,-1.4161260111649017
-0.3956,-1.421784856364362
-0.3966000000000001,-1.427443701563822
-0.3976,-1.431687835463417
-0.3986000000000001,-1.4373466806628774
-0.3996,-1.4430055258623373
-0.4006000000000001,-1.4500790823616625
-0.4016,-1.4543232162612578
-0.4026000000000001,-1.459982061460718
-0.4036,-1.4656409066601779
-0.4046000000000001,-1.472714463159503
-0.4056,-1.4783733083589634
-0.40660000000000013,-1.4840321535584236
-0.4076,-1.4911057100577487
-0.40860000000000013,-1.4967645552572086
-0.4096,-1.5038381117565338
-0.41060000000000013,-1.5094969569559942
-0.4116,-1.5165705134553193
-0.41260000000000013,-1.5222293586547795
-0.4136,-1.5293029151541047
-0.41460000000000014,-1.5363764716534298
-0.4156,-1.543450028152755
-0.41660000000000014,-1.55052358465208
-0.4176,-1.5575971411514054
-0.41860000000000014,-1.5660854089505953
-0.41960000000000003,-1.5731589654499207
-0.42060000000000014,-1.5816472332491107
-0.42160000000000003,-1.5901355010483011
-0.42260000000000014,-1.5972090575476263
-0.42360000000000003,-1.6056973253468165
-0.42460000000000014,-1.614185593146007
-0.42560000000000003,-1.6226738609451972
-0.42660000000000015,-1.6325768400442524
-0.42760000000000004,-1.6396503965435776
-0.42860000000000015,-1.6481386643427678
-0.42960000000000004,-1.658041643441823
-0.43060000000000015,-1.6665299112410132
-0.43160000000000004,-1.6764328903400685
-0.43260000000000015,-1.6863358694391237
-0.43360000000000004,-1.696238848538179
-0.43460000000000015,-1.7061418276372344
-0.43560000000000004,-1.7160448067362895
-0.43660000000000015,-1.72736249713521
-0.43760000000000004,-1.7372654762342652
-0.43860000000000016,-1.7485831666331852
-0.43960000000000005,-1.7599008570321055
-0.44060000000000016,-1.771218547431026
-0.44160000000000005,-1.7825362378299463
-0.44260000000000016,-1.7938539282288664
-0.44360000000000005,-1.8065863299276517
-0.44460000000000016,-1.8193187316264372
