Sept. 18, 2024   21:39:36
Cyclic Voltammetry
File: c:/users/guazh/data/20240903_batch_252_500/2024-09-03-exp391\exp391-2024-09-18t21_29_54-arkoh\exp391_cv_sr_100mvs_efin_-1500mv.bin
Data Source:  Experiment
Instrument Model:  CHI760E
Header: CV ran at 100 mVs
Note: 

Init E (V) = -1
High E (V) = -1
Low E (V) = -1.5
Final E (V) = -1
Init P/N = N
Scan Rate (V/s) = 0.1
Segment = 3
Sample Interval (V) = 0.001
Quiet Time (sec) = 2
Sensitivity (A/V) = 0.01
Comp R (ohm) = 1.9

Results:

Channel 1:
Segment 1:

Segment 2:

Segment 3:

Potential/V, Current/A

-1.000, 1.093e-5
-1.001, 3.811e-5
-1.002, 4.780e-5
-1.003, 5.136e-5
-1.004, 5.332e-5
-1.005, 5.569e-5
-1.006, 5.588e-5
-1.007, 5.804e-5
-1.008, 5.885e-5
-1.009, 5.926e-5
-1.010, 6.113e-5
-1.011, 6.108e-5
-1.012, 6.277e-5
-1.013, 6.312e-5
-1.014, 6.307e-5
-1.015, 6.477e-5
-1.016, 6.401e-5
-1.017, 6.571e-5
-1.018, 6.619e-5
-1.019, 6.585e-5
-1.020, 6.754e-5
-1.021, 6.683e-5
-1.022, 6.797e-5
-1.023, 6.854e-5
-1.024, 6.867e-5
-1.025, 6.996e-5
-1.026, 6.928e-5
-1.027, 7.014e-5
-1.028, 7.068e-5
-1.029, 7.003e-5
-1.030, 7.134e-5
-1.031, 7.058e-5
-1.032, 7.132e-5
-1.033, 7.177e-5
-1.034, 7.146e-5
-1.035, 7.254e-5
-1.036, 7.200e-5
-1.037, 7.284e-5
-1.038, 7.331e-5
-1.039, 7.296e-5
-1.040, 7.377e-5
-1.041, 7.287e-5
-1.042, 7.389e-5
-1.043, 7.387e-5
-1.044, 7.394e-5
-1.045, 7.472e-5
-1.046, 7.400e-5
-1.047, 7.505e-5
-1.048, 7.503e-5
-1.049, 7.502e-5
-1.050, 7.632e-5
-1.051, 7.485e-5
-1.052, 7.622e-5
-1.053, 7.631e-5
-1.054, 7.563e-5
-1.055, 7.670e-5
-1.056, 7.574e-5
-1.057, 7.683e-5
-1.058, 7.669e-5
-1.059, 7.611e-5
-1.060, 7.736e-5
-1.061, 7.637e-5
-1.062, 7.714e-5
-1.063, 7.767e-5
-1.064, 7.676e-5
-1.065, 7.795e-5
-1.066, 7.708e-5
-1.067, 7.797e-5
-1.068, 7.809e-5
-1.069, 7.733e-5
-1.070, 7.856e-5
-1.071, 7.750e-5
-1.072, 7.838e-5
-1.073, 7.882e-5
-1.074, 7.842e-5
-1.075, 7.983e-5
-1.076, 7.866e-5
-1.077, 7.930e-5
-1.078, 7.939e-5
-1.079, 7.887e-5
-1.080, 7.979e-5
-1.081, 7.858e-5
-1.082, 7.957e-5
-1.083, 7.962e-5
-1.084, 7.929e-5
-1.085, 8.032e-5
-1.086, 7.971e-5
-1.087, 8.060e-5
-1.088, 8.036e-5
-1.089, 7.984e-5
-1.090, 8.091e-5
-1.091, 7.974e-5
-1.092, 8.095e-5
-1.093, 8.108e-5
-1.094, 8.046e-5
-1.095, 8.196e-5
-1.096, 8.040e-5
-1.097, 8.176e-5
-1.098, 8.163e-5
-1.099, 8.087e-5
-1.100, 8.239e-5
-1.101, 8.144e-5
-1.102, 8.211e-5
-1.103, 8.265e-5
-1.104, 8.131e-5
-1.105, 8.287e-5
-1.106, 8.168e-5
-1.107, 8.250e-5
-1.108, 8.313e-5
-1.109, 8.206e-5
-1.110, 8.336e-5
-1.111, 8.248e-5
-1.112, 8.303e-5
-1.113, 8.330e-5
-1.114, 8.284e-5
-1.115, 8.408e-5
-1.116, 8.328e-5
-1.117, 8.379e-5
-1.118, 8.419e-5
-1.119, 8.357e-5
-1.120, 8.480e-5
-1.121, 8.421e-5
-1.122, 8.477e-5
-1.123, 8.516e-5
-1.124, 8.469e-5
-1.125, 8.586e-5
-1.126, 8.508e-5
-1.127, 8.564e-5
-1.128, 8.535e-5
-1.129, 8.504e-5
-1.130, 8.633e-5
-1.131, 8.535e-5
-1.132, 8.653e-5
-1.133, 8.637e-5
-1.134, 8.641e-5
-1.135, 8.784e-5
-1.136, 8.645e-5
-1.137, 8.734e-5
-1.138, 8.752e-5
-1.139, 8.658e-5
-1.140, 8.819e-5
-1.141, 8.745e-5
-1.142, 8.816e-5
-1.143, 8.853e-5
-1.144, 8.786e-5
-1.145, 8.965e-5
-1.146, 8.905e-5
-1.147, 8.952e-5
-1.148, 8.987e-5
-1.149, 8.905e-5
-1.150, 9.056e-5
-1.151, 8.972e-5
-1.152, 9.076e-5
-1.153, 9.111e-5
-1.154, 9.044e-5
-1.155, 9.132e-5
-1.156, 9.070e-5
-1.157, 9.148e-5
-1.158, 9.199e-5
-1.159, 9.185e-5
-1.160, 9.292e-5
-1.161, 9.223e-5
-1.162, 9.302e-5
-1.163, 9.314e-5
-1.164, 9.290e-5
-1.165, 9.432e-5
-1.166, 9.355e-5
-1.167, 9.485e-5
-1.168, 9.494e-5
-1.169, 9.463e-5
-1.170, 9.629e-5
-1.171, 9.536e-5
-1.172, 9.627e-5
-1.173, 9.660e-5
-1.174, 9.589e-5
-1.175, 9.764e-5
-1.176, 9.687e-5
-1.177, 9.831e-5
-1.178, 9.884e-5
-1.179, 9.839e-5
-1.180, 9.989e-5
-1.181, 9.900e-5
-1.182, 1.000e-4
-1.183, 1.005e-4
-1.184, 1.000e-4
-1.185, 1.017e-4
-1.186, 1.012e-4
-1.187, 1.021e-4
-1.188, 1.031e-4
-1.189, 1.026e-4
-1.190, 1.042e-4
-1.191, 1.036e-4
-1.192, 1.046e-4
-1.193, 1.056e-4
-1.194, 1.051e-4
-1.195, 1.070e-4
-1.196, 1.067e-4
-1.197, 1.077e-4
-1.198, 1.083e-4
-1.199, 1.081e-4
-1.200, 1.096e-4
-1.201, 1.094e-4
-1.202, 1.107e-4
-1.203, 1.110e-4
-1.204, 1.113e-4
-1.205, 1.132e-4
-1.206, 1.132e-4
-1.207, 1.146e-4
-1.208, 1.149e-4
-1.209, 1.150e-4
-1.210, 1.170e-4
-1.211, 1.167e-4
-1.212, 1.183e-4
-1.213, 1.191e-4
-1.214, 1.194e-4
-1.215, 1.216e-4
-1.216, 1.213e-4
-1.217, 1.229e-4
-1.218, 1.241e-4
-1.219, 1.239e-4
-1.220, 1.264e-4
-1.221, 1.260e-4
-1.222, 1.273e-4
-1.223, 1.294e-4
-1.224, 1.295e-4
-1.225, 1.321e-4
-1.226, 1.320e-4
-1.227, 1.335e-4
-1.228, 1.354e-4
-1.229, 1.367e-4
-1.230, 1.383e-4
-1.231, 1.385e-4
-1.232, 1.404e-4
-1.233, 1.421e-4
-1.234, 1.427e-4
-1.235, 1.452e-4
-1.236, 1.461e-4
-1.237, 1.480e-4
-1.238, 1.496e-4
-1.239, 1.504e-4
-1.240, 1.530e-4
-1.241, 1.539e-4
-1.242, 1.561e-4
-1.243, 1.584e-4
-1.244, 1.597e-4
-1.245, 1.624e-4
-1.246, 1.638e-4
-1.247, 1.659e-4
-1.248, 1.677e-4
-1.249, 1.690e-4
-1.250, 1.724e-4
-1.251, 1.736e-4
-1.252, 1.765e-4
-1.253, 1.790e-4
-1.254, 1.806e-4
-1.255, 1.844e-4
-1.256, 1.860e-4
-1.257, 1.886e-4
-1.258, 1.917e-4
-1.259, 1.931e-4
-1.260, 1.973e-4
-1.261, 1.991e-4
-1.262, 2.023e-4
-1.263, 2.051e-4
-1.264, 2.067e-4
-1.265, 2.114e-4
-1.266, 2.134e-4
-1.267, 2.172e-4
-1.268, 2.209e-4
-1.269, 2.227e-4
-1.270, 2.277e-4
-1.271, 2.306e-4
-1.272, 2.339e-4
-1.273, 2.379e-4
-1.274, 2.407e-4
-1.275, 2.454e-4
-1.276, 2.486e-4
-1.277, 2.523e-4
-1.278, 2.568e-4
-1.279, 2.601e-4
-1.280, 2.659e-4
-1.281, 2.693e-4
-1.282, 2.739e-4
-1.283, 2.792e-4
-1.284, 2.828e-4
-1.285, 2.881e-4
-1.286, 2.924e-4
-1.287, 2.972e-4
-1.288, 3.024e-4
-1.289, 3.066e-4
-1.290, 3.131e-4
-1.291, 3.174e-4
-1.292, 3.234e-4
-1.293, 3.289e-4
-1.294, 3.335e-4
-1.295, 3.406e-4
-1.296, 3.456e-4
-1.297, 3.516e-4
-1.298, 3.581e-4
-1.299, 3.635e-4
-1.300, 3.710e-4
-1.301, 3.765e-4
-1.302, 3.828e-4
-1.303, 3.903e-4
-1.304, 3.951e-4
-1.305, 4.032e-4
-1.306, 4.100e-4
-1.307, 4.171e-4
-1.308, 4.242e-4
-1.309, 4.303e-4
-1.310, 4.389e-4
-1.311, 4.456e-4
-1.312, 4.528e-4
-1.313, 4.613e-4
-1.314, 4.690e-4
-1.315, 4.775e-4
-1.316, 4.852e-4
-1.317, 4.926e-4
-1.318, 5.008e-4
-1.319, 5.079e-4
-1.320, 5.175e-4
-1.321, 5.258e-4
-1.322, 5.352e-4
-1.323, 5.449e-4
-1.324, 5.530e-4
-1.325, 5.633e-4
-1.326, 5.725e-4
-1.327, 5.820e-4
-1.328, 5.921e-4
-1.329, 6.007e-4
-1.330, 6.116e-4
-1.331, 6.204e-4
-1.332, 6.308e-4
-1.333, 6.412e-4
-1.334, 6.504e-4
-1.335, 6.617e-4
-1.336, 6.717e-4
-1.337, 6.822e-4
-1.338, 6.924e-4
-1.339, 7.021e-4
-1.340, 7.149e-4
-1.341, 7.251e-4
-1.342, 7.377e-4
-1.343, 7.491e-4
-1.344, 7.584e-4
-1.345, 7.708e-4
-1.346, 7.816e-4
-1.347, 7.932e-4
-1.348, 8.057e-4
-1.349, 8.161e-4
-1.350, 8.298e-4
-1.351, 8.413e-4
-1.352, 8.552e-4
-1.353, 8.689e-4
-1.354, 8.803e-4
-1.355, 8.934e-4
-1.356, 9.053e-4
-1.357, 9.182e-4
-1.358, 9.313e-4
-1.359, 9.444e-4
-1.360, 9.590e-4
-1.361, 9.719e-4
-1.362, 9.854e-4
-1.363, 9.988e-4
-1.364, 1.011e-3
-1.365, 1.024e-3
-1.366, 1.036e-3
-1.367, 1.051e-3
-1.368, 1.065e-3
-1.369, 1.078e-3
-1.370, 1.095e-3
-1.371, 1.109e-3
-1.372, 1.124e-3
-1.373, 1.138e-3
-1.374, 1.152e-3
-1.375, 1.167e-3
-1.376, 1.182e-3
-1.377, 1.198e-3
-1.378, 1.213e-3
-1.379, 1.227e-3
-1.380, 1.244e-3
-1.381, 1.259e-3
-1.382, 1.275e-3
-1.383, 1.290e-3
-1.384, 1.305e-3
-1.385, 1.321e-3
-1.386, 1.336e-3
-1.387, 1.356e-3
-1.388, 1.376e-3
-1.389, 1.392e-3
-1.390, 1.408e-3
-1.391, 1.422e-3
-1.392, 1.434e-3
-1.393, 1.448e-3
-1.394, 1.466e-3
-1.395, 1.485e-3
-1.396, 1.502e-3
-1.397, 1.520e-3
-1.398, 1.539e-3
-1.399, 1.556e-3
-1.400, 1.575e-3
-1.401, 1.593e-3
-1.402, 1.612e-3
-1.403, 1.632e-3
-1.404, 1.649e-3
-1.405, 1.669e-3
-1.406, 1.688e-3
-1.407, 1.706e-3
-1.408, 1.725e-3
-1.409, 1.744e-3
-1.410, 1.764e-3
-1.411, 1.780e-3
-1.412, 1.801e-3
-1.413, 1.822e-3
-1.414, 1.841e-3
-1.415, 1.862e-3
-1.416, 1.882e-3
-1.417, 1.901e-3
-1.418, 1.918e-3
-1.419, 1.936e-3
-1.420, 1.956e-3
-1.421, 1.973e-3
-1.422, 1.993e-3
-1.423, 2.017e-3
-1.424, 2.038e-3
-1.425, 2.060e-3
-1.426, 2.082e-3
-1.427, 2.106e-3
-1.428, 2.130e-3
-1.429, 2.150e-3
-1.430, 2.174e-3
-1.431, 2.195e-3
-1.432, 2.216e-3
-1.433, 2.240e-3
-1.434, 2.263e-3
-1.435, 2.287e-3
-1.436, 2.308e-3
-1.437, 2.329e-3
-1.438, 2.354e-3
-1.439, 2.376e-3
-1.440, 2.399e-3
-1.441, 2.421e-3
-1.442, 2.447e-3
-1.443, 2.472e-3
-1.444, 2.494e-3
-1.445, 2.517e-3
-1.446, 2.538e-3
-1.447, 2.561e-3
-1.448, 2.584e-3
-1.449, 2.608e-3
-1.450, 2.635e-3
-1.451, 2.661e-3
-1.452, 2.686e-3
-1.453, 2.712e-3
-1.454, 2.737e-3
-1.455, 2.765e-3
-1.456, 2.788e-3
-1.457, 2.815e-3
-1.458, 2.842e-3
-1.459, 2.867e-3
-1.460, 2.897e-3
-1.461, 2.921e-3
-1.462, 2.948e-3
-1.463, 2.976e-3
-1.464, 3.001e-3
-1.465, 3.026e-3
-1.466, 3.049e-3
-1.467, 3.077e-3
-1.468, 3.106e-3
-1.469, 3.133e-3
-1.470, 3.160e-3
-1.471, 3.190e-3
-1.472, 3.221e-3
-1.473, 3.249e-3
-1.474, 3.276e-3
-1.475, 3.306e-3
-1.476, 3.337e-3
-1.477, 3.368e-3
-1.478, 3.399e-3
-1.479, 3.424e-3
-1.480, 3.452e-3
-1.481, 3.484e-3
-1.482, 3.509e-3
-1.483, 3.540e-3
-1.484, 3.571e-3
-1.485, 3.596e-3
-1.486, 3.622e-3
-1.487, 3.652e-3
-1.488, 3.678e-3
-1.489, 3.703e-3
-1.490, 3.735e-3
-1.491, 3.763e-3
-1.492, 3.794e-3
-1.493, 3.824e-3
-1.494, 3.856e-3
-1.495, 3.892e-3
-1.496, 3.928e-3
-1.497, 3.963e-3
-1.498, 3.996e-3
-1.499, 4.034e-3
-1.500, 4.015e-3
-1.499, 3.949e-3
-1.498, 3.898e-3
-1.497, 3.845e-3
-1.496, 3.793e-3
-1.495, 3.748e-3
-1.494, 3.702e-3
-1.493, 3.658e-3
-1.492, 3.609e-3
-1.491, 3.560e-3
-1.490, 3.515e-3
-1.489, 3.473e-3
-1.488, 3.431e-3
-1.487, 3.388e-3
-1.486, 3.342e-3
-1.485, 3.302e-3
-1.484, 3.259e-3
-1.483, 3.216e-3
-1.482, 3.175e-3
-1.481, 3.132e-3
-1.480, 3.092e-3
-1.479, 3.049e-3
-1.478, 3.015e-3
-1.477, 2.982e-3
-1.476, 2.942e-3
-1.475, 2.909e-3
-1.474, 2.871e-3
-1.473, 2.834e-3
-1.472, 2.800e-3
-1.471, 2.765e-3
-1.470, 2.730e-3
-1.469, 2.695e-3
-1.468, 2.660e-3
-1.467, 2.629e-3
-1.466, 2.595e-3
-1.465, 2.564e-3
-1.464, 2.533e-3
-1.463, 2.500e-3
-1.462, 2.467e-3
-1.461, 2.435e-3
-1.460, 2.404e-3
-1.459, 2.368e-3
-1.458, 2.338e-3
-1.457, 2.307e-3
-1.456, 2.275e-3
-1.455, 2.248e-3
-1.454, 2.218e-3
-1.453, 2.191e-3
-1.452, 2.163e-3
-1.451, 2.135e-3
-1.450, 2.109e-3
-1.449, 2.081e-3
-1.448, 2.054e-3
-1.447, 2.028e-3
-1.446, 1.999e-3
-1.445, 1.976e-3
-1.444, 1.949e-3
-1.443, 1.922e-3
-1.442, 1.898e-3
-1.441, 1.873e-3
-1.440, 1.849e-3
-1.439, 1.823e-3
-1.438, 1.798e-3
-1.437, 1.774e-3
-1.436, 1.750e-3
-1.435, 1.726e-3
-1.434, 1.702e-3
-1.433, 1.680e-3
-1.432, 1.659e-3
-1.431, 1.635e-3
-1.430, 1.615e-3
-1.429, 1.592e-3
-1.428, 1.570e-3
-1.427, 1.548e-3
-1.426, 1.528e-3
-1.425, 1.509e-3
-1.424, 1.487e-3
-1.423, 1.467e-3
-1.422, 1.446e-3
-1.421, 1.424e-3
-1.420, 1.403e-3
-1.419, 1.385e-3
-1.418, 1.366e-3
-1.417, 1.347e-3
-1.416, 1.328e-3
-1.415, 1.311e-3
-1.414, 1.291e-3
-1.413, 1.273e-3
-1.412, 1.256e-3
-1.411, 1.239e-3
-1.410, 1.222e-3
-1.409, 1.205e-3
-1.408, 1.190e-3
-1.407, 1.174e-3
-1.406, 1.157e-3
-1.405, 1.141e-3
-1.404, 1.121e-3
-1.403, 1.107e-3
-1.402, 1.092e-3
-1.401, 1.075e-3
-1.400, 1.061e-3
-1.399, 1.045e-3
-1.398, 1.028e-3
-1.397, 1.015e-3
-1.396, 9.993e-4
-1.395, 9.857e-4
-1.394, 9.712e-4
-1.393, 9.573e-4
-1.392, 9.445e-4
-1.391, 9.288e-4
-1.390, 9.154e-4
-1.389, 9.017e-4
-1.388, 8.890e-4
-1.387, 8.768e-4
-1.386, 8.622e-4
-1.385, 8.508e-4
-1.384, 8.372e-4
-1.383, 8.239e-4
-1.382, 8.110e-4
-1.381, 7.976e-4
-1.380, 7.874e-4
-1.379, 7.742e-4
-1.378, 7.620e-4
-1.377, 7.511e-4
-1.376, 7.392e-4
-1.375, 7.285e-4
-1.374, 7.173e-4
-1.373, 7.079e-4
-1.372, 6.963e-4
-1.371, 6.845e-4
-1.370, 6.740e-4
-1.369, 6.620e-4
-1.368, 6.522e-4
-1.367, 6.419e-4
-1.366, 6.307e-4
-1.365, 6.216e-4
-1.364, 6.112e-4
-1.363, 6.011e-4
-1.362, 5.926e-4
-1.361, 5.820e-4
-1.360, 5.733e-4
-1.359, 5.633e-4
-1.358, 5.532e-4
-1.357, 5.450e-4
-1.356, 5.347e-4
-1.355, 5.268e-4
-1.354, 5.171e-4
-1.353, 5.081e-4
-1.352, 5.010e-4
-1.351, 4.905e-4
-1.350, 4.831e-4
-1.349, 4.748e-4
-1.348, 4.659e-4
-1.347, 4.585e-4
-1.346, 4.489e-4
-1.345, 4.424e-4
-1.344, 4.340e-4
-1.343, 4.261e-4
-1.342, 4.183e-4
-1.341, 4.102e-4
-1.340, 4.039e-4
-1.339, 3.961e-4
-1.338, 3.889e-4
-1.337, 3.822e-4
-1.336, 3.738e-4
-1.335, 3.678e-4
-1.334, 3.599e-4
-1.333, 3.530e-4
-1.332, 3.471e-4
-1.331, 3.388e-4
-1.330, 3.333e-4
-1.329, 3.261e-4
-1.328, 3.198e-4
-1.327, 3.138e-4
-1.326, 3.065e-4
-1.325, 3.007e-4
-1.324, 2.938e-4
-1.323, 2.878e-4
-1.322, 2.829e-4
-1.321, 2.753e-4
-1.320, 2.707e-4
-1.319, 2.640e-4
-1.318, 2.579e-4
-1.317, 2.530e-4
-1.316, 2.470e-4
-1.315, 2.425e-4
-1.314, 2.366e-4
-1.313, 2.304e-4
-1.312, 2.263e-4
-1.311, 2.195e-4
-1.310, 2.155e-4
-1.309, 2.102e-4
-1.308, 2.050e-4
-1.307, 2.007e-4
-1.306, 1.945e-4
-1.305, 1.902e-4
-1.304, 1.850e-4
-1.303, 1.800e-4
-1.302, 1.761e-4
-1.301, 1.704e-4
-1.300, 1.669e-4
-1.299, 1.618e-4
-1.298, 1.573e-4
-1.297, 1.532e-4
-1.296, 1.480e-4
-1.295, 1.447e-4
-1.294, 1.398e-4
-1.293, 1.355e-4
-1.292, 1.321e-4
-1.291, 1.268e-4
-1.290, 1.237e-4
-1.289, 1.192e-4
-1.288, 1.156e-4
-1.287, 1.124e-4
-1.286, 1.075e-4
-1.285, 1.048e-4
-1.284, 1.007e-4
-1.283, 9.654e-5
-1.282, 9.415e-5
-1.281, 8.915e-5
-1.280, 8.632e-5
-1.279, 8.283e-5
-1.278, 7.899e-5
-1.277, 7.695e-5
-1.276, 7.214e-5
-1.275, 6.976e-5
-1.274, 6.648e-5
-1.273, 6.291e-5
-1.272, 6.066e-5
-1.271, 5.622e-5
-1.270, 5.437e-5
-1.269, 5.115e-5
-1.268, 4.775e-5
-1.267, 4.591e-5
-1.266, 4.178e-5
-1.265, 3.966e-5
-1.264, 3.692e-5
-1.263, 3.383e-5
-1.262, 3.216e-5
-1.261, 2.834e-5
-1.260, 2.641e-5
-1.259, 2.351e-5
-1.258, 2.105e-5
-1.257, 1.901e-5
-1.256, 1.559e-5
-1.255, 1.404e-5
-1.254, 1.109e-5
-1.253, 8.720e-6
-1.252, 7.269e-6
-1.251, 3.836e-6
-1.250, 2.958e-6
-1.249, 2.348e-7
-1.248, -2.064e-6
-1.247, -3.149e-6
-1.246, -6.691e-6
-1.245, -7.382e-6
-1.244, -9.710e-6
-1.243, -1.195e-5
-1.242, -1.302e-5
-1.241, -1.623e-5
-1.240, -1.647e-5
-1.239, -1.896e-5
-1.238, -2.091e-5
-1.237, -2.157e-5
-1.236, -2.457e-5
-1.235, -2.534e-5
-1.234, -2.742e-5
-1.233, -2.951e-5
-1.232, -2.977e-5
-1.231, -3.233e-5
-1.230, -3.309e-5
-1.229, -3.584e-5
-1.228, -3.715e-5
-1.227, -3.735e-5
-1.226, -3.965e-5
-1.225, -4.066e-5
-1.224, -4.188e-5
-1.223, -4.347e-5
-1.222, -4.390e-5
-1.221, -4.591e-5
-1.220, -4.660e-5
-1.219, -4.790e-5
-1.218, -4.946e-5
-1.217, -4.995e-5
-1.216, -5.188e-5
-1.215, -5.237e-5
-1.214, -5.396e-5
-1.213, -5.498e-5
-1.212, -5.516e-5
-1.211, -5.723e-5
-1.210, -5.711e-5
-1.209, -5.865e-5
-1.208, -5.967e-5
-1.207, -5.952e-5
-1.206, -6.170e-5
-1.205, -6.194e-5
-1.204, -6.311e-5
-1.203, -6.426e-5
-1.202, -6.434e-5
-1.201, -6.650e-5
-1.200, -6.621e-5
-1.199, -6.719e-5
-1.198, -6.836e-5
-1.197, -6.799e-5
-1.196, -6.991e-5
-1.195, -6.977e-5
-1.194, -7.053e-5
-1.193, -7.214e-5
-1.192, -7.132e-5
-1.191, -7.316e-5
-1.190, -7.329e-5
-1.189, -7.391e-5
-1.188, -7.498e-5
-1.187, -7.461e-5
-1.186, -7.608e-5
-1.185, -7.624e-5
-1.184, -7.663e-5
-1.183, -7.788e-5
-1.182, -7.800e-5
-1.181, -7.904e-5
-1.180, -7.891e-5
-1.179, -7.954e-5
-1.178, -8.095e-5
-1.177, -8.057e-5
-1.176, -8.167e-5
-1.175, -8.148e-5
-1.174, -8.226e-5
-1.173, -8.310e-5
-1.172, -8.236e-5
-1.171, -8.411e-5
-1.170, -8.364e-5
-1.169, -8.443e-5
-1.168, -8.504e-5
-1.167, -8.456e-5
-1.166, -8.630e-5
-1.165, -8.557e-5
-1.164, -8.618e-5
-1.163, -8.722e-5
-1.162, -8.647e-5
-1.161, -8.802e-5
-1.160, -8.761e-5
-1.159, -8.803e-5
-1.158, -8.906e-5
-1.157, -8.847e-5
-1.156, -9.001e-5
-1.155, -8.972e-5
-1.154, -9.014e-5
-1.153, -9.105e-5
-1.152, -9.038e-5
-1.151, -9.162e-5
-1.150, -9.136e-5
-1.149, -9.154e-5
-1.148, -9.266e-5
-1.147, -9.193e-5
-1.146, -9.333e-5
-1.145, -9.323e-5
-1.144, -9.316e-5
-1.143, -9.434e-5
-1.142, -9.382e-5
-1.141, -9.480e-5
-1.140, -9.472e-5
-1.139, -9.532e-5
-1.138, -9.634e-5
-1.137, -9.592e-5
-1.136, -9.674e-5
-1.135, -9.622e-5
-1.134, -9.682e-5
-1.133, -9.759e-5
-1.132, -9.703e-5
-1.131, -9.849e-5
-1.130, -9.821e-5
-1.129, -9.879e-5
-1.128, -9.931e-5
-1.127, -9.871e-5
-1.126, -1.003e-4
-1.125, -9.982e-5
-1.124, -1.001e-4
-1.123, -1.013e-4
-1.122, -1.005e-4
-1.121, -1.023e-4
-1.120, -1.014e-4
-1.119, -1.020e-4
-1.118, -1.030e-4
-1.117, -1.022e-4
-1.116, -1.035e-4
-1.115, -1.032e-4
-1.114, -1.037e-4
-1.113, -1.049e-4
-1.112, -1.039e-4
-1.111, -1.056e-4
-1.110, -1.053e-4
-1.109, -1.057e-4
-1.108, -1.069e-4
-1.107, -1.059e-4
-1.106, -1.072e-4
-1.105, -1.072e-4
-1.104, -1.072e-4
-1.103, -1.083e-4
-1.102, -1.078e-4
-1.101, -1.093e-4
-1.100, -1.088e-4
-1.099, -1.093e-4
-1.098, -1.107e-4
-1.097, -1.106e-4
-1.096, -1.113e-4
-1.095, -1.109e-4
-1.094, -1.114e-4
-1.093, -1.123e-4
-1.092, -1.117e-4
-1.091, -1.131e-4
-1.090, -1.128e-4
-1.089, -1.134e-4
-1.088, -1.140e-4
-1.087, -1.137e-4
-1.086, -1.153e-4
-1.085, -1.149e-4
-1.084, -1.156e-4
-1.083, -1.165e-4
-1.082, -1.158e-4
-1.081, -1.176e-4
-1.080, -1.167e-4
-1.079, -1.171e-4
-1.078, -1.184e-4
-1.077, -1.175e-4
-1.076, -1.195e-4
-1.075, -1.196e-4
-1.074, -1.196e-4
-1.073, -1.208e-4
-1.072, -1.198e-4
-1.071, -1.215e-4
-1.070, -1.217e-4
-1.069, -1.218e-4
-1.068, -1.231e-4
-1.067, -1.224e-4
-1.066, -1.236e-4
-1.065, -1.235e-4
-1.064, -1.240e-4
-1.063, -1.252e-4
-1.062, -1.247e-4
-1.061, -1.262e-4
-1.060, -1.261e-4
-1.059, -1.267e-4
-1.058, -1.274e-4
-1.057, -1.274e-4
-1.056, -1.284e-4
-1.055, -1.286e-4
-1.054, -1.294e-4
-1.053, -1.300e-4
-1.052, -1.297e-4
-1.051, -1.313e-4
-1.050, -1.312e-4
-1.049, -1.322e-4
-1.048, -1.329e-4
-1.047, -1.326e-4
-1.046, -1.344e-4
-1.045, -1.341e-4
-1.044, -1.347e-4
-1.043, -1.359e-4
-1.042, -1.354e-4
-1.041, -1.370e-4
-1.040, -1.367e-4
-1.039, -1.374e-4
-1.038, -1.388e-4
-1.037, -1.385e-4
-1.036, -1.403e-4
-1.035, -1.399e-4
-1.034, -1.407e-4
-1.033, -1.423e-4
-1.032, -1.414e-4
-1.031, -1.434e-4
-1.030, -1.434e-4
-1.029, -1.442e-4
-1.028, -1.454e-4
-1.027, -1.446e-4
-1.026, -1.462e-4
-1.025, -1.466e-4
-1.024, -1.475e-4
-1.023, -1.487e-4
-1.022, -1.486e-4
-1.021, -1.499e-4
-1.020, -1.502e-4
-1.019, -1.511e-4
-1.018, -1.522e-4
-1.017, -1.524e-4
-1.016, -1.534e-4
-1.015, -1.538e-4
-1.014, -1.546e-4
-1.013, -1.556e-4
-1.012, -1.558e-4
-1.011, -1.575e-4
-1.010, -1.578e-4
-1.009, -1.585e-4
-1.008, -1.595e-4
-1.007, -1.595e-4
-1.006, -1.611e-4
-1.005, -1.612e-4
-1.004, -1.626e-4
-1.003, -1.637e-4
-1.002, -1.636e-4
-1.001, -1.654e-4
