Potential V vs RHE, Current mA cm-2
0.013299999999999867,3.3769158727778423
0.012299999999999978,2.3144676865791998
0.011299999999999866,1.5618412750510005
0.010299999999999976,0.7867209538549468
0.009299999999999864,0.250828313466071
0.008299999999999974,-0.3013335068712528
0.007299999999999862,-0.8345381957903852
0.006299999999999972,-1.2036363739251732
0.00529999999999986,-1.6891652920388538
0.0042999999999999705,-2.008890045808352
0.0032999999999998586,-2.3767149837732613
0.0022999999999999687,-2.7473693443379013
0.0012999999999998568,-2.990699687914687
0.00029999999999996696,-3.359939337179462
-0.000700000000000145,-3.5679018982596227
-0.0017000000000000348,-3.849429446932765
-0.0027000000000001467,-4.135201129505503
-0.0037000000000000366,-4.3205283097878215
-0.0047000000000001485,-4.650156042656376
-0.005700000000000038,-4.80860370824126
-0.00670000000000015,-5.020810403221016
-0.00770000000000004,-5.266970169397532
-0.008700000000000152,-5.4169295671832245
-0.009700000000000042,-5.718263074054478
-0.010700000000000154,-5.855490070141387
-0.011700000000000044,-6.1044792589176335
-0.012700000000000156,-6.376103828491721
-0.013700000000000045,-6.470889485582678
-0.014700000000000157,-6.653387243265268
-0.015700000000000047,-6.6958285822612185
-0.01670000000000016,-6.954720750136521
-0.01770000000000005,-7.287177905604803
-0.01870000000000016,-7.390451830494952
-0.01970000000000005,-7.619635061073087
-0.020700000000000163,-7.676223513067688
-0.021700000000000053,-7.780912149257703
-0.022700000000000164,-8.012924802435567
-0.023700000000000054,-8.230790342614783
-0.024700000000000166,-8.492511933089816
-0.025700000000000056,-8.48543837659049
-0.026700000000000168,-8.628324217876859
-0.027700000000000058,-8.89570465355135
-0.02870000000000017,-9.06688472083502
-0.02970000000000006,-9.242308922018283
-0.03070000000000017,-9.342753424308702
-0.03170000000000006,-9.550715985388862
-0.03270000000000017,-9.785558061166459
-0.03370000000000006,-9.874684873057957
-0.034700000000000175,-10.137821174832853
-0.035700000000000065,-10.338710179413688
-0.03670000000000018,-10.538184472694656
-0.03770000000000007,-10.664093778382647
-0.03870000000000018,-10.657020221883322
-0.03970000000000007,-10.883374029861727
-0.04070000000000018,-11.012112758149446
-0.04170000000000007,-11.237051854827985
-0.04270000000000018,-11.486041043604232
-0.04370000000000007,-11.55536189729762
-0.044700000000000184,-11.79161868437508
-0.045700000000000074,-11.870842517167523
-0.046700000000000186,-12.081634500847414
-0.047700000000000076,-12.346185513922174
-0.04870000000000019,-12.387212141618262
-0.04970000000000008,-12.599418836598016
-0.05070000000000019,-12.72108400838641
-0.05170000000000008,-12.923387724267112
-0.05270000000000019,-13.035149916956447
-0.05370000000000008,-13.189353448641736
-0.05470000000000019,-13.592546169103274
-0.05570000000000008,-13.752408545988024
-0.056700000000000195,-13.808996997982623
-0.057700000000000085,-13.881147274275738
-0.058700000000000196,-13.944809282769667
-0.059700000000000086,-14.331025467632822
-0.0607000000000002,-14.557379275611227
-0.06170000000000009,-14.727144631595033
-0.0627000000000002,-14.812027309586934
-0.06370000000000009,-14.868615761581536
-0.0647000000000002,-15.151558021554543
-0.06570000000000009,-15.307176264539699
-0.0667000000000002,-15.505235846520803
-0.0677000000000001,-15.689148315503255
-0.0687000000000002,-15.689148315503255
-0.0697000000000001,-16.000384801473565
-0.07070000000000021,-16.24088572245062
-0.0717000000000001,-16.368209739438473
-0.07270000000000021,-16.50968086942498
-0.0737000000000001,-16.622857773414182
-0.07470000000000021,-16.849211581392588
-0.0757000000000001,-16.919947146385837
-0.07670000000000021,-17.146300954364243
-0.0777000000000001,-17.34436053634535
-0.07870000000000021,-17.34436053634535
-0.0797000000000001,-17.584861457322408
-0.08070000000000022,-17.782921039303513
-0.0817000000000001,-18.05171618627787
-0.08270000000000022,-18.391246898245473
-0.08370000000000011,-18.362952672248177
-0.08470000000000022,-18.292217107254928
-0.08570000000000011,-18.603453593225233
-0.08670000000000022,-18.872248740199588
-0.08770000000000011,-18.95713141819149
-0.08870000000000022,-19.126896774175293
-0.08970000000000011,-19.3249563561564
-0.09070000000000022,-19.395691921149652
-0.09170000000000011,-19.60789861612941
-0.09270000000000023,-19.961576441095666
-0.09370000000000012,-20.202077362072725
-0.09470000000000023,-20.42843117005113
-0.09570000000000012,-20.301107153063278
-0.09670000000000023,-20.34354849205923
-0.09770000000000012,-20.810403221014692
-0.09870000000000023,-21.149933932982297
-0.09970000000000012,-21.19237527197825
-0.10070000000000023,-20.90943301200524
-0.10170000000000012,-21.050904141991744
-0.10270000000000024,-21.828995356917517
-0.10370000000000013,-22.097790503891872
-0.10470000000000024,-22.182673181883775
-0.10570000000000013,-21.92802514790807
-0.10670000000000024,-21.97046648690402
-0.10770000000000013,-22.493909667854084
-0.10870000000000024,-22.890028831816295
-0.10970000000000013,-23.017352848804148
-0.11070000000000024,-22.87588171881764
-0.11170000000000013,-23.2012653177866
-0.11270000000000002,-23.682267159740714
-0.11370000000000013,-23.639825820744765
-0.11470000000000002,-23.809591176728567
-0.11570000000000014,-24.149121888696175
-0.11670000000000003,-24.516946826661083
-0.11770000000000014,-24.785741973635442
-0.11870000000000003,-24.601829504652986
-0.11970000000000014,-24.70085929564354
-0.12070000000000003,-25.054537120609798
-0.12170000000000014,-25.43650917157336
-0.12270000000000003,-25.691157205549064
-0.12370000000000014,-25.42236205857471
-0.12470000000000003,-25.40821494557606
-0.12570000000000014,-25.931658126526123
-0.12670000000000003,-26.497542646472137
-0.12770000000000015,-26.667308002455943
-0.12870000000000004,-26.55413109846674
-0.12970000000000015,-27.134162731411404
-0.13070000000000004,-27.40295787838576
-0.13170000000000015,-27.615164573365515
-0.13270000000000004,-27.64345879936282
-0.13370000000000015,-27.544429008372262
-0.13470000000000004,-28.421550014288584
-0.13570000000000015,-28.88840474324405
-0.13670000000000004,-29.157199890218404
-0.13770000000000016,-29.001581647233255
-0.13870000000000005,-29.029875873230555
-0.13970000000000016,-29.510877715184666
-0.14070000000000005,-29.822114201154974
-0.14170000000000016,-29.793819975157668
-0.14270000000000005,-29.906996879146874
-0.14370000000000016,-30.303116043109085
-0.14470000000000005,-30.7841178850632
-0.14570000000000016,-31.010471693041605
-0.14670000000000005,-31.350002405009217
-0.14770000000000016,-31.56220909998897
-0.14870000000000005,-31.533914873991666
-0.14970000000000017,-31.590503325986273
-0.15070000000000006,-32.22712341092554
-0.15170000000000017,-32.764713704874254
-0.15270000000000006,-32.8354492698675
-0.15370000000000017,-33.0335088518486
-0.15470000000000006,-33.55695203279867
-0.15570000000000017,-33.726717388782475
-0.15670000000000006,-33.86818851876898
-0.15770000000000017,-34.221866343735236
-0.15870000000000006,-34.51895571670689
-0.15970000000000018,-34.75945663768395
-0.16070000000000007,-34.92922199366775
-0.16170000000000018,-35.254605592636715
-0.16270000000000007,-35.594136304604326
-0.16370000000000018,-35.636577643600276
-0.16470000000000007,-36.08928525955708
-0.16570000000000018,-36.54199287551389
-0.16670000000000007,-36.5985813275085
-0.16770000000000018,-36.90981781347881
-0.16870000000000007,-37.305936977441014
-0.16970000000000018,-37.702056141403226
-0.17070000000000007,-38.06988107936814
-0.17170000000000019,-38.43770601733305
-0.17270000000000008,-38.692354051308754
-0.1737000000000002,-39.03188476327636
-0.17470000000000008,-39.59776928322238
-0.1757000000000002,-39.66850484821563
-0.17670000000000008,-39.78168175220483
-0.1777000000000002,-40.03632978618054
-0.17870000000000008,-40.27683070715759
-0.1797000000000002,-40.715391210115754
-0.18070000000000008,-40.77197966211036
-0.1817000000000002,-40.97003924409146
-0.18270000000000008,-41.47933531204288
-0.1837000000000002,-41.76227757201589
-0.1847000000000001,-41.98863137999429
-0.1857000000000002,-42.2715736399673
-0.1867000000000001,-42.681839916928155
-0.1877000000000002,-43.219430210876865
-0.1887000000000001,-43.53066669684718
-0.1897000000000002,-43.75702050482558
-0.1907000000000001,-43.82775606981884
-0.1917000000000001,-43.94093297380804
-0.19269999999999998,-44.535111719751356
-0.1937000000000001,-45.10099623969737
-0.19469999999999998,-45.44052695166498
-0.1957000000000001,-45.32735004767578
-0.19669999999999999,-45.412232725667685
-0.1977000000000001,-45.80835188962989
-0.1987,-46.2327652795894
-0.1997000000000001,-46.713767121543505
-0.2007,-46.74206134754081
-0.2017000000000001,-46.82694402553272
-0.2027,-47.20891607649628
-0.2037000000000001,-47.71821214444768
-0.2047,-48.312390890391
-0.2057000000000001,-48.524597585370756
-0.2067,-48.538744698369406
-0.2077000000000001,-48.43971490737886
-0.2087,-48.73680428035051
-0.2097000000000001,-49.50074838227763
-0.2107,-49.9110146592385
-0.2117000000000001,-50.052485789224995
-0.2127,-50.1939569192115
-0.2137000000000001,-50.024191563227696
-0.2147,-50.32128093619935
-0.2157000000000001,-50.85887123014807
-0.2167,-51.085225038126474
-0.21770000000000012,-51.071077925127824
-0.2187,-51.15596060311972
-0.21970000000000012,-50.915459682142675
-0.2207,-51.014489473133224
-0.22170000000000012,-52.34431809500636
-0.2227,-53.37705734390783
-0.22370000000000012,-53.16485064892808
-0.2247,-52.82531993696047
-0.22570000000000012,-52.79702571096317
-0.2267,-53.23558621392132
-0.22770000000000012,-54.0419716548444
-0.22870000000000001,-53.999530315848446
-0.22970000000000013,-53.68829382987814
-0.23070000000000002,-53.84391207286329
-0.23170000000000013,-54.05611876784305
-0.23270000000000002,-54.35320814081471
-0.23370000000000013,-54.494679270801214
-0.23470000000000002,-54.494679270801214
-0.23570000000000013,-54.74932730477692
-0.23670000000000002,-55.088858016744524
-0.2376999999999999,-55.6688896496892
-0.23870000000000002,-55.79621366667705
-0.2396999999999999,-55.527418519702685
-0.24070000000000003,-55.18788780773508
-0.24169999999999991,-55.527418519702685
-0.24270000000000003,-56.12159726564601
-0.24369999999999992,-56.22062705663656
-0.24470000000000003,-56.22062705663656
-0.24569999999999992,-56.1781857176406
-0.24670000000000003,-56.24892128263386
-0.24769999999999992,-56.13574437864466
-0.24870000000000003,-56.022567474655446
-0.24969999999999992,-56.12159726564601
-0.25070000000000003,-55.85280211867165
-0.2516999999999999,-56.12159726564601
-0.25270000000000004,-56.88554136757313
-0.2536999999999999,-56.97042404556503
-0.25470000000000004,-56.84310002857717
-0.2556999999999999,-57.12604228855018
-0.25670000000000004,-57.33824898352994
-0.25769999999999993,-57.027012497559625
-0.25870000000000004,-56.008420361656796
-0.25969999999999993,-55.994273248658146
-0.26070000000000004,-56.786511576582576
-0.26169999999999993,-56.65918755959472
-0.26270000000000004,-55.8103607796757
-0.26369999999999993,-55.14544646873913
-0.26470000000000005,-55.6971838756865
-0.26569999999999994,-56.39039241262036
-0.26670000000000005,-56.39039241262036
-0.26769999999999994,-56.079155926650046
-0.26870000000000005,-56.05086170065276
-0.26969999999999994,-56.29136262162981
-0.27070000000000005,-55.93768479666355
-0.27169999999999994,-55.456682954709436
-0.27270000000000005,-55.32935893772159
-0.27369999999999994,-55.27277048572698
-0.27470000000000006,-55.088858016744524
-0.27569999999999995,-54.834209982768826
-0.27670000000000006,-54.52297349679851
-0.27769999999999995,-54.26832546282281
-0.27870000000000006,-53.999530315848446
-0.27969999999999995,-53.85805918586195
-0.28070000000000006,-53.71658805587545
-0.28169999999999995,-53.88635341185925
-0.28270000000000006,-53.7873236208687
-0.28369999999999995,-53.023379518941574
-0.28470000000000006,-52.386759434002315
-0.28569999999999995,-52.45749499899556
-0.28670000000000007,-52.20284696501985
-0.28769999999999996,-51.934051818045496
-0.28870000000000007,-51.65110955807249
-0.28969999999999996,-51.35402018510083
-0.29070000000000007,-50.43445784018856
-0.29169999999999996,-50.81642989115212
-0.29270000000000007,-50.34957516219666
-0.29369999999999996,-49.76954352925199
-0.2947000000000001,-50.22225114520881
-0.29569999999999996,-50.53348763117911
-0.2967000000000001,-49.74124930325469
-0.29769999999999996,-48.538744698369406
-0.2987000000000001,-47.421122771476035
-0.29969999999999997,-47.36453431948143
-0.3007000000000001,-48.001154404420696
-0.30169999999999997,-48.312390890391
-0.3027000000000001,-47.619182353457134
-0.30369999999999997,-46.586443104555656
-0.3047000000000001,-46.515707539562406
-0.30569999999999997,-46.68547289554621
-0.3067000000000001,-46.61473733055296
-0.3077,-45.93567590661774
-0.3087000000000001,-45.030260674704124
-0.3097,-44.67658284973786
-0.3107000000000001,-44.535111719751356
-0.3117,-44.54925883275
-0.3127000000000001,-44.45022904175945
-0.3137,-44.08240410379454
-0.3147000000000001,-43.81360895682018
-0.3157,-43.53066669684718
-0.3167000000000001,-42.97892928989981
-0.3177,-42.483780334947056
-0.3187000000000001,-42.497927447945706
-0.3197,-43.077959080890366
-0.3207000000000001,-42.71013414292546
-0.3217,-41.59251221603208
-0.3227000000000001,-41.30956995605907
-0.3237,-41.649100668026676
-0.3247000000000001,-41.91789581500104
-0.3257,-41.47933531204288
-0.3267000000000001,-41.182245939071215
-0.3277,-41.139804600075266
-0.3287000000000001,-40.99833347008877
-0.3297,-41.01248058308742
-0.3307000000000001,-40.92759790509552
-0.3317,-40.94174501809416
-0.3327000000000001,-40.701244097117105
-0.3337,-40.40415472414545
-0.3347000000000001,-40.57392008012925
-0.3357,-40.77197966211036
-0.3367000000000001,-40.48903740213735
-0.3377,-40.20609514216434
-0.3387000000000001,-40.30512493315489
-0.3397,-40.630508532123855
-0.3407000000000001,-40.51733162813464
-0.3417,-40.24853648116029
-0.3427000000000001,-40.33341915915219
-0.3437,-40.40415472414545
-0.3447000000000001,-40.4183018371441
-0.3457,-40.24853648116029
-0.3467000000000001,-40.02218267318189
-0.3477,-40.29097782015624
-0.3487000000000001,-40.68709698411846
-0.3497,-40.95589213109281
-0.3507000000000001,-40.814421001106304
-0.3517,-40.91345079209687
-0.3527000000000001,-41.267128617063115
-0.3537,-41.22468727806717
-0.3547000000000001,-41.42274686004827
-0.3557,-41.606659329030734
-0.35670000000000013,-41.56421799003478
-0.3577,-41.38030552105233
-0.35870000000000013,-41.210540165068515
-0.3597,-41.40859974704962
-0.36070000000000013,-41.606659329030734
-0.3617,-41.83301313700913
-0.3626999999999999,-42.01692560599159
-0.3637,-42.45548610894975
-0.3646999999999999,-42.554515899940306
-0.3657,-42.243279413969994
-0.3666999999999999,-42.3847505439565
-0.3677,-42.96478217690117
-0.3686999999999999,-43.17698887188092
-0.36970000000000003,-42.89404661190791
-0.3706999999999999,-42.72428125592411
-0.37170000000000003,-43.41748979285798
-0.3726999999999999,-44.153139668787794
-0.37370000000000003,-43.75702050482558
-0.3746999999999999,-43.03551774189442
-0.37570000000000003,-42.554515899940306
-0.3766999999999999,-43.24772443687417
-0.37770000000000004,-44.223875233781044
-0.3786999999999999,-44.66243573673921
-0.37970000000000004,-44.4926703807554
-0.3806999999999999,-44.08240410379454
-0.38170000000000004,-44.86049531872031
-0.38269999999999993,-45.79420477663124
-0.38370000000000004,-45.45467406466363
-0.38469999999999993,-45.07270201370007
-0.38570000000000004,-45.25661448268253
-0.38669999999999993,-46.119588375600195
-0.38770000000000004,-46.19032394059345
-0.38869999999999993,-45.22832025668522
-0.38970000000000005,-44.775612640728404
-0.39069999999999994,-45.497115403659585
-0.39170000000000005,-46.74206134754081
-0.39269999999999994,-46.77035557353811
-0.39370000000000005,-46.147882601597495
-0.39469999999999994,-46.501560426563756
-0.39570000000000005,-46.88353247752732
-0.39669999999999994,-46.65717866954891
-0.39770000000000005,-46.47326620056646
-0.39869999999999994,-46.72791423454216
-0.39970000000000006,-47.13818051150302
-0.40069999999999995,-47.19476896349763
-0.40170000000000006,-47.70406503144903
-0.40269999999999995,-48.12847842140855
-0.40370000000000006,-47.36453431948143
-0.40469999999999995,-46.85523825153001
-0.40570000000000006,-47.19476896349763
-0.40669999999999995,-48.21336109940045
-0.40770000000000006,-48.24165532539775
-0.40869999999999995,-47.83138904843689
-0.40970000000000006,-48.12847842140855
-0.41069999999999995,-48.35483222938696
-0.41170000000000007,-48.86412829733837
-0.41269999999999996,-48.77924561934647
-0.41370000000000007,-49.118776331314066
-0.41469999999999996,-49.23195323530328
-0.41570000000000007,-48.609480263362656
-0.41669999999999996,-48.086037082412595
-0.41770000000000007,-48.39727356838291
-0.41869999999999996,-48.94901097533027
-0.4197000000000001,-49.514895495276285
-0.42069999999999996,-49.33098302629383
-0.4217000000000001,-48.84998118433972
-0.42269999999999996,-48.82168695834242
-0.4237000000000001,-48.97730520132757
-0.42469999999999997,-49.28854168729788
-0.4257000000000001,-49.17536478330867
-0.42669999999999997,-49.14707055731138
-0.4277000000000001,-49.68466085126009
-0.42869999999999997,-49.75539641625335
-0.4297000000000001,-49.557336834272235
-0.43069999999999997,-49.33098302629383
-0.4317000000000001,-49.33098302629383
-0.4327,-49.86857332024254
-0.4337000000000001,-50.1939569192115
-0.4347,-49.86857332024254
-0.4357000000000001,-49.40171859128708
-0.4367,-49.58563106026953
-0.4377000000000001,-50.1656626932142
-0.4387,-50.22225114520881
-0.4397000000000001,-49.9110146592385
-0.4407,-49.52904260827494
-0.4417000000000001,-50.010044450229046
-0.4427,-51.000342360134574
-0.4437000000000001,-50.84472411714942
-0.4447,-50.60422319617236
-0.4457000000000001,-50.75984143915752
-0.4467,-50.83057700415076
-0.4477000000000001,-51.085225038126474
-0.4487,-51.38231441109813
-0.4497000000000001,-52.061375835033346
-0.4507,-52.45749499899556
-0.4517000000000001,-52.61311324198071
-0.4527,-53.33461600491189
-0.4537000000000001,-54.14100144583495
-0.4547,-54.57956194879311
-0.4557000000000001,-55.20203492073373
-0.4567,-56.1781857176406
-0.4577000000000001,-57.16848362754614
-0.4587,-58.05975174646111
-0.4597000000000001,-59.389580368334244
-0.4607,-60.974057024183075
-0.4617000000000001,-62.61512213202652
-0.4627,-64.31277569186457
-0.4637000000000001,-65.28892648877145
-0.4647,-66.49143109365673
-0.4657000000000001,-67.63734724654739
-0.4667,-68.89644030342728
-0.4677000000000001,-71.30144951319785
-0.4687,-73.6781644969711
-0.4697000000000001,-75.8709670117619
-0.4707,-77.95059262256353
-0.4717000000000001,-79.53506927841237
-0.4727,-81.55810643721937
-0.4737000000000001,-84.30264635895755
-0.4747,-86.6227728907362
-0.4757000000000001,-88.30627933757559
-0.4767,-90.48493473936773
-0.4777000000000001,-93.48412269508162
-0.4787,-96.22866261681979
-0.4797000000000001,-98.71855450458226
-0.4807,-100.89720990637443
-0.48170000000000013,-103.37295468113824
-0.4827,-106.2872599588602
-0.48370000000000013,-109.25815368857677
-0.4847,-111.98854649731629
-0.48570000000000013,-114.16720189910848
-0.4867,-115.70923721596135
-0.48570000000000013,-116.26097462290872
-0.4847,-116.61465244787497
-0.48370000000000013,-117.05321295083314
-0.4827,-117.70398014877104
-0.48170000000000013,-118.26986466871706
-0.4807,-118.69427805867657
-0.4797000000000001,-118.87819052765903
-0.4787,-118.84989630166173
-0.4777000000000001,-118.76501362366983
-0.4767,-119.09039722263879
-0.4757000000000001,-119.24601546562396
-0.4747,-118.89233764065769
-0.4737000000000001,-118.83574918866307
-0.4727,-119.3450452566145
-0.4717000000000001,-119.61384040358885
-0.4707,-119.38748659561045
-0.4697000000000001,-118.49621847669547
-0.4687,-118.0576579737373
-0.4677000000000001,-118.18498199072516
-0.4667,-118.35474734670898
-0.4657000000000001,-118.2557175557184
-0.4647,-117.43518500179668
-0.4637000000000001,-116.31756307490332
