Potential V vs RHE, Current mA cm-2
0.013299999999999867,5.057592897017507
0.012299999999999978,3.748984944642347
0.011299999999999866,2.4842330425630044
0.010299999999999976,1.2626298351295453
0.009299999999999864,0.08502414912188871
0.008299999999999974,-1.0490084288499246
0.007299999999999862,-2.226755585987568
0.006299999999999972,-3.317497998183511
0.00529999999999986,-4.364384360083638
0.0042999999999999705,-5.411270721983764
0.0032999999999998586,-6.414301033588076
0.0022999999999999687,-7.37347529489657
0.0012999999999998568,-8.288793505909249
0.00029999999999996696,-9.161670377925978
-0.000700000000000145,-10.034547249942705
-0.0017000000000000348,-10.863568071663616
-0.0027000000000001467,-11.73503023238048
-0.0037000000000000366,-12.56405105410139
-0.0047000000000001485,-13.3930718758223
-0.005700000000000038,-14.217848563643619
-0.00670000000000015,-15.05252823056399
-0.00770000000000004,-15.830619445489761
-0.008700000000000152,-16.622857773414182
-0.009700000000000042,-17.358507649344002
-0.010700000000000154,-18.10830463827247
-0.011700000000000044,-18.88639585319824
-0.012700000000000156,-19.537163051136158
-0.013700000000000045,-20.202077362072725
-0.014700000000000157,-20.85284456001064
-0.015700000000000047,-21.503611757948562
-0.01670000000000016,-22.111937616890522
-0.01770000000000005,-22.776851927827092
-0.01870000000000016,-23.385177786769056
-0.01970000000000005,-24.035944984706973
-0.020700000000000163,-24.686712182644893
-0.021700000000000053,-25.295038041586857
-0.022700000000000164,-26.002393691519377
-0.023700000000000054,-26.65316088945729
-0.024700000000000166,-27.261486748399253
-0.025700000000000056,-27.912253946337174
-0.026700000000000168,-28.577168257273744
-0.027700000000000058,-29.18549411621571
-0.02870000000000017,-29.751378636161718
-0.02970000000000006,-30.317263156107735
-0.03070000000000017,-30.88314767605375
-0.03170000000000006,-31.40659085700382
-0.03270000000000017,-31.972475376949827
-0.03370000000000006,-32.53835989689585
-0.034700000000000175,-33.10424441684186
-0.035700000000000065,-33.670128936787876
-0.03670000000000018,-34.278454795729836
-0.03770000000000007,-34.85848642867451
-0.03870000000000018,-35.46681228761647
-0.03970000000000007,-36.03269680756248
-0.04070000000000018,-36.5985813275085
-0.04170000000000007,-37.164465847454515
-0.04270000000000018,-37.645467689408626
-0.04370000000000007,-38.12646953136274
-0.044700000000000184,-38.607471373316855
-0.045700000000000074,-39.08847321527096
-0.046700000000000186,-39.51288660523048
-0.047700000000000076,-39.99388844718459
-0.04870000000000019,-40.4748902891387
-0.04970000000000008,-40.99833347008877
-0.05070000000000019,-41.52177665103883
-0.05170000000000008,-42.087661170984845
-0.05270000000000019,-42.6111043519349
-0.05370000000000008,-43.17698887188092
-0.05470000000000019,-43.75702050482558
-0.05570000000000008,-44.3229050247716
-0.056700000000000195,-44.88878954471762
-0.057700000000000085,-45.45467406466363
-0.058700000000000196,-45.97811724561369
-0.059700000000000086,-46.501560426563756
-0.0607000000000002,-46.982562268517874
-0.06170000000000009,-47.506005449467935
-0.0627000000000002,-48.029448630417996
-0.06370000000000009,-48.55289181136806
-0.0647000000000002,-49.076334992318124
-0.06570000000000009,-49.59977817326819
-0.0667000000000002,-50.1656626932142
-0.0677000000000001,-50.73154721316022
-0.0687000000000002,-51.33987307210218
-0.0697000000000001,-51.948198931044146
-0.07070000000000021,-52.55652478998611
-0.0717000000000001,-53.16485064892808
-0.07270000000000021,-53.7873236208687
-0.0737000000000001,-54.39564947981066
-0.07470000000000021,-55.003975338752625
-0.0757000000000001,-55.56985985869864
-0.07670000000000021,-56.13574437864466
-0.0777000000000001,-56.786511576582576
-0.07870000000000021,-57.408984548523186
-0.0797000000000001,-58.05975174646111
-0.08070000000000022,-58.71051894439902
-0.0817000000000001,-59.36128614233694
-0.08270000000000022,-60.06864179226946
-0.08370000000000011,-60.71940899020737
-0.08470000000000022,-61.37017618814529
-0.08570000000000011,-61.97850204708726
-0.08670000000000022,-62.64341635802381
-0.08770000000000011,-63.20930087796983
-0.08870000000000022,-63.81762673691181
-0.08970000000000011,-64.38351125685783
-0.09070000000000022,-64.99183711579978
-0.09170000000000011,-65.5577216357458
-0.09270000000000023,-66.12360615569182
-0.09370000000000012,-66.68949067563783
-0.09470000000000023,-67.2978165345798
-0.09570000000000012,-67.9202895065204
-0.09670000000000023,-68.48617402646643
-0.09770000000000012,-69.05205854641244
-0.09870000000000023,-69.61794306635846
-0.09970000000000012,-70.18382758630447
-0.10070000000000023,-70.70727076725453
-0.10170000000000012,-71.2307139482046
-0.10270000000000024,-71.75415712915466
-0.10370000000000013,-72.19271763211282
-0.10470000000000024,-72.71616081306288
-0.10570000000000013,-73.23960399401295
-0.10670000000000024,-73.76304717496302
-0.10770000000000013,-74.32893169490903
-0.10870000000000024,-74.89481621485504
-0.10970000000000013,-75.50314207379701
-0.11070000000000024,-76.11146793273898
-0.11170000000000013,-76.7622351306769
-0.11270000000000002,-77.42714944161345
-0.11370000000000013,-78.12035797854733
-0.11470000000000002,-78.77112517648524
-0.11570000000000014,-79.47848082641775
-0.11670000000000003,-80.21413070234757
-0.11770000000000014,-80.86489790028548
-0.11870000000000003,-81.57225355021802
-0.11970000000000014,-82.26546208715187
-0.12070000000000003,-82.95867062408576
-0.12170000000000014,-83.60943782202366
-0.12270000000000003,-84.35923481095215
-0.12370000000000014,-85.09488468688197
-0.12470000000000003,-85.80224033681448
-0.12570000000000014,-86.58033155174023
-0.12670000000000003,-87.37256987966467
-0.12770000000000015,-88.15066109459043
-0.12870000000000004,-88.94289942251486
-0.12970000000000015,-89.72099063744062
-0.13070000000000004,-90.41419917437449
-0.13170000000000015,-91.16399616330297
-0.13270000000000004,-91.81476336124088
-0.13370000000000015,-92.42308922018285
-0.13470000000000004,-93.08800353111941
-0.13570000000000015,-93.69632939006138
-0.13670000000000004,-94.26221391000739
-0.13770000000000016,-94.87053976894937
-0.13870000000000005,-95.47886562789132
-0.13970000000000016,-96.12963282582925
-0.14070000000000005,-96.73795868477121
-0.14170000000000016,-97.40287299570777
-0.14270000000000005,-98.01119885464975
-0.14370000000000016,-98.66196605258766
-0.14470000000000005,-99.27029191152963
-0.14570000000000016,-99.83617643147564
-0.14670000000000005,-100.45864940341626
-0.14770000000000016,-101.02453392336226
-0.14870000000000005,-101.59041844330828
-0.14970000000000017,-102.1563029632543
-0.15070000000000006,-102.76462882219626
-0.15170000000000017,-103.33051334214227
-0.15270000000000006,-104.02372187907615
-0.15370000000000017,-104.68863619001272
-0.15470000000000006,-105.33940338795064
-0.15570000000000017,-106.07505326388046
-0.15670000000000006,-106.73996757481702
-0.15770000000000017,-107.4331761117509
-0.15870000000000006,-108.0839433096888
-0.15970000000000018,-108.73471050762672
-0.16070000000000007,-109.30059502757274
-0.16170000000000018,-109.9655093385093
-0.16270000000000007,-110.53139385845533
-0.16370000000000018,-111.09727837840134
-0.16470000000000007,-111.7056042373433
-0.16570000000000018,-112.27148875728932
-0.16670000000000007,-112.87981461623129
-0.16770000000000018,-113.48814047517324
-0.16870000000000007,-114.11061344711386
-0.16970000000000018,-114.80382198404773
-0.17070000000000007,-115.45458918198564
-0.17170000000000019,-116.14779771891952
-0.17270000000000008,-116.81271202985609
-0.1737000000000002,-117.54836190578591
-0.17470000000000008,-118.29815889471436
-0.1757000000000002,-119.03380877064419
-0.17670000000000008,-119.769458646574
-0.1777000000000002,-120.43437295751058
-0.17870000000000008,-121.17002283344038
-0.1797000000000002,-121.86323137037427
-0.18070000000000008,-122.57058702030677
-0.1817000000000002,-123.2213542182447
-0.18270000000000008,-123.87212141618261
-0.1837000000000002,-124.48044727512458
-0.1847000000000001,-125.14536158606113
-0.1857000000000002,-125.83857012299501
-0.1867000000000001,-126.5317786599289
-0.1877000000000002,-127.28157564885734
-0.1887000000000001,-128.01722552478716
-0.1897000000000002,-128.66799272272507
-0.1907000000000001,-129.33290703366166
-0.1917000000000001,-129.98367423159957
-0.19269999999999998,-130.5495587515456
-0.1937000000000001,-131.1154432714916
-0.19469999999999998,-131.5964451134457
-0.1957000000000001,-132.07744695539984
-0.19669999999999999,-132.55844879735392
-0.1977000000000001,-133.08189197830401
-0.1987,-133.60533515925405
-0.1997000000000001,-134.17121967920008
-0.2007,-134.77954553814206
-0.2017000000000001,-135.47275407507593
-0.2027,-136.1801097250084
-0.2037000000000001,-136.8733182619423
-0.2047,-137.56652679887617
-0.2057000000000001,-138.27388244880868
-0.2067,-139.05197366373446
-0.2077000000000001,-139.80177065266292
-0.2087,-140.5798618675887
-0.2097000000000001,-141.3721001955131
-0.2107,-142.17848563643616
-0.2117000000000001,-142.8858412863687
-0.2127,-143.73466806628772
-0.2137000000000001,-144.44202371622026
-0.2147,-145.29085049613926
-0.2157000000000001,-146.1396772760583
-0.2167,-146.8470329259908
-0.21770000000000012,-147.6958597059098
-0.2187,-148.54468648582886
-0.21970000000000012,-149.39351326574788
-0.2207,-150.1008689156804
-0.22170000000000012,-150.94969569559944
-0.2227,-151.65705134553193
-0.22370000000000012,-152.36440699546444
-0.2247,-153.07176264539694
-0.22570000000000012,-153.77911829532948
-0.2267,-154.486473945262
-0.22770000000000012,-155.05235846520802
-0.22870000000000001,-155.75971411514055
-0.22970000000000013,-156.32559863508658
-0.23070000000000002,-157.03295428501906
-0.23170000000000013,-157.7403099349516
-0.23270000000000002,-158.3061944548976
-0.23370000000000013,-159.01355010483013
-0.23470000000000002,-159.57943462477613
-0.23570000000000013,-160.28679027470866
-0.23670000000000002,-160.99414592464117
-0.2376999999999999,-161.70150157457368
-0.23870000000000002,-162.2673860945197
-0.2396999999999999,-162.97474174445222
-0.24070000000000003,-163.68209739438475
-0.24169999999999991,-164.38945304431726
-0.24270000000000003,-165.09680869424977
-0.24369999999999992,-165.8041643441823
-0.24470000000000003,-166.51151999411482
-0.24569999999999992,-167.36034677403384
-0.24670000000000003,-168.20917355395284
-0.24769999999999992,-168.91652920388537
-0.24870000000000003,-169.7653559838044
-0.24969999999999992,-170.61418276372342
-0.25070000000000003,-171.46300954364247
-0.2516999999999999,-172.31183632356147
-0.25270000000000004,-173.01919197349397
-0.2536999999999999,-173.86801875341303
-0.25470000000000004,-174.57537440334553
-0.2556999999999999,-175.28273005327804
-0.25670000000000004,-175.99008570321055
-0.25769999999999993,-176.55597022315658
-0.25870000000000004,-177.2633258730891
-0.25969999999999993,-177.82921039303508
-0.26070000000000004,-178.53656604296762
-0.26169999999999993,-179.10245056291362
-0.26270000000000004,-179.66833508285964
-0.26369999999999993,-180.23421960280567
-0.26470000000000005,-180.8001041227517
-0.26569999999999994,-181.36598864269772
-0.26670000000000005,-181.93187316264374
-0.26769999999999994,-182.21481542261674
-0.26870000000000005,-182.63922881257625
-0.26969999999999994,-183.06364220253573
-0.27070000000000005,-183.34658446250873
-0.27169999999999994,-183.77099785246824
-0.27270000000000005,-184.19541124242778
-0.27369999999999994,-184.6198246323873
-0.27470000000000006,-185.1857091523333
-0.27569999999999995,-185.7515936722793
-0.27670000000000006,-186.31747819222534
-0.27769999999999995,-187.02483384215788
-0.27870000000000006,-187.87366062207687
-0.27969999999999995,-188.72248740199586
-0.28070000000000006,-189.57131418191491
-0.28169999999999995,-190.27866983184742
-0.28270000000000006,-191.12749661176645
-0.28369999999999995,-192.11779452167198
-0.28470000000000006,-192.966621301591
-0.28569999999999995,-193.81544808151003
-0.28670000000000007,-194.66427486142905
-0.28769999999999996,-195.65457277133459
-0.28870000000000007,-196.50339955125358
-0.28969999999999996,-197.49369746115914
-0.29070000000000007,-198.48399537106465
-0.29169999999999996,-199.47429328097016
-0.29270000000000007,-200.4645911908757
-0.29369999999999996,-201.31341797079472
-0.2947000000000001,-202.30371588070025
-0.29569999999999996,-203.15254266061928
-0.2967000000000001,-204.0013694405383
-0.29769999999999996,-204.8501962204573
-0.2987000000000001,-205.55755187038983
-0.29969999999999997,-206.40637865030885
-0.3007000000000001,-206.97226317025488
-0.30169999999999997,-207.5381476902009
-0.3027000000000001,-207.96256108016038
-0.30369999999999997,-208.3869744701199
-0.3047000000000001,-208.8113878600794
-0.30569999999999997,-209.23580125003892
-0.3067000000000001,-209.51874351001192
-0.3077,-209.8016857699849
-0.3087000000000001,-210.22609915994445
-0.3097,-210.50904141991748
-0.3107000000000001,-210.93345480987696
-0.3117,-211.35786819983647
-0.3127000000000001,-211.64081045980947
-0.3137,-211.9237527197825
-0.3147000000000001,-212.34816610974204
-0.3157,-212.631108369715
-0.3167000000000001,-212.914050629688
-0.3177,-213.19699288966103
-0.3187000000000001,-213.62140627962054
-0.3197,-213.90434853959354
-0.3207000000000001,-214.32876192955305
-0.3217,-214.89464644949908
-0.3227000000000001,-215.4605309694451
-0.3237,-216.1678866193776
-0.3247000000000001,-217.01671339929663
-0.3257,-217.72406904922914
-0.3267000000000001,-218.43142469916165
-0.3277,-219.28025147908068
-0.3287000000000001,-220.1290782589997
-0.3297,-220.83643390893224
-0.3307000000000001,-221.68526068885126
-0.3317,-222.3926163387838
-0.3327000000000001,-223.09997198871628
-0.3337,-223.9487987686353
-0.3347000000000001,-224.79762554855435
-0.3357,-225.78792345845983
-0.3367000000000001,-226.63675023837888
-0.3377,-227.4855770182979
-0.3387000000000001,-228.47587492820347
-0.3397,-229.32470170812243
-0.3407000000000001,-230.31499961802797
-0.3417,-231.163826397947
-0.3427000000000001,-231.8711820478795
-0.3437,-232.72000882779852
-0.3447000000000001,-233.28589334774458
-0.3457,-233.99324899767706
-0.3467000000000001,-234.55913351762308
-0.3477,-235.12501803756908
-0.3487000000000001,-235.69090255751513
-0.3497,-236.25678707746113
-0.3507000000000001,-236.6812004674206
-0.3517,-237.24708498736666
-0.3527000000000001,-237.67149837732615
-0.3537,-238.0959117672857
-0.3547000000000001,-238.5203251572452
-0.3557,-238.94473854720468
-0.35670000000000013,-239.36915193716422
-0.3577,-239.7935653271237
-0.35870000000000013,-240.21797871708318
-0.3597,-240.64239210704275
-0.36070000000000013,-241.20827662698875
-0.3617,-241.6326900169483
-0.3626999999999999,-242.19857453689428
-0.3637,-242.62298792685377
-0.3646999999999999,-243.18887244679982
-0.3657,-243.75475696674582
-0.3666999999999999,-244.32064148669184
-0.3677,-245.02799713662432
-0.3686999999999999,-245.59388165657037
-0.36970000000000003,-246.15976617651637
-0.3706999999999999,-246.7256506964624
-0.37170000000000003,-247.4330063463949
-0.3726999999999999,-247.99889086634093
-0.37370000000000003,-248.56477538628693
-0.3746999999999999,-249.13065990623298
-0.37570000000000003,-249.5550732961925
-0.3766999999999999,-250.1209578161385
-0.37770000000000004,-250.6868423360845
-0.3786999999999999,-251.25272685603056
-0.37970000000000004,-251.81861137597656
-0.3806999999999999,-252.38449589592256
-0.38170000000000004,-252.95038041586852
-0.38269999999999993,-253.51626493581452
-0.38370000000000004,-254.2236205857471
-0.38469999999999993,-254.78950510569314
-0.38570000000000004,-255.35538962563913
-0.38669999999999993,-255.92127414558513
-0.38770000000000004,-256.4871586655312
-0.38869999999999993,-256.91157205549064
-0.38970000000000005,-257.4774565754367
-0.39069999999999994,-258.0433410953827
-0.39170000000000005,-258.60922561532874
-0.39269999999999994,-259.3165812652612
-0.39370000000000005,-259.8824657852072
-0.39469999999999994,-260.58982143513975
-0.39570000000000005,-261.1557059550858
-0.39669999999999994,-261.8630616050183
-0.39770000000000005,-262.57041725495077
-0.39869999999999994,-263.13630177489676
-0.39970000000000006,-263.56071516485633
-0.40069999999999995,-264.12659968480233
-0.40170000000000006,-264.55101307476184
-0.40269999999999995,-264.83395533473487
-0.40370000000000006,-265.11689759470784
-0.40469999999999995,-265.5413109846674
-0.40570000000000006,-265.82425324464043
-0.40669999999999995,-266.1071955046134
-0.40770000000000006,-266.3901377645864
-0.40869999999999995,-266.6730800245594
-0.40970000000000006,-266.9560222845325
-0.41069999999999995,-267.09749341451896
-0.41170000000000007,-267.38043567449193
-0.41269999999999996,-267.5219068044785
-0.41370000000000007,-267.80484906445145
-0.41469999999999996,-267.94632019443793
-0.41570000000000007,-268.0877913244245
-0.41669999999999996,-268.22926245441096
-0.41770000000000007,-268.512204714384
-0.41869999999999996,-268.79514697435695
-0.4197000000000001,-269.07808923433
-0.42069999999999996,-269.5025026242895
-0.4217000000000001,-269.926916014249
-0.42269999999999996,-270.35132940420846
-0.4237000000000001,-270.9172139241545
-0.42469999999999997,-271.4830984441005
-0.4257000000000001,-272.04898296404656
-0.42669999999999997,-272.7563386139791
-0.4277000000000001,-273.3222231339251
-0.42869999999999997,-274.0295787838576
-0.4297000000000001,-274.5954633038036
-0.43069999999999997,-275.0198766937631
-0.4317000000000001,-275.44429008372265
-0.4327,-275.86870347368216
-0.4337000000000001,-276.29311686364167
-0.4347,-276.7175302536012
-0.4357000000000001,-277.0004725135742
-0.4367,-277.4248859035337
-0.4377000000000001,-277.84929929349323
-0.4387,-277.9907704234797
-0.4397000000000001,-278.4151838134392
-0.4407,-278.5566549434257
-0.4417000000000001,-278.8395972033987
-0.4427,-278.9810683333853
-0.4437000000000001,-279.26401059335825
-0.4447,-279.40548172334474
-0.4457000000000001,-279.5469528533313
-0.4467,-279.6884239833177
-0.4477000000000001,-279.82989511330425
-0.4487,-279.82989511330425
-0.4497000000000001,-279.82989511330425
-0.4507,-279.82989511330425
-0.4517000000000001,-279.6884239833177
-0.4527,-279.5469528533313
-0.4537000000000001,-279.40548172334474
-0.4547,-279.26401059335825
-0.4557000000000001,-279.1225394633717
-0.4567,-279.1225394633717
-0.4577000000000001,-279.1225394633717
-0.4587,-279.26401059335825
-0.4597000000000001,-279.40548172334474
-0.4607,-279.5469528533313
-0.4617000000000001,-279.6884239833177
-0.4627,-279.6884239833177
-0.4637000000000001,-279.6884239833177
-0.4647,-279.6884239833177
-0.4657000000000001,-279.6884239833177
-0.4667,-279.5469528533313
-0.4677000000000001,-279.5469528533313
-0.4687,-279.5469528533313
-0.4697000000000001,-279.5469528533313
-0.4707,-279.82989511330425
-0.4717000000000001,-279.97136624329073
-0.4727,-280.25430850326376
-0.4737000000000001,-280.3957796332503
-0.4747,-280.5372507632368
-0.4757000000000001,-280.5372507632368
-0.4767,-280.5372507632368
-0.4777000000000001,-280.5372507632368
-0.4787,-280.3957796332503
-0.4797000000000001,-280.3957796332503
-0.4807,-280.3957796332503
-0.48170000000000013,-280.3957796332503
-0.4827,-280.3957796332503
-0.48370000000000013,-280.3957796332503
-0.4847,-280.5372507632368
-0.48570000000000013,-280.5372507632368
-0.4867,-279.40548172334474
-0.48570000000000013,-276.43458799362816
-0.4847,-273.4636942639116
-0.48370000000000013,-270.49280053419506
-0.4827,-267.6633779344649
-0.48170000000000013,-264.6924842047484
-0.4807,-261.8630616050183
-0.4797000000000001,-259.17511013527474
-0.4787,-256.34568753554464
-0.4777000000000001,-253.65773606580112
-0.4767,-250.9697845960575
-0.4757000000000001,-248.28183312631393
-0.4747,-245.45241052658386
-0.4737000000000001,-242.90593018682682
-0.4727,-240.21797871708318
-0.4717000000000001,-237.53002724733966
-0.4707,-234.9835469075826
-0.4697000000000001,-232.29559543783904
-0.4687,-229.74911509808197
-0.4677000000000001,-227.2026347583249
-0.4667,-224.65615441856778
-0.4657000000000001,-221.96820294882426
