Potential V vs RHE, Current mA cm-2
0.013299999999999867,5.275458437196722
0.012299999999999978,4.140859974704963
0.011299999999999866,3.0076762235130676
0.010299999999999976,1.9169338113171246
0.009299999999999864,0.9573351366186703
0.008299999999999974,0.21588494435940458
0.007299999999999862,-0.5692798270656908
0.006299999999999972,-1.3980177065266295
0.00529999999999986,-2.1828995356917518
0.0042999999999999705,-2.924208256821031
0.0032999999999998586,-3.4915074880669104
0.0022999999999999687,-4.0588067193127895
0.0012999999999998568,-4.712403339850438
0.00029999999999996696,-5.411270721983764
-0.000700000000000145,-5.977155241929781
-0.0017000000000000348,-6.458157083883892
-0.0027000000000001467,-6.93774421453814
-0.0037000000000000366,-7.50504344578402
-0.0047000000000001485,-8.11478401602585
-0.005700000000000038,-8.594371146680096
-0.00670000000000015,-8.987660888042578
-0.00770000000000004,-9.335679867809377
-0.008700000000000152,-9.81668170976349
-0.009700000000000042,-10.340124890713554
-0.010700000000000154,-10.775855971071984
-0.011700000000000044,-11.037577561547016
-0.012700000000000156,-11.343155202317865
-0.013700000000000045,-11.82274233297211
-0.014700000000000157,-12.346185513922174
-0.015700000000000047,-12.73806054398479
-0.01670000000000016,-13.087494235051453
-0.01770000000000005,-13.436927926118118
-0.01870000000000016,-13.872659006476551
-0.01970000000000005,-14.401761032626075
-0.020700000000000163,-14.741291744593681
-0.021700000000000053,-15.01008689156804
-0.022700000000000164,-15.307176264539699
-0.023700000000000054,-15.70329542850191
-0.024700000000000166,-16.184297270456018
-0.025700000000000056,-16.53797509542228
-0.026700000000000168,-16.792623129397985
-0.027700000000000058,-17.061418276372343
-0.02870000000000017,-17.358507649344002
-0.02970000000000006,-17.75462681330621
-0.03070000000000017,-18.10830463827247
-0.03170000000000006,-18.362952672248177
-0.03270000000000017,-18.631747819222536
-0.03370000000000006,-19.01371987018609
-0.034700000000000175,-19.49472171214021
-0.035700000000000065,-19.848399537106463
-0.03670000000000018,-20.10304757108217
-0.03770000000000007,-20.456725396048434
-0.03870000000000018,-20.89528589900659
-0.03970000000000007,-21.333846401964752
-0.04070000000000018,-21.63093577493641
-0.04170000000000007,-21.899730921910766
-0.04270000000000018,-22.196820294882425
-0.04370000000000007,-22.63538079784059
-0.044700000000000184,-23.1163826397947
-0.045700000000000074,-23.47006046476096
-0.046700000000000186,-23.682267159740714
-0.047700000000000076,-23.86617962872317
-0.04870000000000019,-24.16326900169483
-0.04970000000000008,-24.559388165657033
-0.05070000000000019,-24.771594860636792
-0.05170000000000008,-24.997948668615198
-0.05270000000000019,-25.210155363594954
-0.05370000000000008,-25.648715866553115
-0.05470000000000019,-26.17215904750318
-0.05570000000000008,-26.65316088945729
-0.056700000000000195,-27.049280053419505
-0.057700000000000085,-27.43125210438306
-0.058700000000000196,-27.954695285333123
-0.059700000000000086,-28.53472691827779
-0.0607000000000002,-28.91669896924135
-0.06170000000000009,-29.22793545521166
-0.0627000000000002,-29.440142150191413
-0.06370000000000009,-29.793819975157668
-0.0647000000000002,-30.147497800123933
-0.06570000000000009,-30.402145834099635
-0.0667000000000002,-30.529469851087494
-0.0677000000000001,-30.71338232006995
-0.0687000000000002,-31.010471693041605
-0.0697000000000001,-31.36414951800786
-0.07070000000000021,-31.76026868197007
-0.0717000000000001,-31.972475376949827
-0.07270000000000021,-32.283711862920136
-0.0737000000000001,-32.764713704874254
-0.07470000000000021,-33.330598224820264
-0.0757000000000001,-33.89648274476628
-0.07670000000000021,-34.462367264712285
-0.0777000000000001,-35.02825178465831
-0.07870000000000021,-35.636577643600276
-0.0797000000000001,-36.244903502542236
-0.08070000000000022,-36.6834640055004
-0.0817000000000001,-36.8532293614842
-0.08270000000000022,-36.95225915247476
-0.08370000000000011,-37.122024508458566
-0.08470000000000022,-37.334231203438314
-0.08570000000000011,-37.51814367242077
-0.08670000000000022,-37.645467689408626
-0.08770000000000011,-37.85767438438838
-0.08870000000000022,-38.33867622634249
-0.08970000000000011,-39.046031876275016
-0.09070000000000022,-39.654357735216976
-0.09170000000000011,-40.177800916167044
-0.09270000000000023,-40.78612677510901
-0.09370000000000012,-41.47933531204288
-0.09470000000000023,-42.229132300971344
-0.09570000000000012,-42.752575481921404
-0.09670000000000023,-43.09210619388902
-0.09770000000000012,-43.40334267985933
-0.09870000000000023,-43.75702050482558
-0.09970000000000012,-44.054109877797245
-0.10070000000000023,-44.181433894785094
-0.10170000000000012,-44.223875233781044
-0.10270000000000024,-44.28046368577565
-0.10370000000000013,-44.36534636376755
-0.10470000000000024,-44.619994397743255
-0.10570000000000013,-45.01611356170547
-0.10670000000000024,-45.497115403659585
-0.10770000000000013,-45.97811724561369
-0.10870000000000024,-46.586443104555656
-0.10970000000000013,-47.36453431948143
-0.11070000000000024,-48.1992139864018
-0.11170000000000013,-48.72265716735186
-0.11270000000000002,-49.076334992318124
-0.11370000000000013,-49.557336834272235
-0.11470000000000002,-50.12322135421825
-0.11570000000000014,-50.46275206618586
-0.11670000000000003,-50.42031072718991
-0.11770000000000014,-50.42031072718991
-0.11870000000000003,-50.60422319617236
-0.11970000000000014,-50.73154721316022
-0.12070000000000003,-50.77398855215617
-0.12170000000000014,-50.90131256914402
-0.12270000000000003,-51.29743173310623
-0.12370000000000014,-51.948198931044146
-0.12470000000000003,-52.69799591997262
-0.12570000000000014,-53.433645795902436
-0.12670000000000003,-54.1268543328363
-0.12770000000000015,-54.69273885278232
-0.12870000000000004,-55.25862337272834
-0.12970000000000015,-55.838655005673
-0.13070000000000004,-56.26306839563251
-0.13170000000000015,-56.57430488160282
-0.13270000000000004,-56.82895291557852
-0.13370000000000015,-57.182630740544774
-0.13470000000000004,-57.70607392149485
-0.13570000000000015,-58.14463442445301
-0.13670000000000004,-58.54075358841522
-0.13770000000000016,-58.880284300382826
-0.13870000000000005,-59.36128614233694
-0.13970000000000016,-59.92717066228296
-0.14070000000000005,-60.45061384323302
-0.14170000000000016,-60.761850329203334
-0.14270000000000005,-61.01649836317903
-0.14370000000000016,-61.455058866137186
-0.14470000000000005,-61.89361936909536
-0.14570000000000016,-62.20485585506566
-0.14670000000000005,-62.41706255004542
-0.14770000000000016,-62.77074037501168
-0.14870000000000005,-63.20930087796983
-0.14970000000000017,-63.633714267929356
-0.15070000000000006,-64.0722747708875
-0.15170000000000017,-64.51083527384567
-0.15270000000000006,-64.86451309881193
-0.15370000000000017,-65.20404381077954
-0.15470000000000006,-65.68504565273366
-0.15570000000000017,-66.16604749468777
-0.15670000000000006,-66.43484264166212
-0.15770000000000017,-66.64704933664189
-0.15870000000000006,-67.08560983960004
-0.15970000000000018,-67.693935698542
-0.16070000000000007,-68.17493754049613
-0.16170000000000018,-68.57105670445833
-0.16270000000000007,-68.91058741642594
-0.16370000000000018,-69.3491479193841
-0.16470000000000007,-69.87259110033416
-0.16570000000000018,-70.26871026429637
-0.16670000000000007,-70.57994675026669
-0.16770000000000018,-70.79215344524643
-0.16870000000000007,-71.18827260920865
-0.16970000000000018,-71.75415712915466
-0.17070000000000007,-72.23515897110877
-0.17170000000000019,-72.44736566608852
-0.17270000000000008,-72.71616081306288
-0.1737000000000002,-73.15472131602105
-0.17470000000000008,-73.53669336698461
-0.1757000000000002,-73.97525386994278
-0.17670000000000008,-74.66846240687663
-0.1777000000000002,-75.63046609078486
-0.17870000000000008,-76.50758709670117
-0.1797000000000002,-77.11591295564315
-0.18070000000000008,-77.46959078060941
-0.1817000000000002,-77.59691479759726
-0.18270000000000008,-77.55447345860131
-0.1837000000000002,-77.42714944161345
-0.1847000000000001,-77.51203211960537
-0.1857000000000002,-77.68179747558916
-0.1867000000000001,-77.90815128356756
-0.1877000000000002,-78.20524065653922
-0.1887000000000001,-78.8135665154812
-0.1897000000000002,-79.60580484340561
-0.1907000000000001,-80.25657204134353
-0.1917000000000001,-80.82245656128954
-0.19269999999999998,-81.3458997422396
-0.1937000000000001,-81.86934292318966
-0.19469999999999998,-82.35034476514379
-0.1957000000000001,-82.6615812511141
-0.19669999999999999,-82.78890526810196
-0.1977000000000001,-82.70402259011003
-0.1987,-82.746463929106
-0.1997000000000001,-83.04355330207765
-0.2007,-83.56699648302772
-0.2017000000000001,-84.09043966397778
-0.2027,-84.7129126359184
-0.2037000000000001,-85.49100385084417
-0.2047,-86.49544887374834
-0.2057000000000001,-87.27354008867411
-0.2067,-87.71210059163228
-0.2077000000000001,-88.02333707760259
-0.2087,-88.54678025855264
-0.2097000000000001,-89.07022343950271
-0.2107,-89.46634260346492
-0.2117000000000001,-89.76343197643658
-0.2127,-90.32931649638259
-0.2137000000000001,-91.12155482430701
-0.2147,-91.51767398826922
-0.2157000000000001,-91.60255666626112
-0.2167,-91.60255666626112
-0.21770000000000012,-91.64499800525708
-0.2187,-91.64499800525708
-0.21970000000000012,-91.89964603923279
-0.2207,-92.42308922018285
-0.22170000000000012,-92.94653240113291
-0.2227,-93.42753424308701
-0.22370000000000012,-94.17733123201549
-0.2247,-95.08274646392913
-0.22570000000000012,-95.60618964487918
-0.2267,-95.87498479185354
-0.22770000000000012,-96.27110395581576
-0.22870000000000001,-96.83698847576176
-0.22970000000000013,-97.31799031771587
-0.23070000000000002,-97.53019701269562
-0.23170000000000013,-97.84143349866595
-0.23270000000000002,-98.2234055496295
-0.23370000000000013,-98.49220069660386
-0.23470000000000002,-98.74684873057957
-0.23570000000000013,-98.93076119956201
-0.23670000000000002,-99.01564387755391
-0.2376999999999999,-99.05808521654988
-0.23870000000000002,-99.27029191152963
-0.2396999999999999,-99.62396973649588
-0.24070000000000003,-99.93520622246619
-0.24169999999999991,-100.23229559543785
-0.24270000000000003,-100.84062145437981
-0.24369999999999992,-101.76018379929208
-0.24470000000000003,-102.67974614420436
-0.24569999999999992,-103.59930848911664
-0.24670000000000003,-104.2925170260505
-0.24769999999999992,-104.85840154599651
-0.24870000000000003,-105.42428606594254
-0.24969999999999992,-105.90528790789664
-0.25070000000000003,-106.21652439386696
-0.2516999999999999,-106.30140707185885
-0.25270000000000004,-106.2589657328629
-0.2536999999999999,-106.15993594187235
-0.25470000000000004,-106.0326119248845
-0.2556999999999999,-105.94772924689259
-0.25670000000000004,-106.15993594187235
-0.25769999999999993,-106.51361376683862
-0.25870000000000004,-106.99461560879273
-0.25969999999999993,-107.68782414572658
-0.26070000000000004,-108.48006247365102
-0.26169999999999993,-109.39962481856328
-0.26270000000000004,-110.17771603348905
-0.26369999999999993,-110.92751302241753
-0.26470000000000005,-111.7904869153352
-0.26569999999999994,-112.3563714352812
-0.26670000000000005,-112.3563714352812
-0.26769999999999994,-111.96025227131899
-0.26870000000000005,-111.6207215593514
-0.26969999999999994,-111.57828022035544
-0.27070000000000005,-111.8753695933271
-0.27169999999999994,-112.58272524325962
-0.27270000000000005,-113.53058181416918
-0.27369999999999994,-114.45014415908147
-0.27470000000000006,-115.05847001802343
-0.27569999999999995,-115.45458918198564
-0.27670000000000006,-115.76582566795594
-0.27769999999999995,-115.97803236293572
-0.27870000000000006,-116.14779771891952
-0.27969999999999995,-116.72782935186417
-0.28070000000000006,-117.25127253281424
-0.28169999999999995,-117.63324458377778
-0.28270000000000006,-117.90203973075215
-0.28369999999999995,-118.42548291170223
-0.28470000000000006,-119.16113278763203
-0.28569999999999995,-119.9109297765605
-0.28670000000000007,-120.47681429650652
-0.28769999999999996,-121.12758149444444
-0.28870000000000007,-121.73590735338641
-0.28969999999999996,-122.0471438393567
-0.29070000000000007,-121.65102467539451
-0.29169999999999996,-121.04269881645253
-0.29270000000000007,-120.47681429650652
-0.29369999999999996,-119.72701730757805
-0.2947000000000001,-118.99136743164823
-0.29569999999999996,-118.72257228467387
-0.2967000000000001,-119.24601546562396
-0.29769999999999996,-120.03825379354835
-0.2987000000000001,-120.9153747994647
-0.29969999999999997,-122.08958517835266
-0.3007000000000001,-123.65991472120285
-0.30169999999999997,-124.9614491170787
-0.3027000000000001,-125.79612878399907
-0.30369999999999997,-126.3195719649491
-0.3047000000000001,-126.61666133792076
-0.30569999999999997,-126.27713062595316
-0.3067000000000001,-125.6688047670112
-0.3077,-125.10292024706521
-0.3087000000000001,-124.57947706611512
-0.3097,-124.05603388516508
-0.3107000000000001,-123.70235606019881
-0.3117,-123.70235606019881
-0.3127000000000001,-124.22579924114888
-0.3137,-124.91900777808273
-0.3147000000000001,-125.56977497602065
-0.3157,-126.19224794796128
-0.3167000000000001,-126.88545648489513
-0.3177,-127.45134100484115
-0.3187000000000001,-127.80501882980741
-0.3197,-127.84746016880335
-0.3207000000000001,-127.66354769982091
-0.3217,-127.45134100484115
-0.3227000000000001,-127.14010451887084
-0.3237,-127.012780501883
-0.3247000000000001,-127.012780501883
-0.3257,-126.9278978238911
-0.3267000000000001,-126.80057380690324
-0.3277,-126.71569112891132
-0.3287000000000001,-126.6732497899154
-0.3297,-126.5317786599289
-0.3307000000000001,-126.5317786599289
-0.3317,-126.57421999892482
-0.3327000000000001,-126.80057380690324
-0.3337,-127.09766317987489
-0.3347000000000001,-127.66354769982091
-0.3357,-128.01722552478716
-0.3367000000000001,-128.10210820277908
-0.3377,-128.01722552478716
-0.3387000000000001,-128.01722552478716
-0.3397,-127.88990150779931
-0.3407000000000001,-127.53622368283307
-0.3417,-126.97033916288706
-0.3427000000000001,-126.48933732093293
-0.3437,-126.27713062595316
-0.3447000000000001,-126.00833547897882
-0.3457,-125.88101146199097
-0.3467000000000001,-126.09321815697072
-0.3477,-126.5317786599289
-0.3487000000000001,-126.80057380690324
-0.3497,-126.97033916288706
-0.3507000000000001,-127.28157564885734
-0.3517,-127.36645832684925
-0.3527000000000001,-126.97033916288706
-0.3537,-126.27713062595316
-0.3547000000000001,-125.62636342801528
-0.3557,-124.91900777808273
-0.35670000000000013,-124.09847522416102
-0.3577,-123.3062368962366
-0.35870000000000013,-122.78279371528653
-0.3597,-122.69791103729463
-0.36070000000000013,-122.78279371528653
-0.3617,-122.78279371528653
-0.3626999999999999,-122.74035237629057
-0.3637,-123.05158886226087
-0.3646999999999999,-123.43356091322445
-0.3657,-123.39111957422851
-0.3666999999999999,-122.95255907127036
-0.3677,-122.65546969829869
-0.3686999999999999,-122.34423321232836
-0.36970000000000003,-121.82079003137831
-0.3706999999999999,-120.95781613846064
-0.37170000000000003,-120.29290182752408
-0.3726999999999999,-119.769458646574
-0.37370000000000003,-119.20357412662798
-0.3746999999999999,-118.59524826768603
-0.37570000000000003,-118.3406002337103
-0.3766999999999999,-118.07180508673595
-0.37770000000000004,-117.59080324478184
-0.3786999999999999,-117.25127253281424
-0.37970000000000004,-117.19468408081964
-0.3806999999999999,-117.25127253281424
-0.38170000000000004,-117.02491872483584
-0.38269999999999993,-116.67124089986959
-0.38370000000000004,-116.45903420488982
-0.38469999999999993,-116.10535637992358
-0.38570000000000004,-115.4121478429897
-0.38669999999999993,-114.57746817606933
-0.38770000000000004,-113.96914231712736
-0.38869999999999993,-113.58717026616378
-0.38970000000000005,-113.36081645818538
-0.39069999999999994,-113.00713863321914
-0.39170000000000005,-112.48369545226906
-0.39269999999999994,-112.31393009628526
-0.39370000000000005,-112.22904741829338
-0.39469999999999994,-112.14416474030146
-0.39570000000000005,-112.05928206230955
-0.39669999999999994,-112.10172340130552
-0.39770000000000005,-111.8753695933271
-0.39869999999999994,-111.26704373438514
-0.39970000000000006,-110.6162765364472
-0.40069999999999995,-109.8806266605174
-0.40170000000000006,-108.77715184662266
-0.40269999999999995,-107.47561745074682
-0.40370000000000006,-106.51361376683862
-0.40469999999999995,-106.2589657328629
-0.40570000000000006,-106.47117242784265
-0.40669999999999995,-106.73996757481702
-0.40770000000000006,-107.26341075576708
-0.40869999999999995,-108.0839433096888
-0.40970000000000006,-108.96106431560513
-0.41069999999999995,-109.73915553053091
-0.41170000000000007,-110.00795067750525
-0.41269999999999996,-109.654272852539
-0.41370000000000007,-109.13082967158894
-0.41469999999999996,-108.83374029861727
-0.41570000000000007,-108.48006247365102
-0.41669999999999996,-107.73026548472255
-0.41770000000000007,-106.78240891381296
-0.41869999999999996,-106.21652439386696
-0.4197000000000001,-105.90528790789664
-0.42069999999999996,-105.73552255191284
-0.4217000000000001,-105.7779638909088
-0.42269999999999996,-105.94772924689259
-0.4237000000000001,-106.07505326388046
-0.42469999999999997,-106.15993594187235
-0.4257000000000001,-106.07505326388046
-0.42669999999999997,-105.94772924689259
-0.4277000000000001,-105.73552255191284
-0.42869999999999997,-105.59405142192634
-0.4297000000000001,-105.7779638909088
-0.43069999999999997,-106.0326119248845
-0.4317000000000001,-106.30140707185885
-0.4327,-106.55605510583456
-0.4337000000000001,-106.90973293080083
-0.4347,-107.03705694778867
-0.4357000000000001,-107.16438096477653
-0.4367,-107.30585209476303
-0.4377000000000001,-107.26341075576708
-0.4387,-106.86729159180487
-0.4397000000000001,-106.59849644483052
-0.4407,-106.55605510583456
-0.4417000000000001,-106.68337912282242
-0.4427,-106.78240891381296
-0.4437000000000001,-107.20682230377247
-0.4447,-107.47561745074682
-0.4457000000000001,-107.56050012873874
-0.4467,-108.35273845666316
-0.4477000000000001,-108.87618163761321
-0.4487,-108.60738649063886
-0.4497000000000001,-108.12638464868475
-0.4507,-107.914177953705
-0.4517000000000001,-108.3102971176672
-0.4527,-108.35273845666316
-0.4537000000000001,-107.914177953705
-0.4547,-107.99906063169689
-0.4557000000000001,-108.64982782963483
-0.4567,-109.00350565460108
-0.4577000000000001,-108.91862297660917
-0.4587,-109.00350565460108
-0.4597000000000001,-109.39962481856328
-0.4607,-109.8806266605174
-0.4617000000000001,-110.22015737248502
-0.4627,-110.34748138947285
-0.4637000000000001,-110.74360055343507
-0.4647,-111.09727837840134
-0.4657000000000001,-111.4509562033676
-0.4667,-111.96025227131899
-0.4677000000000001,-112.58272524325962
-0.4687,-113.23349244119754
-0.4697000000000001,-114.11061344711386
-0.4707,-114.88870466203963
-0.4717000000000001,-115.36970650399375
-0.4727,-115.4121478429897
-0.4737000000000001,-115.15749980901398
-0.4747,-114.53502683707337
-0.4757000000000001,-113.62961160515974
-0.4767,-112.92225595522721
-0.4777000000000001,-112.3563714352812
-0.4787,-111.91781093232305
-0.4797000000000001,-111.7056042373433
-0.4807,-112.10172340130552
-0.48170000000000013,-112.96469729422319
-0.4827,-113.88425963913545
-0.48370000000000013,-114.76138064505177
-0.4847,-115.85070834594785
-0.48570000000000013,-117.02491872483584
-0.4867,-116.94003604684394
-0.48570000000000013,-114.80382198404773
-0.4847,-112.62516658225556
-0.48370000000000013,-110.40406984146746
-0.4827,-107.95661929270095
-0.48170000000000013,-105.29696204895468
-0.4807,-102.59486346621246
-0.4797000000000001,-100.14741291744595
-0.4787,-97.84143349866595
-0.4777000000000001,-95.52130696688728
-0.4767,-93.38509290409107
-0.4757000000000001,-91.72988068324898
-0.4747,-90.6405529823529
-0.4737000000000001,-89.72099063744062
-0.4727,-88.7589869535324
-0.4717000000000001,-87.75454193062824
-0.4707,-86.80668535971866
-0.4697000000000001,-85.66076920682796
-0.4687,-84.35923481095215
-0.4677000000000001,-83.0011119630817
-0.4667,-81.61469488921396
-0.4657000000000001,-80.08680668535972
