Potential V vs RHE, Current mA cm-2
0.013299999999999867,0.3698055337847206
0.012299999999999978,0.2359738448174881
0.011299999999999866,0.16707740451406086
0.010299999999999976,0.11726541964581289
0.009299999999999864,0.05320729198792403
0.008299999999999974,-0.018249775768258973
0.007299999999999862,-0.05272629014596992
0.006299999999999972,-0.10590528790789665
0.00529999999999986,-0.17132153841365594
0.0042999999999999705,-0.2119237527197825
0.0032999999999998586,-0.25012095781613847
0.0022999999999999687,-0.31519767760993017
0.0012999999999998568,-0.3623075638954359
0.00029999999999996696,-0.3937141547524397
-0.000700000000000145,-0.4464828862374056
-0.0017000000000000348,-0.5017980980621284
-0.0027000000000001467,-0.5248578922499286
-0.0037000000000000366,-0.5658845199460147
-0.0047000000000001485,-0.6281318171400763
-0.005700000000000038,-0.6528892648877144
-0.00670000000000015,-0.6823152599249072
-0.00770000000000004,-0.733103395590062
-0.008700000000000152,-0.7734226676362155
-0.009700000000000042,-0.7967654040839887
-0.010700000000000154,-0.8369432050001557
-0.011700000000000044,-0.8864581004954319
-0.012700000000000156,-0.9054152319136234
-0.013700000000000045,-0.9325776888710322
-0.014700000000000157,-0.9853464203559981
-0.015700000000000047,-1.0065670898539736
-0.01670000000000016,-1.0248168656222325
-0.01770000000000005,-1.0756050012873875
-0.01870000000000016,-1.1036162850247149
-0.01970000000000005,-1.1188951670632574
-0.020700000000000163,-1.157799727809546
-0.021700000000000053,-1.1952895772559695
-0.022700000000000164,-1.2078805078247683
-0.023700000000000054,-1.2384382719018532
-0.024700000000000166,-1.2791819573379661
-0.025700000000000056,-1.3004026268359417
-0.026700000000000168,-1.314832682094565
-0.027700000000000058,-1.3588302035203679
-0.02870000000000017,-1.383304709008033
-0.02970000000000006,-1.3939150437570205
-0.03070000000000017,-1.4288584128636872
-0.03170000000000006,-1.4642261953603128
-0.03270000000000017,-1.4698850405597732
-0.03370000000000006,-1.4967645552572086
-0.034700000000000175,-1.5335470490536998
-0.035700000000000065,-1.54769416205235
-0.03670000000000018,-1.5618412750510005
-0.03770000000000007,-1.5986237688474914
-0.03870000000000018,-1.6198444383454669
-0.03970000000000007,-1.626917994844792
-0.04070000000000018,-1.658041643441823
-0.04170000000000007,-1.6877505807389888
-0.04270000000000018,-1.693409425938449
-0.04370000000000007,-1.7118006728366943
-0.044700000000000184,-1.7499978779330503
-0.045700000000000074,-1.7570714344323757
-0.046700000000000186,-1.766974413531431
-0.047700000000000076,-1.8065863299276517
-0.04870000000000019,-1.8207334429263025
-0.04970000000000008,-1.8292217107254924
-0.05070000000000019,-1.8561012254229279
-0.05170000000000008,-1.882980740120364
-0.05270000000000019,-1.8886395853198237
-0.05370000000000008,-1.9027866983184742
-0.05470000000000019,-1.9381544808151003
-0.05570000000000008,-1.9452280373144257
-0.056700000000000195,-1.9494721712140204
-0.057700000000000085,-1.9890840876102414
-0.058700000000000196,-1.9975723554094316
-0.059700000000000086,-2.004645911908757
-0.0607000000000002,-2.0315254266061924
-0.06170000000000009,-2.0584049413036287
-0.0627000000000002,-2.0598196526034935
-0.06370000000000009,-2.072552054302279
-0.0647000000000002,-2.1065051254990395
-0.06570000000000009,-2.113578681998365
-0.0667000000000002,-2.116408104598095
-0.0677000000000001,-2.1531905983945863
-0.0687000000000002,-2.1645082887935065
-0.0697000000000001,-2.1645082887935065
-0.07070000000000021,-2.1871436695913467
-0.0717000000000001,-2.2126084729889177
-0.07270000000000021,-2.2111937616890525
-0.0737000000000001,-2.2239261633878376
-0.07470000000000021,-2.2550498119848683
-0.0757000000000001,-2.257879234584599
-0.07670000000000021,-2.263538079784059
-0.0777000000000001,-2.2974911509808194
-0.07870000000000021,-2.30880884137974
-0.0797000000000001,-2.3045647074801447
-0.08070000000000022,-2.32861479957785
-0.0817000000000001,-2.351250180375691
-0.08270000000000022,-2.347006046476096
-0.08370000000000011,-2.361153159474746
-0.08470000000000022,-2.3908620967719116
-0.08570000000000011,-2.3908620967719116
-0.08670000000000022,-2.396520941971372
-0.08770000000000011,-2.426229879268538
-0.08870000000000022,-2.437547569667458
-0.08970000000000011,-2.4347181470677284
-0.09070000000000022,-2.457353527865569
-0.09170000000000011,-2.4785741973635442
-0.09270000000000023,-2.4785741973635442
-0.09370000000000012,-2.4884771764625997
-0.09470000000000023,-2.518186113759765
-0.09570000000000012,-2.515356691160035
-0.09670000000000023,-2.5196008250596305
-0.09770000000000012,-2.550724473656661
-0.09870000000000023,-2.557798030155986
-0.09970000000000012,-2.5592127414558514
-0.10070000000000023,-2.5804334109538267
-0.10170000000000012,-2.600239369151937
-0.10270000000000024,-2.5959952352523423
-0.10370000000000013,-2.6087276369511274
-0.10470000000000024,-2.637021862948428
-0.10570000000000013,-2.637021862948428
-0.10670000000000024,-2.6384365742482934
-0.10770000000000013,-2.6681455115454593
-0.10870000000000024,-2.6780484906445143
-0.10970000000000013,-2.6752190680447843
-0.11070000000000024,-2.69643973754276
-0.11170000000000013,-2.7162456957408705
-0.11270000000000002,-2.712001561841275
-0.11370000000000013,-2.7261486748399255
-0.11470000000000002,-2.7530281895373614
-0.11570000000000014,-2.754442900837226
-0.11670000000000003,-2.7572723234369563
-0.11770000000000014,-2.7841518381343926
-0.11870000000000003,-2.7926401059335824
-0.11970000000000014,-2.788395972033987
-0.12070000000000003,-2.8124460641316933
-0.12170000000000014,-2.8322520223298033
-0.12270000000000003,-2.8294225997300737
-0.12370000000000014,-2.8393255788291283
-0.12470000000000003,-2.8690345161262942
-0.12570000000000014,-2.867619804826429
-0.12670000000000003,-2.874693361325755
-0.12770000000000015,-2.90157287602319
-0.12870000000000004,-2.9100611438223805
-0.12970000000000015,-2.9114758551222453
-0.13070000000000004,-2.9284523907206257
-0.13170000000000015,-2.9482583489187366
-0.13270000000000004,-2.945428926319006
-0.13370000000000015,-2.956746616717927
-0.13470000000000004,-2.9878702653149576
-0.13570000000000015,-2.9836261314153627
-0.13670000000000004,-2.989284976614823
-0.13770000000000016,-3.0161644913122583
-0.13870000000000005,-3.0274821817111786
-0.13970000000000016,-3.024652759111448
-0.14070000000000005,-3.0487028512091543
-0.14170000000000016,-3.0656793868075347
-0.14270000000000005,-3.0656793868075347
-0.14370000000000016,-3.074167654606725
-0.14470000000000005,-3.1024618806040256
-0.14570000000000016,-3.1067060145036205
-0.14670000000000005,-3.1081207258034858
-0.14770000000000016,-3.135000240500921
-0.14870000000000005,-3.1463179308998415
-0.14970000000000017,-3.1434885083001114
-0.15070000000000006,-3.167538600397817
-0.15170000000000017,-3.1845151359961976
-0.15270000000000006,-3.1859298472960624
-0.15370000000000017,-3.198662248994848
-0.15470000000000006,-3.2241270523924186
-0.15570000000000017,-3.228371186292014
-0.15670000000000006,-3.2312006088917435
-0.15770000000000017,-3.2609095461889095
-0.15870000000000006,-3.2693978139880997
-0.15970000000000018,-3.2693978139880997
-0.16070000000000007,-3.2906184834860754
-0.16170000000000018,-3.310424441684186
-0.16270000000000007,-3.307595019084456
-0.16370000000000018,-3.321742132083106
-0.16470000000000007,-3.3542804919800018
-0.16570000000000018,-3.357109914579732
-0.16670000000000007,-3.361354048479327
-0.16770000000000018,-3.3882335631767626
-0.16870000000000007,-3.3953071196760884
-0.16970000000000018,-3.3995512535756833
-0.17070000000000007,-3.4207719230736586
-0.17170000000000019,-3.4419925925716344
-0.17270000000000008,-3.440577881271769
-0.1737000000000002,-3.45472499427042
-0.17470000000000008,-3.4844339315675854
-0.1757000000000002,-3.4872633541673155
-0.17670000000000008,-3.492922199366775
-0.1777000000000002,-3.525460559263671
-0.17870000000000008,-3.5297046931632665
-0.1797000000000002,-3.5311194044631313
-0.18070000000000008,-3.555169496560837
-0.1817000000000002,-3.5778048773586777
-0.18270000000000008,-3.5778048773586777
-0.1837000000000002,-3.5877078564577327
-0.1847000000000001,-3.6202462163546287
-0.1857000000000002,-3.6216609276544935
-0.1867000000000001,-3.627319772853954
-0.1877000000000002,-3.658443421450985
-0.1887000000000001,-3.6711758231497704
-0.1897000000000002,-3.669761111849905
-0.1907000000000001,-3.696640626547341
-0.1917000000000001,-3.716446584745451
-0.19269999999999998,-3.7122024508458558
-0.1937000000000001,-3.7320084090439667
-0.19469999999999998,-3.7574732124415373
-0.1957000000000001,-3.7603026350412674
-0.19669999999999999,-3.7702056141403233
-0.1977000000000001,-3.7970851288377587
-0.1987,-3.8084028192366786
-0.1997000000000001,-3.8084028192366786
-0.2007,-3.8366970452339793
-0.2017000000000001,-3.8593324260318203
-0.2027,-3.8579177147319554
-0.2037000000000001,-3.8720648277306053
-0.2047,-3.903188476327636
-0.2057000000000001,-3.9046031876275014
-0.2067,-3.9116767441268263
-0.2077000000000001,-3.944215104023722
-0.2087,-3.952703371822913
-0.2097000000000001,-3.9555327944226426
-0.2107,-3.979582886520348
-0.2117000000000001,-3.999388844718459
-0.2127,-4.002218267318188
-0.2137000000000001,-4.01636538031684
-0.2147,-4.051733162813465
-0.2157000000000001,-4.057392008012925
-0.2167,-4.063050853212385
-0.21770000000000012,-4.094174501809416
-0.2187,-4.105492192208336
-0.21970000000000012,-4.108321614808066
-0.2207,-4.133786418205637
-0.22170000000000012,-4.152177665103882
-0.2227,-4.155007087703612
-0.22370000000000012,-4.171983623301993
-0.2247,-4.20452198319889
-0.22570000000000012,-4.203107271899024
-0.2267,-4.211595539698214
-0.22770000000000012,-4.245548610894974
-0.22870000000000001,-4.254036878694166
-0.22970000000000013,-4.259695723893626
-0.23070000000000002,-4.285160527291196
-0.23170000000000013,-4.307795908089036
-0.23270000000000002,-4.3063811967891725
-0.23370000000000013,-4.324772443687417
-0.23470000000000002,-4.355896092284448
-0.23570000000000013,-4.358725514884178
-0.23670000000000002,-4.367213782683368
-0.2376999999999999,-4.399752142580264
-0.23870000000000002,-4.413899255578914
-0.2396999999999999,-4.416728678178644
-0.24070000000000003,-4.44077877027635
-0.24169999999999991,-4.466243573673921
-0.24270000000000003,-4.463414151074191
-0.24369999999999992,-4.478975975372705
-0.24470000000000003,-4.511514335269602
-0.24569999999999992,-4.5171731804690625
-0.24670000000000003,-4.522832025668523
-0.24769999999999992,-4.556785096865283
-0.24870000000000003,-4.566688075964338
-0.24969999999999992,-4.578005766363259
-0.25070000000000003,-4.600641147161099
-0.2516999999999999,-4.623276527958939
-0.25270000000000004,-4.623276527958939
-0.2536999999999999,-4.638838352257455
-0.25470000000000004,-4.675620846053946
-0.2556999999999999,-4.675620846053946
-0.25670000000000004,-4.686938536452867
-0.25769999999999993,-4.7208916076496275
-0.25870000000000004,-4.730794586748683
-0.25969999999999993,-4.732209298048548
-0.26070000000000004,-4.766162369245309
-0.26169999999999993,-4.785968327443419
-0.26270000000000004,-4.791627172642879
-0.26369999999999993,-4.80577428564153
-0.26470000000000005,-4.8383126455384255
-0.26569999999999994,-4.842556779438021
-0.26670000000000005,-4.85387446983694
-0.26769999999999994,-4.883583407134107
-0.26870000000000005,-4.896315808832893
-0.26969999999999994,-4.901974654032353
-0.27070000000000005,-4.9302688800296535
-0.27169999999999994,-4.954318972127359
-0.27270000000000005,-4.955733683427223
-0.27369999999999994,-4.975539641625334
-0.27470000000000006,-5.0094927128220945
-0.27569999999999995,-5.012322135421825
-0.27670000000000006,-5.017980980621284
-0.27769999999999995,-5.0547634744177765
-0.27870000000000006,-5.070325298716291
-0.27969999999999995,-5.073154721316022
-0.28070000000000006,-5.104278369913052
-0.28169999999999995,-5.124084328111163
-0.28270000000000006,-5.125499039411029
-0.28369999999999995,-5.143890286309273
-0.28470000000000006,-5.18208749140563
-0.28569999999999995,-5.18491691400536
-0.28670000000000007,-5.1934051818045495
-0.28769999999999996,-5.22735825300131
-0.28870000000000007,-5.240090654700095
-0.28969999999999996,-5.247164211199421
-0.29070000000000007,-5.274043725896856
-0.29169999999999996,-5.2980938179945625
-0.29270000000000007,-5.299508529294427
-0.29369999999999996,-5.320729198792402
-0.2947000000000001,-5.356096981289029
-0.29569999999999996,-5.3575116925888935
-0.2967000000000001,-5.3702440942876795
-0.29769999999999996,-5.405611876784305
-0.2987000000000001,-5.415514855883361
-0.29969999999999997,-5.42400312368255
-0.3007000000000001,-5.450882638379986
-0.30169999999999997,-5.476347441777556
-0.3027000000000001,-5.480591575677152
-0.30369999999999997,-5.497568111275533
-0.3047000000000001,-5.538594738971618
-0.30569999999999997,-5.538594738971618
-0.3067000000000001,-5.548497718070673
-0.3077,-5.585280211867165
-0.3087000000000001,-5.59801261356595
-0.3097,-5.60367145876541
-0.3107000000000001,-5.636209818662306
-0.3117,-5.656015776860417
-0.3127000000000001,-5.657430488160282
-0.3137,-5.680065868958122
-0.3147000000000001,-5.714018940154883
-0.3157,-5.718263074054478
-0.3167000000000001,-5.728166053153534
-0.3177,-5.766363258249889
-0.3187000000000001,-5.7833397938482705
-0.3197,-5.784754505148135
-0.3207000000000001,-5.814463442445301
-0.3217,-5.839928245842872
-0.3227000000000001,-5.844172379742466
-0.3237,-5.865393049240442
-0.3247000000000001,-5.905004965636663
-0.3257,-5.906419676936528
-0.3267000000000001,-5.916322656035583
-0.3277,-5.950275727232344
-0.3287000000000001,-5.967252262830725
-0.3297,-5.97432581933005
-0.3307000000000001,-6.001205334027486
-0.3317,-6.028084848724921
-0.3327000000000001,-6.033743693924381
-0.3337,-6.0521349408226275
-0.3347000000000001,-6.093161568518712
-0.3357,-6.095990991118443
-0.3367000000000001,-6.107308681517363
-0.3377,-6.14833530921345
-0.3387000000000001,-6.1624824222121
-0.3397,-6.166726556111695
-0.3407000000000001,-6.20209433860832
-0.3417,-6.228973853305757
-0.3427000000000001,-6.231803275905486
-0.3437,-6.251609234103598
-0.3447000000000001,-6.291221150499819
-0.3457,-6.299709418299008
-0.3467000000000001,-6.3081976860981985
-0.3477,-6.34780960249442
-0.3487000000000001,-6.3676155606925295
-0.3497,-6.37044498329226
-0.3507000000000001,-6.40156863188929
-0.3517,-6.432692280486322
-0.3527000000000001,-6.436936414385917
-0.3537,-6.463815929083352
-0.3547000000000001,-6.496354288980249
-0.3557,-6.507671979379168
-0.35670000000000013,-6.520404381077953
-0.3577,-6.560016297474175
-0.35870000000000013,-6.5769928330725556
-0.3597,-6.582651678272015
-0.36070000000000013,-6.613775326869046
-0.3617,-6.643484264166212
-0.3626999999999999,-6.646313686765942
-0.3637,-6.670363778863648
-0.3646999999999999,-6.714219829159464
-0.3657,-6.715634540459329
-0.3666999999999999,-6.729781653457979
-0.3677,-6.77222299245393
-0.3686999999999999,-6.7877848167524455
-0.36970000000000003,-6.799102507151367
-0.3706999999999999,-6.831640867048262
-0.37170000000000003,-6.864179226945158
-0.3726999999999999,-6.872667494744348
-0.37370000000000003,-6.895302875542188
-0.3746999999999999,-6.934914791938409
-0.37570000000000003,-6.94623248233733
-0.3766999999999999,-6.958964884036115
-0.37770000000000004,-7.002820934331931
-0.3786999999999999,-7.019797469930312
-0.37970000000000004,-7.0297004490293675
-0.3806999999999999,-7.069312365425588
-0.38170000000000004,-7.096191880123024
-0.38269999999999993,-7.104680147922214
-0.38370000000000004,-7.130144951319785
-0.38469999999999993,-7.174001001615601
-0.38570000000000004,-7.186733403314386
-0.38669999999999993,-7.200880516313037
-0.38770000000000004,-7.244736566608854
-0.38869999999999993,-7.264542524806962
-0.38970000000000005,-7.277274926505749
-0.39069999999999994,-7.312642709002375
-0.39170000000000005,-7.343766357599406
-0.39269999999999994,-7.355084047998325
-0.39370000000000005,-7.380548851395897
-0.39469999999999994,-7.427234324291442
-0.39570000000000005,-7.441381437290093
-0.39669999999999994,-7.459772684188338
-0.39770000000000005,-7.500799311884425
-0.39869999999999994,-7.5220199813824
-0.39970000000000006,-7.53616709438105
-0.40069999999999995,-7.575779010777271
-0.40170000000000006,-7.609732081974033
-0.40269999999999995,-7.621049772372953
-0.40370000000000006,-7.652173420969983
-0.40469999999999995,-7.70168831646526
-0.40570000000000006,-7.711591295564315
-0.40669999999999995,-7.731397253762426
-0.40770000000000006,-7.7837415718574325
-0.40869999999999995,-7.807791663955138
-0.40970000000000006,-7.827597622153248
-0.41069999999999995,-7.867209538549469
-0.41170000000000007,-7.9082361662455565
-0.41269999999999996,-7.926627413143801
-0.41370000000000007,-7.956336350440965
-0.41469999999999996,-8.004436534636376
-0.41570000000000007,-8.024242492834487
-0.41669999999999996,-8.048292584932193
-0.41770000000000007,-8.099222191727335
-0.41869999999999996,-8.127516417724635
-0.4197000000000001,-8.150151798522476
-0.42069999999999996,-8.199666694017752
-0.4217000000000001,-8.235034476514379
-0.42269999999999996,-8.25766985731222
-0.4237000000000001,-8.29445235110871
-0.42469999999999997,-8.34255253530412
-0.4257000000000001,-8.368017338701693
-0.42669999999999997,-8.392067430799397
-0.4277000000000001,-8.448655882793998
-0.42869999999999997,-8.47977953139103
-0.4297000000000001,-8.506659046088465
-0.43069999999999997,-8.557588652883606
-0.4317000000000001,-8.601444703179425
-0.4327,-8.628324217876859
-0.4337000000000001,-8.66510671167335
-0.4347,-8.72169516366795
-0.4357000000000001,-8.747159967065523
-0.4367,-8.78252774956215
-0.4377000000000001,-8.840530912856615
-0.4387,-8.877313406653105
-0.4397000000000001,-8.899948787450944
-0.4407,-8.955122528145683
-0.4417000000000001,-9.008881557540553
-0.4427,-9.030102227038528
-0.4437000000000001,-9.078202411233942
-0.4447,-9.139034997128135
-0.4457000000000001,-9.170158645725168
-0.4467,-9.208355850821524
-0.4477000000000001,-9.270603148015587
-0.4487,-9.310215064411805
-0.4497000000000001,-9.348412269508163
-0.4507,-9.403586010202897
-0.4517000000000001,-9.45451561699804
-0.4527,-9.489883399494666
-0.4537000000000001,-9.537983583690076
-0.4547,-9.607304437383464
-0.4557000000000001,-9.641257508580225
-0.4567,-9.682284136276312
-0.4577000000000001,-9.750190278669832
-0.4587,-9.795461040265515
-0.4597000000000001,-9.832243534062004
-0.4607,-9.897320253855797
-0.4617000000000001,-9.955323417150264
-0.4627,-9.992105910946753
-0.4637000000000001,-10.045864940341625
-0.4647,-10.118015216634742
-0.4657000000000001,-10.154797710431232
-0.4667,-10.19865376072705
-0.4677000000000001,-10.272218748320032
-0.4687,-10.317489509915713
-0.4697000000000001,-10.361345560211529
-0.4707,-10.42642228000532
-0.4717000000000001,-10.490084288499247
-0.4727,-10.536769761394792
-0.4737000000000001,-10.593358213389395
-0.4747,-10.669752623582108
-0.4757000000000001,-10.712193962578057
-0.4767,-10.761708858073334
-0.4777000000000001,-10.83668855696618
-0.4787,-10.900350565460107
-0.4797000000000001,-10.944206615755926
-0.4807,-11.01918631464877
-0.48170000000000013,-11.088507168342158
-0.4827,-11.132363218637973
-0.48370000000000013,-11.1960252271319
-0.4847,-11.278078482524071
-0.48570000000000013,-11.333252223218809
-0.4867,-11.385596541313816
-0.4876999999999999,-11.469064508005852
-0.4887,-11.534141227799646
-0.4896999999999999,-11.58648554589465
-0.4907,-11.668538801286822
-0.4916999999999999,-11.7463479227794
-0.4927,-11.802936374774
-0.4936999999999999,-11.86659838326793
-0.49470000000000003,-11.95996932905902
-0.4956999999999999,-12.017972492353486
-0.49670000000000003,-12.078805078247685
-0.4976999999999999,-12.172176024038777
-0.49870000000000003,-12.238667455132433
-0.4996999999999999,-12.2966706184269
-0.5007,-12.388626852918126
-0.5016999999999999,-12.469265397010433
-0.5027,-12.53292740550436
-0.5036999999999999,-12.610736526996936
-0.5047,-12.706936895387761
-0.5056999999999999,-12.776257749081147
-0.5067,-12.846993314074398
-0.5076999999999999,-12.950267238964546
-0.5087,-13.033735205656583
