Potential V vs RHE, Current mA cm-2
0.05339999999999995,-0.069151088337403
0.05239999999999995,-0.11733615521080615
0.051399999999999946,-0.14121648195252795
0.050399999999999945,-0.1503838111756534
0.049399999999999944,-0.15604265637511353
0.04839999999999994,-0.16071120366466815
0.04739999999999994,-0.16537975095422278
0.04639999999999994,-0.1697653559838044
0.04539999999999994,-0.1737265476234265
0.04439999999999994,-0.1772633258730891
0.04339999999999994,-0.1805171618627787
0.04239999999999994,-0.18419541124242778
0.04139999999999994,-0.18801513175206336
0.040399999999999936,-0.19183485226169897
0.039399999999999935,-0.19508868825138856
0.038399999999999934,-0.19820105311109162
0.03739999999999993,-0.20159636023076774
0.03639999999999993,-0.20499166735044383
0.03539999999999993,-0.20838697447011992
0.03439999999999993,-0.2116408104598095
0.03339999999999993,-0.21432876192955308
0.03239999999999993,-0.21786554017921567
0.03139999999999993,-0.22154378955886472
0.030399999999999927,-0.22479762554855431
0.029399999999999926,-0.22805146153824393
0.028399999999999925,-0.23116382639794697
0.027399999999999924,-0.23441766238763656
0.026399999999999924,-0.23837885402725867
0.025399999999999923,-0.24177416114693479
0.024399999999999922,-0.24488652600663782
0.02339999999999992,-0.24814036199632744
0.02239999999999992,-0.2512527268560305
0.02139999999999992,-0.25535538962563914
0.020399999999999918,-0.25903363900528825
0.019399999999999917,-0.2620045327350048
0.018399999999999916,-0.2656827821146539
0.017399999999999916,-0.2689366181043435
0.016399999999999915,-0.2726148674839926
0.015399999999999914,-0.2767175302536012
0.014399999999999913,-0.2801128373732773
0.013399999999999912,-0.28350814449295336
0.012399999999999911,-0.28704492274261595
0.01139999999999991,-0.29100611438223806
0.01039999999999991,-0.29510877715184664
0.009399999999999908,-0.29850408427152275
0.008399999999999908,-0.3018993913911988
0.007399999999999907,-0.30600205416080745
0.006399999999999906,-0.3099632458004295
0.005399999999999905,-0.31406590857003813
0.004399999999999904,-0.3176026868197007
0.003399999999999903,-0.32128093619934983
0.002399999999999902,-0.3251006567089854
0.0013999999999999013,-0.32948626173856704
0.00039999999999990044,-0.3338718667681486
-0.0006000000000001005,-0.33769158727778426
-0.0016000000000001013,-0.34122836552744684
-0.0026000000000001022,-0.3453310282970554
-0.003600000000000103,-0.3498581044566236
-0.004600000000000104,-0.3541022383562187
-0.005600000000000105,-0.3580634299958408
-0.006600000000000106,-0.3620246216354629
-0.007600000000000107,-0.365985813275085
-0.008600000000000108,-0.37065436056463963
-0.009600000000000108,-0.37461555220426174
-0.01060000000000011,-0.3790011572338433
-0.01160000000000011,-0.3829623488734654
-0.012600000000000111,-0.38777236729300657
-0.013600000000000112,-0.39229944345257467
-0.014600000000000113,-0.3962606350921968
-0.015600000000000114,-0.40022182673181883
-0.016600000000000115,-0.40432448950142746
-0.017600000000000116,-0.40856862340102257
-0.018600000000000116,-0.4133786418205638
-0.019600000000000117,-0.4179057179801318
-0.020600000000000118,-0.42200838074974045
-0.02160000000000012,-0.42611104351934903
-0.02260000000000012,-0.43049664854893066
-0.02360000000000012,-0.43530666696847176
-0.024600000000000122,-0.4399752142580264
-0.025600000000000123,-0.44407787702763507
-0.026600000000000124,-0.4480390686672571
-0.027600000000000124,-0.4528490870867982
-0.028600000000000125,-0.4573761632463663
-0.029600000000000126,-0.4621861816659074
-0.030600000000000127,-0.4664303155655025
-0.03160000000000013,-0.47053297833511115
-0.03260000000000013,-0.4750600544946793
-0.03360000000000013,-0.4795871306542474
-0.03460000000000002,-0.4845386202037751
-0.03560000000000002,-0.4884998118433972
-0.03660000000000002,-0.49260247461300577
-0.03760000000000002,-0.49741249303254687
-0.03860000000000002,-0.5020810403221014
-0.039600000000000024,-0.5066081164816696
-0.040600000000000025,-0.5108522503812647
-0.041600000000000026,-0.5146719708909003
-0.04260000000000003,-0.519340518180455
-0.04360000000000003,-0.5241505365999961
-0.04460000000000003,-0.5283946704995912
-0.04560000000000003,-0.5326388043991863
-0.04660000000000003,-0.5368829382987814
-0.04760000000000003,-0.5411270721983766
-0.04860000000000003,-0.5457956194879312
-0.04960000000000003,-0.5501812245175128
-0.050600000000000034,-0.5545668295470944
-0.051600000000000035,-0.55838655005673
-0.052600000000000036,-0.5626306839563251
-0.053600000000000037,-0.5672992312458797
-0.05460000000000004,-0.5715433651454748
-0.05560000000000004,-0.5755045567850969
-0.05660000000000004,-0.5796072195547056
-0.05760000000000004,-0.5834269400643411
-0.05860000000000004,-0.5880954873538957
-0.05960000000000004,-0.5926225635134639
-0.06060000000000004,-0.5961593417631265
-0.061600000000000044,-0.6001205334027485
-0.06260000000000004,-0.6040817250423707
-0.06360000000000005,-0.6083258589419658
-0.06460000000000005,-0.6125699928415609
-0.06560000000000005,-0.615965299961237
-0.06660000000000005,-0.6195020782108995
-0.06760000000000005,-0.6234632698505217
-0.06860000000000005,-0.6275659326201303
-0.06960000000000005,-0.6316685953897389
-0.07060000000000005,-0.6349224313794284
-0.07160000000000005,-0.6383177384991046
-0.07260000000000005,-0.6424204012687131
-0.07360000000000005,-0.6462401217783488
-0.07460000000000006,-0.6499183711579978
-0.07560000000000006,-0.653313678277674
-0.07660000000000006,-0.6564260431373771
-0.07760000000000006,-0.6602457636470126
-0.07860000000000006,-0.6637825418966752
-0.07960000000000006,-0.6674607912763243
-0.08060000000000006,-0.6705731561360274
-0.08160000000000006,-0.673261107605771
-0.08260000000000006,-0.6769393569854201
-0.08360000000000006,-0.6807590774950557
-0.08460000000000006,-0.6838714423547588
-0.08560000000000006,-0.6869838072144618
-0.08660000000000007,-0.6898132298141919
-0.08760000000000007,-0.6927841235439085
-0.08860000000000007,-0.6963209017935711
-0.08960000000000007,-0.6994332666532742
-0.09060000000000007,-0.7022626892530042
-0.09160000000000007,-0.7046676984627748
-0.09260000000000007,-0.7074971210625048
-0.09360000000000007,-0.710892428182181
-0.09460000000000007,-0.713721850781911
-0.09560000000000007,-0.7162683311216681
-0.09660000000000007,-0.7186733403314387
-0.09760000000000008,-0.7212198206711957
-0.09860000000000008,-0.7243321855308987
-0.09960000000000008,-0.7268786658706559
-0.10060000000000008,-0.7290007328204534
-0.10160000000000008,-0.7315472131602104
-0.10260000000000008,-0.733952222369981
-0.10360000000000008,-0.7363572315797515
-0.10460000000000008,-0.7390451830494952
-0.10560000000000008,-0.7410257788693063
-0.10660000000000008,-0.7430063746891172
-0.10760000000000008,-0.7452699127689013
-0.10860000000000009,-0.7478163931086583
-0.10960000000000009,-0.7502214023184289
-0.11060000000000009,-0.7517775847482805
-0.11160000000000009,-0.7536167094381051
-0.11260000000000009,-0.7557387763879025
-0.11360000000000009,-0.7578608433377001
-0.11460000000000009,-0.7605487948074438
-0.11560000000000009,-0.7623879194972683
-0.11660000000000009,-0.7633782174071737
-0.1176000000000001,-0.7652173420969983
-0.1186000000000001,-0.7670564667868228
-0.1196000000000001,-0.7691785337366205
-0.1206000000000001,-0.7705932450364854
-0.1216000000000001,-0.7717250140763775
-0.1226000000000001,-0.7737056098961885
-0.1236000000000001,-0.7755447345860131
-0.1246000000000001,-0.7771009170158646
-0.1256000000000001,-0.7783741571857431
-0.1266000000000001,-0.7793644550956487
-0.1276000000000001,-0.7809206375255002
-0.1286000000000001,-0.7829012333453113
-0.1296000000000001,-0.7841744735151899
-0.1306000000000001,-0.7853062425550819
-0.1316000000000001,-0.7864380115949738
-0.1326000000000001,-0.7875697806348659
-0.1336000000000001,-0.7894089053246904
-0.1346000000000001,-0.7903992032345959
-0.1356000000000001,-0.791530972274488
-0.1366000000000001,-0.792379799054407
-0.1376000000000001,-0.793228625834326
-0.1386000000000001,-0.7947848082641775
-0.1396000000000001,-0.7960580484340561
-0.1406000000000001,-0.7970483463439616
-0.14160000000000011,-0.7977557019938941
-0.14260000000000012,-0.7984630576438266
-0.14360000000000012,-0.7997362978137053
-0.14460000000000012,-0.8010095379835837
-0.14560000000000012,-0.8012924802435567
-0.14660000000000012,-0.8021413070234757
-0.14760000000000012,-0.8029901338033948
-0.14860000000000012,-0.8039804317133004
-0.14960000000000012,-0.8052536718831789
-0.15060000000000012,-0.8053951430131653
-0.15160000000000012,-0.8061024986630978
-0.15260000000000012,-0.8068098543130304
-0.15360000000000013,-0.8078001522229359
-0.15460000000000013,-0.8086489790028549
-0.15560000000000013,-0.8090733923928144
-0.15660000000000013,-0.8090733923928144
-0.15760000000000013,-0.81006369030272
-0.15860000000000013,-0.810912517082639
-0.15960000000000002,-0.8116198727325715
-0.16060000000000002,-0.8121857572525175
-0.16160000000000002,-0.8121857572525175
-0.16260000000000002,-0.8130345840324366
-0.16360000000000002,-0.8137419396823691
-0.16460000000000002,-0.8141663530723287
-0.16560000000000002,-0.8152981221122206
-0.16660000000000003,-0.8164298911521127
-0.16760000000000003,-0.8160054777621532
-0.16860000000000003,-0.8165713622820991
-0.16960000000000003,-0.8169957756720587
-0.17060000000000003,-0.8171372468020451
-0.17160000000000003,-0.8174201890620182
-0.17260000000000003,-0.8178446024519777
-0.17360000000000003,-0.8186934292318968
-0.17460000000000003,-0.8191178426218563
-0.17560000000000003,-0.8191178426218563
-0.17660000000000003,-0.8194007848818293
-0.17760000000000004,-0.8198251982717888
-0.17860000000000004,-0.8206740250517078
-0.17960000000000004,-0.8212399095716538
-0.18060000000000004,-0.8212399095716538
-0.18160000000000004,-0.8212399095716538
-0.18260000000000004,-0.8216643229616133
-0.18360000000000004,-0.8225131497415324
-0.18460000000000004,-0.8232205053914649
-0.18560000000000004,-0.8229375631314919
-0.18660000000000004,-0.8232205053914649
-0.18760000000000004,-0.8239278610413974
-0.18860000000000005,-0.824352274431357
-0.18960000000000005,-0.8252011012112759
-0.19060000000000005,-0.8252011012112759
-0.19160000000000005,-0.8254840434712489
-0.19260000000000005,-0.826049927991195
-0.19360000000000005,-0.826615812511141
-0.19460000000000005,-0.8270402259011005
-0.19560000000000005,-0.8273231681610735
-0.19660000000000005,-0.8273231681610735
-0.19760000000000005,-0.828030523811006
-0.19860000000000005,-0.828879350590925
-0.19960000000000006,-0.8295867062408576
-0.20060000000000006,-0.8297281773708441
-0.20160000000000006,-0.8300111196308171
-0.20260000000000006,-0.8308599464107361
-0.20360000000000006,-0.8317087731906551
-0.20460000000000006,-0.832274657710601
-0.20560000000000006,-0.8326990711005606
-0.20660000000000006,-0.832840542230547
-0.20760000000000006,-0.8338308401404527
-0.20860000000000006,-0.8349626091803447
-0.20960000000000006,-0.8355284937002907
-0.21060000000000006,-0.8360943782202367
-0.21160000000000007,-0.8365187916101962
-0.21260000000000007,-0.8372261472601288
-0.21360000000000007,-0.8383579163000208
-0.21460000000000007,-0.8390652719499533
-0.21560000000000007,-0.8396311564698993
-0.21660000000000007,-0.8406214543798047
-0.21760000000000007,-0.8418946945496834
-0.21860000000000007,-0.8427435213296024
-0.21960000000000007,-0.8437338192395079
-0.22060000000000007,-0.8442997037594538
-0.22160000000000007,-0.8452900016693595
-0.22260000000000008,-0.846280299579265
-0.22360000000000008,-0.8475535397491435
-0.22460000000000008,-0.849109722178995
-0.22560000000000008,-0.849675606698941
-0.22660000000000008,-0.850807375738833
-0.22760000000000008,-0.8519391447787251
-0.22860000000000008,-0.8536367983385632
-0.22960000000000008,-0.8551929807684147
-0.23060000000000008,-0.8560418075483337
-0.23160000000000008,-0.8573150477182123
-0.23260000000000008,-0.8588712301480638
-0.23360000000000009,-0.8605688837079019
-0.2346000000000001,-0.8624080083977264
-0.2356000000000001,-0.8635397774376183
-0.2366000000000001,-0.8648130176074971
-0.2376000000000001,-0.866793613427308
-0.2386000000000001,-0.8686327381171326
-0.2396000000000001,-0.8703303916769705
-0.2406000000000001,-0.8720280452368087
-0.2416000000000001,-0.8734427565366737
-0.2426000000000001,-0.8755648234864712
-0.2436000000000001,-0.8779698326962417
-0.2446000000000001,-0.8799504285160528
-0.2456000000000001,-0.8817895532058773
-0.2466000000000001,-0.8834872067657155
-0.2476000000000001,-0.885609273715513
-0.2486000000000001,-0.888438696315243
-0.2496000000000001,-0.8905607632650405
-0.2506000000000001,-0.8928243013448246
-0.2516000000000001,-0.8948048971646357
-0.2526000000000001,-0.8972099063744062
-0.2536000000000001,-0.9001808001041228
-0.2546000000000001,-0.903010222703853
-0.2556000000000001,-0.905273760783637
-0.2566000000000001,-0.9078202411233941
-0.2576000000000001,-0.9105081925931376
-0.2586000000000001,-0.9137620285828272
-0.2596000000000001,-0.9167329223125438
-0.2606000000000001,-0.9194208737822873
-0.2616000000000001,-0.9221088252520309
-0.2626000000000001,-0.9253626612417204
-0.2636000000000001,-0.9287579683613965
-0.2646000000000001,-0.9320118043510861
-0.2656000000000001,-0.9348412269508163
-0.2666000000000001,-0.9382365340704923
-0.2676000000000001,-0.9419147834501415
-0.2686000000000001,-0.9455930328297906
-0.2696000000000001,-0.9492712822094397
-0.2706000000000001,-0.9526665893291157
-0.2716000000000001,-0.9559204253188053
-0.2726000000000001,-0.9600230880884139
-0.2736000000000001,-0.9641257508580224
-0.2746000000000001,-0.9685113558876042
-0.2756000000000001,-0.9720481341372668
-0.2766000000000001,-0.9757263835169159
-0.2776000000000001,-0.9802534596764839
-0.2786000000000001,-0.9846390647060654
-0.2796000000000001,-0.9891661408656335
-0.2806000000000001,-0.9935517458952152
-0.28160000000000013,-0.9976544086648237
-0.28260000000000013,-1.0026058982143515
-0.28360000000000013,-1.0076988588938656
-0.2846,-1.0123674061834202
-0.2856,-1.0171774246029612
-0.2866,-1.0218459718925161
-0.2876,-1.02693893257203
-0.2886,-1.0327392489014768
-0.2896,-1.0378322095809909
-0.2906,-1.042925170260505
-0.2916,-1.0480181309400192
-0.2926,-1.0536769761394795
-0.2936,-1.0599017058588855
-0.29460000000000003,-1.0655605510583457
-0.29560000000000003,-1.0707949828678462
-0.29660000000000003,-1.0764538280673064
-0.29760000000000003,-1.0823956155267396
-0.29860000000000003,-1.0890447586361052
-0.29960000000000003,-1.0952694883555114
-0.30060000000000003,-1.101069804684958
-0.30160000000000003,-1.1075774766643371
-0.30260000000000004,-1.1138022063837434
-0.30360000000000004,-1.1207342917530823
-0.30460000000000004,-1.1278078482524072
-0.30560000000000004,-1.1341740491017998
-0.30660000000000004,-1.1408231922111656
-0.30760000000000004,-1.1478967487104907
-0.30860000000000004,-1.1551117763398024
-0.30960000000000004,-1.1623268039691141
-0.31060000000000004,-1.1692588893384528
-0.31160000000000004,-1.1764739169677645
-0.31260000000000004,-1.1839718868570492
-0.31360000000000005,-1.191752799006307
-0.31460000000000005,-1.1996751822855511
-0.31560000000000005,-1.2068902099148628
-0.31660000000000005,-1.2141052375441745
-0.31760000000000005,-1.2224520342133782
-0.31860000000000005,-1.2306573597525956
-0.31960000000000005,-1.2395700409417452
-0.32060000000000005,-1.2474924242209893
-0.32160000000000005,-1.2551318652402605
-0.32260000000000005,-1.2637616041694373
-0.32360000000000005,-1.2723913430986138
-0.32460000000000006,-1.2807381397678177
-0.32560000000000006,-1.2893678786969944
-0.32660000000000006,-1.2974317331062253
-0.32760000000000006,-1.3064858854253614
-0.32860000000000006,-1.315681508874484
-0.32960000000000006,-1.3244527189336472
-0.33060000000000006,-1.333365400122797
-0.33160000000000006,-1.3421366101819603
-0.33260000000000006,-1.3514737047610696
-0.33360000000000006,-1.3612352127301384
-0.33460000000000006,-1.3705723073092475
-0.33560000000000006,-1.3796264596283838
-0.33660000000000007,-1.3891050253374793
-0.33760000000000007,-1.3985835910465754
-0.33860000000000007,-1.408628041275617
-0.33960000000000007,-1.4189554337646317
-0.34060000000000007,-1.427443701563822
-0.34160000000000007,-1.4373466806628774
-0.34260000000000007,-1.4472496597619326
-0.34360000000000007,-1.4571526388609877
-0.3446000000000001,-1.4684703292599082
-0.3456000000000001,-1.4769585970590984
-0.3466000000000001,-1.4868615761581534
-0.34759999999999996,-1.498179266557074
-0.3486000000000001,-1.5080822456561291
-0.34959999999999997,-1.5179852247551844
-0.3506000000000001,-1.5278882038542394
-0.35159999999999997,-1.5377911829532949
-0.3526000000000001,-1.5491088733522151
-0.35359999999999997,-1.5590118524512704
-0.3546000000000001,-1.5703295428501907
-0.35559999999999997,-1.580232521949246
-0.3566000000000001,-1.5901355010483011
-0.3576,-1.6014531914472214
-0.3586000000000001,-1.6113561705462767
-0.3596,-1.6226738609451972
-0.3606000000000001,-1.6325768400442524
-0.3616,-1.6424798191433077
-0.3626000000000001,-1.653797509542228
-0.3636,-1.6651151999411482
-0.3646000000000001,-1.6750181790402037
-0.3656,-1.6849211581392587
-0.3666000000000001,-1.696238848538179
-0.3676,-1.7061418276372344
-0.3686000000000001,-1.7174595180361545
-0.3696,-1.72736249713521
-0.3706000000000001,-1.7386801875341302
-0.3716,-1.7485831666331852
-0.3726000000000001,-1.7584861457322407
-0.3736,-1.769803836131161
-0.3746000000000001,-1.779706815230216
-0.3756,-1.7910245056291363
-0.3766000000000001,-1.8009274847281918
-0.3776,-1.8108304638272468
-0.3786000000000001,-1.822148154226167
-0.3796,-1.8320511333252225
-0.3806000000000001,-1.8419541124242775
-0.3816,-1.8518570915233332
-0.3826000000000001,-1.8631747819222533
-0.3836,-1.8730777610213083
-0.3846000000000001,-1.882980740120364
-0.3856,-1.892883719219419
-0.3866000000000001,-1.9027866983184742
-0.3876,-1.9126896774175295
-0.3886000000000001,-1.922592656516585
-0.3896,-1.9324956356156402
-0.3906000000000001,-1.9423986147146954
-0.3916,-1.9508868825138854
-0.3926000000000001,-1.9607898616129409
-0.3936,-1.9706928407119961
-0.3946000000000001,-1.980595819811051
-0.3956,-1.9890840876102414
-0.3966000000000001,-1.9975723554094316
-0.3976,-2.007475334508487
-0.3986000000000001,-2.017378313607542
-0.3996,-2.0258665814067327
-0.4006000000000001,-2.0343548492059225
-0.4016,-2.042843117005113
-0.4026000000000001,-2.051331384804303
-0.4036,-2.0598196526034935
-0.4046000000000001,-2.0683079204026833
-0.4056,-2.076796188201874
-0.40660000000000013,-2.085284456001064
-0.4076,-2.0937727238002544
-0.40860000000000013,-2.1008462802995793
-0.4096,-2.1093345480987695
-0.41060000000000013,-2.116408104598095
-0.4116,-2.124896372397285
-0.41260000000000013,-2.13196992889661
-0.4136,-2.1404581966958003
-0.41460000000000014,-2.1475317531951257
-0.4156,-2.1531905983945863
-0.41660000000000014,-2.1602641548939108
-0.4176,-2.1673377113932366
-0.41860000000000014,-2.174411267892561
-0.41960000000000003,-2.181484824391887
-0.42060000000000014,-2.1871436695913467
-0.42160000000000003,-2.194217226090672
-0.42260000000000014,-2.201290782589997
-0.42360000000000003,-2.206949627789457
-0.42460000000000014,-2.2126084729889177
-0.42560000000000003,-2.2182673181883774
-0.42660000000000015,-2.2239261633878376
-0.42760000000000004,-2.229585008587298
-0.42860000000000015,-2.235243853786758
-0.42960000000000004,-2.2409026989862184
-0.43060000000000015,-2.2451468328858133
-0.43160000000000004,-2.249390966785408
-0.43260000000000015,-2.2550498119848683
-0.43360000000000004,-2.2592939458844636
-0.43460000000000015,-2.2649527910839233
-0.43560000000000004,-2.2677822136836534
-0.43660000000000015,-2.272026347583249
-0.43760000000000004,-2.276270481482844
-0.43860000000000016,-2.280514615382439
-0.43960000000000005,-2.284758749282034
-0.44060000000000016,-2.2890028831816296
-0.44160000000000005,-2.2918323057813597
-0.44260000000000016,-2.2946617283810897
-0.44360000000000005,-2.298905862280684
-0.44460000000000016,-2.3017352848804147
-0.44560000000000005,-2.3045647074801447
-0.44660000000000016,-2.307394130079875
-0.44760000000000005,-2.310223552679605
