Aug. 8, 2024   14:49:47
Cyclic Voltammetry
File: c:/users/guazh/data/20240802_batch_500/2024-08-02-exp55\exp55-2024-08-08t14_29_39-h2koh\exp55_cv_sr_500mvs_efin_-1800mv.bin
Data Source:  Experiment
Instrument Model:  CHI760E
Header: CV ran at 500 mVs
Note: 

Init E (V) = -1
High E (V) = -1
Low E (V) = -1.8
Final E (V) = -1
Init P/N = N
Scan Rate (V/s) = 0.5
Segment = 3
Sample Interval (V) = 0.001
Quiet Time (sec) = 2
Sensitivity (A/V) = 0.01
Comp R (ohm) = 2.3

Results:

Channel 1:
Segment 1:

Segment 2:

Segment 3:

Potential/V, Current/A

-1.000, 3.239e-6
-1.001, 3.239e-6
-1.002, 3.239e-6
-1.003, 3.239e-6
-1.004, 3.239e-6
-1.005, 3.239e-6
-1.006, 3.239e-6
-1.007, 3.239e-6
-1.008, 3.239e-6
-1.009, 3.239e-6
-1.010, 3.239e-6
-1.011, 3.239e-6
-1.012, 3.239e-6
-1.013, 3.239e-6
-1.014, 3.239e-6
-1.015, 3.239e-6
-1.016, 3.239e-6
-1.017, 3.239e-6
-1.018, 3.239e-6
-1.019, 3.239e-6
-1.020, 3.239e-6
-1.021, 3.239e-6
-1.022, 3.239e-6
-1.023, 3.239e-6
-1.024, 3.239e-6
-1.025, 6.322e-6
-1.026, 3.239e-6
-1.027, 3.239e-6
-1.028, 3.239e-6
-1.029, 6.322e-6
-1.030, 3.239e-6
-1.031, 3.239e-6
-1.032, 6.322e-6
-1.033, 3.239e-6
-1.034, 3.239e-6
-1.035, 6.322e-6
-1.036, 3.239e-6
-1.037, 6.322e-6
-1.038, 6.322e-6
-1.039, 3.239e-6
-1.040, 3.239e-6
-1.041, 3.239e-6
-1.042, 6.322e-6
-1.043, 6.322e-6
-1.044, 3.239e-6
-1.045, 6.322e-6
-1.046, 6.322e-6
-1.047, 3.239e-6
-1.048, 6.322e-6
-1.049, 3.239e-6
-1.050, 6.322e-6
-1.051, 6.322e-6
-1.052, 6.322e-6
-1.053, 6.322e-6
-1.054, 6.322e-6
-1.055, 6.322e-6
-1.056, 6.322e-6
-1.057, 3.239e-6
-1.058, 6.322e-6
-1.059, 6.322e-6
-1.060, 6.322e-6
-1.061, 3.239e-6
-1.062, 6.322e-6
-1.063, 6.322e-6
-1.064, 6.322e-6
-1.065, 6.322e-6
-1.066, 6.322e-6
-1.067, 6.322e-6
-1.068, 6.322e-6
-1.069, 6.322e-6
-1.070, 6.322e-6
-1.071, 3.239e-6
-1.072, 6.322e-6
-1.073, 6.322e-6
-1.074, 6.322e-6
-1.075, 6.322e-6
-1.076, 6.322e-6
-1.077, 6.322e-6
-1.078, 6.322e-6
-1.079, 6.322e-6
-1.080, 6.322e-6
-1.081, 6.322e-6
-1.082, 6.322e-6
-1.083, 6.322e-6
-1.084, 6.322e-6
-1.085, 6.322e-6
-1.086, 6.322e-6
-1.087, 6.322e-6
-1.088, 6.322e-6
-1.089, 6.322e-6
-1.090, 6.322e-6
-1.091, 6.322e-6
-1.092, 6.322e-6
-1.093, 6.322e-6
-1.094, 6.322e-6
-1.095, 6.322e-6
-1.096, 6.322e-6
-1.097, 6.322e-6
-1.098, 6.322e-6
-1.099, 6.322e-6
-1.100, 6.322e-6
-1.101, 6.322e-6
-1.102, 6.322e-6
-1.103, 6.322e-6
-1.104, 6.322e-6
-1.105, 6.322e-6
-1.106, 6.322e-6
-1.107, 6.322e-6
-1.108, 6.322e-6
-1.109, 6.322e-6
-1.110, 6.322e-6
-1.111, 6.322e-6
-1.112, 6.322e-6
-1.113, 6.322e-6
-1.114, 6.322e-6
-1.115, 6.322e-6
-1.116, 6.322e-6
-1.117, 6.322e-6
-1.118, 6.322e-6
-1.119, 6.322e-6
-1.120, 6.322e-6
-1.121, 6.322e-6
-1.122, 6.322e-6
-1.123, 6.322e-6
-1.124, 6.322e-6
-1.125, 6.322e-6
-1.126, 6.322e-6
-1.127, 6.322e-6
-1.128, 6.322e-6
-1.129, 6.322e-6
-1.130, 6.322e-6
-1.131, 6.322e-6
-1.132, 6.322e-6
-1.133, 6.322e-6
-1.134, 6.322e-6
-1.135, 6.322e-6
-1.136, 6.322e-6
-1.137, 6.322e-6
-1.138, 6.322e-6
-1.139, 6.322e-6
-1.140, 6.322e-6
-1.141, 6.322e-6
-1.142, 6.322e-6
-1.143, 6.322e-6
-1.144, 6.322e-6
-1.145, 6.322e-6
-1.146, 9.405e-6
-1.147, 6.322e-6
-1.148, 6.322e-6
-1.149, 6.322e-6
-1.150, 6.322e-6
-1.151, 6.322e-6
-1.152, 6.322e-6
-1.153, 6.322e-6
-1.154, 9.405e-6
-1.155, 6.322e-6
-1.156, 6.322e-6
-1.157, 6.322e-6
-1.158, 6.322e-6
-1.159, 6.322e-6
-1.160, 6.322e-6
-1.161, 6.322e-6
-1.162, 6.322e-6
-1.163, 6.322e-6
-1.164, 6.322e-6
-1.165, 9.405e-6
-1.166, 6.322e-6
-1.167, 6.322e-6
-1.168, 6.322e-6
-1.169, 6.322e-6
-1.170, 9.405e-6
-1.171, 6.322e-6
-1.172, 6.322e-6
-1.173, 9.405e-6
-1.174, 6.322e-6
-1.175, 6.322e-6
-1.176, 6.322e-6
-1.177, 6.322e-6
-1.178, 9.405e-6
-1.179, 9.405e-6
-1.180, 6.322e-6
-1.181, 6.322e-6
-1.182, 6.322e-6
-1.183, 9.405e-6
-1.184, 6.322e-6
-1.185, 6.322e-6
-1.186, 6.322e-6
-1.187, 6.322e-6
-1.188, 9.405e-6
-1.189, 6.322e-6
-1.190, 6.322e-6
-1.191, 9.405e-6
-1.192, 9.405e-6
-1.193, 9.405e-6
-1.194, 6.322e-6
-1.195, 9.405e-6
-1.196, 9.405e-6
-1.197, 6.322e-6
-1.198, 9.405e-6
-1.199, 9.405e-6
-1.200, 6.322e-6
-1.201, 9.405e-6
-1.202, 6.322e-6
-1.203, 9.405e-6
-1.204, 9.405e-6
-1.205, 9.405e-6
-1.206, 9.405e-6
-1.207, 9.405e-6
-1.208, 9.405e-6
-1.209, 9.405e-6
-1.210, 9.405e-6
-1.211, 6.322e-6
-1.212, 6.322e-6
-1.213, 9.405e-6
-1.214, 9.405e-6
-1.215, 6.322e-6
-1.216, 9.405e-6
-1.217, 9.405e-6
-1.218, 9.405e-6
-1.219, 9.405e-6
-1.220, 9.405e-6
-1.221, 9.405e-6
-1.222, 9.405e-6
-1.223, 9.405e-6
-1.224, 9.405e-6
-1.225, 9.405e-6
-1.226, 9.405e-6
-1.227, 9.405e-6
-1.228, 9.405e-6
-1.229, 9.405e-6
-1.230, 9.405e-6
-1.231, 9.405e-6
-1.232, 9.405e-6
-1.233, 9.405e-6
-1.234, 9.405e-6
-1.235, 9.405e-6
-1.236, 9.405e-6
-1.237, 9.405e-6
-1.238, 9.405e-6
-1.239, 9.405e-6
-1.240, 9.405e-6
-1.241, 9.405e-6
-1.242, 9.405e-6
-1.243, 9.405e-6
-1.244, 9.405e-6
-1.245, 9.405e-6
-1.246, 9.405e-6
-1.247, 9.405e-6
-1.248, 9.405e-6
-1.249, 9.405e-6
-1.250, 9.405e-6
-1.251, 9.405e-6
-1.252, 9.405e-6
-1.253, 9.405e-6
-1.254, 9.405e-6
-1.255, 9.405e-6
-1.256, 9.405e-6
-1.257, 9.405e-6
-1.258, 9.405e-6
-1.259, 9.405e-6
-1.260, 9.405e-6
-1.261, 9.405e-6
-1.262, 9.405e-6
-1.263, 9.405e-6
-1.264, 9.405e-6
-1.265, 9.405e-6
-1.266, 9.405e-6
-1.267, 9.405e-6
-1.268, 9.405e-6
-1.269, 9.405e-6
-1.270, 9.405e-6
-1.271, 9.405e-6
-1.272, 9.405e-6
-1.273, 9.405e-6
-1.274, 1.249e-5
-1.275, 9.405e-6
-1.276, 9.405e-6
-1.277, 9.405e-6
-1.278, 9.405e-6
-1.279, 1.249e-5
-1.280, 9.405e-6
-1.281, 9.405e-6
-1.282, 1.249e-5
-1.283, 1.249e-5
-1.284, 1.249e-5
-1.285, 9.405e-6
-1.286, 1.249e-5
-1.287, 1.249e-5
-1.288, 1.249e-5
-1.289, 1.249e-5
-1.290, 9.405e-6
-1.291, 1.249e-5
-1.292, 1.249e-5
-1.293, 9.405e-6
-1.294, 1.249e-5
-1.295, 1.249e-5
-1.296, 1.249e-5
-1.297, 1.249e-5
-1.298, 1.249e-5
-1.299, 1.249e-5
-1.300, 1.249e-5
-1.301, 1.249e-5
-1.302, 1.249e-5
-1.303, 1.249e-5
-1.304, 1.249e-5
-1.305, 1.249e-5
-1.306, 1.249e-5
-1.307, 1.249e-5
-1.308, 1.249e-5
-1.309, 1.249e-5
-1.310, 1.249e-5
-1.311, 1.249e-5
-1.312, 1.249e-5
-1.313, 1.249e-5
-1.314, 1.249e-5
-1.315, 1.249e-5
-1.316, 1.249e-5
-1.317, 1.249e-5
-1.318, 1.249e-5
-1.319, 1.249e-5
-1.320, 1.557e-5
-1.321, 1.249e-5
-1.322, 1.249e-5
-1.323, 1.249e-5
-1.324, 1.249e-5
-1.325, 1.557e-5
-1.326, 1.249e-5
-1.327, 1.249e-5
-1.328, 1.557e-5
-1.329, 1.557e-5
-1.330, 1.557e-5
-1.331, 1.557e-5
-1.332, 1.557e-5
-1.333, 1.557e-5
-1.334, 1.557e-5
-1.335, 1.557e-5
-1.336, 1.557e-5
-1.337, 1.557e-5
-1.338, 1.557e-5
-1.339, 1.557e-5
-1.340, 1.557e-5
-1.341, 1.557e-5
-1.342, 1.557e-5
-1.343, 1.557e-5
-1.344, 1.557e-5
-1.345, 1.557e-5
-1.346, 1.557e-5
-1.347, 1.865e-5
-1.348, 1.557e-5
-1.349, 1.557e-5
-1.350, 1.557e-5
-1.351, 1.865e-5
-1.352, 1.557e-5
-1.353, 1.865e-5
-1.354, 1.865e-5
-1.355, 1.865e-5
-1.356, 1.865e-5
-1.357, 1.865e-5
-1.358, 1.865e-5
-1.359, 1.865e-5
-1.360, 1.865e-5
-1.361, 1.865e-5
-1.362, 1.865e-5
-1.363, 1.865e-5
-1.364, 1.865e-5
-1.365, 1.865e-5
-1.366, 1.865e-5
-1.367, 1.865e-5
-1.368, 1.865e-5
-1.369, 1.865e-5
-1.370, 2.174e-5
-1.371, 1.865e-5
-1.372, 2.174e-5
-1.373, 2.174e-5
-1.374, 2.174e-5
-1.375, 2.174e-5
-1.376, 1.865e-5
-1.377, 2.174e-5
-1.378, 2.174e-5
-1.379, 2.174e-5
-1.380, 2.174e-5
-1.381, 2.174e-5
-1.382, 2.174e-5
-1.383, 2.482e-5
-1.384, 2.174e-5
-1.385, 2.482e-5
-1.386, 2.174e-5
-1.387, 2.482e-5
-1.388, 2.482e-5
-1.389, 2.482e-5
-1.390, 2.482e-5
-1.391, 2.482e-5
-1.392, 2.482e-5
-1.393, 2.482e-5
-1.394, 2.482e-5
-1.395, 2.482e-5
-1.396, 2.790e-5
-1.397, 2.790e-5
-1.398, 2.790e-5
-1.399, 2.482e-5
-1.400, 2.790e-5
-1.401, 2.790e-5
-1.402, 2.790e-5
-1.403, 2.790e-5
-1.404, 2.790e-5
-1.405, 2.790e-5
-1.406, 2.790e-5
-1.407, 3.099e-5
-1.408, 2.790e-5
-1.409, 3.099e-5
-1.410, 3.099e-5
-1.411, 3.099e-5
-1.412, 3.099e-5
-1.413, 3.099e-5
-1.414, 3.099e-5
-1.415, 3.099e-5
-1.416, 3.099e-5
-1.417, 3.099e-5
-1.418, 3.099e-5
-1.419, 3.407e-5
-1.420, 3.407e-5
-1.421, 3.407e-5
-1.422, 3.407e-5
-1.423, 3.407e-5
-1.424, 3.715e-5
-1.425, 3.407e-5
-1.426, 3.715e-5
-1.427, 3.715e-5
-1.428, 3.715e-5
-1.429, 3.715e-5
-1.430, 3.715e-5
-1.431, 3.715e-5
-1.432, 3.715e-5
-1.433, 3.715e-5
-1.434, 4.024e-5
-1.435, 4.024e-5
-1.436, 4.024e-5
-1.437, 4.024e-5
-1.438, 4.024e-5
-1.439, 4.332e-5
-1.440, 4.332e-5
-1.441, 4.332e-5
-1.442, 4.332e-5
-1.443, 4.332e-5
-1.444, 4.332e-5
-1.445, 4.332e-5
-1.446, 4.640e-5
-1.447, 4.640e-5
-1.448, 4.640e-5
-1.449, 4.640e-5
-1.450, 4.640e-5
-1.451, 4.949e-5
-1.452, 4.949e-5
-1.453, 4.949e-5
-1.454, 4.949e-5
-1.455, 4.949e-5
-1.456, 4.949e-5
-1.457, 4.949e-5
-1.458, 5.257e-5
-1.459, 5.257e-5
-1.460, 5.257e-5
-1.461, 5.257e-5
-1.462, 5.565e-5
-1.463, 5.565e-5
-1.464, 5.565e-5
-1.465, 5.565e-5
-1.466, 5.565e-5
-1.467, 5.565e-5
-1.468, 5.873e-5
-1.469, 5.873e-5
-1.470, 5.873e-5
-1.471, 5.873e-5
-1.472, 5.873e-5
-1.473, 6.182e-5
-1.474, 6.182e-5
-1.475, 6.182e-5
-1.476, 6.182e-5
-1.477, 6.182e-5
-1.478, 6.490e-5
-1.479, 6.490e-5
-1.480, 6.798e-5
-1.481, 6.798e-5
-1.482, 6.798e-5
-1.483, 6.798e-5
-1.484, 6.798e-5
-1.485, 7.107e-5
-1.486, 7.107e-5
-1.487, 7.107e-5
-1.488, 7.415e-5
-1.489, 7.415e-5
-1.490, 7.415e-5
-1.491, 7.723e-5
-1.492, 7.723e-5
-1.493, 7.723e-5
-1.494, 7.723e-5
-1.495, 7.723e-5
-1.496, 8.032e-5
-1.497, 8.032e-5
-1.498, 8.340e-5
-1.499, 8.340e-5
-1.500, 8.340e-5
-1.501, 8.340e-5
-1.502, 8.340e-5
-1.503, 8.648e-5
-1.504, 8.957e-5
-1.505, 8.957e-5
-1.506, 8.957e-5
-1.507, 9.265e-5
-1.508, 9.265e-5
-1.509, 9.265e-5
-1.510, 9.573e-5
-1.511, 9.573e-5
-1.512, 9.882e-5
-1.513, 9.882e-5
-1.514, 9.882e-5
-1.515, 9.882e-5
-1.516, 1.019e-4
-1.517, 1.019e-4
-1.518, 1.050e-4
-1.519, 1.050e-4
-1.520, 1.081e-4
-1.521, 1.081e-4
-1.522, 1.111e-4
-1.523, 1.111e-4
-1.524, 1.142e-4
-1.525, 1.142e-4
-1.526, 1.142e-4
-1.527, 1.173e-4
-1.528, 1.204e-4
-1.529, 1.204e-4
-1.530, 1.235e-4
-1.531, 1.235e-4
-1.532, 1.266e-4
-1.533, 1.266e-4
-1.534, 1.296e-4
-1.535, 1.296e-4
-1.536, 1.327e-4
-1.537, 1.358e-4
-1.538, 1.389e-4
-1.539, 1.389e-4
-1.540, 1.420e-4
-1.541, 1.420e-4
-1.542, 1.451e-4
-1.543, 1.481e-4
-1.544, 1.481e-4
-1.545, 1.512e-4
-1.546, 1.543e-4
-1.547, 1.574e-4
-1.548, 1.574e-4
-1.549, 1.605e-4
-1.550, 1.636e-4
-1.551, 1.666e-4
-1.552, 1.666e-4
-1.553, 1.697e-4
-1.554, 1.728e-4
-1.555, 1.759e-4
-1.556, 1.790e-4
-1.557, 1.821e-4
-1.558, 1.851e-4
-1.559, 1.851e-4
-1.560, 1.882e-4
-1.561, 1.913e-4
-1.562, 1.975e-4
-1.563, 2.006e-4
-1.564, 2.006e-4
-1.565, 2.036e-4
-1.566, 2.098e-4
-1.567, 2.098e-4
-1.568, 2.160e-4
-1.569, 2.191e-4
-1.570, 2.221e-4
-1.571, 2.252e-4
-1.572, 2.283e-4
-1.573, 2.345e-4
-1.574, 2.376e-4
-1.575, 2.406e-4
-1.576, 2.437e-4
-1.577, 2.468e-4
-1.578, 2.530e-4
-1.579, 2.591e-4
-1.580, 2.622e-4
-1.581, 2.684e-4
-1.582, 2.715e-4
-1.583, 2.776e-4
-1.584, 2.807e-4
-1.585, 2.869e-4
-1.586, 2.900e-4
-1.587, 2.961e-4
-1.588, 3.023e-4
-1.589, 3.085e-4
-1.590, 3.115e-4
-1.591, 3.177e-4
-1.592, 3.239e-4
-1.593, 3.300e-4
-1.594, 3.362e-4
-1.595, 3.424e-4
-1.596, 3.485e-4
-1.597, 3.547e-4
-1.598, 3.609e-4
-1.599, 3.670e-4
-1.600, 3.763e-4
-1.601, 3.825e-4
-1.602, 3.886e-4
-1.603, 3.948e-4
-1.604, 4.040e-4
-1.605, 4.102e-4
-1.606, 4.195e-4
-1.607, 4.287e-4
-1.608, 4.349e-4
-1.609, 4.410e-4
-1.610, 4.503e-4
-1.611, 4.595e-4
-1.612, 4.688e-4
-1.613, 4.780e-4
-1.614, 4.873e-4
-1.615, 4.965e-4
-1.616, 5.058e-4
-1.617, 5.150e-4
-1.618, 5.243e-4
-1.619, 5.366e-4
-1.620, 5.459e-4
-1.621, 5.582e-4
-1.622, 5.674e-4
-1.623, 5.798e-4
-1.624, 5.921e-4
-1.625, 6.014e-4
-1.626, 6.137e-4
-1.627, 6.260e-4
-1.628, 6.384e-4
-1.629, 6.507e-4
-1.630, 6.630e-4
-1.631, 6.754e-4
-1.632, 6.877e-4
-1.633, 7.031e-4
-1.634, 7.154e-4
-1.635, 7.309e-4
-1.636, 7.432e-4
-1.637, 7.617e-4
-1.638, 7.771e-4
-1.639, 7.925e-4
-1.640, 8.079e-4
-1.641, 8.233e-4
-1.642, 8.388e-4
-1.643, 8.542e-4
-1.644, 8.727e-4
-1.645, 8.881e-4
-1.646, 9.066e-4
-1.647, 9.251e-4
-1.648, 9.436e-4
-1.649, 9.621e-4
-1.650, 9.806e-4
-1.651, 9.991e-4
-1.652, 1.018e-3
-1.653, 1.039e-3
-1.654, 1.061e-3
-1.655, 1.082e-3
-1.656, 1.104e-3
-1.657, 1.125e-3
-1.658, 1.144e-3
-1.659, 1.166e-3
-1.660, 1.190e-3
-1.661, 1.212e-3
-1.662, 1.236e-3
-1.663, 1.258e-3
-1.664, 1.286e-3
-1.665, 1.310e-3
-1.666, 1.335e-3
-1.667, 1.360e-3
-1.668, 1.384e-3
-1.669, 1.409e-3
-1.670, 1.437e-3
-1.671, 1.465e-3
-1.672, 1.492e-3
-1.673, 1.520e-3
-1.674, 1.548e-3
-1.675, 1.576e-3
-1.676, 1.603e-3
-1.677, 1.634e-3
-1.678, 1.665e-3
-1.679, 1.696e-3
-1.680, 1.730e-3
-1.681, 1.761e-3
-1.682, 1.795e-3
-1.683, 1.825e-3
-1.684, 1.856e-3
-1.685, 1.890e-3
-1.686, 1.924e-3
-1.687, 1.958e-3
-1.688, 1.998e-3
-1.689, 2.032e-3
-1.690, 2.069e-3
-1.691, 2.106e-3
-1.692, 2.143e-3
-1.693, 2.177e-3
-1.694, 2.217e-3
-1.695, 2.257e-3
-1.696, 2.297e-3
-1.697, 2.340e-3
-1.698, 2.383e-3
-1.699, 2.423e-3
-1.700, 2.464e-3
-1.701, 2.504e-3
-1.702, 2.547e-3
-1.703, 2.593e-3
-1.704, 2.636e-3
-1.705, 2.686e-3
-1.706, 2.732e-3
-1.707, 2.775e-3
-1.708, 2.821e-3
-1.709, 2.864e-3
-1.710, 2.911e-3
-1.711, 2.963e-3
-1.712, 3.012e-3
-1.713, 3.065e-3
-1.714, 3.114e-3
-1.715, 3.163e-3
-1.716, 3.213e-3
-1.717, 3.259e-3
-1.718, 3.308e-3
-1.719, 3.361e-3
-1.720, 3.413e-3
-1.721, 3.469e-3
-1.722, 3.524e-3
-1.723, 3.580e-3
-1.724, 3.632e-3
-1.725, 3.684e-3
-1.726, 3.740e-3
-1.727, 3.795e-3
-1.728, 3.854e-3
-1.729, 3.916e-3
-1.730, 3.974e-3
-1.731, 4.039e-3
-1.732, 4.098e-3
-1.733, 4.156e-3
-1.734, 4.215e-3
-1.735, 4.276e-3
-1.736, 4.341e-3
-1.737, 4.406e-3
-1.738, 4.471e-3
-1.739, 4.538e-3
-1.740, 4.603e-3
-1.741, 4.668e-3
-1.742, 4.733e-3
-1.743, 4.797e-3
-1.744, 4.868e-3
-1.745, 4.939e-3
-1.746, 5.010e-3
-1.747, 5.084e-3
-1.748, 5.152e-3
-1.749, 5.220e-3
-1.750, 5.291e-3
-1.751, 5.356e-3
-1.752, 5.426e-3
-1.753, 5.500e-3
-1.754, 5.574e-3
-1.755, 5.651e-3
-1.756, 5.722e-3
-1.757, 5.796e-3
-1.758, 5.867e-3
-1.759, 5.935e-3
-1.760, 6.006e-3
-1.761, 6.083e-3
-1.762, 6.160e-3
-1.763, 6.240e-3
-1.764, 6.321e-3
-1.765, 6.398e-3
-1.766, 6.472e-3
-1.767, 6.546e-3
-1.768, 6.620e-3
-1.769, 6.703e-3
-1.770, 6.786e-3
-1.771, 6.869e-3
-1.772, 6.956e-3
-1.773, 7.039e-3
-1.774, 7.125e-3
-1.775, 7.208e-3
-1.776, 7.292e-3
-1.777, 7.378e-3
-1.778, 7.467e-3
-1.779, 7.560e-3
-1.780, 7.649e-3
-1.781, 7.742e-3
-1.782, 7.828e-3
-1.783, 7.914e-3
-1.784, 7.998e-3
-1.785, 8.087e-3
-1.786, 8.177e-3
-1.787, 8.272e-3
-1.788, 8.368e-3
-1.789, 8.460e-3
-1.790, 8.553e-3
-1.791, 8.642e-3
-1.792, 8.732e-3
-1.793, 8.821e-3
-1.794, 8.917e-3
-1.795, 9.012e-3
-1.796, 9.111e-3
-1.797, 9.206e-3
-1.798, 9.299e-3
-1.799, 9.391e-3
-1.800, 9.422e-3
-1.799, 9.348e-3
-1.798, 9.277e-3
-1.797, 9.209e-3
-1.796, 9.142e-3
-1.795, 9.077e-3
-1.794, 9.006e-3
-1.793, 8.935e-3
-1.792, 8.864e-3
-1.791, 8.790e-3
-1.790, 8.719e-3
-1.789, 8.648e-3
-1.788, 8.580e-3
-1.787, 8.513e-3
-1.786, 8.445e-3
-1.785, 8.374e-3
-1.784, 8.300e-3
-1.783, 8.223e-3
-1.782, 8.149e-3
-1.781, 8.078e-3
-1.780, 8.007e-3
-1.779, 7.939e-3
-1.778, 7.871e-3
-1.777, 7.800e-3
-1.776, 7.730e-3
-1.775, 7.652e-3
-1.774, 7.578e-3
-1.773, 7.508e-3
-1.772, 7.437e-3
-1.771, 7.369e-3
-1.770, 7.298e-3
-1.769, 7.227e-3
-1.768, 7.153e-3
-1.767, 7.076e-3
-1.766, 6.999e-3
-1.765, 6.925e-3
-1.764, 6.851e-3
-1.763, 6.783e-3
-1.762, 6.712e-3
-1.761, 6.644e-3
-1.760, 6.570e-3
-1.759, 6.499e-3
-1.758, 6.425e-3
-1.757, 6.354e-3
-1.756, 6.284e-3
-1.755, 6.219e-3
-1.754, 6.157e-3
-1.753, 6.092e-3
-1.752, 6.028e-3
-1.751, 5.960e-3
-1.750, 5.892e-3
-1.749, 5.827e-3
-1.748, 5.762e-3
-1.747, 5.704e-3
-1.746, 5.645e-3
-1.745, 5.587e-3
-1.744, 5.528e-3
-1.743, 5.467e-3
-1.742, 5.402e-3
-1.741, 5.340e-3
-1.740, 5.278e-3
-1.739, 5.223e-3
-1.738, 5.167e-3
-1.737, 5.112e-3
-1.736, 5.056e-3
-1.735, 4.995e-3
-1.734, 4.939e-3
-1.733, 4.875e-3
-1.732, 4.816e-3
-1.731, 4.760e-3
-1.730, 4.705e-3
-1.729, 4.653e-3
-1.728, 4.597e-3
-1.727, 4.545e-3
-1.726, 4.486e-3
-1.725, 4.428e-3
-1.724, 4.372e-3
-1.723, 4.317e-3
-1.722, 4.261e-3
-1.721, 4.212e-3
-1.720, 4.159e-3
-1.719, 4.107e-3
-1.718, 4.051e-3
-1.717, 3.996e-3
-1.716, 3.940e-3
-1.715, 3.888e-3
-1.714, 3.839e-3
-1.713, 3.789e-3
-1.712, 3.743e-3
-1.711, 3.697e-3
-1.710, 3.647e-3
-1.709, 3.598e-3
-1.708, 3.549e-3
-1.707, 3.499e-3
-1.706, 3.453e-3
-1.705, 3.407e-3
-1.704, 3.364e-3
-1.703, 3.324e-3
-1.702, 3.278e-3
-1.701, 3.231e-3
-1.700, 3.185e-3
-1.699, 3.142e-3
-1.698, 3.099e-3
-1.697, 3.056e-3
-1.696, 3.015e-3
-1.695, 2.975e-3
-1.694, 2.935e-3
-1.693, 2.895e-3
-1.692, 2.852e-3
-1.691, 2.809e-3
-1.690, 2.769e-3
-1.689, 2.729e-3
-1.688, 2.695e-3
-1.687, 2.655e-3
-1.686, 2.618e-3
-1.685, 2.581e-3
-1.684, 2.541e-3
-1.683, 2.504e-3
-1.682, 2.464e-3
-1.681, 2.430e-3
-1.680, 2.393e-3
-1.679, 2.359e-3
-1.678, 2.325e-3
-1.677, 2.291e-3
-1.676, 2.254e-3
-1.675, 2.220e-3
-1.674, 2.183e-3
-1.673, 2.149e-3
-1.672, 2.118e-3
-1.671, 2.087e-3
-1.670, 2.057e-3
-1.669, 2.026e-3
-1.668, 1.992e-3
-1.667, 1.961e-3
-1.666, 1.930e-3
-1.665, 1.899e-3
-1.664, 1.869e-3
-1.663, 1.841e-3
-1.662, 1.813e-3
-1.661, 1.788e-3
-1.660, 1.758e-3
-1.659, 1.730e-3
-1.658, 1.702e-3
-1.657, 1.674e-3
-1.656, 1.647e-3
-1.655, 1.622e-3
-1.654, 1.597e-3
-1.653, 1.573e-3
-1.652, 1.545e-3
-1.651, 1.520e-3
-1.650, 1.492e-3
-1.649, 1.468e-3
-1.648, 1.443e-3
-1.647, 1.421e-3
-1.646, 1.400e-3
-1.645, 1.378e-3
-1.644, 1.354e-3
-1.643, 1.332e-3
-1.642, 1.310e-3
-1.641, 1.286e-3
-1.640, 1.264e-3
-1.639, 1.243e-3
-1.638, 1.221e-3
-1.637, 1.203e-3
-1.636, 1.184e-3
-1.635, 1.162e-3
-1.634, 1.144e-3
-1.633, 1.122e-3
-1.632, 1.101e-3
-1.631, 1.082e-3
-1.630, 1.064e-3
-1.629, 1.048e-3
-1.628, 1.030e-3
-1.627, 1.011e-3
-1.626, 9.960e-4
-1.625, 9.775e-4
-1.624, 9.590e-4
-1.623, 9.405e-4
-1.622, 9.251e-4
-1.621, 9.097e-4
-1.620, 8.943e-4
-1.619, 8.788e-4
-1.618, 8.634e-4
-1.617, 8.480e-4
-1.616, 8.326e-4
-1.615, 8.172e-4
-1.614, 8.018e-4
-1.613, 7.894e-4
-1.612, 7.740e-4
-1.611, 7.617e-4
-1.610, 7.463e-4
-1.609, 7.339e-4
-1.608, 7.185e-4
-1.607, 7.062e-4
-1.606, 6.939e-4
-1.605, 6.815e-4
-1.604, 6.723e-4
-1.603, 6.569e-4
-1.602, 6.445e-4
-1.601, 6.353e-4
-1.600, 6.199e-4
-1.599, 6.106e-4
-1.598, 5.983e-4
-1.597, 5.890e-4
-1.596, 5.767e-4
-1.595, 5.674e-4
-1.594, 5.582e-4
-1.593, 5.459e-4
-1.592, 5.366e-4
-1.591, 5.243e-4
-1.590, 5.150e-4
-1.589, 5.058e-4
-1.588, 4.965e-4
-1.587, 4.873e-4
-1.586, 4.780e-4
-1.585, 4.688e-4
-1.584, 4.595e-4
-1.583, 4.534e-4
-1.582, 4.410e-4
-1.581, 4.349e-4
-1.580, 4.256e-4
-1.579, 4.195e-4
-1.578, 4.102e-4
-1.577, 4.040e-4
-1.576, 3.979e-4
-1.575, 3.886e-4
-1.574, 3.794e-4
-1.573, 3.732e-4
-1.572, 3.670e-4
-1.571, 3.609e-4
-1.570, 3.547e-4
-1.569, 3.455e-4
-1.568, 3.393e-4
-1.567, 3.331e-4
-1.566, 3.270e-4
-1.565, 3.208e-4
-1.564, 3.146e-4
-1.563, 3.115e-4
-1.562, 3.023e-4
-1.561, 2.961e-4
-1.560, 2.931e-4
-1.559, 2.838e-4
-1.558, 2.807e-4
-1.557, 2.746e-4
-1.556, 2.684e-4
-1.555, 2.653e-4
-1.554, 2.591e-4
-1.553, 2.561e-4
-1.552, 2.499e-4
-1.551, 2.437e-4
-1.550, 2.406e-4
-1.549, 2.345e-4
-1.548, 2.314e-4
-1.547, 2.252e-4
-1.546, 2.221e-4
-1.545, 2.191e-4
-1.544, 2.129e-4
-1.543, 2.098e-4
-1.542, 2.067e-4
-1.541, 2.006e-4
-1.540, 1.975e-4
-1.539, 1.944e-4
-1.538, 1.913e-4
-1.537, 1.882e-4
-1.536, 1.851e-4
-1.535, 1.790e-4
-1.534, 1.759e-4
-1.533, 1.728e-4
-1.532, 1.697e-4
-1.531, 1.666e-4
-1.530, 1.636e-4
-1.529, 1.605e-4
-1.528, 1.574e-4
-1.527, 1.543e-4
-1.526, 1.512e-4
-1.525, 1.481e-4
-1.524, 1.451e-4
-1.523, 1.420e-4
-1.522, 1.389e-4
-1.521, 1.358e-4
-1.520, 1.327e-4
-1.519, 1.327e-4
-1.518, 1.296e-4
-1.517, 1.266e-4
-1.516, 1.235e-4
-1.515, 1.204e-4
-1.514, 1.204e-4
-1.513, 1.173e-4
-1.512, 1.142e-4
-1.511, 1.142e-4
-1.510, 1.111e-4
-1.509, 1.081e-4
-1.508, 1.050e-4
-1.507, 1.019e-4
-1.506, 1.019e-4
-1.505, 9.882e-5
-1.504, 9.882e-5
-1.503, 9.573e-5
-1.502, 9.265e-5
-1.501, 9.265e-5
-1.500, 8.957e-5
-1.499, 8.957e-5
-1.498, 8.648e-5
-1.497, 8.648e-5
-1.496, 8.340e-5
-1.495, 8.340e-5
-1.494, 8.032e-5
-1.493, 8.032e-5
-1.492, 7.723e-5
-1.491, 7.415e-5
-1.490, 7.415e-5
-1.489, 7.107e-5
-1.488, 7.107e-5
-1.487, 7.107e-5
-1.486, 6.798e-5
-1.485, 6.798e-5
-1.484, 6.798e-5
-1.483, 6.490e-5
-1.482, 6.182e-5
-1.481, 6.182e-5
-1.480, 6.182e-5
-1.479, 6.182e-5
-1.478, 5.873e-5
-1.477, 5.873e-5
-1.476, 5.565e-5
-1.475, 5.565e-5
-1.474, 5.257e-5
-1.473, 5.257e-5
-1.472, 5.257e-5
-1.471, 5.257e-5
-1.470, 4.949e-5
-1.469, 4.949e-5
-1.468, 4.949e-5
-1.467, 4.640e-5
-1.466, 4.640e-5
-1.465, 4.332e-5
-1.464, 4.332e-5
-1.463, 4.332e-5
-1.462, 4.332e-5
-1.461, 4.332e-5
-1.460, 4.024e-5
-1.459, 4.024e-5
-1.458, 4.024e-5
-1.457, 3.715e-5
-1.456, 3.715e-5
-1.455, 3.715e-5
-1.454, 3.715e-5
-1.453, 3.407e-5
-1.452, 3.407e-5
-1.451, 3.407e-5
-1.450, 3.407e-5
-1.449, 3.099e-5
-1.448, 3.099e-5
-1.447, 3.099e-5
-1.446, 3.099e-5
-1.445, 3.099e-5
-1.444, 2.790e-5
-1.443, 2.790e-5
-1.442, 2.790e-5
-1.441, 2.790e-5
-1.440, 2.790e-5
-1.439, 2.790e-5
-1.438, 2.482e-5
-1.437, 2.482e-5
-1.436, 2.482e-5
-1.435, 2.482e-5
-1.434, 2.174e-5
-1.433, 2.174e-5
-1.432, 2.174e-5
-1.431, 2.174e-5
-1.430, 2.174e-5
-1.429, 1.865e-5
-1.428, 1.865e-5
-1.427, 1.865e-5
-1.426, 1.865e-5
-1.425, 1.865e-5
-1.424, 1.865e-5
-1.423, 1.865e-5
-1.422, 1.865e-5
-1.421, 1.865e-5
-1.420, 1.557e-5
-1.419, 1.557e-5
-1.418, 1.557e-5
-1.417, 1.557e-5
-1.416, 1.249e-5
-1.415, 1.557e-5
-1.414, 1.249e-5
-1.413, 1.557e-5
-1.412, 1.249e-5
-1.411, 1.249e-5
-1.410, 1.249e-5
-1.409, 1.249e-5
-1.408, 1.249e-5
-1.407, 9.405e-6
-1.406, 9.405e-6
-1.405, 9.405e-6
-1.404, 1.249e-5
-1.403, 9.405e-6
-1.402, 9.405e-6
-1.401, 9.405e-6
-1.400, 9.405e-6
-1.399, 9.405e-6
-1.398, 9.405e-6
-1.397, 9.405e-6
-1.396, 9.405e-6
-1.395, 6.322e-6
-1.394, 6.322e-6
-1.393, 6.322e-6
-1.392, 6.322e-6
-1.391, 6.322e-6
-1.390, 6.322e-6
-1.389, 6.322e-6
-1.388, 6.322e-6
-1.387, 6.322e-6
-1.386, 6.322e-6
-1.385, 6.322e-6
-1.384, 6.322e-6
-1.383, 3.239e-6
-1.382, 3.239e-6
-1.381, 6.322e-6
-1.380, 6.322e-6
-1.379, 3.239e-6
-1.378, 3.239e-6
-1.377, 3.239e-6
-1.376, 3.239e-6
-1.375, 3.239e-6
-1.374, 3.239e-6
-1.373, 3.239e-6
-1.372, 3.239e-6
-1.371, 3.239e-6
-1.370, 1.559e-7
-1.369, 1.559e-7
-1.368, 3.239e-6
-1.367, 1.559e-7
-1.366, 1.559e-7
-1.365, 1.559e-7
-1.364, 1.559e-7
-1.363, 1.559e-7
-1.362, 1.559e-7
-1.361, 1.559e-7
-1.360, 1.559e-7
-1.359, 1.559e-7
-1.358, 1.559e-7
-1.357, 1.559e-7
-1.356, 1.559e-7
-1.355, 1.559e-7
-1.354, 1.559e-7
-1.353, 1.559e-7
-1.352, 1.559e-7
-1.351, -2.927e-6
-1.350, 1.559e-7
-1.349, 1.559e-7
-1.348, 1.559e-7
-1.347, 1.559e-7
-1.346, 1.559e-7
-1.345, -2.927e-6
-1.344, -2.927e-6
-1.343, -2.927e-6
-1.342, -2.927e-6
-1.341, -2.927e-6
-1.340, -2.927e-6
-1.339, -2.927e-6
-1.338, -2.927e-6
-1.337, -2.927e-6
-1.336, -2.927e-6
-1.335, -2.927e-6
-1.334, -2.927e-6
-1.333, -2.927e-6
-1.332, -2.927e-6
-1.331, -2.927e-6
-1.330, -2.927e-6
-1.329, -2.927e-6
-1.328, -2.927e-6
-1.327, -2.927e-6
-1.326, -2.927e-6
-1.325, -2.927e-6
-1.324, -2.927e-6
-1.323, -2.927e-6
-1.322, -2.927e-6
-1.321, -2.927e-6
-1.320, -2.927e-6
-1.319, -6.010e-6
-1.318, -2.927e-6
-1.317, -2.927e-6
-1.316, -2.927e-6
-1.315, -6.010e-6
-1.314, -2.927e-6
-1.313, -2.927e-6
-1.312, -6.010e-6
-1.311, -6.010e-6
-1.310, -6.010e-6
-1.309, -2.927e-6
-1.308, -2.927e-6
-1.307, -6.010e-6
-1.306, -6.010e-6
-1.305, -6.010e-6
-1.304, -6.010e-6
-1.303, -6.010e-6
-1.302, -6.010e-6
-1.301, -6.010e-6
-1.300, -6.010e-6
-1.299, -6.010e-6
-1.298, -6.010e-6
-1.297, -6.010e-6
-1.296, -6.010e-6
-1.295, -6.010e-6
-1.294, -6.010e-6
-1.293, -6.010e-6
-1.292, -6.010e-6
-1.291, -6.010e-6
-1.290, -6.010e-6
-1.289, -6.010e-6
-1.288, -6.010e-6
-1.287, -6.010e-6
-1.286, -6.010e-6
-1.285, -6.010e-6
-1.284, -6.010e-6
-1.283, -6.010e-6
-1.282, -6.010e-6
-1.281, -6.010e-6
-1.280, -6.010e-6
-1.279, -6.010e-6
-1.278, -6.010e-6
-1.277, -6.010e-6
-1.276, -6.010e-6
-1.275, -6.010e-6
-1.274, -6.010e-6
-1.273, -6.010e-6
-1.272, -6.010e-6
-1.271, -6.010e-6
-1.270, -6.010e-6
-1.269, -6.010e-6
-1.268, -6.010e-6
-1.267, -6.010e-6
-1.266, -6.010e-6
-1.265, -6.010e-6
-1.264, -6.010e-6
-1.263, -6.010e-6
-1.262, -6.010e-6
-1.261, -6.010e-6
-1.260, -6.010e-6
-1.259, -6.010e-6
-1.258, -6.010e-6
-1.257, -6.010e-6
-1.256, -6.010e-6
-1.255, -6.010e-6
-1.254, -6.010e-6
-1.253, -6.010e-6
-1.252, -6.010e-6
-1.251, -9.093e-6
-1.250, -6.010e-6
-1.249, -6.010e-6
-1.248, -9.093e-6
-1.247, -6.010e-6
-1.246, -6.010e-6
-1.245, -6.010e-6
-1.244, -6.010e-6
-1.243, -9.093e-6
-1.242, -6.010e-6
-1.241, -6.010e-6
-1.240, -6.010e-6
-1.239, -6.010e-6
-1.238, -6.010e-6
-1.237, -6.010e-6
-1.236, -6.010e-6
-1.235, -6.010e-6
-1.234, -6.010e-6
-1.233, -6.010e-6
-1.232, -6.010e-6
-1.231, -6.010e-6
-1.230, -6.010e-6
-1.229, -6.010e-6
-1.228, -6.010e-6
-1.227, -6.010e-6
-1.226, -6.010e-6
-1.225, -9.093e-6
-1.224, -9.093e-6
-1.223, -6.010e-6
-1.222, -6.010e-6
-1.221, -6.010e-6
-1.220, -6.010e-6
-1.219, -9.093e-6
-1.218, -9.093e-6
-1.217, -6.010e-6
-1.216, -9.093e-6
-1.215, -9.093e-6
-1.214, -9.093e-6
-1.213, -6.010e-6
-1.212, -6.010e-6
-1.211, -6.010e-6
-1.210, -9.093e-6
-1.209, -6.010e-6
-1.208, -6.010e-6
-1.207, -9.093e-6
-1.206, -9.093e-6
-1.205, -6.010e-6
-1.204, -9.093e-6
-1.203, -6.010e-6
-1.202, -6.010e-6
-1.201, -9.093e-6
-1.200, -6.010e-6
-1.199, -6.010e-6
-1.198, -9.093e-6
-1.197, -9.093e-6
-1.196, -6.010e-6
-1.195, -6.010e-6
-1.194, -6.010e-6
-1.193, -9.093e-6
-1.192, -6.010e-6
-1.191, -9.093e-6
-1.190, -9.093e-6
-1.189, -9.093e-6
-1.188, -9.093e-6
-1.187, -9.093e-6
-1.186, -9.093e-6
-1.185, -9.093e-6
-1.184, -9.093e-6
-1.183, -9.093e-6
-1.182, -6.010e-6
-1.181, -9.093e-6
-1.180, -6.010e-6
-1.179, -9.093e-6
-1.178, -6.010e-6
-1.177, -9.093e-6
-1.176, -6.010e-6
-1.175, -9.093e-6
-1.174, -9.093e-6
-1.173, -6.010e-6
-1.172, -6.010e-6
-1.171, -9.093e-6
-1.170, -9.093e-6
-1.169, -9.093e-6
-1.168, -9.093e-6
-1.167, -9.093e-6
-1.166, -9.093e-6
-1.165, -9.093e-6
-1.164, -9.093e-6
-1.163, -6.010e-6
-1.162, -9.093e-6
-1.161, -9.093e-6
-1.160, -9.093e-6
-1.159, -9.093e-6
-1.158, -9.093e-6
-1.157, -9.093e-6
-1.156, -9.093e-6
-1.155, -6.010e-6
-1.154, -9.093e-6
-1.153, -9.093e-6
-1.152, -9.093e-6
-1.151, -9.093e-6
-1.150, -9.093e-6
-1.149, -9.093e-6
-1.148, -9.093e-6
-1.147, -9.093e-6
-1.146, -9.093e-6
-1.145, -9.093e-6
-1.144, -9.093e-6
-1.143, -9.093e-6
-1.142, -9.093e-6
-1.141, -9.093e-6
-1.140, -9.093e-6
-1.139, -9.093e-6
-1.138, -9.093e-6
-1.137, -9.093e-6
-1.136, -9.093e-6
-1.135, -6.010e-6
-1.134, -9.093e-6
-1.133, -9.093e-6
-1.132, -9.093e-6
-1.131, -9.093e-6
-1.130, -9.093e-6
-1.129, -9.093e-6
-1.128, -9.093e-6
-1.127, -9.093e-6
-1.126, -9.093e-6
-1.125, -9.093e-6
-1.124, -9.093e-6
-1.123, -9.093e-6
-1.122, -9.093e-6
-1.121, -9.093e-6
-1.120, -9.093e-6
-1.119, -9.093e-6
-1.118, -9.093e-6
-1.117, -9.093e-6
-1.116, -9.093e-6
-1.115, -9.093e-6
-1.114, -9.093e-6
-1.113, -6.010e-6
-1.112, -9.093e-6
-1.111, -9.093e-6
-1.110, -9.093e-6
-1.109, -9.093e-6
-1.108, -9.093e-6
-1.107, -9.093e-6
-1.106, -9.093e-6
-1.105, -9.093e-6
-1.104, -9.093e-6
-1.103, -9.093e-6
-1.102, -9.093e-6
-1.101, -9.093e-6
-1.100, -9.093e-6
-1.099, -9.093e-6
-1.098, -9.093e-6
-1.097, -9.093e-6
-1.096, -9.093e-6
-1.095, -9.093e-6
-1.094, -9.093e-6
-1.093, -9.093e-6
-1.092, -9.093e-6
-1.091, -9.093e-6
-1.090, -9.093e-6
-1.089, -9.093e-6
-1.088, -9.093e-6
-1.087, -9.093e-6
-1.086, -9.093e-6
-1.085, -9.093e-6
-1.084, -9.093e-6
-1.083, -9.093e-6
-1.082, -9.093e-6
-1.081, -9.093e-6
-1.080, -9.093e-6
-1.079, -9.093e-6
-1.078, -9.093e-6
-1.077, -9.093e-6
-1.076, -9.093e-6
-1.075, -9.093e-6
-1.074, -9.093e-6
-1.073, -9.093e-6
-1.072, -9.093e-6
-1.071, -9.093e-6
-1.070, -9.093e-6
-1.069, -9.093e-6
-1.068, -9.093e-6
-1.067, -9.093e-6
-1.066, -9.093e-6
-1.065, -9.093e-6
-1.064, -9.093e-6
-1.063, -9.093e-6
-1.062, -9.093e-6
-1.061, -9.093e-6
-1.060, -9.093e-6
-1.059, -9.093e-6
-1.058, -9.093e-6
-1.057, -9.093e-6
-1.056, -9.093e-6
-1.055, -9.093e-6
-1.054, -9.093e-6
-1.053, -9.093e-6
-1.052, -9.093e-6
-1.051, -9.093e-6
-1.050, -9.093e-6
-1.049, -9.093e-6
-1.048, -9.093e-6
-1.047, -9.093e-6
-1.046, -9.093e-6
-1.045, -9.093e-6
-1.044, -9.093e-6
-1.043, -9.093e-6
-1.042, -9.093e-6
-1.041, -9.093e-6
-1.040, -1.218e-5
-1.039, -9.093e-6
-1.038, -9.093e-6
-1.037, -9.093e-6
-1.036, -9.093e-6
-1.035, -9.093e-6
-1.034, -1.218e-5
-1.033, -9.093e-6
-1.032, -1.218e-5
-1.031, -9.093e-6
-1.030, -9.093e-6
-1.029, -1.218e-5
-1.028, -9.093e-6
-1.027, -1.218e-5
-1.026, -9.093e-6
-1.025, -1.218e-5
-1.024, -1.218e-5
-1.023, -9.093e-6
-1.022, -9.093e-6
-1.021, -9.093e-6
-1.020, -9.093e-6
-1.019, -9.093e-6
-1.018, -9.093e-6
-1.017, -9.093e-6
-1.016, -1.218e-5
-1.015, -1.218e-5
-1.014, -1.218e-5
-1.013, -9.093e-6
-1.012, -9.093e-6
-1.011, -1.218e-5
-1.010, -1.218e-5
-1.009, -9.093e-6
-1.008, -9.093e-6
-1.007, -1.218e-5
-1.006, -1.218e-5
-1.005, -1.218e-5
-1.004, -1.218e-5
-1.003, -9.093e-6
-1.002, -1.218e-5
-1.001, -1.218e-5
