Potential V vs RHE, Current mA cm-2
0.4132999999999999,-0.01967863418112266
0.4122999999999999,-0.02157434732294181
0.4112999999999999,-0.022027054938898623
0.4102999999999999,-0.022253408746877028
0.4092999999999999,-0.02240902698986218
0.4082999999999999,-0.022578792345845984
0.4072999999999999,-0.02272026347583249
0.4062999999999999,-0.02277685192782709
0.4052999999999999,-0.022904175944814944
0.4042999999999999,-0.0230597941878001
0.4032999999999999,-0.023158823978790648
0.4022999999999999,-0.02327200088277985
0.4012999999999999,-0.023371030673770405
0.4002999999999999,-0.02345591335176231
0.3992999999999999,-0.02354079602975421
0.3982999999999999,-0.023668120046742062
0.3972999999999999,-0.023753002724733966
0.3962999999999999,-0.023809591176728567
0.3952999999999999,-0.02389447385472047
0.3942999999999999,-0.023993503645711022
0.39329999999999987,-0.024078386323702922
0.39229999999999987,-0.024163269001694826
0.39129999999999987,-0.02426229879268538
0.39029999999999987,-0.02436132858367593
0.38929999999999987,-0.024460358374666487
0.38829999999999987,-0.02453109393965974
0.38729999999999987,-0.02457353527865569
0.38629999999999987,-0.024630123730650287
0.38529999999999986,-0.02468671218264489
0.38429999999999986,-0.024729153521640842
0.38329999999999986,-0.024870624651627343
0.38229999999999986,-0.024969654442617898
0.38129999999999986,-0.025040390007611147
0.38029999999999986,-0.025210155363594954
0.37929999999999986,-0.025210155363594954
0.37829999999999986,-0.025309185154585506
0.37729999999999986,-0.025493097623567964
0.37629999999999986,-0.02547895051056931
0.37529999999999986,-0.02554968607556256
0.37429999999999986,-0.025705304318547718
0.37329999999999985,-0.025860922561532867
0.37229999999999985,-0.025832628335535568
0.37129999999999985,-0.025832628335535568
0.37029999999999985,-0.025889216787530173
0.36929999999999985,-0.025974099465522073
0.36829999999999985,-0.02612971770850723
0.36729999999999985,-0.026158011934504528
0.36629999999999985,-0.02622874749949778
0.36529999999999985,-0.026341924403486983
0.36429999999999985,-0.026356071516485634
0.36329999999999985,-0.026426807081478886
0.36229999999999984,-0.026511689759470786
0.36129999999999984,-0.02655413109846674
0.36029999999999984,-0.026639013776458643
0.35929999999999984,-0.026766337793446494
0.35829999999999984,-0.02673804356744919
0.35729999999999984,-0.026780484906445145
0.35629999999999984,-0.026851220471438397
0.35529999999999984,-0.026907808923433
0.35429999999999984,-0.027006838714423546
0.35329999999999984,-0.027105868505414105
0.35229999999999984,-0.027190751183406005
0.35129999999999983,-0.027445399217381712
0.35029999999999983,-0.02734636942639116
0.34929999999999983,-0.02738881076538711
0.34829999999999983,-0.02750198766937631
0.34729999999999983,-0.027530281895373616
0.34629999999999983,-0.027487840556377662
0.34529999999999983,-0.027544429008372267
0.34429999999999983,-0.02762931168636417
0.3432999999999998,-0.02774248859035337
0.3422999999999998,-0.02774248859035337
0.3412999999999998,-0.027799077042347967
0.3402999999999998,-0.02788395972033987
0.3392999999999998,-0.027912253946337173
0.3382999999999998,-0.027982989511330426
0.3372999999999998,-0.02811031352831828
0.3362999999999998,-0.028181049093311532
0.3352999999999998,-0.028181049093311532
0.3342999999999998,-0.028223490432307482
0.3332999999999998,-0.028308373110299385
0.3322999999999998,-0.028379108675292634
0.3312999999999998,-0.028393255788291286
0.3302999999999998,-0.028449844240285887
0.3292999999999998,-0.02852057980527914
0.3282999999999998,-0.028591315370272388
0.3272999999999998,-0.028676198048264292
0.3262999999999998,-0.028732786500258897
0.3252999999999999,-0.028817669178250797
0.3242999999999999,-0.02893084608224
0.3232999999999999,-0.028973287421235953
0.3222999999999999,-0.029044022986229205
0.3212999999999999,-0.029114758551222454
0.3202999999999999,-0.02922793545521166
0.3192999999999999,-0.029298671020204912
0.3182999999999999,-0.02939770081119546
0.3172999999999999,-0.02949673060218601
0.3162999999999999,-0.02959576039317657
0.3152999999999999,-0.029638201732172516
0.3142999999999999,-0.029652348845171168
0.3132999999999999,-0.029652348845171168
0.3122999999999999,-0.029624054619173872
0.3112999999999999,-0.02969479018416712
0.3102999999999999,-0.029765525749160374
0.3092999999999999,-0.029765525749160374
0.3082999999999999,-0.029807967088156324
0.3072999999999999,-0.029850408427152274
0.3062999999999999,-0.029906996879146875
0.3052999999999999,-0.029991879557138775
0.3042999999999999,-0.03007676223513068
0.3032999999999999,-0.030317263156107735
0.3022999999999999,-0.03040214583409964
0.3012999999999999,-0.030458734286094236
0.3002999999999999,-0.03058605830308209
0.2992999999999999,-0.030840706337057794
0.2982999999999999,-0.031067060145036202
0.2972999999999999,-0.031081207258034853
0.2962999999999999,-0.0309255890150497
0.2952999999999999,-0.03082655922405915
0.2942999999999999,-0.03085485345005645
0.2932999999999999,-0.030953883241047007
0.2922999999999999,-0.031067060145036202
0.2912999999999999,-0.031151942823028106
0.2902999999999999,-0.03123682550102001
0.2892999999999999,-0.031350002405009215
0.2882999999999999,-0.03154806198699031
0.2872999999999999,-0.031873445585959274
0.2862999999999999,-0.031873445585959274
0.2852999999999999,-0.03160465043898492
0.2842999999999999,-0.03159050332598627
0.2832999999999999,-0.03166123889097952
0.2822999999999999,-0.03171782734297412
0.2812999999999999,-0.03170368022997547
0.2802999999999999,-0.03176026868197007
0.2792999999999999,-0.031887592698957926
0.2782999999999999,-0.03194418115095252
0.2772999999999999,-0.03194418115095252
0.2762999999999999,-0.03200076960294713
0.2752999999999999,-0.031972475376949826
0.2742999999999999,-0.03209979939393768
0.2732999999999999,-0.03209979939393768
0.2722999999999999,-0.032071505167940384
0.2712999999999999,-0.03211394650693633
0.2702999999999999,-0.03224127052392419
0.2692999999999999,-0.03214224073293363
0.26829999999999987,-0.03224127052392419
0.26729999999999987,-0.032326153201916084
0.26629999999999987,-0.03226956474992148
0.26529999999999987,-0.03228371186292014
0.26429999999999987,-0.032340300314914736
0.26329999999999987,-0.03236859454091204
0.26229999999999987,-0.03241103587990799
0.26129999999999987,-0.03241103587990799
0.26029999999999986,-0.03256665412289315
0.25929999999999986,-0.0326656839138837
0.25829999999999986,-0.03287789060886345
0.25729999999999986,-0.03284959638286615
0.25629999999999986,-0.0327788608178729
0.25529999999999986,-0.0329203319478594
0.25429999999999986,-0.032976920399854
0.25329999999999986,-0.03301936173884996
0.25229999999999986,-0.033061803077845904
0.25129999999999986,-0.033090097303843206
0.25029999999999986,-0.03323156843382971
0.24929999999999986,-0.033288156885824316
0.24829999999999985,-0.03330230399882296
0.24729999999999985,-0.03337303956381622
0.24629999999999985,-0.03342962801581082
0.24529999999999985,-0.03347206935480676
0.24429999999999985,-0.03351451069380272
0.24329999999999985,-0.03352865780680137
0.24229999999999985,-0.03361354048479327
0.24129999999999985,-0.03375501161477978
0.24029999999999985,-0.033910629857764926
0.23929999999999985,-0.03405210098775143
0.23829999999999985,-0.034377484586720394
0.23729999999999984,-0.034193572117737936
0.23629999999999984,-0.03415113077874199
0.23529999999999984,-0.034179425004739285
0.23429999999999984,-0.03440577881271769
0.23329999999999984,-0.034462367264712294
0.23229999999999984,-0.034745309524685304
0.23129999999999984,-0.03481604508967855
0.23029999999999984,-0.03488678065467181
0.22929999999999984,-0.03498581044566235
0.22829999999999984,-0.035198017140642114
0.22729999999999984,-0.03542437094862052
0.22629999999999983,-0.03545266517461782
0.22529999999999983,-0.03560828341760297
0.22429999999999983,-0.03597610835556788
0.22329999999999983,-0.036032696807562485
0.22229999999999983,-0.035650724756598924
0.22129999999999983,-0.03516972291464481
0.22029999999999983,-0.03525460559263671
0.21929999999999983,-0.035381929609624566
0.21829999999999983,-0.035664871869597575
0.21729999999999983,-0.03591951990357328
0.21629999999999983,-0.035947814129570585
0.21529999999999982,-0.03587707856457733
0.21429999999999982,-0.036117579485554385
0.21329999999999982,-0.03627319772853954
0.21229999999999982,-0.03627319772853954
0.21129999999999982,-0.036230756389543595
0.21029999999999982,-0.036160020824550346
0.20929999999999982,-0.03631563906753549
0.20829999999999982,-0.03634393329353279
0.20729999999999982,-0.0366268755535058
0.20629999999999982,-0.03699470049147071
0.20529999999999982,-0.03709373028246127
0.20429999999999982,-0.03695225915247476
0.20329999999999981,-0.036867376474482856
0.2022999999999998,-0.036867376474482856
0.2012999999999998,-0.036923964926477454
0.20029999999999992,-0.03705128894346531
0.19929999999999992,-0.03713617162145721
0.19829999999999992,-0.03693811203947611
0.19729999999999992,-0.036839082248485554
0.19629999999999992,-0.03698055337847206
0.19529999999999992,-0.03707958316946261
0.19429999999999992,-0.03724934852544641
0.19329999999999992,-0.03717861296045316
0.19229999999999992,-0.03726349563844507
0.19129999999999991,-0.037305936977441015
0.1902999999999999,-0.03717861296045316
0.1892999999999999,-0.03734837831643697
0.1882999999999999,-0.037518143672420776
0.1872999999999999,-0.03763132057640997
0.1862999999999999,-0.03770205614140323
0.1852999999999999,-0.03768790902840457
0.1842999999999999,-0.037801085932393785
0.1832999999999999,-0.03781523304539243
0.1822999999999999,-0.03757473212441537
0.1812999999999999,-0.03748984944642347
0.1802999999999999,-0.03773035036740053
0.1792999999999999,-0.03773035036740053
0.1782999999999999,-0.037843527271389725
0.1772999999999999,-0.03792840994938163
0.1762999999999999,-0.03798499840137624
0.1752999999999999,-0.037956704175378934
0.1742999999999999,-0.038041586853370835
0.1732999999999999,-0.038126469531362735
0.1722999999999999,-0.03826794066134924
0.1712999999999999,-0.038239646435351944
0.1702999999999999,-0.03799914551437489
0.1692999999999999,-0.038112322418364084
0.1682999999999999,-0.038112322418364084
0.1672999999999999,-0.03814061664436139
0.1662999999999999,-0.03814061664436139
0.1652999999999999,-0.03826794066134924
0.1642999999999999,-0.03832452911334384
0.1632999999999999,-0.038409411791335744
0.1622999999999999,-0.038494294469327645
0.1612999999999999,-0.03860747137331685
0.1602999999999999,-0.0386782069383101
0.1592999999999999,-0.03874894250330335
0.15829999999999989,-0.03887626652029121
0.15729999999999988,-0.039046031876275006
0.15629999999999988,-0.03922994434525747
0.15529999999999988,-0.03966850484821563
0.15429999999999988,-0.03976753463920618
0.15329999999999988,-0.03948459237923317
0.15229999999999988,-0.03930067991025072
0.15129999999999988,-0.03941385681423992
0.15029999999999988,-0.039795828865203484
0.14929999999999988,-0.039909005769192686
0.14829999999999988,-0.039965594221187284
0.14729999999999988,-0.04003632978618053
0.14629999999999987,-0.03992315288219133
0.14529999999999987,-0.03980997597820213
0.14429999999999987,-0.039824123091200786
0.14329999999999987,-0.04017780091616704
0.14229999999999987,-0.040361713385149496
0.14129999999999987,-0.0406163614191252
0.14029999999999987,-0.04084271522710361
0.13929999999999987,-0.04091345079209686
0.13829999999999987,-0.04084271522710361
0.13729999999999987,-0.041012480583087416
0.13629999999999987,-0.04111151037407796
0.13529999999999986,-0.04111151037407796
0.13429999999999986,-0.04104077480908471
0.13329999999999986,-0.04119639305206987
0.13229999999999986,-0.041748130459017235
0.13129999999999986,-0.04115395171307392
0.13029999999999986,-0.04082856811410496
0.12929999999999986,-0.04097003924409146
0.12829999999999986,-0.04105492192208336
0.12729999999999986,-0.04122468727806717
0.12629999999999986,-0.04135201129505502
0.12529999999999986,-0.04133786418205637
0.12429999999999986,-0.041550070877036126
0.12329999999999985,-0.04179057179801319
0.12229999999999985,-0.041620806442029375
0.12129999999999985,-0.04183301313700913
0.12029999999999985,-0.04225742652696864
0.11929999999999985,-0.042016925605991594
0.11829999999999985,-0.041917895815001036
0.11729999999999985,-0.042016925605991594
0.11629999999999985,-0.04188960158900373
0.11529999999999985,-0.04196033715399699
0.11429999999999985,-0.042002778492992936
0.11329999999999985,-0.04194619004099834
0.11229999999999984,-0.04217254384897674
0.11129999999999984,-0.04234230920496055
0.11029999999999984,-0.04232816209196189
0.10929999999999984,-0.04228572075296595
0.10829999999999984,-0.04225742652696864
0.10729999999999984,-0.042130102509980796
0.10629999999999984,-0.042299867865964604
0.10529999999999984,-0.0423847505439565
0.10429999999999984,-0.0423847505439565
0.10329999999999984,-0.04248378033494705
0.10229999999999984,-0.04271013414292545
0.10129999999999983,-0.04275257548192141
0.10029999999999983,-0.04269598702992681
0.09929999999999983,-0.04271013414292545
0.09829999999999983,-0.043120400419886316
0.09729999999999983,-0.043205283097878217
0.09629999999999983,-0.04331846000186742
0.09529999999999983,-0.04327601866287147
0.09429999999999983,-0.043205283097878217
0.09329999999999983,-0.043092106193889014
0.09229999999999983,-0.04307795908089037
0.09129999999999983,-0.043106253306887665
0.09029999999999982,-0.04307795908089037
0.08929999999999982,-0.04313454753288497
0.08829999999999982,-0.043191135984879565
0.08729999999999982,-0.04331846000186742
0.08629999999999982,-0.043459931131853924
0.08529999999999982,-0.04341748979285798
0.08429999999999982,-0.04361554937483908
0.08329999999999982,-0.04392678586080939
0.08229999999999982,-0.04395508008680669
0.08129999999999982,-0.043912638747810734
0.08029999999999982,-0.043912638747810734
0.07929999999999982,-0.04394093297380804
0.07829999999999981,-0.04418143389478509
0.07729999999999981,-0.044591700171745956
0.07629999999999981,-0.04470487707573516
0.07529999999999992,-0.044945377996712214
0.07429999999999992,-0.04453511171975136
0.07329999999999992,-0.044662435736739205
0.07229999999999992,-0.04474731841473111
0.07129999999999992,-0.045327350047675775
0.07029999999999992,-0.04599226435861234
0.06929999999999992,-0.04521417314368657
0.06829999999999992,-0.04529905582167848
0.06729999999999992,-0.04580835188962989
0.06629999999999991,-0.04541223272566768
0.06529999999999991,-0.045143437578693324
0.06429999999999991,-0.04518587891768927
0.06329999999999991,-0.04515758469169197
0.06229999999999991,-0.045030260674704115
0.06129999999999991,-0.04515758469169197
0.06029999999999991,-0.04520002603068792
0.05929999999999991,-0.045242467369683875
0.05829999999999991,-0.04520002603068792
0.05729999999999991,-0.04522832025668522
0.056299999999999906,-0.04535564427367308
0.055299999999999905,-0.045511262516658234
0.054299999999999904,-0.04546882117766228
0.0532999999999999,-0.04549711540365958
0.0522999999999999,-0.045624439420647436
0.0512999999999999,-0.045893234567621795
0.0502999999999999,-0.046317647957581295
0.0492999999999999,-0.045893234567621795
0.0482999999999999,-0.04586494034162449
0.0472999999999999,-0.04593567590661774
0.0462999999999999,-0.04578005766363259
0.045299999999999896,-0.04582249900262853
0.044299999999999895,-0.046614737330552956
0.043299999999999894,-0.04736453431948143
0.04229999999999989,-0.04718062185049897
0.04129999999999989,-0.04766162369245308
0.04029999999999989,-0.048439714907378854
0.03929999999999989,-0.04835483222938696
0.03829999999999989,-0.04801530151741934
0.03729999999999989,-0.047166474737500325
0.03629999999999989,-0.046968415155519215
0.03529999999999989,-0.04692597381652327
0.034299999999999886,-0.047237210302493574
0.033299999999999885,-0.04743526988447468
0.032299999999999884,-0.04747771122347064
0.031299999999999883,-0.04736453431948143
0.030299999999999883,-0.047633329466455786
0.02929999999999988,-0.04788797750043149
0.02829999999999988,-0.04801530151741934
0.02729999999999988,-0.04767577080545173
0.02629999999999988,-0.04795871306542474
0.025299999999999878,-0.047520152562466576
0.024299999999999877,-0.04795871306542474
0.023299999999999876,-0.04849630335937346
0.022299999999999875,-0.04856703892436671
0.021299999999999875,-0.048368979342385605
0.020299999999999874,-0.04835483222938696
0.019299999999999873,-0.0481143313084099
0.018299999999999872,-0.048269949551395054
0.01729999999999987,-0.0481426255344072
0.01629999999999987,-0.04801530151741934
0.01529999999999987,-0.0481143313084099
0.014299999999999868,-0.048227508212399094
0.013299999999999867,-0.0483406851163883
0.012299999999999978,-0.048284096664393705
0.011299999999999866,-0.048368979342385605
0.010299999999999976,-0.048637774489359964
0.009299999999999864,-0.04896315808832892
0.008299999999999974,-0.04934513013929248
0.007299999999999862,-0.04938757147828843
0.006299999999999972,-0.04935927725229113
0.00529999999999986,-0.049260247461300574
0.0042999999999999705,-0.049260247461300574
0.0032999999999998586,-0.04933098302629382
0.0022999999999999687,-0.04924610034830192
0.0012999999999998568,-0.04931683591329518
0.00029999999999996696,-0.049458307043281684
-0.000700000000000145,-0.049472454156280335
-0.0017000000000000348,-0.04937342436528978
-0.0027000000000001467,-0.04924610034830192
-0.0037000000000000366,-0.04931683591329518
-0.0047000000000001485,-0.04964221951226414
-0.005700000000000038,-0.0501373684672169
-0.00670000000000015,-0.04989686754623984
-0.00770000000000004,-0.0498827204332412
-0.008700000000000152,-0.04995345599823445
-0.009700000000000042,-0.04995345599823445
-0.010700000000000154,-0.050052485789225
-0.011700000000000044,-0.0501090742412196
-0.012700000000000156,-0.050363722275195304
-0.013700000000000045,-0.050476899179184506
-0.014700000000000157,-0.05023639825820745
-0.015700000000000047,-0.0502222511452088
-0.01670000000000016,-0.0503071338232007
-0.01770000000000005,-0.050476899179184506
-0.01870000000000016,-0.050590076083173716
-0.01970000000000005,-0.050533487631179104
-0.020700000000000163,-0.05063251742216966
-0.021700000000000053,-0.05061837030917101
-0.022700000000000164,-0.05075984143915752
-0.023700000000000054,-0.05077398855215617
-0.024700000000000166,-0.05078813566515482
-0.025700000000000056,-0.05085887123014807
-0.026700000000000168,-0.05087301834314672
-0.027700000000000058,-0.05095790102113862
-0.02870000000000017,-0.05107107792512782
-0.02970000000000006,-0.051042783699130526
-0.03070000000000017,-0.05094375390813997
-0.03170000000000006,-0.051028636586131874
-0.03270000000000017,-0.05132572595910353
-0.03370000000000006,-0.05115596060311973
-0.034700000000000175,-0.051113519264123775
-0.035700000000000065,-0.05115596060311973
-0.03670000000000018,-0.05122669616811298
-0.03770000000000007,-0.05133987307210218
-0.03870000000000018,-0.051311578846104884
-0.03970000000000007,-0.05135402018510083
-0.04070000000000018,-0.05136816729809948
-0.04170000000000007,-0.051481344202088684
-0.04270000000000018,-0.051566226880080585
-0.04370000000000007,-0.051721845123065734
-0.044700000000000184,-0.0521038171740293
-0.045700000000000074,-0.0521604056260239
-0.046700000000000186,-0.0520189344960374
-0.047700000000000076,-0.05197649315704145
-0.04870000000000019,-0.0520189344960374
-0.04970000000000008,-0.05208967006103065
-0.05070000000000019,-0.052132111400026604
-0.05170000000000008,-0.05214625851302525
-0.05270000000000019,-0.05214625851302525
-0.05370000000000008,-0.05272629014596992
-0.05470000000000019,-0.052782878597964523
-0.05570000000000008,-0.052613113241980716
-0.056700000000000195,-0.052966791066946975
-0.057700000000000085,-0.052896055501953726
-0.058700000000000196,-0.05271214303297127
-0.059700000000000086,-0.05275458437196722
-0.0607000000000002,-0.05285361416295777
-0.06170000000000009,-0.05312240930993213
-0.0627000000000002,-0.053235586213921327
-0.06370000000000009,-0.05324973332691998
-0.0647000000000002,-0.053405351569905134
-0.06570000000000009,-0.05346194002189974
-0.0667000000000002,-0.05324973332691998
-0.0677000000000001,-0.053419498682903785
