Apr. 21, 2025   12:31:20
Linear Sweep Voltammetry
File: c:/users/guazh/data/banditlqround7_x0exp590_r20/2025-04-16-exp1146\1acid_3ac-2025-04-21t12_28_06-lsvinphos\1acid_3ac_lsv_50mvs_efin_-2300mv.bin
Data Source:  Experiment
Instrument Model:  CHI760E
Header: LSV ran at 50 mVs with Efin at -2300mV
Note: 

Init E (V) = -0.6
Final E (V) = -2.3
Scan Rate (V/s) = 0.05
Sample Interval (V) = 0.001
Quiet Time (sec) = 2
Sensitivity (A/V) = 1e-4
Comp R (ohm) = 9.2

Results:

Channel 1:
Ep = -1.675V
ip = 7.358e-4A
Ah = 9.909e-4C

Potential/V, Current/A

-0.600, 1.747e-5
-0.601, 1.766e-5
-0.602, 1.774e-5
-0.603, 1.779e-5
-0.604, 1.782e-5
-0.605, 1.781e-5
-0.606, 1.781e-5
-0.607, 1.782e-5
-0.608, 1.787e-5
-0.609, 1.791e-5
-0.610, 1.790e-5
-0.611, 1.790e-5
-0.612, 1.792e-5
-0.613, 1.800e-5
-0.614, 1.800e-5
-0.615, 1.797e-5
-0.616, 1.795e-5
-0.617, 1.796e-5
-0.618, 1.799e-5
-0.619, 1.801e-5
-0.620, 1.800e-5
-0.621, 1.798e-5
-0.622, 1.799e-5
-0.623, 1.803e-5
-0.624, 1.806e-5
-0.625, 1.804e-5
-0.626, 1.803e-5
-0.627, 1.805e-5
-0.628, 1.808e-5
-0.629, 1.808e-5
-0.630, 1.806e-5
-0.631, 1.805e-5
-0.632, 1.806e-5
-0.633, 1.808e-5
-0.634, 1.808e-5
-0.635, 1.807e-5
-0.636, 1.805e-5
-0.637, 1.805e-5
-0.638, 1.808e-5
-0.639, 1.810e-5
-0.640, 1.809e-5
-0.641, 1.808e-5
-0.642, 1.809e-5
-0.643, 1.811e-5
-0.644, 1.813e-5
-0.645, 1.815e-5
-0.646, 1.814e-5
-0.647, 1.814e-5
-0.648, 1.815e-5
-0.649, 1.816e-5
-0.650, 1.814e-5
-0.651, 1.812e-5
-0.652, 1.815e-5
-0.653, 1.818e-5
-0.654, 1.819e-5
-0.655, 1.816e-5
-0.656, 1.813e-5
-0.657, 1.816e-5
-0.658, 1.821e-5
-0.659, 1.821e-5
-0.660, 1.818e-5
-0.661, 1.814e-5
-0.662, 1.816e-5
-0.663, 1.817e-5
-0.664, 1.818e-5
-0.665, 1.816e-5
-0.666, 1.815e-5
-0.667, 1.815e-5
-0.668, 1.817e-5
-0.669, 1.817e-5
-0.670, 1.814e-5
-0.671, 1.812e-5
-0.672, 1.814e-5
-0.673, 1.816e-5
-0.674, 1.817e-5
-0.675, 1.814e-5
-0.676, 1.812e-5
-0.677, 1.813e-5
-0.678, 1.815e-5
-0.679, 1.815e-5
-0.680, 1.812e-5
-0.681, 1.810e-5
-0.682, 1.811e-5
-0.683, 1.812e-5
-0.684, 1.812e-5
-0.685, 1.809e-5
-0.686, 1.808e-5
-0.687, 1.809e-5
-0.688, 1.811e-5
-0.689, 1.812e-5
-0.690, 1.809e-5
-0.691, 1.807e-5
-0.692, 1.807e-5
-0.693, 1.810e-5
-0.694, 1.810e-5
-0.695, 1.808e-5
-0.696, 1.806e-5
-0.697, 1.806e-5
-0.698, 1.809e-5
-0.699, 1.808e-5
-0.700, 1.806e-5
-0.701, 1.804e-5
-0.702, 1.804e-5
-0.703, 1.807e-5
-0.704, 1.807e-5
-0.705, 1.804e-5
-0.706, 1.802e-5
-0.707, 1.802e-5
-0.708, 1.804e-5
-0.709, 1.805e-5
-0.710, 1.803e-5
-0.711, 1.800e-5
-0.712, 1.801e-5
-0.713, 1.802e-5
-0.714, 1.802e-5
-0.715, 1.801e-5
-0.716, 1.798e-5
-0.717, 1.799e-5
-0.718, 1.801e-5
-0.719, 1.800e-5
-0.720, 1.797e-5
-0.721, 1.795e-5
-0.722, 1.795e-5
-0.723, 1.797e-5
-0.724, 1.798e-5
-0.725, 1.795e-5
-0.726, 1.792e-5
-0.727, 1.792e-5
-0.728, 1.794e-5
-0.729, 1.794e-5
-0.730, 1.792e-5
-0.731, 1.790e-5
-0.732, 1.793e-5
-0.733, 1.796e-5
-0.734, 1.794e-5
-0.735, 1.789e-5
-0.736, 1.787e-5
-0.737, 1.788e-5
-0.738, 1.789e-5
-0.739, 1.789e-5
-0.740, 1.786e-5
-0.741, 1.784e-5
-0.742, 1.785e-5
-0.743, 1.788e-5
-0.744, 1.787e-5
-0.745, 1.784e-5
-0.746, 1.782e-5
-0.747, 1.783e-5
-0.748, 1.785e-5
-0.749, 1.784e-5
-0.750, 1.781e-5
-0.751, 1.778e-5
-0.752, 1.778e-5
-0.753, 1.780e-5
-0.754, 1.781e-5
-0.755, 1.779e-5
-0.756, 1.776e-5
-0.757, 1.777e-5
-0.758, 1.779e-5
-0.759, 1.780e-5
-0.760, 1.778e-5
-0.761, 1.777e-5
-0.762, 1.777e-5
-0.763, 1.779e-5
-0.764, 1.779e-5
-0.765, 1.776e-5
-0.766, 1.775e-5
-0.767, 1.777e-5
-0.768, 1.777e-5
-0.769, 1.777e-5
-0.770, 1.774e-5
-0.771, 1.770e-5
-0.772, 1.769e-5
-0.773, 1.772e-5
-0.774, 1.773e-5
-0.775, 1.771e-5
-0.776, 1.768e-5
-0.777, 1.768e-5
-0.778, 1.770e-5
-0.779, 1.768e-5
-0.780, 1.760e-5
-0.781, 1.758e-5
-0.782, 1.762e-5
-0.783, 1.764e-5
-0.784, 1.764e-5
-0.785, 1.763e-5
-0.786, 1.759e-5
-0.787, 1.758e-5
-0.788, 1.760e-5
-0.789, 1.760e-5
-0.790, 1.755e-5
-0.791, 1.751e-5
-0.792, 1.752e-5
-0.793, 1.755e-5
-0.794, 1.755e-5
-0.795, 1.752e-5
-0.796, 1.748e-5
-0.797, 1.749e-5
-0.798, 1.750e-5
-0.799, 1.751e-5
-0.800, 1.746e-5
-0.801, 1.744e-5
-0.802, 1.745e-5
-0.803, 1.747e-5
-0.804, 1.748e-5
-0.805, 1.745e-5
-0.806, 1.740e-5
-0.807, 1.740e-5
-0.808, 1.743e-5
-0.809, 1.743e-5
-0.810, 1.742e-5
-0.811, 1.740e-5
-0.812, 1.740e-5
-0.813, 1.741e-5
-0.814, 1.741e-5
-0.815, 1.739e-5
-0.816, 1.735e-5
-0.817, 1.736e-5
-0.818, 1.737e-5
-0.819, 1.738e-5
-0.820, 1.736e-5
-0.821, 1.732e-5
-0.822, 1.733e-5
-0.823, 1.734e-5
-0.824, 1.733e-5
-0.825, 1.730e-5
-0.826, 1.727e-5
-0.827, 1.727e-5
-0.828, 1.728e-5
-0.829, 1.727e-5
-0.830, 1.723e-5
-0.831, 1.721e-5
-0.832, 1.721e-5
-0.833, 1.724e-5
-0.834, 1.723e-5
-0.835, 1.721e-5
-0.836, 1.718e-5
-0.837, 1.718e-5
-0.838, 1.717e-5
-0.839, 1.718e-5
-0.840, 1.716e-5
-0.841, 1.713e-5
-0.842, 1.714e-5
-0.843, 1.717e-5
-0.844, 1.718e-5
-0.845, 1.715e-5
-0.846, 1.712e-5
-0.847, 1.713e-5
-0.848, 1.714e-5
-0.849, 1.714e-5
-0.850, 1.711e-5
-0.851, 1.709e-5
-0.852, 1.708e-5
-0.853, 1.710e-5
-0.854, 1.718e-5
-0.855, 1.709e-5
-0.856, 1.704e-5
-0.857, 1.705e-5
-0.858, 1.706e-5
-0.859, 1.706e-5
-0.860, 1.704e-5
-0.861, 1.698e-5
-0.862, 1.697e-5
-0.863, 1.701e-5
-0.864, 1.702e-5
-0.865, 1.698e-5
-0.866, 1.695e-5
-0.867, 1.697e-5
-0.868, 1.700e-5
-0.869, 1.700e-5
-0.870, 1.697e-5
-0.871, 1.696e-5
-0.872, 1.697e-5
-0.873, 1.701e-5
-0.874, 1.700e-5
-0.875, 1.697e-5
-0.876, 1.696e-5
-0.877, 1.696e-5
-0.878, 1.697e-5
-0.879, 1.697e-5
-0.880, 1.695e-5
-0.881, 1.693e-5
-0.882, 1.695e-5
-0.883, 1.699e-5
-0.884, 1.700e-5
-0.885, 1.698e-5
-0.886, 1.697e-5
-0.887, 1.698e-5
-0.888, 1.699e-5
-0.889, 1.699e-5
-0.890, 1.698e-5
-0.891, 1.698e-5
-0.892, 1.699e-5
-0.893, 1.701e-5
-0.894, 1.702e-5
-0.895, 1.701e-5
-0.896, 1.701e-5
-0.897, 1.703e-5
-0.898, 1.706e-5
-0.899, 1.706e-5
-0.900, 1.705e-5
-0.901, 1.705e-5
-0.902, 1.707e-5
-0.903, 1.711e-5
-0.904, 1.729e-5
-0.905, 1.743e-5
-0.906, 1.738e-5
-0.907, 1.740e-5
-0.908, 1.744e-5
-0.909, 1.744e-5
-0.910, 1.744e-5
-0.911, 1.742e-5
-0.912, 1.744e-5
-0.913, 1.749e-5
-0.914, 1.750e-5
-0.915, 1.749e-5
-0.916, 1.752e-5
-0.917, 1.757e-5
-0.918, 1.760e-5
-0.919, 1.760e-5
-0.920, 1.759e-5
-0.921, 1.762e-5
-0.922, 1.767e-5
-0.923, 1.770e-5
-0.924, 1.773e-5
-0.925, 1.773e-5
-0.926, 1.774e-5
-0.927, 1.778e-5
-0.928, 1.782e-5
-0.929, 1.785e-5
-0.930, 1.783e-5
-0.931, 1.786e-5
-0.932, 1.793e-5
-0.933, 1.798e-5
-0.934, 1.802e-5
-0.935, 1.801e-5
-0.936, 1.803e-5
-0.937, 1.807e-5
-0.938, 1.812e-5
-0.939, 1.814e-5
-0.940, 1.815e-5
-0.941, 1.816e-5
-0.942, 1.821e-5
-0.943, 1.826e-5
-0.944, 1.829e-5
-0.945, 1.831e-5
-0.946, 1.835e-5
-0.947, 1.842e-5
-0.948, 1.848e-5
-0.949, 1.854e-5
-0.950, 1.858e-5
-0.951, 1.858e-5
-0.952, 1.860e-5
-0.953, 1.864e-5
-0.954, 1.866e-5
-0.955, 1.867e-5
-0.956, 1.869e-5
-0.957, 1.874e-5
-0.958, 1.883e-5
-0.959, 1.885e-5
-0.960, 1.888e-5
-0.961, 1.892e-5
-0.962, 1.899e-5
-0.963, 1.907e-5
-0.964, 1.912e-5
-0.965, 1.916e-5
-0.966, 1.921e-5
-0.967, 1.927e-5
-0.968, 1.932e-5
-0.969, 1.938e-5
-0.970, 1.938e-5
-0.971, 1.943e-5
-0.972, 1.953e-5
-0.973, 1.961e-5
-0.974, 1.972e-5
-0.975, 1.973e-5
-0.976, 1.974e-5
-0.977, 1.982e-5
-0.978, 1.986e-5
-0.979, 1.992e-5
-0.980, 1.993e-5
-0.981, 1.993e-5
-0.982, 1.998e-5
-0.983, 2.012e-5
-0.984, 2.015e-5
-0.985, 2.015e-5
-0.986, 2.015e-5
-0.987, 2.020e-5
-0.988, 2.026e-5
-0.989, 2.033e-5
-0.990, 2.039e-5
-0.991, 2.041e-5
-0.992, 2.047e-5
-0.993, 2.056e-5
-0.994, 2.071e-5
-0.995, 2.075e-5
-0.996, 2.073e-5
-0.997, 2.075e-5
-0.998, 2.084e-5
-0.999, 2.090e-5
-1.000, 2.093e-5
-1.001, 2.098e-5
-1.002, 2.107e-5
-1.003, 2.113e-5
-1.004, 2.119e-5
-1.005, 2.122e-5
-1.006, 2.126e-5
-1.007, 2.133e-5
-1.008, 2.143e-5
-1.009, 2.149e-5
-1.010, 2.150e-5
-1.011, 2.145e-5
-1.012, 2.148e-5
-1.013, 2.157e-5
-1.014, 2.165e-5
-1.015, 2.169e-5
-1.016, 2.173e-5
-1.017, 2.179e-5
-1.018, 2.189e-5
-1.019, 2.196e-5
-1.020, 2.200e-5
-1.021, 2.206e-5
-1.022, 2.220e-5
-1.023, 2.230e-5
-1.024, 2.239e-5
-1.025, 2.246e-5
-1.026, 2.255e-5
-1.027, 2.268e-5
-1.028, 2.285e-5
-1.029, 2.298e-5
-1.030, 2.309e-5
-1.031, 2.320e-5
-1.032, 2.330e-5
-1.033, 2.344e-5
-1.034, 2.359e-5
-1.035, 2.367e-5
-1.036, 2.377e-5
-1.037, 2.395e-5
-1.038, 2.413e-5
-1.039, 2.426e-5
-1.040, 2.433e-5
-1.041, 2.442e-5
-1.042, 2.453e-5
-1.043, 2.467e-5
-1.044, 2.478e-5
-1.045, 2.484e-5
-1.046, 2.496e-5
-1.047, 2.510e-5
-1.048, 2.527e-5
-1.049, 2.538e-5
-1.050, 2.550e-5
-1.051, 2.566e-5
-1.052, 2.580e-5
-1.053, 2.594e-5
-1.054, 2.604e-5
-1.055, 2.613e-5
-1.056, 2.630e-5
-1.057, 2.655e-5
-1.058, 2.692e-5
-1.059, 2.701e-5
-1.060, 2.710e-5
-1.061, 2.721e-5
-1.062, 2.738e-5
-1.063, 2.753e-5
-1.064, 2.773e-5
-1.065, 2.794e-5
-1.066, 2.814e-5
-1.067, 2.829e-5
-1.068, 2.844e-5
-1.069, 2.858e-5
-1.070, 2.872e-5
-1.071, 2.886e-5
-1.072, 2.904e-5
-1.073, 2.921e-5
-1.074, 2.942e-5
-1.075, 2.955e-5
-1.076, 2.966e-5
-1.077, 2.977e-5
-1.078, 2.992e-5
-1.079, 3.006e-5
-1.080, 3.016e-5
-1.081, 3.032e-5
-1.082, 3.047e-5
-1.083, 3.065e-5
-1.084, 3.084e-5
-1.085, 3.108e-5
-1.086, 3.063e-5
-1.087, 3.067e-5
-1.088, 3.116e-5
-1.089, 3.155e-5
-1.090, 3.191e-5
-1.091, 3.224e-5
-1.092, 3.257e-5
-1.093, 3.290e-5
-1.094, 3.311e-5
-1.095, 3.342e-5
-1.096, 3.366e-5
-1.097, 3.384e-5
-1.098, 3.400e-5
-1.099, 3.416e-5
-1.100, 3.440e-5
-1.101, 3.472e-5
-1.102, 3.496e-5
-1.103, 3.525e-5
-1.104, 3.549e-5
-1.105, 3.570e-5
-1.106, 3.588e-5
-1.107, 3.618e-5
-1.108, 3.642e-5
-1.109, 3.670e-5
-1.110, 3.698e-5
-1.111, 3.730e-5
-1.112, 3.748e-5
-1.113, 3.771e-5
-1.114, 3.788e-5
-1.115, 3.812e-5
-1.116, 3.835e-5
-1.117, 3.861e-5
-1.118, 3.882e-5
-1.119, 3.903e-5
-1.120, 3.927e-5
-1.121, 3.960e-5
-1.122, 3.991e-5
-1.123, 4.022e-5
-1.124, 4.043e-5
-1.125, 4.059e-5
-1.126, 4.077e-5
-1.127, 4.106e-5
-1.128, 4.138e-5
-1.129, 4.171e-5
-1.130, 4.191e-5
-1.131, 4.215e-5
-1.132, 4.243e-5
-1.133, 4.258e-5
-1.134, 4.279e-5
-1.135, 4.292e-5
-1.136, 4.317e-5
-1.137, 4.391e-5
-1.138, 4.426e-5
-1.139, 4.445e-5
-1.140, 4.460e-5
-1.141, 4.480e-5
-1.142, 4.521e-5
-1.143, 4.553e-5
-1.144, 4.567e-5
-1.145, 4.581e-5
-1.146, 4.601e-5
-1.147, 4.624e-5
-1.148, 4.646e-5
-1.149, 4.666e-5
-1.150, 4.674e-5
-1.151, 4.682e-5
-1.152, 4.704e-5
-1.153, 4.727e-5
-1.154, 4.748e-5
-1.155, 4.769e-5
-1.156, 4.786e-5
-1.157, 4.808e-5
-1.158, 4.834e-5
-1.159, 4.855e-5
-1.160, 4.872e-5
-1.161, 4.887e-5
-1.162, 4.911e-5
-1.163, 4.933e-5
-1.164, 4.952e-5
-1.165, 4.970e-5
-1.166, 4.981e-5
-1.167, 5.003e-5
-1.168, 5.027e-5
-1.169, 5.050e-5
-1.170, 5.082e-5
-1.171, 5.109e-5
-1.172, 5.131e-5
-1.173, 5.154e-5
-1.174, 5.177e-5
-1.175, 5.199e-5
-1.176, 5.220e-5
-1.177, 5.243e-5
-1.178, 5.273e-5
-1.179, 5.302e-5
-1.180, 5.322e-5
-1.181, 5.346e-5
-1.182, 5.374e-5
-1.183, 5.401e-5
-1.184, 5.418e-5
-1.185, 5.435e-5
-1.186, 5.456e-5
-1.187, 5.476e-5
-1.188, 5.496e-5
-1.189, 5.514e-5
-1.190, 5.539e-5
-1.191, 5.574e-5
-1.192, 5.606e-5
-1.193, 5.647e-5
-1.194, 5.685e-5
-1.195, 5.736e-5
-1.196, 5.792e-5
-1.197, 5.861e-5
-1.198, 5.905e-5
-1.199, 5.943e-5
-1.200, 5.975e-5
-1.201, 6.011e-5
-1.202, 6.047e-5
-1.203, 6.081e-5
-1.204, 6.114e-5
-1.205, 6.138e-5
-1.206, 6.177e-5
-1.207, 6.213e-5
-1.208, 6.248e-5
-1.209, 6.273e-5
-1.210, 6.298e-5
-1.211, 6.331e-5
-1.212, 6.366e-5
-1.213, 6.404e-5
-1.214, 6.448e-5
-1.215, 6.504e-5
-1.216, 6.551e-5
-1.217, 6.595e-5
-1.218, 6.637e-5
-1.219, 6.675e-5
-1.220, 6.714e-5
-1.221, 6.762e-5
-1.222, 6.808e-5
-1.223, 6.850e-5
-1.224, 6.884e-5
-1.225, 6.915e-5
-1.226, 6.949e-5
-1.227, 7.003e-5
-1.228, 7.049e-5
-1.229, 7.087e-5
-1.230, 7.123e-5
-1.231, 7.171e-5
-1.232, 7.212e-5
-1.233, 7.249e-5
-1.234, 7.281e-5
-1.235, 7.317e-5
-1.236, 7.356e-5
-1.237, 7.410e-5
-1.238, 7.494e-5
-1.239, 7.530e-5
-1.240, 7.570e-5
-1.241, 7.608e-5
-1.242, 7.640e-5
-1.243, 7.683e-5
-1.244, 7.717e-5
-1.245, 7.752e-5
-1.246, 7.791e-5
-1.247, 7.836e-5
-1.248, 7.876e-5
-1.249, 7.918e-5
-1.250, 7.956e-5
-1.251, 7.994e-5
-1.252, 8.038e-5
-1.253, 8.084e-5
-1.254, 8.121e-5
-1.255, 8.161e-5
-1.256, 8.217e-5
-1.257, 8.264e-5
-1.258, 8.309e-5
-1.259, 8.358e-5
-1.260, 8.412e-5
-1.261, 8.457e-5
-1.262, 8.504e-5
-1.263, 8.544e-5
-1.264, 8.588e-5
-1.265, 8.632e-5
-1.266, 8.680e-5
-1.267, 8.727e-5
-1.268, 8.771e-5
-1.269, 8.817e-5
-1.270, 8.862e-5
-1.271, 8.900e-5
-1.272, 8.939e-5
-1.273, 8.982e-5
-1.274, 9.022e-5
-1.275, 9.063e-5
-1.276, 9.102e-5
-1.277, 9.145e-5
-1.278, 9.190e-5
-1.279, 9.227e-5
-1.280, 9.259e-5
-1.281, 9.299e-5
-1.282, 9.341e-5
-1.283, 9.380e-5
-1.284, 9.418e-5
-1.285, 9.458e-5
-1.286, 9.507e-5
-1.287, 9.533e-5
-1.288, 9.567e-5
-1.289, 9.601e-5
-1.290, 9.633e-5
-1.291, 9.671e-5
-1.292, 9.772e-5
-1.293, 9.915e-5
-1.294, 9.930e-5
-1.295, 9.920e-5
-1.296, 9.931e-5
-1.297, 9.962e-5
-1.298, 1.000e-4
-1.299, 1.003e-4
-1.300, 1.007e-4
-1.301, 1.011e-4
-1.302, 1.015e-4
-1.303, 1.020e-4
-1.304, 1.024e-4
-1.305, 1.028e-4
-1.306, 1.032e-4
-1.307, 1.037e-4
-1.308, 1.041e-4
-1.309, 1.044e-4
-1.310, 1.048e-4
-1.311, 1.053e-4
-1.312, 1.056e-4
-1.313, 1.059e-4
-1.314, 1.062e-4
-1.315, 1.066e-4
-1.316, 1.069e-4
-1.317, 1.072e-4
-1.318, 1.079e-4
-1.319, 1.086e-4
-1.320, 1.090e-4
-1.321, 1.092e-4
-1.322, 1.095e-4
-1.323, 1.098e-4
-1.324, 1.102e-4
-1.325, 1.104e-4
-1.326, 1.107e-4
-1.327, 1.110e-4
-1.328, 1.113e-4
-1.329, 1.116e-4
-1.330, 1.119e-4
-1.331, 1.121e-4
-1.332, 1.124e-4
-1.333, 1.128e-4
-1.334, 1.131e-4
-1.335, 1.137e-4
-1.336, 1.141e-4
-1.337, 1.144e-4
-1.338, 1.147e-4
-1.339, 1.151e-4
-1.340, 1.155e-4
-1.341, 1.158e-4
-1.342, 1.162e-4
-1.343, 1.166e-4
-1.344, 1.169e-4
-1.345, 1.175e-4
-1.346, 1.180e-4
-1.347, 1.184e-4
-1.348, 1.187e-4
-1.349, 1.190e-4
-1.350, 1.194e-4
-1.351, 1.197e-4
-1.352, 1.201e-4
-1.353, 1.204e-4
-1.354, 1.208e-4
-1.355, 1.211e-4
-1.356, 1.216e-4
-1.357, 1.219e-4
-1.358, 1.223e-4
-1.359, 1.226e-4
-1.360, 1.229e-4
-1.361, 1.233e-4
-1.362, 1.237e-4
-1.363, 1.240e-4
-1.364, 1.243e-4
-1.365, 1.245e-4
-1.366, 1.248e-4
-1.367, 1.252e-4
-1.368, 1.255e-4
-1.369, 1.258e-4
-1.370, 1.260e-4
-1.371, 1.262e-4
-1.372, 1.267e-4
-1.373, 1.271e-4
-1.374, 1.276e-4
-1.375, 1.280e-4
-1.376, 1.285e-4
-1.377, 1.289e-4
-1.378, 1.293e-4
-1.379, 1.296e-4
-1.380, 1.298e-4
-1.381, 1.304e-4
-1.382, 1.310e-4
-1.383, 1.315e-4
-1.384, 1.318e-4
-1.385, 1.322e-4
-1.386, 1.325e-4
-1.387, 1.328e-4
-1.388, 1.331e-4
-1.389, 1.334e-4
-1.390, 1.337e-4
-1.391, 1.340e-4
-1.392, 1.343e-4
-1.393, 1.346e-4
-1.394, 1.349e-4
-1.395, 1.352e-4
-1.396, 1.355e-4
-1.397, 1.358e-4
-1.398, 1.362e-4
-1.399, 1.365e-4
-1.400, 1.369e-4
-1.401, 1.374e-4
-1.402, 1.378e-4
-1.403, 1.382e-4
-1.404, 1.385e-4
-1.405, 1.388e-4
-1.406, 1.391e-4
-1.407, 1.394e-4
-1.408, 1.397e-4
-1.409, 1.400e-4
-1.410, 1.403e-4
-1.411, 1.406e-4
-1.412, 1.409e-4
-1.413, 1.413e-4
-1.414, 1.416e-4
-1.415, 1.419e-4
-1.416, 1.422e-4
-1.417, 1.425e-4
-1.418, 1.429e-4
-1.419, 1.432e-4
-1.420, 1.434e-4
-1.421, 1.438e-4
-1.422, 1.442e-4
-1.423, 1.445e-4
-1.424, 1.449e-4
-1.425, 1.453e-4
-1.426, 1.456e-4
-1.427, 1.460e-4
-1.428, 1.465e-4
-1.429, 1.468e-4
-1.430, 1.471e-4
-1.431, 1.474e-4
-1.432, 1.478e-4
-1.433, 1.482e-4
-1.434, 1.487e-4
-1.435, 1.491e-4
-1.436, 1.496e-4
-1.437, 1.503e-4
-1.438, 1.509e-4
-1.439, 1.515e-4
-1.440, 1.520e-4
-1.441, 1.524e-4
-1.442, 1.529e-4
-1.443, 1.533e-4
-1.444, 1.538e-4
-1.445, 1.543e-4
-1.446, 1.548e-4
-1.447, 1.553e-4
-1.448, 1.559e-4
-1.449, 1.564e-4
-1.450, 1.570e-4
-1.451, 1.575e-4
-1.452, 1.583e-4
-1.453, 1.590e-4
-1.454, 1.594e-4
-1.455, 1.600e-4
-1.456, 1.607e-4
-1.457, 1.612e-4
-1.458, 1.618e-4
-1.459, 1.625e-4
-1.460, 1.631e-4
-1.461, 1.637e-4
-1.462, 1.644e-4
-1.463, 1.651e-4
-1.464, 1.658e-4
-1.465, 1.664e-4
-1.466, 1.671e-4
-1.467, 1.679e-4
-1.468, 1.688e-4
-1.469, 1.695e-4
-1.470, 1.703e-4
-1.471, 1.711e-4
-1.472, 1.720e-4
-1.473, 1.728e-4
-1.474, 1.736e-4
-1.475, 1.745e-4
-1.476, 1.755e-4
-1.477, 1.764e-4
-1.478, 1.774e-4
-1.479, 1.783e-4
-1.480, 1.792e-4
-1.481, 1.801e-4
-1.482, 1.812e-4
-1.483, 1.823e-4
-1.484, 1.833e-4
-1.485, 1.843e-4
-1.486, 1.854e-4
-1.487, 1.865e-4
-1.488, 1.876e-4
-1.489, 1.887e-4
-1.490, 1.899e-4
-1.491, 1.910e-4
-1.492, 1.921e-4
-1.493, 1.933e-4
-1.494, 1.946e-4
-1.495, 1.960e-4
-1.496, 1.973e-4
-1.497, 1.988e-4
-1.498, 2.003e-4
-1.499, 2.017e-4
-1.500, 2.029e-4
-1.501, 2.044e-4
-1.502, 2.059e-4
-1.503, 2.075e-4
-1.504, 2.090e-4
-1.505, 2.106e-4
-1.506, 2.121e-4
-1.507, 2.138e-4
-1.508, 2.153e-4
-1.509, 2.170e-4
-1.510, 2.187e-4
-1.511, 2.203e-4
-1.512, 2.222e-4
-1.513, 2.242e-4
-1.514, 2.264e-4
-1.515, 2.278e-4
-1.516, 2.297e-4
-1.517, 2.319e-4
-1.518, 2.337e-4
-1.519, 2.356e-4
-1.520, 2.376e-4
-1.521, 2.396e-4
-1.522, 2.417e-4
-1.523, 2.438e-4
-1.524, 2.459e-4
-1.525, 2.480e-4
-1.526, 2.502e-4
-1.527, 2.524e-4
-1.528, 2.547e-4
-1.529, 2.572e-4
-1.530, 2.595e-4
-1.531, 2.623e-4
-1.532, 2.650e-4
-1.533, 2.675e-4
-1.534, 2.699e-4
-1.535, 2.721e-4
-1.536, 2.743e-4
-1.537, 2.767e-4
-1.538, 2.793e-4
-1.539, 2.818e-4
-1.540, 2.845e-4
-1.541, 2.872e-4
-1.542, 2.899e-4
-1.543, 2.926e-4
-1.544, 2.953e-4
-1.545, 2.982e-4
-1.546, 3.012e-4
-1.547, 3.040e-4
-1.548, 3.069e-4
-1.549, 3.099e-4
-1.550, 3.144e-4
-1.551, 3.178e-4
-1.552, 3.210e-4
-1.553, 3.240e-4
-1.554, 3.269e-4
-1.555, 3.299e-4
-1.556, 3.330e-4
-1.557, 3.365e-4
-1.558, 3.398e-4
-1.559, 3.428e-4
-1.560, 3.461e-4
-1.561, 3.498e-4
-1.562, 3.532e-4
-1.563, 3.564e-4
-1.564, 3.599e-4
-1.565, 3.635e-4
-1.566, 3.671e-4
-1.567, 3.706e-4
-1.568, 3.744e-4
-1.569, 3.781e-4
-1.570, 3.818e-4
-1.571, 3.856e-4
-1.572, 3.897e-4
-1.573, 3.941e-4
-1.574, 3.983e-4
-1.575, 4.024e-4
-1.576, 4.066e-4
-1.577, 4.109e-4
-1.578, 4.151e-4
-1.579, 4.192e-4
-1.580, 4.234e-4
-1.581, 4.276e-4
-1.582, 4.319e-4
-1.583, 4.364e-4
-1.584, 4.409e-4
-1.585, 4.457e-4
-1.586, 4.502e-4
-1.587, 4.549e-4
-1.588, 4.597e-4
-1.589, 4.642e-4
-1.590, 4.688e-4
-1.591, 4.734e-4
-1.592, 4.781e-4
-1.593, 4.829e-4
-1.594, 4.877e-4
-1.595, 4.925e-4
-1.596, 4.970e-4
-1.597, 5.018e-4
-1.598, 5.070e-4
-1.599, 5.119e-4
-1.600, 5.169e-4
-1.601, 5.218e-4
-1.602, 5.269e-4
-1.603, 5.319e-4
-1.604, 5.370e-4
-1.605, 5.421e-4
-1.606, 5.473e-4
-1.607, 5.526e-4
-1.608, 5.581e-4
-1.609, 5.633e-4
-1.610, 5.687e-4
-1.611, 5.743e-4
-1.612, 5.799e-4
-1.613, 5.855e-4
-1.614, 5.913e-4
-1.615, 5.973e-4
-1.616, 6.032e-4
-1.617, 6.090e-4
-1.618, 6.149e-4
-1.619, 6.209e-4
-1.620, 6.268e-4
-1.621, 6.327e-4
-1.622, 6.388e-4
-1.623, 6.449e-4
-1.624, 6.510e-4
-1.625, 6.570e-4
-1.626, 6.630e-4
-1.627, 6.691e-4
-1.628, 6.754e-4
-1.629, 6.817e-4
-1.630, 6.882e-4
-1.631, 6.943e-4
-1.632, 7.008e-4
-1.633, 7.071e-4
-1.634, 7.136e-4
-1.635, 7.201e-4
-1.636, 7.267e-4
-1.637, 7.333e-4
-1.638, 7.399e-4
-1.639, 7.467e-4
-1.640, 7.533e-4
-1.641, 7.601e-4
-1.642, 7.672e-4
-1.643, 7.743e-4
-1.644, 7.815e-4
-1.645, 7.886e-4
-1.646, 7.956e-4
-1.647, 8.028e-4
-1.648, 8.101e-4
-1.649, 8.172e-4
-1.650, 8.242e-4
-1.651, 8.313e-4
-1.652, 8.385e-4
-1.653, 8.459e-4
-1.654, 8.534e-4
-1.655, 8.608e-4
-1.656, 8.682e-4
-1.657, 8.758e-4
-1.658, 8.834e-4
-1.659, 8.910e-4
-1.660, 8.983e-4
-1.661, 9.059e-4
-1.662, 9.137e-4
-1.663, 9.217e-4
-1.664, 9.296e-4
-1.665, 9.375e-4
-1.666, 9.453e-4
-1.667, 9.533e-4
-1.668, 9.614e-4
-1.669, 9.694e-4
-1.670, 9.775e-4
-1.671, 9.855e-4
-1.672, 9.937e-4
-1.673, 1.002e-3
-1.674, 1.009e-3
-1.675, 1.011e-3
-1.676, 1.011e-3
-1.677, 1.011e-3
-1.678, 1.011e-3
-1.679, 1.011e-3
-1.680, 1.011e-3
-1.681, 1.011e-3
-1.682, 1.011e-3
-1.683, 1.011e-3
-1.684, 1.011e-3
-1.685, 1.011e-3
-1.686, 1.011e-3
-1.687, 1.011e-3
-1.688, 1.011e-3
-1.689, 1.011e-3
-1.690, 1.011e-3
-1.691, 1.011e-3
-1.692, 1.011e-3
-1.693, 1.011e-3
-1.694, 1.011e-3
-1.695, 1.011e-3
-1.696, 1.011e-3
-1.697, 1.011e-3
-1.698, 1.011e-3
-1.699, 1.011e-3
-1.700, 1.011e-3
-1.701, 1.011e-3
-1.702, 1.011e-3
-1.703, 1.011e-3
-1.704, 1.011e-3
-1.705, 1.011e-3
-1.706, 1.011e-3
-1.707, 1.011e-3
-1.708, 1.011e-3
-1.709, 1.011e-3
-1.710, 1.011e-3
-1.711, 1.011e-3
-1.712, 1.011e-3
-1.713, 1.011e-3
-1.714, 1.011e-3
-1.715, 1.011e-3
-1.716, 1.011e-3
-1.717, 1.011e-3
-1.718, 1.011e-3
-1.719, 1.011e-3
-1.720, 1.011e-3
-1.721, 1.011e-3
-1.722, 1.011e-3
-1.723, 1.011e-3
-1.724, 1.011e-3
-1.725, 1.011e-3
-1.726, 1.011e-3
-1.727, 1.011e-3
-1.728, 1.011e-3
-1.729, 1.011e-3
-1.730, 1.011e-3
-1.731, 1.011e-3
-1.732, 1.011e-3
-1.733, 1.011e-3
-1.734, 1.011e-3
-1.735, 1.011e-3
-1.736, 1.011e-3
-1.737, 1.011e-3
-1.738, 1.011e-3
-1.739, 1.011e-3
-1.740, 1.011e-3
-1.741, 1.011e-3
-1.742, 1.011e-3
-1.743, 1.011e-3
-1.744, 1.011e-3
-1.745, 1.011e-3
-1.746, 1.011e-3
-1.747, 1.011e-3
-1.748, 1.011e-3
-1.749, 1.011e-3
-1.750, 1.011e-3
-1.751, 1.011e-3
-1.752, 1.011e-3
-1.753, 1.011e-3
-1.754, 1.011e-3
-1.755, 1.011e-3
-1.756, 1.011e-3
-1.757, 1.011e-3
-1.758, 1.011e-3
-1.759, 1.011e-3
-1.760, 1.011e-3
-1.761, 1.011e-3
-1.762, 1.011e-3
-1.763, 1.011e-3
-1.764, 1.011e-3
-1.765, 1.011e-3
-1.766, 1.011e-3
-1.767, 1.011e-3
-1.768, 1.011e-3
-1.769, 1.011e-3
-1.770, 1.011e-3
-1.771, 1.011e-3
-1.772, 1.011e-3
-1.773, 1.011e-3
-1.774, 1.011e-3
-1.775, 1.011e-3
-1.776, 1.011e-3
-1.777, 1.011e-3
-1.778, 1.011e-3
-1.779, 1.011e-3
-1.780, 1.011e-3
-1.781, 1.011e-3
-1.782, 1.011e-3
-1.783, 1.011e-3
-1.784, 1.011e-3
-1.785, 1.011e-3
-1.786, 1.011e-3
-1.787, 1.011e-3
-1.788, 1.011e-3
-1.789, 1.011e-3
-1.790, 1.011e-3
-1.791, 1.011e-3
-1.792, 1.011e-3
-1.793, 1.011e-3
-1.794, 1.011e-3
-1.795, 1.011e-3
-1.796, 1.011e-3
-1.797, 1.011e-3
-1.798, 1.011e-3
-1.799, 1.011e-3
-1.800, 1.011e-3
-1.801, 1.011e-3
-1.802, 1.011e-3
-1.803, 1.011e-3
-1.804, 1.011e-3
-1.805, 1.011e-3
-1.806, 1.011e-3
-1.807, 1.011e-3
-1.808, 1.011e-3
-1.809, 1.011e-3
-1.810, 1.011e-3
-1.811, 1.011e-3
-1.812, 1.011e-3
-1.813, 1.011e-3
-1.814, 1.011e-3
-1.815, 1.011e-3
-1.816, 1.011e-3
-1.817, 1.011e-3
-1.818, 1.011e-3
-1.819, 1.011e-3
-1.820, 1.011e-3
-1.821, 1.011e-3
-1.822, 1.011e-3
-1.823, 1.011e-3
-1.824, 1.011e-3
-1.825, 1.011e-3
-1.826, 1.011e-3
-1.827, 1.011e-3
-1.828, 1.011e-3
-1.829, 1.011e-3
-1.830, 1.011e-3
-1.831, 1.011e-3
-1.832, 1.011e-3
-1.833, 1.011e-3
-1.834, 1.011e-3
-1.835, 1.011e-3
-1.836, 1.011e-3
-1.837, 1.011e-3
-1.838, 1.011e-3
-1.839, 1.011e-3
-1.840, 1.011e-3
-1.841, 1.011e-3
-1.842, 1.011e-3
-1.843, 1.011e-3
-1.844, 1.011e-3
-1.845, 1.011e-3
-1.846, 1.011e-3
-1.847, 1.011e-3
-1.848, 1.011e-3
-1.849, 1.011e-3
-1.850, 1.011e-3
-1.851, 1.011e-3
-1.852, 1.011e-3
-1.853, 1.011e-3
-1.854, 1.011e-3
-1.855, 1.011e-3
-1.856, 1.011e-3
-1.857, 1.011e-3
-1.858, 1.011e-3
-1.859, 1.011e-3
-1.860, 1.011e-3
-1.861, 1.011e-3
-1.862, 1.011e-3
-1.863, 1.011e-3
-1.864, 1.011e-3
-1.865, 1.011e-3
-1.866, 1.011e-3
-1.867, 1.011e-3
-1.868, 1.011e-3
-1.869, 1.011e-3
-1.870, 1.011e-3
-1.871, 1.011e-3
-1.872, 1.011e-3
-1.873, 1.011e-3
-1.874, 1.011e-3
-1.875, 1.011e-3
-1.876, 1.011e-3
-1.877, 1.011e-3
-1.878, 1.011e-3
-1.879, 1.011e-3
-1.880, 1.011e-3
-1.881, 1.011e-3
-1.882, 1.011e-3
-1.883, 1.011e-3
-1.884, 1.011e-3
-1.885, 1.011e-3
-1.886, 1.011e-3
-1.887, 1.011e-3
-1.888, 1.011e-3
-1.889, 1.011e-3
-1.890, 1.011e-3
-1.891, 1.011e-3
-1.892, 1.011e-3
-1.893, 1.011e-3
-1.894, 1.011e-3
-1.895, 1.011e-3
-1.896, 1.011e-3
-1.897, 1.011e-3
-1.898, 1.011e-3
-1.899, 1.011e-3
-1.900, 1.011e-3
-1.901, 1.011e-3
-1.902, 1.011e-3
-1.903, 1.011e-3
-1.904, 1.011e-3
-1.905, 1.011e-3
-1.906, 1.011e-3
-1.907, 1.011e-3
-1.908, 1.011e-3
-1.909, 1.011e-3
-1.910, 1.011e-3
-1.911, 1.011e-3
-1.912, 1.011e-3
-1.913, 1.011e-3
-1.914, 1.011e-3
-1.915, 1.011e-3
-1.916, 1.011e-3
-1.917, 1.011e-3
-1.918, 1.011e-3
-1.919, 1.011e-3
-1.920, 1.011e-3
-1.921, 1.011e-3
-1.922, 1.011e-3
-1.923, 1.011e-3
-1.924, 1.011e-3
-1.925, 1.011e-3
-1.926, 1.011e-3
-1.927, 1.011e-3
-1.928, 1.011e-3
-1.929, 1.011e-3
-1.930, 1.011e-3
-1.931, 1.011e-3
-1.932, 1.011e-3
-1.933, 1.011e-3
-1.934, 1.011e-3
-1.935, 1.011e-3
-1.936, 1.011e-3
-1.937, 1.011e-3
-1.938, 1.011e-3
-1.939, 1.011e-3
-1.940, 1.011e-3
-1.941, 1.011e-3
-1.942, 1.011e-3
-1.943, 1.011e-3
-1.944, 1.011e-3
-1.945, 1.011e-3
-1.946, 1.011e-3
-1.947, 1.011e-3
-1.948, 1.011e-3
-1.949, 1.011e-3
-1.950, 1.011e-3
-1.951, 1.011e-3
-1.952, 1.011e-3
-1.953, 1.011e-3
-1.954, 1.011e-3
-1.955, 1.011e-3
-1.956, 1.011e-3
-1.957, 1.011e-3
-1.958, 1.011e-3
-1.959, 1.011e-3
-1.960, 1.011e-3
-1.961, 1.011e-3
-1.962, 1.011e-3
-1.963, 1.011e-3
-1.964, 1.011e-3
-1.965, 1.011e-3
-1.966, 1.011e-3
-1.967, 1.011e-3
-1.968, 1.011e-3
-1.969, 1.011e-3
-1.970, 1.011e-3
-1.971, 1.011e-3
-1.972, 1.011e-3
-1.973, 1.011e-3
-1.974, 1.011e-3
-1.975, 1.011e-3
-1.976, 1.011e-3
-1.977, 1.011e-3
-1.978, 1.011e-3
-1.979, 1.011e-3
-1.980, 1.011e-3
-1.981, 1.011e-3
-1.982, 1.011e-3
-1.983, 1.011e-3
-1.984, 1.011e-3
-1.985, 1.011e-3
-1.986, 1.011e-3
-1.987, 1.011e-3
-1.988, 1.011e-3
-1.989, 1.011e-3
-1.990, 1.011e-3
-1.991, 1.011e-3
-1.992, 1.011e-3
-1.993, 1.011e-3
-1.994, 1.011e-3
-1.995, 1.011e-3
-1.996, 1.011e-3
-1.997, 1.011e-3
-1.998, 1.011e-3
-1.999, 1.011e-3
-2.000, 1.011e-3
-2.001, 1.011e-3
-2.002, 1.011e-3
-2.003, 1.011e-3
-2.004, 1.011e-3
-2.005, 1.011e-3
-2.006, 1.011e-3
-2.007, 1.011e-3
-2.008, 1.011e-3
-2.009, 1.011e-3
-2.010, 1.011e-3
-2.011, 1.011e-3
-2.012, 1.011e-3
-2.013, 1.011e-3
-2.014, 1.011e-3
-2.015, 1.011e-3
-2.016, 1.011e-3
-2.017, 1.011e-3
-2.018, 1.011e-3
-2.019, 1.011e-3
-2.020, 1.011e-3
-2.021, 1.011e-3
-2.022, 1.011e-3
-2.023, 1.011e-3
-2.024, 1.011e-3
-2.025, 1.011e-3
-2.026, 1.011e-3
-2.027, 1.011e-3
-2.028, 1.011e-3
-2.029, 1.011e-3
-2.030, 1.011e-3
-2.031, 1.011e-3
-2.032, 1.011e-3
-2.033, 1.011e-3
-2.034, 1.011e-3
-2.035, 1.011e-3
-2.036, 1.011e-3
-2.037, 1.011e-3
-2.038, 1.011e-3
-2.039, 1.011e-3
-2.040, 1.011e-3
-2.041, 1.011e-3
-2.042, 1.011e-3
-2.043, 1.011e-3
-2.044, 1.011e-3
-2.045, 1.011e-3
-2.046, 1.011e-3
-2.047, 1.011e-3
-2.048, 1.011e-3
-2.049, 1.011e-3
-2.050, 1.011e-3
-2.051, 1.011e-3
-2.052, 1.011e-3
-2.053, 1.011e-3
-2.054, 1.011e-3
-2.055, 1.011e-3
-2.056, 1.011e-3
-2.057, 1.011e-3
-2.058, 1.011e-3
-2.059, 1.011e-3
-2.060, 1.011e-3
-2.061, 1.011e-3
-2.062, 1.011e-3
-2.063, 1.011e-3
-2.064, 1.011e-3
-2.065, 1.011e-3
-2.066, 1.011e-3
-2.067, 1.011e-3
-2.068, 1.011e-3
-2.069, 1.011e-3
-2.070, 1.011e-3
-2.071, 1.011e-3
-2.072, 1.011e-3
-2.073, 1.011e-3
-2.074, 1.011e-3
-2.075, 1.011e-3
-2.076, 1.011e-3
-2.077, 1.011e-3
-2.078, 1.011e-3
-2.079, 1.011e-3
-2.080, 1.011e-3
-2.081, 1.011e-3
-2.082, 1.011e-3
-2.083, 1.011e-3
-2.084, 1.011e-3
-2.085, 1.011e-3
-2.086, 1.011e-3
-2.087, 1.011e-3
-2.088, 1.011e-3
-2.089, 1.011e-3
-2.090, 1.011e-3
-2.091, 1.011e-3
-2.092, 1.011e-3
-2.093, 1.011e-3
-2.094, 1.011e-3
-2.095, 1.011e-3
-2.096, 1.011e-3
-2.097, 1.011e-3
-2.098, 1.011e-3
-2.099, 1.011e-3
-2.100, 1.011e-3
-2.101, 1.011e-3
-2.102, 1.011e-3
-2.103, 1.011e-3
-2.104, 1.011e-3
-2.105, 1.011e-3
-2.106, 1.011e-3
-2.107, 1.011e-3
-2.108, 1.011e-3
-2.109, 1.011e-3
-2.110, 1.011e-3
-2.111, 1.011e-3
-2.112, 1.011e-3
-2.113, 1.011e-3
-2.114, 1.011e-3
-2.115, 1.011e-3
-2.116, 1.011e-3
-2.117, 1.011e-3
-2.118, 1.011e-3
-2.119, 1.011e-3
-2.120, 1.011e-3
-2.121, 1.011e-3
-2.122, 1.011e-3
-2.123, 1.011e-3
-2.124, 1.011e-3
-2.125, 1.011e-3
-2.126, 1.011e-3
-2.127, 1.011e-3
-2.128, 1.011e-3
-2.129, 1.011e-3
-2.130, 1.011e-3
-2.131, 1.011e-3
-2.132, 1.011e-3
-2.133, 1.011e-3
-2.134, 1.011e-3
-2.135, 1.011e-3
-2.136, 1.011e-3
-2.137, 1.011e-3
-2.138, 1.011e-3
-2.139, 1.011e-3
-2.140, 1.011e-3
-2.141, 1.011e-3
-2.142, 1.011e-3
-2.143, 1.011e-3
-2.144, 1.011e-3
-2.145, 1.011e-3
-2.146, 1.011e-3
-2.147, 1.011e-3
-2.148, 1.011e-3
-2.149, 1.011e-3
-2.150, 1.011e-3
-2.151, 1.011e-3
-2.152, 1.011e-3
-2.153, 1.011e-3
-2.154, 1.011e-3
-2.155, 1.011e-3
-2.156, 1.011e-3
-2.157, 1.011e-3
-2.158, 1.011e-3
-2.159, 1.011e-3
-2.160, 1.011e-3
-2.161, 1.011e-3
-2.162, 1.011e-3
-2.163, 1.011e-3
-2.164, 1.011e-3
-2.165, 1.011e-3
-2.166, 1.011e-3
-2.167, 1.011e-3
-2.168, 1.011e-3
-2.169, 1.011e-3
-2.170, 1.011e-3
-2.171, 1.011e-3
-2.172, 1.011e-3
-2.173, 1.011e-3
-2.174, 1.011e-3
-2.175, 1.011e-3
-2.176, 1.011e-3
-2.177, 1.011e-3
-2.178, 1.011e-3
-2.179, 1.011e-3
-2.180, 1.011e-3
-2.181, 1.011e-3
-2.182, 1.011e-3
-2.183, 1.011e-3
-2.184, 1.011e-3
-2.185, 1.011e-3
-2.186, 1.011e-3
-2.187, 1.011e-3
-2.188, 1.011e-3
-2.189, 1.011e-3
-2.190, 1.011e-3
-2.191, 1.011e-3
-2.192, 1.011e-3
-2.193, 1.011e-3
-2.194, 1.011e-3
-2.195, 1.011e-3
-2.196, 1.011e-3
-2.197, 1.011e-3
-2.198, 1.011e-3
-2.199, 1.011e-3
-2.200, 1.011e-3
-2.201, 1.011e-3
-2.202, 1.011e-3
-2.203, 1.011e-3
-2.204, 1.011e-3
-2.205, 1.011e-3
-2.206, 1.011e-3
-2.207, 1.011e-3
-2.208, 1.011e-3
-2.209, 1.011e-3
-2.210, 1.011e-3
-2.211, 1.011e-3
-2.212, 1.011e-3
-2.213, 1.011e-3
-2.214, 1.011e-3
-2.215, 1.011e-3
-2.216, 1.011e-3
-2.217, 1.011e-3
-2.218, 1.011e-3
-2.219, 1.011e-3
-2.220, 1.011e-3
-2.221, 1.011e-3
-2.222, 1.011e-3
-2.223, 1.011e-3
-2.224, 1.011e-3
-2.225, 1.011e-3
-2.226, 1.011e-3
-2.227, 1.011e-3
-2.228, 1.011e-3
-2.229, 1.011e-3
-2.230, 1.011e-3
-2.231, 1.011e-3
-2.232, 1.011e-3
-2.233, 1.011e-3
-2.234, 1.011e-3
-2.235, 1.011e-3
-2.236, 1.011e-3
-2.237, 1.011e-3
-2.238, 1.011e-3
-2.239, 1.011e-3
-2.240, 1.011e-3
-2.241, 1.011e-3
-2.242, 1.011e-3
-2.243, 1.011e-3
-2.244, 1.011e-3
-2.245, 1.011e-3
-2.246, 1.011e-3
-2.247, 1.011e-3
-2.248, 1.011e-3
-2.249, 1.011e-3
-2.250, 1.011e-3
-2.251, 1.011e-3
-2.252, 1.011e-3
-2.253, 1.011e-3
-2.254, 1.011e-3
-2.255, 1.011e-3
-2.256, 1.011e-3
-2.257, 1.011e-3
-2.258, 1.011e-3
-2.259, 1.011e-3
-2.260, 1.011e-3
-2.261, 1.011e-3
-2.262, 1.011e-3
-2.263, 1.011e-3
-2.264, 1.011e-3
-2.265, 1.011e-3
-2.266, 1.011e-3
-2.267, 1.011e-3
-2.268, 1.011e-3
-2.269, 1.011e-3
-2.270, 1.011e-3
-2.271, 1.011e-3
-2.272, 1.011e-3
-2.273, 1.011e-3
-2.274, 1.011e-3
-2.275, 1.011e-3
-2.276, 1.011e-3
-2.277, 1.011e-3
-2.278, 1.011e-3
-2.279, 1.011e-3
-2.280, 1.011e-3
-2.281, 1.011e-3
-2.282, 1.011e-3
-2.283, 1.011e-3
-2.284, 1.011e-3
-2.285, 1.011e-3
-2.286, 1.011e-3
-2.287, 1.011e-3
-2.288, 1.011e-3
-2.289, 1.011e-3
-2.290, 1.011e-3
-2.291, 1.011e-3
-2.292, 1.011e-3
-2.293, 1.011e-3
-2.294, 1.011e-3
-2.295, 1.011e-3
-2.296, 1.011e-3
-2.297, 1.011e-3
-2.298, 1.011e-3
-2.299, 1.011e-3
