Potential V vs RHE, Current mA cm-2
0.013299999999999867,5.101448947313322
0.012299999999999978,4.054562585413195
0.011299999999999866,3.1816857133964676
0.010299999999999976,2.2663675023837886
0.009299999999999864,1.4373466806628774
0.008299999999999974,0.6084673300719523
0.007299999999999862,-0.1766974413531431
0.006299999999999972,-1.0054353208140816
0.00529999999999986,-1.7910245056291363
0.0042999999999999705,-2.4884771764625997
0.0032999999999998586,-3.1859298472960624
0.0022999999999999687,-3.7532290785419424
0.0012999999999998568,-4.3205283097878215
0.00029999999999996696,-4.843971490737885
-0.000700000000000145,-5.367414671687949
-0.0017000000000000348,-5.890857852638012
-0.0027000000000001467,-6.458157083883892
-0.0037000000000000366,-7.067897654125724
-0.0047000000000001485,-7.635196885371603
-0.005700000000000038,-8.246352166913299
-0.00670000000000015,-8.812236686859313
-0.00770000000000004,-9.379535918105192
-0.008700000000000152,-9.85912304875944
-0.009700000000000042,-10.296268840417738
-0.010700000000000154,-10.731999920776168
-0.011700000000000044,-11.123874950838783
-0.012700000000000156,-11.56102074249708
-0.013700000000000045,-11.952895772559694
-0.014700000000000157,-12.432482903213943
-0.015700000000000047,-12.955926084164007
-0.01670000000000016,-13.436927926118118
-0.01770000000000005,-13.960371107068182
-0.01870000000000016,-14.444202371622024
-0.01970000000000005,-14.925204213576137
-0.020700000000000163,-15.349617603535648
-0.021700000000000053,-15.70329542850191
-0.022700000000000164,-16.056973253468165
-0.023700000000000054,-16.354062626439823
-0.024700000000000166,-16.792623129397985
-0.025700000000000056,-17.146300954364243
-0.026700000000000168,-17.584861457322408
-0.027700000000000058,-18.009274847281915
-0.02870000000000017,-18.44783535024008
-0.02970000000000006,-18.92883719219419
-0.03070000000000017,-19.409839034148305
-0.03170000000000006,-19.805958198110513
-0.03270000000000017,-20.159636023076775
-0.03370000000000006,-20.499166735044383
-0.034700000000000175,-20.810403221014692
-0.035700000000000065,-21.107492593986347
-0.03670000000000018,-21.461170418952605
-0.03770000000000007,-21.857289582914817
-0.03870000000000018,-22.295850085872978
-0.03970000000000007,-22.67782213683654
-0.04070000000000018,-23.15882397879065
-0.04170000000000007,-23.639825820744765
-0.04270000000000018,-24.035944984706973
-0.04370000000000007,-24.432064148669184
-0.044700000000000184,-24.729153521640843
-0.045700000000000074,-25.04039000761115
-0.046700000000000186,-25.337479380582806
-0.047700000000000076,-25.691157205549064
-0.04870000000000019,-26.002393691519377
-0.04970000000000008,-26.38436574248293
-0.05070000000000019,-26.822926245441096
-0.05170000000000008,-27.219045409403304
-0.05270000000000019,-27.700047251357418
-0.05370000000000008,-28.13860775431558
-0.05470000000000019,-28.53472691827779
-0.05570000000000008,-28.8742576302454
-0.056700000000000195,-29.18549411621571
-0.057700000000000085,-29.482583489187363
-0.058700000000000196,-29.793819975157668
-0.059700000000000086,-30.147497800123933
-0.0607000000000002,-30.444587173095588
-0.06170000000000009,-30.88314767605375
-0.0627000000000002,-31.27926684001596
-0.06370000000000009,-31.717827342974125
-0.0647000000000002,-32.184682071929586
-0.06570000000000009,-32.53835989689585
-0.0667000000000002,-32.93447906085806
-0.0677000000000001,-33.288156885824314
-0.0687000000000002,-33.58524625879597
-0.0697000000000001,-33.89648274476628
-0.07070000000000021,-34.193572117737936
-0.0717000000000001,-34.5472499427042
-0.07270000000000021,-34.90092776767045
-0.0737000000000001,-35.32534115762997
-0.07470000000000021,-35.721460321592176
-0.0757000000000001,-36.20246216354629
-0.07670000000000021,-36.5985813275085
-0.0777000000000001,-36.99470049147071
-0.07870000000000021,-37.376672542434264
-0.0797000000000001,-37.687909028404576
-0.08070000000000022,-38.04158685337084
-0.0817000000000001,-38.33867622634249
-0.08270000000000022,-38.607471373316855
-0.08370000000000011,-38.94700208528445
-0.08470000000000022,-39.34312124924667
-0.08570000000000011,-39.78168175220483
-0.08670000000000022,-40.26268359415894
-0.08770000000000011,-40.743685436113054
-0.08870000000000022,-41.139804600075266
-0.08970000000000011,-41.56421799003478
-0.09070000000000022,-41.91789581500104
-0.09170000000000011,-42.2715736399673
-0.09270000000000023,-42.568663012938956
-0.09370000000000012,-42.87989949890926
-0.09470000000000023,-43.23357732387552
-0.09570000000000012,-43.53066669684718
-0.09670000000000023,-43.96922719980534
-0.09770000000000012,-44.36534636376755
-0.09870000000000023,-44.80390686672572
-0.09970000000000012,-45.27076159568118
-0.10070000000000023,-45.666880759643384
-0.10170000000000012,-46.062999923605595
-0.10270000000000024,-46.45911908756781
-0.10370000000000013,-46.75620846053947
-0.10470000000000024,-47.067444946509774
-0.10570000000000013,-47.32209298048547
-0.10670000000000024,-47.67577080545174
-0.10770000000000013,-48.071889969413945
-0.10870000000000024,-48.51045047237211
-0.10970000000000013,-48.97730520132757
-0.11070000000000024,-49.41586570428573
-0.11170000000000013,-49.81198486824794
-0.11270000000000002,-50.29298671020206
-0.11370000000000013,-50.64666453516831
-0.11470000000000002,-50.98619524713592
-0.11570000000000014,-51.38231441109813
-0.11670000000000003,-51.65110955807249
-0.11770000000000014,-51.990640270040096
-0.11870000000000003,-52.386759434002315
-0.11970000000000014,-52.82531993696047
-0.12070000000000003,-53.22143910092268
-0.12170000000000014,-53.68829382987814
-0.12270000000000003,-54.1268543328363
-0.12370000000000014,-54.56541483579447
-0.12470000000000003,-54.961533999756675
-0.12570000000000014,-55.25862337272834
-0.12670000000000003,-55.612301197694585
-0.12770000000000015,-55.881096344668954
-0.12870000000000004,-56.1781857176406
-0.12970000000000015,-56.57430488160282
-0.13070000000000004,-56.927982706569075
-0.13170000000000015,-57.352396096528594
-0.13270000000000004,-57.87583927747865
-0.13370000000000015,-58.35684111943277
-0.13470000000000004,-58.83784296138688
-0.13570000000000015,-59.27640346434504
-0.13670000000000004,-59.7149639673032
-0.13770000000000016,-60.11108313126541
-0.13870000000000005,-60.45061384323302
-0.13970000000000016,-60.80429166819927
-0.14070000000000005,-61.11552815416958
-0.14170000000000016,-61.455058866137186
-0.14270000000000005,-61.851178030099405
-0.14370000000000016,-62.24729719406162
-0.14470000000000005,-62.68585769701977
-0.14570000000000016,-63.11027108697928
-0.14670000000000005,-63.633714267929356
-0.14770000000000016,-64.0722747708875
-0.14870000000000005,-64.46839393484973
-0.14970000000000017,-64.82207175981598
-0.15070000000000006,-65.20404381077954
-0.15170000000000017,-65.51528029674984
-0.15270000000000006,-65.95384079970802
-0.15370000000000017,-66.29337151167562
-0.15470000000000006,-66.77437335362974
-0.15570000000000017,-67.21293385658788
-0.15670000000000006,-67.693935698542
-0.15770000000000017,-68.21737887949207
-0.15870000000000006,-68.65593938245023
-0.15970000000000018,-69.13694122440434
-0.16070000000000007,-69.4906190493706
-0.16170000000000018,-69.78770842234226
-0.16270000000000007,-70.14138624730852
-0.16370000000000018,-70.43847562028017
-0.16470000000000007,-70.8345947842424
-0.16570000000000018,-71.18827260920865
-0.16670000000000007,-71.6268331121668
-0.16770000000000018,-72.10783495412092
-0.16870000000000007,-72.57468968307639
-0.16970000000000018,-73.09813286402644
-0.17070000000000007,-73.57913470598055
-0.17170000000000019,-74.0176952089387
-0.17270000000000008,-74.37137303390499
-0.1737000000000002,-74.72505085887124
-0.17470000000000008,-75.06458157083884
-0.1757000000000002,-75.33337671781321
-0.17670000000000008,-75.6729074297808
-0.1777000000000002,-75.98414391575112
-0.17870000000000008,-76.38026307971333
-0.1797000000000002,-76.9037062606634
-0.18070000000000008,-77.34226676362155
-0.1817000000000002,-77.80912149257702
-0.18270000000000008,-78.24768199553519
-0.1837000000000002,-78.68624249849334
-0.1847000000000001,-79.1248030014515
-0.1857000000000002,-79.52092216541372
-0.1867000000000001,-79.86045287738132
-0.1877000000000002,-80.25657204134353
-0.1887000000000001,-80.69513254430169
-0.1897000000000002,-81.13369304725985
-0.1907000000000001,-81.61469488921396
-0.1917000000000001,-82.09569673116808
-0.19269999999999998,-82.56255146012353
-0.1937000000000001,-82.95867062408576
-0.19469999999999998,-83.39723112704392
-0.1957000000000001,-83.79335029100612
-0.19669999999999999,-84.18946945496833
-0.1977000000000001,-84.52900016693594
-0.1987,-84.84023665290624
-0.1997000000000001,-85.27879715586442
-0.2007,-85.70321054582392
-0.2017000000000001,-86.14177104878208
-0.2027,-86.6227728907362
-0.2037000000000001,-87.18865741068221
-0.2047,-87.71210059163228
-0.2057000000000001,-88.15066109459043
-0.2067,-88.5892215975486
-0.2077000000000001,-88.94289942251486
-0.2087,-89.32487147347842
-0.2097000000000001,-89.67854929844468
-0.2107,-89.98978578441499
-0.2117000000000001,-90.41419917437449
-0.2127,-90.85275967733266
-0.2137000000000001,-91.37620285828272
-0.2147,-91.85720470023682
-0.2157000000000001,-92.42308922018285
-0.2167,-92.94653240113291
-0.21770000000000012,-93.61144671206948
-0.2187,-94.03586010202899
-0.21970000000000012,-94.4319792659912
-0.2207,-94.8280984299534
-0.22170000000000012,-95.08274646392913
-0.2227,-95.47886562789132
-0.22370000000000012,-95.83254345285758
-0.2247,-96.21451550382113
-0.22570000000000012,-96.69551734577524
-0.2267,-97.13407784873341
-0.22770000000000012,-97.6575210296835
-0.22870000000000001,-98.18096421063355
-0.22970000000000013,-98.7044073915836
-0.23070000000000002,-99.14296789454177
-0.23170000000000013,-99.58152839749994
-0.23270000000000002,-100.10497157844999
-0.23370000000000013,-100.5010907424122
-0.23470000000000002,-101.02453392336226
-0.23570000000000013,-101.54797710431234
-0.23670000000000002,-102.07142028526239
-0.2376999999999999,-102.5524221272165
-0.23870000000000002,-103.07586530816658
-0.2396999999999999,-103.59930848911664
-0.24070000000000003,-104.12275167006669
-0.24169999999999991,-104.73107752900866
-0.24270000000000003,-105.11304957997223
-0.24369999999999992,-105.5516100829304
-0.24470000000000003,-105.94772924689259
-0.24569999999999992,-106.21652439386696
-0.24670000000000003,-106.47117242784265
-0.24769999999999992,-106.95217426979677
-0.24870000000000003,-107.47561745074682
-0.24969999999999992,-107.99906063169689
-0.25070000000000003,-108.52250381264696
-0.2516999999999999,-109.13082967158894
-0.25270000000000004,-109.61183151354304
-0.2536999999999999,-110.17771603348905
-0.25470000000000004,-110.6162765364472
-0.2556999999999999,-110.96995436141347
-0.25670000000000004,-111.35192641237703
-0.25769999999999993,-111.7904869153352
-0.25870000000000004,-112.22904741829338
-0.25969999999999993,-112.71004926024747
-0.26070000000000004,-113.27593378019348
-0.26169999999999993,-113.84181830013951
-0.26270000000000004,-114.40770282008553
-0.26369999999999993,-114.97358734003153
-0.26470000000000005,-115.53947185997755
-0.26569999999999994,-116.02047370193165
-0.26670000000000005,-116.41659286589388
-0.26769999999999994,-116.94003604684394
-0.26870000000000005,-117.29371387181018
-0.26969999999999994,-117.81715705276027
-0.27070000000000005,-118.3406002337103
-0.27169999999999994,-118.82160207566443
-0.27270000000000005,-119.38748659561045
-0.27369999999999994,-119.95337111555646
-0.27470000000000006,-120.64657965249035
-0.27569999999999995,-121.21246417243634
-0.27670000000000006,-121.73590735338641
-0.27769999999999995,-122.25935053433648
-0.27870000000000006,-122.65546969829869
-0.27969999999999995,-123.09403020125686
-0.28070000000000006,-123.4760022522204
-0.28169999999999995,-123.99944543317046
-0.28270000000000006,-124.48044727512458
-0.28369999999999995,-124.9614491170787
-0.28470000000000006,-125.56977497602065
-0.28569999999999995,-126.3195719649491
-0.28670000000000007,-126.80057380690324
-0.28769999999999996,-127.45134100484115
-0.28870000000000007,-128.05966686378312
-0.28969999999999996,-128.54066870573723
-0.29070000000000007,-128.93678786969946
-0.29169999999999996,-129.2338772426711
-0.29270000000000007,-129.67243774562928
-0.29369999999999996,-130.1534395875834
-0.2947000000000001,-130.59200009054155
-0.29569999999999996,-131.15788461048754
-0.2967000000000001,-131.72376913043357
-0.29769999999999996,-132.41697766736743
-0.2987000000000001,-133.03945063930803
-0.29969999999999997,-133.5628938202581
-0.3007000000000001,-134.12877834020412
-0.30169999999999997,-134.56733884316228
-0.3027000000000001,-135.03419357211774
-0.30369999999999997,-135.34543005808808
-0.3047000000000001,-135.86887323903812
-0.30569999999999997,-136.3923164199882
-0.3067000000000001,-136.95820093993422
-0.3077,-137.48164412088425
-0.3087000000000001,-138.04752864083028
-0.3097,-138.65585449977226
-0.3107000000000001,-139.22173901971826
-0.3117,-139.80177065266292
-0.3127000000000001,-140.325213833613
-0.3137,-140.74962722357247
-0.3147000000000001,-141.18818772653066
-0.3157,-141.47112998650366
-0.3167000000000001,-142.03701450644968
-0.3177,-142.4614278964092
-0.3187000000000001,-143.0273124163552
-0.3197,-143.4517258063147
-0.3207000000000001,-144.15908145624724
-0.3217,-144.72496597619326
-0.3227000000000001,-145.29085049613926
-0.3237,-145.7152638860988
-0.3247000000000001,-146.1396772760583
-0.3257,-146.7055617960043
-0.3267000000000001,-146.9885040559773
-0.3277,-147.4129174459368
-0.3287000000000001,-147.83733083589632
-0.3297,-148.40321535584232
-0.3307000000000001,-148.82762874580186
-0.3317,-149.39351326574788
-0.3327000000000001,-150.1008689156804
-0.3337,-150.66675343562642
-0.3347000000000001,-151.23263795557244
-0.3357,-151.7985224755184
-0.3367000000000001,-152.36440699546444
-0.3377,-152.50587812545095
-0.3387000000000001,-152.93029151541046
-0.3397,-153.35470490536997
-0.3407000000000001,-153.920589425316
-0.3417,-154.3450028152755
-0.3427000000000001,-154.6279450752485
-0.3437,-155.19382959519453
-0.3447000000000001,-155.75971411514055
-0.3457,-156.18412750510007
-0.3467000000000001,-156.89148315503257
-0.3477,-157.45736767497857
-0.3487000000000001,-157.88178106493808
-0.3497,-158.3061944548976
-0.3507000000000001,-158.5891367148706
-0.3517,-158.87207897484362
-0.3527000000000001,-159.29649236480313
-0.3537,-160.00384801473567
-0.3547000000000001,-160.5697325346817
-0.3557,-160.99414592464117
-0.35670000000000013,-161.5600304445872
-0.3577,-161.84297270456022
-0.35870000000000013,-162.2673860945197
-0.3597,-162.6917994844792
-0.36070000000000013,-162.97474174445222
-0.3617,-163.11621287443873
-0.3626999999999999,-163.54062626439824
-0.3637,-163.96503965435775
-0.3646999999999999,-164.38945304431726
-0.3657,-165.09680869424977
-0.3666999999999999,-165.6626932141958
-0.3677,-166.0871066041553
-0.3686999999999999,-166.65299112410133
-0.36970000000000003,-167.36034677403384
-0.3706999999999999,-167.92623129397984
-0.37170000000000003,-168.35064468393938
-0.3726999999999999,-168.63358694391238
-0.37370000000000003,-168.91652920388537
-0.3746999999999999,-169.48241372383137
-0.37570000000000003,-170.18976937376394
-0.3766999999999999,-170.18976937376394
-0.37770000000000004,-170.89712502369645
-0.3786999999999999,-171.60448067362896
-0.37970000000000004,-172.17036519357498
-0.3806999999999999,-172.59477858353446
-0.38170000000000004,-172.87772084350746
-0.38269999999999993,-173.302134233467
-0.38370000000000004,-173.72654762342648
-0.38469999999999993,-174.0094898833995
-0.38570000000000004,-174.43390327335902
-0.38669999999999993,-174.57537440334553
-0.38770000000000004,-174.99978779330505
-0.38869999999999993,-175.28273005327804
-0.38970000000000005,-175.70714344323756
-0.39069999999999994,-176.27302796318358
-0.39170000000000005,-176.8389124831296
-0.39269999999999994,-177.1218547431026
-0.39370000000000005,-177.54626813306209
-0.39469999999999994,-178.1121526530081
-0.39570000000000005,-178.25362378299462
-0.39669999999999994,-178.53656604296762
-0.39770000000000005,-178.67803717295413
-0.39869999999999994,-179.10245056291362
-0.39970000000000006,-179.38539282288664
-0.40069999999999995,-179.80980621284618
-0.40170000000000006,-180.23421960280567
-0.40269999999999995,-180.5171618627787
-0.40370000000000006,-180.8001041227517
-0.40469999999999995,-181.2245175127112
-0.40570000000000006,-181.5074597726842
-0.40669999999999995,-181.79040203265723
-0.40770000000000006,-182.07334429263022
-0.40869999999999995,-182.21481542261674
-0.40970000000000006,-182.63922881257625
-0.41069999999999995,-182.92217107254925
-0.41170000000000007,-183.48805559249527
-0.41269999999999996,-183.91246898245475
-0.41370000000000007,-184.33688237241427
-0.41469999999999996,-184.7612957623738
-0.41570000000000007,-185.0442380223468
-0.41669999999999996,-185.0442380223468
-0.41770000000000007,-185.3271802823198
-0.41869999999999996,-185.6101225422928
-0.4197000000000001,-185.89306480226583
-0.42069999999999996,-186.31747819222534
-0.4217000000000001,-186.60042045219836
-0.42269999999999996,-187.16630497214436
-0.4237000000000001,-187.44924723211736
-0.42469999999999997,-187.73218949209036
-0.4257000000000001,-188.29807401203638
-0.42669999999999997,-188.58101627200938
-0.4277000000000001,-189.0054296619689
-0.42869999999999997,-189.1469007919554
-0.4297000000000001,-189.42984305192843
-0.43069999999999997,-189.8542564418879
-0.4317000000000001,-189.99572757187443
-0.4327,-190.27866983184742
-0.4337000000000001,-190.70308322180696
-0.4347,-190.84455435179345
-0.4357000000000001,-191.268967741753
-0.4367,-191.551910001726
-0.4377000000000001,-192.2592656516585
-0.4387,-192.40073678164498
-0.4397000000000001,-192.82515017160452
-0.4407,-192.966621301591
-0.4417000000000001,-193.249563561564
-0.4427,-193.532505821537
-0.4437000000000001,-193.81544808151003
-0.4447,-194.09839034148303
-0.4457000000000001,-194.38133260145605
-0.4467,-194.80574599141553
-0.4477000000000001,-194.94721712140205
-0.4487,-195.51310164134807
-0.4497000000000001,-195.79604390132107
-0.4507,-196.6448706812401
-0.4517000000000001,-196.6448706812401
-0.4527,-197.0692840711996
-0.4537000000000001,-197.35222633117263
-0.4547,-197.21075520118612
-0.4557000000000001,-197.77663972113214
-0.4567,-197.91811085111863
-0.4577000000000001,-197.91811085111863
-0.4587,-198.3425242410781
-0.4597000000000001,-198.62546650105114
-0.4607,-198.90840876102413
-0.4617000000000001,-199.04987989101065
-0.4627,-199.33282215098367
-0.4637000000000001,-199.61576441095667
-0.4647,-200.04017780091618
-0.4657000000000001,-200.18164893090267
-0.4667,-200.3231200608892
-0.4677000000000001,-200.18164893090267
-0.4687,-200.6060623208622
-0.4697000000000001,-200.6060623208622
-0.4707,-200.4645911908757
-0.4717000000000001,-200.88900458083523
-0.4727,-201.31341797079472
-0.4737000000000001,-201.73783136075423
-0.4747,-201.87930249074074
-0.4757000000000001,-202.02077362072723
-0.4767,-202.30371588070025
-0.4777000000000001,-202.7281292706598
-0.4787,-203.15254266061928
-0.4797000000000001,-203.29401379060576
-0.4807,-203.43548492059227
-0.48170000000000013,-203.57695605057876
-0.4827,-203.43548492059227
-0.48370000000000013,-203.43548492059227
-0.4847,-203.71842718056527
-0.48570000000000013,-203.71842718056527
-0.4867,-203.01107153063276
-0.48570000000000013,-200.3231200608892
-0.4847,-197.91811085111863
-0.48370000000000013,-195.51310164134807
-0.4827,-193.3910346915505
-0.48170000000000013,-191.12749661176645
-0.4807,-189.2883719219419
-0.4797000000000001,-187.16630497214436
-0.4787,-185.6101225422928
-0.4777000000000001,-183.91246898245475
-0.4767,-182.35628655260325
-0.4757000000000001,-180.5171618627787
-0.4747,-178.67803717295413
-0.4737000000000001,-176.98038361311612
-0.4727,-175.42420118326456
-0.4717000000000001,-173.58507649344
-0.4707,-172.0288940635885
-0.4697000000000001,-170.18976937376394
-0.4687,-168.77505807389886
-0.4677000000000001,-167.50181790402033
-0.4667,-165.94563547416882
-0.4657000000000001,-164.38945304431726
