Aug. 30, 2024   14:52:09
Cyclic Voltammetry
File: c:/users/guazh/data/20240829_batch_215_500/2024-08-29-exp221\exp221-2024-08-30t14_43_24-arkoh\exp221_cv_50mvs_efin_-1600mv.bin
Data Source:  Experiment
Instrument Model:  CHI760E
Header: CV ran at 50 mVs
Note: 

Init E (V) = -1
High E (V) = -1
Low E (V) = -1.6
Final E (V) = -1
Init P/N = N
Scan Rate (V/s) = 0.05
Segment = 7
Sample Interval (V) = 0.001
Quiet Time (sec) = 60
Sensitivity (A/V) = 0.001
Comp R (ohm) = 1.5

Results:

Channel 1:
Segment 1:

Segment 2:

Segment 3:

Segment 4:

Segment 5:

Segment 6:

Segment 7:

Potential/V, Current/A

-1.000, 8.465e-8
-1.001, 1.695e-7
-1.002, 1.853e-7
-1.003, 2.208e-7
-1.004, 2.543e-7
-1.005, 2.879e-7
-1.006, 3.303e-7
-1.007, 3.037e-7
-1.008, 3.293e-7
-1.009, 3.116e-7
-1.010, 3.599e-7
-1.011, 3.747e-7
-1.012, 3.461e-7
-1.013, 3.422e-7
-1.014, 3.875e-7
-1.015, 3.984e-7
-1.016, 4.043e-7
-1.017, 3.905e-7
-1.018, 4.319e-7
-1.019, 4.398e-7
-1.020, 4.290e-7
-1.021, 4.536e-7
-1.022, 4.359e-7
-1.023, 4.615e-7
-1.024, 4.536e-7
-1.025, 4.970e-7
-1.026, 4.665e-7
-1.027, 4.714e-7
-1.028, 4.744e-7
-1.029, 5.266e-7
-1.030, 5.059e-7
-1.031, 5.059e-7
-1.032, 5.040e-7
-1.033, 5.000e-7
-1.034, 5.207e-7
-1.035, 5.138e-7
-1.036, 5.276e-7
-1.037, 5.316e-7
-1.038, 5.661e-7
-1.039, 5.592e-7
-1.040, 5.503e-7
-1.041, 5.493e-7
-1.042, 5.641e-7
-1.043, 5.671e-7
-1.044, 5.651e-7
-1.045, 5.799e-7
-1.046, 5.908e-7
-1.047, 5.967e-7
-1.048, 6.095e-7
-1.049, 5.888e-7
-1.050, 6.046e-7
-1.051, 6.411e-7
-1.052, 6.510e-7
-1.053, 6.194e-7
-1.054, 5.937e-7
-1.055, 6.598e-7
-1.056, 6.598e-7
-1.057, 6.302e-7
-1.058, 6.559e-7
-1.059, 6.391e-7
-1.060, 6.391e-7
-1.061, 6.914e-7
-1.062, 6.618e-7
-1.063, 6.440e-7
-1.064, 6.588e-7
-1.065, 7.042e-7
-1.066, 7.023e-7
-1.067, 6.667e-7
-1.068, 7.210e-7
-1.069, 7.210e-7
-1.070, 6.983e-7
-1.071, 7.111e-7
-1.072, 7.072e-7
-1.073, 7.210e-7
-1.074, 7.151e-7
-1.075, 7.536e-7
-1.076, 7.575e-7
-1.077, 6.963e-7
-1.078, 7.605e-7
-1.079, 7.545e-7
-1.080, 7.545e-7
-1.081, 7.427e-7
-1.082, 7.693e-7
-1.083, 7.486e-7
-1.084, 7.782e-7
-1.085, 7.861e-7
-1.086, 7.693e-7
-1.087, 7.792e-7
-1.088, 7.920e-7
-1.089, 8.157e-7
-1.090, 7.684e-7
-1.091, 8.068e-7
-1.092, 7.891e-7
-1.093, 8.167e-7
-1.094, 8.266e-7
-1.095, 8.206e-7
-1.096, 8.088e-7
-1.097, 8.463e-7
-1.098, 8.493e-7
-1.099, 8.285e-7
-1.100, 8.187e-7
-1.101, 8.206e-7
-1.102, 8.966e-7
-1.103, 8.424e-7
-1.104, 8.285e-7
-1.105, 8.493e-7
-1.106, 8.690e-7
-1.107, 8.808e-7
-1.108, 8.887e-7
-1.109, 8.493e-7
-1.110, 9.025e-7
-1.111, 8.966e-7
-1.112, 9.055e-7
-1.113, 8.966e-7
-1.114, 9.085e-7
-1.115, 9.075e-7
-1.116, 9.233e-7
-1.117, 9.055e-7
-1.118, 8.818e-7
-1.119, 9.075e-7
-1.120, 9.154e-7
-1.121, 9.292e-7
-1.122, 9.203e-7
-1.123, 9.242e-7
-1.124, 9.075e-7
-1.125, 9.529e-7
-1.126, 9.400e-7
-1.127, 9.529e-7
-1.128, 9.450e-7
-1.129, 9.953e-7
-1.130, 9.558e-7
-1.131, 9.795e-7
-1.132, 9.903e-7
-1.133, 1.026e-6
-1.134, 9.617e-7
-1.135, 1.006e-6
-1.136, 9.637e-7
-1.137, 9.913e-7
-1.138, 9.992e-7
-1.139, 1.037e-6
-1.140, 1.001e-6
-1.141, 1.003e-6
-1.142, 1.049e-6
-1.143, 1.038e-6
-1.144, 9.864e-7
-1.145, 1.017e-6
-1.146, 1.081e-6
-1.147, 1.010e-6
-1.148, 9.785e-7
-1.149, 1.007e-6
-1.150, 1.038e-6
-1.151, 1.052e-6
-1.152, 1.066e-6
-1.153, 1.081e-6
-1.154, 1.061e-6
-1.155, 1.092e-6
-1.156, 1.099e-6
-1.157, 1.034e-6
-1.158, 1.098e-6
-1.159, 1.143e-6
-1.160, 1.105e-6
-1.161, 1.106e-6
-1.162, 1.145e-6
-1.163, 1.075e-6
-1.164, 1.041e-6
-1.165, 1.068e-6
-1.166, 1.115e-6
-1.167, 1.134e-6
-1.168, 1.154e-6
-1.169, 1.128e-6
-1.170, 1.126e-6
-1.171, 1.125e-6
-1.172, 1.164e-6
-1.173, 1.133e-6
-1.174, 1.120e-6
-1.175, 1.179e-6
-1.176, 1.160e-6
-1.177, 1.175e-6
-1.178, 1.142e-6
-1.179, 1.183e-6
-1.180, 1.138e-6
-1.181, 1.119e-6
-1.182, 1.144e-6
-1.183, 1.192e-6
-1.184, 1.196e-6
-1.185, 1.185e-6
-1.186, 1.203e-6
-1.187, 1.213e-6
-1.188, 1.182e-6
-1.189, 1.220e-6
-1.190, 1.215e-6
-1.191, 1.202e-6
-1.192, 1.209e-6
-1.193, 1.235e-6
-1.194, 1.231e-6
-1.195, 1.205e-6
-1.196, 1.234e-6
-1.197, 1.278e-6
-1.198, 1.239e-6
-1.199, 1.262e-6
-1.200, 1.267e-6
-1.201, 1.263e-6
-1.202, 1.259e-6
-1.203, 1.280e-6
-1.204, 1.251e-6
-1.205, 1.273e-6
-1.206, 1.279e-6
-1.207, 1.298e-6
-1.208, 1.264e-6
-1.209, 1.288e-6
-1.210, 1.314e-6
-1.211, 1.286e-6
-1.212, 1.286e-6
-1.213, 1.330e-6
-1.214, 1.298e-6
-1.215, 1.323e-6
-1.216, 1.359e-6
-1.217, 1.321e-6
-1.218, 1.343e-6
-1.219, 1.335e-6
-1.220, 1.335e-6
-1.221, 1.331e-6
-1.222, 1.316e-6
-1.223, 1.349e-6
-1.224, 1.363e-6
-1.225, 1.360e-6
-1.226, 1.393e-6
-1.227, 1.370e-6
-1.228, 1.362e-6
-1.229, 1.405e-6
-1.230, 1.379e-6
-1.231, 1.379e-6
-1.232, 1.412e-6
-1.233, 1.406e-6
-1.234, 1.417e-6
-1.235, 1.410e-6
-1.236, 1.419e-6
-1.237, 1.438e-6
-1.238, 1.432e-6
-1.239, 1.418e-6
-1.240, 1.433e-6
-1.241, 1.412e-6
-1.242, 1.455e-6
-1.243, 1.408e-6
-1.244, 1.426e-6
-1.245, 1.463e-6
-1.246, 1.464e-6
-1.247, 1.464e-6
-1.248, 1.471e-6
-1.249, 1.467e-6
-1.250, 1.485e-6
-1.251, 1.484e-6
-1.252, 1.466e-6
-1.253, 1.500e-6
-1.254, 1.466e-6
-1.255, 1.530e-6
-1.256, 1.495e-6
-1.257, 1.532e-6
-1.258, 1.494e-6
-1.259, 1.512e-6
-1.260, 1.518e-6
-1.261, 1.540e-6
-1.262, 1.529e-6
-1.263, 1.553e-6
-1.264, 1.564e-6
-1.265, 1.531e-6
-1.266, 1.548e-6
-1.267, 1.569e-6
-1.268, 1.569e-6
-1.269, 1.573e-6
-1.270, 1.566e-6
-1.271, 1.591e-6
-1.272, 1.585e-6
-1.273, 1.616e-6
-1.274, 1.579e-6
-1.275, 1.561e-6
-1.276, 1.584e-6
-1.277, 1.638e-6
-1.278, 1.564e-6
-1.279, 1.587e-6
-1.280, 1.646e-6
-1.281, 1.614e-6
-1.282, 1.613e-6
-1.283, 1.646e-6
-1.284, 1.646e-6
-1.285, 1.669e-6
-1.286, 1.657e-6
-1.287, 1.645e-6
-1.288, 1.633e-6
-1.289, 1.652e-6
-1.290, 1.662e-6
-1.291, 1.664e-6
-1.292, 1.643e-6
-1.293, 1.700e-6
-1.294, 1.732e-6
-1.295, 1.671e-6
-1.296, 1.681e-6
-1.297, 1.664e-6
-1.298, 1.737e-6
-1.299, 1.725e-6
-1.300, 1.725e-6
-1.301, 1.762e-6
-1.302, 1.750e-6
-1.303, 1.682e-6
-1.304, 1.696e-6
-1.305, 1.727e-6
-1.306, 1.782e-6
-1.307, 1.809e-6
-1.308, 1.776e-6
-1.309, 1.777e-6
-1.310, 1.764e-6
-1.311, 1.745e-6
-1.312, 1.810e-6
-1.313, 1.811e-6
-1.314, 1.822e-6
-1.315, 1.804e-6
-1.316, 1.840e-6
-1.317, 1.832e-6
-1.318, 1.791e-6
-1.319, 1.842e-6
-1.320, 1.836e-6
-1.321, 1.877e-6
-1.322, 1.857e-6
-1.323, 1.869e-6
-1.324, 1.899e-6
-1.325, 1.871e-6
-1.326, 1.845e-6
-1.327, 1.858e-6
-1.328, 1.866e-6
-1.329, 1.906e-6
-1.330, 1.907e-6
-1.331, 1.904e-6
-1.332, 1.936e-6
-1.333, 1.924e-6
-1.334, 1.952e-6
-1.335, 1.915e-6
-1.336, 1.905e-6
-1.337, 1.907e-6
-1.338, 1.997e-6
-1.339, 1.945e-6
-1.340, 1.976e-6
-1.341, 1.943e-6
-1.342, 1.947e-6
-1.343, 1.999e-6
-1.344, 2.025e-6
-1.345, 1.962e-6
-1.346, 1.975e-6
-1.347, 2.015e-6
-1.348, 2.009e-6
-1.349, 1.992e-6
-1.350, 2.027e-6
-1.351, 2.064e-6
-1.352, 2.046e-6
-1.353, 2.048e-6
-1.354, 2.013e-6
-1.355, 2.015e-6
-1.356, 2.040e-6
-1.357, 2.041e-6
-1.358, 2.040e-6
-1.359, 2.054e-6
-1.360, 2.071e-6
-1.361, 2.102e-6
-1.362, 2.042e-6
-1.363, 2.041e-6
-1.364, 2.020e-6
-1.365, 2.062e-6
-1.366, 2.109e-6
-1.367, 2.113e-6
-1.368, 2.131e-6
-1.369, 2.130e-6
-1.370, 2.085e-6
-1.371, 2.098e-6
-1.372, 2.084e-6
-1.373, 2.122e-6
-1.374, 2.151e-6
-1.375, 2.128e-6
-1.376, 2.144e-6
-1.377, 2.156e-6
-1.378, 2.203e-6
-1.379, 2.187e-6
-1.380, 2.166e-6
-1.381, 2.123e-6
-1.382, 2.145e-6
-1.383, 2.227e-6
-1.384, 2.234e-6
-1.385, 2.239e-6
-1.386, 2.201e-6
-1.387, 2.212e-6
-1.388, 2.224e-6
-1.389, 2.220e-6
-1.390, 2.225e-6
-1.391, 2.243e-6
-1.392, 2.261e-6
-1.393, 2.265e-6
-1.394, 2.191e-6
-1.395, 2.289e-6
-1.396, 2.210e-6
-1.397, 2.249e-6
-1.398, 2.280e-6
-1.399, 2.341e-6
-1.400, 2.343e-6
-1.401, 2.349e-6
-1.402, 2.312e-6
-1.403, 2.322e-6
-1.404, 2.313e-6
-1.405, 2.323e-6
-1.406, 2.292e-6
-1.407, 2.318e-6
-1.408, 2.345e-6
-1.409, 2.379e-6
-1.410, 2.365e-6
-1.411, 2.372e-6
-1.412, 2.370e-6
-1.413, 2.416e-6
-1.414, 2.439e-6
-1.415, 2.402e-6
-1.416, 2.443e-6
-1.417, 2.473e-6
-1.418, 2.462e-6
-1.419, 2.424e-6
-1.420, 2.428e-6
-1.421, 2.484e-6
-1.422, 2.459e-6
-1.423, 2.486e-6
-1.424, 2.494e-6
-1.425, 2.521e-6
-1.426, 2.526e-6
-1.427, 2.517e-6
-1.428, 2.531e-6
-1.429, 2.498e-6
-1.430, 2.578e-6
-1.431, 2.536e-6
-1.432, 2.570e-6
-1.433, 2.591e-6
-1.434, 2.627e-6
-1.435, 2.581e-6
-1.436, 2.631e-6
-1.437, 2.673e-6
-1.438, 2.678e-6
-1.439, 2.648e-6
-1.440, 2.671e-6
-1.441, 2.666e-6
-1.442, 2.723e-6
-1.443, 2.693e-6
-1.444, 2.754e-6
-1.445, 2.751e-6
-1.446, 2.689e-6
-1.447, 2.754e-6
-1.448, 2.753e-6
-1.449, 2.739e-6
-1.450, 2.815e-6
-1.451, 2.825e-6
-1.452, 2.755e-6
-1.453, 2.816e-6
-1.454, 2.836e-6
-1.455, 2.824e-6
-1.456, 2.842e-6
-1.457, 2.895e-6
-1.458, 2.922e-6
-1.459, 2.900e-6
-1.460, 2.840e-6
-1.461, 2.895e-6
-1.462, 2.935e-6
-1.463, 2.939e-6
-1.464, 2.919e-6
-1.465, 2.925e-6
-1.466, 2.948e-6
-1.467, 2.974e-6
-1.468, 2.981e-6
-1.469, 3.017e-6
-1.470, 3.013e-6
-1.471, 3.021e-6
-1.472, 2.993e-6
-1.473, 3.046e-6
-1.474, 3.091e-6
-1.475, 3.078e-6
-1.476, 3.094e-6
-1.477, 3.125e-6
-1.478, 3.164e-6
-1.479, 3.161e-6
-1.480, 3.133e-6
-1.481, 3.193e-6
-1.482, 3.187e-6
-1.483, 3.200e-6
-1.484, 3.186e-6
-1.485, 3.197e-6
-1.486, 3.223e-6
-1.487, 3.226e-6
-1.488, 3.255e-6
-1.489, 3.263e-6
-1.490, 3.297e-6
-1.491, 3.331e-6
-1.492, 3.389e-6
-1.493, 3.433e-6
-1.494, 3.463e-6
-1.495, 3.403e-6
-1.496, 3.402e-6
-1.497, 3.326e-6
-1.498, 3.384e-6
-1.499, 3.363e-6
-1.500, 3.432e-6
-1.501, 3.471e-6
-1.502, 3.471e-6
-1.503, 3.500e-6
-1.504, 3.521e-6
-1.505, 3.501e-6
-1.506, 3.527e-6
-1.507, 3.572e-6
-1.508, 3.641e-6
-1.509, 3.669e-6
-1.510, 3.702e-6
-1.511, 3.727e-6
-1.512, 3.526e-6
-1.513, 3.545e-6
-1.514, 3.569e-6
-1.515, 3.622e-6
-1.516, 3.610e-6
-1.517, 3.630e-6
-1.518, 3.638e-6
-1.519, 3.636e-6
-1.520, 3.689e-6
-1.521, 3.759e-6
-1.522, 3.706e-6
-1.523, 3.674e-6
-1.524, 3.747e-6
-1.525, 3.787e-6
-1.526, 3.736e-6
-1.527, 3.790e-6
-1.528, 3.815e-6
-1.529, 3.834e-6
-1.530, 3.809e-6
-1.531, 3.894e-6
-1.532, 3.873e-6
-1.533, 3.888e-6
-1.534, 3.904e-6
-1.535, 3.919e-6
-1.536, 3.932e-6
-1.537, 4.068e-6
-1.538, 4.086e-6
-1.539, 4.099e-6
-1.540, 4.093e-6
-1.541, 4.127e-6
-1.542, 4.126e-6
-1.543, 4.209e-6
-1.544, 4.261e-6
-1.545, 4.192e-6
-1.546, 4.268e-6
-1.547, 4.314e-6
-1.548, 4.311e-6
-1.549, 4.360e-6
-1.550, 4.355e-6
-1.551, 4.376e-6
-1.552, 4.352e-6
-1.553, 4.362e-6
-1.554, 4.491e-6
-1.555, 4.375e-6
-1.556, 4.404e-6
-1.557, 4.454e-6
-1.558, 4.422e-6
-1.559, 4.422e-6
-1.560, 4.403e-6
-1.561, 4.479e-6
-1.562, 4.576e-6
-1.563, 4.513e-6
-1.564, 4.578e-6
-1.565, 4.599e-6
-1.566, 4.703e-6
-1.567, 4.671e-6
-1.568, 4.659e-6
-1.569, 4.690e-6
-1.570, 4.714e-6
-1.571, 4.712e-6
-1.572, 4.770e-6
-1.573, 4.827e-6
-1.574, 4.847e-6
-1.575, 4.886e-6
-1.576, 4.902e-6
-1.577, 4.981e-6
-1.578, 4.982e-6
-1.579, 4.989e-6
-1.580, 5.036e-6
-1.581, 5.135e-6
-1.582, 5.057e-6
-1.583, 5.134e-6
-1.584, 5.107e-6
-1.585, 5.171e-6
-1.586, 5.176e-6
-1.587, 5.220e-6
-1.588, 5.315e-6
-1.589, 5.381e-6
-1.590, 5.266e-6
-1.591, 5.449e-6
-1.592, 5.548e-6
-1.593, 5.517e-6
-1.594, 5.549e-6
-1.595, 5.528e-6
-1.596, 5.658e-6
-1.597, 5.719e-6
-1.598, 5.761e-6
-1.599, 5.933e-6
-1.600, 5.180e-6
-1.599, 4.707e-6
-1.598, 4.308e-6
-1.597, 4.297e-6
-1.596, 4.333e-6
-1.595, 4.201e-6
-1.594, 3.989e-6
-1.593, 4.050e-6
-1.592, 3.781e-6
-1.591, 3.767e-6
-1.590, 3.567e-6
-1.589, 3.692e-6
-1.588, 3.430e-6
-1.587, 3.088e-6
-1.586, 3.080e-6
-1.585, 3.007e-6
-1.584, 2.937e-6
-1.583, 2.885e-6
-1.582, 2.830e-6
-1.581, 2.727e-6
-1.580, 2.690e-6
-1.579, 2.642e-6
-1.578, 2.572e-6
-1.577, 2.479e-6
-1.576, 2.472e-6
-1.575, 2.447e-6
-1.574, 2.350e-6
-1.573, 2.331e-6
-1.572, 2.313e-6
-1.571, 2.205e-6
-1.570, 2.159e-6
-1.569, 2.149e-6
-1.568, 2.087e-6
-1.567, 2.003e-6
-1.566, 1.908e-6
-1.565, 1.872e-6
-1.564, 1.878e-6
-1.563, 1.912e-6
-1.562, 1.855e-6
-1.561, 1.829e-6
-1.560, 1.792e-6
-1.559, 1.770e-6
-1.558, 1.692e-6
-1.557, 1.669e-6
-1.556, 1.687e-6
-1.555, 1.584e-6
-1.554, 1.574e-6
-1.553, 1.550e-6
-1.552, 1.484e-6
-1.551, 1.508e-6
-1.550, 1.438e-6
-1.549, 1.403e-6
-1.548, 1.353e-6
-1.547, 1.355e-6
-1.546, 1.365e-6
-1.545, 1.382e-6
-1.544, 1.358e-6
-1.543, 1.264e-6
-1.542, 1.241e-6
-1.541, 1.187e-6
-1.540, 1.133e-6
-1.539, 1.157e-6
-1.538, 1.128e-6
-1.537, 1.073e-6
-1.536, 1.075e-6
-1.535, 1.062e-6
-1.534, 1.016e-6
-1.533, 9.677e-7
-1.532, 9.775e-7
-1.531, 9.509e-7
-1.530, 8.641e-7
-1.529, 9.114e-7
-1.528, 8.710e-7
-1.527, 8.483e-7
-1.526, 8.295e-7
-1.525, 8.197e-7
-1.524, 7.950e-7
-1.523, 7.437e-7
-1.522, 7.595e-7
-1.521, 7.674e-7
-1.520, 7.092e-7
-1.519, 7.230e-7
-1.518, 6.648e-7
-1.517, 6.855e-7
-1.516, 6.302e-7
-1.515, 6.342e-7
-1.514, 5.957e-7
-1.513, 5.878e-7
-1.512, 5.503e-7
-1.511, 5.533e-7
-1.510, 5.414e-7
-1.509, 4.822e-7
-1.508, 4.862e-7
-1.507, 5.000e-7
-1.506, 4.625e-7
-1.505, 4.615e-7
-1.504, 4.369e-7
-1.503, 4.388e-7
-1.502, 4.171e-7
-1.501, 3.944e-7
-1.500, 3.856e-7
-1.499, 4.191e-7
-1.498, 3.402e-7
-1.497, 3.471e-7
-1.496, 3.905e-7
-1.495, 2.869e-7
-1.494, 3.204e-7
-1.493, 3.234e-7
-1.492, 3.126e-7
-1.491, 2.672e-7
-1.490, 2.553e-7
-1.489, 2.672e-7
-1.488, 2.080e-7
-1.487, 2.060e-7
-1.486, 2.386e-7
-1.485, 1.922e-7
-1.484, 1.192e-7
-1.483, 1.508e-7
-1.482, 1.961e-7
-1.481, 1.409e-7
-1.480, 1.271e-7
-1.479, 1.310e-7
-1.478, 1.567e-7
-1.477, 1.123e-7
-1.476, 1.152e-7
-1.475, 1.103e-7
-1.474, 8.958e-8
-1.473, 6.886e-8
-1.472, 7.478e-8
-1.471, 9.550e-8
-1.470, 3.137e-8
-1.469, 7.281e-8
-1.468, 1.559e-8
-1.467, 1.460e-8
-1.466, -2.092e-8
-1.465, -8.307e-8
-1.464, -1.008e-7
-1.463, -1.137e-7
-1.462, -1.204e-8
-1.461, -1.184e-9
-1.460, -2.486e-8
-1.459, -4.657e-8
-1.458, -4.262e-8
-1.457, -2.486e-8
-1.456, -6.729e-8
-1.455, -6.433e-8
-1.454, -7.617e-8
-1.453, -8.208e-8
-1.452, -1.304e-7
-1.451, -1.275e-7
-1.450, -1.452e-7
-1.449, -2.103e-7
-1.448, -2.251e-7
-1.447, -2.350e-7
-1.446, -1.502e-7
-1.445, -1.847e-7
-1.444, -1.403e-7
-1.443, -1.630e-7
-1.442, -1.965e-7
-1.441, -1.502e-7
-1.440, -1.857e-7
-1.439, -2.005e-7
-1.438, -1.906e-7
-1.437, -1.847e-7
-1.436, -2.202e-7
-1.435, -1.097e-7
-1.434, -1.610e-7
-1.433, -1.600e-7
-1.432, -2.242e-7
-1.431, -2.439e-7
-1.430, -2.330e-7
-1.429, -2.202e-7
-1.428, -2.656e-7
-1.427, -2.538e-7
-1.426, -2.794e-7
-1.425, -2.666e-7
-1.424, -2.705e-7
-1.423, -3.051e-7
-1.422, -2.498e-7
-1.421, -2.981e-7
-1.420, -2.853e-7
-1.419, -3.041e-7
-1.418, -2.547e-7
-1.417, -3.613e-7
-1.416, -3.199e-7
-1.415, -3.268e-7
-1.414, -3.652e-7
-1.413, -3.386e-7
-1.412, -3.090e-7
-1.411, -3.139e-7
-1.410, -3.248e-7
-1.409, -3.090e-7
-1.408, -3.347e-7
-1.407, -3.731e-7
-1.406, -3.662e-7
-1.405, -3.751e-7
-1.404, -3.810e-7
-1.403, -3.998e-7
-1.402, -4.165e-7
-1.401, -3.860e-7
-1.400, -3.840e-7
-1.399, -4.027e-7
-1.398, -3.386e-7
-1.397, -3.652e-7
-1.396, -3.820e-7
-1.395, -3.938e-7
-1.394, -4.175e-7
-1.393, -4.264e-7
-1.392, -4.392e-7
-1.391, -3.958e-7
-1.390, -3.287e-7
-1.389, -2.626e-7
-1.388, -4.225e-7
-1.387, -4.452e-7
-1.386, -4.521e-7
-1.385, -4.639e-7
-1.384, -4.363e-7
-1.383, -4.116e-7
-1.382, -4.856e-7
-1.381, -4.915e-7
-1.380, -4.600e-7
-1.379, -4.846e-7
-1.378, -4.688e-7
-1.377, -4.728e-7
-1.376, -4.915e-7
-1.375, -5.093e-7
-1.374, -5.024e-7
-1.373, -5.053e-7
-1.372, -5.093e-7
-1.371, -4.984e-7
-1.370, -5.142e-7
-1.369, -5.596e-7
-1.368, -4.994e-7
-1.367, -5.280e-7
-1.366, -5.379e-7
-1.365, -5.142e-7
-1.364, -5.458e-7
-1.363, -5.468e-7
-1.362, -5.586e-7
-1.361, -5.261e-7
-1.360, -5.389e-7
-1.359, -5.576e-7
-1.358, -5.596e-7
-1.357, -6.139e-7
-1.356, -5.369e-7
-1.355, -5.774e-7
-1.354, -5.606e-7
-1.353, -5.557e-7
-1.352, -5.468e-7
-1.351, -5.774e-7
-1.350, -6.099e-7
-1.349, -5.586e-7
-1.348, -5.478e-7
-1.347, -6.099e-7
-1.346, -5.882e-7
-1.345, -5.675e-7
-1.344, -5.635e-7
-1.343, -6.227e-7
-1.342, -5.714e-7
-1.341, -5.862e-7
-1.340, -6.267e-7
-1.339, -6.040e-7
-1.338, -5.981e-7
-1.337, -6.218e-7
-1.336, -6.060e-7
-1.335, -5.754e-7
-1.334, -6.287e-7
-1.333, -6.415e-7
-1.332, -6.089e-7
-1.331, -6.257e-7
-1.330, -6.494e-7
-1.329, -6.218e-7
-1.328, -5.912e-7
-1.327, -6.839e-7
-1.326, -6.583e-7
-1.325, -6.198e-7
-1.324, -6.454e-7
-1.323, -6.583e-7
-1.322, -6.444e-7
-1.321, -6.158e-7
-1.320, -6.612e-7
-1.319, -6.731e-7
-1.318, -6.375e-7
-1.317, -7.056e-7
-1.316, -6.563e-7
-1.315, -6.859e-7
-1.314, -7.115e-7
-1.313, -7.332e-7
-1.312, -7.500e-7
-1.311, -7.569e-7
-1.310, -7.145e-7
-1.309, -6.849e-7
-1.308, -6.859e-7
-1.307, -6.612e-7
-1.306, -6.721e-7
-1.305, -6.790e-7
-1.304, -6.760e-7
-1.303, -6.681e-7
-1.302, -6.888e-7
-1.301, -6.691e-7
-1.300, -6.800e-7
-1.299, -7.135e-7
-1.298, -6.948e-7
-1.297, -6.819e-7
-1.296, -7.323e-7
-1.295, -7.135e-7
-1.294, -6.790e-7
-1.293, -7.105e-7
-1.292, -7.461e-7
-1.291, -6.918e-7
-1.290, -6.948e-7
-1.289, -7.421e-7
-1.288, -7.086e-7
-1.287, -6.869e-7
-1.286, -7.609e-7
-1.285, -7.461e-7
-1.284, -6.849e-7
-1.283, -7.303e-7
-1.282, -7.451e-7
-1.281, -7.115e-7
-1.280, -7.125e-7
-1.279, -7.323e-7
-1.278, -7.382e-7
-1.277, -7.066e-7
-1.276, -7.175e-7
-1.275, -7.618e-7
-1.274, -6.948e-7
-1.273, -7.480e-7
-1.272, -7.224e-7
-1.271, -7.421e-7
-1.270, -7.175e-7
-1.269, -7.313e-7
-1.268, -7.253e-7
-1.267, -7.204e-7
-1.266, -7.678e-7
-1.265, -7.401e-7
-1.264, -7.342e-7
-1.263, -7.747e-7
-1.262, -7.697e-7
-1.261, -7.461e-7
-1.260, -7.678e-7
-1.259, -7.688e-7
-1.258, -7.342e-7
-1.257, -7.480e-7
-1.256, -7.234e-7
-1.255, -7.658e-7
-1.254, -7.411e-7
-1.253, -7.313e-7
-1.252, -7.451e-7
-1.251, -7.540e-7
-1.250, -7.372e-7
-1.249, -7.362e-7
-1.248, -7.214e-7
-1.247, -7.569e-7
-1.246, -7.875e-7
-1.245, -7.658e-7
-1.244, -7.757e-7
-1.243, -7.816e-7
-1.242, -7.342e-7
-1.241, -7.924e-7
-1.240, -7.727e-7
-1.239, -8.023e-7
-1.238, -7.441e-7
-1.237, -7.826e-7
-1.236, -7.618e-7
-1.235, -7.668e-7
-1.234, -7.845e-7
-1.233, -7.697e-7
-1.232, -7.510e-7
-1.231, -7.510e-7
-1.230, -7.717e-7
-1.229, -8.191e-7
-1.228, -7.323e-7
-1.227, -7.855e-7
-1.226, -7.727e-7
-1.225, -7.688e-7
-1.224, -7.855e-7
-1.223, -7.974e-7
-1.222, -7.786e-7
-1.221, -7.984e-7
-1.220, -7.974e-7
-1.219, -7.984e-7
-1.218, -7.806e-7
-1.217, -8.092e-7
-1.216, -8.122e-7
-1.215, -8.339e-7
-1.214, -7.648e-7
-1.213, -7.618e-7
-1.212, -8.230e-7
-1.211, -7.668e-7
-1.210, -7.796e-7
-1.209, -8.309e-7
-1.208, -8.102e-7
-1.207, -7.964e-7
-1.206, -8.072e-7
-1.205, -7.954e-7
-1.204, -7.500e-7
-1.203, -7.914e-7
-1.202, -8.043e-7
-1.201, -8.053e-7
-1.200, -7.885e-7
-1.199, -8.280e-7
-1.198, -8.358e-7
-1.197, -7.865e-7
-1.196, -8.132e-7
-1.195, -8.191e-7
-1.194, -7.579e-7
-1.193, -8.654e-7
-1.192, -8.250e-7
-1.191, -8.230e-7
-1.190, -7.984e-7
-1.189, -8.546e-7
-1.188, -7.964e-7
-1.187, -8.151e-7
-1.186, -8.339e-7
-1.185, -8.270e-7
-1.184, -7.766e-7
-1.183, -8.398e-7
-1.182, -8.388e-7
-1.181, -8.349e-7
-1.180, -8.023e-7
-1.179, -8.516e-7
-1.178, -8.319e-7
-1.177, -8.250e-7
-1.176, -8.566e-7
-1.175, -8.398e-7
-1.174, -8.733e-7
-1.173, -8.585e-7
-1.172, -8.783e-7
-1.171, -9.286e-7
-1.170, -9.237e-7
-1.169, -8.822e-7
-1.168, -8.329e-7
-1.167, -8.368e-7
-1.166, -8.625e-7
-1.165, -8.349e-7
-1.164, -8.536e-7
-1.163, -8.595e-7
-1.162, -8.704e-7
-1.161, -8.536e-7
-1.160, -8.270e-7
-1.159, -8.753e-7
-1.158, -8.230e-7
-1.157, -8.625e-7
-1.156, -8.615e-7
-1.155, -8.625e-7
-1.154, -8.427e-7
-1.153, -8.497e-7
-1.152, -8.871e-7
-1.151, -8.516e-7
-1.150, -8.654e-7
-1.149, -8.783e-7
-1.148, -8.812e-7
-1.147, -8.349e-7
-1.146, -8.694e-7
-1.145, -8.743e-7
-1.144, -8.556e-7
-1.143, -8.773e-7
-1.142, -8.970e-7
-1.141, -8.536e-7
-1.140, -8.526e-7
-1.139, -9.039e-7
-1.138, -8.753e-7
-1.137, -8.960e-7
-1.136, -8.497e-7
-1.135, -8.842e-7
-1.134, -8.714e-7
-1.133, -8.635e-7
-1.132, -8.901e-7
-1.131, -8.763e-7
-1.130, -9.000e-7
-1.129, -8.891e-7
-1.128, -9.039e-7
-1.127, -9.059e-7
-1.126, -8.793e-7
-1.125, -9.296e-7
-1.124, -8.743e-7
-1.123, -8.852e-7
-1.122, -9.148e-7
-1.121, -9.227e-7
-1.120, -8.960e-7
-1.119, -9.049e-7
-1.118, -9.010e-7
-1.117, -9.217e-7
-1.116, -8.812e-7
-1.115, -9.128e-7
-1.114, -9.483e-7
-1.113, -8.960e-7
-1.112, -8.990e-7
-1.111, -9.138e-7
-1.110, -8.960e-7
-1.109, -8.941e-7
-1.108, -9.207e-7
-1.107, -9.365e-7
-1.106, -9.286e-7
-1.105, -9.010e-7
-1.104, -9.463e-7
-1.103, -9.503e-7
-1.102, -9.286e-7
-1.101, -9.237e-7
-1.100, -9.286e-7
-1.099, -9.404e-7
-1.098, -9.049e-7
-1.097, -9.345e-7
-1.096, -9.365e-7
-1.095, -9.108e-7
-1.094, -9.256e-7
-1.093, -9.375e-7
-1.092, -9.335e-7
-1.091, -9.572e-7
-1.090, -9.434e-7
-1.089, -9.542e-7
-1.088, -9.483e-7
-1.087, -9.503e-7
-1.086, -9.661e-7
-1.085, -9.503e-7
-1.084, -9.098e-7
-1.083, -9.483e-7
-1.082, -9.789e-7
-1.081, -9.463e-7
-1.080, -9.582e-7
-1.079, -9.661e-7
-1.078, -9.542e-7
-1.077, -9.700e-7
-1.076, -9.680e-7
-1.075, -9.740e-7
-1.074, -9.720e-7
-1.073, -9.602e-7
-1.072, -9.740e-7
-1.071, -9.463e-7
-1.070, -9.799e-7
-1.069, -9.740e-7
-1.068, -9.828e-7
-1.067, -9.572e-7
-1.066, -1.009e-6
-1.065, -1.009e-6
-1.064, -9.759e-7
-1.063, -9.888e-7
-1.062, -1.010e-6
-1.061, -9.542e-7
-1.060, -1.002e-6
-1.059, -9.927e-7
-1.058, -1.037e-6
-1.057, -9.444e-7
-1.056, -9.947e-7
-1.055, -9.779e-7
-1.054, -1.015e-6
-1.053, -9.759e-7
-1.052, -1.015e-6
-1.051, -9.907e-7
-1.050, -9.740e-7
-1.049, -1.028e-6
-1.048, -1.037e-6
-1.047, -9.868e-7
-1.046, -1.011e-6
-1.045, -1.033e-6
-1.044, -1.022e-6
-1.043, -1.008e-6
-1.042, -1.043e-6
-1.041, -1.019e-6
-1.040, -1.004e-6
-1.039, -1.012e-6
-1.038, -1.008e-6
-1.037, -1.002e-6
-1.036, -1.032e-6
-1.035, -1.048e-6
-1.034, -1.037e-6
-1.033, -1.069e-6
-1.032, -1.082e-6
-1.031, -1.116e-6
-1.030, -1.120e-6
-1.029, -1.087e-6
-1.028, -1.023e-6
-1.027, -1.027e-6
-1.026, -1.047e-6
-1.025, -1.071e-6
-1.024, -1.035e-6
-1.023, -1.051e-6
-1.022, -1.065e-6
-1.021, -1.102e-6
-1.020, -1.044e-6
-1.019, -1.065e-6
-1.018, -1.069e-6
-1.017, -1.068e-6
-1.016, -1.052e-6
-1.015, -1.076e-6
-1.014, -1.090e-6
-1.013, -1.057e-6
-1.012, -1.046e-6
-1.011, -1.101e-6
-1.010, -1.099e-6
-1.009, -1.086e-6
-1.008, -1.084e-6
-1.007, -1.097e-6
-1.006, -1.072e-6
-1.005, -1.062e-6
-1.004, -1.082e-6
-1.003, -1.089e-6
-1.002, -1.077e-6
-1.001, -1.124e-6
-1.000, -8.151e-7
-1.001, -6.326e-7
-1.002, -5.843e-7
-1.003, -4.836e-7
-1.004, -4.323e-7
-1.005, -3.810e-7
-1.006, -3.830e-7
-1.007, -3.317e-7
-1.008, -2.745e-7
-1.009, -2.330e-7
-1.010, -2.370e-7
-1.011, -1.472e-7
-1.012, -1.571e-7
-1.013, -1.630e-7
-1.014, -8.011e-8
-1.015, -7.518e-8
-1.016, -1.058e-7
-1.017, -3.374e-8
-1.018, -2.190e-8
-1.019, -2.881e-8
-1.020, 5.722e-9
-1.021, 2.841e-8
-1.022, 2.644e-8
-1.023, 4.025e-8
-1.024, 1.024e-7
-1.025, 7.084e-8
-1.026, 7.281e-8
-1.027, 1.409e-7
-1.028, 1.468e-7
-1.029, 1.527e-7
-1.030, 1.261e-7
-1.031, 1.764e-7
-1.032, 1.794e-7
-1.033, 1.873e-7
-1.034, 2.119e-7
-1.035, 1.843e-7
-1.036, 2.001e-7
-1.037, 2.376e-7
-1.038, 2.109e-7
-1.039, 2.395e-7
-1.040, 2.642e-7
-1.041, 2.465e-7
-1.042, 2.632e-7
-1.043, 3.027e-7
-1.044, 2.682e-7
-1.045, 3.027e-7
-1.046, 3.323e-7
-1.047, 2.978e-7
-1.048, 2.958e-7
-1.049, 3.402e-7
-1.050, 3.392e-7
-1.051, 3.047e-7
-1.052, 3.274e-7
-1.053, 3.836e-7
-1.054, 3.481e-7
-1.055, 3.570e-7
-1.056, 3.905e-7
-1.057, 3.865e-7
-1.058, 3.885e-7
-1.059, 3.885e-7
-1.060, 4.112e-7
-1.061, 4.102e-7
-1.062, 4.112e-7
-1.063, 4.319e-7
-1.064, 4.319e-7
-1.065, 4.122e-7
-1.066, 4.684e-7
-1.067, 4.388e-7
-1.068, 4.714e-7
-1.069, 4.625e-7
-1.070, 4.398e-7
-1.071, 4.438e-7
-1.072, 4.645e-7
-1.073, 4.694e-7
-1.074, 4.980e-7
-1.075, 4.892e-7
-1.076, 5.059e-7
-1.077, 5.049e-7
-1.078, 5.148e-7
-1.079, 5.316e-7
-1.080, 5.276e-7
-1.081, 5.276e-7
-1.082, 5.375e-7
-1.083, 5.316e-7
-1.084, 5.701e-7
-1.085, 5.602e-7
-1.086, 5.197e-7
-1.087, 5.651e-7
-1.088, 6.095e-7
-1.089, 5.582e-7
-1.090, 5.651e-7
-1.091, 5.799e-7
-1.092, 5.779e-7
-1.093, 5.612e-7
-1.094, 6.046e-7
-1.095, 6.194e-7
-1.096, 5.839e-7
-1.097, 5.849e-7
-1.098, 6.362e-7
-1.099, 6.056e-7
-1.100, 6.223e-7
-1.101, 6.352e-7
-1.102, 6.431e-7
-1.103, 6.312e-7
-1.104, 6.510e-7
-1.105, 6.362e-7
-1.106, 6.529e-7
-1.107, 6.618e-7
-1.108, 6.431e-7
-1.109, 6.746e-7
-1.110, 6.480e-7
-1.111, 6.825e-7
-1.112, 6.381e-7
-1.113, 6.746e-7
-1.114, 6.648e-7
-1.115, 6.806e-7
-1.116, 7.013e-7
-1.117, 6.924e-7
-1.118, 6.894e-7
-1.119, 6.658e-7
-1.120, 6.707e-7
-1.121, 6.717e-7
-1.122, 7.368e-7
-1.123, 7.161e-7
-1.124, 7.289e-7
-1.125, 6.559e-7
-1.126, 6.796e-7
-1.127, 7.309e-7
-1.128, 7.486e-7
-1.129, 7.427e-7
-1.130, 7.289e-7
-1.131, 7.319e-7
-1.132, 7.496e-7
-1.133, 7.624e-7
-1.134, 7.555e-7
-1.135, 7.506e-7
-1.136, 7.664e-7
-1.137, 8.039e-7
-1.138, 7.575e-7
-1.139, 8.078e-7
-1.140, 7.417e-7
-1.141, 7.180e-7
-1.142, 7.545e-7
-1.143, 7.871e-7
-1.144, 8.098e-7
-1.145, 7.999e-7
-1.146, 8.177e-7
-1.147, 7.634e-7
-1.148, 8.276e-7
-1.149, 8.216e-7
-1.150, 7.911e-7
-1.151, 8.266e-7
-1.152, 8.276e-7
-1.153, 7.989e-7
-1.154, 8.335e-7
-1.155, 8.601e-7
-1.156, 8.572e-7
-1.157, 8.384e-7
-1.158, 8.621e-7
-1.159, 8.493e-7
-1.160, 8.374e-7
-1.161, 8.887e-7
-1.162, 8.621e-7
-1.163, 8.394e-7
-1.164, 8.720e-7
-1.165, 8.937e-7
-1.166, 8.720e-7
-1.167, 8.641e-7
-1.168, 9.400e-7
-1.169, 8.650e-7
-1.170, 8.532e-7
-1.171, 9.163e-7
-1.172, 9.025e-7
-1.173, 8.759e-7
-1.174, 9.085e-7
-1.175, 9.381e-7
-1.176, 8.976e-7
-1.177, 9.598e-7
-1.178, 9.104e-7
-1.179, 8.670e-7
-1.180, 8.798e-7
-1.181, 8.966e-7
-1.182, 9.242e-7
-1.183, 9.430e-7
-1.184, 9.410e-7
-1.185, 9.509e-7
-1.186, 9.124e-7
-1.187, 9.686e-7
-1.188, 9.785e-7
-1.189, 9.361e-7
-1.190, 9.746e-7
-1.191, 9.874e-7
-1.192, 9.450e-7
-1.193, 9.736e-7
-1.194, 9.795e-7
-1.195, 1.017e-6
-1.196, 9.558e-7
-1.197, 9.844e-7
-1.198, 9.943e-7
-1.199, 9.982e-7
-1.200, 1.006e-6
-1.201, 9.903e-7
-1.202, 1.033e-6
-1.203, 1.007e-6
-1.204, 1.051e-6
-1.205, 1.024e-6
-1.206, 1.011e-6
-1.207, 1.039e-6
-1.208, 1.034e-6
-1.209, 1.023e-6
-1.210, 1.040e-6
-1.211, 1.079e-6
-1.212, 1.075e-6
-1.213, 1.027e-6
-1.214, 1.034e-6
-1.215, 1.063e-6
-1.216, 1.053e-6
-1.217, 1.025e-6
-1.218, 1.059e-6
-1.219, 1.082e-6
-1.220, 1.048e-6
-1.221, 1.084e-6
-1.222, 1.105e-6
-1.223, 1.046e-6
-1.224, 1.093e-6
-1.225, 1.088e-6
-1.226, 1.094e-6
-1.227, 1.078e-6
-1.228, 1.100e-6
-1.229, 1.144e-6
-1.230, 1.121e-6
-1.231, 1.112e-6
-1.232, 1.145e-6
-1.233, 1.109e-6
-1.234, 1.124e-6
-1.235, 1.126e-6
-1.236, 1.147e-6
-1.237, 1.113e-6
-1.238, 1.138e-6
-1.239, 1.127e-6
-1.240, 1.101e-6
-1.241, 1.098e-6
-1.242, 1.136e-6
-1.243, 1.155e-6
-1.244, 1.173e-6
-1.245, 1.177e-6
-1.246, 1.173e-6
-1.247, 1.140e-6
-1.248, 1.162e-6
-1.249, 1.204e-6
-1.250, 1.188e-6
-1.251, 1.192e-6
-1.252, 1.192e-6
-1.253, 1.195e-6
-1.254, 1.167e-6
-1.255, 1.222e-6
-1.256, 1.192e-6
-1.257, 1.199e-6
-1.258, 1.221e-6
-1.259, 1.234e-6
-1.260, 1.210e-6
-1.261, 1.251e-6
-1.262, 1.243e-6
-1.263, 1.220e-6
-1.264, 1.251e-6
-1.265, 1.230e-6
-1.266, 1.243e-6
-1.267, 1.262e-6
-1.268, 1.270e-6
-1.269, 1.254e-6
-1.270, 1.254e-6
-1.271, 1.258e-6
-1.272, 1.277e-6
-1.273, 1.242e-6
-1.274, 1.275e-6
-1.275, 1.264e-6
-1.276, 1.256e-6
-1.277, 1.286e-6
-1.278, 1.304e-6
-1.279, 1.256e-6
-1.280, 1.297e-6
-1.281, 1.315e-6
-1.282, 1.304e-6
-1.283, 1.303e-6
-1.284, 1.282e-6
-1.285, 1.299e-6
-1.286, 1.303e-6
-1.287, 1.321e-6
-1.288, 1.303e-6
-1.289, 1.352e-6
-1.290, 1.310e-6
-1.291, 1.313e-6
-1.292, 1.361e-6
-1.293, 1.354e-6
-1.294, 1.323e-6
-1.295, 1.340e-6
-1.296, 1.329e-6
-1.297, 1.337e-6
-1.298, 1.349e-6
-1.299, 1.345e-6
-1.300, 1.390e-6
-1.301, 1.333e-6
-1.302, 1.366e-6
-1.303, 1.354e-6
-1.304, 1.380e-6
-1.305, 1.380e-6
-1.306, 1.397e-6
-1.307, 1.371e-6
-1.308, 1.411e-6
-1.309, 1.426e-6
-1.310, 1.389e-6
-1.311, 1.413e-6
-1.312, 1.422e-6
-1.313, 1.377e-6
-1.314, 1.422e-6
-1.315, 1.384e-6
-1.316, 1.380e-6
-1.317, 1.384e-6
-1.318, 1.455e-6
-1.319, 1.384e-6
-1.320, 1.427e-6
-1.321, 1.387e-6
-1.322, 1.464e-6
-1.323, 1.413e-6
-1.324, 1.426e-6
-1.325, 1.482e-6
-1.326, 1.450e-6
-1.327, 1.449e-6
-1.328, 1.484e-6
-1.329, 1.479e-6
-1.330, 1.454e-6
-1.331, 1.473e-6
-1.332, 1.473e-6
-1.333, 1.489e-6
-1.334, 1.458e-6
-1.335, 1.492e-6
-1.336, 1.501e-6
-1.337, 1.446e-6
-1.338, 1.514e-6
-1.339, 1.512e-6
-1.340, 1.505e-6
-1.341, 1.488e-6
-1.342, 1.531e-6
-1.343, 1.529e-6
-1.344, 1.525e-6
-1.345, 1.560e-6
-1.346, 1.524e-6
-1.347, 1.515e-6
-1.348, 1.566e-6
-1.349, 1.509e-6
-1.350, 1.534e-6
-1.351, 1.546e-6
-1.352, 1.529e-6
-1.353, 1.548e-6
-1.354, 1.574e-6
-1.355, 1.594e-6
-1.356, 1.542e-6
-1.357, 1.594e-6
-1.358, 1.621e-6
-1.359, 1.544e-6
-1.360, 1.572e-6
-1.361, 1.609e-6
-1.362, 1.585e-6
-1.363, 1.573e-6
-1.364, 1.630e-6
-1.365, 1.627e-6
-1.366, 1.593e-6
-1.367, 1.611e-6
-1.368, 1.644e-6
-1.369, 1.596e-6
-1.370, 1.622e-6
-1.371, 1.616e-6
-1.372, 1.671e-6
-1.373, 1.649e-6
-1.374, 1.630e-6
-1.375, 1.684e-6
-1.376, 1.693e-6
-1.377, 1.650e-6
-1.378, 1.696e-6
-1.379, 1.692e-6
-1.380, 1.695e-6
-1.381, 1.697e-6
-1.382, 1.668e-6
-1.383, 1.728e-6
-1.384, 1.652e-6
-1.385, 1.687e-6
-1.386, 1.711e-6
-1.387, 1.694e-6
-1.388, 1.737e-6
-1.389, 1.681e-6
-1.390, 1.753e-6
-1.391, 1.740e-6
-1.392, 1.735e-6
-1.393, 1.747e-6
-1.394, 1.755e-6
-1.395, 1.777e-6
-1.396, 1.748e-6
-1.397, 1.783e-6
-1.398, 1.847e-6
-1.399, 1.835e-6
-1.400, 1.752e-6
-1.401, 1.761e-6
-1.402, 1.797e-6
-1.403, 1.797e-6
-1.404, 1.795e-6
-1.405, 1.842e-6
-1.406, 1.839e-6
-1.407, 1.783e-6
-1.408, 1.842e-6
-1.409, 1.863e-6
-1.410, 1.839e-6
-1.411, 1.811e-6
-1.412, 1.875e-6
-1.413, 1.870e-6
-1.414, 1.870e-6
-1.415, 1.874e-6
-1.416, 1.885e-6
-1.417, 1.862e-6
-1.418, 1.917e-6
-1.419, 1.870e-6
-1.420, 1.932e-6
-1.421, 1.875e-6
-1.422, 1.891e-6
-1.423, 1.900e-6
-1.424, 1.923e-6
-1.425, 1.969e-6
-1.426, 1.977e-6
-1.427, 1.987e-6
-1.428, 1.962e-6
-1.429, 1.967e-6
-1.430, 1.946e-6
-1.431, 1.996e-6
-1.432, 2.004e-6
-1.433, 1.996e-6
-1.434, 1.968e-6
-1.435, 2.061e-6
-1.436, 2.042e-6
-1.437, 2.061e-6
-1.438, 2.005e-6
-1.439, 2.039e-6
-1.440, 2.067e-6
-1.441, 2.083e-6
-1.442, 2.108e-6
-1.443, 2.142e-6
-1.444, 2.066e-6
-1.445, 2.088e-6
-1.446, 2.114e-6
-1.447, 2.108e-6
-1.448, 2.134e-6
-1.449, 2.124e-6
-1.450, 2.139e-6
-1.451, 2.174e-6
-1.452, 2.134e-6
-1.453, 2.164e-6
-1.454, 2.146e-6
-1.455, 2.157e-6
-1.456, 2.172e-6
-1.457, 2.217e-6
-1.458, 2.253e-6
-1.459, 2.260e-6
-1.460, 2.266e-6
-1.461, 2.247e-6
-1.462, 2.255e-6
-1.463, 2.241e-6
-1.464, 2.253e-6
-1.465, 2.284e-6
-1.466, 2.272e-6
-1.467, 2.276e-6
-1.468, 2.308e-6
-1.469, 2.338e-6
-1.470, 2.335e-6
-1.471, 2.335e-6
-1.472, 2.346e-6
-1.473, 2.369e-6
-1.474, 2.327e-6
-1.475, 2.378e-6
-1.476, 2.375e-6
-1.477, 2.348e-6
-1.478, 2.414e-6
-1.479, 2.413e-6
-1.480, 2.405e-6
-1.481, 2.437e-6
-1.482, 2.417e-6
-1.483, 2.448e-6
-1.484, 2.509e-6
-1.485, 2.490e-6
-1.486, 2.474e-6
-1.487, 2.558e-6
-1.488, 2.558e-6
-1.489, 2.530e-6
-1.490, 2.584e-6
-1.491, 2.601e-6
-1.492, 2.590e-6
-1.493, 2.561e-6
-1.494, 2.590e-6
-1.495, 2.605e-6
-1.496, 2.605e-6
-1.497, 2.615e-6
-1.498, 2.674e-6
-1.499, 2.664e-6
-1.500, 2.654e-6
-1.501, 2.663e-6
-1.502, 2.728e-6
-1.503, 2.707e-6
-1.504, 2.736e-6
-1.505, 2.755e-6
-1.506, 2.761e-6
-1.507, 2.754e-6
-1.508, 2.800e-6
-1.509, 2.800e-6
-1.510, 2.846e-6
-1.511, 2.820e-6
-1.512, 2.871e-6
-1.513, 2.886e-6
-1.514, 2.886e-6
-1.515, 2.874e-6
-1.516, 2.877e-6
-1.517, 2.898e-6
-1.518, 2.963e-6
-1.519, 2.930e-6
-1.520, 2.969e-6
-1.521, 3.040e-6
-1.522, 2.974e-6
-1.523, 3.040e-6
-1.524, 3.020e-6
-1.525, 3.150e-6
-1.526, 3.296e-6
-1.527, 3.260e-6
-1.528, 3.176e-6
-1.529, 3.169e-6
-1.530, 3.205e-6
-1.531, 3.387e-6
-1.532, 3.192e-6
-1.533, 3.220e-6
-1.534, 3.190e-6
-1.535, 3.260e-6
-1.536, 3.272e-6
-1.537, 3.259e-6
-1.538, 3.326e-6
-1.539, 3.362e-6
-1.540, 3.329e-6
-1.541, 3.371e-6
-1.542, 3.421e-6
-1.543, 3.499e-6
-1.544, 3.538e-6
-1.545, 3.564e-6
-1.546, 3.542e-6
-1.547, 3.503e-6
-1.548, 3.536e-6
-1.549, 3.533e-6
-1.550, 3.576e-6
-1.551, 3.622e-6
-1.552, 3.632e-6
-1.553, 3.633e-6
-1.554, 3.724e-6
-1.555, 3.707e-6
-1.556, 3.727e-6
-1.557, 3.745e-6
-1.558, 3.781e-6
-1.559, 3.878e-6
-1.560, 3.940e-6
-1.561, 3.998e-6
-1.562, 4.089e-6
-1.563, 4.039e-6
-1.564, 3.957e-6
-1.565, 4.014e-6
-1.566, 4.032e-6
-1.567, 4.050e-6
-1.568, 4.128e-6
-1.569, 4.158e-6
-1.570, 4.175e-6
-1.571, 4.204e-6
-1.572, 4.284e-6
-1.573, 4.268e-6
-1.574, 4.318e-6
-1.575, 4.378e-6
-1.576, 4.437e-6
-1.577, 4.456e-6
-1.578, 4.498e-6
-1.579, 4.518e-6
-1.580, 4.599e-6
-1.581, 4.648e-6
-1.582, 4.649e-6
-1.583, 4.694e-6
-1.584, 4.784e-6
-1.585, 4.822e-6
-1.586, 4.931e-6
-1.587, 5.027e-6
-1.588, 5.115e-6
-1.589, 4.984e-6
-1.590, 5.023e-6
-1.591, 5.092e-6
-1.592, 5.162e-6
-1.593, 5.194e-6
-1.594, 5.284e-6
-1.595, 5.318e-6
-1.596, 5.397e-6
-1.597, 5.431e-6
-1.598, 5.553e-6
-1.599, 5.596e-6
-1.600, 4.906e-6
-1.599, 4.415e-6
-1.598, 4.214e-6
-1.597, 4.143e-6
-1.596, 3.943e-6
-1.595, 3.864e-6
-1.594, 3.761e-6
-1.593, 3.719e-6
-1.592, 3.623e-6
-1.591, 3.603e-6
-1.590, 3.464e-6
-1.589, 3.383e-6
-1.588, 3.354e-6
-1.587, 3.446e-6
-1.586, 3.244e-6
-1.585, 3.086e-6
-1.584, 3.109e-6
-1.583, 3.035e-6
-1.582, 2.948e-6
-1.581, 2.917e-6
-1.580, 2.832e-6
-1.579, 2.916e-6
-1.578, 2.753e-6
-1.577, 2.799e-6
-1.576, 2.670e-6
-1.575, 2.508e-6
-1.574, 2.604e-6
-1.573, 2.725e-6
-1.572, 2.671e-6
-1.571, 2.497e-6
-1.570, 2.391e-6
-1.569, 2.350e-6
-1.568, 2.353e-6
-1.567, 2.407e-6
-1.566, 2.172e-6
-1.565, 2.056e-6
-1.564, 1.941e-6
-1.563, 1.851e-6
-1.562, 1.951e-6
-1.561, 1.849e-6
-1.560, 1.822e-6
-1.559, 1.807e-6
-1.558, 1.722e-6
-1.557, 1.706e-6
-1.556, 1.699e-6
-1.555, 1.679e-6
-1.554, 1.614e-6
-1.553, 1.602e-6
-1.552, 1.589e-6
-1.551, 1.497e-6
-1.550, 1.477e-6
-1.549, 1.506e-6
-1.548, 1.439e-6
-1.547, 1.398e-6
-1.546, 1.375e-6
-1.545, 1.352e-6
-1.544, 1.311e-6
-1.543, 1.264e-6
-1.542, 1.235e-6
-1.541, 1.248e-6
-1.540, 1.230e-6
-1.539, 1.215e-6
-1.538, 1.149e-6
-1.537, 1.092e-6
-1.536, 1.109e-6
-1.535, 1.050e-6
-1.534, 1.042e-6
-1.533, 9.973e-7
-1.532, 1.037e-6
-1.531, 9.775e-7
-1.530, 9.677e-7
-1.529, 9.489e-7
-1.528, 9.292e-7
-1.527, 8.641e-7
-1.526, 8.858e-7
-1.525, 8.877e-7
-1.524, 8.246e-7
-1.523, 8.009e-7
-1.522, 8.068e-7
-1.521, 7.772e-7
-1.520, 7.565e-7
-1.519, 6.934e-7
-1.518, 7.072e-7
-1.517, 6.687e-7
-1.516, 6.717e-7
-1.515, 6.539e-7
-1.514, 6.352e-7
-1.513, 6.135e-7
-1.512, 6.223e-7
-1.511, 5.691e-7
-1.510, 5.622e-7
-1.509, 5.691e-7
-1.508, 5.345e-7
-1.507, 5.178e-7
-1.506, 5.079e-7
-1.505, 4.872e-7
-1.504, 4.744e-7
-1.503, 3.846e-7
-1.502, 4.586e-7
-1.501, 4.487e-7
-1.500, 3.737e-7
-1.499, 3.796e-7
-1.498, 4.280e-7
-1.497, 3.668e-7
-1.496, 3.382e-7
-1.495, 2.899e-7
-1.494, 3.678e-7
-1.493, 2.691e-7
-1.492, 2.810e-7
-1.491, 2.326e-7
-1.490, 1.942e-7
-1.489, 1.547e-7
-1.488, 1.261e-7
-1.487, 2.139e-7
-1.486, 2.169e-7
-1.485, 2.099e-7
-1.484, 1.833e-7
-1.483, 1.537e-7
-1.482, 1.843e-7
-1.481, 1.557e-7
-1.480, 1.448e-7
-1.479, 1.803e-7
-1.478, 8.958e-8
-1.477, 1.182e-7
-1.476, 7.972e-8
-1.475, 4.420e-8
-1.474, -1.302e-8
-1.473, -3.670e-8
-1.472, -5.545e-8
-1.471, 7.893e-10
-1.470, 2.841e-8
-1.469, 4.124e-8
-1.468, 3.828e-8
-1.467, 7.695e-9
-1.466, 1.776e-9
-1.465, 1.263e-8
-1.464, 2.762e-9
-1.463, -3.275e-8
-1.462, -1.105e-8
-1.461, 1.460e-8
-1.460, -6.334e-8
-1.459, -9.590e-8
-1.458, -1.245e-7
-1.457, -1.798e-7
-1.456, -2.005e-7
-1.455, -1.955e-7
-1.454, -1.738e-7
-1.453, -1.058e-7
-1.452, -9.984e-8
-1.451, -1.630e-7
-1.450, -1.304e-7
-1.449, -1.285e-7
-1.448, -1.383e-7
-1.447, -1.817e-7
-1.446, -1.659e-7
-1.445, -1.452e-7
-1.444, -1.906e-7
-1.443, -1.600e-7
-1.442, -2.084e-7
-1.441, -2.360e-7
-1.440, -2.794e-7
-1.439, -3.070e-7
-1.438, -2.676e-7
-1.437, -2.103e-7
-1.436, -2.745e-7
-1.435, -2.123e-7
-1.434, -2.439e-7
-1.433, -2.873e-7
-1.432, -2.498e-7
-1.431, -2.557e-7
-1.430, -2.784e-7
-1.429, -2.616e-7
-1.428, -3.129e-7
-1.427, -2.912e-7
-1.426, -3.129e-7
-1.425, -2.893e-7
-1.424, -3.169e-7
-1.423, -2.932e-7
-1.422, -3.149e-7
-1.421, -3.110e-7
-1.420, -3.287e-7
-1.419, -3.544e-7
-1.418, -3.041e-7
-1.417, -3.514e-7
-1.416, -3.702e-7
-1.415, -3.337e-7
-1.414, -3.485e-7
-1.413, -4.096e-7
-1.412, -3.810e-7
-1.411, -3.347e-7
-1.410, -3.514e-7
-1.409, -3.968e-7
-1.408, -3.810e-7
-1.407, -3.909e-7
-1.406, -3.850e-7
-1.405, -3.850e-7
-1.404, -3.840e-7
-1.403, -4.067e-7
-1.402, -3.938e-7
-1.401, -4.511e-7
-1.400, -3.958e-7
-1.399, -4.412e-7
-1.398, -3.721e-7
-1.397, -4.225e-7
-1.396, -4.146e-7
-1.395, -4.215e-7
-1.394, -4.215e-7
-1.393, -4.777e-7
-1.392, -4.432e-7
-1.391, -4.225e-7
-1.390, -4.511e-7
-1.389, -4.649e-7
-1.388, -4.284e-7
-1.387, -4.698e-7
-1.386, -4.619e-7
-1.385, -4.530e-7
-1.384, -4.747e-7
-1.383, -4.521e-7
-1.382, -4.659e-7
-1.381, -4.905e-7
-1.380, -4.619e-7
-1.379, -4.984e-7
-1.378, -4.817e-7
-1.377, -5.103e-7
-1.376, -5.093e-7
-1.375, -4.915e-7
-1.374, -5.024e-7
-1.373, -5.478e-7
-1.372, -5.359e-7
-1.371, -5.113e-7
-1.370, -5.182e-7
-1.369, -5.537e-7
-1.368, -5.182e-7
-1.367, -5.912e-7
-1.366, -5.152e-7
-1.365, -5.182e-7
-1.364, -5.685e-7
-1.363, -5.359e-7
-1.362, -5.280e-7
-1.361, -5.655e-7
-1.360, -5.882e-7
-1.359, -5.714e-7
-1.358, -5.497e-7
-1.357, -5.813e-7
-1.356, -5.941e-7
-1.355, -5.586e-7
-1.354, -5.695e-7
-1.353, -5.922e-7
-1.352, -5.991e-7
-1.351, -6.010e-7
-1.350, -6.040e-7
-1.349, -5.586e-7
-1.348, -6.336e-7
-1.347, -5.961e-7
-1.346, -6.050e-7
-1.345, -5.892e-7
-1.344, -6.070e-7
-1.343, -5.961e-7
-1.342, -6.010e-7
-1.341, -6.000e-7
-1.340, -6.139e-7
-1.339, -5.922e-7
-1.338, -6.020e-7
-1.337, -5.833e-7
-1.336, -6.306e-7
-1.335, -6.257e-7
-1.334, -6.089e-7
-1.333, -6.237e-7
-1.332, -6.060e-7
-1.331, -6.573e-7
-1.330, -6.514e-7
-1.329, -6.119e-7
-1.328, -6.405e-7
-1.327, -6.563e-7
-1.326, -6.504e-7
-1.325, -6.504e-7
-1.324, -6.711e-7
-1.323, -6.543e-7
-1.322, -6.671e-7
-1.321, -6.592e-7
-1.320, -6.494e-7
-1.319, -5.320e-7
-1.318, -6.198e-7
-1.317, -6.464e-7
-1.316, -6.425e-7
-1.315, -6.139e-7
-1.314, -6.780e-7
-1.313, -6.573e-7
-1.312, -6.375e-7
-1.311, -7.017e-7
-1.310, -6.780e-7
-1.309, -6.780e-7
-1.308, -6.612e-7
-1.307, -6.879e-7
-1.306, -6.938e-7
-1.305, -6.849e-7
-1.304, -6.869e-7
-1.303, -7.096e-7
-1.302, -6.770e-7
-1.301, -6.938e-7
-1.300, -7.135e-7
-1.299, -6.859e-7
-1.298, -7.372e-7
-1.297, -6.316e-7
-1.296, -6.711e-7
-1.295, -7.027e-7
-1.294, -7.234e-7
-1.293, -7.175e-7
-1.292, -7.155e-7
-1.291, -6.859e-7
-1.290, -7.382e-7
-1.289, -7.096e-7
-1.288, -7.244e-7
-1.287, -7.184e-7
-1.286, -7.027e-7
-1.285, -7.086e-7
-1.284, -7.036e-7
-1.283, -7.214e-7
-1.282, -6.918e-7
-1.281, -6.918e-7
-1.280, -7.303e-7
-1.279, -7.135e-7
-1.278, -7.332e-7
-1.277, -7.234e-7
-1.276, -7.352e-7
-1.275, -6.879e-7
-1.274, -7.688e-7
-1.273, -7.520e-7
-1.272, -7.096e-7
-1.271, -7.155e-7
-1.270, -7.964e-7
-1.269, -7.411e-7
-1.268, -7.303e-7
-1.267, -7.421e-7
-1.266, -7.303e-7
-1.265, -7.332e-7
-1.264, -7.490e-7
-1.263, -7.500e-7
-1.262, -7.480e-7
-1.261, -7.688e-7
-1.260, -7.500e-7
-1.259, -7.500e-7
-1.258, -7.401e-7
-1.257, -7.865e-7
-1.256, -7.263e-7
-1.255, -7.609e-7
-1.254, -7.510e-7
-1.253, -7.875e-7
-1.252, -7.125e-7
-1.251, -7.658e-7
-1.250, -7.392e-7
-1.249, -7.540e-7
-1.248, -7.313e-7
-1.247, -8.043e-7
-1.246, -7.668e-7
-1.245, -7.786e-7
-1.244, -7.707e-7
-1.243, -7.549e-7
-1.242, -7.865e-7
-1.241, -7.954e-7
-1.240, -7.737e-7
-1.239, -7.618e-7
-1.238, -7.559e-7
-1.237, -8.112e-7
-1.236, -7.865e-7
-1.235, -7.993e-7
-1.234, -7.490e-7
-1.233, -8.141e-7
-1.232, -7.500e-7
-1.231, -7.717e-7
-1.230, -7.924e-7
-1.229, -8.102e-7
-1.228, -8.299e-7
-1.227, -7.954e-7
-1.226, -7.914e-7
-1.225, -7.905e-7
-1.224, -7.924e-7
-1.223, -7.757e-7
-1.222, -7.628e-7
-1.221, -8.240e-7
-1.220, -8.082e-7
-1.219, -7.944e-7
-1.218, -8.062e-7
-1.217, -8.625e-7
-1.216, -8.220e-7
-1.215, -8.112e-7
-1.214, -7.855e-7
-1.213, -8.536e-7
-1.212, -7.944e-7
-1.211, -7.914e-7
-1.210, -8.388e-7
-1.209, -8.240e-7
-1.208, -8.053e-7
-1.207, -8.053e-7
-1.206, -8.467e-7
-1.205, -8.289e-7
-1.204, -8.092e-7
-1.203, -8.684e-7
-1.202, -8.516e-7
-1.201, -8.270e-7
-1.200, -8.595e-7
-1.199, -8.270e-7
-1.198, -8.062e-7
-1.197, -8.181e-7
-1.196, -8.398e-7
-1.195, -7.806e-7
-1.194, -8.013e-7
-1.193, -8.427e-7
-1.192, -8.645e-7
-1.191, -8.280e-7
-1.190, -8.664e-7
-1.189, -8.329e-7
-1.188, -8.457e-7
-1.187, -8.950e-7
-1.186, -8.289e-7
-1.185, -8.388e-7
-1.184, -8.388e-7
-1.183, -8.556e-7
-1.182, -8.862e-7
-1.181, -8.358e-7
-1.180, -8.753e-7
-1.179, -8.802e-7
-1.178, -8.418e-7
-1.177, -8.418e-7
-1.176, -8.526e-7
-1.175, -8.793e-7
-1.174, -8.684e-7
-1.173, -8.585e-7
-1.172, -8.368e-7
-1.171, -8.733e-7
-1.170, -8.477e-7
-1.169, -8.319e-7
-1.168, -8.723e-7
-1.167, -8.694e-7
-1.166, -8.546e-7
-1.165, -8.723e-7
-1.164, -8.457e-7
-1.163, -8.901e-7
-1.162, -8.783e-7
-1.161, -8.378e-7
-1.160, -8.654e-7
-1.159, -8.635e-7
-1.158, -9.049e-7
-1.157, -8.556e-7
-1.156, -8.862e-7
-1.155, -8.723e-7
-1.154, -8.921e-7
-1.153, -9.187e-7
-1.152, -9.572e-7
-1.151, -9.631e-7
-1.150, -9.000e-7
-1.149, -8.901e-7
-1.148, -8.575e-7
-1.147, -8.802e-7
-1.146, -8.842e-7
-1.145, -8.871e-7
-1.144, -8.802e-7
-1.143, -8.842e-7
-1.142, -8.852e-7
-1.141, -9.019e-7
-1.140, -8.950e-7
-1.139, -8.467e-7
-1.138, -9.286e-7
-1.137, -9.059e-7
-1.136, -9.079e-7
-1.135, -8.852e-7
-1.134, -8.753e-7
-1.133, -9.079e-7
-1.132, -9.029e-7
-1.131, -8.832e-7
-1.130, -8.714e-7
-1.129, -9.138e-7
-1.128, -9.384e-7
-1.127, -8.921e-7
-1.126, -9.424e-7
-1.125, -9.227e-7
-1.124, -9.089e-7
-1.123, -9.286e-7
-1.122, -8.881e-7
-1.121, -8.714e-7
-1.120, -9.089e-7
-1.119, -9.552e-7
-1.118, -9.246e-7
-1.117, -9.217e-7
-1.116, -9.089e-7
-1.115, -9.217e-7
-1.114, -9.237e-7
-1.113, -9.148e-7
-1.112, -9.306e-7
-1.111, -9.217e-7
-1.110, -9.197e-7
-1.109, -9.572e-7
-1.108, -9.246e-7
-1.107, -9.237e-7
-1.106, -9.345e-7
-1.105, -9.503e-7
-1.104, -9.177e-7
-1.103, -9.237e-7
-1.102, -9.335e-7
-1.101, -9.532e-7
-1.100, -9.375e-7
-1.099, -9.621e-7
-1.098, -9.296e-7
-1.097, -9.631e-7
-1.096, -9.720e-7
-1.095, -9.671e-7
-1.094, -9.059e-7
-1.093, -9.237e-7
-1.092, -9.542e-7
-1.091, -9.552e-7
-1.090, -9.454e-7
-1.089, -9.542e-7
-1.088, -9.750e-7
-1.087, -9.690e-7
-1.086, -9.562e-7
-1.085, -9.602e-7
-1.084, -9.641e-7
-1.083, -9.937e-7
-1.082, -9.957e-7
-1.081, -9.552e-7
-1.080, -9.611e-7
-1.079, -9.976e-7
-1.078, -1.008e-6
-1.077, -9.957e-7
-1.076, -1.030e-6
-1.075, -1.075e-6
-1.074, -1.064e-6
-1.073, -1.088e-6
-1.072, -1.003e-6
-1.071, -9.750e-7
-1.070, -9.848e-7
-1.069, -9.651e-7
-1.068, -1.027e-6
-1.067, -1.011e-6
-1.066, -1.021e-6
-1.065, -9.868e-7
-1.064, -9.710e-7
-1.063, -1.006e-6
-1.062, -9.838e-7
-1.061, -1.043e-6
-1.060, -1.050e-6
-1.059, -1.014e-6
-1.058, -1.018e-6
-1.057, -1.019e-6
-1.056, -1.027e-6
-1.055, -1.038e-6
-1.054, -1.010e-6
-1.053, -1.040e-6
-1.052, -1.051e-6
-1.051, -1.030e-6
-1.050, -1.039e-6
-1.049, -1.046e-6
-1.048, -1.075e-6
-1.047, -1.024e-6
-1.046, -1.045e-6
-1.045, -1.039e-6
-1.044, -1.049e-6
-1.043, -1.045e-6
-1.042, -1.099e-6
-1.041, -1.051e-6
-1.040, -1.044e-6
-1.039, -1.073e-6
-1.038, -1.075e-6
-1.037, -1.032e-6
-1.036, -1.081e-6
-1.035, -1.064e-6
-1.034, -1.064e-6
-1.033, -1.114e-6
-1.032, -1.093e-6
-1.031, -1.073e-6
-1.030, -1.082e-6
-1.029, -1.082e-6
-1.028, -1.079e-6
-1.027, -1.072e-6
-1.026, -1.072e-6
-1.025, -1.084e-6
-1.024, -1.076e-6
-1.023, -1.094e-6
-1.022, -1.112e-6
-1.021, -1.067e-6
-1.020, -1.094e-6
-1.019, -1.102e-6
-1.018, -1.101e-6
-1.017, -1.100e-6
-1.016, -1.095e-6
-1.015, -1.110e-6
-1.014, -1.101e-6
-1.013, -1.106e-6
-1.012, -1.112e-6
-1.011, -1.114e-6
-1.010, -1.126e-6
-1.009, -1.110e-6
-1.008, -1.128e-6
-1.007, -1.120e-6
-1.006, -1.091e-6
-1.005, -1.160e-6
-1.004, -1.129e-6
-1.003, -1.142e-6
-1.002, -1.143e-6
-1.001, -1.142e-6
-1.000, -9.414e-7
-1.001, -7.204e-7
-1.002, -5.862e-7
-1.003, -5.576e-7
-1.004, -5.113e-7
-1.005, -4.304e-7
-1.006, -4.008e-7
-1.007, -3.199e-7
-1.008, -3.208e-7
-1.009, -3.041e-7
-1.010, -2.419e-7
-1.011, -2.340e-7
-1.012, -1.847e-7
-1.013, -1.778e-7
-1.014, -1.798e-7
-1.015, -1.255e-7
-1.016, -5.545e-8
-1.017, -1.028e-7
-1.018, -6.038e-8
-1.019, -8.702e-8
-1.020, 1.776e-9
-1.021, 1.855e-8
-1.022, -1.993e-8
-1.023, 1.953e-8
-1.024, 3.137e-8
-1.025, 9.550e-8
-1.026, 5.209e-8
-1.027, 4.124e-8
-1.028, 4.025e-8
-1.029, 7.676e-8
-1.030, 1.044e-7
-1.031, 1.409e-7
-1.032, 1.537e-7
-1.033, 1.547e-7
-1.034, 1.685e-7
-1.035, 1.517e-7
-1.036, 2.099e-7
-1.037, 1.784e-7
-1.038, 2.129e-7
-1.039, 2.514e-7
-1.040, 1.951e-7
-1.041, 2.119e-7
-1.042, 2.178e-7
-1.043, 2.751e-7
-1.044, 2.780e-7
-1.045, 2.691e-7
-1.046, 2.918e-7
-1.047, 2.839e-7
-1.048, 2.573e-7
-1.049, 3.362e-7
-1.050, 2.968e-7
-1.051, 3.037e-7
-1.052, 3.570e-7
-1.053, 3.510e-7
-1.054, 3.619e-7
-1.055, 3.609e-7
-1.056, 3.717e-7
-1.057, 3.599e-7
-1.058, 3.767e-7
-1.059, 3.737e-7
-1.060, 4.023e-7
-1.061, 3.648e-7
-1.062, 4.418e-7
-1.063, 4.092e-7
-1.064, 3.974e-7
-1.065, 4.448e-7
-1.066, 4.566e-7
-1.067, 4.467e-7
-1.068, 4.013e-7
-1.069, 4.546e-7
-1.070, 4.457e-7
-1.071, 4.832e-7
-1.072, 5.099e-7
-1.073, 4.990e-7
-1.074, 4.714e-7
-1.075, 4.753e-7
-1.076, 5.217e-7
-1.077, 4.753e-7
-1.078, 5.109e-7
-1.079, 5.207e-7
-1.080, 5.296e-7
-1.081, 5.355e-7
-1.082, 5.049e-7
-1.083, 5.296e-7
-1.084, 5.503e-7
-1.085, 5.296e-7
-1.086, 5.789e-7
-1.087, 5.493e-7
-1.088, 5.592e-7
-1.089, 5.849e-7
-1.090, 5.671e-7
-1.091, 5.651e-7
-1.092, 5.701e-7
-1.093, 5.927e-7
-1.094, 5.691e-7
-1.095, 5.918e-7
-1.096, 5.927e-7
-1.097, 5.957e-7
-1.098, 5.957e-7
-1.099, 6.105e-7
-1.100, 6.381e-7
-1.101, 6.391e-7
-1.102, 5.947e-7
-1.103, 6.332e-7
-1.104, 6.707e-7
-1.105, 6.174e-7
-1.106, 6.371e-7
-1.107, 6.283e-7
-1.108, 6.470e-7
-1.109, 6.559e-7
-1.110, 6.579e-7
-1.111, 6.332e-7
-1.112, 6.786e-7
-1.113, 7.003e-7
-1.114, 7.121e-7
-1.115, 6.342e-7
-1.116, 7.003e-7
-1.117, 7.092e-7
-1.118, 6.598e-7
-1.119, 6.845e-7
-1.120, 7.417e-7
-1.121, 6.944e-7
-1.122, 7.506e-7
-1.123, 7.072e-7
-1.124, 7.032e-7
-1.125, 6.993e-7
-1.126, 7.171e-7
-1.127, 7.052e-7
-1.128, 7.180e-7
-1.129, 7.111e-7
-1.130, 7.595e-7
-1.131, 7.516e-7
-1.132, 7.072e-7
-1.133, 7.940e-7
-1.134, 7.269e-7
-1.135, 7.348e-7
-1.136, 7.743e-7
-1.137, 7.624e-7
-1.138, 7.733e-7
-1.139, 7.763e-7
-1.140, 8.088e-7
-1.141, 7.575e-7
-1.142, 8.098e-7
-1.143, 7.980e-7
-1.144, 8.068e-7
-1.145, 7.851e-7
-1.146, 8.098e-7
-1.147, 8.167e-7
-1.148, 8.236e-7
-1.149, 8.108e-7
-1.150, 7.930e-7
-1.151, 8.276e-7
-1.152, 8.226e-7
-1.153, 8.463e-7
-1.154, 8.433e-7
-1.155, 8.335e-7
-1.156, 8.424e-7
-1.157, 8.493e-7
-1.158, 8.512e-7
-1.159, 8.581e-7
-1.160, 8.650e-7
-1.161, 8.601e-7
-1.162, 8.729e-7
-1.163, 8.473e-7
-1.164, 8.946e-7
-1.165, 8.720e-7
-1.166, 9.035e-7
-1.167, 8.976e-7
-1.168, 8.729e-7
-1.169, 8.996e-7
-1.170, 9.144e-7
-1.171, 8.927e-7
-1.172, 9.045e-7
-1.173, 9.134e-7
-1.174, 9.302e-7
-1.175, 9.134e-7
-1.176, 9.252e-7
-1.177, 9.075e-7
-1.178, 8.937e-7
-1.179, 9.371e-7
-1.180, 9.489e-7
-1.181, 9.469e-7
-1.182, 9.233e-7
-1.183, 9.361e-7
-1.184, 9.657e-7
-1.185, 9.440e-7
-1.186, 9.124e-7
-1.187, 9.607e-7
-1.188, 9.252e-7
-1.189, 9.785e-7
-1.190, 9.795e-7
-1.191, 9.716e-7
-1.192, 9.302e-7
-1.193, 1.004e-6
-1.194, 9.834e-7
-1.195, 9.815e-7
-1.196, 9.775e-7
-1.197, 1.009e-6
-1.198, 9.696e-7
-1.199, 1.027e-6
-1.200, 9.637e-7
-1.201, 9.953e-7
-1.202, 9.598e-7
-1.203, 9.963e-7
-1.204, 1.073e-6
-1.205, 9.903e-7
-1.206, 1.007e-6
-1.207, 1.025e-6
-1.208, 9.953e-7
-1.209, 1.052e-6
-1.210, 1.003e-6
-1.211, 1.035e-6
-1.212, 1.002e-6
-1.213, 1.032e-6
-1.214, 1.034e-6
-1.215, 1.011e-6
-1.216, 1.071e-6
-1.217, 1.053e-6
-1.218, 1.061e-6
-1.219, 1.049e-6
-1.220, 1.055e-6
-1.221, 1.057e-6
-1.222, 1.048e-6
-1.223, 1.092e-6
-1.224, 1.058e-6
-1.225, 1.061e-6
-1.226, 1.091e-6
-1.227, 1.081e-6
-1.228, 1.092e-6
-1.229, 1.097e-6
-1.230, 1.101e-6
-1.231, 1.092e-6
-1.232, 1.100e-6
-1.233, 1.094e-6
-1.234, 1.102e-6
-1.235, 1.120e-6
-1.236, 1.097e-6
-1.237, 1.136e-6
-1.238, 1.112e-6
-1.239, 1.116e-6
-1.240, 1.126e-6
-1.241, 1.121e-6
-1.242, 1.126e-6
-1.243, 1.099e-6
-1.244, 1.122e-6
-1.245, 1.139e-6
-1.246, 1.142e-6
-1.247, 1.115e-6
-1.248, 1.138e-6
-1.249, 1.145e-6
-1.250, 1.176e-6
-1.251, 1.167e-6
-1.252, 1.157e-6
-1.253, 1.180e-6
-1.254, 1.162e-6
-1.255, 1.194e-6
-1.256, 1.165e-6
-1.257, 1.159e-6
-1.258, 1.169e-6
-1.259, 1.190e-6
-1.260, 1.203e-6
-1.261, 1.195e-6
-1.262, 1.165e-6
-1.263, 1.206e-6
-1.264, 1.232e-6
-1.265, 1.231e-6
-1.266, 1.205e-6
-1.267, 1.208e-6
-1.268, 1.222e-6
-1.269, 1.216e-6
-1.270, 1.249e-6
-1.271, 1.246e-6
-1.272, 1.206e-6
-1.273, 1.228e-6
-1.274, 1.253e-6
-1.275, 1.206e-6
-1.276, 1.212e-6
-1.277, 1.206e-6
-1.278, 1.294e-6
-1.279, 1.214e-6
-1.280, 1.203e-6
-1.281, 1.252e-6
-1.282, 1.273e-6
-1.283, 1.289e-6
-1.284, 1.298e-6
-1.285, 1.305e-6
-1.286, 1.301e-6
-1.287, 1.281e-6
-1.288, 1.272e-6
-1.289, 1.283e-6
-1.290, 1.306e-6
-1.291, 1.276e-6
-1.292, 1.273e-6
-1.293, 1.348e-6
-1.294, 1.308e-6
-1.295, 1.323e-6
-1.296, 1.334e-6
-1.297, 1.306e-6
-1.298, 1.340e-6
-1.299, 1.312e-6
-1.300, 1.352e-6
-1.301, 1.344e-6
-1.302, 1.333e-6
-1.303, 1.371e-6
-1.304, 1.374e-6
-1.305, 1.344e-6
-1.306, 1.392e-6
-1.307, 1.343e-6
-1.308, 1.348e-6
-1.309, 1.362e-6
-1.310, 1.379e-6
-1.311, 1.384e-6
-1.312, 1.390e-6
-1.313, 1.388e-6
-1.314, 1.418e-6
-1.315, 1.382e-6
-1.316, 1.398e-6
-1.317, 1.399e-6
-1.318, 1.407e-6
-1.319, 1.425e-6
-1.320, 1.402e-6
-1.321, 1.386e-6
-1.322, 1.390e-6
-1.323, 1.427e-6
-1.324, 1.445e-6
-1.325, 1.375e-6
-1.326, 1.470e-6
-1.327, 1.448e-6
-1.328, 1.436e-6
-1.329, 1.466e-6
-1.330, 1.411e-6
-1.331, 1.473e-6
-1.332, 1.488e-6
-1.333, 1.482e-6
-1.334, 1.465e-6
-1.335, 1.471e-6
-1.336, 1.453e-6
-1.337, 1.493e-6
-1.338, 1.490e-6
-1.339, 1.508e-6
-1.340, 1.487e-6
-1.341, 1.494e-6
-1.342, 1.523e-6
-1.343, 1.499e-6
-1.344, 1.526e-6
-1.345, 1.512e-6
-1.346, 1.538e-6
-1.347, 1.521e-6
-1.348, 1.493e-6
-1.349, 1.526e-6
-1.350, 1.570e-6
-1.351, 1.545e-6
-1.352, 1.544e-6
-1.353, 1.539e-6
-1.354, 1.568e-6
-1.355, 1.574e-6
-1.356, 1.595e-6
-1.357, 1.548e-6
-1.358, 1.564e-6
-1.359, 1.599e-6
-1.360, 1.584e-6
-1.361, 1.569e-6
-1.362, 1.573e-6
-1.363, 1.609e-6
-1.364, 1.649e-6
-1.365, 1.644e-6
-1.366, 1.630e-6
-1.367, 1.582e-6
-1.368, 1.615e-6
-1.369, 1.641e-6
-1.370, 1.630e-6
-1.371, 1.617e-6
-1.372, 1.632e-6
-1.373, 1.608e-6
-1.374, 1.641e-6
-1.375, 1.627e-6
-1.376, 1.644e-6
-1.377, 1.664e-6
-1.378, 1.664e-6
-1.379, 1.666e-6
-1.380, 1.642e-6
-1.381, 1.664e-6
-1.382, 1.666e-6
-1.383, 1.707e-6
-1.384, 1.714e-6
-1.385, 1.680e-6
-1.386, 1.719e-6
-1.387, 1.720e-6
-1.388, 1.722e-6
-1.389, 1.703e-6
-1.390, 1.689e-6
-1.391, 1.758e-6
-1.392, 1.743e-6
-1.393, 1.687e-6
-1.394, 1.690e-6
-1.395, 1.697e-6
-1.396, 1.741e-6
-1.397, 1.760e-6
-1.398, 1.786e-6
-1.399, 1.797e-6
-1.400, 1.779e-6
-1.401, 1.790e-6
-1.402, 1.814e-6
-1.403, 1.804e-6
-1.404, 1.794e-6
-1.405, 1.788e-6
-1.406, 1.826e-6
-1.407, 1.837e-6
-1.408, 1.776e-6
-1.409, 1.864e-6
-1.410, 1.854e-6
-1.411, 1.851e-6
-1.412, 1.812e-6
-1.413, 1.808e-6
-1.414, 1.855e-6
-1.415, 1.874e-6
-1.416, 1.899e-6
-1.417, 1.873e-6
-1.418, 1.880e-6
-1.419, 1.873e-6
-1.420, 1.902e-6
-1.421, 1.881e-6
-1.422, 1.899e-6
-1.423, 1.962e-6
-1.424, 1.930e-6
-1.425, 1.924e-6
-1.426, 1.928e-6
-1.427, 1.960e-6
-1.428, 1.928e-6
-1.429, 1.921e-6
-1.430, 1.963e-6
-1.431, 1.985e-6
-1.432, 2.019e-6
-1.433, 2.031e-6
-1.434, 2.060e-6
-1.435, 2.024e-6
-1.436, 2.077e-6
-1.437, 2.024e-6
-1.438, 2.037e-6
-1.439, 2.083e-6
-1.440, 2.040e-6
-1.441, 2.078e-6
-1.442, 2.091e-6
-1.443, 2.086e-6
-1.444, 2.090e-6
-1.445, 2.090e-6
-1.446, 2.111e-6
-1.447, 2.090e-6
-1.448, 2.075e-6
-1.449, 2.121e-6
-1.450, 2.099e-6
-1.451, 2.169e-6
-1.452, 2.138e-6
-1.453, 2.204e-6
-1.454, 2.195e-6
-1.455, 2.131e-6
-1.456, 2.212e-6
-1.457, 2.196e-6
-1.458, 2.209e-6
-1.459, 2.190e-6
-1.460, 2.259e-6
-1.461, 2.289e-6
-1.462, 2.275e-6
-1.463, 2.253e-6
-1.464, 2.281e-6
-1.465, 2.271e-6
-1.466, 2.316e-6
-1.467, 2.304e-6
-1.468, 2.307e-6
-1.469, 2.329e-6
-1.470, 2.361e-6
-1.471, 2.341e-6
-1.472, 2.340e-6
-1.473, 2.380e-6
-1.474, 2.384e-6
-1.475, 2.392e-6
-1.476, 2.395e-6
-1.477, 2.408e-6
-1.478, 2.439e-6
-1.479, 2.443e-6
-1.480, 2.469e-6
-1.481, 2.485e-6
-1.482, 2.434e-6
-1.483, 2.540e-6
-1.484, 2.495e-6
-1.485, 2.522e-6
-1.486, 2.486e-6
-1.487, 2.536e-6
-1.488, 2.561e-6
-1.489, 2.569e-6
-1.490, 2.585e-6
-1.491, 2.576e-6
-1.492, 2.567e-6
-1.493, 2.636e-6
-1.494, 2.604e-6
-1.495, 2.649e-6
-1.496, 2.659e-6
-1.497, 2.631e-6
-1.498, 2.667e-6
-1.499, 2.702e-6
-1.500, 2.724e-6
-1.501, 2.693e-6
-1.502, 2.734e-6
-1.503, 2.745e-6
-1.504, 2.761e-6
-1.505, 2.754e-6
-1.506, 2.801e-6
-1.507, 2.835e-6
-1.508, 2.825e-6
-1.509, 2.850e-6
-1.510, 2.875e-6
-1.511, 2.882e-6
-1.512, 2.867e-6
-1.513, 2.943e-6
-1.514, 2.922e-6
-1.515, 2.965e-6
-1.516, 2.961e-6
-1.517, 2.991e-6
-1.518, 2.990e-6
-1.519, 3.051e-6
-1.520, 3.052e-6
-1.521, 3.050e-6
-1.522, 3.064e-6
-1.523, 3.136e-6
-1.524, 3.142e-6
-1.525, 3.106e-6
-1.526, 3.154e-6
-1.527, 3.189e-6
-1.528, 3.200e-6
-1.529, 3.214e-6
-1.530, 3.274e-6
-1.531, 3.266e-6
-1.532, 3.347e-6
-1.533, 3.290e-6
-1.534, 3.334e-6
-1.535, 3.348e-6
-1.536, 3.397e-6
-1.537, 3.432e-6
-1.538, 3.440e-6
-1.539, 3.467e-6
-1.540, 3.485e-6
-1.541, 3.498e-6
-1.542, 3.559e-6
-1.543, 3.615e-6
-1.544, 3.610e-6
-1.545, 3.625e-6
-1.546, 3.664e-6
-1.547, 3.672e-6
-1.548, 3.729e-6
-1.549, 3.750e-6
-1.550, 3.744e-6
-1.551, 3.821e-6
-1.552, 3.849e-6
-1.553, 3.900e-6
-1.554, 3.917e-6
-1.555, 3.928e-6
-1.556, 3.996e-6
-1.557, 4.013e-6
-1.558, 4.058e-6
-1.559, 4.097e-6
-1.560, 4.128e-6
-1.561, 4.122e-6
-1.562, 4.212e-6
-1.563, 4.240e-6
-1.564, 4.267e-6
-1.565, 4.316e-6
-1.566, 4.360e-6
-1.567, 4.393e-6
-1.568, 4.501e-6
-1.569, 4.521e-6
-1.570, 4.537e-6
-1.571, 4.566e-6
-1.572, 4.577e-6
-1.573, 4.698e-6
-1.574, 4.712e-6
-1.575, 4.790e-6
-1.576, 4.862e-6
-1.577, 4.878e-6
-1.578, 4.978e-6
-1.579, 5.023e-6
-1.580, 5.094e-6
-1.581, 5.144e-6
-1.582, 5.213e-6
-1.583, 5.249e-6
-1.584, 5.308e-6
-1.585, 5.384e-6
-1.586, 5.478e-6
-1.587, 5.557e-6
-1.588, 5.616e-6
-1.589, 5.688e-6
-1.590, 5.754e-6
-1.591, 5.853e-6
-1.592, 5.890e-6
-1.593, 6.014e-6
-1.594, 6.070e-6
-1.595, 6.165e-6
-1.596, 6.269e-6
-1.597, 6.348e-6
-1.598, 6.404e-6
-1.599, 6.505e-6
-1.600, 5.873e-6
-1.599, 5.366e-6
-1.598, 5.173e-6
-1.597, 5.022e-6
-1.596, 4.858e-6
-1.595, 4.728e-6
-1.594, 4.591e-6
-1.593, 4.452e-6
-1.592, 4.380e-6
-1.591, 4.277e-6
-1.590, 4.201e-6
-1.589, 4.143e-6
-1.588, 4.012e-6
-1.587, 3.873e-6
-1.586, 3.768e-6
-1.585, 3.670e-6
-1.584, 3.595e-6
-1.583, 3.539e-6
-1.582, 3.502e-6
-1.581, 3.454e-6
-1.580, 3.378e-6
-1.579, 3.253e-6
-1.578, 3.261e-6
-1.577, 3.153e-6
-1.576, 3.112e-6
-1.575, 3.032e-6
-1.574, 2.976e-6
-1.573, 2.875e-6
-1.572, 2.850e-6
-1.571, 2.801e-6
-1.570, 2.758e-6
-1.569, 2.624e-6
-1.568, 2.563e-6
-1.567, 2.506e-6
-1.566, 2.486e-6
-1.565, 2.458e-6
-1.564, 2.461e-6
-1.563, 2.350e-6
-1.562, 2.323e-6
-1.561, 2.253e-6
-1.560, 2.252e-6
-1.559, 2.119e-6
-1.558, 2.162e-6
-1.557, 2.078e-6
-1.556, 2.021e-6
-1.555, 2.012e-6
-1.554, 1.951e-6
-1.553, 1.892e-6
-1.552, 1.906e-6
-1.551, 1.872e-6
-1.550, 1.813e-6
-1.549, 1.768e-6
-1.548, 1.709e-6
-1.547, 1.693e-6
-1.546, 1.611e-6
-1.545, 1.599e-6
-1.544, 1.550e-6
-1.543, 1.534e-6
-1.542, 1.514e-6
-1.541, 1.480e-6
-1.540, 1.458e-6
-1.539, 1.368e-6
-1.538, 1.388e-6
-1.537, 1.359e-6
-1.536, 1.329e-6
-1.535, 1.286e-6
-1.534, 1.260e-6
-1.533, 1.197e-6
-1.532, 1.203e-6
-1.531, 1.190e-6
-1.530, 1.138e-6
-1.529, 1.137e-6
-1.528, 1.108e-6
-1.527, 1.085e-6
-1.526, 1.051e-6
-1.525, 1.029e-6
-1.524, 9.706e-7
-1.523, 9.578e-7
-1.522, 9.529e-7
-1.521, 9.124e-7
-1.520, 9.085e-7
-1.519, 8.562e-7
-1.518, 8.335e-7
-1.517, 8.118e-7
-1.516, 8.088e-7
-1.515, 7.802e-7
-1.514, 7.585e-7
-1.513, 7.545e-7
-1.512, 7.052e-7
-1.511, 6.914e-7
-1.510, 6.756e-7
-1.509, 6.776e-7
-1.508, 6.490e-7
-1.507, 6.016e-7
-1.506, 6.243e-7
-1.505, 5.888e-7
-1.504, 5.730e-7
-1.503, 5.138e-7
-1.502, 5.188e-7
-1.501, 4.961e-7
-1.500, 5.079e-7
-1.499, 4.783e-7
-1.498, 4.862e-7
-1.497, 4.073e-7
-1.496, 4.161e-7
-1.495, 4.073e-7
-1.494, 4.092e-7
-1.493, 4.013e-7
-1.492, 3.392e-7
-1.491, 3.412e-7
-1.490, 3.244e-7
-1.489, 2.928e-7
-1.488, 2.928e-7
-1.487, 2.346e-7
-1.486, 1.981e-7
-1.485, 1.646e-7
-1.484, 1.300e-7
-1.483, 1.744e-7
-1.482, 1.803e-7
-1.481, 2.119e-7
-1.480, 1.971e-7
-1.479, 1.675e-7
-1.478, 1.734e-7
-1.477, 1.646e-7
-1.476, 1.379e-7
-1.475, 1.290e-7
-1.474, 1.527e-7
-1.473, 1.695e-7
-1.472, 7.972e-8
-1.471, 8.662e-8
-1.470, 6.689e-8
-1.469, 4.223e-8
-1.468, 3.137e-8
-1.467, 2.841e-8
-1.466, 2.762e-9
-1.465, 2.743e-8
-1.464, 3.236e-8
-1.463, 3.631e-8
-1.462, -3.177e-8
-1.461, 2.762e-9
-1.460, -3.078e-8
-1.459, -4.361e-8
-1.458, 6.709e-9
-1.457, -8.406e-8
-1.456, -4.262e-8
-1.455, -7.222e-8
-1.454, -8.998e-8
-1.453, -9.886e-8
-1.452, -1.462e-7
-1.451, -1.778e-7
-1.450, -2.064e-7
-1.449, -2.084e-7
-1.448, -8.702e-8
-1.447, -1.097e-7
-1.446, -1.620e-7
-1.445, -1.630e-7
-1.444, -1.354e-7
-1.443, -1.689e-7
-1.442, -1.324e-7
-1.441, -1.551e-7
-1.440, -2.261e-7
-1.439, -1.344e-7
-1.438, -2.330e-7
-1.437, -2.182e-7
-1.436, -2.449e-7
-1.435, -2.745e-7
-1.434, -3.228e-7
-1.433, -3.406e-7
-1.432, -3.297e-7
-1.431, -2.311e-7
-1.430, -2.587e-7
-1.429, -2.962e-7
-1.428, -2.666e-7
-1.427, -2.607e-7
-1.426, -3.179e-7
-1.425, -2.755e-7
-1.424, -3.228e-7
-1.423, -3.238e-7
-1.422, -2.863e-7
-1.421, -2.972e-7
-1.420, -3.406e-7
-1.419, -3.277e-7
-1.418, -3.504e-7
-1.417, -4.057e-7
-1.416, -4.294e-7
-1.415, -4.402e-7
-1.414, -4.481e-7
-1.413, -3.879e-7
-1.412, -3.564e-7
-1.411, -3.583e-7
-1.410, -3.534e-7
-1.409, -3.771e-7
-1.408, -3.376e-7
-1.407, -3.800e-7
-1.406, -3.790e-7
-1.405, -4.027e-7
-1.404, -3.416e-7
-1.403, -3.593e-7
-1.402, -4.067e-7
-1.401, -3.978e-7
-1.400, -4.639e-7
-1.399, -4.826e-7
-1.398, -5.024e-7
-1.397, -4.313e-7
-1.396, -4.175e-7
-1.395, -4.678e-7
-1.394, -4.274e-7
-1.393, -4.274e-7
-1.392, -4.353e-7
-1.391, -4.323e-7
-1.390, -4.619e-7
-1.389, -4.718e-7
-1.388, -4.570e-7
-1.387, -4.363e-7
-1.386, -4.757e-7
-1.385, -4.876e-7
-1.384, -4.600e-7
-1.383, -4.738e-7
-1.382, -4.580e-7
-1.381, -4.728e-7
-1.380, -4.846e-7
-1.379, -5.093e-7
-1.378, -5.241e-7
-1.377, -4.777e-7
-1.376, -5.132e-7
-1.375, -5.517e-7
-1.374, -4.886e-7
-1.373, -5.113e-7
-1.372, -5.014e-7
-1.371, -4.945e-7
-1.370, -5.576e-7
-1.369, -4.965e-7
-1.368, -4.895e-7
-1.367, -5.290e-7
-1.366, -5.547e-7
-1.365, -5.270e-7
-1.364, -5.211e-7
-1.363, -5.616e-7
-1.362, -5.251e-7
-1.361, -5.251e-7
-1.360, -5.517e-7
-1.359, -5.399e-7
-1.358, -5.724e-7
-1.357, -5.635e-7
-1.356, -5.685e-7
-1.355, -5.724e-7
-1.354, -5.882e-7
-1.353, -5.862e-7
-1.352, -5.764e-7
-1.351, -5.497e-7
-1.350, -5.813e-7
-1.349, -5.843e-7
-1.348, -5.764e-7
-1.347, -5.951e-7
-1.346, -5.981e-7
-1.345, -5.922e-7
-1.344, -6.218e-7
-1.343, -6.010e-7
-1.342, -6.148e-7
-1.341, -5.695e-7
-1.340, -6.208e-7
-1.339, -6.178e-7
-1.338, -6.168e-7
-1.337, -6.237e-7
-1.336, -6.267e-7
-1.335, -5.922e-7
-1.334, -6.316e-7
-1.333, -6.158e-7
-1.332, -6.277e-7
-1.331, -6.139e-7
-1.330, -6.484e-7
-1.329, -6.208e-7
-1.328, -6.079e-7
-1.327, -6.237e-7
-1.326, -6.484e-7
-1.325, -6.573e-7
-1.324, -6.632e-7
-1.323, -6.573e-7
-1.322, -6.869e-7
-1.321, -6.760e-7
-1.320, -6.296e-7
-1.319, -6.918e-7
-1.318, -6.869e-7
-1.317, -6.661e-7
-1.316, -6.444e-7
-1.315, -6.652e-7
-1.314, -6.652e-7
-1.313, -7.007e-7
-1.312, -6.523e-7
-1.311, -6.661e-7
-1.310, -6.523e-7
-1.309, -6.711e-7
-1.308, -6.819e-7
-1.307, -6.514e-7
-1.306, -6.898e-7
-1.305, -7.007e-7
-1.304, -6.721e-7
-1.303, -6.918e-7
-1.302, -7.184e-7
-1.301, -6.592e-7
-1.300, -6.938e-7
-1.299, -6.869e-7
-1.298, -7.105e-7
-1.297, -7.007e-7
-1.296, -7.036e-7
-1.295, -6.809e-7
-1.294, -6.642e-7
-1.293, -7.056e-7
-1.292, -7.461e-7
-1.291, -7.293e-7
-1.290, -7.066e-7
-1.289, -7.027e-7
-1.288, -6.918e-7
-1.287, -7.017e-7
-1.286, -7.362e-7
-1.285, -6.750e-7
-1.284, -7.076e-7
-1.283, -7.323e-7
-1.282, -7.747e-7
-1.281, -7.105e-7
-1.280, -7.401e-7
-1.279, -7.697e-7
-1.278, -7.125e-7
-1.277, -7.204e-7
-1.276, -7.638e-7
-1.275, -7.480e-7
-1.274, -7.786e-7
-1.273, -8.171e-7
-1.272, -8.280e-7
-1.271, -8.339e-7
-1.270, -7.747e-7
-1.269, -7.638e-7
-1.268, -7.175e-7
-1.267, -7.707e-7
-1.266, -8.013e-7
-1.265, -7.273e-7
-1.264, -7.510e-7
-1.263, -7.786e-7
-1.262, -7.845e-7
-1.261, -7.500e-7
-1.260, -7.855e-7
-1.259, -7.342e-7
-1.258, -7.678e-7
-1.257, -7.717e-7
-1.256, -7.717e-7
-1.255, -7.905e-7
-1.254, -7.964e-7
-1.253, -7.924e-7
-1.252, -7.757e-7
-1.251, -7.609e-7
-1.250, -7.816e-7
-1.249, -7.865e-7
-1.248, -7.628e-7
-1.247, -8.280e-7
-1.246, -7.944e-7
-1.245, -7.984e-7
-1.244, -7.974e-7
-1.243, -7.648e-7
-1.242, -8.003e-7
-1.241, -7.944e-7
-1.240, -7.786e-7
-1.239, -7.905e-7
-1.238, -7.984e-7
-1.237, -8.082e-7
-1.236, -8.082e-7
-1.235, -8.122e-7
-1.234, -7.697e-7
-1.233, -7.934e-7
-1.232, -7.895e-7
-1.231, -7.993e-7
-1.230, -7.964e-7
-1.229, -7.914e-7
-1.228, -8.220e-7
-1.227, -8.132e-7
-1.226, -7.954e-7
-1.225, -8.536e-7
-1.224, -7.954e-7
-1.223, -8.082e-7
-1.222, -8.546e-7
-1.221, -8.112e-7
-1.220, -7.796e-7
-1.219, -8.122e-7
-1.218, -8.122e-7
-1.217, -7.914e-7
-1.216, -8.615e-7
-1.215, -8.260e-7
-1.214, -7.934e-7
-1.213, -8.161e-7
-1.212, -8.220e-7
-1.211, -8.023e-7
-1.210, -7.984e-7
-1.209, -8.447e-7
-1.208, -7.895e-7
-1.207, -8.102e-7
-1.206, -8.260e-7
-1.205, -8.694e-7
-1.204, -8.043e-7
-1.203, -8.132e-7
-1.202, -8.319e-7
-1.201, -8.151e-7
-1.200, -8.250e-7
-1.199, -8.319e-7
-1.198, -8.477e-7
-1.197, -7.993e-7
-1.196, -8.605e-7
-1.195, -8.141e-7
-1.194, -8.398e-7
-1.193, -8.289e-7
-1.192, -8.635e-7
-1.191, -8.368e-7
-1.190, -8.092e-7
-1.189, -8.210e-7
-1.188, -8.566e-7
-1.187, -8.635e-7
-1.186, -8.516e-7
-1.185, -8.723e-7
-1.184, -8.191e-7
-1.183, -8.260e-7
-1.182, -8.871e-7
-1.181, -8.181e-7
-1.180, -8.753e-7
-1.179, -8.201e-7
-1.178, -8.625e-7
-1.177, -8.871e-7
-1.176, -8.477e-7
-1.175, -8.418e-7
-1.174, -8.556e-7
-1.173, -8.408e-7
-1.172, -8.842e-7
-1.171, -8.674e-7
-1.170, -8.368e-7
-1.169, -8.368e-7
-1.168, -9.000e-7
-1.167, -8.941e-7
-1.166, -8.625e-7
-1.165, -9.049e-7
-1.164, -8.743e-7
-1.163, -8.832e-7
-1.162, -8.802e-7
-1.161, -8.832e-7
-1.160, -8.427e-7
-1.159, -8.970e-7
-1.158, -9.049e-7
-1.157, -8.625e-7
-1.156, -8.763e-7
-1.155, -8.674e-7
-1.154, -8.714e-7
-1.153, -8.408e-7
-1.152, -8.931e-7
-1.151, -9.079e-7
-1.150, -8.546e-7
-1.149, -9.000e-7
-1.148, -8.980e-7
-1.147, -8.753e-7
-1.146, -8.566e-7
-1.145, -9.000e-7
-1.144, -8.911e-7
-1.143, -8.684e-7
-1.142, -8.773e-7
-1.141, -8.891e-7
-1.140, -8.635e-7
-1.139, -9.325e-7
-1.138, -8.960e-7
-1.137, -8.743e-7
-1.136, -8.802e-7
-1.135, -9.276e-7
-1.134, -9.237e-7
-1.133, -9.187e-7
-1.132, -8.871e-7
-1.131, -9.227e-7
-1.130, -9.148e-7
-1.129, -9.167e-7
-1.128, -8.980e-7
-1.127, -8.950e-7
-1.126, -9.148e-7
-1.125, -9.197e-7
-1.124, -9.552e-7
-1.123, -9.227e-7
-1.122, -9.039e-7
-1.121, -9.237e-7
-1.120, -9.098e-7
-1.119, -9.483e-7
-1.118, -9.473e-7
-1.117, -8.980e-7
-1.116, -9.177e-7
-1.115, -9.641e-7
-1.114, -9.019e-7
-1.113, -9.246e-7
-1.112, -9.227e-7
-1.111, -9.365e-7
-1.110, -9.532e-7
-1.109, -9.375e-7
-1.108, -9.286e-7
-1.107, -9.444e-7
-1.106, -9.463e-7
-1.105, -9.513e-7
-1.104, -9.503e-7
-1.103, -9.384e-7
-1.102, -9.503e-7
-1.101, -9.927e-7
-1.100, -9.483e-7
-1.099, -9.454e-7
-1.098, -9.621e-7
-1.097, -9.621e-7
-1.096, -9.700e-7
-1.095, -9.937e-7
-1.094, -9.690e-7
-1.093, -9.651e-7
-1.092, -9.680e-7
-1.091, -9.592e-7
-1.090, -9.779e-7
-1.089, -9.454e-7
-1.088, -9.828e-7
-1.087, -1.012e-6
-1.086, -9.454e-7
-1.085, -9.740e-7
-1.084, -9.858e-7
-1.083, -9.878e-7
-1.082, -1.008e-6
-1.081, -1.019e-6
-1.080, -9.680e-7
-1.079, -1.005e-6
-1.078, -1.012e-6
-1.077, -9.907e-7
-1.076, -1.005e-6
-1.075, -1.024e-6
-1.074, -1.008e-6
-1.073, -1.028e-6
-1.072, -9.927e-7
-1.071, -1.045e-6
-1.070, -9.888e-7
-1.069, -1.040e-6
-1.068, -1.063e-6
-1.067, -1.007e-6
-1.066, -1.017e-6
-1.065, -1.035e-6
-1.064, -1.048e-6
-1.063, -1.010e-6
-1.062, -1.071e-6
-1.061, -1.025e-6
-1.060, -1.022e-6
-1.059, -1.046e-6
-1.058, -1.063e-6
-1.057, -1.013e-6
-1.056, -1.049e-6
-1.055, -1.077e-6
-1.054, -1.082e-6
-1.053, -1.048e-6
-1.052, -1.039e-6
-1.051, -1.098e-6
-1.050, -1.055e-6
-1.049, -1.058e-6
-1.048, -1.058e-6
-1.047, -1.059e-6
-1.046, -1.076e-6
-1.045, -1.105e-6
-1.044, -1.054e-6
-1.043, -1.080e-6
-1.042, -1.084e-6
-1.041, -1.126e-6
-1.040, -1.103e-6
-1.039, -1.089e-6
-1.038, -1.098e-6
-1.037, -1.117e-6
-1.036, -1.118e-6
-1.035, -1.096e-6
-1.034, -1.102e-6
-1.033, -1.102e-6
-1.032, -1.132e-6
-1.031, -1.115e-6
-1.030, -1.122e-6
-1.029, -1.102e-6
-1.028, -1.149e-6
-1.027, -1.137e-6
-1.026, -1.120e-6
-1.025, -1.126e-6
-1.024, -1.140e-6
-1.023, -1.176e-6
-1.022, -1.170e-6
-1.021, -1.144e-6
-1.020, -1.127e-6
-1.019, -1.156e-6
-1.018, -1.171e-6
-1.017, -1.159e-6
-1.016, -1.167e-6
-1.015, -1.175e-6
-1.014, -1.177e-6
-1.013, -1.161e-6
-1.012, -1.157e-6
-1.011, -1.200e-6
-1.010, -1.174e-6
-1.009, -1.195e-6
-1.008, -1.205e-6
-1.007, -1.193e-6
-1.006, -1.195e-6
-1.005, -1.181e-6
-1.004, -1.234e-6
-1.003, -1.177e-6
-1.002, -1.202e-6
-1.001, -1.228e-6
