Potential V vs RHE, Current mA cm-2
0.013299999999999867,0.21588494435940458
0.012299999999999978,-1.2234423321232837
0.011299999999999866,-2.226755585987568
0.010299999999999976,-2.968064307116847
0.009299999999999864,-3.4915074880669104
0.008299999999999974,-3.7970851288377587
0.007299999999999862,-4.014950669016974
0.006299999999999972,-4.3205283097878215
0.00529999999999986,-4.626105950558669
0.0042999999999999705,-4.974124930325469
0.0032999999999998586,-5.235846520800501
0.0022999999999999687,-5.367414671687949
0.0012999999999998568,-5.497568111275533
0.00029999999999996696,-5.585280211867165
-0.000700000000000145,-5.759289701750564
-0.0017000000000000348,-5.977155241929781
-0.0027000000000001467,-6.238876832404812
-0.0037000000000000366,-6.414301033588076
-0.0047000000000001485,-6.458157083883892
-0.005700000000000038,-6.500598422879844
-0.00670000000000015,-6.632166573767292
-0.00770000000000004,-6.806176063650692
-0.008700000000000152,-7.024041603829907
-0.009700000000000042,-7.243321855308987
-0.010700000000000154,-7.37347529489657
-0.011700000000000044,-7.4173313451923875
-0.012700000000000156,-7.461187395488204
-0.013700000000000045,-7.591340835075788
-0.014700000000000157,-7.809206375255003
-0.015700000000000047,-8.027071915434218
-0.01670000000000016,-8.202496116617484
-0.01770000000000005,-8.332649556205066
-0.01870000000000016,-8.376505606500881
-0.01970000000000005,-8.4203616567967
-0.020700000000000163,-8.55051509638428
-0.021700000000000053,-8.769795347863363
-0.022700000000000164,-9.031516938338395
-0.023700000000000054,-9.205526428221793
-0.024700000000000166,-9.293238528813426
-0.025700000000000056,-9.335679867809377
-0.026700000000000168,-9.423391968401008
-0.027700000000000058,-9.59740145828441
-0.02870000000000017,-9.81668170976349
-0.02970000000000006,-10.078403300238522
-0.03070000000000017,-10.25241279012192
-0.03170000000000006,-10.296268840417738
-0.03270000000000017,-10.340124890713554
-0.03370000000000006,-10.470278330301136
-0.034700000000000175,-10.688143870480351
-0.035700000000000065,-10.949865460955383
-0.03670000000000018,-11.1677310011346
-0.03770000000000007,-11.299299152022046
-0.03870000000000018,-11.385596541313816
-0.03970000000000007,-11.42945259160963
-0.04070000000000018,-11.604876792792895
-0.04170000000000007,-11.86659838326793
-0.04270000000000018,-12.12831997374296
-0.04370000000000007,-12.302329463626359
-0.044700000000000184,-12.390041564217992
-0.045700000000000074,-12.432482903213943
-0.046700000000000186,-12.56405105410139
-0.047700000000000076,-12.73806054398479
-0.04870000000000019,-12.99978213445982
-0.04970000000000008,-13.217647674639037
-0.05070000000000019,-13.3930718758223
-0.05170000000000008,-13.47936926511407
-0.05270000000000019,-13.523225315409885
-0.05370000000000008,-13.654793466297335
-0.05470000000000019,-13.872659006476551
-0.05570000000000008,-14.13438059695158
-0.056700000000000195,-14.345172580631472
-0.057700000000000085,-14.486643710617974
-0.058700000000000196,-14.529085049613924
-0.059700000000000086,-14.61396772760583
-0.0607000000000002,-14.741291744593681
-0.06170000000000009,-14.967645552572087
-0.0627000000000002,-15.264734925543747
-0.06370000000000009,-15.3920589425316
-0.0647000000000002,-15.533530072518102
-0.06570000000000009,-15.533530072518102
-0.0667000000000002,-15.618412750510005
-0.0677000000000001,-15.78817810649381
-0.0687000000000002,-16.056973253468165
-0.0697000000000001,-16.269179948447924
-0.07070000000000021,-16.438945304431726
-0.0717000000000001,-16.495533756426326
-0.07270000000000021,-16.495533756426326
-0.0737000000000001,-16.622857773414182
-0.07470000000000021,-16.792623129397985
-0.0757000000000001,-17.061418276372343
-0.07670000000000021,-17.231183632356142
-0.0777000000000001,-17.316066310348052
-0.07870000000000021,-17.358507649344002
-0.0797000000000001,-17.40094898833995
-0.08070000000000022,-17.542420118326454
-0.0817000000000001,-17.71218547431026
-0.08270000000000022,-17.924392169290012
-0.08370000000000011,-18.10830463827247
-0.08470000000000022,-18.15074597726842
-0.08570000000000011,-18.15074597726842
-0.08670000000000022,-18.19318731626437
-0.08770000000000011,-18.362952672248177
-0.08870000000000022,-18.589306480226583
-0.08970000000000011,-18.759071836210385
-0.09070000000000022,-18.88639585319824
-0.09170000000000011,-18.88639585319824
-0.09270000000000023,-18.88639585319824
-0.09370000000000012,-18.97127853119014
-0.09470000000000023,-19.112749661176647
-0.09570000000000012,-19.3249563561564
-0.09670000000000023,-19.49472171214021
-0.09770000000000012,-19.579604390132108
-0.09870000000000023,-19.579604390132108
-0.09970000000000012,-19.579604390132108
-0.10070000000000023,-19.678634181122664
-0.10170000000000012,-19.848399537106463
-0.10270000000000024,-20.01816489309027
-0.10370000000000013,-20.159636023076775
-0.10470000000000024,-20.202077362072725
-0.10570000000000013,-20.202077362072725
-0.10670000000000024,-20.202077362072725
-0.10770000000000013,-20.329401379060574
-0.10870000000000024,-20.499166735044383
-0.10970000000000013,-20.683079204026836
-0.11070000000000024,-20.76796188201874
-0.11170000000000013,-20.76796188201874
-0.11270000000000002,-20.72552054302279
-0.11370000000000013,-20.76796188201874
-0.11470000000000002,-20.89528589900659
-0.11570000000000014,-21.107492593986347
-0.11670000000000003,-21.248963723972853
-0.11770000000000014,-21.291405062968803
-0.11870000000000003,-21.248963723972853
-0.11970000000000014,-21.248963723972853
-0.12070000000000003,-21.291405062968803
-0.12170000000000014,-21.461170418952605
-0.12270000000000003,-21.63093577493641
-0.12370000000000014,-21.729965565926964
-0.12470000000000003,-21.729965565926964
-0.12570000000000014,-21.67337711393236
-0.12670000000000003,-21.67337711393236
-0.12770000000000015,-21.772406904922917
-0.12870000000000004,-21.899730921910766
-0.12970000000000015,-22.069496277894572
-0.13070000000000004,-22.15437895588647
-0.13170000000000015,-22.111937616890522
-0.13270000000000004,-22.069496277894572
-0.13370000000000015,-22.111937616890522
-0.13470000000000004,-22.253408746877028
-0.13570000000000015,-22.38073276386488
-0.13670000000000004,-22.508056780852733
-0.13770000000000016,-22.508056780852733
-0.13870000000000005,-22.46561544185678
-0.13970000000000016,-22.42317410286083
-0.14070000000000005,-22.46561544185678
-0.14170000000000016,-22.592939458844636
-0.14270000000000005,-22.776851927827092
-0.14370000000000016,-22.819293266823045
-0.14470000000000005,-22.819293266823045
-0.14570000000000016,-22.776851927827092
-0.14670000000000005,-22.72026347583249
-0.14770000000000016,-22.776851927827092
-0.14870000000000005,-22.946617283810895
-0.14970000000000017,-23.073941300798747
-0.15070000000000006,-23.1163826397947
-0.15170000000000017,-23.031499961802798
-0.15270000000000006,-22.989058622806844
-0.15370000000000017,-22.989058622806844
-0.15470000000000006,-23.031499961802798
-0.15570000000000017,-23.15882397879065
-0.15670000000000006,-23.24370665678255
-0.15770000000000017,-23.24370665678255
-0.15870000000000006,-23.15882397879065
-0.15970000000000018,-23.073941300798747
-0.16070000000000007,-23.1163826397947
-0.16170000000000018,-23.2012653177866
-0.16270000000000007,-23.342736447773106
-0.16370000000000018,-23.385177786769056
-0.16470000000000007,-23.342736447773106
-0.16570000000000018,-23.2012653177866
-0.16670000000000007,-23.15882397879065
-0.16770000000000018,-23.15882397879065
-0.16870000000000007,-23.300295108777156
-0.16970000000000018,-23.342736447773106
-0.17070000000000007,-23.385177786769056
-0.17170000000000019,-23.24370665678255
-0.17270000000000008,-23.1163826397947
-0.1737000000000002,-23.073941300798747
-0.17470000000000008,-23.1163826397947
-0.1757000000000002,-23.2012653177866
-0.17670000000000008,-23.24370665678255
-0.1777000000000002,-23.15882397879065
-0.17870000000000008,-23.031499961802798
-0.1797000000000002,-22.904175944814945
-0.18070000000000008,-22.861734605818995
-0.1817000000000002,-22.904175944814945
-0.18270000000000008,-22.989058622806844
-0.1837000000000002,-22.989058622806844
-0.1847000000000001,-22.861734605818995
-0.1857000000000002,-22.72026347583249
-0.1867000000000001,-22.550498119848687
-0.1877000000000002,-22.592939458844636
-0.1887000000000001,-22.63538079784059
-0.1897000000000002,-22.63538079784059
-0.1907000000000001,-22.592939458844636
-0.1917000000000001,-22.42317410286083
-0.19269999999999998,-22.253408746877028
-0.1937000000000001,-22.15437895588647
-0.19469999999999998,-22.111937616890522
-0.1957000000000001,-22.15437895588647
-0.19669999999999999,-22.15437895588647
-0.1977000000000001,-22.069496277894572
-0.1987,-21.899730921910766
-0.1997000000000001,-21.67337711393236
-0.2007,-21.58849443594046
-0.2017000000000001,-21.58849443594046
-0.2027,-21.58849443594046
-0.2037000000000001,-21.54605309694451
-0.2047,-21.376287740960702
-0.2057000000000001,-21.2065223849769
-0.2067,-21.022609915994444
-0.2077000000000001,-20.980168576998494
-0.2087,-20.980168576998494
-0.2097000000000001,-20.93772723800254
-0.2107,-20.85284456001064
-0.2117000000000001,-20.683079204026836
-0.2127,-20.414284057052477
-0.2137000000000001,-20.286960040064624
-0.2147,-20.286960040064624
-0.2157000000000001,-20.329401379060574
-0.2167,-20.244518701068674
-0.21770000000000012,-20.10304757108217
-0.2187,-19.890840876102416
-0.21970000000000012,-19.678634181122664
-0.2207,-19.537163051136158
-0.22170000000000012,-19.537163051136158
-0.2227,-19.537163051136158
-0.22370000000000012,-19.452280373144255
-0.2247,-19.28251501716045
-0.22570000000000012,-19.056161209182044
-0.2267,-18.88639585319824
-0.22770000000000012,-18.80151317520634
-0.22870000000000001,-18.80151317520634
-0.22970000000000013,-18.759071836210385
-0.23070000000000002,-18.674189158218486
-0.23170000000000013,-18.44783535024008
-0.23270000000000002,-18.23562865526032
-0.23370000000000013,-18.10830463827247
-0.23470000000000002,-18.06586329927652
-0.23570000000000013,-18.06586329927652
-0.23670000000000002,-18.06586329927652
-0.2376999999999999,-17.881950830294063
-0.23870000000000002,-17.71218547431026
-0.2396999999999999,-17.48583166633185
-0.24070000000000003,-17.40094898833995
-0.24169999999999991,-17.40094898833995
-0.24270000000000003,-17.40094898833995
-0.24369999999999992,-17.358507649344002
-0.24470000000000003,-17.188742293360193
-0.24569999999999992,-17.018976937376394
-0.24670000000000003,-16.877505807389888
-0.24769999999999992,-16.835064468393938
-0.24870000000000003,-16.835064468393938
-0.24969999999999992,-16.835064468393938
-0.25070000000000003,-16.750181790402035
-0.2516999999999999,-16.580416434418233
-0.25270000000000004,-16.396503965435777
-0.2536999999999999,-16.269179948447924
-0.25470000000000004,-16.311621287443874
-0.2556999999999999,-16.311621287443874
-0.25670000000000004,-16.311621287443874
-0.25769999999999993,-16.22673860945197
-0.25870000000000004,-16.056973253468165
-0.25969999999999993,-15.91550212348166
-0.26070000000000004,-15.830619445489761
-0.26169999999999993,-15.830619445489761
-0.26270000000000004,-15.91550212348166
-0.26369999999999993,-15.87306078448571
-0.26470000000000005,-15.78817810649381
-0.26569999999999994,-15.618412750510005
-0.26670000000000005,-15.533530072518102
-0.26769999999999994,-15.533530072518102
-0.26870000000000005,-15.575971411514052
-0.26969999999999994,-15.618412750510005
-0.27070000000000005,-15.575971411514052
-0.27169999999999994,-15.448647394526201
-0.27270000000000005,-15.307176264539699
-0.27369999999999994,-15.264734925543747
-0.27470000000000006,-15.264734925543747
-0.27569999999999995,-15.349617603535648
-0.27670000000000006,-15.3920589425316
-0.27769999999999995,-15.307176264539699
-0.27870000000000006,-15.179852247551842
-0.27969999999999995,-15.094969569559943
-0.28070000000000006,-15.094969569559943
-0.28169999999999995,-15.137410908555893
-0.28270000000000006,-15.222293586547794
-0.28369999999999995,-15.264734925543747
-0.28470000000000006,-15.179852247551842
-0.28569999999999995,-15.05252823056399
-0.28670000000000007,-14.967645552572087
-0.28769999999999996,-15.05252823056399
-0.28870000000000007,-15.137410908555893
-0.28969999999999996,-15.222293586547794
-0.29070000000000007,-15.222293586547794
-0.29169999999999996,-15.137410908555893
-0.29270000000000007,-15.05252823056399
-0.29369999999999996,-15.01008689156804
-0.2947000000000001,-15.094969569559943
-0.29569999999999996,-15.222293586547794
-0.2967000000000001,-15.307176264539699
-0.29769999999999996,-15.264734925543747
-0.2987000000000001,-15.222293586547794
-0.29969999999999997,-15.137410908555893
-0.3007000000000001,-15.137410908555893
-0.30169999999999997,-15.264734925543747
-0.3027000000000001,-15.448647394526201
-0.30369999999999997,-15.491088733522153
-0.3047000000000001,-15.448647394526201
-0.30569999999999997,-15.3920589425316
-0.3067000000000001,-15.349617603535648
-0.3077,-15.448647394526201
-0.3087000000000001,-15.575971411514052
-0.3097,-15.70329542850191
-0.3107000000000001,-15.74573676749786
-0.3117,-15.74573676749786
-0.3127000000000001,-15.660854089505953
-0.3137,-15.70329542850191
-0.3147000000000001,-15.830619445489761
-0.3157,-16.014531914472215
-0.3167000000000001,-16.141855931460068
-0.3177,-16.184297270456018
-0.3187000000000001,-16.141855931460068
-0.3197,-16.141855931460068
-0.3207000000000001,-16.269179948447924
-0.3217,-16.396503965435777
-0.3227000000000001,-16.580416434418233
-0.3237,-16.70774045140608
-0.3247000000000001,-16.750181790402035
-0.3257,-16.750181790402035
-0.3267000000000001,-16.792623129397985
-0.3277,-16.919947146385837
-0.3287000000000001,-17.146300954364243
-0.3297,-17.358507649344002
-0.3307000000000001,-17.4433903273359
-0.3317,-17.48583166633185
-0.3327000000000001,-17.542420118326454
-0.3337,-17.669744135314307
-0.3347000000000001,-17.881950830294063
-0.3357,-18.15074597726842
-0.3367000000000001,-18.362952672248177
-0.3377,-18.49027668923603
-0.3387000000000001,-18.53271802823198
-0.3397,-18.674189158218486
-0.3407000000000001,-18.843954514202288
-0.3417,-19.155191000172596
-0.3427000000000001,-19.452280373144255
-0.3437,-19.678634181122664
-0.3447000000000001,-19.805958198110513
-0.3457,-19.93328221509837
-0.3467000000000001,-20.10304757108217
-0.3477,-20.414284057052477
-0.3487000000000001,-20.810403221014692
-0.3497,-21.107492593986347
-0.3507000000000001,-21.418729079956652
-0.3517,-21.58849443594046
-0.3527000000000001,-21.814848243918867
-0.3537,-22.111937616890522
-0.3547000000000001,-22.550498119848687
-0.3557,-23.031499961802798
-0.35670000000000013,-23.427619125765005
-0.3577,-23.767149837732617
-0.35870000000000013,-24.120827662698876
-0.3597,-24.432064148669184
-0.36070000000000013,-24.9130659906233
-0.3617,-25.478950510569312
-0.3626999999999999,-26.044835030515326
-0.3637,-26.61071955046134
-0.3646999999999999,-27.091721392415455
-0.3657,-27.530281895373616
-0.3666999999999999,-28.13860775431558
-0.3677,-28.831816291249446
-0.3686999999999999,-29.581613280177915
-0.36970000000000003,-30.402145834099635
-0.3706999999999999,-31.137795710029454
-0.37170000000000003,-31.887592698957924
-0.3726999999999999,-32.62324257488775
-0.37370000000000003,-33.50036358080407
-0.3746999999999999,-34.5472499427042
-0.37570000000000003,-35.679018982596226
-0.3766999999999999,-36.768346683492304
-0.37770000000000004,-37.90011572338433
-0.3786999999999999,-38.98944342428042
-0.37970000000000004,-40.220242255162994
-0.3806999999999999,-41.52177665103883
-0.38170000000000004,-43.007223515897124
-0.38269999999999993,-44.619994397743255
-0.38370000000000004,-46.19032394059345
-0.38469999999999993,-47.76065348344364
-0.38570000000000004,-49.41586570428573
-0.38669999999999993,-49.76954352925199
-0.38570000000000004,-48.59533315036401
-0.38469999999999993,-48.071889969413945
-0.38370000000000004,-47.84553616143554
-0.38269999999999993,-47.633329466455784
-0.38170000000000004,-47.40697565847737
-0.3806999999999999,-47.15232762450167
-0.37970000000000004,-46.94012092952192
-0.3786999999999999,-46.79864979953541
-0.37770000000000004,-46.67132578254756
-0.3766999999999999,-46.501560426563756
-0.37570000000000003,-46.10544126260155
-0.3746999999999999,-45.666880759643384
-0.37370000000000003,-45.18587891768927
-0.3726999999999999,-44.74731841473111
-0.37170000000000003,-44.3229050247716
-0.3706999999999999,-43.92678586080939
-0.36970000000000003,-43.40334267985933
-0.3686999999999999,-42.752575481921404
-0.3677,-42.04521983198889
-0.3666999999999999,-41.352011295055014
-0.3657,-40.78612677510901
-0.3646999999999999,-40.26268359415894
-0.3637,-39.654357735216976
-0.3626999999999999,-38.98944342428042
-0.3617,-38.211352209354644
-0.36070000000000013,-37.41911388143023
-0.3597,-36.725905344496354
-0.35870000000000013,-36.07513814655844
-0.3577,-35.46681228761647
-0.35670000000000013,-34.8018979766799
-0.3557,-34.02380676175414
-0.3547000000000001,-33.231568433829715
-0.3537,-32.45347721890394
-0.3527000000000001,-31.76026868197007
-0.3517,-31.137795710029454
-0.3507000000000001,-30.529469851087494
-0.3497,-29.878702653149578
-0.3487000000000001,-29.100611438223805
-0.3477,-28.308373110299385
-0.3467000000000001,-27.572723234369565
-0.3457,-26.907808923433
-0.3447000000000001,-26.34192440348698
-0.3437,-25.691157205549064
-0.3427000000000001,-25.04039000761115
-0.3417,-24.34718147067728
-0.3407000000000001,-23.597384481748815
-0.3397,-22.904175944814945
-0.3387000000000001,-22.33829142486893
-0.3377,-21.814848243918867
-0.3367000000000001,-21.248963723972853
-0.3357,-20.584049413036283
-0.3347000000000001,-19.848399537106463
-0.3337,-19.2400736781645
-0.3327000000000001,-18.631747819222536
-0.3317,-18.15074597726842
-0.3307000000000001,-17.669744135314307
-0.3297,-17.146300954364243
-0.3287000000000001,-16.495533756426326
-0.3277,-15.87306078448571
-0.3267000000000001,-15.264734925543747
-0.3257,-14.826174422585586
-0.3247000000000001,-14.345172580631472
-0.3237,-13.916515056772363
-0.3227000000000001,-13.436927926118118
-0.3217,-12.869628694872238
-0.3207000000000001,-12.258473413330542
-0.3197,-11.82274233297211
-0.3187000000000001,-11.385596541313816
-0.3177,-11.037577561547016
-0.3167000000000001,-10.644287820184536
-0.3157,-10.164700689530287
-0.3147000000000001,-9.641257508580225
-0.3137,-9.161670377925978
-0.3127000000000001,-8.725939297567548
-0.3117,-8.4203616567967
-0.3107000000000001,-8.158640066321666
-0.3097,-7.7653503249591855
-0.3087000000000001,-7.329619244600755
-0.3077,-6.850032113946507
-0.3067000000000001,-6.458157083883892
-0.30569999999999997,-6.152579443113044
-0.3047000000000001,-5.9347139029338285
-0.30369999999999997,-5.672992312458796
-0.3027000000000001,-5.279702571096316
-0.30169999999999997,-4.887827541033701
-0.3007000000000001,-4.494537799671222
-0.29969999999999997,-4.1889601589003735
-0.2987000000000001,-3.971094618721158
-0.29769999999999996,-3.7532290785419424
-0.2967000000000001,-3.5353635383627267
-0.29569999999999996,-3.2297858975918787
-0.2947000000000001,-2.8379108675292635
-0.29369999999999996,-2.532333226758415
-0.29270000000000007,-2.2706116362833835
-0.29169999999999996,-2.1390434853959355
-0.29070000000000007,-1.9650339955125358
-0.28969999999999996,-1.7471684553333202
-0.28870000000000007,-1.4415908145624723
-0.28769999999999996,-1.1362961160515976
-0.28670000000000007,-0.8745745255765657
-0.28569999999999995,-0.7001406223032067
-0.28470000000000006,-0.5692798270656908
-0.28369999999999995,-0.4384190318281749
-0.28270000000000006,-0.26384365742482935
-0.28169999999999995,0.04140859974704963
-0.28070000000000006,0.3031726315610774
-0.27969999999999995,0.5211796428702795
-0.27870000000000006,0.6084673300719523
-0.27769999999999995,0.6956135461436386
-0.27670000000000006,0.8264743413811545
-0.27569999999999995,1.0446228238203432
-0.27470000000000006,1.3063444142953748
-0.27369999999999994,1.5250587812545096
-0.27270000000000005,1.655212220842093
-0.27169999999999994,1.6990682711379093
-0.27070000000000005,1.7867803717295414
-0.26969999999999994,1.8730777610213083
-0.26870000000000005,2.1347993514963406
