Potential V vs RHE, Current mA cm-2
0.013299999999999867,-0.1330535977523067
0.012299999999999978,-1.7033124050375041
0.011299999999999866,-2.794054817233447
0.010299999999999976,-3.623075638954359
0.009299999999999864,-4.23281620919619
0.008299999999999974,-4.800115440442069
0.007299999999999862,-5.323558621392133
0.006299999999999972,-5.759289701750564
0.00529999999999986,-6.196435493408861
0.0042999999999999705,-6.632166573767292
0.0032999999999998586,-6.93774421453814
0.0022999999999999687,-7.155609754717355
0.0012999999999998568,-7.37347529489657
0.00029999999999996696,-7.5474847847799715
-0.000700000000000145,-7.679052935667419
-0.0017000000000000348,-7.896918475846635
-0.0027000000000001467,-8.11478401602585
-0.0037000000000000366,-8.376505606500881
-0.0047000000000001485,-8.594371146680096
-0.005700000000000038,-8.85609273715513
-0.00670000000000015,-9.031516938338395
-0.00770000000000004,-9.205526428221793
-0.008700000000000152,-9.335679867809377
-0.009700000000000042,-9.423391968401008
-0.010700000000000154,-9.55496011928846
-0.011700000000000044,-9.728969609171857
-0.012700000000000156,-9.902979099055257
-0.013700000000000045,-10.164700689530287
-0.014700000000000157,-10.382566229709504
-0.015700000000000047,-10.601846481188586
-0.01670000000000016,-10.819712021367803
-0.01770000000000005,-10.949865460955383
-0.01870000000000016,-11.081433611842833
-0.01970000000000005,-11.211587051430415
-0.020700000000000163,-11.343155202317865
-0.021700000000000053,-11.517164692201263
-0.022700000000000164,-11.691174182084664
-0.023700000000000054,-11.909039722263879
-0.024700000000000166,-12.170761312738911
-0.025700000000000056,-12.432482903213943
-0.026700000000000168,-12.651763154693022
-0.027700000000000058,-12.825772644576423
-0.02870000000000017,-12.955926084164007
-0.02970000000000006,-13.13135028534727
-0.03070000000000017,-13.261503724934855
-0.03170000000000006,-13.436927926118118
-0.03270000000000017,-13.654793466297335
-0.03370000000000006,-13.916515056772363
-0.034700000000000175,-14.175407224647667
-0.035700000000000065,-14.486643710617974
-0.03670000000000018,-14.69885040559773
-0.03770000000000007,-14.925204213576137
-0.03870000000000018,-15.05252823056399
-0.03970000000000007,-15.179852247551842
-0.04070000000000018,-15.349617603535648
-0.04170000000000007,-15.533530072518102
-0.04270000000000018,-15.78817810649381
-0.04370000000000007,-16.056973253468165
-0.044700000000000184,-16.311621287443874
-0.045700000000000074,-16.622857773414182
-0.046700000000000186,-16.877505807389888
-0.047700000000000076,-17.061418276372343
-0.04870000000000019,-17.231183632356142
-0.04970000000000008,-17.40094898833995
-0.05070000000000019,-17.542420118326454
-0.05170000000000008,-17.75462681330621
-0.05270000000000019,-17.966833508285966
-0.05370000000000008,-18.23562865526032
-0.05470000000000019,-18.53271802823198
-0.05570000000000008,-18.843954514202288
-0.056700000000000195,-19.112749661176647
-0.057700000000000085,-19.28251501716045
-0.058700000000000196,-19.452280373144255
-0.059700000000000086,-19.636192842126707
-0.0607000000000002,-19.763516859114564
-0.06170000000000009,-19.97572355409432
-0.0627000000000002,-20.202077362072725
-0.06370000000000009,-20.456725396048434
-0.0647000000000002,-20.76796188201874
-0.06570000000000009,-21.022609915994444
-0.0667000000000002,-21.248963723972853
-0.0677000000000001,-21.461170418952605
-0.0687000000000002,-21.58849443594046
-0.0697000000000001,-21.772406904922917
-0.07070000000000021,-21.899730921910766
-0.0717000000000001,-22.069496277894572
-0.07270000000000021,-22.295850085872978
-0.0737000000000001,-22.508056780852733
-0.07470000000000021,-22.819293266823045
-0.0757000000000001,-23.073941300798747
-0.07670000000000021,-23.300295108777156
-0.0777000000000001,-23.47006046476096
-0.07870000000000021,-23.639825820744765
-0.0797000000000001,-23.767149837732617
-0.08070000000000022,-23.908620967719123
-0.0817000000000001,-24.035944984706973
-0.08270000000000022,-24.20571034069078
-0.08370000000000011,-24.474505487665134
-0.08470000000000022,-24.729153521640843
-0.08570000000000011,-24.95550732961925
-0.08670000000000022,-25.167714024599
-0.08770000000000011,-25.337479380582806
-0.08870000000000022,-25.478950510569312
-0.08970000000000011,-25.563833188561212
-0.09070000000000022,-25.648715866553115
-0.09170000000000011,-25.77603988354097
-0.09270000000000023,-25.959952352523427
-0.09370000000000012,-26.17215904750318
-0.09470000000000023,-26.38436574248293
-0.09570000000000012,-26.65316088945729
-0.09670000000000023,-26.822926245441096
-0.09770000000000012,-26.9643973754276
-0.09870000000000023,-27.091721392415455
-0.09970000000000012,-27.176604070407354
-0.10070000000000023,-27.219045409403304
-0.10170000000000012,-27.34636942639116
-0.10270000000000024,-27.530281895373616
-0.10370000000000013,-27.65760591236147
-0.10470000000000024,-27.869812607341224
-0.10570000000000013,-28.13860775431558
-0.10670000000000024,-28.265931771303435
-0.10770000000000013,-28.393255788291288
-0.10870000000000024,-28.478138466283188
-0.10970000000000013,-28.53472691827779
-0.11070000000000024,-28.619609596269694
-0.11170000000000013,-28.704492274261593
-0.11270000000000002,-28.831816291249446
-0.11370000000000013,-29.058170099227848
-0.11470000000000002,-29.22793545521166
-0.11570000000000014,-29.39770081119546
-0.11670000000000003,-29.581613280177915
-0.11770000000000014,-29.66649595816982
-0.11870000000000003,-29.751378636161718
-0.11970000000000014,-29.793819975157668
-0.12070000000000003,-29.836261314153624
-0.12170000000000014,-29.921143992145527
-0.12270000000000003,-30.00602667013743
-0.12370000000000014,-30.232380478115836
-0.12470000000000003,-30.402145834099635
-0.12570000000000014,-30.571911190083444
-0.12670000000000003,-30.71338232006995
-0.12770000000000015,-30.79826499806185
-0.12870000000000004,-30.8407063370578
-0.12970000000000015,-30.925589015049702
-0.13070000000000004,-30.925589015049702
-0.13170000000000015,-30.968030354045652
-0.13270000000000004,-31.095354371033505
-0.13370000000000015,-31.23682550102001
-0.13470000000000004,-31.40659085700382
-0.13570000000000015,-31.533914873991666
-0.13670000000000004,-31.661238890979522
-0.13770000000000016,-31.76026868197007
-0.13870000000000005,-31.802710020966025
-0.13970000000000016,-31.84515135996197
-0.14070000000000005,-31.802710020966025
-0.14170000000000016,-31.887592698957924
-0.14270000000000005,-31.972475376949827
-0.14370000000000016,-32.09979939393769
-0.14470000000000005,-32.283711862920136
-0.14570000000000016,-32.41103587990799
-0.14670000000000005,-32.49591855789989
-0.14770000000000016,-32.58080123589179
-0.14870000000000005,-32.58080123589179
-0.14970000000000017,-32.62324257488775
-0.15070000000000006,-32.62324257488775
-0.15170000000000017,-32.62324257488775
-0.15270000000000006,-32.70812525287965
-0.15370000000000017,-32.84959638286615
-0.15470000000000006,-32.97692039985401
-0.15570000000000017,-33.10424441684186
-0.15670000000000006,-33.18912709483376
-0.15770000000000017,-33.231568433829715
-0.15870000000000006,-33.288156885824314
-0.15970000000000018,-33.231568433829715
-0.16070000000000007,-33.18912709483376
-0.16170000000000018,-33.18912709483376
-0.16270000000000007,-33.288156885824314
-0.16370000000000018,-33.373039563816214
-0.16470000000000007,-33.50036358080407
-0.16570000000000018,-33.627687597791926
-0.16670000000000007,-33.712570275783825
-0.16770000000000018,-33.712570275783825
-0.16870000000000007,-33.670128936787876
-0.16970000000000018,-33.627687597791926
-0.17070000000000007,-33.58524625879597
-0.17170000000000019,-33.58524625879597
-0.17270000000000008,-33.627687597791926
-0.1737000000000002,-33.670128936787876
-0.17470000000000008,-33.755011614779775
-0.1757000000000002,-33.85404140577033
-0.17670000000000008,-33.89648274476628
-0.1777000000000002,-33.85404140577033
-0.17870000000000008,-33.81160006677438
-0.1797000000000002,-33.755011614779775
-0.18070000000000008,-33.670128936787876
-0.1817000000000002,-33.627687597791926
-0.18270000000000008,-33.670128936787876
-0.1837000000000002,-33.670128936787876
-0.1847000000000001,-33.712570275783825
-0.1857000000000002,-33.81160006677438
-0.1867000000000001,-33.81160006677438
-0.1877000000000002,-33.81160006677438
-0.1887000000000001,-33.670128936787876
-0.1897000000000002,-33.58524625879597
-0.1907000000000001,-33.50036358080407
-0.1917000000000001,-33.41548090281216
-0.19269999999999998,-33.373039563816214
-0.1937000000000001,-33.373039563816214
-0.19469999999999998,-33.373039563816214
-0.1957000000000001,-33.41548090281216
-0.19669999999999999,-33.41548090281216
-0.1977000000000001,-33.288156885824314
-0.1987,-33.18912709483376
-0.1997000000000001,-33.01936173884996
-0.2007,-32.892037721862096
-0.2017000000000001,-32.807155043870196
-0.2027,-32.70812525287965
-0.2037000000000001,-32.66568391388369
-0.2047,-32.66568391388369
-0.2057000000000001,-32.62324257488775
-0.2067,-32.58080123589179
-0.2077000000000001,-32.45347721890394
-0.2087,-32.32615320191609
-0.2097000000000001,-32.14224073293363
-0.2107,-31.930034037953877
-0.2117000000000001,-31.802710020966025
-0.2127,-31.717827342974125
-0.2137000000000001,-31.618797551983565
-0.2147,-31.57635621298762
-0.2157000000000001,-31.57635621298762
-0.2167,-31.49147353499572
-0.21770000000000012,-31.321708179011907
-0.2187,-31.137795710029454
-0.21970000000000012,-30.925589015049702
-0.2207,-30.71338232006995
-0.22170000000000012,-30.529469851087494
-0.2227,-30.402145834099635
-0.22370000000000012,-30.317263156107735
-0.2247,-30.232380478115836
-0.22570000000000012,-30.147497800123933
-0.2267,-30.00602667013743
-0.22770000000000012,-29.878702653149578
-0.22870000000000001,-29.66649595816982
-0.22970000000000013,-29.440142150191413
-0.23070000000000002,-29.18549411621571
-0.23170000000000013,-28.959140308237306
-0.23270000000000002,-28.8742576302454
-0.23370000000000013,-28.746933613257543
-0.23470000000000002,-28.662050935265643
-0.23570000000000013,-28.577168257273744
-0.23670000000000002,-28.435697127287238
-0.2376999999999999,-28.265931771303435
-0.23870000000000002,-28.05372507632368
-0.2396999999999999,-27.827371268345274
-0.24070000000000003,-27.572723234369565
-0.24169999999999991,-27.38881076538711
-0.24270000000000003,-27.261486748399253
-0.24369999999999992,-27.176604070407354
-0.24470000000000003,-27.049280053419505
-0.24569999999999992,-26.9643973754276
-0.24670000000000003,-26.822926245441096
-0.24769999999999992,-26.65316088945729
-0.24870000000000003,-26.440954194477534
-0.24969999999999992,-26.21460038649913
-0.25070000000000003,-26.002393691519377
-0.2516999999999999,-25.81848122253692
-0.25270000000000004,-25.691157205549064
-0.2536999999999999,-25.60627452755716
-0.25470000000000004,-25.521391849565262
-0.2556999999999999,-25.478950510569312
-0.25670000000000004,-25.337479380582806
-0.25769999999999993,-25.210155363594954
-0.25870000000000004,-24.997948668615198
-0.25969999999999993,-24.771594860636792
-0.26070000000000004,-24.601829504652986
-0.26169999999999993,-24.432064148669184
-0.26270000000000004,-24.34718147067728
-0.26369999999999993,-24.20571034069078
-0.26470000000000005,-24.16326900169483
-0.26569999999999994,-24.078386323702922
-0.26670000000000005,-24.035944984706973
-0.26769999999999994,-23.86617962872317
-0.26870000000000005,-23.682267159740714
-0.26969999999999994,-23.51250180375691
-0.27070000000000005,-23.342736447773106
-0.27169999999999994,-23.2012653177866
-0.27270000000000005,-23.1163826397947
-0.27369999999999994,-23.073941300798747
-0.27470000000000006,-23.031499961802798
-0.27569999999999995,-22.989058622806844
-0.27670000000000006,-22.946617283810895
-0.27769999999999995,-22.819293266823045
-0.27870000000000006,-22.67782213683654
-0.27969999999999995,-22.508056780852733
-0.28070000000000006,-22.38073276386488
-0.28169999999999995,-22.253408746877028
-0.28270000000000006,-22.196820294882425
-0.28369999999999995,-22.196820294882425
-0.28470000000000006,-22.15437895588647
-0.28569999999999995,-22.196820294882425
-0.28670000000000007,-22.15437895588647
-0.28769999999999996,-22.069496277894572
-0.28870000000000007,-21.94217226090672
-0.28969999999999996,-21.857289582914817
-0.29070000000000007,-21.729965565926964
-0.29169999999999996,-21.63093577493641
-0.29270000000000007,-21.63093577493641
-0.29369999999999996,-21.63093577493641
-0.2947000000000001,-21.67337711393236
-0.29569999999999996,-21.729965565926964
-0.2967000000000001,-21.67337711393236
-0.29769999999999996,-21.63093577493641
-0.2987000000000001,-21.54605309694451
-0.29969999999999997,-21.461170418952605
-0.3007000000000001,-21.376287740960702
-0.30169999999999997,-21.333846401964752
-0.3027000000000001,-21.333846401964752
-0.30369999999999997,-21.376287740960702
-0.3047000000000001,-21.418729079956652
-0.30569999999999997,-21.503611757948562
-0.3067000000000001,-21.54605309694451
-0.3077,-21.503611757948562
-0.3087000000000001,-21.461170418952605
-0.3097,-21.376287740960702
-0.3107000000000001,-21.333846401964752
-0.3117,-21.333846401964752
-0.3127000000000001,-21.376287740960702
-0.3137,-21.461170418952605
-0.3147000000000001,-21.503611757948562
-0.3157,-21.63093577493641
-0.3167000000000001,-21.67337711393236
-0.3177,-21.67337711393236
-0.3187000000000001,-21.63093577493641
-0.3197,-21.63093577493641
-0.3207000000000001,-21.58849443594046
-0.3217,-21.63093577493641
-0.3227000000000001,-21.67337711393236
-0.3237,-21.814848243918867
-0.3247000000000001,-21.94217226090672
-0.3257,-22.069496277894572
-0.3267000000000001,-22.15437895588647
-0.3277,-22.196820294882425
-0.3287000000000001,-22.196820294882425
-0.3297,-22.196820294882425
-0.3307000000000001,-22.196820294882425
-0.3317,-22.295850085872978
-0.3327000000000001,-22.38073276386488
-0.3337,-22.508056780852733
-0.3347000000000001,-22.67782213683654
-0.3357,-22.861734605818995
-0.3367000000000001,-22.989058622806844
-0.3377,-23.073941300798747
-0.3387000000000001,-23.073941300798747
-0.3397,-23.15882397879065
-0.3407000000000001,-23.2012653177866
-0.3417,-23.300295108777156
-0.3427000000000001,-23.47006046476096
-0.3437,-23.682267159740714
-0.3447000000000001,-23.86617962872317
-0.3457,-24.078386323702922
-0.3467000000000001,-24.20571034069078
-0.3477,-24.34718147067728
-0.3487000000000001,-24.474505487665134
-0.3497,-24.559388165657033
-0.3507000000000001,-24.686712182644893
-0.3517,-24.814036199632742
-0.3527000000000001,-25.04039000761115
-0.3537,-25.295038041586857
-0.3547000000000001,-25.563833188561212
-0.3557,-25.81848122253692
-0.35670000000000013,-26.087276369511276
-0.3577,-26.257041725495082
-0.35870000000000013,-26.440954194477534
-0.3597,-26.61071955046134
-0.36070000000000013,-26.780484906445146
-0.3617,-27.00683871442355
-0.3626999999999999,-27.303928087395207
-0.3637,-27.65760591236147
-0.3646999999999999,-28.011283737327723
-0.3657,-28.350814449295335
-0.3666999999999999,-28.704492274261593
-0.3677,-28.959140308237306
-0.3686999999999999,-29.27037679420761
-0.36970000000000003,-29.581613280177915
-0.3706999999999999,-29.878702653149578
-0.37170000000000003,-30.232380478115836
-0.3726999999999999,-30.614352529079397
-0.37370000000000003,-31.095354371033505
-0.3746999999999999,-31.57635621298762
-0.37570000000000003,-32.05735805494172
-0.3766999999999999,-32.58080123589179
-0.37770000000000004,-33.01936173884996
-0.3786999999999999,-33.45792224180811
-0.37970000000000004,-33.93892408376223
-0.3806999999999999,-34.41992592571634
-0.38170000000000004,-34.98581044566235
-0.38269999999999993,-35.594136304604326
-0.38370000000000004,-36.28734484153819
-0.38469999999999993,-37.037141830466666
-0.38570000000000004,-37.77279170639648
-0.38669999999999993,-37.07958316946261
-0.38570000000000004,-34.41992592571634
-0.38469999999999993,-32.49591855789989
-0.38370000000000004,-31.010471693041605
-0.38269999999999993,-29.836261314153624
-0.38170000000000004,-28.8742576302454
-0.3806999999999999,-28.09616641531963
-0.37970000000000004,-27.43125210438306
-0.3786999999999999,-26.822926245441096
-0.37770000000000004,-26.29948306449103
-0.3766999999999999,-25.73359854454502
-0.37570000000000003,-25.167714024599
-0.3746999999999999,-24.601829504652986
-0.37370000000000003,-24.035944984706973
-0.3726999999999999,-23.47006046476096
-0.37170000000000003,-22.946617283810895
-0.3706999999999999,-22.508056780852733
-0.36970000000000003,-22.111937616890522
-0.3686999999999999,-21.67337711393236
-0.3677,-21.291405062968803
-0.3666999999999999,-20.85284456001064
-0.3657,-20.371842718056527
-0.3646999999999999,-19.848399537106463
-0.3637,-19.3249563561564
-0.3626999999999999,-18.843954514202288
-0.3617,-18.362952672248177
-0.36070000000000013,-17.924392169290012
-0.3597,-17.584861457322408
-0.35870000000000013,-17.188742293360193
-0.3577,-16.835064468393938
-0.35670000000000013,-16.396503965435777
-0.3557,-15.91550212348166
-0.3547000000000001,-15.491088733522153
-0.3537,-14.967645552572087
-0.3527000000000001,-14.486643710617974
-0.3517,-14.046668496359947
-0.3507000000000001,-13.654793466297335
-0.3497,-13.30535977523067
-0.3487000000000001,-12.955926084164007
-0.3477,-12.56405105410139
-0.3467000000000001,-12.214617363034726
-0.3457,-11.73503023238048
-0.3447000000000001,-11.299299152022046
-0.3437,-10.819712021367803
-0.3427000000000001,-10.382566229709504
-0.3417,-9.99069119964689
-0.3407000000000001,-9.641257508580225
-0.3397,-9.293238528813426
-0.3387000000000001,-8.987660888042578
-0.3377,-8.68208324727173
-0.3367000000000001,-8.332649556205066
-0.3357,-7.940774526142452
-0.3347000000000001,-7.50504344578402
-0.3337,-7.111753704421539
-0.3327000000000001,-6.6760226240631075
-0.3317,-6.326588932996443
-0.3307000000000001,-6.021011292225596
-0.3297,-5.715433651454749
-0.3287000000000001,-5.453712060979717
-0.3277,-5.191990470504685
-0.3267000000000001,-4.887827541033701
-0.3257,-4.582249900262854
-0.3247000000000001,-4.1889601589003735
-0.3237,-3.840941179133574
-0.3227000000000001,-3.4915074880669104
-0.3217,-3.1859298472960624
-0.3207000000000001,-2.8803522065252145
-0.3197,-2.706342716641815
-0.3187000000000001,-2.4446211261667834
-0.3177,-2.226755585987568
-0.3167000000000001,-1.9650339955125358
-0.3157,-1.7033124050375041
-0.3147000000000001,-1.3980177065266295
-0.3137,-1.0490084288499246
-0.3127000000000001,-0.7437137303390498
-0.3117,-0.48199213986401795
-0.3107000000000001,-0.26384365742482935
-0.3097,-0.08943804837746762
-0.3087000000000001,0.08502414912188871
-0.3077,0.2594580523952477
-0.3067000000000001,0.43403342679859325
-0.30569999999999997,0.6956135461436386
-0.3047000000000001,0.9573351366186703
-0.30369999999999997,1.219056727093702
-0.3027000000000001,1.5250587812545096
-0.30169999999999997,1.7429243214337253
-0.3007000000000001,1.8730777610213083
-0.29969999999999997,2.004645911908757
-0.2987000000000001,2.1347993514963406
-0.29769999999999996,2.2663675023837886
-0.2967000000000001,2.4403769922671885
-0.29569999999999996,2.6143864821505876
-0.2947000000000001,2.8761080726256196
-0.29369999999999996,3.0939736128048354
-0.29270000000000007,3.313253864283916
-0.29169999999999996,3.4872633541673155
-0.29070000000000007,3.6174167937548987
-0.28969999999999996,3.748984944642347
-0.28870000000000007,3.7928409949381634
-0.28769999999999996,3.922994434525747
-0.28670000000000007,4.054562585413195
-0.28569999999999995,4.184716025000778
-0.28470000000000006,4.402581565179994
-0.28369999999999995,4.6218618166590755
-0.28270000000000006,4.795871306542475
-0.28169999999999995,4.9698807964258735
-0.28070000000000006,5.057592897017507
-0.27969999999999995,5.101448947313322
-0.27870000000000006,5.18774633660509
-0.27769999999999995,5.231602386900906
-0.27670000000000006,5.319314487492538
-0.27569999999999995,5.493323977375938
-0.27470000000000006,5.624892128263387
-0.27369999999999994,5.798901618146785
-0.27270000000000005,5.9729111080301855
-0.27169999999999994,6.1044792589176335
-0.27070000000000005,6.1907766482094
-0.26969999999999994,6.234632698505217
-0.26870000000000005,6.278488748801033
-0.26769999999999994,6.322344799096849
