Potential V vs RHE, Current mA cm-2
0.05339999999999995,-0.04931683591329518
0.05239999999999995,-0.050660811648166965
0.051399999999999946,-0.05132572595910353
0.050399999999999945,-0.05189161047904954
0.049399999999999944,-0.05235846520800501
0.04839999999999994,-0.05283946704995912
0.04739999999999994,-0.05329217466591593
0.04639999999999994,-0.05373073516887409
0.04539999999999994,-0.0541551485588336
0.04439999999999994,-0.05459370906179176
0.04339999999999994,-0.05501812245175128
0.04239999999999994,-0.055428388728712134
0.04139999999999994,-0.055838655005673
0.040399999999999936,-0.056248921282633854
0.039399999999999935,-0.05668748178559202
0.038399999999999934,-0.057126042288550186
0.03739999999999993,-0.057493867226515095
0.03639999999999993,-0.0579182806164746
0.03539999999999993,-0.058300252667438164
0.03439999999999993,-0.05869637183140037
0.03339999999999993,-0.059106638108361226
0.03239999999999993,-0.059488610159324794
0.03139999999999993,-0.059884729323287006
0.030399999999999927,-0.06026670137425057
0.029399999999999926,-0.06067696765121142
0.028399999999999925,-0.06111552815416958
0.027399999999999924,-0.06149750020513314
0.026399999999999924,-0.06189361936909534
0.025399999999999923,-0.06230388564605621
0.024399999999999922,-0.06270000481001843
0.02339999999999992,-0.0631385653129766
0.02239999999999992,-0.06350639025094149
0.02139999999999992,-0.06393080364090101
0.020399999999999918,-0.06432692280486321
0.019399999999999917,-0.06473718908182408
0.018399999999999916,-0.06516160247178358
0.017399999999999916,-0.06554357452274716
0.016399999999999915,-0.06593969368670936
0.015399999999999914,-0.06634995996367023
0.014399999999999913,-0.06674607912763245
0.013399999999999912,-0.06715634540459328
0.012399999999999911,-0.0675524645685555
0.01139999999999991,-0.0679485837325177
0.01039999999999991,-0.06835885000947857
0.009399999999999908,-0.06874082206044213
0.008399999999999908,-0.069151088337403
0.007399999999999907,-0.06953306038836657
0.006399999999999906,-0.06992917955232876
0.005399999999999905,-0.07031115160329232
0.004399999999999904,-0.07070727076725454
0.003399999999999903,-0.07113168415721405
0.002399999999999902,-0.07152780332117625
0.0013999999999999013,-0.07190977537213981
0.00039999999999990044,-0.07230589453610202
-0.0006000000000001005,-0.07270201370006424
-0.0016000000000001013,-0.07309813286402644
-0.0026000000000001022,-0.07348010491499
-0.003600000000000103,-0.07386207696595355
-0.004600000000000104,-0.07424404901691713
-0.005600000000000105,-0.07464016818087933
-0.006600000000000106,-0.0750504344578402
-0.007600000000000107,-0.0754182593958051
-0.008600000000000108,-0.07580023144676866
-0.009600000000000108,-0.07616805638473358
-0.01060000000000011,-0.07655002843569715
-0.01160000000000011,-0.07694614759965934
-0.012600000000000111,-0.0773281196506229
-0.013600000000000112,-0.07771009170158645
-0.014600000000000113,-0.07809206375255001
-0.015600000000000114,-0.07848818291651223
-0.016600000000000115,-0.07888430208047445
-0.017600000000000116,-0.07923797990544071
-0.018600000000000116,-0.07963409906940291
-0.019600000000000117,-0.07997362978137053
-0.020600000000000118,-0.08031316049333813
-0.02160000000000012,-0.08070927965730033
-0.02260000000000012,-0.08106295748226659
-0.02360000000000012,-0.08144492953323015
-0.024600000000000122,-0.08181275447119508
-0.025600000000000123,-0.08218057940915997
-0.026600000000000124,-0.08257669857312219
-0.027600000000000124,-0.08293037639808845
-0.028600000000000125,-0.08325575999705741
-0.029600000000000126,-0.08356699648302772
-0.030600000000000127,-0.08390652719499532
-0.03160000000000013,-0.08426020501996159
-0.03260000000000013,-0.08459973573192921
-0.03360000000000013,-0.08492511933089815
-0.03460000000000002,-0.08527879715586441
-0.03560000000000002,-0.08563247498083068
-0.03660000000000002,-0.08597200569279828
-0.03760000000000002,-0.08631153640476588
-0.03860000000000002,-0.08663692000373484
-0.039600000000000024,-0.08696230360270381
-0.040600000000000025,-0.0872735400886741
-0.041600000000000026,-0.08759892368764308
-0.04260000000000003,-0.08789601306061473
-0.04360000000000003,-0.08820724954658503
-0.04460000000000003,-0.0885043389195567
-0.04560000000000003,-0.08882972251852565
-0.04660000000000003,-0.08915510611749461
-0.04760000000000003,-0.08945219549046628
-0.04860000000000003,-0.08974928486343793
-0.04960000000000003,-0.09006052134940823
-0.050600000000000034,-0.09038590494837719
-0.051600000000000035,-0.09071128854734616
-0.052600000000000036,-0.09093764235532456
-0.053600000000000037,-0.09123473172829621
-0.05460000000000004,-0.09153182110126787
-0.05560000000000004,-0.09181476336124088
-0.05660000000000004,-0.09209770562121389
-0.05760000000000004,-0.0923806478811869
-0.05860000000000004,-0.09264944302816126
-0.05960000000000004,-0.09293238528813427
-0.06060000000000004,-0.09321532754810727
-0.061600000000000044,-0.09346997558208296
-0.06260000000000004,-0.09373877072905733
-0.06360000000000005,-0.09400756587603168
-0.06460000000000005,-0.09424806679700874
-0.06560000000000005,-0.0944885677179858
-0.06660000000000005,-0.09475736286496016
-0.06760000000000005,-0.0949978637859372
-0.06860000000000005,-0.09522421759391562
-0.06960000000000005,-0.09545057140189403
-0.07060000000000005,-0.09569107232287108
-0.07160000000000005,-0.09590327901785084
-0.07260000000000005,-0.09614377993882789
-0.07360000000000005,-0.09635598663380765
-0.07460000000000006,-0.09656819332878741
-0.07560000000000006,-0.09678040002376717
-0.07660000000000006,-0.09699260671874692
-0.07760000000000006,-0.09719066630072802
-0.07860000000000006,-0.09740287299570777
-0.07960000000000006,-0.09757263835169158
-0.08060000000000006,-0.09775655082067403
-0.08160000000000006,-0.09795461040265514
-0.08260000000000006,-0.09812437575863896
-0.08360000000000006,-0.09827999400162409
-0.08460000000000006,-0.0984497593576079
-0.08560000000000006,-0.09863367182659036
-0.08660000000000007,-0.09880343718257417
-0.08760000000000007,-0.09894490831256067
-0.08860000000000007,-0.09911467366854448
-0.08960000000000007,-0.09925614479853098
-0.09060000000000007,-0.09941176304151612
-0.09160000000000007,-0.09958152839749992
-0.09260000000000007,-0.09969470530148912
-0.09360000000000007,-0.09983617643147565
-0.09460000000000007,-0.09996350044846349
-0.09560000000000007,-0.10009082446545134
-0.09660000000000007,-0.10023229559543784
-0.09760000000000008,-0.10034547249942705
-0.09860000000000008,-0.10045864940341626
-0.09960000000000008,-0.10055767919440682
-0.10060000000000008,-0.10065670898539736
-0.10160000000000008,-0.10078403300238521
-0.10260000000000008,-0.10086891568037712
-0.10360000000000008,-0.10093965124537037
-0.10460000000000008,-0.10103868103636092
-0.10560000000000008,-0.10110941660135417
-0.10660000000000008,-0.10120844639234472
-0.10760000000000008,-0.10127918195733798
-0.10860000000000009,-0.10133577040933257
-0.10960000000000009,-0.10140650597432584
-0.11060000000000009,-0.10144894731332177
-0.11160000000000009,-0.10153382999131368
-0.11260000000000009,-0.1015904184433083
-0.11360000000000009,-0.10160456555630692
-0.11460000000000009,-0.10168944823429883
-0.11560000000000009,-0.1017601837992921
-0.11660000000000009,-0.10177433091229074
-0.1176000000000001,-0.10181677225128669
-0.1186000000000001,-0.10184506647728399
-0.1196000000000001,-0.10184506647728399
-0.1206000000000001,-0.10188750781627993
-0.1216000000000001,-0.10191580204227724
-0.1226000000000001,-0.10194409626827454
-0.1236000000000001,-0.10194409626827454
-0.1246000000000001,-0.10194409626827454
-0.1256000000000001,-0.10195824338127318
-0.1266000000000001,-0.10198653760727049
-0.1276000000000001,-0.10197239049427186
-0.1286000000000001,-0.10197239049427186
-0.1296000000000001,-0.10194409626827454
-0.1306000000000001,-0.10194409626827454
-0.1316000000000001,-0.10195824338127318
-0.1326000000000001,-0.10191580204227724
-0.1336000000000001,-0.10191580204227724
-0.1346000000000001,-0.10188750781627993
-0.1356000000000001,-0.10184506647728399
-0.1366000000000001,-0.10183091936428534
-0.1376000000000001,-0.1017884780252894
-0.1386000000000001,-0.10177433091229074
-0.1396000000000001,-0.10171774246029613
-0.1406000000000001,-0.10168944823429883
-0.14160000000000011,-0.10166115400830154
-0.14260000000000012,-0.10160456555630692
-0.14360000000000012,-0.10157627133030964
-0.14460000000000012,-0.10151968287831505
-0.14560000000000012,-0.10147724153931909
-0.14660000000000012,-0.10142065308732448
-0.14760000000000012,-0.10137821174832852
-0.14860000000000012,-0.10129332907033663
-0.14960000000000012,-0.10125088773134068
-0.15060000000000012,-0.10119429927934608
-0.15160000000000012,-0.10113771082735147
-0.15260000000000012,-0.10108112237535687
-0.15360000000000013,-0.10101038681036362
-0.15460000000000013,-0.10095379835836901
-0.15560000000000013,-0.10088306279337576
-0.15660000000000013,-0.10081232722838251
-0.15760000000000013,-0.10074159166338927
-0.15860000000000013,-0.10064256187239871
-0.15960000000000002,-0.10057182630740545
-0.16060000000000002,-0.10048694362941356
-0.16160000000000002,-0.10040206095142165
-0.16260000000000002,-0.10031717827342976
-0.16360000000000002,-0.10023229559543784
-0.16460000000000002,-0.10014741291744596
-0.16560000000000002,-0.10011911869144864
-0.16660000000000003,-0.10006253023945405
-0.16760000000000003,-0.09992105910946754
-0.16860000000000003,-0.09985032354447429
-0.16960000000000003,-0.09975129375348374
-0.17060000000000003,-0.09965226396249319
-0.17160000000000003,-0.09958152839749992
-0.17260000000000003,-0.09948249860650937
-0.17360000000000003,-0.09941176304151612
-0.17460000000000003,-0.09929858613752693
-0.17560000000000003,-0.09919955634653636
-0.17660000000000003,-0.09912882078154311
-0.17760000000000004,-0.09900149676455527
-0.17860000000000004,-0.09893076119956201
-0.17960000000000004,-0.09883173140857146
-0.18060000000000004,-0.09871855450458226
-0.18160000000000004,-0.09864781893958902
-0.18260000000000004,-0.09856293626159711
-0.18360000000000004,-0.09846390647060656
-0.18460000000000004,-0.098364876679616
-0.18560000000000004,-0.09826584688862545
-0.18660000000000004,-0.09818096421063353
-0.18760000000000004,-0.09806778730664434
-0.18860000000000005,-0.09796875751565379
-0.18960000000000005,-0.09789802195066052
-0.19060000000000005,-0.09779899215966999
-0.19160000000000005,-0.09772825659467674
-0.19260000000000005,-0.09764337391668483
-0.19360000000000005,-0.09753019701269564
-0.19460000000000005,-0.09744531433470371
-0.19560000000000005,-0.09736043165671183
-0.19660000000000005,-0.09726140186572127
-0.19760000000000005,-0.09717651918772936
-0.19860000000000005,-0.09706334228374017
-0.19960000000000006,-0.09695016537975096
-0.20060000000000006,-0.09687942981475771
-0.20160000000000006,-0.0967945471367658
-0.20260000000000006,-0.09669551734577525
-0.20360000000000006,-0.0965964875547847
-0.20460000000000006,-0.0965116048767928
-0.20560000000000006,-0.0964267221988009
-0.20660000000000006,-0.09629939818181305
-0.20760000000000006,-0.0962003683908225
-0.20860000000000006,-0.09610133859983194
-0.20960000000000006,-0.09601645592184005
-0.21060000000000006,-0.09590327901785084
-0.21160000000000007,-0.09583254345285759
-0.21260000000000007,-0.09573351366186703
-0.21360000000000007,-0.09562033675787783
-0.21460000000000007,-0.09553545407988592
-0.21560000000000007,-0.09543642428889539
-0.21660000000000007,-0.09535154161090346
-0.21760000000000007,-0.09528080604591022
-0.21860000000000007,-0.09519592336791832
-0.21960000000000007,-0.09509689357692777
-0.22060000000000007,-0.09501201089893586
-0.22160000000000007,-0.09492712822094396
-0.22260000000000008,-0.09485639265595071
-0.22360000000000008,-0.09475736286496016
-0.22460000000000008,-0.09468662729996691
-0.22560000000000008,-0.094601744621975
-0.22660000000000008,-0.09451686194398311
-0.22760000000000008,-0.0944602734919885
-0.22860000000000008,-0.0943470965879993
-0.22960000000000008,-0.09430465524900335
-0.23060000000000008,-0.0942056254580128
-0.23160000000000008,-0.09414903700601819
-0.23260000000000008,-0.0940641543280263
-0.23360000000000009,-0.09397927165003438
-0.2346000000000001,-0.09389438897204248
-0.2356000000000001,-0.09382365340704923
-0.2366000000000001,-0.09376706495505463
-0.2376000000000001,-0.09368218227706274
-0.2386000000000001,-0.09359729959907082
-0.2396000000000001,-0.09354071114707624
-0.2406000000000001,-0.09348412269508162
-0.2416000000000001,-0.09342753424308703
-0.2426000000000001,-0.09338509290409107
-0.2436000000000001,-0.09330021022609918
-0.2446000000000001,-0.09324362177410456
-0.2456000000000001,-0.09318703332210997
-0.2466000000000001,-0.09311629775711672
-0.2476000000000001,-0.09304556219212347
-0.2486000000000001,-0.0929748266271302
-0.2496000000000001,-0.0929182381751356
-0.2506000000000001,-0.09284750261014235
-0.2516000000000001,-0.0928050612711464
-0.2526000000000001,-0.09273432570615316
-0.2536000000000001,-0.09269188436715721
-0.2546000000000001,-0.09262114880216396
-0.2556000000000001,-0.09256456035016934
-0.2566000000000001,-0.09253626612417204
-0.2576000000000001,-0.09245138344618015
-0.2586000000000001,-0.0924089421071842
-0.2596000000000001,-0.0923523536551896
-0.2606000000000001,-0.09230991231619365
-0.2616000000000001,-0.09225332386419903
-0.2626000000000001,-0.09221088252520308
-0.2636000000000001,-0.09215429407320849
-0.2646000000000001,-0.09211185273421253
-0.2656000000000001,-0.09205526428221794
-0.2666000000000001,-0.09202697005622064
-0.2676000000000001,-0.09198452871722468
-0.2686000000000001,-0.09192794026523009
-0.2696000000000001,-0.09192794026523009
-0.2706000000000001,-0.09185720470023684
-0.2716000000000001,-0.09184305758723818
-0.2726000000000001,-0.09181476336124088
-0.2736000000000001,-0.09175817490924627
-0.2746000000000001,-0.09174402779624763
-0.2756000000000001,-0.09170158645725168
-0.2766000000000001,-0.09165914511825574
-0.2776000000000001,-0.09164499800525706
-0.2786000000000001,-0.09160255666626112
-0.2796000000000001,-0.09157426244026382
-0.2806000000000001,-0.09154596821426653
-0.28160000000000013,-0.09154596821426653
-0.28260000000000013,-0.09150352687527057
-0.28360000000000013,-0.09150352687527057
-0.2846,-0.09146108553627462
-0.2856,-0.09143279131027732
-0.2866,-0.09143279131027732
-0.2876,-0.09140449708428001
-0.2886,-0.09137620285828273
-0.2896,-0.09136205574528407
-0.2906,-0.09134790863228542
-0.2916,-0.09137620285828273
-0.2926,-0.09133376151928675
-0.2936,-0.09131961440628812
-0.29460000000000003,-0.09130546729328948
-0.29560000000000003,-0.09129132018029082
-0.29660000000000003,-0.09130546729328948
-0.29760000000000003,-0.09129132018029082
-0.29860000000000003,-0.0912630259542935
-0.29960000000000003,-0.09123473172829621
-0.30060000000000003,-0.09123473172829621
-0.30160000000000003,-0.09123473172829621
-0.30260000000000004,-0.09124887884129487
-0.30360000000000004,-0.09124887884129487
-0.30460000000000004,-0.0912630259542935
-0.30560000000000004,-0.09124887884129487
-0.30660000000000004,-0.0912630259542935
-0.30760000000000004,-0.09127717306729217
-0.30860000000000004,-0.09127717306729217
-0.30960000000000004,-0.09129132018029082
-0.31060000000000004,-0.09129132018029082
-0.31160000000000004,-0.09130546729328948
-0.31260000000000004,-0.09133376151928675
-0.31360000000000005,-0.09130546729328948
-0.31460000000000005,-0.09133376151928675
-0.31560000000000005,-0.09133376151928675
-0.31660000000000005,-0.09134790863228542
-0.31760000000000005,-0.09137620285828273
-0.31860000000000005,-0.09139034997128137
-0.31960000000000005,-0.09143279131027732
-0.32060000000000005,-0.09144693842327598
-0.32160000000000005,-0.09144693842327598
-0.32260000000000005,-0.09146108553627462
-0.32360000000000005,-0.09147523264927326
-0.32460000000000006,-0.09150352687527057
-0.32560000000000006,-0.09148937976227192
-0.32660000000000006,-0.09153182110126787
-0.32760000000000006,-0.09156011532726518
-0.32860000000000006,-0.09156011532726518
-0.32960000000000006,-0.09157426244026382
-0.33060000000000006,-0.09158840955326249
-0.33160000000000006,-0.09161670377925978
-0.33260000000000006,-0.09163085089225843
-0.33360000000000006,-0.09163085089225843
-0.33460000000000006,-0.09165914511825574
-0.33560000000000006,-0.09165914511825574
-0.33660000000000007,-0.09170158645725168
-0.33760000000000007,-0.09170158645725168
-0.33860000000000007,-0.09171573357025031
-0.33960000000000007,-0.09174402779624763
-0.34060000000000007,-0.09172988068324898
-0.34160000000000007,-0.09175817490924627
-0.34260000000000007,-0.09177232202224493
-0.34360000000000007,-0.09177232202224493
-0.3446000000000001,-0.09178646913524359
-0.3456000000000001,-0.09178646913524359
-0.3466000000000001,-0.09181476336124088
-0.34759999999999996,-0.09184305758723818
-0.3486000000000001,-0.09182891047423952
-0.34959999999999997,-0.09182891047423952
-0.3506000000000001,-0.09181476336124088
-0.35159999999999997,-0.09185720470023684
-0.3526000000000001,-0.09185720470023684
-0.35359999999999997,-0.09185720470023684
-0.3546000000000001,-0.09187135181323548
-0.35559999999999997,-0.09188549892623413
-0.3566000000000001,-0.09188549892623413
-0.3576,-0.09191379315223143
-0.3586000000000001,-0.09191379315223143
-0.3596,-0.09189964603923279
-0.3606000000000001,-0.09192794026523009
-0.3616,-0.09192794026523009
-0.3626000000000001,-0.09194208737822873
-0.3636,-0.09195623449122738
-0.3646000000000001,-0.09197038160422603
-0.3656,-0.09197038160422603
-0.3666000000000001,-0.09198452871722468
-0.3676,-0.09197038160422603
-0.3686000000000001,-0.092012822943222
-0.3696,-0.09202697005622064
-0.3706000000000001,-0.09205526428221794
-0.3716,-0.09208355850821524
-0.3726000000000001,-0.09208355850821524
-0.3736,-0.09209770562121389
-0.3746000000000001,-0.09214014696020983
-0.3756,-0.09215429407320849
-0.3766000000000001,-0.09218258829920578
-0.3776,-0.09218258829920578
-0.3786000000000001,-0.09219673541220444
-0.3796,-0.0922674709771977
-0.3806000000000001,-0.09228161809019635
-0.3816,-0.09233820654219095
-0.3826000000000001,-0.0923523536551896
-0.3836,-0.0923806478811869
-0.3846000000000001,-0.0924372363331815
-0.3856,-0.09245138344618015
-0.3866000000000001,-0.0924938247851761
-0.3876,-0.09253626612417204
-0.3886000000000001,-0.09256456035016934
-0.3896,-0.09264944302816126
-0.3906000000000001,-0.09270603148015585
-0.3916,-0.0927484728191518
-0.3926000000000001,-0.0928050612711464
-0.3936,-0.09284750261014235
-0.3946000000000001,-0.09290409106213696
-0.3956,-0.0929465324011329
-0.3966000000000001,-0.09303141507912481
-0.3976,-0.0930880035311194
-0.3986000000000001,-0.09315873909611266
-0.3996,-0.09322947466110591
-0.4006000000000001,-0.09328606311310052
-0.4016,-0.09337094579109242
-0.4026000000000001,-0.09345582846908432
-0.4036,-0.09352656403407757
-0.4046000000000001,-0.09359729959907082
-0.4056,-0.09366803516406408
-0.40660000000000013,-0.09373877072905733
-0.4076,-0.09382365340704923
-0.40860000000000013,-0.09390853608504113
-0.4096,-0.09399341876303305
-0.41060000000000013,-0.09407830144102494
-0.4116,-0.09414903700601819
-0.41260000000000013,-0.09421977257101144
-0.4136,-0.09430465524900335
-0.41460000000000014,-0.09441783215299256
-0.4156,-0.09450271483098445
-0.41660000000000014,-0.09461589173497365
-0.4176,-0.09471492152596421
-0.41860000000000014,-0.09478565709095746
-0.41960000000000003,-0.09491298110794531
-0.42060000000000014,-0.09501201089893586
-0.42160000000000003,-0.09515348202892236
-0.42260000000000014,-0.09525251181991291
-0.42360000000000003,-0.09532324738490616
-0.42460000000000014,-0.09546471851489266
-0.42560000000000003,-0.09556374830588323
-0.42660000000000015,-0.09567692520987243
-0.42760000000000004,-0.09580424922686027
-0.42860000000000015,-0.09588913190485218
-0.42960000000000004,-0.09603060303483868
-0.43060000000000015,-0.09612963282582924
-0.43160000000000004,-0.0962569568428171
-0.43260000000000015,-0.09637013374680631
-0.43360000000000004,-0.0964833106507955
-0.43460000000000015,-0.096624781780782
-0.43560000000000004,-0.0967662529107685
-0.43660000000000015,-0.096907724040755
