Dec. 25, 2024   21:25:05
Cyclic Voltammetry
File: c:/users/guazh/data/banditlqround7_x0exp136_r20/2024-12-24-exp741\exp741-2024-12-25t21_09_07-h2koh\exp741_cv_sr_800mvs_efin_-1600mv.bin
Data Source:  Experiment
Instrument Model:  CHI760E
Header: CV ran at 800 mVs
Note: 

Init E (V) = -1
High E (V) = -1
Low E (V) = -1.6
Final E (V) = -1
Init P/N = N
Scan Rate (V/s) = 0.8
Segment = 3
Sample Interval (V) = 0.001
Quiet Time (sec) = 2
Sensitivity (A/V) = 0.01
Comp R (ohm) = 1.3

Results:

Channel 1:
Segment 1:

Segment 2:

Segment 3:

Potential/V, Current/A

-1.000, 1.865e-5
-1.001, 7.723e-5
-1.002, 1.204e-4
-1.003, 1.512e-4
-1.004, 1.790e-4
-1.005, 2.006e-4
-1.006, 2.191e-4
-1.007, 2.345e-4
-1.008, 2.468e-4
-1.009, 2.591e-4
-1.010, 2.684e-4
-1.011, 2.807e-4
-1.012, 2.900e-4
-1.013, 2.992e-4
-1.014, 3.085e-4
-1.015, 3.177e-4
-1.016, 3.270e-4
-1.017, 3.393e-4
-1.018, 3.455e-4
-1.019, 3.516e-4
-1.020, 3.547e-4
-1.021, 3.609e-4
-1.022, 3.640e-4
-1.023, 3.670e-4
-1.024, 3.732e-4
-1.025, 3.763e-4
-1.026, 3.825e-4
-1.027, 3.886e-4
-1.028, 3.948e-4
-1.029, 3.979e-4
-1.030, 4.040e-4
-1.031, 4.102e-4
-1.032, 4.133e-4
-1.033, 4.164e-4
-1.034, 4.195e-4
-1.035, 4.225e-4
-1.036, 4.225e-4
-1.037, 4.225e-4
-1.038, 4.256e-4
-1.039, 4.287e-4
-1.040, 4.349e-4
-1.041, 4.380e-4
-1.042, 4.410e-4
-1.043, 4.441e-4
-1.044, 4.503e-4
-1.045, 4.534e-4
-1.046, 4.565e-4
-1.047, 4.595e-4
-1.048, 4.595e-4
-1.049, 4.595e-4
-1.050, 4.595e-4
-1.051, 4.626e-4
-1.052, 4.626e-4
-1.053, 4.657e-4
-1.054, 4.688e-4
-1.055, 4.750e-4
-1.056, 4.780e-4
-1.057, 4.811e-4
-1.058, 4.811e-4
-1.059, 4.842e-4
-1.060, 4.873e-4
-1.061, 4.873e-4
-1.062, 4.842e-4
-1.063, 4.873e-4
-1.064, 4.873e-4
-1.065, 4.904e-4
-1.066, 4.904e-4
-1.067, 4.904e-4
-1.068, 4.965e-4
-1.069, 4.996e-4
-1.070, 5.027e-4
-1.071, 5.058e-4
-1.072, 5.058e-4
-1.073, 5.058e-4
-1.074, 5.058e-4
-1.075, 5.058e-4
-1.076, 5.058e-4
-1.077, 5.058e-4
-1.078, 5.058e-4
-1.079, 5.058e-4
-1.080, 5.089e-4
-1.081, 5.120e-4
-1.082, 5.120e-4
-1.083, 5.181e-4
-1.084, 5.181e-4
-1.085, 5.181e-4
-1.086, 5.181e-4
-1.087, 5.212e-4
-1.088, 5.181e-4
-1.089, 5.181e-4
-1.090, 5.150e-4
-1.091, 5.150e-4
-1.092, 5.150e-4
-1.093, 5.181e-4
-1.094, 5.181e-4
-1.095, 5.212e-4
-1.096, 5.212e-4
-1.097, 5.243e-4
-1.098, 5.274e-4
-1.099, 5.274e-4
-1.100, 5.243e-4
-1.101, 5.212e-4
-1.102, 5.212e-4
-1.103, 5.212e-4
-1.104, 5.181e-4
-1.105, 5.181e-4
-1.106, 5.181e-4
-1.107, 5.181e-4
-1.108, 5.212e-4
-1.109, 5.243e-4
-1.110, 5.243e-4
-1.111, 5.243e-4
-1.112, 5.243e-4
-1.113, 5.243e-4
-1.114, 5.212e-4
-1.115, 5.212e-4
-1.116, 5.181e-4
-1.117, 5.150e-4
-1.118, 5.150e-4
-1.119, 5.150e-4
-1.120, 5.150e-4
-1.121, 5.150e-4
-1.122, 5.181e-4
-1.123, 5.212e-4
-1.124, 5.181e-4
-1.125, 5.181e-4
-1.126, 5.150e-4
-1.127, 5.150e-4
-1.128, 5.120e-4
-1.129, 5.120e-4
-1.130, 5.058e-4
-1.131, 5.058e-4
-1.132, 5.058e-4
-1.133, 5.058e-4
-1.134, 5.058e-4
-1.135, 5.058e-4
-1.136, 5.058e-4
-1.137, 5.089e-4
-1.138, 5.058e-4
-1.139, 5.089e-4
-1.140, 5.058e-4
-1.141, 4.996e-4
-1.142, 4.996e-4
-1.143, 4.965e-4
-1.144, 4.935e-4
-1.145, 4.904e-4
-1.146, 4.904e-4
-1.147, 4.904e-4
-1.148, 4.935e-4
-1.149, 4.935e-4
-1.150, 4.935e-4
-1.151, 4.935e-4
-1.152, 4.935e-4
-1.153, 4.904e-4
-1.154, 4.873e-4
-1.155, 4.842e-4
-1.156, 4.842e-4
-1.157, 4.780e-4
-1.158, 4.780e-4
-1.159, 4.750e-4
-1.160, 4.750e-4
-1.161, 4.780e-4
-1.162, 4.780e-4
-1.163, 4.780e-4
-1.164, 4.780e-4
-1.165, 4.780e-4
-1.166, 4.750e-4
-1.167, 4.750e-4
-1.168, 4.688e-4
-1.169, 4.657e-4
-1.170, 4.626e-4
-1.171, 4.626e-4
-1.172, 4.626e-4
-1.173, 4.626e-4
-1.174, 4.626e-4
-1.175, 4.626e-4
-1.176, 4.626e-4
-1.177, 4.626e-4
-1.178, 4.626e-4
-1.179, 4.626e-4
-1.180, 4.595e-4
-1.181, 4.565e-4
-1.182, 4.534e-4
-1.183, 4.503e-4
-1.184, 4.472e-4
-1.185, 4.472e-4
-1.186, 4.472e-4
-1.187, 4.472e-4
-1.188, 4.472e-4
-1.189, 4.472e-4
-1.190, 4.472e-4
-1.191, 4.472e-4
-1.192, 4.472e-4
-1.193, 4.441e-4
-1.194, 4.410e-4
-1.195, 4.410e-4
-1.196, 4.380e-4
-1.197, 4.349e-4
-1.198, 4.318e-4
-1.199, 4.318e-4
-1.200, 4.318e-4
-1.201, 4.349e-4
-1.202, 4.349e-4
-1.203, 4.349e-4
-1.204, 4.349e-4
-1.205, 4.349e-4
-1.206, 4.318e-4
-1.207, 4.318e-4
-1.208, 4.287e-4
-1.209, 4.256e-4
-1.210, 4.225e-4
-1.211, 4.225e-4
-1.212, 4.195e-4
-1.213, 4.195e-4
-1.214, 4.225e-4
-1.215, 4.225e-4
-1.216, 4.225e-4
-1.217, 4.256e-4
-1.218, 4.256e-4
-1.219, 4.225e-4
-1.220, 4.225e-4
-1.221, 4.195e-4
-1.222, 4.164e-4
-1.223, 4.133e-4
-1.224, 4.133e-4
-1.225, 4.133e-4
-1.226, 4.102e-4
-1.227, 4.133e-4
-1.228, 4.133e-4
-1.229, 4.164e-4
-1.230, 4.195e-4
-1.231, 4.164e-4
-1.232, 4.164e-4
-1.233, 4.133e-4
-1.234, 4.133e-4
-1.235, 4.102e-4
-1.236, 4.071e-4
-1.237, 4.071e-4
-1.238, 4.040e-4
-1.239, 4.071e-4
-1.240, 4.040e-4
-1.241, 4.071e-4
-1.242, 4.071e-4
-1.243, 4.102e-4
-1.244, 4.102e-4
-1.245, 4.102e-4
-1.246, 4.102e-4
-1.247, 4.071e-4
-1.248, 4.040e-4
-1.249, 4.040e-4
-1.250, 3.979e-4
-1.251, 4.010e-4
-1.252, 4.010e-4
-1.253, 4.010e-4
-1.254, 4.040e-4
-1.255, 4.040e-4
-1.256, 4.040e-4
-1.257, 4.071e-4
-1.258, 4.071e-4
-1.259, 4.071e-4
-1.260, 4.040e-4
-1.261, 4.010e-4
-1.262, 4.010e-4
-1.263, 3.979e-4
-1.264, 3.979e-4
-1.265, 3.979e-4
-1.266, 3.979e-4
-1.267, 4.010e-4
-1.268, 4.010e-4
-1.269, 4.010e-4
-1.270, 4.040e-4
-1.271, 4.040e-4
-1.272, 4.040e-4
-1.273, 4.040e-4
-1.274, 4.010e-4
-1.275, 3.979e-4
-1.276, 3.979e-4
-1.277, 3.979e-4
-1.278, 3.979e-4
-1.279, 3.948e-4
-1.280, 4.010e-4
-1.281, 4.040e-4
-1.282, 4.040e-4
-1.283, 4.040e-4
-1.284, 4.071e-4
-1.285, 4.040e-4
-1.286, 4.040e-4
-1.287, 4.040e-4
-1.288, 4.010e-4
-1.289, 4.010e-4
-1.290, 3.979e-4
-1.291, 4.010e-4
-1.292, 3.979e-4
-1.293, 4.010e-4
-1.294, 4.040e-4
-1.295, 4.040e-4
-1.296, 4.071e-4
-1.297, 4.071e-4
-1.298, 4.071e-4
-1.299, 4.071e-4
-1.300, 4.071e-4
-1.301, 4.040e-4
-1.302, 4.040e-4
-1.303, 4.010e-4
-1.304, 4.010e-4
-1.305, 4.010e-4
-1.306, 4.040e-4
-1.307, 4.040e-4
-1.308, 4.071e-4
-1.309, 4.102e-4
-1.310, 4.133e-4
-1.311, 4.133e-4
-1.312, 4.133e-4
-1.313, 4.102e-4
-1.314, 4.102e-4
-1.315, 4.102e-4
-1.316, 4.102e-4
-1.317, 4.071e-4
-1.318, 4.071e-4
-1.319, 4.071e-4
-1.320, 4.102e-4
-1.321, 4.133e-4
-1.322, 4.164e-4
-1.323, 4.164e-4
-1.324, 4.164e-4
-1.325, 4.195e-4
-1.326, 4.195e-4
-1.327, 4.195e-4
-1.328, 4.164e-4
-1.329, 4.164e-4
-1.330, 4.133e-4
-1.331, 4.164e-4
-1.332, 4.164e-4
-1.333, 4.164e-4
-1.334, 4.195e-4
-1.335, 4.225e-4
-1.336, 4.225e-4
-1.337, 4.256e-4
-1.338, 4.287e-4
-1.339, 4.287e-4
-1.340, 4.256e-4
-1.341, 4.256e-4
-1.342, 4.256e-4
-1.343, 4.225e-4
-1.344, 4.256e-4
-1.345, 4.256e-4
-1.346, 4.287e-4
-1.347, 4.287e-4
-1.348, 4.318e-4
-1.349, 4.349e-4
-1.350, 4.380e-4
-1.351, 4.380e-4
-1.352, 4.410e-4
-1.353, 4.380e-4
-1.354, 4.380e-4
-1.355, 4.380e-4
-1.356, 4.380e-4
-1.357, 4.349e-4
-1.358, 4.380e-4
-1.359, 4.380e-4
-1.360, 4.410e-4
-1.361, 4.441e-4
-1.362, 4.472e-4
-1.363, 4.503e-4
-1.364, 4.534e-4
-1.365, 4.534e-4
-1.366, 4.534e-4
-1.367, 4.534e-4
-1.368, 4.534e-4
-1.369, 4.534e-4
-1.370, 4.534e-4
-1.371, 4.534e-4
-1.372, 4.565e-4
-1.373, 4.595e-4
-1.374, 4.626e-4
-1.375, 4.626e-4
-1.376, 4.657e-4
-1.377, 4.719e-4
-1.378, 4.719e-4
-1.379, 4.750e-4
-1.380, 4.750e-4
-1.381, 4.719e-4
-1.382, 4.750e-4
-1.383, 4.750e-4
-1.384, 4.750e-4
-1.385, 4.780e-4
-1.386, 4.780e-4
-1.387, 4.811e-4
-1.388, 4.842e-4
-1.389, 4.904e-4
-1.390, 4.935e-4
-1.391, 4.935e-4
-1.392, 4.965e-4
-1.393, 4.996e-4
-1.394, 4.965e-4
-1.395, 4.965e-4
-1.396, 4.996e-4
-1.397, 4.965e-4
-1.398, 4.996e-4
-1.399, 5.027e-4
-1.400, 5.058e-4
-1.401, 5.120e-4
-1.402, 5.150e-4
-1.403, 5.181e-4
-1.404, 5.243e-4
-1.405, 5.243e-4
-1.406, 5.243e-4
-1.407, 5.274e-4
-1.408, 5.274e-4
-1.409, 5.274e-4
-1.410, 5.305e-4
-1.411, 5.305e-4
-1.412, 5.366e-4
-1.413, 5.397e-4
-1.414, 5.428e-4
-1.415, 5.459e-4
-1.416, 5.520e-4
-1.417, 5.582e-4
-1.418, 5.582e-4
-1.419, 5.613e-4
-1.420, 5.644e-4
-1.421, 5.644e-4
-1.422, 5.674e-4
-1.423, 5.674e-4
-1.424, 5.705e-4
-1.425, 5.736e-4
-1.426, 5.767e-4
-1.427, 5.829e-4
-1.428, 5.890e-4
-1.429, 5.921e-4
-1.430, 5.952e-4
-1.431, 6.014e-4
-1.432, 6.044e-4
-1.433, 6.075e-4
-1.434, 6.075e-4
-1.435, 6.106e-4
-1.436, 6.137e-4
-1.437, 6.168e-4
-1.438, 6.199e-4
-1.439, 6.229e-4
-1.440, 6.291e-4
-1.441, 6.384e-4
-1.442, 6.445e-4
-1.443, 6.476e-4
-1.444, 6.507e-4
-1.445, 6.538e-4
-1.446, 6.599e-4
-1.447, 6.630e-4
-1.448, 6.661e-4
-1.449, 6.692e-4
-1.450, 6.692e-4
-1.451, 6.754e-4
-1.452, 6.815e-4
-1.453, 6.846e-4
-1.454, 6.908e-4
-1.455, 6.969e-4
-1.456, 7.062e-4
-1.457, 7.124e-4
-1.458, 7.154e-4
-1.459, 7.216e-4
-1.460, 7.247e-4
-1.461, 7.278e-4
-1.462, 7.309e-4
-1.463, 7.339e-4
-1.464, 7.401e-4
-1.465, 7.463e-4
-1.466, 7.524e-4
-1.467, 7.586e-4
-1.468, 7.679e-4
-1.469, 7.740e-4
-1.470, 7.833e-4
-1.471, 7.863e-4
-1.472, 7.925e-4
-1.473, 7.987e-4
-1.474, 8.018e-4
-1.475, 8.079e-4
-1.476, 8.141e-4
-1.477, 8.172e-4
-1.478, 8.233e-4
-1.479, 8.295e-4
-1.480, 8.388e-4
-1.481, 8.511e-4
-1.482, 8.573e-4
-1.483, 8.665e-4
-1.484, 8.727e-4
-1.485, 8.819e-4
-1.486, 8.881e-4
-1.487, 8.912e-4
-1.488, 8.973e-4
-1.489, 9.035e-4
-1.490, 9.097e-4
-1.491, 9.189e-4
-1.492, 9.251e-4
-1.493, 9.343e-4
-1.494, 9.436e-4
-1.495, 9.528e-4
-1.496, 9.652e-4
-1.497, 9.713e-4
-1.498, 9.806e-4
-1.499, 9.898e-4
-1.500, 9.960e-4
-1.501, 1.005e-3
-1.502, 1.011e-3
-1.503, 1.018e-3
-1.504, 1.027e-3
-1.505, 1.036e-3
-1.506, 1.045e-3
-1.507, 1.058e-3
-1.508, 1.070e-3
-1.509, 1.082e-3
-1.510, 1.095e-3
-1.511, 1.104e-3
-1.512, 1.113e-3
-1.513, 1.125e-3
-1.514, 1.135e-3
-1.515, 1.141e-3
-1.516, 1.153e-3
-1.517, 1.162e-3
-1.518, 1.172e-3
-1.519, 1.184e-3
-1.520, 1.199e-3
-1.521, 1.212e-3
-1.522, 1.227e-3
-1.523, 1.243e-3
-1.524, 1.255e-3
-1.525, 1.267e-3
-1.526, 1.280e-3
-1.527, 1.295e-3
-1.528, 1.304e-3
-1.529, 1.320e-3
-1.530, 1.332e-3
-1.531, 1.344e-3
-1.532, 1.360e-3
-1.533, 1.375e-3
-1.534, 1.394e-3
-1.535, 1.412e-3
-1.536, 1.431e-3
-1.537, 1.446e-3
-1.538, 1.465e-3
-1.539, 1.483e-3
-1.540, 1.499e-3
-1.541, 1.514e-3
-1.542, 1.529e-3
-1.543, 1.548e-3
-1.544, 1.566e-3
-1.545, 1.585e-3
-1.546, 1.606e-3
-1.547, 1.628e-3
-1.548, 1.650e-3
-1.549, 1.671e-3
-1.550, 1.696e-3
-1.551, 1.714e-3
-1.552, 1.739e-3
-1.553, 1.764e-3
-1.554, 1.782e-3
-1.555, 1.807e-3
-1.556, 1.828e-3
-1.557, 1.853e-3
-1.558, 1.878e-3
-1.559, 1.902e-3
-1.560, 1.933e-3
-1.561, 1.961e-3
-1.562, 1.992e-3
-1.563, 2.023e-3
-1.564, 2.050e-3
-1.565, 2.081e-3
-1.566, 2.112e-3
-1.567, 2.146e-3
-1.568, 2.177e-3
-1.569, 2.211e-3
-1.570, 2.242e-3
-1.571, 2.275e-3
-1.572, 2.312e-3
-1.573, 2.353e-3
-1.574, 2.393e-3
-1.575, 2.433e-3
-1.576, 2.476e-3
-1.577, 2.522e-3
-1.578, 2.565e-3
-1.579, 2.612e-3
-1.580, 2.658e-3
-1.581, 2.707e-3
-1.582, 2.756e-3
-1.583, 2.803e-3
-1.584, 2.855e-3
-1.585, 2.914e-3
-1.586, 2.972e-3
-1.587, 3.037e-3
-1.588, 3.102e-3
-1.589, 3.170e-3
-1.590, 3.241e-3
-1.591, 3.311e-3
-1.592, 3.388e-3
-1.593, 3.466e-3
-1.594, 3.543e-3
-1.595, 3.626e-3
-1.596, 3.709e-3
-1.597, 3.799e-3
-1.598, 3.891e-3
-1.599, 3.987e-3
-1.600, 4.024e-3
-1.599, 4.005e-3
-1.598, 4.005e-3
-1.597, 4.011e-3
-1.596, 4.014e-3
-1.595, 4.021e-3
-1.594, 4.024e-3
-1.593, 4.024e-3
-1.592, 4.024e-3
-1.591, 4.021e-3
-1.590, 4.017e-3
-1.589, 4.014e-3
-1.588, 4.011e-3
-1.587, 4.008e-3
-1.586, 4.005e-3
-1.585, 3.999e-3
-1.584, 3.993e-3
-1.583, 3.987e-3
-1.582, 3.974e-3
-1.581, 3.962e-3
-1.580, 3.950e-3
-1.579, 3.931e-3
-1.578, 3.919e-3
-1.577, 3.903e-3
-1.576, 3.885e-3
-1.575, 3.863e-3
-1.574, 3.845e-3
-1.573, 3.829e-3
-1.572, 3.805e-3
-1.571, 3.783e-3
-1.570, 3.765e-3
-1.569, 3.743e-3
-1.568, 3.718e-3
-1.567, 3.691e-3
-1.566, 3.666e-3
-1.565, 3.641e-3
-1.564, 3.614e-3
-1.563, 3.586e-3
-1.562, 3.555e-3
-1.561, 3.524e-3
-1.560, 3.499e-3
-1.559, 3.472e-3
-1.558, 3.441e-3
-1.557, 3.413e-3
-1.556, 3.382e-3
-1.555, 3.351e-3
-1.554, 3.318e-3
-1.553, 3.287e-3
-1.552, 3.253e-3
-1.551, 3.219e-3
-1.550, 3.185e-3
-1.549, 3.148e-3
-1.548, 3.114e-3
-1.547, 3.083e-3
-1.546, 3.049e-3
-1.545, 3.015e-3
-1.544, 2.985e-3
-1.543, 2.951e-3
-1.542, 2.920e-3
-1.541, 2.886e-3
-1.540, 2.849e-3
-1.539, 2.815e-3
-1.538, 2.784e-3
-1.537, 2.750e-3
-1.536, 2.713e-3
-1.535, 2.679e-3
-1.534, 2.645e-3
-1.533, 2.612e-3
-1.532, 2.581e-3
-1.531, 2.550e-3
-1.530, 2.516e-3
-1.529, 2.482e-3
-1.528, 2.451e-3
-1.527, 2.417e-3
-1.526, 2.380e-3
-1.525, 2.349e-3
-1.524, 2.312e-3
-1.523, 2.282e-3
-1.522, 2.248e-3
-1.521, 2.217e-3
-1.520, 2.186e-3
-1.519, 2.152e-3
-1.518, 2.124e-3
-1.517, 2.094e-3
-1.516, 2.063e-3
-1.515, 2.029e-3
-1.514, 1.998e-3
-1.513, 1.967e-3
-1.512, 1.936e-3
-1.511, 1.902e-3
-1.510, 1.869e-3
-1.509, 1.841e-3
-1.508, 1.810e-3
-1.507, 1.782e-3
-1.506, 1.754e-3
-1.505, 1.727e-3
-1.504, 1.699e-3
-1.503, 1.671e-3
-1.502, 1.647e-3
-1.501, 1.616e-3
-1.500, 1.588e-3
-1.499, 1.560e-3
-1.498, 1.529e-3
-1.497, 1.502e-3
-1.496, 1.474e-3
-1.495, 1.449e-3
-1.494, 1.421e-3
-1.493, 1.397e-3
-1.492, 1.372e-3
-1.491, 1.347e-3
-1.490, 1.326e-3
-1.489, 1.301e-3
-1.488, 1.277e-3
-1.487, 1.252e-3
-1.486, 1.227e-3
-1.485, 1.203e-3
-1.484, 1.178e-3
-1.483, 1.153e-3
-1.482, 1.132e-3
-1.481, 1.107e-3
-1.480, 1.085e-3
-1.479, 1.064e-3
-1.478, 1.045e-3
-1.477, 1.027e-3
-1.476, 1.002e-3
-1.475, 9.806e-4
-1.474, 9.590e-4
-1.473, 9.374e-4
-1.472, 9.158e-4
-1.471, 8.943e-4
-1.470, 8.727e-4
-1.469, 8.542e-4
-1.468, 8.357e-4
-1.467, 8.172e-4
-1.466, 8.018e-4
-1.465, 7.802e-4
-1.464, 7.648e-4
-1.463, 7.463e-4
-1.462, 7.309e-4
-1.461, 7.124e-4
-1.460, 6.939e-4
-1.459, 6.754e-4
-1.458, 6.599e-4
-1.457, 6.384e-4
-1.456, 6.229e-4
-1.455, 6.075e-4
-1.454, 5.921e-4
-1.453, 5.798e-4
-1.452, 5.644e-4
-1.451, 5.489e-4
-1.450, 5.366e-4
-1.449, 5.212e-4
-1.448, 5.089e-4
-1.447, 4.904e-4
-1.446, 4.780e-4
-1.445, 4.626e-4
-1.444, 4.472e-4
-1.443, 4.318e-4
-1.442, 4.195e-4
-1.441, 4.071e-4
-1.440, 3.979e-4
-1.439, 3.855e-4
-1.438, 3.763e-4
-1.437, 3.640e-4
-1.436, 3.516e-4
-1.435, 3.424e-4
-1.434, 3.270e-4
-1.433, 3.146e-4
-1.432, 3.023e-4
-1.431, 2.900e-4
-1.430, 2.776e-4
-1.429, 2.684e-4
-1.428, 2.591e-4
-1.427, 2.499e-4
-1.426, 2.406e-4
-1.425, 2.314e-4
-1.424, 2.252e-4
-1.423, 2.160e-4
-1.422, 2.067e-4
-1.421, 1.975e-4
-1.420, 1.882e-4
-1.419, 1.759e-4
-1.418, 1.666e-4
-1.417, 1.543e-4
-1.416, 1.512e-4
-1.415, 1.389e-4
-1.414, 1.327e-4
-1.413, 1.266e-4
-1.412, 1.204e-4
-1.411, 1.142e-4
-1.410, 1.081e-4
-1.409, 1.019e-4
-1.408, 9.573e-5
-1.407, 8.340e-5
-1.406, 7.723e-5
-1.405, 7.107e-5
-1.404, 6.182e-5
-1.403, 5.257e-5
-1.402, 4.640e-5
-1.401, 4.024e-5
-1.400, 3.407e-5
-1.399, 3.099e-5
-1.398, 2.482e-5
-1.397, 2.174e-5
-1.396, 1.557e-5
-1.395, 9.405e-6
-1.394, 3.239e-6
-1.393, -2.927e-6
-1.392, -1.218e-5
-1.391, -1.526e-5
-1.390, -2.451e-5
-1.389, -2.759e-5
-1.388, -3.376e-5
-1.387, -3.376e-5
-1.386, -3.992e-5
-1.385, -4.301e-5
-1.384, -4.609e-5
-1.383, -5.226e-5
-1.382, -5.534e-5
-1.381, -5.842e-5
-1.380, -6.459e-5
-1.379, -7.384e-5
-1.378, -7.692e-5
-1.377, -8.309e-5
-1.376, -8.617e-5
-1.375, -8.925e-5
-1.374, -9.234e-5
-1.373, -9.542e-5
-1.372, -9.850e-5
-1.371, -1.016e-4
-1.370, -1.016e-4
-1.369, -1.078e-4
-1.368, -1.108e-4
-1.367, -1.170e-4
-1.366, -1.201e-4
-1.365, -1.263e-4
-1.364, -1.293e-4
-1.363, -1.324e-4
-1.362, -1.355e-4
-1.361, -1.386e-4
-1.360, -1.417e-4
-1.359, -1.448e-4
-1.358, -1.417e-4
-1.357, -1.448e-4
-1.356, -1.478e-4
-1.355, -1.509e-4
-1.354, -1.571e-4
-1.353, -1.602e-4
-1.352, -1.632e-4
-1.351, -1.663e-4
-1.350, -1.725e-4
-1.349, -1.725e-4
-1.348, -1.756e-4
-1.347, -1.756e-4
-1.346, -1.756e-4
-1.345, -1.787e-4
-1.344, -1.787e-4
-1.343, -1.817e-4
-1.342, -1.817e-4
-1.341, -1.879e-4
-1.340, -1.910e-4
-1.339, -1.941e-4
-1.338, -1.972e-4
-1.337, -2.002e-4
-1.336, -2.033e-4
-1.335, -2.064e-4
-1.334, -2.064e-4
-1.333, -2.095e-4
-1.332, -2.064e-4
-1.331, -2.095e-4
-1.330, -2.095e-4
-1.329, -2.095e-4
-1.328, -2.126e-4
-1.327, -2.157e-4
-1.326, -2.187e-4
-1.325, -2.218e-4
-1.324, -2.249e-4
-1.323, -2.280e-4
-1.322, -2.280e-4
-1.321, -2.311e-4
-1.320, -2.311e-4
-1.319, -2.311e-4
-1.318, -2.311e-4
-1.317, -2.311e-4
-1.316, -2.342e-4
-1.315, -2.342e-4
-1.314, -2.372e-4
-1.313, -2.403e-4
-1.312, -2.434e-4
-1.311, -2.465e-4
-1.310, -2.496e-4
-1.309, -2.496e-4
-1.308, -2.496e-4
-1.307, -2.527e-4
-1.306, -2.496e-4
-1.305, -2.496e-4
-1.304, -2.496e-4
-1.303, -2.496e-4
-1.302, -2.527e-4
-1.301, -2.527e-4
-1.300, -2.557e-4
-1.299, -2.588e-4
-1.298, -2.619e-4
-1.297, -2.650e-4
-1.296, -2.681e-4
-1.295, -2.681e-4
-1.294, -2.681e-4
-1.293, -2.681e-4
-1.292, -2.681e-4
-1.291, -2.681e-4
-1.290, -2.650e-4
-1.289, -2.681e-4
-1.288, -2.681e-4
-1.287, -2.712e-4
-1.286, -2.742e-4
-1.285, -2.773e-4
-1.284, -2.804e-4
-1.283, -2.804e-4
-1.282, -2.804e-4
-1.281, -2.835e-4
-1.280, -2.835e-4
-1.279, -2.804e-4
-1.278, -2.804e-4
-1.277, -2.773e-4
-1.276, -2.804e-4
-1.275, -2.804e-4
-1.274, -2.835e-4
-1.273, -2.866e-4
-1.272, -2.866e-4
-1.271, -2.897e-4
-1.270, -2.927e-4
-1.269, -2.927e-4
-1.268, -2.958e-4
-1.267, -2.927e-4
-1.266, -2.927e-4
-1.265, -2.927e-4
-1.264, -2.897e-4
-1.263, -2.897e-4
-1.262, -2.927e-4
-1.261, -2.927e-4
-1.260, -2.927e-4
-1.259, -2.958e-4
-1.258, -2.989e-4
-1.257, -3.020e-4
-1.256, -3.020e-4
-1.255, -3.051e-4
-1.254, -3.020e-4
-1.253, -3.020e-4
-1.252, -2.989e-4
-1.251, -2.989e-4
-1.250, -2.958e-4
-1.249, -2.989e-4
-1.248, -3.020e-4
-1.247, -3.020e-4
-1.246, -3.051e-4
-1.245, -3.082e-4
-1.244, -3.112e-4
-1.243, -3.112e-4
-1.242, -3.112e-4
-1.241, -3.112e-4
-1.240, -3.112e-4
-1.239, -3.082e-4
-1.238, -3.082e-4
-1.237, -3.051e-4
-1.236, -3.082e-4
-1.235, -3.051e-4
-1.234, -3.112e-4
-1.233, -3.112e-4
-1.232, -3.143e-4
-1.231, -3.143e-4
-1.230, -3.174e-4
-1.229, -3.205e-4
-1.228, -3.205e-4
-1.227, -3.174e-4
-1.226, -3.143e-4
-1.225, -3.143e-4
-1.224, -3.143e-4
-1.223, -3.143e-4
-1.222, -3.143e-4
-1.221, -3.143e-4
-1.220, -3.174e-4
-1.219, -3.205e-4
-1.218, -3.205e-4
-1.217, -3.236e-4
-1.216, -3.236e-4
-1.215, -3.236e-4
-1.214, -3.236e-4
-1.213, -3.236e-4
-1.212, -3.205e-4
-1.211, -3.205e-4
-1.210, -3.205e-4
-1.209, -3.205e-4
-1.208, -3.174e-4
-1.207, -3.205e-4
-1.206, -3.236e-4
-1.205, -3.267e-4
-1.204, -3.267e-4
-1.203, -3.297e-4
-1.202, -3.297e-4
-1.201, -3.267e-4
-1.200, -3.267e-4
-1.199, -3.267e-4
-1.198, -3.236e-4
-1.197, -3.205e-4
-1.196, -3.236e-4
-1.195, -3.236e-4
-1.194, -3.267e-4
-1.193, -3.267e-4
-1.192, -3.297e-4
-1.191, -3.297e-4
-1.190, -3.328e-4
-1.189, -3.328e-4
-1.188, -3.359e-4
-1.187, -3.328e-4
-1.186, -3.297e-4
-1.185, -3.297e-4
-1.184, -3.297e-4
-1.183, -3.267e-4
-1.182, -3.297e-4
-1.181, -3.297e-4
-1.180, -3.328e-4
-1.179, -3.328e-4
-1.178, -3.359e-4
-1.177, -3.390e-4
-1.176, -3.390e-4
-1.175, -3.390e-4
-1.174, -3.359e-4
-1.173, -3.359e-4
-1.172, -3.359e-4
-1.171, -3.328e-4
-1.170, -3.328e-4
-1.169, -3.328e-4
-1.168, -3.328e-4
-1.167, -3.359e-4
-1.166, -3.390e-4
-1.165, -3.390e-4
-1.164, -3.421e-4
-1.163, -3.421e-4
-1.162, -3.421e-4
-1.161, -3.452e-4
-1.160, -3.421e-4
-1.159, -3.421e-4
-1.158, -3.390e-4
-1.157, -3.359e-4
-1.156, -3.390e-4
-1.155, -3.390e-4
-1.154, -3.390e-4
-1.153, -3.421e-4
-1.152, -3.452e-4
-1.151, -3.482e-4
-1.150, -3.482e-4
-1.149, -3.482e-4
-1.148, -3.482e-4
-1.147, -3.482e-4
-1.146, -3.452e-4
-1.145, -3.452e-4
-1.144, -3.421e-4
-1.143, -3.452e-4
-1.142, -3.421e-4
-1.141, -3.421e-4
-1.140, -3.482e-4
-1.139, -3.482e-4
-1.138, -3.513e-4
-1.137, -3.544e-4
-1.136, -3.544e-4
-1.135, -3.544e-4
-1.134, -3.513e-4
-1.133, -3.513e-4
-1.132, -3.513e-4
-1.131, -3.482e-4
-1.130, -3.482e-4
-1.129, -3.482e-4
-1.128, -3.513e-4
-1.127, -3.513e-4
-1.126, -3.544e-4
-1.125, -3.575e-4
-1.124, -3.575e-4
-1.123, -3.606e-4
-1.122, -3.606e-4
-1.121, -3.606e-4
-1.120, -3.606e-4
-1.119, -3.606e-4
-1.118, -3.606e-4
-1.117, -3.575e-4
-1.116, -3.575e-4
-1.115, -3.575e-4
-1.114, -3.606e-4
-1.113, -3.637e-4
-1.112, -3.637e-4
-1.111, -3.667e-4
-1.110, -3.667e-4
-1.109, -3.698e-4
-1.108, -3.698e-4
-1.107, -3.698e-4
-1.106, -3.667e-4
-1.105, -3.667e-4
-1.104, -3.667e-4
-1.103, -3.667e-4
-1.102, -3.698e-4
-1.101, -3.698e-4
-1.100, -3.698e-4
-1.099, -3.729e-4
-1.098, -3.760e-4
-1.097, -3.791e-4
-1.096, -3.791e-4
-1.095, -3.791e-4
-1.094, -3.821e-4
-1.093, -3.791e-4
-1.092, -3.791e-4
-1.091, -3.791e-4
-1.090, -3.760e-4
-1.089, -3.791e-4
-1.088, -3.791e-4
-1.087, -3.821e-4
-1.086, -3.852e-4
-1.085, -3.883e-4
-1.084, -3.914e-4
-1.083, -3.945e-4
-1.082, -3.945e-4
-1.081, -3.945e-4
-1.080, -3.945e-4
-1.079, -3.945e-4
-1.078, -3.945e-4
-1.077, -3.914e-4
-1.076, -3.945e-4
-1.075, -3.976e-4
-1.074, -3.976e-4
-1.073, -4.006e-4
-1.072, -4.037e-4
-1.071, -4.068e-4
-1.070, -4.099e-4
-1.069, -4.099e-4
-1.068, -4.130e-4
-1.067, -4.130e-4
-1.066, -4.130e-4
-1.065, -4.130e-4
-1.064, -4.099e-4
-1.063, -4.099e-4
-1.062, -4.130e-4
-1.061, -4.161e-4
-1.060, -4.191e-4
-1.059, -4.222e-4
-1.058, -4.253e-4
-1.057, -4.284e-4
-1.056, -4.315e-4
-1.055, -4.346e-4
-1.054, -4.346e-4
-1.053, -4.315e-4
-1.052, -4.346e-4
-1.051, -4.346e-4
-1.050, -4.315e-4
-1.049, -4.376e-4
-1.048, -4.376e-4
-1.047, -4.407e-4
-1.046, -4.469e-4
-1.045, -4.500e-4
-1.044, -4.531e-4
-1.043, -4.531e-4
-1.042, -4.561e-4
-1.041, -4.592e-4
-1.040, -4.592e-4
-1.039, -4.623e-4
-1.038, -4.592e-4
-1.037, -4.592e-4
-1.036, -4.623e-4
-1.035, -4.654e-4
-1.034, -4.685e-4
-1.033, -4.746e-4
-1.032, -4.777e-4
-1.031, -4.808e-4
-1.030, -4.870e-4
-1.029, -4.870e-4
-1.028, -4.931e-4
-1.027, -4.931e-4
-1.026, -4.931e-4
-1.025, -4.962e-4
-1.024, -4.962e-4
-1.023, -4.962e-4
-1.022, -4.993e-4
-1.021, -5.024e-4
-1.020, -5.055e-4
-1.019, -5.116e-4
-1.018, -5.147e-4
-1.017, -5.209e-4
-1.016, -5.240e-4
-1.015, -5.271e-4
-1.014, -5.271e-4
-1.013, -5.301e-4
-1.012, -5.332e-4
-1.011, -5.332e-4
-1.010, -5.332e-4
-1.009, -5.394e-4
-1.008, -5.425e-4
-1.007, -5.456e-4
-1.006, -5.517e-4
-1.005, -5.548e-4
-1.004, -5.610e-4
-1.003, -5.641e-4
-1.002, -5.702e-4
-1.001, -5.733e-4
