Potential V vs RHE, Current mA cm-2
0.013299999999999867,-0.3511313446265021
0.012299999999999978,-1.2671569112891135
0.011299999999999866,-2.052746096104168
0.010299999999999976,-2.618630616050183
0.009299999999999864,-3.1859298472960624
0.008299999999999974,-3.579219588658543
0.007299999999999862,-3.884797229429391
0.006299999999999972,-4.1889601589003735
0.00529999999999986,-4.450681749375406
0.0042999999999999705,-4.626105950558669
0.0032999999999998586,-4.800115440442069
0.0022999999999999687,-4.9302688800296535
0.0012999999999998568,-5.017980980621284
0.00029999999999996696,-5.149549131508733
-0.000700000000000145,-5.235846520800501
-0.0017000000000000348,-5.279702571096316
-0.0027000000000001467,-5.367414671687949
-0.0037000000000000366,-5.411270721983764
-0.0047000000000001485,-5.453712060979717
-0.005700000000000038,-5.497568111275533
-0.00670000000000015,-5.5414241615713475
-0.00770000000000004,-5.5414241615713475
-0.008700000000000152,-5.585280211867165
-0.009700000000000042,-5.585280211867165
-0.010700000000000154,-5.585280211867165
-0.011700000000000044,-5.585280211867165
-0.012700000000000156,-5.585280211867165
-0.013700000000000045,-5.629136262162981
-0.014700000000000157,-5.629136262162981
-0.015700000000000047,-5.672992312458796
-0.01670000000000016,-5.672992312458796
-0.01770000000000005,-5.672992312458796
-0.01870000000000016,-5.672992312458796
-0.01970000000000005,-5.672992312458796
-0.020700000000000163,-5.672992312458796
-0.021700000000000053,-5.629136262162981
-0.022700000000000164,-5.672992312458796
-0.023700000000000054,-5.672992312458796
-0.024700000000000166,-5.672992312458796
-0.025700000000000056,-5.672992312458796
-0.026700000000000168,-5.672992312458796
-0.027700000000000058,-5.672992312458796
-0.02870000000000017,-5.672992312458796
-0.02970000000000006,-5.672992312458796
-0.03070000000000017,-5.672992312458796
-0.03170000000000006,-5.715433651454749
-0.03270000000000017,-5.672992312458796
-0.03370000000000006,-5.672992312458796
-0.034700000000000175,-5.672992312458796
-0.035700000000000065,-5.672992312458796
-0.03670000000000018,-5.715433651454749
-0.03770000000000007,-5.715433651454749
-0.03870000000000018,-5.672992312458796
-0.03970000000000007,-5.715433651454749
-0.04070000000000018,-5.715433651454749
-0.04170000000000007,-5.715433651454749
-0.04270000000000018,-5.672992312458796
-0.04370000000000007,-5.715433651454749
-0.044700000000000184,-5.715433651454749
-0.045700000000000074,-5.715433651454749
-0.046700000000000186,-5.715433651454749
-0.047700000000000076,-5.715433651454749
-0.04870000000000019,-5.715433651454749
-0.04970000000000008,-5.715433651454749
-0.05070000000000019,-5.715433651454749
-0.05170000000000008,-5.715433651454749
-0.05270000000000019,-5.715433651454749
-0.05370000000000008,-5.715433651454749
-0.05470000000000019,-5.715433651454749
-0.05570000000000008,-5.715433651454749
-0.056700000000000195,-5.715433651454749
-0.057700000000000085,-5.715433651454749
-0.058700000000000196,-5.715433651454749
-0.059700000000000086,-5.715433651454749
-0.0607000000000002,-5.715433651454749
-0.06170000000000009,-5.715433651454749
-0.0627000000000002,-5.672992312458796
-0.06370000000000009,-5.715433651454749
-0.0647000000000002,-5.715433651454749
-0.06570000000000009,-5.715433651454749
-0.0667000000000002,-5.715433651454749
-0.0677000000000001,-5.715433651454749
-0.0687000000000002,-5.715433651454749
-0.0697000000000001,-5.715433651454749
-0.07070000000000021,-5.715433651454749
-0.0717000000000001,-5.715433651454749
-0.07270000000000021,-5.715433651454749
-0.0737000000000001,-5.715433651454749
-0.07470000000000021,-5.715433651454749
-0.0757000000000001,-5.715433651454749
-0.07670000000000021,-5.759289701750564
-0.0777000000000001,-5.715433651454749
-0.07870000000000021,-5.715433651454749
-0.0797000000000001,-5.715433651454749
-0.08070000000000022,-5.715433651454749
-0.0817000000000001,-5.715433651454749
-0.08270000000000022,-5.715433651454749
-0.08370000000000011,-5.715433651454749
-0.08470000000000022,-5.759289701750564
-0.08570000000000011,-5.759289701750564
-0.08670000000000022,-5.759289701750564
-0.08770000000000011,-5.759289701750564
-0.08870000000000022,-5.759289701750564
-0.08970000000000011,-5.759289701750564
-0.09070000000000022,-5.715433651454749
-0.09170000000000011,-5.715433651454749
-0.09270000000000023,-5.715433651454749
-0.09370000000000012,-5.759289701750564
-0.09470000000000023,-5.759289701750564
-0.09570000000000012,-5.759289701750564
-0.09670000000000023,-5.759289701750564
-0.09770000000000012,-5.80314575204638
-0.09870000000000023,-5.759289701750564
-0.09970000000000012,-5.80314575204638
-0.10070000000000023,-5.759289701750564
-0.10170000000000012,-5.715433651454749
-0.10270000000000024,-5.759289701750564
-0.10370000000000013,-5.759289701750564
-0.10470000000000024,-5.759289701750564
-0.10570000000000013,-5.759289701750564
-0.10670000000000024,-5.80314575204638
-0.10770000000000013,-5.80314575204638
-0.10870000000000024,-5.80314575204638
-0.10970000000000013,-5.80314575204638
-0.11070000000000024,-5.80314575204638
-0.11170000000000013,-5.80314575204638
-0.11270000000000002,-5.759289701750564
-0.11370000000000013,-5.80314575204638
-0.11470000000000002,-5.80314575204638
-0.11570000000000014,-5.80314575204638
-0.11670000000000003,-5.80314575204638
-0.11770000000000014,-5.80314575204638
-0.11870000000000003,-5.80314575204638
-0.11970000000000014,-5.80314575204638
-0.12070000000000003,-5.80314575204638
-0.12170000000000014,-5.847001802342197
-0.12270000000000003,-5.847001802342197
-0.12370000000000014,-5.847001802342197
-0.12470000000000003,-5.847001802342197
-0.12570000000000014,-5.847001802342197
-0.12670000000000003,-5.890857852638012
-0.12770000000000015,-5.890857852638012
-0.12870000000000004,-5.890857852638012
-0.12970000000000015,-5.890857852638012
-0.13070000000000004,-5.847001802342197
-0.13170000000000015,-5.890857852638012
-0.13270000000000004,-5.890857852638012
-0.13370000000000015,-5.890857852638012
-0.13470000000000004,-5.9347139029338285
-0.13570000000000015,-5.890857852638012
-0.13670000000000004,-5.9347139029338285
-0.13770000000000016,-5.977155241929781
-0.13870000000000005,-5.977155241929781
-0.13970000000000016,-5.977155241929781
-0.14070000000000005,-5.977155241929781
-0.14170000000000016,-5.9347139029338285
-0.14270000000000005,-5.9347139029338285
-0.14370000000000016,-5.9347139029338285
-0.14470000000000005,-5.977155241929781
-0.14570000000000016,-5.977155241929781
-0.14670000000000005,-6.021011292225596
-0.14770000000000016,-6.021011292225596
-0.14870000000000005,-6.021011292225596
-0.14970000000000017,-6.021011292225596
-0.15070000000000006,-6.064867342521412
-0.15170000000000017,-6.064867342521412
-0.15270000000000006,-6.064867342521412
-0.15370000000000017,-6.064867342521412
-0.15470000000000006,-6.064867342521412
-0.15570000000000017,-6.108723392817228
-0.15670000000000006,-6.108723392817228
-0.15770000000000017,-6.108723392817228
-0.15870000000000006,-6.152579443113044
-0.15970000000000018,-6.152579443113044
-0.16070000000000007,-6.152579443113044
-0.16170000000000018,-6.152579443113044
-0.16270000000000007,-6.196435493408861
-0.16370000000000018,-6.196435493408861
-0.16470000000000007,-6.238876832404812
-0.16570000000000018,-6.238876832404812
-0.16670000000000007,-6.238876832404812
-0.16770000000000018,-6.282732882700628
-0.16870000000000007,-6.282732882700628
-0.16970000000000018,-6.326588932996443
-0.17070000000000007,-6.326588932996443
-0.17170000000000019,-6.326588932996443
-0.17270000000000008,-6.326588932996443
-0.1737000000000002,-6.37044498329226
-0.17470000000000008,-6.414301033588076
-0.1757000000000002,-6.414301033588076
-0.17670000000000008,-6.458157083883892
-0.1777000000000002,-6.500598422879844
-0.17870000000000008,-6.500598422879844
-0.1797000000000002,-6.500598422879844
-0.18070000000000008,-6.500598422879844
-0.1817000000000002,-6.54445447317566
-0.18270000000000008,-6.54445447317566
-0.1837000000000002,-6.588310523471475
-0.1847000000000001,-6.632166573767292
-0.1857000000000002,-6.632166573767292
-0.1867000000000001,-6.6760226240631075
-0.1877000000000002,-6.719878674358924
-0.1887000000000001,-6.762320013354876
-0.1897000000000002,-6.762320013354876
-0.1907000000000001,-6.806176063650692
-0.1917000000000001,-6.850032113946507
-0.19269999999999998,-6.850032113946507
-0.1937000000000001,-6.850032113946507
-0.19469999999999998,-6.893888164242324
-0.1957000000000001,-6.93774421453814
-0.19669999999999999,-6.981600264833956
-0.1977000000000001,-7.024041603829907
-0.1987,-7.067897654125724
-0.1997000000000001,-7.111753704421539
-0.2007,-7.155609754717355
-0.2017000000000001,-7.155609754717355
-0.2027,-7.199465805013171
-0.2037000000000001,-7.243321855308987
-0.2047,-7.28576319430494
-0.2057000000000001,-7.329619244600755
-0.2067,-7.4173313451923875
-0.2077000000000001,-7.461187395488204
-0.2087,-7.50504344578402
-0.2097000000000001,-7.50504344578402
-0.2107,-7.5474847847799715
-0.2117000000000001,-7.591340835075788
-0.2127,-7.679052935667419
-0.2137000000000001,-7.679052935667419
-0.2147,-7.7653503249591855
-0.2157000000000001,-7.853062425550818
-0.2167,-7.940774526142452
-0.21770000000000012,-7.984630576438266
-0.2187,-8.027071915434218
-0.21970000000000012,-8.070927965730034
-0.2207,-8.11478401602585
-0.22170000000000012,-8.158640066321666
-0.2227,-8.246352166913299
-0.22370000000000012,-8.288793505909249
-0.2247,-8.376505606500881
-0.22570000000000012,-8.4203616567967
-0.2267,-8.508073757388331
-0.22770000000000012,-8.594371146680096
-0.22870000000000001,-8.638227196975913
-0.22970000000000013,-8.725939297567548
-0.23070000000000002,-8.812236686859313
-0.23170000000000013,-8.85609273715513
-0.23270000000000002,-8.943804837746763
-0.23370000000000013,-8.987660888042578
-0.23470000000000002,-9.11781432763016
-0.23570000000000013,-9.205526428221793
-0.23670000000000002,-9.293238528813426
-0.2376999999999999,-9.379535918105192
-0.23870000000000002,-9.423391968401008
-0.2396999999999999,-9.55496011928846
-0.24070000000000003,-9.59740145828441
-0.24169999999999991,-9.685113558876042
-0.24270000000000003,-9.81668170976349
-0.24369999999999992,-9.902979099055257
-0.24470000000000003,-10.034547249942705
-0.24569999999999992,-10.120844639234473
-0.24670000000000003,-10.25241279012192
-0.24769999999999992,-10.340124890713554
-0.24870000000000003,-10.42642228000532
-0.24969999999999992,-10.514134380596953
-0.25070000000000003,-10.601846481188586
-0.2516999999999999,-10.731999920776168
-0.25270000000000004,-10.819712021367803
-0.2536999999999999,-10.993721511251199
-0.25470000000000004,-11.081433611842833
-0.2556999999999999,-11.255443101726232
-0.25670000000000004,-11.385596541313816
-0.25769999999999993,-11.517164692201263
-0.25870000000000004,-11.647318131788847
-0.25969999999999993,-11.73503023238048
-0.26070000000000004,-11.86659838326793
-0.26169999999999993,-11.996751822855511
-0.26270000000000004,-12.084463923447142
-0.26369999999999993,-12.258473413330542
-0.26470000000000005,-12.432482903213943
-0.26569999999999994,-12.607907104397206
-0.26670000000000005,-12.781916594280606
-0.26769999999999994,-12.955926084164007
-0.26870000000000005,-13.087494235051453
-0.26969999999999994,-13.217647674639037
-0.27070000000000005,-13.3930718758223
-0.27169999999999994,-13.47936926511407
-0.27270000000000005,-13.654793466297335
-0.27369999999999994,-13.828802956180734
-0.27470000000000006,-14.002812446064135
-0.27569999999999995,-14.217848563643619
-0.27670000000000006,-14.401761032626075
-0.27769999999999995,-14.57152638860988
-0.27870000000000006,-14.69885040559773
-0.27969999999999995,-14.868615761581536
-0.28070000000000006,-15.01008689156804
-0.28169999999999995,-15.222293586547794
-0.28270000000000006,-15.3920589425316
-0.28369999999999995,-15.618412750510005
-0.28470000000000006,-15.78817810649381
-0.28569999999999995,-16.056973253468165
-0.28670000000000007,-16.269179948447924
-0.28769999999999996,-16.495533756426326
-0.28870000000000007,-16.665299112410132
-0.28969999999999996,-16.835064468393938
-0.29070000000000007,-17.018976937376394
-0.29169999999999996,-17.231183632356142
-0.29270000000000007,-17.40094898833995
-0.29369999999999996,-17.669744135314307
-0.2947000000000001,-17.924392169290012
-0.29569999999999996,-18.15074597726842
-0.2967000000000001,-18.44783535024008
-0.29769999999999996,-18.674189158218486
-0.2987000000000001,-18.88639585319824
-0.29969999999999997,-19.112749661176647
-0.3007000000000001,-19.28251501716045
-0.30169999999999997,-19.49472171214021
-0.3027000000000001,-19.763516859114564
-0.30369999999999997,-20.01816489309027
-0.3047000000000001,-20.329401379060574
-0.30569999999999997,-20.626490752032236
-0.3067000000000001,-20.89528589900659
-0.3077,-21.2065223849769
-0.3087000000000001,-21.461170418952605
-0.3097,-21.67337711393236
-0.3107000000000001,-21.94217226090672
-0.3117,-22.15437895588647
-0.3127000000000001,-22.42317410286083
-0.3137,-22.776851927827092
-0.3147000000000001,-23.073941300798747
-0.3157,-23.427619125765005
-0.3167000000000001,-23.724708498736668
-0.3177,-24.035944984706973
-0.3187000000000001,-24.290593018682678
-0.3197,-24.559388165657033
-0.3207000000000001,-24.814036199632742
-0.3217,-25.12527268560305
-0.3227000000000001,-25.43650917157336
-0.3237,-25.73359854454502
-0.3247000000000001,-26.087276369511276
-0.3257,-26.525836872469437
-0.3267000000000001,-26.86536758443705
-0.3277,-27.176604070407354
-0.3287000000000001,-27.487840556377662
-0.3297,-27.742488590353368
-0.3307000000000001,-28.05372507632368
-0.3317,-28.393255788291288
-0.3327000000000001,-28.704492274261593
-0.3337,-29.100611438223805
-0.3347000000000001,-29.482583489187363
-0.3357,-29.878702653149578
-0.3367000000000001,-30.317263156107735
-0.3377,-30.670940981073993
-0.3387000000000001,-31.010471693041605
-0.3397,-31.321708179011907
-0.3407000000000001,-31.661238890979522
-0.3417,-31.972475376949827
-0.3427000000000001,-32.32615320191609
-0.3437,-32.764713704874254
-0.3447000000000001,-33.18912709483376
-0.3457,-33.627687597791926
-0.3467000000000001,-34.06624810075008
-0.3477,-34.462367264712285
-0.3487000000000001,-34.85848642867451
-0.3497,-35.198017140642115
-0.3507000000000001,-35.55169496560837
-0.3517,-35.94781412957058
-0.3527000000000001,-36.329786180534136
-0.3537,-36.725905344496354
-0.3547000000000001,-37.206907186450465
-0.3557,-37.687909028404576
-0.35670000000000013,-38.12646953136274
-0.3577,-38.5650300343209
-0.35870000000000013,-38.94700208528445
-0.3597,-39.30067991025072
-0.36070000000000013,-39.739240413208876
-0.3617,-40.135359577171094
-0.3626999999999999,-40.559772967130606
-0.3637,-40.99833347008877
-0.3646999999999999,-41.47933531204288
-0.3657,-42.00277849299294
-0.3666999999999999,-42.526221673943
-0.3677,-42.96478217690117
-0.3686999999999999,-43.40334267985933
-0.36970000000000003,-43.84190318281749
-0.3706999999999999,-44.28046368577565
-0.37170000000000003,-44.704877075735155
-0.3726999999999999,-45.143437578693316
-0.37370000000000003,-45.666880759643384
-0.3746999999999999,-46.19032394059345
-0.37570000000000003,-46.713767121543505
-0.3766999999999999,-47.27965164148953
-0.37770000000000004,-47.76065348344364
-0.3786999999999999,-48.24165532539775
-0.37970000000000004,-48.72265716735186
-0.3806999999999999,-49.20365900930597
-0.38170000000000004,-49.642219512264134
-0.38269999999999993,-50.1656626932142
-0.38370000000000004,-50.73154721316022
-0.38469999999999993,-51.29743173310623
-0.38570000000000004,-51.86331625305225
-0.38669999999999993,-51.65110955807249
-0.38570000000000004,-50.20810403221015
-0.38469999999999993,-49.076334992318124
-0.38370000000000004,-48.071889969413945
-0.38269999999999993,-47.19476896349763
-0.38170000000000004,-46.45911908756781
-0.3806999999999999,-45.75176343763528
-0.37970000000000004,-45.10099623969737
-0.3786999999999999,-44.4926703807554
-0.37770000000000004,-43.88434452181344
-0.3766999999999999,-43.27601866287147
-0.37570000000000003,-42.71013414292546
-0.3746999999999999,-42.087661170984845
-0.37370000000000003,-41.52177665103883
-0.3726999999999999,-40.91345079209687
-0.37170000000000003,-40.34756627215084
-0.3706999999999999,-39.78168175220483
-0.36970000000000003,-39.258238571254765
-0.3686999999999999,-38.734795390304704
-0.3677,-38.253793548350586
-0.3666999999999999,-37.73035036740053
-0.3657,-37.206907186450465
-0.3646999999999999,-36.6834640055004
-0.3637,-36.11757948555439
-0.3626999999999999,-35.594136304604326
-0.3617,-35.07069312365426
-0.36070000000000013,-34.5472499427042
-0.3597,-34.10868943974604
-0.35870000000000013,-33.627687597791926
-0.3577,-33.18912709483376
-0.35670000000000013,-32.70812525287965
-0.3557,-32.24127052392419
-0.3547000000000001,-31.717827342974125
-0.3537,-31.19438416202406
-0.3527000000000001,-30.71338232006995
-0.3517,-30.232380478115836
-0.3507000000000001,-29.751378636161718
-0.3497,-29.35525947219951
-0.3487000000000001,-28.91669896924135
-0.3477,-28.478138466283188
-0.3467000000000001,-28.05372507632368
-0.3457,-27.572723234369565
-0.3447000000000001,-27.091721392415455
-0.3437,-26.61071955046134
-0.3427000000000001,-26.17215904750318
-0.3417,-25.73359854454502
-0.3407000000000001,-25.337479380582806
-0.3397,-24.95550732961925
-0.3387000000000001,-24.559388165657033
-0.3377,-24.16326900169483
-0.3367000000000001,-23.724708498736668
-0.3357,-23.300295108777156
-0.3347000000000001,-22.819293266823045
-0.3337,-22.38073276386488
-0.3327000000000001,-21.94217226090672
-0.3317,-21.54605309694451
-0.3307000000000001,-21.2065223849769
-0.3297,-20.76796188201874
-0.3287000000000001,-20.456725396048434
-0.3277,-20.06060623208622
-0.3267000000000001,-19.721075520118614
-0.3257,-19.3249563561564
-0.3247000000000001,-18.88639585319824
-0.3237,-18.49027668923603
-0.3227000000000001,-18.10830463827247
-0.3217,-17.75462681330621
-0.3207000000000001,-17.40094898833995
-0.3197,-17.103859615368293
-0.3187000000000001,-16.750181790402035
-0.3177,-16.438945304431726
-0.3167000000000001,-16.099414592464115
-0.3157,-15.74573676749786
-0.3147000000000001,-15.349617603535648
-0.3137,-15.01008689156804
-0.3127000000000001,-14.65640906660178
-0.3117,-14.345172580631472
-0.3107000000000001,-14.002812446064135
-0.3097,-13.741090855589102
-0.3087000000000001,-13.3930718758223
-0.3077,-13.087494235051453
-0.3067000000000001,-12.781916594280606
-0.30569999999999997,-12.432482903213943
-0.3047000000000001,-12.12831997374296
-0.30369999999999997,-11.82274233297211
-0.3027000000000001,-11.517164692201263
-0.30169999999999997,-11.211587051430415
-0.3007000000000001,-10.949865460955383
-0.29969999999999997,-10.644287820184536
-0.2987000000000001,-10.382566229709504
-0.29769999999999996,-10.120844639234473
-0.2967000000000001,-9.772825659467674
-0.29569999999999996,-9.511104068992642
-0.2947000000000001,-9.205526428221793
-0.29369999999999996,-8.943804837746763
-0.29270000000000007,-8.68208324727173
-0.29169999999999996,-8.4203616567967
-0.29070000000000007,-8.158640066321666
-0.28969999999999996,-7.896918475846635
-0.28870000000000007,-7.679052935667419
-0.28769999999999996,-7.461187395488204
-0.28670000000000007,-7.199465805013171
-0.28569999999999995,-6.893888164242324
-0.28470000000000006,-6.6760226240631075
-0.28369999999999995,-6.414301033588076
-0.28270000000000006,-6.152579443113044
-0.28169999999999995,-5.9347139029338285
-0.28070000000000006,-5.715433651454749
-0.27969999999999995,-5.497568111275533
-0.27870000000000006,-5.279702571096316
-0.27769999999999995,-5.105693081212917
-0.27670000000000006,-4.843971490737885
-0.27569999999999995,-4.626105950558669
-0.27470000000000006,-4.450681749375406
-0.27369999999999994,-4.1889601589003735
-0.27270000000000005,-3.971094618721158
-0.27169999999999994,-3.7532290785419424
-0.27070000000000005,-3.579219588658543
-0.26969999999999994,-3.403795387475278
-0.26870000000000005,-3.2297858975918787
-0.26769999999999994,-3.0119203574126634
-0.26670000000000005,-2.8379108675292635
-0.26569999999999994,-2.618630616050183
-0.26470000000000005,-2.4884771764625997
