Potential V vs RHE, Current mA cm-2
0.013299999999999867,-0.30755823659065895
0.012299999999999978,-1.0925815368857679
0.011299999999999866,-1.6594563547416883
0.010299999999999976,-2.008890045808352
0.009299999999999864,-2.226755585987568
0.008299999999999974,-2.4007650758709675
0.007299999999999862,-2.532333226758415
0.006299999999999972,-2.618630616050183
0.00529999999999986,-2.662486666345999
0.0042999999999999705,-2.7501987669376318
0.0032999999999998586,-2.794054817233447
0.0022999999999999687,-2.794054817233447
0.0012999999999998568,-2.794054817233447
0.00029999999999996696,-2.794054817233447
-0.000700000000000145,-2.8379108675292635
-0.0017000000000000348,-2.8379108675292635
-0.0027000000000001467,-2.8379108675292635
-0.0037000000000000366,-2.8379108675292635
-0.0047000000000001485,-2.8379108675292635
-0.005700000000000038,-2.8379108675292635
-0.00670000000000015,-2.8803522065252145
-0.00770000000000004,-2.8379108675292635
-0.008700000000000152,-2.8379108675292635
-0.009700000000000042,-2.8803522065252145
-0.010700000000000154,-2.8803522065252145
-0.011700000000000044,-2.8803522065252145
-0.012700000000000156,-2.8803522065252145
-0.013700000000000045,-2.8803522065252145
-0.014700000000000157,-2.8803522065252145
-0.015700000000000047,-2.8803522065252145
-0.01670000000000016,-2.8803522065252145
-0.01770000000000005,-2.8803522065252145
-0.01870000000000016,-2.8803522065252145
-0.01970000000000005,-2.8803522065252145
-0.020700000000000163,-2.8803522065252145
-0.021700000000000053,-2.8803522065252145
-0.022700000000000164,-2.8803522065252145
-0.023700000000000054,-2.8803522065252145
-0.024700000000000166,-2.8803522065252145
-0.025700000000000056,-2.8803522065252145
-0.026700000000000168,-2.8803522065252145
-0.027700000000000058,-2.8803522065252145
-0.02870000000000017,-2.8803522065252145
-0.02970000000000006,-2.8803522065252145
-0.03070000000000017,-2.924208256821031
-0.03170000000000006,-2.8803522065252145
-0.03270000000000017,-2.8803522065252145
-0.03370000000000006,-2.8803522065252145
-0.034700000000000175,-2.8803522065252145
-0.035700000000000065,-2.8803522065252145
-0.03670000000000018,-2.924208256821031
-0.03770000000000007,-2.8803522065252145
-0.03870000000000018,-2.8803522065252145
-0.03970000000000007,-2.8803522065252145
-0.04070000000000018,-2.8803522065252145
-0.04170000000000007,-2.924208256821031
-0.04270000000000018,-2.924208256821031
-0.04370000000000007,-2.924208256821031
-0.044700000000000184,-2.8803522065252145
-0.045700000000000074,-2.924208256821031
-0.046700000000000186,-2.8803522065252145
-0.047700000000000076,-2.924208256821031
-0.04870000000000019,-2.924208256821031
-0.04970000000000008,-2.924208256821031
-0.05070000000000019,-2.924208256821031
-0.05170000000000008,-2.924208256821031
-0.05270000000000019,-2.8803522065252145
-0.05370000000000008,-2.8803522065252145
-0.05470000000000019,-2.8803522065252145
-0.05570000000000008,-2.924208256821031
-0.056700000000000195,-2.924208256821031
-0.057700000000000085,-2.924208256821031
-0.058700000000000196,-2.8803522065252145
-0.059700000000000086,-2.924208256821031
-0.0607000000000002,-2.8803522065252145
-0.06170000000000009,-2.924208256821031
-0.0627000000000002,-2.924208256821031
-0.06370000000000009,-2.924208256821031
-0.0647000000000002,-2.924208256821031
-0.06570000000000009,-2.924208256821031
-0.0667000000000002,-2.924208256821031
-0.0677000000000001,-2.924208256821031
-0.0687000000000002,-2.924208256821031
-0.0697000000000001,-2.924208256821031
-0.07070000000000021,-2.924208256821031
-0.0717000000000001,-2.924208256821031
-0.07270000000000021,-2.924208256821031
-0.0737000000000001,-2.924208256821031
-0.07470000000000021,-2.8803522065252145
-0.0757000000000001,-2.924208256821031
-0.07670000000000021,-2.924208256821031
-0.0777000000000001,-2.924208256821031
-0.07870000000000021,-2.924208256821031
-0.0797000000000001,-2.924208256821031
-0.08070000000000022,-2.924208256821031
-0.0817000000000001,-2.924208256821031
-0.08270000000000022,-2.924208256821031
-0.08370000000000011,-2.968064307116847
-0.08470000000000022,-2.924208256821031
-0.08570000000000011,-2.924208256821031
-0.08670000000000022,-2.924208256821031
-0.08770000000000011,-2.968064307116847
-0.08870000000000022,-2.924208256821031
-0.08970000000000011,-2.968064307116847
-0.09070000000000022,-2.968064307116847
-0.09170000000000011,-2.968064307116847
-0.09270000000000023,-2.968064307116847
-0.09370000000000012,-2.924208256821031
-0.09470000000000023,-2.924208256821031
-0.09570000000000012,-2.968064307116847
-0.09670000000000023,-2.968064307116847
-0.09770000000000012,-2.968064307116847
-0.09870000000000023,-2.968064307116847
-0.09970000000000012,-2.968064307116847
-0.10070000000000023,-2.968064307116847
-0.10170000000000012,-2.968064307116847
-0.10270000000000024,-2.968064307116847
-0.10370000000000013,-3.0119203574126634
-0.10470000000000024,-2.968064307116847
-0.10570000000000013,-2.968064307116847
-0.10670000000000024,-2.968064307116847
-0.10770000000000013,-3.0119203574126634
-0.10870000000000024,-2.968064307116847
-0.10970000000000013,-2.968064307116847
-0.11070000000000024,-3.0119203574126634
-0.11170000000000013,-3.0119203574126634
-0.11270000000000002,-3.0119203574126634
-0.11370000000000013,-3.0119203574126634
-0.11470000000000002,-3.0119203574126634
-0.11570000000000014,-3.0119203574126634
-0.11670000000000003,-3.0119203574126634
-0.11770000000000014,-3.0119203574126634
-0.11870000000000003,-3.0119203574126634
-0.11970000000000014,-3.0119203574126634
-0.12070000000000003,-3.055776407708479
-0.12170000000000014,-3.055776407708479
-0.12270000000000003,-3.055776407708479
-0.12370000000000014,-3.055776407708479
-0.12470000000000003,-3.055776407708479
-0.12570000000000014,-3.055776407708479
-0.12670000000000003,-3.055776407708479
-0.12770000000000015,-3.0996324580042955
-0.12870000000000004,-3.055776407708479
-0.12970000000000015,-3.0996324580042955
-0.13070000000000004,-3.0996324580042955
-0.13170000000000015,-3.0996324580042955
-0.13270000000000004,-3.0996324580042955
-0.13370000000000015,-3.0996324580042955
-0.13470000000000004,-3.0996324580042955
-0.13570000000000015,-3.1420737970002466
-0.13670000000000004,-3.1420737970002466
-0.13770000000000016,-3.1420737970002466
-0.13870000000000005,-3.1420737970002466
-0.13970000000000016,-3.1420737970002466
-0.14070000000000005,-3.1420737970002466
-0.14170000000000016,-3.1859298472960624
-0.14270000000000005,-3.1859298472960624
-0.14370000000000016,-3.1859298472960624
-0.14470000000000005,-3.2297858975918787
-0.14570000000000016,-3.2297858975918787
-0.14670000000000005,-3.2297858975918787
-0.14770000000000016,-3.2297858975918787
-0.14870000000000005,-3.2297858975918787
-0.14970000000000017,-3.273641947887695
-0.15070000000000006,-3.273641947887695
-0.15170000000000017,-3.273641947887695
-0.15270000000000006,-3.273641947887695
-0.15370000000000017,-3.273641947887695
-0.15470000000000006,-3.317497998183511
-0.15570000000000017,-3.317497998183511
-0.15670000000000006,-3.361354048479327
-0.15770000000000017,-3.361354048479327
-0.15870000000000006,-3.361354048479327
-0.15970000000000018,-3.361354048479327
-0.16070000000000007,-3.403795387475278
-0.16170000000000018,-3.403795387475278
-0.16270000000000007,-3.447651437771094
-0.16370000000000018,-3.447651437771094
-0.16470000000000007,-3.4915074880669104
-0.16570000000000018,-3.4915074880669104
-0.16670000000000007,-3.4915074880669104
-0.16770000000000018,-3.4915074880669104
-0.16870000000000007,-3.5353635383627267
-0.16970000000000018,-3.579219588658543
-0.17070000000000007,-3.579219588658543
-0.17170000000000019,-3.579219588658543
-0.17270000000000008,-3.579219588658543
-0.1737000000000002,-3.623075638954359
-0.17470000000000008,-3.6655169779503103
-0.1757000000000002,-3.6655169779503103
-0.17670000000000008,-3.7093730282461257
-0.1777000000000002,-3.7093730282461257
-0.17870000000000008,-3.7532290785419424
-0.1797000000000002,-3.7532290785419424
-0.18070000000000008,-3.7970851288377587
-0.1817000000000002,-3.7970851288377587
-0.18270000000000008,-3.840941179133574
-0.1837000000000002,-3.884797229429391
-0.1847000000000001,-3.927238568425342
-0.1857000000000002,-3.927238568425342
-0.1867000000000001,-3.971094618721158
-0.1877000000000002,-3.971094618721158
-0.1887000000000001,-4.014950669016974
-0.1897000000000002,-4.0588067193127895
-0.1907000000000001,-4.102662769608606
-0.1917000000000001,-4.146518819904423
-0.19269999999999998,-4.146518819904423
-0.1937000000000001,-4.1889601589003735
-0.19469999999999998,-4.23281620919619
-0.1957000000000001,-4.276672259492005
-0.19669999999999999,-4.3205283097878215
-0.1977000000000001,-4.3205283097878215
-0.1987,-4.364384360083638
-0.1997000000000001,-4.406825699079589
-0.2007,-4.494537799671222
-0.2017000000000001,-4.494537799671222
-0.2027,-4.538393849967037
-0.2037000000000001,-4.582249900262854
-0.2047,-4.668547289554621
-0.2057000000000001,-4.712403339850438
-0.2067,-4.712403339850438
-0.2077000000000001,-4.756259390146253
-0.2087,-4.843971490737885
-0.2097000000000001,-4.887827541033701
-0.2107,-4.974124930325469
-0.2117000000000001,-4.974124930325469
-0.2127,-5.017980980621284
-0.2137000000000001,-5.105693081212917
-0.2147,-5.149549131508733
-0.2157000000000001,-5.279702571096316
-0.2167,-5.323558621392133
-0.21770000000000012,-5.367414671687949
-0.2187,-5.411270721983764
-0.21970000000000012,-5.497568111275533
-0.2207,-5.5414241615713475
-0.22170000000000012,-5.585280211867165
-0.2227,-5.672992312458796
-0.22370000000000012,-5.759289701750564
-0.2247,-5.847001802342197
-0.22570000000000012,-5.890857852638012
-0.2267,-5.9347139029338285
-0.22770000000000012,-6.021011292225596
-0.22870000000000001,-6.108723392817228
-0.22970000000000013,-6.196435493408861
-0.23070000000000002,-6.282732882700628
-0.23170000000000013,-6.326588932996443
-0.23270000000000002,-6.414301033588076
-0.23370000000000013,-6.500598422879844
-0.23470000000000002,-6.588310523471475
-0.23570000000000013,-6.719878674358924
-0.23670000000000002,-6.806176063650692
-0.2376999999999999,-6.850032113946507
-0.23870000000000002,-6.981600264833956
-0.2396999999999999,-7.067897654125724
-0.24070000000000003,-7.199465805013171
-0.24169999999999991,-7.28576319430494
-0.24270000000000003,-7.37347529489657
-0.24369999999999992,-7.50504344578402
-0.24470000000000003,-7.591340835075788
-0.24569999999999992,-7.722908985963235
-0.24670000000000003,-7.809206375255003
-0.24769999999999992,-7.896918475846635
-0.24870000000000003,-8.027071915434218
-0.24969999999999992,-8.158640066321666
-0.25070000000000003,-8.288793505909249
-0.2516999999999999,-8.376505606500881
-0.25270000000000004,-8.508073757388331
-0.2536999999999999,-8.638227196975913
-0.25470000000000004,-8.769795347863363
-0.2556999999999999,-8.899948787450944
-0.25670000000000004,-9.031516938338395
-0.25769999999999993,-9.161670377925978
-0.25870000000000004,-9.293238528813426
-0.25969999999999993,-9.467248018696827
-0.26070000000000004,-9.59740145828441
-0.26169999999999993,-9.728969609171857
-0.26270000000000004,-9.85912304875944
-0.26369999999999993,-10.034547249942705
-0.26470000000000005,-10.208556739826104
-0.26569999999999994,-10.340124890713554
-0.26670000000000005,-10.470278330301136
-0.26769999999999994,-10.644287820184536
-0.26870000000000005,-10.819712021367803
-0.26969999999999994,-10.993721511251199
-0.27070000000000005,-11.1677310011346
-0.27169999999999994,-11.299299152022046
-0.27270000000000005,-11.473308641905447
-0.27369999999999994,-11.691174182084664
-0.27470000000000006,-11.86659838326793
-0.27569999999999995,-12.040607873151327
-0.27670000000000006,-12.214617363034726
-0.27769999999999995,-12.390041564217992
-0.27870000000000006,-12.607907104397206
-0.27969999999999995,-12.825772644576423
-0.28070000000000006,-12.99978213445982
-0.28169999999999995,-13.175206335643086
-0.28270000000000006,-13.349215825526485
-0.28369999999999995,-13.610937416001518
-0.28470000000000006,-13.828802956180734
-0.28569999999999995,-14.002812446064135
-0.28670000000000007,-14.175407224647667
-0.28769999999999996,-14.401761032626075
-0.28870000000000007,-14.65640906660178
-0.28969999999999996,-14.868615761581536
-0.29070000000000007,-15.094969569559943
-0.29169999999999996,-15.264734925543747
-0.29270000000000007,-15.533530072518102
-0.29369999999999996,-15.74573676749786
-0.2947000000000001,-16.014531914472215
-0.29569999999999996,-16.22673860945197
-0.2967000000000001,-16.438945304431726
-0.29769999999999996,-16.70774045140608
-0.2987000000000001,-16.962388485381787
-0.29969999999999997,-17.231183632356142
-0.3007000000000001,-17.4433903273359
-0.30169999999999997,-17.669744135314307
-0.3027000000000001,-17.924392169290012
-0.30369999999999997,-18.27806999425627
-0.3047000000000001,-18.53271802823198
-0.30569999999999997,-18.759071836210385
-0.3067000000000001,-18.97127853119014
-0.3077,-19.28251501716045
-0.3087000000000001,-19.636192842126707
-0.3097,-19.93328221509837
-0.3107000000000001,-20.202077362072725
-0.3117,-20.414284057052477
-0.3127000000000001,-20.72552054302279
-0.3137,-21.022609915994444
-0.3147000000000001,-21.333846401964752
-0.3157,-21.63093577493641
-0.3167000000000001,-21.899730921910766
-0.3177,-22.196820294882425
-0.3187000000000001,-22.550498119848687
-0.3197,-22.861734605818995
-0.3207000000000001,-23.15882397879065
-0.3217,-23.427619125765005
-0.3227000000000001,-23.767149837732617
-0.3237,-24.16326900169483
-0.3247000000000001,-24.516946826661083
-0.3257,-24.771594860636792
-0.3267000000000001,-25.0828313466071
-0.3277,-25.43650917157336
-0.3287000000000001,-25.86092256153287
-0.3297,-26.21460038649913
-0.3307000000000001,-26.483395533473487
-0.3317,-26.822926245441096
-0.3327000000000001,-27.219045409403304
-0.3337,-27.615164573365515
-0.3347000000000001,-27.954695285333123
-0.3357,-28.265931771303435
-0.3367000000000001,-28.577168257273744
-0.3377,-29.001581647233255
-0.3387000000000001,-29.440142150191413
-0.3397,-29.793819975157668
-0.3407000000000001,-30.10505646112798
-0.3417,-30.444587173095588
-0.3427000000000001,-30.925589015049702
-0.3437,-31.40659085700382
-0.3447000000000001,-31.76026868197007
-0.3457,-32.05735805494172
-0.3467000000000001,-32.41103587990799
-0.3477,-32.93447906085806
-0.3487000000000001,-33.373039563816214
-0.3497,-33.755011614779775
-0.3507000000000001,-34.10868943974604
-0.3517,-34.462367264712285
-0.3527000000000001,-34.94336910666641
-0.3537,-35.42437094862052
-0.3547000000000001,-35.806342999584075
-0.3557,-36.16002082455034
-0.35670000000000013,-36.5985813275085
-0.3577,-37.122024508458566
-0.35870000000000013,-37.645467689408626
-0.3597,-37.99914551437489
-0.36070000000000013,-38.33867622634249
-0.3617,-38.81967806829661
-0.3626999999999999,-39.38556258824262
-0.3637,-39.86656443019674
-0.3646999999999999,-40.220242255162994
-0.3657,-40.616361419125205
-0.3666999999999999,-41.139804600075266
-0.3677,-41.74813045901723
-0.3686999999999999,-42.229132300971344
-0.36970000000000003,-42.6111043519349
-0.3706999999999999,-43.007223515897124
-0.37170000000000003,-43.53066669684718
-0.3726999999999999,-44.138992555789144
-0.37370000000000003,-44.66243573673921
-0.3746999999999999,-45.01611356170547
-0.37570000000000003,-45.412232725667685
-0.3766999999999999,-45.97811724561369
-0.37770000000000004,-46.628884443551605
-0.3786999999999999,-47.10988628550572
-0.37970000000000004,-47.46356411047198
-0.3806999999999999,-47.84553616143554
-0.38170000000000004,-48.41142068138156
-0.38269999999999993,-49.076334992318124
-0.38370000000000004,-49.68466085126009
-0.38469999999999993,-50.0807800152223
-0.38570000000000004,-50.50519340518181
-0.38669999999999993,-50.335428049198
-0.38570000000000004,-49.33098302629383
-0.38469999999999993,-48.55289181136806
-0.38370000000000004,-47.76065348344364
-0.38269999999999993,-46.982562268517874
-0.38170000000000004,-46.41667774857186
-0.3806999999999999,-45.97811724561369
-0.37970000000000004,-45.45467406466363
-0.3786999999999999,-44.74731841473111
-0.37770000000000004,-44.054109877797245
-0.3766999999999999,-43.57310803584313
-0.37570000000000003,-43.17698887188092
-0.3746999999999999,-42.653545690930855
-0.37370000000000003,-41.96033715399699
-0.3726999999999999,-41.30956995605907
-0.37170000000000003,-40.828568114104954
-0.3706999999999999,-40.4748902891387
-0.36970000000000003,-39.99388844718459
-0.3686999999999999,-39.34312124924667
-0.3677,-38.692354051308754
-0.3666999999999999,-38.211352209354644
-0.3657,-37.81523304539243
-0.3646999999999999,-37.334231203438314
-0.3637,-36.81078802248826
-0.3626999999999999,-36.244903502542236
-0.3617,-35.763901660588125
-0.36070000000000013,-35.38192960962457
-0.3597,-34.94336910666641
-0.35870000000000013,-34.41992592571634
-0.3577,-33.85404140577033
-0.35670000000000013,-33.373039563816214
-0.3557,-33.01936173884996
-0.3547000000000001,-32.58080123589179
-0.3537,-32.01491671594578
-0.3527000000000001,-31.49147353499572
-0.3517,-31.052913032037555
-0.3507000000000001,-30.71338232006995
-0.3497,-30.274821817111786
-0.3487000000000001,-29.751378636161718
-0.3477,-29.22793545521166
-0.3467000000000001,-28.789374952253496
-0.3457,-28.393255788291288
-0.3447000000000001,-28.011283737327723
-0.3437,-27.530281895373616
-0.3427000000000001,-27.091721392415455
-0.3417,-26.65316088945729
-0.3407000000000001,-26.257041725495082
-0.3397,-25.91751101352747
-0.3387000000000001,-25.478950510569312
-0.3377,-24.997948668615198
-0.3367000000000001,-24.559388165657033
-0.3357,-24.24815167968673
-0.3347000000000001,-23.908620967719123
-0.3337,-23.47006046476096
-0.3327000000000001,-22.989058622806844
-0.3317,-22.63538079784059
-0.3307000000000001,-22.295850085872978
-0.3297,-21.98461359990267
-0.3287000000000001,-21.54605309694451
-0.3277,-21.107492593986347
-0.3267000000000001,-20.72552054302279
-0.3257,-20.414284057052477
-0.3247000000000001,-20.10304757108217
-0.3237,-19.721075520118614
-0.3227000000000001,-19.3249563561564
-0.3217,-18.92883719219419
-0.3207000000000001,-18.631747819222536
-0.3197,-18.320511333252224
-0.3187000000000001,-17.924392169290012
-0.3177,-17.584861457322408
-0.3167000000000001,-17.231183632356142
-0.3157,-16.962388485381787
-0.3147000000000001,-16.665299112410132
-0.3137,-16.311621287443874
-0.3127000000000001,-15.972090575476265
-0.3117,-15.618412750510005
-0.3107000000000001,-15.349617603535648
-0.3097,-15.094969569559943
-0.3087000000000001,-14.783733083589633
-0.3077,-14.401761032626075
-0.3067000000000001,-14.090524546655764
-0.30569999999999997,-13.828802956180734
-0.3047000000000001,-13.567081365705702
-0.30369999999999997,-13.261503724934855
-0.3027000000000001,-12.955926084164007
-0.30169999999999997,-12.651763154693022
-0.3007000000000001,-12.390041564217992
-0.29969999999999997,-12.12831997374296
-0.2987000000000001,-11.86659838326793
-0.29769999999999996,-11.56102074249708
-0.2967000000000001,-11.299299152022046
-0.29569999999999996,-11.037577561547016
-0.2947000000000001,-10.775855971071984
-0.29369999999999996,-10.557990430892769
-0.29270000000000007,-10.25241279012192
-0.29169999999999996,-9.99069119964689
-0.29070000000000007,-9.772825659467674
-0.28969999999999996,-9.59740145828441
-0.28870000000000007,-9.335679867809377
-0.28769999999999996,-9.031516938338395
-0.28670000000000007,-8.812236686859313
-0.28569999999999995,-8.594371146680096
-0.28470000000000006,-8.4203616567967
-0.28369999999999995,-8.158640066321666
-0.28270000000000006,-7.940774526142452
-0.28169999999999995,-7.722908985963235
-0.28070000000000006,-7.50504344578402
-0.27969999999999995,-7.28576319430494
-0.27870000000000006,-7.067897654125724
-0.27769999999999995,-6.850032113946507
-0.27670000000000006,-6.6760226240631075
-0.27569999999999995,-6.458157083883892
-0.27470000000000006,-6.282732882700628
-0.27369999999999994,-6.064867342521412
-0.27270000000000005,-5.847001802342197
-0.27169999999999994,-5.672992312458796
-0.27070000000000005,-5.497568111275533
-0.26969999999999994,-5.367414671687949
-0.26870000000000005,-5.149549131508733
-0.26769999999999994,-4.974124930325469
-0.26670000000000005,-4.756259390146253
