Potential V vs RHE, Current mA cm-2
0.013299999999999867,-0.3511313446265021
0.012299999999999978,-1.1798692240874404
0.011299999999999866,-1.6594563547416883
0.010299999999999976,-1.9650339955125358
0.009299999999999864,-2.1828995356917518
0.008299999999999974,-2.3569090255751513
0.007299999999999862,-2.4446211261667834
0.006299999999999972,-2.532333226758415
0.00529999999999986,-2.532333226758415
0.0042999999999999705,-2.576189277054232
0.0032999999999998586,-2.576189277054232
0.0022999999999999687,-2.618630616050183
0.0012999999999998568,-2.706342716641815
0.00029999999999996696,-2.794054817233447
-0.000700000000000145,-2.8803522065252145
-0.0017000000000000348,-2.968064307116847
-0.0027000000000001467,-3.055776407708479
-0.0037000000000000366,-3.0996324580042955
-0.0047000000000001485,-3.1420737970002466
-0.005700000000000038,-3.0996324580042955
-0.00670000000000015,-3.0996324580042955
-0.00770000000000004,-3.055776407708479
-0.008700000000000152,-3.055776407708479
-0.009700000000000042,-3.0996324580042955
-0.010700000000000154,-3.1420737970002466
-0.011700000000000044,-3.1859298472960624
-0.012700000000000156,-3.273641947887695
-0.013700000000000045,-3.317497998183511
-0.014700000000000157,-3.403795387475278
-0.015700000000000047,-3.403795387475278
-0.01670000000000016,-3.403795387475278
-0.01770000000000005,-3.361354048479327
-0.01870000000000016,-3.361354048479327
-0.01970000000000005,-3.317497998183511
-0.020700000000000163,-3.273641947887695
-0.021700000000000053,-3.317497998183511
-0.022700000000000164,-3.317497998183511
-0.023700000000000054,-3.403795387475278
-0.024700000000000166,-3.447651437771094
-0.025700000000000056,-3.5353635383627267
-0.026700000000000168,-3.579219588658543
-0.027700000000000058,-3.579219588658543
-0.02870000000000017,-3.5353635383627267
-0.02970000000000006,-3.4915074880669104
-0.03070000000000017,-3.4915074880669104
-0.03170000000000006,-3.447651437771094
-0.03270000000000017,-3.447651437771094
-0.03370000000000006,-3.447651437771094
-0.034700000000000175,-3.4915074880669104
-0.035700000000000065,-3.579219588658543
-0.03670000000000018,-3.623075638954359
-0.03770000000000007,-3.7093730282461257
-0.03870000000000018,-3.7093730282461257
-0.03970000000000007,-3.6655169779503103
-0.04070000000000018,-3.6655169779503103
-0.04170000000000007,-3.579219588658543
-0.04270000000000018,-3.579219588658543
-0.04370000000000007,-3.5353635383627267
-0.044700000000000184,-3.5353635383627267
-0.045700000000000074,-3.5353635383627267
-0.046700000000000186,-3.623075638954359
-0.047700000000000076,-3.6655169779503103
-0.04870000000000019,-3.7093730282461257
-0.04970000000000008,-3.7970851288377587
-0.05070000000000019,-3.7532290785419424
-0.05170000000000008,-3.7970851288377587
-0.05270000000000019,-3.7532290785419424
-0.05370000000000008,-3.7093730282461257
-0.05470000000000019,-3.6655169779503103
-0.05570000000000008,-3.579219588658543
-0.056700000000000195,-3.623075638954359
-0.057700000000000085,-3.623075638954359
-0.058700000000000196,-3.7532290785419424
-0.059700000000000086,-3.7532290785419424
-0.0607000000000002,-3.7970851288377587
-0.06170000000000009,-3.884797229429391
-0.0627000000000002,-3.840941179133574
-0.06370000000000009,-3.840941179133574
-0.0647000000000002,-3.7532290785419424
-0.06570000000000009,-3.7532290785419424
-0.0667000000000002,-3.7093730282461257
-0.0677000000000001,-3.7093730282461257
-0.0687000000000002,-3.7093730282461257
-0.0697000000000001,-3.7532290785419424
-0.07070000000000021,-3.7970851288377587
-0.0717000000000001,-3.840941179133574
-0.07270000000000021,-3.927238568425342
-0.0737000000000001,-3.927238568425342
-0.07470000000000021,-3.927238568425342
-0.0757000000000001,-3.884797229429391
-0.07670000000000021,-3.7970851288377587
-0.0777000000000001,-3.7970851288377587
-0.07870000000000021,-3.7532290785419424
-0.0797000000000001,-3.7532290785419424
-0.08070000000000022,-3.7532290785419424
-0.0817000000000001,-3.840941179133574
-0.08270000000000022,-3.884797229429391
-0.08370000000000011,-3.927238568425342
-0.08470000000000022,-4.014950669016974
-0.08570000000000011,-3.971094618721158
-0.08670000000000022,-4.014950669016974
-0.08770000000000011,-3.927238568425342
-0.08870000000000022,-3.884797229429391
-0.08970000000000011,-3.884797229429391
-0.09070000000000022,-3.7970851288377587
-0.09170000000000011,-3.840941179133574
-0.09270000000000023,-3.840941179133574
-0.09370000000000012,-3.927238568425342
-0.09470000000000023,-3.971094618721158
-0.09570000000000012,-4.014950669016974
-0.09670000000000023,-4.0588067193127895
-0.09770000000000012,-4.0588067193127895
-0.09870000000000023,-4.0588067193127895
-0.09970000000000012,-3.971094618721158
-0.10070000000000023,-3.971094618721158
-0.10170000000000012,-3.927238568425342
-0.10270000000000024,-3.884797229429391
-0.10370000000000013,-3.927238568425342
-0.10470000000000024,-3.971094618721158
-0.10570000000000013,-4.0588067193127895
-0.10670000000000024,-4.102662769608606
-0.10770000000000013,-4.146518819904423
-0.10870000000000024,-4.146518819904423
-0.10970000000000013,-4.146518819904423
-0.11070000000000024,-4.102662769608606
-0.11170000000000013,-4.0588067193127895
-0.11270000000000002,-4.014950669016974
-0.11370000000000013,-3.971094618721158
-0.11470000000000002,-4.014950669016974
-0.11570000000000014,-4.014950669016974
-0.11670000000000003,-4.0588067193127895
-0.11770000000000014,-4.146518819904423
-0.11870000000000003,-4.1889601589003735
-0.11970000000000014,-4.276672259492005
-0.12070000000000003,-4.23281620919619
-0.12170000000000014,-4.276672259492005
-0.12270000000000003,-4.1889601589003735
-0.12370000000000014,-4.146518819904423
-0.12470000000000003,-4.102662769608606
-0.12570000000000014,-4.0588067193127895
-0.12670000000000003,-4.146518819904423
-0.12770000000000015,-4.146518819904423
-0.12870000000000004,-4.23281620919619
-0.12970000000000015,-4.23281620919619
-0.13070000000000004,-4.3205283097878215
-0.13170000000000015,-4.406825699079589
-0.13270000000000004,-4.364384360083638
-0.13370000000000015,-4.364384360083638
-0.13470000000000004,-4.3205283097878215
-0.13570000000000015,-4.276672259492005
-0.13670000000000004,-4.23281620919619
-0.13770000000000016,-4.23281620919619
-0.13870000000000005,-4.23281620919619
-0.13970000000000016,-4.3205283097878215
-0.14070000000000005,-4.364384360083638
-0.14170000000000016,-4.450681749375406
-0.14270000000000005,-4.538393849967037
-0.14370000000000016,-4.494537799671222
-0.14470000000000005,-4.538393849967037
-0.14570000000000016,-4.494537799671222
-0.14670000000000005,-4.450681749375406
-0.14770000000000016,-4.450681749375406
-0.14870000000000005,-4.406825699079589
-0.14970000000000017,-4.406825699079589
-0.15070000000000006,-4.450681749375406
-0.15170000000000017,-4.494537799671222
-0.15270000000000006,-4.626105950558669
-0.15370000000000017,-4.668547289554621
-0.15470000000000006,-4.712403339850438
-0.15570000000000017,-4.712403339850438
-0.15670000000000006,-4.756259390146253
-0.15770000000000017,-4.712403339850438
-0.15870000000000006,-4.668547289554621
-0.15970000000000018,-4.668547289554621
-0.16070000000000007,-4.582249900262854
-0.16170000000000018,-4.668547289554621
-0.16270000000000007,-4.668547289554621
-0.16370000000000018,-4.800115440442069
-0.16470000000000007,-4.843971490737885
-0.16570000000000018,-4.9302688800296535
-0.16670000000000007,-4.974124930325469
-0.16770000000000018,-4.974124930325469
-0.16870000000000007,-4.974124930325469
-0.16970000000000018,-4.9302688800296535
-0.17070000000000007,-4.9302688800296535
-0.17170000000000019,-4.887827541033701
-0.17270000000000008,-4.9302688800296535
-0.1737000000000002,-4.974124930325469
-0.17470000000000008,-5.017980980621284
-0.1757000000000002,-5.105693081212917
-0.17670000000000008,-5.191990470504685
-0.1777000000000002,-5.279702571096316
-0.17870000000000008,-5.279702571096316
-0.1797000000000002,-5.323558621392133
-0.18070000000000008,-5.279702571096316
-0.1817000000000002,-5.279702571096316
-0.18270000000000008,-5.279702571096316
-0.1837000000000002,-5.235846520800501
-0.1847000000000001,-5.279702571096316
-0.1857000000000002,-5.323558621392133
-0.1867000000000001,-5.411270721983764
-0.1877000000000002,-5.497568111275533
-0.1887000000000001,-5.585280211867165
-0.1897000000000002,-5.672992312458796
-0.1907000000000001,-5.715433651454749
-0.1917000000000001,-5.759289701750564
-0.19269999999999998,-5.715433651454749
-0.1937000000000001,-5.715433651454749
-0.19469999999999998,-5.715433651454749
-0.1957000000000001,-5.715433651454749
-0.19669999999999999,-5.80314575204638
-0.1977000000000001,-5.80314575204638
-0.1987,-5.9347139029338285
-0.1997000000000001,-6.021011292225596
-0.2007,-6.108723392817228
-0.2017000000000001,-6.196435493408861
-0.2027,-6.238876832404812
-0.2037000000000001,-6.238876832404812
-0.2047,-6.238876832404812
-0.2057000000000001,-6.238876832404812
-0.2067,-6.282732882700628
-0.2077000000000001,-6.282732882700628
-0.2087,-6.37044498329226
-0.2097000000000001,-6.458157083883892
-0.2107,-6.54445447317566
-0.2117000000000001,-6.6760226240631075
-0.2127,-6.762320013354876
-0.2137000000000001,-6.850032113946507
-0.2147,-6.893888164242324
-0.2157000000000001,-6.93774421453814
-0.2167,-6.93774421453814
-0.21770000000000012,-6.981600264833956
-0.2187,-6.981600264833956
-0.21970000000000012,-7.024041603829907
-0.2207,-7.111753704421539
-0.22170000000000012,-7.243321855308987
-0.2227,-7.37347529489657
-0.22370000000000012,-7.461187395488204
-0.2247,-7.591340835075788
-0.22570000000000012,-7.679052935667419
-0.2267,-7.722908985963235
-0.22770000000000012,-7.7653503249591855
-0.22870000000000001,-7.7653503249591855
-0.22970000000000013,-7.809206375255003
-0.23070000000000002,-7.809206375255003
-0.23170000000000013,-7.896918475846635
-0.23270000000000002,-7.984630576438266
-0.23370000000000013,-8.158640066321666
-0.23470000000000002,-8.288793505909249
-0.23570000000000013,-8.4203616567967
-0.23670000000000002,-8.55051509638428
-0.2376999999999999,-8.594371146680096
-0.23870000000000002,-8.68208324727173
-0.2396999999999999,-8.68208324727173
-0.24070000000000003,-8.769795347863363
-0.24169999999999991,-8.812236686859313
-0.24270000000000003,-8.899948787450944
-0.24369999999999992,-8.987660888042578
-0.24470000000000003,-9.11781432763016
-0.24569999999999992,-9.24938247851761
-0.24670000000000003,-9.423391968401008
-0.24769999999999992,-9.55496011928846
-0.24870000000000003,-9.641257508580225
-0.24969999999999992,-9.772825659467674
-0.25070000000000003,-9.81668170976349
-0.2516999999999999,-9.85912304875944
-0.25270000000000004,-9.946835149351072
-0.2536999999999999,-9.99069119964689
-0.25470000000000004,-10.120844639234473
-0.2556999999999999,-10.208556739826104
-0.25670000000000004,-10.382566229709504
-0.25769999999999993,-10.557990430892769
-0.25870000000000004,-10.731999920776168
-0.25969999999999993,-10.906009410659568
-0.26070000000000004,-10.993721511251199
-0.26169999999999993,-11.123874950838783
-0.26270000000000004,-11.211587051430415
-0.26369999999999993,-11.299299152022046
-0.26470000000000005,-11.343155202317865
-0.26569999999999994,-11.42945259160963
-0.26670000000000005,-11.604876792792895
-0.26769999999999994,-11.73503023238048
-0.26870000000000005,-11.909039722263879
-0.26969999999999994,-12.084463923447142
-0.27070000000000005,-12.302329463626359
-0.27169999999999994,-12.476338953509758
-0.27270000000000005,-12.56405105410139
-0.27369999999999994,-12.694204493688973
-0.27470000000000006,-12.781916594280606
-0.27569999999999995,-12.869628694872238
-0.27670000000000006,-12.99978213445982
-0.27769999999999995,-13.087494235051453
-0.27870000000000006,-13.261503724934855
-0.27969999999999995,-13.436927926118118
-0.28070000000000006,-13.610937416001518
-0.28169999999999995,-13.828802956180734
-0.28270000000000006,-14.002812446064135
-0.28369999999999995,-14.175407224647667
-0.28470000000000006,-14.345172580631472
-0.28569999999999995,-14.444202371622024
-0.28670000000000007,-14.57152638860988
-0.28769999999999996,-14.65640906660178
-0.28870000000000007,-14.741291744593681
-0.28969999999999996,-14.967645552572087
-0.29070000000000007,-15.094969569559943
-0.29169999999999996,-15.307176264539699
-0.29270000000000007,-15.533530072518102
-0.29369999999999996,-15.74573676749786
-0.2947000000000001,-15.972090575476265
-0.29569999999999996,-16.141855931460068
-0.2967000000000001,-16.311621287443874
-0.29769999999999996,-16.396503965435777
-0.2987000000000001,-16.53797509542228
-0.29969999999999997,-16.665299112410132
-0.3007000000000001,-16.792623129397985
-0.30169999999999997,-16.962388485381787
-0.3027000000000001,-17.146300954364243
-0.30369999999999997,-17.40094898833995
-0.3047000000000001,-17.627302796318357
-0.30569999999999997,-17.881950830294063
-0.3067000000000001,-18.10830463827247
-0.3077,-18.27806999425627
-0.3087000000000001,-18.44783535024008
-0.3097,-18.589306480226583
-0.3107000000000001,-18.759071836210385
-0.3117,-18.88639585319824
-0.3127000000000001,-19.056161209182044
-0.3137,-19.28251501716045
-0.3147000000000001,-19.49472171214021
-0.3157,-19.763516859114564
-0.3167000000000001,-20.01816489309027
-0.3177,-20.286960040064624
-0.3187000000000001,-20.499166735044383
-0.3197,-20.683079204026836
-0.3207000000000001,-20.85284456001064
-0.3217,-21.022609915994444
-0.3227000000000001,-21.2065223849769
-0.3237,-21.333846401964752
-0.3247000000000001,-21.58849443594046
-0.3257,-21.772406904922917
-0.3267000000000001,-22.069496277894572
-0.3277,-22.33829142486893
-0.3287000000000001,-22.592939458844636
-0.3297,-22.904175944814945
-0.3307000000000001,-23.073941300798747
-0.3317,-23.385177786769056
-0.3327000000000001,-23.55494314275286
-0.3337,-23.724708498736668
-0.3347000000000001,-23.908620967719123
-0.3357,-24.035944984706973
-0.3367000000000001,-24.290593018682678
-0.3377,-24.559388165657033
-0.3387000000000001,-24.870624651627345
-0.3397,-25.12527268560305
-0.3407000000000001,-25.43650917157336
-0.3417,-25.73359854454502
-0.3427000000000001,-25.959952352523427
-0.3437,-26.17215904750318
-0.3447000000000001,-26.38436574248293
-0.3457,-26.61071955046134
-0.3467000000000001,-26.780484906445146
-0.3477,-27.049280053419505
-0.3487000000000001,-27.261486748399253
-0.3497,-27.572723234369565
-0.3507000000000001,-27.869812607341224
-0.3517,-28.18104909331153
-0.3527000000000001,-28.478138466283188
-0.3537,-28.789374952253496
-0.3547000000000001,-29.058170099227848
-0.3557,-29.27037679420761
-0.35670000000000013,-29.482583489187363
-0.3577,-29.751378636161718
-0.35870000000000013,-29.96358533114148
-0.3597,-30.232380478115836
-0.36070000000000013,-30.487028512091538
-0.3617,-30.8407063370578
-0.3626999999999999,-31.137795710029454
-0.3637,-31.49147353499572
-0.3646999999999999,-31.84515135996197
-0.3657,-32.14224073293363
-0.3666999999999999,-32.45347721890394
-0.3677,-32.70812525287965
-0.3686999999999999,-32.93447906085806
-0.36970000000000003,-33.231568433829715
-0.3706999999999999,-33.41548090281216
-0.37170000000000003,-33.755011614779775
-0.3726999999999999,-34.06624810075008
-0.37370000000000003,-34.462367264712285
-0.3746999999999999,-34.8018979766799
-0.37570000000000003,-35.15557580164616
-0.3766999999999999,-35.55169496560837
-0.37770000000000004,-35.848784338580025
-0.3786999999999999,-36.16002082455034
-0.37970000000000004,-36.4288159715247
-0.3806999999999999,-36.725905344496354
-0.38170000000000004,-36.99470049147071
-0.38269999999999993,-37.291789864442364
-0.38370000000000004,-37.60302635041268
-0.38469999999999993,-37.99914551437489
-0.38570000000000004,-38.33867622634249
-0.38669999999999993,-38.734795390304704
-0.38770000000000004,-39.130914554266916
-0.38869999999999993,-39.47044526623452
-0.38970000000000005,-39.82412309120078
-0.39069999999999994,-40.135359577171094
-0.39170000000000005,-40.3900076111468
-0.39269999999999994,-40.701244097117105
-0.39370000000000005,-40.99833347008877
-0.39469999999999994,-41.352011295055014
-0.39570000000000005,-41.70568912002128
-0.39669999999999994,-42.04521983198889
-0.39770000000000005,-42.483780334947056
-0.39869999999999994,-42.87989949890926
-0.39970000000000006,-43.31846000186743
-0.40069999999999995,-43.657990713835034
-0.40170000000000006,-44.054109877797245
-0.40269999999999995,-44.3229050247716
-0.40370000000000006,-44.66243573673921
-0.40469999999999995,-44.97367222270952
-0.40570000000000006,-45.27076159568118
-0.40669999999999995,-45.666880759643384
-0.40770000000000006,-46.02055858460964
-0.40869999999999995,-46.45911908756781
-0.40970000000000006,-46.84109113853137
-0.41069999999999995,-47.27965164148953
-0.41170000000000007,-47.76065348344364
-0.41269999999999996,-48.114331308409895
-0.41370000000000007,-48.45386202037751
-0.41469999999999996,-48.84998118433972
-0.41570000000000007,-49.20365900930597
-0.41669999999999996,-49.557336834272235
-0.41770000000000007,-49.89686754623985
-0.41869999999999996,-50.29298671020206
-0.4197000000000001,-50.68910587416426
-0.42069999999999996,-51.17010771611838
-0.4217000000000001,-51.594521106077885
-0.42269999999999996,-52.11796428702795
-0.4237000000000001,-52.514083450990164
-0.42469999999999997,-52.95264395394832
-0.4257000000000001,-53.348763117910536
-0.42669999999999997,-53.68829382987814
-0.4277000000000001,-54.1268543328363
-0.42869999999999997,-54.43809081880661
-0.4297000000000001,-54.876651321764776
-0.43069999999999997,-55.25862337272834
-0.4317000000000001,-55.73962521468245
-0.4327,-56.26306839563251
-0.4337000000000001,-56.70162889859067
-0.4347,-57.22507207954074
-0.4357000000000001,-57.66363258249889
-0.4367,-58.14463442445301
-0.4377000000000001,-58.54075358841522
-0.4387,-58.92272563937878
-0.4397000000000001,-59.31884480334099
-0.4407,-59.67252262830725
-0.4417000000000001,-60.15352447026136
-0.4427,-60.59208497321952
-0.4437000000000001,-61.07308681517363
-0.4447,-61.53994154412909
-0.4457000000000001,-62.06338472507916
-0.4467,-62.544386567033264
-0.4477000000000001,-63.02538840898739
-0.4487,-63.5063902509415
-0.4497000000000001,-63.902509414903705
-0.4507,-64.34106991786187
-0.4517000000000001,-64.72304196882543
-0.4527,-65.16160247178358
-0.4537000000000001,-65.60016297474175
-0.4547,-66.12360615569182
-0.4557000000000001,-66.64704933664189
-0.4567,-67.128051178596
-0.4577000000000001,-67.73637703753796
-0.4587,-68.21737887949207
-0.4597000000000001,-68.74082206044213
-0.4607,-69.1793825634003
-0.4617000000000001,-69.61794306635846
-0.4627,-70.09894490831257
-0.4637000000000001,-70.53750541127073
-0.4647,-71.06094859222078
-0.4657000000000001,-71.52780332117625
-0.4667,-72.05124650212633
-0.4677000000000001,-72.67371947406694
-0.4687,-73.23960399401295
-0.4697000000000001,-73.8479298529549
-0.4707,-74.41381437290093
-0.4717000000000001,-74.97969889284694
-0.4727,-75.50314207379701
-0.4737000000000001,-75.98414391575112
-0.4747,-76.46514575770523
-0.4757000000000001,-76.94614759965934
-0.4767,-77.51203211960537
-0.4777000000000001,-78.03547530055542
-0.4787,-78.64380115949739
-0.4797000000000001,-79.25212701843935
-0.4807,-79.90289421637728
-0.48170000000000013,-80.52536718831789
-0.4827,-81.09125170826391
-0.48370000000000013,-81.69957756720586
-0.4847,-82.22302074815593
-0.48570000000000013,-82.746463929106
-0.4867,-82.18057940915998
-0.48570000000000013,-80.52536718831789
-0.4847,-79.33700969643127
-0.48370000000000013,-78.29012333453113
-0.4827,-77.38470810261751
-0.48170000000000013,-76.46514575770523
-0.4807,-75.5880247517889
-0.4797000000000001,-74.72505085887124
-0.4787,-73.8479298529549
-0.4777000000000001,-72.92836750804264
-0.4767,-72.00880516313036
-0.4757000000000001,-71.1458312702127
-0.4747,-70.22626892530042
-0.4737000000000001,-69.3491479193841
-0.4727,-68.52861536546239
-0.4717000000000001,-67.73637703753796
-0.4707,-67.00072716160814
-0.4697000000000001,-66.25093017267966
-0.4687,-65.5577216357458
-0.4677000000000001,-64.82207175981598
-0.4667,-64.11471610988345
-0.4657000000000001,-63.3366248949577
-0.4647,-62.544386567033264
-0.4637000000000001,-61.80873669110345
-0.4627,-60.974057024183075
