Aug. 18, 2024   21:34:35
Linear Sweep Voltammetry
File: c:/users/guazh/data/20240813_batch_94_500/2024-08-15-exp125\1acid_2ac-2024-08-18t21_31_24-lsvinphos\1acid_2ac_lsv_50mvs_efin_-2300mv.bin
Data Source:  Experiment
Instrument Model:  CHI760E
Header: LSV ran at 50 mVs with Efin at -2300mV
Note: 

Init E (V) = -0.6
Final E (V) = -2.3
Scan Rate (V/s) = 0.05
Sample Interval (V) = 0.001
Quiet Time (sec) = 2
Sensitivity (A/V) = 1e-4
Comp R (ohm) = 9.4

Results:

Channel 1:
Ep = -1.772V
ip = 6.024e-4A
Ah = 7.802e-4C

Potential/V, Current/A

-0.600, 6.453e-6
-0.601, 6.602e-6
-0.602, 6.688e-6
-0.603, 6.748e-6
-0.604, 6.807e-6
-0.605, 6.863e-6
-0.606, 6.916e-6
-0.607, 6.970e-6
-0.608, 7.043e-6
-0.609, 7.080e-6
-0.610, 7.117e-6
-0.611, 7.163e-6
-0.612, 7.211e-6
-0.613, 7.256e-6
-0.614, 7.302e-6
-0.615, 7.347e-6
-0.616, 7.389e-6
-0.617, 7.431e-6
-0.618, 7.472e-6
-0.619, 7.516e-6
-0.620, 7.558e-6
-0.621, 7.597e-6
-0.622, 7.639e-6
-0.623, 7.676e-6
-0.624, 7.717e-6
-0.625, 7.756e-6
-0.626, 7.791e-6
-0.627, 7.830e-6
-0.628, 7.868e-6
-0.629, 7.903e-6
-0.630, 7.939e-6
-0.631, 7.971e-6
-0.632, 8.006e-6
-0.633, 8.040e-6
-0.634, 8.072e-6
-0.635, 8.106e-6
-0.636, 8.136e-6
-0.637, 8.168e-6
-0.638, 8.203e-6
-0.639, 8.235e-6
-0.640, 8.265e-6
-0.641, 8.293e-6
-0.642, 8.319e-6
-0.643, 8.346e-6
-0.644, 8.374e-6
-0.645, 8.400e-6
-0.646, 8.427e-6
-0.647, 8.452e-6
-0.648, 8.475e-6
-0.649, 8.505e-6
-0.650, 8.541e-6
-0.651, 8.549e-6
-0.652, 8.568e-6
-0.653, 8.588e-6
-0.654, 8.611e-6
-0.655, 8.627e-6
-0.656, 8.645e-6
-0.657, 8.667e-6
-0.658, 8.689e-6
-0.659, 8.706e-6
-0.660, 8.724e-6
-0.661, 8.738e-6
-0.662, 8.756e-6
-0.663, 8.772e-6
-0.664, 8.787e-6
-0.665, 8.809e-6
-0.666, 8.818e-6
-0.667, 8.832e-6
-0.668, 8.845e-6
-0.669, 8.856e-6
-0.670, 8.870e-6
-0.671, 8.878e-6
-0.672, 8.892e-6
-0.673, 8.900e-6
-0.674, 8.910e-6
-0.675, 8.920e-6
-0.676, 8.928e-6
-0.677, 8.938e-6
-0.678, 8.945e-6
-0.679, 8.953e-6
-0.680, 8.959e-6
-0.681, 8.963e-6
-0.682, 8.969e-6
-0.683, 8.975e-6
-0.684, 8.976e-6
-0.685, 8.983e-6
-0.686, 8.988e-6
-0.687, 8.988e-6
-0.688, 8.989e-6
-0.689, 8.992e-6
-0.690, 8.994e-6
-0.691, 8.996e-6
-0.692, 8.995e-6
-0.693, 8.996e-6
-0.694, 8.996e-6
-0.695, 8.996e-6
-0.696, 8.995e-6
-0.697, 8.993e-6
-0.698, 8.994e-6
-0.699, 9.004e-6
-0.700, 8.993e-6
-0.701, 8.990e-6
-0.702, 8.987e-6
-0.703, 8.982e-6
-0.704, 8.979e-6
-0.705, 8.976e-6
-0.706, 8.969e-6
-0.707, 8.968e-6
-0.708, 8.963e-6
-0.709, 8.957e-6
-0.710, 8.953e-6
-0.711, 8.944e-6
-0.712, 8.942e-6
-0.713, 8.935e-6
-0.714, 8.930e-6
-0.715, 8.922e-6
-0.716, 8.915e-6
-0.717, 8.912e-6
-0.718, 8.905e-6
-0.719, 8.898e-6
-0.720, 8.889e-6
-0.721, 8.881e-6
-0.722, 8.873e-6
-0.723, 8.869e-6
-0.724, 8.861e-6
-0.725, 8.849e-6
-0.726, 8.845e-6
-0.727, 8.836e-6
-0.728, 8.828e-6
-0.729, 8.820e-6
-0.730, 8.812e-6
-0.731, 8.803e-6
-0.732, 8.793e-6
-0.733, 8.785e-6
-0.734, 8.772e-6
-0.735, 8.768e-6
-0.736, 8.758e-6
-0.737, 8.748e-6
-0.738, 8.740e-6
-0.739, 8.731e-6
-0.740, 8.730e-6
-0.741, 8.709e-6
-0.742, 8.700e-6
-0.743, 8.693e-6
-0.744, 8.682e-6
-0.745, 8.672e-6
-0.746, 8.661e-6
-0.747, 8.655e-6
-0.748, 8.644e-6
-0.749, 8.632e-6
-0.750, 8.624e-6
-0.751, 8.616e-6
-0.752, 8.606e-6
-0.753, 8.598e-6
-0.754, 8.595e-6
-0.755, 8.581e-6
-0.756, 8.567e-6
-0.757, 8.558e-6
-0.758, 8.548e-6
-0.759, 8.537e-6
-0.760, 8.527e-6
-0.761, 8.516e-6
-0.762, 8.506e-6
-0.763, 8.499e-6
-0.764, 8.489e-6
-0.765, 8.478e-6
-0.766, 8.468e-6
-0.767, 8.458e-6
-0.768, 8.449e-6
-0.769, 8.439e-6
-0.770, 8.428e-6
-0.771, 8.418e-6
-0.772, 8.411e-6
-0.773, 8.398e-6
-0.774, 8.390e-6
-0.775, 8.381e-6
-0.776, 8.370e-6
-0.777, 8.361e-6
-0.778, 8.351e-6
-0.779, 8.346e-6
-0.780, 8.330e-6
-0.781, 8.322e-6
-0.782, 8.312e-6
-0.783, 8.302e-6
-0.784, 8.293e-6
-0.785, 8.285e-6
-0.786, 8.274e-6
-0.787, 8.264e-6
-0.788, 8.254e-6
-0.789, 8.243e-6
-0.790, 8.238e-6
-0.791, 8.225e-6
-0.792, 8.215e-6
-0.793, 8.206e-6
-0.794, 8.197e-6
-0.795, 8.189e-6
-0.796, 8.178e-6
-0.797, 8.167e-6
-0.798, 8.159e-6
-0.799, 8.147e-6
-0.800, 8.139e-6
-0.801, 8.130e-6
-0.802, 8.121e-6
-0.803, 8.113e-6
-0.804, 8.104e-6
-0.805, 8.093e-6
-0.806, 8.084e-6
-0.807, 8.084e-6
-0.808, 8.072e-6
-0.809, 8.059e-6
-0.810, 8.050e-6
-0.811, 8.042e-6
-0.812, 8.033e-6
-0.813, 8.022e-6
-0.814, 8.015e-6
-0.815, 8.007e-6
-0.816, 7.997e-6
-0.817, 7.989e-6
-0.818, 7.981e-6
-0.819, 7.977e-6
-0.820, 7.969e-6
-0.821, 7.960e-6
-0.822, 7.951e-6
-0.823, 7.940e-6
-0.824, 7.934e-6
-0.825, 7.926e-6
-0.826, 7.915e-6
-0.827, 7.907e-6
-0.828, 7.899e-6
-0.829, 7.890e-6
-0.830, 7.883e-6
-0.831, 7.874e-6
-0.832, 7.867e-6
-0.833, 7.861e-6
-0.834, 7.853e-6
-0.835, 7.845e-6
-0.836, 7.835e-6
-0.837, 7.828e-6
-0.838, 7.822e-6
-0.839, 7.813e-6
-0.840, 7.808e-6
-0.841, 7.800e-6
-0.842, 7.791e-6
-0.843, 7.785e-6
-0.844, 7.777e-6
-0.845, 7.772e-6
-0.846, 7.763e-6
-0.847, 7.757e-6
-0.848, 7.749e-6
-0.849, 7.743e-6
-0.850, 7.736e-6
-0.851, 7.728e-6
-0.852, 7.723e-6
-0.853, 7.715e-6
-0.854, 7.711e-6
-0.855, 7.702e-6
-0.856, 7.693e-6
-0.857, 7.688e-6
-0.858, 7.684e-6
-0.859, 7.677e-6
-0.860, 7.671e-6
-0.861, 7.664e-6
-0.862, 7.661e-6
-0.863, 7.654e-6
-0.864, 7.647e-6
-0.865, 7.643e-6
-0.866, 7.635e-6
-0.867, 7.627e-6
-0.868, 7.622e-6
-0.869, 7.617e-6
-0.870, 7.610e-6
-0.871, 7.610e-6
-0.872, 7.604e-6
-0.873, 7.596e-6
-0.874, 7.591e-6
-0.875, 7.589e-6
-0.876, 7.579e-6
-0.877, 7.574e-6
-0.878, 7.569e-6
-0.879, 7.565e-6
-0.880, 7.560e-6
-0.881, 7.557e-6
-0.882, 7.552e-6
-0.883, 7.549e-6
-0.884, 7.542e-6
-0.885, 7.540e-6
-0.886, 7.532e-6
-0.887, 7.530e-6
-0.888, 7.526e-6
-0.889, 7.523e-6
-0.890, 7.520e-6
-0.891, 7.518e-6
-0.892, 7.515e-6
-0.893, 7.510e-6
-0.894, 7.507e-6
-0.895, 7.508e-6
-0.896, 7.502e-6
-0.897, 7.501e-6
-0.898, 7.495e-6
-0.899, 7.492e-6
-0.900, 7.490e-6
-0.901, 7.489e-6
-0.902, 7.487e-6
-0.903, 7.483e-6
-0.904, 7.482e-6
-0.905, 7.480e-6
-0.906, 7.477e-6
-0.907, 7.479e-6
-0.908, 7.474e-6
-0.909, 7.474e-6
-0.910, 7.475e-6
-0.911, 7.472e-6
-0.912, 7.472e-6
-0.913, 7.470e-6
-0.914, 7.470e-6
-0.915, 7.470e-6
-0.916, 7.470e-6
-0.917, 7.476e-6
-0.918, 7.473e-6
-0.919, 7.471e-6
-0.920, 7.473e-6
-0.921, 7.472e-6
-0.922, 7.476e-6
-0.923, 7.479e-6
-0.924, 7.481e-6
-0.925, 7.483e-6
-0.926, 7.484e-6
-0.927, 7.485e-6
-0.928, 7.488e-6
-0.929, 7.493e-6
-0.930, 7.496e-6
-0.931, 7.498e-6
-0.932, 7.503e-6
-0.933, 7.508e-6
-0.934, 7.512e-6
-0.935, 7.517e-6
-0.936, 7.525e-6
-0.937, 7.529e-6
-0.938, 7.531e-6
-0.939, 7.538e-6
-0.940, 7.544e-6
-0.941, 7.550e-6
-0.942, 7.567e-6
-0.943, 7.562e-6
-0.944, 7.569e-6
-0.945, 7.576e-6
-0.946, 7.582e-6
-0.947, 7.592e-6
-0.948, 7.598e-6
-0.949, 7.607e-6
-0.950, 7.614e-6
-0.951, 7.623e-6
-0.952, 7.631e-6
-0.953, 7.641e-6
-0.954, 7.650e-6
-0.955, 7.659e-6
-0.956, 7.667e-6
-0.957, 7.676e-6
-0.958, 7.686e-6
-0.959, 7.697e-6
-0.960, 7.710e-6
-0.961, 7.717e-6
-0.962, 7.729e-6
-0.963, 7.743e-6
-0.964, 7.751e-6
-0.965, 7.766e-6
-0.966, 7.773e-6
-0.967, 7.785e-6
-0.968, 7.797e-6
-0.969, 7.811e-6
-0.970, 7.821e-6
-0.971, 7.834e-6
-0.972, 7.847e-6
-0.973, 7.864e-6
-0.974, 7.875e-6
-0.975, 7.890e-6
-0.976, 7.903e-6
-0.977, 7.919e-6
-0.978, 7.933e-6
-0.979, 7.949e-6
-0.980, 7.962e-6
-0.981, 7.981e-6
-0.982, 7.993e-6
-0.983, 8.009e-6
-0.984, 8.024e-6
-0.985, 8.040e-6
-0.986, 8.055e-6
-0.987, 8.072e-6
-0.988, 8.087e-6
-0.989, 8.104e-6
-0.990, 8.122e-6
-0.991, 8.135e-6
-0.992, 8.154e-6
-0.993, 8.172e-6
-0.994, 8.189e-6
-0.995, 8.210e-6
-0.996, 8.227e-6
-0.997, 8.247e-6
-0.998, 8.265e-6
-0.999, 8.282e-6
-1.000, 8.302e-6
-1.001, 8.323e-6
-1.002, 8.340e-6
-1.003, 8.359e-6
-1.004, 8.379e-6
-1.005, 8.400e-6
-1.006, 8.416e-6
-1.007, 8.437e-6
-1.008, 8.457e-6
-1.009, 8.478e-6
-1.010, 8.500e-6
-1.011, 8.521e-6
-1.012, 8.539e-6
-1.013, 8.562e-6
-1.014, 8.581e-6
-1.015, 8.602e-6
-1.016, 8.620e-6
-1.017, 8.643e-6
-1.018, 8.663e-6
-1.019, 8.684e-6
-1.020, 8.716e-6
-1.021, 8.730e-6
-1.022, 8.749e-6
-1.023, 8.777e-6
-1.024, 8.799e-6
-1.025, 8.823e-6
-1.026, 8.842e-6
-1.027, 8.865e-6
-1.028, 8.884e-6
-1.029, 8.907e-6
-1.030, 8.930e-6
-1.031, 8.953e-6
-1.032, 8.977e-6
-1.033, 8.998e-6
-1.034, 9.022e-6
-1.035, 9.048e-6
-1.036, 9.070e-6
-1.037, 9.094e-6
-1.038, 9.120e-6
-1.039, 9.144e-6
-1.040, 9.165e-6
-1.041, 9.197e-6
-1.042, 9.217e-6
-1.043, 9.238e-6
-1.044, 9.264e-6
-1.045, 9.287e-6
-1.046, 9.312e-6
-1.047, 9.336e-6
-1.048, 9.360e-6
-1.049, 9.385e-6
-1.050, 9.407e-6
-1.051, 9.432e-6
-1.052, 9.456e-6
-1.053, 9.482e-6
-1.054, 9.507e-6
-1.055, 9.531e-6
-1.056, 9.556e-6
-1.057, 9.581e-6
-1.058, 9.607e-6
-1.059, 9.632e-6
-1.060, 9.658e-6
-1.061, 9.679e-6
-1.062, 9.705e-6
-1.063, 9.733e-6
-1.064, 9.758e-6
-1.065, 9.783e-6
-1.066, 9.807e-6
-1.067, 9.834e-6
-1.068, 9.861e-6
-1.069, 9.885e-6
-1.070, 9.909e-6
-1.071, 9.937e-6
-1.072, 9.961e-6
-1.073, 9.988e-6
-1.074, 1.001e-5
-1.075, 1.004e-5
-1.076, 1.007e-5
-1.077, 1.009e-5
-1.078, 1.012e-5
-1.079, 1.014e-5
-1.080, 1.017e-5
-1.081, 1.019e-5
-1.082, 1.021e-5
-1.083, 1.024e-5
-1.084, 1.026e-5
-1.085, 1.029e-5
-1.086, 1.032e-5
-1.087, 1.034e-5
-1.088, 1.036e-5
-1.089, 1.039e-5
-1.090, 1.041e-5
-1.091, 1.044e-5
-1.092, 1.047e-5
-1.093, 1.049e-5
-1.094, 1.052e-5
-1.095, 1.054e-5
-1.096, 1.057e-5
-1.097, 1.059e-5
-1.098, 1.062e-5
-1.099, 1.064e-5
-1.100, 1.068e-5
-1.101, 1.072e-5
-1.102, 1.075e-5
-1.103, 1.077e-5
-1.104, 1.080e-5
-1.105, 1.082e-5
-1.106, 1.084e-5
-1.107, 1.086e-5
-1.108, 1.088e-5
-1.109, 1.089e-5
-1.110, 1.092e-5
-1.111, 1.094e-5
-1.112, 1.097e-5
-1.113, 1.099e-5
-1.114, 1.101e-5
-1.115, 1.104e-5
-1.116, 1.106e-5
-1.117, 1.108e-5
-1.118, 1.111e-5
-1.119, 1.113e-5
-1.120, 1.116e-5
-1.121, 1.118e-5
-1.122, 1.120e-5
-1.123, 1.123e-5
-1.124, 1.125e-5
-1.125, 1.127e-5
-1.126, 1.129e-5
-1.127, 1.132e-5
-1.128, 1.134e-5
-1.129, 1.137e-5
-1.130, 1.139e-5
-1.131, 1.141e-5
-1.132, 1.143e-5
-1.133, 1.146e-5
-1.134, 1.148e-5
-1.135, 1.150e-5
-1.136, 1.152e-5
-1.137, 1.155e-5
-1.138, 1.157e-5
-1.139, 1.159e-5
-1.140, 1.161e-5
-1.141, 1.163e-5
-1.142, 1.166e-5
-1.143, 1.168e-5
-1.144, 1.170e-5
-1.145, 1.173e-5
-1.146, 1.175e-5
-1.147, 1.177e-5
-1.148, 1.179e-5
-1.149, 1.181e-5
-1.150, 1.184e-5
-1.151, 1.186e-5
-1.152, 1.188e-5
-1.153, 1.190e-5
-1.154, 1.192e-5
-1.155, 1.194e-5
-1.156, 1.196e-5
-1.157, 1.198e-5
-1.158, 1.200e-5
-1.159, 1.202e-5
-1.160, 1.204e-5
-1.161, 1.205e-5
-1.162, 1.207e-5
-1.163, 1.209e-5
-1.164, 1.211e-5
-1.165, 1.213e-5
-1.166, 1.216e-5
-1.167, 1.217e-5
-1.168, 1.219e-5
-1.169, 1.221e-5
-1.170, 1.222e-5
-1.171, 1.225e-5
-1.172, 1.227e-5
-1.173, 1.229e-5
-1.174, 1.231e-5
-1.175, 1.233e-5
-1.176, 1.235e-5
-1.177, 1.237e-5
-1.178, 1.239e-5
-1.179, 1.241e-5
-1.180, 1.243e-5
-1.181, 1.245e-5
-1.182, 1.248e-5
-1.183, 1.249e-5
-1.184, 1.251e-5
-1.185, 1.253e-5
-1.186, 1.254e-5
-1.187, 1.256e-5
-1.188, 1.258e-5
-1.189, 1.260e-5
-1.190, 1.262e-5
-1.191, 1.264e-5
-1.192, 1.266e-5
-1.193, 1.268e-5
-1.194, 1.269e-5
-1.195, 1.271e-5
-1.196, 1.273e-5
-1.197, 1.275e-5
-1.198, 1.276e-5
-1.199, 1.278e-5
-1.200, 1.280e-5
-1.201, 1.282e-5
-1.202, 1.284e-5
-1.203, 1.285e-5
-1.204, 1.287e-5
-1.205, 1.289e-5
-1.206, 1.291e-5
-1.207, 1.293e-5
-1.208, 1.294e-5
-1.209, 1.297e-5
-1.210, 1.299e-5
-1.211, 1.300e-5
-1.212, 1.302e-5
-1.213, 1.304e-5
-1.214, 1.306e-5
-1.215, 1.308e-5
-1.216, 1.310e-5
-1.217, 1.311e-5
-1.218, 1.313e-5
-1.219, 1.315e-5
-1.220, 1.317e-5
-1.221, 1.319e-5
-1.222, 1.321e-5
-1.223, 1.323e-5
-1.224, 1.325e-5
-1.225, 1.327e-5
-1.226, 1.329e-5
-1.227, 1.332e-5
-1.228, 1.334e-5
-1.229, 1.336e-5
-1.230, 1.338e-5
-1.231, 1.340e-5
-1.232, 1.343e-5
-1.233, 1.345e-5
-1.234, 1.347e-5
-1.235, 1.349e-5
-1.236, 1.351e-5
-1.237, 1.353e-5
-1.238, 1.356e-5
-1.239, 1.358e-5
-1.240, 1.361e-5
-1.241, 1.363e-5
-1.242, 1.365e-5
-1.243, 1.368e-5
-1.244, 1.371e-5
-1.245, 1.373e-5
-1.246, 1.375e-5
-1.247, 1.378e-5
-1.248, 1.380e-5
-1.249, 1.383e-5
-1.250, 1.386e-5
-1.251, 1.389e-5
-1.252, 1.391e-5
-1.253, 1.394e-5
-1.254, 1.396e-5
-1.255, 1.399e-5
-1.256, 1.402e-5
-1.257, 1.404e-5
-1.258, 1.407e-5
-1.259, 1.410e-5
-1.260, 1.412e-5
-1.261, 1.415e-5
-1.262, 1.419e-5
-1.263, 1.421e-5
-1.264, 1.424e-5
-1.265, 1.427e-5
-1.266, 1.430e-5
-1.267, 1.433e-5
-1.268, 1.437e-5
-1.269, 1.440e-5
-1.270, 1.443e-5
-1.271, 1.446e-5
-1.272, 1.450e-5
-1.273, 1.453e-5
-1.274, 1.457e-5
-1.275, 1.460e-5
-1.276, 1.464e-5
-1.277, 1.467e-5
-1.278, 1.471e-5
-1.279, 1.474e-5
-1.280, 1.478e-5
-1.281, 1.482e-5
-1.282, 1.484e-5
-1.283, 1.487e-5
-1.284, 1.492e-5
-1.285, 1.496e-5
-1.286, 1.501e-5
-1.287, 1.505e-5
-1.288, 1.509e-5
-1.289, 1.514e-5
-1.290, 1.519e-5
-1.291, 1.523e-5
-1.292, 1.527e-5
-1.293, 1.532e-5
-1.294, 1.536e-5
-1.295, 1.541e-5
-1.296, 1.545e-5
-1.297, 1.550e-5
-1.298, 1.555e-5
-1.299, 1.560e-5
-1.300, 1.565e-5
-1.301, 1.570e-5
-1.302, 1.575e-5
-1.303, 1.580e-5
-1.304, 1.586e-5
-1.305, 1.591e-5
-1.306, 1.596e-5
-1.307, 1.600e-5
-1.308, 1.605e-5
-1.309, 1.611e-5
-1.310, 1.618e-5
-1.311, 1.624e-5
-1.312, 1.630e-5
-1.313, 1.636e-5
-1.314, 1.643e-5
-1.315, 1.649e-5
-1.316, 1.655e-5
-1.317, 1.662e-5
-1.318, 1.668e-5
-1.319, 1.675e-5
-1.320, 1.682e-5
-1.321, 1.689e-5
-1.322, 1.695e-5
-1.323, 1.702e-5
-1.324, 1.709e-5
-1.325, 1.717e-5
-1.326, 1.725e-5
-1.327, 1.732e-5
-1.328, 1.740e-5
-1.329, 1.747e-5
-1.330, 1.755e-5
-1.331, 1.764e-5
-1.332, 1.772e-5
-1.333, 1.780e-5
-1.334, 1.788e-5
-1.335, 1.797e-5
-1.336, 1.805e-5
-1.337, 1.814e-5
-1.338, 1.823e-5
-1.339, 1.832e-5
-1.340, 1.842e-5
-1.341, 1.851e-5
-1.342, 1.861e-5
-1.343, 1.871e-5
-1.344, 1.881e-5
-1.345, 1.891e-5
-1.346, 1.902e-5
-1.347, 1.913e-5
-1.348, 1.923e-5
-1.349, 1.934e-5
-1.350, 1.945e-5
-1.351, 1.956e-5
-1.352, 1.968e-5
-1.353, 1.980e-5
-1.354, 1.992e-5
-1.355, 2.004e-5
-1.356, 2.016e-5
-1.357, 2.029e-5
-1.358, 2.042e-5
-1.359, 2.054e-5
-1.360, 2.068e-5
-1.361, 2.081e-5
-1.362, 2.094e-5
-1.363, 2.109e-5
-1.364, 2.123e-5
-1.365, 2.137e-5
-1.366, 2.152e-5
-1.367, 2.166e-5
-1.368, 2.181e-5
-1.369, 2.197e-5
-1.370, 2.212e-5
-1.371, 2.228e-5
-1.372, 2.244e-5
-1.373, 2.260e-5
-1.374, 2.278e-5
-1.375, 2.294e-5
-1.376, 2.311e-5
-1.377, 2.328e-5
-1.378, 2.346e-5
-1.379, 2.364e-5
-1.380, 2.382e-5
-1.381, 2.401e-5
-1.382, 2.421e-5
-1.383, 2.440e-5
-1.384, 2.459e-5
-1.385, 2.478e-5
-1.386, 2.498e-5
-1.387, 2.519e-5
-1.388, 2.540e-5
-1.389, 2.561e-5
-1.390, 2.582e-5
-1.391, 2.604e-5
-1.392, 2.626e-5
-1.393, 2.648e-5
-1.394, 2.671e-5
-1.395, 2.694e-5
-1.396, 2.718e-5
-1.397, 2.742e-5
-1.398, 2.766e-5
-1.399, 2.789e-5
-1.400, 2.814e-5
-1.401, 2.839e-5
-1.402, 2.865e-5
-1.403, 2.891e-5
-1.404, 2.918e-5
-1.405, 2.944e-5
-1.406, 2.971e-5
-1.407, 2.999e-5
-1.408, 3.027e-5
-1.409, 3.056e-5
-1.410, 3.084e-5
-1.411, 3.113e-5
-1.412, 3.143e-5
-1.413, 3.174e-5
-1.414, 3.205e-5
-1.415, 3.237e-5
-1.416, 3.269e-5
-1.417, 3.301e-5
-1.418, 3.333e-5
-1.419, 3.364e-5
-1.420, 3.396e-5
-1.421, 3.430e-5
-1.422, 3.464e-5
-1.423, 3.499e-5
-1.424, 3.536e-5
-1.425, 3.572e-5
-1.426, 3.608e-5
-1.427, 3.645e-5
-1.428, 3.683e-5
-1.429, 3.722e-5
-1.430, 3.760e-5
-1.431, 3.798e-5
-1.432, 3.838e-5
-1.433, 3.879e-5
-1.434, 3.927e-5
-1.435, 3.969e-5
-1.436, 4.007e-5
-1.437, 4.047e-5
-1.438, 4.089e-5
-1.439, 4.131e-5
-1.440, 4.174e-5
-1.441, 4.219e-5
-1.442, 4.264e-5
-1.443, 4.310e-5
-1.444, 4.356e-5
-1.445, 4.401e-5
-1.446, 4.447e-5
-1.447, 4.496e-5
-1.448, 4.545e-5
-1.449, 4.593e-5
-1.450, 4.642e-5
-1.451, 4.693e-5
-1.452, 4.745e-5
-1.453, 4.796e-5
-1.454, 4.848e-5
-1.455, 4.901e-5
-1.456, 4.955e-5
-1.457, 5.010e-5
-1.458, 5.066e-5
-1.459, 5.122e-5
-1.460, 5.178e-5
-1.461, 5.236e-5
-1.462, 5.294e-5
-1.463, 5.352e-5
-1.464, 5.411e-5
-1.465, 5.471e-5
-1.466, 5.532e-5
-1.467, 5.594e-5
-1.468, 5.656e-5
-1.469, 5.718e-5
-1.470, 5.782e-5
-1.471, 5.845e-5
-1.472, 5.910e-5
-1.473, 5.975e-5
-1.474, 6.041e-5
-1.475, 6.109e-5
-1.476, 6.176e-5
-1.477, 6.245e-5
-1.478, 6.315e-5
-1.479, 6.386e-5
-1.480, 6.458e-5
-1.481, 6.530e-5
-1.482, 6.602e-5
-1.483, 6.678e-5
-1.484, 6.752e-5
-1.485, 6.827e-5
-1.486, 6.904e-5
-1.487, 6.978e-5
-1.488, 7.055e-5
-1.489, 7.133e-5
-1.490, 7.212e-5
-1.491, 7.293e-5
-1.492, 7.373e-5
-1.493, 7.455e-5
-1.494, 7.536e-5
-1.495, 7.620e-5
-1.496, 7.707e-5
-1.497, 7.791e-5
-1.498, 7.878e-5
-1.499, 7.966e-5
-1.500, 8.053e-5
-1.501, 8.142e-5
-1.502, 8.231e-5
-1.503, 8.321e-5
-1.504, 8.413e-5
-1.505, 8.506e-5
-1.506, 8.599e-5
-1.507, 8.694e-5
-1.508, 8.789e-5
-1.509, 8.884e-5
-1.510, 8.980e-5
-1.511, 9.079e-5
-1.512, 9.174e-5
-1.513, 9.272e-5
-1.514, 9.372e-5
-1.515, 9.474e-5
-1.516, 9.577e-5
-1.517, 9.679e-5
-1.518, 9.782e-5
-1.519, 9.887e-5
-1.520, 9.991e-5
-1.521, 1.010e-4
-1.522, 1.020e-4
-1.523, 1.031e-4
-1.524, 1.042e-4
-1.525, 1.053e-4
-1.526, 1.064e-4
-1.527, 1.075e-4
-1.528, 1.087e-4
-1.529, 1.098e-4
-1.530, 1.109e-4
-1.531, 1.121e-4
-1.532, 1.133e-4
-1.533, 1.144e-4
-1.534, 1.156e-4
-1.535, 1.168e-4
-1.536, 1.180e-4
-1.537, 1.192e-4
-1.538, 1.204e-4
-1.539, 1.216e-4
-1.540, 1.228e-4
-1.541, 1.240e-4
-1.542, 1.253e-4
-1.543, 1.265e-4
-1.544, 1.278e-4
-1.545, 1.290e-4
-1.546, 1.303e-4
-1.547, 1.316e-4
-1.548, 1.328e-4
-1.549, 1.341e-4
-1.550, 1.354e-4
-1.551, 1.367e-4
-1.552, 1.380e-4
-1.553, 1.394e-4
-1.554, 1.407e-4
-1.555, 1.420e-4
-1.556, 1.434e-4
-1.557, 1.447e-4
-1.558, 1.461e-4
-1.559, 1.474e-4
-1.560, 1.488e-4
-1.561, 1.502e-4
-1.562, 1.516e-4
-1.563, 1.530e-4
-1.564, 1.543e-4
-1.565, 1.557e-4
-1.566, 1.571e-4
-1.567, 1.585e-4
-1.568, 1.599e-4
-1.569, 1.613e-4
-1.570, 1.628e-4
-1.571, 1.642e-4
-1.572, 1.656e-4
-1.573, 1.671e-4
-1.574, 1.685e-4
-1.575, 1.699e-4
-1.576, 1.715e-4
-1.577, 1.728e-4
-1.578, 1.742e-4
-1.579, 1.757e-4
-1.580, 1.771e-4
-1.581, 1.785e-4
-1.582, 1.800e-4
-1.583, 1.815e-4
-1.584, 1.829e-4
-1.585, 1.844e-4
-1.586, 1.859e-4
-1.587, 1.874e-4
-1.588, 1.889e-4
-1.589, 1.903e-4
-1.590, 1.918e-4
-1.591, 1.933e-4
-1.592, 1.948e-4
-1.593, 1.963e-4
-1.594, 1.978e-4
-1.595, 1.993e-4
-1.596, 2.008e-4
-1.597, 2.023e-4
-1.598, 2.038e-4
-1.599, 2.053e-4
-1.600, 2.068e-4
-1.601, 2.083e-4
-1.602, 2.098e-4
-1.603, 2.114e-4
-1.604, 2.128e-4
-1.605, 2.144e-4
-1.606, 2.159e-4
-1.607, 2.174e-4
-1.608, 2.189e-4
-1.609, 2.205e-4
-1.610, 2.221e-4
-1.611, 2.237e-4
-1.612, 2.253e-4
-1.613, 2.269e-4
-1.614, 2.285e-4
-1.615, 2.301e-4
-1.616, 2.318e-4
-1.617, 2.334e-4
-1.618, 2.351e-4
-1.619, 2.369e-4
-1.620, 2.386e-4
-1.621, 2.404e-4
-1.622, 2.421e-4
-1.623, 2.439e-4
-1.624, 2.458e-4
-1.625, 2.476e-4
-1.626, 2.496e-4
-1.627, 2.516e-4
-1.628, 2.536e-4
-1.629, 2.557e-4
-1.630, 2.578e-4
-1.631, 2.599e-4
-1.632, 2.622e-4
-1.633, 2.644e-4
-1.634, 2.667e-4
-1.635, 2.691e-4
-1.636, 2.715e-4
-1.637, 2.739e-4
-1.638, 2.765e-4
-1.639, 2.792e-4
-1.640, 2.819e-4
-1.641, 2.846e-4
-1.642, 2.875e-4
-1.643, 2.904e-4
-1.644, 2.934e-4
-1.645, 2.965e-4
-1.646, 2.997e-4
-1.647, 3.030e-4
-1.648, 3.064e-4
-1.649, 3.100e-4
-1.650, 3.136e-4
-1.651, 3.174e-4
-1.652, 3.213e-4
-1.653, 3.254e-4
-1.654, 3.294e-4
-1.655, 3.337e-4
-1.656, 3.380e-4
-1.657, 3.425e-4
-1.658, 3.470e-4
-1.659, 3.516e-4
-1.660, 3.562e-4
-1.661, 3.609e-4
-1.662, 3.656e-4
-1.663, 3.704e-4
-1.664, 3.752e-4
-1.665, 3.800e-4
-1.666, 3.848e-4
-1.667, 3.897e-4
-1.668, 3.946e-4
-1.669, 3.995e-4
-1.670, 4.045e-4
-1.671, 4.094e-4
-1.672, 4.144e-4
-1.673, 4.194e-4
-1.674, 4.244e-4
-1.675, 4.294e-4
-1.676, 4.343e-4
-1.677, 4.393e-4
-1.678, 4.443e-4
-1.679, 4.493e-4
-1.680, 4.545e-4
-1.681, 4.596e-4
-1.682, 4.647e-4
-1.683, 4.698e-4
-1.684, 4.750e-4
-1.685, 4.802e-4
-1.686, 4.854e-4
-1.687, 4.907e-4
-1.688, 4.961e-4
-1.689, 5.015e-4
-1.690, 5.069e-4
-1.691, 5.125e-4
-1.692, 5.181e-4
-1.693, 5.236e-4
-1.694, 5.291e-4
-1.695, 5.343e-4
-1.696, 5.396e-4
-1.697, 5.451e-4
-1.698, 5.506e-4
-1.699, 5.562e-4
-1.700, 5.619e-4
-1.701, 5.675e-4
-1.702, 5.731e-4
-1.703, 5.788e-4
-1.704, 5.845e-4
-1.705, 5.903e-4
-1.706, 5.961e-4
-1.707, 6.018e-4
-1.708, 6.075e-4
-1.709, 6.134e-4
-1.710, 6.192e-4
-1.711, 6.250e-4
-1.712, 6.309e-4
-1.713, 6.369e-4
-1.714, 6.429e-4
-1.715, 6.488e-4
-1.716, 6.549e-4
-1.717, 6.609e-4
-1.718, 6.670e-4
-1.719, 6.731e-4
-1.720, 6.792e-4
-1.721, 6.852e-4
-1.722, 6.913e-4
-1.723, 6.975e-4
-1.724, 7.036e-4
-1.725, 7.098e-4
-1.726, 7.160e-4
-1.727, 7.222e-4
-1.728, 7.284e-4
-1.729, 7.347e-4
-1.730, 7.410e-4
-1.731, 7.473e-4
-1.732, 7.536e-4
-1.733, 7.600e-4
-1.734, 7.663e-4
-1.735, 7.727e-4
-1.736, 7.791e-4
-1.737, 7.855e-4
-1.738, 7.920e-4
-1.739, 7.984e-4
-1.740, 8.049e-4
-1.741, 8.114e-4
-1.742, 8.179e-4
-1.743, 8.244e-4
-1.744, 8.309e-4
-1.745, 8.371e-4
-1.746, 8.436e-4
-1.747, 8.502e-4
-1.748, 8.568e-4
-1.749, 8.635e-4
-1.750, 8.701e-4
-1.751, 8.768e-4
-1.752, 8.835e-4
-1.753, 8.902e-4
-1.754, 8.968e-4
-1.755, 9.036e-4
-1.756, 9.103e-4
-1.757, 9.170e-4
-1.758, 9.238e-4
-1.759, 9.304e-4
-1.760, 9.371e-4
-1.761, 9.438e-4
-1.762, 9.506e-4
-1.763, 9.573e-4
-1.764, 9.641e-4
-1.765, 9.709e-4
-1.766, 9.778e-4
-1.767, 9.846e-4
-1.768, 9.914e-4
-1.769, 9.983e-4
-1.770, 1.005e-3
-1.771, 1.010e-3
-1.772, 1.011e-3
-1.773, 1.011e-3
-1.774, 1.011e-3
-1.775, 1.011e-3
-1.776, 1.011e-3
-1.777, 1.011e-3
-1.778, 1.011e-3
-1.779, 1.011e-3
-1.780, 1.011e-3
-1.781, 1.011e-3
-1.782, 1.011e-3
-1.783, 1.011e-3
-1.784, 1.011e-3
-1.785, 1.011e-3
-1.786, 1.011e-3
-1.787, 1.011e-3
-1.788, 1.011e-3
-1.789, 1.011e-3
-1.790, 1.011e-3
-1.791, 1.011e-3
-1.792, 1.011e-3
-1.793, 1.011e-3
-1.794, 1.011e-3
-1.795, 1.011e-3
-1.796, 1.011e-3
-1.797, 1.011e-3
-1.798, 1.011e-3
-1.799, 1.011e-3
-1.800, 1.011e-3
-1.801, 1.011e-3
-1.802, 1.011e-3
-1.803, 1.011e-3
-1.804, 1.011e-3
-1.805, 1.011e-3
-1.806, 1.011e-3
-1.807, 1.011e-3
-1.808, 1.011e-3
-1.809, 1.011e-3
-1.810, 1.011e-3
-1.811, 1.011e-3
-1.812, 1.011e-3
-1.813, 1.011e-3
-1.814, 1.011e-3
-1.815, 1.011e-3
-1.816, 1.011e-3
-1.817, 1.011e-3
-1.818, 1.011e-3
-1.819, 1.011e-3
-1.820, 1.011e-3
-1.821, 1.011e-3
-1.822, 1.011e-3
-1.823, 1.011e-3
-1.824, 1.011e-3
-1.825, 1.011e-3
-1.826, 1.011e-3
-1.827, 1.011e-3
-1.828, 1.011e-3
-1.829, 1.011e-3
-1.830, 1.011e-3
-1.831, 1.011e-3
-1.832, 1.011e-3
-1.833, 1.011e-3
-1.834, 1.011e-3
-1.835, 1.011e-3
-1.836, 1.011e-3
-1.837, 1.011e-3
-1.838, 1.011e-3
-1.839, 1.011e-3
-1.840, 1.011e-3
-1.841, 1.011e-3
-1.842, 1.011e-3
-1.843, 1.011e-3
-1.844, 1.011e-3
-1.845, 1.011e-3
-1.846, 1.011e-3
-1.847, 1.011e-3
-1.848, 1.011e-3
-1.849, 1.011e-3
-1.850, 1.011e-3
-1.851, 1.011e-3
-1.852, 1.011e-3
-1.853, 1.011e-3
-1.854, 1.011e-3
-1.855, 1.011e-3
-1.856, 1.011e-3
-1.857, 1.011e-3
-1.858, 1.011e-3
-1.859, 1.011e-3
-1.860, 1.011e-3
-1.861, 1.011e-3
-1.862, 1.011e-3
-1.863, 1.011e-3
-1.864, 1.011e-3
-1.865, 1.011e-3
-1.866, 1.011e-3
-1.867, 1.011e-3
-1.868, 1.011e-3
-1.869, 1.011e-3
-1.870, 1.011e-3
-1.871, 1.011e-3
-1.872, 1.011e-3
-1.873, 1.011e-3
-1.874, 1.011e-3
-1.875, 1.011e-3
-1.876, 1.011e-3
-1.877, 1.011e-3
-1.878, 1.011e-3
-1.879, 1.011e-3
-1.880, 1.011e-3
-1.881, 1.011e-3
-1.882, 1.011e-3
-1.883, 1.011e-3
-1.884, 1.011e-3
-1.885, 1.011e-3
-1.886, 1.011e-3
-1.887, 1.011e-3
-1.888, 1.011e-3
-1.889, 1.011e-3
-1.890, 1.011e-3
-1.891, 1.011e-3
-1.892, 1.011e-3
-1.893, 1.011e-3
-1.894, 1.011e-3
-1.895, 1.011e-3
-1.896, 1.011e-3
-1.897, 1.011e-3
-1.898, 1.011e-3
-1.899, 1.011e-3
-1.900, 1.011e-3
-1.901, 1.011e-3
-1.902, 1.011e-3
-1.903, 1.011e-3
-1.904, 1.011e-3
-1.905, 1.011e-3
-1.906, 1.011e-3
-1.907, 1.011e-3
-1.908, 1.011e-3
-1.909, 1.011e-3
-1.910, 1.011e-3
-1.911, 1.011e-3
-1.912, 1.011e-3
-1.913, 1.011e-3
-1.914, 1.011e-3
-1.915, 1.011e-3
-1.916, 1.011e-3
-1.917, 1.011e-3
-1.918, 1.011e-3
-1.919, 1.011e-3
-1.920, 1.011e-3
-1.921, 1.011e-3
-1.922, 1.011e-3
-1.923, 1.011e-3
-1.924, 1.011e-3
-1.925, 1.011e-3
-1.926, 1.011e-3
-1.927, 1.011e-3
-1.928, 1.011e-3
-1.929, 1.011e-3
-1.930, 1.011e-3
-1.931, 1.011e-3
-1.932, 1.011e-3
-1.933, 1.011e-3
-1.934, 1.011e-3
-1.935, 1.011e-3
-1.936, 1.011e-3
-1.937, 1.011e-3
-1.938, 1.011e-3
-1.939, 1.011e-3
-1.940, 1.011e-3
-1.941, 1.011e-3
-1.942, 1.011e-3
-1.943, 1.011e-3
-1.944, 1.011e-3
-1.945, 1.011e-3
-1.946, 1.011e-3
-1.947, 1.011e-3
-1.948, 1.011e-3
-1.949, 1.011e-3
-1.950, 1.011e-3
-1.951, 1.011e-3
-1.952, 1.011e-3
-1.953, 1.011e-3
-1.954, 1.011e-3
-1.955, 1.011e-3
-1.956, 1.011e-3
-1.957, 1.011e-3
-1.958, 1.011e-3
-1.959, 1.011e-3
-1.960, 1.011e-3
-1.961, 1.011e-3
-1.962, 1.011e-3
-1.963, 1.011e-3
-1.964, 1.011e-3
-1.965, 1.011e-3
-1.966, 1.011e-3
-1.967, 1.011e-3
-1.968, 1.011e-3
-1.969, 1.011e-3
-1.970, 1.011e-3
-1.971, 1.011e-3
-1.972, 1.011e-3
-1.973, 1.011e-3
-1.974, 1.011e-3
-1.975, 1.011e-3
-1.976, 1.011e-3
-1.977, 1.011e-3
-1.978, 1.011e-3
-1.979, 1.011e-3
-1.980, 1.011e-3
-1.981, 1.011e-3
-1.982, 1.011e-3
-1.983, 1.011e-3
-1.984, 1.011e-3
-1.985, 1.011e-3
-1.986, 1.011e-3
-1.987, 1.011e-3
-1.988, 1.011e-3
-1.989, 1.011e-3
-1.990, 1.011e-3
-1.991, 1.011e-3
-1.992, 1.011e-3
-1.993, 1.011e-3
-1.994, 1.011e-3
-1.995, 1.011e-3
-1.996, 1.011e-3
-1.997, 1.011e-3
-1.998, 1.011e-3
-1.999, 1.011e-3
-2.000, 1.011e-3
-2.001, 1.011e-3
-2.002, 1.011e-3
-2.003, 1.011e-3
-2.004, 1.011e-3
-2.005, 1.011e-3
-2.006, 1.011e-3
-2.007, 1.011e-3
-2.008, 1.011e-3
-2.009, 1.011e-3
-2.010, 1.011e-3
-2.011, 1.011e-3
-2.012, 1.011e-3
-2.013, 1.011e-3
-2.014, 1.011e-3
-2.015, 1.011e-3
-2.016, 1.011e-3
-2.017, 1.011e-3
-2.018, 1.011e-3
-2.019, 1.011e-3
-2.020, 1.011e-3
-2.021, 1.011e-3
-2.022, 1.011e-3
-2.023, 1.011e-3
-2.024, 1.011e-3
-2.025, 1.011e-3
-2.026, 1.011e-3
-2.027, 1.011e-3
-2.028, 1.011e-3
-2.029, 1.011e-3
-2.030, 1.011e-3
-2.031, 1.011e-3
-2.032, 1.011e-3
-2.033, 1.011e-3
-2.034, 1.011e-3
-2.035, 1.011e-3
-2.036, 1.011e-3
-2.037, 1.011e-3
-2.038, 1.011e-3
-2.039, 1.011e-3
-2.040, 1.011e-3
-2.041, 1.011e-3
-2.042, 1.011e-3
-2.043, 1.011e-3
-2.044, 1.011e-3
-2.045, 1.011e-3
-2.046, 1.011e-3
-2.047, 1.011e-3
-2.048, 1.011e-3
-2.049, 1.011e-3
-2.050, 1.011e-3
-2.051, 1.011e-3
-2.052, 1.011e-3
-2.053, 1.011e-3
-2.054, 1.011e-3
-2.055, 1.011e-3
-2.056, 1.011e-3
-2.057, 1.011e-3
-2.058, 1.011e-3
-2.059, 1.011e-3
-2.060, 1.011e-3
-2.061, 1.011e-3
-2.062, 1.011e-3
-2.063, 1.011e-3
-2.064, 1.011e-3
-2.065, 1.011e-3
-2.066, 1.011e-3
-2.067, 1.011e-3
-2.068, 1.011e-3
-2.069, 1.011e-3
-2.070, 1.011e-3
-2.071, 1.011e-3
-2.072, 1.011e-3
-2.073, 1.011e-3
-2.074, 1.011e-3
-2.075, 1.011e-3
-2.076, 1.011e-3
-2.077, 1.011e-3
-2.078, 1.011e-3
-2.079, 1.011e-3
-2.080, 1.011e-3
-2.081, 1.011e-3
-2.082, 1.011e-3
-2.083, 1.011e-3
-2.084, 1.011e-3
-2.085, 1.011e-3
-2.086, 1.011e-3
-2.087, 1.011e-3
-2.088, 1.011e-3
-2.089, 1.011e-3
-2.090, 1.011e-3
-2.091, 1.011e-3
-2.092, 1.011e-3
-2.093, 1.011e-3
-2.094, 1.011e-3
-2.095, 1.011e-3
-2.096, 1.011e-3
-2.097, 1.011e-3
-2.098, 1.011e-3
-2.099, 1.011e-3
-2.100, 1.011e-3
-2.101, 1.011e-3
-2.102, 1.011e-3
-2.103, 1.011e-3
-2.104, 1.011e-3
-2.105, 1.011e-3
-2.106, 1.011e-3
-2.107, 1.011e-3
-2.108, 1.011e-3
-2.109, 1.011e-3
-2.110, 1.011e-3
-2.111, 1.011e-3
-2.112, 1.011e-3
-2.113, 1.011e-3
-2.114, 1.011e-3
-2.115, 1.011e-3
-2.116, 1.011e-3
-2.117, 1.011e-3
-2.118, 1.011e-3
-2.119, 1.011e-3
-2.120, 1.011e-3
-2.121, 1.011e-3
-2.122, 1.011e-3
-2.123, 1.011e-3
-2.124, 1.011e-3
-2.125, 1.011e-3
-2.126, 1.011e-3
-2.127, 1.011e-3
-2.128, 1.011e-3
-2.129, 1.011e-3
-2.130, 1.011e-3
-2.131, 1.011e-3
-2.132, 1.011e-3
-2.133, 1.011e-3
-2.134, 1.011e-3
-2.135, 1.011e-3
-2.136, 1.011e-3
-2.137, 1.011e-3
-2.138, 1.011e-3
-2.139, 1.011e-3
-2.140, 1.011e-3
-2.141, 1.011e-3
-2.142, 1.011e-3
-2.143, 1.011e-3
-2.144, 1.011e-3
-2.145, 1.011e-3
-2.146, 1.011e-3
-2.147, 1.011e-3
-2.148, 1.011e-3
-2.149, 1.011e-3
-2.150, 1.011e-3
-2.151, 1.011e-3
-2.152, 1.011e-3
-2.153, 1.011e-3
-2.154, 1.011e-3
-2.155, 1.011e-3
-2.156, 1.011e-3
-2.157, 1.011e-3
-2.158, 1.011e-3
-2.159, 1.011e-3
-2.160, 1.011e-3
-2.161, 1.011e-3
-2.162, 1.011e-3
-2.163, 1.011e-3
-2.164, 1.011e-3
-2.165, 1.011e-3
-2.166, 1.011e-3
-2.167, 1.011e-3
-2.168, 1.011e-3
-2.169, 1.011e-3
-2.170, 1.011e-3
-2.171, 1.011e-3
-2.172, 1.011e-3
-2.173, 1.011e-3
-2.174, 1.011e-3
-2.175, 1.011e-3
-2.176, 1.011e-3
-2.177, 1.011e-3
-2.178, 1.011e-3
-2.179, 1.011e-3
-2.180, 1.011e-3
-2.181, 1.011e-3
-2.182, 1.011e-3
-2.183, 1.011e-3
-2.184, 1.011e-3
-2.185, 1.011e-3
-2.186, 1.011e-3
-2.187, 1.011e-3
-2.188, 1.011e-3
-2.189, 1.011e-3
-2.190, 1.011e-3
-2.191, 1.011e-3
-2.192, 1.011e-3
-2.193, 1.011e-3
-2.194, 1.011e-3
-2.195, 1.011e-3
-2.196, 1.011e-3
-2.197, 1.011e-3
-2.198, 1.011e-3
-2.199, 1.011e-3
-2.200, 1.011e-3
-2.201, 1.011e-3
-2.202, 1.011e-3
-2.203, 1.011e-3
-2.204, 1.011e-3
-2.205, 1.011e-3
-2.206, 1.011e-3
-2.207, 1.011e-3
-2.208, 1.011e-3
-2.209, 1.011e-3
-2.210, 1.011e-3
-2.211, 1.011e-3
-2.212, 1.011e-3
-2.213, 1.011e-3
-2.214, 1.011e-3
-2.215, 1.011e-3
-2.216, 1.011e-3
-2.217, 1.011e-3
-2.218, 1.011e-3
-2.219, 1.011e-3
-2.220, 1.011e-3
-2.221, 1.011e-3
-2.222, 1.011e-3
-2.223, 1.011e-3
-2.224, 1.011e-3
-2.225, 1.011e-3
-2.226, 1.011e-3
-2.227, 1.011e-3
-2.228, 1.011e-3
-2.229, 1.011e-3
-2.230, 1.011e-3
-2.231, 1.011e-3
-2.232, 1.011e-3
-2.233, 1.011e-3
-2.234, 1.011e-3
-2.235, 1.011e-3
-2.236, 1.011e-3
-2.237, 1.011e-3
-2.238, 1.011e-3
-2.239, 1.011e-3
-2.240, 1.011e-3
-2.241, 1.011e-3
-2.242, 1.011e-3
-2.243, 1.011e-3
-2.244, 1.011e-3
-2.245, 1.011e-3
-2.246, 1.011e-3
-2.247, 1.011e-3
-2.248, 1.011e-3
-2.249, 1.011e-3
-2.250, 1.011e-3
-2.251, 1.011e-3
-2.252, 1.011e-3
-2.253, 1.011e-3
-2.254, 1.011e-3
-2.255, 1.011e-3
-2.256, 1.011e-3
-2.257, 1.011e-3
-2.258, 1.011e-3
-2.259, 1.011e-3
-2.260, 1.011e-3
-2.261, 1.011e-3
-2.262, 1.011e-3
-2.263, 1.011e-3
-2.264, 1.011e-3
-2.265, 1.011e-3
-2.266, 1.011e-3
-2.267, 1.011e-3
-2.268, 1.011e-3
-2.269, 1.011e-3
-2.270, 1.011e-3
-2.271, 1.011e-3
-2.272, 1.011e-3
-2.273, 1.011e-3
-2.274, 1.011e-3
-2.275, 1.011e-3
-2.276, 1.011e-3
-2.277, 1.011e-3
-2.278, 1.011e-3
-2.279, 1.011e-3
-2.280, 1.011e-3
-2.281, 1.011e-3
-2.282, 1.011e-3
-2.283, 1.011e-3
-2.284, 1.011e-3
-2.285, 1.011e-3
-2.286, 1.011e-3
-2.287, 1.011e-3
-2.288, 1.011e-3
-2.289, 1.011e-3
-2.290, 1.011e-3
-2.291, 1.011e-3
-2.292, 1.011e-3
-2.293, 1.011e-3
-2.294, 1.011e-3
-2.295, 1.011e-3
-2.296, 1.011e-3
-2.297, 1.011e-3
-2.298, 1.011e-3
-2.299, 1.011e-3
