Potential V vs RHE, Current mA cm-2
0.05339999999999995,3.1024618806040256
0.05239999999999995,2.9935291105144173
0.051399999999999946,2.8492285579281837
0.050399999999999945,2.712001561841275
0.049399999999999944,2.583262833553557
0.04839999999999994,2.461597661765164
0.04739999999999994,2.3455913351762305
0.04639999999999994,2.235243853786758
0.04539999999999994,2.127725794997015
0.04439999999999994,2.0258665814067327
0.04339999999999994,1.92683679041618
0.04239999999999994,1.8292217107254924
0.04139999999999994,1.734436053634535
0.040399999999999936,1.6424798191433077
0.039399999999999935,1.55052358465208
0.038399999999999934,1.461396772760583
0.03739999999999993,1.3745334989488698
0.03639999999999993,1.2889434653070349
0.03539999999999993,1.2043437295751058
0.03439999999999993,1.1213001762730281
0.03339999999999993,1.0399542765307885
0.03239999999999993,0.9593157324384813
0.03139999999999993,0.8795260151260933
0.030399999999999927,0.8012924802435567
0.029399999999999926,0.7239077721409393
0.028399999999999925,0.6480792464681732
0.027399999999999924,0.5728166053153534
0.026399999999999924,0.4981198486824793
0.025399999999999923,0.42441338995951106
0.024399999999999922,0.3522631136663941
0.02339999999999992,0.2808201930232098
0.02239999999999992,0.21065051254990397
0.02139999999999992,0.14045253785060083
0.020399999999999918,0.07140047930418841
0.019399999999999917,0.003515557580164616
0.018399999999999916,-0.0638176267369118
0.017399999999999916,-0.13005440979659283
0.016399999999999915,-0.19551310164134805
0.015399999999999914,-0.26030687917516676
0.014399999999999913,-0.32382741653910685
0.013399999999999912,-0.3869235405130875
0.012399999999999911,-0.44888789544717617
0.01139999999999991,-0.5102863658613187
0.01039999999999991,-0.5714018940154882
0.009399999999999908,-0.6309612397398063
0.008399999999999908,-0.6898132298141919
0.007399999999999907,-0.7479578642386449
0.006399999999999906,-0.8056780852731383
0.005399999999999905,-0.8628324217876858
0.004399999999999904,-0.9188549892623414
0.003399999999999903,-0.9734628454371318
0.002399999999999902,-1.0282121727419087
0.0013999999999999013,-1.0822541443967533
0.00039999999999990044,-1.1360131737916246
-0.0006000000000001005,-1.1889233764065767
-0.0016000000000001013,-1.2407018099816371
-0.0026000000000001022,-1.2917728879067651
-0.003600000000000103,-1.3427024947019062
-0.004600000000000104,-1.3930662169771015
-0.005600000000000105,-1.4430055258623373
-0.006600000000000106,-1.4911057100577487
-0.007600000000000107,-1.53920589425316
-0.008600000000000108,-1.585891367148706
-0.009600000000000108,-1.6339915513441174
-0.01060000000000011,-1.6792623129397986
-0.01160000000000011,-1.7259477858353447
-0.012600000000000111,-1.771218547431026
-0.013600000000000112,-1.8164893090267071
-0.014600000000000113,-1.8603453593225232
-0.015600000000000114,-1.9027866983184742
-0.016600000000000115,-1.9452280373144257
-0.017600000000000116,-1.9862546650105113
-0.018600000000000116,-2.0272812927065975
-0.019600000000000117,-2.0683079204026833
-0.020600000000000118,-2.1093345480987695
-0.02160000000000012,-2.1475317531951257
-0.02260000000000012,-2.1871436695913467
-0.02360000000000012,-2.225340874687703
-0.024600000000000122,-2.263538079784059
-0.025600000000000123,-2.3017352848804147
-0.026600000000000124,-2.3371030673770408
-0.027600000000000124,-2.3738855611735317
-0.028600000000000125,-2.4092533436701573
-0.029600000000000126,-2.4446211261667834
-0.030600000000000127,-2.4799889086634095
-0.03160000000000013,-2.5139419798601703
-0.03260000000000013,-2.5478950510569307
-0.03360000000000013,-2.5804334109538267
-0.03460000000000002,-2.6143864821505876
-0.03560000000000002,-2.6469248420474836
-0.03660000000000002,-2.6780484906445143
-0.03760000000000002,-2.7105868505414104
-0.03860000000000002,-2.741710499138441
-0.039600000000000024,-2.7714194364356066
-0.040600000000000025,-2.8025430850326374
-0.041600000000000026,-2.8322520223298033
-0.04260000000000003,-2.8619609596269693
-0.04360000000000003,-2.89025518562427
-0.04460000000000003,-2.919964122921436
-0.04560000000000003,-2.9482583489187366
-0.04660000000000003,-2.975137863616172
-0.04760000000000003,-3.003432089613473
-0.04860000000000003,-3.031726315610774
-0.04960000000000003,-3.0586058303082093
-0.050600000000000034,-3.0854853450056448
-0.051600000000000035,-3.1123648597030806
-0.052600000000000036,-3.1378296631006513
-0.053600000000000037,-3.164709177798087
-0.05460000000000004,-3.1901739811956578
-0.05560000000000004,-3.2156387845932284
-0.05660000000000004,-3.2411035879907995
-0.05760000000000004,-3.2665683913883696
-0.05860000000000004,-3.2906184834860754
-0.05960000000000004,-3.316083286883646
-0.06060000000000004,-3.3401333789813514
-0.061600000000000044,-3.3641834710790572
-0.06260000000000004,-3.3882335631767626
-0.06360000000000005,-3.4136983665743337
-0.06460000000000005,-3.437748458672039
-0.06560000000000005,-3.4617985507697444
-0.06660000000000005,-3.4858486428674507
-0.06760000000000005,-3.508484023665291
-0.06860000000000005,-3.532534115762996
-0.06960000000000005,-3.556584207860702
-0.07060000000000005,-3.580634299958408
-0.07160000000000005,-3.6032696807562488
-0.07260000000000005,-3.627319772853954
-0.07360000000000005,-3.6499551536517942
-0.07460000000000006,-3.674005245749501
-0.07560000000000006,-3.698055337847206
-0.07660000000000006,-3.7206907186450464
-0.07760000000000006,-3.744740810742752
-0.07860000000000006,-3.7673761915405932
-0.07960000000000006,-3.791426283638298
-0.08060000000000006,-3.815476375736004
-0.08160000000000006,-3.838111756533844
-0.08260000000000006,-3.8621618486315503
-0.08360000000000006,-3.8862119407292557
-0.08460000000000006,-3.910262032826961
-0.08560000000000006,-3.934312124924667
-0.08660000000000007,-3.958362217022373
-0.08760000000000007,-3.982412309120079
-0.08860000000000007,-4.006462401217783
-0.08960000000000007,-4.0319272046153545
-0.09060000000000007,-4.05597729671306
-0.09160000000000007,-4.080027388810766
-0.09260000000000007,-4.1040774809084715
-0.09360000000000007,-4.1295422843060425
-0.09460000000000007,-4.153592376403748
-0.09560000000000007,-4.179057179801319
-0.09660000000000007,-4.20452198319889
-0.09760000000000008,-4.2285720752965945
-0.09860000000000008,-4.254036878694166
-0.09960000000000008,-4.280916393391601
-0.10060000000000008,-4.3063811967891725
-0.10160000000000008,-4.331846000186743
-0.10260000000000008,-4.357310803584314
-0.10360000000000008,-4.382775606981883
-0.10460000000000008,-4.40965512167932
-0.10560000000000008,-4.43511992507689
-0.10660000000000008,-4.461999439774326
-0.10760000000000008,-4.487464243171897
-0.10860000000000009,-4.514343757869332
-0.10960000000000009,-4.541223272566767
-0.11060000000000009,-4.568102787264204
-0.11160000000000009,-4.596397013261504
-0.11260000000000009,-4.6218618166590755
-0.11360000000000009,-4.6487413313565105
-0.11460000000000009,-4.677035557353811
-0.11560000000000009,-4.706744494650977
-0.11660000000000009,-4.733624009348413
-0.1176000000000001,-4.760503524045848
-0.1186000000000001,-4.788797750043149
-0.1196000000000001,-4.81709197604045
-0.1206000000000001,-4.8453862020377505
-0.1216000000000001,-4.872265716735186
-0.1226000000000001,-4.900559942732487
-0.1236000000000001,-4.928854168729788
-0.1246000000000001,-4.9571483947270885
-0.1256000000000001,-4.985442620724389
-0.1266000000000001,-5.01373684672169
-0.1276000000000001,-5.043445784018855
-0.1286000000000001,-5.071740010016156
-0.1296000000000001,-5.101448947313322
-0.1306000000000001,-5.129743173310623
-0.1316000000000001,-5.159452110607789
-0.1326000000000001,-5.18774633660509
-0.1336000000000001,-5.217455273902255
-0.1346000000000001,-5.247164211199421
-0.1356000000000001,-5.276873148496587
-0.1366000000000001,-5.306582085793753
-0.1376000000000001,-5.334876311791054
-0.1386000000000001,-5.365999960388084
-0.1396000000000001,-5.39570889768525
-0.1406000000000001,-5.425417834982416
-0.14160000000000011,-5.4551267722795815
-0.14260000000000012,-5.484835709576747
-0.14360000000000012,-5.5145446468739125
-0.14460000000000012,-5.545668295470944
-0.14560000000000012,-5.57537723276811
-0.14660000000000012,-5.6065008813651405
-0.14760000000000012,-5.636209818662306
-0.14860000000000012,-5.665918755959472
-0.14960000000000012,-5.697042404556503
-0.15060000000000012,-5.728166053153534
-0.15160000000000012,-5.757874990450699
-0.15260000000000012,-5.787583927747865
-0.15360000000000013,-5.818707576344896
-0.15460000000000013,-5.849831224941926
-0.15560000000000013,-5.880954873538958
-0.15660000000000013,-5.910663810836123
-0.15760000000000013,-5.941787459433154
-0.15860000000000013,-5.9729111080301855
-0.15960000000000002,-6.004034756627216
-0.16060000000000002,-6.035158405224247
-0.16160000000000002,-6.064867342521412
-0.16260000000000002,-6.095990991118443
-0.16360000000000002,-6.127114639715473
-0.16460000000000002,-6.158238288312504
-0.16560000000000002,-6.189361936909536
-0.16660000000000003,-6.2233150081062965
-0.16760000000000003,-6.254438656703328
-0.16860000000000003,-6.284147594000493
-0.16960000000000003,-6.3152712425975235
-0.17060000000000003,-6.346394891194555
-0.17160000000000003,-6.377518539791585
-0.17260000000000003,-6.407227477088751
-0.17360000000000003,-6.438351125685783
-0.17460000000000003,-6.468060062982947
-0.17560000000000003,-6.499183711579978
-0.17660000000000003,-6.53030736017701
-0.17760000000000004,-6.560016297474175
-0.17860000000000004,-6.591139946071206
-0.17960000000000004,-6.6236783059681015
-0.18060000000000004,-6.654801954565133
-0.18160000000000004,-6.685925603162163
-0.18260000000000004,-6.717049251759194
-0.18360000000000004,-6.7481729003562245
-0.18460000000000004,-6.780711260253121
-0.18560000000000004,-6.811834908850152
-0.18660000000000004,-6.842958557447183
-0.18760000000000004,-6.874082206044213
-0.18860000000000005,-6.9052058546412445
-0.18960000000000005,-6.936329503238276
-0.19060000000000005,-6.967453151835306
-0.19160000000000005,-6.998576800432337
-0.19260000000000005,-7.0297004490293675
-0.19360000000000005,-7.060824097626399
-0.19460000000000005,-7.091947746223429
-0.19560000000000005,-7.12307139482046
-0.19660000000000005,-7.154195043417491
-0.19760000000000005,-7.185318692014522
-0.19860000000000005,-7.216442340611552
-0.19960000000000006,-7.247565989208583
-0.20060000000000006,-7.278689637805614
-0.20160000000000006,-7.309813286402645
-0.20260000000000006,-7.33952222369981
-0.20360000000000006,-7.370645872296841
-0.20460000000000006,-7.401769520893872
-0.20560000000000006,-7.432893169490902
-0.20660000000000006,-7.464016818087933
-0.20760000000000006,-7.4937257553851
-0.20860000000000006,-7.52484940398213
-0.20960000000000006,-7.555973052579161
-0.21060000000000006,-7.585681989876327
-0.21160000000000007,-7.616805638473357
-0.21260000000000007,-7.646514575770523
-0.21360000000000007,-7.677638224367555
-0.21460000000000007,-7.708761872964584
-0.21560000000000007,-7.739885521561616
-0.21660000000000007,-7.769594458858782
-0.21760000000000007,-7.802132818755678
-0.21860000000000007,-7.833256467352707
-0.21960000000000007,-7.864380115949738
-0.22060000000000007,-7.894089053246905
-0.22160000000000007,-7.92379799054407
-0.22260000000000008,-7.953506927841237
-0.22360000000000008,-7.984630576438266
-0.22460000000000008,-8.015754225035298
-0.22560000000000008,-8.046877873632328
-0.22660000000000008,-8.07800152222936
-0.22760000000000008,-8.107710459526524
-0.22860000000000008,-8.138834108123556
-0.22960000000000008,-8.168543045420723
-0.23060000000000008,-8.199666694017752
-0.23160000000000008,-8.229375631314918
-0.23260000000000008,-8.259084568612085
-0.23360000000000009,-8.288793505909249
-0.2346000000000001,-8.318502443206416
-0.2356000000000001,-8.348211380503582
-0.2366000000000001,-8.377920317800747
-0.2376000000000001,-8.406214543798049
-0.2386000000000001,-8.435923481095214
-0.2396000000000001,-8.46563241839238
-0.2406000000000001,-8.495341355689545
-0.2416000000000001,-8.52505029298671
-0.2426000000000001,-8.554759230283878
-0.2436000000000001,-8.583053456281176
-0.2446000000000001,-8.612762393578345
-0.2456000000000001,-8.641056619575643
-0.2466000000000001,-8.66793613427308
-0.2476000000000001,-8.697645071570244
-0.2486000000000001,-8.725939297567548
-0.2496000000000001,-8.754233523564846
-0.2506000000000001,-8.783942460862013
-0.2516000000000001,-8.810821975559447
-0.2526000000000001,-8.83911620155675
-0.2536000000000001,-8.867410427554049
-0.2546000000000001,-8.89570465355135
-0.2556000000000001,-8.925413590848516
-0.2566000000000001,-8.952293105545952
-0.2576000000000001,-8.977757908943524
-0.2586000000000001,-9.004637423640958
-0.2596000000000001,-9.031516938338395
-0.2606000000000001,-9.05839645303583
-0.2616000000000001,-9.085275967733265
-0.2626000000000001,-9.110740771130837
-0.2636000000000001,-9.136205574528407
-0.2646000000000001,-9.163085089225842
-0.2656000000000001,-9.187135181323548
-0.2666000000000001,-9.21259998472112
-0.2676000000000001,-9.236650076818824
-0.2686000000000001,-9.262114880216396
-0.2696000000000001,-9.287579683613965
-0.2706000000000001,-9.31162977571167
-0.2716000000000001,-9.334265156509511
-0.2726000000000001,-9.358315248607218
-0.2736000000000001,-9.380950629405058
-0.2746000000000001,-9.403586010202897
-0.2756000000000001,-9.42622139100074
-0.2766000000000001,-9.44885677179858
-0.2776000000000001,-9.477150997795881
-0.2786000000000001,-9.495542244694127
-0.2796000000000001,-9.513933491592372
-0.2806000000000001,-9.535154161090349
-0.28160000000000013,-9.553545407988592
-0.28260000000000013,-9.573351366186703
-0.28360000000000013,-9.593157324384812
-0.2846,-9.61154857128306
-0.2856,-9.629939818181304
-0.2866,-9.648331065079551
-0.2876,-9.66530760067793
-0.2886,-9.682284136276312
-0.2896,-9.699260671874692
-0.2906,-9.716237207473073
-0.2916,-9.731799031771587
-0.2926,-9.747360856070104
-0.2936,-9.762922680368618
-0.29460000000000003,-9.77706979336727
-0.29560000000000003,-9.791216906365918
-0.29660000000000003,-9.80536401936457
-0.29760000000000003,-9.818096421063354
-0.29860000000000003,-9.830828822762141
-0.29960000000000003,-9.843561224460924
-0.30060000000000003,-9.85629362615971
-0.30160000000000003,-9.86761131655863
-0.30260000000000004,-9.877514295657685
-0.30360000000000004,-9.887417274756743
-0.30460000000000004,-9.897320253855797
-0.30560000000000004,-9.905808521654986
-0.30660000000000004,-9.914296789454177
-0.30760000000000004,-9.921370345953502
-0.30860000000000004,-9.928443902452829
-0.30960000000000004,-9.935517458952152
-0.31060000000000004,-9.941176304151613
-0.31160000000000004,-9.945420438051208
-0.31260000000000004,-9.949664571950803
-0.31360000000000005,-9.952493994550533
-0.31460000000000005,-9.955323417150264
-0.31560000000000005,-9.958152839749992
-0.31660000000000005,-9.959567551049858
-0.31760000000000005,-9.960982262349724
-0.31860000000000005,-9.962396973649588
-0.31960000000000005,-9.963811684949455
-0.32060000000000005,-9.963811684949455
-0.32160000000000005,-9.962396973649588
-0.32260000000000005,-9.959567551049858
-0.32360000000000005,-9.956738128450127
-0.32460000000000006,-9.953908705850399
-0.32560000000000006,-9.949664571950803
-0.32660000000000006,-9.945420438051208
-0.32760000000000006,-9.938346881551883
-0.32860000000000006,-9.932688036352424
-0.32960000000000006,-9.925614479853097
-0.33060000000000006,-9.918540923353772
-0.33160000000000006,-9.911467366854446
-0.33260000000000006,-9.901564387755393
-0.33360000000000006,-9.891661408656336
-0.33460000000000006,-9.883173140857146
-0.33560000000000006,-9.873270161758091
-0.33660000000000007,-9.86195247135917
-0.33760000000000007,-9.849220069660385
-0.33860000000000007,-9.837902379261465
-0.33960000000000007,-9.82516997756268
-0.34060000000000007,-9.811022864564029
-0.34160000000000007,-9.798290462865245
-0.34260000000000007,-9.782728638566729
-0.34360000000000007,-9.767166814268213
-0.3446000000000001,-9.7516049899697
-0.3456000000000001,-9.736043165671184
-0.3466000000000001,-9.7190666300728
-0.34759999999999996,-9.702090094474421
-0.3486000000000001,-9.683698847576176
-0.34959999999999997,-9.66530760067793
-0.3506000000000001,-9.646916353779686
-0.35159999999999997,-9.628525106881439
-0.3526000000000001,-9.60871914868333
-0.35359999999999997,-9.588913190485219
-0.3546000000000001,-9.569107232287108
-0.35559999999999997,-9.549301274088998
-0.3566000000000001,-9.528080604591022
-0.3576,-9.505445223793181
-0.3586000000000001,-9.484224554295206
-0.3596,-9.461589173497366
-0.3606000000000001,-9.438953792699524
-0.3616,-9.416318411901685
-0.3626000000000001,-9.392268319803978
-0.3636,-9.369632939006138
-0.3646000000000001,-9.345582846908432
-0.3656,-9.322947466110591
-0.3666000000000001,-9.298897374012885
-0.3676,-9.27484728191518
-0.3686000000000001,-9.250797189817476
-0.3696,-9.22674709771977
-0.3706000000000001,-9.202697005622065
-0.3716,-9.178646913524359
-0.3726000000000001,-9.153182110126787
-0.3736,-9.127717306729215
-0.3746000000000001,-9.102252503331647
-0.3756,-9.078202411233942
-0.3766000000000001,-9.05273760783637
-0.3776,-9.027272804438798
-0.3786000000000001,-9.003222712341092
-0.3796,-8.977757908943524
-0.3806000000000001,-8.953707816845819
-0.3816,-8.929657724748111
-0.3826000000000001,-8.90419292135054
-0.3836,-8.880142829252835
-0.3846000000000001,-8.85609273715513
-0.3856,-8.832042645057424
-0.3866000000000001,-8.80799255295972
-0.3876,-8.78252774956215
-0.3886000000000001,-8.758477657464443
-0.3896,-8.735842276666602
-0.3906000000000001,-8.711792184568896
-0.3916,-8.686327381171324
-0.3926000000000001,-8.662277289073618
-0.3936,-8.638227196975913
-0.3946000000000001,-8.617006527477939
-0.3956,-8.592956435380232
-0.3966000000000001,-8.568906343282526
-0.3976,-8.546270962484687
-0.3986000000000001,-8.522220870386981
-0.3996,-8.501000200889004
-0.4006000000000001,-8.478364820091164
-0.4016,-8.457144150593189
-0.4026000000000001,-8.435923481095214
-0.4036,-8.41470281159724
-0.4046000000000001,-8.393482142099263
-0.4056,-8.372261472601286
-0.40660000000000013,-8.351040803103311
-0.4076,-8.329820133605336
-0.40860000000000013,-8.30859946410736
-0.4096,-8.288793505909249
-0.41060000000000013,-8.26898754771114
-0.4116,-8.247766878213163
-0.41260000000000013,-8.227960920015054
-0.4136,-8.209569673116807
-0.41460000000000014,-8.188349003618832
-0.4156,-8.169957756720587
-0.41660000000000014,-8.151566509822342
-0.4176,-8.133175262924096
-0.41860000000000014,-8.11478401602585
-0.41960000000000003,-8.09780748042747
-0.42060000000000014,-8.082245656128954
-0.42160000000000003,-8.065269120530575
-0.42260000000000014,-8.049707296232057
-0.42360000000000003,-8.03273076063368
-0.42460000000000014,-8.017168936335162
-0.42560000000000003,-8.001607112036647
-0.42660000000000015,-7.984630576438266
-0.42760000000000004,-7.9690687521397505
-0.42860000000000015,-7.9549216391411015
-0.42960000000000004,-7.940774526142452
-0.43060000000000015,-7.926627413143801
-0.43160000000000004,-7.912480300145149
-0.43260000000000015,-7.8983331871465
-0.43360000000000004,-7.884186074147851
-0.43460000000000015,-7.870038961149199
-0.43560000000000004,-7.857306559450413
-0.43660000000000015,-7.8445741577516275
-0.43760000000000004,-7.834671178652573
-0.43860000000000016,-7.823353488253653
-0.43960000000000005,-7.813450509154598
-0.44060000000000016,-7.803547530055542
-0.44160000000000005,-7.793644550956487
-0.44260000000000016,-7.782326860557566
-0.44360000000000005,-7.773838592758376
-0.44460000000000016,-7.7653503249591855
-0.44560000000000005,-7.756862057159997
-0.44660000000000016,-7.748373789360806
-0.44760000000000005,-7.739885521561616
-0.44860000000000017,-7.7328119650622895
-0.44960000000000006,-7.724323697263101
-0.45060000000000017,-7.717250140763775
-0.45160000000000006,-7.71017658426445
-0.45260000000000017,-7.703103027765124
-0.45360000000000006,-7.697444182565665
-0.45460000000000017,-7.69037062606634
-0.45560000000000006,-7.68471178086688
-0.4566000000000002,-7.679052935667419
-0.45760000000000006,-7.671979379168095
-0.4586000000000002,-7.669149956568364
