Aug. 27, 2024   17:41:37
Linear Sweep Voltammetry
File: c:/users/guazh/data/20240813_batch_181_500/2024-08-25-exp198\regeneratedgce-2024-08-27t17_36_59-lsvinkoh\regeneratedgce_lsv_50mvs_efin_-1900mv.bin
Data Source:  Experiment
Instrument Model:  CHI760E
Header: LSV ran at 50 mVs with Efin at -1900mV
Note: 

Init E (V) = -0.6
Final E (V) = -1.9
Scan Rate (V/s) = 0.05
Sample Interval (V) = 0.001
Quiet Time (sec) = 2
Sensitivity (A/V) = 1e-4
Comp R (ohm) = 1.5

Results:

Channel 1:
Ep = -1.814V
ip = 9.469e-4A
Ah = 7.540e-4C

Potential/V, Current/A

-0.600, 2.339e-6
-0.601, 2.516e-6
-0.602, 2.562e-6
-0.603, 2.580e-6
-0.604, 2.591e-6
-0.605, 2.597e-6
-0.606, 2.602e-6
-0.607, 2.604e-6
-0.608, 2.608e-6
-0.609, 2.609e-6
-0.610, 2.608e-6
-0.611, 2.610e-6
-0.612, 2.610e-6
-0.613, 2.609e-6
-0.614, 2.611e-6
-0.615, 2.611e-6
-0.616, 2.609e-6
-0.617, 2.609e-6
-0.618, 2.607e-6
-0.619, 2.606e-6
-0.620, 2.604e-6
-0.621, 2.605e-6
-0.622, 2.604e-6
-0.623, 2.600e-6
-0.624, 2.600e-6
-0.625, 2.598e-6
-0.626, 2.596e-6
-0.627, 2.595e-6
-0.628, 2.593e-6
-0.629, 2.590e-6
-0.630, 2.592e-6
-0.631, 2.587e-6
-0.632, 2.586e-6
-0.633, 2.587e-6
-0.634, 2.584e-6
-0.635, 2.582e-6
-0.636, 2.580e-6
-0.637, 2.577e-6
-0.638, 2.577e-6
-0.639, 2.575e-6
-0.640, 2.572e-6
-0.641, 2.574e-6
-0.642, 2.571e-6
-0.643, 2.572e-6
-0.644, 2.569e-6
-0.645, 2.566e-6
-0.646, 2.566e-6
-0.647, 2.563e-6
-0.648, 2.561e-6
-0.649, 2.561e-6
-0.650, 2.559e-6
-0.651, 2.558e-6
-0.652, 2.556e-6
-0.653, 2.555e-6
-0.654, 2.552e-6
-0.655, 2.549e-6
-0.656, 2.550e-6
-0.657, 2.550e-6
-0.658, 2.547e-6
-0.659, 2.546e-6
-0.660, 2.545e-6
-0.661, 2.543e-6
-0.662, 2.543e-6
-0.663, 2.541e-6
-0.664, 2.538e-6
-0.665, 2.537e-6
-0.666, 2.539e-6
-0.667, 2.535e-6
-0.668, 2.534e-6
-0.669, 2.531e-6
-0.670, 2.531e-6
-0.671, 2.532e-6
-0.672, 2.532e-6
-0.673, 2.533e-6
-0.674, 2.527e-6
-0.675, 2.527e-6
-0.676, 2.526e-6
-0.677, 2.523e-6
-0.678, 2.524e-6
-0.679, 2.524e-6
-0.680, 2.522e-6
-0.681, 2.523e-6
-0.682, 2.519e-6
-0.683, 2.521e-6
-0.684, 2.520e-6
-0.685, 2.518e-6
-0.686, 2.520e-6
-0.687, 2.519e-6
-0.688, 2.519e-6
-0.689, 2.518e-6
-0.690, 2.517e-6
-0.691, 2.518e-6
-0.692, 2.518e-6
-0.693, 2.516e-6
-0.694, 2.516e-6
-0.695, 2.515e-6
-0.696, 2.515e-6
-0.697, 2.515e-6
-0.698, 2.514e-6
-0.699, 2.515e-6
-0.700, 2.514e-6
-0.701, 2.514e-6
-0.702, 2.513e-6
-0.703, 2.512e-6
-0.704, 2.513e-6
-0.705, 2.513e-6
-0.706, 2.512e-6
-0.707, 2.512e-6
-0.708, 2.513e-6
-0.709, 2.514e-6
-0.710, 2.513e-6
-0.711, 2.512e-6
-0.712, 2.511e-6
-0.713, 2.514e-6
-0.714, 2.512e-6
-0.715, 2.513e-6
-0.716, 2.513e-6
-0.717, 2.514e-6
-0.718, 2.515e-6
-0.719, 2.512e-6
-0.720, 2.512e-6
-0.721, 2.515e-6
-0.722, 2.514e-6
-0.723, 2.516e-6
-0.724, 2.516e-6
-0.725, 2.515e-6
-0.726, 2.517e-6
-0.727, 2.516e-6
-0.728, 2.517e-6
-0.729, 2.516e-6
-0.730, 2.517e-6
-0.731, 2.518e-6
-0.732, 2.518e-6
-0.733, 2.519e-6
-0.734, 2.519e-6
-0.735, 2.518e-6
-0.736, 2.520e-6
-0.737, 2.522e-6
-0.738, 2.523e-6
-0.739, 2.523e-6
-0.740, 2.522e-6
-0.741, 2.523e-6
-0.742, 2.526e-6
-0.743, 2.524e-6
-0.744, 2.526e-6
-0.745, 2.526e-6
-0.746, 2.527e-6
-0.747, 2.527e-6
-0.748, 2.530e-6
-0.749, 2.528e-6
-0.750, 2.530e-6
-0.751, 2.531e-6
-0.752, 2.530e-6
-0.753, 2.533e-6
-0.754, 2.531e-6
-0.755, 2.533e-6
-0.756, 2.535e-6
-0.757, 2.535e-6
-0.758, 2.538e-6
-0.759, 2.536e-6
-0.760, 2.535e-6
-0.761, 2.538e-6
-0.762, 2.536e-6
-0.763, 2.537e-6
-0.764, 2.538e-6
-0.765, 2.538e-6
-0.766, 2.541e-6
-0.767, 2.541e-6
-0.768, 2.544e-6
-0.769, 2.545e-6
-0.770, 2.542e-6
-0.771, 2.545e-6
-0.772, 2.545e-6
-0.773, 2.544e-6
-0.774, 2.544e-6
-0.775, 2.543e-6
-0.776, 2.546e-6
-0.777, 2.547e-6
-0.778, 2.546e-6
-0.779, 2.546e-6
-0.780, 2.547e-6
-0.781, 2.549e-6
-0.782, 2.551e-6
-0.783, 2.552e-6
-0.784, 2.547e-6
-0.785, 2.545e-6
-0.786, 2.545e-6
-0.787, 2.547e-6
-0.788, 2.549e-6
-0.789, 2.549e-6
-0.790, 2.548e-6
-0.791, 2.549e-6
-0.792, 2.550e-6
-0.793, 2.553e-6
-0.794, 2.552e-6
-0.795, 2.552e-6
-0.796, 2.552e-6
-0.797, 2.554e-6
-0.798, 2.557e-6
-0.799, 2.557e-6
-0.800, 2.556e-6
-0.801, 2.560e-6
-0.802, 2.558e-6
-0.803, 2.559e-6
-0.804, 2.558e-6
-0.805, 2.557e-6
-0.806, 2.561e-6
-0.807, 2.560e-6
-0.808, 2.560e-6
-0.809, 2.561e-6
-0.810, 2.558e-6
-0.811, 2.561e-6
-0.812, 2.562e-6
-0.813, 2.561e-6
-0.814, 2.564e-6
-0.815, 2.563e-6
-0.816, 2.565e-6
-0.817, 2.566e-6
-0.818, 2.564e-6
-0.819, 2.571e-6
-0.820, 2.572e-6
-0.821, 2.569e-6
-0.822, 2.570e-6
-0.823, 2.571e-6
-0.824, 2.569e-6
-0.825, 2.568e-6
-0.826, 2.568e-6
-0.827, 2.570e-6
-0.828, 2.570e-6
-0.829, 2.568e-6
-0.830, 2.570e-6
-0.831, 2.571e-6
-0.832, 2.573e-6
-0.833, 2.575e-6
-0.834, 2.574e-6
-0.835, 2.573e-6
-0.836, 2.574e-6
-0.837, 2.573e-6
-0.838, 2.575e-6
-0.839, 2.575e-6
-0.840, 2.574e-6
-0.841, 2.576e-6
-0.842, 2.575e-6
-0.843, 2.576e-6
-0.844, 2.575e-6
-0.845, 2.575e-6
-0.846, 2.577e-6
-0.847, 2.575e-6
-0.848, 2.576e-6
-0.849, 2.576e-6
-0.850, 2.576e-6
-0.851, 2.578e-6
-0.852, 2.578e-6
-0.853, 2.578e-6
-0.854, 2.579e-6
-0.855, 2.578e-6
-0.856, 2.580e-6
-0.857, 2.581e-6
-0.858, 2.582e-6
-0.859, 2.582e-6
-0.860, 2.583e-6
-0.861, 2.584e-6
-0.862, 2.585e-6
-0.863, 2.585e-6
-0.864, 2.584e-6
-0.865, 2.585e-6
-0.866, 2.584e-6
-0.867, 2.587e-6
-0.868, 2.587e-6
-0.869, 2.589e-6
-0.870, 2.591e-6
-0.871, 2.594e-6
-0.872, 2.592e-6
-0.873, 2.593e-6
-0.874, 2.593e-6
-0.875, 2.594e-6
-0.876, 2.597e-6
-0.877, 2.596e-6
-0.878, 2.599e-6
-0.879, 2.600e-6
-0.880, 2.601e-6
-0.881, 2.605e-6
-0.882, 2.604e-6
-0.883, 2.608e-6
-0.884, 2.609e-6
-0.885, 2.607e-6
-0.886, 2.612e-6
-0.887, 2.613e-6
-0.888, 2.615e-6
-0.889, 2.616e-6
-0.890, 2.617e-6
-0.891, 2.621e-6
-0.892, 2.622e-6
-0.893, 2.626e-6
-0.894, 2.626e-6
-0.895, 2.628e-6
-0.896, 2.633e-6
-0.897, 2.635e-6
-0.898, 2.638e-6
-0.899, 2.640e-6
-0.900, 2.641e-6
-0.901, 2.643e-6
-0.902, 2.649e-6
-0.903, 2.651e-6
-0.904, 2.652e-6
-0.905, 2.656e-6
-0.906, 2.659e-6
-0.907, 2.664e-6
-0.908, 2.667e-6
-0.909, 2.670e-6
-0.910, 2.671e-6
-0.911, 2.676e-6
-0.912, 2.679e-6
-0.913, 2.682e-6
-0.914, 2.684e-6
-0.915, 2.688e-6
-0.916, 2.691e-6
-0.917, 2.694e-6
-0.918, 2.699e-6
-0.919, 2.701e-6
-0.920, 2.705e-6
-0.921, 2.712e-6
-0.922, 2.714e-6
-0.923, 2.718e-6
-0.924, 2.722e-6
-0.925, 2.724e-6
-0.926, 2.731e-6
-0.927, 2.734e-6
-0.928, 2.739e-6
-0.929, 2.744e-6
-0.930, 2.746e-6
-0.931, 2.752e-6
-0.932, 2.757e-6
-0.933, 2.761e-6
-0.934, 2.765e-6
-0.935, 2.769e-6
-0.936, 2.775e-6
-0.937, 2.781e-6
-0.938, 2.787e-6
-0.939, 2.792e-6
-0.940, 2.796e-6
-0.941, 2.801e-6
-0.942, 2.809e-6
-0.943, 2.812e-6
-0.944, 2.818e-6
-0.945, 2.825e-6
-0.946, 2.830e-6
-0.947, 2.838e-6
-0.948, 2.844e-6
-0.949, 2.849e-6
-0.950, 2.856e-6
-0.951, 2.861e-6
-0.952, 2.869e-6
-0.953, 2.878e-6
-0.954, 2.882e-6
-0.955, 2.887e-6
-0.956, 2.895e-6
-0.957, 2.900e-6
-0.958, 2.909e-6
-0.959, 2.915e-6
-0.960, 2.922e-6
-0.961, 2.932e-6
-0.962, 2.937e-6
-0.963, 2.945e-6
-0.964, 2.951e-6
-0.965, 2.956e-6
-0.966, 2.966e-6
-0.967, 2.973e-6
-0.968, 2.981e-6
-0.969, 2.989e-6
-0.970, 2.995e-6
-0.971, 3.004e-6
-0.972, 3.011e-6
-0.973, 3.022e-6
-0.974, 3.031e-6
-0.975, 3.035e-6
-0.976, 3.046e-6
-0.977, 3.053e-6
-0.978, 3.063e-6
-0.979, 3.070e-6
-0.980, 3.079e-6
-0.981, 3.087e-6
-0.982, 3.097e-6
-0.983, 3.104e-6
-0.984, 3.112e-6
-0.985, 3.121e-6
-0.986, 3.130e-6
-0.987, 3.138e-6
-0.988, 3.147e-6
-0.989, 3.155e-6
-0.990, 3.164e-6
-0.991, 3.173e-6
-0.992, 3.181e-6
-0.993, 3.191e-6
-0.994, 3.199e-6
-0.995, 3.210e-6
-0.996, 3.219e-6
-0.997, 3.227e-6
-0.998, 3.237e-6
-0.999, 3.245e-6
-1.000, 3.252e-6
-1.001, 3.263e-6
-1.002, 3.270e-6
-1.003, 3.281e-6
-1.004, 3.287e-6
-1.005, 3.295e-6
-1.006, 3.306e-6
-1.007, 3.315e-6
-1.008, 3.326e-6
-1.009, 3.336e-6
-1.010, 3.340e-6
-1.011, 3.354e-6
-1.012, 3.363e-6
-1.013, 3.372e-6
-1.014, 3.382e-6
-1.015, 3.389e-6
-1.016, 3.399e-6
-1.017, 3.409e-6
-1.018, 3.416e-6
-1.019, 3.426e-6
-1.020, 3.432e-6
-1.021, 3.441e-6
-1.022, 3.452e-6
-1.023, 3.459e-6
-1.024, 3.469e-6
-1.025, 3.477e-6
-1.026, 3.485e-6
-1.027, 3.494e-6
-1.028, 3.502e-6
-1.029, 3.507e-6
-1.030, 3.516e-6
-1.031, 3.524e-6
-1.032, 3.532e-6
-1.033, 3.542e-6
-1.034, 3.549e-6
-1.035, 3.555e-6
-1.036, 3.564e-6
-1.037, 3.573e-6
-1.038, 3.584e-6
-1.039, 3.589e-6
-1.040, 3.596e-6
-1.041, 3.604e-6
-1.042, 3.611e-6
-1.043, 3.621e-6
-1.044, 3.628e-6
-1.045, 3.633e-6
-1.046, 3.643e-6
-1.047, 3.649e-6
-1.048, 3.657e-6
-1.049, 3.665e-6
-1.050, 3.671e-6
-1.051, 3.679e-6
-1.052, 3.687e-6
-1.053, 3.693e-6
-1.054, 3.700e-6
-1.055, 3.705e-6
-1.056, 3.714e-6
-1.057, 3.723e-6
-1.058, 3.728e-6
-1.059, 3.735e-6
-1.060, 3.742e-6
-1.061, 3.747e-6
-1.062, 3.756e-6
-1.063, 3.762e-6
-1.064, 3.768e-6
-1.065, 3.775e-6
-1.066, 3.781e-6
-1.067, 3.787e-6
-1.068, 3.795e-6
-1.069, 3.799e-6
-1.070, 3.807e-6
-1.071, 3.813e-6
-1.072, 3.820e-6
-1.073, 3.827e-6
-1.074, 3.831e-6
-1.075, 3.839e-6
-1.076, 3.845e-6
-1.077, 3.849e-6
-1.078, 3.859e-6
-1.079, 3.863e-6
-1.080, 3.866e-6
-1.081, 3.874e-6
-1.082, 3.880e-6
-1.083, 3.887e-6
-1.084, 3.891e-6
-1.085, 3.896e-6
-1.086, 3.903e-6
-1.087, 3.909e-6
-1.088, 3.916e-6
-1.089, 3.920e-6
-1.090, 3.924e-6
-1.091, 3.932e-6
-1.092, 3.935e-6
-1.093, 3.941e-6
-1.094, 3.947e-6
-1.095, 3.950e-6
-1.096, 3.957e-6
-1.097, 3.963e-6
-1.098, 3.968e-6
-1.099, 3.974e-6
-1.100, 3.979e-6
-1.101, 3.984e-6
-1.102, 3.990e-6
-1.103, 3.995e-6
-1.104, 4.000e-6
-1.105, 4.005e-6
-1.106, 4.011e-6
-1.107, 4.016e-6
-1.108, 4.023e-6
-1.109, 4.025e-6
-1.110, 4.033e-6
-1.111, 4.037e-6
-1.112, 4.042e-6
-1.113, 4.050e-6
-1.114, 4.054e-6
-1.115, 4.058e-6
-1.116, 4.064e-6
-1.117, 4.068e-6
-1.118, 4.075e-6
-1.119, 4.077e-6
-1.120, 4.085e-6
-1.121, 4.090e-6
-1.122, 4.094e-6
-1.123, 4.101e-6
-1.124, 4.105e-6
-1.125, 4.109e-6
-1.126, 4.115e-6
-1.127, 4.122e-6
-1.128, 4.127e-6
-1.129, 4.132e-6
-1.130, 4.137e-6
-1.131, 4.143e-6
-1.132, 4.143e-6
-1.133, 4.154e-6
-1.134, 4.159e-6
-1.135, 4.161e-6
-1.136, 4.168e-6
-1.137, 4.173e-6
-1.138, 4.179e-6
-1.139, 4.184e-6
-1.140, 4.189e-6
-1.141, 4.193e-6
-1.142, 4.200e-6
-1.143, 4.205e-6
-1.144, 4.211e-6
-1.145, 4.216e-6
-1.146, 4.220e-6
-1.147, 4.228e-6
-1.148, 4.235e-6
-1.149, 4.238e-6
-1.150, 4.246e-6
-1.151, 4.252e-6
-1.152, 4.258e-6
-1.153, 4.266e-6
-1.154, 4.267e-6
-1.155, 4.273e-6
-1.156, 4.281e-6
-1.157, 4.285e-6
-1.158, 4.294e-6
-1.159, 4.298e-6
-1.160, 4.304e-6
-1.161, 4.311e-6
-1.162, 4.317e-6
-1.163, 4.322e-6
-1.164, 4.328e-6
-1.165, 4.335e-6
-1.166, 4.343e-6
-1.167, 4.347e-6
-1.168, 4.354e-6
-1.169, 4.361e-6
-1.170, 4.364e-6
-1.171, 4.374e-6
-1.172, 4.380e-6
-1.173, 4.387e-6
-1.174, 4.393e-6
-1.175, 4.398e-6
-1.176, 4.407e-6
-1.177, 4.416e-6
-1.178, 4.425e-6
-1.179, 4.427e-6
-1.180, 4.434e-6
-1.181, 4.441e-6
-1.182, 4.451e-6
-1.183, 4.456e-6
-1.184, 4.462e-6
-1.185, 4.469e-6
-1.186, 4.476e-6
-1.187, 4.484e-6
-1.188, 4.493e-6
-1.189, 4.498e-6
-1.190, 4.507e-6
-1.191, 4.517e-6
-1.192, 4.524e-6
-1.193, 4.535e-6
-1.194, 4.540e-6
-1.195, 4.548e-6
-1.196, 4.557e-6
-1.197, 4.565e-6
-1.198, 4.576e-6
-1.199, 4.581e-6
-1.200, 4.590e-6
-1.201, 4.601e-6
-1.202, 4.606e-6
-1.203, 4.619e-6
-1.204, 4.627e-6
-1.205, 4.633e-6
-1.206, 4.644e-6
-1.207, 4.651e-6
-1.208, 4.662e-6
-1.209, 4.671e-6
-1.210, 4.678e-6
-1.211, 4.689e-6
-1.212, 4.699e-6
-1.213, 4.706e-6
-1.214, 4.715e-6
-1.215, 4.724e-6
-1.216, 4.737e-6
-1.217, 4.747e-6
-1.218, 4.755e-6
-1.219, 4.766e-6
-1.220, 4.776e-6
-1.221, 4.785e-6
-1.222, 4.797e-6
-1.223, 4.807e-6
-1.224, 4.817e-6
-1.225, 4.827e-6
-1.226, 4.836e-6
-1.227, 4.848e-6
-1.228, 4.858e-6
-1.229, 4.877e-6
-1.230, 4.885e-6
-1.231, 4.893e-6
-1.232, 4.903e-6
-1.233, 4.916e-6
-1.234, 4.927e-6
-1.235, 4.939e-6
-1.236, 4.950e-6
-1.237, 4.961e-6
-1.238, 4.976e-6
-1.239, 4.988e-6
-1.240, 4.998e-6
-1.241, 5.013e-6
-1.242, 5.025e-6
-1.243, 5.040e-6
-1.244, 5.052e-6
-1.245, 5.063e-6
-1.246, 5.078e-6
-1.247, 5.092e-6
-1.248, 5.106e-6
-1.249, 5.120e-6
-1.250, 5.135e-6
-1.251, 5.148e-6
-1.252, 5.162e-6
-1.253, 5.175e-6
-1.254, 5.192e-6
-1.255, 5.205e-6
-1.256, 5.221e-6
-1.257, 5.238e-6
-1.258, 5.252e-6
-1.259, 5.269e-6
-1.260, 5.286e-6
-1.261, 5.301e-6
-1.262, 5.317e-6
-1.263, 5.332e-6
-1.264, 5.347e-6
-1.265, 5.364e-6
-1.266, 5.380e-6
-1.267, 5.397e-6
-1.268, 5.414e-6
-1.269, 5.428e-6
-1.270, 5.444e-6
-1.271, 5.461e-6
-1.272, 5.477e-6
-1.273, 5.495e-6
-1.274, 5.510e-6
-1.275, 5.527e-6
-1.276, 5.546e-6
-1.277, 5.560e-6
-1.278, 5.576e-6
-1.279, 5.589e-6
-1.280, 5.608e-6
-1.281, 5.624e-6
-1.282, 5.635e-6
-1.283, 5.651e-6
-1.284, 5.664e-6
-1.285, 5.674e-6
-1.286, 5.690e-6
-1.287, 5.701e-6
-1.288, 5.714e-6
-1.289, 5.728e-6
-1.290, 5.738e-6
-1.291, 5.751e-6
-1.292, 5.762e-6
-1.293, 5.770e-6
-1.294, 5.780e-6
-1.295, 5.789e-6
-1.296, 5.800e-6
-1.297, 5.808e-6
-1.298, 5.814e-6
-1.299, 5.820e-6
-1.300, 5.826e-6
-1.301, 5.832e-6
-1.302, 5.839e-6
-1.303, 5.843e-6
-1.304, 5.846e-6
-1.305, 5.851e-6
-1.306, 5.853e-6
-1.307, 5.857e-6
-1.308, 5.857e-6
-1.309, 5.857e-6
-1.310, 5.860e-6
-1.311, 5.861e-6
-1.312, 5.863e-6
-1.313, 5.864e-6
-1.314, 5.862e-6
-1.315, 5.863e-6
-1.316, 5.864e-6
-1.317, 5.860e-6
-1.318, 5.863e-6
-1.319, 5.860e-6
-1.320, 5.858e-6
-1.321, 5.860e-6
-1.322, 5.857e-6
-1.323, 5.858e-6
-1.324, 5.855e-6
-1.325, 5.852e-6
-1.326, 5.855e-6
-1.327, 5.854e-6
-1.328, 5.852e-6
-1.329, 5.850e-6
-1.330, 5.848e-6
-1.331, 5.848e-6
-1.332, 5.848e-6
-1.333, 5.846e-6
-1.334, 5.846e-6
-1.335, 5.843e-6
-1.336, 5.843e-6
-1.337, 5.844e-6
-1.338, 5.843e-6
-1.339, 5.843e-6
-1.340, 5.840e-6
-1.341, 5.839e-6
-1.342, 5.837e-6
-1.343, 5.835e-6
-1.344, 5.838e-6
-1.345, 5.839e-6
-1.346, 5.840e-6
-1.347, 5.839e-6
-1.348, 5.839e-6
-1.349, 5.838e-6
-1.350, 5.842e-6
-1.351, 5.841e-6
-1.352, 5.843e-6
-1.353, 5.844e-6
-1.354, 5.842e-6
-1.355, 5.844e-6
-1.356, 5.849e-6
-1.357, 5.850e-6
-1.358, 5.855e-6
-1.359, 5.852e-6
-1.360, 5.856e-6
-1.361, 5.859e-6
-1.362, 5.861e-6
-1.363, 5.866e-6
-1.364, 5.868e-6
-1.365, 5.867e-6
-1.366, 5.873e-6
-1.367, 5.876e-6
-1.368, 5.879e-6
-1.369, 5.885e-6
-1.370, 5.887e-6
-1.371, 5.891e-6
-1.372, 5.894e-6
-1.373, 5.898e-6
-1.374, 5.903e-6
-1.375, 5.906e-6
-1.376, 5.910e-6
-1.377, 5.916e-6
-1.378, 5.921e-6
-1.379, 5.925e-6
-1.380, 5.929e-6
-1.381, 5.935e-6
-1.382, 5.942e-6
-1.383, 5.950e-6
-1.384, 5.953e-6
-1.385, 5.963e-6
-1.386, 5.970e-6
-1.387, 5.975e-6
-1.388, 5.983e-6
-1.389, 5.986e-6
-1.390, 5.994e-6
-1.391, 6.004e-6
-1.392, 6.008e-6
-1.393, 6.019e-6
-1.394, 6.027e-6
-1.395, 6.034e-6
-1.396, 6.044e-6
-1.397, 6.053e-6
-1.398, 6.066e-6
-1.399, 6.075e-6
-1.400, 6.080e-6
-1.401, 6.091e-6
-1.402, 6.098e-6
-1.403, 6.109e-6
-1.404, 6.121e-6
-1.405, 6.129e-6
-1.406, 6.141e-6
-1.407, 6.150e-6
-1.408, 6.164e-6
-1.409, 6.174e-6
-1.410, 6.181e-6
-1.411, 6.196e-6
-1.412, 6.209e-6
-1.413, 6.220e-6
-1.414, 6.233e-6
-1.415, 6.244e-6
-1.416, 6.257e-6
-1.417, 6.272e-6
-1.418, 6.285e-6
-1.419, 6.298e-6
-1.420, 6.313e-6
-1.421, 6.328e-6
-1.422, 6.345e-6
-1.423, 6.360e-6
-1.424, 6.376e-6
-1.425, 6.390e-6
-1.426, 6.406e-6
-1.427, 6.427e-6
-1.428, 6.446e-6
-1.429, 6.458e-6
-1.430, 6.478e-6
-1.431, 6.497e-6
-1.432, 6.512e-6
-1.433, 6.535e-6
-1.434, 6.556e-6
-1.435, 6.574e-6
-1.436, 6.595e-6
-1.437, 6.612e-6
-1.438, 6.636e-6
-1.439, 6.654e-6
-1.440, 6.674e-6
-1.441, 6.698e-6
-1.442, 6.719e-6
-1.443, 6.742e-6
-1.444, 6.766e-6
-1.445, 6.788e-6
-1.446, 6.812e-6
-1.447, 6.836e-6
-1.448, 6.863e-6
-1.449, 6.887e-6
-1.450, 6.908e-6
-1.451, 6.935e-6
-1.452, 6.961e-6
-1.453, 6.987e-6
-1.454, 7.015e-6
-1.455, 7.038e-6
-1.456, 7.065e-6
-1.457, 7.096e-6
-1.458, 7.119e-6
-1.459, 7.151e-6
-1.460, 7.183e-6
-1.461, 7.216e-6
-1.462, 7.255e-6
-1.463, 7.284e-6
-1.464, 7.314e-6
-1.465, 7.342e-6
-1.466, 7.374e-6
-1.467, 7.410e-6
-1.468, 7.444e-6
-1.469, 7.479e-6
-1.470, 7.516e-6
-1.471, 7.550e-6
-1.472, 7.588e-6
-1.473, 7.627e-6
-1.474, 7.659e-6
-1.475, 7.695e-6
-1.476, 7.731e-6
-1.477, 7.770e-6
-1.478, 7.811e-6
-1.479, 7.851e-6
-1.480, 7.886e-6
-1.481, 7.925e-6
-1.482, 7.966e-6
-1.483, 8.015e-6
-1.484, 8.061e-6
-1.485, 8.108e-6
-1.486, 8.150e-6
-1.487, 8.191e-6
-1.488, 8.240e-6
-1.489, 8.286e-6
-1.490, 8.334e-6
-1.491, 8.387e-6
-1.492, 8.438e-6
-1.493, 8.486e-6
-1.494, 8.537e-6
-1.495, 8.589e-6
-1.496, 8.636e-6
-1.497, 8.688e-6
-1.498, 8.739e-6
-1.499, 8.790e-6
-1.500, 8.844e-6
-1.501, 8.894e-6
-1.502, 8.945e-6
-1.503, 9.001e-6
-1.504, 9.057e-6
-1.505, 9.112e-6
-1.506, 9.164e-6
-1.507, 9.229e-6
-1.508, 9.287e-6
-1.509, 9.344e-6
-1.510, 9.405e-6
-1.511, 9.466e-6
-1.512, 9.533e-6
-1.513, 9.607e-6
-1.514, 9.669e-6
-1.515, 9.741e-6
-1.516, 9.824e-6
-1.517, 9.901e-6
-1.518, 9.961e-6
-1.519, 1.002e-5
-1.520, 1.009e-5
-1.521, 1.017e-5
-1.522, 1.025e-5
-1.523, 1.032e-5
-1.524, 1.039e-5
-1.525, 1.047e-5
-1.526, 1.055e-5
-1.527, 1.063e-5
-1.528, 1.071e-5
-1.529, 1.078e-5
-1.530, 1.087e-5
-1.531, 1.096e-5
-1.532, 1.105e-5
-1.533, 1.114e-5
-1.534, 1.122e-5
-1.535, 1.130e-5
-1.536, 1.139e-5
-1.537, 1.149e-5
-1.538, 1.158e-5
-1.539, 1.168e-5
-1.540, 1.177e-5
-1.541, 1.186e-5
-1.542, 1.197e-5
-1.543, 1.206e-5
-1.544, 1.216e-5
-1.545, 1.227e-5
-1.546, 1.237e-5
-1.547, 1.247e-5
-1.548, 1.259e-5
-1.549, 1.271e-5
-1.550, 1.284e-5
-1.551, 1.295e-5
-1.552, 1.307e-5
-1.553, 1.319e-5
-1.554, 1.332e-5
-1.555, 1.344e-5
-1.556, 1.357e-5
-1.557, 1.368e-5
-1.558, 1.382e-5
-1.559, 1.395e-5
-1.560, 1.408e-5
-1.561, 1.422e-5
-1.562, 1.435e-5
-1.563, 1.449e-5
-1.564, 1.463e-5
-1.565, 1.478e-5
-1.566, 1.494e-5
-1.567, 1.509e-5
-1.568, 1.524e-5
-1.569, 1.542e-5
-1.570, 1.557e-5
-1.571, 1.573e-5
-1.572, 1.590e-5
-1.573, 1.607e-5
-1.574, 1.626e-5
-1.575, 1.644e-5
-1.576, 1.661e-5
-1.577, 1.678e-5
-1.578, 1.695e-5
-1.579, 1.712e-5
-1.580, 1.729e-5
-1.581, 1.749e-5
-1.582, 1.768e-5
-1.583, 1.789e-5
-1.584, 1.808e-5
-1.585, 1.828e-5
-1.586, 1.848e-5
-1.587, 1.870e-5
-1.588, 1.891e-5
-1.589, 1.912e-5
-1.590, 1.934e-5
-1.591, 1.956e-5
-1.592, 1.979e-5
-1.593, 2.002e-5
-1.594, 2.025e-5
-1.595, 2.050e-5
-1.596, 2.074e-5
-1.597, 2.098e-5
-1.598, 2.125e-5
-1.599, 2.148e-5
-1.600, 2.173e-5
-1.601, 2.200e-5
-1.602, 2.228e-5
-1.603, 2.255e-5
-1.604, 2.282e-5
-1.605, 2.310e-5
-1.606, 2.339e-5
-1.607, 2.369e-5
-1.608, 2.398e-5
-1.609, 2.429e-5
-1.610, 2.458e-5
-1.611, 2.489e-5
-1.612, 2.521e-5
-1.613, 2.552e-5
-1.614, 2.584e-5
-1.615, 2.617e-5
-1.616, 2.650e-5
-1.617, 2.684e-5
-1.618, 2.719e-5
-1.619, 2.756e-5
-1.620, 2.790e-5
-1.621, 2.827e-5
-1.622, 2.862e-5
-1.623, 2.899e-5
-1.624, 2.937e-5
-1.625, 2.978e-5
-1.626, 3.017e-5
-1.627, 3.055e-5
-1.628, 3.097e-5
-1.629, 3.141e-5
-1.630, 3.185e-5
-1.631, 3.227e-5
-1.632, 3.271e-5
-1.633, 3.318e-5
-1.634, 3.366e-5
-1.635, 3.412e-5
-1.636, 3.461e-5
-1.637, 3.510e-5
-1.638, 3.558e-5
-1.639, 3.609e-5
-1.640, 3.657e-5
-1.641, 3.709e-5
-1.642, 3.760e-5
-1.643, 3.815e-5
-1.644, 3.870e-5
-1.645, 3.924e-5
-1.646, 3.982e-5
-1.647, 4.039e-5
-1.648, 4.097e-5
-1.649, 4.156e-5
-1.650, 4.214e-5
-1.651, 4.276e-5
-1.652, 4.339e-5
-1.653, 4.403e-5
-1.654, 4.467e-5
-1.655, 4.533e-5
-1.656, 4.598e-5
-1.657, 4.666e-5
-1.658, 4.735e-5
-1.659, 4.808e-5
-1.660, 4.882e-5
-1.661, 4.953e-5
-1.662, 5.029e-5
-1.663, 5.106e-5
-1.664, 5.182e-5
-1.665, 5.261e-5
-1.666, 5.340e-5
-1.667, 5.421e-5
-1.668, 5.505e-5
-1.669, 5.590e-5
-1.670, 5.677e-5
-1.671, 5.765e-5
-1.672, 5.852e-5
-1.673, 5.942e-5
-1.674, 6.034e-5
-1.675, 6.131e-5
-1.676, 6.228e-5
-1.677, 6.326e-5
-1.678, 6.427e-5
-1.679, 6.531e-5
-1.680, 6.637e-5
-1.681, 6.743e-5
-1.682, 6.847e-5
-1.683, 6.957e-5
-1.684, 7.073e-5
-1.685, 7.187e-5
-1.686, 7.302e-5
-1.687, 7.421e-5
-1.688, 7.542e-5
-1.689, 7.666e-5
-1.690, 7.791e-5
-1.691, 7.916e-5
-1.692, 8.005e-5
-1.693, 8.039e-5
-1.694, 8.152e-5
-1.695, 8.284e-5
-1.696, 8.423e-5
-1.697, 8.566e-5
-1.698, 8.713e-5
-1.699, 8.863e-5
-1.700, 9.016e-5
-1.701, 9.166e-5
-1.702, 9.325e-5
-1.703, 9.485e-5
-1.704, 9.654e-5
-1.705, 9.828e-5
-1.706, 1.000e-4
-1.707, 1.018e-4
-1.708, 1.036e-4
-1.709, 1.055e-4
-1.710, 1.075e-4
-1.711, 1.094e-4
-1.712, 1.114e-4
-1.713, 1.135e-4
-1.714, 1.157e-4
-1.715, 1.178e-4
-1.716, 1.200e-4
-1.717, 1.223e-4
-1.718, 1.246e-4
-1.719, 1.269e-4
-1.720, 1.294e-4
-1.721, 1.318e-4
-1.722, 1.344e-4
-1.723, 1.369e-4
-1.724, 1.396e-4
-1.725, 1.423e-4
-1.726, 1.451e-4
-1.727, 1.479e-4
-1.728, 1.507e-4
-1.729, 1.530e-4
-1.730, 1.555e-4
-1.731, 1.587e-4
-1.732, 1.613e-4
-1.733, 1.645e-4
-1.734, 1.678e-4
-1.735, 1.712e-4
-1.736, 1.747e-4
-1.737, 1.783e-4
-1.738, 1.820e-4
-1.739, 1.858e-4
-1.740, 1.896e-4
-1.741, 1.937e-4
-1.742, 1.978e-4
-1.743, 2.021e-4
-1.744, 2.064e-4
-1.745, 2.108e-4
-1.746, 2.153e-4
-1.747, 2.200e-4
-1.748, 2.250e-4
-1.749, 2.300e-4
-1.750, 2.351e-4
-1.751, 2.401e-4
-1.752, 2.453e-4
-1.753, 2.507e-4
-1.754, 2.562e-4
-1.755, 2.620e-4
-1.756, 2.680e-4
-1.757, 2.742e-4
-1.758, 2.805e-4
-1.759, 2.869e-4
-1.760, 2.933e-4
-1.761, 2.999e-4
-1.762, 3.067e-4
-1.763, 3.138e-4
-1.764, 3.211e-4
-1.765, 3.284e-4
-1.766, 3.357e-4
-1.767, 3.433e-4
-1.768, 3.509e-4
-1.769, 3.590e-4
-1.770, 3.676e-4
-1.771, 3.763e-4
-1.772, 3.852e-4
-1.773, 3.944e-4
-1.774, 4.038e-4
-1.775, 4.135e-4
-1.776, 4.234e-4
-1.777, 4.336e-4
-1.778, 4.440e-4
-1.779, 4.546e-4
-1.780, 4.654e-4
-1.781, 4.765e-4
-1.782, 4.880e-4
-1.783, 4.997e-4
-1.784, 5.116e-4
-1.785, 5.239e-4
-1.786, 5.365e-4
-1.787, 5.494e-4
-1.788, 5.625e-4
-1.789, 5.759e-4
-1.790, 5.896e-4
-1.791, 6.036e-4
-1.792, 6.179e-4
-1.793, 6.326e-4
-1.794, 6.475e-4
-1.795, 6.628e-4
-1.796, 6.784e-4
-1.797, 6.945e-4
-1.798, 7.108e-4
-1.799, 7.276e-4
-1.800, 7.447e-4
-1.801, 7.621e-4
-1.802, 7.799e-4
-1.803, 7.983e-4
-1.804, 8.169e-4
-1.805, 8.360e-4
-1.806, 8.552e-4
-1.807, 8.750e-4
-1.808, 8.952e-4
-1.809, 9.159e-4
-1.810, 9.369e-4
-1.811, 9.583e-4
-1.812, 9.802e-4
-1.813, 1.002e-3
-1.814, 1.011e-3
-1.815, 1.011e-3
-1.816, 1.011e-3
-1.817, 1.011e-3
-1.818, 1.011e-3
-1.819, 1.011e-3
-1.820, 1.011e-3
-1.821, 1.011e-3
-1.822, 1.011e-3
-1.823, 1.011e-3
-1.824, 1.011e-3
-1.825, 1.011e-3
-1.826, 1.011e-3
-1.827, 1.011e-3
-1.828, 1.011e-3
-1.829, 1.011e-3
-1.830, 1.011e-3
-1.831, 1.011e-3
-1.832, 1.011e-3
-1.833, 1.011e-3
-1.834, 1.011e-3
-1.835, 1.011e-3
-1.836, 1.011e-3
-1.837, 1.011e-3
-1.838, 1.011e-3
-1.839, 1.011e-3
-1.840, 1.011e-3
-1.841, 1.011e-3
-1.842, 1.011e-3
-1.843, 1.011e-3
-1.844, 1.011e-3
-1.845, 1.011e-3
-1.846, 1.011e-3
-1.847, 1.011e-3
-1.848, 1.011e-3
-1.849, 1.011e-3
-1.850, 1.011e-3
-1.851, 1.011e-3
-1.852, 1.011e-3
-1.853, 1.011e-3
-1.854, 1.011e-3
-1.855, 1.011e-3
-1.856, 1.011e-3
-1.857, 1.011e-3
-1.858, 1.011e-3
-1.859, 1.011e-3
-1.860, 1.011e-3
-1.861, 1.011e-3
-1.862, 1.011e-3
-1.863, 1.011e-3
-1.864, 1.011e-3
-1.865, 1.011e-3
-1.866, 1.011e-3
-1.867, 1.011e-3
-1.868, 1.011e-3
-1.869, 1.011e-3
-1.870, 1.011e-3
-1.871, 1.011e-3
-1.872, 1.011e-3
-1.873, 1.011e-3
-1.874, 1.011e-3
-1.875, 1.011e-3
-1.876, 1.011e-3
-1.877, 1.011e-3
-1.878, 1.011e-3
-1.879, 1.011e-3
-1.880, 1.011e-3
-1.881, 1.011e-3
-1.882, 1.011e-3
-1.883, 1.011e-3
-1.884, 1.011e-3
-1.885, 1.011e-3
-1.886, 1.011e-3
-1.887, 1.011e-3
-1.888, 1.011e-3
-1.889, 1.011e-3
-1.890, 1.011e-3
-1.891, 1.011e-3
-1.892, 1.011e-3
-1.893, 1.011e-3
-1.894, 1.011e-3
-1.895, 1.011e-3
-1.896, 1.011e-3
-1.897, 1.011e-3
-1.898, 1.011e-3
-1.899, 1.011e-3
