Sept. 9, 2024   10:07:57
Linear Sweep Voltammetry
File: c:/users/guazh/data/20240903_batch_252_500/2024-09-03-exp305\regeneratedgce-2024-09-09t10_03_19-lsvinkoh\regeneratedgce_lsv_50mvs_efin_-1900mv.bin
Data Source:  Experiment
Instrument Model:  CHI760E
Header: LSV ran at 50 mVs with Efin at -1900mV
Note: 

Init E (V) = -0.6
Final E (V) = -1.9
Scan Rate (V/s) = 0.05
Sample Interval (V) = 0.001
Quiet Time (sec) = 2
Sensitivity (A/V) = 1e-4
Comp R (ohm) = 2.6

Results:

Channel 1:

Potential/V, Current/A

-0.600, 3.845e-7
-0.601, 5.689e-7
-0.602, 6.246e-7
-0.603, 6.501e-7
-0.604, 6.663e-7
-0.605, 6.806e-7
-0.606, 6.638e-7
-0.607, 1.964e-7
-0.608, 1.754e-8
-0.609, 1.152e-8
-0.610, 1.182e-8
-0.611, 1.113e-8
-0.612, 2.465e-6
-0.613, 1.582e-6
-0.614, 9.500e-7
-0.615, 8.549e-7
-0.616, 8.211e-7
-0.617, 8.040e-7
-0.618, 7.945e-7
-0.619, 7.917e-7
-0.620, 7.886e-7
-0.621, 7.896e-7
-0.622, 6.498e-7
-0.623, 9.923e-8
-0.624, 1.399e-8
-0.625, 1.369e-8
-0.626, 2.019e-6
-0.627, 1.471e-6
-0.628, 9.532e-7
-0.629, 8.782e-7
-0.630, 8.553e-7
-0.631, 8.431e-7
-0.632, 8.341e-7
-0.633, 8.336e-7
-0.634, 8.313e-7
-0.635, 8.322e-7
-0.636, 8.343e-7
-0.637, 8.340e-7
-0.638, 8.386e-7
-0.639, 8.401e-7
-0.640, 8.428e-7
-0.641, 8.443e-7
-0.642, 8.430e-7
-0.643, 8.449e-7
-0.644, 8.469e-7
-0.645, 8.480e-7
-0.646, 8.529e-7
-0.647, 8.537e-7
-0.648, 8.554e-7
-0.649, 8.560e-7
-0.650, 4.142e-7
-0.651, 3.175e-8
-0.652, 1.152e-8
-0.653, 1.142e-8
-0.654, 1.113e-8
-0.655, 1.113e-8
-0.656, 1.162e-8
-0.657, 2.026e-6
-0.658, 3.374e-6
-0.659, 1.407e-6
-0.660, 1.113e-6
-0.661, 1.026e-6
-0.662, 9.839e-7
-0.663, 9.585e-7
-0.664, 9.428e-7
-0.665, 9.356e-7
-0.666, 9.310e-7
-0.667, 7.600e-7
-0.668, 1.129e-7
-0.669, 1.468e-8
-0.670, 1.379e-8
-0.671, 1.202e-8
-0.672, 2.644e-6
-0.673, 2.012e-6
-0.674, 1.169e-6
-0.675, 1.047e-6
-0.676, 1.000e-6
-0.677, 9.766e-7
-0.678, 9.657e-7
-0.679, 9.570e-7
-0.680, 9.529e-7
-0.681, 9.507e-7
-0.682, 7.213e-7
-0.683, 8.907e-8
-0.684, 1.340e-8
-0.685, 1.320e-8
-0.686, 1.152e-8
-0.687, 1.103e-8
-0.688, 3.304e-6
-0.689, 2.226e-6
-0.690, 1.261e-6
-0.691, 1.113e-6
-0.692, 1.057e-6
-0.693, 1.028e-6
-0.694, 1.013e-6
-0.695, 1.002e-6
-0.696, 9.960e-7
-0.697, 9.880e-7
-0.698, 4.441e-7
-0.699, 3.086e-8
-0.700, 1.310e-8
-0.701, 1.290e-8
-0.702, 1.044e-8
-0.703, 1.064e-8
-0.704, 4.789e-7
-0.705, 4.580e-6
-0.706, 1.881e-6
-0.707, 1.291e-6
-0.708, 1.163e-6
-0.709, 1.105e-6
-0.710, 1.076e-6
-0.711, 1.056e-6
-0.712, 1.044e-6
-0.713, 1.037e-6
-0.714, 8.841e-7
-0.715, 1.507e-7
-0.716, 1.577e-8
-0.717, 1.251e-8
-0.718, 1.133e-8
-0.719, 1.123e-8
-0.720, 1.202e-8
-0.721, 3.602e-6
-0.722, 2.854e-6
-0.723, 1.458e-6
-0.724, 1.242e-6
-0.725, 1.161e-6
-0.726, 1.122e-6
-0.727, 1.098e-6
-0.728, 1.085e-6
-0.729, 1.075e-6
-0.730, 9.788e-7
-0.731, 2.147e-7
-0.732, 1.675e-8
-0.733, 1.251e-8
-0.734, 1.162e-8
-0.735, 1.162e-8
-0.736, 1.231e-8
-0.737, 1.073e-8
-0.738, 9.649e-9
-0.739, 9.649e-9
-0.740, 5.476e-6
-0.741, 3.079e-6
-0.742, 1.631e-6
-0.743, 1.371e-6
-0.744, 1.264e-6
-0.745, 1.208e-6
-0.746, 1.174e-6
-0.747, 1.151e-6
-0.748, 1.136e-6
-0.749, 1.048e-6
-0.750, 2.480e-7
-0.751, 2.011e-8
-0.752, 1.182e-8
-0.753, 1.152e-8
-0.754, 1.073e-8
-0.755, 1.172e-8
-0.756, 1.182e-8
-0.757, 2.207e-6
-0.758, 4.813e-6
-0.759, 1.912e-6
-0.760, 1.448e-6
-0.761, 1.314e-6
-0.762, 1.245e-6
-0.763, 1.210e-6
-0.764, 1.186e-6
-0.765, 1.168e-6
-0.766, 1.158e-6
-0.767, 1.143e-6
-0.768, 4.787e-7
-0.769, 3.145e-8
-0.770, 1.340e-8
-0.771, 1.340e-8
-0.772, 1.182e-8
-0.773, 2.652e-8
-0.774, 4.564e-6
-0.775, 2.432e-6
-0.776, 1.501e-6
-0.777, 1.332e-6
-0.778, 1.262e-6
-0.779, 1.227e-6
-0.780, 1.205e-6
-0.781, 1.192e-6
-0.782, 1.182e-6
-0.783, 1.105e-6
-0.784, 2.742e-7
-0.785, 1.981e-8
-0.786, 1.379e-8
-0.787, 1.113e-8
-0.788, 1.103e-8
-0.789, 1.083e-8
-0.790, 1.083e-8
-0.791, 1.868e-7
-0.792, 6.084e-6
-0.793, 2.704e-6
-0.794, 1.661e-6
-0.795, 1.450e-6
-0.796, 1.358e-6
-0.797, 1.304e-6
-0.798, 1.274e-6
-0.799, 1.253e-6
-0.800, 1.241e-6
-0.801, 1.008e-6
-0.802, 1.428e-7
-0.803, 1.527e-8
-0.804, 1.251e-8
-0.805, 1.241e-8
-0.806, 2.072e-6
-0.807, 3.658e-6
-0.808, 1.724e-6
-0.809, 1.432e-6
-0.810, 1.344e-6
-0.811, 1.304e-6
-0.812, 1.279e-6
-0.813, 1.264e-6
-0.814, 1.256e-6
-0.815, 1.248e-6
-0.816, 1.246e-6
-0.817, 1.245e-6
-0.818, 1.242e-6
-0.819, 1.245e-6
-0.820, 1.246e-6
-0.821, 1.243e-6
-0.822, 1.245e-6
-0.823, 1.243e-6
-0.824, 1.245e-6
-0.825, 1.247e-6
-0.826, 1.248e-6
-0.827, 1.248e-6
-0.828, 1.249e-6
-0.829, 1.251e-6
-0.830, 1.255e-6
-0.831, 1.257e-6
-0.832, 1.261e-6
-0.833, 1.263e-6
-0.834, 1.266e-6
-0.835, 1.268e-6
-0.836, 1.271e-6
-0.837, 1.272e-6
-0.838, 1.276e-6
-0.839, 1.278e-6
-0.840, 1.282e-6
-0.841, 1.287e-6
-0.842, 1.289e-6
-0.843, 1.295e-6
-0.844, 1.299e-6
-0.845, 1.303e-6
-0.846, 1.310e-6
-0.847, 1.312e-6
-0.848, 1.319e-6
-0.849, 1.325e-6
-0.850, 1.331e-6
-0.851, 1.339e-6
-0.852, 1.348e-6
-0.853, 1.355e-6
-0.854, 1.366e-6
-0.855, 1.374e-6
-0.856, 1.382e-6
-0.857, 1.391e-6
-0.858, 1.400e-6
-0.859, 1.410e-6
-0.860, 1.421e-6
-0.861, 1.434e-6
-0.862, 1.447e-6
-0.863, 1.460e-6
-0.864, 1.000e-6
-0.865, 9.223e-8
-0.866, 1.527e-8
-0.867, 1.221e-8
-0.868, 1.123e-8
-0.869, 1.083e-8
-0.870, 1.133e-8
-0.871, 1.221e-8
-0.872, 1.014e-8
-0.873, 5.447e-6
-0.874, 5.764e-6
-0.875, 2.649e-6
-0.876, 2.156e-6
-0.877, 1.983e-6
-0.878, 1.904e-6
-0.879, 1.858e-6
-0.880, 1.834e-6
-0.881, 1.821e-6
-0.882, 1.813e-6
-0.883, 1.378e-6
-0.884, 1.582e-7
-0.885, 1.734e-8
-0.886, 1.478e-8
-0.887, 1.320e-8
-0.888, 1.172e-8
-0.889, 3.250e-6
-0.890, 6.248e-6
-0.891, 2.822e-6
-0.892, 2.272e-6
-0.893, 2.111e-6
-0.894, 2.035e-6
-0.895, 1.991e-6
-0.896, 1.965e-6
-0.897, 1.951e-6
-0.898, 1.940e-6
-0.899, 1.736e-6
-0.900, 3.314e-7
-0.901, 2.228e-8
-0.902, 1.379e-8
-0.903, 1.221e-8
-0.904, 2.704e-6
-0.905, 5.907e-6
-0.906, 2.803e-6
-0.907, 2.304e-6
-0.908, 2.163e-6
-0.909, 2.098e-6
-0.910, 2.061e-6
-0.911, 2.037e-6
-0.912, 2.023e-6
-0.913, 2.015e-6
-0.914, 2.009e-6
-0.915, 1.554e-6
-0.916, 1.859e-7
-0.917, 1.725e-8
-0.918, 1.073e-7
-0.919, 5.525e-6
-0.920, 3.210e-6
-0.921, 2.352e-6
-0.922, 2.196e-6
-0.923, 2.134e-6
-0.924, 2.102e-6
-0.925, 2.082e-6
-0.926, 2.072e-6
-0.927, 2.063e-6
-0.928, 2.061e-6
-0.929, 1.419e-6
-0.930, 1.300e-7
-0.931, 1.744e-8
-0.932, 1.379e-8
-0.933, 1.212e-8
-0.934, 1.241e-8
-0.935, 1.152e-8
-0.936, 7.915e-6
-0.937, 5.099e-6
-0.938, 2.922e-6
-0.939, 2.532e-6
-0.940, 2.379e-6
-0.941, 2.295e-6
-0.942, 2.248e-6
-0.943, 2.217e-6
-0.944, 2.198e-6
-0.945, 1.911e-6
-0.946, 3.292e-7
-0.947, 2.099e-8
-0.948, 1.438e-8
-0.949, 1.300e-8
-0.950, 1.261e-8
-0.951, 1.290e-8
-0.952, 4.062e-6
-0.953, 8.057e-6
-0.954, 3.540e-6
-0.955, 2.779e-6
-0.956, 2.546e-6
-0.957, 2.433e-6
-0.958, 2.368e-6
-0.959, 2.327e-6
-0.960, 2.300e-6
-0.961, 2.285e-6
-0.962, 1.705e-6
-0.963, 1.867e-7
-0.964, 1.843e-8
-0.965, 1.399e-8
-0.966, 1.399e-8
-0.967, 1.310e-8
-0.968, 2.361e-6
-0.969, 8.673e-6
-0.970, 3.795e-6
-0.971, 2.876e-6
-0.972, 2.632e-6
-0.973, 2.518e-6
-0.974, 2.454e-6
-0.975, 2.412e-6
-0.976, 2.384e-6
-0.977, 2.368e-6
-0.978, 2.356e-6
-0.979, 2.353e-6
-0.980, 2.348e-6
-0.981, 2.344e-6
-0.982, 2.341e-6
-0.983, 2.337e-6
-0.984, 2.339e-6
-0.985, 2.338e-6
-0.986, 2.339e-6
-0.987, 2.341e-6
-0.988, 2.342e-6
-0.989, 2.343e-6
-0.990, 2.062e-6
-0.991, 3.623e-7
-0.992, 2.238e-8
-0.993, 1.458e-8
-0.994, 1.182e-8
-0.995, 1.103e-8
-0.996, 3.698e-8
-0.997, 9.118e-6
-0.998, 5.272e-6
-0.999, 3.252e-6
-1.000, 2.866e-6
-1.001, 2.708e-6
-1.002, 2.619e-6
-1.003, 2.567e-6
-1.004, 2.534e-6
-1.005, 2.510e-6
-1.006, 2.443e-6
-1.007, 7.842e-7
-1.008, 3.816e-8
-1.009, 1.478e-8
-1.010, 1.290e-8
-1.011, 1.409e-8
-1.012, 1.231e-8
-1.013, 1.459e-6
-1.014, 1.062e-5
-1.015, 4.684e-6
-1.016, 3.310e-6
-1.017, 2.975e-6
-1.018, 2.819e-6
-1.019, 2.732e-6
-1.020, 2.677e-6
-1.021, 2.642e-6
-1.022, 2.616e-6
-1.023, 1.434e-6
-1.024, 9.588e-8
-1.025, 1.823e-8
-1.026, 1.557e-8
-1.027, 2.514e-8
-1.028, 8.125e-6
-1.029, 5.070e-6
-1.030, 3.283e-6
-1.031, 2.951e-6
-1.032, 2.816e-6
-1.033, 2.743e-6
-1.034, 2.700e-6
-1.035, 2.672e-6
-1.036, 2.654e-6
-1.037, 2.643e-6
-1.038, 2.636e-6
-1.039, 2.631e-6
-1.040, 2.624e-6
-1.041, 2.620e-6
-1.042, 2.612e-6
-1.043, 2.610e-6
-1.044, 2.610e-6
-1.045, 2.611e-6
-1.046, 2.619e-6
-1.047, 2.619e-6
-1.048, 2.617e-6
-1.049, 2.617e-6
-1.050, 2.614e-6
-1.051, 2.615e-6
-1.052, 2.612e-6
-1.053, 2.614e-6
-1.054, 2.618e-6
-1.055, 2.607e-6
-1.056, 1.104e-6
-1.057, 5.829e-8
-1.058, 1.577e-8
-1.059, 4.260e-8
-1.060, 7.405e-6
-1.061, 4.650e-6
-1.062, 3.214e-6
-1.063, 2.949e-6
-1.064, 2.844e-6
-1.065, 2.788e-6
-1.066, 2.751e-6
-1.067, 2.729e-6
-1.068, 2.713e-6
-1.069, 1.567e-6
-1.070, 1.071e-7
-1.071, 1.754e-8
-1.072, 1.606e-8
-1.073, 1.241e-8
-1.074, 4.006e-7
-1.075, 1.018e-5
-1.076, 5.171e-6
-1.077, 3.516e-6
-1.078, 3.163e-6
-1.079, 3.007e-6
-1.080, 2.922e-6
-1.081, 2.870e-6
-1.082, 2.832e-6
-1.083, 2.808e-6
-1.084, 2.792e-6
-1.085, 2.021e-6
-1.086, 2.047e-7
-1.087, 1.991e-8
-1.088, 1.438e-8
-1.089, 1.340e-8
-1.090, 4.674e-8
-1.091, 9.730e-6
-1.092, 5.775e-6
-1.093, 3.669e-6
-1.094, 3.260e-6
-1.095, 3.088e-6
-1.096, 2.994e-6
-1.097, 2.938e-6
-1.098, 2.895e-6
-1.099, 2.871e-6
-1.100, 1.669e-6
-1.101, 1.183e-7
-1.102, 1.912e-8
-1.103, 1.547e-8
-1.104, 1.350e-8
-1.105, 1.271e-8
-1.106, 1.192e-8
-1.107, 1.251e-8
-1.108, 1.221e-6
-1.109, 1.411e-5
-1.110, 6.269e-6
-1.111, 4.105e-6
-1.112, 3.585e-6
-1.113, 3.343e-6
-1.114, 3.205e-6
-1.115, 3.120e-6
-1.116, 3.062e-6
-1.117, 3.020e-6
-1.118, 1.586e-6
-1.119, 1.011e-7
-1.120, 2.011e-8
-1.121, 1.636e-8
-1.122, 1.488e-8
-1.123, 1.142e-8
-1.124, 1.290e-8
-1.125, 8.507e-7
-1.126, 1.358e-5
-1.127, 6.305e-6
-1.128, 4.122e-6
-1.129, 3.623e-6
-1.130, 3.390e-6
-1.131, 3.259e-6
-1.132, 3.174e-6
-1.133, 3.116e-6
-1.134, 3.076e-6
-1.135, 3.045e-6
-1.136, 2.287e-6
-1.137, 2.548e-7
-1.138, 2.129e-8
-1.139, 1.646e-8
-1.140, 1.389e-8
-1.141, 1.119e-6
-1.142, 1.080e-5
-1.143, 5.219e-6
-1.144, 3.779e-6
-1.145, 3.439e-6
-1.146, 3.280e-6
-1.147, 3.195e-6
-1.148, 3.140e-6
-1.149, 3.104e-6
-1.150, 3.080e-6
-1.151, 3.064e-6
-1.152, 3.057e-6
-1.153, 3.051e-6
-1.154, 3.042e-6
-1.155, 3.037e-6
-1.156, 3.032e-6
-1.157, 3.024e-6
-1.158, 3.020e-6
-1.159, 3.018e-6
-1.160, 3.017e-6
-1.161, 3.019e-6
-1.162, 2.980e-6
-1.163, 1.088e-6
-1.164, 5.375e-8
-1.165, 1.853e-8
-1.166, 1.547e-8
-1.167, 7.831e-6
-1.168, 5.901e-6
-1.169, 3.819e-6
-1.170, 3.448e-6
-1.171, 3.307e-6
-1.172, 3.233e-6
-1.173, 3.185e-6
-1.174, 3.154e-6
-1.175, 3.132e-6
-1.176, 3.120e-6
-1.177, 3.119e-6
-1.178, 3.117e-6
-1.179, 3.111e-6
-1.180, 3.106e-6
-1.181, 3.102e-6
-1.182, 3.098e-6
-1.183, 3.094e-6
-1.184, 3.096e-6
-1.185, 3.097e-6
-1.186, 3.098e-6
-1.187, 3.046e-6
-1.188, 1.022e-6
-1.189, 4.763e-8
-1.190, 1.675e-8
-1.191, 1.527e-8
-1.192, 1.478e-8
-1.193, 1.290e-8
-1.194, 1.152e-8
-1.195, 1.083e-8
-1.196, 4.266e-7
-1.197, 1.574e-5
-1.198, 7.846e-6
-1.199, 4.809e-6
-1.200, 4.138e-6
-1.201, 3.838e-6
-1.202, 3.664e-6
-1.203, 3.556e-6
-1.204, 3.486e-6
-1.205, 3.436e-6
-1.206, 3.403e-6
-1.207, 2.003e-6
-1.208, 1.430e-7
-1.209, 2.060e-8
-1.210, 1.685e-8
-1.211, 7.240e-6
-1.212, 6.933e-6
-1.213, 4.242e-6
-1.214, 3.792e-6
-1.215, 3.623e-6
-1.216, 3.536e-6
-1.217, 3.481e-6
-1.218, 3.440e-6
-1.219, 3.416e-6
-1.220, 3.399e-6
-1.221, 3.389e-6
-1.222, 2.987e-6
-1.223, 5.263e-7
-1.224, 2.741e-8
-1.225, 4.461e-6
-1.226, 6.516e-6
-1.227, 4.077e-6
-1.228, 3.697e-6
-1.229, 3.587e-6
-1.230, 3.526e-6
-1.231, 3.491e-6
-1.232, 3.471e-6
-1.233, 3.456e-6
-1.234, 3.445e-6
-1.235, 3.006e-6
-1.236, 5.105e-7
-1.237, 2.928e-8
-1.238, 1.675e-8
-1.239, 1.478e-8
-1.240, 5.643e-6
-1.241, 9.412e-6
-1.242, 4.906e-6
-1.243, 4.140e-6
-1.244, 3.901e-6
-1.245, 3.779e-6
-1.246, 3.707e-6
-1.247, 3.659e-6
-1.248, 3.629e-6
-1.249, 3.611e-6
-1.250, 3.603e-6
-1.251, 3.604e-6
-1.252, 3.606e-6
-1.253, 3.604e-6
-1.254, 3.599e-6
-1.255, 3.591e-6
-1.256, 3.587e-6
-1.257, 3.587e-6
-1.258, 3.584e-6
-1.259, 2.641e-6
-1.260, 2.714e-7
-1.261, 2.307e-8
-1.262, 1.784e-8
-1.263, 1.429e-8
-1.264, 1.300e-8
-1.265, 4.572e-6
-1.266, 1.264e-5
-1.267, 5.922e-6
-1.268, 4.634e-6
-1.269, 4.264e-6
-1.270, 4.090e-6
-1.271, 3.983e-6
-1.272, 3.918e-6
-1.273, 3.873e-6
-1.274, 3.839e-6
-1.275, 3.209e-6
-1.276, 4.755e-7
-1.277, 2.849e-8
-1.278, 1.784e-8
-1.279, 1.527e-8
-1.280, 1.330e-8
-1.281, 1.429e-8
-1.282, 8.842e-6
-1.283, 1.187e-5
-1.284, 5.870e-6
-1.285, 4.812e-6
-1.286, 4.452e-6
-1.287, 4.266e-6
-1.288, 4.154e-6
-1.289, 4.081e-6
-1.290, 4.030e-6
-1.291, 3.997e-6
-1.292, 3.853e-6
-1.293, 1.152e-6
-1.294, 5.266e-8
-1.295, 1.961e-8
-1.296, 1.754e-8
-1.297, 1.537e-8
-1.298, 1.369e-8
-1.299, 1.814e-6
-1.300, 1.609e-5
-1.301, 7.456e-6
-1.302, 5.208e-6
-1.303, 4.672e-6
-1.304, 4.421e-6
-1.305, 4.274e-6
-1.306, 4.178e-6
-1.307, 4.114e-6
-1.308, 4.066e-6
-1.309, 4.030e-6
-1.310, 2.290e-6
-1.311, 1.556e-7
-1.312, 2.405e-8
-1.313, 1.754e-8
-1.314, 1.478e-8
-1.315, 4.161e-8
-1.316, 1.346e-5
-1.317, 8.401e-6
-1.318, 5.250e-6
-1.319, 4.644e-6
-1.320, 4.398e-6
-1.321, 4.259e-6
-1.322, 4.164e-6
-1.323, 4.097e-6
-1.324, 4.050e-6
-1.325, 4.017e-6
-1.326, 3.999e-6
-1.327, 3.986e-6
-1.328, 3.970e-6
-1.329, 3.951e-6
-1.330, 3.929e-6
-1.331, 3.917e-6
-1.332, 3.908e-6
-1.333, 3.901e-6
-1.334, 3.902e-6
-1.335, 3.898e-6
-1.336, 3.894e-6
-1.337, 3.891e-6
-1.338, 3.886e-6
-1.339, 3.883e-6
-1.340, 3.256e-6
-1.341, 4.802e-7
-1.342, 2.849e-8
-1.343, 1.843e-8
-1.344, 1.596e-8
-1.345, 1.438e-8
-1.346, 1.458e-8
-1.347, 1.230e-5
-1.348, 1.067e-5
-1.349, 5.717e-6
-1.350, 4.871e-6
-1.351, 4.558e-6
-1.352, 4.401e-6
-1.353, 4.310e-6
-1.354, 4.252e-6
-1.355, 4.215e-6
-1.356, 4.045e-6
-1.357, 1.155e-6
-1.358, 5.336e-8
-1.359, 1.912e-8
-1.360, 1.725e-8
-1.361, 1.488e-8
-1.362, 1.200e-5
-1.363, 9.565e-6
-1.364, 5.589e-6
-1.365, 4.921e-6
-1.366, 4.679e-6
-1.367, 4.551e-6
-1.368, 4.479e-6
-1.369, 4.434e-6
-1.370, 4.409e-6
-1.371, 4.399e-6
-1.372, 2.493e-6
-1.373, 1.654e-7
-1.374, 2.198e-8
-1.375, 1.803e-8
-1.376, 1.616e-8
-1.377, 9.531e-7
-1.378, 1.649e-5
-1.379, 8.206e-6
-1.380, 5.689e-6
-1.381, 5.178e-6
-1.382, 4.964e-6
-1.383, 4.852e-6
-1.384, 4.783e-6
-1.385, 4.751e-6
-1.386, 4.680e-6
-1.387, 1.765e-6
-1.388, 8.572e-8
-1.389, 2.178e-8
-1.390, 1.813e-8
-1.391, 1.606e-8
-1.392, 3.942e-6
-1.393, 1.697e-5
-1.394, 7.807e-6
-1.395, 5.959e-6
-1.396, 5.519e-6
-1.397, 5.328e-6
-1.398, 5.229e-6
-1.399, 5.172e-6
-1.400, 5.146e-6
-1.401, 5.142e-6
-1.402, 5.153e-6
-1.403, 5.169e-6
-1.404, 5.182e-6
-1.405, 5.191e-6
-1.406, 5.206e-6
-1.407, 5.220e-6
-1.408, 5.241e-6
-1.409, 5.264e-6
-1.410, 5.290e-6
-1.411, 5.324e-6
-1.412, 5.093e-6
-1.413, 1.321e-6
-1.414, 1.995e-6
-1.415, 1.038e-5
-1.416, 6.545e-6
-1.417, 5.853e-6
-1.418, 5.741e-6
-1.419, 5.714e-6
-1.420, 5.714e-6
-1.421, 5.726e-6
-1.422, 5.746e-6
-1.423, 5.768e-6
-1.424, 5.805e-6
-1.425, 5.036e-6
-1.426, 8.115e-7
-1.427, 3.826e-8
-1.428, 2.109e-8
-1.429, 1.066e-5
-1.430, 1.260e-5
-1.431, 7.439e-6
-1.432, 6.722e-6
-1.433, 6.535e-6
-1.434, 6.466e-6
-1.435, 6.444e-6
-1.436, 6.441e-6
-1.437, 6.454e-6
-1.438, 6.365e-6
-1.439, 2.162e-6
-1.440, 9.479e-8
-1.441, 2.534e-8
-1.442, 2.099e-8
-1.443, 1.744e-8
-1.444, 1.468e-8
-1.445, 2.639e-6
-1.446, 2.670e-5
-1.447, 1.244e-5
-1.448, 8.733e-6
-1.449, 8.003e-6
-1.450, 7.717e-6
-1.451, 7.588e-6
-1.452, 7.531e-6
-1.453, 7.505e-6
-1.454, 7.508e-6
-1.455, 5.617e-6
-1.456, 6.102e-7
-1.457, 4.152e-8
-1.458, 2.563e-8
-1.459, 2.040e-8
-1.460, 1.418e-5
-1.461, 1.931e-5
-1.462, 1.026e-5
-1.463, 8.927e-6
-1.464, 8.575e-6
-1.465, 8.440e-6
-1.466, 8.391e-6
-1.467, 8.386e-6
-1.468, 8.399e-6
-1.469, 8.429e-6
-1.470, 7.785e-6
-1.471, 1.667e-6
-1.472, 7.378e-8
-1.473, 3.066e-8
-1.474, 2.208e-8
-1.475, 2.060e-8
-1.476, 2.436e-5
-1.477, 1.805e-5
-1.478, 1.109e-5
-1.479, 1.007e-5
-1.480, 9.758e-6
-1.481, 9.635e-6
-1.482, 9.590e-6
-1.483, 9.583e-6
-1.484, 9.602e-6
-1.485, 9.643e-6
-1.486, 6.296e-6
-1.487, 5.234e-7
-1.488, 4.438e-8
-1.489, 2.642e-8
-1.490, 2.188e-8
-1.491, 2.398e-5
-1.492, 2.032e-5
-1.493, 1.237e-5
-1.494, 1.129e-5
-1.495, 1.098e-5
-1.496, 1.087e-5
-1.497, 1.084e-5
-1.498, 1.084e-5
-1.499, 1.088e-5
-1.500, 1.093e-5
-1.501, 1.099e-5
-1.502, 1.001e-5
-1.503, 2.010e-6
-1.504, 8.670e-8
-1.505, 3.402e-8
-1.506, 2.701e-8
-1.507, 9.273e-6
-1.508, 3.287e-5
-1.509, 1.612e-5
-1.510, 1.323e-5
-1.511, 1.268e-5
-1.512, 1.249e-5
-1.513, 1.243e-5
-1.514, 1.243e-5
-1.515, 1.247e-5
-1.516, 1.252e-5
-1.517, 1.023e-5
-1.518, 1.413e-6
-1.519, 7.151e-8
-1.520, 3.579e-8
-1.521, 2.760e-8
-1.522, 2.267e-8
-1.523, 6.913e-6
-1.524, 4.319e-5
-1.525, 2.049e-5
-1.526, 1.569e-5
-1.527, 1.483e-5
-1.528, 1.453e-5
-1.529, 1.441e-5
-1.530, 1.438e-5
-1.531, 1.441e-5
-1.532, 1.446e-5
-1.533, 1.453e-5
-1.534, 1.424e-5
-1.535, 4.555e-6
-1.536, 2.230e-7
-1.537, 6.367e-6
-1.538, 3.234e-5
-1.539, 1.864e-5
-1.540, 1.623e-5
-1.541, 1.592e-5
-1.542, 1.586e-5
-1.543, 1.587e-5
-1.544, 1.592e-5
-1.545, 1.602e-5
-1.546, 1.612e-5
-1.547, 1.572e-5
-1.548, 4.749e-6
-1.549, 2.160e-7
-1.550, 4.882e-8
-1.551, 3.471e-8
-1.552, 2.839e-8
-1.553, 2.366e-8
-1.554, 3.396e-5
-1.555, 4.100e-5
-1.556, 2.212e-5
-1.557, 1.957e-5
-1.558, 1.897e-5
-1.559, 1.875e-5
-1.560, 1.870e-5
-1.561, 1.871e-5
-1.562, 1.877e-5
-1.563, 1.177e-5
-1.564, 1.002e-6
-1.565, 8.798e-8
-1.566, 4.892e-8
-1.567, 3.727e-8
-1.568, 1.199e-6
-1.569, 5.609e-5
-1.570, 3.197e-5
-1.571, 2.285e-5
-1.572, 2.159e-5
-1.573, 2.124e-5
-1.574, 2.113e-5
-1.575, 2.114e-5
-1.576, 2.121e-5
-1.577, 2.133e-5
-1.578, 2.146e-5
-1.579, 2.161e-5
-1.580, 2.169e-5
-1.581, 2.175e-5
-1.582, 2.191e-5
-1.583, 2.206e-5
-1.584, 2.222e-5
-1.585, 2.246e-5
-1.586, 2.267e-5
-1.587, 2.309e-5
-1.588, 2.370e-5
-1.589, 2.393e-5
-1.590, 2.415e-5
-1.591, 2.436e-5
-1.592, 2.458e-5
-1.593, 2.480e-5
-1.594, 2.502e-5
-1.595, 2.531e-5
-1.596, 2.555e-5
-1.597, 2.577e-5
-1.598, 2.600e-5
-1.599, 2.624e-5
-1.600, 2.648e-5
-1.601, 2.673e-5
-1.602, 2.102e-5
-1.603, 2.727e-6
-1.604, 1.493e-7
-1.605, 2.545e-6
-1.606, 5.953e-5
-1.607, 3.710e-5
-1.608, 3.029e-5
-1.609, 2.963e-5
-1.610, 2.958e-5
-1.611, 2.971e-5
-1.612, 2.991e-5
-1.613, 3.014e-5
-1.614, 3.040e-5
-1.615, 3.068e-5
-1.616, 2.706e-5
-1.617, 5.033e-6
-1.618, 2.449e-7
-1.619, 7.763e-8
-1.620, 5.247e-8
-1.621, 1.102e-5
-1.622, 7.814e-5
-1.623, 4.277e-5
-1.624, 3.564e-5
-1.625, 3.483e-5
-1.626, 3.477e-5
-1.627, 3.496e-5
-1.628, 3.524e-5
-1.629, 3.556e-5
-1.630, 3.589e-5
-1.631, 3.590e-5
-1.632, 1.456e-5
-1.633, 8.877e-7
-1.634, 1.249e-7
-1.635, 7.378e-8
-1.636, 5.306e-8
-1.637, 4.369e-8
-1.638, 3.617e-5
-1.639, 8.758e-5
-1.640, 4.836e-5
-1.641, 4.313e-5
-1.642, 4.263e-5
-1.643, 4.278e-5
-1.644, 4.312e-5
-1.645, 4.353e-5
-1.646, 4.399e-5
-1.647, 4.450e-5
-1.648, 4.505e-5
-1.649, 4.565e-5
-1.650, 4.628e-5
-1.651, 4.692e-5
-1.652, 4.755e-5
-1.653, 4.817e-5
-1.654, 4.880e-5
-1.655, 4.944e-5
-1.656, 5.005e-5
-1.657, 5.060e-5
-1.658, 5.086e-5
-1.659, 5.273e-5
-1.660, 5.402e-5
-1.661, 5.487e-5
-1.662, 5.574e-5
-1.663, 5.658e-5
-1.664, 5.741e-5
-1.665, 5.832e-5
-1.666, 5.924e-5
-1.667, 6.018e-5
-1.668, 6.113e-5
-1.669, 6.203e-5
-1.670, 6.295e-5
-1.671, 6.388e-5
-1.672, 6.486e-5
-1.673, 6.578e-5
-1.674, 6.649e-5
-1.675, 6.895e-5
-1.676, 7.049e-5
-1.677, 7.168e-5
-1.678, 7.287e-5
-1.679, 7.409e-5
-1.680, 7.534e-5
-1.681, 7.662e-5
-1.682, 7.792e-5
-1.683, 7.926e-5
-1.684, 8.058e-5
-1.685, 7.847e-5
-1.686, 2.331e-5
-1.687, 1.206e-6
-1.688, 1.921e-7
-1.689, 1.109e-7
-1.690, 8.039e-8
-1.691, 6.352e-8
-1.692, 5.474e-8
-1.693, 5.781e-5
-1.694, 1.422e-4
-1.695, 9.631e-5
-1.696, 9.309e-5
-1.697, 9.510e-5
-1.698, 9.747e-5
-1.699, 9.980e-5
-1.700, 1.015e-4
-1.701, 1.052e-4
-1.702, 1.082e-4
-1.703, 6.269e-5
-1.704, 5.563e-6
-1.705, 4.243e-7
-1.706, 1.801e-7
-1.707, 1.190e-7
-1.708, 8.976e-8
-1.709, 7.781e-5
-1.710, 1.567e-4
-1.711, 1.206e-4
-1.712, 1.210e-4
-1.713, 1.244e-4
-1.714, 1.275e-4
-1.715, 1.306e-4
-1.716, 1.341e-4
-1.717, 1.376e-4
-1.718, 1.410e-4
-1.719, 1.371e-4
-1.720, 4.049e-5
-1.721, 2.276e-6
-1.722, 3.228e-7
-1.723, 1.737e-7
-1.724, 6.910e-6
-1.725, 1.785e-4
-1.726, 1.597e-4
-1.727, 1.555e-4
-1.728, 1.613e-4
-1.729, 1.671e-4
-1.730, 1.724e-4
-1.731, 1.774e-4
-1.732, 1.823e-4
-1.733, 1.869e-4
-1.734, 1.915e-4
-1.735, 1.648e-4
-1.736, 3.028e-5
-1.737, 1.495e-6
-1.738, 3.155e-7
-1.739, 1.820e-7
-1.740, 1.028e-5
-1.741, 2.125e-4
-1.742, 2.074e-4
-1.743, 2.084e-4
-1.744, 2.170e-4
-1.745, 2.249e-4
-1.746, 2.324e-4
-1.747, 2.394e-4
-1.748, 2.461e-4
-1.749, 2.526e-4
-1.750, 1.716e-4
-1.751, 1.958e-5
-1.752, 1.059e-6
-1.753, 3.298e-7
-1.754, 1.992e-7
-1.755, 8.504e-5
-1.756, 2.731e-4
-1.757, 2.668e-4
-1.758, 2.777e-4
-1.759, 2.887e-4
-1.760, 2.992e-4
-1.761, 3.071e-4
-1.762, 3.154e-4
-1.763, 3.240e-4
-1.764, 3.331e-4
-1.765, 3.415e-4
-1.766, 3.499e-4
-1.767, 3.589e-4
-1.768, 3.676e-4
-1.769, 3.763e-4
-1.770, 3.853e-4
-1.771, 3.951e-4
-1.772, 4.053e-4
-1.773, 4.160e-4
-1.774, 4.270e-4
-1.775, 4.379e-4
-1.776, 4.484e-4
-1.777, 4.593e-4
-1.778, 4.698e-4
-1.779, 4.808e-4
-1.780, 4.929e-4
-1.781, 5.056e-4
-1.782, 5.183e-4
-1.783, 5.308e-4
-1.784, 5.428e-4
-1.785, 5.551e-4
-1.786, 5.677e-4
-1.787, 5.802e-4
-1.788, 4.438e-4
-1.789, 7.088e-5
-1.790, 4.172e-6
-1.791, 7.791e-7
-1.792, 4.326e-7
-1.793, 3.020e-7
-1.794, 1.662e-4
-1.795, 5.420e-4
-1.796, 6.065e-4
-1.797, 6.392e-4
-1.798, 6.668e-4
-1.799, 6.913e-4
-1.800, 7.147e-4
-1.801, 7.372e-4
-1.802, 7.598e-4
-1.803, 7.817e-4
-1.804, 8.022e-4
-1.805, 5.556e-4
-1.806, 8.011e-5
-1.807, 4.934e-6
-1.808, 9.321e-7
-1.809, 2.039e-4
-1.810, 6.997e-4
-1.811, 8.136e-4
-1.812, 8.637e-4
-1.813, 9.046e-4
-1.814, 9.402e-4
-1.815, 9.729e-4
-1.816, 1.003e-3
-1.817, 1.011e-3
-1.818, 1.011e-3
-1.819, 1.011e-3
-1.820, 7.090e-4
-1.821, 1.051e-4
-1.822, 7.139e-6
-1.823, 1.263e-6
-1.824, 9.883e-7
-1.825, 4.956e-4
-1.826, 9.979e-4
-1.827, 1.011e-3
-1.828, 1.011e-3
-1.829, 1.011e-3
-1.830, 1.011e-3
-1.831, 1.011e-3
-1.832, 1.011e-3
-1.833, 1.011e-3
-1.834, 1.011e-3
-1.835, 6.347e-4
-1.836, 8.240e-5
-1.837, 5.841e-6
-1.838, 1.279e-6
-1.839, 7.261e-7
-1.840, 5.164e-7
-1.841, 2.644e-6
-1.842, 6.408e-4
-1.843, 1.011e-3
-1.844, 1.011e-3
-1.845, 1.011e-3
-1.846, 1.011e-3
-1.847, 1.011e-3
-1.848, 1.011e-3
-1.849, 1.011e-3
-1.850, 1.011e-3
-1.851, 1.011e-3
-1.852, 1.011e-3
-1.853, 1.011e-3
-1.854, 1.011e-3
-1.855, 1.011e-3
-1.856, 1.011e-3
-1.857, 1.011e-3
-1.858, 1.011e-3
-1.859, 1.011e-3
-1.860, 1.011e-3
-1.861, 1.011e-3
-1.862, 1.011e-3
-1.863, 1.011e-3
-1.864, 1.011e-3
-1.865, 5.782e-4
-1.866, 6.978e-5
-1.867, 5.360e-6
-1.868, 1.359e-6
-1.869, 1.075e-4
-1.870, 9.146e-4
-1.871, 1.011e-3
-1.872, 1.011e-3
-1.873, 1.011e-3
-1.874, 1.011e-3
-1.875, 1.011e-3
-1.876, 1.011e-3
-1.877, 1.011e-3
-1.878, 1.011e-3
-1.879, 1.011e-3
-1.880, 5.633e-4
-1.881, 6.624e-5
-1.882, 5.009e-6
-1.883, 9.211e-6
-1.884, 7.225e-4
-1.885, 1.011e-3
-1.886, 1.011e-3
-1.887, 1.011e-3
-1.888, 1.011e-3
-1.889, 1.011e-3
-1.890, 1.011e-3
-1.891, 1.011e-3
-1.892, 1.011e-3
-1.893, 1.010e-3
-1.894, 4.770e-4
-1.895, 5.085e-5
-1.896, 4.048e-6
-1.897, 1.208e-6
-1.898, 7.397e-7
-1.899, 5.420e-7
