Apr. 9, 2025   08:13:11
Linear Sweep Voltammetry
File: c:/users/guazh/data/banditlqround7_x0exp994_r5/2025-03-28-exp1026\post-regen1-2025-04-09t08_10_00-lsvinphos\post-regen1_lsv_50mvs_efin_-2300mv.bin
Data Source:  Experiment
Instrument Model:  CHI760E
Header: LSV ran at 50 mVs with Efin at -2300mV
Note: 

Init E (V) = -0.6
Final E (V) = -2.3
Scan Rate (V/s) = 0.05
Sample Interval (V) = 0.001
Quiet Time (sec) = 2
Sensitivity (A/V) = 1e-4
Comp R (ohm) = 8.7

Results:

Channel 1:
Ep = -1.893V
ip = 8.535e-4A
Ah = 1.214e-3C

Potential/V, Current/A

-0.600, 2.093e-6
-0.601, 2.179e-6
-0.602, 2.213e-6
-0.603, 2.238e-6
-0.604, 2.262e-6
-0.605, 2.286e-6
-0.606, 2.311e-6
-0.607, 2.333e-6
-0.608, 2.356e-6
-0.609, 2.379e-6
-0.610, 2.402e-6
-0.611, 2.425e-6
-0.612, 2.447e-6
-0.613, 2.469e-6
-0.614, 2.491e-6
-0.615, 2.516e-6
-0.616, 2.539e-6
-0.617, 2.562e-6
-0.618, 2.584e-6
-0.619, 2.608e-6
-0.620, 2.633e-6
-0.621, 2.656e-6
-0.622, 2.679e-6
-0.623, 2.702e-6
-0.624, 2.724e-6
-0.625, 2.750e-6
-0.626, 2.773e-6
-0.627, 2.797e-6
-0.628, 2.822e-6
-0.629, 2.846e-6
-0.630, 2.871e-6
-0.631, 2.896e-6
-0.632, 2.920e-6
-0.633, 2.945e-6
-0.634, 2.969e-6
-0.635, 2.996e-6
-0.636, 3.022e-6
-0.637, 3.046e-6
-0.638, 3.072e-6
-0.639, 3.098e-6
-0.640, 3.126e-6
-0.641, 3.153e-6
-0.642, 3.178e-6
-0.643, 3.204e-6
-0.644, 3.231e-6
-0.645, 3.258e-6
-0.646, 3.284e-6
-0.647, 3.310e-6
-0.648, 3.339e-6
-0.649, 3.366e-6
-0.650, 3.396e-6
-0.651, 3.424e-6
-0.652, 3.451e-6
-0.653, 3.478e-6
-0.654, 3.506e-6
-0.655, 3.537e-6
-0.656, 3.565e-6
-0.657, 3.592e-6
-0.658, 3.621e-6
-0.659, 3.650e-6
-0.660, 3.681e-6
-0.661, 3.711e-6
-0.662, 3.739e-6
-0.663, 3.768e-6
-0.664, 3.797e-6
-0.665, 3.830e-6
-0.666, 3.861e-6
-0.667, 3.890e-6
-0.668, 3.920e-6
-0.669, 3.949e-6
-0.670, 3.982e-6
-0.671, 4.011e-6
-0.672, 4.041e-6
-0.673, 4.071e-6
-0.674, 4.102e-6
-0.675, 4.135e-6
-0.676, 4.165e-6
-0.677, 4.194e-6
-0.678, 4.224e-6
-0.679, 4.254e-6
-0.680, 4.288e-6
-0.681, 4.320e-6
-0.682, 4.350e-6
-0.683, 4.381e-6
-0.684, 4.413e-6
-0.685, 4.446e-6
-0.686, 4.479e-6
-0.687, 4.510e-6
-0.688, 4.545e-6
-0.689, 4.577e-6
-0.690, 4.610e-6
-0.691, 4.644e-6
-0.692, 4.675e-6
-0.693, 4.707e-6
-0.694, 4.740e-6
-0.695, 4.773e-6
-0.696, 4.806e-6
-0.697, 4.838e-6
-0.698, 4.870e-6
-0.699, 4.902e-6
-0.700, 4.935e-6
-0.701, 4.968e-6
-0.702, 5.001e-6
-0.703, 5.033e-6
-0.704, 5.067e-6
-0.705, 5.102e-6
-0.706, 5.134e-6
-0.707, 5.165e-6
-0.708, 5.198e-6
-0.709, 5.230e-6
-0.710, 5.264e-6
-0.711, 5.298e-6
-0.712, 5.329e-6
-0.713, 5.361e-6
-0.714, 5.393e-6
-0.715, 5.426e-6
-0.716, 5.458e-6
-0.717, 5.489e-6
-0.718, 5.522e-6
-0.719, 5.555e-6
-0.720, 5.588e-6
-0.721, 5.621e-6
-0.722, 5.649e-6
-0.723, 5.680e-6
-0.724, 5.713e-6
-0.725, 5.745e-6
-0.726, 5.777e-6
-0.727, 5.807e-6
-0.728, 5.837e-6
-0.729, 5.869e-6
-0.730, 5.899e-6
-0.731, 5.926e-6
-0.732, 5.954e-6
-0.733, 5.983e-6
-0.734, 6.013e-6
-0.735, 6.044e-6
-0.736, 6.073e-6
-0.737, 6.101e-6
-0.738, 6.130e-6
-0.739, 6.157e-6
-0.740, 6.184e-6
-0.741, 6.211e-6
-0.742, 6.237e-6
-0.743, 6.264e-6
-0.744, 6.291e-6
-0.745, 6.320e-6
-0.746, 6.346e-6
-0.747, 6.373e-6
-0.748, 6.397e-6
-0.749, 6.424e-6
-0.750, 6.450e-6
-0.751, 6.474e-6
-0.752, 6.497e-6
-0.753, 6.521e-6
-0.754, 6.546e-6
-0.755, 6.571e-6
-0.756, 6.595e-6
-0.757, 6.616e-6
-0.758, 6.639e-6
-0.759, 6.661e-6
-0.760, 6.684e-6
-0.761, 6.705e-6
-0.762, 6.723e-6
-0.763, 6.745e-6
-0.764, 6.766e-6
-0.765, 6.786e-6
-0.766, 6.806e-6
-0.767, 6.825e-6
-0.768, 6.845e-6
-0.769, 6.865e-6
-0.770, 6.882e-6
-0.771, 6.898e-6
-0.772, 6.915e-6
-0.773, 6.931e-6
-0.774, 6.947e-6
-0.775, 6.964e-6
-0.776, 6.979e-6
-0.777, 6.993e-6
-0.778, 7.006e-6
-0.779, 7.021e-6
-0.780, 7.036e-6
-0.781, 7.049e-6
-0.782, 7.062e-6
-0.783, 7.074e-6
-0.784, 7.086e-6
-0.785, 7.099e-6
-0.786, 7.109e-6
-0.787, 7.120e-6
-0.788, 7.130e-6
-0.789, 7.139e-6
-0.790, 7.150e-6
-0.791, 7.158e-6
-0.792, 7.166e-6
-0.793, 7.175e-6
-0.794, 7.182e-6
-0.795, 7.190e-6
-0.796, 7.199e-6
-0.797, 7.204e-6
-0.798, 7.210e-6
-0.799, 7.216e-6
-0.800, 7.222e-6
-0.801, 7.227e-6
-0.802, 7.230e-6
-0.803, 7.234e-6
-0.804, 7.237e-6
-0.805, 7.242e-6
-0.806, 7.246e-6
-0.807, 7.246e-6
-0.808, 7.247e-6
-0.809, 7.251e-6
-0.810, 7.254e-6
-0.811, 7.254e-6
-0.812, 7.254e-6
-0.813, 7.254e-6
-0.814, 7.255e-6
-0.815, 7.255e-6
-0.816, 7.254e-6
-0.817, 7.252e-6
-0.818, 7.250e-6
-0.819, 7.252e-6
-0.820, 7.254e-6
-0.821, 7.249e-6
-0.822, 7.246e-6
-0.823, 7.243e-6
-0.824, 7.240e-6
-0.825, 7.239e-6
-0.826, 7.233e-6
-0.827, 7.229e-6
-0.828, 7.223e-6
-0.829, 7.219e-6
-0.830, 7.217e-6
-0.831, 7.211e-6
-0.832, 7.206e-6
-0.833, 7.199e-6
-0.834, 7.193e-6
-0.835, 7.190e-6
-0.836, 7.183e-6
-0.837, 7.176e-6
-0.838, 7.169e-6
-0.839, 7.162e-6
-0.840, 7.157e-6
-0.841, 7.149e-6
-0.842, 7.140e-6
-0.843, 7.133e-6
-0.844, 7.125e-6
-0.845, 7.121e-6
-0.846, 7.113e-6
-0.847, 7.103e-6
-0.848, 7.094e-6
-0.849, 7.086e-6
-0.850, 7.078e-6
-0.851, 7.069e-6
-0.852, 7.060e-6
-0.853, 7.050e-6
-0.854, 7.043e-6
-0.855, 7.033e-6
-0.856, 7.024e-6
-0.857, 7.014e-6
-0.858, 7.005e-6
-0.859, 6.996e-6
-0.860, 6.988e-6
-0.861, 6.976e-6
-0.862, 6.967e-6
-0.863, 6.956e-6
-0.864, 6.948e-6
-0.865, 6.939e-6
-0.866, 6.929e-6
-0.867, 6.918e-6
-0.868, 6.907e-6
-0.869, 6.898e-6
-0.870, 6.890e-6
-0.871, 6.881e-6
-0.872, 6.869e-6
-0.873, 6.860e-6
-0.874, 6.850e-6
-0.875, 6.842e-6
-0.876, 6.830e-6
-0.877, 6.820e-6
-0.878, 6.809e-6
-0.879, 6.797e-6
-0.880, 6.789e-6
-0.881, 6.778e-6
-0.882, 6.766e-6
-0.883, 6.756e-6
-0.884, 6.746e-6
-0.885, 6.738e-6
-0.886, 6.727e-6
-0.887, 6.716e-6
-0.888, 6.704e-6
-0.889, 6.696e-6
-0.890, 6.687e-6
-0.891, 6.676e-6
-0.892, 6.665e-6
-0.893, 6.655e-6
-0.894, 6.646e-6
-0.895, 6.638e-6
-0.896, 6.627e-6
-0.897, 6.617e-6
-0.898, 6.604e-6
-0.899, 6.596e-6
-0.900, 6.587e-6
-0.901, 6.577e-6
-0.902, 6.568e-6
-0.903, 6.556e-6
-0.904, 6.547e-6
-0.905, 6.540e-6
-0.906, 6.527e-6
-0.907, 6.519e-6
-0.908, 6.509e-6
-0.909, 6.501e-6
-0.910, 6.493e-6
-0.911, 6.482e-6
-0.912, 6.473e-6
-0.913, 6.465e-6
-0.914, 6.455e-6
-0.915, 6.448e-6
-0.916, 6.438e-6
-0.917, 6.429e-6
-0.918, 6.420e-6
-0.919, 6.411e-6
-0.920, 6.403e-6
-0.921, 6.394e-6
-0.922, 6.385e-6
-0.923, 6.376e-6
-0.924, 6.369e-6
-0.925, 6.362e-6
-0.926, 6.352e-6
-0.927, 6.344e-6
-0.928, 6.336e-6
-0.929, 6.329e-6
-0.930, 6.321e-6
-0.931, 6.313e-6
-0.932, 6.304e-6
-0.933, 6.294e-6
-0.934, 6.289e-6
-0.935, 6.282e-6
-0.936, 6.273e-6
-0.937, 6.266e-6
-0.938, 6.257e-6
-0.939, 6.250e-6
-0.940, 6.244e-6
-0.941, 6.236e-6
-0.942, 6.230e-6
-0.943, 6.222e-6
-0.944, 6.216e-6
-0.945, 6.211e-6
-0.946, 6.203e-6
-0.947, 6.197e-6
-0.948, 6.190e-6
-0.949, 6.184e-6
-0.950, 6.180e-6
-0.951, 6.172e-6
-0.952, 6.165e-6
-0.953, 6.159e-6
-0.954, 6.153e-6
-0.955, 6.149e-6
-0.956, 6.141e-6
-0.957, 6.135e-6
-0.958, 6.128e-6
-0.959, 6.123e-6
-0.960, 6.119e-6
-0.961, 6.112e-6
-0.962, 6.105e-6
-0.963, 6.099e-6
-0.964, 6.095e-6
-0.965, 6.089e-6
-0.966, 6.083e-6
-0.967, 6.077e-6
-0.968, 6.070e-6
-0.969, 6.066e-6
-0.970, 6.061e-6
-0.971, 6.054e-6
-0.972, 6.049e-6
-0.973, 6.045e-6
-0.974, 6.040e-6
-0.975, 6.036e-6
-0.976, 6.030e-6
-0.977, 6.026e-6
-0.978, 6.019e-6
-0.979, 6.015e-6
-0.980, 6.013e-6
-0.981, 6.005e-6
-0.982, 6.002e-6
-0.983, 5.996e-6
-0.984, 5.992e-6
-0.985, 5.989e-6
-0.986, 5.983e-6
-0.987, 5.978e-6
-0.988, 5.974e-6
-0.989, 5.971e-6
-0.990, 5.967e-6
-0.991, 5.962e-6
-0.992, 5.958e-6
-0.993, 5.954e-6
-0.994, 5.951e-6
-0.995, 5.950e-6
-0.996, 5.944e-6
-0.997, 5.940e-6
-0.998, 5.938e-6
-0.999, 5.935e-6
-1.000, 5.932e-6
-1.001, 5.928e-6
-1.002, 5.923e-6
-1.003, 5.920e-6
-1.004, 5.918e-6
-1.005, 5.916e-6
-1.006, 5.913e-6
-1.007, 5.909e-6
-1.008, 5.904e-6
-1.009, 5.902e-6
-1.010, 5.900e-6
-1.011, 5.898e-6
-1.012, 5.895e-6
-1.013, 5.892e-6
-1.014, 5.891e-6
-1.015, 5.888e-6
-1.016, 5.885e-6
-1.017, 5.883e-6
-1.018, 5.879e-6
-1.019, 5.878e-6
-1.020, 5.877e-6
-1.021, 5.873e-6
-1.022, 5.872e-6
-1.023, 5.868e-6
-1.024, 5.869e-6
-1.025, 5.867e-6
-1.026, 5.863e-6
-1.027, 5.862e-6
-1.028, 5.858e-6
-1.029, 5.858e-6
-1.030, 5.858e-6
-1.031, 5.855e-6
-1.032, 5.852e-6
-1.033, 5.851e-6
-1.034, 5.849e-6
-1.035, 5.848e-6
-1.036, 5.846e-6
-1.037, 5.845e-6
-1.038, 5.843e-6
-1.039, 5.842e-6
-1.040, 5.842e-6
-1.041, 5.839e-6
-1.042, 5.837e-6
-1.043, 5.836e-6
-1.044, 5.835e-6
-1.045, 5.835e-6
-1.046, 5.834e-6
-1.047, 5.832e-6
-1.048, 5.830e-6
-1.049, 5.831e-6
-1.050, 5.831e-6
-1.051, 5.829e-6
-1.052, 5.829e-6
-1.053, 5.826e-6
-1.054, 5.828e-6
-1.055, 5.827e-6
-1.056, 5.826e-6
-1.057, 5.825e-6
-1.058, 5.824e-6
-1.059, 5.824e-6
-1.060, 5.825e-6
-1.061, 5.822e-6
-1.062, 5.822e-6
-1.063, 5.822e-6
-1.064, 5.823e-6
-1.065, 5.824e-6
-1.066, 5.821e-6
-1.067, 5.823e-6
-1.068, 5.820e-6
-1.069, 5.822e-6
-1.070, 5.822e-6
-1.071, 5.821e-6
-1.072, 5.820e-6
-1.073, 5.821e-6
-1.074, 5.820e-6
-1.075, 5.824e-6
-1.076, 5.823e-6
-1.077, 5.822e-6
-1.078, 5.821e-6
-1.079, 5.823e-6
-1.080, 5.824e-6
-1.081, 5.823e-6
-1.082, 5.823e-6
-1.083, 5.823e-6
-1.084, 5.825e-6
-1.085, 5.825e-6
-1.086, 5.824e-6
-1.087, 5.824e-6
-1.088, 5.825e-6
-1.089, 5.828e-6
-1.090, 5.827e-6
-1.091, 5.827e-6
-1.092, 5.829e-6
-1.093, 5.828e-6
-1.094, 5.830e-6
-1.095, 5.831e-6
-1.096, 5.829e-6
-1.097, 5.831e-6
-1.098, 5.831e-6
-1.099, 5.833e-6
-1.100, 5.835e-6
-1.101, 5.835e-6
-1.102, 5.834e-6
-1.103, 5.835e-6
-1.104, 5.837e-6
-1.105, 5.840e-6
-1.106, 5.840e-6
-1.107, 5.840e-6
-1.108, 5.841e-6
-1.109, 5.842e-6
-1.110, 5.844e-6
-1.111, 5.845e-6
-1.112, 5.846e-6
-1.113, 5.848e-6
-1.114, 5.851e-6
-1.115, 5.850e-6
-1.116, 5.851e-6
-1.117, 5.852e-6
-1.118, 5.853e-6
-1.119, 5.856e-6
-1.120, 5.858e-6
-1.121, 5.859e-6
-1.122, 5.859e-6
-1.123, 5.860e-6
-1.124, 5.864e-6
-1.125, 5.865e-6
-1.126, 5.867e-6
-1.127, 5.867e-6
-1.128, 5.868e-6
-1.129, 5.872e-6
-1.130, 5.873e-6
-1.131, 5.874e-6
-1.132, 5.876e-6
-1.133, 5.877e-6
-1.134, 5.881e-6
-1.135, 5.881e-6
-1.136, 5.883e-6
-1.137, 5.884e-6
-1.138, 5.886e-6
-1.139, 5.890e-6
-1.140, 5.892e-6
-1.141, 5.894e-6
-1.142, 5.895e-6
-1.143, 5.897e-6
-1.144, 5.900e-6
-1.145, 5.902e-6
-1.146, 5.902e-6
-1.147, 5.905e-6
-1.148, 5.906e-6
-1.149, 5.910e-6
-1.150, 5.913e-6
-1.151, 5.914e-6
-1.152, 5.916e-6
-1.153, 5.918e-6
-1.154, 5.922e-6
-1.155, 5.925e-6
-1.156, 5.927e-6
-1.157, 5.928e-6
-1.158, 5.931e-6
-1.159, 5.935e-6
-1.160, 5.938e-6
-1.161, 5.941e-6
-1.162, 5.942e-6
-1.163, 5.944e-6
-1.164, 5.949e-6
-1.165, 5.951e-6
-1.166, 5.954e-6
-1.167, 5.956e-6
-1.168, 5.960e-6
-1.169, 5.964e-6
-1.170, 5.966e-6
-1.171, 5.969e-6
-1.172, 5.972e-6
-1.173, 5.974e-6
-1.174, 5.980e-6
-1.175, 5.982e-6
-1.176, 5.985e-6
-1.177, 5.989e-6
-1.178, 5.992e-6
-1.179, 5.997e-6
-1.180, 6.000e-6
-1.181, 6.001e-6
-1.182, 6.006e-6
-1.183, 6.009e-6
-1.184, 6.013e-6
-1.185, 6.018e-6
-1.186, 6.019e-6
-1.187, 6.024e-6
-1.188, 6.026e-6
-1.189, 6.031e-6
-1.190, 6.036e-6
-1.191, 6.038e-6
-1.192, 6.041e-6
-1.193, 6.045e-6
-1.194, 6.050e-6
-1.195, 6.054e-6
-1.196, 6.057e-6
-1.197, 6.059e-6
-1.198, 6.064e-6
-1.199, 6.069e-6
-1.200, 6.072e-6
-1.201, 6.074e-6
-1.202, 6.078e-6
-1.203, 6.083e-6
-1.204, 6.088e-6
-1.205, 6.091e-6
-1.206, 6.095e-6
-1.207, 6.098e-6
-1.208, 6.102e-6
-1.209, 6.109e-6
-1.210, 6.113e-6
-1.211, 6.116e-6
-1.212, 6.119e-6
-1.213, 6.124e-6
-1.214, 6.130e-6
-1.215, 6.133e-6
-1.216, 6.136e-6
-1.217, 6.141e-6
-1.218, 6.144e-6
-1.219, 6.151e-6
-1.220, 6.155e-6
-1.221, 6.158e-6
-1.222, 6.161e-6
-1.223, 6.165e-6
-1.224, 6.171e-6
-1.225, 6.175e-6
-1.226, 6.178e-6
-1.227, 6.182e-6
-1.228, 6.187e-6
-1.229, 6.196e-6
-1.230, 6.199e-6
-1.231, 6.201e-6
-1.232, 6.204e-6
-1.233, 6.210e-6
-1.234, 6.215e-6
-1.235, 6.220e-6
-1.236, 6.224e-6
-1.237, 6.227e-6
-1.238, 6.232e-6
-1.239, 6.239e-6
-1.240, 6.243e-6
-1.241, 6.246e-6
-1.242, 6.251e-6
-1.243, 6.255e-6
-1.244, 6.263e-6
-1.245, 6.267e-6
-1.246, 6.271e-6
-1.247, 6.275e-6
-1.248, 6.281e-6
-1.249, 6.288e-6
-1.250, 6.292e-6
-1.251, 6.297e-6
-1.252, 6.301e-6
-1.253, 6.307e-6
-1.254, 6.314e-6
-1.255, 6.320e-6
-1.256, 6.323e-6
-1.257, 6.328e-6
-1.258, 6.333e-6
-1.259, 6.341e-6
-1.260, 6.346e-6
-1.261, 6.350e-6
-1.262, 6.357e-6
-1.263, 6.360e-6
-1.264, 6.367e-6
-1.265, 6.373e-6
-1.266, 6.378e-6
-1.267, 6.383e-6
-1.268, 6.389e-6
-1.269, 6.396e-6
-1.270, 6.401e-6
-1.271, 6.406e-6
-1.272, 6.411e-6
-1.273, 6.417e-6
-1.274, 6.425e-6
-1.275, 6.431e-6
-1.276, 6.435e-6
-1.277, 6.440e-6
-1.278, 6.447e-6
-1.279, 6.454e-6
-1.280, 6.462e-6
-1.281, 6.467e-6
-1.282, 6.470e-6
-1.283, 6.478e-6
-1.284, 6.485e-6
-1.285, 6.490e-6
-1.286, 6.496e-6
-1.287, 6.503e-6
-1.288, 6.508e-6
-1.289, 6.517e-6
-1.290, 6.523e-6
-1.291, 6.529e-6
-1.292, 6.535e-6
-1.293, 6.542e-6
-1.294, 6.550e-6
-1.295, 6.556e-6
-1.296, 6.562e-6
-1.297, 6.568e-6
-1.298, 6.575e-6
-1.299, 6.584e-6
-1.300, 6.590e-6
-1.301, 6.595e-6
-1.302, 6.603e-6
-1.303, 6.609e-6
-1.304, 6.619e-6
-1.305, 6.627e-6
-1.306, 6.632e-6
-1.307, 6.639e-6
-1.308, 6.647e-6
-1.309, 6.656e-6
-1.310, 6.663e-6
-1.311, 6.669e-6
-1.312, 6.676e-6
-1.313, 6.684e-6
-1.314, 6.692e-6
-1.315, 6.700e-6
-1.316, 6.707e-6
-1.317, 6.714e-6
-1.318, 6.723e-6
-1.319, 6.731e-6
-1.320, 6.738e-6
-1.321, 6.745e-6
-1.322, 6.752e-6
-1.323, 6.761e-6
-1.324, 6.771e-6
-1.325, 6.777e-6
-1.326, 6.786e-6
-1.327, 6.794e-6
-1.328, 6.802e-6
-1.329, 6.812e-6
-1.330, 6.818e-6
-1.331, 6.827e-6
-1.332, 6.835e-6
-1.333, 6.844e-6
-1.334, 6.854e-6
-1.335, 6.861e-6
-1.336, 6.868e-6
-1.337, 6.876e-6
-1.338, 6.884e-6
-1.339, 6.896e-6
-1.340, 6.904e-6
-1.341, 6.911e-6
-1.342, 6.920e-6
-1.343, 6.928e-6
-1.344, 6.939e-6
-1.345, 6.948e-6
-1.346, 6.956e-6
-1.347, 6.965e-6
-1.348, 6.975e-6
-1.349, 6.984e-6
-1.350, 6.994e-6
-1.351, 7.003e-6
-1.352, 7.011e-6
-1.353, 7.020e-6
-1.354, 7.030e-6
-1.355, 7.039e-6
-1.356, 7.048e-6
-1.357, 7.057e-6
-1.358, 7.068e-6
-1.359, 7.079e-6
-1.360, 7.089e-6
-1.361, 7.098e-6
-1.362, 7.107e-6
-1.363, 7.118e-6
-1.364, 7.130e-6
-1.365, 7.140e-6
-1.366, 7.150e-6
-1.367, 7.158e-6
-1.368, 7.168e-6
-1.369, 7.182e-6
-1.370, 7.192e-6
-1.371, 7.201e-6
-1.372, 7.212e-6
-1.373, 7.222e-6
-1.374, 7.235e-6
-1.375, 7.243e-6
-1.376, 7.253e-6
-1.377, 7.263e-6
-1.378, 7.273e-6
-1.379, 7.286e-6
-1.380, 7.297e-6
-1.381, 7.307e-6
-1.382, 7.319e-6
-1.383, 7.332e-6
-1.384, 7.343e-6
-1.385, 7.354e-6
-1.386, 7.364e-6
-1.387, 7.374e-6
-1.388, 7.386e-6
-1.389, 7.400e-6
-1.390, 7.411e-6
-1.391, 7.422e-6
-1.392, 7.432e-6
-1.393, 7.446e-6
-1.394, 7.458e-6
-1.395, 7.471e-6
-1.396, 7.484e-6
-1.397, 7.495e-6
-1.398, 7.508e-6
-1.399, 7.521e-6
-1.400, 7.533e-6
-1.401, 7.545e-6
-1.402, 7.556e-6
-1.403, 7.570e-6
-1.404, 7.585e-6
-1.405, 7.599e-6
-1.406, 7.611e-6
-1.407, 7.622e-6
-1.408, 7.638e-6
-1.409, 7.653e-6
-1.410, 7.667e-6
-1.411, 7.679e-6
-1.412, 7.693e-6
-1.413, 7.706e-6
-1.414, 7.724e-6
-1.415, 7.738e-6
-1.416, 7.750e-6
-1.417, 7.764e-6
-1.418, 7.779e-6
-1.419, 7.795e-6
-1.420, 7.808e-6
-1.421, 7.823e-6
-1.422, 7.838e-6
-1.423, 7.853e-6
-1.424, 7.871e-6
-1.425, 7.885e-6
-1.426, 7.899e-6
-1.427, 7.915e-6
-1.428, 7.931e-6
-1.429, 7.949e-6
-1.430, 7.966e-6
-1.431, 7.981e-6
-1.432, 7.996e-6
-1.433, 8.014e-6
-1.434, 8.034e-6
-1.435, 8.049e-6
-1.436, 8.064e-6
-1.437, 8.078e-6
-1.438, 8.097e-6
-1.439, 8.116e-6
-1.440, 8.133e-6
-1.441, 8.151e-6
-1.442, 8.167e-6
-1.443, 8.186e-6
-1.444, 8.209e-6
-1.445, 8.226e-6
-1.446, 8.246e-6
-1.447, 8.263e-6
-1.448, 8.282e-6
-1.449, 8.304e-6
-1.450, 8.321e-6
-1.451, 8.340e-6
-1.452, 8.357e-6
-1.453, 8.378e-6
-1.454, 8.399e-6
-1.455, 8.417e-6
-1.456, 8.435e-6
-1.457, 8.456e-6
-1.458, 8.477e-6
-1.459, 8.500e-6
-1.460, 8.520e-6
-1.461, 8.539e-6
-1.462, 8.559e-6
-1.463, 8.579e-6
-1.464, 8.603e-6
-1.465, 8.621e-6
-1.466, 8.641e-6
-1.467, 8.662e-6
-1.468, 8.684e-6
-1.469, 8.708e-6
-1.470, 8.731e-6
-1.471, 8.751e-6
-1.472, 8.773e-6
-1.473, 8.797e-6
-1.474, 8.821e-6
-1.475, 8.842e-6
-1.476, 8.864e-6
-1.477, 8.883e-6
-1.478, 8.907e-6
-1.479, 8.933e-6
-1.480, 8.956e-6
-1.481, 8.978e-6
-1.482, 9.001e-6
-1.483, 9.028e-6
-1.484, 9.054e-6
-1.485, 9.080e-6
-1.486, 9.103e-6
-1.487, 9.125e-6
-1.488, 9.151e-6
-1.489, 9.179e-6
-1.490, 9.202e-6
-1.491, 9.229e-6
-1.492, 9.252e-6
-1.493, 9.278e-6
-1.494, 9.307e-6
-1.495, 9.332e-6
-1.496, 9.357e-6
-1.497, 9.383e-6
-1.498, 9.410e-6
-1.499, 9.438e-6
-1.500, 9.464e-6
-1.501, 9.491e-6
-1.502, 9.517e-6
-1.503, 9.546e-6
-1.504, 9.577e-6
-1.505, 9.605e-6
-1.506, 9.632e-6
-1.507, 9.659e-6
-1.508, 9.687e-6
-1.509, 9.718e-6
-1.510, 9.749e-6
-1.511, 9.776e-6
-1.512, 9.805e-6
-1.513, 9.839e-6
-1.514, 9.870e-6
-1.515, 9.899e-6
-1.516, 9.929e-6
-1.517, 9.959e-6
-1.518, 9.992e-6
-1.519, 1.003e-5
-1.520, 1.006e-5
-1.521, 1.009e-5
-1.522, 1.012e-5
-1.523, 1.015e-5
-1.524, 1.019e-5
-1.525, 1.022e-5
-1.526, 1.025e-5
-1.527, 1.028e-5
-1.528, 1.032e-5
-1.529, 1.036e-5
-1.530, 1.039e-5
-1.531, 1.043e-5
-1.532, 1.046e-5
-1.533, 1.050e-5
-1.534, 1.054e-5
-1.535, 1.057e-5
-1.536, 1.061e-5
-1.537, 1.065e-5
-1.538, 1.069e-5
-1.539, 1.073e-5
-1.540, 1.077e-5
-1.541, 1.081e-5
-1.542, 1.085e-5
-1.543, 1.089e-5
-1.544, 1.093e-5
-1.545, 1.097e-5
-1.546, 1.101e-5
-1.547, 1.105e-5
-1.548, 1.110e-5
-1.549, 1.114e-5
-1.550, 1.119e-5
-1.551, 1.123e-5
-1.552, 1.127e-5
-1.553, 1.132e-5
-1.554, 1.137e-5
-1.555, 1.142e-5
-1.556, 1.147e-5
-1.557, 1.151e-5
-1.558, 1.156e-5
-1.559, 1.161e-5
-1.560, 1.167e-5
-1.561, 1.172e-5
-1.562, 1.177e-5
-1.563, 1.182e-5
-1.564, 1.188e-5
-1.565, 1.193e-5
-1.566, 1.198e-5
-1.567, 1.203e-5
-1.568, 1.208e-5
-1.569, 1.214e-5
-1.570, 1.219e-5
-1.571, 1.226e-5
-1.572, 1.231e-5
-1.573, 1.238e-5
-1.574, 1.244e-5
-1.575, 1.250e-5
-1.576, 1.257e-5
-1.577, 1.263e-5
-1.578, 1.270e-5
-1.579, 1.277e-5
-1.580, 1.284e-5
-1.581, 1.290e-5
-1.582, 1.298e-5
-1.583, 1.305e-5
-1.584, 1.313e-5
-1.585, 1.320e-5
-1.586, 1.327e-5
-1.587, 1.335e-5
-1.588, 1.343e-5
-1.589, 1.351e-5
-1.590, 1.359e-5
-1.591, 1.368e-5
-1.592, 1.376e-5
-1.593, 1.385e-5
-1.594, 1.394e-5
-1.595, 1.403e-5
-1.596, 1.411e-5
-1.597, 1.420e-5
-1.598, 1.430e-5
-1.599, 1.440e-5
-1.600, 1.449e-5
-1.601, 1.459e-5
-1.602, 1.470e-5
-1.603, 1.480e-5
-1.604, 1.491e-5
-1.605, 1.501e-5
-1.606, 1.512e-5
-1.607, 1.524e-5
-1.608, 1.535e-5
-1.609, 1.547e-5
-1.610, 1.558e-5
-1.611, 1.570e-5
-1.612, 1.583e-5
-1.613, 1.596e-5
-1.614, 1.609e-5
-1.615, 1.622e-5
-1.616, 1.636e-5
-1.617, 1.649e-5
-1.618, 1.663e-5
-1.619, 1.678e-5
-1.620, 1.692e-5
-1.621, 1.707e-5
-1.622, 1.722e-5
-1.623, 1.738e-5
-1.624, 1.754e-5
-1.625, 1.770e-5
-1.626, 1.787e-5
-1.627, 1.804e-5
-1.628, 1.821e-5
-1.629, 1.839e-5
-1.630, 1.857e-5
-1.631, 1.876e-5
-1.632, 1.896e-5
-1.633, 1.916e-5
-1.634, 1.936e-5
-1.635, 1.958e-5
-1.636, 1.980e-5
-1.637, 2.002e-5
-1.638, 2.026e-5
-1.639, 2.051e-5
-1.640, 2.076e-5
-1.641, 2.101e-5
-1.642, 2.129e-5
-1.643, 2.157e-5
-1.644, 2.186e-5
-1.645, 2.216e-5
-1.646, 2.247e-5
-1.647, 2.280e-5
-1.648, 2.315e-5
-1.649, 2.350e-5
-1.650, 2.387e-5
-1.651, 2.426e-5
-1.652, 2.466e-5
-1.653, 2.508e-5
-1.654, 2.552e-5
-1.655, 2.597e-5
-1.656, 2.644e-5
-1.657, 2.693e-5
-1.658, 2.743e-5
-1.659, 2.794e-5
-1.660, 2.847e-5
-1.661, 2.902e-5
-1.662, 2.958e-5
-1.663, 3.015e-5
-1.664, 3.074e-5
-1.665, 3.134e-5
-1.666, 3.195e-5
-1.667, 3.258e-5
-1.668, 3.322e-5
-1.669, 3.386e-5
-1.670, 3.451e-5
-1.671, 3.516e-5
-1.672, 3.583e-5
-1.673, 3.652e-5
-1.674, 3.721e-5
-1.675, 3.791e-5
-1.676, 3.863e-5
-1.677, 3.936e-5
-1.678, 4.011e-5
-1.679, 4.086e-5
-1.680, 4.161e-5
-1.681, 4.239e-5
-1.682, 4.317e-5
-1.683, 4.396e-5
-1.684, 4.476e-5
-1.685, 4.558e-5
-1.686, 4.641e-5
-1.687, 4.725e-5
-1.688, 4.814e-5
-1.689, 4.903e-5
-1.690, 4.993e-5
-1.691, 5.085e-5
-1.692, 5.178e-5
-1.693, 5.273e-5
-1.694, 5.369e-5
-1.695, 5.466e-5
-1.696, 5.566e-5
-1.697, 5.668e-5
-1.698, 5.771e-5
-1.699, 5.878e-5
-1.700, 5.985e-5
-1.701, 6.095e-5
-1.702, 6.207e-5
-1.703, 6.322e-5
-1.704, 6.440e-5
-1.705, 6.559e-5
-1.706, 6.680e-5
-1.707, 6.804e-5
-1.708, 6.932e-5
-1.709, 7.061e-5
-1.710, 7.193e-5
-1.711, 7.327e-5
-1.712, 7.466e-5
-1.713, 7.604e-5
-1.714, 7.746e-5
-1.715, 7.892e-5
-1.716, 8.043e-5
-1.717, 8.195e-5
-1.718, 8.351e-5
-1.719, 8.508e-5
-1.720, 8.670e-5
-1.721, 8.835e-5
-1.722, 9.003e-5
-1.723, 9.173e-5
-1.724, 9.349e-5
-1.725, 9.529e-5
-1.726, 9.711e-5
-1.727, 9.897e-5
-1.728, 1.009e-4
-1.729, 1.028e-4
-1.730, 1.048e-4
-1.731, 1.068e-4
-1.732, 1.088e-4
-1.733, 1.109e-4
-1.734, 1.131e-4
-1.735, 1.152e-4
-1.736, 1.175e-4
-1.737, 1.197e-4
-1.738, 1.220e-4
-1.739, 1.244e-4
-1.740, 1.268e-4
-1.741, 1.292e-4
-1.742, 1.317e-4
-1.743, 1.342e-4
-1.744, 1.368e-4
-1.745, 1.394e-4
-1.746, 1.421e-4
-1.747, 1.448e-4
-1.748, 1.476e-4
-1.749, 1.504e-4
-1.750, 1.533e-4
-1.751, 1.562e-4
-1.752, 1.592e-4
-1.753, 1.623e-4
-1.754, 1.653e-4
-1.755, 1.685e-4
-1.756, 1.716e-4
-1.757, 1.749e-4
-1.758, 1.782e-4
-1.759, 1.815e-4
-1.760, 1.850e-4
-1.761, 1.884e-4
-1.762, 1.920e-4
-1.763, 1.955e-4
-1.764, 1.991e-4
-1.765, 2.028e-4
-1.766, 2.066e-4
-1.767, 2.103e-4
-1.768, 2.142e-4
-1.769, 2.181e-4
-1.770, 2.220e-4
-1.771, 2.260e-4
-1.772, 2.301e-4
-1.773, 2.342e-4
-1.774, 2.384e-4
-1.775, 2.426e-4
-1.776, 2.469e-4
-1.777, 2.512e-4
-1.778, 2.555e-4
-1.779, 2.599e-4
-1.780, 2.644e-4
-1.781, 2.690e-4
-1.782, 2.736e-4
-1.783, 2.783e-4
-1.784, 2.830e-4
-1.785, 2.877e-4
-1.786, 2.925e-4
-1.787, 2.973e-4
-1.788, 3.022e-4
-1.789, 3.072e-4
-1.790, 3.122e-4
-1.791, 3.172e-4
-1.792, 3.223e-4
-1.793, 3.275e-4
-1.794, 3.326e-4
-1.795, 3.378e-4
-1.796, 3.431e-4
-1.797, 3.485e-4
-1.798, 3.539e-4
-1.799, 3.593e-4
-1.800, 3.648e-4
-1.801, 3.704e-4
-1.802, 3.759e-4
-1.803, 3.815e-4
-1.804, 3.871e-4
-1.805, 3.928e-4
-1.806, 3.985e-4
-1.807, 4.043e-4
-1.808, 4.102e-4
-1.809, 4.161e-4
-1.810, 4.220e-4
-1.811, 4.279e-4
-1.812, 4.340e-4
-1.813, 4.400e-4
-1.814, 4.463e-4
-1.815, 4.525e-4
-1.816, 4.586e-4
-1.817, 4.649e-4
-1.818, 4.713e-4
-1.819, 4.780e-4
-1.820, 4.845e-4
-1.821, 4.910e-4
-1.822, 4.973e-4
-1.823, 5.040e-4
-1.824, 5.107e-4
-1.825, 5.175e-4
-1.826, 5.241e-4
-1.827, 5.308e-4
-1.828, 5.375e-4
-1.829, 5.442e-4
-1.830, 5.509e-4
-1.831, 5.575e-4
-1.832, 5.642e-4
-1.833, 5.712e-4
-1.834, 5.783e-4
-1.835, 5.851e-4
-1.836, 5.923e-4
-1.837, 5.995e-4
-1.838, 6.065e-4
-1.839, 6.137e-4
-1.840, 6.210e-4
-1.841, 6.285e-4
-1.842, 6.358e-4
-1.843, 6.431e-4
-1.844, 6.503e-4
-1.845, 6.576e-4
-1.846, 6.649e-4
-1.847, 6.722e-4
-1.848, 6.793e-4
-1.849, 6.866e-4
-1.850, 6.940e-4
-1.851, 7.014e-4
-1.852, 7.088e-4
-1.853, 7.163e-4
-1.854, 7.238e-4
-1.855, 7.312e-4
-1.856, 7.387e-4
-1.857, 7.464e-4
-1.858, 7.539e-4
-1.859, 7.617e-4
-1.860, 7.695e-4
-1.861, 7.773e-4
-1.862, 7.849e-4
-1.863, 7.921e-4
-1.864, 7.997e-4
-1.865, 8.072e-4
-1.866, 8.147e-4
-1.867, 8.223e-4
-1.868, 8.299e-4
-1.869, 8.374e-4
-1.870, 8.450e-4
-1.871, 8.526e-4
-1.872, 8.601e-4
-1.873, 8.677e-4
-1.874, 8.752e-4
-1.875, 8.828e-4
-1.876, 8.901e-4
-1.877, 8.975e-4
-1.878, 9.051e-4
-1.879, 9.125e-4
-1.880, 9.202e-4
-1.881, 9.280e-4
-1.882, 9.357e-4
-1.883, 9.442e-4
-1.884, 9.520e-4
-1.885, 9.596e-4
-1.886, 9.674e-4
-1.887, 9.752e-4
-1.888, 9.822e-4
-1.889, 9.889e-4
-1.890, 9.963e-4
-1.891, 1.004e-3
-1.892, 1.010e-3
-1.893, 1.011e-3
-1.894, 1.011e-3
-1.895, 1.011e-3
-1.896, 1.011e-3
-1.897, 1.011e-3
-1.898, 1.011e-3
-1.899, 1.011e-3
-1.900, 1.011e-3
-1.901, 1.011e-3
-1.902, 1.011e-3
-1.903, 1.011e-3
-1.904, 1.011e-3
-1.905, 1.011e-3
-1.906, 1.011e-3
-1.907, 1.011e-3
-1.908, 1.011e-3
-1.909, 1.011e-3
-1.910, 1.011e-3
-1.911, 1.011e-3
-1.912, 1.011e-3
-1.913, 1.011e-3
-1.914, 1.011e-3
-1.915, 1.011e-3
-1.916, 1.011e-3
-1.917, 1.011e-3
-1.918, 1.011e-3
-1.919, 1.011e-3
-1.920, 1.011e-3
-1.921, 1.011e-3
-1.922, 1.011e-3
-1.923, 1.011e-3
-1.924, 1.011e-3
-1.925, 1.011e-3
-1.926, 1.011e-3
-1.927, 1.011e-3
-1.928, 1.011e-3
-1.929, 1.011e-3
-1.930, 1.011e-3
-1.931, 1.011e-3
-1.932, 1.011e-3
-1.933, 1.011e-3
-1.934, 1.011e-3
-1.935, 1.011e-3
-1.936, 1.011e-3
-1.937, 1.011e-3
-1.938, 1.011e-3
-1.939, 1.011e-3
-1.940, 1.011e-3
-1.941, 1.011e-3
-1.942, 1.011e-3
-1.943, 1.011e-3
-1.944, 1.011e-3
-1.945, 1.011e-3
-1.946, 1.011e-3
-1.947, 1.011e-3
-1.948, 1.011e-3
-1.949, 1.011e-3
-1.950, 1.011e-3
-1.951, 1.011e-3
-1.952, 1.011e-3
-1.953, 1.011e-3
-1.954, 1.011e-3
-1.955, 1.011e-3
-1.956, 1.011e-3
-1.957, 1.011e-3
-1.958, 1.011e-3
-1.959, 1.011e-3
-1.960, 1.011e-3
-1.961, 1.011e-3
-1.962, 1.011e-3
-1.963, 1.011e-3
-1.964, 1.011e-3
-1.965, 1.011e-3
-1.966, 1.011e-3
-1.967, 1.011e-3
-1.968, 1.011e-3
-1.969, 1.011e-3
-1.970, 1.011e-3
-1.971, 1.011e-3
-1.972, 1.011e-3
-1.973, 1.011e-3
-1.974, 1.011e-3
-1.975, 1.011e-3
-1.976, 1.011e-3
-1.977, 1.011e-3
-1.978, 1.011e-3
-1.979, 1.011e-3
-1.980, 1.011e-3
-1.981, 1.011e-3
-1.982, 1.011e-3
-1.983, 1.011e-3
-1.984, 1.011e-3
-1.985, 1.011e-3
-1.986, 1.011e-3
-1.987, 1.011e-3
-1.988, 1.011e-3
-1.989, 1.011e-3
-1.990, 1.011e-3
-1.991, 1.011e-3
-1.992, 1.011e-3
-1.993, 1.011e-3
-1.994, 1.011e-3
-1.995, 1.011e-3
-1.996, 1.011e-3
-1.997, 1.011e-3
-1.998, 1.011e-3
-1.999, 1.011e-3
-2.000, 1.011e-3
-2.001, 1.011e-3
-2.002, 1.011e-3
-2.003, 1.011e-3
-2.004, 1.011e-3
-2.005, 1.011e-3
-2.006, 1.011e-3
-2.007, 1.011e-3
-2.008, 1.011e-3
-2.009, 1.011e-3
-2.010, 1.011e-3
-2.011, 1.011e-3
-2.012, 1.011e-3
-2.013, 1.011e-3
-2.014, 1.011e-3
-2.015, 1.011e-3
-2.016, 1.011e-3
-2.017, 1.011e-3
-2.018, 1.011e-3
-2.019, 1.011e-3
-2.020, 1.011e-3
-2.021, 1.011e-3
-2.022, 1.011e-3
-2.023, 1.011e-3
-2.024, 1.011e-3
-2.025, 1.011e-3
-2.026, 1.011e-3
-2.027, 1.011e-3
-2.028, 1.011e-3
-2.029, 1.011e-3
-2.030, 1.011e-3
-2.031, 1.011e-3
-2.032, 1.011e-3
-2.033, 1.011e-3
-2.034, 1.011e-3
-2.035, 1.011e-3
-2.036, 1.011e-3
-2.037, 1.011e-3
-2.038, 1.011e-3
-2.039, 1.011e-3
-2.040, 1.011e-3
-2.041, 1.011e-3
-2.042, 1.011e-3
-2.043, 1.011e-3
-2.044, 1.011e-3
-2.045, 1.011e-3
-2.046, 1.011e-3
-2.047, 1.011e-3
-2.048, 1.011e-3
-2.049, 1.011e-3
-2.050, 1.011e-3
-2.051, 1.011e-3
-2.052, 1.011e-3
-2.053, 1.011e-3
-2.054, 1.011e-3
-2.055, 1.011e-3
-2.056, 1.011e-3
-2.057, 1.011e-3
-2.058, 1.011e-3
-2.059, 1.011e-3
-2.060, 1.011e-3
-2.061, 1.011e-3
-2.062, 1.011e-3
-2.063, 1.011e-3
-2.064, 1.011e-3
-2.065, 1.011e-3
-2.066, 1.011e-3
-2.067, 1.011e-3
-2.068, 1.011e-3
-2.069, 1.011e-3
-2.070, 1.011e-3
-2.071, 1.011e-3
-2.072, 1.011e-3
-2.073, 1.011e-3
-2.074, 1.011e-3
-2.075, 1.011e-3
-2.076, 1.011e-3
-2.077, 1.011e-3
-2.078, 1.011e-3
-2.079, 1.011e-3
-2.080, 1.011e-3
-2.081, 1.011e-3
-2.082, 1.011e-3
-2.083, 1.011e-3
-2.084, 1.011e-3
-2.085, 1.011e-3
-2.086, 1.011e-3
-2.087, 1.011e-3
-2.088, 1.011e-3
-2.089, 1.011e-3
-2.090, 1.011e-3
-2.091, 1.011e-3
-2.092, 1.011e-3
-2.093, 1.011e-3
-2.094, 1.011e-3
-2.095, 1.011e-3
-2.096, 1.011e-3
-2.097, 1.011e-3
-2.098, 1.011e-3
-2.099, 1.011e-3
-2.100, 1.011e-3
-2.101, 1.011e-3
-2.102, 1.011e-3
-2.103, 1.011e-3
-2.104, 1.011e-3
-2.105, 1.011e-3
-2.106, 1.011e-3
-2.107, 1.011e-3
-2.108, 1.011e-3
-2.109, 1.011e-3
-2.110, 1.011e-3
-2.111, 1.011e-3
-2.112, 1.011e-3
-2.113, 1.011e-3
-2.114, 1.011e-3
-2.115, 1.011e-3
-2.116, 1.011e-3
-2.117, 1.011e-3
-2.118, 1.011e-3
-2.119, 1.011e-3
-2.120, 1.011e-3
-2.121, 1.011e-3
-2.122, 1.011e-3
-2.123, 1.011e-3
-2.124, 1.011e-3
-2.125, 1.011e-3
-2.126, 1.011e-3
-2.127, 1.011e-3
-2.128, 1.011e-3
-2.129, 1.011e-3
-2.130, 1.011e-3
-2.131, 1.011e-3
-2.132, 1.011e-3
-2.133, 1.011e-3
-2.134, 1.011e-3
-2.135, 1.011e-3
-2.136, 1.011e-3
-2.137, 1.011e-3
-2.138, 1.011e-3
-2.139, 1.011e-3
-2.140, 1.011e-3
-2.141, 1.011e-3
-2.142, 1.011e-3
-2.143, 1.011e-3
-2.144, 1.011e-3
-2.145, 1.011e-3
-2.146, 1.011e-3
-2.147, 1.011e-3
-2.148, 1.011e-3
-2.149, 1.011e-3
-2.150, 1.011e-3
-2.151, 1.011e-3
-2.152, 1.011e-3
-2.153, 1.011e-3
-2.154, 1.011e-3
-2.155, 1.011e-3
-2.156, 1.011e-3
-2.157, 1.011e-3
-2.158, 1.011e-3
-2.159, 1.011e-3
-2.160, 1.011e-3
-2.161, 1.011e-3
-2.162, 1.011e-3
-2.163, 1.011e-3
-2.164, 1.011e-3
-2.165, 1.011e-3
-2.166, 1.011e-3
-2.167, 1.011e-3
-2.168, 1.011e-3
-2.169, 1.011e-3
-2.170, 1.011e-3
-2.171, 1.011e-3
-2.172, 1.011e-3
-2.173, 1.011e-3
-2.174, 1.011e-3
-2.175, 1.011e-3
-2.176, 1.011e-3
-2.177, 1.011e-3
-2.178, 1.011e-3
-2.179, 1.011e-3
-2.180, 1.011e-3
-2.181, 1.011e-3
-2.182, 1.011e-3
-2.183, 1.011e-3
-2.184, 1.011e-3
-2.185, 1.011e-3
-2.186, 1.011e-3
-2.187, 1.011e-3
-2.188, 1.011e-3
-2.189, 1.011e-3
-2.190, 1.011e-3
-2.191, 1.011e-3
-2.192, 1.011e-3
-2.193, 1.011e-3
-2.194, 1.011e-3
-2.195, 1.011e-3
-2.196, 1.011e-3
-2.197, 1.011e-3
-2.198, 1.011e-3
-2.199, 1.011e-3
-2.200, 1.011e-3
-2.201, 1.011e-3
-2.202, 1.011e-3
-2.203, 1.011e-3
-2.204, 1.011e-3
-2.205, 1.011e-3
-2.206, 1.011e-3
-2.207, 1.011e-3
-2.208, 1.011e-3
-2.209, 1.011e-3
-2.210, 1.011e-3
-2.211, 1.011e-3
-2.212, 1.011e-3
-2.213, 1.011e-3
-2.214, 1.011e-3
-2.215, 1.011e-3
-2.216, 1.011e-3
-2.217, 1.011e-3
-2.218, 1.011e-3
-2.219, 1.011e-3
-2.220, 1.011e-3
-2.221, 1.011e-3
-2.222, 1.011e-3
-2.223, 1.011e-3
-2.224, 1.011e-3
-2.225, 1.011e-3
-2.226, 1.011e-3
-2.227, 1.011e-3
-2.228, 1.011e-3
-2.229, 1.011e-3
-2.230, 1.011e-3
-2.231, 1.011e-3
-2.232, 1.011e-3
-2.233, 1.011e-3
-2.234, 1.011e-3
-2.235, 1.011e-3
-2.236, 1.011e-3
-2.237, 1.011e-3
-2.238, 1.011e-3
-2.239, 1.011e-3
-2.240, 1.011e-3
-2.241, 1.011e-3
-2.242, 1.011e-3
-2.243, 1.011e-3
-2.244, 1.011e-3
-2.245, 1.011e-3
-2.246, 1.011e-3
-2.247, 1.011e-3
-2.248, 1.011e-3
-2.249, 1.011e-3
-2.250, 1.011e-3
-2.251, 1.011e-3
-2.252, 1.011e-3
-2.253, 1.011e-3
-2.254, 1.011e-3
-2.255, 1.011e-3
-2.256, 1.011e-3
-2.257, 1.011e-3
-2.258, 1.011e-3
-2.259, 1.011e-3
-2.260, 1.011e-3
-2.261, 1.011e-3
-2.262, 1.011e-3
-2.263, 1.011e-3
-2.264, 1.011e-3
-2.265, 1.011e-3
-2.266, 1.011e-3
-2.267, 1.011e-3
-2.268, 1.011e-3
-2.269, 1.011e-3
-2.270, 1.011e-3
-2.271, 1.011e-3
-2.272, 1.011e-3
-2.273, 1.011e-3
-2.274, 1.011e-3
-2.275, 1.011e-3
-2.276, 1.011e-3
-2.277, 1.011e-3
-2.278, 1.011e-3
-2.279, 1.011e-3
-2.280, 1.011e-3
-2.281, 1.011e-3
-2.282, 1.011e-3
-2.283, 1.011e-3
-2.284, 1.011e-3
-2.285, 1.011e-3
-2.286, 1.011e-3
-2.287, 1.011e-3
-2.288, 1.011e-3
-2.289, 1.011e-3
-2.290, 1.011e-3
-2.291, 1.011e-3
-2.292, 1.011e-3
-2.293, 1.011e-3
-2.294, 1.011e-3
-2.295, 1.011e-3
-2.296, 1.011e-3
-2.297, 1.011e-3
-2.298, 1.011e-3
-2.299, 1.011e-3
