Apr. 9, 2025   09:33:28
Cyclic Voltammetry
File: c:/users/guazh/data/banditlqround7_x0exp994_r5/2025-03-28-exp1027\exp1027-2025-04-09t09_11_43-h2koh\exp1027_cv_sr_800mvs_efin_-1900mv.bin
Data Source:  Experiment
Instrument Model:  CHI760E
Header: CV ran at 800 mVs
Note: 

Init E (V) = -1
High E (V) = -1
Low E (V) = -1.9
Final E (V) = -1
Init P/N = N
Scan Rate (V/s) = 0.8
Segment = 3
Sample Interval (V) = 0.001
Quiet Time (sec) = 2
Sensitivity (A/V) = 0.01
Comp R (ohm) = 1.8

Results:

Channel 1:
Segment 1:

Segment 2:

Segment 3:

Potential/V, Current/A

-1.000, 3.239e-6
-1.001, 3.239e-6
-1.002, 3.239e-6
-1.003, 3.239e-6
-1.004, 3.239e-6
-1.005, 3.239e-6
-1.006, 3.239e-6
-1.007, 3.239e-6
-1.008, 3.239e-6
-1.009, 3.239e-6
-1.010, 3.239e-6
-1.011, 3.239e-6
-1.012, 3.239e-6
-1.013, 3.239e-6
-1.014, 3.239e-6
-1.015, 3.239e-6
-1.016, 3.239e-6
-1.017, 3.239e-6
-1.018, 3.239e-6
-1.019, 3.239e-6
-1.020, 3.239e-6
-1.021, 3.239e-6
-1.022, 3.239e-6
-1.023, 3.239e-6
-1.024, 3.239e-6
-1.025, 3.239e-6
-1.026, 3.239e-6
-1.027, 6.322e-6
-1.028, 3.239e-6
-1.029, 6.322e-6
-1.030, 3.239e-6
-1.031, 6.322e-6
-1.032, 3.239e-6
-1.033, 3.239e-6
-1.034, 3.239e-6
-1.035, 3.239e-6
-1.036, 6.322e-6
-1.037, 3.239e-6
-1.038, 6.322e-6
-1.039, 6.322e-6
-1.040, 3.239e-6
-1.041, 3.239e-6
-1.042, 6.322e-6
-1.043, 3.239e-6
-1.044, 3.239e-6
-1.045, 3.239e-6
-1.046, 6.322e-6
-1.047, 3.239e-6
-1.048, 6.322e-6
-1.049, 6.322e-6
-1.050, 6.322e-6
-1.051, 3.239e-6
-1.052, 6.322e-6
-1.053, 6.322e-6
-1.054, 6.322e-6
-1.055, 3.239e-6
-1.056, 6.322e-6
-1.057, 3.239e-6
-1.058, 6.322e-6
-1.059, 6.322e-6
-1.060, 6.322e-6
-1.061, 3.239e-6
-1.062, 6.322e-6
-1.063, 6.322e-6
-1.064, 6.322e-6
-1.065, 6.322e-6
-1.066, 6.322e-6
-1.067, 6.322e-6
-1.068, 6.322e-6
-1.069, 6.322e-6
-1.070, 6.322e-6
-1.071, 3.239e-6
-1.072, 6.322e-6
-1.073, 6.322e-6
-1.074, 6.322e-6
-1.075, 6.322e-6
-1.076, 6.322e-6
-1.077, 6.322e-6
-1.078, 6.322e-6
-1.079, 6.322e-6
-1.080, 6.322e-6
-1.081, 6.322e-6
-1.082, 6.322e-6
-1.083, 6.322e-6
-1.084, 6.322e-6
-1.085, 6.322e-6
-1.086, 3.239e-6
-1.087, 6.322e-6
-1.088, 6.322e-6
-1.089, 6.322e-6
-1.090, 6.322e-6
-1.091, 6.322e-6
-1.092, 6.322e-6
-1.093, 6.322e-6
-1.094, 6.322e-6
-1.095, 6.322e-6
-1.096, 6.322e-6
-1.097, 6.322e-6
-1.098, 6.322e-6
-1.099, 6.322e-6
-1.100, 6.322e-6
-1.101, 6.322e-6
-1.102, 6.322e-6
-1.103, 6.322e-6
-1.104, 6.322e-6
-1.105, 6.322e-6
-1.106, 6.322e-6
-1.107, 6.322e-6
-1.108, 6.322e-6
-1.109, 6.322e-6
-1.110, 6.322e-6
-1.111, 6.322e-6
-1.112, 6.322e-6
-1.113, 6.322e-6
-1.114, 6.322e-6
-1.115, 6.322e-6
-1.116, 6.322e-6
-1.117, 6.322e-6
-1.118, 6.322e-6
-1.119, 6.322e-6
-1.120, 6.322e-6
-1.121, 6.322e-6
-1.122, 9.405e-6
-1.123, 6.322e-6
-1.124, 6.322e-6
-1.125, 6.322e-6
-1.126, 9.405e-6
-1.127, 6.322e-6
-1.128, 6.322e-6
-1.129, 6.322e-6
-1.130, 6.322e-6
-1.131, 6.322e-6
-1.132, 6.322e-6
-1.133, 6.322e-6
-1.134, 9.405e-6
-1.135, 6.322e-6
-1.136, 6.322e-6
-1.137, 6.322e-6
-1.138, 9.405e-6
-1.139, 6.322e-6
-1.140, 6.322e-6
-1.141, 6.322e-6
-1.142, 9.405e-6
-1.143, 6.322e-6
-1.144, 6.322e-6
-1.145, 6.322e-6
-1.146, 9.405e-6
-1.147, 6.322e-6
-1.148, 9.405e-6
-1.149, 9.405e-6
-1.150, 9.405e-6
-1.151, 6.322e-6
-1.152, 6.322e-6
-1.153, 9.405e-6
-1.154, 6.322e-6
-1.155, 9.405e-6
-1.156, 9.405e-6
-1.157, 6.322e-6
-1.158, 9.405e-6
-1.159, 9.405e-6
-1.160, 9.405e-6
-1.161, 6.322e-6
-1.162, 6.322e-6
-1.163, 9.405e-6
-1.164, 6.322e-6
-1.165, 9.405e-6
-1.166, 9.405e-6
-1.167, 9.405e-6
-1.168, 9.405e-6
-1.169, 9.405e-6
-1.170, 9.405e-6
-1.171, 6.322e-6
-1.172, 9.405e-6
-1.173, 9.405e-6
-1.174, 9.405e-6
-1.175, 9.405e-6
-1.176, 6.322e-6
-1.177, 9.405e-6
-1.178, 9.405e-6
-1.179, 9.405e-6
-1.180, 6.322e-6
-1.181, 9.405e-6
-1.182, 9.405e-6
-1.183, 9.405e-6
-1.184, 9.405e-6
-1.185, 9.405e-6
-1.186, 9.405e-6
-1.187, 9.405e-6
-1.188, 9.405e-6
-1.189, 9.405e-6
-1.190, 9.405e-6
-1.191, 9.405e-6
-1.192, 9.405e-6
-1.193, 9.405e-6
-1.194, 9.405e-6
-1.195, 9.405e-6
-1.196, 9.405e-6
-1.197, 9.405e-6
-1.198, 9.405e-6
-1.199, 9.405e-6
-1.200, 9.405e-6
-1.201, 9.405e-6
-1.202, 9.405e-6
-1.203, 9.405e-6
-1.204, 9.405e-6
-1.205, 9.405e-6
-1.206, 9.405e-6
-1.207, 6.322e-6
-1.208, 9.405e-6
-1.209, 9.405e-6
-1.210, 9.405e-6
-1.211, 9.405e-6
-1.212, 9.405e-6
-1.213, 9.405e-6
-1.214, 9.405e-6
-1.215, 9.405e-6
-1.216, 9.405e-6
-1.217, 9.405e-6
-1.218, 9.405e-6
-1.219, 9.405e-6
-1.220, 9.405e-6
-1.221, 9.405e-6
-1.222, 1.249e-5
-1.223, 9.405e-6
-1.224, 9.405e-6
-1.225, 9.405e-6
-1.226, 9.405e-6
-1.227, 9.405e-6
-1.228, 9.405e-6
-1.229, 9.405e-6
-1.230, 9.405e-6
-1.231, 9.405e-6
-1.232, 9.405e-6
-1.233, 9.405e-6
-1.234, 9.405e-6
-1.235, 1.249e-5
-1.236, 9.405e-6
-1.237, 9.405e-6
-1.238, 9.405e-6
-1.239, 1.249e-5
-1.240, 9.405e-6
-1.241, 1.249e-5
-1.242, 1.249e-5
-1.243, 1.249e-5
-1.244, 9.405e-6
-1.245, 1.249e-5
-1.246, 9.405e-6
-1.247, 9.405e-6
-1.248, 1.249e-5
-1.249, 1.249e-5
-1.250, 9.405e-6
-1.251, 1.249e-5
-1.252, 9.405e-6
-1.253, 9.405e-6
-1.254, 9.405e-6
-1.255, 1.249e-5
-1.256, 1.249e-5
-1.257, 1.249e-5
-1.258, 1.249e-5
-1.259, 1.249e-5
-1.260, 1.249e-5
-1.261, 1.249e-5
-1.262, 1.249e-5
-1.263, 9.405e-6
-1.264, 1.249e-5
-1.265, 1.249e-5
-1.266, 9.405e-6
-1.267, 1.249e-5
-1.268, 1.249e-5
-1.269, 1.249e-5
-1.270, 1.249e-5
-1.271, 1.249e-5
-1.272, 1.249e-5
-1.273, 9.405e-6
-1.274, 1.249e-5
-1.275, 1.249e-5
-1.276, 1.249e-5
-1.277, 9.405e-6
-1.278, 1.249e-5
-1.279, 1.249e-5
-1.280, 1.249e-5
-1.281, 1.249e-5
-1.282, 1.249e-5
-1.283, 1.249e-5
-1.284, 1.249e-5
-1.285, 1.249e-5
-1.286, 1.249e-5
-1.287, 1.249e-5
-1.288, 1.249e-5
-1.289, 1.249e-5
-1.290, 1.249e-5
-1.291, 1.249e-5
-1.292, 1.249e-5
-1.293, 1.249e-5
-1.294, 1.249e-5
-1.295, 1.249e-5
-1.296, 1.557e-5
-1.297, 1.249e-5
-1.298, 1.249e-5
-1.299, 1.249e-5
-1.300, 1.249e-5
-1.301, 1.249e-5
-1.302, 1.249e-5
-1.303, 1.249e-5
-1.304, 1.249e-5
-1.305, 1.249e-5
-1.306, 1.249e-5
-1.307, 1.249e-5
-1.308, 1.249e-5
-1.309, 1.249e-5
-1.310, 1.249e-5
-1.311, 1.249e-5
-1.312, 1.249e-5
-1.313, 1.249e-5
-1.314, 1.249e-5
-1.315, 1.249e-5
-1.316, 1.249e-5
-1.317, 1.249e-5
-1.318, 1.249e-5
-1.319, 1.249e-5
-1.320, 1.249e-5
-1.321, 1.557e-5
-1.322, 1.249e-5
-1.323, 1.557e-5
-1.324, 1.249e-5
-1.325, 1.249e-5
-1.326, 1.249e-5
-1.327, 1.249e-5
-1.328, 1.249e-5
-1.329, 1.249e-5
-1.330, 1.249e-5
-1.331, 1.557e-5
-1.332, 1.249e-5
-1.333, 1.557e-5
-1.334, 1.249e-5
-1.335, 1.557e-5
-1.336, 1.557e-5
-1.337, 1.557e-5
-1.338, 1.249e-5
-1.339, 1.557e-5
-1.340, 1.557e-5
-1.341, 1.249e-5
-1.342, 1.557e-5
-1.343, 1.249e-5
-1.344, 1.557e-5
-1.345, 1.249e-5
-1.346, 1.557e-5
-1.347, 1.249e-5
-1.348, 1.557e-5
-1.349, 1.557e-5
-1.350, 1.557e-5
-1.351, 1.557e-5
-1.352, 1.557e-5
-1.353, 1.557e-5
-1.354, 1.557e-5
-1.355, 1.557e-5
-1.356, 1.557e-5
-1.357, 1.557e-5
-1.358, 1.557e-5
-1.359, 1.557e-5
-1.360, 1.557e-5
-1.361, 1.557e-5
-1.362, 1.557e-5
-1.363, 1.557e-5
-1.364, 1.557e-5
-1.365, 1.557e-5
-1.366, 1.557e-5
-1.367, 1.557e-5
-1.368, 1.557e-5
-1.369, 1.557e-5
-1.370, 1.557e-5
-1.371, 1.557e-5
-1.372, 1.557e-5
-1.373, 1.557e-5
-1.374, 1.557e-5
-1.375, 1.557e-5
-1.376, 1.557e-5
-1.377, 1.557e-5
-1.378, 1.557e-5
-1.379, 1.557e-5
-1.380, 1.557e-5
-1.381, 1.557e-5
-1.382, 1.557e-5
-1.383, 1.557e-5
-1.384, 1.557e-5
-1.385, 1.557e-5
-1.386, 1.557e-5
-1.387, 1.557e-5
-1.388, 1.557e-5
-1.389, 1.865e-5
-1.390, 1.557e-5
-1.391, 1.557e-5
-1.392, 1.557e-5
-1.393, 1.557e-5
-1.394, 1.557e-5
-1.395, 1.865e-5
-1.396, 1.557e-5
-1.397, 1.557e-5
-1.398, 1.557e-5
-1.399, 1.865e-5
-1.400, 1.557e-5
-1.401, 1.865e-5
-1.402, 1.865e-5
-1.403, 1.865e-5
-1.404, 1.557e-5
-1.405, 1.865e-5
-1.406, 1.557e-5
-1.407, 1.865e-5
-1.408, 1.865e-5
-1.409, 1.865e-5
-1.410, 1.865e-5
-1.411, 1.865e-5
-1.412, 1.865e-5
-1.413, 1.865e-5
-1.414, 1.865e-5
-1.415, 1.865e-5
-1.416, 1.865e-5
-1.417, 1.865e-5
-1.418, 1.865e-5
-1.419, 1.865e-5
-1.420, 1.865e-5
-1.421, 1.865e-5
-1.422, 1.865e-5
-1.423, 1.865e-5
-1.424, 1.865e-5
-1.425, 1.865e-5
-1.426, 1.865e-5
-1.427, 1.865e-5
-1.428, 1.865e-5
-1.429, 1.865e-5
-1.430, 1.865e-5
-1.431, 1.865e-5
-1.432, 1.865e-5
-1.433, 1.865e-5
-1.434, 1.865e-5
-1.435, 1.865e-5
-1.436, 1.865e-5
-1.437, 1.865e-5
-1.438, 2.174e-5
-1.439, 1.865e-5
-1.440, 2.174e-5
-1.441, 2.174e-5
-1.442, 2.174e-5
-1.443, 1.865e-5
-1.444, 2.174e-5
-1.445, 2.174e-5
-1.446, 2.174e-5
-1.447, 2.174e-5
-1.448, 2.174e-5
-1.449, 1.865e-5
-1.450, 2.174e-5
-1.451, 2.174e-5
-1.452, 2.174e-5
-1.453, 2.174e-5
-1.454, 2.174e-5
-1.455, 2.174e-5
-1.456, 2.174e-5
-1.457, 2.174e-5
-1.458, 2.174e-5
-1.459, 2.174e-5
-1.460, 2.174e-5
-1.461, 2.174e-5
-1.462, 2.174e-5
-1.463, 2.482e-5
-1.464, 2.174e-5
-1.465, 2.482e-5
-1.466, 2.174e-5
-1.467, 2.174e-5
-1.468, 2.482e-5
-1.469, 2.482e-5
-1.470, 2.482e-5
-1.471, 2.482e-5
-1.472, 2.482e-5
-1.473, 2.482e-5
-1.474, 2.482e-5
-1.475, 2.482e-5
-1.476, 2.482e-5
-1.477, 2.482e-5
-1.478, 2.482e-5
-1.479, 2.482e-5
-1.480, 2.482e-5
-1.481, 2.482e-5
-1.482, 2.482e-5
-1.483, 2.482e-5
-1.484, 2.482e-5
-1.485, 2.482e-5
-1.486, 2.482e-5
-1.487, 2.790e-5
-1.488, 2.790e-5
-1.489, 2.790e-5
-1.490, 2.790e-5
-1.491, 2.790e-5
-1.492, 2.790e-5
-1.493, 2.790e-5
-1.494, 2.790e-5
-1.495, 2.790e-5
-1.496, 2.790e-5
-1.497, 2.790e-5
-1.498, 2.790e-5
-1.499, 2.790e-5
-1.500, 2.790e-5
-1.501, 2.790e-5
-1.502, 2.790e-5
-1.503, 2.790e-5
-1.504, 3.099e-5
-1.505, 3.099e-5
-1.506, 3.099e-5
-1.507, 3.099e-5
-1.508, 3.099e-5
-1.509, 3.099e-5
-1.510, 3.099e-5
-1.511, 3.099e-5
-1.512, 3.099e-5
-1.513, 3.407e-5
-1.514, 3.407e-5
-1.515, 3.407e-5
-1.516, 3.407e-5
-1.517, 3.407e-5
-1.518, 3.407e-5
-1.519, 3.407e-5
-1.520, 3.407e-5
-1.521, 3.407e-5
-1.522, 3.715e-5
-1.523, 3.407e-5
-1.524, 3.407e-5
-1.525, 3.715e-5
-1.526, 3.715e-5
-1.527, 3.715e-5
-1.528, 3.715e-5
-1.529, 3.715e-5
-1.530, 4.024e-5
-1.531, 3.715e-5
-1.532, 3.715e-5
-1.533, 3.715e-5
-1.534, 4.024e-5
-1.535, 4.024e-5
-1.536, 4.024e-5
-1.537, 4.024e-5
-1.538, 4.024e-5
-1.539, 4.024e-5
-1.540, 4.024e-5
-1.541, 4.332e-5
-1.542, 4.332e-5
-1.543, 4.332e-5
-1.544, 4.332e-5
-1.545, 4.332e-5
-1.546, 4.332e-5
-1.547, 4.640e-5
-1.548, 4.332e-5
-1.549, 4.640e-5
-1.550, 4.640e-5
-1.551, 4.640e-5
-1.552, 4.640e-5
-1.553, 4.949e-5
-1.554, 4.640e-5
-1.555, 4.949e-5
-1.556, 4.949e-5
-1.557, 4.949e-5
-1.558, 4.949e-5
-1.559, 5.257e-5
-1.560, 4.949e-5
-1.561, 5.257e-5
-1.562, 5.257e-5
-1.563, 5.257e-5
-1.564, 5.257e-5
-1.565, 5.565e-5
-1.566, 5.565e-5
-1.567, 5.565e-5
-1.568, 5.565e-5
-1.569, 5.565e-5
-1.570, 5.873e-5
-1.571, 5.873e-5
-1.572, 5.873e-5
-1.573, 5.873e-5
-1.574, 6.182e-5
-1.575, 6.182e-5
-1.576, 6.182e-5
-1.577, 6.182e-5
-1.578, 6.490e-5
-1.579, 6.490e-5
-1.580, 6.490e-5
-1.581, 6.798e-5
-1.582, 6.798e-5
-1.583, 6.798e-5
-1.584, 7.107e-5
-1.585, 7.107e-5
-1.586, 7.107e-5
-1.587, 7.415e-5
-1.588, 7.415e-5
-1.589, 7.415e-5
-1.590, 7.723e-5
-1.591, 7.723e-5
-1.592, 7.723e-5
-1.593, 7.723e-5
-1.594, 8.032e-5
-1.595, 8.032e-5
-1.596, 8.340e-5
-1.597, 8.648e-5
-1.598, 8.340e-5
-1.599, 8.648e-5
-1.600, 8.957e-5
-1.601, 8.957e-5
-1.602, 9.265e-5
-1.603, 9.265e-5
-1.604, 9.573e-5
-1.605, 9.573e-5
-1.606, 9.882e-5
-1.607, 9.882e-5
-1.608, 1.019e-4
-1.609, 1.019e-4
-1.610, 1.050e-4
-1.611, 1.050e-4
-1.612, 1.081e-4
-1.613, 1.111e-4
-1.614, 1.111e-4
-1.615, 1.142e-4
-1.616, 1.142e-4
-1.617, 1.173e-4
-1.618, 1.204e-4
-1.619, 1.235e-4
-1.620, 1.266e-4
-1.621, 1.266e-4
-1.622, 1.296e-4
-1.623, 1.327e-4
-1.624, 1.327e-4
-1.625, 1.358e-4
-1.626, 1.389e-4
-1.627, 1.420e-4
-1.628, 1.451e-4
-1.629, 1.481e-4
-1.630, 1.481e-4
-1.631, 1.512e-4
-1.632, 1.543e-4
-1.633, 1.605e-4
-1.634, 1.605e-4
-1.635, 1.666e-4
-1.636, 1.697e-4
-1.637, 1.728e-4
-1.638, 1.759e-4
-1.639, 1.790e-4
-1.640, 1.821e-4
-1.641, 1.882e-4
-1.642, 1.913e-4
-1.643, 1.944e-4
-1.644, 1.975e-4
-1.645, 2.036e-4
-1.646, 2.067e-4
-1.647, 2.129e-4
-1.648, 2.160e-4
-1.649, 2.221e-4
-1.650, 2.221e-4
-1.651, 2.283e-4
-1.652, 2.345e-4
-1.653, 2.406e-4
-1.654, 2.437e-4
-1.655, 2.499e-4
-1.656, 2.530e-4
-1.657, 2.591e-4
-1.658, 2.653e-4
-1.659, 2.715e-4
-1.660, 2.776e-4
-1.661, 2.838e-4
-1.662, 2.900e-4
-1.663, 2.961e-4
-1.664, 3.023e-4
-1.665, 3.085e-4
-1.666, 3.146e-4
-1.667, 3.239e-4
-1.668, 3.300e-4
-1.669, 3.362e-4
-1.670, 3.455e-4
-1.671, 3.516e-4
-1.672, 3.609e-4
-1.673, 3.670e-4
-1.674, 3.763e-4
-1.675, 3.855e-4
-1.676, 3.948e-4
-1.677, 4.040e-4
-1.678, 4.102e-4
-1.679, 4.195e-4
-1.680, 4.287e-4
-1.681, 4.410e-4
-1.682, 4.503e-4
-1.683, 4.595e-4
-1.684, 4.688e-4
-1.685, 4.811e-4
-1.686, 4.935e-4
-1.687, 5.027e-4
-1.688, 5.150e-4
-1.689, 5.274e-4
-1.690, 5.366e-4
-1.691, 5.489e-4
-1.692, 5.613e-4
-1.693, 5.767e-4
-1.694, 5.890e-4
-1.695, 6.014e-4
-1.696, 6.137e-4
-1.697, 6.291e-4
-1.698, 6.414e-4
-1.699, 6.569e-4
-1.700, 6.723e-4
-1.701, 6.877e-4
-1.702, 7.031e-4
-1.703, 7.185e-4
-1.704, 7.339e-4
-1.705, 7.494e-4
-1.706, 7.679e-4
-1.707, 7.863e-4
-1.708, 8.018e-4
-1.709, 8.203e-4
-1.710, 8.388e-4
-1.711, 8.603e-4
-1.712, 8.758e-4
-1.713, 8.973e-4
-1.714, 9.158e-4
-1.715, 9.374e-4
-1.716, 9.590e-4
-1.717, 9.806e-4
-1.718, 1.002e-3
-1.719, 1.024e-3
-1.720, 1.045e-3
-1.721, 1.070e-3
-1.722, 1.092e-3
-1.723, 1.116e-3
-1.724, 1.141e-3
-1.725, 1.166e-3
-1.726, 1.190e-3
-1.727, 1.215e-3
-1.728, 1.240e-3
-1.729, 1.267e-3
-1.730, 1.295e-3
-1.731, 1.323e-3
-1.732, 1.351e-3
-1.733, 1.381e-3
-1.734, 1.409e-3
-1.735, 1.440e-3
-1.736, 1.471e-3
-1.737, 1.502e-3
-1.738, 1.532e-3
-1.739, 1.566e-3
-1.740, 1.597e-3
-1.741, 1.631e-3
-1.742, 1.668e-3
-1.743, 1.699e-3
-1.744, 1.736e-3
-1.745, 1.770e-3
-1.746, 1.807e-3
-1.747, 1.844e-3
-1.748, 1.881e-3
-1.749, 1.921e-3
-1.750, 1.958e-3
-1.751, 1.998e-3
-1.752, 2.038e-3
-1.753, 2.078e-3
-1.754, 2.121e-3
-1.755, 2.161e-3
-1.756, 2.201e-3
-1.757, 2.245e-3
-1.758, 2.291e-3
-1.759, 2.334e-3
-1.760, 2.380e-3
-1.761, 2.427e-3
-1.762, 2.473e-3
-1.763, 2.522e-3
-1.764, 2.568e-3
-1.765, 2.618e-3
-1.766, 2.667e-3
-1.767, 2.716e-3
-1.768, 2.766e-3
-1.769, 2.815e-3
-1.770, 2.867e-3
-1.771, 2.920e-3
-1.772, 2.972e-3
-1.773, 3.025e-3
-1.774, 3.080e-3
-1.775, 3.136e-3
-1.776, 3.194e-3
-1.777, 3.250e-3
-1.778, 3.308e-3
-1.779, 3.367e-3
-1.780, 3.425e-3
-1.781, 3.487e-3
-1.782, 3.549e-3
-1.783, 3.607e-3
-1.784, 3.669e-3
-1.785, 3.731e-3
-1.786, 3.792e-3
-1.787, 3.857e-3
-1.788, 3.922e-3
-1.789, 3.987e-3
-1.790, 4.051e-3
-1.791, 4.119e-3
-1.792, 4.184e-3
-1.793, 4.252e-3
-1.794, 4.317e-3
-1.795, 4.384e-3
-1.796, 4.452e-3
-1.797, 4.520e-3
-1.798, 4.588e-3
-1.799, 4.659e-3
-1.800, 4.730e-3
-1.801, 4.804e-3
-1.802, 4.878e-3
-1.803, 4.949e-3
-1.804, 5.026e-3
-1.805, 5.100e-3
-1.806, 5.174e-3
-1.807, 5.248e-3
-1.808, 5.325e-3
-1.809, 5.402e-3
-1.810, 5.479e-3
-1.811, 5.556e-3
-1.812, 5.636e-3
-1.813, 5.719e-3
-1.814, 5.799e-3
-1.815, 5.883e-3
-1.816, 5.963e-3
-1.817, 6.046e-3
-1.818, 6.129e-3
-1.819, 6.216e-3
-1.820, 6.302e-3
-1.821, 6.388e-3
-1.822, 6.478e-3
-1.823, 6.564e-3
-1.824, 6.647e-3
-1.825, 6.734e-3
-1.826, 6.817e-3
-1.827, 6.900e-3
-1.828, 6.986e-3
-1.829, 7.073e-3
-1.830, 7.162e-3
-1.831, 7.249e-3
-1.832, 7.338e-3
-1.833, 7.427e-3
-1.834, 7.517e-3
-1.835, 7.606e-3
-1.836, 7.699e-3
-1.837, 7.788e-3
-1.838, 7.884e-3
-1.839, 7.979e-3
-1.840, 8.078e-3
-1.841, 8.177e-3
-1.842, 8.278e-3
-1.843, 8.380e-3
-1.844, 8.482e-3
-1.845, 8.580e-3
-1.846, 8.682e-3
-1.847, 8.784e-3
-1.848, 8.883e-3
-1.849, 8.978e-3
-1.850, 9.077e-3
-1.851, 9.172e-3
-1.852, 9.265e-3
-1.853, 9.354e-3
-1.854, 9.441e-3
-1.855, 9.527e-3
-1.856, 9.613e-3
-1.857, 9.706e-3
-1.858, 9.804e-3
-1.859, 9.906e-3
-1.860, 1.001e-2
-1.861, 1.013e-2
-1.862, 1.024e-2
-1.863, 1.036e-2
-1.864, 1.047e-2
-1.865, 1.058e-2
-1.866, 1.070e-2
-1.867, 1.081e-2
-1.868, 1.092e-2
-1.869, 1.103e-2
-1.870, 1.114e-2
-1.871, 1.125e-2
-1.872, 1.136e-2
-1.873, 1.146e-2
-1.874, 1.157e-2
-1.875, 1.168e-2
-1.876, 1.178e-2
-1.877, 1.189e-2
-1.878, 1.200e-2
-1.879, 1.210e-2
-1.880, 1.220e-2
-1.881, 1.230e-2
-1.882, 1.241e-2
-1.883, 1.252e-2
-1.884, 1.263e-2
-1.885, 1.275e-2
-1.886, 1.286e-2
-1.887, 1.297e-2
-1.888, 1.308e-2
-1.889, 1.321e-2
-1.890, 1.333e-2
-1.891, 1.345e-2
-1.892, 1.357e-2
-1.893, 1.369e-2
-1.894, 1.382e-2
-1.895, 1.394e-2
-1.896, 1.406e-2
-1.897, 1.418e-2
-1.898, 1.430e-2
-1.899, 1.441e-2
-1.900, 1.447e-2
-1.899, 1.443e-2
-1.898, 1.437e-2
-1.897, 1.431e-2
-1.896, 1.424e-2
-1.895, 1.417e-2
-1.894, 1.411e-2
-1.893, 1.403e-2
-1.892, 1.396e-2
-1.891, 1.388e-2
-1.890, 1.381e-2
-1.889, 1.373e-2
-1.888, 1.366e-2
-1.887, 1.358e-2
-1.886, 1.351e-2
-1.885, 1.343e-2
-1.884, 1.336e-2
-1.883, 1.328e-2
-1.882, 1.321e-2
-1.881, 1.313e-2
-1.880, 1.306e-2
-1.879, 1.298e-2
-1.878, 1.291e-2
-1.877, 1.284e-2
-1.876, 1.276e-2
-1.875, 1.269e-2
-1.874, 1.262e-2
-1.873, 1.254e-2
-1.872, 1.247e-2
-1.871, 1.239e-2
-1.870, 1.232e-2
-1.869, 1.224e-2
-1.868, 1.217e-2
-1.867, 1.209e-2
-1.866, 1.201e-2
-1.865, 1.193e-2
-1.864, 1.186e-2
-1.863, 1.179e-2
-1.862, 1.171e-2
-1.861, 1.164e-2
-1.860, 1.157e-2
-1.859, 1.150e-2
-1.858, 1.143e-2
-1.857, 1.135e-2
-1.856, 1.128e-2
-1.855, 1.120e-2
-1.854, 1.113e-2
-1.853, 1.106e-2
-1.852, 1.098e-2
-1.851, 1.091e-2
-1.850, 1.083e-2
-1.849, 1.076e-2
-1.848, 1.069e-2
-1.847, 1.061e-2
-1.846, 1.054e-2
-1.845, 1.046e-2
-1.844, 1.039e-2
-1.843, 1.031e-2
-1.842, 1.024e-2
-1.841, 1.017e-2
-1.840, 1.010e-2
-1.839, 1.003e-2
-1.838, 9.959e-3
-1.837, 9.888e-3
-1.836, 9.817e-3
-1.835, 9.749e-3
-1.834, 9.684e-3
-1.833, 9.616e-3
-1.832, 9.549e-3
-1.831, 9.478e-3
-1.830, 9.410e-3
-1.829, 9.339e-3
-1.828, 9.268e-3
-1.827, 9.203e-3
-1.826, 9.129e-3
-1.825, 9.061e-3
-1.824, 8.991e-3
-1.823, 8.920e-3
-1.822, 8.846e-3
-1.821, 8.775e-3
-1.820, 8.701e-3
-1.819, 8.630e-3
-1.818, 8.556e-3
-1.817, 8.485e-3
-1.816, 8.414e-3
-1.815, 8.343e-3
-1.814, 8.275e-3
-1.813, 8.207e-3
-1.812, 8.140e-3
-1.811, 8.072e-3
-1.810, 8.007e-3
-1.809, 7.939e-3
-1.808, 7.871e-3
-1.807, 7.804e-3
-1.806, 7.736e-3
-1.805, 7.668e-3
-1.804, 7.600e-3
-1.803, 7.529e-3
-1.802, 7.464e-3
-1.801, 7.397e-3
-1.800, 7.329e-3
-1.799, 7.264e-3
-1.798, 7.199e-3
-1.797, 7.131e-3
-1.796, 7.064e-3
-1.795, 6.996e-3
-1.794, 6.931e-3
-1.793, 6.866e-3
-1.792, 6.798e-3
-1.791, 6.734e-3
-1.790, 6.669e-3
-1.789, 6.604e-3
-1.788, 6.543e-3
-1.787, 6.481e-3
-1.786, 6.422e-3
-1.785, 6.364e-3
-1.784, 6.302e-3
-1.783, 6.247e-3
-1.782, 6.188e-3
-1.781, 6.132e-3
-1.780, 6.074e-3
-1.779, 6.018e-3
-1.778, 5.960e-3
-1.777, 5.904e-3
-1.776, 5.846e-3
-1.775, 5.790e-3
-1.774, 5.732e-3
-1.773, 5.673e-3
-1.772, 5.618e-3
-1.771, 5.559e-3
-1.770, 5.500e-3
-1.769, 5.445e-3
-1.768, 5.386e-3
-1.767, 5.331e-3
-1.766, 5.275e-3
-1.765, 5.220e-3
-1.764, 5.161e-3
-1.763, 5.106e-3
-1.762, 5.050e-3
-1.761, 4.998e-3
-1.760, 4.945e-3
-1.759, 4.893e-3
-1.758, 4.841e-3
-1.757, 4.788e-3
-1.756, 4.733e-3
-1.755, 4.683e-3
-1.754, 4.631e-3
-1.753, 4.579e-3
-1.752, 4.526e-3
-1.751, 4.477e-3
-1.750, 4.424e-3
-1.749, 4.372e-3
-1.748, 4.323e-3
-1.747, 4.273e-3
-1.746, 4.224e-3
-1.745, 4.175e-3
-1.744, 4.125e-3
-1.743, 4.079e-3
-1.742, 4.030e-3
-1.741, 3.980e-3
-1.740, 3.934e-3
-1.739, 3.888e-3
-1.738, 3.839e-3
-1.737, 3.792e-3
-1.736, 3.746e-3
-1.735, 3.700e-3
-1.734, 3.657e-3
-1.733, 3.610e-3
-1.732, 3.567e-3
-1.731, 3.524e-3
-1.730, 3.481e-3
-1.729, 3.438e-3
-1.728, 3.395e-3
-1.727, 3.355e-3
-1.726, 3.311e-3
-1.725, 3.271e-3
-1.724, 3.231e-3
-1.723, 3.188e-3
-1.722, 3.148e-3
-1.721, 3.105e-3
-1.720, 3.068e-3
-1.719, 3.028e-3
-1.718, 2.988e-3
-1.717, 2.948e-3
-1.716, 2.911e-3
-1.715, 2.871e-3
-1.714, 2.830e-3
-1.713, 2.793e-3
-1.712, 2.756e-3
-1.711, 2.719e-3
-1.710, 2.679e-3
-1.709, 2.642e-3
-1.708, 2.605e-3
-1.707, 2.568e-3
-1.706, 2.534e-3
-1.705, 2.497e-3
-1.704, 2.464e-3
-1.703, 2.427e-3
-1.702, 2.393e-3
-1.701, 2.359e-3
-1.700, 2.325e-3
-1.699, 2.291e-3
-1.698, 2.257e-3
-1.697, 2.223e-3
-1.696, 2.189e-3
-1.695, 2.158e-3
-1.694, 2.124e-3
-1.693, 2.097e-3
-1.692, 2.063e-3
-1.691, 2.035e-3
-1.690, 2.004e-3
-1.689, 1.973e-3
-1.688, 1.943e-3
-1.687, 1.915e-3
-1.686, 1.884e-3
-1.685, 1.856e-3
-1.684, 1.825e-3
-1.683, 1.798e-3
-1.682, 1.770e-3
-1.681, 1.742e-3
-1.680, 1.714e-3
-1.679, 1.687e-3
-1.678, 1.662e-3
-1.677, 1.634e-3
-1.676, 1.606e-3
-1.675, 1.582e-3
-1.674, 1.554e-3
-1.673, 1.529e-3
-1.672, 1.505e-3
-1.671, 1.480e-3
-1.670, 1.455e-3
-1.669, 1.431e-3
-1.668, 1.406e-3
-1.667, 1.384e-3
-1.666, 1.360e-3
-1.665, 1.338e-3
-1.664, 1.314e-3
-1.663, 1.292e-3
-1.662, 1.270e-3
-1.661, 1.249e-3
-1.660, 1.227e-3
-1.659, 1.206e-3
-1.658, 1.187e-3
-1.657, 1.166e-3
-1.656, 1.144e-3
-1.655, 1.125e-3
-1.654, 1.104e-3
-1.653, 1.085e-3
-1.652, 1.067e-3
-1.651, 1.045e-3
-1.650, 1.027e-3
-1.649, 1.008e-3
-1.648, 9.898e-4
-1.647, 9.744e-4
-1.646, 9.559e-4
-1.645, 9.374e-4
-1.644, 9.189e-4
-1.643, 9.035e-4
-1.642, 8.881e-4
-1.641, 8.696e-4
-1.640, 8.542e-4
-1.639, 8.357e-4
-1.638, 8.203e-4
-1.637, 8.048e-4
-1.636, 7.894e-4
-1.635, 7.740e-4
-1.634, 7.586e-4
-1.633, 7.432e-4
-1.632, 7.309e-4
-1.631, 7.154e-4
-1.630, 7.031e-4
-1.629, 6.877e-4
-1.628, 6.754e-4
-1.627, 6.599e-4
-1.626, 6.476e-4
-1.625, 6.353e-4
-1.624, 6.229e-4
-1.623, 6.106e-4
-1.622, 5.983e-4
-1.621, 5.859e-4
-1.620, 5.736e-4
-1.619, 5.613e-4
-1.618, 5.489e-4
-1.617, 5.397e-4
-1.616, 5.274e-4
-1.615, 5.150e-4
-1.614, 5.058e-4
-1.613, 4.935e-4
-1.612, 4.842e-4
-1.611, 4.750e-4
-1.610, 4.626e-4
-1.609, 4.534e-4
-1.608, 4.441e-4
-1.607, 4.349e-4
-1.606, 4.256e-4
-1.605, 4.164e-4
-1.604, 4.071e-4
-1.603, 3.979e-4
-1.602, 3.917e-4
-1.601, 3.825e-4
-1.600, 3.732e-4
-1.599, 3.640e-4
-1.598, 3.578e-4
-1.597, 3.485e-4
-1.596, 3.393e-4
-1.595, 3.331e-4
-1.594, 3.270e-4
-1.593, 3.177e-4
-1.592, 3.115e-4
-1.591, 3.054e-4
-1.590, 2.961e-4
-1.589, 2.900e-4
-1.588, 2.838e-4
-1.587, 2.776e-4
-1.586, 2.715e-4
-1.585, 2.653e-4
-1.584, 2.561e-4
-1.583, 2.530e-4
-1.582, 2.468e-4
-1.581, 2.406e-4
-1.580, 2.345e-4
-1.579, 2.283e-4
-1.578, 2.252e-4
-1.577, 2.191e-4
-1.576, 2.129e-4
-1.575, 2.067e-4
-1.574, 2.036e-4
-1.573, 1.975e-4
-1.572, 1.944e-4
-1.571, 1.882e-4
-1.570, 1.851e-4
-1.569, 1.790e-4
-1.568, 1.759e-4
-1.567, 1.697e-4
-1.566, 1.666e-4
-1.565, 1.636e-4
-1.564, 1.574e-4
-1.563, 1.543e-4
-1.562, 1.512e-4
-1.561, 1.481e-4
-1.560, 1.451e-4
-1.559, 1.389e-4
-1.558, 1.358e-4
-1.557, 1.327e-4
-1.556, 1.296e-4
-1.555, 1.266e-4
-1.554, 1.235e-4
-1.553, 1.204e-4
-1.552, 1.173e-4
-1.551, 1.142e-4
-1.550, 1.111e-4
-1.549, 1.081e-4
-1.548, 1.050e-4
-1.547, 1.019e-4
-1.546, 1.019e-4
-1.545, 9.882e-5
-1.544, 9.573e-5
-1.543, 9.265e-5
-1.542, 8.957e-5
-1.541, 8.648e-5
-1.540, 8.648e-5
-1.539, 8.340e-5
-1.538, 8.032e-5
-1.537, 7.723e-5
-1.536, 7.723e-5
-1.535, 7.415e-5
-1.534, 7.415e-5
-1.533, 7.107e-5
-1.532, 6.798e-5
-1.531, 6.798e-5
-1.530, 6.490e-5
-1.529, 6.490e-5
-1.528, 6.182e-5
-1.527, 5.873e-5
-1.526, 5.873e-5
-1.525, 5.565e-5
-1.524, 5.565e-5
-1.523, 5.257e-5
-1.522, 5.257e-5
-1.521, 4.949e-5
-1.520, 4.949e-5
-1.519, 4.949e-5
-1.518, 4.640e-5
-1.517, 4.640e-5
-1.516, 4.332e-5
-1.515, 4.332e-5
-1.514, 4.024e-5
-1.513, 4.024e-5
-1.512, 4.024e-5
-1.511, 3.715e-5
-1.510, 3.715e-5
-1.509, 3.715e-5
-1.508, 3.407e-5
-1.507, 3.407e-5
-1.506, 3.407e-5
-1.505, 3.407e-5
-1.504, 3.099e-5
-1.503, 3.099e-5
-1.502, 2.790e-5
-1.501, 2.790e-5
-1.500, 2.790e-5
-1.499, 2.790e-5
-1.498, 2.482e-5
-1.497, 2.482e-5
-1.496, 2.482e-5
-1.495, 2.482e-5
-1.494, 2.174e-5
-1.493, 2.174e-5
-1.492, 2.174e-5
-1.491, 2.174e-5
-1.490, 2.174e-5
-1.489, 1.865e-5
-1.488, 1.865e-5
-1.487, 1.865e-5
-1.486, 1.865e-5
-1.485, 1.865e-5
-1.484, 1.557e-5
-1.483, 1.557e-5
-1.482, 1.557e-5
-1.481, 1.557e-5
-1.480, 1.557e-5
-1.479, 1.557e-5
-1.478, 1.557e-5
-1.477, 1.249e-5
-1.476, 1.249e-5
-1.475, 1.249e-5
-1.474, 1.249e-5
-1.473, 1.249e-5
-1.472, 1.249e-5
-1.471, 9.405e-6
-1.470, 1.249e-5
-1.469, 9.405e-6
-1.468, 9.405e-6
-1.467, 9.405e-6
-1.466, 9.405e-6
-1.465, 9.405e-6
-1.464, 9.405e-6
-1.463, 9.405e-6
-1.462, 6.322e-6
-1.461, 6.322e-6
-1.460, 9.405e-6
-1.459, 9.405e-6
-1.458, 6.322e-6
-1.457, 6.322e-6
-1.456, 6.322e-6
-1.455, 6.322e-6
-1.454, 6.322e-6
-1.453, 6.322e-6
-1.452, 6.322e-6
-1.451, 6.322e-6
-1.450, 6.322e-6
-1.449, 3.239e-6
-1.448, 6.322e-6
-1.447, 3.239e-6
-1.446, 3.239e-6
-1.445, 3.239e-6
-1.444, 3.239e-6
-1.443, 3.239e-6
-1.442, 3.239e-6
-1.441, 3.239e-6
-1.440, 3.239e-6
-1.439, 3.239e-6
-1.438, 3.239e-6
-1.437, 3.239e-6
-1.436, 3.239e-6
-1.435, 3.239e-6
-1.434, 1.559e-7
-1.433, 3.239e-6
-1.432, 3.239e-6
-1.431, 3.239e-6
-1.430, 1.559e-7
-1.429, 3.239e-6
-1.428, 1.559e-7
-1.427, 1.559e-7
-1.426, 1.559e-7
-1.425, 1.559e-7
-1.424, 1.559e-7
-1.423, 1.559e-7
-1.422, 1.559e-7
-1.421, 1.559e-7
-1.420, 1.559e-7
-1.419, 1.559e-7
-1.418, 1.559e-7
-1.417, 1.559e-7
-1.416, 1.559e-7
-1.415, 1.559e-7
-1.414, 1.559e-7
-1.413, 1.559e-7
-1.412, 1.559e-7
-1.411, 1.559e-7
-1.410, 1.559e-7
-1.409, 1.559e-7
-1.408, 1.559e-7
-1.407, 1.559e-7
-1.406, 1.559e-7
-1.405, 1.559e-7
-1.404, 1.559e-7
-1.403, 1.559e-7
-1.402, -2.927e-6
-1.401, 1.559e-7
-1.400, 1.559e-7
-1.399, 1.559e-7
-1.398, 1.559e-7
-1.397, -2.927e-6
-1.396, -2.927e-6
-1.395, -2.927e-6
-1.394, -2.927e-6
-1.393, -2.927e-6
-1.392, 1.559e-7
-1.391, -2.927e-6
-1.390, 1.559e-7
-1.389, -2.927e-6
-1.388, -2.927e-6
-1.387, -2.927e-6
-1.386, -2.927e-6
-1.385, -2.927e-6
-1.384, 1.559e-7
-1.383, -2.927e-6
-1.382, -2.927e-6
-1.381, -2.927e-6
-1.380, -2.927e-6
-1.379, -2.927e-6
-1.378, -2.927e-6
-1.377, -2.927e-6
-1.376, -2.927e-6
-1.375, -2.927e-6
-1.374, -2.927e-6
-1.373, -2.927e-6
-1.372, -2.927e-6
-1.371, -2.927e-6
-1.370, -2.927e-6
-1.369, -2.927e-6
-1.368, -2.927e-6
-1.367, -2.927e-6
-1.366, -2.927e-6
-1.365, -2.927e-6
-1.364, -2.927e-6
-1.363, -2.927e-6
-1.362, -2.927e-6
-1.361, -2.927e-6
-1.360, -2.927e-6
-1.359, -2.927e-6
-1.358, -2.927e-6
-1.357, -2.927e-6
-1.356, -2.927e-6
-1.355, -2.927e-6
-1.354, -2.927e-6
-1.353, -2.927e-6
-1.352, -2.927e-6
-1.351, -2.927e-6
-1.350, -2.927e-6
-1.349, -2.927e-6
-1.348, -2.927e-6
-1.347, -2.927e-6
-1.346, -2.927e-6
-1.345, -2.927e-6
-1.344, -2.927e-6
-1.343, -2.927e-6
-1.342, -6.010e-6
-1.341, -2.927e-6
-1.340, -2.927e-6
-1.339, -2.927e-6
-1.338, -2.927e-6
-1.337, -2.927e-6
-1.336, -2.927e-6
-1.335, -2.927e-6
-1.334, -2.927e-6
-1.333, -2.927e-6
-1.332, -2.927e-6
-1.331, -2.927e-6
-1.330, -2.927e-6
-1.329, -2.927e-6
-1.328, -6.010e-6
-1.327, -2.927e-6
-1.326, -2.927e-6
-1.325, -2.927e-6
-1.324, -2.927e-6
-1.323, -2.927e-6
-1.322, -2.927e-6
-1.321, -2.927e-6
-1.320, -2.927e-6
-1.319, -2.927e-6
-1.318, -2.927e-6
-1.317, -2.927e-6
-1.316, -6.010e-6
-1.315, -2.927e-6
-1.314, -2.927e-6
-1.313, -2.927e-6
-1.312, -2.927e-6
-1.311, -2.927e-6
-1.310, -2.927e-6
-1.309, -2.927e-6
-1.308, -2.927e-6
-1.307, -2.927e-6
-1.306, -6.010e-6
-1.305, -2.927e-6
-1.304, -2.927e-6
-1.303, -6.010e-6
-1.302, -2.927e-6
-1.301, -6.010e-6
-1.300, -2.927e-6
-1.299, -6.010e-6
-1.298, -2.927e-6
-1.297, -2.927e-6
-1.296, -2.927e-6
-1.295, -6.010e-6
-1.294, -2.927e-6
-1.293, -6.010e-6
-1.292, -6.010e-6
-1.291, -2.927e-6
-1.290, -6.010e-6
-1.289, -6.010e-6
-1.288, -2.927e-6
-1.287, -2.927e-6
-1.286, -2.927e-6
-1.285, -2.927e-6
-1.284, -2.927e-6
-1.283, -2.927e-6
-1.282, -2.927e-6
-1.281, -6.010e-6
-1.280, -2.927e-6
-1.279, -2.927e-6
-1.278, -2.927e-6
-1.277, -6.010e-6
-1.276, -6.010e-6
-1.275, -6.010e-6
-1.274, -2.927e-6
-1.273, -2.927e-6
-1.272, -2.927e-6
-1.271, -6.010e-6
-1.270, -6.010e-6
-1.269, -6.010e-6
-1.268, -6.010e-6
-1.267, -6.010e-6
-1.266, -2.927e-6
-1.265, -6.010e-6
-1.264, -2.927e-6
-1.263, -6.010e-6
-1.262, -6.010e-6
-1.261, -6.010e-6
-1.260, -6.010e-6
-1.259, -6.010e-6
-1.258, -2.927e-6
-1.257, -6.010e-6
-1.256, -2.927e-6
-1.255, -6.010e-6
-1.254, -6.010e-6
-1.253, -6.010e-6
-1.252, -6.010e-6
-1.251, -6.010e-6
-1.250, -6.010e-6
-1.249, -6.010e-6
-1.248, -6.010e-6
-1.247, -6.010e-6
-1.246, -6.010e-6
-1.245, -6.010e-6
-1.244, -6.010e-6
-1.243, -6.010e-6
-1.242, -6.010e-6
-1.241, -6.010e-6
-1.240, -6.010e-6
-1.239, -2.927e-6
-1.238, -6.010e-6
-1.237, -6.010e-6
-1.236, -6.010e-6
-1.235, -6.010e-6
-1.234, -6.010e-6
-1.233, -6.010e-6
-1.232, -6.010e-6
-1.231, -2.927e-6
-1.230, -6.010e-6
-1.229, -6.010e-6
-1.228, -6.010e-6
-1.227, -6.010e-6
-1.226, -6.010e-6
-1.225, -6.010e-6
-1.224, -6.010e-6
-1.223, -6.010e-6
-1.222, -6.010e-6
-1.221, -6.010e-6
-1.220, -6.010e-6
-1.219, -6.010e-6
-1.218, -6.010e-6
-1.217, -6.010e-6
-1.216, -6.010e-6
-1.215, -6.010e-6
-1.214, -6.010e-6
-1.213, -6.010e-6
-1.212, -6.010e-6
-1.211, -6.010e-6
-1.210, -6.010e-6
-1.209, -6.010e-6
-1.208, -6.010e-6
-1.207, -6.010e-6
-1.206, -6.010e-6
-1.205, -6.010e-6
-1.204, -6.010e-6
-1.203, -6.010e-6
-1.202, -6.010e-6
-1.201, -6.010e-6
-1.200, -6.010e-6
-1.199, -6.010e-6
-1.198, -2.927e-6
-1.197, -6.010e-6
-1.196, -6.010e-6
-1.195, -6.010e-6
-1.194, -6.010e-6
-1.193, -6.010e-6
-1.192, -6.010e-6
-1.191, -6.010e-6
-1.190, -6.010e-6
-1.189, -6.010e-6
-1.188, -6.010e-6
-1.187, -6.010e-6
-1.186, -6.010e-6
-1.185, -6.010e-6
-1.184, -6.010e-6
-1.183, -6.010e-6
-1.182, -6.010e-6
-1.181, -6.010e-6
-1.180, -6.010e-6
-1.179, -6.010e-6
-1.178, -6.010e-6
-1.177, -6.010e-6
-1.176, -6.010e-6
-1.175, -6.010e-6
-1.174, -6.010e-6
-1.173, -6.010e-6
-1.172, -6.010e-6
-1.171, -6.010e-6
-1.170, -6.010e-6
-1.169, -6.010e-6
-1.168, -6.010e-6
-1.167, -6.010e-6
-1.166, -6.010e-6
-1.165, -6.010e-6
-1.164, -6.010e-6
-1.163, -6.010e-6
-1.162, -6.010e-6
-1.161, -6.010e-6
-1.160, -6.010e-6
-1.159, -6.010e-6
-1.158, -6.010e-6
-1.157, -6.010e-6
-1.156, -6.010e-6
-1.155, -6.010e-6
-1.154, -6.010e-6
-1.153, -6.010e-6
-1.152, -6.010e-6
-1.151, -6.010e-6
-1.150, -6.010e-6
-1.149, -6.010e-6
-1.148, -6.010e-6
-1.147, -6.010e-6
-1.146, -6.010e-6
-1.145, -6.010e-6
-1.144, -9.093e-6
-1.143, -6.010e-6
-1.142, -9.093e-6
-1.141, -6.010e-6
-1.140, -9.093e-6
-1.139, -6.010e-6
-1.138, -6.010e-6
-1.137, -9.093e-6
-1.136, -6.010e-6
-1.135, -6.010e-6
-1.134, -6.010e-6
-1.133, -6.010e-6
-1.132, -6.010e-6
-1.131, -6.010e-6
-1.130, -6.010e-6
-1.129, -6.010e-6
-1.128, -6.010e-6
-1.127, -6.010e-6
-1.126, -6.010e-6
-1.125, -6.010e-6
-1.124, -6.010e-6
-1.123, -9.093e-6
-1.122, -9.093e-6
-1.121, -9.093e-6
-1.120, -6.010e-6
-1.119, -9.093e-6
-1.118, -9.093e-6
-1.117, -9.093e-6
-1.116, -9.093e-6
-1.115, -6.010e-6
-1.114, -9.093e-6
-1.113, -6.010e-6
-1.112, -6.010e-6
-1.111, -6.010e-6
-1.110, -6.010e-6
-1.109, -9.093e-6
-1.108, -6.010e-6
-1.107, -9.093e-6
-1.106, -9.093e-6
-1.105, -6.010e-6
-1.104, -6.010e-6
-1.103, -9.093e-6
-1.102, -9.093e-6
-1.101, -9.093e-6
-1.100, -6.010e-6
-1.099, -9.093e-6
-1.098, -6.010e-6
-1.097, -9.093e-6
-1.096, -9.093e-6
-1.095, -9.093e-6
-1.094, -6.010e-6
-1.093, -9.093e-6
-1.092, -6.010e-6
-1.091, -9.093e-6
-1.090, -6.010e-6
-1.089, -6.010e-6
-1.088, -9.093e-6
-1.087, -9.093e-6
-1.086, -9.093e-6
-1.085, -9.093e-6
-1.084, -6.010e-6
-1.083, -9.093e-6
-1.082, -9.093e-6
-1.081, -9.093e-6
-1.080, -9.093e-6
-1.079, -9.093e-6
-1.078, -6.010e-6
-1.077, -9.093e-6
-1.076, -9.093e-6
-1.075, -9.093e-6
-1.074, -9.093e-6
-1.073, -9.093e-6
-1.072, -9.093e-6
-1.071, -9.093e-6
-1.070, -9.093e-6
-1.069, -9.093e-6
-1.068, -9.093e-6
-1.067, -9.093e-6
-1.066, -9.093e-6
-1.065, -6.010e-6
-1.064, -9.093e-6
-1.063, -9.093e-6
-1.062, -9.093e-6
-1.061, -9.093e-6
-1.060, -9.093e-6
-1.059, -9.093e-6
-1.058, -9.093e-6
-1.057, -9.093e-6
-1.056, -9.093e-6
-1.055, -9.093e-6
-1.054, -9.093e-6
-1.053, -9.093e-6
-1.052, -9.093e-6
-1.051, -9.093e-6
-1.050, -9.093e-6
-1.049, -9.093e-6
-1.048, -9.093e-6
-1.047, -9.093e-6
-1.046, -9.093e-6
-1.045, -9.093e-6
-1.044, -9.093e-6
-1.043, -9.093e-6
-1.042, -9.093e-6
-1.041, -9.093e-6
-1.040, -9.093e-6
-1.039, -9.093e-6
-1.038, -9.093e-6
-1.037, -9.093e-6
-1.036, -9.093e-6
-1.035, -9.093e-6
-1.034, -1.218e-5
-1.033, -9.093e-6
-1.032, -9.093e-6
-1.031, -9.093e-6
-1.030, -9.093e-6
-1.029, -9.093e-6
-1.028, -9.093e-6
-1.027, -9.093e-6
-1.026, -9.093e-6
-1.025, -9.093e-6
-1.024, -9.093e-6
-1.023, -9.093e-6
-1.022, -9.093e-6
-1.021, -9.093e-6
-1.020, -1.218e-5
-1.019, -9.093e-6
-1.018, -9.093e-6
-1.017, -1.218e-5
-1.016, -9.093e-6
-1.015, -9.093e-6
-1.014, -9.093e-6
-1.013, -1.218e-5
-1.012, -9.093e-6
-1.011, -9.093e-6
-1.010, -9.093e-6
-1.009, -1.218e-5
-1.008, -9.093e-6
-1.007, -9.093e-6
-1.006, -9.093e-6
-1.005, -9.093e-6
-1.004, -9.093e-6
-1.003, -1.218e-5
-1.002, -9.093e-6
-1.001, -9.093e-6
