Potential V vs RHE, Current mA cm-2
0.05339999999999995,-0.02861960959626969
0.05239999999999995,-0.029624054619173872
0.051399999999999946,-0.03014749780012393
0.050399999999999945,-0.030501175625090193
0.049399999999999944,-0.030840706337057794
0.04839999999999994,-0.031166089936026757
0.04739999999999994,-0.03144903219599977
0.04639999999999994,-0.03174612156897143
0.04539999999999994,-0.03202906382894443
0.04439999999999994,-0.03229785897591879
0.04339999999999994,-0.03258080123589179
0.04239999999999994,-0.03287789060886345
0.04139999999999994,-0.03316083286883646
0.040399999999999936,-0.03344377512880947
0.039399999999999935,-0.033726717388782475
0.038399999999999934,-0.03403795387475279
0.03739999999999993,-0.03432089613472579
0.03639999999999993,-0.03464627973369475
0.03539999999999993,-0.034929221993667756
0.03439999999999993,-0.03518387002764346
0.03339999999999993,-0.035466812287616466
0.03239999999999993,-0.035749754547589475
0.03139999999999993,-0.03604684392056113
0.030399999999999927,-0.03632978618053414
0.029399999999999926,-0.03661272844050715
0.028399999999999925,-0.0369098178134788
0.027399999999999924,-0.03717861296045316
0.026399999999999924,-0.03748984944642347
0.025399999999999923,-0.03778693881939513
0.024399999999999922,-0.03806988107936814
0.02339999999999992,-0.03835282333934115
0.02239999999999992,-0.038635765599314156
0.02139999999999992,-0.03894700208528446
0.020399999999999918,-0.03925823857125477
0.019399999999999917,-0.039527033718229125
0.018399999999999916,-0.03985241731719808
0.017399999999999916,-0.04014950669016974
0.016399999999999915,-0.04047489028913869
0.015399999999999914,-0.040998333470088764
0.014399999999999913,-0.041366158408053674
0.013399999999999912,-0.04166324778102533
0.012399999999999911,-0.04196033715399699
0.01139999999999991,-0.04225742652696864
0.01039999999999991,-0.042582810125937606
0.009399999999999908,-0.04287989949890925
0.008399999999999908,-0.043205283097878217
0.007399999999999907,-0.04354481380984583
0.006399999999999906,-0.04388434452181344
0.005399999999999905,-0.0442097281207824
0.004399999999999904,-0.04454925883275
0.003399999999999903,-0.04488878954471761
0.002399999999999902,-0.04522832025668522
0.0013999999999999013,-0.04553955674265553
0.00039999999999990044,-0.04587908745462314
-0.0006000000000001005,-0.0462044710535921
-0.0016000000000001013,-0.04655814887855836
-0.0026000000000001022,-0.046883532477527315
-0.003600000000000103,-0.047251357415492225
-0.004600000000000104,-0.04759088812745983
-0.005600000000000105,-0.04795871306542474
-0.006600000000000106,-0.048312390890391
-0.007600000000000107,-0.04865192160235861
-0.008600000000000108,-0.04901974654032352
-0.009600000000000108,-0.04935927725229113
-0.01060000000000011,-0.04971295507725739
-0.01160000000000011,-0.05006663290222365
-0.012600000000000111,-0.050462752066185855
-0.013600000000000112,-0.05081642989115212
-0.014600000000000113,-0.05119840194211568
-0.015600000000000114,-0.051566226880080585
-0.016600000000000115,-0.051948198931044146
-0.017600000000000116,-0.052316023869009055
-0.018600000000000116,-0.052697995919972616
-0.019600000000000117,-0.05309411508393482
-0.020600000000000118,-0.05347608713489838
-0.02160000000000012,-0.053872206298860595
-0.02260000000000012,-0.054240031236825505
-0.02360000000000012,-0.05465029751378637
-0.024600000000000122,-0.05503226956474993
-0.025600000000000123,-0.055442535841710786
-0.026600000000000124,-0.055838655005673
-0.027600000000000124,-0.05622062705663656
-0.028600000000000125,-0.05661674622059877
-0.029600000000000126,-0.05702701249755963
-0.030600000000000127,-0.05740898454852319
-0.03160000000000013,-0.05781925082548405
-0.03260000000000013,-0.05822951710244491
-0.03360000000000013,-0.05862563626640712
-0.03460000000000002,-0.05902175543036933
-0.03560000000000002,-0.05941787459433154
-0.03660000000000002,-0.0598281408712924
-0.03760000000000002,-0.06022426003525461
-0.03860000000000002,-0.06066282053821278
-0.039600000000000024,-0.061087233928172294
-0.040600000000000025,-0.06149750020513314
-0.041600000000000026,-0.06192191359509265
-0.04260000000000003,-0.062360474098050823
-0.04360000000000003,-0.06279903460100898
-0.04460000000000003,-0.06322344799096849
-0.04560000000000003,-0.06366200849392664
-0.04660000000000003,-0.06412886322288211
-0.04760000000000003,-0.06456742372584028
-0.04860000000000003,-0.06500598422879844
-0.04960000000000003,-0.06545869184475524
-0.050600000000000034,-0.06591139946071205
-0.051600000000000035,-0.06637825418966752
-0.052600000000000036,-0.0668168146926257
-0.053600000000000037,-0.0672695223085825
-0.05460000000000004,-0.06770808281154064
-0.05560000000000004,-0.06814664331449882
-0.05660000000000004,-0.06864179226945158
-0.05760000000000004,-0.0690662056594111
-0.05860000000000004,-0.06953306038836657
-0.05960000000000004,-0.06998576800432338
-0.06060000000000004,-0.07043847562028017
-0.061600000000000044,-0.07093362457523293
-0.06260000000000004,-0.07140047930418841
-0.06360000000000005,-0.07189562825914117
-0.06460000000000005,-0.07233418876209932
-0.06560000000000005,-0.07280104349105479
-0.06660000000000005,-0.0732820453330089
-0.06760000000000005,-0.07376304717496303
-0.06860000000000005,-0.07422990190391847
-0.06960000000000005,-0.07472505085887124
-0.07060000000000005,-0.0751919055878267
-0.07160000000000005,-0.07567290742978082
-0.07260000000000005,-0.07615390927173492
-0.07360000000000005,-0.07660661688769173
-0.07460000000000006,-0.0770734716166472
-0.07560000000000006,-0.07756862057159995
-0.07660000000000006,-0.07806376952655272
-0.07760000000000006,-0.07854477136850684
-0.07860000000000006,-0.07902577321046096
-0.07960000000000006,-0.07952092216541372
-0.08060000000000006,-0.08000192400736782
-0.08160000000000006,-0.08048292584932194
-0.08260000000000006,-0.0809780748042747
-0.08360000000000006,-0.08147322375922747
-0.08460000000000006,-0.08194007848818292
-0.08560000000000006,-0.0824352274431357
-0.08660000000000007,-0.08293037639808845
-0.08760000000000007,-0.08338308401404526
-0.08860000000000007,-0.08383579163000207
-0.08960000000000007,-0.08430264635895754
-0.09060000000000007,-0.08478364820091165
-0.09160000000000007,-0.08529294426886307
-0.09260000000000007,-0.0857597989978185
-0.09360000000000007,-0.0862832421787686
-0.09460000000000007,-0.08675009690772406
-0.09560000000000007,-0.08721695163667952
-0.09660000000000007,-0.08769795347863363
-0.09760000000000008,-0.08815066109459044
-0.09860000000000008,-0.08861751582354589
-0.09960000000000008,-0.0890985176655
-0.10060000000000008,-0.08957951950745412
-0.10160000000000008,-0.09007466846240689
-0.10260000000000008,-0.09052737607836371
-0.10360000000000008,-0.09100837792031781
-0.10460000000000008,-0.09148937976227192
-0.10560000000000008,-0.09194208737822873
-0.10660000000000008,-0.09239479499418554
-0.10760000000000008,-0.09288994394913831
-0.10860000000000009,-0.09337094579109242
-0.10960000000000009,-0.09383780052004788
-0.11060000000000009,-0.09429050813600469
-0.11160000000000009,-0.09475736286496016
-0.11260000000000009,-0.09521007048091697
-0.11360000000000009,-0.09569107232287108
-0.11460000000000009,-0.09615792705182655
-0.11560000000000009,-0.09661063466778336
-0.11660000000000009,-0.09706334228374017
-0.1176000000000001,-0.09750190278669833
-0.1186000000000001,-0.09794046328965648
-0.1196000000000001,-0.09837902379261465
-0.1206000000000001,-0.0988175842955728
-0.1216000000000001,-0.09927029191152963
-0.1226000000000001,-0.09969470530148912
-0.1236000000000001,-0.1001332658044473
-0.1246000000000001,-0.10057182630740545
-0.1256000000000001,-0.10099623969736496
-0.1266000000000001,-0.10140650597432584
-0.1276000000000001,-0.10184506647728399
-0.1286000000000001,-0.1022694798672435
-0.1296000000000001,-0.10266559903120571
-0.1306000000000001,-0.10306171819516792
-0.1316000000000001,-0.10347198447212877
-0.1326000000000001,-0.10386810363609099
-0.1336000000000001,-0.10426422280005321
-0.1346000000000001,-0.10464619485101677
-0.1356000000000001,-0.10504231401497897
-0.1366000000000001,-0.10545258029193984
-0.1376000000000001,-0.1058345523429034
-0.1386000000000001,-0.10621652439386696
-0.1396000000000001,-0.10659849644483052
-0.1406000000000001,-0.10696632138279542
-0.14160000000000011,-0.10733414632076034
-0.14260000000000012,-0.10770197125872524
-0.14360000000000012,-0.1080839433096888
-0.14460000000000012,-0.10842347402165642
-0.14560000000000012,-0.10877715184662266
-0.14660000000000012,-0.10913082967158892
-0.14760000000000012,-0.10947036038355652
-0.14860000000000012,-0.1098240382085228
-0.14960000000000012,-0.1101352746944931
-0.15060000000000012,-0.11046065829346206
-0.15160000000000012,-0.11078604189243102
-0.15260000000000012,-0.11111142549139998
-0.15360000000000013,-0.11145095620336758
-0.15460000000000013,-0.1117621926893379
-0.15560000000000013,-0.11205928206230956
-0.15660000000000013,-0.11235637143528121
-0.15760000000000013,-0.11265346080825286
-0.15860000000000013,-0.11293640306822587
-0.15960000000000002,-0.11323349244119754
-0.16060000000000002,-0.11351643470117054
-0.16160000000000002,-0.11379937696114355
-0.16260000000000002,-0.11405402499511925
-0.16360000000000002,-0.11433696725509226
-0.16460000000000002,-0.11459161528906797
-0.16560000000000002,-0.11487455754904098
-0.16660000000000003,-0.11517164692201265
-0.16760000000000003,-0.11539800072999104
-0.16860000000000003,-0.11565264876396675
-0.16960000000000003,-0.11587900257194515
-0.17060000000000003,-0.1161195034929222
-0.17160000000000003,-0.11638829863989655
-0.17260000000000003,-0.11660050533487633
-0.17360000000000003,-0.11684100625585338
-0.17460000000000003,-0.11702491872483582
-0.17560000000000003,-0.11722297830681694
-0.17660000000000003,-0.11743518500179671
-0.17760000000000004,-0.11759080324478184
-0.17860000000000004,-0.1178030099397616
-0.17960000000000004,-0.11798692240874405
-0.18060000000000004,-0.11815668776472787
-0.18160000000000004,-0.11832645312071166
-0.18260000000000004,-0.11848207136369682
-0.18360000000000004,-0.11866598383267928
-0.18460000000000004,-0.11883574918866308
-0.18560000000000004,-0.11896307320565094
-0.18660000000000004,-0.11913283856163473
-0.18760000000000004,-0.1192601625786226
-0.18860000000000005,-0.1194016337086091
-0.18960000000000005,-0.11952895772559695
-0.19060000000000005,-0.11964213462958616
-0.19160000000000005,-0.1197977528725713
-0.19260000000000005,-0.11991092977656051
-0.19360000000000005,-0.12002410668054972
-0.19460000000000005,-0.12012313647154027
-0.19560000000000005,-0.12022216626253084
-0.19660000000000005,-0.12032119605352137
-0.19760000000000005,-0.12042022584451192
-0.19860000000000005,-0.12053340274850113
-0.19960000000000006,-0.12060413831349438
-0.20060000000000006,-0.12068902099148628
-0.20160000000000006,-0.12077390366947817
-0.20260000000000006,-0.12084463923447143
-0.20360000000000006,-0.12091537479946468
-0.20460000000000006,-0.12095781613846063
-0.20560000000000006,-0.12101440459045523
-0.20660000000000006,-0.1210851401554485
-0.20760000000000006,-0.12111343438144578
-0.20860000000000006,-0.1211700228334404
-0.20960000000000006,-0.12118416994643905
-0.21060000000000006,-0.121226611285435
-0.21160000000000007,-0.12128319973742961
-0.21260000000000007,-0.12128319973742961
-0.21360000000000007,-0.1213114939634269
-0.21460000000000007,-0.12132564107642556
-0.21560000000000007,-0.12132564107642556
-0.21660000000000007,-0.1213680824154215
-0.21760000000000007,-0.12138222952842014
-0.21860000000000007,-0.12138222952842014
-0.21960000000000007,-0.12138222952842014
-0.22060000000000007,-0.1213963766414188
-0.22160000000000007,-0.12138222952842014
-0.22260000000000008,-0.1213680824154215
-0.22360000000000008,-0.1213680824154215
-0.22460000000000008,-0.12135393530242285
-0.22560000000000008,-0.12132564107642556
-0.22660000000000008,-0.12132564107642556
-0.22760000000000008,-0.12129734685042824
-0.22860000000000008,-0.12126905262443094
-0.22960000000000008,-0.12126905262443094
-0.23060000000000008,-0.12121246417243635
-0.23160000000000008,-0.12121246417243635
-0.23260000000000008,-0.12118416994643905
-0.23360000000000009,-0.12112758149444444
-0.2346000000000001,-0.12109928726844714
-0.2356000000000001,-0.12105684592945118
-0.2366000000000001,-0.12101440459045523
-0.2376000000000001,-0.12097196325145929
-0.2386000000000001,-0.12092952191246334
-0.2396000000000001,-0.12087293346046873
-0.2406000000000001,-0.12083049212147279
-0.2416000000000001,-0.12077390366947817
-0.2426000000000001,-0.12073146233048222
-0.2436000000000001,-0.12067487387848763
-0.2446000000000001,-0.12061828542649301
-0.2456000000000001,-0.12056169697449844
-0.2466000000000001,-0.12050510852250383
-0.2476000000000001,-0.12043437295751057
-0.2486000000000001,-0.12039193161851462
-0.2496000000000001,-0.12032119605352137
-0.2506000000000001,-0.12025046048852812
-0.2516000000000001,-0.12020801914953216
-0.2526000000000001,-0.12012313647154027
-0.2536000000000001,-0.12008069513254432
-0.2546000000000001,-0.12000995956755106
-0.2556000000000001,-0.11993922400255783
-0.2566000000000001,-0.11989678266356185
-0.2576000000000001,-0.1197977528725713
-0.2586000000000001,-0.11974116442057671
-0.2596000000000001,-0.11967042885558345
-0.2606000000000001,-0.11958554617759155
-0.2616000000000001,-0.11954310483859559
-0.2626000000000001,-0.11945822216060371
-0.2636000000000001,-0.11938748659561045
-0.2646000000000001,-0.11931675103061717
-0.2656000000000001,-0.11924601546562394
-0.2666000000000001,-0.11914698567463339
-0.2676000000000001,-0.11909039722263878
-0.2686000000000001,-0.11901966165764555
-0.2696000000000001,-0.11894892609265229
-0.2706000000000001,-0.11886404341466038
-0.2716000000000001,-0.11880745496266579
-0.2726000000000001,-0.11873671939767255
-0.2736000000000001,-0.11866598383267928
-0.2746000000000001,-0.11858110115468738
-0.2756000000000001,-0.11851036558969412
-0.2766000000000001,-0.11845377713769951
-0.2776000000000001,-0.11836889445970761
-0.2786000000000001,-0.11829815889471437
-0.2796000000000001,-0.11821327621672245
-0.2806000000000001,-0.1181708348777265
-0.28160000000000013,-0.1181142464257319
-0.28260000000000013,-0.11802936374774001
-0.28360000000000013,-0.1179727752957454
-0.2846,-0.11788789261775351
-0.2856,-0.11781715705276027
-0.2866,-0.11777471571376431
-0.2876,-0.11770398014877105
-0.2886,-0.11763324458377779
-0.2896,-0.11756250901878454
-0.2906,-0.11749177345379128
-0.2916,-0.11743518500179671
-0.2926,-0.11736444943680345
-0.2936,-0.11730786098480883
-0.29460000000000003,-0.1172371254198156
-0.29560000000000003,-0.1171522427418237
-0.29660000000000003,-0.1170956542898291
-0.29760000000000003,-0.11702491872483582
-0.29860000000000003,-0.11696833027284123
-0.29960000000000003,-0.11689759470784798
-0.30060000000000003,-0.11684100625585338
-0.30160000000000003,-0.11678441780385877
-0.30260000000000004,-0.11671368223886554
-0.30360000000000004,-0.11665709378687093
-0.30460000000000004,-0.11660050533487633
-0.30560000000000004,-0.11652976976988305
-0.30660000000000004,-0.11648732843088712
-0.30760000000000004,-0.11643073997889253
-0.30860000000000004,-0.11636000441389927
-0.30960000000000004,-0.11630341596190466
-0.31060000000000004,-0.11623268039691143
-0.31160000000000004,-0.11617609194491682
-0.31260000000000004,-0.11613365060592087
-0.31360000000000005,-0.11606291504092761
-0.31460000000000005,-0.11600632658893299
-0.31560000000000005,-0.11596388524993705
-0.31660000000000005,-0.11589314968494381
-0.31760000000000005,-0.11582241411995055
-0.31860000000000005,-0.11579411989395326
-0.31960000000000005,-0.11576582566795594
-0.32060000000000005,-0.11572338432896
-0.32160000000000005,-0.11565264876396675
-0.32260000000000005,-0.11562435453796945
-0.32360000000000005,-0.1156385016509681
-0.32460000000000006,-0.11566679587696539
-0.32560000000000006,-0.1156385016509681
-0.32660000000000006,-0.11559606031197216
-0.32760000000000006,-0.11553947185997754
-0.32860000000000006,-0.11549703052098159
-0.32960000000000006,-0.11544044206898699
-0.33060000000000006,-0.11539800072999104
-0.33160000000000006,-0.1153555593909951
-0.33260000000000006,-0.11532726516499778
-0.33360000000000006,-0.11528482382600183
-0.33460000000000006,-0.11522823537400724
-0.33560000000000006,-0.11518579403501128
-0.33660000000000007,-0.11515749980901398
-0.33760000000000007,-0.11512920558301669
-0.33860000000000007,-0.11510091135701939
-0.33960000000000007,-0.1150726171310221
-0.34060000000000007,-0.11504432290502477
-0.34160000000000007,-0.11500188156602882
-0.34260000000000007,-0.11498773445303019
-0.34360000000000007,-0.11495944022703289
-0.3446000000000001,-0.11493114600103559
-0.3456000000000001,-0.11490285177503827
-0.3466000000000001,-0.11486041043604232
-0.34759999999999996,-0.11486041043604232
-0.3486000000000001,-0.11483211621004503
-0.34959999999999997,-0.11480382198404772
-0.3506000000000001,-0.11477552775805042
-0.35159999999999997,-0.11478967487104909
-0.3526000000000001,-0.11477552775805042
-0.35359999999999997,-0.11474723353205314
-0.3546000000000001,-0.11470479219305717
-0.35559999999999997,-0.11467649796705988
-0.3566000000000001,-0.11467649796705988
-0.3576,-0.11464820374106259
-0.3586000000000001,-0.11463405662806392
-0.3596,-0.11461990951506526
-0.3606000000000001,-0.11460576240206662
-0.3616,-0.11457746817606933
-0.3626000000000001,-0.11457746817606933
-0.3636,-0.11457746817606933
-0.3646000000000001,-0.11456332106307067
-0.3656,-0.11454917395007203
-0.3666000000000001,-0.11454917395007203
-0.3676,-0.11452087972407471
-0.3686000000000001,-0.11454917395007203
-0.3696,-0.11452087972407471
-0.3706000000000001,-0.11454917395007203
-0.3716,-0.11454917395007203
-0.3726000000000001,-0.11453502683707338
-0.3736,-0.11453502683707338
-0.3746000000000001,-0.11452087972407471
-0.3756,-0.11450673261107608
-0.3766000000000001,-0.11450673261107608
-0.3776,-0.11452087972407471
-0.3786000000000001,-0.11452087972407471
-0.3796,-0.11450673261107608
-0.3806000000000001,-0.11450673261107608
-0.3816,-0.11454917395007203
-0.3826000000000001,-0.11454917395007203
-0.3836,-0.11454917395007203
-0.3846000000000001,-0.11453502683707338
-0.3856,-0.11453502683707338
-0.3866000000000001,-0.11452087972407471
-0.3876,-0.11453502683707338
-0.3886000000000001,-0.11453502683707338
-0.3896,-0.11454917395007203
-0.3906000000000001,-0.11454917395007203
-0.3916,-0.11456332106307067
-0.3926000000000001,-0.11457746817606933
-0.3936,-0.11457746817606933
-0.3946000000000001,-0.11459161528906797
-0.3956,-0.11459161528906797
-0.3966000000000001,-0.11461990951506526
-0.3976,-0.1146623508540612
-0.3986000000000001,-0.1146623508540612
-0.3996,-0.1146623508540612
-0.4006000000000001,-0.1146623508540612
-0.4016,-0.11467649796705988
-0.4026000000000001,-0.11470479219305717
-0.4036,-0.11473308641905447
-0.4046000000000001,-0.11473308641905447
-0.4056,-0.11476138064505177
-0.40660000000000013,-0.11477552775805042
-0.4076,-0.11481796909704638
-0.40860000000000013,-0.11486041043604232
-0.4096,-0.11487455754904098
-0.41060000000000013,-0.11490285177503827
-0.4116,-0.11491699888803693
-0.41260000000000013,-0.11494529311403422
-0.4136,-0.11497358734003153
-0.41460000000000014,-0.11498773445303019
-0.4156,-0.11503017579202615
-0.41660000000000014,-0.11504432290502477
-0.4176,-0.11505847001802343
-0.41860000000000014,-0.11508676424402071
-0.41960000000000003,-0.11511505847001803
-0.42060000000000014,-0.11508676424402071
-0.42160000000000003,-0.11512920558301669
-0.42260000000000014,-0.11515749980901398
-0.42360000000000003,-0.11518579403501128
-0.42460000000000014,-0.11519994114800992
-0.42560000000000003,-0.11522823537400724
-0.42660000000000015,-0.11527067671300319
-0.42760000000000004,-0.11531311805199915
-0.42860000000000015,-0.1153555593909951
-0.42960000000000004,-0.11538385361699238
-0.43060000000000015,-0.1154121478429897
-0.43160000000000004,-0.11545458918198566
-0.43260000000000015,-0.11548288340798295
-0.43360000000000004,-0.1155253247469789
-0.43460000000000015,-0.11556776608597484
-0.43560000000000004,-0.1156385016509681
-0.43660000000000015,-0.11565264876396675
