Potential V vs RHE, Current mA cm-2
0.013299999999999867,-0.6128529351015338
0.012299999999999978,-2.095187435100119
0.011299999999999866,-3.1420737970002466
0.010299999999999976,-3.927238568425342
0.009299999999999864,-4.538393849967037
0.008299999999999974,-4.9302688800296535
0.007299999999999862,-5.235846520800501
0.006299999999999972,-5.497568111275533
0.00529999999999986,-5.672992312458796
0.0042999999999999705,-5.847001802342197
0.0032999999999998586,-5.9347139029338285
0.0022999999999999687,-6.021011292225596
0.0012999999999998568,-6.108723392817228
0.00029999999999996696,-6.152579443113044
-0.000700000000000145,-6.196435493408861
-0.0017000000000000348,-6.196435493408861
-0.0027000000000001467,-6.238876832404812
-0.0037000000000000366,-6.238876832404812
-0.0047000000000001485,-6.282732882700628
-0.005700000000000038,-6.326588932996443
-0.00670000000000015,-6.37044498329226
-0.00770000000000004,-6.37044498329226
-0.008700000000000152,-6.37044498329226
-0.009700000000000042,-6.37044498329226
-0.010700000000000154,-6.37044498329226
-0.011700000000000044,-6.414301033588076
-0.012700000000000156,-6.37044498329226
-0.013700000000000045,-6.414301033588076
-0.014700000000000157,-6.414301033588076
-0.015700000000000047,-6.414301033588076
-0.01670000000000016,-6.414301033588076
-0.01770000000000005,-6.414301033588076
-0.01870000000000016,-6.414301033588076
-0.01970000000000005,-6.414301033588076
-0.020700000000000163,-6.414301033588076
-0.021700000000000053,-6.414301033588076
-0.022700000000000164,-6.414301033588076
-0.023700000000000054,-6.414301033588076
-0.024700000000000166,-6.414301033588076
-0.025700000000000056,-6.414301033588076
-0.026700000000000168,-6.37044498329226
-0.027700000000000058,-6.414301033588076
-0.02870000000000017,-6.414301033588076
-0.02970000000000006,-6.414301033588076
-0.03070000000000017,-6.414301033588076
-0.03170000000000006,-6.414301033588076
-0.03270000000000017,-6.458157083883892
-0.03370000000000006,-6.458157083883892
-0.034700000000000175,-6.458157083883892
-0.035700000000000065,-6.414301033588076
-0.03670000000000018,-6.414301033588076
-0.03770000000000007,-6.414301033588076
-0.03870000000000018,-6.414301033588076
-0.03970000000000007,-6.458157083883892
-0.04070000000000018,-6.458157083883892
-0.04170000000000007,-6.458157083883892
-0.04270000000000018,-6.414301033588076
-0.04370000000000007,-6.414301033588076
-0.044700000000000184,-6.414301033588076
-0.045700000000000074,-6.414301033588076
-0.046700000000000186,-6.414301033588076
-0.047700000000000076,-6.414301033588076
-0.04870000000000019,-6.414301033588076
-0.04970000000000008,-6.458157083883892
-0.05070000000000019,-6.414301033588076
-0.05170000000000008,-6.414301033588076
-0.05270000000000019,-6.414301033588076
-0.05370000000000008,-6.414301033588076
-0.05470000000000019,-6.414301033588076
-0.05570000000000008,-6.458157083883892
-0.056700000000000195,-6.458157083883892
-0.057700000000000085,-6.414301033588076
-0.058700000000000196,-6.414301033588076
-0.059700000000000086,-6.458157083883892
-0.0607000000000002,-6.414301033588076
-0.06170000000000009,-6.414301033588076
-0.0627000000000002,-6.458157083883892
-0.06370000000000009,-6.458157083883892
-0.0647000000000002,-6.458157083883892
-0.06570000000000009,-6.458157083883892
-0.0667000000000002,-6.458157083883892
-0.0677000000000001,-6.458157083883892
-0.0687000000000002,-6.414301033588076
-0.0697000000000001,-6.414301033588076
-0.07070000000000021,-6.458157083883892
-0.0717000000000001,-6.414301033588076
-0.07270000000000021,-6.458157083883892
-0.0737000000000001,-6.414301033588076
-0.07470000000000021,-6.414301033588076
-0.0757000000000001,-6.458157083883892
-0.07670000000000021,-6.414301033588076
-0.0777000000000001,-6.414301033588076
-0.07870000000000021,-6.414301033588076
-0.0797000000000001,-6.458157083883892
-0.08070000000000022,-6.458157083883892
-0.0817000000000001,-6.500598422879844
-0.08270000000000022,-6.500598422879844
-0.08370000000000011,-6.458157083883892
-0.08470000000000022,-6.500598422879844
-0.08570000000000011,-6.458157083883892
-0.08670000000000022,-6.458157083883892
-0.08770000000000011,-6.458157083883892
-0.08870000000000022,-6.500598422879844
-0.08970000000000011,-6.500598422879844
-0.09070000000000022,-6.500598422879844
-0.09170000000000011,-6.500598422879844
-0.09270000000000023,-6.500598422879844
-0.09370000000000012,-6.500598422879844
-0.09470000000000023,-6.500598422879844
-0.09570000000000012,-6.500598422879844
-0.09670000000000023,-6.500598422879844
-0.09770000000000012,-6.500598422879844
-0.09870000000000023,-6.54445447317566
-0.09970000000000012,-6.54445447317566
-0.10070000000000023,-6.500598422879844
-0.10170000000000012,-6.54445447317566
-0.10270000000000024,-6.500598422879844
-0.10370000000000013,-6.500598422879844
-0.10470000000000024,-6.54445447317566
-0.10570000000000013,-6.54445447317566
-0.10670000000000024,-6.54445447317566
-0.10770000000000013,-6.54445447317566
-0.10870000000000024,-6.588310523471475
-0.10970000000000013,-6.54445447317566
-0.11070000000000024,-6.588310523471475
-0.11170000000000013,-6.54445447317566
-0.11270000000000002,-6.588310523471475
-0.11370000000000013,-6.588310523471475
-0.11470000000000002,-6.632166573767292
-0.11570000000000014,-6.632166573767292
-0.11670000000000003,-6.632166573767292
-0.11770000000000014,-6.632166573767292
-0.11870000000000003,-6.588310523471475
-0.11970000000000014,-6.588310523471475
-0.12070000000000003,-6.632166573767292
-0.12170000000000014,-6.632166573767292
-0.12270000000000003,-6.632166573767292
-0.12370000000000014,-6.6760226240631075
-0.12470000000000003,-6.6760226240631075
-0.12570000000000014,-6.6760226240631075
-0.12670000000000003,-6.6760226240631075
-0.12770000000000015,-6.6760226240631075
-0.12870000000000004,-6.6760226240631075
-0.12970000000000015,-6.719878674358924
-0.13070000000000004,-6.719878674358924
-0.13170000000000015,-6.719878674358924
-0.13270000000000004,-6.719878674358924
-0.13370000000000015,-6.762320013354876
-0.13470000000000004,-6.762320013354876
-0.13570000000000015,-6.762320013354876
-0.13670000000000004,-6.762320013354876
-0.13770000000000016,-6.762320013354876
-0.13870000000000005,-6.762320013354876
-0.13970000000000016,-6.806176063650692
-0.14070000000000005,-6.806176063650692
-0.14170000000000016,-6.850032113946507
-0.14270000000000005,-6.850032113946507
-0.14370000000000016,-6.850032113946507
-0.14470000000000005,-6.850032113946507
-0.14570000000000016,-6.850032113946507
-0.14670000000000005,-6.893888164242324
-0.14770000000000016,-6.893888164242324
-0.14870000000000005,-6.93774421453814
-0.14970000000000017,-6.981600264833956
-0.15070000000000006,-6.93774421453814
-0.15170000000000017,-6.981600264833956
-0.15270000000000006,-6.981600264833956
-0.15370000000000017,-6.981600264833956
-0.15470000000000006,-7.024041603829907
-0.15570000000000017,-7.024041603829907
-0.15670000000000006,-7.067897654125724
-0.15770000000000017,-7.067897654125724
-0.15870000000000006,-7.111753704421539
-0.15970000000000018,-7.111753704421539
-0.16070000000000007,-7.111753704421539
-0.16170000000000018,-7.111753704421539
-0.16270000000000007,-7.155609754717355
-0.16370000000000018,-7.199465805013171
-0.16470000000000007,-7.243321855308987
-0.16570000000000018,-7.243321855308987
-0.16670000000000007,-7.28576319430494
-0.16770000000000018,-7.28576319430494
-0.16870000000000007,-7.28576319430494
-0.16970000000000018,-7.329619244600755
-0.17070000000000007,-7.329619244600755
-0.17170000000000019,-7.37347529489657
-0.17270000000000008,-7.4173313451923875
-0.1737000000000002,-7.4173313451923875
-0.17470000000000008,-7.461187395488204
-0.1757000000000002,-7.461187395488204
-0.17670000000000008,-7.50504344578402
-0.1777000000000002,-7.50504344578402
-0.17870000000000008,-7.5474847847799715
-0.1797000000000002,-7.591340835075788
-0.18070000000000008,-7.635196885371603
-0.1817000000000002,-7.679052935667419
-0.18270000000000008,-7.679052935667419
-0.1837000000000002,-7.722908985963235
-0.1847000000000001,-7.722908985963235
-0.1857000000000002,-7.7653503249591855
-0.1867000000000001,-7.7653503249591855
-0.1877000000000002,-7.809206375255003
-0.1887000000000001,-7.809206375255003
-0.1897000000000002,-7.7653503249591855
-0.1907000000000001,-7.7653503249591855
-0.1917000000000001,-7.679052935667419
-0.19269999999999998,-7.679052935667419
-0.1937000000000001,-7.635196885371603
-0.19469999999999998,-7.679052935667419
-0.1957000000000001,-7.7653503249591855
-0.19669999999999999,-7.853062425550818
-0.1977000000000001,-7.940774526142452
-0.1987,-8.027071915434218
-0.1997000000000001,-8.158640066321666
-0.2007,-8.202496116617484
-0.2017000000000001,-8.288793505909249
-0.2027,-8.332649556205066
-0.2037000000000001,-8.4203616567967
-0.2047,-8.464217707092514
-0.2057000000000001,-8.508073757388331
-0.2067,-8.594371146680096
-0.2077000000000001,-8.638227196975913
-0.2087,-8.68208324727173
-0.2097000000000001,-8.725939297567548
-0.2107,-8.812236686859313
-0.2117000000000001,-8.812236686859313
-0.2127,-8.85609273715513
-0.2137000000000001,-8.943804837746763
-0.2147,-9.031516938338395
-0.2157000000000001,-9.205526428221793
-0.2167,-9.293238528813426
-0.21770000000000012,-9.335679867809377
-0.2187,-9.379535918105192
-0.21970000000000012,-9.423391968401008
-0.2207,-9.511104068992642
-0.22170000000000012,-9.55496011928846
-0.2227,-9.685113558876042
-0.22370000000000012,-9.728969609171857
-0.2247,-9.81668170976349
-0.22570000000000012,-9.902979099055257
-0.2267,-9.946835149351072
-0.22770000000000012,-9.99069119964689
-0.22870000000000001,-10.078403300238522
-0.22970000000000013,-10.208556739826104
-0.23070000000000002,-10.25241279012192
-0.23170000000000013,-10.340124890713554
-0.23270000000000002,-10.42642228000532
-0.23370000000000013,-10.514134380596953
-0.23470000000000002,-10.601846481188586
-0.23570000000000013,-10.644287820184536
-0.23670000000000002,-10.731999920776168
-0.2376999999999999,-10.863568071663616
-0.23870000000000002,-10.993721511251199
-0.2396999999999999,-11.123874950838783
-0.24070000000000003,-11.299299152022046
-0.24169999999999991,-11.385596541313816
-0.24270000000000003,-11.517164692201263
-0.24369999999999992,-11.691174182084664
-0.24470000000000003,-11.82274233297211
-0.24569999999999992,-11.952895772559694
-0.24670000000000003,-12.12831997374296
-0.24769999999999992,-14.783733083589633
-0.24870000000000003,-13.916515056772363
-0.24969999999999992,-13.654793466297335
-0.25070000000000003,-13.436927926118118
-0.2516999999999999,-13.436927926118118
-0.25270000000000004,-13.3930718758223
-0.2536999999999999,-13.436927926118118
-0.25470000000000004,-13.567081365705702
-0.2556999999999999,-13.654793466297335
-0.25670000000000004,-13.828802956180734
-0.25769999999999993,-14.002812446064135
-0.25870000000000004,-14.217848563643619
-0.25969999999999993,-14.444202371622024
-0.26070000000000004,-14.65640906660178
-0.26169999999999993,-14.826174422585586
-0.26270000000000004,-15.05252823056399
-0.26369999999999993,-15.307176264539699
-0.26470000000000005,-15.575971411514052
-0.26569999999999994,-15.830619445489761
-0.26670000000000005,-16.056973253468165
-0.26769999999999994,-16.269179948447924
-0.26870000000000005,-16.396503965435777
-0.26969999999999994,-16.622857773414182
-0.27070000000000005,-16.835064468393938
-0.27169999999999994,-17.018976937376394
-0.27270000000000005,-17.231183632356142
-0.27369999999999994,-17.4433903273359
-0.27470000000000006,-17.669744135314307
-0.27569999999999995,-17.839509491298113
-0.27670000000000006,-18.06586329927652
-0.27769999999999995,-18.27806999425627
-0.27870000000000006,-18.49027668923603
-0.27969999999999995,-18.759071836210385
-0.28070000000000006,-19.01371987018609
-0.28169999999999995,-19.28251501716045
-0.28270000000000006,-19.579604390132108
-0.28369999999999995,-19.848399537106463
-0.28470000000000006,-20.06060623208622
-0.28569999999999995,-20.371842718056527
-0.28670000000000007,-20.683079204026836
-0.28769999999999996,-20.980168576998494
-0.28870000000000007,-21.291405062968803
-0.28969999999999996,-21.58849443594046
-0.29070000000000007,-21.94217226090672
-0.29169999999999996,-22.295850085872978
-0.29270000000000007,-22.550498119848687
-0.29369999999999996,-22.861734605818995
-0.2947000000000001,-23.15882397879065
-0.29569999999999996,-23.47006046476096
-0.2967000000000001,-23.823738289727217
-0.29769999999999996,-24.16326900169483
-0.2987000000000001,-24.516946826661083
-0.29969999999999997,-24.870624651627345
-0.3007000000000001,-25.167714024599
-0.30169999999999997,-25.521391849565262
-0.3027000000000001,-25.86092256153287
-0.30369999999999997,-26.17215904750318
-0.3047000000000001,-26.568278211465387
-0.30569999999999997,-26.907808923433
-0.3067000000000001,-27.303928087395207
-0.3077,-27.742488590353368
-0.3087000000000001,-28.09616641531963
-0.3097,-28.478138466283188
-0.3107000000000001,-28.8742576302454
-0.3117,-29.22793545521166
-0.3127000000000001,-29.66649595816982
-0.3137,-30.147497800123933
-0.3147000000000001,-30.614352529079397
-0.3157,-31.010471693041605
-0.3167000000000001,-31.449032195999767
-0.3177,-31.930034037953877
-0.3187000000000001,-32.368594540912035
-0.3197,-32.84959638286615
-0.3207000000000001,-33.288156885824314
-0.3217,-33.712570275783825
-0.3227000000000001,-34.236013456733886
-0.3237,-34.717015298688004
-0.3247000000000001,-35.282899818634014
-0.3257,-35.763901660588125
-0.3267000000000001,-36.244903502542236
-0.3277,-36.64102266650445
-0.3287000000000001,-37.164465847454515
-0.3297,-37.73035036740053
-0.3307000000000001,-38.33867622634249
-0.3317,-38.94700208528445
-0.3327000000000001,-39.38556258824262
-0.3337,-39.82412309120078
-0.3347000000000001,-40.30512493315489
-0.3357,-40.828568114104954
-0.3367000000000001,-41.39445263405098
-0.3377,-42.00277849299294
-0.3387000000000001,-42.568663012938956
-0.3397,-43.134547532884966
-0.3407000000000001,-43.657990713835034
-0.3417,-44.096551216793195
-0.3427000000000001,-44.577553058747306
-0.3437,-45.27076159568118
-0.3447000000000001,-46.02055858460964
-0.3457,-46.75620846053947
-0.3467000000000001,-47.32209298048547
-0.3477,-47.76065348344364
-0.3487000000000001,-48.24165532539775
-0.3497,-48.84998118433972
-0.3507000000000001,-49.50074838227763
-0.3517,-50.1656626932142
-0.3527000000000001,-50.73154721316022
-0.3537,-51.33987307210218
-0.3547000000000001,-51.948198931044146
-0.3557,-52.59896612898206
-0.35670000000000013,-53.30632177891458
-0.3577,-53.9570889768525
-0.35870000000000013,-54.60785617479041
-0.3597,-55.21618203373238
-0.36070000000000013,-55.73962521468245
-0.3617,-56.30550973462846
-0.3626999999999999,-57.182630740544774
-0.3637,-58.05975174646111
-0.3646999999999999,-58.75296028339497
-0.3657,-59.23396212534908
-0.3666999999999999,-59.884729323287
-0.3677,-60.84673300719523
-0.3686999999999999,-61.49750020513315
-0.36970000000000003,-62.06338472507916
-0.3706999999999999,-62.459503889041365
-0.37170000000000003,-62.98294706999144
-0.3726999999999999,-63.421507572949594
-0.37370000000000003,-63.59127292893339
-0.3746999999999999,-63.59127292893339
-0.37570000000000003,-63.6761556069253
-0.3766999999999999,-63.77518539791585
-0.37770000000000004,-64.19959878787537
-0.3786999999999999,-64.90695443780788
-0.37970000000000004,-65.4728389577539
-0.3806999999999999,-65.99628213870396
-0.38170000000000004,-66.87340314462028
-0.38269999999999993,-67.7788183765339
-0.38370000000000004,-68.57105670445833
-0.38469999999999993,-69.6603844053544
-0.38570000000000004,-70.39603428128423
-0.38669999999999993,-69.8301497613382
-0.38570000000000004,-67.21293385658788
-0.38469999999999993,-65.3030736017701
-0.38370000000000004,-64.0722747708875
-0.38269999999999993,-63.11027108697928
-0.38170000000000004,-61.936060708091304
-0.3806999999999999,-60.63452631221547
-0.37970000000000004,-59.884729323287
-0.3786999999999999,-59.06419676936528
-0.37770000000000004,-57.93242772947325
-0.3766999999999999,-56.97042404556503
-0.37570000000000003,-56.093303039648696
-0.3746999999999999,-55.21618203373238
-0.37370000000000003,-54.39564947981066
-0.3726999999999999,-53.56096981289029
-0.37170000000000003,-52.78287859796452
-0.3706999999999999,-52.17455273902255
-0.36970000000000003,-51.594521106077885
-0.3686999999999999,-51.127666377122424
-0.3677,-50.60422319617236
-0.3666999999999999,-49.939308885235796
-0.3657,-49.24610034830193
-0.3646999999999999,-48.51045047237211
-0.3637,-47.71821214444768
-0.3626999999999999,-46.84109113853137
-0.3617,-45.93567590661774
-0.36070000000000013,-45.05855490070142
-0.3597,-44.138992555789144
-0.35870000000000013,-43.27601866287147
-0.3577,-42.39889765695515
-0.35670000000000013,-41.66324778102533
-0.3557,-40.95589213109281
-0.3547000000000001,-40.220242255162994
-0.3537,-39.47044526623452
-0.3527000000000001,-38.734795390304704
-0.3517,-38.08402819236679
-0.3507000000000001,-37.376672542434264
-0.3497,-36.725905344496354
-0.3487000000000001,-36.07513814655844
-0.3477,-35.32534115762997
-0.3467000000000001,-34.67457395969205
-0.3457,-33.93892408376223
-0.3447000000000001,-33.288156885824314
-0.3437,-32.62324257488775
-0.3427000000000001,-31.972475376949827
-0.3417,-31.36414951800786
-0.3407000000000001,-30.71338232006995
-0.3397,-30.10505646112798
-0.3387000000000001,-29.440142150191413
-0.3377,-28.831816291249446
-0.3367000000000001,-28.265931771303435
-0.3357,-27.65760591236147
-0.3347000000000001,-27.091721392415455
-0.3337,-26.483395533473487
-0.3327000000000001,-25.91751101352747
-0.3317,-25.337479380582806
-0.3307000000000001,-24.814036199632742
-0.3297,-24.24815167968673
-0.3287000000000001,-23.682267159740714
-0.3277,-23.15882397879065
-0.3267000000000001,-22.592939458844636
-0.3257,-22.111937616890522
-0.3247000000000001,-21.63093577493641
-0.3237,-21.107492593986347
-0.3227000000000001,-20.584049413036283
-0.3217,-20.10304757108217
-0.3207000000000001,-19.636192842126707
-0.3197,-19.112749661176647
-0.3187000000000001,-18.674189158218486
-0.3177,-18.19318731626437
-0.3167000000000001,-17.71218547431026
-0.3157,-17.2736249713521
-0.3147000000000001,-16.835064468393938
-0.3137,-16.396503965435777
-0.3127000000000001,-15.91550212348166
-0.3117,-15.491088733522153
-0.3107000000000001,-15.05252823056399
-0.3097,-14.65640906660178
-0.3087000000000001,-14.26028990263957
-0.3077,-13.828802956180734
-0.3067000000000001,-13.47936926511407
-0.30569999999999997,-13.043638184755638
-0.3047000000000001,-12.651763154693022
-0.30369999999999997,-12.258473413330542
-0.3027000000000001,-11.86659838326793
-0.30169999999999997,-11.517164692201263
-0.3007000000000001,-11.1677310011346
-0.29969999999999997,-10.819712021367803
-0.2987000000000001,-10.470278330301136
-0.29769999999999996,-10.120844639234473
-0.2967000000000001,-9.728969609171857
-0.29569999999999996,-9.423391968401008
-0.2947000000000001,-9.073958277334345
-0.29369999999999996,-8.769795347863363
-0.29270000000000007,-8.4203616567967
-0.29169999999999996,-8.158640066321666
-0.29070000000000007,-7.809206375255003
-0.28969999999999996,-7.50504344578402
-0.28870000000000007,-7.199465805013171
-0.28769999999999996,-6.850032113946507
-0.28670000000000007,-6.588310523471475
-0.28569999999999995,-6.282732882700628
-0.28470000000000006,-6.021011292225596
-0.28369999999999995,-5.759289701750564
-0.28270000000000006,-5.497568111275533
-0.28169999999999995,-5.191990470504685
-0.28070000000000006,-4.9302688800296535
-0.27969999999999995,-4.668547289554621
-0.27870000000000006,-4.364384360083638
-0.27769999999999995,-4.146518819904423
-0.27670000000000006,-3.884797229429391
-0.27569999999999995,-3.6655169779503103
-0.27470000000000006,-3.447651437771094
-0.27369999999999994,-3.1859298472960624
-0.27270000000000005,-2.924208256821031
-0.27169999999999994,-2.706342716641815
-0.27070000000000005,-2.4884771764625997
-0.26969999999999994,-2.2706116362833835
-0.26870000000000005,-2.052746096104168
-0.26769999999999994,-1.8334658446250875
-0.26670000000000005,-1.6156003044458718
-0.26569999999999994,-1.3980177065266295
-0.26470000000000005,-1.2234423321232837
