Potential V vs RHE, Current mA cm-2
0.013299999999999867,-0.6128529351015338
0.012299999999999978,-2.1828995356917518
0.011299999999999866,-3.361354048479327
0.010299999999999976,-4.23281620919619
0.009299999999999864,-4.9302688800296535
0.008299999999999974,-5.497568111275533
0.007299999999999862,-5.9347139029338285
0.006299999999999972,-6.238876832404812
0.00529999999999986,-6.500598422879844
0.0042999999999999705,-6.719878674358924
0.0032999999999998586,-6.893888164242324
0.0022999999999999687,-6.981600264833956
0.0012999999999998568,-7.111753704421539
0.00029999999999996696,-7.199465805013171
-0.000700000000000145,-7.28576319430494
-0.0017000000000000348,-7.329619244600755
-0.0027000000000001467,-7.37347529489657
-0.0037000000000000366,-7.461187395488204
-0.0047000000000001485,-7.461187395488204
-0.005700000000000038,-7.50504344578402
-0.00670000000000015,-7.50504344578402
-0.00770000000000004,-7.50504344578402
-0.008700000000000152,-7.50504344578402
-0.009700000000000042,-7.50504344578402
-0.010700000000000154,-7.5474847847799715
-0.011700000000000044,-7.591340835075788
-0.012700000000000156,-7.591340835075788
-0.013700000000000045,-7.591340835075788
-0.014700000000000157,-7.591340835075788
-0.015700000000000047,-7.591340835075788
-0.01670000000000016,-7.591340835075788
-0.01770000000000005,-7.591340835075788
-0.01870000000000016,-7.591340835075788
-0.01970000000000005,-7.591340835075788
-0.020700000000000163,-7.591340835075788
-0.021700000000000053,-7.635196885371603
-0.022700000000000164,-7.635196885371603
-0.023700000000000054,-7.635196885371603
-0.024700000000000166,-7.635196885371603
-0.025700000000000056,-7.635196885371603
-0.026700000000000168,-7.635196885371603
-0.027700000000000058,-7.591340835075788
-0.02870000000000017,-7.591340835075788
-0.02970000000000006,-7.591340835075788
-0.03070000000000017,-7.635196885371603
-0.03170000000000006,-7.635196885371603
-0.03270000000000017,-7.635196885371603
-0.03370000000000006,-7.635196885371603
-0.034700000000000175,-7.635196885371603
-0.035700000000000065,-7.635196885371603
-0.03670000000000018,-7.635196885371603
-0.03770000000000007,-7.635196885371603
-0.03870000000000018,-7.635196885371603
-0.03970000000000007,-7.591340835075788
-0.04070000000000018,-7.591340835075788
-0.04170000000000007,-7.591340835075788
-0.04270000000000018,-7.591340835075788
-0.04370000000000007,-7.591340835075788
-0.044700000000000184,-7.591340835075788
-0.045700000000000074,-7.591340835075788
-0.046700000000000186,-7.591340835075788
-0.047700000000000076,-7.5474847847799715
-0.04870000000000019,-7.5474847847799715
-0.04970000000000008,-7.50504344578402
-0.05070000000000019,-7.461187395488204
-0.05170000000000008,-7.50504344578402
-0.05270000000000019,-7.50504344578402
-0.05370000000000008,-7.50504344578402
-0.05470000000000019,-7.50504344578402
-0.05570000000000008,-7.50504344578402
-0.056700000000000195,-7.50504344578402
-0.057700000000000085,-7.50504344578402
-0.058700000000000196,-7.50504344578402
-0.059700000000000086,-7.5474847847799715
-0.0607000000000002,-7.5474847847799715
-0.06170000000000009,-7.591340835075788
-0.0627000000000002,-7.591340835075788
-0.06370000000000009,-7.591340835075788
-0.0647000000000002,-7.591340835075788
-0.06570000000000009,-7.591340835075788
-0.0667000000000002,-7.591340835075788
-0.0677000000000001,-7.635196885371603
-0.0687000000000002,-7.591340835075788
-0.0697000000000001,-7.591340835075788
-0.07070000000000021,-7.591340835075788
-0.0717000000000001,-7.635196885371603
-0.07270000000000021,-7.635196885371603
-0.0737000000000001,-7.635196885371603
-0.07470000000000021,-7.679052935667419
-0.0757000000000001,-7.679052935667419
-0.07670000000000021,-7.635196885371603
-0.0777000000000001,-7.591340835075788
-0.07870000000000021,-7.591340835075788
-0.0797000000000001,-7.635196885371603
-0.08070000000000022,-7.635196885371603
-0.0817000000000001,-7.591340835075788
-0.08270000000000022,-7.5474847847799715
-0.08370000000000011,-7.591340835075788
-0.08470000000000022,-7.591340835075788
-0.08570000000000011,-7.635196885371603
-0.08670000000000022,-7.679052935667419
-0.08770000000000011,-7.679052935667419
-0.08870000000000022,-7.635196885371603
-0.08970000000000011,-7.679052935667419
-0.09070000000000022,-7.679052935667419
-0.09170000000000011,-7.679052935667419
-0.09270000000000023,-7.679052935667419
-0.09370000000000012,-7.679052935667419
-0.09470000000000023,-7.722908985963235
-0.09570000000000012,-7.679052935667419
-0.09670000000000023,-7.679052935667419
-0.09770000000000012,-7.722908985963235
-0.09870000000000023,-7.635196885371603
-0.09970000000000012,-7.635196885371603
-0.10070000000000023,-7.635196885371603
-0.10170000000000012,-7.679052935667419
-0.10270000000000024,-7.722908985963235
-0.10370000000000013,-7.722908985963235
-0.10470000000000024,-7.722908985963235
-0.10570000000000013,-7.722908985963235
-0.10670000000000024,-7.7653503249591855
-0.10770000000000013,-7.7653503249591855
-0.10870000000000024,-7.722908985963235
-0.10970000000000013,-7.722908985963235
-0.11070000000000024,-7.722908985963235
-0.11170000000000013,-7.722908985963235
-0.11270000000000002,-7.7653503249591855
-0.11370000000000013,-7.7653503249591855
-0.11470000000000002,-7.7653503249591855
-0.11570000000000014,-7.7653503249591855
-0.11670000000000003,-7.722908985963235
-0.11770000000000014,-7.7653503249591855
-0.11870000000000003,-7.7653503249591855
-0.11970000000000014,-7.7653503249591855
-0.12070000000000003,-7.7653503249591855
-0.12170000000000014,-7.7653503249591855
-0.12270000000000003,-7.7653503249591855
-0.12370000000000014,-7.7653503249591855
-0.12470000000000003,-7.809206375255003
-0.12570000000000014,-7.853062425550818
-0.12670000000000003,-7.853062425550818
-0.12770000000000015,-7.853062425550818
-0.12870000000000004,-7.809206375255003
-0.12970000000000015,-7.853062425550818
-0.13070000000000004,-7.896918475846635
-0.13170000000000015,-7.940774526142452
-0.13270000000000004,-7.896918475846635
-0.13370000000000015,-7.940774526142452
-0.13470000000000004,-8.027071915434218
-0.13570000000000015,-12.694204493688973
-0.13670000000000004,-8.725939297567548
-0.13770000000000016,-8.508073757388331
-0.13870000000000005,-8.332649556205066
-0.13970000000000016,-8.246352166913299
-0.14070000000000005,-8.158640066321666
-0.14170000000000016,-8.11478401602585
-0.14270000000000005,-8.070927965730034
-0.14370000000000016,-8.070927965730034
-0.14470000000000005,-8.070927965730034
-0.14570000000000016,-8.070927965730034
-0.14670000000000005,-8.070927965730034
-0.14770000000000016,-8.11478401602585
-0.14870000000000005,-8.158640066321666
-0.14970000000000017,-8.202496116617484
-0.15070000000000006,-8.246352166913299
-0.15170000000000017,-8.288793505909249
-0.15270000000000006,-8.332649556205066
-0.15370000000000017,-8.376505606500881
-0.15470000000000006,-8.4203616567967
-0.15570000000000017,-8.464217707092514
-0.15670000000000006,-8.464217707092514
-0.15770000000000017,-8.464217707092514
-0.15870000000000006,-8.464217707092514
-0.15970000000000018,-8.464217707092514
-0.16070000000000007,-8.508073757388331
-0.16170000000000018,-8.508073757388331
-0.16270000000000007,-8.55051509638428
-0.16370000000000018,-8.55051509638428
-0.16470000000000007,-8.55051509638428
-0.16570000000000018,-8.594371146680096
-0.16670000000000007,-8.594371146680096
-0.16770000000000018,-8.594371146680096
-0.16870000000000007,-8.594371146680096
-0.16970000000000018,-8.594371146680096
-0.17070000000000007,-8.594371146680096
-0.17170000000000019,-8.638227196975913
-0.17270000000000008,-8.638227196975913
-0.1737000000000002,-8.68208324727173
-0.17470000000000008,-8.725939297567548
-0.1757000000000002,-8.725939297567548
-0.17670000000000008,-8.769795347863363
-0.1777000000000002,-8.769795347863363
-0.17870000000000008,-8.769795347863363
-0.1797000000000002,-8.85609273715513
-0.18070000000000008,-8.85609273715513
-0.1817000000000002,-8.899948787450944
-0.18270000000000008,-8.943804837746763
-0.1837000000000002,-8.987660888042578
-0.1847000000000001,-9.031516938338395
-0.1857000000000002,-9.073958277334345
-0.1867000000000001,-9.11781432763016
-0.1877000000000002,-9.161670377925978
-0.1887000000000001,-9.161670377925978
-0.1897000000000002,-9.205526428221793
-0.1907000000000001,-9.24938247851761
-0.1917000000000001,-9.293238528813426
-0.19269999999999998,-9.379535918105192
-0.1937000000000001,-9.379535918105192
-0.19469999999999998,-9.423391968401008
-0.1957000000000001,-9.511104068992642
-0.19669999999999999,-9.511104068992642
-0.1977000000000001,-9.55496011928846
-0.1987,-9.59740145828441
-0.1997000000000001,-9.641257508580225
-0.2007,-9.685113558876042
-0.2017000000000001,-9.728969609171857
-0.2027,-9.772825659467674
-0.2037000000000001,-9.85912304875944
-0.2047,-9.902979099055257
-0.2057000000000001,-9.99069119964689
-0.2067,-10.034547249942705
-0.2077000000000001,-10.078403300238522
-0.2087,-10.120844639234473
-0.2097000000000001,-10.208556739826104
-0.2107,-10.25241279012192
-0.2117000000000001,-10.340124890713554
-0.2127,-10.42642228000532
-0.2137000000000001,-10.514134380596953
-0.2147,-10.601846481188586
-0.2157000000000001,-10.731999920776168
-0.2167,-10.731999920776168
-0.21770000000000012,-10.819712021367803
-0.2187,-10.863568071663616
-0.21970000000000012,-10.949865460955383
-0.2207,-11.037577561547016
-0.22170000000000012,-11.123874950838783
-0.2227,-11.211587051430415
-0.22370000000000012,-11.343155202317865
-0.2247,-11.42945259160963
-0.22570000000000012,-11.517164692201263
-0.2267,-11.604876792792895
-0.22770000000000012,-11.691174182084664
-0.22870000000000001,-11.73503023238048
-0.22970000000000013,-11.86659838326793
-0.23070000000000002,-11.952895772559694
-0.23170000000000013,-12.084463923447142
-0.23270000000000002,-12.214617363034726
-0.23370000000000013,-12.302329463626359
-0.23470000000000002,-12.432482903213943
-0.23570000000000013,-12.520195003805576
-0.23670000000000002,-12.607907104397206
-0.2376999999999999,-12.694204493688973
-0.23870000000000002,-12.825772644576423
-0.2396999999999999,-12.955926084164007
-0.24070000000000003,-13.043638184755638
-0.24169999999999991,-13.217647674639037
-0.24270000000000003,-13.349215825526485
-0.24369999999999992,-13.47936926511407
-0.24470000000000003,-13.610937416001518
-0.24569999999999992,-13.698649516593148
-0.24670000000000003,-13.872659006476551
-0.24769999999999992,-14.002812446064135
-0.24870000000000003,-14.175407224647667
-0.24969999999999992,-14.30273124163552
-0.25070000000000003,-14.444202371622024
-0.2516999999999999,-14.61396772760583
-0.25270000000000004,-14.741291744593681
-0.2536999999999999,-14.826174422585586
-0.25470000000000004,-15.01008689156804
-0.2556999999999999,-15.179852247551842
-0.25670000000000004,-15.349617603535648
-0.25769999999999993,-15.575971411514052
-0.25870000000000004,-15.74573676749786
-0.25969999999999993,-15.87306078448571
-0.26070000000000004,-16.014531914472215
-0.26169999999999993,-16.184297270456018
-0.26270000000000004,-16.354062626439823
-0.26369999999999993,-16.580416434418233
-0.26470000000000005,-16.750181790402035
-0.26569999999999994,-16.962388485381787
-0.26670000000000005,-17.188742293360193
-0.26769999999999994,-17.40094898833995
-0.26870000000000005,-17.584861457322408
-0.26969999999999994,-17.71218547431026
-0.27070000000000005,-17.881950830294063
-0.27169999999999994,-18.10830463827247
-0.27270000000000005,-18.362952672248177
-0.27369999999999994,-18.589306480226583
-0.27470000000000006,-18.759071836210385
-0.27569999999999995,-18.92883719219419
-0.27670000000000006,-19.056161209182044
-0.27769999999999995,-19.2400736781645
-0.27870000000000006,-19.452280373144255
-0.27969999999999995,-19.678634181122664
-0.28070000000000006,-19.890840876102416
-0.28169999999999995,-20.10304757108217
-0.28270000000000006,-20.329401379060574
-0.28369999999999995,-20.584049413036283
-0.28470000000000006,-20.85284456001064
-0.28569999999999995,-21.149933932982297
-0.28670000000000007,-21.461170418952605
-0.28769999999999996,-21.729965565926964
-0.28870000000000007,-22.027054938898623
-0.28969999999999996,-22.38073276386488
-0.29070000000000007,-22.72026347583249
-0.29169999999999996,-23.073941300798747
-0.29270000000000007,-23.300295108777156
-0.29369999999999996,-23.597384481748815
-0.2947000000000001,-23.908620967719123
-0.29569999999999996,-24.24815167968673
-0.2967000000000001,-24.64427084364894
-0.29769999999999996,-24.9130659906233
-0.2987000000000001,-25.167714024599
-0.29969999999999997,-25.521391849565262
-0.3007000000000001,-25.959952352523427
-0.30169999999999997,-26.34192440348698
-0.3027000000000001,-26.738043567449193
-0.30369999999999997,-26.9643973754276
-0.3047000000000001,-27.303928087395207
-0.30569999999999997,-27.700047251357418
-0.3067000000000001,-28.09616641531963
-0.3077,-28.393255788291288
-0.3087000000000001,-28.704492274261593
-0.3097,-29.100611438223805
-0.3107000000000001,-29.525024828183312
-0.3117,-29.96358533114148
-0.3127000000000001,-30.402145834099635
-0.3137,-30.88314767605375
-0.3147000000000001,-31.36414951800786
-0.3157,-31.887592698957924
-0.3167000000000001,-32.368594540912035
-0.3177,-32.93447906085806
-0.3187000000000001,-33.45792224180811
-0.3197,-33.98136542275818
-0.3207000000000001,-34.41992592571634
-0.3217,-34.8018979766799
-0.3227000000000001,-35.15557580164616
-0.3237,-35.50925362661242
-0.3247000000000001,-35.90537279057463
-0.3257,-36.244903502542236
-0.3267000000000001,-36.6834640055004
-0.3277,-37.07958316946261
-0.3287000000000001,-37.51814367242077
-0.3297,-37.94255706238028
-0.3307000000000001,-38.38111756533845
-0.3317,-38.86211940729255
-0.3327000000000001,-39.38556258824262
-0.3337,-39.90900576919269
-0.3347000000000001,-40.43244895014274
-0.3357,-40.99833347008877
-0.3367000000000001,-41.52177665103883
-0.3377,-42.04521983198889
-0.3387000000000001,-42.6111043519349
-0.3397,-43.17698887188092
-0.3407000000000001,-43.70043205283099
-0.3417,-44.3229050247716
-0.3427000000000001,-44.88878954471762
-0.3437,-45.497115403659585
-0.3447000000000001,-46.062999923605595
-0.3457,-46.67132578254756
-0.3467000000000001,-47.23721030249357
-0.3477,-47.80309482243959
-0.3487000000000001,-48.32653800338966
-0.3497,-48.93486386233162
-0.3507000000000001,-49.557336834272235
-0.3517,-50.20810403221015
-0.3527000000000001,-50.81642989115212
-0.3537,-51.46719708909004
-0.3547000000000001,-52.075522948032
-0.3557,-52.69799591997262
-0.35670000000000013,-53.348763117910536
-0.3577,-53.999530315848446
-0.35870000000000013,-54.65029751378637
-0.3597,-55.25862337272834
-0.36070000000000013,-55.9235376836649
-0.3617,-56.57430488160282
-0.3626999999999999,-57.26751341853669
-0.3637,-57.974869068469204
-0.3646999999999999,-58.66807760540307
-0.3657,-59.403727481332886
-0.3666999999999999,-60.06864179226946
-0.3677,-60.761850329203334
-0.3686999999999999,-61.412617527141244
-0.36970000000000003,-62.11997317707376
-0.3706999999999999,-62.855623053003576
-0.37170000000000003,-63.59127292893339
-0.3726999999999999,-64.34106991786187
-0.37370000000000003,-65.0767197937917
-0.3746999999999999,-65.82651678272015
-0.37570000000000003,-66.56216665864997
-0.3766999999999999,-67.2978165345798
-0.37770000000000004,-68.04761352350828
-0.3786999999999999,-68.78326339943808
-0.37970000000000004,-69.57550172736251
-0.3806999999999999,-70.31115160329232
-0.38170000000000004,-71.10338993121674
-0.38269999999999993,-71.8814811461425
-0.38370000000000004,-72.71616081306288
-0.38469999999999993,-73.49425202798865
-0.38570000000000004,-74.24404901691713
-0.38669999999999993,-73.6781644969711
-0.38570000000000004,-71.18827260920865
-0.38469999999999993,-69.26426524139221
-0.38370000000000004,-67.65149435954605
-0.38269999999999993,-66.20848883368372
-0.38170000000000004,-64.99183711579978
-0.3806999999999999,-63.81762673691181
-0.37970000000000004,-62.68585769701977
-0.3786999999999999,-61.63897133511965
-0.37770000000000004,-60.54964363422357
-0.3766999999999999,-59.54519861131939
-0.37570000000000003,-58.498312249419264
-0.3746999999999999,-57.493867226515086
-0.37370000000000003,-56.53186354260687
-0.3726999999999999,-55.527418519702685
-0.37170000000000003,-54.56541483579447
-0.3706999999999999,-53.68829382987814
-0.36970000000000003,-52.78287859796452
-0.3686999999999999,-51.82087491405629
-0.3677,-50.943753908139975
-0.3666999999999999,-50.024191563227696
-0.3657,-49.16121767031002
-0.3646999999999999,-48.2840966643937
-0.3637,-47.46356411047198
-0.3626999999999999,-46.628884443551605
-0.3617,-45.85079322862584
-0.36070000000000013,-45.01611356170547
-0.3597,-44.223875233781044
-0.35870000000000013,-43.48822535785123
-0.3577,-42.71013414292546
-0.35670000000000013,-41.91789581500104
-0.3557,-41.139804600075266
-0.3547000000000001,-40.3900076111468
-0.3537,-39.654357735216976
-0.3527000000000001,-38.90456074628851
-0.3517,-38.16891087035869
-0.3507000000000001,-37.41911388143023
-0.3497,-36.768346683492304
-0.3487000000000001,-36.11757948555439
-0.3477,-35.42437094862052
-0.3467000000000001,-34.717015298688004
-0.3457,-34.02380676175414
-0.3447000000000001,-33.330598224820264
-0.3437,-32.66568391388369
-0.3427000000000001,-31.972475376949827
-0.3417,-31.321708179011907
-0.3407000000000001,-30.71338232006995
-0.3397,-30.04846800913338
-0.3387000000000001,-29.440142150191413
-0.3377,-28.789374952253496
-0.3367000000000001,-28.18104909331153
-0.3357,-27.572723234369565
-0.3347000000000001,-26.9643973754276
-0.3337,-26.34192440348698
-0.3327000000000001,-25.77603988354097
-0.3317,-25.210155363594954
-0.3307000000000001,-24.64427084364894
-0.3297,-24.035944984706973
-0.3287000000000001,-23.51250180375691
-0.3277,-22.989058622806844
-0.3267000000000001,-22.38073276386488
-0.3257,-21.857289582914817
-0.3247000000000001,-21.291405062968803
-0.3237,-20.72552054302279
-0.3227000000000001,-20.244518701068674
-0.3217,-19.721075520118614
-0.3207000000000001,-19.2400736781645
-0.3197,-18.759071836210385
-0.3187000000000001,-18.27806999425627
-0.3177,-17.839509491298113
-0.3167000000000001,-17.316066310348052
-0.3157,-16.877505807389888
-0.3147000000000001,-16.396503965435777
-0.3137,-15.972090575476265
-0.3127000000000001,-15.491088733522153
-0.3117,-15.05252823056399
-0.3107000000000001,-14.65640906660178
-0.3097,-14.217848563643619
-0.3087000000000001,-13.784946905884919
-0.3077,-13.3930718758223
-0.3067000000000001,-12.955926084164007
-0.30569999999999997,-12.56405105410139
-0.3047000000000001,-12.12831997374296
-0.30369999999999997,-11.73503023238048
-0.3027000000000001,-11.299299152022046
-0.30169999999999997,-10.949865460955383
-0.3007000000000001,-10.557990430892769
-0.29969999999999997,-10.208556739826104
-0.2987000000000001,-9.85912304875944
-0.29769999999999996,-9.511104068992642
-0.2967000000000001,-9.11781432763016
-0.29569999999999996,-8.769795347863363
-0.2947000000000001,-8.4203616567967
-0.29369999999999996,-8.070927965730034
-0.29270000000000007,-7.722908985963235
-0.29169999999999996,-7.37347529489657
-0.29070000000000007,-7.067897654125724
-0.28969999999999996,-6.762320013354876
-0.28870000000000007,-6.458157083883892
-0.28769999999999996,-6.152579443113044
-0.28670000000000007,-5.847001802342197
-0.28569999999999995,-5.5414241615713475
-0.28470000000000006,-5.235846520800501
-0.28369999999999995,-4.9302688800296535
-0.28270000000000006,-4.626105950558669
-0.28169999999999995,-4.364384360083638
-0.28070000000000006,-4.0588067193127895
-0.27969999999999995,-3.840941179133574
-0.27870000000000006,-3.5353635383627267
-0.27769999999999995,-3.317497998183511
-0.27670000000000006,-3.0119203574126634
-0.27569999999999995,-2.794054817233447
-0.27470000000000006,-2.4884771764625997
-0.27369999999999994,-2.226755585987568
-0.27270000000000005,-2.008890045808352
-0.27169999999999994,-1.7910245056291363
-0.27070000000000005,-1.5293029151541047
-0.26969999999999994,-1.3543031273607997
-0.26870000000000005,-1.0925815368857679
-0.26769999999999994,-0.8745745255765657
-0.26670000000000005,-0.6564260431373771
-0.26569999999999994,-0.3947044526623452
-0.26470000000000005,-0.1766974413531431
