Sept. 8, 2024   17:07:04
Cyclic Voltammetry
File: c:/users/guazh/data/20240903_batch_252_500/2024-09-03-exp299\exp299-2024-09-08t17_01_03-arkoh\exp299_cv_sr_100mvs_efin_-1400mv.bin
Data Source:  Experiment
Instrument Model:  CHI760E
Header: CV ran at 100 mVs
Note: 

Init E (V) = -1
High E (V) = -1
Low E (V) = -1.4
Final E (V) = -1
Init P/N = N
Scan Rate (V/s) = 0.1
Segment = 3
Sample Interval (V) = 0.001
Quiet Time (sec) = 2
Sensitivity (A/V) = 0.01
Comp R (ohm) = 1.5

Results:

Channel 1:
Segment 1:

Segment 2:

Segment 3:

Potential/V, Current/A

-1.000, 3.175e-5
-1.001, 7.019e-5
-1.002, 8.350e-5
-1.003, 8.777e-5
-1.004, 9.136e-5
-1.005, 9.590e-5
-1.006, 9.473e-5
-1.007, 9.568e-5
-1.008, 9.502e-5
-1.009, 9.573e-5
-1.010, 9.691e-5
-1.011, 9.625e-5
-1.012, 9.822e-5
-1.013, 9.754e-5
-1.014, 9.821e-5
-1.015, 9.944e-5
-1.016, 9.833e-5
-1.017, 9.952e-5
-1.018, 9.901e-5
-1.019, 9.935e-5
-1.020, 1.008e-4
-1.021, 9.929e-5
-1.022, 1.004e-4
-1.023, 1.005e-4
-1.024, 1.003e-4
-1.025, 1.010e-4
-1.026, 9.963e-5
-1.027, 1.005e-4
-1.028, 1.002e-4
-1.029, 9.985e-5
-1.030, 9.776e-5
-1.031, 9.663e-5
-1.032, 9.919e-5
-1.033, 9.980e-5
-1.034, 9.976e-5
-1.035, 1.003e-4
-1.036, 1.002e-4
-1.037, 1.013e-4
-1.038, 1.009e-4
-1.039, 1.016e-4
-1.040, 1.027e-4
-1.041, 1.008e-4
-1.042, 1.011e-4
-1.043, 1.002e-4
-1.044, 1.004e-4
-1.045, 1.008e-4
-1.046, 9.964e-5
-1.047, 1.007e-4
-1.048, 9.986e-5
-1.049, 1.001e-4
-1.050, 1.007e-4
-1.051, 9.939e-5
-1.052, 1.007e-4
-1.053, 9.974e-5
-1.054, 9.982e-5
-1.055, 1.002e-4
-1.056, 9.867e-5
-1.057, 1.004e-4
-1.058, 9.990e-5
-1.059, 9.963e-5
-1.060, 1.004e-4
-1.061, 9.891e-5
-1.062, 1.004e-4
-1.063, 9.997e-5
-1.064, 9.978e-5
-1.065, 1.003e-4
-1.066, 9.906e-5
-1.067, 1.001e-4
-1.068, 9.963e-5
-1.069, 9.969e-5
-1.070, 1.002e-4
-1.071, 9.938e-5
-1.072, 1.003e-4
-1.073, 9.953e-5
-1.074, 1.001e-4
-1.075, 1.010e-4
-1.076, 9.980e-5
-1.077, 1.006e-4
-1.078, 9.952e-5
-1.079, 1.001e-4
-1.080, 1.003e-4
-1.081, 9.950e-5
-1.082, 1.003e-4
-1.083, 9.991e-5
-1.084, 1.007e-4
-1.085, 1.007e-4
-1.086, 9.985e-5
-1.087, 1.013e-4
-1.088, 9.673e-5
-1.089, 9.678e-5
-1.090, 9.921e-5
-1.091, 9.857e-5
-1.092, 1.007e-4
-1.093, 9.994e-5
-1.094, 1.003e-4
-1.095, 1.008e-4
-1.096, 9.917e-5
-1.097, 9.992e-5
-1.098, 9.901e-5
-1.099, 1.007e-4
-1.100, 1.114e-4
-1.101, 1.021e-4
-1.102, 1.031e-4
-1.103, 1.027e-4
-1.104, 1.009e-4
-1.105, 1.025e-4
-1.106, 1.013e-4
-1.107, 1.029e-4
-1.108, 1.025e-4
-1.109, 1.022e-4
-1.110, 1.031e-4
-1.111, 1.018e-4
-1.112, 1.030e-4
-1.113, 1.026e-4
-1.114, 1.032e-4
-1.115, 1.036e-4
-1.116, 1.028e-4
-1.117, 1.040e-4
-1.118, 1.031e-4
-1.119, 1.038e-4
-1.120, 1.038e-4
-1.121, 1.030e-4
-1.122, 1.048e-4
-1.123, 1.036e-4
-1.124, 1.038e-4
-1.125, 1.025e-4
-1.126, 1.023e-4
-1.127, 1.055e-4
-1.128, 1.050e-4
-1.129, 1.063e-4
-1.130, 1.081e-4
-1.131, 1.073e-4
-1.132, 1.075e-4
-1.133, 1.061e-4
-1.134, 1.071e-4
-1.135, 1.081e-4
-1.136, 1.069e-4
-1.137, 1.088e-4
-1.138, 1.079e-4
-1.139, 1.088e-4
-1.140, 1.097e-4
-1.141, 1.086e-4
-1.142, 1.104e-4
-1.143, 1.101e-4
-1.144, 1.106e-4
-1.145, 1.114e-4
-1.146, 1.109e-4
-1.147, 1.125e-4
-1.148, 1.122e-4
-1.149, 1.125e-4
-1.150, 1.134e-4
-1.151, 1.129e-4
-1.152, 1.145e-4
-1.153, 1.143e-4
-1.154, 1.149e-4
-1.155, 1.148e-4
-1.156, 1.134e-4
-1.157, 1.143e-4
-1.158, 1.151e-4
-1.159, 1.176e-4
-1.160, 1.183e-4
-1.161, 1.188e-4
-1.162, 1.227e-4
-1.163, 1.213e-4
-1.164, 1.213e-4
-1.165, 1.221e-4
-1.166, 1.220e-4
-1.167, 1.241e-4
-1.168, 1.239e-4
-1.169, 1.249e-4
-1.170, 1.263e-4
-1.171, 1.258e-4
-1.172, 1.284e-4
-1.173, 1.281e-4
-1.174, 1.293e-4
-1.175, 1.311e-4
-1.176, 1.308e-4
-1.177, 1.339e-4
-1.178, 1.343e-4
-1.179, 1.349e-4
-1.180, 1.364e-4
-1.181, 1.356e-4
-1.182, 1.378e-4
-1.183, 1.384e-4
-1.184, 1.396e-4
-1.185, 1.412e-4
-1.186, 1.417e-4
-1.187, 1.448e-4
-1.188, 1.460e-4
-1.189, 1.475e-4
-1.190, 1.493e-4
-1.191, 1.502e-4
-1.192, 1.529e-4
-1.193, 1.536e-4
-1.194, 1.562e-4
-1.195, 1.581e-4
-1.196, 1.592e-4
-1.197, 1.621e-4
-1.198, 1.629e-4
-1.199, 1.656e-4
-1.200, 1.673e-4
-1.201, 1.689e-4
-1.202, 1.716e-4
-1.203, 1.725e-4
-1.204, 1.759e-4
-1.205, 1.777e-4
-1.206, 1.789e-4
-1.207, 1.830e-4
-1.208, 1.826e-4
-1.209, 1.844e-4
-1.210, 1.880e-4
-1.211, 1.915e-4
-1.212, 1.967e-4
-1.213, 1.990e-4
-1.214, 2.037e-4
-1.215, 2.059e-4
-1.216, 2.070e-4
-1.217, 2.121e-4
-1.218, 2.141e-4
-1.219, 2.180e-4
-1.220, 2.220e-4
-1.221, 2.244e-4
-1.222, 2.297e-4
-1.223, 2.325e-4
-1.224, 2.367e-4
-1.225, 2.411e-4
-1.226, 2.438e-4
-1.227, 2.494e-4
-1.228, 2.528e-4
-1.229, 2.581e-4
-1.230, 2.618e-4
-1.231, 2.657e-4
-1.232, 2.722e-4
-1.233, 2.766e-4
-1.234, 2.822e-4
-1.235, 2.875e-4
-1.236, 2.920e-4
-1.237, 2.985e-4
-1.238, 3.035e-4
-1.239, 3.104e-4
-1.240, 3.159e-4
-1.241, 3.217e-4
-1.242, 3.296e-4
-1.243, 3.346e-4
-1.244, 3.417e-4
-1.245, 3.490e-4
-1.246, 3.558e-4
-1.247, 3.654e-4
-1.248, 3.701e-4
-1.249, 3.771e-4
-1.250, 3.844e-4
-1.251, 3.903e-4
-1.252, 3.995e-4
-1.253, 4.048e-4
-1.254, 4.127e-4
-1.255, 4.222e-4
-1.256, 4.312e-4
-1.257, 4.430e-4
-1.258, 4.498e-4
-1.259, 4.607e-4
-1.260, 4.710e-4
-1.261, 4.800e-4
-1.262, 4.913e-4
-1.263, 5.007e-4
-1.264, 5.118e-4
-1.265, 5.225e-4
-1.266, 5.333e-4
-1.267, 5.434e-4
-1.268, 5.548e-4
-1.269, 5.668e-4
-1.270, 5.793e-4
-1.271, 5.937e-4
-1.272, 6.068e-4
-1.273, 6.175e-4
-1.274, 6.303e-4
-1.275, 6.422e-4
-1.276, 6.560e-4
-1.277, 6.698e-4
-1.278, 6.824e-4
-1.279, 6.958e-4
-1.280, 6.992e-4
-1.281, 6.961e-4
-1.282, 7.185e-4
-1.283, 7.371e-4
-1.284, 7.565e-4
-1.285, 7.648e-4
-1.286, 7.809e-4
-1.287, 8.034e-4
-1.288, 8.164e-4
-1.289, 8.384e-4
-1.290, 8.577e-4
-1.291, 8.872e-4
-1.292, 9.112e-4
-1.293, 9.288e-4
-1.294, 9.411e-4
-1.295, 9.583e-4
-1.296, 9.745e-4
-1.297, 9.931e-4
-1.298, 1.011e-3
-1.299, 1.030e-3
-1.300, 1.051e-3
-1.301, 1.072e-3
-1.302, 1.092e-3
-1.303, 1.109e-3
-1.304, 1.128e-3
-1.305, 1.149e-3
-1.306, 1.173e-3
-1.307, 1.196e-3
-1.308, 1.214e-3
-1.309, 1.234e-3
-1.310, 1.259e-3
-1.311, 1.282e-3
-1.312, 1.307e-3
-1.313, 1.329e-3
-1.314, 1.354e-3
-1.315, 1.376e-3
-1.316, 1.396e-3
-1.317, 1.416e-3
-1.318, 1.438e-3
-1.319, 1.466e-3
-1.320, 1.493e-3
-1.321, 1.519e-3
-1.322, 1.546e-3
-1.323, 1.572e-3
-1.324, 1.601e-3
-1.325, 1.628e-3
-1.326, 1.658e-3
-1.327, 1.688e-3
-1.328, 1.712e-3
-1.329, 1.740e-3
-1.330, 1.766e-3
-1.331, 1.789e-3
-1.332, 1.814e-3
-1.333, 1.839e-3
-1.334, 1.871e-3
-1.335, 1.904e-3
-1.336, 1.934e-3
-1.337, 1.965e-3
-1.338, 1.993e-3
-1.339, 2.026e-3
-1.340, 2.059e-3
-1.341, 2.089e-3
-1.342, 2.122e-3
-1.343, 2.155e-3
-1.344, 2.188e-3
-1.345, 2.221e-3
-1.346, 2.249e-3
-1.347, 2.277e-3
-1.348, 2.303e-3
-1.349, 2.336e-3
-1.350, 2.373e-3
-1.351, 2.410e-3
-1.352, 2.445e-3
-1.353, 2.477e-3
-1.354, 2.515e-3
-1.355, 2.552e-3
-1.356, 2.588e-3
-1.357, 2.623e-3
-1.358, 2.655e-3
-1.359, 2.688e-3
-1.360, 2.726e-3
-1.361, 2.767e-3
-1.362, 2.806e-3
-1.363, 2.841e-3
-1.364, 2.879e-3
-1.365, 2.918e-3
-1.366, 2.958e-3
-1.367, 2.996e-3
-1.368, 3.032e-3
-1.369, 3.064e-3
-1.370, 3.095e-3
-1.371, 3.143e-3
-1.372, 3.190e-3
-1.373, 3.233e-3
-1.374, 3.279e-3
-1.375, 3.321e-3
-1.376, 3.365e-3
-1.377, 3.410e-3
-1.378, 3.458e-3
-1.379, 3.504e-3
-1.380, 3.554e-3
-1.381, 3.601e-3
-1.382, 3.658e-3
-1.383, 3.708e-3
-1.384, 3.764e-3
-1.385, 3.809e-3
-1.386, 3.852e-3
-1.387, 3.898e-3
-1.388, 3.945e-3
-1.389, 3.997e-3
-1.390, 4.034e-3
-1.391, 4.082e-3
-1.392, 4.045e-3
-1.393, 3.929e-3
-1.394, 3.948e-3
-1.395, 3.996e-3
-1.396, 3.375e-3
-1.397, 1.788e-3
-1.398, 9.948e-4
-1.399, 5.873e-4
-1.400, 3.364e-4
-1.399, 2.444e-4
-1.398, 2.018e-4
-1.397, 1.316e-4
-1.396, 8.956e-5
-1.395, 5.936e-3
-1.394, 5.332e-3
-1.393, 4.024e-3
-1.392, 3.847e-3
-1.391, 3.796e-3
-1.390, 3.722e-3
-1.389, 3.651e-3
-1.388, 3.591e-3
-1.387, 3.539e-3
-1.386, 3.489e-3
-1.385, 3.435e-3
-1.384, 3.380e-3
-1.383, 3.325e-3
-1.382, 3.283e-3
-1.381, 3.236e-3
-1.380, 3.193e-3
-1.379, 3.143e-3
-1.378, 3.089e-3
-1.377, 3.034e-3
-1.376, 2.989e-3
-1.375, 2.922e-3
-1.374, 2.857e-3
-1.373, 2.807e-3
-1.372, 2.753e-3
-1.371, 2.697e-3
-1.370, 2.639e-3
-1.369, 2.589e-3
-1.368, 2.562e-3
-1.367, 2.529e-3
-1.366, 2.490e-3
-1.365, 2.427e-3
-1.364, 2.392e-3
-1.363, 2.355e-3
-1.362, 2.319e-3
-1.361, 2.273e-3
-1.360, 2.233e-3
-1.359, 2.197e-3
-1.358, 2.161e-3
-1.357, 2.122e-3
-1.356, 2.085e-3
-1.355, 2.047e-3
-1.354, 2.011e-3
-1.353, 1.980e-3
-1.352, 1.961e-3
-1.351, 1.952e-3
-1.350, 1.919e-3
-1.349, 1.885e-3
-1.348, 1.848e-3
-1.347, 1.812e-3
-1.346, 1.776e-3
-1.345, 1.738e-3
-1.344, 1.683e-3
-1.343, 1.577e-3
-1.342, 1.552e-3
-1.341, 1.535e-3
-1.340, 1.510e-3
-1.339, 1.471e-3
-1.338, 1.457e-3
-1.337, 1.426e-3
-1.336, 1.399e-3
-1.335, 1.371e-3
-1.334, 1.337e-3
-1.333, 1.301e-3
-1.332, 1.274e-3
-1.331, 1.251e-3
-1.330, 1.223e-3
-1.329, 1.364e-3
-1.328, 1.222e-3
-1.327, 1.212e-3
-1.326, 1.201e-3
-1.325, 1.177e-3
-1.324, 1.153e-3
-1.323, 1.118e-3
-1.322, 1.091e-3
-1.321, 1.072e-3
-1.320, 1.050e-3
-1.319, 1.027e-3
-1.318, 1.006e-3
-1.317, 1.006e-3
-1.316, 9.914e-4
-1.315, 9.662e-4
-1.314, 9.405e-4
-1.313, 9.202e-4
-1.312, 8.985e-4
-1.311, 8.793e-4
-1.310, 8.619e-4
-1.309, 8.366e-4
-1.308, 8.100e-4
-1.307, 7.836e-4
-1.306, 7.506e-4
-1.305, 7.371e-4
-1.304, 7.215e-4
-1.303, 7.058e-4
-1.302, 6.891e-4
-1.301, 6.841e-4
-1.300, 6.726e-4
-1.299, 6.596e-4
-1.298, 6.613e-4
-1.297, 6.458e-4
-1.296, 6.235e-4
-1.295, 6.065e-4
-1.294, 5.909e-4
-1.293, 5.751e-4
-1.292, 5.546e-4
-1.291, 5.406e-4
-1.290, 5.267e-4
-1.289, 5.125e-4
-1.288, 5.007e-4
-1.287, 4.856e-4
-1.286, 4.747e-4
-1.285, 4.653e-4
-1.284, 4.569e-4
-1.283, 4.462e-4
-1.282, 4.354e-4
-1.281, 4.246e-4
-1.280, 4.106e-4
-1.279, 3.987e-4
-1.278, 3.878e-4
-1.277, 3.756e-4
-1.276, 3.648e-4
-1.275, 3.527e-4
-1.274, 3.421e-4
-1.273, 3.307e-4
-1.272, 3.183e-4
-1.271, 3.091e-4
-1.270, 3.014e-4
-1.269, 2.957e-4
-1.268, 2.905e-4
-1.267, 2.798e-4
-1.266, 2.698e-4
-1.265, 2.596e-4
-1.264, 2.501e-4
-1.263, 2.426e-4
-1.262, 2.328e-4
-1.261, 2.255e-4
-1.260, 2.168e-4
-1.259, 2.083e-4
-1.258, 2.018e-4
-1.257, 1.928e-4
-1.256, 1.871e-4
-1.255, 1.791e-4
-1.254, 1.707e-4
-1.253, 1.627e-4
-1.252, 1.506e-4
-1.251, 1.470e-4
-1.250, 1.418e-4
-1.249, 1.359e-4
-1.248, 1.299e-4
-1.247, 1.233e-4
-1.246, 1.183e-4
-1.245, 1.122e-4
-1.244, 1.060e-4
-1.243, 1.014e-4
-1.242, 9.467e-5
-1.241, 8.992e-5
-1.240, 8.442e-5
-1.239, 7.965e-5
-1.238, 7.617e-5
-1.237, 7.171e-5
-1.236, 6.757e-5
-1.235, 6.084e-5
-1.234, 5.440e-5
-1.233, 5.114e-5
-1.232, 4.613e-5
-1.231, 4.256e-5
-1.230, 3.761e-5
-1.229, 3.178e-5
-1.228, 2.908e-5
-1.227, 2.404e-5
-1.226, 2.127e-5
-1.225, 1.630e-5
-1.224, 1.283e-5
-1.223, 9.943e-6
-1.222, 4.852e-6
-1.221, 2.711e-6
-1.220, -1.452e-6
-1.219, -5.024e-6
-1.218, -7.017e-6
-1.217, -1.158e-5
-1.216, -1.319e-5
-1.215, -1.698e-5
-1.214, -2.044e-5
-1.213, -2.192e-5
-1.212, -2.606e-5
-1.211, -2.651e-5
-1.210, -2.925e-5
-1.209, -3.277e-5
-1.208, -3.417e-5
-1.207, -3.770e-5
-1.206, -3.904e-5
-1.205, -4.217e-5
-1.204, -4.467e-5
-1.203, -4.638e-5
-1.202, -4.924e-5
-1.201, -5.058e-5
-1.200, -5.279e-5
-1.199, -5.510e-5
-1.198, -5.707e-5
-1.197, -6.009e-5
-1.196, -6.179e-5
-1.195, -6.330e-5
-1.194, -6.467e-5
-1.193, -6.572e-5
-1.192, -6.808e-5
-1.191, -6.844e-5
-1.190, -7.053e-5
-1.189, -7.197e-5
-1.188, -7.273e-5
-1.187, -7.515e-5
-1.186, -7.520e-5
-1.185, -7.728e-5
-1.184, -7.850e-5
-1.183, -7.939e-5
-1.182, -8.206e-5
-1.181, -8.151e-5
-1.180, -8.311e-5
-1.179, -8.448e-5
-1.178, -8.571e-5
-1.177, -8.820e-5
-1.176, -8.686e-5
-1.175, -8.801e-5
-1.174, -8.807e-5
-1.173, -8.617e-5
-1.172, -8.918e-5
-1.171, -9.041e-5
-1.170, -9.134e-5
-1.169, -9.305e-5
-1.168, -9.354e-5
-1.167, -9.471e-5
-1.166, -9.472e-5
-1.165, -9.659e-5
-1.164, -9.734e-5
-1.163, -9.770e-5
-1.162, -1.020e-4
-1.161, -1.004e-4
-1.160, -9.944e-5
-1.159, -1.002e-4
-1.158, -1.001e-4
-1.157, -1.021e-4
-1.156, -1.016e-4
-1.155, -1.022e-4
-1.154, -1.027e-4
-1.153, -1.028e-4
-1.152, -1.040e-4
-1.151, -1.036e-4
-1.150, -1.050e-4
-1.149, -1.052e-4
-1.148, -1.050e-4
-1.147, -1.068e-4
-1.146, -1.057e-4
-1.145, -1.066e-4
-1.144, -1.056e-4
-1.143, -1.047e-4
-1.142, -1.065e-4
-1.141, -1.056e-4
-1.140, -1.062e-4
-1.139, -1.062e-4
-1.138, -1.053e-4
-1.137, -1.067e-4
-1.136, -1.061e-4
-1.135, -1.077e-4
-1.134, -1.103e-4
-1.133, -1.117e-4
-1.132, -1.098e-4
-1.131, -1.080e-4
-1.130, -1.088e-4
-1.129, -1.104e-4
-1.128, -1.158e-4
-1.127, -1.162e-4
-1.126, -1.143e-4
-1.125, -1.135e-4
-1.124, -1.122e-4
-1.123, -1.099e-4
-1.122, -1.109e-4
-1.121, -1.103e-4
-1.120, -1.105e-4
-1.119, -1.109e-4
-1.118, -1.106e-4
-1.117, -1.114e-4
-1.116, -1.113e-4
-1.115, -1.136e-4
-1.114, -1.207e-4
-1.113, -1.198e-4
-1.112, -1.175e-4
-1.111, -1.149e-4
-1.110, -1.151e-4
-1.109, -1.139e-4
-1.108, -1.127e-4
-1.107, -1.132e-4
-1.106, -1.122e-4
-1.105, -1.134e-4
-1.104, -1.129e-4
-1.103, -1.130e-4
-1.102, -1.142e-4
-1.101, -1.134e-4
-1.100, -1.142e-4
-1.099, -1.143e-4
-1.098, -1.135e-4
-1.097, -1.148e-4
-1.096, -1.180e-4
-1.095, -1.208e-4
-1.094, -1.161e-4
-1.093, -1.143e-4
-1.092, -1.152e-4
-1.091, -1.143e-4
-1.090, -1.145e-4
-1.089, -1.130e-4
-1.088, -1.108e-4
-1.087, -1.131e-4
-1.086, -1.147e-4
-1.085, -1.155e-4
-1.084, -1.150e-4
-1.083, -1.152e-4
-1.082, -1.152e-4
-1.081, -1.149e-4
-1.080, -1.155e-4
-1.079, -1.154e-4
-1.078, -1.144e-4
-1.077, -1.145e-4
-1.076, -1.149e-4
-1.075, -1.267e-4
-1.074, -1.211e-4
-1.073, -1.197e-4
-1.072, -1.369e-4
-1.071, -1.338e-4
-1.070, -1.271e-4
-1.069, -1.214e-4
-1.068, -1.191e-4
-1.067, -1.184e-4
-1.066, -1.172e-4
-1.065, -1.190e-4
-1.064, -1.208e-4
-1.063, -1.202e-4
-1.062, -1.212e-4
-1.061, -1.197e-4
-1.060, -1.191e-4
-1.059, -1.187e-4
-1.058, -1.180e-4
-1.057, -1.199e-4
-1.056, -1.216e-4
-1.055, -1.231e-4
-1.054, -1.223e-4
-1.053, -1.201e-4
-1.052, -1.196e-4
-1.051, -1.162e-4
-1.050, -1.170e-4
-1.049, -1.185e-4
-1.048, -1.178e-4
-1.047, -1.197e-4
-1.046, -1.189e-4
-1.045, -1.182e-4
-1.044, -1.195e-4
-1.043, -1.192e-4
-1.042, -1.210e-4
-1.041, -1.210e-4
-1.040, -1.221e-4
-1.039, -1.212e-4
-1.038, -1.213e-4
-1.037, -1.226e-4
-1.036, -1.241e-4
-1.035, -1.358e-4
-1.034, -1.356e-4
-1.033, -1.326e-4
-1.032, -1.286e-4
-1.031, -1.262e-4
-1.030, -1.266e-4
-1.029, -1.264e-4
-1.028, -1.244e-4
-1.027, -1.243e-4
-1.026, -1.235e-4
-1.025, -1.249e-4
-1.024, -1.252e-4
-1.023, -1.247e-4
-1.022, -1.265e-4
-1.021, -1.253e-4
-1.020, -1.271e-4
-1.019, -1.272e-4
-1.018, -1.268e-4
-1.017, -1.284e-4
-1.016, -1.276e-4
-1.015, -1.286e-4
-1.014, -1.293e-4
-1.013, -1.288e-4
-1.012, -1.306e-4
-1.011, -1.284e-4
-1.010, -1.287e-4
-1.009, -1.295e-4
-1.008, -1.301e-4
-1.007, -1.324e-4
-1.006, -1.337e-4
-1.005, -1.349e-4
-1.004, -1.347e-4
-1.003, -1.374e-4
-1.002, -1.519e-4
-1.001, -1.482e-4
