Potential V vs RHE, Current mA cm-2
0.013299999999999867,10.94562132705579
0.012299999999999978,8.939560703847167
0.011299999999999866,7.107509570521944
0.010299999999999976,5.319314487492538
0.009299999999999864,3.6174167937548987
0.008299999999999974,1.8730777610213083
0.007299999999999862,0.12863969849672777
0.006299999999999972,-1.6594563547416883
0.00529999999999986,-3.5353635383627267
0.0042999999999999705,-5.367414671687949
0.0032999999999998586,-7.199465805013171
0.0022999999999999687,-8.899948787450944
0.0012999999999998568,-10.688143870480351
0.00029999999999996696,-12.302329463626359
-0.000700000000000145,-13.872659006476551
-0.0017000000000000348,-15.264734925543747
-0.0027000000000001467,-16.70774045140608
-0.0037000000000000366,-18.009274847281915
-0.0047000000000001485,-19.452280373144255
-0.005700000000000038,-20.810403221014692
-0.00670000000000015,-22.295850085872978
-0.00770000000000004,-23.823738289727217
-0.008700000000000152,-25.337479380582806
-0.009700000000000042,-26.86536758443705
-0.010700000000000154,-28.393255788291288
-0.011700000000000044,-29.921143992145527
-0.012700000000000156,-31.321708179011907
-0.013700000000000045,-32.62324257488775
-0.014700000000000157,-33.85404140577033
-0.015700000000000047,-35.02825178465831
-0.01670000000000016,-36.16002082455034
-0.01770000000000005,-37.334231203438314
-0.01870000000000016,-38.46600024333035
-0.01970000000000005,-39.739240413208876
-0.020700000000000163,-40.99833347008877
-0.021700000000000053,-42.3564563179592
-0.022700000000000164,-43.657990713835034
-0.023700000000000054,-45.10099623969737
-0.024700000000000166,-46.37423640957591
-0.025700000000000056,-47.67577080545174
-0.026700000000000168,-48.76509850634781
-0.027700000000000058,-49.89686754623985
-0.02870000000000017,-50.943753908139975
-0.02970000000000006,-51.948198931044146
-0.03070000000000017,-52.95264395394832
-0.03170000000000006,-53.9570889768525
-0.03270000000000017,-55.046416677748574
-0.03370000000000006,-56.13574437864466
-0.034700000000000175,-57.352396096528594
-0.035700000000000065,-58.583194927411164
-0.03670000000000018,-59.884729323287
-0.03770000000000007,-61.07308681517363
-0.03870000000000018,-62.24729719406162
-0.03970000000000007,-63.251742216965795
-0.04070000000000018,-64.34106991786187
-0.04170000000000007,-65.2464851497755
-0.04270000000000018,-66.12360615569182
-0.04370000000000007,-66.91584448361623
-0.044700000000000184,-67.9202895065204
-0.045700000000000074,-68.78326339943808
-0.046700000000000186,-69.87259110033416
-0.047700000000000076,-70.96191880123024
-0.04870000000000019,-72.05124650212633
-0.04970000000000008,-73.197162655017
-0.05070000000000019,-74.32893169490903
-0.05170000000000008,-75.46070073480107
-0.05270000000000019,-76.46514575770523
-0.05370000000000008,-77.46959078060941
-0.05470000000000019,-78.33256467352709
-0.05570000000000008,-79.1248030014515
-0.056700000000000195,-79.90289421637728
-0.057700000000000085,-80.7800152222936
-0.058700000000000196,-81.61469488921396
-0.059700000000000086,-82.52011012112759
-0.0607000000000002,-83.52455514403178
-0.06170000000000009,-84.61388284492786
-0.0627000000000002,-85.70321054582392
-0.06370000000000009,-86.84912669871461
-0.0647000000000002,-87.85357172161878
-0.06570000000000009,-88.9004580835189
-0.0667000000000002,-89.80587331543254
-0.0677000000000001,-90.68299432134886
-0.0687000000000002,-91.46108553627462
-0.0697000000000001,-92.2108825252031
-0.07070000000000021,-93.03141507912481
-0.0717000000000001,-93.82365340704924
-0.07270000000000021,-94.70077441296557
-0.0737000000000001,-95.60618964487918
-0.07470000000000021,-96.65307600677932
-0.0757000000000001,-97.74240370767538
-0.07670000000000021,-98.83173140857146
-0.0777000000000001,-99.87861777047159
-0.07870000000000021,-100.98209258436633
-0.0797000000000001,-101.88750781627995
-0.08070000000000022,-102.80707016119221
-0.0817000000000001,-103.59930848911664
-0.08270000000000022,-104.41984104303836
-0.08370000000000011,-105.11304957997223
-0.08470000000000022,-105.94772924689259
-0.08570000000000011,-106.78240891381296
-0.08670000000000022,-107.78685393671715
-0.08770000000000011,-108.77715184662266
-0.08870000000000022,-109.78159686952685
-0.08970000000000011,-110.87092457042293
-0.09070000000000022,-111.91781093232305
-0.09170000000000011,-113.00713863321914
-0.09270000000000023,-113.92670097813141
-0.09370000000000012,-114.84626332304367
-0.09470000000000023,-115.68094298996405
-0.09570000000000012,-116.50147554388576
-0.09670000000000023,-117.25127253281424
-0.09770000000000012,-118.02936374774
-0.09870000000000023,-118.82160207566443
-0.09970000000000012,-119.72701730757805
-0.10070000000000023,-120.68902099148629
-0.10170000000000012,-121.73590735338641
-0.10270000000000024,-122.82523505428249
-0.10370000000000013,-123.95700409417452
-0.10470000000000024,-125.00389045607463
-0.10570000000000013,-126.00833547897882
-0.10670000000000024,-126.88545648489513
-0.10770000000000013,-127.80501882980741
-0.10870000000000024,-128.62555138372915
-0.10970000000000013,-129.41778971165354
-0.11070000000000024,-130.28076360457123
-0.11170000000000013,-131.1154432714916
-0.11270000000000002,-131.99256427740792
-0.11370000000000013,-132.99700930031207
-0.11470000000000002,-133.9873072102176
-0.11570000000000014,-135.1332233631083
-0.11670000000000003,-136.26499240300032
-0.11770000000000014,-137.3543201038964
-0.11870000000000003,-138.48608914378846
-0.11970000000000014,-139.44809282769666
-0.12070000000000003,-140.45253785060083
-0.12170000000000014,-141.27307040452254
-0.12270000000000003,-142.03701450644968
-0.12370000000000014,-142.7443701563822
-0.12470000000000003,-143.73466806628772
-0.12570000000000014,-144.44202371622026
-0.12670000000000003,-145.57379275611228
-0.12770000000000015,-146.4226195360313
-0.12870000000000004,-147.6958597059098
-0.12970000000000015,-148.82762874580186
-0.13070000000000004,-149.8179266557074
-0.13170000000000015,-150.8082245656129
-0.13270000000000004,-151.7985224755184
-0.13370000000000015,-152.78882038542397
-0.13470000000000004,-153.63764716534297
-0.13570000000000015,-154.3450028152755
-0.13670000000000004,-155.19382959519453
-0.13770000000000016,-156.04265637511355
-0.13870000000000005,-157.03295428501906
-0.13970000000000016,-158.02325219492457
-0.14070000000000005,-159.01355010483013
-0.14170000000000016,-160.14531914472215
-0.14270000000000005,-161.2770881846142
-0.14370000000000016,-162.40885722450622
-0.14470000000000005,-163.39915513441173
-0.14570000000000016,-164.53092417430375
-0.14670000000000005,-165.5212220842093
-0.14770000000000016,-166.51151999411482
-0.14870000000000005,-167.36034677403384
-0.14970000000000017,-168.20917355395284
-0.15070000000000006,-169.0580003338719
-0.15170000000000017,-169.9068271137909
-0.15270000000000006,-170.61418276372342
-0.15370000000000017,-171.60448067362896
-0.15470000000000006,-172.73624971352098
-0.15570000000000017,-173.86801875341303
-0.15670000000000006,-174.99978779330505
-0.15770000000000017,-175.99008570321055
-0.15870000000000006,-177.1218547431026
-0.15970000000000018,-178.1121526530081
-0.16070000000000007,-178.96097943292713
-0.16170000000000018,-179.80980621284618
-0.16270000000000007,-180.65863299276518
-0.16370000000000018,-181.5074597726842
-0.16470000000000007,-182.35628655260325
-0.16570000000000018,-183.20511333252225
-0.16670000000000007,-184.33688237241427
-0.16770000000000018,-185.3271802823198
-0.16870000000000007,-186.45894932221185
-0.16970000000000018,-187.59071836210387
-0.17070000000000007,-188.8639585319824
-0.17170000000000019,-189.99572757187443
-0.17270000000000008,-190.98602548177996
-0.1737000000000002,-192.11779452167198
-0.17470000000000008,-193.10809243157752
-0.1757000000000002,-193.9569192114965
-0.17670000000000008,-194.94721712140205
-0.1777000000000002,-195.79604390132107
-0.17870000000000008,-196.6448706812401
-0.1797000000000002,-197.63516859114563
-0.18070000000000008,-198.62546650105114
-0.1817000000000002,-199.75723554094319
-0.18270000000000008,-200.88900458083523
-0.1837000000000002,-202.16224475071377
-0.1847000000000001,-203.15254266061928
-0.1857000000000002,-204.14284057052478
-0.1867000000000001,-205.13313848043032
-0.1877000000000002,-206.12343639033585
-0.1887000000000001,-206.97226317025488
-0.1897000000000002,-207.8210899501739
-0.1907000000000001,-208.6699167300929
-0.1917000000000001,-209.51874351001192
-0.19269999999999998,-210.50904141991748
-0.1937000000000001,-211.499339329823
-0.19469999999999998,-212.48963723972852
-0.1957000000000001,-213.76287740960703
-0.19669999999999999,-214.89464644949908
-0.1977000000000001,-216.0264154893911
-0.1987,-217.15818452928315
-0.1997000000000001,-218.14848243918865
-0.2007,-218.99730921910768
-0.2017000000000001,-219.8461359990267
-0.2027,-220.6949627789457
-0.2037000000000001,-221.40231842887826
-0.2047,-222.3926163387838
-0.2057000000000001,-223.2414431187028
-0.2067,-224.2317410286083
-0.2077000000000001,-225.22203893851383
-0.2087,-226.35380797840588
-0.2097000000000001,-227.4855770182979
-0.2107,-228.61734605818995
-0.2117000000000001,-229.74911509808197
-0.2127,-230.880884137974
-0.2137000000000001,-231.8711820478795
-0.2147,-232.72000882779852
-0.2157000000000001,-233.71030673770406
-0.2167,-234.4176623876366
-0.21770000000000012,-235.40796029754208
-0.2187,-236.25678707746113
-0.21970000000000012,-237.24708498736666
-0.2207,-238.2373828972722
-0.22170000000000012,-239.5106230671507
-0.2227,-240.64239210704275
-0.22370000000000012,-241.77416114693477
-0.2247,-242.90593018682682
-0.22570000000000012,-244.03769922671884
-0.2267,-244.8865260066378
-0.22770000000000012,-245.87682391654337
-0.22870000000000001,-246.8671218264489
-0.22970000000000013,-247.71594860636796
-0.23070000000000002,-248.56477538628693
-0.23170000000000013,-249.41360216620598
-0.23270000000000002,-250.4039000761115
-0.23370000000000013,-251.53566911600356
-0.23470000000000002,-252.66743815589555
-0.23570000000000013,-253.79920719578757
-0.23670000000000002,-254.93097623567962
-0.2376999999999999,-256.0627452755717
-0.23870000000000002,-257.33598544545015
-0.2396999999999999,-258.18481222536917
-0.24070000000000003,-259.17511013527474
-0.24169999999999991,-260.02393691519376
-0.24270000000000003,-261.01423482509927
-0.24369999999999992,-261.8630616050183
-0.24470000000000003,-262.7118883849373
-0.24569999999999992,-263.7021862948428
-0.24670000000000003,-264.6924842047484
-0.24769999999999992,-265.82425324464043
-0.24870000000000003,-266.9560222845325
-0.24969999999999992,-268.0877913244245
-0.25070000000000003,-269.361031494303
-0.2516999999999999,-270.49280053419506
-0.25270000000000004,-271.62456957408705
-0.2536999999999999,-272.7563386139791
-0.25470000000000004,-273.60516539389806
-0.2556999999999999,-274.5954633038036
-0.25670000000000004,-275.30281895373616
-0.25769999999999993,-276.29311686364167
-0.25870000000000004,-277.0004725135742
-0.25969999999999993,-278.1322415534662
-0.26070000000000004,-279.1225394633717
-0.26169999999999993,-280.25430850326376
-0.26270000000000004,-281.3860775431558
-0.26369999999999993,-282.51784658304786
-0.26470000000000005,-283.64961562293985
-0.26569999999999994,-284.63991353284536
-0.26670000000000005,-285.6302114427509
-0.26769999999999994,-286.6205093526564
-0.26870000000000005,-287.46933613257545
-0.26969999999999994,-288.3181629124945
-0.27070000000000005,-289.02551856242695
-0.27169999999999994,-289.87434534234603
-0.27270000000000005,-290.86464325225154
-0.27369999999999994,-291.85494116215705
-0.27470000000000006,-292.8452390720626
-0.27569999999999995,-293.9770081119546
-0.27670000000000006,-294.96730602186017
-0.27769999999999995,-296.0990750617522
-0.27870000000000006,-297.23084410164427
-0.27969999999999995,-298.2211420115498
-0.28070000000000006,-299.2114399214552
-0.28169999999999995,-300.06026670137425
-0.28270000000000006,-301.0505646112798
-0.28369999999999995,-301.8993913911989
-0.28470000000000006,-302.88968930110434
-0.28569999999999995,-303.73851608102336
-0.28670000000000007,-304.72881399092887
-0.28769999999999996,-305.8605830308209
-0.28870000000000007,-306.8508809407265
-0.28969999999999996,-307.98264998061853
-0.29070000000000007,-309.1144190205105
-0.29169999999999996,-310.10471693041603
-0.29270000000000007,-311.2364859703081
-0.29369999999999996,-312.0853127502271
-0.2947000000000001,-312.9341395301461
-0.29569999999999996,-313.78296631006515
-0.2967000000000001,-314.6317930899841
-0.29769999999999996,-315.4806198699032
-0.2987000000000001,-316.3294466498222
-0.29969999999999997,-317.3197445597277
-0.3007000000000001,-318.16857133964675
-0.30169999999999997,-319.30034037953874
-0.3027000000000001,-320.4321094194308
-0.30369999999999997,-321.56387845932284
-0.3047000000000001,-322.5541763692284
-0.30569999999999997,-323.8274165391069
-0.3067000000000001,-324.67624331902596
-0.3077,-325.6665412289314
-0.3087000000000001,-326.373896878864
-0.3097,-327.3641947887695
-0.3107000000000001,-328.071550438702
-0.3117,-328.7789060886345
-0.3127000000000001,-329.48626173856707
-0.3137,-330.19361738849955
-0.3147000000000001,-331.3253864283916
-0.3157,-332.7400977282566
-0.3167000000000001,-334.1548090281217
-0.3177,-335.42804919800017
-0.3187000000000001,-336.70128936787876
-0.3197,-337.69158727778427
-0.3207000000000001,-338.6818851876898
-0.3217,-339.5307119676088
-0.3227000000000001,-340.3795387475279
-0.3237,-341.0868943974603
-0.3247000000000001,-342.07719230736586
-0.3257,-342.7845479572984
-0.3267000000000001,-343.7748458672039
-0.3277,-344.90661490709596
-0.3287000000000001,-345.89691281700146
-0.3297,-347.0286818568935
-0.3307000000000001,-348.16045089678556
-0.3317,-349.15074880669107
-0.3327000000000001,-350.2825178465831
-0.3337,-351.1313446265021
-0.3347000000000001,-351.8387002764346
-0.3357,-352.54605592636716
-0.3367000000000001,-353.25341157629964
-0.3377,-354.10223835621866
-0.3387000000000001,-354.8095940061512
-0.3397,-355.51694965608374
-0.3407000000000001,-356.2243053060162
-0.3417,-357.2146032159218
-0.3427000000000001,-358.3463722558138
-0.3437,-359.7610835556788
-0.3447000000000001,-361.17579485554387
-0.3457,-362.5905061554089
-0.3467000000000001,-363.8637463252875
-0.3477,-364.57110197521996
-0.3487000000000001,-365.2784576251525
-0.3497,-365.985813275085
-0.3507000000000001,-366.4102266650445
-0.3517,-367.117582314977
-0.3527000000000001,-367.8249379649095
-0.3537,-368.8152358748151
-0.3547000000000001,-370.0884760446936
-0.3557,-371.5031873445586
-0.35670000000000013,-372.9178986444237
-0.3577,-374.19113881430224
-0.35870000000000013,-375.3229078541942
-0.3597,-376.31320576409973
-0.36070000000000013,-377.3035036740053
-0.3617,-378.1523304539243
-0.3626999999999999,-379.00115723384334
-0.3637,-379.7085128837758
-0.3646999999999999,-380.55733966369485
-0.3657,-381.4061664436139
-0.3666999999999999,-382.2549932235329
-0.3677,-383.2452911334384
-0.3686999999999999,-384.37706017333045
-0.36970000000000003,-385.5088292132225
-0.3706999999999999,-386.64059825311455
-0.37170000000000003,-387.7723672930066
-0.3726999999999999,-388.6211940729256
-0.37370000000000003,-389.61149198283107
-0.3746999999999999,-390.31884763276366
-0.37570000000000003,-391.16767441268263
-0.3766999999999999,-391.87503006261517
-0.37770000000000004,-392.2994434525747
-0.3786999999999999,-393.00679910250716
-0.37970000000000004,-393.7141547524397
-0.3806999999999999,-394.5629815323587
-0.38170000000000004,-395.6947505722507
-0.38269999999999993,-396.82651961214276
-0.38370000000000004,-397.9582886520348
-0.38469999999999993,-398.9485865619403
-0.38570000000000004,-400.08035560183237
-0.38669999999999993,-399.3729999518999
-0.38570000000000004,-396.1191639622103
-0.38469999999999993,-392.7238568425342
-0.38370000000000004,-389.4700208528446
-0.38269999999999993,-386.0747137331685
-0.38170000000000004,-382.96234887346543
-0.3806999999999999,-379.7085128837758
-0.37970000000000004,-376.7376191540593
-0.3786999999999999,-373.76672542434267
-0.37770000000000004,-370.93730282461263
-0.3766999999999999,-368.10788022488254
-0.37570000000000003,-365.13698649516596
-0.3746999999999999,-362.0246216354629
-0.37370000000000003,-359.0537279057463
-0.3726999999999999,-356.08283417602973
-0.37170000000000003,-353.25341157629964
-0.3706999999999999,-350.42398897656955
-0.36970000000000003,-347.45309524685297
-0.3686999999999999,-344.62367264712293
-0.3677,-341.9357211773794
-0.3666999999999999,-339.2477697076358
-0.3657,-336.5598182378922
-0.3646999999999999,-333.87186676814866
-0.3637,-331.18391529840505
-0.3626999999999999,-328.63743495864804
-0.3617,-325.94948348890443
-0.36070000000000013,-323.2615320191609
-0.3597,-320.4321094194308
-0.35870000000000013,-317.74415794968724
-0.3577,-314.91473534995714
-0.35670000000000013,-312.0853127502271
-0.3557,-309.3973612804835
-0.3547000000000001,-306.56793868075346
-0.3537,-304.0214583409964
-0.3527000000000001,-301.33350687125284
-0.3517,-298.78702653149577
-0.3507000000000001,-296.2405461917387
-0.3497,-293.8355369819681
-0.3487000000000001,-291.14758551222457
-0.3477,-288.6011051724675
-0.3467000000000001,-285.9131537027239
-0.3457,-283.3666733629668
-0.3447000000000001,-280.67872189322327
-0.3437,-277.84929929349323
-0.3427000000000001,-275.1613478237496
-0.3417,-272.47339635400607
-0.3407000000000001,-269.926916014249
-0.3397,-267.23896454450545
-0.3387000000000001,-264.83395533473487
-0.3377,-262.57041725495077
-0.3367000000000001,-260.16540804518024
-0.3357,-257.76039883540966
-0.3347000000000001,-255.35538962563913
-0.3337,-252.95038041586852
-0.3327000000000001,-250.545371206098
-0.3317,-247.85741973635444
-0.3307000000000001,-245.31093939659738
-0.3297,-242.62298792685377
-0.3287000000000001,-240.0765075870967
-0.3277,-237.38855611735315
-0.3267000000000001,-234.9835469075826
-0.3257,-232.57853769781204
-0.3247000000000001,-230.31499961802797
-0.3237,-228.0514615382439
-0.3227000000000001,-225.92939458844637
-0.3217,-223.80732763864881
-0.3207000000000001,-221.54378955886475
-0.3197,-219.13878034909416
-0.3187000000000001,-216.73377113932364
-0.3177,-214.32876192955305
-0.3167000000000001,-211.782281589796
-0.3157,-209.23580125003892
-0.3147000000000001,-206.83079204026836
-0.3137,-204.42578283049778
-0.3127000000000001,-202.16224475071377
-0.3117,-200.04017780091618
-0.3107000000000001,-197.77663972113214
-0.3097,-195.79604390132107
-0.3087000000000001,-193.6739769515235
-0.3077,-191.551910001726
-0.3067000000000001,-189.1469007919554
-0.30569999999999997,-186.88336271217133
-0.3047000000000001,-184.33688237241427
-0.30369999999999997,-181.93187316264374
-0.3027000000000001,-179.38539282288664
-0.30169999999999997,-177.1218547431026
-0.3007000000000001,-174.85831666331853
-0.29969999999999997,-172.73624971352098
-0.2987000000000001,-170.61418276372342
-0.29769999999999996,-168.63358694391238
-0.2967000000000001,-166.51151999411482
-0.29569999999999996,-164.53092417430375
-0.2947000000000001,-162.40885722450622
-0.29369999999999996,-160.28679027470866
-0.29270000000000007,-158.02325219492457
-0.29169999999999996,-155.75971411514055
-0.29070000000000007,-153.49617603535648
-0.28969999999999996,-151.09116682558593
-0.28870000000000007,-148.82762874580186
-0.28769999999999996,-146.5640906660178
-0.28670000000000007,-144.44202371622026
-0.28569999999999995,-142.4614278964092
-0.28470000000000006,-140.4949791895968
-0.28369999999999995,-138.57097182178035
-0.28270000000000006,-136.66111156696255
-0.28169999999999995,-134.73710419914607
-0.28070000000000006,-132.81309683132966
-0.27969999999999995,-130.76176544652535
-0.27870000000000006,-128.62555138372915
-0.27769999999999995,-126.48933732093293
-0.27670000000000006,-124.31068191914078
-0.27569999999999995,-122.21690919534053
-0.27470000000000006,-120.08069513254432
-0.27369999999999994,-118.07180508673595
-0.27270000000000005,-116.06291504092759
-0.27169999999999994,-114.19549612510575
-0.27070000000000005,-112.3563714352812
-0.26969999999999994,-110.6162765364472
-0.26870000000000005,-108.69226916863077
