Jan. 11, 2025   19:25:33
Cyclic Voltammetry
File: c:/users/guazh/data/banditlqround7_x0exp772_r5/2025-01-10-exp816\exp816-2025-01-11t19_18_04-h2koh\exp816_cv_sr_500mvs_efin_-1400mv.bin
Data Source:  Experiment
Instrument Model:  CHI760E
Header: CV ran at 500 mVs
Note: 

Init E (V) = -1
High E (V) = -1
Low E (V) = -1.4
Final E (V) = -1
Init P/N = N
Scan Rate (V/s) = 0.5
Segment = 3
Sample Interval (V) = 0.001
Quiet Time (sec) = 2
Sensitivity (A/V) = 0.01
Comp R (ohm) = 1.3

Results:

Channel 1:
Segment 1:

Segment 2:

Segment 3:

Potential/V, Current/A

-1.000, -1.051e-3
-1.001, -9.001e-4
-1.002, -7.490e-4
-1.003, -6.041e-4
-1.004, -4.716e-4
-1.005, -3.544e-4
-1.006, -2.527e-4
-1.007, -1.509e-4
-1.008, -4.301e-5
-1.009, 7.107e-5
-1.010, 1.975e-4
-1.011, 3.177e-4
-1.012, 4.318e-4
-1.013, 5.335e-4
-1.014, 6.199e-4
-1.015, 7.000e-4
-1.016, 7.863e-4
-1.017, 8.850e-4
-1.018, 9.898e-4
-1.019, 1.101e-3
-1.020, 1.203e-3
-1.021, 1.292e-3
-1.022, 1.369e-3
-1.023, 1.434e-3
-1.024, 1.508e-3
-1.025, 1.591e-3
-1.026, 1.684e-3
-1.027, 1.782e-3
-1.028, 1.875e-3
-1.029, 1.961e-3
-1.030, 2.032e-3
-1.031, 2.094e-3
-1.032, 2.155e-3
-1.033, 2.223e-3
-1.034, 2.303e-3
-1.035, 2.390e-3
-1.036, 2.482e-3
-1.037, 2.565e-3
-1.038, 2.633e-3
-1.039, 2.692e-3
-1.040, 2.741e-3
-1.041, 2.800e-3
-1.042, 2.874e-3
-1.043, 2.954e-3
-1.044, 3.037e-3
-1.045, 3.117e-3
-1.046, 3.182e-3
-1.047, 3.241e-3
-1.048, 3.287e-3
-1.049, 3.336e-3
-1.050, 3.398e-3
-1.051, 3.472e-3
-1.052, 3.552e-3
-1.053, 3.629e-3
-1.054, 3.697e-3
-1.055, 3.752e-3
-1.056, 3.795e-3
-1.057, 3.845e-3
-1.058, 3.894e-3
-1.059, 3.959e-3
-1.060, 4.033e-3
-1.061, 4.110e-3
-1.062, 4.178e-3
-1.063, 4.239e-3
-1.064, 4.283e-3
-1.065, 4.323e-3
-1.066, 4.369e-3
-1.067, 4.428e-3
-1.068, 4.501e-3
-1.069, 4.575e-3
-1.070, 4.643e-3
-1.071, 4.702e-3
-1.072, 4.748e-3
-1.073, 4.794e-3
-1.074, 4.834e-3
-1.075, 4.890e-3
-1.076, 4.958e-3
-1.077, 5.029e-3
-1.078, 5.100e-3
-1.079, 5.164e-3
-1.080, 5.211e-3
-1.081, 5.254e-3
-1.082, 5.294e-3
-1.083, 5.340e-3
-1.084, 5.405e-3
-1.085, 5.473e-3
-1.086, 5.547e-3
-1.087, 5.614e-3
-1.088, 5.670e-3
-1.089, 5.716e-3
-1.090, 5.750e-3
-1.091, 5.796e-3
-1.092, 5.855e-3
-1.093, 5.920e-3
-1.094, 5.997e-3
-1.095, 6.065e-3
-1.096, 6.120e-3
-1.097, 6.173e-3
-1.098, 6.210e-3
-1.099, 6.253e-3
-1.100, 6.308e-3
-1.101, 6.373e-3
-1.102, 6.450e-3
-1.103, 6.518e-3
-1.104, 6.580e-3
-1.105, 6.632e-3
-1.106, 6.672e-3
-1.107, 6.715e-3
-1.108, 6.764e-3
-1.109, 6.823e-3
-1.110, 6.897e-3
-1.111, 6.971e-3
-1.112, 7.036e-3
-1.113, 7.091e-3
-1.114, 7.138e-3
-1.115, 7.178e-3
-1.116, 7.224e-3
-1.117, 7.282e-3
-1.118, 7.353e-3
-1.119, 7.427e-3
-1.120, 7.498e-3
-1.121, 7.554e-3
-1.122, 7.603e-3
-1.123, 7.640e-3
-1.124, 7.686e-3
-1.125, 7.742e-3
-1.126, 7.810e-3
-1.127, 7.884e-3
-1.128, 7.958e-3
-1.129, 8.022e-3
-1.130, 8.075e-3
-1.131, 8.118e-3
-1.132, 8.161e-3
-1.133, 8.210e-3
-1.134, 8.278e-3
-1.135, 8.349e-3
-1.136, 8.429e-3
-1.137, 8.500e-3
-1.138, 8.559e-3
-1.139, 8.605e-3
-1.140, 8.645e-3
-1.141, 8.691e-3
-1.142, 8.756e-3
-1.143, 8.824e-3
-1.144, 8.904e-3
-1.145, 8.975e-3
-1.146, 9.034e-3
-1.147, 9.083e-3
-1.148, 9.123e-3
-1.149, 9.166e-3
-1.150, 9.228e-3
-1.151, 9.302e-3
-1.152, 9.385e-3
-1.153, 9.456e-3
-1.154, 9.521e-3
-1.155, 9.570e-3
-1.156, 9.616e-3
-1.157, 9.666e-3
-1.158, 9.718e-3
-1.159, 9.783e-3
-1.160, 9.854e-3
-1.161, 9.931e-3
-1.162, 9.999e-3
-1.163, 1.006e-2
-1.164, 1.011e-2
-1.165, 1.015e-2
-1.166, 1.020e-2
-1.167, 1.026e-2
-1.168, 1.034e-2
-1.169, 1.041e-2
-1.170, 1.049e-2
-1.171, 1.055e-2
-1.172, 1.060e-2
-1.173, 1.065e-2
-1.174, 1.070e-2
-1.175, 1.075e-2
-1.176, 1.082e-2
-1.177, 1.090e-2
-1.178, 1.098e-2
-1.179, 1.104e-2
-1.180, 1.110e-2
-1.181, 1.115e-2
-1.182, 1.119e-2
-1.183, 1.124e-2
-1.184, 1.130e-2
-1.185, 1.138e-2
-1.186, 1.147e-2
-1.187, 1.153e-2
-1.188, 1.159e-2
-1.189, 1.164e-2
-1.190, 1.168e-2
-1.191, 1.174e-2
-1.192, 1.180e-2
-1.193, 1.187e-2
-1.194, 1.195e-2
-1.195, 1.203e-2
-1.196, 1.210e-2
-1.197, 1.216e-2
-1.198, 1.220e-2
-1.199, 1.226e-2
-1.200, 1.231e-2
-1.201, 1.238e-2
-1.202, 1.245e-2
-1.203, 1.252e-2
-1.204, 1.259e-2
-1.205, 1.264e-2
-1.206, 1.269e-2
-1.207, 1.274e-2
-1.208, 1.279e-2
-1.209, 1.285e-2
-1.210, 1.292e-2
-1.211, 1.300e-2
-1.212, 1.307e-2
-1.213, 1.312e-2
-1.214, 1.317e-2
-1.215, 1.322e-2
-1.216, 1.327e-2
-1.217, 1.333e-2
-1.218, 1.341e-2
-1.219, 1.349e-2
-1.220, 1.356e-2
-1.221, 1.363e-2
-1.222, 1.368e-2
-1.223, 1.374e-2
-1.224, 1.378e-2
-1.225, 1.385e-2
-1.226, 1.391e-2
-1.227, 1.399e-2
-1.228, 1.407e-2
-1.229, 1.415e-2
-1.230, 1.421e-2
-1.231, 1.426e-2
-1.232, 1.430e-2
-1.233, 1.435e-2
-1.234, 1.441e-2
-1.235, 1.448e-2
-1.236, 1.456e-2
-1.237, 1.464e-2
-1.238, 1.469e-2
-1.239, 1.474e-2
-1.240, 1.477e-2
-1.241, 1.483e-2
-1.242, 1.489e-2
-1.243, 1.496e-2
-1.244, 1.505e-2
-1.245, 1.512e-2
-1.246, 1.519e-2
-1.247, 1.525e-2
-1.248, 1.529e-2
-1.249, 1.534e-2
-1.250, 1.540e-2
-1.251, 1.547e-2
-1.252, 1.555e-2
-1.253, 1.563e-2
-1.254, 1.570e-2
-1.255, 1.576e-2
-1.256, 1.581e-2
-1.257, 1.585e-2
-1.258, 1.590e-2
-1.259, 1.596e-2
-1.260, 1.604e-2
-1.261, 1.613e-2
-1.262, 1.621e-2
-1.263, 1.627e-2
-1.264, 1.633e-2
-1.265, 1.638e-2
-1.266, 1.643e-2
-1.267, 1.649e-2
-1.268, 1.657e-2
-1.269, 1.664e-2
-1.270, 1.671e-2
-1.271, 1.677e-2
-1.272, 1.682e-2
-1.273, 1.686e-2
-1.274, 1.691e-2
-1.275, 1.696e-2
-1.276, 1.703e-2
-1.277, 1.710e-2
-1.278, 1.717e-2
-1.279, 1.724e-2
-1.280, 1.729e-2
-1.281, 1.734e-2
-1.282, 1.737e-2
-1.283, 1.742e-2
-1.284, 1.748e-2
-1.285, 1.756e-2
-1.286, 1.764e-2
-1.287, 1.771e-2
-1.288, 1.777e-2
-1.289, 1.782e-2
-1.290, 1.786e-2
-1.291, 1.792e-2
-1.292, 1.798e-2
-1.293, 1.805e-2
-1.294, 1.814e-2
-1.295, 1.821e-2
-1.296, 1.827e-2
-1.297, 1.833e-2
-1.298, 1.837e-2
-1.299, 1.842e-2
-1.300, 1.848e-2
-1.301, 1.855e-2
-1.302, 1.864e-2
-1.303, 1.872e-2
-1.304, 1.879e-2
-1.305, 1.883e-2
-1.306, 1.888e-2
-1.307, 1.892e-2
-1.308, 1.897e-2
-1.309, 1.903e-2
-1.310, 1.910e-2
-1.311, 1.917e-2
-1.312, 1.923e-2
-1.313, 1.928e-2
-1.314, 1.933e-2
-1.315, 1.937e-2
-1.316, 1.941e-2
-1.317, 1.947e-2
-1.318, 1.955e-2
-1.319, 1.963e-2
-1.320, 1.970e-2
-1.321, 1.976e-2
-1.322, 1.982e-2
-1.323, 1.986e-2
-1.324, 1.991e-2
-1.325, 1.996e-2
-1.326, 2.002e-2
-1.327, 2.009e-2
-1.328, 2.017e-2
-1.329, 2.024e-2
-1.330, 2.030e-2
-1.331, 2.035e-2
-1.332, 2.039e-2
-1.333, 2.044e-2
-1.334, 2.050e-2
-1.335, 2.058e-2
-1.336, 2.065e-2
-1.337, 2.072e-2
-1.338, 2.078e-2
-1.339, 2.082e-2
-1.340, 2.086e-2
-1.341, 2.090e-2
-1.342, 2.095e-2
-1.343, 2.101e-2
-1.344, 2.108e-2
-1.345, 2.115e-2
-1.346, 2.123e-2
-1.347, 2.130e-2
-1.348, 2.135e-2
-1.349, 2.140e-2
-1.350, 2.146e-2
-1.351, 2.154e-2
-1.352, 2.162e-2
-1.353, 2.170e-2
-1.354, 2.177e-2
-1.355, 2.183e-2
-1.356, 2.186e-2
-1.357, 2.189e-2
-1.358, 2.194e-2
-1.359, 2.200e-2
-1.360, 2.207e-2
-1.361, 2.215e-2
-1.362, 2.221e-2
-1.363, 2.226e-2
-1.364, 2.230e-2
-1.365, 2.233e-2
-1.366, 2.237e-2
-1.367, 2.243e-2
-1.368, 2.249e-2
-1.369, 2.256e-2
-1.370, 2.262e-2
-1.371, 2.268e-2
-1.372, 2.272e-2
-1.373, 2.276e-2
-1.374, 2.280e-2
-1.375, 2.286e-2
-1.376, 2.291e-2
-1.377, 2.299e-2
-1.378, 2.306e-2
-1.379, 2.313e-2
-1.380, 2.318e-2
-1.381, 2.323e-2
-1.382, 2.326e-2
-1.383, 2.331e-2
-1.384, 2.337e-2
-1.385, 2.345e-2
-1.386, 2.353e-2
-1.387, 2.360e-2
-1.388, 2.366e-2
-1.389, 2.371e-2
-1.390, 2.375e-2
-1.391, 2.379e-2
-1.392, 2.384e-2
-1.393, 2.391e-2
-1.394, 2.398e-2
-1.395, 2.404e-2
-1.396, 2.410e-2
-1.397, 2.414e-2
-1.398, 2.417e-2
-1.399, 2.421e-2
-1.400, 2.416e-2
-1.399, 2.392e-2
-1.398, 2.369e-2
-1.397, 2.347e-2
-1.396, 2.325e-2
-1.395, 2.302e-2
-1.394, 2.280e-2
-1.393, 2.256e-2
-1.392, 2.232e-2
-1.391, 2.210e-2
-1.390, 2.190e-2
-1.389, 2.171e-2
-1.388, 2.151e-2
-1.387, 2.130e-2
-1.386, 2.109e-2
-1.385, 2.089e-2
-1.384, 2.068e-2
-1.383, 2.048e-2
-1.382, 2.029e-2
-1.381, 2.011e-2
-1.380, 1.993e-2
-1.379, 1.974e-2
-1.378, 1.954e-2
-1.377, 1.932e-2
-1.376, 1.910e-2
-1.375, 1.889e-2
-1.374, 1.870e-2
-1.373, 1.852e-2
-1.372, 1.835e-2
-1.371, 1.817e-2
-1.370, 1.797e-2
-1.369, 1.777e-2
-1.368, 1.757e-2
-1.367, 1.736e-2
-1.366, 1.718e-2
-1.365, 1.701e-2
-1.364, 1.685e-2
-1.363, 1.668e-2
-1.362, 1.649e-2
-1.361, 1.628e-2
-1.360, 1.608e-2
-1.359, 1.589e-2
-1.358, 1.571e-2
-1.357, 1.553e-2
-1.356, 1.537e-2
-1.355, 1.520e-2
-1.354, 1.502e-2
-1.353, 1.483e-2
-1.352, 1.463e-2
-1.351, 1.444e-2
-1.350, 1.425e-2
-1.349, 1.408e-2
-1.348, 1.392e-2
-1.347, 1.377e-2
-1.346, 1.361e-2
-1.345, 1.343e-2
-1.344, 1.325e-2
-1.343, 1.306e-2
-1.342, 1.289e-2
-1.341, 1.272e-2
-1.340, 1.257e-2
-1.339, 1.243e-2
-1.338, 1.228e-2
-1.337, 1.212e-2
-1.336, 1.194e-2
-1.335, 1.176e-2
-1.334, 1.160e-2
-1.333, 1.144e-2
-1.332, 1.129e-2
-1.331, 1.116e-2
-1.330, 1.101e-2
-1.329, 1.086e-2
-1.328, 1.070e-2
-1.327, 1.053e-2
-1.326, 1.036e-2
-1.325, 1.020e-2
-1.324, 1.005e-2
-1.323, 9.912e-3
-1.322, 9.774e-3
-1.321, 9.626e-3
-1.320, 9.471e-3
-1.319, 9.311e-3
-1.318, 9.145e-3
-1.317, 8.987e-3
-1.316, 8.843e-3
-1.315, 8.707e-3
-1.314, 8.577e-3
-1.313, 8.448e-3
-1.312, 8.303e-3
-1.311, 8.146e-3
-1.310, 7.985e-3
-1.309, 7.831e-3
-1.308, 7.689e-3
-1.307, 7.557e-3
-1.306, 7.437e-3
-1.305, 7.313e-3
-1.304, 7.181e-3
-1.303, 7.036e-3
-1.302, 6.888e-3
-1.301, 6.740e-3
-1.300, 6.601e-3
-1.299, 6.472e-3
-1.298, 6.358e-3
-1.297, 6.243e-3
-1.296, 6.120e-3
-1.295, 5.978e-3
-1.294, 5.830e-3
-1.293, 5.679e-3
-1.292, 5.541e-3
-1.291, 5.411e-3
-1.290, 5.297e-3
-1.289, 5.189e-3
-1.288, 5.072e-3
-1.287, 4.945e-3
-1.286, 4.804e-3
-1.285, 4.659e-3
-1.284, 4.520e-3
-1.283, 4.397e-3
-1.282, 4.286e-3
-1.281, 4.184e-3
-1.280, 4.073e-3
-1.279, 3.956e-3
-1.278, 3.826e-3
-1.277, 3.694e-3
-1.276, 3.558e-3
-1.275, 3.435e-3
-1.274, 3.324e-3
-1.273, 3.219e-3
-1.272, 3.120e-3
-1.271, 3.015e-3
-1.270, 2.895e-3
-1.269, 2.766e-3
-1.268, 2.633e-3
-1.267, 2.513e-3
-1.266, 2.402e-3
-1.265, 2.303e-3
-1.264, 2.211e-3
-1.263, 2.112e-3
-1.262, 1.998e-3
-1.261, 1.881e-3
-1.260, 1.751e-3
-1.259, 1.628e-3
-1.258, 1.520e-3
-1.257, 1.421e-3
-1.256, 1.332e-3
-1.255, 1.240e-3
-1.254, 1.138e-3
-1.253, 1.027e-3
-1.252, 9.066e-4
-1.251, 7.863e-4
-1.250, 6.784e-4
-1.249, 5.798e-4
-1.248, 4.935e-4
-1.247, 4.102e-4
-1.246, 3.177e-4
-1.245, 2.160e-4
-1.244, 9.882e-5
-1.243, -1.834e-5
-1.242, -1.263e-4
-1.241, -2.218e-4
-1.240, -3.051e-4
-1.239, -3.821e-4
-1.238, -4.685e-4
-1.237, -5.641e-4
-1.236, -6.720e-4
-1.235, -7.860e-4
-1.234, -8.970e-4
-1.233, -9.895e-4
-1.232, -1.073e-3
-1.231, -1.150e-3
-1.230, -1.227e-3
-1.229, -1.316e-3
-1.228, -1.418e-3
-1.227, -1.523e-3
-1.226, -1.631e-3
-1.225, -1.729e-3
-1.224, -1.813e-3
-1.223, -1.887e-3
-1.222, -1.958e-3
-1.221, -2.035e-3
-1.220, -2.127e-3
-1.219, -2.223e-3
-1.218, -2.331e-3
-1.217, -2.429e-3
-1.216, -2.509e-3
-1.215, -2.580e-3
-1.214, -2.642e-3
-1.213, -2.713e-3
-1.212, -2.796e-3
-1.211, -2.889e-3
-1.210, -2.990e-3
-1.209, -3.086e-3
-1.208, -3.166e-3
-1.207, -3.237e-3
-1.206, -3.299e-3
-1.205, -3.367e-3
-1.204, -3.441e-3
-1.203, -3.527e-3
-1.202, -3.626e-3
-1.201, -3.718e-3
-1.200, -3.801e-3
-1.199, -3.875e-3
-1.198, -3.934e-3
-1.197, -3.999e-3
-1.196, -4.066e-3
-1.195, -4.147e-3
-1.194, -4.242e-3
-1.193, -4.335e-3
-1.192, -4.424e-3
-1.191, -4.498e-3
-1.190, -4.563e-3
-1.189, -4.621e-3
-1.188, -4.683e-3
-1.187, -4.760e-3
-1.186, -4.846e-3
-1.185, -4.942e-3
-1.184, -5.028e-3
-1.183, -5.102e-3
-1.182, -5.164e-3
-1.181, -5.223e-3
-1.180, -5.284e-3
-1.179, -5.355e-3
-1.178, -5.438e-3
-1.177, -5.528e-3
-1.176, -5.614e-3
-1.175, -5.697e-3
-1.174, -5.759e-3
-1.173, -5.821e-3
-1.172, -5.873e-3
-1.171, -5.935e-3
-1.170, -6.009e-3
-1.169, -6.092e-3
-1.168, -6.181e-3
-1.167, -6.259e-3
-1.166, -6.326e-3
-1.165, -6.382e-3
-1.164, -6.434e-3
-1.163, -6.490e-3
-1.162, -6.558e-3
-1.161, -6.638e-3
-1.160, -6.721e-3
-1.159, -6.804e-3
-1.158, -6.875e-3
-1.157, -6.934e-3
-1.156, -6.983e-3
-1.155, -7.036e-3
-1.154, -7.103e-3
-1.153, -7.177e-3
-1.152, -7.261e-3
-1.151, -7.341e-3
-1.150, -7.415e-3
-1.149, -7.476e-3
-1.148, -7.529e-3
-1.147, -7.575e-3
-1.146, -7.627e-3
-1.145, -7.695e-3
-1.144, -7.775e-3
-1.143, -7.859e-3
-1.142, -7.936e-3
-1.141, -7.994e-3
-1.140, -8.044e-3
-1.139, -8.087e-3
-1.138, -8.136e-3
-1.137, -8.198e-3
-1.136, -8.272e-3
-1.135, -8.355e-3
-1.134, -8.432e-3
-1.133, -8.494e-3
-1.132, -8.549e-3
-1.131, -8.596e-3
-1.130, -8.639e-3
-1.129, -8.697e-3
-1.128, -8.771e-3
-1.127, -8.851e-3
-1.126, -8.932e-3
-1.125, -8.999e-3
-1.124, -9.058e-3
-1.123, -9.104e-3
-1.122, -9.151e-3
-1.121, -9.203e-3
-1.120, -9.265e-3
-1.119, -9.342e-3
-1.118, -9.425e-3
-1.117, -9.499e-3
-1.116, -9.557e-3
-1.115, -9.604e-3
-1.114, -9.644e-3
-1.113, -9.696e-3
-1.112, -9.758e-3
-1.111, -9.832e-3
-1.110, -9.906e-3
-1.109, -9.977e-3
-1.108, -1.004e-2
-1.107, -1.010e-2
-1.106, -1.014e-2
-1.105, -1.019e-2
-1.104, -1.025e-2
-1.103, -1.032e-2
-1.102, -1.039e-2
-1.101, -1.047e-2
-1.100, -1.054e-2
-1.099, -1.059e-2
-1.098, -1.064e-2
-1.097, -1.068e-2
-1.096, -1.073e-2
-1.095, -1.080e-2
-1.094, -1.087e-2
-1.093, -1.095e-2
-1.092, -1.103e-2
-1.091, -1.109e-2
-1.090, -1.114e-2
-1.089, -1.118e-2
-1.088, -1.122e-2
-1.087, -1.128e-2
-1.086, -1.135e-2
-1.085, -1.143e-2
-1.084, -1.150e-2
-1.083, -1.156e-2
-1.082, -1.161e-2
-1.081, -1.166e-2
-1.080, -1.170e-2
-1.079, -1.176e-2
-1.078, -1.182e-2
-1.077, -1.190e-2
-1.076, -1.197e-2
-1.075, -1.203e-2
-1.074, -1.208e-2
-1.073, -1.212e-2
-1.072, -1.216e-2
-1.071, -1.221e-2
-1.070, -1.227e-2
-1.069, -1.234e-2
-1.068, -1.241e-2
-1.067, -1.247e-2
-1.066, -1.253e-2
-1.065, -1.258e-2
-1.064, -1.262e-2
-1.063, -1.267e-2
-1.062, -1.272e-2
-1.061, -1.279e-2
-1.060, -1.287e-2
-1.059, -1.294e-2
-1.058, -1.299e-2
-1.057, -1.304e-2
-1.056, -1.308e-2
-1.055, -1.312e-2
-1.054, -1.317e-2
-1.053, -1.324e-2
-1.052, -1.332e-2
-1.051, -1.340e-2
-1.050, -1.347e-2
-1.049, -1.351e-2
-1.048, -1.355e-2
-1.047, -1.358e-2
-1.046, -1.362e-2
-1.045, -1.369e-2
-1.044, -1.376e-2
-1.043, -1.383e-2
-1.042, -1.390e-2
-1.041, -1.395e-2
-1.040, -1.400e-2
-1.039, -1.404e-2
-1.038, -1.409e-2
-1.037, -1.415e-2
-1.036, -1.421e-2
-1.035, -1.428e-2
-1.034, -1.434e-2
-1.033, -1.440e-2
-1.032, -1.444e-2
-1.031, -1.447e-2
-1.030, -1.450e-2
-1.029, -1.454e-2
-1.028, -1.460e-2
-1.027, -1.466e-2
-1.026, -1.472e-2
-1.025, -1.478e-2
-1.024, -1.483e-2
-1.023, -1.487e-2
-1.022, -1.490e-2
-1.021, -1.494e-2
-1.020, -1.499e-2
-1.019, -1.506e-2
-1.018, -1.513e-2
-1.017, -1.519e-2
-1.016, -1.524e-2
-1.015, -1.527e-2
-1.014, -1.530e-2
-1.013, -1.534e-2
-1.012, -1.538e-2
-1.011, -1.544e-2
-1.010, -1.551e-2
-1.009, -1.558e-2
-1.008, -1.563e-2
-1.007, -1.567e-2
-1.006, -1.572e-2
-1.005, -1.576e-2
-1.004, -1.581e-2
-1.003, -1.587e-2
-1.002, -1.594e-2
-1.001, -1.602e-2
