Jan. 11, 2025   19:26:16
Cyclic Voltammetry
File: c:/users/guazh/data/banditlqround7_x0exp772_r5/2025-01-10-exp816\exp816-2025-01-11t19_18_04-h2koh\exp816_cv_sr_700mvs_efin_-1400mv.bin
Data Source:  Experiment
Instrument Model:  CHI760E
Header: CV ran at 700 mVs
Note: 

Init E (V) = -1
High E (V) = -1
Low E (V) = -1.4
Final E (V) = -1
Init P/N = N
Scan Rate (V/s) = 0.7
Segment = 3
Sample Interval (V) = 0.001
Quiet Time (sec) = 2
Sensitivity (A/V) = 0.01
Comp R (ohm) = 1.3

Results:

Channel 1:
Segment 1:

Segment 2:

Segment 3:

Potential/V, Current/A

-1.000, -8.909e-4
-1.001, -7.336e-4
-1.002, -5.856e-4
-1.003, -4.500e-4
-1.004, -3.205e-4
-1.005, -2.033e-4
-1.006, -8.925e-5
-1.007, 2.482e-5
-1.008, 1.358e-4
-1.009, 2.530e-4
-1.010, 3.701e-4
-1.011, 4.965e-4
-1.012, 6.229e-4
-1.013, 7.401e-4
-1.014, 8.573e-4
-1.015, 9.652e-4
-1.016, 1.064e-3
-1.017, 1.159e-3
-1.018, 1.243e-3
-1.019, 1.341e-3
-1.020, 1.431e-3
-1.021, 1.529e-3
-1.022, 1.631e-3
-1.023, 1.739e-3
-1.024, 1.850e-3
-1.025, 1.949e-3
-1.026, 2.050e-3
-1.027, 2.137e-3
-1.028, 2.220e-3
-1.029, 2.297e-3
-1.030, 2.371e-3
-1.031, 2.454e-3
-1.032, 2.531e-3
-1.033, 2.621e-3
-1.034, 2.713e-3
-1.035, 2.806e-3
-1.036, 2.901e-3
-1.037, 2.991e-3
-1.038, 3.074e-3
-1.039, 3.151e-3
-1.040, 3.222e-3
-1.041, 3.290e-3
-1.042, 3.355e-3
-1.043, 3.422e-3
-1.044, 3.503e-3
-1.045, 3.580e-3
-1.046, 3.666e-3
-1.047, 3.749e-3
-1.048, 3.836e-3
-1.049, 3.919e-3
-1.050, 3.990e-3
-1.051, 4.054e-3
-1.052, 4.116e-3
-1.053, 4.175e-3
-1.054, 4.236e-3
-1.055, 4.301e-3
-1.056, 4.372e-3
-1.057, 4.446e-3
-1.058, 4.529e-3
-1.059, 4.612e-3
-1.060, 4.690e-3
-1.061, 4.764e-3
-1.062, 4.828e-3
-1.063, 4.890e-3
-1.064, 4.945e-3
-1.065, 4.998e-3
-1.066, 5.056e-3
-1.067, 5.118e-3
-1.068, 5.186e-3
-1.069, 5.257e-3
-1.070, 5.334e-3
-1.071, 5.414e-3
-1.072, 5.485e-3
-1.073, 5.553e-3
-1.074, 5.614e-3
-1.075, 5.670e-3
-1.076, 5.722e-3
-1.077, 5.772e-3
-1.078, 5.827e-3
-1.079, 5.892e-3
-1.080, 5.957e-3
-1.081, 6.034e-3
-1.082, 6.108e-3
-1.083, 6.176e-3
-1.084, 6.250e-3
-1.085, 6.311e-3
-1.086, 6.370e-3
-1.087, 6.422e-3
-1.088, 6.472e-3
-1.089, 6.527e-3
-1.090, 6.580e-3
-1.091, 6.644e-3
-1.092, 6.715e-3
-1.093, 6.786e-3
-1.094, 6.863e-3
-1.095, 6.934e-3
-1.096, 7.005e-3
-1.097, 7.064e-3
-1.098, 7.116e-3
-1.099, 7.175e-3
-1.100, 7.224e-3
-1.101, 7.276e-3
-1.102, 7.335e-3
-1.103, 7.400e-3
-1.104, 7.474e-3
-1.105, 7.545e-3
-1.106, 7.622e-3
-1.107, 7.696e-3
-1.108, 7.757e-3
-1.109, 7.816e-3
-1.110, 7.874e-3
-1.111, 7.930e-3
-1.112, 7.979e-3
-1.113, 8.035e-3
-1.114, 8.103e-3
-1.115, 8.164e-3
-1.116, 8.241e-3
-1.117, 8.318e-3
-1.118, 8.389e-3
-1.119, 8.460e-3
-1.120, 8.522e-3
-1.121, 8.584e-3
-1.122, 8.636e-3
-1.123, 8.682e-3
-1.124, 8.738e-3
-1.125, 8.796e-3
-1.126, 8.870e-3
-1.127, 8.938e-3
-1.128, 9.009e-3
-1.129, 9.092e-3
-1.130, 9.166e-3
-1.131, 9.243e-3
-1.132, 9.308e-3
-1.133, 9.370e-3
-1.134, 9.422e-3
-1.135, 9.471e-3
-1.136, 9.527e-3
-1.137, 9.582e-3
-1.138, 9.650e-3
-1.139, 9.718e-3
-1.140, 9.798e-3
-1.141, 9.878e-3
-1.142, 9.956e-3
-1.143, 1.002e-2
-1.144, 1.009e-2
-1.145, 1.015e-2
-1.146, 1.020e-2
-1.147, 1.025e-2
-1.148, 1.031e-2
-1.149, 1.037e-2
-1.150, 1.044e-2
-1.151, 1.052e-2
-1.152, 1.060e-2
-1.153, 1.067e-2
-1.154, 1.074e-2
-1.155, 1.081e-2
-1.156, 1.087e-2
-1.157, 1.092e-2
-1.158, 1.098e-2
-1.159, 1.103e-2
-1.160, 1.109e-2
-1.161, 1.116e-2
-1.162, 1.124e-2
-1.163, 1.132e-2
-1.164, 1.140e-2
-1.165, 1.147e-2
-1.166, 1.155e-2
-1.167, 1.161e-2
-1.168, 1.167e-2
-1.169, 1.173e-2
-1.170, 1.178e-2
-1.171, 1.184e-2
-1.172, 1.190e-2
-1.173, 1.197e-2
-1.174, 1.205e-2
-1.175, 1.213e-2
-1.176, 1.221e-2
-1.177, 1.228e-2
-1.178, 1.235e-2
-1.179, 1.242e-2
-1.180, 1.248e-2
-1.181, 1.253e-2
-1.182, 1.259e-2
-1.183, 1.264e-2
-1.184, 1.271e-2
-1.185, 1.278e-2
-1.186, 1.286e-2
-1.187, 1.294e-2
-1.188, 1.302e-2
-1.189, 1.309e-2
-1.190, 1.316e-2
-1.191, 1.322e-2
-1.192, 1.328e-2
-1.193, 1.333e-2
-1.194, 1.340e-2
-1.195, 1.346e-2
-1.196, 1.353e-2
-1.197, 1.360e-2
-1.198, 1.368e-2
-1.199, 1.376e-2
-1.200, 1.383e-2
-1.201, 1.391e-2
-1.202, 1.398e-2
-1.203, 1.404e-2
-1.204, 1.410e-2
-1.205, 1.415e-2
-1.206, 1.422e-2
-1.207, 1.429e-2
-1.208, 1.436e-2
-1.209, 1.444e-2
-1.210, 1.452e-2
-1.211, 1.460e-2
-1.212, 1.468e-2
-1.213, 1.474e-2
-1.214, 1.481e-2
-1.215, 1.487e-2
-1.216, 1.493e-2
-1.217, 1.498e-2
-1.218, 1.503e-2
-1.219, 1.510e-2
-1.220, 1.517e-2
-1.221, 1.525e-2
-1.222, 1.532e-2
-1.223, 1.540e-2
-1.224, 1.549e-2
-1.225, 1.556e-2
-1.226, 1.562e-2
-1.227, 1.567e-2
-1.228, 1.572e-2
-1.229, 1.578e-2
-1.230, 1.584e-2
-1.231, 1.591e-2
-1.232, 1.598e-2
-1.233, 1.606e-2
-1.234, 1.614e-2
-1.235, 1.622e-2
-1.236, 1.629e-2
-1.237, 1.636e-2
-1.238, 1.642e-2
-1.239, 1.648e-2
-1.240, 1.654e-2
-1.241, 1.661e-2
-1.242, 1.667e-2
-1.243, 1.674e-2
-1.244, 1.682e-2
-1.245, 1.690e-2
-1.246, 1.700e-2
-1.247, 1.708e-2
-1.248, 1.715e-2
-1.249, 1.722e-2
-1.250, 1.728e-2
-1.251, 1.733e-2
-1.252, 1.739e-2
-1.253, 1.744e-2
-1.254, 1.751e-2
-1.255, 1.758e-2
-1.256, 1.766e-2
-1.257, 1.774e-2
-1.258, 1.782e-2
-1.259, 1.790e-2
-1.260, 1.797e-2
-1.261, 1.804e-2
-1.262, 1.811e-2
-1.263, 1.817e-2
-1.264, 1.823e-2
-1.265, 1.830e-2
-1.266, 1.837e-2
-1.267, 1.844e-2
-1.268, 1.852e-2
-1.269, 1.861e-2
-1.270, 1.869e-2
-1.271, 1.877e-2
-1.272, 1.884e-2
-1.273, 1.891e-2
-1.274, 1.897e-2
-1.275, 1.902e-2
-1.276, 1.908e-2
-1.277, 1.914e-2
-1.278, 1.921e-2
-1.279, 1.928e-2
-1.280, 1.935e-2
-1.281, 1.943e-2
-1.282, 1.950e-2
-1.283, 1.957e-2
-1.284, 1.963e-2
-1.285, 1.969e-2
-1.286, 1.975e-2
-1.287, 1.980e-2
-1.288, 1.986e-2
-1.289, 1.992e-2
-1.290, 1.998e-2
-1.291, 2.006e-2
-1.292, 2.014e-2
-1.293, 2.021e-2
-1.294, 2.029e-2
-1.295, 2.036e-2
-1.296, 2.042e-2
-1.297, 2.048e-2
-1.298, 2.053e-2
-1.299, 2.059e-2
-1.300, 2.064e-2
-1.301, 2.071e-2
-1.302, 2.078e-2
-1.303, 2.086e-2
-1.304, 2.093e-2
-1.305, 2.101e-2
-1.306, 2.108e-2
-1.307, 2.113e-2
-1.308, 2.119e-2
-1.309, 2.124e-2
-1.310, 2.129e-2
-1.311, 2.135e-2
-1.312, 2.141e-2
-1.313, 2.147e-2
-1.314, 2.154e-2
-1.315, 2.162e-2
-1.316, 2.170e-2
-1.317, 2.177e-2
-1.318, 2.183e-2
-1.319, 2.189e-2
-1.320, 2.195e-2
-1.321, 2.202e-2
-1.322, 2.208e-2
-1.323, 2.213e-2
-1.324, 2.222e-2
-1.325, 2.228e-2
-1.326, 2.233e-2
-1.327, 2.239e-2
-1.328, 2.248e-2
-1.329, 2.257e-2
-1.330, 2.264e-2
-1.331, 2.270e-2
-1.332, 2.277e-2
-1.333, 2.283e-2
-1.334, 2.289e-2
-1.335, 2.294e-2
-1.336, 2.302e-2
-1.337, 2.309e-2
-1.338, 2.316e-2
-1.339, 2.323e-2
-1.340, 2.330e-2
-1.341, 2.337e-2
-1.342, 2.343e-2
-1.343, 2.349e-2
-1.344, 2.354e-2
-1.345, 2.359e-2
-1.346, 2.364e-2
-1.347, 2.368e-2
-1.348, 2.375e-2
-1.349, 2.383e-2
-1.350, 2.391e-2
-1.351, 2.398e-2
-1.352, 2.405e-2
-1.353, 2.412e-2
-1.354, 2.418e-2
-1.355, 2.423e-2
-1.356, 2.429e-2
-1.357, 2.434e-2
-1.358, 2.439e-2
-1.359, 2.445e-2
-1.360, 2.452e-2
-1.361, 2.459e-2
-1.362, 2.466e-2
-1.363, 2.473e-2
-1.364, 2.480e-2
-1.365, 2.485e-2
-1.366, 2.491e-2
-1.367, 2.496e-2
-1.368, 2.501e-2
-1.369, 2.507e-2
-1.370, 2.512e-2
-1.371, 2.519e-2
-1.372, 2.525e-2
-1.373, 2.533e-2
-1.374, 2.540e-2
-1.375, 2.548e-2
-1.376, 2.555e-2
-1.377, 2.561e-2
-1.378, 2.567e-2
-1.379, 2.572e-2
-1.380, 2.577e-2
-1.381, 2.583e-2
-1.382, 2.589e-2
-1.383, 2.596e-2
-1.384, 2.603e-2
-1.385, 2.611e-2
-1.386, 2.619e-2
-1.387, 2.627e-2
-1.388, 2.634e-2
-1.389, 2.641e-2
-1.390, 2.648e-2
-1.391, 2.654e-2
-1.392, 2.660e-2
-1.393, 2.667e-2
-1.394, 2.673e-2
-1.395, 2.679e-2
-1.396, 2.686e-2
-1.397, 2.693e-2
-1.398, 2.701e-2
-1.399, 2.708e-2
-1.400, 2.704e-2
-1.399, 2.680e-2
-1.398, 2.656e-2
-1.397, 2.632e-2
-1.396, 2.609e-2
-1.395, 2.586e-2
-1.394, 2.564e-2
-1.393, 2.543e-2
-1.392, 2.522e-2
-1.391, 2.502e-2
-1.390, 2.483e-2
-1.389, 2.463e-2
-1.388, 2.442e-2
-1.387, 2.421e-2
-1.386, 2.400e-2
-1.385, 2.379e-2
-1.384, 2.358e-2
-1.383, 2.336e-2
-1.382, 2.315e-2
-1.381, 2.293e-2
-1.380, 2.272e-2
-1.379, 2.253e-2
-1.378, 2.234e-2
-1.377, 2.216e-2
-1.376, 2.197e-2
-1.375, 2.178e-2
-1.374, 2.158e-2
-1.373, 2.137e-2
-1.372, 2.117e-2
-1.371, 2.097e-2
-1.370, 2.079e-2
-1.369, 2.060e-2
-1.368, 2.043e-2
-1.367, 2.025e-2
-1.366, 2.007e-2
-1.365, 1.988e-2
-1.364, 1.970e-2
-1.363, 1.951e-2
-1.362, 1.932e-2
-1.361, 1.912e-2
-1.360, 1.893e-2
-1.359, 1.876e-2
-1.358, 1.859e-2
-1.357, 1.843e-2
-1.356, 1.828e-2
-1.355, 1.810e-2
-1.354, 1.793e-2
-1.353, 1.774e-2
-1.352, 1.756e-2
-1.351, 1.737e-2
-1.350, 1.719e-2
-1.349, 1.701e-2
-1.348, 1.684e-2
-1.347, 1.667e-2
-1.346, 1.651e-2
-1.345, 1.635e-2
-1.344, 1.620e-2
-1.343, 1.604e-2
-1.342, 1.588e-2
-1.341, 1.571e-2
-1.340, 1.554e-2
-1.339, 1.536e-2
-1.338, 1.517e-2
-1.337, 1.499e-2
-1.336, 1.482e-2
-1.335, 1.465e-2
-1.334, 1.449e-2
-1.333, 1.434e-2
-1.332, 1.418e-2
-1.331, 1.402e-2
-1.330, 1.386e-2
-1.329, 1.369e-2
-1.328, 1.351e-2
-1.327, 1.333e-2
-1.326, 1.317e-2
-1.325, 1.299e-2
-1.324, 1.284e-2
-1.323, 1.268e-2
-1.322, 1.253e-2
-1.321, 1.238e-2
-1.320, 1.223e-2
-1.319, 1.209e-2
-1.318, 1.193e-2
-1.317, 1.177e-2
-1.316, 1.160e-2
-1.315, 1.143e-2
-1.314, 1.127e-2
-1.313, 1.111e-2
-1.312, 1.095e-2
-1.311, 1.080e-2
-1.310, 1.066e-2
-1.309, 1.052e-2
-1.308, 1.037e-2
-1.307, 1.024e-2
-1.306, 1.009e-2
-1.305, 9.952e-3
-1.304, 9.808e-3
-1.303, 9.647e-3
-1.302, 9.484e-3
-1.301, 9.330e-3
-1.300, 9.188e-3
-1.299, 9.052e-3
-1.298, 8.920e-3
-1.297, 8.793e-3
-1.296, 8.664e-3
-1.295, 8.522e-3
-1.294, 8.380e-3
-1.293, 8.232e-3
-1.292, 8.078e-3
-1.291, 7.927e-3
-1.290, 7.779e-3
-1.289, 7.640e-3
-1.288, 7.504e-3
-1.287, 7.375e-3
-1.286, 7.252e-3
-1.285, 7.122e-3
-1.284, 6.993e-3
-1.283, 6.854e-3
-1.282, 6.712e-3
-1.281, 6.567e-3
-1.280, 6.419e-3
-1.279, 6.274e-3
-1.278, 6.136e-3
-1.277, 6.000e-3
-1.276, 5.870e-3
-1.275, 5.750e-3
-1.274, 5.630e-3
-1.273, 5.500e-3
-1.272, 5.377e-3
-1.271, 5.241e-3
-1.270, 5.103e-3
-1.269, 4.964e-3
-1.268, 4.819e-3
-1.267, 4.683e-3
-1.266, 4.551e-3
-1.265, 4.424e-3
-1.264, 4.307e-3
-1.263, 4.193e-3
-1.262, 4.082e-3
-1.261, 3.965e-3
-1.260, 3.845e-3
-1.259, 3.718e-3
-1.258, 3.583e-3
-1.257, 3.447e-3
-1.256, 3.314e-3
-1.255, 3.182e-3
-1.254, 3.062e-3
-1.253, 2.951e-3
-1.252, 2.837e-3
-1.251, 2.735e-3
-1.250, 2.624e-3
-1.249, 2.516e-3
-1.248, 2.396e-3
-1.247, 2.272e-3
-1.246, 2.149e-3
-1.245, 2.020e-3
-1.244, 1.893e-3
-1.243, 1.770e-3
-1.242, 1.659e-3
-1.241, 1.548e-3
-1.240, 1.446e-3
-1.239, 1.351e-3
-1.238, 1.246e-3
-1.237, 1.141e-3
-1.236, 1.024e-3
-1.235, 9.066e-4
-1.234, 7.833e-4
-1.233, 6.569e-4
-1.232, 5.428e-4
-1.231, 4.287e-4
-1.230, 3.239e-4
-1.229, 2.191e-4
-1.228, 1.204e-4
-1.227, 2.790e-5
-1.226, -7.076e-5
-1.225, -1.787e-4
-1.224, -2.835e-4
-1.223, -4.006e-4
-1.222, -5.178e-4
-1.221, -6.350e-4
-1.220, -7.521e-4
-1.219, -8.569e-4
-1.218, -9.556e-4
-1.217, -1.048e-3
-1.216, -1.138e-3
-1.215, -1.233e-3
-1.214, -1.326e-3
-1.213, -1.427e-3
-1.212, -1.535e-3
-1.211, -1.646e-3
-1.210, -1.760e-3
-1.209, -1.862e-3
-1.208, -1.970e-3
-1.207, -2.069e-3
-1.206, -2.158e-3
-1.205, -2.244e-3
-1.204, -2.325e-3
-1.203, -2.414e-3
-1.202, -2.503e-3
-1.201, -2.602e-3
-1.200, -2.704e-3
-1.199, -2.809e-3
-1.198, -2.920e-3
-1.197, -3.018e-3
-1.196, -3.117e-3
-1.195, -3.206e-3
-1.194, -3.286e-3
-1.193, -3.370e-3
-1.192, -3.447e-3
-1.191, -3.530e-3
-1.190, -3.619e-3
-1.189, -3.712e-3
-1.188, -3.814e-3
-1.187, -3.915e-3
-1.186, -4.017e-3
-1.185, -4.119e-3
-1.184, -4.208e-3
-1.183, -4.292e-3
-1.182, -4.372e-3
-1.181, -4.446e-3
-1.180, -4.523e-3
-1.179, -4.597e-3
-1.178, -4.686e-3
-1.177, -4.779e-3
-1.176, -4.871e-3
-1.175, -4.976e-3
-1.174, -5.075e-3
-1.173, -5.167e-3
-1.172, -5.253e-3
-1.171, -5.331e-3
-1.170, -5.405e-3
-1.169, -5.472e-3
-1.168, -5.546e-3
-1.167, -5.623e-3
-1.166, -5.710e-3
-1.165, -5.796e-3
-1.164, -5.889e-3
-1.163, -5.984e-3
-1.162, -6.070e-3
-1.161, -6.157e-3
-1.160, -6.237e-3
-1.159, -6.314e-3
-1.158, -6.388e-3
-1.157, -6.459e-3
-1.156, -6.530e-3
-1.155, -6.604e-3
-1.154, -6.681e-3
-1.153, -6.764e-3
-1.152, -6.854e-3
-1.151, -6.943e-3
-1.150, -7.032e-3
-1.149, -7.116e-3
-1.148, -7.190e-3
-1.147, -7.257e-3
-1.146, -7.322e-3
-1.145, -7.390e-3
-1.144, -7.455e-3
-1.143, -7.532e-3
-1.142, -7.615e-3
-1.141, -7.701e-3
-1.140, -7.797e-3
-1.139, -7.880e-3
-1.138, -7.970e-3
-1.137, -8.044e-3
-1.136, -8.112e-3
-1.135, -8.176e-3
-1.134, -8.235e-3
-1.133, -8.303e-3
-1.132, -8.370e-3
-1.131, -8.448e-3
-1.130, -8.531e-3
-1.129, -8.617e-3
-1.128, -8.703e-3
-1.127, -8.787e-3
-1.126, -8.864e-3
-1.125, -8.935e-3
-1.124, -8.999e-3
-1.123, -9.058e-3
-1.122, -9.117e-3
-1.121, -9.175e-3
-1.120, -9.246e-3
-1.119, -9.323e-3
-1.118, -9.406e-3
-1.117, -9.487e-3
-1.116, -9.573e-3
-1.115, -9.650e-3
-1.114, -9.718e-3
-1.113, -9.789e-3
-1.112, -9.847e-3
-1.111, -9.906e-3
-1.110, -9.968e-3
-1.109, -1.003e-2
-1.108, -1.010e-2
-1.107, -1.017e-2
-1.106, -1.025e-2
-1.105, -1.034e-2
-1.104, -1.042e-2
-1.103, -1.050e-2
-1.102, -1.057e-2
-1.101, -1.063e-2
-1.100, -1.069e-2
-1.099, -1.074e-2
-1.098, -1.080e-2
-1.097, -1.086e-2
-1.096, -1.093e-2
-1.095, -1.101e-2
-1.094, -1.109e-2
-1.093, -1.117e-2
-1.092, -1.125e-2
-1.091, -1.132e-2
-1.090, -1.138e-2
-1.089, -1.144e-2
-1.088, -1.149e-2
-1.087, -1.155e-2
-1.086, -1.161e-2
-1.085, -1.167e-2
-1.084, -1.174e-2
-1.083, -1.182e-2
-1.082, -1.190e-2
-1.081, -1.197e-2
-1.080, -1.205e-2
-1.079, -1.211e-2
-1.078, -1.218e-2
-1.077, -1.222e-2
-1.076, -1.228e-2
-1.075, -1.234e-2
-1.074, -1.239e-2
-1.073, -1.246e-2
-1.072, -1.253e-2
-1.071, -1.260e-2
-1.070, -1.268e-2
-1.069, -1.275e-2
-1.068, -1.283e-2
-1.067, -1.289e-2
-1.066, -1.295e-2
-1.065, -1.300e-2
-1.064, -1.305e-2
-1.063, -1.311e-2
-1.062, -1.316e-2
-1.061, -1.323e-2
-1.060, -1.330e-2
-1.059, -1.337e-2
-1.058, -1.346e-2
-1.057, -1.353e-2
-1.056, -1.360e-2
-1.055, -1.366e-2
-1.054, -1.371e-2
-1.053, -1.376e-2
-1.052, -1.382e-2
-1.051, -1.389e-2
-1.050, -1.397e-2
-1.049, -1.404e-2
-1.048, -1.410e-2
-1.047, -1.417e-2
-1.046, -1.425e-2
-1.045, -1.432e-2
-1.044, -1.438e-2
-1.043, -1.445e-2
-1.042, -1.451e-2
-1.041, -1.455e-2
-1.040, -1.460e-2
-1.039, -1.465e-2
-1.038, -1.471e-2
-1.037, -1.477e-2
-1.036, -1.485e-2
-1.035, -1.493e-2
-1.034, -1.500e-2
-1.033, -1.506e-2
-1.032, -1.512e-2
-1.031, -1.517e-2
-1.030, -1.522e-2
-1.029, -1.526e-2
-1.028, -1.532e-2
-1.027, -1.537e-2
-1.026, -1.542e-2
-1.025, -1.549e-2
-1.024, -1.556e-2
-1.023, -1.563e-2
-1.022, -1.569e-2
-1.021, -1.575e-2
-1.020, -1.580e-2
-1.019, -1.584e-2
-1.018, -1.589e-2
-1.017, -1.593e-2
-1.016, -1.598e-2
-1.015, -1.604e-2
-1.014, -1.609e-2
-1.013, -1.616e-2
-1.012, -1.623e-2
-1.011, -1.629e-2
-1.010, -1.636e-2
-1.009, -1.642e-2
-1.008, -1.647e-2
-1.007, -1.652e-2
-1.006, -1.657e-2
-1.005, -1.662e-2
-1.004, -1.666e-2
-1.003, -1.672e-2
-1.002, -1.679e-2
-1.001, -1.685e-2
