Jan. 11, 2025   19:24:03
Cyclic Voltammetry
File: c:/users/guazh/data/banditlqround7_x0exp772_r5/2025-01-10-exp816\exp816-2025-01-11t19_18_04-h2koh\exp816_cv_sr_100mvs_efin_-1400mv.bin
Data Source:  Experiment
Instrument Model:  CHI760E
Header: CV ran at 100 mVs
Note: 

Init E (V) = -1
High E (V) = -1
Low E (V) = -1.4
Final E (V) = -1
Init P/N = N
Scan Rate (V/s) = 0.1
Segment = 3
Sample Interval (V) = 0.001
Quiet Time (sec) = 2
Sensitivity (A/V) = 0.01
Comp R (ohm) = 1.3

Results:

Channel 1:
Segment 1:

Segment 2:

Segment 3:

Potential/V, Current/A

-1.000, -9.083e-4
-1.001, -7.585e-4
-1.002, -6.633e-4
-1.003, -5.337e-4
-1.004, -4.464e-4
-1.005, -3.590e-4
-1.006, -2.584e-4
-1.007, -2.033e-4
-1.008, -1.075e-4
-1.009, -4.900e-5
-1.010, 1.532e-5
-1.011, 9.484e-5
-1.012, 1.315e-4
-1.013, 2.102e-4
-1.014, 2.532e-4
-1.015, 3.042e-4
-1.016, 3.718e-4
-1.017, 3.976e-4
-1.018, 4.676e-4
-1.019, 5.022e-4
-1.020, 5.457e-4
-1.021, 6.051e-4
-1.022, 6.249e-4
-1.023, 6.891e-4
-1.024, 7.179e-4
-1.025, 7.541e-4
-1.026, 8.082e-4
-1.027, 8.208e-4
-1.028, 8.796e-4
-1.029, 9.027e-4
-1.030, 9.344e-4
-1.031, 9.838e-4
-1.032, 9.926e-4
-1.033, 1.048e-3
-1.034, 1.067e-3
-1.035, 1.095e-3
-1.036, 1.142e-3
-1.037, 1.148e-3
-1.038, 1.201e-3
-1.039, 1.218e-3
-1.040, 1.245e-3
-1.041, 1.290e-3
-1.042, 1.294e-3
-1.043, 1.346e-3
-1.044, 1.363e-3
-1.045, 1.387e-3
-1.046, 1.430e-3
-1.047, 1.434e-3
-1.048, 1.483e-3
-1.049, 1.497e-3
-1.050, 1.521e-3
-1.051, 1.562e-3
-1.052, 1.566e-3
-1.053, 1.614e-3
-1.054, 1.628e-3
-1.055, 1.652e-3
-1.056, 1.695e-3
-1.057, 1.697e-3
-1.058, 1.745e-3
-1.059, 1.758e-3
-1.060, 1.783e-3
-1.061, 1.824e-3
-1.062, 1.825e-3
-1.063, 1.874e-3
-1.064, 1.883e-3
-1.065, 1.908e-3
-1.066, 1.950e-3
-1.067, 1.957e-3
-1.068, 2.007e-3
-1.069, 2.017e-3
-1.070, 2.040e-3
-1.071, 2.080e-3
-1.072, 2.080e-3
-1.073, 2.128e-3
-1.074, 2.141e-3
-1.075, 2.166e-3
-1.076, 2.207e-3
-1.077, 2.207e-3
-1.078, 2.255e-3
-1.079, 2.269e-3
-1.080, 2.292e-3
-1.081, 2.332e-3
-1.082, 2.336e-3
-1.083, 2.385e-3
-1.084, 2.396e-3
-1.085, 2.419e-3
-1.086, 2.459e-3
-1.087, 2.461e-3
-1.088, 2.511e-3
-1.089, 2.526e-3
-1.090, 2.551e-3
-1.091, 2.592e-3
-1.092, 2.594e-3
-1.093, 2.642e-3
-1.094, 2.656e-3
-1.095, 2.681e-3
-1.096, 2.723e-3
-1.097, 2.728e-3
-1.098, 2.775e-3
-1.099, 2.782e-3
-1.100, 2.801e-3
-1.101, 2.842e-3
-1.102, 2.848e-3
-1.103, 2.902e-3
-1.104, 2.909e-3
-1.105, 2.937e-3
-1.106, 2.979e-3
-1.107, 2.985e-3
-1.108, 3.035e-3
-1.109, 3.046e-3
-1.110, 3.066e-3
-1.111, 3.103e-3
-1.112, 3.106e-3
-1.113, 3.157e-3
-1.114, 3.171e-3
-1.115, 3.192e-3
-1.116, 3.241e-3
-1.117, 3.254e-3
-1.118, 3.300e-3
-1.119, 3.306e-3
-1.120, 3.324e-3
-1.121, 3.360e-3
-1.122, 3.360e-3
-1.123, 3.409e-3
-1.124, 3.422e-3
-1.125, 3.454e-3
-1.126, 3.502e-3
-1.127, 3.503e-3
-1.128, 3.550e-3
-1.129, 3.566e-3
-1.130, 3.593e-3
-1.131, 3.640e-3
-1.132, 3.642e-3
-1.133, 3.692e-3
-1.134, 3.704e-3
-1.135, 3.733e-3
-1.136, 3.774e-3
-1.137, 3.778e-3
-1.138, 3.831e-3
-1.139, 3.844e-3
-1.140, 3.871e-3
-1.141, 3.911e-3
-1.142, 3.914e-3
-1.143, 3.964e-3
-1.144, 3.975e-3
-1.145, 4.003e-3
-1.146, 4.048e-3
-1.147, 4.056e-3
-1.148, 4.109e-3
-1.149, 4.124e-3
-1.150, 4.157e-3
-1.151, 4.202e-3
-1.152, 4.206e-3
-1.153, 4.258e-3
-1.154, 4.271e-3
-1.155, 4.299e-3
-1.156, 4.342e-3
-1.157, 4.354e-3
-1.158, 4.407e-3
-1.159, 4.417e-3
-1.160, 4.443e-3
-1.161, 4.487e-3
-1.162, 4.495e-3
-1.163, 4.551e-3
-1.164, 4.569e-3
-1.165, 4.599e-3
-1.166, 4.644e-3
-1.167, 4.650e-3
-1.168, 4.704e-3
-1.169, 4.721e-3
-1.170, 4.754e-3
-1.171, 4.803e-3
-1.172, 4.817e-3
-1.173, 4.874e-3
-1.174, 4.892e-3
-1.175, 4.924e-3
-1.176, 4.962e-3
-1.177, 4.968e-3
-1.178, 5.026e-3
-1.179, 5.048e-3
-1.180, 5.081e-3
-1.181, 5.126e-3
-1.182, 5.135e-3
-1.183, 5.194e-3
-1.184, 5.217e-3
-1.185, 5.252e-3
-1.186, 5.308e-3
-1.187, 5.320e-3
-1.188, 5.385e-3
-1.189, 5.404e-3
-1.190, 5.432e-3
-1.191, 5.483e-3
-1.192, 5.500e-3
-1.193, 5.557e-3
-1.194, 5.573e-3
-1.195, 5.605e-3
-1.196, 5.646e-3
-1.197, 5.657e-3
-1.198, 5.718e-3
-1.199, 5.739e-3
-1.200, 5.776e-3
-1.201, 5.833e-3
-1.202, 5.851e-3
-1.203, 5.916e-3
-1.204, 5.937e-3
-1.205, 5.974e-3
-1.206, 6.025e-3
-1.207, 6.041e-3
-1.208, 6.103e-3
-1.209, 6.119e-3
-1.210, 6.151e-3
-1.211, 6.204e-3
-1.212, 6.218e-3
-1.213, 6.278e-3
-1.214, 6.292e-3
-1.215, 6.329e-3
-1.216, 6.387e-3
-1.217, 6.409e-3
-1.218, 6.469e-3
-1.219, 6.484e-3
-1.220, 6.525e-3
-1.221, 6.583e-3
-1.222, 6.605e-3
-1.223, 6.667e-3
-1.224, 6.677e-3
-1.225, 6.725e-3
-1.226, 6.780e-3
-1.227, 6.791e-3
-1.228, 6.846e-3
-1.229, 6.866e-3
-1.230, 6.908e-3
-1.231, 6.960e-3
-1.232, 6.975e-3
-1.233, 7.040e-3
-1.234, 7.066e-3
-1.235, 7.107e-3
-1.236, 7.157e-3
-1.237, 7.169e-3
-1.238, 7.227e-3
-1.239, 7.246e-3
-1.240, 7.285e-3
-1.241, 7.339e-3
-1.242, 7.354e-3
-1.243, 7.411e-3
-1.244, 7.432e-3
-1.245, 7.472e-3
-1.246, 7.521e-3
-1.247, 7.539e-3
-1.248, 7.605e-3
-1.249, 7.619e-3
-1.250, 7.646e-3
-1.251, 7.703e-3
-1.252, 7.734e-3
-1.253, 7.796e-3
-1.254, 7.808e-3
-1.255, 7.835e-3
-1.256, 7.878e-3
-1.257, 7.884e-3
-1.258, 7.941e-3
-1.259, 7.958e-3
-1.260, 7.999e-3
-1.261, 8.047e-3
-1.262, 8.060e-3
-1.263, 8.132e-3
-1.264, 8.160e-3
-1.265, 8.202e-3
-1.266, 8.241e-3
-1.267, 8.242e-3
-1.268, 8.301e-3
-1.269, 8.326e-3
-1.270, 8.362e-3
-1.271, 8.397e-3
-1.272, 8.396e-3
-1.273, 8.453e-3
-1.274, 8.475e-3
-1.275, 8.506e-3
-1.276, 8.544e-3
-1.277, 8.547e-3
-1.278, 8.605e-3
-1.279, 8.627e-3
-1.280, 8.658e-3
-1.281, 8.702e-3
-1.282, 8.715e-3
-1.283, 8.786e-3
-1.284, 8.788e-3
-1.285, 8.812e-3
-1.286, 8.842e-3
-1.287, 8.851e-3
-1.288, 8.909e-3
-1.289, 8.929e-3
-1.290, 8.961e-3
-1.291, 8.998e-3
-1.292, 9.000e-3
-1.293, 9.051e-3
-1.294, 9.053e-3
-1.295, 9.079e-3
-1.296, 9.126e-3
-1.297, 9.139e-3
-1.298, 9.195e-3
-1.299, 9.204e-3
-1.300, 9.225e-3
-1.301, 9.265e-3
-1.302, 9.264e-3
-1.303, 9.319e-3
-1.304, 9.311e-3
-1.305, 9.316e-3
-1.306, 9.341e-3
-1.307, 9.342e-3
-1.308, 9.384e-3
-1.309, 9.379e-3
-1.310, 9.405e-3
-1.311, 9.451e-3
-1.312, 9.460e-3
-1.313, 9.512e-3
-1.314, 9.505e-3
-1.315, 9.521e-3
-1.316, 9.552e-3
-1.317, 9.544e-3
-1.318, 9.595e-3
-1.319, 9.598e-3
-1.320, 9.609e-3
-1.321, 9.621e-3
-1.322, 9.639e-3
-1.323, 9.688e-3
-1.324, 9.679e-3
-1.325, 9.707e-3
-1.326, 9.753e-3
-1.327, 9.739e-3
-1.328, 9.762e-3
-1.329, 9.745e-3
-1.330, 9.764e-3
-1.331, 9.795e-3
-1.332, 9.790e-3
-1.333, 9.836e-3
-1.334, 9.839e-3
-1.335, 9.864e-3
-1.336, 9.893e-3
-1.337, 9.886e-3
-1.338, 9.924e-3
-1.339, 9.924e-3
-1.340, 9.936e-3
-1.341, 9.948e-3
-1.342, 9.949e-3
-1.343, 1.001e-2
-1.344, 1.001e-2
-1.345, 1.002e-2
-1.346, 1.006e-2
-1.347, 1.008e-2
-1.348, 1.011e-2
-1.349, 1.009e-2
-1.350, 1.009e-2
-1.351, 1.012e-2
-1.352, 1.012e-2
-1.353, 1.015e-2
-1.354, 1.015e-2
-1.355, 1.018e-2
-1.356, 1.022e-2
-1.357, 1.023e-2
-1.358, 1.028e-2
-1.359, 1.029e-2
-1.360, 1.031e-2
-1.361, 1.034e-2
-1.362, 1.033e-2
-1.363, 1.038e-2
-1.364, 1.038e-2
-1.365, 1.042e-2
-1.366, 1.049e-2
-1.367, 1.050e-2
-1.368, 1.054e-2
-1.369, 1.052e-2
-1.370, 1.055e-2
-1.371, 1.058e-2
-1.372, 1.060e-2
-1.373, 1.066e-2
-1.374, 1.068e-2
-1.375, 1.074e-2
-1.376, 1.079e-2
-1.377, 1.081e-2
-1.378, 1.089e-2
-1.379, 1.090e-2
-1.380, 1.094e-2
-1.381, 1.098e-2
-1.382, 1.099e-2
-1.383, 1.106e-2
-1.384, 1.108e-2
-1.385, 1.112e-2
-1.386, 1.117e-2
-1.387, 1.120e-2
-1.388, 1.127e-2
-1.389, 1.133e-2
-1.390, 1.137e-2
-1.391, 1.141e-2
-1.392, 1.144e-2
-1.393, 1.151e-2
-1.394, 1.154e-2
-1.395, 1.158e-2
-1.396, 1.164e-2
-1.397, 1.168e-2
-1.398, 1.178e-2
-1.399, 1.182e-2
-1.400, 1.174e-2
-1.399, 1.152e-2
-1.398, 1.130e-2
-1.397, 1.113e-2
-1.396, 1.091e-2
-1.395, 1.074e-2
-1.394, 1.057e-2
-1.393, 1.037e-2
-1.392, 1.024e-2
-1.391, 1.008e-2
-1.390, 9.936e-3
-1.389, 9.795e-3
-1.388, 9.624e-3
-1.387, 9.500e-3
-1.386, 9.352e-3
-1.385, 9.225e-3
-1.384, 9.109e-3
-1.383, 8.951e-3
-1.382, 8.846e-3
-1.381, 8.705e-3
-1.380, 8.582e-3
-1.379, 8.462e-3
-1.378, 8.322e-3
-1.377, 8.218e-3
-1.376, 8.069e-3
-1.375, 7.949e-3
-1.374, 7.841e-3
-1.373, 7.698e-3
-1.372, 7.614e-3
-1.371, 7.488e-3
-1.370, 7.386e-3
-1.369, 7.291e-3
-1.368, 7.162e-3
-1.367, 7.082e-3
-1.366, 6.962e-3
-1.365, 6.860e-3
-1.364, 6.769e-3
-1.363, 6.641e-3
-1.362, 6.563e-3
-1.361, 6.442e-3
-1.360, 6.342e-3
-1.359, 6.251e-3
-1.358, 6.127e-3
-1.357, 6.052e-3
-1.356, 5.938e-3
-1.355, 5.847e-3
-1.354, 5.762e-3
-1.353, 5.652e-3
-1.352, 5.594e-3
-1.351, 5.471e-3
-1.350, 5.385e-3
-1.349, 5.305e-3
-1.348, 5.196e-3
-1.347, 5.138e-3
-1.346, 5.027e-3
-1.345, 4.937e-3
-1.344, 4.851e-3
-1.343, 4.730e-3
-1.342, 4.663e-3
-1.341, 4.555e-3
-1.340, 4.477e-3
-1.339, 4.404e-3
-1.338, 4.298e-3
-1.337, 4.234e-3
-1.336, 4.125e-3
-1.335, 4.043e-3
-1.334, 3.967e-3
-1.333, 3.860e-3
-1.332, 3.805e-3
-1.331, 3.708e-3
-1.330, 3.631e-3
-1.329, 3.559e-3
-1.328, 3.455e-3
-1.327, 3.397e-3
-1.326, 3.296e-3
-1.325, 3.220e-3
-1.324, 3.148e-3
-1.323, 3.045e-3
-1.322, 2.991e-3
-1.321, 2.892e-3
-1.320, 2.818e-3
-1.319, 2.751e-3
-1.318, 2.652e-3
-1.317, 2.603e-3
-1.316, 2.508e-3
-1.315, 2.446e-3
-1.314, 2.387e-3
-1.313, 2.285e-3
-1.312, 2.230e-3
-1.311, 2.137e-3
-1.310, 2.071e-3
-1.309, 2.012e-3
-1.308, 1.915e-3
-1.307, 1.865e-3
-1.306, 1.782e-3
-1.305, 1.717e-3
-1.304, 1.661e-3
-1.303, 1.570e-3
-1.302, 1.529e-3
-1.301, 1.448e-3
-1.300, 1.387e-3
-1.299, 1.332e-3
-1.298, 1.243e-3
-1.297, 1.205e-3
-1.296, 1.127e-3
-1.295, 1.073e-3
-1.294, 1.019e-3
-1.293, 9.353e-4
-1.292, 8.971e-4
-1.291, 8.189e-4
-1.290, 7.638e-4
-1.289, 7.143e-4
-1.288, 6.347e-4
-1.287, 6.020e-4
-1.286, 5.249e-4
-1.285, 4.739e-4
-1.284, 4.267e-4
-1.283, 3.499e-4
-1.282, 3.200e-4
-1.281, 2.457e-4
-1.280, 1.959e-4
-1.279, 1.519e-4
-1.278, 7.657e-5
-1.277, 4.947e-5
-1.276, -2.240e-5
-1.275, -6.820e-5
-1.274, -1.093e-4
-1.273, -1.807e-4
-1.272, -2.050e-4
-1.271, -2.735e-4
-1.270, -3.165e-4
-1.269, -3.566e-4
-1.268, -4.259e-4
-1.267, -4.495e-4
-1.266, -5.160e-4
-1.265, -5.568e-4
-1.264, -5.903e-4
-1.263, -6.498e-4
-1.262, -6.682e-4
-1.261, -7.329e-4
-1.260, -7.727e-4
-1.259, -8.082e-4
-1.258, -8.742e-4
-1.257, -8.956e-4
-1.256, -9.590e-4
-1.255, -9.958e-4
-1.254, -1.029e-3
-1.253, -1.095e-3
-1.252, -1.115e-3
-1.251, -1.177e-3
-1.250, -1.214e-3
-1.249, -1.250e-3
-1.248, -1.312e-3
-1.247, -1.328e-3
-1.246, -1.389e-3
-1.245, -1.424e-3
-1.244, -1.458e-3
-1.243, -1.520e-3
-1.242, -1.537e-3
-1.241, -1.597e-3
-1.240, -1.627e-3
-1.239, -1.655e-3
-1.238, -1.715e-3
-1.237, -1.729e-3
-1.236, -1.787e-3
-1.235, -1.819e-3
-1.234, -1.850e-3
-1.233, -1.910e-3
-1.232, -1.924e-3
-1.231, -1.983e-3
-1.230, -2.016e-3
-1.229, -2.051e-3
-1.228, -2.111e-3
-1.227, -2.124e-3
-1.226, -2.180e-3
-1.225, -2.211e-3
-1.224, -2.237e-3
-1.223, -2.293e-3
-1.222, -2.307e-3
-1.221, -2.364e-3
-1.220, -2.394e-3
-1.219, -2.420e-3
-1.218, -2.476e-3
-1.217, -2.489e-3
-1.216, -2.544e-3
-1.215, -2.574e-3
-1.214, -2.602e-3
-1.213, -2.659e-3
-1.212, -2.670e-3
-1.211, -2.722e-3
-1.210, -2.749e-3
-1.209, -2.777e-3
-1.208, -2.832e-3
-1.207, -2.844e-3
-1.206, -2.900e-3
-1.205, -2.928e-3
-1.204, -2.954e-3
-1.203, -3.010e-3
-1.202, -3.019e-3
-1.201, -3.073e-3
-1.200, -3.098e-3
-1.199, -3.125e-3
-1.198, -3.183e-3
-1.197, -3.199e-3
-1.196, -3.253e-3
-1.195, -3.283e-3
-1.194, -3.312e-3
-1.193, -3.366e-3
-1.192, -3.372e-3
-1.191, -3.435e-3
-1.190, -3.454e-3
-1.189, -3.480e-3
-1.188, -3.539e-3
-1.187, -3.551e-3
-1.186, -3.611e-3
-1.185, -3.635e-3
-1.184, -3.667e-3
-1.183, -3.723e-3
-1.182, -3.718e-3
-1.181, -3.765e-3
-1.180, -3.790e-3
-1.179, -3.810e-3
-1.178, -3.857e-3
-1.177, -3.862e-3
-1.176, -3.916e-3
-1.175, -3.945e-3
-1.174, -3.972e-3
-1.173, -4.030e-3
-1.172, -4.041e-3
-1.171, -4.095e-3
-1.170, -4.123e-3
-1.169, -4.153e-3
-1.168, -4.201e-3
-1.167, -4.209e-3
-1.166, -4.267e-3
-1.165, -4.292e-3
-1.164, -4.319e-3
-1.163, -4.374e-3
-1.162, -4.384e-3
-1.161, -4.438e-3
-1.160, -4.464e-3
-1.159, -4.487e-3
-1.158, -4.538e-3
-1.157, -4.547e-3
-1.156, -4.602e-3
-1.155, -4.631e-3
-1.154, -4.659e-3
-1.153, -4.709e-3
-1.152, -4.717e-3
-1.151, -4.771e-3
-1.150, -4.800e-3
-1.149, -4.830e-3
-1.148, -4.898e-3
-1.147, -4.919e-3
-1.146, -4.957e-3
-1.145, -4.972e-3
-1.144, -4.994e-3
-1.143, -5.046e-3
-1.142, -5.053e-3
-1.141, -5.108e-3
-1.140, -5.133e-3
-1.139, -5.165e-3
-1.138, -5.228e-3
-1.137, -5.244e-3
-1.136, -5.300e-3
-1.135, -5.321e-3
-1.134, -5.353e-3
-1.133, -5.402e-3
-1.132, -5.404e-3
-1.131, -5.457e-3
-1.130, -5.486e-3
-1.129, -5.513e-3
-1.128, -5.561e-3
-1.127, -5.568e-3
-1.126, -5.615e-3
-1.125, -5.638e-3
-1.124, -5.664e-3
-1.123, -5.717e-3
-1.122, -5.735e-3
-1.121, -5.797e-3
-1.120, -5.824e-3
-1.119, -5.849e-3
-1.118, -5.903e-3
-1.117, -5.915e-3
-1.116, -5.968e-3
-1.115, -5.993e-3
-1.114, -6.017e-3
-1.113, -6.060e-3
-1.112, -6.063e-3
-1.111, -6.107e-3
-1.110, -6.119e-3
-1.109, -6.138e-3
-1.108, -6.197e-3
-1.107, -6.210e-3
-1.106, -6.264e-3
-1.105, -6.290e-3
-1.104, -6.316e-3
-1.103, -6.366e-3
-1.102, -6.381e-3
-1.101, -6.436e-3
-1.100, -6.466e-3
-1.099, -6.501e-3
-1.098, -6.545e-3
-1.097, -6.551e-3
-1.096, -6.595e-3
-1.095, -6.612e-3
-1.094, -6.637e-3
-1.093, -6.676e-3
-1.092, -6.678e-3
-1.091, -6.733e-3
-1.090, -6.752e-3
-1.089, -6.775e-3
-1.088, -6.821e-3
-1.087, -6.822e-3
-1.086, -6.872e-3
-1.085, -6.898e-3
-1.084, -6.920e-3
-1.083, -6.964e-3
-1.082, -6.975e-3
-1.081, -7.027e-3
-1.080, -7.041e-3
-1.079, -7.058e-3
-1.078, -7.110e-3
-1.077, -7.121e-3
-1.076, -7.171e-3
-1.075, -7.197e-3
-1.074, -7.214e-3
-1.073, -7.260e-3
-1.072, -7.262e-3
-1.071, -7.300e-3
-1.070, -7.317e-3
-1.069, -7.360e-3
-1.068, -7.403e-3
-1.067, -7.389e-3
-1.066, -7.429e-3
-1.065, -7.462e-3
-1.064, -7.478e-3
-1.063, -7.516e-3
-1.062, -7.517e-3
-1.061, -7.554e-3
-1.060, -7.569e-3
-1.059, -7.596e-3
-1.058, -7.644e-3
-1.057, -7.661e-3
-1.056, -7.692e-3
-1.055, -7.701e-3
-1.054, -7.716e-3
-1.053, -7.747e-3
-1.052, -7.734e-3
-1.051, -7.773e-3
-1.050, -7.778e-3
-1.049, -7.807e-3
-1.048, -7.846e-3
-1.047, -7.847e-3
-1.046, -7.902e-3
-1.045, -7.920e-3
-1.044, -7.931e-3
-1.043, -7.970e-3
-1.042, -7.971e-3
-1.041, -8.013e-3
-1.040, -8.016e-3
-1.039, -8.023e-3
-1.038, -8.077e-3
-1.037, -8.095e-3
-1.036, -8.113e-3
-1.035, -8.109e-3
-1.034, -8.116e-3
-1.033, -8.151e-3
-1.032, -8.149e-3
-1.031, -8.190e-3
-1.030, -8.200e-3
-1.029, -8.203e-3
-1.028, -8.231e-3
-1.027, -8.228e-3
-1.026, -8.263e-3
-1.025, -8.266e-3
-1.024, -8.277e-3
-1.023, -8.306e-3
-1.022, -8.308e-3
-1.021, -8.343e-3
-1.020, -8.344e-3
-1.019, -8.341e-3
-1.018, -8.365e-3
-1.017, -8.353e-3
-1.016, -8.415e-3
-1.015, -8.456e-3
-1.014, -8.452e-3
-1.013, -8.466e-3
-1.012, -8.459e-3
-1.011, -8.477e-3
-1.010, -8.536e-3
-1.009, -8.526e-3
-1.008, -8.536e-3
-1.007, -8.506e-3
-1.006, -8.529e-3
-1.005, -8.529e-3
-1.004, -8.547e-3
-1.003, -8.594e-3
-1.002, -8.592e-3
-1.001, -8.624e-3
