Potential V vs RHE, Current mA cm-2
0.013299999999999867,10.815467887468206
0.012299999999999978,8.677839113372134
0.011299999999999866,6.5840663895718805
0.010299999999999976,4.534149716067443
0.009299999999999864,2.4403769922671885
0.008299999999999974,0.4776065348344364
0.007299999999999862,-1.4854468648582886
0.006299999999999972,-3.2297858975918787
0.00529999999999986,-5.017980980621284
0.0042999999999999705,-6.6760226240631075
0.0032999999999998586,-8.288793505909249
0.0022999999999999687,-9.85912304875944
0.0012999999999998568,-11.385596541313816
0.00029999999999996696,-12.913484745168056
-0.000700000000000145,-14.486643710617974
-0.0017000000000000348,-16.141855931460068
-0.0027000000000001467,-17.71218547431026
-0.0037000000000000366,-19.409839034148305
-0.0047000000000001485,-21.065051254990397
-0.005700000000000038,-22.776851927827092
-0.00670000000000015,-24.34718147067728
-0.00770000000000004,-25.91751101352747
-0.008700000000000152,-27.38881076538711
-0.009700000000000042,-28.831816291249446
-0.010700000000000154,-30.189939139119886
-0.011700000000000044,-31.49147353499572
-0.012700000000000156,-32.70812525287965
-0.013700000000000045,-33.98136542275818
-0.014700000000000157,-35.282899818634014
-0.015700000000000047,-36.5136986495166
-0.01670000000000016,-37.94255706238028
-0.01770000000000005,-39.30067991025072
-0.01870000000000016,-40.701244097117105
-0.01970000000000005,-42.130102509980794
-0.020700000000000163,-43.57310803584313
-0.021700000000000053,-44.93123088371356
-0.022700000000000164,-46.3176479575813
-0.023700000000000054,-47.590888127459834
-0.024700000000000166,-48.84998118433972
-0.025700000000000056,-49.939308885235796
-0.026700000000000168,-51.028636586131874
-0.027700000000000058,-52.11796428702795
-0.02870000000000017,-53.12240930993213
-0.02970000000000006,-54.2117370108282
-0.03070000000000017,-55.31521182472294
-0.03170000000000006,-56.57430488160282
-0.03270000000000017,-57.7485152604908
-0.03370000000000006,-59.02175543036933
-0.034700000000000175,-60.23840714825326
-0.035700000000000065,-61.5965299961237
-0.03670000000000018,-62.72829903601572
-0.03770000000000007,-63.944950753899654
-0.03870000000000018,-65.0767197937917
-0.03970000000000007,-66.16604749468777
-0.04070000000000018,-67.17049251759194
-0.04170000000000007,-68.13249620150016
-0.04270000000000018,-69.13694122440434
-0.04370000000000007,-70.05650356931662
-0.044700000000000184,-71.0043601402262
-0.045700000000000074,-71.96636382413442
-0.046700000000000186,-73.09813286402644
-0.047700000000000076,-74.14501922592657
-0.04870000000000019,-75.33337671781321
-0.04970000000000008,-76.46514575770523
-0.05070000000000019,-77.68179747558916
-0.05170000000000008,-78.8135665154812
-0.05270000000000019,-79.94533555537322
-0.05370000000000008,-80.9497805782774
-0.05470000000000019,-81.99666694017753
-0.05570000000000008,-82.9162292850898
-0.056700000000000195,-83.79335029100612
-0.057700000000000085,-84.6563241839238
-0.058700000000000196,-85.49100385084417
-0.059700000000000086,-86.45300753475239
-0.0607000000000002,-87.33012854066871
-0.06170000000000009,-88.4194562415648
-0.0627000000000002,-89.50878394246087
-0.06370000000000009,-90.59811164335694
-0.0647000000000002,-91.68743934425302
-0.06570000000000009,-92.90409106213696
-0.0667000000000002,-93.95097742403709
-0.0677000000000001,-95.04030512493317
-0.0687000000000002,-96.04475014783733
-0.0697000000000001,-97.04919517074151
-0.07070000000000021,-97.92631617665783
-0.0717000000000001,-98.7892900695755
-0.07270000000000021,-99.66641107549184
-0.0737000000000001,-100.5010907424122
-0.07470000000000021,-101.3640646353299
-0.0757000000000001,-102.24118564124619
-0.07670000000000021,-103.28807200314633
-0.0777000000000001,-104.2925170260505
-0.07870000000000021,-105.33940338795064
-0.0797000000000001,-106.38628974985076
-0.08070000000000022,-107.56050012873874
-0.0817000000000001,-108.56494515164292
-0.08270000000000022,-109.61183151354304
-0.08370000000000011,-110.6162765364472
-0.08470000000000022,-111.57828022035544
-0.08570000000000011,-112.44125411327312
-0.08670000000000022,-113.27593378019348
-0.08770000000000011,-114.11061344711386
-0.08870000000000022,-114.84626332304367
-0.08970000000000011,-115.68094298996405
-0.09070000000000022,-116.45903420488982
-0.09170000000000011,-117.46347922779398
-0.09270000000000023,-118.42548291170223
-0.09370000000000012,-119.51481061259831
-0.09470000000000023,-120.64657965249035
-0.09570000000000012,-121.86323137037427
-0.09670000000000023,-122.95255907127036
-0.09770000000000012,-124.09847522416102
-0.09870000000000023,-125.18780292505707
-0.09970000000000012,-126.27713062595316
-0.10070000000000023,-127.19669297086547
-0.10170000000000012,-128.10210820277908
-0.10270000000000024,-129.02167054769134
-0.10370000000000013,-129.8563502146117
-0.10470000000000024,-130.8042067855213
-0.10570000000000013,-131.76621046942952
-0.10670000000000024,-132.7706554923337
-0.10770000000000013,-133.81754185423384
-0.10870000000000024,-134.94931089412586
-0.10970000000000013,-136.08107993401788
-0.11070000000000024,-137.2694374259045
-0.11170000000000013,-138.3163237878046
-0.11270000000000002,-139.49053416669264
-0.11370000000000013,-140.53742052859275
-0.11470000000000002,-141.47112998650366
-0.11570000000000014,-142.4614278964092
-0.11670000000000003,-143.3102546763282
-0.11770000000000014,-144.15908145624724
-0.11870000000000003,-145.00790823616626
-0.11970000000000014,-145.7152638860988
-0.12070000000000003,-146.7055617960043
-0.12170000000000014,-147.6958597059098
-0.12270000000000003,-148.68615761581535
-0.12370000000000014,-149.8179266557074
-0.12470000000000003,-150.8082245656129
-0.12570000000000014,-151.93999360550492
-0.12670000000000003,-153.07176264539694
-0.12770000000000015,-154.203531685289
-0.12870000000000004,-155.19382959519453
-0.12970000000000015,-156.18412750510007
-0.13070000000000004,-157.17442541500557
-0.13170000000000015,-158.02325219492457
-0.13270000000000004,-159.01355010483013
-0.13370000000000015,-159.72090575476264
-0.13470000000000004,-160.71120366466818
-0.13570000000000015,-161.70150157457368
-0.13670000000000004,-162.8332706144657
-0.13770000000000016,-163.96503965435775
-0.13870000000000005,-165.09680869424977
-0.13970000000000016,-166.22857773414182
-0.14070000000000005,-167.50181790402033
-0.14170000000000016,-168.49211581392586
-0.14270000000000005,-169.7653559838044
-0.14370000000000016,-170.75565389370993
-0.14470000000000005,-171.88742293360195
-0.14570000000000016,-172.73624971352098
-0.14670000000000005,-173.72654762342648
-0.14770000000000016,-174.57537440334553
-0.14870000000000005,-175.42420118326456
-0.14970000000000017,-176.27302796318358
-0.15070000000000006,-177.2633258730891
-0.15170000000000017,-178.25362378299462
-0.15270000000000006,-179.24392169290016
-0.15370000000000017,-180.37569073279218
-0.15470000000000006,-181.36598864269772
-0.15570000000000017,-182.63922881257625
-0.15670000000000006,-183.62952672248176
-0.15770000000000017,-184.6198246323873
-0.15870000000000006,-185.6101225422928
-0.15970000000000018,-186.45894932221185
-0.16070000000000007,-187.30777610213087
-0.16170000000000018,-188.15660288204987
-0.16270000000000007,-189.0054296619689
-0.16370000000000018,-189.71278531190143
-0.16470000000000007,-190.70308322180696
-0.16570000000000018,-191.551910001726
-0.16670000000000007,-192.54220791163152
-0.16770000000000018,-193.532505821537
-0.16870000000000007,-194.52280373144254
-0.16970000000000018,-195.65457277133459
-0.17070000000000007,-196.7863418112266
-0.17170000000000019,-197.77663972113214
-0.17270000000000008,-198.90840876102413
-0.1737000000000002,-199.75723554094319
-0.17470000000000008,-200.88900458083523
-0.1757000000000002,-201.87930249074074
-0.17670000000000008,-202.7281292706598
-0.1777000000000002,-203.71842718056527
-0.17870000000000008,-204.5672539604843
-0.1797000000000002,-205.55755187038983
-0.18070000000000008,-206.54784978029537
-0.1817000000000002,-207.5381476902009
-0.18270000000000008,-208.6699167300929
-0.1837000000000002,-209.8016857699849
-0.1847000000000001,-210.93345480987696
-0.1857000000000002,-212.065223849769
-0.1867000000000001,-213.19699288966103
-0.1877000000000002,-214.32876192955305
-0.1887000000000001,-215.31905983945856
-0.1897000000000002,-216.4508288793506
-0.1907000000000001,-217.29965565926966
-0.1917000000000001,-218.14848243918865
-0.19269999999999998,-218.99730921910768
-0.1937000000000001,-219.8461359990267
-0.19469999999999998,-220.83643390893224
-0.1957000000000001,-221.68526068885126
-0.19669999999999999,-222.81702972874328
-0.1977000000000001,-223.80732763864881
-0.1987,-224.93909667854084
-0.1997000000000001,-225.92939458844637
-0.2007,-227.2026347583249
-0.2017000000000001,-228.1929326682304
-0.2027,-229.32470170812243
-0.2037000000000001,-230.31499961802797
-0.2047,-231.3052975279335
-0.2057000000000001,-232.15412430785253
-0.2067,-233.00295108777152
-0.2077000000000001,-233.85177786769057
-0.2087,-234.7006046476096
-0.2097000000000001,-235.69090255751513
-0.2107,-236.6812004674206
-0.2117000000000001,-237.81296950731266
-0.2127,-238.8032674172182
-0.2137000000000001,-239.93503645711021
-0.2147,-241.20827662698875
-0.2157000000000001,-242.48151679686728
-0.2167,-243.6132858367593
-0.21770000000000012,-244.74505487665132
-0.2187,-245.87682391654337
-0.21970000000000012,-246.8671218264489
-0.2207,-247.85741973635444
-0.22170000000000012,-248.9891887762465
-0.2227,-249.979486686152
-0.22370000000000012,-250.828313466071
-0.2247,-251.81861137597656
-0.22570000000000012,-252.80890928588207
-0.2267,-253.94067832577412
-0.22770000000000012,-255.07244736566614
-0.22870000000000001,-256.34568753554464
-0.22970000000000013,-257.4774565754367
-0.23070000000000002,-258.8921678753017
-0.23170000000000013,-260.02393691519376
-0.23270000000000002,-261.2971770850723
-0.23370000000000013,-262.2874749949778
-0.23470000000000002,-263.41924403486985
-0.23570000000000013,-264.2680708147888
-0.23670000000000002,-265.2583687246944
-0.2376999999999999,-266.2486666345999
-0.23870000000000002,-267.09749341451896
-0.2396999999999999,-268.0877913244245
-0.24070000000000003,-269.07808923433
-0.24169999999999991,-270.0683871442355
-0.24270000000000003,-271.05868505414105
-0.24369999999999992,-272.1904540940331
-0.24470000000000003,-273.1807520039386
-0.24569999999999992,-274.31252104383066
-0.24670000000000003,-275.44429008372265
-0.24769999999999992,-276.5760591236147
-0.24870000000000003,-277.56635703352015
-0.24969999999999992,-278.5566549434257
-0.25070000000000003,-279.40548172334474
-0.2516999999999999,-280.3957796332503
-0.25270000000000004,-281.24460641316927
-0.2536999999999999,-282.09343319308834
-0.25470000000000004,-283.08373110299385
-0.2556999999999999,-283.9325578829129
-0.25670000000000004,-285.0643269228049
-0.25769999999999993,-286.0546248327104
-0.25870000000000004,-287.1863938726024
-0.25969999999999993,-288.45963404248096
-0.26070000000000004,-289.73287421235955
-0.26169999999999993,-290.86464325225154
-0.26270000000000004,-291.9964122921436
-0.26369999999999993,-293.1281813320356
-0.26470000000000005,-294.2599503719276
-0.26569999999999994,-295.25024828183314
-0.26670000000000005,-296.2405461917387
-0.26769999999999994,-297.23084410164427
-0.26870000000000005,-298.07967088156323
-0.26969999999999994,-299.06996879146874
-0.27070000000000005,-300.06026670137425
-0.27169999999999994,-301.0505646112798
-0.27270000000000005,-302.18233365117186
-0.27369999999999994,-303.17263156107737
-0.27470000000000006,-304.4458717309559
-0.27569999999999995,-305.57764077084795
-0.27670000000000006,-306.56793868075346
-0.27769999999999995,-307.69970772064545
-0.27870000000000006,-308.690005630551
-0.27969999999999995,-309.6803035404565
-0.28070000000000006,-310.52913032037554
-0.28169999999999995,-311.3779571002945
-0.28270000000000006,-312.0853127502271
-0.28369999999999995,-312.9341395301461
-0.28470000000000006,-313.78296631006515
-0.28569999999999995,-314.6317930899841
-0.28670000000000007,-315.76356212987616
-0.28769999999999996,-316.6123889097952
-0.28870000000000007,-317.74415794968724
-0.28969999999999996,-318.8759269895793
-0.29070000000000007,-319.8662248994848
-0.29169999999999996,-320.9979939393768
-0.29270000000000007,-322.12976297926883
-0.29369999999999996,-323.1200608891744
-0.2947000000000001,-324.1103587990799
-0.29569999999999996,-324.9591855789989
-0.2967000000000001,-325.80801235891795
-0.29769999999999996,-326.79831026882346
-0.2987000000000001,-327.505665918756
-0.29969999999999997,-328.3544926986751
-0.3007000000000001,-329.3447906085805
-0.30169999999999997,-330.33508851848603
-0.3027000000000001,-331.3253864283916
-0.30369999999999997,-332.45715546828364
-0.3047000000000001,-333.5889245081757
-0.30569999999999997,-334.7206935480677
-0.3067000000000001,-335.8524625879597
-0.3077,-336.9842316278517
-0.3087000000000001,-337.9745295377573
-0.3097,-339.1062985776493
-0.3107000000000001,-339.95512535756825
-0.3117,-340.80395213748733
-0.3127000000000001,-341.7942500473929
-0.3137,-342.64307682731186
-0.3147000000000001,-343.63337473721737
-0.3157,-344.48220151713645
-0.3167000000000001,-345.6139705570285
-0.3177,-346.604268466934
-0.3187000000000001,-347.73603750682605
-0.3197,-349.0092776767046
-0.3207000000000001,-350.1410467165966
-0.3217,-351.2728157564886
-0.3227000000000001,-352.4045847963807
-0.3237,-353.3948827062862
-0.3247000000000001,-354.2437094862052
-0.3257,-355.09253626612417
-0.3267000000000001,-355.9413630460432
-0.3277,-356.7901898259622
-0.3287000000000001,-357.63901660588124
-0.3297,-358.4878433858003
-0.3307000000000001,-359.4781412957058
-0.3317,-360.6099103355978
-0.3327000000000001,-361.74167937548987
-0.3337,-362.87344841538186
-0.3347000000000001,-364.14668858526045
-0.3357,-365.2784576251525
-0.3367000000000001,-366.4102266650445
-0.3377,-367.5419957049365
-0.3387000000000001,-368.5322936148421
-0.3397,-369.5225915247476
-0.3407000000000001,-370.3714183046666
-0.3417,-371.3617162145721
-0.3427000000000001,-372.2105429944911
-0.3437,-372.9178986444237
-0.3447000000000001,-373.90819655432915
-0.3457,-374.61555220426175
-0.3467000000000001,-375.60585011416725
-0.3477,-376.59614802407276
-0.3487000000000001,-377.58644593397827
-0.3497,-378.7182149738703
-0.3507000000000001,-379.84998401376237
-0.3517,-380.8402819236679
-0.3527000000000001,-381.8305798335734
-0.3537,-382.96234887346543
-0.3547000000000001,-383.81117565338445
-0.3557,-384.6600024333035
-0.35670000000000013,-385.5088292132225
-0.3577,-386.3576559931415
-0.35870000000000013,-387.065011643074
-0.3597,-388.05530955297957
-0.36070000000000013,-388.7626652029121
-0.3617,-389.75296311281767
-0.3626999999999999,-390.7432610227231
-0.3637,-391.87503006261517
-0.3646999999999999,-393.00679910250716
-0.3657,-394.1385681423992
-0.3666999999999999,-395.1288660523047
-0.3677,-396.26063509219676
-0.3686999999999999,-397.3924041320888
-0.36970000000000003,-398.3827020419943
-0.3706999999999999,-399.3729999518999
-0.37170000000000003,-400.2218267318189
-0.3726999999999999,-401.2121246417244
-0.37370000000000003,-402.06095142164344
-0.3746999999999999,-403.05124933154895
-0.37570000000000003,-403.90007611146797
-0.3766999999999999,-404.89037402137353
-0.37770000000000004,-405.88067193127904
-0.3786999999999999,-407.0124409711711
-0.37970000000000004,-408.1442100110631
-0.3806999999999999,-409.4174501809416
-0.38170000000000004,-410.4077480908472
-0.38269999999999993,-411.53951713073917
-0.38370000000000004,-412.5298150406447
-0.38469999999999993,-413.5201129505502
-0.38570000000000004,-414.3689397304692
-0.38669999999999993,-413.80305521052327
-0.38570000000000004,-410.4077480908472
-0.38469999999999993,-407.0124409711711
-0.38370000000000004,-403.7586049814815
-0.38269999999999993,-400.5047689917919
-0.38170000000000004,-397.3924041320888
-0.3806999999999999,-394.2800392723857
-0.37970000000000004,-391.30914554266917
-0.3786999999999999,-388.479722942939
-0.37770000000000004,-385.65030034320904
-0.3766999999999999,-382.6794066134924
-0.37570000000000003,-379.84998401376237
-0.3746999999999999,-377.0205614140323
-0.37370000000000003,-374.04966768431575
-0.3726999999999999,-371.0787739545991
-0.37170000000000003,-368.10788022488254
-0.3706999999999999,-365.2784576251525
-0.36970000000000003,-362.16609276544943
-0.3686999999999999,-359.1951990357328
-0.3677,-356.2243053060162
-0.3666999999999999,-353.3948827062862
-0.3657,-350.5654601065561
-0.3646999999999999,-347.73603750682605
-0.3637,-345.04808603708244
-0.3626999999999999,-342.5016056973254
-0.3617,-339.8136542275818
-0.36070000000000013,-337.12570275783827
-0.3597,-334.43775128809466
-0.35870000000000013,-331.74979981835105
-0.3577,-328.92037721862107
-0.35670000000000013,-326.23242574887746
-0.3557,-323.40300314914737
-0.3547000000000001,-320.57358054941733
-0.3537,-317.8856290796738
-0.3527000000000001,-315.19767760993017
-0.3517,-312.50972614018656
-0.3507000000000001,-309.821774670443
-0.3497,-307.27529433068594
-0.3487000000000001,-304.8702851209154
-0.3477,-302.32380478115834
-0.3467000000000001,-299.91879557138776
-0.3457,-297.3723152316307
-0.3447000000000001,-294.8258348918736
-0.3437,-292.2793545521166
-0.3427000000000001,-289.59140308237295
-0.3417,-286.9034516126294
-0.3407000000000001,-284.2155001428859
-0.3397,-281.52754867314235
-0.3387000000000001,-278.8395972033987
-0.3377,-276.29311686364167
-0.3367000000000001,-273.7466365238846
-0.3357,-271.341627314114
-0.3347000000000001,-268.93661810434344
-0.3337,-266.5316088945729
-0.3327000000000001,-264.2680708147888
-0.3317,-261.7215904750318
-0.3307000000000001,-259.4580523952477
-0.3297,-257.0530431854772
-0.3287000000000001,-254.64803397570657
-0.3277,-252.10155363594956
-0.3267000000000001,-249.5550732961925
-0.3257,-247.0085929564354
-0.3247000000000001,-244.32064148669184
-0.3237,-241.77416114693477
-0.3227000000000001,-239.36915193716422
-0.3217,-236.96414272739366
-0.3207000000000001,-234.55913351762308
-0.3197,-232.29559543783904
-0.3187000000000001,-230.17352848804146
-0.3177,-227.9099904082574
-0.3167000000000001,-225.64645232847332
-0.3157,-223.38291424868927
-0.3147000000000001,-221.11937616890526
-0.3137,-218.85583808912116
-0.3127000000000001,-216.4508288793506
-0.3117,-214.04581966958003
-0.3107000000000001,-211.499339329823
-0.3097,-209.0943301200524
-0.3087000000000001,-206.54784978029537
-0.3077,-204.14284057052478
-0.3067000000000001,-201.87930249074074
-0.30569999999999997,-199.61576441095667
-0.3047000000000001,-197.35222633117263
-0.30369999999999997,-195.23015938137505
-0.3027000000000001,-193.10809243157752
-0.30169999999999997,-190.84455435179345
-0.3007000000000001,-188.72248740199586
-0.29969999999999997,-186.45894932221185
-0.2987000000000001,-184.19541124242778
-0.29769999999999996,-181.93187316264374
-0.2967000000000001,-179.52686395287316
-0.29569999999999996,-177.2633258730891
-0.2947000000000001,-174.71684553333202
-0.29369999999999996,-172.45330745354798
-0.29270000000000007,-170.18976937376394
-0.29169999999999996,-168.06770242396635
-0.29070000000000007,-165.94563547416882
-0.28969999999999996,-163.68209739438475
-0.28870000000000007,-161.70150157457368
-0.28769999999999996,-159.72090575476264
-0.28670000000000007,-157.59883880496508
-0.28569999999999995,-155.61824298515404
-0.28470000000000006,-153.49617603535648
-0.28369999999999995,-151.37410908555893
-0.28270000000000006,-149.1105710057749
-0.28169999999999995,-146.9885040559773
-0.28070000000000006,-144.72496597619326
-0.27969999999999995,-142.4614278964092
-0.27870000000000006,-140.325213833613
-0.27769999999999995,-138.13241131882216
-0.27670000000000006,-136.13766838601245
-0.27569999999999995,-134.04389566221224
-0.27470000000000006,-132.07744695539984
-0.27369999999999994,-130.1534395875834
-0.27270000000000005,-128.32846201075745
-0.27169999999999994,-126.36201330394509
-0.27070000000000005,-124.43800593612862
-0.26969999999999994,-122.52814568131083
-0.26870000000000005,-120.51925563550247
-0.26769999999999994,-118.42548291170223
