Potential V vs RHE, Current mA cm-2
0.013299999999999867,10.94562132705579
0.012299999999999978,8.764136502663902
0.011299999999999866,7.019797469930312
0.010299999999999976,5.319314487492538
0.009299999999999864,3.355695203279867
0.008299999999999974,1.3934906303670611
0.007299999999999862,-0.26384365742482935
0.006299999999999972,-1.6156003044458718
0.00529999999999986,-2.968064307116847
0.0042999999999999705,-4.582249900262854
0.0032999999999998586,-6.238876832404812
0.0022999999999999687,-7.635196885371603
0.0012999999999998568,-8.725939297567548
0.00029999999999996696,-9.85912304875944
-0.000700000000000145,-11.255443101726232
-0.0017000000000000348,-12.694204493688973
-0.0027000000000001467,-13.872659006476551
-0.0037000000000000366,-14.826174422585586
-0.0047000000000001485,-15.87306078448571
-0.005700000000000038,-17.103859615368293
-0.00670000000000015,-18.40539401124413
-0.00770000000000004,-19.452280373144255
-0.008700000000000152,-20.244518701068674
-0.009700000000000042,-21.107492593986347
-0.010700000000000154,-22.196820294882425
-0.011700000000000044,-23.47006046476096
-0.012700000000000156,-24.34718147067728
-0.013700000000000045,-25.04039000761115
-0.014700000000000157,-25.77603988354097
-0.015700000000000047,-26.738043567449193
-0.01670000000000016,-27.869812607341224
-0.01770000000000005,-28.662050935265643
-0.01870000000000016,-29.27037679420761
-0.01970000000000005,-29.921143992145527
-0.020700000000000163,-30.8407063370578
-0.021700000000000053,-31.84515135996197
-0.022700000000000164,-32.62324257488775
-0.023700000000000054,-33.18912709483376
-0.024700000000000166,-33.755011614779775
-0.025700000000000056,-34.58969128170015
-0.026700000000000168,-35.594136304604326
-0.027700000000000058,-36.329786180534136
-0.02870000000000017,-36.768346683492304
-0.02970000000000006,-37.334231203438314
-0.03070000000000017,-38.253793548350586
-0.03170000000000006,-39.173355893262865
-0.03270000000000017,-39.86656443019674
-0.03370000000000006,-40.30512493315489
-0.034700000000000175,-40.78612677510901
-0.035700000000000065,-41.606659329030734
-0.03670000000000018,-42.483780334947056
-0.03770000000000007,-43.17698887188092
-0.03870000000000018,-43.657990713835034
-0.03970000000000007,-44.181433894785094
-0.04070000000000018,-45.01611356170547
-0.04170000000000007,-45.93567590661774
-0.04270000000000018,-46.628884443551605
-0.04370000000000007,-47.067444946509774
-0.044700000000000184,-47.54844678846388
-0.045700000000000074,-48.36897934238561
-0.046700000000000186,-49.28854168729788
-0.047700000000000076,-49.89686754623985
-0.04870000000000019,-50.335428049198
-0.04970000000000008,-50.85887123014807
-0.05070000000000019,-51.65110955807249
-0.05170000000000008,-52.514083450990164
-0.05270000000000019,-53.16485064892808
-0.05370000000000008,-53.64585249088219
-0.05470000000000019,-54.1268543328363
-0.05570000000000008,-54.834209982768826
-0.056700000000000195,-55.65474253669055
-0.057700000000000085,-56.30550973462846
-0.058700000000000196,-56.74407023758662
-0.059700000000000086,-57.14018940154883
-0.0607000000000002,-57.8333979384827
-0.06170000000000009,-58.75296028339497
-0.0627000000000002,-59.36128614233694
-0.06370000000000009,-59.6300812893113
-0.0647000000000002,-59.9696120012789
-0.06570000000000009,-60.761850329203334
-0.0667000000000002,-61.72385401311155
-0.0677000000000001,-62.37462121104946
-0.0687000000000002,-62.64341635802381
-0.0697000000000001,-63.06782974798333
-0.07070000000000021,-63.77518539791585
-0.0717000000000001,-64.63815929083353
-0.07270000000000021,-65.20404381077954
-0.0737000000000001,-65.4728389577539
-0.07470000000000021,-65.82651678272015
-0.0757000000000001,-66.47728398065809
-0.07670000000000021,-67.34025787357575
-0.0777000000000001,-67.86370105452582
-0.07870000000000021,-68.04761352350828
-0.0797000000000001,-68.25982021848802
-0.08070000000000022,-68.91058741642594
-0.0817000000000001,-69.78770842234226
-0.08270000000000022,-70.39603428128423
-0.08370000000000011,-70.70727076725453
-0.08470000000000022,-71.06094859222078
-0.08570000000000011,-71.7117157901587
-0.08670000000000022,-72.44736566608852
-0.08770000000000011,-73.01325018603454
-0.08870000000000022,-73.49425202798865
-0.08970000000000011,-74.10257788693062
-0.09070000000000022,-74.72505085887124
-0.09170000000000011,-75.33337671781321
-0.09270000000000023,-75.8992612377592
-0.09370000000000012,-76.19635061073087
-0.09470000000000023,-76.46514575770523
-0.09570000000000012,-77.0734716166472
-0.09670000000000023,-77.90815128356756
-0.09770000000000012,-78.51647714250953
-0.09870000000000023,-78.8135665154812
-0.09970000000000012,-79.16724434044745
-0.10070000000000023,-79.81801153838538
-0.10170000000000012,-80.65269120530574
-0.10270000000000024,-81.1761343862558
-0.10370000000000013,-81.38834108123557
-0.10470000000000024,-81.74201890620182
-0.10570000000000013,-82.43522744313569
-0.10670000000000024,-83.26990711005605
-0.10770000000000013,-83.79335029100612
-0.10870000000000024,-83.96311564698992
-0.10970000000000013,-84.27435213296022
-0.11070000000000024,-84.96756066989411
-0.11170000000000013,-85.75979899781852
-0.11270000000000002,-86.18421238777805
-0.11370000000000013,-86.41056619575643
-0.11470000000000002,-86.75009690772404
-0.11570000000000014,-87.41501121866061
-0.11670000000000003,-88.15066109459043
-0.11770000000000014,-88.54678025855264
-0.11870000000000003,-88.80142829252836
-0.11970000000000014,-89.15510611749461
-0.12070000000000003,-89.76343197643658
-0.12170000000000014,-90.37175783537855
-0.12270000000000003,-90.81031833833671
-0.12370000000000014,-91.07911348531105
-0.12470000000000003,-91.37620285828272
-0.12570000000000014,-91.94208737822873
-0.12670000000000003,-92.64944302816124
-0.12770000000000015,-93.08800353111941
-0.12870000000000004,-93.21532754810727
-0.12970000000000015,-93.42753424308701
-0.13070000000000004,-93.99341876303303
-0.13170000000000015,-94.70077441296557
-0.13270000000000004,-95.08274646392913
-0.13370000000000015,-95.18177625491967
-0.13470000000000004,-95.39398294989942
-0.13570000000000015,-95.87498479185354
-0.13670000000000004,-96.52575198979144
-0.13770000000000016,-96.87942981475771
-0.13870000000000005,-96.73795868477121
-0.13970000000000016,-97.00675383174556
-0.14070000000000005,-97.61507969068752
-0.14170000000000016,-98.2234055496295
-0.14270000000000005,-98.7892900695755
-0.14370000000000016,-99.05808521654988
-0.14470000000000005,-99.18540923353773
-0.14570000000000016,-99.49664571950804
-0.14670000000000005,-100.10497157844999
-0.14770000000000016,-100.670856098396
-0.14870000000000005,-100.79818011538387
-0.14970000000000017,-100.88306279337576
-0.15070000000000006,-101.44894731332178
-0.15170000000000017,-102.24118564124619
-0.15270000000000006,-102.67974614420436
-0.15370000000000017,-102.67974614420436
-0.15470000000000006,-102.80707016119221
-0.15570000000000017,-103.28807200314633
-0.15670000000000006,-103.81151518409638
-0.15770000000000017,-103.89639786208829
-0.15870000000000006,-103.76907384510045
-0.15970000000000018,-103.76907384510045
-0.16070000000000007,-104.12275167006669
-0.16170000000000018,-104.58960639902216
-0.16270000000000007,-104.85840154599651
-0.16370000000000018,-104.94328422398843
-0.16470000000000007,-105.11304957997223
-0.16570000000000018,-105.42428606594254
-0.16670000000000007,-105.82040522990474
-0.16770000000000018,-106.07505326388046
-0.16870000000000007,-106.11749460287639
-0.16970000000000018,-106.2589657328629
-0.17070000000000007,-106.68337912282242
-0.17170000000000019,-107.20682230377247
-0.17270000000000008,-107.51805878974278
-0.1737000000000002,-107.56050012873874
-0.17470000000000008,-107.64538280673065
-0.1757000000000002,-107.87173661470905
-0.17670000000000008,-108.43762113465506
-0.1777000000000002,-108.73471050762672
-0.17870000000000008,-108.77715184662266
-0.1797000000000002,-108.87618163761321
-0.18070000000000008,-109.25815368857677
-0.1817000000000002,-109.8240382085228
-0.18270000000000008,-110.1352746944931
-0.1837000000000002,-110.09283335549715
-0.1847000000000001,-110.26259871148096
-0.1857000000000002,-110.65871787544317
-0.1867000000000001,-111.13971971739728
-0.1877000000000002,-111.4509562033676
-0.1887000000000001,-111.394367751373
-0.1897000000000002,-111.35192641237703
-0.1907000000000001,-111.57828022035544
-0.1917000000000001,-112.01684072331359
-0.19269999999999998,-112.14416474030146
-0.1937000000000001,-112.10172340130552
-0.19469999999999998,-112.10172340130552
-0.1957000000000001,-112.48369545226906
-0.19669999999999999,-112.87981461623129
-0.1977000000000001,-113.00713863321914
-0.1987,-112.96469729422319
-0.1997000000000001,-113.06372708521374
-0.2007,-113.44569913617728
-0.2017000000000001,-113.92670097813141
-0.2027,-114.1530547861098
-0.2037000000000001,-114.1530547861098
-0.2047,-114.45014415908147
-0.2057000000000001,-114.93114600103557
-0.2067,-115.45458918198564
-0.2077000000000001,-115.68094298996405
-0.2087,-115.5819131989735
-0.2097000000000001,-115.62435453796945
-0.2107,-116.02047370193165
-0.2117000000000001,-116.45903420488982
-0.2127,-116.54391688288172
-0.2137000000000001,-116.45903420488982
-0.2147,-116.58635822187767
-0.2157000000000001,-116.94003604684394
-0.2167,-117.25127253281424
-0.21770000000000012,-117.42103788879804
-0.2187,-117.3785965498021
-0.21970000000000012,-117.3785965498021
-0.2207,-117.50592056678994
-0.22170000000000012,-117.85959839175621
-0.2227,-118.11424642573192
-0.22370000000000012,-117.94448106974811
-0.2247,-117.77471571376431
-0.22570000000000012,-118.07180508673595
-0.2267,-118.59524826768603
-0.22770000000000012,-118.76501362366983
-0.22870000000000001,-118.38304157270628
-0.22970000000000013,-118.15668776472786
-0.23070000000000002,-118.55280692869007
-0.23170000000000013,-118.99136743164823
-0.23270000000000002,-119.03380877064419
-0.23370000000000013,-118.94892609265229
-0.23470000000000002,-119.1186914486361
-0.23570000000000013,-119.47236927360234
-0.23670000000000002,-119.64213462958614
-0.2376999999999999,-119.5996932905902
-0.23870000000000002,-119.51481061259831
-0.2396999999999999,-119.51481061259831
-0.24070000000000003,-119.68457596858211
-0.24169999999999991,-119.99581245455242
-0.24270000000000003,-120.16557781053622
-0.24369999999999992,-120.12313647154028
-0.24470000000000003,-119.99581245455242
-0.24569999999999992,-120.29290182752408
-0.24670000000000003,-120.9153747994647
-0.24769999999999992,-121.0851401554485
-0.24870000000000003,-120.81634500847414
-0.24969999999999992,-120.56169697449842
-0.25070000000000003,-120.77390366947817
-0.2516999999999999,-121.17002283344038
-0.25270000000000004,-121.17002283344038
-0.2536999999999999,-120.9153747994647
-0.25470000000000004,-120.81634500847414
-0.2556999999999999,-121.04269881645253
-0.25670000000000004,-121.33978818942418
-0.25769999999999993,-121.43881798041474
-0.25870000000000004,-121.33978818942418
-0.25969999999999993,-121.38222952842017
-0.26070000000000004,-121.60858333639854
-0.26169999999999993,-121.90567270937021
-0.26270000000000004,-122.00470250036076
-0.26369999999999993,-121.73590735338641
-0.26470000000000005,-121.56614199740261
-0.26569999999999994,-121.65102467539451
-0.26670000000000005,-121.96226116136481
-0.26769999999999994,-122.0471438393567
-0.26870000000000005,-121.86323137037427
-0.26969999999999994,-121.86323137037427
-0.27070000000000005,-122.08958517835266
-0.27169999999999994,-122.30179187333242
-0.27270000000000005,-122.30179187333242
-0.27369999999999994,-122.08958517835266
-0.27470000000000006,-122.0471438393567
-0.27569999999999995,-122.30179187333242
-0.27670000000000006,-122.57058702030677
-0.27769999999999995,-122.57058702030677
-0.27870000000000006,-122.34423321232836
-0.27969999999999995,-122.1320265173486
-0.28070000000000006,-122.34423321232836
-0.28169999999999995,-122.65546969829869
-0.28270000000000006,-122.65546969829869
-0.28369999999999995,-122.34423321232836
-0.28470000000000006,-122.17446785634456
-0.28569999999999995,-122.30179187333242
-0.28670000000000007,-122.48570434231489
-0.28769999999999996,-122.52814568131083
-0.28870000000000007,-122.48570434231489
-0.28969999999999996,-122.42911589032028
-0.29070000000000007,-122.48570434231489
-0.29169999999999996,-122.61302835930273
-0.29270000000000007,-122.65546969829869
-0.29369999999999996,-122.48570434231489
-0.2947000000000001,-122.34423321232836
-0.29569999999999996,-122.48570434231489
-0.2967000000000001,-122.69791103729463
-0.29769999999999996,-122.74035237629057
-0.2987000000000001,-122.38667455132433
-0.29969999999999997,-122.08958517835266
-0.3007000000000001,-122.25935053433648
-0.30169999999999997,-122.86767639327843
-0.3027000000000001,-123.05158886226087
-0.30369999999999997,-122.86767639327843
-0.3047000000000001,-122.57058702030677
-0.30569999999999997,-122.61302835930273
-0.3067000000000001,-122.91011773227437
-0.3077,-123.00914752326493
-0.3087000000000001,-122.74035237629057
-0.3097,-122.52814568131083
-0.3107000000000001,-122.69791103729463
-0.3117,-123.00914752326493
-0.3127000000000001,-123.09403020125686
-0.3137,-122.95255907127036
-0.3147000000000001,-123.05158886226087
-0.3157,-123.43356091322445
-0.3167000000000001,-123.74479739919475
-0.3177,-123.78723873819072
-0.3187000000000001,-123.70235606019881
-0.3197,-123.65991472120285
-0.3207000000000001,-123.95700409417452
-0.3217,-124.39556459713268
-0.3227000000000001,-124.52288861412055
-0.3237,-124.39556459713268
-0.3247000000000001,-124.39556459713268
-0.3257,-124.57947706611512
-0.3267000000000001,-124.87656643908679
-0.3277,-124.87656643908679
-0.3287000000000001,-124.74924242209892
-0.3297,-124.74924242209892
-0.3307000000000001,-125.18780292505707
-0.3317,-125.62636342801528
-0.3327000000000001,-125.7536874450031
-0.3337,-125.62636342801528
-0.3347000000000001,-125.62636342801528
-0.3357,-125.88101146199097
-0.3367000000000001,-126.23468928695722
-0.3377,-126.23468928695722
-0.3387000000000001,-126.27713062595316
-0.3397,-126.57421999892482
-0.3407000000000001,-127.012780501883
-0.3417,-127.28157564885734
-0.3427000000000001,-127.32401698785328
-0.3437,-127.28157564885734
-0.3447000000000001,-127.45134100484115
-0.3457,-127.84746016880335
-0.3467000000000001,-128.2294322197669
-0.3477,-128.37090334975343
-0.3487000000000001,-128.41334468874936
-0.3497,-128.5831100447332
-0.3507000000000001,-129.02167054769134
-0.3517,-129.41778971165354
-0.3527000000000001,-129.58755506763737
-0.3537,-129.6299964066333
-0.3547000000000001,-129.75732042362114
-0.3557,-130.19588092657932
-0.35670000000000013,-130.59200009054155
-0.3577,-130.90323657651186
-0.35870000000000013,-130.98811925450374
-0.3597,-130.98811925450374
-0.36070000000000013,-131.2003259494835
-0.3617,-131.55400377444977
-0.3626999999999999,-131.80865180842545
-0.3637,-131.76621046942952
-0.3646999999999999,-131.72376913043357
-0.3657,-132.11988829439576
-0.3666999999999999,-132.72821415333775
-0.3677,-132.89797950932152
-0.3686999999999999,-132.8555381703256
-0.36970000000000003,-132.99700930031207
-0.3706999999999999,-133.52045248126214
-0.37170000000000003,-134.08633700120816
-0.3726999999999999,-134.38342637417986
-0.37370000000000003,-134.5107503911677
-0.3746999999999999,-134.69466286015015
-0.37570000000000003,-134.9068695551299
-0.3766999999999999,-135.26054738009617
-0.37770000000000004,-135.47275407507593
-0.3786999999999999,-135.51519541407185
-0.37970000000000004,-135.6142252050624
-0.3806999999999999,-136.08107993401788
-0.38170000000000004,-136.70355290595847
-0.38269999999999993,-136.95820093993422
-0.38370000000000004,-136.91575960093826
-0.38469999999999993,-137.08552495692206
-0.38570000000000004,-137.56652679887617
-0.38669999999999993,-136.51964043697603
-0.38570000000000004,-132.516007458358
-0.38469999999999993,-128.752875400717
-0.38370000000000004,-125.35756828104091
-0.38269999999999993,-122.25935053433648
-0.38170000000000004,-119.2884568046199
-0.3806999999999999,-116.28926884890602
-0.37970000000000004,-113.10616842420968
-0.3786999999999999,-110.1352746944931
-0.37770000000000004,-107.8292952757131
-0.3766999999999999,-105.69308121291688
-0.37570000000000003,-103.28807200314633
-0.3746999999999999,-100.79818011538387
-0.37370000000000003,-98.57708337459576
-0.3726999999999999,-96.52575198979144
-0.37170000000000003,-94.38953792699526
-0.3706999999999999,-92.29576520319499
-0.36970000000000003,-90.20199247939475
-0.3686999999999999,-88.19310243358639
-0.3677,-86.41056619575643
-0.3666999999999999,-84.7129126359184
-0.3657,-82.78890526810196
-0.3646999999999999,-80.65269120530574
-0.3637,-78.68624249849334
-0.3626999999999999,-77.20079563363505
-0.3617,-76.06902659374302
-0.36070000000000013,-74.76749219786718
-0.3597,-72.97080884703858
-0.35870000000000013,-71.18827260920865
-0.3577,-69.6603844053544
-0.35670000000000013,-68.30226155748396
-0.3557,-66.64704933664189
-0.3547000000000001,-64.72304196882543
-0.3537,-62.94050573099548
-0.3527000000000001,-61.49750020513315
-0.3517,-60.23840714825326
-0.3507000000000001,-58.66807760540307
-0.3497,-56.927982706569075
-0.3487000000000001,-55.484977180706736
-0.3477,-54.35320814081471
-0.3467000000000001,-53.16485064892808
-0.3457,-51.73599223606439
-0.3447000000000001,-50.20810403221015
-0.3437,-48.72265716735186
-0.3427000000000001,-47.46356411047198
-0.3417,-46.27520661858535
-0.3407000000000001,-45.01611356170547
-0.3397,-43.61554937483908
-0.3387000000000001,-42.31401497896325
-0.3377,-41.267128617063115
-0.3367000000000001,-40.26268359415894
-0.3357,-39.21579723225882
-0.3347000000000001,-37.85767438438838
-0.3337,-36.5985813275085
-0.3327000000000001,-35.679018982596226
-0.3317,-34.90092776767045
-0.3307000000000001,-33.89648274476628
-0.3297,-32.66568391388369
-0.3287000000000001,-31.57635621298762
-0.3277,-30.79826499806185
-0.3267000000000001,-30.147497800123933
-0.3257,-29.14305277721976
-0.3247000000000001,-27.869812607341224
-0.3237,-26.780484906445146
-0.3227000000000001,-26.002393691519377
-0.3217,-25.252596702590903
-0.3207000000000001,-24.20571034069078
-0.3197,-23.1163826397947
-0.3187000000000001,-22.111937616890522
-0.3177,-21.418729079956652
-0.3167000000000001,-20.810403221014692
-0.3157,-19.93328221509837
-0.3147000000000001,-18.88639585319824
-0.3137,-17.881950830294063
-0.3127000000000001,-17.188742293360193
-0.3117,-16.622857773414182
-0.3107000000000001,-15.70329542850191
-0.3097,-14.61396772760583
-0.3087000000000001,-13.698649516593148
-0.3077,-13.087494235051453
-0.3067000000000001,-12.56405105410139
-0.30569999999999997,-11.73503023238048
-0.3047000000000001,-10.731999920776168
-0.30369999999999997,-9.902979099055257
-0.3027000000000001,-9.335679867809377
-0.30169999999999997,-8.812236686859313
-0.3007000000000001,-8.027071915434218
-0.29969999999999997,-7.067897654125724
-0.2987000000000001,-6.238876832404812
-0.29769999999999996,-5.672992312458796
-0.2967000000000001,-5.191990470504685
-0.29569999999999996,-4.494537799671222
-0.2947000000000001,-3.579219588658543
-0.29369999999999996,-2.794054817233447
-0.29270000000000007,-2.3144676865791998
-0.29169999999999996,-1.8773218949209036
-0.29070000000000007,-1.1798692240874404
-0.28969999999999996,-0.30755823659065895
-0.28870000000000007,0.43403342679859325
-0.28769999999999996,0.9137620285828272
-0.28670000000000007,1.3063444142953748
-0.28569999999999995,1.9169338113171246
-0.28470000000000006,2.7898106833338523
-0.28369999999999995,3.4872633541673155
-0.28270000000000006,3.8791383842299307
-0.28169999999999995,4.272428125592412
-0.28070000000000006,4.883583407134107
-0.27969999999999995,5.667333467259336
-0.27870000000000006,6.366200849392665
-0.27769999999999995,6.75807587945528
-0.27670000000000006,7.107509570521944
-0.27569999999999995,7.7186648520636405
-0.27470000000000006,8.503829623488736
-0.27369999999999994,9.157426244026382
-0.27270000000000005,9.549301274088998
-0.27169999999999994,9.854878914859846
-0.27070000000000005,10.422178146105725
-0.26969999999999994,11.20734291753082
-0.26870000000000005,11.818498199072517
-0.26769999999999994,12.166517178839316
