Apr. 16, 2025   17:02:31
Cyclic Voltammetry
File: c:/users/guazh/data/banditlqround7_x0exp590_r20/2025-04-16-exp1100\exp1100-2025-04-16t16_56_15-h2koh\exp1100_cv_sr_200mvs_efin_-1400mv.bin
Data Source:  Experiment
Instrument Model:  CHI760E
Header: CV ran at 200 mVs
Note: 

Init E (V) = -1
High E (V) = -1
Low E (V) = -1.4
Final E (V) = -1
Init P/N = N
Scan Rate (V/s) = 0.2
Segment = 3
Sample Interval (V) = 0.001
Quiet Time (sec) = 2
Sensitivity (A/V) = 0.01
Comp R (ohm) = 1.8

Results:

Channel 1:
Segment 1:

Segment 2:

Segment 3:

Potential/V, Current/A

-1.000, 4.740e-5
-1.001, 1.880e-4
-1.002, 2.829e-4
-1.003, 3.544e-4
-1.004, 4.139e-4
-1.005, 4.568e-4
-1.006, 4.872e-4
-1.007, 5.172e-4
-1.008, 5.399e-4
-1.009, 5.520e-4
-1.010, 5.672e-4
-1.011, 5.837e-4
-1.012, 5.916e-4
-1.013, 5.968e-4
-1.014, 6.074e-4
-1.015, 6.129e-4
-1.016, 6.139e-4
-1.017, 6.225e-4
-1.018, 6.287e-4
-1.019, 6.288e-4
-1.020, 6.337e-4
-1.021, 6.401e-4
-1.022, 6.402e-4
-1.023, 6.420e-4
-1.024, 6.479e-4
-1.025, 6.489e-4
-1.026, 6.463e-4
-1.027, 6.502e-4
-1.028, 6.538e-4
-1.029, 6.503e-4
-1.030, 6.531e-4
-1.031, 6.578e-4
-1.032, 6.557e-4
-1.033, 6.547e-4
-1.034, 6.586e-4
-1.035, 6.577e-4
-1.036, 6.552e-4
-1.037, 6.577e-4
-1.038, 6.614e-4
-1.039, 6.585e-4
-1.040, 6.590e-4
-1.041, 6.635e-4
-1.042, 6.605e-4
-1.043, 6.587e-4
-1.044, 6.638e-4
-1.045, 6.634e-4
-1.046, 6.615e-4
-1.047, 6.652e-4
-1.048, 6.666e-4
-1.049, 6.636e-4
-1.050, 6.647e-4
-1.051, 6.685e-4
-1.052, 6.668e-4
-1.053, 6.643e-4
-1.054, 6.685e-4
-1.055, 6.685e-4
-1.056, 6.646e-4
-1.057, 6.689e-4
-1.058, 6.704e-4
-1.059, 6.670e-4
-1.060, 6.676e-4
-1.061, 6.709e-4
-1.062, 6.684e-4
-1.063, 6.669e-4
-1.064, 6.698e-4
-1.065, 6.693e-4
-1.066, 6.665e-4
-1.067, 6.697e-4
-1.068, 6.725e-4
-1.069, 6.684e-4
-1.070, 6.699e-4
-1.071, 6.743e-4
-1.072, 6.704e-4
-1.073, 6.689e-4
-1.074, 6.728e-4
-1.075, 6.743e-4
-1.076, 6.720e-4
-1.077, 6.738e-4
-1.078, 6.750e-4
-1.079, 6.713e-4
-1.080, 6.723e-4
-1.081, 6.775e-4
-1.082, 6.755e-4
-1.083, 6.734e-4
-1.084, 6.792e-4
-1.085, 6.788e-4
-1.086, 6.766e-4
-1.087, 6.802e-4
-1.088, 6.822e-4
-1.089, 6.787e-4
-1.090, 6.791e-4
-1.091, 6.822e-4
-1.092, 6.799e-4
-1.093, 6.786e-4
-1.094, 6.831e-4
-1.095, 6.835e-4
-1.096, 6.797e-4
-1.097, 6.823e-4
-1.098, 6.839e-4
-1.099, 6.794e-4
-1.100, 6.815e-4
-1.101, 6.854e-4
-1.102, 6.836e-4
-1.103, 6.824e-4
-1.104, 6.858e-4
-1.105, 6.862e-4
-1.106, 6.838e-4
-1.107, 6.869e-4
-1.108, 6.900e-4
-1.109, 6.860e-4
-1.110, 6.878e-4
-1.111, 6.932e-4
-1.112, 6.907e-4
-1.113, 6.901e-4
-1.114, 6.941e-4
-1.115, 6.923e-4
-1.116, 6.905e-4
-1.117, 6.921e-4
-1.118, 6.934e-4
-1.119, 6.905e-4
-1.120, 6.913e-4
-1.121, 6.955e-4
-1.122, 6.930e-4
-1.123, 6.923e-4
-1.124, 6.975e-4
-1.125, 6.969e-4
-1.126, 6.946e-4
-1.127, 6.983e-4
-1.128, 7.004e-4
-1.129, 6.980e-4
-1.130, 6.995e-4
-1.131, 7.030e-4
-1.132, 7.012e-4
-1.133, 6.987e-4
-1.134, 7.038e-4
-1.135, 7.041e-4
-1.136, 7.014e-4
-1.137, 7.053e-4
-1.138, 7.075e-4
-1.139, 7.044e-4
-1.140, 7.065e-4
-1.141, 7.101e-4
-1.142, 7.080e-4
-1.143, 7.081e-4
-1.144, 7.116e-4
-1.145, 7.120e-4
-1.146, 7.093e-4
-1.147, 7.123e-4
-1.148, 7.158e-4
-1.149, 7.129e-4
-1.150, 7.154e-4
-1.151, 7.200e-4
-1.152, 7.175e-4
-1.153, 7.168e-4
-1.154, 7.211e-4
-1.155, 7.209e-4
-1.156, 7.189e-4
-1.157, 7.219e-4
-1.158, 7.247e-4
-1.159, 7.212e-4
-1.160, 7.228e-4
-1.161, 7.289e-4
-1.162, 7.270e-4
-1.163, 7.258e-4
-1.164, 7.313e-4
-1.165, 7.297e-4
-1.166, 7.269e-4
-1.167, 7.313e-4
-1.168, 7.340e-4
-1.169, 7.311e-4
-1.170, 7.329e-4
-1.171, 7.363e-4
-1.172, 7.354e-4
-1.173, 7.339e-4
-1.174, 7.395e-4
-1.175, 7.403e-4
-1.176, 7.380e-4
-1.177, 7.431e-4
-1.178, 7.461e-4
-1.179, 7.424e-4
-1.180, 7.451e-4
-1.181, 7.485e-4
-1.182, 7.473e-4
-1.183, 7.472e-4
-1.184, 7.520e-4
-1.185, 7.530e-4
-1.186, 7.505e-4
-1.187, 7.552e-4
-1.188, 7.579e-4
-1.189, 7.544e-4
-1.190, 7.580e-4
-1.191, 7.636e-4
-1.192, 7.616e-4
-1.193, 7.628e-4
-1.194, 7.673e-4
-1.195, 7.676e-4
-1.196, 7.674e-4
-1.197, 7.711e-4
-1.198, 7.745e-4
-1.199, 7.730e-4
-1.200, 7.752e-4
-1.201, 7.818e-4
-1.202, 7.798e-4
-1.203, 7.799e-4
-1.204, 7.866e-4
-1.205, 7.869e-4
-1.206, 7.867e-4
-1.207, 7.916e-4
-1.208, 7.936e-4
-1.209, 7.904e-4
-1.210, 7.935e-4
-1.211, 7.983e-4
-1.212, 7.966e-4
-1.213, 7.975e-4
-1.214, 8.044e-4
-1.215, 8.060e-4
-1.216, 8.058e-4
-1.217, 8.119e-4
-1.218, 8.145e-4
-1.219, 8.130e-4
-1.220, 8.179e-4
-1.221, 8.240e-4
-1.222, 8.241e-4
-1.223, 8.263e-4
-1.224, 8.324e-4
-1.225, 8.345e-4
-1.226, 8.343e-4
-1.227, 8.404e-4
-1.228, 8.458e-4
-1.229, 8.484e-4
-1.230, 8.533e-4
-1.231, 8.586e-4
-1.232, 8.585e-4
-1.233, 8.615e-4
-1.234, 8.692e-4
-1.235, 8.728e-4
-1.236, 8.737e-4
-1.237, 8.794e-4
-1.238, 8.843e-4
-1.239, 8.840e-4
-1.240, 8.890e-4
-1.241, 8.971e-4
-1.242, 8.987e-4
-1.243, 9.025e-4
-1.244, 9.114e-4
-1.245, 9.142e-4
-1.246, 9.164e-4
-1.247, 9.258e-4
-1.248, 9.328e-4
-1.249, 9.328e-4
-1.250, 9.377e-4
-1.251, 9.455e-4
-1.252, 9.479e-4
-1.253, 9.528e-4
-1.254, 9.652e-4
-1.255, 9.722e-4
-1.256, 9.748e-4
-1.257, 9.838e-4
-1.258, 9.914e-4
-1.259, 9.940e-4
-1.260, 1.003e-3
-1.261, 1.013e-3
-1.262, 1.016e-3
-1.263, 1.022e-3
-1.264, 1.033e-3
-1.265, 1.041e-3
-1.266, 1.045e-3
-1.267, 1.057e-3
-1.268, 1.066e-3
-1.269, 1.070e-3
-1.270, 1.080e-3
-1.271, 1.091e-3
-1.272, 1.097e-3
-1.273, 1.105e-3
-1.274, 1.118e-3
-1.275, 1.127e-3
-1.276, 1.134e-3
-1.277, 1.147e-3
-1.278, 1.159e-3
-1.279, 1.166e-3
-1.280, 1.180e-3
-1.281, 1.192e-3
-1.282, 1.199e-3
-1.283, 1.208e-3
-1.284, 1.224e-3
-1.285, 1.234e-3
-1.286, 1.244e-3
-1.287, 1.261e-3
-1.288, 1.274e-3
-1.289, 1.285e-3
-1.290, 1.299e-3
-1.291, 1.316e-3
-1.292, 1.328e-3
-1.293, 1.342e-3
-1.294, 1.362e-3
-1.295, 1.376e-3
-1.296, 1.389e-3
-1.297, 1.407e-3
-1.298, 1.424e-3
-1.299, 1.436e-3
-1.300, 1.454e-3
-1.301, 1.473e-3
-1.302, 1.489e-3
-1.303, 1.505e-3
-1.304, 1.524e-3
-1.305, 1.539e-3
-1.306, 1.555e-3
-1.307, 1.580e-3
-1.308, 1.603e-3
-1.309, 1.619e-3
-1.310, 1.641e-3
-1.311, 1.666e-3
-1.312, 1.686e-3
-1.313, 1.709e-3
-1.314, 1.736e-3
-1.315, 1.757e-3
-1.316, 1.778e-3
-1.317, 1.802e-3
-1.318, 1.826e-3
-1.319, 1.847e-3
-1.320, 1.873e-3
-1.321, 1.903e-3
-1.322, 1.928e-3
-1.323, 1.953e-3
-1.324, 1.985e-3
-1.325, 2.009e-3
-1.326, 2.031e-3
-1.327, 2.060e-3
-1.328, 2.088e-3
-1.329, 2.114e-3
-1.330, 2.143e-3
-1.331, 2.174e-3
-1.332, 2.203e-3
-1.333, 2.233e-3
-1.334, 2.269e-3
-1.335, 2.301e-3
-1.336, 2.330e-3
-1.337, 2.366e-3
-1.338, 2.403e-3
-1.339, 2.435e-3
-1.340, 2.473e-3
-1.341, 2.515e-3
-1.342, 2.551e-3
-1.343, 2.587e-3
-1.344, 2.627e-3
-1.345, 2.663e-3
-1.346, 2.696e-3
-1.347, 2.735e-3
-1.348, 2.773e-3
-1.349, 2.810e-3
-1.350, 2.854e-3
-1.351, 2.898e-3
-1.352, 2.937e-3
-1.353, 2.979e-3
-1.354, 3.025e-3
-1.355, 3.066e-3
-1.356, 3.108e-3
-1.357, 3.154e-3
-1.358, 3.200e-3
-1.359, 3.241e-3
-1.360, 3.286e-3
-1.361, 3.336e-3
-1.362, 3.381e-3
-1.363, 3.428e-3
-1.364, 3.480e-3
-1.365, 3.527e-3
-1.366, 3.576e-3
-1.367, 3.630e-3
-1.368, 3.682e-3
-1.369, 3.730e-3
-1.370, 3.782e-3
-1.371, 3.836e-3
-1.372, 3.888e-3
-1.373, 3.942e-3
-1.374, 4.001e-3
-1.375, 4.057e-3
-1.376, 4.117e-3
-1.377, 4.181e-3
-1.378, 4.245e-3
-1.379, 4.303e-3
-1.380, 4.361e-3
-1.381, 4.419e-3
-1.382, 4.475e-3
-1.383, 4.534e-3
-1.384, 4.599e-3
-1.385, 4.657e-3
-1.386, 4.716e-3
-1.387, 4.781e-3
-1.388, 4.844e-3
-1.389, 4.901e-3
-1.390, 4.966e-3
-1.391, 5.034e-3
-1.392, 5.100e-3
-1.393, 5.169e-3
-1.394, 5.235e-3
-1.395, 5.301e-3
-1.396, 5.370e-3
-1.397, 5.449e-3
-1.398, 5.519e-3
-1.399, 5.581e-3
-1.400, 5.494e-3
-1.399, 5.278e-3
-1.398, 5.114e-3
-1.397, 4.981e-3
-1.396, 4.868e-3
-1.395, 4.758e-3
-1.394, 4.656e-3
-1.393, 4.564e-3
-1.392, 4.477e-3
-1.391, 4.384e-3
-1.390, 4.299e-3
-1.389, 4.219e-3
-1.388, 4.135e-3
-1.387, 4.056e-3
-1.386, 3.984e-3
-1.385, 3.903e-3
-1.384, 3.824e-3
-1.383, 3.751e-3
-1.382, 3.675e-3
-1.381, 3.596e-3
-1.380, 3.522e-3
-1.379, 3.451e-3
-1.378, 3.375e-3
-1.377, 3.301e-3
-1.376, 3.234e-3
-1.375, 3.162e-3
-1.374, 3.093e-3
-1.373, 3.031e-3
-1.372, 2.964e-3
-1.371, 2.899e-3
-1.370, 2.842e-3
-1.369, 2.783e-3
-1.368, 2.720e-3
-1.367, 2.660e-3
-1.366, 2.606e-3
-1.365, 2.544e-3
-1.364, 2.481e-3
-1.363, 2.426e-3
-1.362, 2.364e-3
-1.361, 2.297e-3
-1.360, 2.240e-3
-1.359, 2.187e-3
-1.358, 2.129e-3
-1.357, 2.074e-3
-1.356, 2.026e-3
-1.355, 1.972e-3
-1.354, 1.920e-3
-1.353, 1.874e-3
-1.352, 1.825e-3
-1.351, 1.772e-3
-1.350, 1.723e-3
-1.349, 1.678e-3
-1.348, 1.625e-3
-1.347, 1.579e-3
-1.346, 1.538e-3
-1.345, 1.490e-3
-1.344, 1.442e-3
-1.343, 1.400e-3
-1.342, 1.357e-3
-1.341, 1.310e-3
-1.340, 1.269e-3
-1.339, 1.231e-3
-1.338, 1.189e-3
-1.337, 1.146e-3
-1.336, 1.109e-3
-1.335, 1.070e-3
-1.334, 1.029e-3
-1.333, 9.979e-4
-1.332, 9.621e-4
-1.331, 9.201e-4
-1.330, 8.846e-4
-1.329, 8.529e-4
-1.328, 8.171e-4
-1.327, 7.816e-4
-1.326, 7.524e-4
-1.325, 7.177e-4
-1.324, 6.823e-4
-1.323, 6.550e-4
-1.322, 6.261e-4
-1.321, 5.915e-4
-1.320, 5.640e-4
-1.319, 5.367e-4
-1.318, 5.044e-4
-1.317, 4.750e-4
-1.316, 4.501e-4
-1.315, 4.212e-4
-1.314, 3.918e-4
-1.313, 3.684e-4
-1.312, 3.436e-4
-1.311, 3.140e-4
-1.310, 2.904e-4
-1.309, 2.686e-4
-1.308, 2.408e-4
-1.307, 2.171e-4
-1.306, 1.980e-4
-1.305, 1.725e-4
-1.304, 1.486e-4
-1.303, 1.303e-4
-1.302, 1.090e-4
-1.301, 8.438e-5
-1.300, 6.657e-5
-1.299, 4.806e-5
-1.298, 2.469e-5
-1.297, 4.497e-6
-1.296, -9.661e-6
-1.295, -3.085e-5
-1.294, -5.198e-5
-1.293, -6.545e-5
-1.292, -8.351e-5
-1.291, -1.045e-4
-1.290, -1.192e-4
-1.289, -1.329e-4
-1.288, -1.522e-4
-1.287, -1.684e-4
-1.286, -1.799e-4
-1.285, -1.963e-4
-1.284, -2.142e-4
-1.283, -2.248e-4
-1.282, -2.386e-4
-1.281, -2.567e-4
-1.280, -2.697e-4
-1.279, -2.800e-4
-1.278, -2.965e-4
-1.277, -3.093e-4
-1.276, -3.193e-4
-1.275, -3.326e-4
-1.274, -3.472e-4
-1.273, -3.549e-4
-1.272, -3.650e-4
-1.271, -3.798e-4
-1.270, -3.880e-4
-1.269, -3.950e-4
-1.268, -4.085e-4
-1.267, -4.186e-4
-1.266, -4.250e-4
-1.265, -4.366e-4
-1.264, -4.478e-4
-1.263, -4.542e-4
-1.262, -4.628e-4
-1.261, -4.750e-4
-1.260, -4.821e-4
-1.259, -4.876e-4
-1.258, -5.000e-4
-1.257, -5.091e-4
-1.256, -5.122e-4
-1.255, -5.220e-4
-1.254, -5.323e-4
-1.253, -5.360e-4
-1.252, -5.424e-4
-1.251, -5.528e-4
-1.250, -5.576e-4
-1.249, -5.624e-4
-1.248, -5.712e-4
-1.247, -5.789e-4
-1.246, -5.805e-4
-1.245, -5.888e-4
-1.244, -5.964e-4
-1.243, -5.986e-4
-1.242, -6.043e-4
-1.241, -6.135e-4
-1.240, -6.164e-4
-1.239, -6.192e-4
-1.238, -6.285e-4
-1.237, -6.335e-4
-1.236, -6.349e-4
-1.235, -6.416e-4
-1.234, -6.482e-4
-1.233, -6.493e-4
-1.232, -6.522e-4
-1.231, -6.608e-4
-1.230, -6.628e-4
-1.229, -6.669e-4
-1.228, -6.745e-4
-1.227, -6.773e-4
-1.226, -6.776e-4
-1.225, -6.835e-4
-1.224, -6.896e-4
-1.223, -6.893e-4
-1.222, -6.919e-4
-1.221, -6.971e-4
-1.220, -6.976e-4
-1.219, -6.966e-4
-1.218, -7.017e-4
-1.217, -7.058e-4
-1.216, -7.055e-4
-1.215, -7.121e-4
-1.214, -7.188e-4
-1.213, -7.171e-4
-1.212, -7.192e-4
-1.211, -7.239e-4
-1.210, -7.229e-4
-1.209, -7.233e-4
-1.208, -7.289e-4
-1.207, -7.324e-4
-1.206, -7.318e-4
-1.205, -7.364e-4
-1.204, -7.403e-4
-1.203, -7.385e-4
-1.202, -7.390e-4
-1.201, -7.452e-4
-1.200, -7.451e-4
-1.199, -7.460e-4
-1.198, -7.511e-4
-1.197, -7.523e-4
-1.196, -7.503e-4
-1.195, -7.544e-4
-1.194, -7.573e-4
-1.193, -7.543e-4
-1.192, -7.543e-4
-1.191, -7.605e-4
-1.190, -7.596e-4
-1.189, -7.581e-4
-1.188, -7.634e-4
-1.187, -7.646e-4
-1.186, -7.611e-4
-1.185, -7.649e-4
-1.184, -7.680e-4
-1.183, -7.653e-4
-1.182, -7.666e-4
-1.181, -7.713e-4
-1.180, -7.704e-4
-1.179, -7.684e-4
-1.178, -7.739e-4
-1.177, -7.763e-4
-1.176, -7.719e-4
-1.175, -7.751e-4
-1.174, -7.769e-4
-1.173, -7.727e-4
-1.172, -7.738e-4
-1.171, -7.790e-4
-1.170, -7.769e-4
-1.169, -7.768e-4
-1.168, -7.810e-4
-1.167, -7.818e-4
-1.166, -7.787e-4
-1.165, -7.809e-4
-1.164, -7.839e-4
-1.163, -7.795e-4
-1.162, -7.794e-4
-1.161, -7.837e-4
-1.160, -7.811e-4
-1.159, -7.794e-4
-1.158, -7.846e-4
-1.157, -7.852e-4
-1.156, -7.825e-4
-1.155, -7.848e-4
-1.154, -7.873e-4
-1.153, -7.850e-4
-1.152, -7.852e-4
-1.151, -7.894e-4
-1.150, -7.873e-4
-1.149, -7.844e-4
-1.148, -7.893e-4
-1.147, -7.891e-4
-1.146, -7.855e-4
-1.145, -7.877e-4
-1.144, -7.894e-4
-1.143, -7.869e-4
-1.142, -7.872e-4
-1.141, -7.904e-4
-1.140, -7.886e-4
-1.139, -7.860e-4
-1.138, -7.892e-4
-1.137, -7.903e-4
-1.136, -7.854e-4
-1.135, -7.891e-4
-1.134, -7.922e-4
-1.133, -7.883e-4
-1.132, -7.888e-4
-1.131, -7.935e-4
-1.130, -7.905e-4
-1.129, -7.885e-4
-1.128, -7.903e-4
-1.127, -7.915e-4
-1.126, -7.871e-4
-1.125, -7.896e-4
-1.124, -7.917e-4
-1.123, -7.873e-4
-1.122, -7.872e-4
-1.121, -7.913e-4
-1.120, -7.884e-4
-1.119, -7.877e-4
-1.118, -7.918e-4
-1.117, -7.922e-4
-1.116, -7.888e-4
-1.115, -7.908e-4
-1.114, -7.931e-4
-1.113, -7.898e-4
-1.112, -7.897e-4
-1.111, -7.933e-4
-1.110, -7.904e-4
-1.109, -7.874e-4
-1.108, -7.911e-4
-1.107, -7.909e-4
-1.106, -7.870e-4
-1.105, -7.904e-4
-1.104, -7.926e-4
-1.103, -7.902e-4
-1.102, -7.903e-4
-1.101, -7.940e-4
-1.100, -7.924e-4
-1.099, -7.884e-4
-1.098, -7.913e-4
-1.097, -7.921e-4
-1.096, -7.880e-4
-1.095, -7.908e-4
-1.094, -7.924e-4
-1.093, -7.883e-4
-1.092, -7.889e-4
-1.091, -7.933e-4
-1.090, -7.923e-4
-1.089, -7.922e-4
-1.088, -7.968e-4
-1.087, -7.978e-4
-1.086, -7.946e-4
-1.085, -7.949e-4
-1.084, -7.963e-4
-1.083, -7.930e-4
-1.082, -7.929e-4
-1.081, -7.973e-4
-1.080, -7.943e-4
-1.079, -7.923e-4
-1.078, -7.968e-4
-1.077, -7.961e-4
-1.076, -7.933e-4
-1.075, -7.984e-4
-1.074, -7.998e-4
-1.073, -7.950e-4
-1.072, -7.937e-4
-1.071, -7.978e-4
-1.070, -7.964e-4
-1.069, -7.951e-4
-1.068, -7.999e-4
-1.067, -8.005e-4
-1.066, -7.971e-4
-1.065, -8.009e-4
-1.064, -8.022e-4
-1.063, -7.990e-4
-1.062, -8.007e-4
-1.061, -8.054e-4
-1.060, -8.057e-4
-1.059, -8.035e-4
-1.058, -8.075e-4
-1.057, -8.087e-4
-1.056, -8.052e-4
-1.055, -8.089e-4
-1.054, -8.118e-4
-1.053, -8.090e-4
-1.052, -8.099e-4
-1.051, -8.152e-4
-1.050, -8.132e-4
-1.049, -8.109e-4
-1.048, -8.141e-4
-1.047, -8.155e-4
-1.046, -8.127e-4
-1.045, -8.164e-4
-1.044, -8.196e-4
-1.043, -8.168e-4
-1.042, -8.181e-4
-1.041, -8.242e-4
-1.040, -8.238e-4
-1.039, -8.241e-4
-1.038, -8.294e-4
-1.037, -8.288e-4
-1.036, -8.263e-4
-1.035, -8.295e-4
-1.034, -8.332e-4
-1.033, -8.312e-4
-1.032, -8.319e-4
-1.031, -8.387e-4
-1.030, -8.391e-4
-1.029, -8.391e-4
-1.028, -8.445e-4
-1.027, -8.454e-4
-1.026, -8.426e-4
-1.025, -8.476e-4
-1.024, -8.512e-4
-1.023, -8.496e-4
-1.022, -8.525e-4
-1.021, -8.577e-4
-1.020, -8.577e-4
-1.019, -8.585e-4
-1.018, -8.646e-4
-1.017, -8.668e-4
-1.016, -8.639e-4
-1.015, -8.698e-4
-1.014, -8.740e-4
-1.013, -8.736e-4
-1.012, -8.767e-4
-1.011, -8.824e-4
-1.010, -8.823e-4
-1.009, -8.847e-4
-1.008, -8.903e-4
-1.007, -8.925e-4
-1.006, -8.923e-4
-1.005, -8.979e-4
-1.004, -9.037e-4
-1.003, -9.036e-4
-1.002, -9.074e-4
-1.001, -9.152e-4
