Potential V vs RHE, Current mA cm-2
0.013299999999999867,-0.6564260431373771
0.012299999999999978,-3.2297858975918787
0.011299999999999866,-5.5414241615713475
0.010299999999999976,-7.635196885371603
0.009299999999999864,-9.59740145828441
0.008299999999999974,-11.385596541313816
0.007299999999999862,-13.043638184755638
0.006299999999999972,-14.57152638860988
0.00529999999999986,-15.972090575476265
0.0042999999999999705,-17.2736249713521
0.0032999999999998586,-18.49027668923603
0.0022999999999999687,-19.636192842126707
0.0012999999999998568,-20.72552054302279
0.00029999999999996696,-21.729965565926964
-0.000700000000000145,-22.67782213683654
-0.0017000000000000348,-23.597384481748815
-0.0027000000000001467,-24.432064148669184
-0.0037000000000000366,-25.252596702590903
-0.0047000000000001485,-25.959952352523427
-0.005700000000000038,-26.65316088945729
-0.00670000000000015,-27.303928087395207
-0.00770000000000004,-27.912253946337174
-0.008700000000000152,-28.435697127287238
-0.009700000000000042,-28.959140308237306
-0.010700000000000154,-29.440142150191413
-0.011700000000000044,-29.921143992145527
-0.012700000000000156,-30.359704495103685
-0.013700000000000045,-30.7558236590659
-0.014700000000000157,-31.137795710029454
-0.015700000000000047,-31.49147353499572
-0.01670000000000016,-31.887592698957924
-0.01770000000000005,-32.184682071929586
-0.01870000000000016,-32.49591855789989
-0.01970000000000005,-32.807155043870196
-0.020700000000000163,-33.06180307784591
-0.021700000000000053,-33.373039563816214
-0.022700000000000164,-33.58524625879597
-0.023700000000000054,-33.755011614779775
-0.024700000000000166,-33.98136542275818
-0.025700000000000056,-34.193572117737936
-0.026700000000000168,-34.377484586720385
-0.027700000000000058,-34.5472499427042
-0.02870000000000017,-34.67457395969205
-0.02970000000000006,-34.90092776767045
-0.03070000000000017,-35.07069312365426
-0.03170000000000006,-35.198017140642115
-0.03270000000000017,-35.32534115762997
-0.03370000000000006,-35.46681228761647
-0.034700000000000175,-35.594136304604326
-0.035700000000000065,-35.721460321592176
-0.03670000000000018,-35.806342999584075
-0.03770000000000007,-35.90537279057463
-0.03870000000000018,-35.94781412957058
-0.03970000000000007,-36.03269680756248
-0.04070000000000018,-36.07513814655844
-0.04170000000000007,-36.16002082455034
-0.04270000000000018,-36.20246216354629
-0.04370000000000007,-36.28734484153819
-0.044700000000000184,-36.329786180534136
-0.045700000000000074,-36.4288159715247
-0.046700000000000186,-36.5136986495166
-0.047700000000000076,-36.5136986495166
-0.04870000000000019,-36.5985813275085
-0.04970000000000008,-36.6834640055004
-0.05070000000000019,-36.6834640055004
-0.05170000000000008,-36.725905344496354
-0.05270000000000019,-36.768346683492304
-0.05370000000000008,-36.768346683492304
-0.05470000000000019,-36.81078802248826
-0.05570000000000008,-36.8532293614842
-0.056700000000000195,-36.8532293614842
-0.057700000000000085,-36.89567070048016
-0.058700000000000196,-36.89567070048016
-0.059700000000000086,-36.95225915247476
-0.0607000000000002,-36.99470049147071
-0.06170000000000009,-37.07958316946261
-0.0627000000000002,-37.122024508458566
-0.06370000000000009,-37.164465847454515
-0.0647000000000002,-37.206907186450465
-0.06570000000000009,-37.249348525446415
-0.0667000000000002,-37.249348525446415
-0.0677000000000001,-37.291789864442364
-0.0687000000000002,-37.291789864442364
-0.0697000000000001,-37.334231203438314
-0.07070000000000021,-37.334231203438314
-0.0717000000000001,-37.334231203438314
-0.07270000000000021,-37.334231203438314
-0.0737000000000001,-37.334231203438314
-0.07470000000000021,-37.376672542434264
-0.0757000000000001,-37.41911388143023
-0.07670000000000021,-37.47570233342482
-0.0777000000000001,-37.47570233342482
-0.07870000000000021,-37.56058501141672
-0.0797000000000001,-37.56058501141672
-0.08070000000000022,-37.60302635041268
-0.0817000000000001,-37.645467689408626
-0.08270000000000022,-37.60302635041268
-0.08370000000000011,-37.645467689408626
-0.08470000000000022,-37.60302635041268
-0.08570000000000011,-37.60302635041268
-0.08670000000000022,-37.645467689408626
-0.08770000000000011,-37.645467689408626
-0.08870000000000022,-37.645467689408626
-0.08970000000000011,-37.687909028404576
-0.09070000000000022,-37.687909028404576
-0.09170000000000011,-37.73035036740053
-0.09270000000000023,-37.77279170639648
-0.09370000000000012,-37.81523304539243
-0.09470000000000023,-37.85767438438838
-0.09570000000000012,-37.85767438438838
-0.09670000000000023,-37.90011572338433
-0.09770000000000012,-37.90011572338433
-0.09870000000000023,-37.90011572338433
-0.09970000000000012,-37.90011572338433
-0.10070000000000023,-37.90011572338433
-0.10170000000000012,-37.90011572338433
-0.10270000000000024,-37.94255706238028
-0.10370000000000013,-37.94255706238028
-0.10470000000000024,-37.99914551437489
-0.10570000000000013,-37.99914551437489
-0.10670000000000024,-38.08402819236679
-0.10770000000000013,-38.08402819236679
-0.10870000000000024,-38.16891087035869
-0.10970000000000013,-38.16891087035869
-0.11070000000000024,-38.211352209354644
-0.11170000000000013,-38.253793548350586
-0.11270000000000002,-38.29623488734655
-0.11370000000000013,-38.29623488734655
-0.11470000000000002,-38.29623488734655
-0.11570000000000014,-38.33867622634249
-0.11670000000000003,-38.33867622634249
-0.11770000000000014,-38.33867622634249
-0.11870000000000003,-38.38111756533845
-0.11970000000000014,-38.42355890433439
-0.12070000000000003,-38.46600024333035
-0.12170000000000014,-38.46600024333035
-0.12270000000000003,-38.522588695324956
-0.12370000000000014,-38.5650300343209
-0.12470000000000003,-38.607471373316855
-0.12570000000000014,-38.607471373316855
-0.12670000000000003,-38.6499127123128
-0.12770000000000015,-38.6499127123128
-0.12870000000000004,-38.692354051308754
-0.12970000000000015,-38.734795390304704
-0.13070000000000004,-38.692354051308754
-0.13170000000000015,-38.734795390304704
-0.13270000000000004,-38.777236729300654
-0.13370000000000015,-38.777236729300654
-0.13470000000000004,-38.81967806829661
-0.13570000000000015,-38.86211940729255
-0.13670000000000004,-38.90456074628851
-0.13770000000000016,-38.94700208528445
-0.13870000000000005,-38.98944342428042
-0.13970000000000016,-39.046031876275016
-0.14070000000000005,-39.08847321527096
-0.14170000000000016,-39.130914554266916
-0.14270000000000005,-39.173355893262865
-0.14370000000000016,-39.130914554266916
-0.14470000000000005,-39.173355893262865
-0.14570000000000016,-39.173355893262865
-0.14670000000000005,-39.173355893262865
-0.14770000000000016,-39.258238571254765
-0.14870000000000005,-39.258238571254765
-0.14970000000000017,-39.30067991025072
-0.15070000000000006,-39.34312124924667
-0.15170000000000017,-39.38556258824262
-0.15270000000000006,-39.42800392723857
-0.15370000000000017,-39.47044526623452
-0.15470000000000006,-39.51288660523048
-0.15570000000000017,-39.61191639622103
-0.15670000000000006,-39.61191639622103
-0.15770000000000017,-39.654357735216976
-0.15870000000000006,-39.696799074212926
-0.15970000000000018,-39.739240413208876
-0.16070000000000007,-39.739240413208876
-0.16170000000000018,-39.78168175220483
-0.16270000000000007,-39.82412309120078
-0.16370000000000018,-39.86656443019674
-0.16470000000000007,-39.99388844718459
-0.16570000000000018,-40.03632978618054
-0.16670000000000007,-40.092918238175145
-0.16770000000000018,-40.135359577171094
-0.16870000000000007,-40.220242255162994
-0.16970000000000018,-40.30512493315489
-0.17070000000000007,-40.34756627215084
-0.17170000000000019,-40.3900076111468
-0.17270000000000008,-40.43244895014274
-0.1737000000000002,-40.4748902891387
-0.17470000000000008,-40.51733162813464
-0.1757000000000002,-40.559772967130606
-0.17670000000000008,-40.616361419125205
-0.1777000000000002,-40.65880275812115
-0.17870000000000008,-40.701244097117105
-0.1797000000000002,-40.743685436113054
-0.18070000000000008,-40.828568114104954
-0.1817000000000002,-40.87100945310091
-0.18270000000000008,-40.95589213109281
-0.1837000000000002,-40.99833347008877
-0.1847000000000001,-41.083216148080666
-0.1857000000000002,-41.139804600075266
-0.1867000000000001,-41.182245939071215
-0.1877000000000002,-41.267128617063115
-0.1887000000000001,-41.30956995605907
-0.1897000000000002,-41.352011295055014
-0.1907000000000001,-41.43689397304693
-0.1917000000000001,-41.47933531204288
-0.19269999999999998,-41.52177665103883
-0.1937000000000001,-41.56421799003478
-0.19469999999999998,-41.66324778102533
-0.1957000000000001,-41.74813045901723
-0.19669999999999999,-41.79057179801318
-0.1977000000000001,-41.87545447600508
-0.1987,-41.96033715399699
-0.1997000000000001,-42.00277849299294
-0.2007,-42.087661170984845
-0.2017000000000001,-42.186690961975394
-0.2027,-42.229132300971344
-0.2037000000000001,-42.31401497896325
-0.2047,-42.3564563179592
-0.2057000000000001,-42.4413389959511
-0.2067,-42.483780334947056
-0.2077000000000001,-42.568663012938956
-0.2087,-42.653545690930855
-0.2097000000000001,-42.752575481921404
-0.2107,-42.837458159913304
-0.2117000000000001,-42.96478217690117
-0.2127,-43.007223515897124
-0.2137000000000001,-43.134547532884966
-0.2147,-43.23357732387552
-0.2157000000000001,-43.40334267985933
-0.2167,-43.48822535785123
-0.21770000000000012,-43.53066669684718
-0.2187,-43.61554937483908
-0.21970000000000012,-43.657990713835034
-0.2207,-43.75702050482558
-0.22170000000000012,-43.84190318281749
-0.2227,-43.92678586080939
-0.22370000000000012,-43.96922719980534
-0.2247,-44.096551216793195
-0.22570000000000012,-44.223875233781044
-0.2267,-44.3229050247716
-0.22770000000000012,-44.4077877027635
-0.22870000000000001,-44.535111719751356
-0.22970000000000013,-44.619994397743255
-0.23070000000000002,-44.704877075735155
-0.23170000000000013,-44.84634820572166
-0.23270000000000002,-44.93123088371356
-0.23370000000000013,-45.01611356170547
-0.23470000000000002,-45.10099623969737
-0.23570000000000013,-45.22832025668522
-0.23670000000000002,-45.27076159568118
-0.2376999999999999,-45.36979138667173
-0.23870000000000002,-45.45467406466363
-0.2396999999999999,-45.53955674265553
-0.24070000000000003,-45.666880759643384
-0.24169999999999991,-45.75176343763528
-0.24270000000000003,-45.89323456762179
-0.24369999999999992,-45.97811724561369
-0.24470000000000003,-46.062999923605595
-0.24569999999999992,-46.147882601597495
-0.24670000000000003,-46.27520661858535
-0.24769999999999992,-46.37423640957591
-0.24870000000000003,-46.501560426563756
-0.24969999999999992,-46.586443104555656
-0.25070000000000003,-46.67132578254756
-0.2516999999999999,-46.79864979953541
-0.25270000000000004,-46.88353247752732
-0.2536999999999999,-47.02500360751382
-0.25470000000000004,-47.15232762450167
-0.2556999999999999,-47.27965164148953
-0.25670000000000004,-47.46356411047198
-0.25769999999999993,-47.590888127459834
-0.25870000000000004,-47.76065348344364
-0.25969999999999993,-47.93041883942744
-0.26070000000000004,-48.071889969413945
-0.26169999999999993,-48.1992139864018
-0.26270000000000004,-48.32653800338966
-0.26369999999999993,-48.45386202037751
-0.26470000000000005,-48.59533315036401
-0.26569999999999994,-48.72265716735186
-0.26670000000000005,-48.89242252333566
-0.26769999999999994,-49.076334992318124
-0.26870000000000005,-49.20365900930597
-0.26969999999999994,-49.373424365289786
-0.27070000000000005,-49.557336834272235
-0.27169999999999994,-49.72710219025603
-0.27270000000000005,-49.89686754623985
-0.27369999999999994,-50.12322135421825
-0.27470000000000006,-50.2505453712061
-0.27569999999999995,-50.42031072718991
-0.27670000000000006,-50.60422319617236
-0.27769999999999995,-50.77398855215617
-0.27870000000000006,-50.90131256914402
-0.27969999999999995,-51.071077925127824
-0.28070000000000006,-51.25499039411028
-0.28169999999999995,-51.424755750094086
-0.28270000000000006,-51.55207976708194
-0.28369999999999995,-51.77843357506035
-0.28470000000000006,-51.948198931044146
-0.28569999999999995,-52.17455273902255
-0.28670000000000007,-52.386759434002315
-0.28769999999999996,-52.59896612898206
-0.28870000000000007,-52.86776127595642
-0.28969999999999996,-53.079967970936174
-0.29070000000000007,-53.30632177891458
-0.29169999999999996,-53.518528473894335
-0.29270000000000007,-53.74488228187274
-0.29369999999999996,-53.9570889768525
-0.2947000000000001,-54.2117370108282
-0.29569999999999996,-54.43809081880661
-0.2967000000000001,-54.69273885278232
-0.29769999999999996,-54.919092660760725
-0.2987000000000001,-55.17374069473642
-0.29969999999999997,-55.442535841710786
-0.3007000000000001,-55.73962521468245
-0.30169999999999997,-56.008420361656796
-0.3027000000000001,-56.30550973462846
-0.30369999999999997,-56.61674622059877
-0.3047000000000001,-56.927982706569075
-0.30569999999999997,-57.22507207954074
-0.3067000000000001,-57.493867226515086
-0.3077,-57.79095659948675
-0.3087000000000001,-58.10219308545706
-0.3097,-58.35684111943277
-0.3107000000000001,-58.66807760540307
-0.3117,-58.97931409137338
-0.3127000000000001,-59.27640346434504
-0.3137,-59.587639950315335
-0.3147000000000001,-59.92717066228296
-0.3157,-60.23840714825326
-0.3167000000000001,-60.59208497321952
-0.3177,-60.93161568518713
-0.3187000000000001,-61.327734849149344
-0.3197,-61.6814126741156
-0.3207000000000001,-62.02094338608321
-0.3217,-62.37462121104946
-0.3227000000000001,-62.77074037501168
-0.3237,-63.11027108697928
-0.3247000000000001,-63.46394891194555
-0.3257,-63.860068075907755
-0.3267000000000001,-64.25618723986996
-0.3277,-64.63815929083353
-0.3287000000000001,-64.99183711579978
-0.3297,-65.43039761875795
-0.3307000000000001,-65.82651678272015
-0.3317,-66.25093017267966
-0.3327000000000001,-66.64704933664189
-0.3337,-67.128051178596
-0.3347000000000001,-67.56661168155415
-0.3357,-68.04761352350828
-0.3367000000000001,-68.48617402646643
-0.3377,-68.96717586842054
-0.3387000000000001,-69.39158925838004
-0.3397,-69.87259110033416
-0.3407000000000001,-70.39603428128423
-0.3417,-70.8345947842424
-0.3427000000000001,-71.35803796519245
-0.3437,-71.8814811461425
-0.3447000000000001,-72.40492432709259
-0.3457,-72.92836750804264
-0.3467000000000001,-73.40936934999675
-0.3477,-73.97525386994278
-0.3487000000000001,-74.54113838988879
-0.3497,-75.06458157083884
-0.3507000000000001,-75.63046609078486
-0.3517,-76.19635061073087
-0.3527000000000001,-76.7622351306769
-0.3537,-77.34226676362155
-0.3547000000000001,-77.90815128356756
-0.3557,-78.51647714250953
-0.35670000000000013,-79.08236166245555
-0.3577,-79.69068752139752
-0.35870000000000013,-80.29901338033947
-0.3597,-80.9497805782774
-0.36070000000000013,-81.61469488921396
-0.3617,-82.22302074815593
-0.3626999999999999,-82.87378794609386
-0.3637,-83.56699648302772
-0.3646999999999999,-84.23191079396429
-0.3657,-84.92511933089816
-0.3666999999999999,-85.57588652883607
-0.3677,-86.28324217876859
-0.3686999999999999,-86.97645071570246
-0.36970000000000003,-87.66965925263632
-0.3706999999999999,-88.37701490256885
-0.37170000000000003,-89.11266477849867
-0.3726999999999999,-89.80587331543254
-0.37370000000000003,-90.55567030436099
-0.3746999999999999,-91.33376151928677
-0.37570000000000003,-92.12599984721119
-0.3766999999999999,-92.90409106213696
-0.37770000000000004,-93.73877072905732
-0.3786999999999999,-94.5168619439831
-0.37970000000000004,-95.35154161090348
-0.3806999999999999,-96.17207416482519
-0.38170000000000004,-97.00675383174556
-0.38269999999999993,-97.88387483766188
-0.38370000000000004,-98.66196605258766
-0.38469999999999993,-99.53908705850398
-0.38570000000000004,-100.35961961242569
-0.38669999999999993,-99.31273325052557
-0.38570000000000004,-95.08274646392913
-0.38469999999999993,-91.24887884129487
-0.38370000000000004,-87.79698326962418
-0.38269999999999993,-84.61388284492786
-0.38170000000000004,-81.65713622820991
-0.3806999999999999,-78.85600785447714
-0.37970000000000004,-76.29538040172143
-0.3786999999999999,-73.8479298529549
-0.37770000000000004,-71.52780332117625
-0.3766999999999999,-69.30670658038814
-0.37570000000000003,-67.17049251759194
-0.3746999999999999,-65.11916113278764
-0.37370000000000003,-63.20930087796983
-0.3726999999999999,-61.28529351015339
-0.37170000000000003,-59.44616882032884
-0.3706999999999999,-57.70607392149485
-0.36970000000000003,-55.96597902266086
-0.3686999999999999,-54.31076680181876
-0.3677,-52.69799591997262
-0.3666999999999999,-51.127666377122424
-0.3657,-49.59977817326819
-0.3646999999999999,-48.114331308409895
-0.3637,-46.628884443551605
-0.3626999999999999,-45.22832025668522
-0.3617,-43.79946184382153
-0.36070000000000013,-42.39889765695515
-0.3597,-41.04077480908471
-0.35870000000000013,-39.696799074212926
-0.3577,-38.42355890433439
-0.35670000000000013,-37.122024508458566
-0.3557,-35.848784338580025
-0.3547000000000001,-34.632132620696105
-0.3537,-33.41548090281216
-0.3527000000000001,-32.24127052392419
-0.3517,-31.052913032037555
-0.3507000000000001,-29.878702653149578
-0.3497,-28.789374952253496
-0.3487000000000001,-27.65760591236147
-0.3477,-26.568278211465387
-0.3467000000000001,-25.478950510569312
-0.3457,-24.389622809673234
-0.3447000000000001,-23.342736447773106
-0.3437,-22.253408746877028
-0.3427000000000001,-21.2065223849769
-0.3417,-20.159636023076775
-0.3407000000000001,-19.197632339168546
-0.3397,-18.19318731626437
-0.3387000000000001,-17.188742293360193
-0.3377,-16.269179948447924
-0.3367000000000001,-15.307176264539699
-0.3357,-14.401761032626075
-0.3347000000000001,-13.523225315409885
-0.3337,-12.56405105410139
-0.3327000000000001,-11.691174182084664
-0.3317,-10.819712021367803
-0.3307000000000001,-9.902979099055257
-0.3297,-9.031516938338395
-0.3287000000000001,-8.158640066321666
-0.3277,-7.329619244600755
-0.3267000000000001,-6.458157083883892
-0.3257,-5.629136262162981
-0.3247000000000001,-4.843971490737885
-0.3237,-4.014950669016974
-0.3227000000000001,-3.273641947887695
-0.3217,-2.4884771764625997
-0.3207000000000001,-1.7471684553333202
-0.3197,-1.0054353208140816
-0.3187000000000001,-0.26384365742482935
-0.3177,0.4776065348344364
-0.3167000000000001,1.219056727093702
-0.3157,1.9169338113171246
-0.3147000000000001,2.6143864821505876
-0.3137,3.355695203279867
-0.3127000000000001,4.01070653511738
-0.3117,4.708159205950842
-0.3107000000000001,5.3631705377883545
-0.3097,6.060623208621817
-0.3087000000000001,6.671778490163514
-0.3077,7.32537511070116
-0.3067000000000001,7.936530392242855
-0.30569999999999997,8.546270962484687
-0.3047000000000001,9.113570193730567
-0.30369999999999997,9.724725475272262
-0.3027000000000001,10.334466045514093
-0.30169999999999997,10.901765276759972
-0.3007000000000001,11.469064508005852
-0.29969999999999997,12.080219789547549
-0.2987000000000001,12.646104309493563
-0.29769999999999996,13.213403540739444
-0.2967000000000001,13.736846721689506
-0.29569999999999996,14.26028990263957
-0.2947000000000001,14.826174422585586
-0.29369999999999996,15.307176264539699
-0.29270000000000007,15.78817810649381
-0.29169999999999996,16.311621287443874
-0.29070000000000007,16.792623129397985
-0.28969999999999996,17.231183632356142
-0.28870000000000007,17.71218547431026
-0.28769999999999996,18.09415752527382
-0.28670000000000007,18.617600706223882
-0.28569999999999995,19.056161209182044
-0.28470000000000006,19.49472171214021
-0.28369999999999995,19.97572355409432
-0.28270000000000006,20.456725396048434
-0.28169999999999995,20.85284456001064
-0.28070000000000006,21.2348166109742
-0.27969999999999995,21.67337711393236
-0.27870000000000006,22.111937616890522
-0.27769999999999995,22.508056780852733
-0.27670000000000006,22.84758749282034
-0.27569999999999995,23.24370665678255
-0.27470000000000006,23.55494314275286
-0.27369999999999994,23.93691519371642
-0.27270000000000005,24.290593018682678
-0.27169999999999994,24.64427084364894
-0.27070000000000005,24.983801555616548
-0.26969999999999994,25.37992071957876
-0.26870000000000005,25.73359854454502
-0.26769999999999994,26.087276369511276
-0.26670000000000005,26.426807081478888
-0.26569999999999994,26.780484906445146
-0.26470000000000005,27.0775742794168
