Potential V vs RHE, Current mA cm-2
0.013299999999999867,-0.5255652478998613
0.012299999999999978,-2.052746096104168
0.011299999999999866,-3.273641947887695
0.010299999999999976,-4.23281620919619
0.009299999999999864,-5.105693081212917
0.008299999999999974,-5.847001802342197
0.007299999999999862,-6.54445447317566
0.006299999999999972,-7.199465805013171
0.00529999999999986,-7.635196885371603
0.0042999999999999705,-8.027071915434218
0.0032999999999998586,-8.332649556205066
0.0022999999999999687,-8.638227196975913
0.0012999999999998568,-8.943804837746763
0.00029999999999996696,-9.161670377925978
-0.000700000000000145,-9.335679867809377
-0.0017000000000000348,-9.467248018696827
-0.0027000000000001467,-9.511104068992642
-0.0037000000000000366,-9.685113558876042
-0.0047000000000001485,-9.85912304875944
-0.005700000000000038,-10.034547249942705
-0.00670000000000015,-10.208556739826104
-0.00770000000000004,-10.25241279012192
-0.008700000000000152,-10.208556739826104
-0.009700000000000042,-10.164700689530287
-0.010700000000000154,-10.164700689530287
-0.011700000000000044,-10.25241279012192
-0.012700000000000156,-10.340124890713554
-0.013700000000000045,-10.382566229709504
-0.014700000000000157,-10.382566229709504
-0.015700000000000047,-10.340124890713554
-0.01670000000000016,-10.382566229709504
-0.01770000000000005,-10.42642228000532
-0.01870000000000016,-10.470278330301136
-0.01970000000000005,-10.514134380596953
-0.020700000000000163,-10.514134380596953
-0.021700000000000053,-10.514134380596953
-0.022700000000000164,-10.470278330301136
-0.023700000000000054,-10.470278330301136
-0.024700000000000166,-10.514134380596953
-0.025700000000000056,-10.557990430892769
-0.026700000000000168,-10.557990430892769
-0.027700000000000058,-10.557990430892769
-0.02870000000000017,-10.470278330301136
-0.02970000000000006,-10.382566229709504
-0.03070000000000017,-10.382566229709504
-0.03170000000000006,-10.470278330301136
-0.03270000000000017,-10.514134380596953
-0.03370000000000006,-10.601846481188586
-0.034700000000000175,-10.601846481188586
-0.035700000000000065,-10.557990430892769
-0.03670000000000018,-10.470278330301136
-0.03770000000000007,-10.470278330301136
-0.03870000000000018,-10.514134380596953
-0.03970000000000007,-10.514134380596953
-0.04070000000000018,-10.557990430892769
-0.04170000000000007,-10.557990430892769
-0.04270000000000018,-10.514134380596953
-0.04370000000000007,-10.514134380596953
-0.044700000000000184,-10.557990430892769
-0.045700000000000074,-10.601846481188586
-0.046700000000000186,-10.644287820184536
-0.047700000000000076,-10.644287820184536
-0.04870000000000019,-10.601846481188586
-0.04970000000000008,-10.557990430892769
-0.05070000000000019,-10.514134380596953
-0.05170000000000008,-10.557990430892769
-0.05270000000000019,-10.601846481188586
-0.05370000000000008,-10.601846481188586
-0.05470000000000019,-10.601846481188586
-0.05570000000000008,-10.557990430892769
-0.056700000000000195,-10.514134380596953
-0.057700000000000085,-10.514134380596953
-0.058700000000000196,-10.557990430892769
-0.059700000000000086,-10.601846481188586
-0.0607000000000002,-10.601846481188586
-0.06170000000000009,-10.601846481188586
-0.0627000000000002,-10.557990430892769
-0.06370000000000009,-10.514134380596953
-0.0647000000000002,-10.557990430892769
-0.06570000000000009,-10.601846481188586
-0.0667000000000002,-10.644287820184536
-0.0677000000000001,-10.644287820184536
-0.0687000000000002,-10.601846481188586
-0.0697000000000001,-10.514134380596953
-0.07070000000000021,-10.470278330301136
-0.0717000000000001,-10.514134380596953
-0.07270000000000021,-10.557990430892769
-0.0737000000000001,-10.644287820184536
-0.07470000000000021,-10.644287820184536
-0.0757000000000001,-10.601846481188586
-0.07670000000000021,-10.557990430892769
-0.0777000000000001,-10.557990430892769
-0.07870000000000021,-10.557990430892769
-0.0797000000000001,-10.601846481188586
-0.08070000000000022,-10.601846481188586
-0.0817000000000001,-10.557990430892769
-0.08270000000000022,-10.514134380596953
-0.08370000000000011,-10.514134380596953
-0.08470000000000022,-10.514134380596953
-0.08570000000000011,-10.601846481188586
-0.08670000000000022,-10.601846481188586
-0.08770000000000011,-10.644287820184536
-0.08870000000000022,-10.557990430892769
-0.08970000000000011,-10.514134380596953
-0.09070000000000022,-10.470278330301136
-0.09170000000000011,-10.514134380596953
-0.09270000000000023,-10.557990430892769
-0.09370000000000012,-10.601846481188586
-0.09470000000000023,-10.601846481188586
-0.09570000000000012,-10.557990430892769
-0.09670000000000023,-10.514134380596953
-0.09770000000000012,-10.557990430892769
-0.09870000000000023,-10.557990430892769
-0.09970000000000012,-10.601846481188586
-0.10070000000000023,-10.644287820184536
-0.10170000000000012,-10.601846481188586
-0.10270000000000024,-10.514134380596953
-0.10370000000000013,-10.470278330301136
-0.10470000000000024,-10.514134380596953
-0.10570000000000013,-10.601846481188586
-0.10670000000000024,-10.688143870480351
-0.10770000000000013,-10.688143870480351
-0.10870000000000024,-10.644287820184536
-0.10970000000000013,-10.601846481188586
-0.11070000000000024,-10.601846481188586
-0.11170000000000013,-10.644287820184536
-0.11270000000000002,-10.688143870480351
-0.11370000000000013,-10.731999920776168
-0.11470000000000002,-10.688143870480351
-0.11570000000000014,-10.644287820184536
-0.11670000000000003,-10.601846481188586
-0.11770000000000014,-10.601846481188586
-0.11870000000000003,-10.644287820184536
-0.11970000000000014,-10.644287820184536
-0.12070000000000003,-10.688143870480351
-0.12170000000000014,-10.688143870480351
-0.12270000000000003,-10.644287820184536
-0.12370000000000014,-10.601846481188586
-0.12470000000000003,-10.644287820184536
-0.12570000000000014,-10.688143870480351
-0.12670000000000003,-10.731999920776168
-0.12770000000000015,-10.731999920776168
-0.12870000000000004,-10.731999920776168
-0.12970000000000015,-10.688143870480351
-0.13070000000000004,-10.688143870480351
-0.13170000000000015,-10.731999920776168
-0.13270000000000004,-10.775855971071984
-0.13370000000000015,-10.819712021367803
-0.13470000000000004,-10.819712021367803
-0.13570000000000015,-10.775855971071984
-0.13670000000000004,-10.731999920776168
-0.13770000000000016,-10.731999920776168
-0.13870000000000005,-10.819712021367803
-0.13970000000000016,-10.863568071663616
-0.14070000000000005,-10.906009410659568
-0.14170000000000016,-10.863568071663616
-0.14270000000000005,-10.819712021367803
-0.14370000000000016,-10.775855971071984
-0.14470000000000005,-10.775855971071984
-0.14570000000000016,-10.863568071663616
-0.14670000000000005,-10.906009410659568
-0.14770000000000016,-10.906009410659568
-0.14870000000000005,-10.906009410659568
-0.14970000000000017,-10.863568071663616
-0.15070000000000006,-10.863568071663616
-0.15170000000000017,-10.906009410659568
-0.15270000000000006,-10.949865460955383
-0.15370000000000017,-10.993721511251199
-0.15470000000000006,-10.993721511251199
-0.15570000000000017,-10.949865460955383
-0.15670000000000006,-10.906009410659568
-0.15770000000000017,-10.906009410659568
-0.15870000000000006,-10.993721511251199
-0.15970000000000018,-11.037577561547016
-0.16070000000000007,-11.081433611842833
-0.16170000000000018,-11.037577561547016
-0.16270000000000007,-10.993721511251199
-0.16370000000000018,-10.993721511251199
-0.16470000000000007,-11.037577561547016
-0.16570000000000018,-11.123874950838783
-0.16670000000000007,-11.1677310011346
-0.16770000000000018,-11.1677310011346
-0.16870000000000007,-11.1677310011346
-0.16970000000000018,-11.123874950838783
-0.17070000000000007,-11.123874950838783
-0.17170000000000019,-11.1677310011346
-0.17270000000000008,-11.255443101726232
-0.1737000000000002,-11.255443101726232
-0.17470000000000008,-11.299299152022046
-0.1757000000000002,-11.255443101726232
-0.17670000000000008,-11.255443101726232
-0.1777000000000002,-11.255443101726232
-0.17870000000000008,-11.343155202317865
-0.1797000000000002,-11.42945259160963
-0.18070000000000008,-11.42945259160963
-0.1817000000000002,-11.42945259160963
-0.18270000000000008,-11.385596541313816
-0.1837000000000002,-11.385596541313816
-0.1847000000000001,-11.42945259160963
-0.1857000000000002,-11.517164692201263
-0.1867000000000001,-11.604876792792895
-0.1877000000000002,-11.691174182084664
-0.1887000000000001,-11.647318131788847
-0.1897000000000002,-11.691174182084664
-0.1907000000000001,-11.73503023238048
-0.1917000000000001,-11.778886282676295
-0.19269999999999998,-11.909039722263879
-0.1937000000000001,-11.952895772559694
-0.19469999999999998,-11.952895772559694
-0.1957000000000001,-11.952895772559694
-0.19669999999999999,-11.909039722263879
-0.1977000000000001,-11.952895772559694
-0.1987,-12.040607873151327
-0.1997000000000001,-12.170761312738911
-0.2007,-12.214617363034726
-0.2017000000000001,-12.214617363034726
-0.2027,-12.214617363034726
-0.2037000000000001,-12.214617363034726
-0.2047,-12.258473413330542
-0.2057000000000001,-12.346185513922174
-0.2067,-12.432482903213943
-0.2077000000000001,-12.520195003805576
-0.2087,-12.520195003805576
-0.2097000000000001,-12.520195003805576
-0.2107,-12.56405105410139
-0.2117000000000001,-12.694204493688973
-0.2127,-12.825772644576423
-0.2137000000000001,-12.955926084164007
-0.2147,-12.99978213445982
-0.2157000000000001,-13.043638184755638
-0.2167,-13.043638184755638
-0.21770000000000012,-13.087494235051453
-0.2187,-13.175206335643086
-0.21970000000000012,-13.349215825526485
-0.2207,-13.3930718758223
-0.22170000000000012,-13.436927926118118
-0.2227,-13.47936926511407
-0.22370000000000012,-13.523225315409885
-0.2247,-13.654793466297335
-0.22570000000000012,-13.784946905884919
-0.2267,-13.916515056772363
-0.22770000000000012,-14.046668496359947
-0.22870000000000001,-14.090524546655764
-0.22970000000000013,-14.13438059695158
-0.23070000000000002,-14.217848563643619
-0.23170000000000013,-14.345172580631472
-0.23270000000000002,-14.486643710617974
-0.23370000000000013,-14.61396772760583
-0.23470000000000002,-14.69885040559773
-0.23570000000000013,-14.741291744593681
-0.23670000000000002,-14.826174422585586
-0.2376999999999999,-15.01008689156804
-0.23870000000000002,-15.222293586547794
-0.2396999999999999,-15.448647394526201
-0.24070000000000003,-15.575971411514052
-0.24169999999999991,-15.618412750510005
-0.24270000000000003,-15.618412750510005
-0.24369999999999992,-15.660854089505953
-0.24470000000000003,-15.830619445489761
-0.24569999999999992,-16.056973253468165
-0.24670000000000003,-16.354062626439823
-0.24769999999999992,-16.622857773414182
-0.24870000000000003,-16.792623129397985
-0.24969999999999992,-16.835064468393938
-0.25070000000000003,-16.962388485381787
-0.2516999999999999,-17.061418276372343
-0.25270000000000004,-17.231183632356142
-0.2536999999999999,-17.40094898833995
-0.25470000000000004,-17.584861457322408
-0.2556999999999999,-17.75462681330621
-0.25670000000000004,-18.009274847281915
-0.25769999999999993,-18.320511333252224
-0.25870000000000004,-18.631747819222536
-0.25969999999999993,-18.88639585319824
-0.26070000000000004,-18.97127853119014
-0.26169999999999993,-19.056161209182044
-0.26270000000000004,-19.112749661176647
-0.26369999999999993,-19.2400736781645
-0.26470000000000005,-19.537163051136158
-0.26569999999999994,-19.890840876102416
-0.26670000000000005,-20.286960040064624
-0.26769999999999994,-20.584049413036283
-0.26870000000000005,-20.810403221014692
-0.26969999999999994,-20.980168576998494
-0.27070000000000005,-21.149933932982297
-0.27169999999999994,-21.376287740960702
-0.27270000000000005,-21.58849443594046
-0.27369999999999994,-21.899730921910766
-0.27470000000000006,-22.15437895588647
-0.27569999999999995,-22.508056780852733
-0.27670000000000006,-22.861734605818995
-0.27769999999999995,-23.2012653177866
-0.27870000000000006,-23.55494314275286
-0.27969999999999995,-23.86617962872317
-0.28070000000000006,-24.120827662698876
-0.28169999999999995,-24.389622809673234
-0.28270000000000006,-24.601829504652986
-0.28369999999999995,-24.95550732961925
-0.28470000000000006,-25.295038041586857
-0.28569999999999995,-25.73359854454502
-0.28670000000000007,-26.17215904750318
-0.28769999999999996,-26.61071955046134
-0.28870000000000007,-26.9643973754276
-0.28969999999999996,-27.261486748399253
-0.29070000000000007,-27.615164573365515
-0.29169999999999996,-28.011283737327723
-0.29270000000000007,-28.393255788291288
-0.29369999999999996,-28.831816291249446
-0.2947000000000001,-29.22793545521166
-0.29569999999999996,-29.581613280177915
-0.2967000000000001,-29.96358533114148
-0.29769999999999996,-30.359704495103685
-0.2987000000000001,-30.8407063370578
-0.29969999999999997,-31.36414951800786
-0.3007000000000001,-31.84515135996197
-0.30169999999999997,-32.283711862920136
-0.3027000000000001,-32.70812525287965
-0.30369999999999997,-33.14668575583781
-0.3047000000000001,-33.670128936787876
-0.30569999999999997,-34.236013456733886
-0.3067000000000001,-34.75945663768395
-0.3077,-35.282899818634014
-0.3087000000000001,-35.763901660588125
-0.3097,-36.20246216354629
-0.3107000000000001,-36.6834640055004
-0.3117,-37.164465847454515
-0.3127000000000001,-37.73035036740053
-0.3137,-38.253793548350586
-0.3147000000000001,-38.81967806829661
-0.3157,-39.34312124924667
-0.3167000000000001,-39.82412309120078
-0.3177,-40.43244895014274
-0.3187000000000001,-41.139804600075266
-0.3197,-41.83301313700913
-0.3207000000000001,-42.483780334947056
-0.3217,-43.04966485489307
-0.3227000000000001,-43.53066669684718
-0.3237,-44.011668538801295
-0.3247000000000001,-44.577553058747306
-0.3257,-45.22832025668522
-0.3267000000000001,-45.97811724561369
-0.3277,-46.586443104555656
-0.3287000000000001,-47.23721030249357
-0.3297,-47.84553616143554
-0.3307000000000001,-48.51045047237211
-0.3317,-49.16121767031002
-0.3327000000000001,-49.85442620724389
-0.3337,-50.50519340518181
-0.3347000000000001,-51.127666377122424
-0.3357,-51.73599223606439
-0.3367000000000001,-52.386759434002315
-0.3377,-53.079967970936174
-0.3387000000000001,-53.82976495986464
-0.3397,-54.56541483579447
-0.3407000000000001,-55.25862337272834
-0.3417,-55.881096344668954
-0.3427000000000001,-56.489422203610914
-0.3437,-57.14018940154883
-0.3447000000000001,-57.93242772947325
-0.3457,-58.71051894439902
-0.3467000000000001,-59.502757272323436
-0.3477,-60.23840714825326
-0.3487000000000001,-60.974057024183075
-0.3497,-61.851178030099405
-0.3507000000000001,-62.855623053003576
-0.3517,-63.81762673691181
-0.3527000000000001,-64.68060062982947
-0.3537,-65.4728389577539
-0.3547000000000001,-66.16604749468777
-0.3557,-67.00072716160814
-0.35670000000000013,-67.86370105452582
-0.3577,-68.78326339943808
-0.35870000000000013,-69.74526708334632
-0.3597,-70.62238808926263
-0.36070000000000013,-71.48536198218031
-0.3617,-72.32004164910067
-0.3626999999999999,-73.197162655017
-0.3637,-74.20160767792116
-0.3646999999999999,-75.29093537881725
-0.3657,-76.38026307971333
-0.3666999999999999,-77.28567831162695
-0.3677,-78.03547530055542
-0.3686999999999999,-78.64380115949739
-0.36970000000000003,-79.25212701843935
-0.3706999999999999,-80.00192400736783
-0.37170000000000003,-80.9497805782774
-0.3726999999999999,-82.09569673116808
-0.37370000000000003,-83.26990711005605
-0.3746999999999999,-84.35923481095215
-0.37570000000000003,-85.32123849486035
-0.3766999999999999,-86.18421238777805
-0.37770000000000004,-87.01889205469841
-0.3786999999999999,-87.79698326962418
-0.37970000000000004,-88.71654561453644
-0.3806999999999999,-89.72099063744062
-0.38170000000000004,-90.7254356603448
-0.38269999999999993,-91.77232202224494
-0.38370000000000004,-92.7767670451491
-0.38469999999999993,-93.78121206805329
-0.38570000000000004,-94.78565709095746
-0.38669999999999993,-94.55930328297906
-0.38570000000000004,-92.50797189817473
-0.38469999999999993,-90.81031833833671
-0.38370000000000004,-89.36731281247435
-0.38269999999999993,-88.06577841659853
-0.38170000000000004,-86.80668535971866
-0.3806999999999999,-85.57588652883607
-0.37970000000000004,-84.40167614994809
-0.3786999999999999,-83.22746577106011
-0.37770000000000004,-82.13813807016405
-0.3766999999999999,-81.09125170826391
-0.37570000000000003,-80.00192400736783
-0.3746999999999999,-78.9550376454677
-0.37370000000000003,-77.80912149257702
-0.3726999999999999,-76.67735245268499
-0.37170000000000003,-75.50314207379701
-0.3706999999999999,-74.28649035591307
-0.36970000000000003,-72.92836750804264
-0.3686999999999999,-72.05124650212633
-0.3677,-71.75415712915466
-0.3666999999999999,-71.27315528720055
-0.3657,-70.39603428128423
-0.3646999999999999,-69.22182390239624
-0.3637,-67.7788183765339
-0.3626999999999999,-66.47728398065809
-0.3617,-65.43039761875795
-0.36070000000000013,-64.63815929083353
-0.3597,-63.902509414903705
-0.35870000000000013,-62.94050573099548
-0.3577,-61.936060708091304
-0.35670000000000013,-60.889174346191176
-0.3557,-59.9696120012789
-0.3547000000000001,-59.23396212534908
-0.3537,-58.583194927411164
-0.3527000000000001,-57.79095659948675
-0.3517,-56.88554136757313
-0.3507000000000001,-55.73962521468245
-0.3497,-54.60785617479041
-0.3487000000000001,-53.68829382987814
-0.3477,-52.91020261495237
-0.3467000000000001,-52.2169940780185
-0.3457,-51.424755750094086
-0.3447000000000001,-50.60422319617236
-0.3437,-49.642219512264134
-0.3427000000000001,-48.63777448935996
-0.3417,-47.76065348344364
-0.3407000000000001,-46.94012092952192
-0.3397,-46.062999923605595
-0.3387000000000001,-45.32735004767578
-0.3377,-44.4926703807554
-0.3367000000000001,-43.70043205283099
-0.3357,-42.87989949890926
-0.3347000000000001,-42.087661170984845
-0.3337,-41.267128617063115
-0.3327000000000001,-40.43244895014274
-0.3317,-39.61191639622103
-0.3307000000000001,-38.81967806829661
-0.3297,-38.08402819236679
-0.3287000000000001,-37.41911388143023
-0.3277,-36.768346683492304
-0.3267000000000001,-36.07513814655844
-0.3257,-35.32534115762997
-0.3247000000000001,-34.50480860370825
-0.3237,-33.670128936787876
-0.3227000000000001,-32.892037721862096
-0.3217,-32.184682071929586
-0.3207000000000001,-31.57635621298762
-0.3197,-30.925589015049702
-0.3187000000000001,-30.232380478115836
-0.3177,-29.482583489187363
-0.3167000000000001,-28.746933613257543
-0.3157,-28.011283737327723
-0.3147000000000001,-27.34636942639116
-0.3137,-26.69560222845324
-0.3127000000000001,-26.002393691519377
-0.3117,-25.295038041586857
-0.3107000000000001,-24.559388165657033
-0.3097,-23.86617962872317
-0.3087000000000001,-23.24370665678255
-0.3077,-22.67782213683654
-0.3067000000000001,-22.111937616890522
-0.30569999999999997,-21.503611757948562
-0.3047000000000001,-20.810403221014692
-0.30369999999999997,-20.159636023076775
-0.3027000000000001,-19.537163051136158
-0.30169999999999997,-18.97127853119014
-0.3007000000000001,-18.44783535024008
-0.29969999999999997,-17.924392169290012
-0.2987000000000001,-17.358507649344002
-0.29769999999999996,-16.792623129397985
-0.2967000000000001,-16.184297270456018
-0.29569999999999996,-15.618412750510005
-0.2947000000000001,-15.094969569559943
-0.29369999999999996,-14.61396772760583
-0.29270000000000007,-14.090524546655764
-0.29169999999999996,-13.567081365705702
-0.29070000000000007,-12.99978213445982
-0.28969999999999996,-12.432482903213943
-0.28870000000000007,-11.952895772559694
-0.28769999999999996,-11.517164692201263
-0.28670000000000007,-11.037577561547016
-0.28569999999999995,-10.557990430892769
-0.28470000000000006,-9.99069119964689
-0.28369999999999995,-9.467248018696827
-0.28270000000000006,-8.943804837746763
-0.28169999999999995,-8.508073757388331
-0.28070000000000006,-8.11478401602585
-0.27969999999999995,-7.722908985963235
-0.27870000000000006,-7.28576319430494
-0.27769999999999995,-6.850032113946507
-0.27670000000000006,-6.37044498329226
-0.27569999999999995,-5.9347139029338285
-0.27470000000000006,-5.5414241615713475
-0.27369999999999994,-5.191990470504685
-0.27270000000000005,-4.843971490737885
-0.27169999999999994,-4.406825699079589
-0.27070000000000005,-3.971094618721158
-0.26969999999999994,-3.5353635383627267
