Potential V vs RHE, Current mA cm-2
0.013299999999999867,-0.4384190318281749
0.012299999999999978,-2.008890045808352
0.011299999999999866,-3.447651437771094
0.010299999999999976,-4.756259390146253
0.009299999999999864,-5.977155241929781
0.008299999999999974,-7.111753704421539
0.007299999999999862,-8.158640066321666
0.006299999999999972,-9.073958277334345
0.00529999999999986,-9.946835149351072
0.0042999999999999705,-10.775855971071984
0.0032999999999998586,-11.517164692201263
0.0022999999999999687,-12.170761312738911
0.0012999999999998568,-12.825772644576423
0.00029999999999996696,-13.349215825526485
-0.000700000000000145,-13.872659006476551
-0.0017000000000000348,-14.345172580631472
-0.0027000000000001467,-14.826174422585586
-0.0037000000000000366,-15.264734925543747
-0.0047000000000001485,-15.660854089505953
-0.005700000000000038,-16.056973253468165
-0.00670000000000015,-16.438945304431726
-0.00770000000000004,-16.750181790402035
-0.008700000000000152,-17.018976937376394
-0.009700000000000042,-17.231183632356142
-0.010700000000000154,-17.48583166633185
-0.011700000000000044,-17.669744135314307
-0.012700000000000156,-17.839509491298113
-0.013700000000000045,-18.009274847281915
-0.014700000000000157,-18.19318731626437
-0.015700000000000047,-18.362952672248177
-0.01670000000000016,-18.53271802823198
-0.01770000000000005,-18.759071836210385
-0.01870000000000016,-18.92883719219419
-0.01970000000000005,-19.112749661176647
-0.020700000000000163,-19.2400736781645
-0.021700000000000053,-19.367397695152352
-0.022700000000000164,-19.452280373144255
-0.023700000000000054,-19.49472171214021
-0.024700000000000166,-19.579604390132108
-0.025700000000000056,-19.636192842126707
-0.026700000000000168,-19.678634181122664
-0.027700000000000058,-19.763516859114564
-0.02870000000000017,-19.805958198110513
-0.02970000000000006,-19.848399537106463
-0.03070000000000017,-19.93328221509837
-0.03170000000000006,-19.97572355409432
-0.03270000000000017,-20.06060623208622
-0.03370000000000006,-20.10304757108217
-0.034700000000000175,-20.159636023076775
-0.035700000000000065,-20.202077362072725
-0.03670000000000018,-20.202077362072725
-0.03770000000000007,-20.202077362072725
-0.03870000000000018,-20.244518701068674
-0.03970000000000007,-20.202077362072725
-0.04070000000000018,-20.202077362072725
-0.04170000000000007,-20.244518701068674
-0.04270000000000018,-20.244518701068674
-0.04370000000000007,-20.286960040064624
-0.044700000000000184,-20.329401379060574
-0.045700000000000074,-20.371842718056527
-0.046700000000000186,-20.414284057052477
-0.047700000000000076,-20.456725396048434
-0.04870000000000019,-20.456725396048434
-0.04970000000000008,-20.456725396048434
-0.05070000000000019,-20.456725396048434
-0.05170000000000008,-20.456725396048434
-0.05270000000000019,-20.414284057052477
-0.05370000000000008,-20.371842718056527
-0.05470000000000019,-20.371842718056527
-0.05570000000000008,-20.371842718056527
-0.056700000000000195,-20.414284057052477
-0.057700000000000085,-20.414284057052477
-0.058700000000000196,-20.414284057052477
-0.059700000000000086,-20.456725396048434
-0.0607000000000002,-20.499166735044383
-0.06170000000000009,-20.541608074040333
-0.0627000000000002,-20.584049413036283
-0.06370000000000009,-20.541608074040333
-0.0647000000000002,-20.541608074040333
-0.06570000000000009,-20.499166735044383
-0.0667000000000002,-20.499166735044383
-0.0677000000000001,-20.499166735044383
-0.0687000000000002,-20.456725396048434
-0.0697000000000001,-20.499166735044383
-0.07070000000000021,-20.499166735044383
-0.0717000000000001,-20.499166735044383
-0.07270000000000021,-20.541608074040333
-0.0737000000000001,-20.541608074040333
-0.07470000000000021,-20.541608074040333
-0.0757000000000001,-20.541608074040333
-0.07670000000000021,-20.541608074040333
-0.0777000000000001,-20.499166735044383
-0.07870000000000021,-20.456725396048434
-0.0797000000000001,-20.456725396048434
-0.08070000000000022,-20.456725396048434
-0.0817000000000001,-20.456725396048434
-0.08270000000000022,-20.456725396048434
-0.08370000000000011,-20.499166735044383
-0.08470000000000022,-20.499166735044383
-0.08570000000000011,-20.541608074040333
-0.08670000000000022,-20.584049413036283
-0.08770000000000011,-20.626490752032236
-0.08870000000000022,-20.626490752032236
-0.08970000000000011,-20.626490752032236
-0.09070000000000022,-20.626490752032236
-0.09170000000000011,-20.626490752032236
-0.09270000000000023,-20.541608074040333
-0.09370000000000012,-20.541608074040333
-0.09470000000000023,-20.541608074040333
-0.09570000000000012,-20.541608074040333
-0.09670000000000023,-20.541608074040333
-0.09770000000000012,-20.541608074040333
-0.09870000000000023,-20.584049413036283
-0.09970000000000012,-20.626490752032236
-0.10070000000000023,-20.683079204026836
-0.10170000000000012,-20.683079204026836
-0.10270000000000024,-20.683079204026836
-0.10370000000000013,-20.683079204026836
-0.10470000000000024,-20.683079204026836
-0.10570000000000013,-20.683079204026836
-0.10670000000000024,-20.626490752032236
-0.10770000000000013,-20.626490752032236
-0.10870000000000024,-20.683079204026836
-0.10970000000000013,-20.683079204026836
-0.11070000000000024,-20.683079204026836
-0.11170000000000013,-20.72552054302279
-0.11270000000000002,-20.76796188201874
-0.11370000000000013,-20.810403221014692
-0.11470000000000002,-20.810403221014692
-0.11570000000000014,-20.85284456001064
-0.11670000000000003,-20.85284456001064
-0.11770000000000014,-20.810403221014692
-0.11870000000000003,-20.810403221014692
-0.11970000000000014,-20.76796188201874
-0.12070000000000003,-20.72552054302279
-0.12170000000000014,-20.72552054302279
-0.12270000000000003,-20.72552054302279
-0.12370000000000014,-20.72552054302279
-0.12470000000000003,-20.72552054302279
-0.12570000000000014,-20.76796188201874
-0.12670000000000003,-20.76796188201874
-0.12770000000000015,-20.76796188201874
-0.12870000000000004,-20.810403221014692
-0.12970000000000015,-20.810403221014692
-0.13070000000000004,-20.85284456001064
-0.13170000000000015,-20.810403221014692
-0.13270000000000004,-20.85284456001064
-0.13370000000000015,-20.85284456001064
-0.13470000000000004,-20.85284456001064
-0.13570000000000015,-20.85284456001064
-0.13670000000000004,-20.89528589900659
-0.13770000000000016,-20.93772723800254
-0.13870000000000005,-20.93772723800254
-0.13970000000000016,-20.980168576998494
-0.14070000000000005,-20.980168576998494
-0.14170000000000016,-20.980168576998494
-0.14270000000000005,-20.980168576998494
-0.14370000000000016,-20.93772723800254
-0.14470000000000005,-20.93772723800254
-0.14570000000000016,-20.89528589900659
-0.14670000000000005,-20.89528589900659
-0.14770000000000016,-20.89528589900659
-0.14870000000000005,-20.89528589900659
-0.14970000000000017,-20.89528589900659
-0.15070000000000006,-20.93772723800254
-0.15170000000000017,-20.980168576998494
-0.15270000000000006,-21.022609915994444
-0.15370000000000017,-21.107492593986347
-0.15470000000000006,-21.107492593986347
-0.15570000000000017,-21.149933932982297
-0.15670000000000006,-21.149933932982297
-0.15770000000000017,-21.149933932982297
-0.15870000000000006,-21.149933932982297
-0.15970000000000018,-21.107492593986347
-0.16070000000000007,-21.107492593986347
-0.16170000000000018,-21.107492593986347
-0.16270000000000007,-21.107492593986347
-0.16370000000000018,-21.149933932982297
-0.16470000000000007,-21.2065223849769
-0.16570000000000018,-21.248963723972853
-0.16670000000000007,-21.291405062968803
-0.16770000000000018,-21.291405062968803
-0.16870000000000007,-21.291405062968803
-0.16970000000000018,-21.291405062968803
-0.17070000000000007,-21.291405062968803
-0.17170000000000019,-21.291405062968803
-0.17270000000000008,-21.248963723972853
-0.1737000000000002,-21.248963723972853
-0.17470000000000008,-21.291405062968803
-0.1757000000000002,-21.291405062968803
-0.17670000000000008,-21.376287740960702
-0.1777000000000002,-21.418729079956652
-0.17870000000000008,-21.461170418952605
-0.1797000000000002,-21.54605309694451
-0.18070000000000008,-21.58849443594046
-0.1817000000000002,-21.63093577493641
-0.18270000000000008,-21.63093577493641
-0.1837000000000002,-21.67337711393236
-0.1847000000000001,-21.67337711393236
-0.1857000000000002,-21.729965565926964
-0.1867000000000001,-21.729965565926964
-0.1877000000000002,-21.67337711393236
-0.1887000000000001,-21.729965565926964
-0.1897000000000002,-21.729965565926964
-0.1907000000000001,-21.772406904922917
-0.1917000000000001,-21.772406904922917
-0.19269999999999998,-21.814848243918867
-0.1937000000000001,-21.857289582914817
-0.19469999999999998,-21.857289582914817
-0.1957000000000001,-21.94217226090672
-0.19669999999999999,-21.98461359990267
-0.1977000000000001,-21.98461359990267
-0.1987,-22.069496277894572
-0.1997000000000001,-22.069496277894572
-0.2007,-22.111937616890522
-0.2017000000000001,-22.196820294882425
-0.2027,-22.253408746877028
-0.2037000000000001,-22.295850085872978
-0.2047,-22.33829142486893
-0.2057000000000001,-22.38073276386488
-0.2067,-22.46561544185678
-0.2077000000000001,-22.46561544185678
-0.2087,-22.46561544185678
-0.2097000000000001,-22.46561544185678
-0.2107,-22.508056780852733
-0.2117000000000001,-22.508056780852733
-0.2127,-22.508056780852733
-0.2137000000000001,-22.592939458844636
-0.2147,-22.63538079784059
-0.2157000000000001,-22.776851927827092
-0.2167,-22.861734605818995
-0.21770000000000012,-22.989058622806844
-0.2187,-23.073941300798747
-0.21970000000000012,-23.24370665678255
-0.2207,-23.300295108777156
-0.22170000000000012,-23.427619125765005
-0.2227,-23.47006046476096
-0.22370000000000012,-23.51250180375691
-0.2247,-23.55494314275286
-0.22570000000000012,-23.55494314275286
-0.2267,-23.55494314275286
-0.22770000000000012,-23.597384481748815
-0.22870000000000001,-23.639825820744765
-0.22970000000000013,-23.724708498736668
-0.23070000000000002,-23.823738289727217
-0.23170000000000013,-23.908620967719123
-0.23270000000000002,-23.993503645711023
-0.23370000000000013,-24.120827662698876
-0.23470000000000002,-24.24815167968673
-0.23570000000000013,-24.34718147067728
-0.23670000000000002,-24.474505487665134
-0.2376999999999999,-24.559388165657033
-0.23870000000000002,-24.686712182644893
-0.2396999999999999,-24.729153521640843
-0.24070000000000003,-24.814036199632742
-0.24169999999999991,-24.870624651627345
-0.24270000000000003,-24.997948668615198
-0.24369999999999992,-25.0828313466071
-0.24470000000000003,-25.210155363594954
-0.24569999999999992,-25.295038041586857
-0.24670000000000003,-25.39406783257741
-0.24769999999999992,-25.478950510569312
-0.24870000000000003,-25.60627452755716
-0.24969999999999992,-25.73359854454502
-0.25070000000000003,-25.86092256153287
-0.2516999999999999,-26.044835030515326
-0.25270000000000004,-26.21460038649913
-0.2536999999999999,-26.38436574248293
-0.25470000000000004,-26.568278211465387
-0.2556999999999999,-26.738043567449193
-0.25670000000000004,-26.907808923433
-0.25769999999999993,-27.091721392415455
-0.25870000000000004,-27.303928087395207
-0.25969999999999993,-27.487840556377662
-0.26070000000000004,-27.65760591236147
-0.26169999999999993,-27.827371268345274
-0.26270000000000004,-27.954695285333123
-0.26369999999999993,-28.09616641531963
-0.26470000000000005,-28.22349043230748
-0.26569999999999994,-28.308373110299385
-0.26670000000000005,-28.435697127287238
-0.26769999999999994,-28.619609596269694
-0.26870000000000005,-28.746933613257543
-0.26969999999999994,-28.91669896924135
-0.27070000000000005,-29.18549411621571
-0.27169999999999994,-29.440142150191413
-0.27270000000000005,-29.751378636161718
-0.27369999999999994,-30.04846800913338
-0.27470000000000006,-30.402145834099635
-0.27569999999999995,-30.71338232006995
-0.27670000000000006,-31.010471693041605
-0.27769999999999995,-31.321708179011907
-0.27870000000000006,-31.618797551983565
-0.27969999999999995,-31.84515135996197
-0.28070000000000006,-32.05735805494172
-0.28169999999999995,-32.283711862920136
-0.28270000000000006,-32.49591855789989
-0.28369999999999995,-32.764713704874254
-0.28470000000000006,-32.97692039985401
-0.28569999999999995,-33.231568433829715
-0.28670000000000007,-33.45792224180811
-0.28769999999999996,-33.712570275783825
-0.28870000000000007,-33.98136542275818
-0.28969999999999996,-34.236013456733886
-0.29070000000000007,-34.50480860370825
-0.29169999999999996,-34.8018979766799
-0.29270000000000007,-35.11313446265021
-0.29369999999999996,-35.42437094862052
-0.2947000000000001,-35.763901660588125
-0.29569999999999996,-36.11757948555439
-0.2967000000000001,-36.5136986495166
-0.29769999999999996,-36.95225915247476
-0.2987000000000001,-37.376672542434264
-0.29969999999999997,-37.81523304539243
-0.3007000000000001,-38.29623488734655
-0.30169999999999997,-38.692354051308754
-0.3027000000000001,-39.08847321527096
-0.30369999999999997,-39.42800392723857
-0.3047000000000001,-39.78168175220483
-0.30569999999999997,-40.135359577171094
-0.3067000000000001,-40.43244895014274
-0.3077,-40.78612677510901
-0.3087000000000001,-41.182245939071215
-0.3097,-41.56421799003478
-0.3107000000000001,-42.00277849299294
-0.3117,-42.4413389959511
-0.3127000000000001,-43.007223515897124
-0.3137,-43.48822535785123
-0.3147000000000001,-44.011668538801295
-0.3157,-44.4926703807554
-0.3167000000000001,-44.97367222270952
-0.3177,-45.45467406466363
-0.3187000000000001,-45.93567590661774
-0.3197,-46.27520661858535
-0.3207000000000001,-46.75620846053947
-0.3217,-47.23721030249357
-0.3227000000000001,-47.71821214444768
-0.3237,-48.24165532539775
-0.3247000000000001,-48.72265716735186
-0.3257,-49.28854168729788
-0.3267000000000001,-49.85442620724389
-0.3277,-50.42031072718991
-0.3287000000000001,-50.98619524713592
-0.3297,-51.55207976708194
-0.3307000000000001,-52.11796428702795
-0.3317,-52.78287859796452
-0.3327000000000001,-53.348763117910536
-0.3337,-53.999530315848446
-0.3347000000000001,-54.60785617479041
-0.3357,-55.21618203373238
-0.3367000000000001,-55.881096344668954
-0.3377,-56.489422203610914
-0.3387000000000001,-57.097748062552874
-0.3397,-57.7485152604908
-0.3407000000000001,-58.31439978043681
-0.3417,-58.92272563937878
-0.3427000000000001,-59.502757272323436
-0.3437,-60.11108313126541
-0.3447000000000001,-60.71940899020737
-0.3457,-61.327734849149344
-0.3467000000000001,-61.936060708091304
-0.3477,-62.68585769701977
-0.3487000000000001,-63.37906623395363
-0.3497,-64.11471610988345
-0.3507000000000001,-64.90695443780788
-0.3517,-65.7274869917296
-0.3527000000000001,-66.56216665864997
-0.3537,-67.34025787357575
-0.3547000000000001,-68.13249620150016
-0.3557,-68.96717586842054
-0.35670000000000013,-69.70282574435035
-0.3577,-70.43847562028017
-0.35870000000000013,-71.1458312702127
-0.3597,-71.7965984681506
-0.36070000000000013,-72.48980700508447
-0.3617,-73.15472131602105
-0.3626999999999999,-73.89037119195086
-0.3637,-74.58357972888473
-0.3646999999999999,-75.2484940398213
-0.3657,-76.02658525474708
-0.3666999999999999,-76.9037062606634
-0.3677,-77.76668015358106
-0.3686999999999999,-78.77112517648524
-0.36970000000000003,-79.60580484340561
-0.3706999999999999,-80.46877873632329
-0.37170000000000003,-81.30345840324367
-0.3726999999999999,-82.18057940915998
-0.37370000000000003,-83.0011119630817
-0.3746999999999999,-83.83579163000208
-0.37570000000000003,-84.61388284492786
-0.3766999999999999,-85.40612117285227
-0.37770000000000004,-86.28324217876859
-0.3786999999999999,-87.14621607168625
-0.37970000000000004,-88.06577841659853
-0.3806999999999999,-88.94289942251486
-0.38170000000000004,-89.89075599342443
-0.38269999999999993,-90.81031833833671
-0.38370000000000004,-91.72988068324898
-0.38469999999999993,-92.64944302816124
-0.38570000000000004,-93.61144671206948
-0.38669999999999993,-93.34265156509512
-0.38570000000000004,-91.12155482430701
-0.38469999999999993,-89.11266477849867
-0.38370000000000004,-87.27354008867411
-0.38269999999999993,-85.57588652883607
-0.38170000000000004,-84.00555698598588
-0.3806999999999999,-82.47766878213164
-0.37970000000000004,-80.99222191727335
-0.3786999999999999,-79.56336350440966
-0.37770000000000004,-78.07791663955136
-0.3766999999999999,-76.67735245268499
-0.37570000000000003,-75.29093537881725
-0.3746999999999999,-73.97525386994278
-0.37370000000000003,-72.71616081306288
-0.3726999999999999,-71.58439177317086
-0.37170000000000003,-70.48091695927613
-0.3706999999999999,-69.53306038836655
-0.36970000000000003,-68.57105670445833
-0.3686999999999999,-67.693935698542
-0.3677,-66.87340314462028
-0.3666999999999999,-66.08116481669586
-0.3657,-65.2464851497755
-0.3646999999999999,-64.42595259585376
-0.3637,-63.5063902509415
-0.3626999999999999,-62.58682790602922
-0.3617,-61.63897133511965
-0.36070000000000013,-60.63452631221547
-0.3597,-59.67252262830725
-0.35870000000000013,-58.66807760540307
-0.3577,-57.66363258249889
-0.35670000000000013,-56.65918755959472
-0.3557,-55.65474253669055
-0.3547000000000001,-54.69273885278232
-0.3537,-53.82976495986464
-0.3527000000000001,-52.91020261495237
-0.3517,-52.033081609036046
-0.3507000000000001,-51.17010771611838
-0.3497,-50.335428049198
-0.3487000000000001,-49.458307043281685
-0.3477,-48.63777448935996
-0.3467000000000001,-47.80309482243959
-0.3457,-46.982562268517874
-0.3447000000000001,-46.19032394059345
-0.3437,-45.36979138667173
-0.3427000000000001,-44.577553058747306
-0.3417,-43.79946184382153
-0.3407000000000001,-42.96478217690117
-0.3397,-42.130102509980794
-0.3387000000000001,-41.30956995605907
-0.3377,-40.43244895014274
-0.3367000000000001,-39.61191639622103
-0.3357,-38.777236729300654
-0.3347000000000001,-37.94255706238028
-0.3337,-37.122024508458566
-0.3327000000000001,-36.329786180534136
-0.3317,-35.50925362661242
-0.3307000000000001,-34.75945663768395
-0.3297,-34.02380676175414
-0.3287000000000001,-33.288156885824314
-0.3277,-32.53835989689585
-0.3267000000000001,-31.76026868197007
-0.3257,-31.052913032037555
-0.3247000000000001,-30.274821817111786
-0.3237,-29.525024828183312
-0.3227000000000001,-28.789374952253496
-0.3217,-28.05372507632368
-0.3207000000000001,-27.261486748399253
-0.3197,-26.525836872469437
-0.3187000000000001,-25.77603988354097
-0.3177,-25.0828313466071
-0.3167000000000001,-24.34718147067728
-0.3157,-23.639825820744765
-0.3147000000000001,-22.946617283810895
-0.3137,-22.253408746877028
-0.3127000000000001,-21.54605309694451
-0.3117,-20.810403221014692
-0.3107000000000001,-20.10304757108217
-0.3097,-19.452280373144255
-0.3087000000000001,-18.716630497214435
-0.3077,-18.009274847281915
-0.3067000000000001,-17.358507649344002
-0.30569999999999997,-16.70774045140608
-0.3047000000000001,-16.056973253468165
-0.30369999999999997,-15.448647394526201
-0.3027000000000001,-14.826174422585586
-0.30169999999999997,-14.26028990263957
-0.3007000000000001,-13.654793466297335
-0.29969999999999997,-13.043638184755638
-0.2987000000000001,-12.476338953509758
-0.29769999999999996,-11.86659838326793
-0.2967000000000001,-11.255443101726232
-0.29569999999999996,-10.644287820184536
-0.2947000000000001,-9.99069119964689
-0.29369999999999996,-9.379535918105192
-0.29270000000000007,-8.812236686859313
-0.29169999999999996,-8.202496116617484
-0.29070000000000007,-7.635196885371603
-0.28969999999999996,-7.067897654125724
-0.28870000000000007,-6.54445447317566
-0.28769999999999996,-6.021011292225596
-0.28670000000000007,-5.497568111275533
-0.28569999999999995,-4.974124930325469
-0.28470000000000006,-4.450681749375406
-0.28369999999999995,-3.927238568425342
-0.28270000000000006,-3.403795387475278
-0.28169999999999995,-2.8803522065252145
-0.28070000000000006,-2.3144676865791998
-0.27969999999999995,-1.7910245056291363
-0.27870000000000006,-1.3107300193249565
-0.27769999999999995,-0.8308599464107361
-0.27670000000000006,-0.3511313446265021
-0.27569999999999995,0.12863969849672777
-0.27470000000000006,0.5647527509061226
-0.27369999999999994,1.0010497157844997
-0.27270000000000005,1.4373466806628774
-0.27169999999999994,1.8730777610213083
-0.27070000000000005,2.30880884137974
-0.26969999999999994,2.745954633038036
-0.26870000000000005,3.1816857133964676
-0.26769999999999994,3.661272844050715
