Potential V vs RHE, Current mA cm-2
0.013299999999999867,1.5689148315503256
0.012299999999999978,-0.16028679027470866
0.011299999999999866,-1.7528273005327806
0.010299999999999976,-2.9807967088156326
0.009299999999999864,-3.9725093300210226
0.008299999999999974,-5.037786938819395
0.007299999999999862,-5.970081685430455
0.006299999999999972,-6.618019460768641
0.00529999999999986,-7.357913470598056
0.0042999999999999705,-8.13176055162423
0.0032999999999998586,-8.641056619575643
0.0022999999999999687,-9.168743934425303
0.0012999999999998568,-9.830828822762141
0.00029999999999996696,-10.293439417818007
-0.000700000000000145,-10.634384841085481
-0.0017000000000000348,-11.157828022035545
-0.0027000000000001467,-11.60912092669249
-0.0037000000000000366,-11.856695404168873
-0.0047000000000001485,-12.245741011631758
-0.005700000000000038,-12.702692761488164
-0.00670000000000015,-12.938949548565626
-0.00770000000000004,-13.182279892142413
-0.008700000000000152,-13.619425683800708
-0.009700000000000042,-13.867000161277092
-0.010700000000000154,-14.02686253816184
-0.011700000000000044,-14.359319693630123
-0.012700000000000156,-14.67055617960043
-0.013700000000000045,-14.783733083589633
-0.014700000000000157,-15.06667534356264
-0.015700000000000047,-15.4203531685289
-0.01670000000000016,-15.590118524512702
-0.01770000000000005,-15.816472332491113
-0.01870000000000016,-16.19844438345467
-0.01970000000000005,-16.410651078434423
-0.020700000000000163,-16.53797509542228
-0.021700000000000053,-16.849211581392588
-0.022700000000000164,-17.118006728366943
-0.023700000000000054,-17.217036519357496
-0.024700000000000166,-17.45753744033455
-0.025700000000000056,-17.81121526530081
-0.026700000000000168,-17.938539282288666
-0.027700000000000058,-18.09415752527382
-0.02870000000000017,-18.433688237241427
-0.02970000000000006,-18.603453593225233
-0.03070000000000017,-18.688336271217132
-0.03170000000000006,-18.97127853119014
-0.03270000000000017,-19.22592656516585
-0.03370000000000006,-19.31080924315775
-0.034700000000000175,-19.551310164134804
-0.035700000000000065,-19.904987989101066
-0.03670000000000018,-20.03231200608892
-0.03770000000000007,-20.17378313607542
-0.03870000000000018,-20.48501962204573
-0.03970000000000007,-20.626490752032236
-0.04070000000000018,-20.668932091028186
-0.04170000000000007,-20.95187435100119
-0.04270000000000018,-21.2348166109742
-0.04370000000000007,-21.30555217596745
-0.044700000000000184,-21.531905983945855
-0.045700000000000074,-21.871436695913467
-0.046700000000000186,-22.012907825899973
-0.047700000000000076,-22.15437895588647
-0.04870000000000019,-22.493909667854084
-0.04970000000000008,-22.66367502383789
-0.05070000000000019,-22.734410588831135
-0.05170000000000008,-23.031499961802798
-0.05270000000000019,-23.272000882779853
-0.05370000000000008,-23.328589334774456
-0.05470000000000019,-23.55494314275286
-0.05570000000000008,-23.83788540272587
-0.056700000000000195,-23.88032674172182
-0.057700000000000085,-23.97935653271237
-0.058700000000000196,-24.27644590568403
-0.059700000000000086,-24.389622809673234
-0.0607000000000002,-24.417917035670534
-0.06170000000000009,-24.67256506964624
-0.0627000000000002,-24.884771764625995
-0.06370000000000009,-24.927213103621945
-0.0647000000000002,-25.18186113759765
-0.06570000000000009,-25.521391849565262
-0.0667000000000002,-25.549686075562565
-0.0677000000000001,-25.620421640555815
-0.0687000000000002,-25.875069674531517
-0.0697000000000001,-25.974099465522073
-0.07070000000000021,-25.988246578520723
-0.0717000000000001,-26.20045327350048
-0.07270000000000021,-26.412659968480234
-0.0737000000000001,-26.426807081478888
-0.07470000000000021,-26.55413109846674
-0.0757000000000001,-26.780484906445146
-0.07670000000000021,-26.837073358439746
-0.0777000000000001,-26.936103149430302
-0.07870000000000021,-27.204898296404657
-0.0797000000000001,-27.289780974396557
-0.08070000000000022,-27.275633861397907
-0.0817000000000001,-27.473693443379013
-0.08270000000000022,-27.615164573365515
-0.08370000000000011,-27.58687034736821
-0.08470000000000022,-27.714194364356068
-0.08570000000000011,-27.968842398331773
-0.08670000000000022,-27.997136624329073
-0.08770000000000011,-28.039577963325023
-0.08870000000000022,-28.280078884302082
-0.08970000000000011,-28.379108675292635
-0.09070000000000022,-28.364961562293985
-0.09170000000000011,-28.56302114427509
-0.09270000000000023,-28.732786500258893
-0.09370000000000012,-28.662050935265643
-0.09470000000000023,-28.761080726256196
-0.09570000000000012,-28.959140308237306
-0.09670000000000023,-28.987434534234602
-0.09770000000000012,-29.001581647233255
-0.09870000000000023,-29.18549411621571
-0.09970000000000012,-29.25622968120896
-0.10070000000000023,-29.242082568210304
-0.10170000000000012,-29.468436376188716
-0.10270000000000024,-29.66649595816982
-0.10370000000000013,-29.652348845171172
-0.10470000000000024,-29.76552574916037
-0.10570000000000013,-29.949438218142824
-0.10670000000000024,-29.921143992145527
-0.10770000000000013,-29.977732444140123
-0.10870000000000024,-30.246527591114486
-0.10970000000000013,-30.345557382105042
-0.11070000000000024,-30.303116043109085
-0.11170000000000013,-30.444587173095588
-0.11270000000000002,-30.571911190083444
-0.11370000000000013,-30.51532273808884
-0.11470000000000002,-30.600205416080744
-0.11570000000000014,-30.8407063370578
-0.11670000000000003,-30.88314767605375
-0.11770000000000014,-30.99632458004295
-0.11870000000000003,-31.27926684001596
-0.11970000000000014,-31.350002405009217
-0.12070000000000003,-31.27926684001596
-0.12170000000000014,-31.420737970002463
-0.12270000000000003,-31.533914873991666
-0.12370000000000014,-31.505620647994366
-0.12470000000000003,-31.618797551983565
-0.12570000000000014,-31.788562907967375
-0.12670000000000003,-31.77441579496872
-0.12770000000000015,-31.816857133964678
-0.12870000000000004,-32.04321094194308
-0.12970000000000015,-32.09979939393769
-0.13070000000000004,-32.05735805494172
-0.13170000000000015,-32.255417636922836
-0.13270000000000004,-32.42518299290664
-0.13370000000000015,-32.354447427913385
-0.13470000000000004,-32.4676243319026
-0.13570000000000015,-32.693978139881004
-0.13670000000000004,-32.7222723658783
-0.13770000000000016,-32.764713704874254
-0.13870000000000005,-32.97692039985401
-0.13970000000000016,-32.99106751285265
-0.14070000000000005,-32.92033194785941
-0.14170000000000016,-33.06180307784591
-0.14270000000000005,-33.17497998183511
-0.14370000000000016,-33.09009730384321
-0.14470000000000005,-33.18912709483376
-0.14570000000000016,-33.40133378981351
-0.14670000000000005,-33.373039563816214
-0.14770000000000016,-33.373039563816214
-0.14870000000000005,-33.55695203279867
-0.14970000000000017,-33.59939337179462
-0.15070000000000006,-33.54280491980002
-0.15170000000000017,-33.64183471079057
-0.15270000000000006,-33.712570275783825
-0.15370000000000017,-33.52865780680137
-0.15470000000000006,-33.50036358080407
-0.15570000000000017,-33.655981823789226
-0.15670000000000006,-33.655981823789226
-0.15770000000000017,-33.68427604978652
-0.15870000000000006,-33.85404140577033
-0.15970000000000018,-33.88233563176763
-0.16070000000000007,-33.839894292771675
-0.16170000000000018,-34.05210098775143
-0.16270000000000007,-34.13698366574334
-0.16370000000000018,-33.96721830975953
-0.16470000000000007,-34.02380676175414
-0.16570000000000018,-34.15113077874198
-0.16670000000000007,-34.05210098775143
-0.16770000000000018,-33.96721830975953
-0.16870000000000007,-34.09454232674739
-0.16970000000000018,-34.08039521374873
-0.17070000000000007,-33.93892408376223
-0.17170000000000019,-34.00965964875548
-0.17270000000000008,-33.98136542275818
-0.1737000000000002,-33.76915872777842
-0.17470000000000008,-33.76915872777842
-0.1757000000000002,-33.924776970763574
-0.17670000000000008,-33.86818851876898
-0.1777000000000002,-33.79745295377573
-0.17870000000000008,-33.89648274476628
-0.1797000000000002,-33.86818851876898
-0.18070000000000008,-33.726717388782475
-0.1817000000000002,-33.712570275783825
-0.18270000000000008,-33.698423162785176
-0.1837000000000002,-33.47206935480677
-0.1847000000000001,-33.41548090281216
-0.1857000000000002,-33.44377512880947
-0.1867000000000001,-33.330598224820264
-0.1877000000000002,-33.21742132083106
-0.1887000000000001,-33.274009772825664
-0.1897000000000002,-33.203274207832415
-0.1907000000000001,-33.0335088518486
-0.1917000000000001,-33.0335088518486
-0.19269999999999998,-33.06180307784591
-0.1937000000000001,-32.892037721862096
-0.19469999999999998,-32.8354492698675
-0.1957000000000001,-32.892037721862096
-0.19669999999999999,-32.73641947887695
-0.1977000000000001,-32.59494834889044
-0.1987,-32.6090954618891
-0.1997000000000001,-32.48177144490124
-0.2007,-32.297858975918786
-0.2017000000000001,-32.32615320191609
-0.2027,-32.297858975918786
-0.2037000000000001,-32.11394650693633
-0.2047,-32.04321094194308
-0.2057000000000001,-32.07150516794038
-0.2067,-31.873445585959274
-0.2077000000000001,-31.76026868197007
-0.2087,-31.83100424696332
-0.2097000000000001,-31.76026868197007
-0.2107,-31.505620647994366
-0.2117000000000001,-31.49147353499572
-0.2127,-31.434885083001117
-0.2137000000000001,-31.19438416202406
-0.2147,-31.137795710029454
-0.2157000000000001,-31.250972614018657
-0.2167,-31.067060145036205
-0.21770000000000012,-30.91144190205105
-0.2187,-30.968030354045652
-0.21970000000000012,-30.8690005630551
-0.2207,-30.656793868075347
-0.22170000000000012,-30.656793868075347
-0.2227,-30.62849964207804
-0.22370000000000012,-30.387998721100992
-0.2247,-30.331410269106385
-0.22570000000000012,-30.359704495103685
-0.2267,-30.17579202612123
-0.22770000000000012,-30.03432089613473
-0.22870000000000001,-30.11920357412663
-0.22970000000000013,-30.02017378313608
-0.23070000000000002,-29.80796708815632
-0.23170000000000013,-29.836261314153624
-0.23270000000000002,-29.864555540150924
-0.23370000000000013,-29.66649595816982
-0.23470000000000002,-29.59576039317657
-0.23570000000000013,-29.59576039317657
-0.23670000000000002,-29.35525947219951
-0.2376999999999999,-29.18549411621571
-0.23870000000000002,-29.25622968120896
-0.2396999999999999,-29.213788342213007
-0.24070000000000003,-29.100611438223805
-0.24169999999999991,-29.171347003217054
-0.24270000000000003,-29.199641229214354
-0.24369999999999992,-29.015728760231898
-0.24470000000000003,-28.97328742123595
-0.24569999999999992,-29.044022986229205
-0.24670000000000003,-28.91669896924135
-0.24769999999999992,-28.789374952253496
-0.24870000000000003,-28.91669896924135
-0.24969999999999992,-28.88840474324405
-0.25070000000000003,-28.732786500258893
-0.2516999999999999,-28.761080726256196
-0.25270000000000004,-28.789374952253496
-0.2536999999999999,-28.647903822266994
-0.25470000000000004,-28.60546248327104
-0.2556999999999999,-28.56302114427509
-0.25670000000000004,-28.407402901289935
-0.25769999999999993,-28.350814449295335
-0.25870000000000004,-28.506432692280487
-0.25969999999999993,-28.53472691827779
-0.26070000000000004,-28.379108675292635
-0.26169999999999993,-28.435697127287238
-0.26270000000000004,-28.463991353284538
-0.26369999999999993,-28.308373110299385
-0.26470000000000005,-28.32252022329803
-0.26569999999999994,-28.463991353284538
-0.26670000000000005,-28.407402901289935
-0.26769999999999994,-28.350814449295335
-0.26870000000000005,-28.463991353284538
-0.26969999999999994,-28.421550014288584
-0.27070000000000005,-28.32252022329803
-0.27169999999999994,-28.421550014288584
-0.27270000000000005,-28.506432692280487
-0.27369999999999994,-28.364961562293985
-0.27470000000000006,-28.379108675292635
-0.27569999999999995,-28.53472691827779
-0.27670000000000006,-28.463991353284538
-0.27769999999999995,-28.379108675292635
-0.27870000000000006,-28.463991353284538
-0.27969999999999995,-28.421550014288584
-0.28070000000000006,-28.308373110299385
-0.28169999999999995,-28.44984424028589
-0.28270000000000006,-28.53472691827779
-0.28369999999999995,-28.463991353284538
-0.28470000000000006,-28.53472691827779
-0.28569999999999995,-28.704492274261593
-0.28670000000000007,-28.662050935265643
-0.28769999999999996,-28.633756709268344
-0.28870000000000007,-28.80352206525215
-0.28969999999999996,-28.80352206525215
-0.29070000000000007,-28.662050935265643
-0.29169999999999996,-28.775227839254843
-0.29270000000000007,-28.86011051724675
-0.29369999999999996,-28.732786500258893
-0.2947000000000001,-28.80352206525215
-0.29569999999999996,-28.97328742123595
-0.2967000000000001,-28.959140308237306
-0.29769999999999996,-29.001581647233255
-0.2987000000000001,-29.22793545521166
-0.29969999999999997,-29.31281813320356
-0.3007000000000001,-29.27037679420761
-0.30169999999999997,-29.39770081119546
-0.3027000000000001,-29.496730602186016
-0.30369999999999997,-29.369406585198163
-0.3047000000000001,-29.411847924194117
-0.30569999999999997,-29.581613280177915
-0.3067000000000001,-29.539171941181966
-0.3077,-29.539171941181966
-0.3087000000000001,-29.779672862159025
-0.3097,-29.850408427152274
-0.3107000000000001,-29.80796708815632
-0.3117,-29.96358533114148
-0.3127000000000001,-30.09090934812933
-0.3137,-30.03432089613473
-0.3147000000000001,-30.11920357412663
-0.3157,-30.345557382105042
-0.3167000000000001,-30.317263156107735
-0.3177,-30.317263156107735
-0.3187000000000001,-30.529469851087494
-0.3197,-30.62849964207804
-0.3207000000000001,-30.614352529079397
-0.3217,-30.79826499806185
-0.3227000000000001,-30.939736128048356
-0.3237,-30.897294789052403
-0.3247000000000001,-30.99632458004295
-0.3257,-31.20853127502271
-0.3267000000000001,-31.22267838802136
-0.3277,-31.23682550102001
-0.3287000000000001,-31.449032195999767
-0.3297,-31.533914873991666
-0.3307000000000001,-31.533914873991666
-0.3317,-31.76026868197007
-0.3327000000000001,-31.915886924955227
-0.3337,-31.873445585959274
-0.3347000000000001,-32.01491671594578
-0.3357,-32.22712341092554
-0.3367000000000001,-32.170534958930936
-0.3377,-32.15638784593229
-0.3387000000000001,-32.38274165391069
-0.3397,-32.51006567089854
-0.3407000000000001,-32.51006567089854
-0.3417,-32.7505665918756
-0.3427000000000001,-32.96277328685535
-0.3437,-32.97692039985401
-0.3447000000000001,-33.11839152984051
-0.3457,-33.373039563816214
-0.3467000000000001,-33.40133378981351
-0.3477,-33.45792224180811
-0.3487000000000001,-33.698423162785176
-0.3497,-33.81160006677438
-0.3507000000000001,-33.839894292771675
-0.3517,-34.09454232674739
-0.3527000000000001,-34.306749021727136
-0.3537,-34.32089613472579
-0.3547000000000001,-34.462367264712285
-0.3557,-34.702868185689354
-0.35670000000000013,-34.717015298688004
-0.3577,-34.787750863681254
-0.35870000000000013,-35.07069312365426
-0.3597,-35.21216425364076
-0.36070000000000013,-35.282899818634014
-0.3617,-35.52340073961108
-0.3626999999999999,-35.693166095594876
-0.3637,-35.707313208593526
-0.3646999999999999,-35.91951990357328
-0.3657,-36.230756389543586
-0.3666999999999999,-36.3439332935328
-0.3677,-36.44296308452335
-0.3686999999999999,-36.768346683492304
-0.36970000000000003,-36.96640626547341
-0.3706999999999999,-37.00884760446935
-0.37170000000000003,-37.27764275144372
-0.3726999999999999,-37.57473212441538
-0.37370000000000003,-37.687909028404576
-0.3746999999999999,-37.92840994938163
-0.37570000000000003,-38.253793548350586
-0.3766999999999999,-38.35282333934114
-0.37770000000000004,-38.5084415823263
-0.3786999999999999,-38.86211940729255
-0.37970000000000004,-39.074326102272316
-0.3806999999999999,-39.187503006261515
-0.38170000000000004,-39.54118083122778
-0.38269999999999993,-39.88071154319538
-0.38370000000000004,-40.03632978618054
-0.38469999999999993,-40.34756627215084
-0.38570000000000004,-40.800273888107654
-0.38669999999999993,-39.258238571254765
-0.38570000000000004,-36.244903502542236
-0.38469999999999993,-34.10868943974604
-0.38370000000000004,-32.24127052392419
-0.38269999999999993,-30.55776407708479
-0.38170000000000004,-29.284523907206257
-0.3806999999999999,-28.15275486731423
-0.37970000000000004,-26.992691601424898
-0.3786999999999999,-26.101423482509926
-0.37770000000000004,-25.39406783257741
-0.3766999999999999,-24.516946826661083
-0.37570000000000003,-23.710561385738018
-0.3746999999999999,-23.102235526796047
-0.37370000000000003,-22.39487987686353
-0.3726999999999999,-21.63093577493641
-0.37170000000000003,-21.13578681998365
-0.3706999999999999,-20.598196526034933
-0.36970000000000003,-19.890840876102416
-0.3686999999999999,-19.339103469155052
-0.3677,-18.900542966196888
-0.3666999999999999,-18.306364220253574
-0.3657,-17.74047970030756
-0.3646999999999999,-17.358507649344002
-0.3637,-16.891652920388537
-0.3626999999999999,-16.325768400442524
-0.3617,-15.972090575476265
-0.36070000000000013,-15.590118524512702
-0.3597,-15.02423400456669
-0.35870000000000013,-14.61396772760583
-0.3577,-14.316878354634172
-0.35670000000000013,-13.813241131882217
-0.3557,-13.340727557727297
-0.3547000000000001,-13.08890894635132
-0.3537,-12.677227958090594
-0.3527000000000001,-12.15378477714053
-0.3517,-11.884989630166173
-0.3507000000000001,-11.548288340798294
-0.3497,-11.037577561547016
-0.3487000000000001,-10.73765876597563
-0.3477,-10.508475535397492
-0.3467000000000001,-10.076988588938656
-0.3457,-9.663892889378065
-0.3447000000000001,-9.450271483098444
-0.3437,-9.08952010163286
-0.3427000000000001,-8.628324217876859
-0.3417,-8.399140987298722
-0.3407000000000001,-8.141663530723285
-0.3397,-7.679052935667419
-0.3387000000000001,-7.398940098294142
-0.3377,-7.205124650212632
-0.3367000000000001,-6.803346641050961
-0.3357,-6.448254104784837
-0.3347000000000001,-6.270000481001842
-0.3337,-5.967252262830725
-0.3327000000000001,-5.568303676268785
-0.3317,-5.373073516887409
-0.3307000000000001,-5.1608668219076534
-0.3297,-4.753429967546523
-0.3287000000000001,-4.5044407787702765
-0.3277,-4.358725514884178
-0.3267000000000001,-3.995144710818863
-0.3257,-3.681078802248825
-0.3247000000000001,-3.557998919160567
-0.3237,-3.27505665918756
-0.3227000000000001,-2.924208256821031
-0.3217,-2.7615164573365516
-0.3207000000000001,-2.5648715866553116
-0.3197,-2.215437895588648
-0.3187000000000001,-1.9848399537106465
-0.3177,-1.8617600706223882
-0.3167000000000001,-1.543450028152755
-0.3157,-1.2534342116804225
-0.3147000000000001,-1.1636000441389927
-0.3137,-0.9375291784205598
-0.3127000000000001,-0.5841342957142737
-0.3117,-0.46077147036604243
-0.3107000000000001,-0.29977732444140126
-0.3097,0.04259695723893625
-0.3087000000000001,0.2239487987686353
-0.3077,0.32255417636922834
-0.3067000000000001,0.6030914271324651
-0.30569999999999997,0.8683497958571595
-0.3047000000000001,0.9392268319803979
-0.30369999999999997,1.1449258549807741
-0.3027000000000001,1.4684703292599082
-0.30169999999999997,1.5561824298515403
-0.3007000000000001,1.6849211581392587
-0.29969999999999997,1.9975723554094316
-0.2987000000000001,2.1447023305953956
-0.29769999999999996,2.208364339089322
-0.2967000000000001,2.475744774763814
-0.29569999999999996,2.69926916014249
-0.2947000000000001,2.7487840556377665
-0.29369999999999996,2.9369406585198163
-0.29270000000000007,3.2269564749921487
-0.29169999999999996,3.303350885184861
-0.29070000000000007,3.403795387475278
-0.28969999999999996,3.690981781347881
-0.28870000000000007,3.838111756533844
-0.28769999999999996,3.8748942503303354
-0.28670000000000007,4.121054016506851
-0.28569999999999995,4.326187154987283
-0.28470000000000006,4.360140226184043
-0.28369999999999995,4.541223272566767
-0.28270000000000006,4.807188996941395
-0.28169999999999995,4.8595333150364
-0.28070000000000006,4.9302688800296535
-0.27969999999999995,5.18208749140563
-0.27870000000000006,5.299508529294427
-0.27769999999999995,5.303752663194023
-0.27670000000000006,5.513129935574048
-0.27569999999999995,5.709774806255288
-0.27470000000000006,5.706945383655557
-0.27369999999999994,5.8682224718401725
-0.27270000000000005,6.132773484914934
-0.27169999999999994,6.175214823910885
-0.27070000000000005,6.258682790602922
-0.26969999999999994,6.520404381077953
-0.26870000000000005,6.626507728567832
-0.26769999999999994,6.637825418966753
-0.26670000000000005,6.854276247846103
