Dec. 14, 2024   13:04:02
Cyclic Voltammetry
File: c:/users/guazh/data/banditlqround7_x0exp59_r20/2024-12-09-exp658\exp658-2024-12-14t12_57_19-h2koh\exp658_cv_sr_300mvs_efin_-1400mv.bin
Data Source:  Experiment
Instrument Model:  CHI760E
Header: CV ran at 300 mVs
Note: 

Init E (V) = -1
High E (V) = -1
Low E (V) = -1.4
Final E (V) = -1
Init P/N = N
Scan Rate (V/s) = 0.3
Segment = 3
Sample Interval (V) = 0.001
Quiet Time (sec) = 2
Sensitivity (A/V) = 0.01
Comp R (ohm) = 1.3

Results:

Channel 1:
Segment 1:
Ep = -1.092V
ip = 2.167e-6A
Ah = 5.647e-7C

Segment 2:

Segment 3:

Potential/V, Current/A

-1.000, 6.322e-6
-1.001, 2.174e-5
-1.002, 3.099e-5
-1.003, 3.407e-5
-1.004, 3.715e-5
-1.005, 3.715e-5
-1.006, 4.332e-5
-1.007, 4.640e-5
-1.008, 4.949e-5
-1.009, 4.640e-5
-1.010, 4.949e-5
-1.011, 5.257e-5
-1.012, 5.565e-5
-1.013, 5.565e-5
-1.014, 5.565e-5
-1.015, 5.565e-5
-1.016, 5.873e-5
-1.017, 6.182e-5
-1.018, 6.490e-5
-1.019, 6.182e-5
-1.020, 6.182e-5
-1.021, 6.490e-5
-1.022, 6.798e-5
-1.023, 7.107e-5
-1.024, 6.798e-5
-1.025, 6.798e-5
-1.026, 7.107e-5
-1.027, 7.415e-5
-1.028, 7.723e-5
-1.029, 7.415e-5
-1.030, 7.415e-5
-1.031, 7.723e-5
-1.032, 8.032e-5
-1.033, 8.340e-5
-1.034, 8.032e-5
-1.035, 8.032e-5
-1.036, 8.340e-5
-1.037, 8.648e-5
-1.038, 8.957e-5
-1.039, 8.957e-5
-1.040, 8.957e-5
-1.041, 9.265e-5
-1.042, 9.573e-5
-1.043, 9.573e-5
-1.044, 9.573e-5
-1.045, 9.573e-5
-1.046, 9.882e-5
-1.047, 1.019e-4
-1.048, 1.050e-4
-1.049, 1.019e-4
-1.050, 1.019e-4
-1.051, 1.050e-4
-1.052, 1.111e-4
-1.053, 1.111e-4
-1.054, 1.111e-4
-1.055, 1.111e-4
-1.056, 1.142e-4
-1.057, 1.173e-4
-1.058, 1.173e-4
-1.059, 1.173e-4
-1.060, 1.173e-4
-1.061, 1.204e-4
-1.062, 1.235e-4
-1.063, 1.266e-4
-1.064, 1.235e-4
-1.065, 1.235e-4
-1.066, 1.266e-4
-1.067, 1.296e-4
-1.068, 1.327e-4
-1.069, 1.296e-4
-1.070, 1.327e-4
-1.071, 1.358e-4
-1.072, 1.389e-4
-1.073, 1.389e-4
-1.074, 1.358e-4
-1.075, 1.389e-4
-1.076, 1.420e-4
-1.077, 1.451e-4
-1.078, 1.451e-4
-1.079, 1.451e-4
-1.080, 1.451e-4
-1.081, 1.481e-4
-1.082, 1.512e-4
-1.083, 1.512e-4
-1.084, 1.481e-4
-1.085, 1.481e-4
-1.086, 1.512e-4
-1.087, 1.543e-4
-1.088, 1.543e-4
-1.089, 1.543e-4
-1.090, 1.543e-4
-1.091, 1.574e-4
-1.092, 1.605e-4
-1.093, 1.605e-4
-1.094, 1.574e-4
-1.095, 1.574e-4
-1.096, 1.605e-4
-1.097, 1.636e-4
-1.098, 1.636e-4
-1.099, 1.605e-4
-1.100, 1.605e-4
-1.101, 1.636e-4
-1.102, 1.666e-4
-1.103, 1.666e-4
-1.104, 1.636e-4
-1.105, 1.636e-4
-1.106, 1.666e-4
-1.107, 1.697e-4
-1.108, 1.666e-4
-1.109, 1.666e-4
-1.110, 1.636e-4
-1.111, 1.666e-4
-1.112, 1.697e-4
-1.113, 1.697e-4
-1.114, 1.666e-4
-1.115, 1.666e-4
-1.116, 1.666e-4
-1.117, 1.697e-4
-1.118, 1.697e-4
-1.119, 1.666e-4
-1.120, 1.636e-4
-1.121, 1.666e-4
-1.122, 1.666e-4
-1.123, 1.666e-4
-1.124, 1.636e-4
-1.125, 1.636e-4
-1.126, 1.636e-4
-1.127, 1.666e-4
-1.128, 1.636e-4
-1.129, 1.605e-4
-1.130, 1.574e-4
-1.131, 1.605e-4
-1.132, 1.605e-4
-1.133, 1.605e-4
-1.134, 1.574e-4
-1.135, 1.543e-4
-1.136, 1.543e-4
-1.137, 1.574e-4
-1.138, 1.543e-4
-1.139, 1.512e-4
-1.140, 1.481e-4
-1.141, 1.512e-4
-1.142, 1.512e-4
-1.143, 1.481e-4
-1.144, 1.451e-4
-1.145, 1.420e-4
-1.146, 1.420e-4
-1.147, 1.420e-4
-1.148, 1.420e-4
-1.149, 1.358e-4
-1.150, 1.358e-4
-1.151, 1.358e-4
-1.152, 1.358e-4
-1.153, 1.327e-4
-1.154, 1.296e-4
-1.155, 1.266e-4
-1.156, 1.296e-4
-1.157, 1.296e-4
-1.158, 1.266e-4
-1.159, 1.235e-4
-1.160, 1.204e-4
-1.161, 1.204e-4
-1.162, 1.235e-4
-1.163, 1.173e-4
-1.164, 1.142e-4
-1.165, 1.111e-4
-1.166, 1.142e-4
-1.167, 1.142e-4
-1.168, 1.111e-4
-1.169, 1.081e-4
-1.170, 1.050e-4
-1.171, 1.081e-4
-1.172, 1.081e-4
-1.173, 1.050e-4
-1.174, 1.019e-4
-1.175, 9.882e-5
-1.176, 9.882e-5
-1.177, 1.019e-4
-1.178, 9.882e-5
-1.179, 9.265e-5
-1.180, 9.265e-5
-1.181, 9.265e-5
-1.182, 9.265e-5
-1.183, 9.265e-5
-1.184, 8.957e-5
-1.185, 8.648e-5
-1.186, 8.957e-5
-1.187, 8.957e-5
-1.188, 8.957e-5
-1.189, 8.648e-5
-1.190, 8.340e-5
-1.191, 8.648e-5
-1.192, 8.648e-5
-1.193, 8.340e-5
-1.194, 8.032e-5
-1.195, 8.032e-5
-1.196, 8.340e-5
-1.197, 8.340e-5
-1.198, 8.032e-5
-1.199, 7.723e-5
-1.200, 7.723e-5
-1.201, 7.723e-5
-1.202, 8.032e-5
-1.203, 7.723e-5
-1.204, 7.415e-5
-1.205, 7.415e-5
-1.206, 7.723e-5
-1.207, 7.723e-5
-1.208, 7.723e-5
-1.209, 7.415e-5
-1.210, 7.107e-5
-1.211, 7.415e-5
-1.212, 7.723e-5
-1.213, 7.415e-5
-1.214, 7.107e-5
-1.215, 7.107e-5
-1.216, 7.107e-5
-1.217, 7.415e-5
-1.218, 7.107e-5
-1.219, 6.798e-5
-1.220, 6.798e-5
-1.221, 7.107e-5
-1.222, 7.107e-5
-1.223, 7.107e-5
-1.224, 6.798e-5
-1.225, 6.490e-5
-1.226, 6.798e-5
-1.227, 7.107e-5
-1.228, 6.798e-5
-1.229, 6.798e-5
-1.230, 6.490e-5
-1.231, 6.798e-5
-1.232, 6.798e-5
-1.233, 6.798e-5
-1.234, 6.490e-5
-1.235, 6.490e-5
-1.236, 6.490e-5
-1.237, 6.798e-5
-1.238, 6.490e-5
-1.239, 6.182e-5
-1.240, 6.182e-5
-1.241, 6.490e-5
-1.242, 6.490e-5
-1.243, 6.490e-5
-1.244, 6.182e-5
-1.245, 6.182e-5
-1.246, 6.182e-5
-1.247, 6.490e-5
-1.248, 6.182e-5
-1.249, 6.182e-5
-1.250, 5.873e-5
-1.251, 6.182e-5
-1.252, 6.490e-5
-1.253, 6.182e-5
-1.254, 5.873e-5
-1.255, 5.873e-5
-1.256, 6.182e-5
-1.257, 6.182e-5
-1.258, 6.182e-5
-1.259, 5.873e-5
-1.260, 5.873e-5
-1.261, 5.873e-5
-1.262, 6.182e-5
-1.263, 5.873e-5
-1.264, 5.873e-5
-1.265, 5.873e-5
-1.266, 5.873e-5
-1.267, 6.182e-5
-1.268, 6.182e-5
-1.269, 5.873e-5
-1.270, 5.873e-5
-1.271, 5.873e-5
-1.272, 5.873e-5
-1.273, 5.873e-5
-1.274, 5.565e-5
-1.275, 5.565e-5
-1.276, 5.873e-5
-1.277, 6.182e-5
-1.278, 5.873e-5
-1.279, 5.565e-5
-1.280, 5.565e-5
-1.281, 5.873e-5
-1.282, 5.873e-5
-1.283, 5.873e-5
-1.284, 5.873e-5
-1.285, 5.565e-5
-1.286, 5.873e-5
-1.287, 6.182e-5
-1.288, 5.873e-5
-1.289, 5.873e-5
-1.290, 5.873e-5
-1.291, 6.182e-5
-1.292, 5.873e-5
-1.293, 5.873e-5
-1.294, 5.873e-5
-1.295, 5.873e-5
-1.296, 5.873e-5
-1.297, 6.182e-5
-1.298, 5.873e-5
-1.299, 5.873e-5
-1.300, 5.873e-5
-1.301, 6.182e-5
-1.302, 6.182e-5
-1.303, 6.182e-5
-1.304, 5.873e-5
-1.305, 6.182e-5
-1.306, 6.182e-5
-1.307, 6.490e-5
-1.308, 6.182e-5
-1.309, 6.182e-5
-1.310, 6.182e-5
-1.311, 6.490e-5
-1.312, 6.490e-5
-1.313, 6.490e-5
-1.314, 6.182e-5
-1.315, 6.182e-5
-1.316, 6.490e-5
-1.317, 6.798e-5
-1.318, 6.798e-5
-1.319, 6.490e-5
-1.320, 6.490e-5
-1.321, 6.798e-5
-1.322, 6.798e-5
-1.323, 6.798e-5
-1.324, 6.798e-5
-1.325, 6.798e-5
-1.326, 7.107e-5
-1.327, 7.415e-5
-1.328, 7.107e-5
-1.329, 7.107e-5
-1.330, 7.415e-5
-1.331, 7.415e-5
-1.332, 7.723e-5
-1.333, 7.415e-5
-1.334, 7.415e-5
-1.335, 7.723e-5
-1.336, 8.032e-5
-1.337, 8.032e-5
-1.338, 8.032e-5
-1.339, 8.032e-5
-1.340, 8.032e-5
-1.341, 8.648e-5
-1.342, 8.648e-5
-1.343, 8.648e-5
-1.344, 8.648e-5
-1.345, 8.648e-5
-1.346, 9.265e-5
-1.347, 9.265e-5
-1.348, 9.265e-5
-1.349, 9.573e-5
-1.350, 9.573e-5
-1.351, 9.882e-5
-1.352, 1.019e-4
-1.353, 1.019e-4
-1.354, 1.050e-4
-1.355, 1.050e-4
-1.356, 1.111e-4
-1.357, 1.142e-4
-1.358, 1.142e-4
-1.359, 1.142e-4
-1.360, 1.173e-4
-1.361, 1.235e-4
-1.362, 1.266e-4
-1.363, 1.266e-4
-1.364, 1.296e-4
-1.365, 1.327e-4
-1.366, 1.389e-4
-1.367, 1.451e-4
-1.368, 1.451e-4
-1.369, 1.481e-4
-1.370, 1.512e-4
-1.371, 1.574e-4
-1.372, 1.666e-4
-1.373, 1.697e-4
-1.374, 1.728e-4
-1.375, 1.790e-4
-1.376, 1.851e-4
-1.377, 1.944e-4
-1.378, 1.975e-4
-1.379, 2.036e-4
-1.380, 2.098e-4
-1.381, 2.221e-4
-1.382, 2.314e-4
-1.383, 2.376e-4
-1.384, 2.437e-4
-1.385, 2.561e-4
-1.386, 2.684e-4
-1.387, 2.807e-4
-1.388, 2.931e-4
-1.389, 3.054e-4
-1.390, 3.177e-4
-1.391, 3.362e-4
-1.392, 3.516e-4
-1.393, 3.701e-4
-1.394, 3.855e-4
-1.395, 4.071e-4
-1.396, 4.318e-4
-1.397, 4.565e-4
-1.398, 4.811e-4
-1.399, 5.089e-4
-1.400, 5.089e-4
-1.399, 5.027e-4
-1.398, 5.027e-4
-1.397, 5.027e-4
-1.396, 5.027e-4
-1.395, 5.027e-4
-1.394, 5.027e-4
-1.393, 5.027e-4
-1.392, 5.027e-4
-1.391, 4.965e-4
-1.390, 4.935e-4
-1.389, 4.904e-4
-1.388, 4.904e-4
-1.387, 4.842e-4
-1.386, 4.780e-4
-1.385, 4.688e-4
-1.384, 4.657e-4
-1.383, 4.626e-4
-1.382, 4.534e-4
-1.381, 4.441e-4
-1.380, 4.380e-4
-1.379, 4.318e-4
-1.378, 4.256e-4
-1.377, 4.164e-4
-1.376, 4.071e-4
-1.375, 4.010e-4
-1.374, 3.917e-4
-1.373, 3.855e-4
-1.372, 3.763e-4
-1.371, 3.670e-4
-1.370, 3.578e-4
-1.369, 3.485e-4
-1.368, 3.424e-4
-1.367, 3.331e-4
-1.366, 3.239e-4
-1.365, 3.146e-4
-1.364, 3.085e-4
-1.363, 2.992e-4
-1.362, 2.900e-4
-1.361, 2.807e-4
-1.360, 2.715e-4
-1.359, 2.653e-4
-1.358, 2.591e-4
-1.357, 2.499e-4
-1.356, 2.406e-4
-1.355, 2.345e-4
-1.354, 2.283e-4
-1.353, 2.221e-4
-1.352, 2.129e-4
-1.351, 2.067e-4
-1.350, 1.975e-4
-1.349, 1.944e-4
-1.348, 1.882e-4
-1.347, 1.821e-4
-1.346, 1.728e-4
-1.345, 1.666e-4
-1.344, 1.636e-4
-1.343, 1.574e-4
-1.342, 1.512e-4
-1.341, 1.420e-4
-1.340, 1.389e-4
-1.339, 1.358e-4
-1.338, 1.296e-4
-1.337, 1.235e-4
-1.336, 1.173e-4
-1.335, 1.111e-4
-1.334, 1.111e-4
-1.333, 1.050e-4
-1.332, 1.019e-4
-1.331, 9.573e-5
-1.330, 8.957e-5
-1.329, 8.957e-5
-1.328, 8.648e-5
-1.327, 8.032e-5
-1.326, 7.723e-5
-1.325, 7.107e-5
-1.324, 7.107e-5
-1.323, 6.798e-5
-1.322, 6.490e-5
-1.321, 5.873e-5
-1.320, 5.565e-5
-1.319, 5.565e-5
-1.318, 5.257e-5
-1.317, 4.949e-5
-1.316, 4.332e-5
-1.315, 4.332e-5
-1.314, 4.024e-5
-1.313, 4.024e-5
-1.312, 3.715e-5
-1.311, 3.099e-5
-1.310, 3.099e-5
-1.309, 3.099e-5
-1.308, 2.790e-5
-1.307, 2.482e-5
-1.306, 2.174e-5
-1.305, 1.865e-5
-1.304, 1.865e-5
-1.303, 1.865e-5
-1.302, 1.557e-5
-1.301, 1.249e-5
-1.300, 9.405e-6
-1.299, 9.405e-6
-1.298, 1.249e-5
-1.297, 6.322e-6
-1.296, 6.322e-6
-1.295, 3.239e-6
-1.294, 3.239e-6
-1.293, 3.239e-6
-1.292, 1.559e-7
-1.291, 1.559e-7
-1.290, -2.927e-6
-1.289, -2.927e-6
-1.288, 1.559e-7
-1.287, -2.927e-6
-1.286, -6.010e-6
-1.285, -9.093e-6
-1.284, -6.010e-6
-1.283, -6.010e-6
-1.282, -9.093e-6
-1.281, -1.218e-5
-1.280, -1.218e-5
-1.279, -1.218e-5
-1.278, -1.218e-5
-1.277, -1.218e-5
-1.276, -1.834e-5
-1.275, -1.526e-5
-1.274, -1.526e-5
-1.273, -1.526e-5
-1.272, -1.526e-5
-1.271, -1.834e-5
-1.270, -1.834e-5
-1.269, -1.834e-5
-1.268, -1.834e-5
-1.267, -2.143e-5
-1.266, -2.143e-5
-1.265, -2.143e-5
-1.264, -1.834e-5
-1.263, -1.834e-5
-1.262, -2.143e-5
-1.261, -2.451e-5
-1.260, -2.451e-5
-1.259, -2.143e-5
-1.258, -2.143e-5
-1.257, -2.451e-5
-1.256, -2.451e-5
-1.255, -2.451e-5
-1.254, -2.451e-5
-1.253, -2.451e-5
-1.252, -2.451e-5
-1.251, -2.759e-5
-1.250, -2.759e-5
-1.249, -2.451e-5
-1.248, -2.451e-5
-1.247, -2.759e-5
-1.246, -2.759e-5
-1.245, -2.759e-5
-1.244, -2.759e-5
-1.243, -2.759e-5
-1.242, -2.759e-5
-1.241, -3.068e-5
-1.240, -3.068e-5
-1.239, -2.759e-5
-1.238, -2.759e-5
-1.237, -3.068e-5
-1.236, -3.068e-5
-1.235, -3.068e-5
-1.234, -2.759e-5
-1.233, -2.759e-5
-1.232, -3.068e-5
-1.231, -3.376e-5
-1.230, -3.376e-5
-1.229, -3.068e-5
-1.228, -3.068e-5
-1.227, -3.068e-5
-1.226, -3.376e-5
-1.225, -3.376e-5
-1.224, -3.068e-5
-1.223, -3.068e-5
-1.222, -3.068e-5
-1.221, -3.376e-5
-1.220, -3.376e-5
-1.219, -3.068e-5
-1.218, -3.068e-5
-1.217, -3.376e-5
-1.216, -3.376e-5
-1.215, -3.376e-5
-1.214, -3.376e-5
-1.213, -3.376e-5
-1.212, -3.376e-5
-1.211, -3.376e-5
-1.210, -3.684e-5
-1.209, -3.376e-5
-1.208, -3.068e-5
-1.207, -3.376e-5
-1.206, -3.684e-5
-1.205, -3.684e-5
-1.204, -3.376e-5
-1.203, -3.376e-5
-1.202, -3.684e-5
-1.201, -3.684e-5
-1.200, -3.684e-5
-1.199, -3.376e-5
-1.198, -3.376e-5
-1.197, -3.376e-5
-1.196, -3.684e-5
-1.195, -3.684e-5
-1.194, -3.684e-5
-1.193, -3.376e-5
-1.192, -3.684e-5
-1.191, -3.684e-5
-1.190, -3.684e-5
-1.189, -3.684e-5
-1.188, -3.684e-5
-1.187, -3.684e-5
-1.186, -3.684e-5
-1.185, -3.992e-5
-1.184, -3.684e-5
-1.183, -3.684e-5
-1.182, -3.684e-5
-1.181, -3.992e-5
-1.180, -3.992e-5
-1.179, -3.684e-5
-1.178, -3.684e-5
-1.177, -3.992e-5
-1.176, -3.992e-5
-1.175, -3.992e-5
-1.174, -3.684e-5
-1.173, -3.684e-5
-1.172, -3.992e-5
-1.171, -3.992e-5
-1.170, -3.992e-5
-1.169, -3.992e-5
-1.168, -3.992e-5
-1.167, -3.992e-5
-1.166, -4.301e-5
-1.165, -4.301e-5
-1.164, -3.992e-5
-1.163, -3.992e-5
-1.162, -4.301e-5
-1.161, -4.301e-5
-1.160, -4.301e-5
-1.159, -3.992e-5
-1.158, -3.992e-5
-1.157, -4.301e-5
-1.156, -4.301e-5
-1.155, -4.301e-5
-1.154, -4.301e-5
-1.153, -4.301e-5
-1.152, -4.301e-5
-1.151, -4.609e-5
-1.150, -4.609e-5
-1.149, -4.301e-5
-1.148, -4.301e-5
-1.147, -4.609e-5
-1.146, -4.609e-5
-1.145, -4.609e-5
-1.144, -4.301e-5
-1.143, -4.301e-5
-1.142, -4.609e-5
-1.141, -4.917e-5
-1.140, -4.609e-5
-1.139, -4.609e-5
-1.138, -4.609e-5
-1.137, -4.917e-5
-1.136, -4.917e-5
-1.135, -4.917e-5
-1.134, -4.917e-5
-1.133, -4.609e-5
-1.132, -4.917e-5
-1.131, -4.917e-5
-1.130, -5.226e-5
-1.129, -4.917e-5
-1.128, -4.917e-5
-1.127, -4.917e-5
-1.126, -5.226e-5
-1.125, -5.226e-5
-1.124, -4.917e-5
-1.123, -4.917e-5
-1.122, -5.226e-5
-1.121, -5.534e-5
-1.120, -5.534e-5
-1.119, -5.226e-5
-1.118, -5.226e-5
-1.117, -5.534e-5
-1.116, -5.842e-5
-1.115, -5.842e-5
-1.114, -5.534e-5
-1.113, -5.534e-5
-1.112, -5.842e-5
-1.111, -5.842e-5
-1.110, -5.842e-5
-1.109, -5.842e-5
-1.108, -5.842e-5
-1.107, -6.151e-5
-1.106, -6.459e-5
-1.105, -6.151e-5
-1.104, -6.151e-5
-1.103, -6.151e-5
-1.102, -6.151e-5
-1.101, -6.459e-5
-1.100, -6.767e-5
-1.099, -6.459e-5
-1.098, -6.459e-5
-1.097, -6.767e-5
-1.096, -6.767e-5
-1.095, -7.076e-5
-1.094, -6.767e-5
-1.093, -6.767e-5
-1.092, -7.076e-5
-1.091, -7.384e-5
-1.090, -7.384e-5
-1.089, -7.384e-5
-1.088, -7.384e-5
-1.087, -7.384e-5
-1.086, -7.692e-5
-1.085, -7.692e-5
-1.084, -7.692e-5
-1.083, -7.692e-5
-1.082, -8.000e-5
-1.081, -8.309e-5
-1.080, -8.309e-5
-1.079, -8.309e-5
-1.078, -8.309e-5
-1.077, -8.309e-5
-1.076, -8.617e-5
-1.075, -8.925e-5
-1.074, -8.617e-5
-1.073, -8.925e-5
-1.072, -8.925e-5
-1.071, -9.234e-5
-1.070, -9.542e-5
-1.069, -9.234e-5
-1.068, -9.234e-5
-1.067, -9.542e-5
-1.066, -9.850e-5
-1.065, -1.016e-4
-1.064, -9.850e-5
-1.063, -9.850e-5
-1.062, -1.016e-4
-1.061, -1.047e-4
-1.060, -1.078e-4
-1.059, -1.078e-4
-1.058, -1.047e-4
-1.057, -1.078e-4
-1.056, -1.108e-4
-1.055, -1.139e-4
-1.054, -1.139e-4
-1.053, -1.139e-4
-1.052, -1.170e-4
-1.051, -1.201e-4
-1.050, -1.201e-4
-1.049, -1.201e-4
-1.048, -1.201e-4
-1.047, -1.232e-4
-1.046, -1.263e-4
-1.045, -1.293e-4
-1.044, -1.263e-4
-1.043, -1.293e-4
-1.042, -1.293e-4
-1.041, -1.355e-4
-1.040, -1.386e-4
-1.039, -1.355e-4
-1.038, -1.355e-4
-1.037, -1.386e-4
-1.036, -1.448e-4
-1.035, -1.448e-4
-1.034, -1.448e-4
-1.033, -1.448e-4
-1.032, -1.478e-4
-1.031, -1.540e-4
-1.030, -1.571e-4
-1.029, -1.540e-4
-1.028, -1.540e-4
-1.027, -1.571e-4
-1.026, -1.632e-4
-1.025, -1.663e-4
-1.024, -1.632e-4
-1.023, -1.663e-4
-1.022, -1.663e-4
-1.021, -1.725e-4
-1.020, -1.756e-4
-1.019, -1.756e-4
-1.018, -1.756e-4
-1.017, -1.787e-4
-1.016, -1.817e-4
-1.015, -1.848e-4
-1.014, -1.848e-4
-1.013, -1.848e-4
-1.012, -1.879e-4
-1.011, -1.941e-4
-1.010, -1.941e-4
-1.009, -1.941e-4
-1.008, -1.941e-4
-1.007, -1.972e-4
-1.006, -2.033e-4
-1.005, -2.064e-4
-1.004, -2.064e-4
-1.003, -2.064e-4
-1.002, -2.095e-4
-1.001, -2.157e-4
