Mar. 7, 2025   03:19:54
Cyclic Voltammetry
File: c:/users/guazh/data/banditlqround7_x0exp169_r20_3/2025-03-03-exp894\exp894-2025-03-07t03_11_47-arkoh\exp894_cv_sr_700mvs_efin_-1400mv.bin
Data Source:  Experiment
Instrument Model:  CHI760E
Header: CV ran at 700 mVs
Note: 

Init E (V) = -1
High E (V) = -1
Low E (V) = -1.4
Final E (V) = -1
Init P/N = N
Scan Rate (V/s) = 0.7
Segment = 3
Sample Interval (V) = 0.001
Quiet Time (sec) = 2
Sensitivity (A/V) = 0.01
Comp R (ohm) = 0.7

Results:

Channel 1:
Segment 1:

Segment 2:

Segment 3:

Potential/V, Current/A

-1.000, -1.448e-4
-1.001, -3.376e-5
-1.002, 6.490e-5
-1.003, 1.605e-4
-1.004, 2.530e-4
-1.005, 3.455e-4
-1.006, 4.318e-4
-1.007, 5.181e-4
-1.008, 6.014e-4
-1.009, 6.846e-4
-1.010, 7.617e-4
-1.011, 8.357e-4
-1.012, 9.128e-4
-1.013, 9.806e-4
-1.014, 1.051e-3
-1.015, 1.119e-3
-1.016, 1.187e-3
-1.017, 1.249e-3
-1.018, 1.317e-3
-1.019, 1.381e-3
-1.020, 1.443e-3
-1.021, 1.505e-3
-1.022, 1.569e-3
-1.023, 1.634e-3
-1.024, 1.699e-3
-1.025, 1.758e-3
-1.026, 1.813e-3
-1.027, 1.865e-3
-1.028, 1.921e-3
-1.029, 1.973e-3
-1.030, 2.029e-3
-1.031, 2.081e-3
-1.032, 2.134e-3
-1.033, 2.186e-3
-1.034, 2.235e-3
-1.035, 2.288e-3
-1.036, 2.340e-3
-1.037, 2.393e-3
-1.038, 2.442e-3
-1.039, 2.494e-3
-1.040, 2.544e-3
-1.041, 2.590e-3
-1.042, 2.633e-3
-1.043, 2.676e-3
-1.044, 2.716e-3
-1.045, 2.756e-3
-1.046, 2.793e-3
-1.047, 2.834e-3
-1.048, 2.874e-3
-1.049, 2.917e-3
-1.050, 2.960e-3
-1.051, 3.000e-3
-1.052, 3.043e-3
-1.053, 3.089e-3
-1.054, 3.139e-3
-1.055, 3.179e-3
-1.056, 3.213e-3
-1.057, 3.244e-3
-1.058, 3.271e-3
-1.059, 3.305e-3
-1.060, 3.336e-3
-1.061, 3.370e-3
-1.062, 3.404e-3
-1.063, 3.441e-3
-1.064, 3.478e-3
-1.065, 3.518e-3
-1.066, 3.555e-3
-1.067, 3.592e-3
-1.068, 3.629e-3
-1.069, 3.660e-3
-1.070, 3.684e-3
-1.071, 3.706e-3
-1.072, 3.728e-3
-1.073, 3.749e-3
-1.074, 3.771e-3
-1.075, 3.799e-3
-1.076, 3.823e-3
-1.077, 3.854e-3
-1.078, 3.885e-3
-1.079, 3.922e-3
-1.080, 3.956e-3
-1.081, 3.987e-3
-1.082, 4.017e-3
-1.083, 4.045e-3
-1.084, 4.073e-3
-1.085, 4.101e-3
-1.086, 4.128e-3
-1.087, 4.156e-3
-1.088, 4.184e-3
-1.089, 4.209e-3
-1.090, 4.233e-3
-1.091, 4.258e-3
-1.092, 4.286e-3
-1.093, 4.307e-3
-1.094, 4.332e-3
-1.095, 4.350e-3
-1.096, 4.369e-3
-1.097, 4.384e-3
-1.098, 4.403e-3
-1.099, 4.421e-3
-1.100, 4.446e-3
-1.101, 4.464e-3
-1.102, 4.483e-3
-1.103, 4.505e-3
-1.104, 4.520e-3
-1.105, 4.542e-3
-1.106, 4.563e-3
-1.107, 4.585e-3
-1.108, 4.603e-3
-1.109, 4.622e-3
-1.110, 4.646e-3
-1.111, 4.674e-3
-1.112, 4.699e-3
-1.113, 4.723e-3
-1.114, 4.745e-3
-1.115, 4.767e-3
-1.116, 4.788e-3
-1.117, 4.810e-3
-1.118, 4.828e-3
-1.119, 4.847e-3
-1.120, 4.865e-3
-1.121, 4.881e-3
-1.122, 4.896e-3
-1.123, 4.912e-3
-1.124, 4.927e-3
-1.125, 4.936e-3
-1.126, 4.945e-3
-1.127, 4.952e-3
-1.128, 4.961e-3
-1.129, 4.976e-3
-1.130, 4.989e-3
-1.131, 5.010e-3
-1.132, 5.029e-3
-1.133, 5.047e-3
-1.134, 5.063e-3
-1.135, 5.081e-3
-1.136, 5.097e-3
-1.137, 5.115e-3
-1.138, 5.134e-3
-1.139, 5.152e-3
-1.140, 5.155e-3
-1.141, 5.158e-3
-1.142, 5.177e-3
-1.143, 5.198e-3
-1.144, 5.220e-3
-1.145, 5.238e-3
-1.146, 5.248e-3
-1.147, 5.254e-3
-1.148, 5.266e-3
-1.149, 5.275e-3
-1.150, 5.291e-3
-1.151, 5.303e-3
-1.152, 5.319e-3
-1.153, 5.334e-3
-1.154, 5.343e-3
-1.155, 5.356e-3
-1.156, 5.374e-3
-1.157, 5.393e-3
-1.158, 5.408e-3
-1.159, 5.423e-3
-1.160, 5.433e-3
-1.161, 5.439e-3
-1.162, 5.436e-3
-1.163, 5.430e-3
-1.164, 5.430e-3
-1.165, 5.439e-3
-1.166, 5.457e-3
-1.167, 5.467e-3
-1.168, 5.467e-3
-1.169, 5.473e-3
-1.170, 5.485e-3
-1.171, 5.500e-3
-1.172, 5.513e-3
-1.173, 5.528e-3
-1.174, 5.541e-3
-1.175, 5.550e-3
-1.176, 5.559e-3
-1.177, 5.571e-3
-1.178, 5.581e-3
-1.179, 5.590e-3
-1.180, 5.602e-3
-1.181, 5.611e-3
-1.182, 5.618e-3
-1.183, 5.621e-3
-1.184, 5.627e-3
-1.185, 5.630e-3
-1.186, 5.633e-3
-1.187, 5.639e-3
-1.188, 5.645e-3
-1.189, 5.651e-3
-1.190, 5.670e-3
-1.191, 5.692e-3
-1.192, 5.710e-3
-1.193, 5.719e-3
-1.194, 5.732e-3
-1.195, 5.747e-3
-1.196, 5.759e-3
-1.197, 5.772e-3
-1.198, 5.781e-3
-1.199, 5.790e-3
-1.200, 5.799e-3
-1.201, 5.812e-3
-1.202, 5.818e-3
-1.203, 5.830e-3
-1.204, 5.836e-3
-1.205, 5.843e-3
-1.206, 5.849e-3
-1.207, 5.852e-3
-1.208, 5.855e-3
-1.209, 5.858e-3
-1.210, 5.858e-3
-1.211, 5.864e-3
-1.212, 5.867e-3
-1.213, 5.870e-3
-1.214, 5.877e-3
-1.215, 5.889e-3
-1.216, 5.898e-3
-1.217, 5.910e-3
-1.218, 5.923e-3
-1.219, 5.941e-3
-1.220, 5.954e-3
-1.221, 5.960e-3
-1.222, 5.966e-3
-1.223, 5.978e-3
-1.224, 5.994e-3
-1.225, 6.006e-3
-1.226, 6.012e-3
-1.227, 6.015e-3
-1.228, 6.018e-3
-1.229, 6.028e-3
-1.230, 6.037e-3
-1.231, 6.046e-3
-1.232, 6.058e-3
-1.233, 6.071e-3
-1.234, 6.086e-3
-1.235, 6.102e-3
-1.236, 6.117e-3
-1.237, 6.132e-3
-1.238, 6.148e-3
-1.239, 6.157e-3
-1.240, 6.169e-3
-1.241, 6.176e-3
-1.242, 6.182e-3
-1.243, 6.182e-3
-1.244, 6.176e-3
-1.245, 6.176e-3
-1.246, 6.179e-3
-1.247, 6.185e-3
-1.248, 6.188e-3
-1.249, 6.188e-3
-1.250, 6.191e-3
-1.251, 6.203e-3
-1.252, 6.225e-3
-1.253, 6.247e-3
-1.254, 6.256e-3
-1.255, 6.250e-3
-1.256, 6.243e-3
-1.257, 6.237e-3
-1.258, 6.234e-3
-1.259, 6.237e-3
-1.260, 6.243e-3
-1.261, 6.256e-3
-1.262, 6.265e-3
-1.263, 6.277e-3
-1.264, 6.293e-3
-1.265, 6.311e-3
-1.266, 6.330e-3
-1.267, 6.339e-3
-1.268, 6.348e-3
-1.269, 6.354e-3
-1.270, 6.351e-3
-1.271, 6.348e-3
-1.272, 6.345e-3
-1.273, 6.342e-3
-1.274, 6.345e-3
-1.275, 6.358e-3
-1.276, 6.370e-3
-1.277, 6.382e-3
-1.278, 6.395e-3
-1.279, 6.413e-3
-1.280, 6.435e-3
-1.281, 6.450e-3
-1.282, 6.465e-3
-1.283, 6.472e-3
-1.284, 6.478e-3
-1.285, 6.481e-3
-1.286, 6.484e-3
-1.287, 6.487e-3
-1.288, 6.499e-3
-1.289, 6.521e-3
-1.290, 6.539e-3
-1.291, 6.546e-3
-1.292, 6.555e-3
-1.293, 6.561e-3
-1.294, 6.573e-3
-1.295, 6.583e-3
-1.296, 6.595e-3
-1.297, 6.607e-3
-1.298, 6.620e-3
-1.299, 6.626e-3
-1.300, 6.632e-3
-1.301, 6.644e-3
-1.302, 6.666e-3
-1.303, 6.687e-3
-1.304, 6.700e-3
-1.305, 6.700e-3
-1.306, 6.691e-3
-1.307, 6.684e-3
-1.308, 6.694e-3
-1.309, 6.706e-3
-1.310, 6.721e-3
-1.311, 6.740e-3
-1.312, 6.758e-3
-1.313, 6.774e-3
-1.314, 6.789e-3
-1.315, 6.808e-3
-1.316, 6.823e-3
-1.317, 6.835e-3
-1.318, 6.845e-3
-1.319, 6.854e-3
-1.320, 6.863e-3
-1.321, 6.875e-3
-1.322, 6.885e-3
-1.323, 6.894e-3
-1.324, 6.906e-3
-1.325, 6.919e-3
-1.326, 6.925e-3
-1.327, 6.934e-3
-1.328, 6.943e-3
-1.329, 6.959e-3
-1.330, 6.971e-3
-1.331, 6.980e-3
-1.332, 6.996e-3
-1.333, 7.014e-3
-1.334, 7.033e-3
-1.335, 7.051e-3
-1.336, 7.067e-3
-1.337, 7.085e-3
-1.338, 7.101e-3
-1.339, 7.119e-3
-1.340, 7.134e-3
-1.341, 7.150e-3
-1.342, 7.159e-3
-1.343, 7.168e-3
-1.344, 7.175e-3
-1.345, 7.181e-3
-1.346, 7.187e-3
-1.347, 7.193e-3
-1.348, 7.196e-3
-1.349, 7.208e-3
-1.350, 7.224e-3
-1.351, 7.239e-3
-1.352, 7.255e-3
-1.353, 7.276e-3
-1.354, 7.298e-3
-1.355, 7.319e-3
-1.356, 7.338e-3
-1.357, 7.360e-3
-1.358, 7.378e-3
-1.359, 7.400e-3
-1.360, 7.421e-3
-1.361, 7.443e-3
-1.362, 7.458e-3
-1.363, 7.467e-3
-1.364, 7.483e-3
-1.365, 7.508e-3
-1.366, 7.545e-3
-1.367, 7.582e-3
-1.368, 7.603e-3
-1.369, 7.619e-3
-1.370, 7.640e-3
-1.371, 7.674e-3
-1.372, 7.714e-3
-1.373, 7.751e-3
-1.374, 7.785e-3
-1.375, 7.816e-3
-1.376, 7.844e-3
-1.377, 7.874e-3
-1.378, 7.908e-3
-1.379, 7.942e-3
-1.380, 7.976e-3
-1.381, 8.013e-3
-1.382, 8.047e-3
-1.383, 8.081e-3
-1.384, 8.099e-3
-1.385, 8.112e-3
-1.386, 8.124e-3
-1.387, 8.140e-3
-1.388, 8.158e-3
-1.389, 8.177e-3
-1.390, 8.195e-3
-1.391, 8.217e-3
-1.392, 8.244e-3
-1.393, 8.278e-3
-1.394, 8.312e-3
-1.395, 8.352e-3
-1.396, 8.389e-3
-1.397, 8.426e-3
-1.398, 8.457e-3
-1.399, 8.488e-3
-1.400, 8.436e-3
-1.399, 8.247e-3
-1.398, 8.081e-3
-1.397, 7.924e-3
-1.396, 7.773e-3
-1.395, 7.631e-3
-1.394, 7.492e-3
-1.393, 7.360e-3
-1.392, 7.233e-3
-1.391, 7.110e-3
-1.390, 6.990e-3
-1.389, 6.879e-3
-1.388, 6.764e-3
-1.387, 6.657e-3
-1.386, 6.546e-3
-1.385, 6.435e-3
-1.384, 6.327e-3
-1.383, 6.222e-3
-1.382, 6.120e-3
-1.381, 6.018e-3
-1.380, 5.917e-3
-1.379, 5.815e-3
-1.378, 5.713e-3
-1.377, 5.611e-3
-1.376, 5.516e-3
-1.375, 5.423e-3
-1.374, 5.337e-3
-1.373, 5.254e-3
-1.372, 5.167e-3
-1.371, 5.084e-3
-1.370, 5.001e-3
-1.369, 4.927e-3
-1.368, 4.844e-3
-1.367, 4.757e-3
-1.366, 4.671e-3
-1.365, 4.582e-3
-1.364, 4.501e-3
-1.363, 4.418e-3
-1.362, 4.344e-3
-1.361, 4.267e-3
-1.360, 4.193e-3
-1.359, 4.119e-3
-1.358, 4.042e-3
-1.357, 3.968e-3
-1.356, 3.894e-3
-1.355, 3.820e-3
-1.354, 3.743e-3
-1.353, 3.666e-3
-1.352, 3.586e-3
-1.351, 3.506e-3
-1.350, 3.425e-3
-1.349, 3.348e-3
-1.348, 3.271e-3
-1.347, 3.200e-3
-1.346, 3.130e-3
-1.345, 3.065e-3
-1.344, 3.003e-3
-1.343, 2.941e-3
-1.342, 2.877e-3
-1.341, 2.815e-3
-1.340, 2.753e-3
-1.339, 2.692e-3
-1.338, 2.627e-3
-1.337, 2.565e-3
-1.336, 2.501e-3
-1.335, 2.436e-3
-1.334, 2.371e-3
-1.333, 2.309e-3
-1.332, 2.245e-3
-1.331, 2.183e-3
-1.330, 2.121e-3
-1.329, 2.066e-3
-1.328, 2.010e-3
-1.327, 1.958e-3
-1.326, 1.909e-3
-1.325, 1.853e-3
-1.324, 1.801e-3
-1.323, 1.745e-3
-1.322, 1.693e-3
-1.321, 1.634e-3
-1.320, 1.579e-3
-1.319, 1.520e-3
-1.318, 1.462e-3
-1.317, 1.406e-3
-1.316, 1.351e-3
-1.315, 1.295e-3
-1.314, 1.236e-3
-1.313, 1.184e-3
-1.312, 1.129e-3
-1.311, 1.073e-3
-1.310, 1.018e-3
-1.309, 9.621e-4
-1.308, 9.066e-4
-1.307, 8.542e-4
-1.306, 8.018e-4
-1.305, 7.524e-4
-1.304, 7.031e-4
-1.303, 6.538e-4
-1.302, 6.044e-4
-1.301, 5.551e-4
-1.300, 5.058e-4
-1.299, 4.565e-4
-1.298, 4.071e-4
-1.297, 3.578e-4
-1.296, 3.085e-4
-1.295, 2.622e-4
-1.294, 2.160e-4
-1.293, 1.697e-4
-1.292, 1.235e-4
-1.291, 8.032e-5
-1.290, 3.407e-5
-1.289, -1.218e-5
-1.288, -5.842e-5
-1.287, -1.047e-4
-1.286, -1.509e-4
-1.285, -1.972e-4
-1.284, -2.403e-4
-1.283, -2.866e-4
-1.282, -3.297e-4
-1.281, -3.698e-4
-1.280, -4.099e-4
-1.279, -4.531e-4
-1.278, -4.931e-4
-1.277, -5.363e-4
-1.276, -5.795e-4
-1.275, -6.195e-4
-1.274, -6.627e-4
-1.273, -7.059e-4
-1.272, -7.460e-4
-1.271, -7.860e-4
-1.270, -8.261e-4
-1.269, -8.631e-4
-1.268, -9.001e-4
-1.267, -9.371e-4
-1.266, -9.710e-4
-1.265, -1.011e-3
-1.264, -1.051e-3
-1.263, -1.088e-3
-1.262, -1.128e-3
-1.261, -1.165e-3
-1.260, -1.205e-3
-1.259, -1.242e-3
-1.258, -1.279e-3
-1.257, -1.316e-3
-1.256, -1.347e-3
-1.255, -1.381e-3
-1.254, -1.415e-3
-1.253, -1.449e-3
-1.252, -1.483e-3
-1.251, -1.520e-3
-1.250, -1.554e-3
-1.249, -1.591e-3
-1.248, -1.622e-3
-1.247, -1.659e-3
-1.246, -1.689e-3
-1.245, -1.723e-3
-1.244, -1.757e-3
-1.243, -1.788e-3
-1.242, -1.819e-3
-1.241, -1.850e-3
-1.240, -1.877e-3
-1.239, -1.908e-3
-1.238, -1.939e-3
-1.237, -1.967e-3
-1.236, -2.001e-3
-1.235, -2.032e-3
-1.234, -2.059e-3
-1.233, -2.087e-3
-1.232, -2.118e-3
-1.231, -2.146e-3
-1.230, -2.177e-3
-1.229, -2.210e-3
-1.228, -2.241e-3
-1.227, -2.272e-3
-1.226, -2.297e-3
-1.225, -2.321e-3
-1.224, -2.349e-3
-1.223, -2.380e-3
-1.222, -2.414e-3
-1.221, -2.439e-3
-1.220, -2.466e-3
-1.219, -2.488e-3
-1.218, -2.513e-3
-1.217, -2.540e-3
-1.216, -2.565e-3
-1.215, -2.593e-3
-1.214, -2.614e-3
-1.213, -2.636e-3
-1.212, -2.661e-3
-1.211, -2.688e-3
-1.210, -2.713e-3
-1.209, -2.744e-3
-1.208, -2.772e-3
-1.207, -2.799e-3
-1.206, -2.827e-3
-1.205, -2.849e-3
-1.204, -2.873e-3
-1.203, -2.895e-3
-1.202, -2.916e-3
-1.201, -2.935e-3
-1.200, -2.950e-3
-1.199, -2.969e-3
-1.198, -2.987e-3
-1.197, -3.009e-3
-1.196, -3.034e-3
-1.195, -3.055e-3
-1.194, -3.077e-3
-1.193, -3.101e-3
-1.192, -3.126e-3
-1.191, -3.148e-3
-1.190, -3.169e-3
-1.189, -3.188e-3
-1.188, -3.203e-3
-1.187, -3.219e-3
-1.186, -3.237e-3
-1.185, -3.253e-3
-1.184, -3.271e-3
-1.183, -3.293e-3
-1.182, -3.311e-3
-1.181, -3.327e-3
-1.180, -3.348e-3
-1.179, -3.364e-3
-1.178, -3.385e-3
-1.177, -3.407e-3
-1.176, -3.422e-3
-1.175, -3.438e-3
-1.174, -3.459e-3
-1.173, -3.475e-3
-1.172, -3.493e-3
-1.171, -3.515e-3
-1.170, -3.536e-3
-1.169, -3.555e-3
-1.168, -3.576e-3
-1.167, -3.589e-3
-1.166, -3.604e-3
-1.165, -3.616e-3
-1.164, -3.632e-3
-1.163, -3.647e-3
-1.162, -3.659e-3
-1.161, -3.675e-3
-1.160, -3.690e-3
-1.159, -3.712e-3
-1.158, -3.730e-3
-1.157, -3.749e-3
-1.156, -3.767e-3
-1.155, -3.783e-3
-1.154, -3.792e-3
-1.153, -3.801e-3
-1.152, -3.811e-3
-1.151, -3.817e-3
-1.150, -3.829e-3
-1.149, -3.841e-3
-1.148, -3.857e-3
-1.147, -3.872e-3
-1.146, -3.888e-3
-1.145, -3.903e-3
-1.144, -3.918e-3
-1.143, -3.937e-3
-1.142, -3.952e-3
-1.141, -3.968e-3
-1.140, -3.977e-3
-1.139, -3.980e-3
-1.138, -3.989e-3
-1.137, -4.005e-3
-1.136, -4.023e-3
-1.135, -4.042e-3
-1.134, -4.051e-3
-1.133, -4.060e-3
-1.132, -4.073e-3
-1.131, -4.085e-3
-1.130, -4.100e-3
-1.129, -4.119e-3
-1.128, -4.137e-3
-1.127, -4.156e-3
-1.126, -4.168e-3
-1.125, -4.184e-3
-1.124, -4.199e-3
-1.123, -4.221e-3
-1.122, -4.239e-3
-1.121, -4.255e-3
-1.120, -4.264e-3
-1.119, -4.273e-3
-1.118, -4.276e-3
-1.117, -4.279e-3
-1.116, -4.279e-3
-1.115, -4.279e-3
-1.114, -4.282e-3
-1.113, -4.292e-3
-1.112, -4.304e-3
-1.111, -4.319e-3
-1.110, -4.338e-3
-1.109, -4.359e-3
-1.108, -4.381e-3
-1.107, -4.396e-3
-1.106, -4.406e-3
-1.105, -4.412e-3
-1.104, -4.415e-3
-1.103, -4.418e-3
-1.102, -4.415e-3
-1.101, -4.415e-3
-1.100, -4.424e-3
-1.099, -4.433e-3
-1.098, -4.446e-3
-1.097, -4.452e-3
-1.096, -4.464e-3
-1.095, -4.480e-3
-1.094, -4.498e-3
-1.093, -4.510e-3
-1.092, -4.526e-3
-1.091, -4.535e-3
-1.090, -4.551e-3
-1.089, -4.566e-3
-1.088, -4.578e-3
-1.087, -4.594e-3
-1.086, -4.606e-3
-1.085, -4.618e-3
-1.084, -4.631e-3
-1.083, -4.643e-3
-1.082, -4.655e-3
-1.081, -4.668e-3
-1.080, -4.677e-3
-1.079, -4.683e-3
-1.078, -4.689e-3
-1.077, -4.695e-3
-1.076, -4.702e-3
-1.075, -4.708e-3
-1.074, -4.711e-3
-1.073, -4.711e-3
-1.072, -4.714e-3
-1.071, -4.720e-3
-1.070, -4.729e-3
-1.069, -4.739e-3
-1.068, -4.748e-3
-1.067, -4.757e-3
-1.066, -4.766e-3
-1.065, -4.779e-3
-1.064, -4.785e-3
-1.063, -4.797e-3
-1.062, -4.803e-3
-1.061, -4.813e-3
-1.060, -4.816e-3
-1.059, -4.822e-3
-1.058, -4.825e-3
-1.057, -4.831e-3
-1.056, -4.843e-3
-1.055, -4.850e-3
-1.054, -4.859e-3
-1.053, -4.868e-3
-1.052, -4.887e-3
-1.051, -4.911e-3
-1.050, -4.933e-3
-1.049, -4.936e-3
-1.048, -4.936e-3
-1.047, -4.939e-3
-1.046, -4.954e-3
-1.045, -4.970e-3
-1.044, -4.985e-3
-1.043, -4.998e-3
-1.042, -5.007e-3
-1.041, -5.019e-3
-1.040, -5.031e-3
-1.039, -5.047e-3
-1.038, -5.065e-3
-1.037, -5.081e-3
-1.036, -5.096e-3
-1.035, -5.105e-3
-1.034, -5.109e-3
-1.033, -5.109e-3
-1.032, -5.109e-3
-1.031, -5.109e-3
-1.030, -5.109e-3
-1.029, -5.109e-3
-1.028, -5.109e-3
-1.027, -5.115e-3
-1.026, -5.124e-3
-1.025, -5.136e-3
-1.024, -5.146e-3
-1.023, -5.158e-3
-1.022, -5.170e-3
-1.021, -5.179e-3
-1.020, -5.192e-3
-1.019, -5.201e-3
-1.018, -5.207e-3
-1.017, -5.213e-3
-1.016, -5.216e-3
-1.015, -5.220e-3
-1.014, -5.226e-3
-1.013, -5.229e-3
-1.012, -5.241e-3
-1.011, -5.253e-3
-1.010, -5.266e-3
-1.009, -5.275e-3
-1.008, -5.287e-3
-1.007, -5.306e-3
-1.006, -5.324e-3
-1.005, -5.343e-3
-1.004, -5.361e-3
-1.003, -5.377e-3
-1.002, -5.392e-3
-1.001, -5.405e-3
