Aug. 30, 2024   12:18:16
Cyclic Voltammetry
File: c:/users/guazh/data/20240829_batch_215_500/2024-08-29-exp220\exp220-2024-08-30t11_58_11-arkoh\exp220_cv_sr_500mvs_efin_-1800mv.bin
Data Source:  Experiment
Instrument Model:  CHI760E
Header: CV ran at 500 mVs
Note: 

Init E (V) = -1
High E (V) = -1
Low E (V) = -1.8
Final E (V) = -1
Init P/N = N
Scan Rate (V/s) = 0.5
Segment = 3
Sample Interval (V) = 0.001
Quiet Time (sec) = 2
Sensitivity (A/V) = 0.01
Comp R (ohm) = 1.5

Results:

Channel 1:
Segment 1:

Segment 2:

Segment 3:

Potential/V, Current/A

-1.000, 3.239e-6
-1.001, 3.239e-6
-1.002, 3.239e-6
-1.003, 3.239e-6
-1.004, 3.239e-6
-1.005, 3.239e-6
-1.006, 3.239e-6
-1.007, 6.322e-6
-1.008, 6.322e-6
-1.009, 6.322e-6
-1.010, 6.322e-6
-1.011, 6.322e-6
-1.012, 6.322e-6
-1.013, 6.322e-6
-1.014, 6.322e-6
-1.015, 6.322e-6
-1.016, 6.322e-6
-1.017, 6.322e-6
-1.018, 6.322e-6
-1.019, 6.322e-6
-1.020, 6.322e-6
-1.021, 6.322e-6
-1.022, 6.322e-6
-1.023, 6.322e-6
-1.024, 6.322e-6
-1.025, 6.322e-6
-1.026, 6.322e-6
-1.027, 6.322e-6
-1.028, 6.322e-6
-1.029, 6.322e-6
-1.030, 6.322e-6
-1.031, 6.322e-6
-1.032, 6.322e-6
-1.033, 6.322e-6
-1.034, 6.322e-6
-1.035, 6.322e-6
-1.036, 6.322e-6
-1.037, 9.405e-6
-1.038, 6.322e-6
-1.039, 6.322e-6
-1.040, 6.322e-6
-1.041, 9.405e-6
-1.042, 9.405e-6
-1.043, 6.322e-6
-1.044, 6.322e-6
-1.045, 9.405e-6
-1.046, 9.405e-6
-1.047, 6.322e-6
-1.048, 9.405e-6
-1.049, 9.405e-6
-1.050, 9.405e-6
-1.051, 9.405e-6
-1.052, 9.405e-6
-1.053, 9.405e-6
-1.054, 9.405e-6
-1.055, 9.405e-6
-1.056, 9.405e-6
-1.057, 9.405e-6
-1.058, 9.405e-6
-1.059, 9.405e-6
-1.060, 9.405e-6
-1.061, 9.405e-6
-1.062, 9.405e-6
-1.063, 9.405e-6
-1.064, 9.405e-6
-1.065, 9.405e-6
-1.066, 9.405e-6
-1.067, 9.405e-6
-1.068, 9.405e-6
-1.069, 9.405e-6
-1.070, 9.405e-6
-1.071, 9.405e-6
-1.072, 9.405e-6
-1.073, 9.405e-6
-1.074, 9.405e-6
-1.075, 9.405e-6
-1.076, 9.405e-6
-1.077, 9.405e-6
-1.078, 9.405e-6
-1.079, 9.405e-6
-1.080, 9.405e-6
-1.081, 9.405e-6
-1.082, 9.405e-6
-1.083, 9.405e-6
-1.084, 9.405e-6
-1.085, 9.405e-6
-1.086, 9.405e-6
-1.087, 9.405e-6
-1.088, 9.405e-6
-1.089, 9.405e-6
-1.090, 9.405e-6
-1.091, 9.405e-6
-1.092, 9.405e-6
-1.093, 9.405e-6
-1.094, 9.405e-6
-1.095, 9.405e-6
-1.096, 9.405e-6
-1.097, 9.405e-6
-1.098, 9.405e-6
-1.099, 9.405e-6
-1.100, 9.405e-6
-1.101, 9.405e-6
-1.102, 9.405e-6
-1.103, 9.405e-6
-1.104, 9.405e-6
-1.105, 9.405e-6
-1.106, 9.405e-6
-1.107, 9.405e-6
-1.108, 9.405e-6
-1.109, 9.405e-6
-1.110, 9.405e-6
-1.111, 9.405e-6
-1.112, 9.405e-6
-1.113, 9.405e-6
-1.114, 9.405e-6
-1.115, 1.249e-5
-1.116, 9.405e-6
-1.117, 9.405e-6
-1.118, 9.405e-6
-1.119, 9.405e-6
-1.120, 1.249e-5
-1.121, 9.405e-6
-1.122, 1.249e-5
-1.123, 1.249e-5
-1.124, 1.249e-5
-1.125, 1.249e-5
-1.126, 9.405e-6
-1.127, 1.249e-5
-1.128, 9.405e-6
-1.129, 1.249e-5
-1.130, 1.249e-5
-1.131, 9.405e-6
-1.132, 1.249e-5
-1.133, 1.249e-5
-1.134, 1.249e-5
-1.135, 1.249e-5
-1.136, 1.249e-5
-1.137, 1.249e-5
-1.138, 1.249e-5
-1.139, 1.249e-5
-1.140, 1.249e-5
-1.141, 1.249e-5
-1.142, 1.249e-5
-1.143, 1.249e-5
-1.144, 1.249e-5
-1.145, 1.249e-5
-1.146, 1.249e-5
-1.147, 1.249e-5
-1.148, 1.249e-5
-1.149, 1.249e-5
-1.150, 9.405e-6
-1.151, 1.249e-5
-1.152, 1.249e-5
-1.153, 1.249e-5
-1.154, 1.249e-5
-1.155, 1.249e-5
-1.156, 1.249e-5
-1.157, 1.249e-5
-1.158, 1.249e-5
-1.159, 1.249e-5
-1.160, 1.249e-5
-1.161, 1.249e-5
-1.162, 1.249e-5
-1.163, 1.249e-5
-1.164, 1.249e-5
-1.165, 1.249e-5
-1.166, 1.249e-5
-1.167, 1.249e-5
-1.168, 1.249e-5
-1.169, 1.249e-5
-1.170, 1.249e-5
-1.171, 1.249e-5
-1.172, 1.249e-5
-1.173, 1.249e-5
-1.174, 1.249e-5
-1.175, 1.249e-5
-1.176, 1.249e-5
-1.177, 1.249e-5
-1.178, 1.249e-5
-1.179, 1.249e-5
-1.180, 1.249e-5
-1.181, 1.249e-5
-1.182, 1.249e-5
-1.183, 1.249e-5
-1.184, 1.249e-5
-1.185, 1.249e-5
-1.186, 1.249e-5
-1.187, 1.249e-5
-1.188, 1.249e-5
-1.189, 1.249e-5
-1.190, 1.249e-5
-1.191, 1.249e-5
-1.192, 1.249e-5
-1.193, 1.249e-5
-1.194, 1.249e-5
-1.195, 1.249e-5
-1.196, 1.249e-5
-1.197, 1.249e-5
-1.198, 1.249e-5
-1.199, 1.249e-5
-1.200, 1.249e-5
-1.201, 1.249e-5
-1.202, 1.249e-5
-1.203, 1.249e-5
-1.204, 1.249e-5
-1.205, 1.249e-5
-1.206, 1.249e-5
-1.207, 1.249e-5
-1.208, 1.249e-5
-1.209, 1.249e-5
-1.210, 1.249e-5
-1.211, 1.249e-5
-1.212, 1.557e-5
-1.213, 1.249e-5
-1.214, 1.249e-5
-1.215, 1.249e-5
-1.216, 1.557e-5
-1.217, 1.249e-5
-1.218, 1.249e-5
-1.219, 1.249e-5
-1.220, 1.557e-5
-1.221, 1.249e-5
-1.222, 1.557e-5
-1.223, 1.557e-5
-1.224, 1.557e-5
-1.225, 1.249e-5
-1.226, 1.557e-5
-1.227, 1.249e-5
-1.228, 1.557e-5
-1.229, 1.557e-5
-1.230, 1.557e-5
-1.231, 1.557e-5
-1.232, 1.557e-5
-1.233, 1.557e-5
-1.234, 1.557e-5
-1.235, 1.557e-5
-1.236, 1.557e-5
-1.237, 1.557e-5
-1.238, 1.557e-5
-1.239, 1.557e-5
-1.240, 1.557e-5
-1.241, 1.557e-5
-1.242, 1.557e-5
-1.243, 1.557e-5
-1.244, 1.557e-5
-1.245, 1.557e-5
-1.246, 1.557e-5
-1.247, 1.557e-5
-1.248, 1.557e-5
-1.249, 1.557e-5
-1.250, 1.557e-5
-1.251, 1.557e-5
-1.252, 1.557e-5
-1.253, 1.557e-5
-1.254, 1.557e-5
-1.255, 1.557e-5
-1.256, 1.557e-5
-1.257, 1.557e-5
-1.258, 1.557e-5
-1.259, 1.557e-5
-1.260, 1.557e-5
-1.261, 1.557e-5
-1.262, 1.557e-5
-1.263, 1.557e-5
-1.264, 1.557e-5
-1.265, 1.557e-5
-1.266, 1.557e-5
-1.267, 1.557e-5
-1.268, 1.557e-5
-1.269, 1.557e-5
-1.270, 1.557e-5
-1.271, 1.557e-5
-1.272, 1.557e-5
-1.273, 1.557e-5
-1.274, 1.557e-5
-1.275, 1.557e-5
-1.276, 1.557e-5
-1.277, 1.557e-5
-1.278, 1.557e-5
-1.279, 1.557e-5
-1.280, 1.557e-5
-1.281, 1.557e-5
-1.282, 1.557e-5
-1.283, 1.557e-5
-1.284, 1.557e-5
-1.285, 1.557e-5
-1.286, 1.865e-5
-1.287, 1.865e-5
-1.288, 1.557e-5
-1.289, 1.865e-5
-1.290, 1.865e-5
-1.291, 1.557e-5
-1.292, 1.865e-5
-1.293, 1.865e-5
-1.294, 1.557e-5
-1.295, 1.865e-5
-1.296, 1.557e-5
-1.297, 1.865e-5
-1.298, 1.865e-5
-1.299, 1.865e-5
-1.300, 1.865e-5
-1.301, 1.865e-5
-1.302, 1.865e-5
-1.303, 1.865e-5
-1.304, 1.865e-5
-1.305, 1.865e-5
-1.306, 1.865e-5
-1.307, 1.865e-5
-1.308, 1.865e-5
-1.309, 1.865e-5
-1.310, 1.865e-5
-1.311, 1.865e-5
-1.312, 1.865e-5
-1.313, 1.865e-5
-1.314, 1.865e-5
-1.315, 1.865e-5
-1.316, 1.865e-5
-1.317, 1.865e-5
-1.318, 1.865e-5
-1.319, 1.865e-5
-1.320, 1.865e-5
-1.321, 1.865e-5
-1.322, 1.865e-5
-1.323, 1.865e-5
-1.324, 1.865e-5
-1.325, 1.865e-5
-1.326, 2.174e-5
-1.327, 1.865e-5
-1.328, 1.865e-5
-1.329, 1.865e-5
-1.330, 1.865e-5
-1.331, 1.865e-5
-1.332, 2.174e-5
-1.333, 1.865e-5
-1.334, 2.174e-5
-1.335, 1.865e-5
-1.336, 1.865e-5
-1.337, 2.174e-5
-1.338, 2.174e-5
-1.339, 2.174e-5
-1.340, 2.174e-5
-1.341, 2.174e-5
-1.342, 2.174e-5
-1.343, 2.174e-5
-1.344, 2.174e-5
-1.345, 2.174e-5
-1.346, 2.174e-5
-1.347, 2.174e-5
-1.348, 2.174e-5
-1.349, 2.174e-5
-1.350, 2.174e-5
-1.351, 2.174e-5
-1.352, 2.174e-5
-1.353, 2.482e-5
-1.354, 2.174e-5
-1.355, 2.482e-5
-1.356, 2.174e-5
-1.357, 2.482e-5
-1.358, 2.482e-5
-1.359, 2.174e-5
-1.360, 2.482e-5
-1.361, 2.174e-5
-1.362, 2.482e-5
-1.363, 2.482e-5
-1.364, 2.482e-5
-1.365, 2.482e-5
-1.366, 2.482e-5
-1.367, 2.482e-5
-1.368, 2.482e-5
-1.369, 2.482e-5
-1.370, 2.482e-5
-1.371, 2.482e-5
-1.372, 2.482e-5
-1.373, 2.482e-5
-1.374, 2.790e-5
-1.375, 2.482e-5
-1.376, 2.790e-5
-1.377, 2.482e-5
-1.378, 2.790e-5
-1.379, 2.790e-5
-1.380, 2.790e-5
-1.381, 2.790e-5
-1.382, 2.790e-5
-1.383, 2.790e-5
-1.384, 2.790e-5
-1.385, 2.790e-5
-1.386, 2.790e-5
-1.387, 2.790e-5
-1.388, 2.790e-5
-1.389, 2.790e-5
-1.390, 2.790e-5
-1.391, 2.790e-5
-1.392, 3.099e-5
-1.393, 3.099e-5
-1.394, 3.099e-5
-1.395, 3.099e-5
-1.396, 3.099e-5
-1.397, 3.099e-5
-1.398, 3.099e-5
-1.399, 3.099e-5
-1.400, 3.099e-5
-1.401, 3.407e-5
-1.402, 3.099e-5
-1.403, 3.407e-5
-1.404, 3.407e-5
-1.405, 3.407e-5
-1.406, 3.407e-5
-1.407, 3.407e-5
-1.408, 3.407e-5
-1.409, 3.407e-5
-1.410, 3.407e-5
-1.411, 3.407e-5
-1.412, 3.715e-5
-1.413, 3.407e-5
-1.414, 3.715e-5
-1.415, 3.715e-5
-1.416, 3.715e-5
-1.417, 3.715e-5
-1.418, 3.715e-5
-1.419, 3.715e-5
-1.420, 4.024e-5
-1.421, 4.024e-5
-1.422, 4.024e-5
-1.423, 4.024e-5
-1.424, 4.024e-5
-1.425, 4.024e-5
-1.426, 4.024e-5
-1.427, 4.024e-5
-1.428, 4.024e-5
-1.429, 4.332e-5
-1.430, 4.332e-5
-1.431, 4.332e-5
-1.432, 4.332e-5
-1.433, 4.332e-5
-1.434, 4.332e-5
-1.435, 4.640e-5
-1.436, 4.640e-5
-1.437, 4.640e-5
-1.438, 4.640e-5
-1.439, 4.640e-5
-1.440, 4.949e-5
-1.441, 4.640e-5
-1.442, 4.949e-5
-1.443, 4.949e-5
-1.444, 4.949e-5
-1.445, 4.949e-5
-1.446, 4.949e-5
-1.447, 5.257e-5
-1.448, 5.257e-5
-1.449, 5.257e-5
-1.450, 5.257e-5
-1.451, 5.257e-5
-1.452, 5.565e-5
-1.453, 5.565e-5
-1.454, 5.565e-5
-1.455, 5.565e-5
-1.456, 5.565e-5
-1.457, 5.873e-5
-1.458, 5.873e-5
-1.459, 5.873e-5
-1.460, 5.873e-5
-1.461, 6.182e-5
-1.462, 6.182e-5
-1.463, 6.182e-5
-1.464, 6.182e-5
-1.465, 6.490e-5
-1.466, 6.490e-5
-1.467, 6.490e-5
-1.468, 6.490e-5
-1.469, 6.490e-5
-1.470, 6.798e-5
-1.471, 6.798e-5
-1.472, 6.798e-5
-1.473, 6.798e-5
-1.474, 7.107e-5
-1.475, 7.107e-5
-1.476, 7.107e-5
-1.477, 7.415e-5
-1.478, 7.415e-5
-1.479, 7.415e-5
-1.480, 7.723e-5
-1.481, 7.723e-5
-1.482, 8.032e-5
-1.483, 7.723e-5
-1.484, 8.032e-5
-1.485, 8.032e-5
-1.486, 8.340e-5
-1.487, 8.340e-5
-1.488, 8.340e-5
-1.489, 8.648e-5
-1.490, 8.648e-5
-1.491, 8.648e-5
-1.492, 8.957e-5
-1.493, 8.957e-5
-1.494, 9.265e-5
-1.495, 9.265e-5
-1.496, 9.573e-5
-1.497, 9.265e-5
-1.498, 9.573e-5
-1.499, 9.882e-5
-1.500, 9.882e-5
-1.501, 9.882e-5
-1.502, 1.019e-4
-1.503, 1.019e-4
-1.504, 1.050e-4
-1.505, 1.050e-4
-1.506, 1.081e-4
-1.507, 1.111e-4
-1.508, 1.111e-4
-1.509, 1.111e-4
-1.510, 1.142e-4
-1.511, 1.142e-4
-1.512, 1.173e-4
-1.513, 1.173e-4
-1.514, 1.204e-4
-1.515, 1.204e-4
-1.516, 1.235e-4
-1.517, 1.235e-4
-1.518, 1.266e-4
-1.519, 1.266e-4
-1.520, 1.296e-4
-1.521, 1.327e-4
-1.522, 1.327e-4
-1.523, 1.358e-4
-1.524, 1.389e-4
-1.525, 1.389e-4
-1.526, 1.420e-4
-1.527, 1.420e-4
-1.528, 1.451e-4
-1.529, 1.481e-4
-1.530, 1.481e-4
-1.531, 1.512e-4
-1.532, 1.543e-4
-1.533, 1.574e-4
-1.534, 1.574e-4
-1.535, 1.605e-4
-1.536, 1.636e-4
-1.537, 1.666e-4
-1.538, 1.666e-4
-1.539, 1.697e-4
-1.540, 1.728e-4
-1.541, 1.759e-4
-1.542, 1.790e-4
-1.543, 1.790e-4
-1.544, 1.821e-4
-1.545, 1.851e-4
-1.546, 1.882e-4
-1.547, 1.913e-4
-1.548, 1.944e-4
-1.549, 1.975e-4
-1.550, 1.975e-4
-1.551, 2.006e-4
-1.552, 2.036e-4
-1.553, 2.067e-4
-1.554, 2.098e-4
-1.555, 2.129e-4
-1.556, 2.160e-4
-1.557, 2.191e-4
-1.558, 2.252e-4
-1.559, 2.252e-4
-1.560, 2.283e-4
-1.561, 2.314e-4
-1.562, 2.376e-4
-1.563, 2.376e-4
-1.564, 2.437e-4
-1.565, 2.468e-4
-1.566, 2.499e-4
-1.567, 2.530e-4
-1.568, 2.561e-4
-1.569, 2.591e-4
-1.570, 2.653e-4
-1.571, 2.684e-4
-1.572, 2.715e-4
-1.573, 2.746e-4
-1.574, 2.807e-4
-1.575, 2.838e-4
-1.576, 2.869e-4
-1.577, 2.900e-4
-1.578, 2.961e-4
-1.579, 2.992e-4
-1.580, 3.054e-4
-1.581, 3.085e-4
-1.582, 3.146e-4
-1.583, 3.177e-4
-1.584, 3.208e-4
-1.585, 3.270e-4
-1.586, 3.331e-4
-1.587, 3.362e-4
-1.588, 3.424e-4
-1.589, 3.455e-4
-1.590, 3.516e-4
-1.591, 3.578e-4
-1.592, 3.609e-4
-1.593, 3.670e-4
-1.594, 3.701e-4
-1.595, 3.763e-4
-1.596, 3.825e-4
-1.597, 3.886e-4
-1.598, 3.917e-4
-1.599, 4.010e-4
-1.600, 4.040e-4
-1.601, 4.102e-4
-1.602, 4.164e-4
-1.603, 4.225e-4
-1.604, 4.287e-4
-1.605, 4.349e-4
-1.606, 4.380e-4
-1.607, 4.441e-4
-1.608, 4.534e-4
-1.609, 4.595e-4
-1.610, 4.657e-4
-1.611, 4.719e-4
-1.612, 4.780e-4
-1.613, 4.842e-4
-1.614, 4.904e-4
-1.615, 4.965e-4
-1.616, 5.058e-4
-1.617, 5.120e-4
-1.618, 5.212e-4
-1.619, 5.274e-4
-1.620, 5.335e-4
-1.621, 5.428e-4
-1.622, 5.489e-4
-1.623, 5.551e-4
-1.624, 5.644e-4
-1.625, 5.705e-4
-1.626, 5.798e-4
-1.627, 5.890e-4
-1.628, 5.983e-4
-1.629, 6.044e-4
-1.630, 6.137e-4
-1.631, 6.199e-4
-1.632, 6.291e-4
-1.633, 6.384e-4
-1.634, 6.476e-4
-1.635, 6.569e-4
-1.636, 6.661e-4
-1.637, 6.723e-4
-1.638, 6.815e-4
-1.639, 6.908e-4
-1.640, 7.031e-4
-1.641, 7.124e-4
-1.642, 7.216e-4
-1.643, 7.309e-4
-1.644, 7.401e-4
-1.645, 7.524e-4
-1.646, 7.617e-4
-1.647, 7.709e-4
-1.648, 7.833e-4
-1.649, 7.925e-4
-1.650, 8.048e-4
-1.651, 8.141e-4
-1.652, 8.264e-4
-1.653, 8.388e-4
-1.654, 8.480e-4
-1.655, 8.603e-4
-1.656, 8.727e-4
-1.657, 8.850e-4
-1.658, 8.943e-4
-1.659, 9.066e-4
-1.660, 9.189e-4
-1.661, 9.313e-4
-1.662, 9.436e-4
-1.663, 9.559e-4
-1.664, 9.683e-4
-1.665, 9.837e-4
-1.666, 9.960e-4
-1.667, 1.008e-3
-1.668, 1.021e-3
-1.669, 1.036e-3
-1.670, 1.045e-3
-1.671, 1.061e-3
-1.672, 1.076e-3
-1.673, 1.092e-3
-1.674, 1.107e-3
-1.675, 1.119e-3
-1.676, 1.135e-3
-1.677, 1.150e-3
-1.678, 1.166e-3
-1.679, 1.181e-3
-1.680, 1.193e-3
-1.681, 1.209e-3
-1.682, 1.224e-3
-1.683, 1.240e-3
-1.684, 1.255e-3
-1.685, 1.270e-3
-1.686, 1.286e-3
-1.687, 1.301e-3
-1.688, 1.320e-3
-1.689, 1.335e-3
-1.690, 1.354e-3
-1.691, 1.372e-3
-1.692, 1.391e-3
-1.693, 1.406e-3
-1.694, 1.425e-3
-1.695, 1.443e-3
-1.696, 1.462e-3
-1.697, 1.480e-3
-1.698, 1.499e-3
-1.699, 1.520e-3
-1.700, 1.536e-3
-1.701, 1.557e-3
-1.702, 1.576e-3
-1.703, 1.597e-3
-1.704, 1.616e-3
-1.705, 1.634e-3
-1.706, 1.656e-3
-1.707, 1.674e-3
-1.708, 1.696e-3
-1.709, 1.717e-3
-1.710, 1.736e-3
-1.711, 1.758e-3
-1.712, 1.779e-3
-1.713, 1.804e-3
-1.714, 1.825e-3
-1.715, 1.847e-3
-1.716, 1.869e-3
-1.717, 1.890e-3
-1.718, 1.915e-3
-1.719, 1.936e-3
-1.720, 1.961e-3
-1.721, 1.983e-3
-1.722, 2.007e-3
-1.723, 2.032e-3
-1.724, 2.060e-3
-1.725, 2.081e-3
-1.726, 2.106e-3
-1.727, 2.131e-3
-1.728, 2.155e-3
-1.729, 2.180e-3
-1.730, 2.205e-3
-1.731, 2.229e-3
-1.732, 2.257e-3
-1.733, 2.282e-3
-1.734, 2.309e-3
-1.735, 2.334e-3
-1.736, 2.362e-3
-1.737, 2.390e-3
-1.738, 2.420e-3
-1.739, 2.448e-3
-1.740, 2.476e-3
-1.741, 2.504e-3
-1.742, 2.531e-3
-1.743, 2.562e-3
-1.744, 2.590e-3
-1.745, 2.621e-3
-1.746, 2.649e-3
-1.747, 2.679e-3
-1.748, 2.710e-3
-1.749, 2.741e-3
-1.750, 2.772e-3
-1.751, 2.803e-3
-1.752, 2.834e-3
-1.753, 2.867e-3
-1.754, 2.898e-3
-1.755, 2.929e-3
-1.756, 2.960e-3
-1.757, 2.994e-3
-1.758, 3.028e-3
-1.759, 3.062e-3
-1.760, 3.096e-3
-1.761, 3.130e-3
-1.762, 3.163e-3
-1.763, 3.194e-3
-1.764, 3.231e-3
-1.765, 3.265e-3
-1.766, 3.302e-3
-1.767, 3.336e-3
-1.768, 3.373e-3
-1.769, 3.413e-3
-1.770, 3.447e-3
-1.771, 3.484e-3
-1.772, 3.521e-3
-1.773, 3.555e-3
-1.774, 3.592e-3
-1.775, 3.629e-3
-1.776, 3.663e-3
-1.777, 3.700e-3
-1.778, 3.737e-3
-1.779, 3.777e-3
-1.780, 3.814e-3
-1.781, 3.851e-3
-1.782, 3.891e-3
-1.783, 3.928e-3
-1.784, 3.971e-3
-1.785, 4.011e-3
-1.786, 4.051e-3
-1.787, 4.091e-3
-1.788, 4.132e-3
-1.789, 4.172e-3
-1.790, 4.218e-3
-1.791, 4.258e-3
-1.792, 4.301e-3
-1.793, 4.341e-3
-1.794, 4.384e-3
-1.795, 4.424e-3
-1.796, 4.471e-3
-1.797, 4.511e-3
-1.798, 4.557e-3
-1.799, 4.603e-3
-1.800, 4.625e-3
-1.799, 4.597e-3
-1.798, 4.566e-3
-1.797, 4.535e-3
-1.796, 4.505e-3
-1.795, 4.474e-3
-1.794, 4.449e-3
-1.793, 4.418e-3
-1.792, 4.391e-3
-1.791, 4.363e-3
-1.790, 4.335e-3
-1.789, 4.304e-3
-1.788, 4.273e-3
-1.787, 4.239e-3
-1.786, 4.209e-3
-1.785, 4.181e-3
-1.784, 4.150e-3
-1.783, 4.116e-3
-1.782, 4.085e-3
-1.781, 4.058e-3
-1.780, 4.027e-3
-1.779, 3.993e-3
-1.778, 3.962e-3
-1.777, 3.928e-3
-1.776, 3.894e-3
-1.775, 3.863e-3
-1.774, 3.832e-3
-1.773, 3.799e-3
-1.772, 3.768e-3
-1.771, 3.734e-3
-1.770, 3.703e-3
-1.769, 3.672e-3
-1.768, 3.638e-3
-1.767, 3.607e-3
-1.766, 3.577e-3
-1.765, 3.546e-3
-1.764, 3.515e-3
-1.763, 3.484e-3
-1.762, 3.453e-3
-1.761, 3.422e-3
-1.760, 3.392e-3
-1.759, 3.361e-3
-1.758, 3.330e-3
-1.757, 3.302e-3
-1.756, 3.274e-3
-1.755, 3.247e-3
-1.754, 3.216e-3
-1.753, 3.188e-3
-1.752, 3.154e-3
-1.751, 3.126e-3
-1.750, 3.096e-3
-1.749, 3.071e-3
-1.748, 3.043e-3
-1.747, 3.012e-3
-1.746, 2.985e-3
-1.745, 2.954e-3
-1.744, 2.926e-3
-1.743, 2.898e-3
-1.742, 2.867e-3
-1.741, 2.840e-3
-1.740, 2.812e-3
-1.739, 2.784e-3
-1.738, 2.756e-3
-1.737, 2.729e-3
-1.736, 2.701e-3
-1.735, 2.673e-3
-1.734, 2.649e-3
-1.733, 2.621e-3
-1.732, 2.596e-3
-1.731, 2.568e-3
-1.730, 2.544e-3
-1.729, 2.516e-3
-1.728, 2.491e-3
-1.727, 2.464e-3
-1.726, 2.439e-3
-1.725, 2.414e-3
-1.724, 2.386e-3
-1.723, 2.365e-3
-1.722, 2.340e-3
-1.721, 2.312e-3
-1.720, 2.291e-3
-1.719, 2.266e-3
-1.718, 2.242e-3
-1.717, 2.220e-3
-1.716, 2.195e-3
-1.715, 2.171e-3
-1.714, 2.146e-3
-1.713, 2.121e-3
-1.712, 2.097e-3
-1.711, 2.075e-3
-1.710, 2.050e-3
-1.709, 2.032e-3
-1.708, 2.007e-3
-1.707, 1.986e-3
-1.706, 1.964e-3
-1.705, 1.943e-3
-1.704, 1.921e-3
-1.703, 1.899e-3
-1.702, 1.878e-3
-1.701, 1.856e-3
-1.700, 1.835e-3
-1.699, 1.813e-3
-1.698, 1.795e-3
-1.697, 1.773e-3
-1.696, 1.754e-3
-1.695, 1.733e-3
-1.694, 1.711e-3
-1.693, 1.693e-3
-1.692, 1.671e-3
-1.691, 1.653e-3
-1.690, 1.631e-3
-1.689, 1.613e-3
-1.688, 1.594e-3
-1.687, 1.573e-3
-1.686, 1.557e-3
-1.685, 1.536e-3
-1.684, 1.517e-3
-1.683, 1.502e-3
-1.682, 1.480e-3
-1.681, 1.465e-3
-1.680, 1.446e-3
-1.679, 1.428e-3
-1.678, 1.412e-3
-1.677, 1.394e-3
-1.676, 1.378e-3
-1.675, 1.360e-3
-1.674, 1.344e-3
-1.673, 1.323e-3
-1.672, 1.310e-3
-1.671, 1.292e-3
-1.670, 1.277e-3
-1.669, 1.261e-3
-1.668, 1.246e-3
-1.667, 1.230e-3
-1.666, 1.215e-3
-1.665, 1.199e-3
-1.664, 1.184e-3
-1.663, 1.169e-3
-1.662, 1.153e-3
-1.661, 1.138e-3
-1.660, 1.125e-3
-1.659, 1.110e-3
-1.658, 1.095e-3
-1.657, 1.079e-3
-1.656, 1.067e-3
-1.655, 1.051e-3
-1.654, 1.039e-3
-1.653, 1.027e-3
-1.652, 1.011e-3
-1.651, 9.991e-4
-1.650, 9.868e-4
-1.649, 9.713e-4
-1.648, 9.590e-4
-1.647, 9.467e-4
-1.646, 9.343e-4
-1.645, 9.189e-4
-1.644, 9.097e-4
-1.643, 8.943e-4
-1.642, 8.850e-4
-1.641, 8.696e-4
-1.640, 8.603e-4
-1.639, 8.480e-4
-1.638, 8.357e-4
-1.637, 8.233e-4
-1.636, 8.110e-4
-1.635, 8.018e-4
-1.634, 7.894e-4
-1.633, 7.771e-4
-1.632, 7.679e-4
-1.631, 7.586e-4
-1.630, 7.463e-4
-1.629, 7.339e-4
-1.628, 7.247e-4
-1.627, 7.154e-4
-1.626, 7.062e-4
-1.625, 6.939e-4
-1.624, 6.846e-4
-1.623, 6.754e-4
-1.622, 6.630e-4
-1.621, 6.538e-4
-1.620, 6.445e-4
-1.619, 6.353e-4
-1.618, 6.260e-4
-1.617, 6.168e-4
-1.616, 6.075e-4
-1.615, 6.014e-4
-1.614, 5.921e-4
-1.613, 5.829e-4
-1.612, 5.736e-4
-1.611, 5.644e-4
-1.610, 5.551e-4
-1.609, 5.489e-4
-1.608, 5.397e-4
-1.607, 5.335e-4
-1.606, 5.243e-4
-1.605, 5.181e-4
-1.604, 5.089e-4
-1.603, 4.996e-4
-1.602, 4.935e-4
-1.601, 4.842e-4
-1.600, 4.780e-4
-1.599, 4.719e-4
-1.598, 4.626e-4
-1.597, 4.565e-4
-1.596, 4.472e-4
-1.595, 4.410e-4
-1.594, 4.349e-4
-1.593, 4.287e-4
-1.592, 4.225e-4
-1.591, 4.164e-4
-1.590, 4.071e-4
-1.589, 4.040e-4
-1.588, 3.948e-4
-1.587, 3.917e-4
-1.586, 3.825e-4
-1.585, 3.763e-4
-1.584, 3.701e-4
-1.583, 3.670e-4
-1.582, 3.609e-4
-1.581, 3.547e-4
-1.580, 3.485e-4
-1.579, 3.424e-4
-1.578, 3.362e-4
-1.577, 3.331e-4
-1.576, 3.270e-4
-1.575, 3.208e-4
-1.574, 3.146e-4
-1.573, 3.115e-4
-1.572, 3.054e-4
-1.571, 2.992e-4
-1.570, 2.961e-4
-1.569, 2.900e-4
-1.568, 2.869e-4
-1.567, 2.807e-4
-1.566, 2.776e-4
-1.565, 2.715e-4
-1.564, 2.653e-4
-1.563, 2.622e-4
-1.562, 2.591e-4
-1.561, 2.530e-4
-1.560, 2.499e-4
-1.559, 2.468e-4
-1.558, 2.406e-4
-1.557, 2.376e-4
-1.556, 2.314e-4
-1.555, 2.283e-4
-1.554, 2.252e-4
-1.553, 2.221e-4
-1.552, 2.191e-4
-1.551, 2.129e-4
-1.550, 2.098e-4
-1.549, 2.067e-4
-1.548, 2.036e-4
-1.547, 1.975e-4
-1.546, 1.944e-4
-1.545, 1.913e-4
-1.544, 1.882e-4
-1.543, 1.851e-4
-1.542, 1.821e-4
-1.541, 1.790e-4
-1.540, 1.759e-4
-1.539, 1.728e-4
-1.538, 1.697e-4
-1.537, 1.666e-4
-1.536, 1.636e-4
-1.535, 1.605e-4
-1.534, 1.574e-4
-1.533, 1.543e-4
-1.532, 1.512e-4
-1.531, 1.481e-4
-1.530, 1.451e-4
-1.529, 1.420e-4
-1.528, 1.389e-4
-1.527, 1.389e-4
-1.526, 1.358e-4
-1.525, 1.327e-4
-1.524, 1.327e-4
-1.523, 1.266e-4
-1.522, 1.266e-4
-1.521, 1.235e-4
-1.520, 1.204e-4
-1.519, 1.204e-4
-1.518, 1.173e-4
-1.517, 1.142e-4
-1.516, 1.111e-4
-1.515, 1.111e-4
-1.514, 1.081e-4
-1.513, 1.050e-4
-1.512, 1.050e-4
-1.511, 1.019e-4
-1.510, 9.882e-5
-1.509, 9.882e-5
-1.508, 9.573e-5
-1.507, 9.265e-5
-1.506, 9.265e-5
-1.505, 9.265e-5
-1.504, 8.957e-5
-1.503, 8.648e-5
-1.502, 8.648e-5
-1.501, 8.340e-5
-1.500, 8.032e-5
-1.499, 8.032e-5
-1.498, 8.032e-5
-1.497, 7.723e-5
-1.496, 7.723e-5
-1.495, 7.415e-5
-1.494, 7.415e-5
-1.493, 7.107e-5
-1.492, 7.107e-5
-1.491, 6.798e-5
-1.490, 6.798e-5
-1.489, 6.490e-5
-1.488, 6.490e-5
-1.487, 6.182e-5
-1.486, 6.182e-5
-1.485, 6.182e-5
-1.484, 5.873e-5
-1.483, 5.873e-5
-1.482, 5.565e-5
-1.481, 5.565e-5
-1.480, 5.565e-5
-1.479, 5.257e-5
-1.478, 5.257e-5
-1.477, 4.949e-5
-1.476, 4.949e-5
-1.475, 4.949e-5
-1.474, 4.640e-5
-1.473, 4.640e-5
-1.472, 4.640e-5
-1.471, 4.640e-5
-1.470, 4.332e-5
-1.469, 4.332e-5
-1.468, 4.332e-5
-1.467, 4.024e-5
-1.466, 4.024e-5
-1.465, 4.024e-5
-1.464, 4.024e-5
-1.463, 3.715e-5
-1.462, 3.715e-5
-1.461, 3.715e-5
-1.460, 3.407e-5
-1.459, 3.407e-5
-1.458, 3.407e-5
-1.457, 3.407e-5
-1.456, 3.099e-5
-1.455, 3.099e-5
-1.454, 2.790e-5
-1.453, 3.099e-5
-1.452, 2.790e-5
-1.451, 2.790e-5
-1.450, 2.790e-5
-1.449, 2.790e-5
-1.448, 2.790e-5
-1.447, 2.482e-5
-1.446, 2.482e-5
-1.445, 2.482e-5
-1.444, 2.482e-5
-1.443, 2.174e-5
-1.442, 2.174e-5
-1.441, 2.174e-5
-1.440, 1.865e-5
-1.439, 2.174e-5
-1.438, 1.865e-5
-1.437, 1.865e-5
-1.436, 1.865e-5
-1.435, 1.865e-5
-1.434, 1.865e-5
-1.433, 1.557e-5
-1.432, 1.557e-5
-1.431, 1.557e-5
-1.430, 1.557e-5
-1.429, 1.557e-5
-1.428, 1.557e-5
-1.427, 1.557e-5
-1.426, 1.557e-5
-1.425, 1.249e-5
-1.424, 1.249e-5
-1.423, 1.249e-5
-1.422, 1.249e-5
-1.421, 1.249e-5
-1.420, 1.249e-5
-1.419, 1.249e-5
-1.418, 9.405e-6
-1.417, 9.405e-6
-1.416, 9.405e-6
-1.415, 9.405e-6
-1.414, 9.405e-6
-1.413, 9.405e-6
-1.412, 9.405e-6
-1.411, 9.405e-6
-1.410, 6.322e-6
-1.409, 6.322e-6
-1.408, 6.322e-6
-1.407, 6.322e-6
-1.406, 6.322e-6
-1.405, 6.322e-6
-1.404, 6.322e-6
-1.403, 6.322e-6
-1.402, 6.322e-6
-1.401, 6.322e-6
-1.400, 6.322e-6
-1.399, 3.239e-6
-1.398, 3.239e-6
-1.397, 3.239e-6
-1.396, 3.239e-6
-1.395, 3.239e-6
-1.394, 3.239e-6
-1.393, 3.239e-6
-1.392, 3.239e-6
-1.391, 3.239e-6
-1.390, 3.239e-6
-1.389, 3.239e-6
-1.388, 1.559e-7
-1.387, 1.559e-7
-1.386, 1.559e-7
-1.385, 1.559e-7
-1.384, 1.559e-7
-1.383, 1.559e-7
-1.382, 1.559e-7
-1.381, 1.559e-7
-1.380, 1.559e-7
-1.379, 1.559e-7
-1.378, 1.559e-7
-1.377, 1.559e-7
-1.376, 1.559e-7
-1.375, 1.559e-7
-1.374, 1.559e-7
-1.373, 1.559e-7
-1.372, -2.927e-6
-1.371, 1.559e-7
-1.370, 1.559e-7
-1.369, -2.927e-6
-1.368, -2.927e-6
-1.367, -2.927e-6
-1.366, -2.927e-6
-1.365, -2.927e-6
-1.364, -2.927e-6
-1.363, -2.927e-6
-1.362, -2.927e-6
-1.361, -2.927e-6
-1.360, -2.927e-6
-1.359, -2.927e-6
-1.358, -2.927e-6
-1.357, -2.927e-6
-1.356, -2.927e-6
-1.355, -2.927e-6
-1.354, -2.927e-6
-1.353, -2.927e-6
-1.352, -2.927e-6
-1.351, -2.927e-6
-1.350, -6.010e-6
-1.349, -6.010e-6
-1.348, -6.010e-6
-1.347, -2.927e-6
-1.346, -6.010e-6
-1.345, -6.010e-6
-1.344, -6.010e-6
-1.343, -6.010e-6
-1.342, -6.010e-6
-1.341, -6.010e-6
-1.340, -6.010e-6
-1.339, -6.010e-6
-1.338, -6.010e-6
-1.337, -6.010e-6
-1.336, -6.010e-6
-1.335, -6.010e-6
-1.334, -6.010e-6
-1.333, -6.010e-6
-1.332, -6.010e-6
-1.331, -6.010e-6
-1.330, -6.010e-6
-1.329, -6.010e-6
-1.328, -6.010e-6
-1.327, -6.010e-6
-1.326, -6.010e-6
-1.325, -6.010e-6
-1.324, -6.010e-6
-1.323, -6.010e-6
-1.322, -6.010e-6
-1.321, -6.010e-6
-1.320, -6.010e-6
-1.319, -6.010e-6
-1.318, -6.010e-6
-1.317, -6.010e-6
-1.316, -9.093e-6
-1.315, -6.010e-6
-1.314, -6.010e-6
-1.313, -6.010e-6
-1.312, -6.010e-6
-1.311, -9.093e-6
-1.310, -6.010e-6
-1.309, -6.010e-6
-1.308, -6.010e-6
-1.307, -9.093e-6
-1.306, -9.093e-6
-1.305, -6.010e-6
-1.304, -9.093e-6
-1.303, -9.093e-6
-1.302, -9.093e-6
-1.301, -9.093e-6
-1.300, -9.093e-6
-1.299, -9.093e-6
-1.298, -9.093e-6
-1.297, -9.093e-6
-1.296, -9.093e-6
-1.295, -9.093e-6
-1.294, -9.093e-6
-1.293, -9.093e-6
-1.292, -9.093e-6
-1.291, -9.093e-6
-1.290, -9.093e-6
-1.289, -9.093e-6
-1.288, -9.093e-6
-1.287, -9.093e-6
-1.286, -9.093e-6
-1.285, -9.093e-6
-1.284, -9.093e-6
-1.283, -9.093e-6
-1.282, -9.093e-6
-1.281, -9.093e-6
-1.280, -9.093e-6
-1.279, -9.093e-6
-1.278, -9.093e-6
-1.277, -9.093e-6
-1.276, -9.093e-6
-1.275, -9.093e-6
-1.274, -9.093e-6
-1.273, -9.093e-6
-1.272, -9.093e-6
-1.271, -9.093e-6
-1.270, -9.093e-6
-1.269, -9.093e-6
-1.268, -9.093e-6
-1.267, -9.093e-6
-1.266, -9.093e-6
-1.265, -9.093e-6
-1.264, -9.093e-6
-1.263, -9.093e-6
-1.262, -9.093e-6
-1.261, -9.093e-6
-1.260, -9.093e-6
-1.259, -9.093e-6
-1.258, -9.093e-6
-1.257, -9.093e-6
-1.256, -9.093e-6
-1.255, -9.093e-6
-1.254, -9.093e-6
-1.253, -9.093e-6
-1.252, -9.093e-6
-1.251, -9.093e-6
-1.250, -9.093e-6
-1.249, -9.093e-6
-1.248, -9.093e-6
-1.247, -9.093e-6
-1.246, -9.093e-6
-1.245, -9.093e-6
-1.244, -9.093e-6
-1.243, -9.093e-6
-1.242, -1.218e-5
-1.241, -9.093e-6
-1.240, -9.093e-6
-1.239, -9.093e-6
-1.238, -9.093e-6
-1.237, -9.093e-6
-1.236, -9.093e-6
-1.235, -9.093e-6
-1.234, -9.093e-6
-1.233, -1.218e-5
-1.232, -9.093e-6
-1.231, -9.093e-6
-1.230, -9.093e-6
-1.229, -1.218e-5
-1.228, -1.218e-5
-1.227, -9.093e-6
-1.226, -9.093e-6
-1.225, -9.093e-6
-1.224, -1.218e-5
-1.223, -1.218e-5
-1.222, -1.218e-5
-1.221, -9.093e-6
-1.220, -1.218e-5
-1.219, -1.218e-5
-1.218, -9.093e-6
-1.217, -1.218e-5
-1.216, -1.218e-5
-1.215, -1.218e-5
-1.214, -1.218e-5
-1.213, -9.093e-6
-1.212, -1.218e-5
-1.211, -1.218e-5
-1.210, -1.218e-5
-1.209, -9.093e-6
-1.208, -1.218e-5
-1.207, -1.218e-5
-1.206, -1.218e-5
-1.205, -1.218e-5
-1.204, -1.218e-5
-1.203, -1.218e-5
-1.202, -1.218e-5
-1.201, -1.218e-5
-1.200, -1.218e-5
-1.199, -1.218e-5
-1.198, -1.218e-5
-1.197, -9.093e-6
-1.196, -1.218e-5
-1.195, -9.093e-6
-1.194, -1.218e-5
-1.193, -9.093e-6
-1.192, -1.218e-5
-1.191, -1.218e-5
-1.190, -9.093e-6
-1.189, -1.218e-5
-1.188, -1.218e-5
-1.187, -1.218e-5
-1.186, -1.218e-5
-1.185, -1.218e-5
-1.184, -1.218e-5
-1.183, -1.218e-5
-1.182, -1.218e-5
-1.181, -1.218e-5
-1.180, -1.218e-5
-1.179, -1.218e-5
-1.178, -1.218e-5
-1.177, -1.218e-5
-1.176, -1.218e-5
-1.175, -1.218e-5
-1.174, -1.218e-5
-1.173, -1.218e-5
-1.172, -1.218e-5
-1.171, -1.218e-5
-1.170, -1.218e-5
-1.169, -1.218e-5
-1.168, -1.218e-5
-1.167, -1.218e-5
-1.166, -1.218e-5
-1.165, -1.218e-5
-1.164, -1.218e-5
-1.163, -1.218e-5
-1.162, -1.218e-5
-1.161, -1.218e-5
-1.160, -1.218e-5
-1.159, -1.218e-5
-1.158, -1.218e-5
-1.157, -1.218e-5
-1.156, -1.218e-5
-1.155, -1.218e-5
-1.154, -1.218e-5
-1.153, -1.218e-5
-1.152, -1.218e-5
-1.151, -1.218e-5
-1.150, -1.218e-5
-1.149, -1.218e-5
-1.148, -1.218e-5
-1.147, -1.218e-5
-1.146, -1.218e-5
-1.145, -1.218e-5
-1.144, -1.218e-5
-1.143, -1.218e-5
-1.142, -1.218e-5
-1.141, -1.218e-5
-1.140, -1.218e-5
-1.139, -1.218e-5
-1.138, -1.218e-5
-1.137, -1.218e-5
-1.136, -1.218e-5
-1.135, -1.218e-5
-1.134, -1.218e-5
-1.133, -1.218e-5
-1.132, -1.218e-5
-1.131, -1.218e-5
-1.130, -1.218e-5
-1.129, -1.218e-5
-1.128, -1.218e-5
-1.127, -1.218e-5
-1.126, -1.218e-5
-1.125, -1.218e-5
-1.124, -1.218e-5
-1.123, -1.218e-5
-1.122, -1.218e-5
-1.121, -1.218e-5
-1.120, -1.218e-5
-1.119, -1.218e-5
-1.118, -1.218e-5
-1.117, -1.218e-5
-1.116, -1.218e-5
-1.115, -1.218e-5
-1.114, -1.218e-5
-1.113, -1.218e-5
-1.112, -1.218e-5
-1.111, -1.218e-5
-1.110, -1.218e-5
-1.109, -1.218e-5
-1.108, -1.218e-5
-1.107, -1.218e-5
-1.106, -1.218e-5
-1.105, -1.218e-5
-1.104, -1.218e-5
-1.103, -1.218e-5
-1.102, -1.218e-5
-1.101, -1.218e-5
-1.100, -1.218e-5
-1.099, -1.526e-5
-1.098, -1.218e-5
-1.097, -1.218e-5
-1.096, -1.218e-5
-1.095, -1.218e-5
-1.094, -1.218e-5
-1.093, -1.218e-5
-1.092, -1.218e-5
-1.091, -1.526e-5
-1.090, -1.218e-5
-1.089, -1.218e-5
-1.088, -1.218e-5
-1.087, -1.218e-5
-1.086, -1.526e-5
-1.085, -1.218e-5
-1.084, -1.218e-5
-1.083, -1.218e-5
-1.082, -1.526e-5
-1.081, -1.218e-5
-1.080, -1.218e-5
-1.079, -1.526e-5
-1.078, -1.218e-5
-1.077, -1.218e-5
-1.076, -1.218e-5
-1.075, -1.526e-5
-1.074, -1.218e-5
-1.073, -1.218e-5
-1.072, -1.218e-5
-1.071, -1.526e-5
-1.070, -1.218e-5
-1.069, -1.526e-5
-1.068, -1.218e-5
-1.067, -1.526e-5
-1.066, -1.526e-5
-1.065, -1.218e-5
-1.064, -1.526e-5
-1.063, -1.526e-5
-1.062, -1.526e-5
-1.061, -1.526e-5
-1.060, -1.526e-5
-1.059, -1.218e-5
-1.058, -1.526e-5
-1.057, -1.526e-5
-1.056, -1.526e-5
-1.055, -1.526e-5
-1.054, -1.526e-5
-1.053, -1.526e-5
-1.052, -1.526e-5
-1.051, -1.526e-5
-1.050, -1.526e-5
-1.049, -1.526e-5
-1.048, -1.526e-5
-1.047, -1.526e-5
-1.046, -1.526e-5
-1.045, -1.526e-5
-1.044, -1.526e-5
-1.043, -1.526e-5
-1.042, -1.526e-5
-1.041, -1.526e-5
-1.040, -1.526e-5
-1.039, -1.526e-5
-1.038, -1.526e-5
-1.037, -1.526e-5
-1.036, -1.526e-5
-1.035, -1.526e-5
-1.034, -1.526e-5
-1.033, -1.526e-5
-1.032, -1.526e-5
-1.031, -1.526e-5
-1.030, -1.526e-5
-1.029, -1.526e-5
-1.028, -1.526e-5
-1.027, -1.526e-5
-1.026, -1.526e-5
-1.025, -1.526e-5
-1.024, -1.526e-5
-1.023, -1.526e-5
-1.022, -1.526e-5
-1.021, -1.526e-5
-1.020, -1.526e-5
-1.019, -1.526e-5
-1.018, -1.526e-5
-1.017, -1.526e-5
-1.016, -1.526e-5
-1.015, -1.526e-5
-1.014, -1.526e-5
-1.013, -1.526e-5
-1.012, -1.526e-5
-1.011, -1.526e-5
-1.010, -1.526e-5
-1.009, -1.526e-5
-1.008, -1.526e-5
-1.007, -1.526e-5
-1.006, -1.526e-5
-1.005, -1.526e-5
-1.004, -1.526e-5
-1.003, -1.526e-5
-1.002, -1.526e-5
-1.001, -1.526e-5
