Potential V vs RHE, Current mA cm-2
0.013299999999999867,4.490293665771627
0.012299999999999978,3.5749754547589476
0.011299999999999866,2.8761080726256196
0.010299999999999976,2.2663675023837886
0.009299999999999864,1.7429243214337253
0.008299999999999974,1.2626298351295453
0.007299999999999862,0.8264743413811545
0.006299999999999972,0.43403342679859325
0.00529999999999986,0.04140859974704963
0.0042999999999999705,-0.30755823659065895
0.0032999999999998586,-0.6564260431373771
0.0022999999999999687,-0.9617207416482519
0.0012999999999998568,-1.2671569112891135
0.00029999999999996696,-1.5293029151541047
-0.000700000000000145,-1.8334658446250875
-0.0017000000000000348,-2.095187435100119
-0.0027000000000001467,-2.3569090255751513
-0.0037000000000000366,-2.618630616050183
-0.0047000000000001485,-2.794054817233447
-0.005700000000000038,-3.0119203574126634
-0.00670000000000015,-3.2297858975918787
-0.00770000000000004,-3.403795387475278
-0.008700000000000152,-3.623075638954359
-0.009700000000000042,-3.7970851288377587
-0.010700000000000154,-3.971094618721158
-0.011700000000000044,-4.146518819904423
-0.012700000000000156,-4.3205283097878215
-0.013700000000000045,-4.450681749375406
-0.014700000000000157,-4.626105950558669
-0.015700000000000047,-4.756259390146253
-0.01670000000000016,-4.9302688800296535
-0.01770000000000005,-5.105693081212917
-0.01870000000000016,-5.235846520800501
-0.01970000000000005,-5.411270721983764
-0.020700000000000163,-5.585280211867165
-0.021700000000000053,-5.672992312458796
-0.022700000000000164,-5.759289701750564
-0.023700000000000054,-5.890857852638012
-0.024700000000000166,-5.977155241929781
-0.025700000000000056,-6.108723392817228
-0.026700000000000168,-6.196435493408861
-0.027700000000000058,-6.326588932996443
-0.02870000000000017,-6.458157083883892
-0.02970000000000006,-6.500598422879844
-0.03070000000000017,-6.588310523471475
-0.03170000000000006,-6.6760226240631075
-0.03270000000000017,-6.762320013354876
-0.03370000000000006,-6.806176063650692
-0.034700000000000175,-6.850032113946507
-0.035700000000000065,-6.93774421453814
-0.03670000000000018,-6.981600264833956
-0.03770000000000007,-7.024041603829907
-0.03870000000000018,-7.067897654125724
-0.03970000000000007,-7.111753704421539
-0.04070000000000018,-7.155609754717355
-0.04170000000000007,-7.199465805013171
-0.04270000000000018,-7.243321855308987
-0.04370000000000007,-7.329619244600755
-0.044700000000000184,-7.37347529489657
-0.045700000000000074,-7.4173313451923875
-0.046700000000000186,-7.50504344578402
-0.047700000000000076,-7.5474847847799715
-0.04870000000000019,-7.635196885371603
-0.04970000000000008,-7.722908985963235
-0.05070000000000019,-7.809206375255003
-0.05170000000000008,-7.940774526142452
-0.05270000000000019,-8.070927965730034
-0.05370000000000008,-8.202496116617484
-0.05470000000000019,-8.332649556205066
-0.05570000000000008,-8.464217707092514
-0.056700000000000195,-8.638227196975913
-0.057700000000000085,-8.769795347863363
-0.058700000000000196,-8.943804837746763
-0.059700000000000086,-9.11781432763016
-0.0607000000000002,-9.293238528813426
-0.06170000000000009,-9.467248018696827
-0.0627000000000002,-9.685113558876042
-0.06370000000000009,-9.85912304875944
-0.0647000000000002,-10.034547249942705
-0.06570000000000009,-10.208556739826104
-0.0667000000000002,-10.382566229709504
-0.0677000000000001,-10.601846481188586
-0.0687000000000002,-10.819712021367803
-0.0697000000000001,-10.993721511251199
-0.07070000000000021,-11.211587051430415
-0.0717000000000001,-11.385596541313816
-0.07270000000000021,-11.56102074249708
-0.0737000000000001,-11.778886282676295
-0.07470000000000021,-11.952895772559694
-0.0757000000000001,-12.12831997374296
-0.07670000000000021,-12.346185513922174
-0.0777000000000001,-12.56405105410139
-0.07870000000000021,-12.781916594280606
-0.0797000000000001,-12.913484745168056
-0.08070000000000022,-13.13135028534727
-0.0817000000000001,-13.30535977523067
-0.08270000000000022,-13.523225315409885
-0.08370000000000011,-13.698649516593148
-0.08470000000000022,-13.872659006476551
-0.08570000000000011,-14.090524546655764
-0.08670000000000022,-14.26028990263957
-0.08770000000000011,-14.401761032626075
-0.08870000000000022,-14.61396772760583
-0.08970000000000011,-14.741291744593681
-0.09070000000000022,-14.925204213576137
-0.09170000000000011,-15.094969569559943
-0.09270000000000023,-15.264734925543747
-0.09370000000000012,-15.3920589425316
-0.09470000000000023,-15.618412750510005
-0.09570000000000012,-15.74573676749786
-0.09670000000000023,-15.91550212348166
-0.09770000000000012,-16.056973253468165
-0.09870000000000023,-16.184297270456018
-0.09970000000000012,-16.311621287443874
-0.10070000000000023,-16.438945304431726
-0.10170000000000012,-16.622857773414182
-0.10270000000000024,-16.750181790402035
-0.10370000000000013,-16.877505807389888
-0.10470000000000024,-16.962388485381787
-0.10570000000000013,-17.103859615368293
-0.10670000000000024,-17.231183632356142
-0.10770000000000013,-17.358507649344002
-0.10870000000000024,-17.48583166633185
-0.10970000000000013,-17.584861457322408
-0.11070000000000024,-17.75462681330621
-0.11170000000000013,-17.881950830294063
-0.11270000000000002,-17.966833508285966
-0.11370000000000013,-18.10830463827247
-0.11470000000000002,-18.19318731626437
-0.11570000000000014,-18.320511333252224
-0.11670000000000003,-18.40539401124413
-0.11770000000000014,-18.53271802823198
-0.11870000000000003,-18.674189158218486
-0.11970000000000014,-18.759071836210385
-0.12070000000000003,-18.88639585319824
-0.12170000000000014,-18.97127853119014
-0.12270000000000003,-19.112749661176647
-0.12370000000000014,-19.197632339168546
-0.12470000000000003,-19.28251501716045
-0.12570000000000014,-19.367397695152352
-0.12670000000000003,-19.49472171214021
-0.12770000000000015,-19.636192842126707
-0.12870000000000004,-19.721075520118614
-0.12970000000000015,-19.805958198110513
-0.13070000000000004,-19.890840876102416
-0.13170000000000015,-20.01816489309027
-0.13270000000000004,-20.06060623208622
-0.13370000000000015,-20.202077362072725
-0.13470000000000004,-20.286960040064624
-0.13570000000000015,-20.371842718056527
-0.13670000000000004,-20.456725396048434
-0.13770000000000016,-20.541608074040333
-0.13870000000000005,-20.683079204026836
-0.13970000000000016,-20.72552054302279
-0.14070000000000005,-20.85284456001064
-0.14170000000000016,-20.89528589900659
-0.14270000000000005,-21.022609915994444
-0.14370000000000016,-21.107492593986347
-0.14470000000000005,-21.2065223849769
-0.14570000000000016,-21.291405062968803
-0.14670000000000005,-21.376287740960702
-0.14770000000000016,-21.461170418952605
-0.14870000000000005,-21.503611757948562
-0.14970000000000017,-21.58849443594046
-0.15070000000000006,-21.67337711393236
-0.15170000000000017,-21.772406904922917
-0.15270000000000006,-21.857289582914817
-0.15370000000000017,-21.98461359990267
-0.15470000000000006,-22.027054938898623
-0.15570000000000017,-22.111937616890522
-0.15670000000000006,-22.196820294882425
-0.15770000000000017,-22.253408746877028
-0.15870000000000006,-22.33829142486893
-0.15970000000000018,-22.42317410286083
-0.16070000000000007,-22.508056780852733
-0.16170000000000018,-22.592939458844636
-0.16270000000000007,-22.63538079784059
-0.16370000000000018,-22.72026347583249
-0.16470000000000007,-22.819293266823045
-0.16570000000000018,-22.861734605818995
-0.16670000000000007,-22.946617283810895
-0.16770000000000018,-23.031499961802798
-0.16870000000000007,-23.1163826397947
-0.16970000000000018,-23.15882397879065
-0.17070000000000007,-23.24370665678255
-0.17170000000000019,-23.342736447773106
-0.17270000000000008,-23.385177786769056
-0.1737000000000002,-23.47006046476096
-0.17470000000000008,-23.55494314275286
-0.1757000000000002,-23.597384481748815
-0.17670000000000008,-23.682267159740714
-0.1777000000000002,-23.724708498736668
-0.17870000000000008,-23.86617962872317
-0.1797000000000002,-23.908620967719123
-0.18070000000000008,-23.951062306715073
-0.1817000000000002,-24.035944984706973
-0.18270000000000008,-24.120827662698876
-0.1837000000000002,-24.16326900169483
-0.1847000000000001,-24.24815167968673
-0.1857000000000002,-24.290593018682678
-0.1867000000000001,-24.389622809673234
-0.1877000000000002,-24.474505487665134
-0.1887000000000001,-24.516946826661083
-0.1897000000000002,-24.559388165657033
-0.1907000000000001,-24.686712182644893
-0.1917000000000001,-24.729153521640843
-0.19269999999999998,-24.814036199632742
-0.1937000000000001,-24.870624651627345
-0.19469999999999998,-24.95550732961925
-0.1957000000000001,-25.04039000761115
-0.19669999999999999,-25.0828313466071
-0.1977000000000001,-25.167714024599
-0.1987,-25.210155363594954
-0.1997000000000001,-25.252596702590903
-0.2007,-25.337479380582806
-0.2017000000000001,-25.43650917157336
-0.2027,-25.521391849565262
-0.2037000000000001,-25.60627452755716
-0.2047,-25.648715866553115
-0.2057000000000001,-25.691157205549064
-0.2067,-25.77603988354097
-0.2077000000000001,-25.81848122253692
-0.2087,-25.91751101352747
-0.2097000000000001,-26.002393691519377
-0.2107,-26.087276369511276
-0.2117000000000001,-26.17215904750318
-0.2127,-26.21460038649913
-0.2137000000000001,-26.29948306449103
-0.2147,-26.34192440348698
-0.2157000000000001,-26.483395533473487
-0.2167,-26.525836872469437
-0.21770000000000012,-26.61071955046134
-0.2187,-26.69560222845324
-0.21970000000000012,-26.780484906445146
-0.2207,-26.822926245441096
-0.22170000000000012,-26.907808923433
-0.2227,-27.00683871442355
-0.22370000000000012,-27.049280053419505
-0.2247,-27.134162731411404
-0.22570000000000012,-27.219045409403304
-0.2267,-27.303928087395207
-0.22770000000000012,-27.38881076538711
-0.22870000000000001,-27.487840556377662
-0.22970000000000013,-27.530281895373616
-0.23070000000000002,-27.615164573365515
-0.23170000000000013,-27.700047251357418
-0.23270000000000002,-27.78492992934932
-0.23370000000000013,-27.827371268345274
-0.23470000000000002,-27.912253946337174
-0.23570000000000013,-28.05372507632368
-0.23670000000000002,-28.13860775431558
-0.2376999999999999,-28.18104909331153
-0.23870000000000002,-28.308373110299385
-0.2396999999999999,-28.350814449295335
-0.24070000000000003,-28.435697127287238
-0.24169999999999991,-28.53472691827779
-0.24270000000000003,-28.619609596269694
-0.24369999999999992,-28.704492274261593
-0.24470000000000003,-28.789374952253496
-0.24569999999999992,-28.91669896924135
-0.24670000000000003,-28.959140308237306
-0.24769999999999992,-29.058170099227848
-0.24870000000000003,-29.14305277721976
-0.24969999999999992,-29.22793545521166
-0.25070000000000003,-29.31281813320356
-0.2516999999999999,-29.39770081119546
-0.25270000000000004,-29.525024828183312
-0.2536999999999999,-29.62405461917387
-0.25470000000000004,-29.708937297165768
-0.2556999999999999,-29.793819975157668
-0.25670000000000004,-29.878702653149578
-0.25769999999999993,-29.96358533114148
-0.25870000000000004,-30.04846800913338
-0.25969999999999993,-30.147497800123933
-0.26070000000000004,-30.274821817111786
-0.26169999999999993,-30.359704495103685
-0.26270000000000004,-30.402145834099635
-0.26369999999999993,-30.529469851087494
-0.26470000000000005,-30.614352529079397
-0.26569999999999994,-30.71338232006995
-0.26670000000000005,-30.8407063370578
-0.26769999999999994,-30.925589015049702
-0.26870000000000005,-31.052913032037555
-0.26969999999999994,-31.137795710029454
-0.27070000000000005,-31.27926684001596
-0.27169999999999994,-31.321708179011907
-0.27270000000000005,-31.449032195999767
-0.27369999999999994,-31.533914873991666
-0.27470000000000006,-31.618797551983565
-0.27569999999999995,-31.717827342974125
-0.27670000000000006,-31.84515135996197
-0.27769999999999995,-31.972475376949827
-0.27870000000000006,-32.05735805494172
-0.27969999999999995,-32.14224073293363
-0.28070000000000006,-32.24127052392419
-0.28169999999999995,-32.32615320191609
-0.28270000000000006,-32.45347721890394
-0.28369999999999995,-32.53835989689585
-0.28470000000000006,-32.66568391388369
-0.28569999999999995,-32.764713704874254
-0.28670000000000007,-32.892037721862096
-0.28769999999999996,-32.97692039985401
-0.28870000000000007,-33.10424441684186
-0.28969999999999996,-33.18912709483376
-0.29070000000000007,-33.288156885824314
-0.29169999999999996,-33.41548090281216
-0.29270000000000007,-33.54280491980002
-0.29369999999999996,-33.670128936787876
-0.2947000000000001,-33.755011614779775
-0.29569999999999996,-33.89648274476628
-0.2967000000000001,-33.98136542275818
-0.29769999999999996,-34.10868943974604
-0.2987000000000001,-34.193572117737936
-0.29969999999999997,-34.33504324772444
-0.3007000000000001,-34.462367264712285
-0.30169999999999997,-34.5472499427042
-0.3027000000000001,-34.67457395969205
-0.30369999999999997,-34.8018979766799
-0.3047000000000001,-34.94336910666641
-0.30569999999999997,-35.02825178465831
-0.3067000000000001,-35.15557580164616
-0.3077,-35.282899818634014
-0.3087000000000001,-35.38192960962457
-0.3097,-35.55169496560837
-0.3107000000000001,-35.636577643600276
-0.3117,-35.763901660588125
-0.3127000000000001,-35.90537279057463
-0.3137,-36.03269680756248
-0.3147000000000001,-36.16002082455034
-0.3157,-36.244903502542236
-0.3167000000000001,-36.4288159715247
-0.3177,-36.5136986495166
-0.3187000000000001,-36.6834640055004
-0.3197,-36.81078802248826
-0.3207000000000001,-36.95225915247476
-0.3217,-37.07958316946261
-0.3227000000000001,-37.206907186450465
-0.3237,-37.334231203438314
-0.3247000000000001,-37.47570233342482
-0.3257,-37.60302635041268
-0.3267000000000001,-37.77279170639648
-0.3277,-37.90011572338433
-0.3287000000000001,-38.08402819236679
-0.3297,-38.211352209354644
-0.3307000000000001,-38.29623488734655
-0.3317,-38.46600024333035
-0.3327000000000001,-38.607471373316855
-0.3337,-38.734795390304704
-0.3347000000000001,-38.94700208528445
-0.3357,-39.08847321527096
-0.3367000000000001,-39.21579723225882
-0.3377,-39.38556258824262
-0.3387000000000001,-39.51288660523048
-0.3397,-39.654357735216976
-0.3407000000000001,-39.82412309120078
-0.3417,-39.99388844718459
-0.3427000000000001,-40.135359577171094
-0.3437,-40.34756627215084
-0.3447000000000001,-40.51733162813464
-0.3457,-40.65880275812115
-0.3467000000000001,-40.828568114104954
-0.3477,-40.95589213109281
-0.3487000000000001,-41.182245939071215
-0.3497,-41.30956995605907
-0.3507000000000001,-41.52177665103883
-0.3517,-41.66324778102533
-0.3527000000000001,-41.87545447600508
-0.3537,-42.04521983198889
-0.3547000000000001,-42.229132300971344
-0.3557,-42.4413389959511
-0.35670000000000013,-42.568663012938956
-0.3577,-42.752575481921404
-0.35870000000000013,-42.96478217690117
-0.3597,-43.134547532884966
-0.36070000000000013,-43.40334267985933
-0.3617,-43.57310803584313
-0.3626999999999999,-43.75702050482558
-0.3637,-43.96922719980534
-0.3646999999999999,-44.138992555789144
-0.3657,-44.3229050247716
-0.3666999999999999,-44.577553058747306
-0.3677,-44.74731841473111
-0.3686999999999999,-44.97367222270952
-0.36970000000000003,-45.22832025668522
-0.3706999999999999,-45.45467406466363
-0.37170000000000003,-45.666880759643384
-0.3726999999999999,-45.85079322862584
-0.37370000000000003,-46.062999923605595
-0.3746999999999999,-46.27520661858535
-0.37570000000000003,-46.544001765559706
-0.3766999999999999,-46.75620846053947
-0.37770000000000004,-46.982562268517874
-0.3786999999999999,-47.23721030249357
-0.37970000000000004,-47.46356411047198
-0.3806999999999999,-47.71821214444768
-0.38170000000000004,-47.93041883942744
-0.38269999999999993,-48.156772647405845
-0.38370000000000004,-48.41142068138156
-0.38469999999999993,-48.68021582835591
-0.38570000000000004,-48.93486386233162
-0.38669999999999993,-49.20365900930597
-0.38770000000000004,-49.41586570428573
-0.38869999999999993,-49.68466085126009
-0.38970000000000005,-49.939308885235796
-0.39069999999999994,-50.20810403221015
-0.39170000000000005,-50.46275206618586
-0.39269999999999994,-50.73154721316022
-0.39370000000000005,-50.98619524713592
-0.39469999999999994,-51.29743173310623
-0.39570000000000005,-51.55207976708194
-0.39669999999999994,-51.86331625305225
-0.39770000000000005,-52.11796428702795
-0.39869999999999994,-52.386759434002315
-0.39970000000000006,-52.64140746797801
-0.40069999999999995,-52.95264395394832
-0.40170000000000006,-53.30632177891458
-0.40269999999999995,-53.603411151886235
-0.40370000000000006,-53.91464763785655
-0.40469999999999995,-54.16929567183226
-0.40570000000000006,-54.480532157802564
-0.40669999999999995,-54.73518019177827
-0.40770000000000006,-55.088858016744524
-0.40869999999999995,-55.400094502714836
-0.40970000000000006,-55.6971838756865
-0.41069999999999995,-56.05086170065276
-0.41170000000000007,-56.36209818662306
-0.41269999999999996,-56.70162889859067
-0.41370000000000007,-56.97042404556503
-0.41469999999999996,-57.30995475753264
-0.41570000000000007,-57.66363258249889
-0.41669999999999996,-57.974869068469204
-0.41770000000000007,-58.35684111943277
-0.41869999999999996,-58.71051894439902
-0.4197000000000001,-59.06419676936528
-0.42069999999999996,-59.36128614233694
-0.4217000000000001,-59.7149639673032
-0.42269999999999996,-60.06864179226946
-0.4237000000000001,-60.40817250423707
-0.42469999999999997,-60.761850329203334
-0.4257000000000001,-61.11552815416958
-0.42669999999999997,-61.49750020513315
-0.4277000000000001,-61.851178030099405
-0.42869999999999997,-62.24729719406162
-0.4297000000000001,-62.544386567033264
-0.43069999999999997,-62.94050573099548
-0.4317000000000001,-63.29418355596174
-0.4327,-63.6761556069253
-0.4337000000000001,-64.0722747708875
-0.4347,-64.46839393484973
-0.4357000000000001,-64.90695443780788
-0.4367,-65.2464851497755
-0.4377000000000001,-65.64260431373769
-0.4387,-66.03872347769992
-0.4397000000000001,-66.43484264166212
-0.4407,-66.81681469262568
-0.4417000000000001,-67.25537519558385
-0.4427,-67.65149435954605
-0.4437000000000001,-68.0900548625042
-0.4447,-68.52861536546239
-0.4457000000000001,-68.91058741642594
-0.4467,-69.3491479193841
-0.4477000000000001,-69.74526708334632
-0.4487,-70.18382758630447
-0.4497000000000001,-70.62238808926263
-0.4507,-71.0043601402262
-0.4517000000000001,-71.48536198218031
-0.4527,-71.92392248513846
-0.4537000000000001,-72.40492432709259
-0.4547,-72.84348483005074
-0.4557000000000001,-73.2820453330089
-0.4567,-73.72060583596706
-0.4577000000000001,-74.14501922592657
-0.4587,-74.62602106788069
-0.4597000000000001,-75.1070229098348
-0.4607,-75.5880247517889
-0.4617000000000001,-76.02658525474708
-0.4627,-76.50758709670117
-0.4637000000000001,-76.98858893865528
-0.4647,-77.46959078060941
-0.4657000000000001,-77.95059262256353
-0.4667,-78.43159446451764
-0.4677000000000001,-78.9550376454677
-0.4687,-79.42189237442317
-0.4697000000000001,-79.94533555537322
-0.4707,-80.42633739732734
-0.4717000000000001,-80.9497805782774
-0.4727,-81.47322375922747
-0.4737000000000001,-81.95422560118158
-0.4747,-82.52011012112759
-0.4757000000000001,-83.0011119630817
-0.4767,-83.52455514403178
-0.4777000000000001,-84.04799832498183
-0.4787,-84.57144150593189
-0.4797000000000001,-85.09488468688197
-0.4807,-85.66076920682796
-0.48170000000000013,-86.18421238777805
-0.4827,-86.7076555687281
-0.48370000000000013,-87.27354008867411
-0.4847,-87.79698326962418
-0.48570000000000013,-88.4194562415648
-0.4867,-88.10821975559449
-0.48570000000000013,-86.5378902127443
-0.4847,-85.27879715586442
-0.48370000000000013,-84.18946945496833
-0.4827,-83.22746577106011
-0.48170000000000013,-82.22302074815593
-0.4807,-81.3458997422396
-0.4797000000000001,-80.42633739732734
-0.4787,-79.60580484340561
-0.4777000000000001,-78.72868383748929
-0.4767,-77.90815128356756
-0.4757000000000001,-77.0734716166472
-0.4747,-76.23879194972683
-0.4737000000000001,-75.46070073480107
-0.4727,-74.62602106788069
-0.4717000000000001,-73.89037119195086
-0.4707,-73.09813286402644
-0.4697000000000001,-72.36248298809663
-0.4687,-71.6268331121668
-0.4677000000000001,-70.8345947842424
-0.4667,-70.09894490831257
-0.4657000000000001,-69.30670658038814
-0.4647,-68.65593938245023
-0.4637000000000001,-67.9202895065204
-0.4627,-67.21293385658788
