Potential V vs RHE, Current mA cm-2
0.013299999999999867,3.7051288943465317
0.012299999999999978,2.70209858274222
0.011299999999999866,1.9607898616129409
0.010299999999999976,1.2626298351295453
0.009299999999999864,0.6084673300719523
0.008299999999999974,0.08502414912188871
0.007299999999999862,-0.4384190318281749
0.006299999999999972,-0.8745745255765657
0.00529999999999986,-1.3107300193249565
0.0042999999999999705,-1.7471684553333202
0.0032999999999998586,-2.1390434853959355
0.0022999999999999687,-2.532333226758415
0.0012999999999998568,-2.8803522065252145
0.00029999999999996696,-3.2297858975918787
-0.000700000000000145,-3.4915074880669104
-0.0017000000000000348,-3.840941179133574
-0.0027000000000001467,-4.102662769608606
-0.0037000000000000366,-4.406825699079589
-0.0047000000000001485,-4.668547289554621
-0.005700000000000038,-4.9302688800296535
-0.00670000000000015,-5.191990470504685
-0.00770000000000004,-5.453712060979717
-0.008700000000000152,-5.672992312458796
-0.009700000000000042,-5.890857852638012
-0.010700000000000154,-6.108723392817228
-0.011700000000000044,-6.326588932996443
-0.012700000000000156,-6.500598422879844
-0.013700000000000045,-6.719878674358924
-0.014700000000000157,-6.893888164242324
-0.015700000000000047,-7.067897654125724
-0.01670000000000016,-7.243321855308987
-0.01770000000000005,-7.4173313451923875
-0.01870000000000016,-7.591340835075788
-0.01970000000000005,-7.7653503249591855
-0.020700000000000163,-7.984630576438266
-0.021700000000000053,-8.158640066321666
-0.022700000000000164,-8.288793505909249
-0.023700000000000054,-8.4203616567967
-0.024700000000000166,-8.55051509638428
-0.025700000000000056,-8.68208324727173
-0.026700000000000168,-8.812236686859313
-0.027700000000000058,-8.899948787450944
-0.02870000000000017,-8.987660888042578
-0.02970000000000006,-9.11781432763016
-0.03070000000000017,-9.24938247851761
-0.03170000000000006,-9.335679867809377
-0.03270000000000017,-9.423391968401008
-0.03370000000000006,-9.511104068992642
-0.034700000000000175,-9.59740145828441
-0.035700000000000065,-9.685113558876042
-0.03670000000000018,-9.728969609171857
-0.03770000000000007,-9.772825659467674
-0.03870000000000018,-9.85912304875944
-0.03970000000000007,-9.85912304875944
-0.04070000000000018,-9.946835149351072
-0.04170000000000007,-9.99069119964689
-0.04270000000000018,-10.078403300238522
-0.04370000000000007,-10.120844639234473
-0.044700000000000184,-10.120844639234473
-0.045700000000000074,-10.164700689530287
-0.046700000000000186,-10.25241279012192
-0.047700000000000076,-10.25241279012192
-0.04870000000000019,-10.296268840417738
-0.04970000000000008,-10.382566229709504
-0.05070000000000019,-10.42642228000532
-0.05170000000000008,-10.514134380596953
-0.05270000000000019,-10.601846481188586
-0.05370000000000008,-10.688143870480351
-0.05470000000000019,-10.819712021367803
-0.05570000000000008,-10.906009410659568
-0.056700000000000195,-11.037577561547016
-0.057700000000000085,-11.1677310011346
-0.058700000000000196,-11.299299152022046
-0.059700000000000086,-11.473308641905447
-0.0607000000000002,-11.647318131788847
-0.06170000000000009,-11.778886282676295
-0.0627000000000002,-11.952895772559694
-0.06370000000000009,-12.12831997374296
-0.0647000000000002,-12.302329463626359
-0.06570000000000009,-12.520195003805576
-0.0667000000000002,-12.694204493688973
-0.0677000000000001,-12.913484745168056
-0.0687000000000002,-13.13135028534727
-0.0697000000000001,-13.30535977523067
-0.07070000000000021,-13.523225315409885
-0.0717000000000001,-13.741090855589102
-0.07270000000000021,-13.916515056772363
-0.0737000000000001,-14.13438059695158
-0.07470000000000021,-14.345172580631472
-0.0757000000000001,-14.57152638860988
-0.07670000000000021,-14.783733083589633
-0.0777000000000001,-15.01008689156804
-0.07870000000000021,-15.222293586547794
-0.0797000000000001,-15.3920589425316
-0.08070000000000022,-15.660854089505953
-0.0817000000000001,-15.87306078448571
-0.08270000000000022,-16.099414592464115
-0.08370000000000011,-16.269179948447924
-0.08470000000000022,-16.495533756426326
-0.08570000000000011,-16.70774045140608
-0.08670000000000022,-16.919947146385837
-0.08770000000000011,-17.146300954364243
-0.08870000000000022,-17.358507649344002
-0.08970000000000011,-17.584861457322408
-0.09070000000000022,-17.797068152302163
-0.09170000000000011,-18.009274847281915
-0.09270000000000023,-18.23562865526032
-0.09370000000000012,-18.40539401124413
-0.09470000000000023,-18.631747819222536
-0.09570000000000012,-18.843954514202288
-0.09670000000000023,-19.01371987018609
-0.09770000000000012,-19.2400736781645
-0.09870000000000023,-19.409839034148305
-0.09970000000000012,-19.636192842126707
-0.10070000000000023,-19.848399537106463
-0.10170000000000012,-20.01816489309027
-0.10270000000000024,-20.202077362072725
-0.10370000000000013,-20.414284057052477
-0.10470000000000024,-20.584049413036283
-0.10570000000000013,-20.810403221014692
-0.10670000000000024,-20.93772723800254
-0.10770000000000013,-21.107492593986347
-0.10870000000000024,-21.291405062968803
-0.10970000000000013,-21.461170418952605
-0.11070000000000024,-21.63093577493641
-0.11170000000000013,-21.814848243918867
-0.11270000000000002,-21.98461359990267
-0.11370000000000013,-22.111937616890522
-0.11470000000000002,-22.295850085872978
-0.11570000000000014,-22.46561544185678
-0.11670000000000003,-22.63538079784059
-0.11770000000000014,-22.776851927827092
-0.11870000000000003,-22.946617283810895
-0.11970000000000014,-23.073941300798747
-0.12070000000000003,-23.2012653177866
-0.12170000000000014,-23.385177786769056
-0.12270000000000003,-23.51250180375691
-0.12370000000000014,-23.639825820744765
-0.12470000000000003,-23.823738289727217
-0.12570000000000014,-23.951062306715073
-0.12670000000000003,-24.120827662698876
-0.12770000000000015,-24.24815167968673
-0.12870000000000004,-24.389622809673234
-0.12970000000000015,-24.516946826661083
-0.13070000000000004,-24.64427084364894
-0.13170000000000015,-24.771594860636792
-0.13270000000000004,-24.9130659906233
-0.13370000000000015,-25.04039000761115
-0.13470000000000004,-25.210155363594954
-0.13570000000000015,-25.337479380582806
-0.13670000000000004,-25.43650917157336
-0.13770000000000016,-25.563833188561212
-0.13870000000000005,-25.691157205549064
-0.13970000000000016,-25.81848122253692
-0.14070000000000005,-25.91751101352747
-0.14170000000000016,-26.044835030515326
-0.14270000000000005,-26.17215904750318
-0.14370000000000016,-26.257041725495082
-0.14470000000000005,-26.38436574248293
-0.14570000000000016,-26.525836872469437
-0.14670000000000005,-26.65316088945729
-0.14770000000000016,-26.738043567449193
-0.14870000000000005,-26.86536758443705
-0.14970000000000017,-26.9643973754276
-0.15070000000000006,-27.091721392415455
-0.15170000000000017,-27.176604070407354
-0.15270000000000006,-27.303928087395207
-0.15370000000000017,-27.38881076538711
-0.15470000000000006,-27.487840556377662
-0.15570000000000017,-27.615164573365515
-0.15670000000000006,-27.700047251357418
-0.15770000000000017,-27.827371268345274
-0.15870000000000006,-27.912253946337174
-0.15970000000000018,-28.011283737327723
-0.16070000000000007,-28.09616641531963
-0.16170000000000018,-28.22349043230748
-0.16270000000000007,-28.308373110299385
-0.16370000000000018,-28.393255788291288
-0.16470000000000007,-28.53472691827779
-0.16570000000000018,-28.577168257273744
-0.16670000000000007,-28.662050935265643
-0.16770000000000018,-28.746933613257543
-0.16870000000000007,-28.831816291249446
-0.16970000000000018,-28.91669896924135
-0.17070000000000007,-29.001581647233255
-0.17170000000000019,-29.14305277721976
-0.17270000000000008,-29.22793545521166
-0.1737000000000002,-29.31281813320356
-0.17470000000000008,-29.39770081119546
-0.1757000000000002,-29.440142150191413
-0.17670000000000008,-29.525024828183312
-0.1777000000000002,-29.62405461917387
-0.17870000000000008,-29.708937297165768
-0.1797000000000002,-29.793819975157668
-0.18070000000000008,-29.836261314153624
-0.1817000000000002,-29.921143992145527
-0.18270000000000008,-30.00602667013743
-0.1837000000000002,-30.10505646112798
-0.1847000000000001,-30.189939139119886
-0.1857000000000002,-30.274821817111786
-0.1867000000000001,-30.359704495103685
-0.1877000000000002,-30.402145834099635
-0.1887000000000001,-30.487028512091538
-0.1897000000000002,-30.529469851087494
-0.1907000000000001,-30.670940981073993
-0.1917000000000001,-30.71338232006995
-0.19269999999999998,-30.79826499806185
-0.1937000000000001,-30.88314767605375
-0.19469999999999998,-30.925589015049702
-0.1957000000000001,-31.010471693041605
-0.19669999999999999,-31.095354371033505
-0.1977000000000001,-31.19438416202406
-0.1987,-31.23682550102001
-0.1997000000000001,-31.321708179011907
-0.2007,-31.36414951800786
-0.2017000000000001,-31.40659085700382
-0.2027,-31.49147353499572
-0.2037000000000001,-31.57635621298762
-0.2047,-31.661238890979522
-0.2057000000000001,-31.717827342974125
-0.2067,-31.802710020966025
-0.2077000000000001,-31.887592698957924
-0.2087,-31.972475376949827
-0.2097000000000001,-32.05735805494172
-0.2107,-32.09979939393769
-0.2117000000000001,-32.14224073293363
-0.2127,-32.24127052392419
-0.2137000000000001,-32.283711862920136
-0.2147,-32.368594540912035
-0.2157000000000001,-32.45347721890394
-0.2167,-32.53835989689585
-0.21770000000000012,-32.62324257488775
-0.2187,-32.70812525287965
-0.21970000000000012,-32.764713704874254
-0.2207,-32.84959638286615
-0.22170000000000012,-32.93447906085806
-0.2227,-32.97692039985401
-0.22370000000000012,-33.06180307784591
-0.2247,-33.10424441684186
-0.22570000000000012,-33.18912709483376
-0.2267,-33.231568433829715
-0.22770000000000012,-33.330598224820264
-0.22870000000000001,-33.41548090281216
-0.22970000000000013,-33.50036358080407
-0.23070000000000002,-33.58524625879597
-0.23170000000000013,-33.670128936787876
-0.23270000000000002,-33.755011614779775
-0.23370000000000013,-33.81160006677438
-0.23470000000000002,-33.89648274476628
-0.23570000000000013,-33.93892408376223
-0.23670000000000002,-34.02380676175414
-0.2376999999999999,-34.10868943974604
-0.23870000000000002,-34.15113077874198
-0.2396999999999999,-34.278454795729836
-0.24070000000000003,-34.377484586720385
-0.24169999999999991,-34.41992592571634
-0.24270000000000003,-34.5472499427042
-0.24369999999999992,-34.632132620696105
-0.24470000000000003,-34.717015298688004
-0.24569999999999992,-34.75945663768395
-0.24670000000000003,-34.85848642867451
-0.24769999999999992,-34.90092776767045
-0.24870000000000003,-35.02825178465831
-0.24969999999999992,-35.07069312365426
-0.25070000000000003,-35.15557580164616
-0.2516999999999999,-35.240458479638065
-0.25270000000000004,-35.32534115762997
-0.2536999999999999,-35.42437094862052
-0.25470000000000004,-35.55169496560837
-0.2556999999999999,-35.636577643600276
-0.25670000000000004,-35.679018982596226
-0.25769999999999993,-35.763901660588125
-0.25870000000000004,-35.848784338580025
-0.25969999999999993,-35.94781412957058
-0.26070000000000004,-36.03269680756248
-0.26169999999999993,-36.11757948555439
-0.26270000000000004,-36.20246216354629
-0.26369999999999993,-36.28734484153819
-0.26470000000000005,-36.4288159715247
-0.26569999999999994,-36.5136986495166
-0.26670000000000005,-36.5985813275085
-0.26769999999999994,-36.725905344496354
-0.26870000000000005,-36.768346683492304
-0.26969999999999994,-36.8532293614842
-0.27070000000000005,-36.99470049147071
-0.27169999999999994,-37.07958316946261
-0.27270000000000005,-37.164465847454515
-0.27369999999999994,-37.206907186450465
-0.27470000000000006,-37.334231203438314
-0.27569999999999995,-37.41911388143023
-0.27670000000000006,-37.51814367242077
-0.27769999999999995,-37.645467689408626
-0.27870000000000006,-37.73035036740053
-0.27969999999999995,-37.81523304539243
-0.28070000000000006,-37.94255706238028
-0.28169999999999995,-38.04158685337084
-0.28270000000000006,-38.12646953136274
-0.28369999999999995,-38.211352209354644
-0.28470000000000006,-38.33867622634249
-0.28569999999999995,-38.38111756533845
-0.28670000000000007,-38.522588695324956
-0.28769999999999996,-38.607471373316855
-0.28870000000000007,-38.734795390304704
-0.28969999999999996,-38.86211940729255
-0.29070000000000007,-38.94700208528445
-0.29169999999999996,-39.046031876275016
-0.29270000000000007,-39.130914554266916
-0.29369999999999996,-39.21579723225882
-0.2947000000000001,-39.34312124924667
-0.29569999999999996,-39.47044526623452
-0.2967000000000001,-39.56947505722508
-0.29769999999999996,-39.654357735216976
-0.2987000000000001,-39.739240413208876
-0.29969999999999997,-39.86656443019674
-0.3007000000000001,-39.99388844718459
-0.30169999999999997,-40.135359577171094
-0.3027000000000001,-40.26268359415894
-0.30369999999999997,-40.30512493315489
-0.3047000000000001,-40.43244895014274
-0.30569999999999997,-40.559772967130606
-0.3067000000000001,-40.65880275812115
-0.3077,-40.78612677510901
-0.3087000000000001,-40.87100945310091
-0.3097,-40.99833347008877
-0.3107000000000001,-41.139804600075266
-0.3117,-41.267128617063115
-0.3127000000000001,-41.39445263405098
-0.3137,-41.47933531204288
-0.3147000000000001,-41.606659329030734
-0.3157,-41.74813045901723
-0.3167000000000001,-41.87545447600508
-0.3177,-41.96033715399699
-0.3187000000000001,-42.130102509980794
-0.3197,-42.229132300971344
-0.3207000000000001,-42.3564563179592
-0.3217,-42.483780334947056
-0.3227000000000001,-42.568663012938956
-0.3237,-42.752575481921404
-0.3247000000000001,-42.87989949890926
-0.3257,-43.007223515897124
-0.3267000000000001,-43.134547532884966
-0.3277,-43.27601866287147
-0.3287000000000001,-43.40334267985933
-0.3297,-43.53066669684718
-0.3307000000000001,-43.657990713835034
-0.3317,-43.79946184382153
-0.3327000000000001,-43.92678586080939
-0.3337,-44.054109877797245
-0.3347000000000001,-44.223875233781044
-0.3357,-44.36534636376755
-0.3367000000000001,-44.535111719751356
-0.3377,-44.66243573673921
-0.3387000000000001,-44.80390686672572
-0.3397,-44.97367222270952
-0.3407000000000001,-45.143437578693316
-0.3417,-45.27076159568118
-0.3427000000000001,-45.412232725667685
-0.3437,-45.53955674265553
-0.3447000000000001,-45.70932209863933
-0.3457,-45.89323456762179
-0.3467000000000001,-46.062999923605595
-0.3477,-46.2327652795894
-0.3487000000000001,-46.41667774857186
-0.3497,-46.544001765559706
-0.3507000000000001,-46.713767121543505
-0.3517,-46.88353247752732
-0.3527000000000001,-47.02500360751382
-0.3537,-47.19476896349763
-0.3547000000000001,-47.36453431948143
-0.3557,-47.54844678846388
-0.35670000000000013,-47.71821214444768
-0.3577,-47.8879775004315
-0.35870000000000013,-48.114331308409895
-0.3597,-48.2840966643937
-0.36070000000000013,-48.45386202037751
-0.3617,-48.63777448935996
-0.3626999999999999,-48.80753984534376
-0.3637,-49.03389365332217
-0.3646999999999999,-49.16121767031002
-0.3657,-49.373424365289786
-0.3666999999999999,-49.557336834272235
-0.3677,-49.72710219025603
-0.3686999999999999,-49.939308885235796
-0.36970000000000003,-50.20810403221015
-0.3706999999999999,-50.37786938819396
-0.37170000000000003,-50.60422319617236
-0.3726999999999999,-50.81642989115212
-0.37370000000000003,-50.98619524713592
-0.3746999999999999,-51.21254905511432
-0.37570000000000003,-51.424755750094086
-0.3766999999999999,-51.65110955807249
-0.37770000000000004,-51.82087491405629
-0.3786999999999999,-52.033081609036046
-0.37970000000000004,-52.30187675601041
-0.3806999999999999,-52.514083450990164
-0.38170000000000004,-52.74043725896857
-0.38269999999999993,-52.995085292944275
-0.38370000000000004,-53.22143910092268
-0.38469999999999993,-53.433645795902436
-0.38570000000000004,-53.64585249088219
-0.38669999999999993,-53.91464763785655
-0.38770000000000004,-54.1268543328363
-0.38869999999999993,-54.39564947981066
-0.38970000000000005,-54.60785617479041
-0.39069999999999994,-54.876651321764776
-0.39170000000000005,-55.13129935574048
-0.39269999999999994,-55.400094502714836
-0.39370000000000005,-55.65474253669055
-0.39469999999999994,-55.881096344668954
-0.39570000000000005,-56.1781857176406
-0.39669999999999994,-56.44698086461496
-0.39770000000000005,-56.70162889859067
-0.39869999999999994,-56.97042404556503
-0.39970000000000006,-57.22507207954074
-0.40069999999999995,-57.493867226515086
-0.40170000000000006,-57.7485152604908
-0.40269999999999995,-58.05975174646111
-0.40370000000000006,-58.35684111943277
-0.40469999999999995,-58.62563626640712
-0.40570000000000006,-58.92272563937878
-0.40669999999999995,-59.23396212534908
-0.40770000000000006,-59.502757272323436
-0.40869999999999995,-59.7998466452951
-0.40970000000000006,-60.11108313126541
-0.41069999999999995,-60.36573116524111
-0.41170000000000007,-60.67696765121143
-0.41269999999999996,-60.974057024183075
-0.41370000000000007,-61.28529351015339
-0.41469999999999996,-61.5965299961237
-0.41570000000000007,-61.936060708091304
-0.41669999999999996,-62.24729719406162
-0.41770000000000007,-62.544386567033264
-0.41869999999999996,-62.89806439199953
-0.4197000000000001,-63.20930087796983
-0.42069999999999996,-63.54883158993744
-0.4217000000000001,-63.860068075907755
-0.42269999999999996,-64.19959878787537
-0.4237000000000001,-64.55327661284163
-0.42469999999999997,-64.86451309881193
-0.4257000000000001,-65.20404381077954
-0.42669999999999997,-65.5577216357458
-0.4277000000000001,-65.91139946071206
-0.42869999999999997,-66.25093017267966
-0.4297000000000001,-66.60460799764593
-0.43069999999999997,-67.00072716160814
-0.4317000000000001,-67.34025787357575
-0.4327,-67.693935698542
-0.4337000000000001,-68.0900548625042
-0.4347,-68.44373268747047
-0.4357000000000001,-68.78326339943808
-0.4367,-69.1793825634003
-0.4377000000000001,-69.53306038836655
-0.4387,-69.91503243933012
-0.4397000000000001,-70.35359294228827
-0.4407,-70.74971210625048
-0.4417000000000001,-71.10338993121674
-0.4427,-71.48536198218031
-0.4437000000000001,-71.8814811461425
-0.4447,-72.32004164910067
-0.4457000000000001,-72.67371947406694
-0.4467,-73.09813286402644
-0.4477000000000001,-73.49425202798865
-0.4487,-73.93281253094682
-0.4497000000000001,-74.32893169490903
-0.4507,-74.76749219786718
-0.4517000000000001,-75.14946424883075
-0.4527,-75.5880247517889
-0.4537000000000001,-76.02658525474708
-0.4547,-76.46514575770523
-0.4557000000000001,-76.9037062606634
-0.4567,-77.34226676362155
-0.4577000000000001,-77.76668015358106
-0.4587,-78.20524065653922
-0.4597000000000001,-78.64380115949739
-0.4607,-79.08236166245555
-0.4617000000000001,-79.56336350440966
-0.4627,-80.00192400736783
-0.4637000000000001,-80.46877873632329
-0.4647,-80.90733923928146
-0.4657000000000001,-81.38834108123557
-0.4667,-81.86934292318966
-0.4677000000000001,-82.30790342614785
-0.4687,-82.78890526810196
-0.4697000000000001,-83.26990711005605
-0.4707,-83.75090895201016
-0.4717000000000001,-84.23191079396429
-0.4727,-84.7129126359184
-0.4737000000000001,-85.23635581686847
-0.4747,-85.70321054582392
-0.4757000000000001,-86.18421238777805
-0.4767,-86.7076555687281
-0.4777000000000001,-87.23109874967815
-0.4787,-87.71210059163228
-0.4797000000000001,-88.23554377258235
-0.4807,-88.71654561453644
-0.48170000000000013,-89.23998879548651
-0.4827,-89.76343197643658
-0.48370000000000013,-90.28687515738663
-0.4847,-90.81031833833671
-0.48570000000000013,-91.37620285828272
-0.4867,-91.03667214631511
-0.48570000000000013,-89.36731281247435
-0.4847,-87.98089573860662
-0.48370000000000013,-86.75009690772404
-0.4827,-85.61832786783202
-0.48170000000000013,-84.57144150593189
-0.4807,-83.56699648302772
-0.4797000000000001,-82.61913991211814
-0.4787,-81.69957756720586
-0.4777000000000001,-80.7800152222936
-0.4767,-79.90289421637728
-0.4757000000000001,-79.0399203234596
-0.4747,-78.20524065653922
-0.4737000000000001,-77.34226676362155
-0.4727,-76.55002843569714
-0.4717000000000001,-75.71534876877676
-0.4707,-74.89481621485504
-0.4697000000000001,-74.10257788693062
-0.4687,-73.2820453330089
-0.4677000000000001,-72.53224834408043
-0.4667,-71.75415712915466
-0.4657000000000001,-71.0043601402262
-0.4647,-70.26871026429637
-0.4637000000000001,-69.4906190493706
-0.4627,-68.74082206044213
