Potential V vs RHE, Current mA cm-2
0.013299999999999867,3.355695203279867
0.012299999999999978,2.352664891675556
0.011299999999999866,1.5675001202504606
0.010299999999999976,0.8264743413811545
0.009299999999999864,0.17231183632356148
0.008299999999999974,-0.4384190318281749
0.007299999999999862,-0.9617207416482519
0.006299999999999972,-1.4415908145624723
0.00529999999999986,-1.92117794521672
0.0042999999999999705,-2.3569090255751513
0.0032999999999998586,-2.794054817233447
0.0022999999999999687,-3.1420737970002466
0.0012999999999998568,-3.5353635383627267
0.00029999999999996696,-3.884797229429391
-0.000700000000000145,-4.23281620919619
-0.0017000000000000348,-4.538393849967037
-0.0027000000000001467,-4.887827541033701
-0.0037000000000000366,-5.191990470504685
-0.0047000000000001485,-5.497568111275533
-0.005700000000000038,-5.759289701750564
-0.00670000000000015,-6.021011292225596
-0.00770000000000004,-6.282732882700628
-0.008700000000000152,-6.588310523471475
-0.009700000000000042,-6.806176063650692
-0.010700000000000154,-7.024041603829907
-0.011700000000000044,-7.243321855308987
-0.012700000000000156,-7.461187395488204
-0.013700000000000045,-7.679052935667419
-0.014700000000000157,-7.853062425550818
-0.015700000000000047,-8.070927965730034
-0.01670000000000016,-8.288793505909249
-0.01770000000000005,-8.464217707092514
-0.01870000000000016,-8.638227196975913
-0.01970000000000005,-8.812236686859313
-0.020700000000000163,-9.031516938338395
-0.021700000000000053,-9.205526428221793
-0.022700000000000164,-9.379535918105192
-0.023700000000000054,-9.55496011928846
-0.024700000000000166,-9.685113558876042
-0.025700000000000056,-9.85912304875944
-0.026700000000000168,-9.99069119964689
-0.027700000000000058,-10.078403300238522
-0.02870000000000017,-10.164700689530287
-0.02970000000000006,-10.340124890713554
-0.03070000000000017,-10.470278330301136
-0.03170000000000006,-10.601846481188586
-0.03270000000000017,-10.644287820184536
-0.03370000000000006,-10.775855971071984
-0.034700000000000175,-10.863568071663616
-0.035700000000000065,-10.949865460955383
-0.03670000000000018,-11.037577561547016
-0.03770000000000007,-11.081433611842833
-0.03870000000000018,-11.1677310011346
-0.03970000000000007,-11.211587051430415
-0.04070000000000018,-11.255443101726232
-0.04170000000000007,-11.343155202317865
-0.04270000000000018,-11.385596541313816
-0.04370000000000007,-11.473308641905447
-0.044700000000000184,-11.517164692201263
-0.045700000000000074,-11.56102074249708
-0.046700000000000186,-11.56102074249708
-0.047700000000000076,-11.647318131788847
-0.04870000000000019,-11.691174182084664
-0.04970000000000008,-11.73503023238048
-0.05070000000000019,-11.778886282676295
-0.05170000000000008,-11.82274233297211
-0.05270000000000019,-11.86659838326793
-0.05370000000000008,-11.952895772559694
-0.05470000000000019,-12.040607873151327
-0.05570000000000008,-12.12831997374296
-0.056700000000000195,-12.258473413330542
-0.057700000000000085,-12.346185513922174
-0.058700000000000196,-12.476338953509758
-0.059700000000000086,-12.607907104397206
-0.0607000000000002,-12.73806054398479
-0.06170000000000009,-12.913484745168056
-0.0627000000000002,-13.043638184755638
-0.06370000000000009,-13.175206335643086
-0.0647000000000002,-13.349215825526485
-0.06570000000000009,-13.523225315409885
-0.0667000000000002,-13.698649516593148
-0.0677000000000001,-13.916515056772363
-0.0687000000000002,-14.046668496359947
-0.0697000000000001,-14.26028990263957
-0.07070000000000021,-14.486643710617974
-0.0717000000000001,-14.69885040559773
-0.07270000000000021,-14.868615761581536
-0.0737000000000001,-15.094969569559943
-0.07470000000000021,-15.307176264539699
-0.0757000000000001,-15.533530072518102
-0.07670000000000021,-15.74573676749786
-0.0777000000000001,-15.972090575476265
-0.07870000000000021,-16.184297270456018
-0.0797000000000001,-16.396503965435777
-0.08070000000000022,-16.622857773414182
-0.0817000000000001,-16.792623129397985
-0.08270000000000022,-17.061418276372343
-0.08370000000000011,-17.2736249713521
-0.08470000000000022,-17.48583166633185
-0.08570000000000011,-17.71218547431026
-0.08670000000000022,-17.924392169290012
-0.08770000000000011,-18.19318731626437
-0.08870000000000022,-18.40539401124413
-0.08970000000000011,-18.631747819222536
-0.09070000000000022,-18.843954514202288
-0.09170000000000011,-19.112749661176647
-0.09270000000000023,-19.3249563561564
-0.09370000000000012,-19.49472171214021
-0.09470000000000023,-19.721075520118614
-0.09570000000000012,-19.93328221509837
-0.09670000000000023,-20.202077362072725
-0.09770000000000012,-20.414284057052477
-0.09870000000000023,-20.584049413036283
-0.09970000000000012,-20.810403221014692
-0.10070000000000023,-21.065051254990397
-0.10170000000000012,-21.291405062968803
-0.10270000000000024,-21.418729079956652
-0.10370000000000013,-21.63093577493641
-0.10470000000000024,-21.814848243918867
-0.10570000000000013,-22.069496277894572
-0.10670000000000024,-22.253408746877028
-0.10770000000000013,-22.46561544185678
-0.10870000000000024,-22.63538079784059
-0.10970000000000013,-22.861734605818995
-0.11070000000000024,-23.031499961802798
-0.11170000000000013,-23.2012653177866
-0.11270000000000002,-23.427619125765005
-0.11370000000000013,-23.597384481748815
-0.11470000000000002,-23.823738289727217
-0.11570000000000014,-23.993503645711023
-0.11670000000000003,-24.120827662698876
-0.11770000000000014,-24.290593018682678
-0.11870000000000003,-24.516946826661083
-0.11970000000000014,-24.64427084364894
-0.12070000000000003,-24.814036199632742
-0.12170000000000014,-24.997948668615198
-0.12270000000000003,-25.167714024599
-0.12370000000000014,-25.337479380582806
-0.12470000000000003,-25.521391849565262
-0.12570000000000014,-25.691157205549064
-0.12670000000000003,-25.81848122253692
-0.12770000000000015,-26.002393691519377
-0.12870000000000004,-26.17215904750318
-0.12970000000000015,-26.29948306449103
-0.13070000000000004,-26.483395533473487
-0.13170000000000015,-26.65316088945729
-0.13270000000000004,-26.780484906445146
-0.13370000000000015,-26.9643973754276
-0.13470000000000004,-27.091721392415455
-0.13570000000000015,-27.219045409403304
-0.13670000000000004,-27.38881076538711
-0.13770000000000016,-27.530281895373616
-0.13870000000000005,-27.700047251357418
-0.13970000000000016,-27.827371268345274
-0.14070000000000005,-28.011283737327723
-0.14170000000000016,-28.13860775431558
-0.14270000000000005,-28.22349043230748
-0.14370000000000016,-28.350814449295335
-0.14470000000000005,-28.478138466283188
-0.14570000000000016,-28.662050935265643
-0.14670000000000005,-28.789374952253496
-0.14770000000000016,-28.8742576302454
-0.14870000000000005,-29.058170099227848
-0.14970000000000017,-29.18549411621571
-0.15070000000000006,-29.31281813320356
-0.15170000000000017,-29.39770081119546
-0.15270000000000006,-29.525024828183312
-0.15370000000000017,-29.66649595816982
-0.15470000000000006,-29.751378636161718
-0.15570000000000017,-29.878702653149578
-0.15670000000000006,-29.96358533114148
-0.15770000000000017,-30.10505646112798
-0.15870000000000006,-30.232380478115836
-0.15970000000000018,-30.317263156107735
-0.16070000000000007,-30.402145834099635
-0.16170000000000018,-30.529469851087494
-0.16270000000000007,-30.670940981073993
-0.16370000000000018,-30.7558236590659
-0.16470000000000007,-30.88314767605375
-0.16570000000000018,-30.968030354045652
-0.16670000000000007,-31.095354371033505
-0.16770000000000018,-31.19438416202406
-0.16870000000000007,-31.27926684001596
-0.16970000000000018,-31.36414951800786
-0.17070000000000007,-31.49147353499572
-0.17170000000000019,-31.57635621298762
-0.17270000000000008,-31.661238890979522
-0.1737000000000002,-31.76026868197007
-0.17470000000000008,-31.84515135996197
-0.1757000000000002,-31.972475376949827
-0.17670000000000008,-32.05735805494172
-0.1777000000000002,-32.14224073293363
-0.17870000000000008,-32.24127052392419
-0.1797000000000002,-32.32615320191609
-0.18070000000000008,-32.45347721890394
-0.1817000000000002,-32.53835989689585
-0.18270000000000008,-32.58080123589179
-0.1837000000000002,-32.66568391388369
-0.1847000000000001,-32.764713704874254
-0.1857000000000002,-32.84959638286615
-0.1867000000000001,-32.892037721862096
-0.1877000000000002,-33.01936173884996
-0.1887000000000001,-33.06180307784591
-0.1897000000000002,-33.14668575583781
-0.1907000000000001,-33.231568433829715
-0.1917000000000001,-33.330598224820264
-0.19269999999999998,-33.41548090281216
-0.1937000000000001,-33.50036358080407
-0.19469999999999998,-33.58524625879597
-0.1957000000000001,-33.627687597791926
-0.19669999999999999,-33.712570275783825
-0.1977000000000001,-33.755011614779775
-0.1987,-33.89648274476628
-0.1997000000000001,-33.93892408376223
-0.2007,-34.02380676175414
-0.2017000000000001,-34.06624810075008
-0.2027,-34.193572117737936
-0.2037000000000001,-34.236013456733886
-0.2047,-34.33504324772444
-0.2057000000000001,-34.377484586720385
-0.2067,-34.462367264712285
-0.2077000000000001,-34.5472499427042
-0.2087,-34.632132620696105
-0.2097000000000001,-34.67457395969205
-0.2107,-34.75945663768395
-0.2117000000000001,-34.85848642867451
-0.2127,-34.90092776767045
-0.2137000000000001,-34.98581044566235
-0.2147,-35.02825178465831
-0.2157000000000001,-35.11313446265021
-0.2167,-35.198017140642115
-0.21770000000000012,-35.282899818634014
-0.2187,-35.32534115762997
-0.21970000000000012,-35.46681228761647
-0.2207,-35.50925362661242
-0.22170000000000012,-35.594136304604326
-0.2227,-35.679018982596226
-0.22370000000000012,-35.721460321592176
-0.2247,-35.806342999584075
-0.22570000000000012,-35.848784338580025
-0.2267,-35.94781412957058
-0.22770000000000012,-35.99025546856653
-0.22870000000000001,-36.07513814655844
-0.22970000000000013,-36.16002082455034
-0.23070000000000002,-36.244903502542236
-0.23170000000000013,-36.28734484153819
-0.23270000000000002,-36.37222751953009
-0.23370000000000013,-36.47125731052064
-0.23470000000000002,-36.5136986495166
-0.23570000000000013,-36.64102266650445
-0.23670000000000002,-36.6834640055004
-0.2376999999999999,-36.768346683492304
-0.23870000000000002,-36.8532293614842
-0.2396999999999999,-36.89567070048016
-0.24070000000000003,-36.99470049147071
-0.24169999999999991,-37.037141830466666
-0.24270000000000003,-37.164465847454515
-0.24369999999999992,-37.206907186450465
-0.24470000000000003,-37.291789864442364
-0.24569999999999992,-37.376672542434264
-0.24670000000000003,-37.47570233342482
-0.24769999999999992,-37.56058501141672
-0.24870000000000003,-37.645467689408626
-0.24969999999999992,-37.687909028404576
-0.25070000000000003,-37.77279170639648
-0.2516999999999999,-37.85767438438838
-0.25270000000000004,-37.90011572338433
-0.2536999999999999,-37.99914551437489
-0.25470000000000004,-38.08402819236679
-0.2556999999999999,-38.16891087035869
-0.25670000000000004,-38.253793548350586
-0.25769999999999993,-38.29623488734655
-0.25870000000000004,-38.42355890433439
-0.25969999999999993,-38.522588695324956
-0.26070000000000004,-38.607471373316855
-0.26169999999999993,-38.692354051308754
-0.26270000000000004,-38.777236729300654
-0.26369999999999993,-38.86211940729255
-0.26470000000000005,-38.94700208528445
-0.26569999999999994,-39.046031876275016
-0.26670000000000005,-39.08847321527096
-0.26769999999999994,-39.173355893262865
-0.26870000000000005,-39.30067991025072
-0.26969999999999994,-39.38556258824262
-0.27070000000000005,-39.42800392723857
-0.27169999999999994,-39.56947505722508
-0.27270000000000005,-39.654357735216976
-0.27369999999999994,-39.739240413208876
-0.27470000000000006,-39.82412309120078
-0.27569999999999995,-39.90900576919269
-0.27670000000000006,-39.99388844718459
-0.27769999999999995,-40.092918238175145
-0.27870000000000006,-40.220242255162994
-0.27969999999999995,-40.26268359415894
-0.28070000000000006,-40.34756627215084
-0.28169999999999995,-40.43244895014274
-0.28270000000000006,-40.559772967130606
-0.28369999999999995,-40.65880275812115
-0.28470000000000006,-40.743685436113054
-0.28569999999999995,-40.87100945310091
-0.28670000000000007,-40.99833347008877
-0.28769999999999996,-41.083216148080666
-0.28870000000000007,-41.182245939071215
-0.28969999999999996,-41.267128617063115
-0.29070000000000007,-41.352011295055014
-0.29169999999999996,-41.43689397304693
-0.29270000000000007,-41.56421799003478
-0.29369999999999996,-41.66324778102533
-0.2947000000000001,-41.74813045901723
-0.29569999999999996,-41.83301313700913
-0.2967000000000001,-41.96033715399699
-0.29769999999999996,-42.04521983198889
-0.2987000000000001,-42.186690961975394
-0.29969999999999997,-42.31401497896325
-0.3007000000000001,-42.39889765695515
-0.30169999999999997,-42.483780334947056
-0.3027000000000001,-42.568663012938956
-0.30369999999999997,-42.71013414292546
-0.3047000000000001,-42.837458159913304
-0.30569999999999997,-42.87989949890926
-0.3067000000000001,-43.04966485489307
-0.3077,-43.134547532884966
-0.3087000000000001,-43.27601866287147
-0.3097,-43.36090134086337
-0.3107000000000001,-43.48822535785123
-0.3117,-43.57310803584313
-0.3127000000000001,-43.70043205283099
-0.3137,-43.84190318281749
-0.3147000000000001,-43.96922719980534
-0.3157,-44.054109877797245
-0.3167000000000001,-44.181433894785094
-0.3177,-44.3229050247716
-0.3187000000000001,-44.45022904175945
-0.3197,-44.535111719751356
-0.3207000000000001,-44.66243573673921
-0.3217,-44.80390686672572
-0.3227000000000001,-44.93123088371356
-0.3237,-45.01611356170547
-0.3247000000000001,-45.143437578693316
-0.3257,-45.32735004767578
-0.3267000000000001,-45.45467406466363
-0.3277,-45.581998081651484
-0.3287000000000001,-45.70932209863933
-0.3297,-45.85079322862584
-0.3307000000000001,-45.97811724561369
-0.3317,-46.10544126260155
-0.3327000000000001,-46.19032394059345
-0.3337,-46.37423640957591
-0.3347000000000001,-46.501560426563756
-0.3357,-46.628884443551605
-0.3367000000000001,-46.75620846053947
-0.3377,-46.88353247752732
-0.3387000000000001,-47.02500360751382
-0.3397,-47.23721030249357
-0.3407000000000001,-47.32209298048547
-0.3417,-47.506005449467935
-0.3427000000000001,-47.633329466455784
-0.3437,-47.80309482243959
-0.3447000000000001,-47.93041883942744
-0.3457,-48.071889969413945
-0.3467000000000001,-48.24165532539775
-0.3477,-48.41142068138156
-0.3487000000000001,-48.55289181136806
-0.3497,-48.68021582835591
-0.3507000000000001,-48.89242252333566
-0.3517,-49.03389365332217
-0.3527000000000001,-49.24610034830193
-0.3537,-49.373424365289786
-0.3547000000000001,-49.557336834272235
-0.3557,-49.68466085126009
-0.35670000000000013,-49.85442620724389
-0.3577,-50.024191563227696
-0.35870000000000013,-50.20810403221015
-0.3597,-50.335428049198
-0.36070000000000013,-50.547634744177756
-0.3617,-50.73154721316022
-0.3626999999999999,-50.90131256914402
-0.3637,-51.071077925127824
-0.3646999999999999,-51.25499039411028
-0.3657,-51.46719708909004
-0.3666999999999999,-51.65110955807249
-0.3677,-51.86331625305225
-0.3686999999999999,-52.033081609036046
-0.36970000000000003,-52.25943541701445
-0.3706999999999999,-52.42920077299826
-0.37170000000000003,-52.59896612898206
-0.3726999999999999,-52.78287859796452
-0.37370000000000003,-52.995085292944275
-0.3746999999999999,-53.22143910092268
-0.37570000000000003,-53.39120445690648
-0.3766999999999999,-53.603411151886235
-0.37770000000000004,-53.82976495986464
-0.3786999999999999,-54.0419716548444
-0.37970000000000004,-54.26832546282281
-0.3806999999999999,-54.43809081880661
-0.38170000000000004,-54.69273885278232
-0.38269999999999993,-54.919092660760725
-0.38370000000000004,-55.17374069473642
-0.38469999999999993,-55.357653163718886
-0.38570000000000004,-55.56985985869864
-0.38669999999999993,-55.838655005673
-0.38770000000000004,-56.05086170065276
-0.38869999999999993,-56.26306839563251
-0.38970000000000005,-56.53186354260687
-0.39069999999999994,-56.786511576582576
-0.39170000000000005,-57.012865384560975
-0.39269999999999994,-57.26751341853669
-0.39370000000000005,-57.53630856551105
-0.39469999999999994,-57.7485152604908
-0.39570000000000005,-58.05975174646111
-0.39669999999999994,-58.27195844144086
-0.39770000000000005,-58.54075358841522
-0.39869999999999994,-58.79540162239092
-0.39970000000000006,-59.02175543036933
-0.40069999999999995,-59.31884480334099
-0.40170000000000006,-59.587639950315335
-0.40269999999999995,-59.7998466452951
-0.40370000000000006,-60.11108313126541
-0.40469999999999995,-60.36573116524111
-0.40570000000000006,-60.71940899020737
-0.40669999999999995,-60.974057024183075
-0.40770000000000006,-61.242852171157445
-0.40869999999999995,-61.53994154412909
-0.40970000000000006,-61.851178030099405
-0.41069999999999995,-62.11997317707376
-0.41170000000000007,-62.37462121104946
-0.41269999999999996,-62.68585769701977
-0.41370000000000007,-62.98294706999144
-0.41469999999999996,-63.29418355596174
-0.41570000000000007,-63.54883158993744
-0.41669999999999996,-63.902509414903705
-0.41770000000000007,-64.19959878787537
-0.41869999999999996,-64.51083527384567
-0.4197000000000001,-64.86451309881193
-0.42069999999999996,-65.16160247178358
-0.4217000000000001,-65.51528029674984
-0.42269999999999996,-65.82651678272015
-0.4237000000000001,-66.16604749468777
-0.42469999999999997,-66.47728398065809
-0.4257000000000001,-66.77437335362974
-0.42669999999999997,-67.128051178596
-0.4277000000000001,-67.48172900356225
-0.42869999999999997,-67.82125971552985
-0.4297000000000001,-68.17493754049613
-0.43069999999999997,-68.52861536546239
-0.4317000000000001,-68.91058741642594
-0.4327,-69.26426524139221
-0.4337000000000001,-69.61794306635846
-0.4347,-69.95747377832606
-0.4357000000000001,-70.31115160329232
-0.4367,-70.70727076725453
-0.4377000000000001,-71.06094859222078
-0.4387,-71.4004793041884
-0.4397000000000001,-71.7965984681506
-0.4407,-72.19271763211282
-0.4417000000000001,-72.53224834408043
-0.4427,-72.92836750804264
-0.4437000000000001,-73.32448667200485
-0.4447,-73.72060583596706
-0.4457000000000001,-74.14501922592657
-0.4467,-74.49869705089283
-0.4477000000000001,-74.89481621485504
-0.4487,-75.33337671781321
-0.4497000000000001,-75.77193722077136
-0.4507,-76.11146793273898
-0.4517000000000001,-76.50758709670117
-0.4527,-76.9037062606634
-0.4537000000000001,-77.34226676362155
-0.4547,-77.76668015358106
-0.4557000000000001,-78.16279931754329
-0.4567,-78.60135982050144
-0.4577000000000001,-79.0399203234596
-0.4587,-79.47848082641775
-0.4597000000000001,-79.94533555537322
-0.4607,-80.34145471933543
-0.4617000000000001,-80.82245656128954
-0.4627,-81.26101706424771
-0.4637000000000001,-81.69957756720586
-0.4647,-82.13813807016405
-0.4657000000000001,-82.56255146012353
-0.4667,-83.04355330207765
-0.4677000000000001,-83.52455514403178
-0.4687,-84.00555698598588
-0.4697000000000001,-84.44411748894404
-0.4707,-84.92511933089816
-0.4717000000000001,-85.44856251184822
-0.4727,-85.88712301480638
-0.4737000000000001,-86.36812485676049
-0.4747,-86.84912669871461
-0.4757000000000001,-87.33012854066871
-0.4767,-87.79698326962418
-0.4777000000000001,-88.32042645057423
-0.4787,-88.80142829252836
-0.4797000000000001,-89.28243013448247
-0.4807,-89.80587331543254
-0.48170000000000013,-90.32931649638259
-0.4827,-90.81031833833671
-0.48370000000000013,-91.33376151928677
-0.4847,-91.89964603923279
-0.48570000000000013,-92.42308922018285
-0.4867,-92.04111716921928
-0.48570000000000013,-90.32931649638259
-0.4847,-88.94289942251486
-0.48370000000000013,-87.62721791364037
-0.4827,-86.49544887374834
-0.48170000000000013,-85.36367983385631
-0.4807,-84.35923481095215
-0.4797000000000001,-83.39723112704392
-0.4787,-82.43522744313569
-0.4777000000000001,-81.51566509822342
-0.4767,-80.61024986630979
-0.4757000000000001,-79.73312886039348
-0.4747,-78.85600785447714
-0.4737000000000001,-77.99303396155948
-0.4727,-77.11591295564315
-0.4717000000000001,-76.33782174071737
-0.4707,-75.50314207379701
-0.4697000000000001,-74.72505085887124
-0.4687,-73.8479298529549
-0.4677000000000001,-73.0556915250305
-0.4667,-72.32004164910067
-0.4657000000000001,-71.58439177317086
-0.4647,-70.74971210625048
-0.4637000000000001,-70.05650356931662
-0.4627,-69.30670658038814
