Aug. 17, 2024   15:33:48
Cyclic Voltammetry
File: c:/users/guazh/data/20240813_batch_94_500/2024-08-15-exp114\exp114-2024-08-17t15_14_54-arkoh\exp114_cv_sr_100mvs_efin_-1900mv.bin
Data Source:  Experiment
Instrument Model:  CHI760E
Header: CV ran at 100 mVs
Note: 

Init E (V) = -1
High E (V) = -1
Low E (V) = -1.9
Final E (V) = -1
Init P/N = N
Scan Rate (V/s) = 0.1
Segment = 3
Sample Interval (V) = 0.001
Quiet Time (sec) = 2
Sensitivity (A/V) = 0.01
Comp R (ohm) = 1.3

Results:

Channel 1:
Segment 1:

Segment 2:

Segment 3:

Potential/V, Current/A

-1.000, 6.886e-7
-1.001, 7.972e-7
-1.002, 7.774e-7
-1.003, 9.550e-7
-1.004, 8.070e-7
-1.005, 1.103e-6
-1.006, 9.846e-7
-1.007, 1.004e-6
-1.008, 1.093e-6
-1.009, 1.093e-6
-1.010, 1.182e-6
-1.011, 1.162e-6
-1.012, 1.182e-6
-1.013, 1.231e-6
-1.014, 1.212e-6
-1.015, 1.271e-6
-1.016, 1.251e-6
-1.017, 1.182e-6
-1.018, 1.310e-6
-1.019, 1.379e-6
-1.020, 1.360e-6
-1.021, 1.300e-6
-1.022, 1.300e-6
-1.023, 1.310e-6
-1.024, 1.448e-6
-1.025, 1.596e-6
-1.026, 1.419e-6
-1.027, 1.508e-6
-1.028, 1.596e-6
-1.029, 1.409e-6
-1.030, 1.636e-6
-1.031, 1.646e-6
-1.032, 1.468e-6
-1.033, 1.438e-6
-1.034, 1.468e-6
-1.035, 1.656e-6
-1.036, 1.537e-6
-1.037, 1.675e-6
-1.038, 1.695e-6
-1.039, 1.527e-6
-1.040, 1.725e-6
-1.041, 1.646e-6
-1.042, 1.656e-6
-1.043, 1.725e-6
-1.044, 1.715e-6
-1.045, 1.725e-6
-1.046, 1.725e-6
-1.047, 1.715e-6
-1.048, 1.705e-6
-1.049, 1.744e-6
-1.050, 1.912e-6
-1.051, 1.754e-6
-1.052, 1.853e-6
-1.053, 1.863e-6
-1.054, 1.853e-6
-1.055, 1.942e-6
-1.056, 1.764e-6
-1.057, 1.853e-6
-1.058, 1.833e-6
-1.059, 1.725e-6
-1.060, 1.951e-6
-1.061, 1.912e-6
-1.062, 1.725e-6
-1.063, 1.971e-6
-1.064, 1.853e-6
-1.065, 2.129e-6
-1.066, 1.754e-6
-1.067, 1.863e-6
-1.068, 1.912e-6
-1.069, 1.882e-6
-1.070, 2.090e-6
-1.071, 2.001e-6
-1.072, 1.942e-6
-1.073, 2.050e-6
-1.074, 1.902e-6
-1.075, 2.050e-6
-1.076, 2.021e-6
-1.077, 1.932e-6
-1.078, 2.119e-6
-1.079, 2.011e-6
-1.080, 2.149e-6
-1.081, 1.991e-6
-1.082, 2.070e-6
-1.083, 2.159e-6
-1.084, 2.099e-6
-1.085, 2.139e-6
-1.086, 2.011e-6
-1.087, 2.070e-6
-1.088, 2.178e-6
-1.089, 2.228e-6
-1.090, 2.238e-6
-1.091, 2.060e-6
-1.092, 2.188e-6
-1.093, 2.099e-6
-1.094, 2.159e-6
-1.095, 2.277e-6
-1.096, 2.129e-6
-1.097, 2.238e-6
-1.098, 2.346e-6
-1.099, 2.277e-6
-1.100, 2.188e-6
-1.101, 2.218e-6
-1.102, 2.277e-6
-1.103, 2.228e-6
-1.104, 2.287e-6
-1.105, 2.267e-6
-1.106, 2.198e-6
-1.107, 2.267e-6
-1.108, 2.287e-6
-1.109, 2.257e-6
-1.110, 2.376e-6
-1.111, 2.366e-6
-1.112, 2.238e-6
-1.113, 2.198e-6
-1.114, 2.405e-6
-1.115, 2.455e-6
-1.116, 2.267e-6
-1.117, 2.405e-6
-1.118, 2.415e-6
-1.119, 2.307e-6
-1.120, 2.465e-6
-1.121, 2.356e-6
-1.122, 2.405e-6
-1.123, 2.317e-6
-1.124, 2.346e-6
-1.125, 2.514e-6
-1.126, 2.356e-6
-1.127, 2.425e-6
-1.128, 2.563e-6
-1.129, 2.465e-6
-1.130, 2.543e-6
-1.131, 2.514e-6
-1.132, 2.514e-6
-1.133, 2.504e-6
-1.134, 2.504e-6
-1.135, 2.534e-6
-1.136, 2.455e-6
-1.137, 2.455e-6
-1.138, 2.524e-6
-1.139, 2.583e-6
-1.140, 2.613e-6
-1.141, 2.632e-6
-1.142, 2.563e-6
-1.143, 2.563e-6
-1.144, 2.534e-6
-1.145, 2.682e-6
-1.146, 2.662e-6
-1.147, 2.603e-6
-1.148, 2.632e-6
-1.149, 2.711e-6
-1.150, 2.662e-6
-1.151, 2.543e-6
-1.152, 2.613e-6
-1.153, 2.652e-6
-1.154, 2.760e-6
-1.155, 2.879e-6
-1.156, 2.622e-6
-1.157, 2.622e-6
-1.158, 2.642e-6
-1.159, 2.731e-6
-1.160, 2.810e-6
-1.161, 2.701e-6
-1.162, 2.652e-6
-1.163, 2.741e-6
-1.164, 2.731e-6
-1.165, 2.889e-6
-1.166, 2.770e-6
-1.167, 2.583e-6
-1.168, 2.879e-6
-1.169, 2.849e-6
-1.170, 2.869e-6
-1.171, 2.731e-6
-1.172, 2.751e-6
-1.173, 2.839e-6
-1.174, 2.770e-6
-1.175, 2.879e-6
-1.176, 2.760e-6
-1.177, 2.918e-6
-1.178, 2.839e-6
-1.179, 2.869e-6
-1.180, 2.859e-6
-1.181, 2.918e-6
-1.182, 2.978e-6
-1.183, 2.908e-6
-1.184, 2.987e-6
-1.185, 3.027e-6
-1.186, 2.849e-6
-1.187, 2.908e-6
-1.188, 2.899e-6
-1.189, 2.820e-6
-1.190, 2.938e-6
-1.191, 2.978e-6
-1.192, 2.839e-6
-1.193, 2.820e-6
-1.194, 2.978e-6
-1.195, 3.017e-6
-1.196, 2.948e-6
-1.197, 2.987e-6
-1.198, 2.958e-6
-1.199, 3.007e-6
-1.200, 3.066e-6
-1.201, 3.056e-6
-1.202, 2.978e-6
-1.203, 3.076e-6
-1.204, 3.066e-6
-1.205, 3.204e-6
-1.206, 3.047e-6
-1.207, 3.086e-6
-1.208, 3.086e-6
-1.209, 3.076e-6
-1.210, 3.195e-6
-1.211, 3.135e-6
-1.212, 3.086e-6
-1.213, 3.175e-6
-1.214, 3.047e-6
-1.215, 3.204e-6
-1.216, 3.175e-6
-1.217, 3.106e-6
-1.218, 3.037e-6
-1.219, 3.214e-6
-1.220, 3.303e-6
-1.221, 3.027e-6
-1.222, 3.234e-6
-1.223, 3.214e-6
-1.224, 3.155e-6
-1.225, 3.303e-6
-1.226, 3.313e-6
-1.227, 3.224e-6
-1.228, 3.234e-6
-1.229, 3.422e-6
-1.230, 3.382e-6
-1.231, 3.254e-6
-1.232, 3.264e-6
-1.233, 3.392e-6
-1.234, 3.264e-6
-1.235, 3.471e-6
-1.236, 3.362e-6
-1.237, 3.372e-6
-1.238, 3.392e-6
-1.239, 3.362e-6
-1.240, 3.471e-6
-1.241, 3.343e-6
-1.242, 3.392e-6
-1.243, 3.382e-6
-1.244, 3.372e-6
-1.245, 3.560e-6
-1.246, 3.491e-6
-1.247, 3.422e-6
-1.248, 3.530e-6
-1.249, 3.500e-6
-1.250, 3.422e-6
-1.251, 3.520e-6
-1.252, 3.313e-6
-1.253, 3.293e-6
-1.254, 3.500e-6
-1.255, 3.619e-6
-1.256, 3.451e-6
-1.257, 3.481e-6
-1.258, 3.491e-6
-1.259, 3.441e-6
-1.260, 3.352e-6
-1.261, 3.451e-6
-1.262, 3.579e-6
-1.263, 3.579e-6
-1.264, 3.570e-6
-1.265, 3.678e-6
-1.266, 3.431e-6
-1.267, 3.599e-6
-1.268, 3.639e-6
-1.269, 3.520e-6
-1.270, 3.619e-6
-1.271, 3.639e-6
-1.272, 3.550e-6
-1.273, 3.609e-6
-1.274, 3.717e-6
-1.275, 3.836e-6
-1.276, 3.648e-6
-1.277, 3.648e-6
-1.278, 3.579e-6
-1.279, 3.688e-6
-1.280, 3.757e-6
-1.281, 3.678e-6
-1.282, 3.708e-6
-1.283, 3.619e-6
-1.284, 3.737e-6
-1.285, 3.846e-6
-1.286, 3.767e-6
-1.287, 3.648e-6
-1.288, 3.658e-6
-1.289, 3.737e-6
-1.290, 3.757e-6
-1.291, 3.708e-6
-1.292, 3.668e-6
-1.293, 3.777e-6
-1.294, 3.816e-6
-1.295, 3.895e-6
-1.296, 3.708e-6
-1.297, 3.737e-6
-1.298, 3.698e-6
-1.299, 3.678e-6
-1.300, 3.964e-6
-1.301, 3.747e-6
-1.302, 3.757e-6
-1.303, 3.787e-6
-1.304, 3.796e-6
-1.305, 3.836e-6
-1.306, 3.885e-6
-1.307, 3.836e-6
-1.308, 3.885e-6
-1.309, 3.836e-6
-1.310, 3.895e-6
-1.311, 3.875e-6
-1.312, 3.826e-6
-1.313, 3.796e-6
-1.314, 3.875e-6
-1.315, 3.915e-6
-1.316, 4.033e-6
-1.317, 3.865e-6
-1.318, 3.836e-6
-1.319, 3.836e-6
-1.320, 3.915e-6
-1.321, 3.846e-6
-1.322, 3.865e-6
-1.323, 3.865e-6
-1.324, 4.013e-6
-1.325, 4.092e-6
-1.326, 3.865e-6
-1.327, 3.885e-6
-1.328, 3.964e-6
-1.329, 3.895e-6
-1.330, 3.994e-6
-1.331, 3.895e-6
-1.332, 3.954e-6
-1.333, 4.102e-6
-1.334, 4.142e-6
-1.335, 4.112e-6
-1.336, 3.974e-6
-1.337, 3.964e-6
-1.338, 4.073e-6
-1.339, 3.964e-6
-1.340, 4.023e-6
-1.341, 4.063e-6
-1.342, 4.013e-6
-1.343, 3.974e-6
-1.344, 4.112e-6
-1.345, 4.171e-6
-1.346, 4.013e-6
-1.347, 4.181e-6
-1.348, 4.063e-6
-1.349, 4.013e-6
-1.350, 4.112e-6
-1.351, 4.083e-6
-1.352, 4.063e-6
-1.353, 4.102e-6
-1.354, 4.102e-6
-1.355, 4.073e-6
-1.356, 4.023e-6
-1.357, 4.142e-6
-1.358, 4.142e-6
-1.359, 4.171e-6
-1.360, 4.211e-6
-1.361, 4.004e-6
-1.362, 4.132e-6
-1.363, 4.142e-6
-1.364, 4.260e-6
-1.365, 4.280e-6
-1.366, 4.171e-6
-1.367, 4.102e-6
-1.368, 4.063e-6
-1.369, 4.191e-6
-1.370, 4.211e-6
-1.371, 4.231e-6
-1.372, 4.092e-6
-1.373, 4.250e-6
-1.374, 4.122e-6
-1.375, 4.339e-6
-1.376, 4.290e-6
-1.377, 4.152e-6
-1.378, 4.181e-6
-1.379, 4.379e-6
-1.380, 4.231e-6
-1.381, 4.171e-6
-1.382, 4.063e-6
-1.383, 4.319e-6
-1.384, 4.329e-6
-1.385, 4.349e-6
-1.386, 4.319e-6
-1.387, 4.309e-6
-1.388, 4.290e-6
-1.389, 4.329e-6
-1.390, 4.438e-6
-1.391, 4.270e-6
-1.392, 4.250e-6
-1.393, 4.171e-6
-1.394, 4.398e-6
-1.395, 4.467e-6
-1.396, 4.408e-6
-1.397, 4.398e-6
-1.398, 4.448e-6
-1.399, 4.448e-6
-1.400, 4.388e-6
-1.401, 4.517e-6
-1.402, 4.388e-6
-1.403, 4.319e-6
-1.404, 4.457e-6
-1.405, 4.418e-6
-1.406, 4.467e-6
-1.407, 4.408e-6
-1.408, 4.457e-6
-1.409, 4.566e-6
-1.410, 4.418e-6
-1.411, 4.448e-6
-1.412, 4.526e-6
-1.413, 4.526e-6
-1.414, 4.457e-6
-1.415, 4.596e-6
-1.416, 4.398e-6
-1.417, 4.448e-6
-1.418, 4.507e-6
-1.419, 4.684e-6
-1.420, 4.625e-6
-1.421, 4.526e-6
-1.422, 4.645e-6
-1.423, 4.586e-6
-1.424, 4.507e-6
-1.425, 4.566e-6
-1.426, 4.576e-6
-1.427, 4.566e-6
-1.428, 4.615e-6
-1.429, 4.507e-6
-1.430, 4.586e-6
-1.431, 4.526e-6
-1.432, 4.566e-6
-1.433, 4.526e-6
-1.434, 4.704e-6
-1.435, 4.763e-6
-1.436, 4.674e-6
-1.437, 4.674e-6
-1.438, 4.586e-6
-1.439, 4.694e-6
-1.440, 4.763e-6
-1.441, 4.655e-6
-1.442, 4.635e-6
-1.443, 4.674e-6
-1.444, 4.763e-6
-1.445, 4.753e-6
-1.446, 4.734e-6
-1.447, 4.753e-6
-1.448, 4.783e-6
-1.449, 4.744e-6
-1.450, 4.803e-6
-1.451, 4.744e-6
-1.452, 4.783e-6
-1.453, 4.763e-6
-1.454, 4.941e-6
-1.455, 4.714e-6
-1.456, 4.803e-6
-1.457, 4.724e-6
-1.458, 4.734e-6
-1.459, 4.753e-6
-1.460, 4.852e-6
-1.461, 4.714e-6
-1.462, 4.872e-6
-1.463, 4.901e-6
-1.464, 4.882e-6
-1.465, 4.852e-6
-1.466, 4.892e-6
-1.467, 4.803e-6
-1.468, 4.822e-6
-1.469, 4.882e-6
-1.470, 4.872e-6
-1.471, 4.822e-6
-1.472, 4.951e-6
-1.473, 4.882e-6
-1.474, 5.030e-6
-1.475, 5.040e-6
-1.476, 4.901e-6
-1.477, 4.882e-6
-1.478, 4.951e-6
-1.479, 4.951e-6
-1.480, 5.059e-6
-1.481, 4.941e-6
-1.482, 5.059e-6
-1.483, 4.990e-6
-1.484, 5.020e-6
-1.485, 5.089e-6
-1.486, 5.128e-6
-1.487, 5.030e-6
-1.488, 4.980e-6
-1.489, 5.138e-6
-1.490, 5.148e-6
-1.491, 5.040e-6
-1.492, 5.079e-6
-1.493, 5.118e-6
-1.494, 5.237e-6
-1.495, 5.227e-6
-1.496, 5.148e-6
-1.497, 5.040e-6
-1.498, 5.286e-6
-1.499, 5.207e-6
-1.500, 5.188e-6
-1.501, 5.040e-6
-1.502, 5.217e-6
-1.503, 5.178e-6
-1.504, 5.355e-6
-1.505, 5.316e-6
-1.506, 5.207e-6
-1.507, 5.217e-6
-1.508, 5.158e-6
-1.509, 5.168e-6
-1.510, 5.296e-6
-1.511, 5.168e-6
-1.512, 5.207e-6
-1.513, 5.326e-6
-1.514, 5.434e-6
-1.515, 5.355e-6
-1.516, 5.483e-6
-1.517, 5.375e-6
-1.518, 5.434e-6
-1.519, 5.316e-6
-1.520, 5.375e-6
-1.521, 5.444e-6
-1.522, 5.395e-6
-1.523, 5.464e-6
-1.524, 5.582e-6
-1.525, 5.523e-6
-1.526, 5.316e-6
-1.527, 5.474e-6
-1.528, 5.405e-6
-1.529, 5.562e-6
-1.530, 5.651e-6
-1.531, 5.572e-6
-1.532, 5.493e-6
-1.533, 5.661e-6
-1.534, 5.602e-6
-1.535, 5.641e-6
-1.536, 5.681e-6
-1.537, 5.691e-6
-1.538, 5.750e-6
-1.539, 5.671e-6
-1.540, 5.849e-6
-1.541, 5.740e-6
-1.542, 5.681e-6
-1.543, 5.809e-6
-1.544, 5.799e-6
-1.545, 5.809e-6
-1.546, 5.898e-6
-1.547, 5.779e-6
-1.548, 5.829e-6
-1.549, 5.868e-6
-1.550, 5.878e-6
-1.551, 5.839e-6
-1.552, 5.898e-6
-1.553, 5.770e-6
-1.554, 5.908e-6
-1.555, 5.987e-6
-1.556, 5.888e-6
-1.557, 5.849e-6
-1.558, 5.947e-6
-1.559, 6.016e-6
-1.560, 6.075e-6
-1.561, 5.967e-6
-1.562, 6.085e-6
-1.563, 6.154e-6
-1.564, 6.154e-6
-1.565, 6.233e-6
-1.566, 6.233e-6
-1.567, 6.233e-6
-1.568, 6.154e-6
-1.569, 6.184e-6
-1.570, 6.214e-6
-1.571, 6.302e-6
-1.572, 6.293e-6
-1.573, 6.411e-6
-1.574, 6.440e-6
-1.575, 6.480e-6
-1.576, 6.470e-6
-1.577, 6.539e-6
-1.578, 6.431e-6
-1.579, 6.490e-6
-1.580, 6.588e-6
-1.581, 6.480e-6
-1.582, 6.588e-6
-1.583, 6.579e-6
-1.584, 6.667e-6
-1.585, 6.727e-6
-1.586, 6.717e-6
-1.587, 6.875e-6
-1.588, 6.855e-6
-1.589, 6.875e-6
-1.590, 6.983e-6
-1.591, 6.963e-6
-1.592, 6.914e-6
-1.593, 6.904e-6
-1.594, 7.092e-6
-1.595, 7.092e-6
-1.596, 7.052e-6
-1.597, 7.141e-6
-1.598, 7.180e-6
-1.599, 7.289e-6
-1.600, 7.368e-6
-1.601, 7.269e-6
-1.602, 7.240e-6
-1.603, 7.171e-6
-1.604, 7.348e-6
-1.605, 7.368e-6
-1.606, 7.447e-6
-1.607, 7.506e-6
-1.608, 7.467e-6
-1.609, 7.654e-6
-1.610, 7.763e-6
-1.611, 7.605e-6
-1.612, 7.674e-6
-1.613, 7.812e-6
-1.614, 7.989e-6
-1.615, 7.950e-6
-1.616, 8.039e-6
-1.617, 7.999e-6
-1.618, 8.039e-6
-1.619, 8.216e-6
-1.620, 8.246e-6
-1.621, 8.167e-6
-1.622, 8.404e-6
-1.623, 8.364e-6
-1.624, 8.453e-6
-1.625, 8.542e-6
-1.626, 8.818e-6
-1.627, 8.680e-6
-1.628, 8.907e-6
-1.629, 8.917e-6
-1.630, 9.016e-6
-1.631, 8.976e-6
-1.632, 9.154e-6
-1.633, 9.252e-6
-1.634, 9.282e-6
-1.635, 9.469e-6
-1.636, 9.529e-6
-1.637, 9.538e-6
-1.638, 9.726e-6
-1.639, 9.992e-6
-1.640, 1.003e-5
-1.641, 1.003e-5
-1.642, 1.015e-5
-1.643, 1.039e-5
-1.644, 1.037e-5
-1.645, 1.062e-5
-1.646, 1.066e-5
-1.647, 1.084e-5
-1.648, 1.092e-5
-1.649, 1.109e-5
-1.650, 1.116e-5
-1.651, 1.126e-5
-1.652, 1.150e-5
-1.653, 1.162e-5
-1.654, 1.183e-5
-1.655, 1.199e-5
-1.656, 1.213e-5
-1.657, 1.230e-5
-1.658, 1.243e-5
-1.659, 1.272e-5
-1.660, 1.287e-5
-1.661, 1.301e-5
-1.662, 1.324e-5
-1.663, 1.340e-5
-1.664, 1.367e-5
-1.665, 1.388e-5
-1.666, 1.404e-5
-1.667, 1.436e-5
-1.668, 1.463e-5
-1.669, 1.484e-5
-1.670, 1.501e-5
-1.671, 1.532e-5
-1.672, 1.556e-5
-1.673, 1.596e-5
-1.674, 1.618e-5
-1.675, 1.641e-5
-1.676, 1.672e-5
-1.677, 1.700e-5
-1.678, 1.729e-5
-1.679, 1.764e-5
-1.680, 1.816e-5
-1.681, 1.839e-5
-1.682, 1.874e-5
-1.683, 1.928e-5
-1.684, 1.957e-5
-1.685, 2.006e-5
-1.686, 2.045e-5
-1.687, 2.081e-5
-1.688, 2.115e-5
-1.689, 2.183e-5
-1.690, 2.229e-5
-1.691, 2.281e-5
-1.692, 2.346e-5
-1.693, 2.384e-5
-1.694, 2.451e-5
-1.695, 2.507e-5
-1.696, 2.555e-5
-1.697, 2.620e-5
-1.698, 2.690e-5
-1.699, 2.753e-5
-1.700, 2.820e-5
-1.701, 2.887e-5
-1.702, 2.965e-5
-1.703, 3.043e-5
-1.704, 3.114e-5
-1.705, 3.218e-5
-1.706, 3.297e-5
-1.707, 3.371e-5
-1.708, 3.480e-5
-1.709, 3.574e-5
-1.710, 3.653e-5
-1.711, 3.754e-5
-1.712, 3.867e-5
-1.713, 3.964e-5
-1.714, 4.086e-5
-1.715, 4.213e-5
-1.716, 4.332e-5
-1.717, 4.445e-5
-1.718, 4.587e-5
-1.719, 4.707e-5
-1.720, 4.848e-5
-1.721, 4.986e-5
-1.722, 5.137e-5
-1.723, 5.269e-5
-1.724, 5.439e-5
-1.725, 5.603e-5
-1.726, 5.758e-5
-1.727, 5.946e-5
-1.728, 6.119e-5
-1.729, 6.317e-5
-1.730, 6.503e-5
-1.731, 6.698e-5
-1.732, 6.913e-5
-1.733, 7.126e-5
-1.734, 7.345e-5
-1.735, 7.568e-5
-1.736, 7.802e-5
-1.737, 8.048e-5
-1.738, 8.299e-5
-1.739, 8.568e-5
-1.740, 8.840e-5
-1.741, 9.120e-5
-1.742, 9.410e-5
-1.743, 9.714e-5
-1.744, 1.002e-4
-1.745, 1.034e-4
-1.746, 1.066e-4
-1.747, 1.101e-4
-1.748, 1.135e-4
-1.749, 1.171e-4
-1.750, 1.209e-4
-1.751, 1.247e-4
-1.752, 1.287e-4
-1.753, 1.328e-4
-1.754, 1.371e-4
-1.755, 1.416e-4
-1.756, 1.460e-4
-1.757, 1.506e-4
-1.758, 1.556e-4
-1.759, 1.605e-4
-1.760, 1.658e-4
-1.761, 1.708e-4
-1.762, 1.763e-4
-1.763, 1.819e-4
-1.764, 1.878e-4
-1.765, 1.936e-4
-1.766, 1.998e-4
-1.767, 2.061e-4
-1.768, 2.126e-4
-1.769, 2.193e-4
-1.770, 2.262e-4
-1.771, 2.330e-4
-1.772, 2.404e-4
-1.773, 2.478e-4
-1.774, 2.556e-4
-1.775, 2.636e-4
-1.776, 2.716e-4
-1.777, 2.800e-4
-1.778, 2.885e-4
-1.779, 2.974e-4
-1.780, 3.064e-4
-1.781, 3.156e-4
-1.782, 3.252e-4
-1.783, 3.349e-4
-1.784, 3.450e-4
-1.785, 3.553e-4
-1.786, 3.659e-4
-1.787, 3.767e-4
-1.788, 3.879e-4
-1.789, 3.991e-4
-1.790, 4.104e-4
-1.791, 4.221e-4
-1.792, 4.342e-4
-1.793, 4.466e-4
-1.794, 4.596e-4
-1.795, 4.727e-4
-1.796, 4.858e-4
-1.797, 4.994e-4
-1.798, 5.133e-4
-1.799, 5.278e-4
-1.800, 5.425e-4
-1.801, 5.572e-4
-1.802, 5.726e-4
-1.803, 5.881e-4
-1.804, 6.037e-4
-1.805, 6.196e-4
-1.806, 6.362e-4
-1.807, 6.531e-4
-1.808, 6.703e-4
-1.809, 6.880e-4
-1.810, 7.061e-4
-1.811, 7.244e-4
-1.812, 7.433e-4
-1.813, 7.623e-4
-1.814, 7.819e-4
-1.815, 8.016e-4
-1.816, 8.219e-4
-1.817, 8.429e-4
-1.818, 8.638e-4
-1.819, 8.850e-4
-1.820, 9.068e-4
-1.821, 9.288e-4
-1.822, 9.510e-4
-1.823, 9.743e-4
-1.824, 9.974e-4
-1.825, 1.021e-3
-1.826, 1.044e-3
-1.827, 1.069e-3
-1.828, 1.094e-3
-1.829, 1.119e-3
-1.830, 1.144e-3
-1.831, 1.170e-3
-1.832, 1.196e-3
-1.833, 1.222e-3
-1.834, 1.249e-3
-1.835, 1.276e-3
-1.836, 1.304e-3
-1.837, 1.332e-3
-1.838, 1.361e-3
-1.839, 1.391e-3
-1.840, 1.420e-3
-1.841, 1.449e-3
-1.842, 1.480e-3
-1.843, 1.511e-3
-1.844, 1.541e-3
-1.845, 1.572e-3
-1.846, 1.604e-3
-1.847, 1.637e-3
-1.848, 1.670e-3
-1.849, 1.703e-3
-1.850, 1.736e-3
-1.851, 1.770e-3
-1.852, 1.804e-3
-1.853, 1.838e-3
-1.854, 1.873e-3
-1.855, 1.908e-3
-1.856, 1.944e-3
-1.857, 1.980e-3
-1.858, 2.016e-3
-1.859, 2.052e-3
-1.860, 2.089e-3
-1.861, 2.126e-3
-1.862, 2.164e-3
-1.863, 2.202e-3
-1.864, 2.240e-3
-1.865, 2.278e-3
-1.866, 2.317e-3
-1.867, 2.356e-3
-1.868, 2.396e-3
-1.869, 2.436e-3
-1.870, 2.476e-3
-1.871, 2.517e-3
-1.872, 2.557e-3
-1.873, 2.599e-3
-1.874, 2.641e-3
-1.875, 2.682e-3
-1.876, 2.724e-3
-1.877, 2.766e-3
-1.878, 2.808e-3
-1.879, 2.851e-3
-1.880, 2.894e-3
-1.881, 2.937e-3
-1.882, 2.981e-3
-1.883, 3.025e-3
-1.884, 3.069e-3
-1.885, 3.114e-3
-1.886, 3.158e-3
-1.887, 3.204e-3
-1.888, 3.249e-3
-1.889, 3.295e-3
-1.890, 3.341e-3
-1.891, 3.386e-3
-1.892, 3.432e-3
-1.893, 3.479e-3
-1.894, 3.526e-3
-1.895, 3.572e-3
-1.896, 3.619e-3
-1.897, 3.667e-3
-1.898, 3.714e-3
-1.899, 3.762e-3
-1.900, 3.779e-3
-1.899, 3.758e-3
-1.898, 3.735e-3
-1.897, 3.711e-3
-1.896, 3.686e-3
-1.895, 3.660e-3
-1.894, 3.634e-3
-1.893, 3.607e-3
-1.892, 3.579e-3
-1.891, 3.552e-3
-1.890, 3.524e-3
-1.889, 3.496e-3
-1.888, 3.467e-3
-1.887, 3.439e-3
-1.886, 3.410e-3
-1.885, 3.382e-3
-1.884, 3.353e-3
-1.883, 3.324e-3
-1.882, 3.295e-3
-1.881, 3.266e-3
-1.880, 3.237e-3
-1.879, 3.207e-3
-1.878, 3.178e-3
-1.877, 3.148e-3
-1.876, 3.119e-3
-1.875, 3.090e-3
-1.874, 3.060e-3
-1.873, 3.031e-3
-1.872, 3.002e-3
-1.871, 2.974e-3
-1.870, 2.945e-3
-1.869, 2.915e-3
-1.868, 2.887e-3
-1.867, 2.858e-3
-1.866, 2.830e-3
-1.865, 2.801e-3
-1.864, 2.774e-3
-1.863, 2.746e-3
-1.862, 2.717e-3
-1.861, 2.689e-3
-1.860, 2.661e-3
-1.859, 2.633e-3
-1.858, 2.606e-3
-1.857, 2.578e-3
-1.856, 2.550e-3
-1.855, 2.522e-3
-1.854, 2.495e-3
-1.853, 2.468e-3
-1.852, 2.440e-3
-1.851, 2.413e-3
-1.850, 2.386e-3
-1.849, 2.359e-3
-1.848, 2.333e-3
-1.847, 2.306e-3
-1.846, 2.280e-3
-1.845, 2.254e-3
-1.844, 2.228e-3
-1.843, 2.202e-3
-1.842, 2.176e-3
-1.841, 2.151e-3
-1.840, 2.126e-3
-1.839, 2.100e-3
-1.838, 2.075e-3
-1.837, 2.050e-3
-1.836, 2.025e-3
-1.835, 2.001e-3
-1.834, 1.977e-3
-1.833, 1.953e-3
-1.832, 1.928e-3
-1.831, 1.905e-3
-1.830, 1.881e-3
-1.829, 1.858e-3
-1.828, 1.834e-3
-1.827, 1.811e-3
-1.826, 1.788e-3
-1.825, 1.765e-3
-1.824, 1.742e-3
-1.823, 1.720e-3
-1.822, 1.697e-3
-1.821, 1.676e-3
-1.820, 1.653e-3
-1.819, 1.631e-3
-1.818, 1.610e-3
-1.817, 1.587e-3
-1.816, 1.566e-3
-1.815, 1.545e-3
-1.814, 1.524e-3
-1.813, 1.503e-3
-1.812, 1.483e-3
-1.811, 1.462e-3
-1.810, 1.442e-3
-1.809, 1.422e-3
-1.808, 1.403e-3
-1.807, 1.383e-3
-1.806, 1.364e-3
-1.805, 1.344e-3
-1.804, 1.325e-3
-1.803, 1.306e-3
-1.802, 1.287e-3
-1.801, 1.269e-3
-1.800, 1.250e-3
-1.799, 1.232e-3
-1.798, 1.215e-3
-1.797, 1.198e-3
-1.796, 1.181e-3
-1.795, 1.163e-3
-1.794, 1.146e-3
-1.793, 1.129e-3
-1.792, 1.111e-3
-1.791, 1.095e-3
-1.790, 1.078e-3
-1.789, 1.061e-3
-1.788, 1.045e-3
-1.787, 1.029e-3
-1.786, 1.013e-3
-1.785, 9.977e-4
-1.784, 9.823e-4
-1.783, 9.669e-4
-1.782, 9.518e-4
-1.781, 9.368e-4
-1.780, 9.219e-4
-1.779, 9.072e-4
-1.778, 8.928e-4
-1.777, 8.785e-4
-1.776, 8.643e-4
-1.775, 8.504e-4
-1.774, 8.365e-4
-1.773, 8.225e-4
-1.772, 8.086e-4
-1.771, 7.952e-4
-1.770, 7.821e-4
-1.769, 7.688e-4
-1.768, 7.559e-4
-1.767, 7.431e-4
-1.766, 7.308e-4
-1.765, 7.183e-4
-1.764, 7.062e-4
-1.763, 6.939e-4
-1.762, 6.820e-4
-1.761, 6.704e-4
-1.760, 6.586e-4
-1.759, 6.469e-4
-1.758, 6.356e-4
-1.757, 6.245e-4
-1.756, 6.137e-4
-1.755, 6.031e-4
-1.754, 5.925e-4
-1.753, 5.819e-4
-1.752, 5.715e-4
-1.751, 5.612e-4
-1.750, 5.509e-4
-1.749, 5.409e-4
-1.748, 5.311e-4
-1.747, 5.211e-4
-1.746, 5.116e-4
-1.745, 5.020e-4
-1.744, 4.928e-4
-1.743, 4.839e-4
-1.742, 4.748e-4
-1.741, 4.659e-4
-1.740, 4.572e-4
-1.739, 4.485e-4
-1.738, 4.400e-4
-1.737, 4.316e-4
-1.736, 4.234e-4
-1.735, 4.154e-4
-1.734, 4.073e-4
-1.733, 3.996e-4
-1.732, 3.919e-4
-1.731, 3.843e-4
-1.730, 3.768e-4
-1.729, 3.692e-4
-1.728, 3.618e-4
-1.727, 3.545e-4
-1.726, 3.473e-4
-1.725, 3.404e-4
-1.724, 3.337e-4
-1.723, 3.269e-4
-1.722, 3.204e-4
-1.721, 3.138e-4
-1.720, 3.074e-4
-1.719, 3.009e-4
-1.718, 2.948e-4
-1.717, 2.886e-4
-1.716, 2.828e-4
-1.715, 2.768e-4
-1.714, 2.711e-4
-1.713, 2.653e-4
-1.712, 2.597e-4
-1.711, 2.542e-4
-1.710, 2.488e-4
-1.709, 2.436e-4
-1.708, 2.384e-4
-1.707, 2.333e-4
-1.706, 2.285e-4
-1.705, 2.236e-4
-1.704, 2.187e-4
-1.703, 2.141e-4
-1.702, 2.094e-4
-1.701, 2.048e-4
-1.700, 2.004e-4
-1.699, 1.960e-4
-1.698, 1.916e-4
-1.697, 1.874e-4
-1.696, 1.831e-4
-1.695, 1.790e-4
-1.694, 1.750e-4
-1.693, 1.711e-4
-1.692, 1.672e-4
-1.691, 1.635e-4
-1.690, 1.596e-4
-1.689, 1.559e-4
-1.688, 1.523e-4
-1.687, 1.488e-4
-1.686, 1.453e-4
-1.685, 1.420e-4
-1.684, 1.387e-4
-1.683, 1.354e-4
-1.682, 1.323e-4
-1.681, 1.292e-4
-1.680, 1.261e-4
-1.679, 1.233e-4
-1.678, 1.202e-4
-1.677, 1.174e-4
-1.676, 1.146e-4
-1.675, 1.118e-4
-1.674, 1.090e-4
-1.673, 1.065e-4
-1.672, 1.041e-4
-1.671, 1.016e-4
-1.670, 9.916e-5
-1.669, 9.677e-5
-1.668, 9.447e-5
-1.667, 9.201e-5
-1.666, 8.992e-5
-1.665, 8.766e-5
-1.664, 8.538e-5
-1.663, 8.326e-5
-1.662, 8.125e-5
-1.661, 7.922e-5
-1.660, 7.723e-5
-1.659, 7.525e-5
-1.658, 7.337e-5
-1.657, 7.152e-5
-1.656, 6.986e-5
-1.655, 6.810e-5
-1.654, 6.641e-5
-1.653, 6.466e-5
-1.652, 6.310e-5
-1.651, 6.141e-5
-1.650, 5.987e-5
-1.649, 5.833e-5
-1.648, 5.675e-5
-1.647, 5.544e-5
-1.646, 5.410e-5
-1.645, 5.253e-5
-1.644, 5.123e-5
-1.643, 4.988e-5
-1.642, 4.869e-5
-1.641, 4.752e-5
-1.640, 4.621e-5
-1.639, 4.490e-5
-1.638, 4.358e-5
-1.637, 4.266e-5
-1.636, 4.144e-5
-1.635, 4.033e-5
-1.634, 3.926e-5
-1.633, 3.818e-5
-1.632, 3.734e-5
-1.631, 3.624e-5
-1.630, 3.516e-5
-1.629, 3.426e-5
-1.628, 3.344e-5
-1.627, 3.261e-5
-1.626, 3.163e-5
-1.625, 3.086e-5
-1.624, 2.992e-5
-1.623, 2.919e-5
-1.622, 2.835e-5
-1.621, 2.771e-5
-1.620, 2.692e-5
-1.619, 2.612e-5
-1.618, 2.540e-5
-1.617, 2.487e-5
-1.616, 2.424e-5
-1.615, 2.359e-5
-1.614, 2.289e-5
-1.613, 2.219e-5
-1.612, 2.157e-5
-1.611, 2.114e-5
-1.610, 2.048e-5
-1.609, 1.996e-5
-1.608, 1.938e-5
-1.607, 1.889e-5
-1.606, 1.858e-5
-1.605, 1.783e-5
-1.604, 1.744e-5
-1.603, 1.693e-5
-1.602, 1.648e-5
-1.601, 1.616e-5
-1.600, 1.561e-5
-1.599, 1.530e-5
-1.598, 1.469e-5
-1.597, 1.446e-5
-1.596, 1.416e-5
-1.595, 1.352e-5
-1.594, 1.313e-5
-1.593, 1.289e-5
-1.592, 1.253e-5
-1.591, 1.229e-5
-1.590, 1.197e-5
-1.589, 1.162e-5
-1.588, 1.116e-5
-1.587, 1.090e-5
-1.586, 1.068e-5
-1.585, 1.027e-5
-1.584, 1.001e-5
-1.583, 9.716e-6
-1.582, 9.617e-6
-1.581, 9.390e-6
-1.580, 9.144e-6
-1.579, 8.720e-6
-1.578, 8.720e-6
-1.577, 8.335e-6
-1.576, 8.167e-6
-1.575, 7.989e-6
-1.574, 7.624e-6
-1.573, 7.555e-6
-1.572, 7.279e-6
-1.571, 7.121e-6
-1.570, 7.013e-6
-1.569, 6.845e-6
-1.568, 6.480e-6
-1.567, 6.391e-6
-1.566, 6.125e-6
-1.565, 6.115e-6
-1.564, 5.858e-6
-1.563, 5.651e-6
-1.562, 5.493e-6
-1.561, 5.336e-6
-1.560, 5.365e-6
-1.559, 5.059e-6
-1.558, 4.862e-6
-1.557, 4.822e-6
-1.556, 4.744e-6
-1.555, 4.625e-6
-1.554, 4.428e-6
-1.553, 4.181e-6
-1.552, 4.191e-6
-1.551, 4.083e-6
-1.550, 4.053e-6
-1.549, 3.964e-6
-1.548, 3.717e-6
-1.547, 3.678e-6
-1.546, 3.589e-6
-1.545, 3.540e-6
-1.544, 3.402e-6
-1.543, 3.264e-6
-1.542, 3.165e-6
-1.541, 3.155e-6
-1.540, 3.047e-6
-1.539, 2.987e-6
-1.538, 2.908e-6
-1.537, 2.790e-6
-1.536, 2.780e-6
-1.535, 2.642e-6
-1.534, 2.524e-6
-1.533, 2.346e-6
-1.532, 2.376e-6
-1.531, 2.395e-6
-1.530, 2.257e-6
-1.529, 2.159e-6
-1.528, 2.070e-6
-1.527, 2.159e-6
-1.526, 2.040e-6
-1.525, 2.129e-6
-1.524, 1.833e-6
-1.523, 1.813e-6
-1.522, 1.823e-6
-1.521, 1.665e-6
-1.520, 1.636e-6
-1.519, 1.547e-6
-1.518, 1.577e-6
-1.517, 1.596e-6
-1.516, 1.527e-6
-1.515, 1.458e-6
-1.514, 1.310e-6
-1.513, 1.399e-6
-1.512, 1.468e-6
-1.511, 1.290e-6
-1.510, 1.152e-6
-1.509, 1.093e-6
-1.508, 1.073e-6
-1.507, 1.073e-6
-1.506, 1.054e-6
-1.505, 1.073e-6
-1.504, 9.156e-7
-1.503, 9.156e-7
-1.502, 9.846e-7
-1.501, 9.945e-7
-1.500, 8.070e-7
-1.499, 9.353e-7
-1.498, 7.182e-7
-1.497, 6.590e-7
-1.496, 7.577e-7
-1.495, 7.972e-7
-1.494, 7.084e-7
-1.493, 6.788e-7
-1.492, 6.294e-7
-1.491, 4.716e-7
-1.490, 6.393e-7
-1.489, 4.815e-7
-1.488, 5.604e-7
-1.487, 5.111e-7
-1.486, 4.913e-7
-1.485, 4.519e-7
-1.484, 2.545e-7
-1.483, 3.927e-7
-1.482, 4.420e-7
-1.481, 2.447e-7
-1.480, 2.743e-7
-1.479, 1.559e-7
-1.478, 2.052e-7
-1.477, 3.137e-7
-1.476, 1.657e-7
-1.475, 3.433e-7
-1.474, 3.137e-7
-1.473, 1.263e-7
-1.472, 7.695e-8
-1.471, 2.447e-7
-1.470, 1.559e-7
-1.469, -2.171e-8
-1.468, 7.695e-8
-1.467, 6.709e-8
-1.466, 5.722e-8
-1.465, 1.776e-8
-1.464, 1.263e-7
-1.463, 1.776e-8
-1.462, 8.682e-8
-1.461, 1.164e-7
-1.460, -1.204e-7
-1.459, -1.697e-7
-1.458, -1.204e-7
-1.457, -1.500e-7
-1.456, -1.204e-7
-1.455, -1.401e-7
-1.454, -1.302e-7
-1.453, -2.190e-7
-1.452, -2.388e-7
-1.451, -1.598e-7
-1.450, -1.401e-7
-1.449, -1.894e-7
-1.448, -1.796e-7
-1.447, -1.598e-7
-1.446, -2.190e-7
-1.445, -1.993e-7
-1.444, -2.486e-7
-1.443, -1.796e-7
-1.442, -2.782e-7
-1.441, -3.078e-7
-1.440, -2.684e-7
-1.439, -2.684e-7
-1.438, -3.275e-7
-1.437, -2.980e-7
-1.436, -2.388e-7
-1.435, -4.065e-7
-1.434, -3.571e-7
-1.433, -5.051e-7
-1.432, -3.966e-7
-1.431, -3.867e-7
-1.430, -3.473e-7
-1.429, -5.841e-7
-1.428, -4.657e-7
-1.427, -4.558e-7
-1.426, -5.249e-7
-1.425, -5.249e-7
-1.424, -5.150e-7
-1.423, -5.446e-7
-1.422, -3.966e-7
-1.421, -5.742e-7
-1.420, -5.446e-7
-1.419, -5.446e-7
-1.418, -5.545e-7
-1.417, -5.545e-7
-1.416, -6.038e-7
-1.415, -5.545e-7
-1.414, -6.235e-7
-1.413, -5.446e-7
-1.412, -5.249e-7
-1.411, -5.150e-7
-1.410, -5.249e-7
-1.409, -5.939e-7
-1.408, -7.321e-7
-1.407, -6.433e-7
-1.406, -7.222e-7
-1.405, -6.137e-7
-1.404, -6.926e-7
-1.403, -6.334e-7
-1.402, -5.643e-7
-1.401, -6.827e-7
-1.400, -7.123e-7
-1.399, -6.137e-7
-1.398, -5.841e-7
-1.397, -6.433e-7
-1.396, -5.643e-7
-1.395, -6.729e-7
-1.394, -5.446e-7
-1.393, -7.715e-7
-1.392, -6.827e-7
-1.391, -6.235e-7
-1.390, -6.038e-7
-1.389, -6.137e-7
-1.388, -7.912e-7
-1.387, -7.025e-7
-1.386, -6.729e-7
-1.385, -6.235e-7
-1.384, -7.419e-7
-1.383, -7.123e-7
-1.382, -8.011e-7
-1.381, -6.334e-7
-1.380, -7.222e-7
-1.379, -7.321e-7
-1.378, -7.912e-7
-1.377, -7.715e-7
-1.376, -7.912e-7
-1.375, -8.307e-7
-1.374, -7.617e-7
-1.373, -7.518e-7
-1.372, -7.814e-7
-1.371, -7.617e-7
-1.370, -8.800e-7
-1.369, -8.406e-7
-1.368, -8.406e-7
-1.367, -8.110e-7
-1.366, -7.912e-7
-1.365, -8.208e-7
-1.364, -7.025e-7
-1.363, -7.715e-7
-1.362, -8.702e-7
-1.361, -7.912e-7
-1.360, -7.025e-7
-1.359, -7.222e-7
-1.358, -8.307e-7
-1.357, -8.504e-7
-1.356, -8.603e-7
-1.355, -8.603e-7
-1.354, -9.491e-7
-1.353, -9.590e-7
-1.352, -8.208e-7
-1.351, -8.011e-7
-1.350, -8.011e-7
-1.349, -8.406e-7
-1.348, -8.800e-7
-1.347, -8.011e-7
-1.346, -7.715e-7
-1.345, -9.294e-7
-1.344, -9.096e-7
-1.343, -9.491e-7
-1.342, -8.208e-7
-1.341, -8.800e-7
-1.340, -8.603e-7
-1.339, -8.702e-7
-1.338, -9.491e-7
-1.337, -9.688e-7
-1.336, -9.294e-7
-1.335, -9.491e-7
-1.334, -8.208e-7
-1.333, -9.294e-7
-1.332, -8.110e-7
-1.331, -9.984e-7
-1.330, -9.294e-7
-1.329, -9.392e-7
-1.328, -1.008e-6
-1.327, -8.208e-7
-1.326, -8.899e-7
-1.325, -9.392e-7
-1.324, -9.590e-7
-1.323, -9.590e-7
-1.322, -9.491e-7
-1.321, -8.702e-7
-1.320, -9.984e-7
-1.319, -8.998e-7
-1.318, -1.067e-6
-1.317, -1.038e-6
-1.316, -8.307e-7
-1.315, -8.504e-7
-1.314, -1.038e-6
-1.313, -1.077e-6
-1.312, -1.038e-6
-1.311, -9.096e-7
-1.310, -1.018e-6
-1.309, -1.067e-6
-1.308, -1.018e-6
-1.307, -9.688e-7
-1.306, -1.067e-6
-1.305, -9.787e-7
-1.304, -1.008e-6
-1.303, -1.028e-6
-1.302, -1.097e-6
-1.301, -1.028e-6
-1.300, -1.038e-6
-1.299, -1.156e-6
-1.298, -9.590e-7
-1.297, -9.886e-7
-1.296, -1.018e-6
-1.295, -9.984e-7
-1.294, -1.038e-6
-1.293, -1.048e-6
-1.292, -1.087e-6
-1.291, -1.087e-6
-1.290, -1.028e-6
-1.289, -1.008e-6
-1.288, -9.886e-7
-1.287, -1.028e-6
-1.286, -9.886e-7
-1.285, -1.058e-6
-1.284, -9.984e-7
-1.283, -1.225e-6
-1.282, -9.984e-7
-1.281, -1.038e-6
-1.280, -1.127e-6
-1.279, -1.176e-6
-1.278, -1.087e-6
-1.277, -1.038e-6
-1.276, -1.058e-6
-1.275, -9.984e-7
-1.274, -1.048e-6
-1.273, -1.087e-6
-1.272, -1.107e-6
-1.271, -1.018e-6
-1.270, -1.048e-6
-1.269, -1.156e-6
-1.268, -1.235e-6
-1.267, -1.176e-6
-1.266, -1.048e-6
-1.265, -1.018e-6
-1.264, -1.156e-6
-1.263, -1.097e-6
-1.262, -1.077e-6
-1.261, -1.087e-6
-1.260, -1.087e-6
-1.259, -1.146e-6
-1.258, -1.038e-6
-1.257, -1.018e-6
-1.256, -1.137e-6
-1.255, -1.077e-6
-1.254, -1.146e-6
-1.253, -1.137e-6
-1.252, -1.117e-6
-1.251, -1.127e-6
-1.250, -1.117e-6
-1.249, -1.146e-6
-1.248, -1.176e-6
-1.247, -1.077e-6
-1.246, -1.117e-6
-1.245, -1.038e-6
-1.244, -1.166e-6
-1.243, -1.196e-6
-1.242, -1.038e-6
-1.241, -1.087e-6
-1.240, -1.117e-6
-1.239, -1.137e-6
-1.238, -1.285e-6
-1.237, -1.156e-6
-1.236, -1.008e-6
-1.235, -1.077e-6
-1.234, -1.176e-6
-1.233, -1.097e-6
-1.232, -1.117e-6
-1.231, -1.107e-6
-1.230, -1.196e-6
-1.229, -1.314e-6
-1.228, -1.344e-6
-1.227, -1.255e-6
-1.226, -1.117e-6
-1.225, -1.215e-6
-1.224, -1.186e-6
-1.223, -1.156e-6
-1.222, -1.077e-6
-1.221, -1.137e-6
-1.220, -1.107e-6
-1.219, -1.166e-6
-1.218, -1.255e-6
-1.217, -1.087e-6
-1.216, -1.186e-6
-1.215, -1.255e-6
-1.214, -1.275e-6
-1.213, -1.344e-6
-1.212, -1.215e-6
-1.211, -1.146e-6
-1.210, -1.304e-6
-1.209, -1.127e-6
-1.208, -1.314e-6
-1.207, -1.206e-6
-1.206, -1.215e-6
-1.205, -1.225e-6
-1.204, -1.275e-6
-1.203, -1.314e-6
-1.202, -1.156e-6
-1.201, -1.206e-6
-1.200, -1.127e-6
-1.199, -1.285e-6
-1.198, -1.314e-6
-1.197, -1.245e-6
-1.196, -1.294e-6
-1.195, -1.206e-6
-1.194, -1.186e-6
-1.193, -1.413e-6
-1.192, -1.196e-6
-1.191, -1.235e-6
-1.190, -1.482e-6
-1.189, -1.324e-6
-1.188, -1.354e-6
-1.187, -1.265e-6
-1.186, -1.235e-6
-1.185, -1.255e-6
-1.184, -1.285e-6
-1.183, -1.255e-6
-1.182, -1.314e-6
-1.181, -1.245e-6
-1.180, -1.294e-6
-1.179, -1.334e-6
-1.178, -1.294e-6
-1.177, -1.275e-6
-1.176, -1.275e-6
-1.175, -1.225e-6
-1.174, -1.354e-6
-1.173, -1.373e-6
-1.172, -1.344e-6
-1.171, -1.452e-6
-1.170, -1.354e-6
-1.169, -1.314e-6
-1.168, -1.373e-6
-1.167, -1.285e-6
-1.166, -1.285e-6
-1.165, -1.423e-6
-1.164, -1.275e-6
-1.163, -1.502e-6
-1.162, -1.383e-6
-1.161, -1.344e-6
-1.160, -1.433e-6
-1.159, -1.314e-6
-1.158, -1.373e-6
-1.157, -1.304e-6
-1.156, -1.363e-6
-1.155, -1.373e-6
-1.154, -1.423e-6
-1.153, -1.373e-6
-1.152, -1.492e-6
-1.151, -1.393e-6
-1.150, -1.462e-6
-1.149, -1.393e-6
-1.148, -1.423e-6
-1.147, -1.452e-6
-1.146, -1.393e-6
-1.145, -1.393e-6
-1.144, -1.363e-6
-1.143, -1.344e-6
-1.142, -1.265e-6
-1.141, -1.235e-6
-1.140, -1.541e-6
-1.139, -1.472e-6
-1.138, -1.433e-6
-1.137, -1.502e-6
-1.136, -1.433e-6
-1.135, -1.373e-6
-1.134, -1.354e-6
-1.133, -1.452e-6
-1.132, -1.393e-6
-1.131, -1.403e-6
-1.130, -1.462e-6
-1.129, -1.472e-6
-1.128, -1.581e-6
-1.127, -1.413e-6
-1.126, -1.571e-6
-1.125, -1.482e-6
-1.124, -1.403e-6
-1.123, -1.492e-6
-1.122, -1.403e-6
-1.121, -1.502e-6
-1.120, -1.551e-6
-1.119, -1.630e-6
-1.118, -1.492e-6
-1.117, -1.423e-6
-1.116, -1.472e-6
-1.115, -1.600e-6
-1.114, -1.699e-6
-1.113, -1.630e-6
-1.112, -1.531e-6
-1.111, -1.462e-6
-1.110, -1.511e-6
-1.109, -1.541e-6
-1.108, -1.748e-6
-1.107, -1.551e-6
-1.106, -1.590e-6
-1.105, -1.590e-6
-1.104, -1.650e-6
-1.103, -1.551e-6
-1.102, -1.452e-6
-1.101, -1.590e-6
-1.100, -1.630e-6
-1.099, -1.719e-6
-1.098, -1.659e-6
-1.097, -1.581e-6
-1.096, -1.620e-6
-1.095, -1.600e-6
-1.094, -1.581e-6
-1.093, -1.699e-6
-1.092, -1.581e-6
-1.091, -1.561e-6
-1.090, -1.630e-6
-1.089, -1.571e-6
-1.088, -1.788e-6
-1.087, -1.650e-6
-1.086, -1.778e-6
-1.085, -1.669e-6
-1.084, -1.768e-6
-1.083, -1.669e-6
-1.082, -1.630e-6
-1.081, -1.689e-6
-1.080, -1.758e-6
-1.079, -1.719e-6
-1.078, -1.669e-6
-1.077, -1.630e-6
-1.076, -1.847e-6
-1.075, -1.975e-6
-1.074, -1.857e-6
-1.073, -1.867e-6
-1.072, -1.847e-6
-1.071, -1.827e-6
-1.070, -1.798e-6
-1.069, -1.719e-6
-1.068, -1.896e-6
-1.067, -1.768e-6
-1.066, -1.768e-6
-1.065, -1.827e-6
-1.064, -1.758e-6
-1.063, -1.807e-6
-1.062, -1.748e-6
-1.061, -1.729e-6
-1.060, -1.758e-6
-1.059, -1.857e-6
-1.058, -1.896e-6
-1.057, -1.827e-6
-1.056, -1.886e-6
-1.055, -1.946e-6
-1.054, -1.926e-6
-1.053, -1.936e-6
-1.052, -1.827e-6
-1.051, -1.877e-6
-1.050, -1.857e-6
-1.049, -1.985e-6
-1.048, -1.936e-6
-1.047, -1.877e-6
-1.046, -1.936e-6
-1.045, -1.896e-6
-1.044, -2.015e-6
-1.043, -1.995e-6
-1.042, -1.936e-6
-1.041, -1.926e-6
-1.040, -1.995e-6
-1.039, -1.995e-6
-1.038, -1.985e-6
-1.037, -1.936e-6
-1.036, -2.094e-6
-1.035, -1.975e-6
-1.034, -2.163e-6
-1.033, -2.192e-6
-1.032, -1.936e-6
-1.031, -1.975e-6
-1.030, -2.103e-6
-1.029, -1.985e-6
-1.028, -2.064e-6
-1.027, -2.044e-6
-1.026, -2.123e-6
-1.025, -2.133e-6
-1.024, -2.153e-6
-1.023, -2.232e-6
-1.022, -2.064e-6
-1.021, -2.113e-6
-1.020, -2.143e-6
-1.019, -2.163e-6
-1.018, -2.251e-6
-1.017, -2.163e-6
-1.016, -2.242e-6
-1.015, -2.212e-6
-1.014, -2.291e-6
-1.013, -2.212e-6
-1.012, -2.212e-6
-1.011, -2.212e-6
-1.010, -2.242e-6
-1.009, -2.291e-6
-1.008, -2.251e-6
-1.007, -2.281e-6
-1.006, -2.192e-6
-1.005, -2.301e-6
-1.004, -2.330e-6
-1.003, -2.291e-6
-1.002, -2.182e-6
-1.001, -2.291e-6
