Potential V vs RHE, Current mA cm-2
0.013299999999999867,-0.6564260431373771
0.012299999999999978,-2.226755585987568
0.011299999999999866,-3.447651437771094
0.010299999999999976,-4.494537799671222
0.009299999999999864,-5.411270721983764
0.008299999999999974,-6.196435493408861
0.007299999999999862,-6.981600264833956
0.006299999999999972,-7.635196885371603
0.00529999999999986,-8.288793505909249
0.0042999999999999705,-8.987660888042578
0.0032999999999998586,-9.641257508580225
0.0022999999999999687,-10.208556739826104
0.0012999999999998568,-10.863568071663616
0.00029999999999996696,-11.343155202317865
-0.000700000000000145,-11.82274233297211
-0.0017000000000000348,-12.170761312738911
-0.0027000000000001467,-12.476338953509758
-0.0037000000000000366,-12.73806054398479
-0.0047000000000001485,-12.955926084164007
-0.005700000000000038,-13.175206335643086
-0.00670000000000015,-13.436927926118118
-0.00770000000000004,-13.654793466297335
-0.008700000000000152,-13.916515056772363
-0.009700000000000042,-14.217848563643619
-0.010700000000000154,-14.529085049613924
-0.011700000000000044,-14.868615761581536
-0.012700000000000156,-15.094969569559943
-0.013700000000000045,-15.307176264539699
-0.014700000000000157,-15.491088733522153
-0.015700000000000047,-15.618412750510005
-0.01670000000000016,-15.660854089505953
-0.01770000000000005,-15.70329542850191
-0.01870000000000016,-15.660854089505953
-0.01970000000000005,-15.74573676749786
-0.020700000000000163,-15.78817810649381
-0.021700000000000053,-15.972090575476265
-0.022700000000000164,-16.099414592464115
-0.023700000000000054,-16.269179948447924
-0.024700000000000166,-16.438945304431726
-0.025700000000000056,-16.665299112410132
-0.026700000000000168,-16.750181790402035
-0.027700000000000058,-16.835064468393938
-0.02870000000000017,-16.835064468393938
-0.02970000000000006,-16.835064468393938
-0.03070000000000017,-16.792623129397985
-0.03170000000000006,-16.750181790402035
-0.03270000000000017,-16.70774045140608
-0.03370000000000006,-16.70774045140608
-0.034700000000000175,-16.792623129397985
-0.035700000000000065,-16.919947146385837
-0.03670000000000018,-17.061418276372343
-0.03770000000000007,-17.146300954364243
-0.03870000000000018,-17.316066310348052
-0.03970000000000007,-17.40094898833995
-0.04070000000000018,-17.48583166633185
-0.04170000000000007,-17.542420118326454
-0.04270000000000018,-17.48583166633185
-0.04370000000000007,-17.4433903273359
-0.044700000000000184,-17.358507649344002
-0.045700000000000074,-17.316066310348052
-0.046700000000000186,-17.316066310348052
-0.047700000000000076,-17.2736249713521
-0.04870000000000019,-17.358507649344002
-0.04970000000000008,-17.4433903273359
-0.05070000000000019,-17.542420118326454
-0.05170000000000008,-17.669744135314307
-0.05270000000000019,-17.75462681330621
-0.05370000000000008,-17.839509491298113
-0.05470000000000019,-17.839509491298113
-0.05570000000000008,-17.797068152302163
-0.056700000000000195,-17.75462681330621
-0.057700000000000085,-17.669744135314307
-0.058700000000000196,-17.48583166633185
-0.059700000000000086,-17.48583166633185
-0.0607000000000002,-17.40094898833995
-0.06170000000000009,-17.48583166633185
-0.0627000000000002,-17.542420118326454
-0.06370000000000009,-17.584861457322408
-0.0647000000000002,-17.71218547431026
-0.06570000000000009,-17.797068152302163
-0.0667000000000002,-17.839509491298113
-0.0677000000000001,-17.881950830294063
-0.0687000000000002,-17.881950830294063
-0.0697000000000001,-17.839509491298113
-0.07070000000000021,-17.75462681330621
-0.0717000000000001,-17.669744135314307
-0.07270000000000021,-17.669744135314307
-0.0737000000000001,-17.584861457322408
-0.07470000000000021,-17.669744135314307
-0.0757000000000001,-17.75462681330621
-0.07670000000000021,-17.839509491298113
-0.0777000000000001,-17.924392169290012
-0.07870000000000021,-18.10830463827247
-0.0797000000000001,-18.15074597726842
-0.08070000000000022,-18.27806999425627
-0.0817000000000001,-18.23562865526032
-0.08270000000000022,-18.15074597726842
-0.08370000000000011,-18.10830463827247
-0.08470000000000022,-18.009274847281915
-0.08570000000000011,-17.839509491298113
-0.08670000000000022,-17.839509491298113
-0.08770000000000011,-17.75462681330621
-0.08870000000000022,-17.797068152302163
-0.08970000000000011,-17.839509491298113
-0.09070000000000022,-17.924392169290012
-0.09170000000000011,-18.06586329927652
-0.09270000000000023,-18.10830463827247
-0.09370000000000012,-18.15074597726842
-0.09470000000000023,-18.15074597726842
-0.09570000000000012,-18.10830463827247
-0.09670000000000023,-17.966833508285966
-0.09770000000000012,-17.881950830294063
-0.09870000000000023,-17.75462681330621
-0.09970000000000012,-17.71218547431026
-0.10070000000000023,-17.627302796318357
-0.10170000000000012,-17.71218547431026
-0.10270000000000024,-17.75462681330621
-0.10370000000000013,-17.881950830294063
-0.10470000000000024,-17.966833508285966
-0.10570000000000013,-18.10830463827247
-0.10670000000000024,-18.15074597726842
-0.10770000000000013,-18.23562865526032
-0.10870000000000024,-18.15074597726842
-0.10970000000000013,-18.10830463827247
-0.11070000000000024,-18.009274847281915
-0.11170000000000013,-17.881950830294063
-0.11270000000000002,-17.839509491298113
-0.11370000000000013,-17.839509491298113
-0.11470000000000002,-17.797068152302163
-0.11570000000000014,-17.924392169290012
-0.11670000000000003,-18.009274847281915
-0.11770000000000014,-18.10830463827247
-0.11870000000000003,-18.27806999425627
-0.11970000000000014,-18.320511333252224
-0.12070000000000003,-18.362952672248177
-0.12170000000000014,-18.362952672248177
-0.12270000000000003,-18.27806999425627
-0.12370000000000014,-18.23562865526032
-0.12470000000000003,-18.10830463827247
-0.12570000000000014,-18.009274847281915
-0.12670000000000003,-18.009274847281915
-0.12770000000000015,-17.924392169290012
-0.12870000000000004,-17.966833508285966
-0.12970000000000015,-18.06586329927652
-0.13070000000000004,-18.15074597726842
-0.13170000000000015,-18.27806999425627
-0.13270000000000004,-18.362952672248177
-0.13370000000000015,-18.40539401124413
-0.13470000000000004,-18.40539401124413
-0.13570000000000015,-18.40539401124413
-0.13670000000000004,-18.320511333252224
-0.13770000000000016,-18.27806999425627
-0.13870000000000005,-18.15074597726842
-0.13970000000000016,-18.15074597726842
-0.14070000000000005,-18.06586329927652
-0.14170000000000016,-18.10830463827247
-0.14270000000000005,-18.15074597726842
-0.14370000000000016,-18.23562865526032
-0.14470000000000005,-18.320511333252224
-0.14570000000000016,-18.362952672248177
-0.14670000000000005,-18.362952672248177
-0.14770000000000016,-18.40539401124413
-0.14870000000000005,-18.362952672248177
-0.14970000000000017,-18.27806999425627
-0.15070000000000006,-18.19318731626437
-0.15170000000000017,-18.10830463827247
-0.15270000000000006,-18.06586329927652
-0.15370000000000017,-18.009274847281915
-0.15470000000000006,-18.009274847281915
-0.15570000000000017,-18.10830463827247
-0.15670000000000006,-18.15074597726842
-0.15770000000000017,-18.27806999425627
-0.15870000000000006,-18.44783535024008
-0.15970000000000018,-18.49027668923603
-0.16070000000000007,-18.589306480226583
-0.16170000000000018,-18.589306480226583
-0.16270000000000007,-18.49027668923603
-0.16370000000000018,-18.49027668923603
-0.16470000000000007,-18.40539401124413
-0.16570000000000018,-18.362952672248177
-0.16670000000000007,-18.362952672248177
-0.16770000000000018,-18.362952672248177
-0.16870000000000007,-18.44783535024008
-0.16970000000000018,-18.53271802823198
-0.17070000000000007,-18.674189158218486
-0.17170000000000019,-18.843954514202288
-0.17270000000000008,-18.92883719219419
-0.1737000000000002,-19.056161209182044
-0.17470000000000008,-19.056161209182044
-0.1757000000000002,-19.01371987018609
-0.17670000000000008,-18.97127853119014
-0.1777000000000002,-18.88639585319824
-0.17870000000000008,-18.716630497214435
-0.1797000000000002,-18.674189158218486
-0.18070000000000008,-18.53271802823198
-0.1817000000000002,-18.589306480226583
-0.18270000000000008,-18.631747819222536
-0.1837000000000002,-18.674189158218486
-0.1847000000000001,-18.759071836210385
-0.1857000000000002,-18.843954514202288
-0.1867000000000001,-18.843954514202288
-0.1877000000000002,-18.843954514202288
-0.1887000000000001,-18.80151317520634
-0.1897000000000002,-18.716630497214435
-0.1907000000000001,-18.674189158218486
-0.1917000000000001,-18.53271802823198
-0.19269999999999998,-18.49027668923603
-0.1937000000000001,-18.49027668923603
-0.19469999999999998,-18.53271802823198
-0.1957000000000001,-18.674189158218486
-0.19669999999999999,-18.759071836210385
-0.1977000000000001,-18.88639585319824
-0.1987,-19.056161209182044
-0.1997000000000001,-19.155191000172596
-0.2007,-19.2400736781645
-0.2017000000000001,-19.2400736781645
-0.2027,-19.155191000172596
-0.2037000000000001,-19.112749661176647
-0.2047,-18.97127853119014
-0.2057000000000001,-18.88639585319824
-0.2067,-18.843954514202288
-0.2077000000000001,-18.843954514202288
-0.2087,-18.843954514202288
-0.2097000000000001,-18.92883719219419
-0.2107,-19.01371987018609
-0.2117000000000001,-19.155191000172596
-0.2127,-19.197632339168546
-0.2137000000000001,-19.28251501716045
-0.2147,-19.28251501716045
-0.2157000000000001,-19.28251501716045
-0.2167,-19.2400736781645
-0.21770000000000012,-19.155191000172596
-0.2187,-19.01371987018609
-0.21970000000000012,-19.01371987018609
-0.2207,-18.97127853119014
-0.22170000000000012,-19.056161209182044
-0.2227,-19.112749661176647
-0.22370000000000012,-19.197632339168546
-0.2247,-19.3249563561564
-0.22570000000000012,-19.452280373144255
-0.2267,-19.49472171214021
-0.22770000000000012,-19.537163051136158
-0.22870000000000001,-19.537163051136158
-0.22970000000000013,-19.49472171214021
-0.23070000000000002,-19.452280373144255
-0.23170000000000013,-19.3249563561564
-0.23270000000000002,-19.28251501716045
-0.23370000000000013,-19.2400736781645
-0.23470000000000002,-19.2400736781645
-0.23570000000000013,-19.3249563561564
-0.23670000000000002,-19.409839034148305
-0.2376999999999999,-19.49472171214021
-0.23870000000000002,-19.678634181122664
-0.2396999999999999,-19.763516859114564
-0.24070000000000003,-19.848399537106463
-0.24169999999999991,-19.805958198110513
-0.24270000000000003,-19.763516859114564
-0.24369999999999992,-19.721075520118614
-0.24470000000000003,-19.636192842126707
-0.24569999999999992,-19.537163051136158
-0.24670000000000003,-19.537163051136158
-0.24769999999999992,-19.49472171214021
-0.24870000000000003,-19.537163051136158
-0.24969999999999992,-19.678634181122664
-0.25070000000000003,-19.763516859114564
-0.2516999999999999,-19.93328221509837
-0.25270000000000004,-19.97572355409432
-0.2536999999999999,-20.06060623208622
-0.25470000000000004,-20.06060623208622
-0.2556999999999999,-20.06060623208622
-0.25670000000000004,-19.97572355409432
-0.25769999999999993,-19.890840876102416
-0.25870000000000004,-19.763516859114564
-0.25969999999999993,-19.721075520118614
-0.26070000000000004,-19.678634181122664
-0.26169999999999993,-19.721075520118614
-0.26270000000000004,-19.848399537106463
-0.26369999999999993,-19.890840876102416
-0.26470000000000005,-20.06060623208622
-0.26569999999999994,-20.202077362072725
-0.26670000000000005,-20.286960040064624
-0.26769999999999994,-20.329401379060574
-0.26870000000000005,-20.286960040064624
-0.26969999999999994,-20.244518701068674
-0.27070000000000005,-20.202077362072725
-0.27169999999999994,-20.06060623208622
-0.27270000000000005,-20.06060623208622
-0.27369999999999994,-20.01816489309027
-0.27470000000000006,-20.06060623208622
-0.27569999999999995,-20.202077362072725
-0.27670000000000006,-20.329401379060574
-0.27769999999999995,-20.456725396048434
-0.27870000000000006,-20.626490752032236
-0.27969999999999995,-20.72552054302279
-0.28070000000000006,-20.85284456001064
-0.28169999999999995,-20.810403221014692
-0.28270000000000006,-20.72552054302279
-0.28369999999999995,-20.683079204026836
-0.28470000000000006,-20.584049413036283
-0.28569999999999995,-20.499166735044383
-0.28670000000000007,-20.499166735044383
-0.28769999999999996,-20.456725396048434
-0.28870000000000007,-20.541608074040333
-0.28969999999999996,-20.626490752032236
-0.29070000000000007,-20.72552054302279
-0.29169999999999996,-20.810403221014692
-0.29270000000000007,-20.85284456001064
-0.29369999999999996,-20.89528589900659
-0.2947000000000001,-20.89528589900659
-0.29569999999999996,-20.85284456001064
-0.2967000000000001,-20.810403221014692
-0.29769999999999996,-20.76796188201874
-0.2987000000000001,-20.626490752032236
-0.29969999999999997,-20.683079204026836
-0.3007000000000001,-20.683079204026836
-0.30169999999999997,-20.76796188201874
-0.3027000000000001,-20.89528589900659
-0.30369999999999997,-21.022609915994444
-0.3047000000000001,-21.248963723972853
-0.30569999999999997,-21.418729079956652
-0.3067000000000001,-21.503611757948562
-0.3077,-21.63093577493641
-0.3087000000000001,-21.67337711393236
-0.3097,-21.67337711393236
-0.3107000000000001,-21.63093577493641
-0.3117,-21.58849443594046
-0.3127000000000001,-21.58849443594046
-0.3137,-21.58849443594046
-0.3147000000000001,-21.67337711393236
-0.3157,-21.772406904922917
-0.3167000000000001,-21.857289582914817
-0.3177,-22.027054938898623
-0.3187000000000001,-22.196820294882425
-0.3197,-22.33829142486893
-0.3207000000000001,-22.46561544185678
-0.3217,-22.46561544185678
-0.3227000000000001,-22.46561544185678
-0.3237,-22.46561544185678
-0.3247000000000001,-22.38073276386488
-0.3257,-22.38073276386488
-0.3267000000000001,-22.42317410286083
-0.3277,-22.42317410286083
-0.3287000000000001,-22.550498119848687
-0.3297,-22.72026347583249
-0.3307000000000001,-22.904175944814945
-0.3317,-23.073941300798747
-0.3327000000000001,-23.2012653177866
-0.3337,-23.342736447773106
-0.3347000000000001,-23.47006046476096
-0.3357,-23.47006046476096
-0.3367000000000001,-23.47006046476096
-0.3377,-23.47006046476096
-0.3387000000000001,-23.385177786769056
-0.3397,-23.47006046476096
-0.3407000000000001,-23.47006046476096
-0.3417,-23.597384481748815
-0.3427000000000001,-23.724708498736668
-0.3437,-23.908620967719123
-0.3447000000000001,-24.120827662698876
-0.3457,-24.290593018682678
-0.3467000000000001,-24.474505487665134
-0.3477,-24.559388165657033
-0.3487000000000001,-24.64427084364894
-0.3497,-24.686712182644893
-0.3507000000000001,-24.729153521640843
-0.3517,-24.686712182644893
-0.3527000000000001,-24.729153521640843
-0.3537,-24.814036199632742
-0.3547000000000001,-24.997948668615198
-0.3557,-25.167714024599
-0.35670000000000013,-25.337479380582806
-0.3577,-25.563833188561212
-0.35870000000000013,-25.86092256153287
-0.3597,-26.044835030515326
-0.36070000000000013,-26.257041725495082
-0.3617,-26.34192440348698
-0.3626999999999999,-26.440954194477534
-0.3637,-26.525836872469437
-0.3646999999999999,-26.568278211465387
-0.3657,-26.65316088945729
-0.3666999999999999,-26.738043567449193
-0.3677,-26.86536758443705
-0.3686999999999999,-27.091721392415455
-0.36970000000000003,-27.34636942639116
-0.3706999999999999,-27.615164573365515
-0.37170000000000003,-27.869812607341224
-0.3726999999999999,-28.09616641531963
-0.37370000000000003,-28.308373110299385
-0.3746999999999999,-28.435697127287238
-0.37570000000000003,-28.577168257273744
-0.3766999999999999,-28.662050935265643
-0.37770000000000004,-28.746933613257543
-0.3786999999999999,-28.746933613257543
-0.37970000000000004,-28.8742576302454
-0.3806999999999999,-29.001581647233255
-0.38170000000000004,-29.18549411621571
-0.38269999999999993,-29.482583489187363
-0.38370000000000004,-29.751378636161718
-0.38469999999999993,-30.04846800913338
-0.38570000000000004,-30.317263156107735
-0.38669999999999993,-30.571911190083444
-0.38770000000000004,-30.8407063370578
-0.38869999999999993,-31.010471693041605
-0.38970000000000005,-31.137795710029454
-0.39069999999999994,-31.321708179011907
-0.39170000000000005,-31.36414951800786
-0.39269999999999994,-31.57635621298762
-0.39370000000000005,-31.802710020966025
-0.39469999999999994,-32.05735805494172
-0.39570000000000005,-32.41103587990799
-0.39669999999999994,-32.70812525287965
-0.39770000000000005,-33.06180307784591
-0.39869999999999994,-33.50036358080407
-0.39970000000000006,-33.81160006677438
-0.40069999999999995,-34.10868943974604
-0.40170000000000006,-34.377484586720385
-0.40269999999999995,-34.58969128170015
-0.40370000000000006,-34.8018979766799
-0.40469999999999995,-35.02825178465831
-0.40570000000000006,-35.240458479638065
-0.40669999999999995,-35.50925362661242
-0.40770000000000006,-35.806342999584075
-0.40869999999999995,-36.16002082455034
-0.40970000000000006,-36.55613998851254
-0.41069999999999995,-36.99470049147071
-0.41170000000000007,-37.41911388143023
-0.41269999999999996,-37.77279170639648
-0.41370000000000007,-38.16891087035869
-0.41469999999999996,-38.522588695324956
-0.41570000000000007,-38.777236729300654
-0.41669999999999996,-39.046031876275016
-0.41770000000000007,-39.30067991025072
-0.41869999999999996,-39.47044526623452
-0.4197000000000001,-39.82412309120078
-0.42069999999999996,-40.135359577171094
-0.4217000000000001,-40.51733162813464
-0.42269999999999996,-40.95589213109281
-0.4237000000000001,-41.39445263405098
-0.42469999999999997,-41.87545447600508
-0.4257000000000001,-42.31401497896325
-0.42669999999999997,-42.752575481921404
-0.4277000000000001,-43.134547532884966
-0.42869999999999997,-43.48822535785123
-0.4297000000000001,-43.75702050482558
-0.43069999999999997,-44.054109877797245
-0.4317000000000001,-44.4077877027635
-0.4327,-44.80390686672572
-0.4337000000000001,-45.18587891768927
-0.4347,-45.624439420647434
-0.4357000000000001,-46.147882601597495
-0.4367,-46.628884443551605
-0.4377000000000001,-47.19476896349763
-0.4387,-47.80309482243959
-0.4397000000000001,-48.36897934238561
-0.4407,-48.89242252333566
-0.4417000000000001,-49.373424365289786
-0.4427,-49.81198486824794
-0.4437000000000001,-50.29298671020206
-0.4447,-50.73154721316022
-0.4457000000000001,-51.21254905511432
-0.4467,-51.69355089706845
-0.4477000000000001,-52.2169940780185
-0.4487,-52.82531993696047
-0.4497000000000001,-53.433645795902436
-0.4507,-54.1268543328363
-0.4517000000000001,-54.919092660760725
-0.4527,-55.527418519702685
-0.4537000000000001,-56.1781857176406
-0.4547,-56.74407023758662
-0.4557000000000001,-57.30995475753264
-0.4567,-57.87583927747865
-0.4577000000000001,-58.45587091042332
-0.4587,-58.880284300382826
-0.4597000000000001,-59.44616882032884
-0.4607,-60.02620045327351
-0.4617000000000001,-60.67696765121143
-0.4627,-61.327734849149344
-0.4637000000000001,-61.97850204708726
-0.4647,-62.72829903601572
-0.4657000000000001,-63.421507572949594
-0.4667,-64.11471610988345
-0.4677000000000001,-64.82207175981598
-0.4687,-65.43039761875795
-0.4697000000000001,-66.03872347769992
-0.4707,-66.60460799764593
-0.4717000000000001,-67.25537519558385
-0.4727,-68.0051721845123
-0.4737000000000001,-68.69838072144618
-0.4747,-69.4906190493706
-0.4757000000000001,-70.35359294228827
-0.4767,-71.31559662619651
-0.4777000000000001,-72.23515897110877
-0.4787,-73.197162655017
-0.4797000000000001,-74.10257788693062
-0.4807,-75.02214023184291
-0.48170000000000013,-75.8992612377592
-0.4827,-76.71979379168094
-0.48370000000000013,-77.59691479759726
-0.4847,-78.38915312552167
-0.48570000000000013,-79.25212701843935
-0.4867,-78.91259630647174
-0.48570000000000013,-76.9037062606634
-0.4847,-75.29093537881725
-0.48370000000000013,-73.97525386994278
-0.4827,-72.80104349105478
-0.48170000000000013,-71.7965984681506
-0.4807,-70.79215344524643
-0.4797000000000001,-69.87259110033416
-0.4787,-68.96717586842054
-0.4777000000000001,-68.13249620150016
-0.4767,-67.25537519558385
-0.4757000000000001,-66.29337151167562
-0.4747,-65.43039761875795
-0.4737000000000001,-64.59571795183757
-0.4727,-63.77518539791585
-0.4717000000000001,-63.06782974798333
-0.4707,-62.37462121104946
-0.4697000000000001,-61.72385401311155
-0.4687,-61.15796949316553
-0.4677000000000001,-60.54964363422357
-0.4667,-59.92717066228296
-0.4657000000000001,-59.31884480334099
-0.4647,-58.62563626640712
