Potential V vs RHE, Current mA cm-2
0.013299999999999867,-0.08943804837746762
0.012299999999999978,-1.6156003044458718
0.011299999999999866,-2.662486666345999
0.010299999999999976,-3.447651437771094
0.009299999999999864,-4.23281620919619
0.008299999999999974,-5.017980980621284
0.007299999999999862,-5.977155241929781
0.006299999999999972,-6.850032113946507
0.00529999999999986,-7.679052935667419
0.0042999999999999705,-8.288793505909249
0.0032999999999998586,-8.508073757388331
0.0022999999999999687,-8.725939297567548
0.0012999999999998568,-8.812236686859313
0.00029999999999996696,-9.031516938338395
-0.000700000000000145,-9.511104068992642
-0.0017000000000000348,-10.034547249942705
-0.0027000000000001467,-10.557990430892769
-0.0037000000000000366,-10.949865460955383
-0.0047000000000001485,-10.993721511251199
-0.005700000000000038,-10.993721511251199
-0.00670000000000015,-10.863568071663616
-0.00770000000000004,-10.863568071663616
-0.008700000000000152,-11.123874950838783
-0.009700000000000042,-11.42945259160963
-0.010700000000000154,-11.952895772559694
-0.011700000000000044,-12.214617363034726
-0.012700000000000156,-12.258473413330542
-0.013700000000000045,-12.170761312738911
-0.014700000000000157,-11.952895772559694
-0.015700000000000047,-11.86659838326793
-0.01670000000000016,-11.952895772559694
-0.01770000000000005,-12.258473413330542
-0.01870000000000016,-12.651763154693022
-0.01970000000000005,-12.913484745168056
-0.020700000000000163,-12.99978213445982
-0.021700000000000053,-12.913484745168056
-0.022700000000000164,-12.694204493688973
-0.023700000000000054,-12.476338953509758
-0.024700000000000166,-12.432482903213943
-0.025700000000000056,-12.607907104397206
-0.026700000000000168,-12.869628694872238
-0.027700000000000058,-13.217647674639037
-0.02870000000000017,-13.349215825526485
-0.02970000000000006,-13.30535977523067
-0.03070000000000017,-13.13135028534727
-0.03170000000000006,-12.825772644576423
-0.03270000000000017,-12.781916594280606
-0.03370000000000006,-12.869628694872238
-0.034700000000000175,-13.175206335643086
-0.035700000000000065,-13.523225315409885
-0.03670000000000018,-13.698649516593148
-0.03770000000000007,-13.741090855589102
-0.03870000000000018,-13.567081365705702
-0.03970000000000007,-13.261503724934855
-0.04070000000000018,-13.087494235051453
-0.04170000000000007,-13.087494235051453
-0.04270000000000018,-13.349215825526485
-0.04370000000000007,-13.698649516593148
-0.044700000000000184,-13.872659006476551
-0.045700000000000074,-14.002812446064135
-0.046700000000000186,-13.828802956180734
-0.047700000000000076,-13.610937416001518
-0.04870000000000019,-13.436927926118118
-0.04970000000000008,-13.349215825526485
-0.05070000000000019,-13.567081365705702
-0.05170000000000008,-13.828802956180734
-0.05270000000000019,-14.175407224647667
-0.05370000000000008,-14.30273124163552
-0.05470000000000019,-14.217848563643619
-0.05570000000000008,-14.002812446064135
-0.056700000000000195,-13.784946905884919
-0.057700000000000085,-13.610937416001518
-0.058700000000000196,-13.784946905884919
-0.059700000000000086,-14.046668496359947
-0.0607000000000002,-14.345172580631472
-0.06170000000000009,-14.57152638860988
-0.0627000000000002,-14.57152638860988
-0.06370000000000009,-14.401761032626075
-0.0647000000000002,-14.175407224647667
-0.06570000000000009,-14.002812446064135
-0.0667000000000002,-14.090524546655764
-0.0677000000000001,-14.30273124163552
-0.0687000000000002,-14.65640906660178
-0.0697000000000001,-14.925204213576137
-0.07070000000000021,-15.05252823056399
-0.0717000000000001,-14.925204213576137
-0.07270000000000021,-14.69885040559773
-0.0737000000000001,-14.444202371622024
-0.07470000000000021,-14.401761032626075
-0.0757000000000001,-14.61396772760583
-0.07670000000000021,-14.826174422585586
-0.0777000000000001,-15.179852247551842
-0.07870000000000021,-15.222293586547794
-0.0797000000000001,-15.179852247551842
-0.08070000000000022,-14.967645552572087
-0.0817000000000001,-14.69885040559773
-0.08270000000000022,-14.65640906660178
-0.08370000000000011,-14.741291744593681
-0.08470000000000022,-15.05252823056399
-0.08570000000000011,-15.448647394526201
-0.08670000000000022,-15.660854089505953
-0.08770000000000011,-15.74573676749786
-0.08870000000000022,-15.575971411514052
-0.08970000000000011,-15.307176264539699
-0.09070000000000022,-15.179852247551842
-0.09170000000000011,-15.222293586547794
-0.09270000000000023,-15.491088733522153
-0.09370000000000012,-15.830619445489761
-0.09470000000000023,-16.056973253468165
-0.09570000000000012,-16.184297270456018
-0.09670000000000023,-16.056973253468165
-0.09770000000000012,-15.830619445489761
-0.09870000000000023,-15.70329542850191
-0.09970000000000012,-15.660854089505953
-0.10070000000000023,-15.87306078448571
-0.10170000000000012,-16.22673860945197
-0.10270000000000024,-16.580416434418233
-0.10370000000000013,-16.750181790402035
-0.10470000000000024,-16.665299112410132
-0.10570000000000013,-16.495533756426326
-0.10670000000000024,-16.22673860945197
-0.10770000000000013,-16.141855931460068
-0.10870000000000024,-16.269179948447924
-0.10970000000000013,-16.580416434418233
-0.11070000000000024,-16.919947146385837
-0.11170000000000013,-17.146300954364243
-0.11270000000000002,-17.231183632356142
-0.11370000000000013,-17.061418276372343
-0.11470000000000002,-16.877505807389888
-0.11570000000000014,-16.750181790402035
-0.11670000000000003,-16.835064468393938
-0.11770000000000014,-17.103859615368293
-0.11870000000000003,-17.40094898833995
-0.11970000000000014,-17.669744135314307
-0.12070000000000003,-17.75462681330621
-0.12170000000000014,-17.627302796318357
-0.12270000000000003,-17.40094898833995
-0.12370000000000014,-17.231183632356142
-0.12470000000000003,-17.231183632356142
-0.12570000000000014,-17.4433903273359
-0.12670000000000003,-17.797068152302163
-0.12770000000000015,-18.19318731626437
-0.12870000000000004,-18.44783535024008
-0.12970000000000015,-18.40539401124413
-0.13070000000000004,-18.27806999425627
-0.13170000000000015,-18.009274847281915
-0.13270000000000004,-17.966833508285966
-0.13370000000000015,-18.10830463827247
-0.13470000000000004,-18.362952672248177
-0.13570000000000015,-18.759071836210385
-0.13670000000000004,-18.92883719219419
-0.13770000000000016,-18.97127853119014
-0.13870000000000005,-18.843954514202288
-0.13970000000000016,-18.631747819222536
-0.14070000000000005,-18.53271802823198
-0.14170000000000016,-18.674189158218486
-0.14270000000000005,-18.92883719219419
-0.14370000000000016,-19.3249563561564
-0.14470000000000005,-19.636192842126707
-0.14570000000000016,-19.805958198110513
-0.14670000000000005,-19.678634181122664
-0.14770000000000016,-19.49472171214021
-0.14870000000000005,-19.3249563561564
-0.14970000000000017,-19.3249563561564
-0.15070000000000006,-19.49472171214021
-0.15170000000000017,-19.848399537106463
-0.15270000000000006,-20.202077362072725
-0.15370000000000017,-20.414284057052477
-0.15470000000000006,-20.414284057052477
-0.15570000000000017,-20.286960040064624
-0.15670000000000006,-20.06060623208622
-0.15770000000000017,-19.97572355409432
-0.15870000000000006,-20.159636023076775
-0.15970000000000018,-20.456725396048434
-0.16070000000000007,-20.85284456001064
-0.16170000000000018,-21.022609915994444
-0.16270000000000007,-21.065051254990397
-0.16370000000000018,-20.89528589900659
-0.16470000000000007,-20.72552054302279
-0.16570000000000018,-20.626490752032236
-0.16670000000000007,-20.683079204026836
-0.16770000000000018,-21.022609915994444
-0.16870000000000007,-21.418729079956652
-0.16970000000000018,-21.729965565926964
-0.17070000000000007,-21.94217226090672
-0.17170000000000019,-21.857289582914817
-0.17270000000000008,-21.729965565926964
-0.1737000000000002,-21.54605309694451
-0.17470000000000008,-21.54605309694451
-0.1757000000000002,-21.814848243918867
-0.17670000000000008,-22.15437895588647
-0.1777000000000002,-22.550498119848687
-0.17870000000000008,-22.776851927827092
-0.1797000000000002,-22.72026347583249
-0.18070000000000008,-22.63538079784059
-0.1817000000000002,-22.46561544185678
-0.18270000000000008,-22.42317410286083
-0.1837000000000002,-22.63538079784059
-0.1847000000000001,-22.989058622806844
-0.1857000000000002,-23.427619125765005
-0.1867000000000001,-23.724708498736668
-0.1877000000000002,-23.767149837732617
-0.1887000000000001,-23.724708498736668
-0.1897000000000002,-23.55494314275286
-0.1907000000000001,-23.51250180375691
-0.1917000000000001,-23.639825820744765
-0.19269999999999998,-23.993503645711023
-0.1937000000000001,-24.474505487665134
-0.19469999999999998,-24.814036199632742
-0.1957000000000001,-24.997948668615198
-0.19669999999999999,-24.95550732961925
-0.1977000000000001,-24.870624651627345
-0.1987,-24.686712182644893
-0.1997000000000001,-24.729153521640843
-0.2007,-24.997948668615198
-0.2017000000000001,-25.337479380582806
-0.2027,-25.73359854454502
-0.2037000000000001,-25.959952352523427
-0.2047,-26.002393691519377
-0.2057000000000001,-25.86092256153287
-0.2067,-25.73359854454502
-0.2077000000000001,-25.77603988354097
-0.2087,-26.044835030515326
-0.2097000000000001,-26.440954194477534
-0.2107,-26.907808923433
-0.2117000000000001,-27.219045409403304
-0.2127,-27.34636942639116
-0.2137000000000001,-27.261486748399253
-0.2147,-27.091721392415455
-0.2157000000000001,-27.134162731411404
-0.2167,-27.219045409403304
-0.21770000000000012,-27.615164573365515
-0.2187,-28.09616641531963
-0.21970000000000012,-28.435697127287238
-0.2207,-28.746933613257543
-0.22170000000000012,-28.746933613257543
-0.2227,-28.704492274261593
-0.22370000000000012,-28.662050935265643
-0.2247,-28.704492274261593
-0.22570000000000012,-29.100611438223805
-0.2267,-29.482583489187363
-0.22770000000000012,-29.921143992145527
-0.22870000000000001,-30.274821817111786
-0.22970000000000013,-30.274821817111786
-0.23070000000000002,-30.189939139119886
-0.23170000000000013,-30.00602667013743
-0.23270000000000002,-29.96358533114148
-0.23370000000000013,-30.274821817111786
-0.23470000000000002,-30.71338232006995
-0.23570000000000013,-31.137795710029454
-0.23670000000000002,-31.533914873991666
-0.2376999999999999,-31.618797551983565
-0.23870000000000002,-31.661238890979522
-0.2396999999999999,-31.57635621298762
-0.24070000000000003,-31.57635621298762
-0.24169999999999991,-31.802710020966025
-0.24270000000000003,-32.184682071929586
-0.24369999999999992,-32.66568391388369
-0.24470000000000003,-33.06180307784591
-0.24569999999999992,-33.330598224820264
-0.24670000000000003,-33.330598224820264
-0.24769999999999992,-33.288156885824314
-0.24870000000000003,-33.14668575583781
-0.24969999999999992,-33.288156885824314
-0.25070000000000003,-33.58524625879597
-0.2516999999999999,-33.98136542275818
-0.25270000000000004,-34.41992592571634
-0.2536999999999999,-34.67457395969205
-0.25470000000000004,-34.8018979766799
-0.2556999999999999,-34.75945663768395
-0.25670000000000004,-34.632132620696105
-0.25769999999999993,-34.75945663768395
-0.25870000000000004,-34.98581044566235
-0.25969999999999993,-35.38192960962457
-0.26070000000000004,-35.90537279057463
-0.26169999999999993,-36.244903502542236
-0.26270000000000004,-36.37222751953009
-0.26369999999999993,-36.37222751953009
-0.26470000000000005,-36.16002082455034
-0.26569999999999994,-36.11757948555439
-0.26670000000000005,-36.244903502542236
-0.26769999999999994,-36.55613998851254
-0.26870000000000005,-37.037141830466666
-0.26969999999999994,-37.334231203438314
-0.27070000000000005,-37.56058501141672
-0.27169999999999994,-37.51814367242077
-0.27270000000000005,-37.334231203438314
-0.27369999999999994,-37.249348525446415
-0.27470000000000006,-37.249348525446415
-0.27569999999999995,-37.56058501141672
-0.27670000000000006,-37.90011572338433
-0.27769999999999995,-38.29623488734655
-0.27870000000000006,-38.522588695324956
-0.27969999999999995,-38.46600024333035
-0.28070000000000006,-38.29623488734655
-0.28169999999999995,-38.08402819236679
-0.28270000000000006,-37.99914551437489
-0.28369999999999995,-38.16891087035869
-0.28470000000000006,-38.46600024333035
-0.28569999999999995,-38.777236729300654
-0.28670000000000007,-39.046031876275016
-0.28769999999999996,-39.08847321527096
-0.28870000000000007,-38.86211940729255
-0.28969999999999996,-38.6499127123128
-0.29070000000000007,-38.46600024333035
-0.29169999999999996,-38.46600024333035
-0.29270000000000007,-38.692354051308754
-0.29369999999999996,-38.90456074628851
-0.2947000000000001,-39.130914554266916
-0.29569999999999996,-39.130914554266916
-0.2967000000000001,-38.90456074628851
-0.29769999999999996,-38.607471373316855
-0.2987000000000001,-38.29623488734655
-0.29969999999999997,-38.16891087035869
-0.3007000000000001,-38.253793548350586
-0.30169999999999997,-38.38111756533845
-0.3027000000000001,-38.6499127123128
-0.30369999999999997,-38.692354051308754
-0.3047000000000001,-38.42355890433439
-0.30569999999999997,-38.12646953136274
-0.3067000000000001,-37.645467689408626
-0.3077,-37.47570233342482
-0.3087000000000001,-37.51814367242077
-0.3097,-37.60302635041268
-0.3107000000000001,-37.81523304539243
-0.3117,-37.81523304539243
-0.3127000000000001,-37.60302635041268
-0.3137,-37.291789864442364
-0.3147000000000001,-36.768346683492304
-0.3157,-36.37222751953009
-0.3167000000000001,-36.11757948555439
-0.3177,-36.03269680756248
-0.3187000000000001,-36.07513814655844
-0.3197,-36.03269680756248
-0.3207000000000001,-35.763901660588125
-0.3217,-35.38192960962457
-0.3227000000000001,-34.85848642867451
-0.3237,-34.41992592571634
-0.3247000000000001,-34.10868943974604
-0.3257,-34.06624810075008
-0.3267000000000001,-34.15113077874198
-0.3277,-34.193572117737936
-0.3287000000000001,-34.10868943974604
-0.3297,-33.755011614779775
-0.3307000000000001,-33.288156885824314
-0.3317,-32.66568391388369
-0.3327000000000001,-32.283711862920136
-0.3337,-32.05735805494172
-0.3347000000000001,-32.05735805494172
-0.3357,-32.09979939393769
-0.3367000000000001,-31.972475376949827
-0.3377,-31.802710020966025
-0.3387000000000001,-31.36414951800786
-0.3397,-30.968030354045652
-0.3407000000000001,-30.71338232006995
-0.3417,-30.614352529079397
-0.3427000000000001,-30.79826499806185
-0.3437,-31.052913032037555
-0.3447000000000001,-31.23682550102001
-0.3457,-31.23682550102001
-0.3467000000000001,-31.010471693041605
-0.3477,-30.7558236590659
-0.3487000000000001,-30.529469851087494
-0.3497,-30.444587173095588
-0.3507000000000001,-30.71338232006995
-0.3517,-31.010471693041605
-0.3527000000000001,-31.40659085700382
-0.3537,-31.57635621298762
-0.3547000000000001,-31.533914873991666
-0.3557,-31.49147353499572
-0.35670000000000013,-31.321708179011907
-0.3577,-31.321708179011907
-0.35870000000000013,-31.618797551983565
-0.3597,-32.01491671594578
-0.36070000000000013,-32.53835989689585
-0.3617,-32.93447906085806
-0.3626999999999999,-33.10424441684186
-0.3637,-33.14668575583781
-0.3646999999999999,-33.10424441684186
-0.3657,-33.18912709483376
-0.3666999999999999,-33.50036358080407
-0.3677,-34.06624810075008
-0.3686999999999999,-34.632132620696105
-0.36970000000000003,-35.198017140642115
-0.3706999999999999,-35.55169496560837
-0.37170000000000003,-35.763901660588125
-0.3726999999999999,-35.848784338580025
-0.37370000000000003,-35.94781412957058
-0.3746999999999999,-36.20246216354629
-0.37570000000000003,-36.64102266650445
-0.3766999999999999,-37.249348525446415
-0.37770000000000004,-37.90011572338433
-0.3786999999999999,-38.38111756533845
-0.37970000000000004,-38.692354051308754
-0.3806999999999999,-38.81967806829661
-0.38170000000000004,-38.90456074628851
-0.38269999999999993,-39.258238571254765
-0.38370000000000004,-39.739240413208876
-0.38469999999999993,-40.3900076111468
-0.38570000000000004,-41.22468727806717
-0.38669999999999993,-41.83301313700913
-0.38770000000000004,-42.31401497896325
-0.38869999999999993,-42.568663012938956
-0.38970000000000005,-42.752575481921404
-0.39069999999999994,-43.09210619388902
-0.39170000000000005,-43.57310803584313
-0.39269999999999994,-44.28046368577565
-0.39370000000000005,-45.01611356170547
-0.39469999999999994,-45.70932209863933
-0.39570000000000005,-46.27520661858535
-0.39669999999999994,-46.586443104555656
-0.39770000000000005,-46.88353247752732
-0.39869999999999994,-47.23721030249357
-0.39970000000000006,-47.67577080545174
-0.40069999999999995,-48.36897934238561
-0.40170000000000006,-49.16121767031002
-0.40269999999999995,-49.98175022423175
-0.40370000000000006,-50.68910587416426
-0.40469999999999995,-51.21254905511432
-0.40570000000000006,-51.509638428085985
-0.40669999999999995,-51.82087491405629
-0.40770000000000006,-52.25943541701445
-0.40869999999999995,-52.95264395394832
-0.40970000000000006,-53.872206298860604
-0.41069999999999995,-54.834209982768826
-0.41170000000000007,-55.6971838756865
-0.41269999999999996,-56.30550973462846
-0.41370000000000007,-56.74407023758662
-0.41469999999999996,-57.097748062552874
-0.41570000000000007,-57.53630856551105
-0.41669999999999996,-58.18707576344896
-0.41770000000000007,-59.02175543036933
-0.41869999999999996,-59.884729323287
-0.4197000000000001,-60.761850329203334
-0.42069999999999996,-61.49750020513315
-0.4217000000000001,-61.936060708091304
-0.42269999999999996,-62.41706255004542
-0.4237000000000001,-62.89806439199953
-0.42469999999999997,-63.59127292893339
-0.4257000000000001,-64.55327661284163
-0.42669999999999997,-65.60016297474175
-0.4277000000000001,-66.73193201463377
-0.42869999999999997,-67.73637703753796
-0.4297000000000001,-68.44373268747047
-0.43069999999999997,-68.96717586842054
-0.4317000000000001,-69.39158925838004
-0.4327,-70.05650356931662
-0.4337000000000001,-70.8345947842424
-0.4347,-71.7117157901587
-0.4357000000000001,-72.80104349105478
-0.4367,-73.72060583596706
-0.4377000000000001,-74.45625571189689
-0.4387,-75.14946424883075
-0.4397000000000001,-75.6729074297808
-0.4407,-76.38026307971333
-0.4417000000000001,-77.28567831162695
-0.4427,-78.33256467352709
-0.4437000000000001,-79.60580484340561
-0.4447,-80.65269120530574
-0.4457000000000001,-81.57225355021802
-0.4467,-82.26546208715187
-0.4477000000000001,-82.8313466070979
-0.4487,-83.43967246603985
-0.4497000000000001,-84.04799832498183
-0.4507,-84.8826779919022
-0.4517000000000001,-85.92956435380233
-0.4527,-87.01889205469841
-0.4537000000000001,-88.02333707760259
-0.4547,-88.8438696315243
-0.4557000000000001,-89.55122528145681
-0.4567,-90.37175783537855
-0.4577000000000001,-91.33376151928677
-0.4587,-92.3806478811869
-0.4597000000000001,-93.65388805106544
-0.4607,-94.91298110794531
-0.4617000000000001,-96.00230880884139
-0.4627,-96.87942981475771
-0.4637000000000001,-97.4877556736997
-0.4647,-98.09608153264163
-0.4657000000000001,-98.7892900695755
-0.4667,-99.70885241448778
-0.4677000000000001,-100.84062145437981
-0.4687,-102.11386162425833
-0.4697000000000001,-103.28807200314633
-0.4707,-104.2925170260505
-0.4717000000000001,-104.90084288499246
-0.4727,-105.59405142192634
-0.4737000000000001,-106.2589657328629
-0.4747,-106.90973293080083
-0.4757000000000001,-107.95661929270095
-0.4767,-109.13082967158894
-0.4777000000000001,-110.34748138947285
-0.4787,-111.6207215593514
-0.4797000000000001,-112.54028390426367
-0.4807,-113.44569913617728
-0.48170000000000013,-114.19549612510575
-0.4827,-115.05847001802343
-0.48370000000000013,-116.10535637992358
-0.4847,-117.29371387181018
-0.48570000000000013,-118.55280692869007
-0.4867,-118.29815889471436
-0.48570000000000013,-115.8931496849438
-0.4847,-113.84181830013951
-0.48370000000000013,-111.8753695933271
-0.4827,-110.09283335549715
-0.48170000000000013,-108.69226916863077
-0.4807,-107.64538280673065
-0.4797000000000001,-106.68337912282242
-0.4787,-105.82040522990474
-0.4777000000000001,-104.85840154599651
-0.4767,-103.81151518409638
-0.4757000000000001,-102.5524221272165
-0.4747,-101.44894731332178
-0.4737000000000001,-100.35961961242569
-0.4727,-99.45420438051207
-0.4717000000000001,-98.49220069660386
-0.4707,-97.61507969068752
-0.4697000000000001,-96.61063466778336
-0.4687,-95.43642428889537
-0.4677000000000001,-94.17733123201549
-0.4667,-92.7767670451491
-0.4657000000000001,-91.60255666626112
