Potential V vs RHE, Current mA cm-2
0.013299999999999867,0.6084673300719523
0.012299999999999978,-1.2234423321232837
0.011299999999999866,-2.7501987669376318
0.010299999999999976,-3.7970851288377587
0.009299999999999864,-4.406825699079589
0.008299999999999974,-4.712403339850438
0.007299999999999862,-5.235846520800501
0.006299999999999972,-5.9347139029338285
0.00529999999999986,-6.806176063650692
0.0042999999999999705,-7.461187395488204
0.0032999999999998586,-7.722908985963235
0.0022999999999999687,-7.722908985963235
0.0012999999999998568,-7.722908985963235
0.00029999999999996696,-7.896918475846635
-0.000700000000000145,-8.4203616567967
-0.0017000000000000348,-8.987660888042578
-0.0027000000000001467,-9.24938247851761
-0.0037000000000000366,-9.24938247851761
-0.0047000000000001485,-9.031516938338395
-0.005700000000000038,-8.943804837746763
-0.00670000000000015,-9.161670377925978
-0.00770000000000004,-9.59740145828441
-0.008700000000000152,-10.034547249942705
-0.009700000000000042,-10.164700689530287
-0.010700000000000154,-9.99069119964689
-0.011700000000000044,-9.728969609171857
-0.012700000000000156,-9.641257508580225
-0.013700000000000045,-9.946835149351072
-0.014700000000000157,-10.340124890713554
-0.015700000000000047,-10.644287820184536
-0.01670000000000016,-10.557990430892769
-0.01770000000000005,-10.340124890713554
-0.01870000000000016,-10.078403300238522
-0.01970000000000005,-10.078403300238522
-0.020700000000000163,-10.382566229709504
-0.021700000000000053,-10.775855971071984
-0.022700000000000164,-10.993721511251199
-0.023700000000000054,-10.775855971071984
-0.024700000000000166,-10.470278330301136
-0.025700000000000056,-10.296268840417738
-0.026700000000000168,-10.42642228000532
-0.027700000000000058,-10.731999920776168
-0.02870000000000017,-11.123874950838783
-0.02970000000000006,-11.123874950838783
-0.03070000000000017,-10.949865460955383
-0.03170000000000006,-10.601846481188586
-0.03270000000000017,-10.514134380596953
-0.03370000000000006,-10.731999920776168
-0.034700000000000175,-11.123874950838783
-0.035700000000000065,-11.42945259160963
-0.03670000000000018,-11.343155202317865
-0.03770000000000007,-11.037577561547016
-0.03870000000000018,-10.775855971071984
-0.03970000000000007,-10.775855971071984
-0.04070000000000018,-11.037577561547016
-0.04170000000000007,-11.517164692201263
-0.04270000000000018,-11.647318131788847
-0.04370000000000007,-11.517164692201263
-0.044700000000000184,-11.123874950838783
-0.045700000000000074,-10.993721511251199
-0.046700000000000186,-11.081433611842833
-0.047700000000000076,-11.42945259160963
-0.04870000000000019,-11.778886282676295
-0.04970000000000008,-11.778886282676295
-0.05070000000000019,-11.517164692201263
-0.05170000000000008,-11.1677310011346
-0.05270000000000019,-11.123874950838783
-0.05370000000000008,-11.343155202317865
-0.05470000000000019,-11.73503023238048
-0.05570000000000008,-11.996751822855511
-0.056700000000000195,-11.996751822855511
-0.057700000000000085,-11.691174182084664
-0.058700000000000196,-11.473308641905447
-0.059700000000000086,-11.42945259160963
-0.0607000000000002,-11.73503023238048
-0.06170000000000009,-12.12831997374296
-0.0627000000000002,-12.302329463626359
-0.06370000000000009,-12.040607873151327
-0.0647000000000002,-11.778886282676295
-0.06570000000000009,-11.56102074249708
-0.0667000000000002,-11.73503023238048
-0.0677000000000001,-12.084463923447142
-0.0687000000000002,-12.432482903213943
-0.0697000000000001,-12.476338953509758
-0.07070000000000021,-12.258473413330542
-0.0717000000000001,-11.86659838326793
-0.07270000000000021,-11.82274233297211
-0.0737000000000001,-12.12831997374296
-0.07470000000000021,-12.476338953509758
-0.0757000000000001,-12.73806054398479
-0.07670000000000021,-12.651763154693022
-0.0777000000000001,-12.390041564217992
-0.07870000000000021,-12.084463923447142
-0.0797000000000001,-12.170761312738911
-0.08070000000000022,-12.432482903213943
-0.0817000000000001,-12.869628694872238
-0.08270000000000022,-12.99978213445982
-0.08370000000000011,-12.869628694872238
-0.08470000000000022,-12.520195003805576
-0.08570000000000011,-12.390041564217992
-0.08670000000000022,-12.56405105410139
-0.08770000000000011,-12.955926084164007
-0.08870000000000022,-13.261503724934855
-0.08970000000000011,-13.349215825526485
-0.09070000000000022,-13.13135028534727
-0.09170000000000011,-12.781916594280606
-0.09270000000000023,-12.694204493688973
-0.09370000000000012,-12.955926084164007
-0.09470000000000023,-13.3930718758223
-0.09570000000000012,-13.610937416001518
-0.09670000000000023,-13.610937416001518
-0.09770000000000012,-13.30535977523067
-0.09870000000000023,-13.087494235051453
-0.09970000000000012,-13.13135028534727
-0.10070000000000023,-13.47936926511407
-0.10170000000000012,-13.872659006476551
-0.10270000000000024,-14.090524546655764
-0.10370000000000013,-13.916515056772363
-0.10470000000000024,-13.610937416001518
-0.10570000000000013,-13.436927926118118
-0.10670000000000024,-13.610937416001518
-0.10770000000000013,-14.002812446064135
-0.10870000000000024,-14.30273124163552
-0.10970000000000013,-14.401761032626075
-0.11070000000000024,-14.175407224647667
-0.11170000000000013,-13.872659006476551
-0.11270000000000002,-13.784946905884919
-0.11370000000000013,-14.090524546655764
-0.11470000000000002,-14.444202371622024
-0.11570000000000014,-14.783733083589633
-0.11670000000000003,-14.69885040559773
-0.11770000000000014,-14.486643710617974
-0.11870000000000003,-14.217848563643619
-0.11970000000000014,-14.30273124163552
-0.12070000000000003,-14.65640906660178
-0.12170000000000014,-15.05252823056399
-0.12270000000000003,-15.222293586547794
-0.12370000000000014,-15.094969569559943
-0.12470000000000003,-14.826174422585586
-0.12570000000000014,-14.65640906660178
-0.12670000000000003,-14.868615761581536
-0.12770000000000015,-15.222293586547794
-0.12870000000000004,-15.618412750510005
-0.12970000000000015,-15.660854089505953
-0.13070000000000004,-15.448647394526201
-0.13170000000000015,-15.094969569559943
-0.13270000000000004,-15.05252823056399
-0.13370000000000015,-15.307176264539699
-0.13470000000000004,-15.78817810649381
-0.13570000000000015,-16.056973253468165
-0.13670000000000004,-16.056973253468165
-0.13770000000000016,-15.78817810649381
-0.13870000000000005,-15.575971411514052
-0.13970000000000016,-15.618412750510005
-0.14070000000000005,-15.91550212348166
-0.14170000000000016,-16.354062626439823
-0.14270000000000005,-16.580416434418233
-0.14370000000000016,-16.396503965435777
-0.14470000000000005,-16.141855931460068
-0.14570000000000016,-16.056973253468165
-0.14670000000000005,-16.184297270456018
-0.14770000000000016,-16.622857773414182
-0.14870000000000005,-16.919947146385837
-0.14970000000000017,-17.061418276372343
-0.15070000000000006,-16.877505807389888
-0.15170000000000017,-16.580416434418233
-0.15270000000000006,-16.495533756426326
-0.15370000000000017,-16.792623129397985
-0.15470000000000006,-17.231183632356142
-0.15570000000000017,-17.48583166633185
-0.15670000000000006,-17.4433903273359
-0.15770000000000017,-17.188742293360193
-0.15870000000000006,-17.061418276372343
-0.15970000000000018,-17.103859615368293
-0.16070000000000007,-17.48583166633185
-0.16170000000000018,-17.924392169290012
-0.16270000000000007,-18.15074597726842
-0.16370000000000018,-17.924392169290012
-0.16470000000000007,-17.71218547431026
-0.16570000000000018,-17.584861457322408
-0.16670000000000007,-17.797068152302163
-0.16770000000000018,-18.23562865526032
-0.16870000000000007,-18.631747819222536
-0.16970000000000018,-18.716630497214435
-0.17070000000000007,-18.589306480226583
-0.17170000000000019,-18.320511333252224
-0.17270000000000008,-18.27806999425627
-0.1737000000000002,-18.53271802823198
-0.17470000000000008,-18.97127853119014
-0.1757000000000002,-19.3249563561564
-0.17670000000000008,-19.2400736781645
-0.1777000000000002,-19.01371987018609
-0.17870000000000008,-18.843954514202288
-0.1797000000000002,-18.97127853119014
-0.18070000000000008,-19.367397695152352
-0.1817000000000002,-19.93328221509837
-0.18270000000000008,-20.159636023076775
-0.1837000000000002,-20.01816489309027
-0.1847000000000001,-19.805958198110513
-0.1857000000000002,-19.721075520118614
-0.1867000000000001,-19.890840876102416
-0.1877000000000002,-20.371842718056527
-0.1887000000000001,-20.72552054302279
-0.1897000000000002,-20.85284456001064
-0.1907000000000001,-20.683079204026836
-0.1917000000000001,-20.414284057052477
-0.19269999999999998,-20.414284057052477
-0.1937000000000001,-20.76796188201874
-0.19469999999999998,-21.291405062968803
-0.1957000000000001,-21.63093577493641
-0.19669999999999999,-21.67337711393236
-0.1977000000000001,-21.461170418952605
-0.1987,-21.376287740960702
-0.1997000000000001,-21.418729079956652
-0.2007,-21.814848243918867
-0.2017000000000001,-22.295850085872978
-0.2027,-22.508056780852733
-0.2037000000000001,-22.38073276386488
-0.2047,-22.196820294882425
-0.2057000000000001,-22.111937616890522
-0.2067,-22.42317410286083
-0.2077000000000001,-22.904175944814945
-0.2087,-23.342736447773106
-0.2097000000000001,-23.51250180375691
-0.2107,-23.385177786769056
-0.2117000000000001,-23.1163826397947
-0.2127,-23.1163826397947
-0.2137000000000001,-23.47006046476096
-0.2147,-23.951062306715073
-0.2157000000000001,-24.34718147067728
-0.2167,-24.290593018682678
-0.21770000000000012,-24.16326900169483
-0.2187,-24.035944984706973
-0.21970000000000012,-24.24815167968673
-0.2207,-24.686712182644893
-0.22170000000000012,-25.252596702590903
-0.2227,-25.563833188561212
-0.22370000000000012,-25.43650917157336
-0.2247,-25.210155363594954
-0.22570000000000012,-25.12527268560305
-0.2267,-25.39406783257741
-0.22770000000000012,-25.81848122253692
-0.22870000000000001,-26.257041725495082
-0.22970000000000013,-26.440954194477534
-0.23070000000000002,-26.34192440348698
-0.23170000000000013,-26.129717708507226
-0.23270000000000002,-26.21460038649913
-0.23370000000000013,-26.61071955046134
-0.23470000000000002,-27.134162731411404
-0.23570000000000013,-27.487840556377662
-0.23670000000000002,-27.530281895373616
-0.2376999999999999,-27.303928087395207
-0.23870000000000002,-27.219045409403304
-0.2396999999999999,-27.34636942639116
-0.24070000000000003,-27.78492992934932
-0.24169999999999991,-28.308373110299385
-0.24270000000000003,-28.577168257273744
-0.24369999999999992,-28.53472691827779
-0.24470000000000003,-28.265931771303435
-0.24569999999999992,-28.18104909331153
-0.24670000000000003,-28.435697127287238
-0.24769999999999992,-28.8742576302454
-0.24870000000000003,-29.27037679420761
-0.24969999999999992,-29.440142150191413
-0.25070000000000003,-29.27037679420761
-0.2516999999999999,-29.058170099227848
-0.25270000000000004,-29.100611438223805
-0.2536999999999999,-29.482583489187363
-0.25470000000000004,-29.96358533114148
-0.2556999999999999,-30.317263156107735
-0.25670000000000004,-30.359704495103685
-0.25769999999999993,-30.10505646112798
-0.25870000000000004,-29.921143992145527
-0.25969999999999993,-30.04846800913338
-0.26070000000000004,-30.444587173095588
-0.26169999999999993,-30.8407063370578
-0.26270000000000004,-31.052913032037555
-0.26369999999999993,-30.88314767605375
-0.26470000000000005,-30.614352529079397
-0.26569999999999994,-30.487028512091538
-0.26670000000000005,-30.7558236590659
-0.26769999999999994,-31.19438416202406
-0.26870000000000005,-31.533914873991666
-0.26969999999999994,-31.57635621298762
-0.27070000000000005,-31.36414951800786
-0.27169999999999994,-31.010471693041605
-0.27270000000000005,-31.010471693041605
-0.27369999999999994,-31.27926684001596
-0.27470000000000006,-31.618797551983565
-0.27569999999999995,-31.887592698957924
-0.27670000000000006,-31.76026868197007
-0.27769999999999995,-31.449032195999767
-0.27870000000000006,-31.19438416202406
-0.27969999999999995,-31.19438416202406
-0.28070000000000006,-31.40659085700382
-0.28169999999999995,-31.802710020966025
-0.28270000000000006,-31.887592698957924
-0.28369999999999995,-31.661238890979522
-0.28470000000000006,-31.23682550102001
-0.28569999999999995,-31.010471693041605
-0.28670000000000007,-31.095354371033505
-0.28769999999999996,-31.40659085700382
-0.28870000000000007,-31.618797551983565
-0.28969999999999996,-31.57635621298762
-0.29070000000000007,-31.27926684001596
-0.29169999999999996,-30.8407063370578
-0.29270000000000007,-30.571911190083444
-0.29369999999999996,-30.71338232006995
-0.2947000000000001,-30.968030354045652
-0.29569999999999996,-30.968030354045652
-0.2967000000000001,-30.7558236590659
-0.29769999999999996,-30.274821817111786
-0.2987000000000001,-29.878702653149578
-0.29969999999999997,-29.751378636161718
-0.3007000000000001,-29.921143992145527
-0.30169999999999997,-30.10505646112798
-0.3027000000000001,-30.04846800913338
-0.30369999999999997,-29.62405461917387
-0.3047000000000001,-29.100611438223805
-0.30569999999999997,-28.704492274261593
-0.3067000000000001,-28.619609596269694
-0.3077,-28.746933613257543
-0.3087000000000001,-28.831816291249446
-0.3097,-28.577168257273744
-0.3107000000000001,-28.09616641531963
-0.3117,-27.572723234369565
-0.3127000000000001,-27.219045409403304
-0.3137,-27.303928087395207
-0.3147000000000001,-27.43125210438306
-0.3157,-27.487840556377662
-0.3167000000000001,-27.134162731411404
-0.3177,-26.61071955046134
-0.3187000000000001,-26.044835030515326
-0.3197,-25.91751101352747
-0.3207000000000001,-25.959952352523427
-0.3217,-26.087276369511276
-0.3227000000000001,-25.959952352523427
-0.3237,-25.563833188561212
-0.3247000000000001,-25.04039000761115
-0.3257,-24.686712182644893
-0.3267000000000001,-24.686712182644893
-0.3277,-24.9130659906233
-0.3287000000000001,-25.12527268560305
-0.3297,-24.997948668615198
-0.3307000000000001,-24.64427084364894
-0.3317,-24.24815167968673
-0.3327000000000001,-24.120827662698876
-0.3337,-24.34718147067728
-0.3347000000000001,-24.729153521640843
-0.3357,-24.870624651627345
-0.3367000000000001,-24.814036199632742
-0.3377,-24.516946826661083
-0.3387000000000001,-24.34718147067728
-0.3397,-24.432064148669184
-0.3407000000000001,-24.771594860636792
-0.3417,-25.295038041586857
-0.3427000000000001,-25.478950510569312
-0.3437,-25.39406783257741
-0.3447000000000001,-25.12527268560305
-0.3457,-25.0828313466071
-0.3467000000000001,-25.39406783257741
-0.3477,-25.91751101352747
-0.3487000000000001,-26.34192440348698
-0.3497,-26.568278211465387
-0.3507000000000001,-26.525836872469437
-0.3517,-26.34192440348698
-0.3527000000000001,-26.483395533473487
-0.3537,-27.00683871442355
-0.3547000000000001,-27.615164573365515
-0.3557,-28.09616641531963
-0.35670000000000013,-28.22349043230748
-0.3577,-28.22349043230748
-0.35870000000000013,-28.22349043230748
-0.3597,-28.53472691827779
-0.36070000000000013,-29.058170099227848
-0.3617,-29.708937297165768
-0.3626999999999999,-30.10505646112798
-0.3637,-30.147497800123933
-0.3646999999999999,-30.10505646112798
-0.3657,-30.189939139119886
-0.3666999999999999,-30.670940981073993
-0.3677,-31.36414951800786
-0.3686999999999999,-32.09979939393769
-0.36970000000000003,-32.45347721890394
-0.3706999999999999,-32.58080123589179
-0.37170000000000003,-32.62324257488775
-0.3726999999999999,-32.93447906085806
-0.37370000000000003,-33.54280491980002
-0.3746999999999999,-34.33504324772444
-0.37570000000000003,-34.90092776767045
-0.3766999999999999,-35.15557580164616
-0.37770000000000004,-35.240458479638065
-0.3786999999999999,-35.42437094862052
-0.37970000000000004,-35.90537279057463
-0.3806999999999999,-36.64102266650445
-0.38170000000000004,-37.47570233342482
-0.38269999999999993,-38.04158685337084
-0.38370000000000004,-38.29623488734655
-0.38469999999999993,-38.38111756533845
-0.38570000000000004,-38.734795390304704
-0.38669999999999993,-39.258238571254765
-0.38770000000000004,-40.092918238175145
-0.38869999999999993,-40.828568114104954
-0.38970000000000005,-41.267128617063115
-0.39069999999999994,-41.52177665103883
-0.39170000000000005,-41.74813045901723
-0.39269999999999994,-42.229132300971344
-0.39370000000000005,-43.007223515897124
-0.39469999999999994,-43.92678586080939
-0.39570000000000005,-44.704877075735155
-0.39669999999999994,-45.18587891768927
-0.39770000000000005,-45.36979138667173
-0.39869999999999994,-45.666880759643384
-0.39970000000000006,-46.2327652795894
-0.40069999999999995,-47.15232762450167
-0.40170000000000006,-48.071889969413945
-0.40269999999999995,-48.80753984534376
-0.40370000000000006,-49.16121767031002
-0.40469999999999995,-49.41586570428573
-0.40570000000000006,-49.85442620724389
-0.40669999999999995,-50.64666453516831
-0.40770000000000006,-51.594521106077885
-0.40869999999999995,-52.514083450990164
-0.40970000000000006,-53.16485064892808
-0.41069999999999995,-53.518528473894335
-0.41170000000000007,-53.82976495986464
-0.41269999999999996,-54.35320814081471
-0.41370000000000007,-55.21618203373238
-0.41469999999999996,-56.22062705663656
-0.41570000000000007,-57.05530672355693
-0.41669999999999996,-57.57874990450699
-0.41770000000000007,-58.017310407465146
-0.41869999999999996,-58.498312249419264
-0.4197000000000001,-59.36128614233694
-0.42069999999999996,-60.36573116524111
-0.4217000000000001,-61.455058866137186
-0.42269999999999996,-62.33217987205352
-0.4237000000000001,-62.855623053003576
-0.42469999999999997,-63.20930087796983
-0.4257000000000001,-63.77518539791585
-0.42669999999999997,-64.63815929083353
-0.4277000000000001,-65.68504565273366
-0.42869999999999997,-66.68949067563783
-0.4297000000000001,-67.39684632557035
-0.43069999999999997,-67.96273084551636
-0.4317000000000001,-68.44373268747047
-0.4327,-69.13694122440434
-0.4337000000000001,-70.18382758630447
-0.4347,-71.35803796519245
-0.4357000000000001,-72.32004164910067
-0.4367,-73.01325018603454
-0.4377000000000001,-73.32448667200485
-0.4387,-73.89037119195086
-0.4397000000000001,-74.80993353686314
-0.4407,-75.98414391575112
-0.4417000000000001,-77.1583542946391
-0.4427,-78.16279931754329
-0.4437000000000001,-78.9550376454677
-0.4447,-79.56336350440966
-0.4457000000000001,-80.17168936335163
-0.4467,-81.1761343862558
-0.4477000000000001,-82.30790342614785
-0.4487,-83.35478978804795
-0.4497000000000001,-84.09043966397778
-0.4507,-84.6563241839238
-0.4517000000000001,-85.27879715586442
-0.4527,-85.92956435380233
-0.4537000000000001,-87.14621607168625
-0.4547,-88.37701490256885
-0.4557000000000001,-89.55122528145681
-0.4567,-90.32931649638259
-0.4577000000000001,-90.93764235532454
-0.4587,-91.60255666626112
-0.4597000000000001,-92.4655305591788
-0.4607,-93.65388805106544
-0.4617000000000001,-94.87053976894937
-0.4627,-95.83254345285758
-0.4637000000000001,-96.4833106507955
-0.4647,-97.13407784873341
-0.4657000000000001,-97.84143349866595
-0.4667,-98.88831986056607
-0.4677000000000001,-100.14741291744595
-0.4687,-101.3640646353299
-0.4697000000000001,-102.19874430225026
-0.4707,-102.89195283918411
-0.4717000000000001,-103.45783735913014
-0.4727,-104.2925170260505
-0.4737000000000001,-105.42428606594254
-0.4747,-106.68337912282242
-0.4757000000000001,-107.68782414572658
-0.4767,-108.39517979565912
-0.4777000000000001,-109.00350565460108
-0.4787,-109.73915553053091
-0.4797000000000001,-110.74360055343507
-0.4807,-111.8753695933271
-0.48170000000000013,-113.31837511918944
-0.4827,-114.45014415908147
-0.48370000000000013,-115.19994114800993
-0.4847,-115.76582566795594
-0.48570000000000013,-116.54391688288172
-0.4867,-116.41659286589388
-0.48570000000000013,-114.67649796705987
-0.4847,-113.19105110220158
-0.48370000000000013,-111.74804557633925
-0.4827,-110.22015737248502
-0.48170000000000013,-108.77715184662266
-0.4807,-107.39073477275493
-0.4797000000000001,-106.34384841085482
-0.4787,-105.69308121291688
-0.4777000000000001,-104.77351886800463
-0.4767,-103.50027869812607
-0.4757000000000001,-102.28362698024215
-0.4747,-100.92550413237171
-0.4737000000000001,-99.75129375348374
-0.4727,-98.97320253855796
-0.4717000000000001,-98.09608153264163
-0.4707,-97.13407784873341
-0.4697000000000001,-95.87498479185354
-0.4687,-94.34709658799929
-0.4677000000000001,-93.17288620911131
-0.4667,-92.33820654219093
-0.4657000000000001,-91.60255666626112
