Potential V vs RHE, Current mA cm-2
0.013299999999999867,5.316485064892808
0.012299999999999978,3.7122024508458558
0.011299999999999866,2.4771594860636794
0.010299999999999976,1.3209159406839848
0.009299999999999864,0.4594982301961639
0.008299999999999974,-0.3939970970124127
0.007299999999999862,-1.1242710700027445
0.006299999999999972,-1.7443390327335901
0.00529999999999986,-2.361153159474746
0.0042999999999999705,-2.840740290128994
0.0032999999999998586,-3.3344745337818917
0.0022999999999999687,-3.8027439740372184
0.0012999999999998568,-4.190374870200238
0.00029999999999996696,-4.63742364095759
-0.000700000000000145,-4.972710219025604
-0.0017000000000000348,-5.347608713489839
-0.0027000000000001467,-5.685724714157582
-0.0037000000000000366,-5.9347139029338285
-0.0047000000000001485,-6.306782974798334
-0.005700000000000038,-6.507671979379168
-0.00670000000000015,-6.817493754049612
-0.00770000000000004,-7.057994675026669
-0.008700000000000152,-7.256054257007774
-0.009700000000000042,-7.529093537881726
-0.010700000000000154,-7.604073236774572
-0.011700000000000044,-7.7978886848560816
-0.012700000000000156,-8.12327228382504
-0.013700000000000045,-8.14873708722261
-0.014700000000000157,-8.47412068619157
-0.015700000000000047,-8.573150477182121
-0.01670000000000016,-8.765551213963766
-0.01770000000000005,-8.891460519651757
-0.01870000000000016,-8.987660888042578
-0.01970000000000005,-9.201282294322198
-0.020700000000000163,-9.304556219212346
-0.021700000000000053,-9.49695695599399
-0.022700000000000164,-9.618622127782384
-0.023700000000000054,-9.726140186572128
-0.024700000000000166,-9.921370345953502
-0.025700000000000056,-10.003423601345673
-0.026700000000000168,-10.19865376072705
-0.027700000000000058,-10.287780572618546
-0.02870000000000017,-10.422178146105725
-0.02970000000000006,-10.55516100829304
-0.03070000000000017,-10.6174083054871
-0.03170000000000006,-10.805564908369151
-0.03270000000000017,-10.935718347956733
-0.03370000000000006,-11.040406984146745
-0.034700000000000175,-11.113971971739728
-0.035700000000000065,-11.105483703940537
-0.03670000000000018,-11.295055018122452
-0.03770000000000007,-11.34739933621746
-0.03870000000000018,-11.521408826100858
-0.03970000000000007,-11.686930048185067
-0.04070000000000018,-11.76898330357724
-0.04170000000000007,-11.995337111555646
-0.04270000000000018,-12.026460760152677
-0.04370000000000007,-11.97411644205767
-0.044700000000000184,-12.166517178839316
-0.045700000000000074,-12.224520342133783
-0.046700000000000186,-12.295255907127034
-0.047700000000000076,-12.411262233715968
-0.04870000000000019,-12.501803756907329
-0.04970000000000008,-12.654592577292753
-0.05070000000000019,-12.742304677884386
-0.05170000000000008,-12.845578602774532
-0.05270000000000019,-12.954511372864141
-0.05370000000000008,-13.052126452554827
-0.05470000000000019,-13.213403540739444
-0.05570000000000008,-13.248771323236069
-0.056700000000000195,-13.27140670403391
-0.057700000000000085,-13.494931089412585
-0.058700000000000196,-13.476539842514338
-0.059700000000000086,-13.619425683800708
-0.0607000000000002,-13.804752864083028
-0.06170000000000009,-13.790605751084376
-0.0627000000000002,-14.008471291263595
-0.06370000000000009,-13.981591776566157
-0.0647000000000002,-14.131551174351852
-0.06570000000000009,-14.26028990263957
-0.0667000000000002,-14.387613919627421
-0.0677000000000001,-14.557379275611227
-0.0687000000000002,-14.62811484060448
-0.0697000000000001,-14.812027309586934
-0.07070000000000021,-14.727144631595033
-0.0717000000000001,-14.911057100577487
-0.07270000000000021,-14.98179266557074
-0.0737000000000001,-14.995939778569388
-0.07470000000000021,-15.250587812545096
-0.0757000000000001,-15.250587812545096
-0.07670000000000021,-15.491088733522153
-0.0777000000000001,-15.547677185516752
-0.07870000000000021,-15.74573676749786
-0.0797000000000001,-15.943796349478962
-0.08070000000000022,-15.972090575476265
-0.0817000000000001,-16.000384801473565
-0.08270000000000022,-16.127708818461418
-0.08370000000000011,-16.382356852437127
-0.08470000000000022,-16.354062626439823
-0.08570000000000011,-16.59456354741688
-0.08670000000000022,-16.764328903400685
-0.08770000000000011,-16.792623129397985
-0.08870000000000022,-16.93409425938449
-0.08970000000000011,-17.061418276372343
-0.09070000000000022,-17.146300954364243
-0.09170000000000011,-17.34436053634535
-0.09270000000000023,-17.34436053634535
-0.09370000000000012,-17.627302796318357
-0.09470000000000023,-17.698038361311607
-0.09570000000000012,-17.669744135314307
-0.09670000000000023,-17.81121526530081
-0.09770000000000012,-18.02342196028057
-0.09870000000000023,-18.10830463827247
-0.09970000000000012,-18.23562865526032
-0.10070000000000023,-18.391246898245473
-0.10170000000000012,-18.518570915233333
-0.10270000000000024,-18.77321894920904
-0.10370000000000013,-18.858101627200938
-0.10470000000000024,-19.056161209182044
-0.10570000000000013,-19.22592656516585
-0.10670000000000024,-19.367397695152352
-0.10770000000000013,-19.565457277133458
-0.10870000000000024,-19.805958198110513
-0.10970000000000013,-20.187930249074075
-0.11070000000000024,-19.508868825138855
-0.11170000000000013,-20.17378313607542
-0.11270000000000002,-20.286960040064624
-0.11370000000000013,-20.286960040064624
-0.11470000000000002,-20.76796188201874
-0.11570000000000014,-20.69722631702549
-0.11670000000000003,-20.994315689997144
-0.11770000000000014,-21.107492593986347
-0.11870000000000003,-21.22066949797555
-0.11970000000000014,-21.51775887094721
-0.12070000000000003,-21.61678866193776
-0.12170000000000014,-21.744112678925614
-0.12270000000000003,-21.92802514790807
-0.12370000000000014,-21.97046648690402
-0.12470000000000003,-22.295850085872978
-0.12570000000000014,-22.437321215859484
-0.12670000000000003,-22.63538079784059
-0.12770000000000015,-22.84758749282034
-0.12870000000000004,-23.031499961802798
-0.12970000000000015,-23.272000882779853
-0.13070000000000004,-23.54079602975421
-0.13170000000000015,-23.823738289727217
-0.13270000000000004,-23.908620967719123
-0.13370000000000015,-23.951062306715073
-0.13470000000000004,-24.304740131681328
-0.13570000000000015,-24.34718147067728
-0.13670000000000004,-24.502799713662437
-0.13770000000000016,-24.870624651627345
-0.13870000000000005,-24.983801555616548
-0.13970000000000016,-25.40821494557606
-0.14070000000000005,-25.507244736566612
-0.14170000000000016,-25.662862979551768
-0.14270000000000005,-25.94580523952477
-0.14370000000000016,-26.14386482150588
-0.14470000000000005,-26.667308002455943
-0.14570000000000016,-26.242894612496432
-0.14670000000000005,-26.95025026242895
-0.14770000000000016,-27.176604070407354
-0.14870000000000005,-26.921956036431645
-0.14970000000000017,-27.671753025360115
-0.15070000000000006,-27.37466365238846
-0.15170000000000017,-27.714194364356068
-0.15270000000000006,-28.011283737327723
-0.15370000000000017,-28.039577963325023
-0.15470000000000006,-28.393255788291288
-0.15570000000000017,-28.8459634042481
-0.15670000000000006,-29.100611438223805
-0.15770000000000017,-29.31281813320356
-0.15870000000000006,-29.62405461917387
-0.15970000000000018,-29.836261314153624
-0.16070000000000007,-29.906996879146874
-0.16170000000000018,-30.402145834099635
-0.16270000000000007,-30.62849964207804
-0.16370000000000018,-30.854853450056453
-0.16470000000000007,-30.812412111060496
-0.16570000000000018,-31.392443744005163
-0.16670000000000007,-31.49147353499572
-0.16770000000000018,-31.675386003978172
-0.16870000000000007,-32.09979939393769
-0.16970000000000018,-32.269564749921486
-0.17070000000000007,-32.32615320191609
-0.17170000000000019,-32.4676243319026
-0.17270000000000008,-32.70812525287965
-0.1737000000000002,-33.13253864283916
-0.17470000000000008,-33.288156885824314
-0.1757000000000002,-33.54280491980002
-0.17670000000000008,-33.712570275783825
-0.1777000000000002,-34.02380676175414
-0.17870000000000008,-34.4906614907096
-0.1797000000000002,-34.67457395969205
-0.18070000000000008,-35.12728157564886
-0.1817000000000002,-34.99995755866101
-0.18270000000000008,-35.594136304604326
-0.1837000000000002,-35.693166095594876
-0.1847000000000001,-35.97610835556789
-0.1857000000000002,-36.5136986495166
-0.1867000000000001,-36.655169779503105
-0.1877000000000002,-37.07958316946261
-0.1887000000000001,-37.206907186450465
-0.1897000000000002,-36.99470049147071
-0.1907000000000001,-37.41911388143023
-0.1917000000000001,-37.758644593397825
-0.19269999999999998,-37.98499840137623
-0.1937000000000001,-38.480147356329
-0.19469999999999998,-38.81967806829661
-0.1957000000000001,-39.074326102272316
-0.19669999999999999,-39.314827023249364
-0.1977000000000001,-39.229944345257465
-0.1987,-39.59776928322238
-0.1997000000000001,-39.75338752620753
-0.2007,-39.68265196121428
-0.2017000000000001,-40.27683070715759
-0.2027,-40.531478741133306
-0.2037000000000001,-40.68709698411846
-0.2047,-40.94174501809416
-0.2057000000000001,-41.05492192208336
-0.2067,-41.59251221603208
-0.2077000000000001,-41.73398334601858
-0.2087,-42.05936694498754
-0.2097000000000001,-42.3281620919619
-0.2107,-42.51207456094435
-0.2117000000000001,-42.80916393391601
-0.2127,-42.766722594920054
-0.2137000000000001,-43.148694645883616
-0.2147,-43.629696487837734
-0.2157000000000001,-43.74287339182693
-0.2167,-44.3511992507689
-0.21770000000000012,-44.36534636376755
-0.2187,-44.73317130173246
-0.21970000000000012,-44.605847284744605
-0.2207,-44.704877075735155
-0.22170000000000012,-44.91708377071491
-0.2227,-44.86049531872031
-0.22370000000000012,-45.07270201370007
-0.2247,-45.38393849967037
-0.22570000000000012,-45.42637983866633
-0.2267,-45.75176343763528
-0.22770000000000012,-45.85079322862584
-0.22870000000000001,-46.091294149602895
-0.22970000000000013,-46.2327652795894
-0.23070000000000002,-46.289353731584
-0.23170000000000013,-46.67132578254756
-0.23270000000000002,-46.43082486157051
-0.23370000000000013,-46.3176479575813
-0.23470000000000002,-46.38838352257455
-0.23570000000000013,-46.162029714596144
-0.23670000000000002,-46.515707539562406
-0.2376999999999999,-46.713767121543505
-0.23870000000000002,-46.95426804252057
-0.2396999999999999,-46.95426804252057
-0.24070000000000003,-46.82694402553272
-0.24169999999999991,-46.77035557353811
-0.24270000000000003,-46.586443104555656
-0.24369999999999992,-46.529854652561056
-0.24470000000000003,-46.43082486157051
-0.24569999999999992,-46.515707539562406
-0.24670000000000003,-46.218618166590744
-0.24769999999999992,-46.3176479575813
-0.24870000000000003,-46.529854652561056
-0.24969999999999992,-46.034705697608295
-0.25070000000000003,-46.062999923605595
-0.2516999999999999,-45.10099623969737
-0.25270000000000004,-44.95952510971087
-0.2536999999999999,-44.506817493754056
-0.25470000000000004,-44.3511992507689
-0.2556999999999999,-44.30875791177294
-0.25670000000000004,-43.95508008680669
-0.25769999999999993,-43.558960922844484
-0.25870000000000004,-43.106253306887666
-0.25969999999999993,-42.45548610894975
-0.26070000000000004,-42.28572075296594
-0.26169999999999993,-41.76227757201589
-0.26270000000000004,-41.46518819904423
-0.26369999999999993,-41.210540165068515
-0.26470000000000005,-40.78612677510901
-0.26569999999999994,-40.68709698411846
-0.26670000000000005,-40.20609514216434
-0.26769999999999994,-39.95144710818864
-0.26870000000000005,-40.20609514216434
-0.26969999999999994,-37.98499840137623
-0.27070000000000005,-38.211352209354644
-0.27169999999999994,-38.16891087035869
-0.27270000000000005,-36.88152358748151
-0.27369999999999994,-37.34837831643697
-0.27470000000000006,-36.37222751953009
-0.27569999999999995,-36.06099103355979
-0.27670000000000006,-35.679018982596226
-0.27769999999999995,-35.14142868864751
-0.27870000000000006,-35.05654601065561
-0.27969999999999995,-34.787750863681254
-0.28070000000000006,-34.47651437771095
-0.28169999999999995,-34.43407303871499
-0.28270000000000006,-34.25016056973254
-0.28369999999999995,-33.93892408376223
-0.28470000000000006,-33.85404140577033
-0.28569999999999995,-33.52865780680137
-0.28670000000000007,-33.54280491980002
-0.28769999999999996,-33.670128936787876
-0.28870000000000007,-33.11839152984051
-0.28969999999999996,-33.373039563816214
-0.29070000000000007,-33.48621646780542
-0.29169999999999996,-33.316451111821614
-0.29270000000000007,-33.670128936787876
-0.29369999999999996,-33.670128936787876
-0.2947000000000001,-33.95307119676088
-0.29569999999999996,-34.15113077874198
-0.2967000000000001,-34.03795387475279
-0.29769999999999996,-34.278454795729836
-0.2987000000000001,-34.53310282970554
-0.29969999999999997,-34.731162411686654
-0.3007000000000001,-35.48095940061512
-0.30169999999999997,-35.806342999584075
-0.3027000000000001,-36.07513814655844
-0.30369999999999997,-36.61272844050715
-0.3047000000000001,-36.81078802248826
-0.30569999999999997,-37.32008409043967
-0.3067000000000001,-37.645467689408626
-0.3077,-38.140616644361394
-0.3087000000000001,-38.777236729300654
-0.3097,-39.21579723225882
-0.3107000000000001,-39.52703371822913
-0.3117,-39.95144710818864
-0.3127000000000001,-39.86656443019674
-0.3137,-40.95589213109281
-0.3147000000000001,-40.85686234010226
-0.3157,-41.96033715399699
-0.3167000000000001,-42.3281620919619
-0.3177,-42.97892928989981
-0.3187000000000001,-43.78531473082289
-0.3197,-44.223875233781044
-0.3207000000000001,-45.157584691691966
-0.3217,-45.624439420647434
-0.3227000000000001,-46.36008929657725
-0.3237,-47.13818051150302
-0.3247000000000001,-47.54844678846388
-0.3257,-48.12847842140855
-0.3267000000000001,-48.48215624637481
-0.3277,-49.23195323530328
-0.3287000000000001,-49.86857332024254
-0.3297,-50.78813566515482
-0.3307000000000001,-51.25499039411028
-0.3317,-51.73599223606439
-0.3327000000000001,-52.64140746797801
-0.3337,-52.95264395394832
-0.3347000000000001,-53.71658805587545
-0.3357,-54.52297349679851
-0.3367000000000001,-55.20203492073373
-0.3377,-56.24892128263386
-0.3387000000000001,-57.111895175551524
-0.3397,-57.9465748424719
-0.3407000000000001,-57.9465748424719
-0.3417,-57.93242772947325
-0.3427000000000001,-59.61593417631264
-0.3437,-59.51690438532209
-0.3447000000000001,-60.91746857218848
-0.3457,-61.95020782108996
-0.3467000000000001,-62.27559142005891
-0.3477,-63.69030271992394
-0.3487000000000001,-63.944950753899654
-0.3497,-64.92110155080654
-0.3507000000000001,-65.8123696697215
-0.3517,-67.01487427460678
-0.3527000000000001,-67.9202895065204
-0.3537,-68.14664331449882
-0.3547000000000001,-68.93888164242324
-0.3557,-69.6320901793571
-0.35670000000000013,-70.29700449029367
-0.3577,-71.38633219118975
-0.35870000000000013,-72.16442340611552
-0.3597,-73.43766357599405
-0.36070000000000013,-74.07428366093333
-0.3617,-74.72505085887124
-0.3626999999999999,-75.7294958817754
-0.3637,-76.40855730571064
-0.3646999999999999,-77.32811965062291
-0.3657,-78.37500601252303
-0.3666999999999999,-79.42189237442317
-0.3677,-80.41219028432867
-0.3686999999999999,-81.1761343862558
-0.36970000000000003,-82.02496116617483
-0.3706999999999999,-84.13288100297372
-0.37170000000000003,-84.40167614994809
-0.3726999999999999,-84.06214543798048
-0.37370000000000003,-86.11347682278479
-0.3746999999999999,-86.8774209247119
-0.37570000000000003,-87.88186594761608
-0.3766999999999999,-89.28243013448247
-0.37770000000000004,-89.31072436047977
-0.3786999999999999,-91.00837792031781
-0.37970000000000004,-91.95623449122738
-0.3806999999999999,-92.7201785931545
-0.38170000000000004,-94.50271483098444
-0.38269999999999993,-94.91298110794531
-0.38370000000000004,-95.90327901785083
-0.38469999999999993,-97.02090094474423
-0.38570000000000004,-97.64337391668484
-0.38669999999999993,-97.69996236867944
-0.38570000000000004,-95.83254345285758
-0.38469999999999993,-91.26302595429351
-0.38370000000000004,-92.23917675120039
-0.38269999999999993,-90.20199247939475
-0.38170000000000004,-88.49019180655806
-0.3806999999999999,-87.44330544465792
-0.37970000000000004,-86.12762393578342
-0.3786999999999999,-84.75535397491434
-0.37770000000000004,-83.35478978804795
-0.3766999999999999,-82.43522744313569
-0.37570000000000003,-81.44492953323017
-0.3746999999999999,-80.44048451032599
-0.37370000000000003,-79.67654040839886
-0.3726999999999999,-78.88430208047446
-0.37170000000000003,-77.61106191059591
-0.3706999999999999,-76.63491111368903
-0.36970000000000003,-75.14946424883075
-0.3686999999999999,-74.42796148589959
-0.3677,-73.52254625398596
-0.3666999999999999,-72.36248298809663
-0.3657,-71.86733403314386
-0.3646999999999999,-70.39603428128423
-0.3637,-69.8018555353409
-0.3626999999999999,-68.62764515645293
-0.3617,-67.4675818905636
-0.36070000000000013,-67.07146272660138
-0.3597,-66.01042925170262
-0.35870000000000013,-64.82207175981598
-0.3577,-63.39321334695229
-0.35670000000000013,-62.58682790602922
-0.3557,-61.921913595092654
-0.3547000000000001,-60.95990991118443
-0.3537,-60.30914271324652
-0.3527000000000001,-59.587639950315335
-0.3517,-58.880284300382826
-0.3507000000000001,-57.79095659948675
-0.3497,-56.871394254574476
-0.3487000000000001,-56.13574437864466
-0.3477,-55.14544646873913
-0.3467000000000001,-54.26832546282281
-0.3457,-53.39120445690648
-0.3447000000000001,-52.45749499899556
-0.3437,-51.7642864620617
-0.3427000000000001,-50.88716545614537
-0.3417,-50.109074241219595
-0.3407000000000001,-49.062187879319474
-0.3397,-48.609480263362656
-0.3387000000000001,-47.27965164148953
-0.3377,-46.3459421835786
-0.3367000000000001,-45.46882117766227
-0.3357,-44.43608192876081
-0.3347000000000001,-43.85605029581614
-0.3337,-43.40334267985933
-0.3327000000000001,-42.6111043519349
-0.3317,-42.14424962297944
-0.3307000000000001,-41.267128617063115
-0.3297,-40.48903740213735
-0.3287000000000001,-39.78168175220483
-0.3277,-39.03188476327636
-0.3267000000000001,-38.522588695324956
-0.3257,-37.60302635041268
-0.3247000000000001,-36.83908224848555
-0.3237,-36.21660927654494
-0.3227000000000001,-35.169722914644815
-0.3217,-34.56139705570285
-0.3207000000000001,-33.924776970763574
-0.3197,-33.11839152984051
-0.3187000000000001,-32.90618483486075
-0.3177,-32.02906382894443
-0.3167000000000001,-31.36414951800786
-0.3157,-30.571911190083444
-0.3147000000000001,-29.96358533114148
-0.3137,-29.38355369819681
-0.3127000000000001,-28.80352206525215
-0.3117,-28.166901980312883
-0.3107000000000001,-27.685900138358768
-0.3097,-27.0775742794168
-0.3087000000000001,-26.723896454450543
-0.3077,-26.11557059550858
-0.3067000000000001,-25.351626493581456
-0.30569999999999997,-24.74330063463949
-0.3047000000000001,-24.149121888696175
-0.30369999999999997,-23.54079602975421
-0.3027000000000001,-23.073941300798747
-0.30169999999999997,-22.437321215859484
-0.3007000000000001,-21.97046648690402
-0.29969999999999997,-21.43287619295531
-0.2987000000000001,-21.093345480987697
-0.29769999999999996,-20.584049413036283
-0.2967000000000001,-20.01816489309027
-0.29569999999999996,-19.339103469155052
-0.2947000000000001,-18.91469007919554
-0.29369999999999996,-18.461982463238726
-0.29270000000000007,-17.867803717295413
-0.29169999999999996,-17.2736249713521
-0.29070000000000007,-16.835064468393938
-0.28969999999999996,-16.29747417444522
-0.28870000000000007,-15.957943462477614
-0.28769999999999996,-15.3920589425316
-0.28670000000000007,-14.953498439573437
-0.28569999999999995,-14.543232162612577
-0.28470000000000006,-14.03535080596103
-0.28369999999999995,-13.67318471319558
-0.28270000000000006,-13.17662104694295
-0.28169999999999995,-12.556977497602066
-0.28070000000000006,-12.251399856831219
-0.27969999999999995,-11.750592056678995
-0.27870000000000006,-11.35022875881719
-0.27769999999999995,-10.859323937764021
-0.27670000000000006,-10.45471650600262
-0.27569999999999995,-10.177433091229075
-0.27470000000000006,-9.902979099055257
-0.27369999999999994,-9.552130696688728
-0.27270000000000005,-9.130546729328946
-0.27169999999999994,-8.71320689586876
-0.27070000000000005,-8.28030523811006
-0.26969999999999994,-7.838915312552168
-0.26870000000000005,-7.526264115281995
-0.26769999999999994,-7.185318692014522
-0.26670000000000005,-6.903791143341379
-0.26569999999999994,-6.612360615569181
