Potential V vs RHE, Current mA cm-2
0.013299999999999867,6.088917434619118
0.012299999999999978,4.695426804252056
0.011299999999999866,3.67683466834923
0.010299999999999976,2.8817669178250793
0.009299999999999864,2.230999719887163
0.008299999999999974,1.6919947146385839
0.007299999999999862,1.1954310483859558
0.006299999999999972,0.7439966725990228
0.00529999999999986,0.34858486428674507
0.0042999999999999705,-0.01950886882513886
0.0032999999999998586,-0.3580634299958408
0.0022999999999999687,-0.6807590774950557
0.0012999999999998568,-0.9965226396249317
0.00029999999999996696,-1.290924061126846
-0.000700000000000145,-1.55052358465208
-0.0017000000000000348,-1.7980980621284617
-0.0027000000000001467,-2.023037158807002
-0.0037000000000000366,-2.2677822136836534
-0.0047000000000001485,-2.49413602166206
-0.005700000000000038,-2.7035132940420854
-0.00670000000000015,-2.877522783925485
-0.00770000000000004,-3.0515322738088844
-0.008700000000000152,-3.2453477218903943
-0.009700000000000042,-3.4207719230736586
-0.010700000000000154,-3.6131726598553033
-0.011700000000000044,-3.7320084090439667
-0.012700000000000156,-3.855088292132225
-0.013700000000000045,-3.9979741334185936
-0.014700000000000157,-4.157836510303343
-0.015700000000000047,-4.278086970791871
-0.01670000000000016,-4.381360895682018
-0.01770000000000005,-4.514343757869332
-0.01870000000000016,-4.640253063557321
-0.01970000000000005,-4.771821214444769
-0.020700000000000163,-4.876509850634781
-0.021700000000000053,-4.947245415628033
-0.022700000000000164,-5.050519340518181
-0.023700000000000054,-5.166525667107114
-0.024700000000000166,-5.295264395394832
-0.025700000000000056,-5.4027824541845755
-0.026700000000000168,-5.523032914673103
-0.027700000000000058,-5.549912429370539
-0.02870000000000017,-5.658845199460147
-0.02970000000000006,-5.756460279150835
-0.03070000000000017,-5.7974869068469195
-0.03170000000000006,-5.8682224718401725
-0.03270000000000017,-5.975740530629915
-0.03370000000000006,-6.090332145918983
-0.034700000000000175,-6.197850204708726
-0.035700000000000065,-6.281318171400763
-0.03670000000000018,-6.2954652843994126
-0.03770000000000007,-6.349224313794284
-0.03870000000000018,-6.460986506483622
-0.03970000000000007,-6.518989669778089
-0.04070000000000018,-6.642069552866347
-0.04170000000000007,-6.681681469262568
-0.04270000000000018,-6.77222299245393
-0.04370000000000007,-6.854276247846103
-0.044700000000000184,-6.903791143341379
-0.045700000000000074,-6.910864699840705
-0.046700000000000186,-7.002820934331931
-0.047700000000000076,-7.104680147922214
-0.04870000000000019,-7.161268599916816
-0.04970000000000008,-7.256054257007774
-0.05070000000000019,-7.305569152503049
-0.05170000000000008,-7.33952222369981
-0.05270000000000019,-7.401769520893872
-0.05370000000000008,-7.466846240687664
-0.05470000000000019,-7.582852567276596
-0.05570000000000008,-7.638026307971333
-0.056700000000000195,-7.70734716166472
-0.057700000000000085,-7.807791663955138
-0.058700000000000196,-7.853062425550818
-0.059700000000000086,-7.92379799054407
-0.0607000000000002,-8.038389605833139
-0.06170000000000009,-8.181275447119509
-0.0627000000000002,-8.227960920015054
-0.06370000000000009,-8.219472652215863
-0.0647000000000002,-8.264743413811544
-0.06570000000000009,-8.370846761301422
-0.0667000000000002,-8.433094058495483
-0.0677000000000001,-8.526465004286575
-0.0687000000000002,-8.629738929176723
-0.0697000000000001,-8.72169516366795
-0.07070000000000021,-8.816480820758908
-0.0717000000000001,-8.841945624156478
-0.07270000000000021,-8.919754745649056
-0.0737000000000001,-8.998978578441498
-0.07470000000000021,-9.056981741735965
-0.0757000000000001,-9.151767398826921
-0.07670000000000021,-9.208355850821524
-0.0777000000000001,-9.293238528813426
-0.07870000000000021,-9.433294947500064
-0.0797000000000001,-9.583254345285757
-0.08070000000000022,-9.724725475272262
-0.0817000000000001,-9.764337391668482
-0.08270000000000022,-9.679454713676583
-0.08370000000000011,-9.81385228716376
-0.08470000000000022,-10.004838312645537
-0.08570000000000011,-10.076988588938656
-0.08670000000000022,-10.163285978230423
-0.08770000000000011,-10.267974614420435
-0.08870000000000022,-10.354272003712204
-0.08970000000000011,-10.491498999799111
-0.09070000000000022,-10.634384841085481
-0.09170000000000011,-10.700876272179137
-0.09270000000000023,-10.705120406078734
-0.09370000000000012,-10.843762113465505
-0.09470000000000023,-10.96259786265417
-0.09570000000000012,-11.041821695446613
-0.09670000000000023,-11.119630816939189
-0.09770000000000012,-11.310616842420966
-0.09870000000000023,-11.374278850914896
-0.09970000000000012,-11.528482382600183
-0.10070000000000023,-11.559606031197214
-0.10170000000000012,-11.671368223886553
-0.10270000000000024,-11.74917734537913
-0.10370000000000013,-11.924601546562394
-0.10470000000000024,-12.095781613846063
-0.10570000000000013,-12.214617363034726
-0.10670000000000024,-12.397115120717316
-0.10770000000000013,-12.459362417911377
-0.10870000000000024,-12.440971171013134
-0.10970000000000013,-12.507462602106788
-0.11070000000000024,-12.668739690291403
-0.11170000000000013,-12.830016778476018
-0.11270000000000002,-12.97431733106225
-0.11370000000000013,-13.11720317234862
-0.11470000000000002,-13.251600745835798
-0.11570000000000014,-13.38175418542338
-0.11670000000000003,-13.414292545320276
-0.11770000000000014,-13.612352127301383
-0.11870000000000003,-13.765140947686808
-0.11970000000000014,-13.874073717776414
-0.12070000000000003,-13.998568312164537
-0.12170000000000014,-14.175407224647667
-0.12270000000000003,-14.274437015638219
-0.12370000000000014,-14.387613919627421
-0.12470000000000003,-14.500790823616628
-0.12570000000000014,-14.599820614607177
-0.12670000000000003,-14.769585970590983
-0.12770000000000015,-14.896909987578834
-0.12870000000000004,-15.05252823056399
-0.12970000000000015,-15.264734925543747
-0.13070000000000004,-15.43450028152755
-0.13170000000000015,-15.561824298515406
-0.13270000000000004,-15.618412750510005
-0.13370000000000015,-15.858913671487063
-0.13470000000000004,-16.085267479465468
-0.13570000000000015,-16.15600304445872
-0.13670000000000004,-16.28332706144657
-0.13770000000000016,-16.453092417430376
-0.13870000000000005,-16.651151999411482
-0.13970000000000016,-16.849211581392588
-0.14070000000000005,-16.94824137238314
-0.14170000000000016,-16.97653559838044
-0.14270000000000005,-17.103859615368293
-0.14370000000000016,-17.358507649344002
-0.14470000000000005,-17.528273005327804
-0.14570000000000016,-17.72633258730891
-0.14670000000000005,-17.952686395287316
-0.14770000000000016,-18.08001041227517
-0.14870000000000005,-18.40539401124413
-0.14970000000000017,-18.47612957623738
-0.15070000000000006,-18.518570915233333
-0.15170000000000017,-18.716630497214435
-0.15270000000000006,-18.91469007919554
-0.15370000000000017,-19.042014096183394
-0.15470000000000006,-19.211779452167196
-0.15570000000000017,-19.28251501716045
-0.15670000000000006,-19.409839034148305
-0.15770000000000017,-19.622045729128057
-0.15870000000000006,-19.904987989101066
-0.15970000000000018,-20.159636023076775
-0.16070000000000007,-20.21622447507137
-0.16170000000000018,-20.48501962204573
-0.16270000000000007,-20.654784978029536
-0.16370000000000018,-20.85284456001064
-0.16470000000000007,-21.036757028993097
-0.16570000000000018,-21.22066949797555
-0.16670000000000007,-21.2348166109742
-0.16770000000000018,-21.347993514963402
-0.16870000000000007,-21.560200209943158
-0.16970000000000018,-21.857289582914817
-0.17070000000000007,-22.055349164895922
-0.17170000000000019,-22.012907825899973
-0.17270000000000008,-22.210967407881075
-0.1737000000000002,-22.42317410286083
-0.17470000000000008,-22.621233684841933
-0.1757000000000002,-22.776851927827092
-0.17670000000000008,-22.960764396809545
-0.1777000000000002,-23.017352848804148
-0.17870000000000008,-23.15882397879065
-0.1797000000000002,-23.24370665678255
-0.18070000000000008,-23.399324899767706
-0.1817000000000002,-23.639825820744765
-0.18270000000000008,-23.823738289727217
-0.1837000000000002,-23.96520941971372
-0.1847000000000001,-24.120827662698876
-0.1857000000000002,-24.304740131681328
-0.1867000000000001,-24.27644590568403
-0.1877000000000002,-24.40376992267188
-0.1887000000000001,-24.432064148669184
-0.1897000000000002,-24.61597661765164
-0.1907000000000001,-24.74330063463949
-0.1917000000000001,-24.828183312631392
-0.19269999999999998,-24.95550732961925
-0.1937000000000001,-25.0828313466071
-0.19469999999999998,-25.210155363594954
-0.1957000000000001,-25.196008250596304
-0.19669999999999999,-25.026242894612498
-0.1977000000000001,-25.280890928588207
-0.1987,-25.337479380582806
-0.1997000000000001,-25.323332267584156
-0.2007,-25.478950510569312
-0.2017000000000001,-25.351626493581456
-0.2027,-25.37992071957876
-0.2037000000000001,-25.507244736566612
-0.2047,-25.478950510569312
-0.2057000000000001,-25.37992071957876
-0.2067,-25.43650917157336
-0.2077000000000001,-25.507244736566612
-0.2087,-25.39406783257741
-0.2097000000000001,-25.43650917157336
-0.2107,-25.351626493581456
-0.2117000000000001,-25.196008250596304
-0.2127,-25.026242894612498
-0.2137000000000001,-24.997948668615198
-0.2147,-25.012095781613848
-0.2157000000000001,-24.898918877624645
-0.2167,-24.771594860636792
-0.21770000000000012,-24.65841795664759
-0.2187,-24.502799713662437
-0.21970000000000012,-24.40376992267188
-0.2207,-24.092533436701576
-0.22170000000000012,-23.86617962872317
-0.2227,-23.795444063729917
-0.22370000000000012,-23.56909025575151
-0.2247,-23.2012653177866
-0.22570000000000012,-22.932470170812245
-0.2267,-22.819293266823045
-0.22770000000000012,-22.564645232847337
-0.22870000000000001,-22.097790503891872
-0.22970000000000013,-22.012907825899973
-0.23070000000000002,-21.814848243918867
-0.23170000000000013,-21.347993514963402
-0.23270000000000002,-21.093345480987697
-0.23370000000000013,-20.76796188201874
-0.23470000000000002,-20.47087250904708
-0.23570000000000013,-20.13134179707947
-0.23670000000000002,-19.77766397211321
-0.2376999999999999,-19.508868825138855
-0.23870000000000002,-19.339103469155052
-0.2396999999999999,-19.01371987018609
-0.24070000000000003,-18.716630497214435
-0.24169999999999991,-18.377099785246827
-0.24270000000000003,-18.122451751271118
-0.24369999999999992,-17.867803717295413
-0.24470000000000003,-17.669744135314307
-0.24569999999999992,-17.528273005327804
-0.24670000000000003,-17.37265476234265
-0.24769999999999992,-17.34436053634535
-0.24870000000000003,-17.231183632356142
-0.24969999999999992,-16.806770242396635
-0.25070000000000003,-16.665299112410132
-0.2516999999999999,-16.580416434418233
-0.25270000000000004,-16.46723953042903
-0.2536999999999999,-16.396503965435777
-0.25470000000000004,-16.368209739438473
-0.2556999999999999,-16.325768400442524
-0.25670000000000004,-16.22673860945197
-0.25769999999999993,-16.311621287443874
-0.25870000000000004,-16.396503965435777
-0.25969999999999993,-16.424798191433077
-0.26070000000000004,-16.453092417430376
-0.26169999999999993,-16.52382798242363
-0.26270000000000004,-16.637004886412832
-0.26369999999999993,-16.778476016399335
-0.26470000000000005,-16.93409425938449
-0.26569999999999994,-17.103859615368293
-0.26670000000000005,-17.2453307453548
-0.26769999999999994,-17.386801875341302
-0.26870000000000005,-17.683891248312957
-0.26969999999999994,-17.910245056291366
-0.27070000000000005,-17.938539282288666
-0.27169999999999994,-18.17904020326572
-0.27270000000000005,-18.433688237241427
-0.27369999999999994,-18.716630497214435
-0.27470000000000006,-19.042014096183394
-0.27569999999999995,-19.353250582153702
-0.27670000000000006,-19.565457277133458
-0.27769999999999995,-19.919135102099716
-0.27870000000000006,-20.159636023076775
-0.27969999999999995,-20.44257828304978
-0.28070000000000006,-20.838697447011988
-0.28169999999999995,-21.13578681998365
-0.28270000000000006,-21.319699288966106
-0.28369999999999995,-21.68752422693101
-0.28470000000000006,-22.126084729889175
-0.28569999999999995,-22.40902698986218
-0.28670000000000007,-22.790999040825742
-0.28769999999999996,-23.187118204787954
-0.28870000000000007,-23.653972933743415
-0.28969999999999996,-23.97935653271237
-0.29070000000000007,-24.31888724467998
-0.29169999999999996,-24.729153521640843
-0.29270000000000007,-25.252596702590903
-0.29369999999999996,-25.747745657543668
-0.2947000000000001,-26.483395533473487
-0.29569999999999996,-26.69560222845324
-0.2967000000000001,-27.0775742794168
-0.29769999999999996,-27.417104991384413
-0.2987000000000001,-28.05372507632368
-0.29969999999999997,-28.12446064131693
-0.3007000000000001,-28.577168257273744
-0.30169999999999997,-29.32696524620221
-0.3027000000000001,-30.260674704113132
-0.30369999999999997,-30.769970772064546
-0.3047000000000001,-31.250972614018657
-0.30569999999999997,-31.76026868197007
-0.3067000000000001,-32.22712341092554
-0.3077,-32.73641947887695
-0.3087000000000001,-33.00521462585131
-0.3097,-33.302303998822964
-0.3107000000000001,-33.98136542275818
-0.3117,-34.53310282970554
-0.3127000000000001,-35.07069312365426
-0.3137,-35.636577643600276
-0.3147000000000001,-36.27319772853954
-0.3157,-36.96640626547341
-0.3167000000000001,-37.60302635041268
-0.3177,-38.4518531303317
-0.3187000000000001,-39.01773765027771
-0.3197,-39.28653279725207
-0.3207000000000001,-39.80997597820213
-0.3217,-40.68709698411846
-0.3227000000000001,-41.49348242504152
-0.3237,-42.29986786596459
-0.3247000000000001,-42.738428368922754
-0.3257,-43.38919556686068
-0.3267000000000001,-43.91263874781074
-0.3277,-44.45022904175945
-0.3287000000000001,-45.20002603068792
-0.3297,-45.76591055063393
-0.3307000000000001,-46.36008929657725
-0.3317,-47.15232762450167
-0.3327000000000001,-48.01530151741934
-0.3337,-48.83583407134107
-0.3347000000000001,-49.571483947270885
-0.3357,-50.34957516219666
-0.3367000000000001,-51.17010771611838
-0.3377,-52.1886998520212
-0.3387000000000001,-52.88190838895507
-0.3397,-53.33461600491189
-0.3407000000000001,-53.84391207286329
-0.3417,-54.904945547762075
-0.3427000000000001,-55.626448310693235
-0.3437,-56.43283375161632
-0.3447000000000001,-56.84310002857717
-0.3457,-57.79095659948675
-0.3467000000000001,-58.41342957142736
-0.3477,-58.90857852638013
-0.3487000000000001,-59.842287984291055
-0.3497,-60.70526187720872
-0.3507000000000001,-61.7380011261102
-0.3517,-62.98294706999144
-0.3527000000000001,-64.0439805448902
-0.3537,-64.28448146586726
-0.3547000000000001,-64.97769000280114
-0.3557,-65.93969368670936
-0.35670000000000013,-66.76022624063107
-0.3577,-67.84955394152715
-0.35870000000000013,-68.82570473843404
-0.3597,-69.44817771037465
-0.36070000000000013,-70.43847562028017
-0.3617,-71.15997838321134
-0.3626999999999999,-72.07954072812362
-0.3637,-73.04154441203184
-0.3646999999999999,-73.77719428796166
-0.3657,-74.38552014690363
-0.3666999999999999,-75.2484940398213
-0.3677,-76.28123328872279
-0.3686999999999999,-77.41300232861481
-0.36970000000000003,-78.50233002951089
-0.3706999999999999,-78.72868383748929
-0.37170000000000003,-79.33700969643127
-0.3726999999999999,-80.38389605833139
-0.37370000000000003,-81.61469488921396
-0.3746999999999999,-82.36449187814243
-0.37570000000000003,-82.97281773708441
-0.3766999999999999,-84.06214543798048
-0.37770000000000004,-85.40612117285227
-0.3786999999999999,-86.29738929176723
-0.37970000000000004,-87.075480506693
-0.3806999999999999,-88.17895532058775
-0.38170000000000004,-89.15510611749461
-0.38269999999999993,-89.66440218544602
-0.38370000000000004,-91.07911348531105
-0.38469999999999993,-92.19673541220443
-0.38570000000000004,-92.81920838414506
-0.38669999999999993,-92.28161809019635
-0.38570000000000004,-90.37175783537855
-0.38469999999999993,-88.9287523095162
-0.38370000000000004,-87.72624770463094
-0.38269999999999993,-86.38227196975915
-0.38170000000000004,-85.16562025187521
-0.3806999999999999,-84.33094058495485
-0.37970000000000004,-83.45381957903851
-0.3786999999999999,-82.47766878213164
-0.37770000000000004,-82.10984384416672
-0.3766999999999999,-80.7517209962963
-0.37570000000000003,-79.0399203234596
-0.3746999999999999,-78.09206375255003
-0.37370000000000003,-77.03103027765125
-0.3726999999999999,-76.15390927173492
-0.37170000000000003,-75.2484940398213
-0.3706999999999999,-74.21575479091983
-0.36970000000000003,-73.3669280110008
-0.3686999999999999,-72.70201370006424
-0.3677,-72.06539361512496
-0.3666999999999999,-70.50921118527343
-0.3657,-69.26426524139221
-0.3646999999999999,-68.45787980046913
-0.3637,-67.62320013354876
-0.3626999999999999,-66.43484264166212
-0.3617,-65.4162505057593
-0.36070000000000013,-64.65230640383218
-0.3597,-63.74689117191855
-0.35870000000000013,-63.54883158993744
-0.3577,-62.74244614901438
-0.35670000000000013,-61.6531184481183
-0.3557,-61.03064547617768
-0.3547000000000001,-60.11108313126541
-0.3537,-59.17737367335449
-0.3527000000000001,-58.14463442445301
-0.3517,-56.84310002857717
-0.3507000000000001,-56.022567474655446
-0.3497,-55.541565632701335
-0.3487000000000001,-54.66444462678501
-0.3477,-53.7873236208687
-0.3467000000000001,-53.16485064892808
-0.3457,-52.31602386900906
-0.3447000000000001,-51.77843357506035
-0.3437,-50.78813566515482
-0.3427000000000001,-49.8261319812466
-0.3417,-49.21780612230463
-0.3407000000000001,-48.43971490737886
-0.3397,-47.74650637044499
-0.3387000000000001,-47.13818051150302
-0.3377,-46.2327652795894
-0.3367000000000001,-45.63858653364609
-0.3357,-45.18587891768927
-0.3347000000000001,-44.45022904175945
-0.3337,-43.53066669684718
-0.3327000000000001,-42.738428368922754
-0.3317,-42.158396735978094
-0.3307000000000001,-41.40859974704962
-0.3297,-40.43244895014274
-0.3287000000000001,-39.76753463920618
-0.3277,-39.229944345257465
-0.3267000000000001,-38.607471373316855
-0.3257,-38.01329262737354
-0.3247000000000001,-37.192760073451815
-0.3237,-36.570287101511205
-0.3227000000000001,-36.16002082455034
-0.3217,-35.38192960962457
-0.3207000000000001,-34.67457395969205
-0.3197,-34.16527789174064
-0.3187000000000001,-33.41548090281216
-0.3177,-32.5525070098945
-0.3167000000000001,-31.873445585959274
-0.3157,-31.392443744005163
-0.3147000000000001,-30.769970772064546
-0.3137,-30.11920357412663
-0.3127000000000001,-29.55331905418062
-0.3117,-28.97328742123595
-0.3107000000000001,-28.647903822266994
-0.3097,-28.15275486731423
-0.3087000000000001,-27.459546330380363
-0.3077,-26.89366181043435
-0.3067000000000001,-26.525836872469437
-0.30569999999999997,-25.86092256153287
-0.3047000000000001,-25.43650917157336
-0.30369999999999997,-24.771594860636792
-0.3027000000000001,-24.134974775697525
-0.30169999999999997,-23.682267159740714
-0.3007000000000001,-23.144676865792
-0.29969999999999997,-22.66367502383789
-0.2987000000000001,-22.196820294882425
-0.29769999999999996,-21.503611757948562
-0.2967000000000001,-20.994315689997144
-0.29569999999999996,-20.640637865030882
-0.2947000000000001,-20.202077362072725
-0.29369999999999996,-19.749369746115914
-0.29270000000000007,-19.381544808151002
-0.29169999999999996,-19.452280373144255
-0.29070000000000007,-18.674189158218486
-0.28969999999999996,-18.05171618627787
-0.28870000000000007,-17.613155683319707
-0.28769999999999996,-17.174595180361546
-0.28670000000000007,-16.750181790402035
-0.28569999999999995,-16.368209739438473
-0.28470000000000006,-16.000384801473565
-0.28369999999999995,-15.816472332491113
-0.28270000000000006,-15.335470490536997
-0.28169999999999995,-14.911057100577487
-0.28070000000000006,-14.430055258623375
-0.27969999999999995,-14.009886002563457
-0.27870000000000006,-13.592546169103274
-0.27769999999999995,-13.169547490443627
-0.27670000000000006,-12.842749180174803
-0.27569999999999995,-12.49331548910814
-0.27470000000000006,-12.150955354540802
-0.27369999999999994,-11.842548291170223
-0.27270000000000005,-11.477552775805044
-0.27169999999999994,-11.026259871148095
-0.27070000000000005,-10.686729159180487
-0.26969999999999994,-10.392469208808558
-0.26870000000000005,-10.071329743739195
-0.26769999999999994,-9.721896052672532
-0.26670000000000005,-9.389438897204249
