Aug. 20, 2024   01:12:11
Cyclic Voltammetry
File: c:/users/guazh/data/20240813_batch_94_500/2024-08-15-exp136\exp136-2024-08-20t00_48_51-arkoh\exp136_cv_sr_400mvs_efin_-1800mv.bin
Data Source:  Experiment
Instrument Model:  CHI760E
Header: CV ran at 400 mVs
Note: 

Init E (V) = -1
High E (V) = -1
Low E (V) = -1.8
Final E (V) = -1
Init P/N = N
Scan Rate (V/s) = 0.4
Segment = 3
Sample Interval (V) = 0.001
Quiet Time (sec) = 2
Sensitivity (A/V) = 0.01
Comp R (ohm) = 1.6

Results:

Channel 1:
Segment 1:

Segment 2:

Segment 3:

Potential/V, Current/A

-1.000, 3.239e-6
-1.001, 3.239e-6
-1.002, 3.239e-6
-1.003, 3.239e-6
-1.004, 3.239e-6
-1.005, 3.239e-6
-1.006, 3.239e-6
-1.007, 6.322e-6
-1.008, 6.322e-6
-1.009, 6.322e-6
-1.010, 3.239e-6
-1.011, 3.239e-6
-1.012, 6.322e-6
-1.013, 3.239e-6
-1.014, 3.239e-6
-1.015, 6.322e-6
-1.016, 3.239e-6
-1.017, 6.322e-6
-1.018, 3.239e-6
-1.019, 6.322e-6
-1.020, 6.322e-6
-1.021, 6.322e-6
-1.022, 6.322e-6
-1.023, 6.322e-6
-1.024, 6.322e-6
-1.025, 6.322e-6
-1.026, 6.322e-6
-1.027, 6.322e-6
-1.028, 6.322e-6
-1.029, 6.322e-6
-1.030, 6.322e-6
-1.031, 6.322e-6
-1.032, 6.322e-6
-1.033, 6.322e-6
-1.034, 6.322e-6
-1.035, 6.322e-6
-1.036, 6.322e-6
-1.037, 6.322e-6
-1.038, 6.322e-6
-1.039, 6.322e-6
-1.040, 6.322e-6
-1.041, 6.322e-6
-1.042, 6.322e-6
-1.043, 6.322e-6
-1.044, 6.322e-6
-1.045, 6.322e-6
-1.046, 6.322e-6
-1.047, 6.322e-6
-1.048, 6.322e-6
-1.049, 6.322e-6
-1.050, 6.322e-6
-1.051, 6.322e-6
-1.052, 6.322e-6
-1.053, 6.322e-6
-1.054, 6.322e-6
-1.055, 6.322e-6
-1.056, 6.322e-6
-1.057, 6.322e-6
-1.058, 6.322e-6
-1.059, 6.322e-6
-1.060, 6.322e-6
-1.061, 6.322e-6
-1.062, 9.405e-6
-1.063, 6.322e-6
-1.064, 6.322e-6
-1.065, 6.322e-6
-1.066, 6.322e-6
-1.067, 6.322e-6
-1.068, 9.405e-6
-1.069, 6.322e-6
-1.070, 6.322e-6
-1.071, 6.322e-6
-1.072, 6.322e-6
-1.073, 6.322e-6
-1.074, 6.322e-6
-1.075, 6.322e-6
-1.076, 6.322e-6
-1.077, 6.322e-6
-1.078, 6.322e-6
-1.079, 6.322e-6
-1.080, 6.322e-6
-1.081, 6.322e-6
-1.082, 9.405e-6
-1.083, 9.405e-6
-1.084, 9.405e-6
-1.085, 9.405e-6
-1.086, 6.322e-6
-1.087, 6.322e-6
-1.088, 6.322e-6
-1.089, 9.405e-6
-1.090, 6.322e-6
-1.091, 6.322e-6
-1.092, 6.322e-6
-1.093, 9.405e-6
-1.094, 6.322e-6
-1.095, 9.405e-6
-1.096, 9.405e-6
-1.097, 9.405e-6
-1.098, 9.405e-6
-1.099, 9.405e-6
-1.100, 6.322e-6
-1.101, 9.405e-6
-1.102, 9.405e-6
-1.103, 9.405e-6
-1.104, 6.322e-6
-1.105, 9.405e-6
-1.106, 6.322e-6
-1.107, 9.405e-6
-1.108, 9.405e-6
-1.109, 9.405e-6
-1.110, 9.405e-6
-1.111, 9.405e-6
-1.112, 9.405e-6
-1.113, 9.405e-6
-1.114, 9.405e-6
-1.115, 9.405e-6
-1.116, 6.322e-6
-1.117, 9.405e-6
-1.118, 9.405e-6
-1.119, 9.405e-6
-1.120, 9.405e-6
-1.121, 9.405e-6
-1.122, 9.405e-6
-1.123, 9.405e-6
-1.124, 9.405e-6
-1.125, 9.405e-6
-1.126, 9.405e-6
-1.127, 9.405e-6
-1.128, 9.405e-6
-1.129, 9.405e-6
-1.130, 9.405e-6
-1.131, 9.405e-6
-1.132, 9.405e-6
-1.133, 9.405e-6
-1.134, 9.405e-6
-1.135, 9.405e-6
-1.136, 9.405e-6
-1.137, 9.405e-6
-1.138, 9.405e-6
-1.139, 9.405e-6
-1.140, 9.405e-6
-1.141, 9.405e-6
-1.142, 9.405e-6
-1.143, 9.405e-6
-1.144, 9.405e-6
-1.145, 9.405e-6
-1.146, 9.405e-6
-1.147, 9.405e-6
-1.148, 9.405e-6
-1.149, 9.405e-6
-1.150, 9.405e-6
-1.151, 9.405e-6
-1.152, 9.405e-6
-1.153, 9.405e-6
-1.154, 9.405e-6
-1.155, 9.405e-6
-1.156, 9.405e-6
-1.157, 9.405e-6
-1.158, 9.405e-6
-1.159, 9.405e-6
-1.160, 9.405e-6
-1.161, 9.405e-6
-1.162, 9.405e-6
-1.163, 9.405e-6
-1.164, 9.405e-6
-1.165, 9.405e-6
-1.166, 9.405e-6
-1.167, 9.405e-6
-1.168, 9.405e-6
-1.169, 9.405e-6
-1.170, 9.405e-6
-1.171, 9.405e-6
-1.172, 9.405e-6
-1.173, 9.405e-6
-1.174, 9.405e-6
-1.175, 9.405e-6
-1.176, 9.405e-6
-1.177, 9.405e-6
-1.178, 9.405e-6
-1.179, 1.249e-5
-1.180, 1.249e-5
-1.181, 1.249e-5
-1.182, 9.405e-6
-1.183, 1.249e-5
-1.184, 9.405e-6
-1.185, 1.249e-5
-1.186, 9.405e-6
-1.187, 1.249e-5
-1.188, 9.405e-6
-1.189, 1.249e-5
-1.190, 9.405e-6
-1.191, 9.405e-6
-1.192, 9.405e-6
-1.193, 1.249e-5
-1.194, 9.405e-6
-1.195, 1.249e-5
-1.196, 1.249e-5
-1.197, 1.249e-5
-1.198, 9.405e-6
-1.199, 1.249e-5
-1.200, 9.405e-6
-1.201, 1.249e-5
-1.202, 1.249e-5
-1.203, 1.249e-5
-1.204, 1.249e-5
-1.205, 1.249e-5
-1.206, 1.249e-5
-1.207, 1.249e-5
-1.208, 1.249e-5
-1.209, 1.249e-5
-1.210, 1.249e-5
-1.211, 1.249e-5
-1.212, 1.249e-5
-1.213, 1.249e-5
-1.214, 1.249e-5
-1.215, 1.249e-5
-1.216, 1.249e-5
-1.217, 1.249e-5
-1.218, 1.249e-5
-1.219, 1.249e-5
-1.220, 1.249e-5
-1.221, 1.249e-5
-1.222, 1.249e-5
-1.223, 1.249e-5
-1.224, 1.249e-5
-1.225, 1.249e-5
-1.226, 1.249e-5
-1.227, 1.249e-5
-1.228, 1.249e-5
-1.229, 1.249e-5
-1.230, 1.249e-5
-1.231, 1.249e-5
-1.232, 1.249e-5
-1.233, 1.249e-5
-1.234, 1.249e-5
-1.235, 1.249e-5
-1.236, 1.249e-5
-1.237, 1.249e-5
-1.238, 1.249e-5
-1.239, 1.249e-5
-1.240, 1.249e-5
-1.241, 1.249e-5
-1.242, 1.249e-5
-1.243, 1.249e-5
-1.244, 1.249e-5
-1.245, 1.249e-5
-1.246, 1.249e-5
-1.247, 1.249e-5
-1.248, 1.249e-5
-1.249, 1.249e-5
-1.250, 1.249e-5
-1.251, 1.249e-5
-1.252, 1.249e-5
-1.253, 1.249e-5
-1.254, 1.249e-5
-1.255, 1.249e-5
-1.256, 1.249e-5
-1.257, 1.249e-5
-1.258, 1.249e-5
-1.259, 1.249e-5
-1.260, 1.249e-5
-1.261, 1.249e-5
-1.262, 1.249e-5
-1.263, 1.249e-5
-1.264, 1.249e-5
-1.265, 1.249e-5
-1.266, 1.557e-5
-1.267, 1.249e-5
-1.268, 1.249e-5
-1.269, 1.557e-5
-1.270, 1.249e-5
-1.271, 1.557e-5
-1.272, 1.249e-5
-1.273, 1.557e-5
-1.274, 1.249e-5
-1.275, 1.557e-5
-1.276, 1.249e-5
-1.277, 1.249e-5
-1.278, 1.557e-5
-1.279, 1.557e-5
-1.280, 1.249e-5
-1.281, 1.557e-5
-1.282, 1.249e-5
-1.283, 1.557e-5
-1.284, 1.557e-5
-1.285, 1.557e-5
-1.286, 1.557e-5
-1.287, 1.249e-5
-1.288, 1.557e-5
-1.289, 1.557e-5
-1.290, 1.557e-5
-1.291, 1.557e-5
-1.292, 1.249e-5
-1.293, 1.557e-5
-1.294, 1.557e-5
-1.295, 1.557e-5
-1.296, 1.557e-5
-1.297, 1.557e-5
-1.298, 1.557e-5
-1.299, 1.557e-5
-1.300, 1.249e-5
-1.301, 1.557e-5
-1.302, 1.557e-5
-1.303, 1.557e-5
-1.304, 1.557e-5
-1.305, 1.557e-5
-1.306, 1.557e-5
-1.307, 1.557e-5
-1.308, 1.557e-5
-1.309, 1.557e-5
-1.310, 1.557e-5
-1.311, 1.557e-5
-1.312, 1.557e-5
-1.313, 1.557e-5
-1.314, 1.557e-5
-1.315, 1.557e-5
-1.316, 1.557e-5
-1.317, 1.557e-5
-1.318, 1.557e-5
-1.319, 1.557e-5
-1.320, 1.557e-5
-1.321, 1.557e-5
-1.322, 1.557e-5
-1.323, 1.557e-5
-1.324, 1.557e-5
-1.325, 1.557e-5
-1.326, 1.557e-5
-1.327, 1.557e-5
-1.328, 1.557e-5
-1.329, 1.557e-5
-1.330, 1.557e-5
-1.331, 1.557e-5
-1.332, 1.557e-5
-1.333, 1.557e-5
-1.334, 1.557e-5
-1.335, 1.557e-5
-1.336, 1.557e-5
-1.337, 1.557e-5
-1.338, 1.557e-5
-1.339, 1.557e-5
-1.340, 1.557e-5
-1.341, 1.557e-5
-1.342, 1.557e-5
-1.343, 1.557e-5
-1.344, 1.557e-5
-1.345, 1.557e-5
-1.346, 1.557e-5
-1.347, 1.557e-5
-1.348, 1.557e-5
-1.349, 1.557e-5
-1.350, 1.557e-5
-1.351, 1.557e-5
-1.352, 1.865e-5
-1.353, 1.865e-5
-1.354, 1.557e-5
-1.355, 1.865e-5
-1.356, 1.557e-5
-1.357, 1.865e-5
-1.358, 1.865e-5
-1.359, 1.865e-5
-1.360, 1.557e-5
-1.361, 1.865e-5
-1.362, 1.865e-5
-1.363, 1.865e-5
-1.364, 1.865e-5
-1.365, 1.865e-5
-1.366, 1.865e-5
-1.367, 1.865e-5
-1.368, 1.865e-5
-1.369, 1.865e-5
-1.370, 1.865e-5
-1.371, 1.865e-5
-1.372, 1.865e-5
-1.373, 1.865e-5
-1.374, 1.865e-5
-1.375, 1.865e-5
-1.376, 1.865e-5
-1.377, 1.865e-5
-1.378, 1.865e-5
-1.379, 1.865e-5
-1.380, 1.865e-5
-1.381, 1.865e-5
-1.382, 1.865e-5
-1.383, 1.865e-5
-1.384, 1.865e-5
-1.385, 1.865e-5
-1.386, 1.865e-5
-1.387, 1.865e-5
-1.388, 1.865e-5
-1.389, 1.865e-5
-1.390, 1.865e-5
-1.391, 1.865e-5
-1.392, 1.865e-5
-1.393, 1.865e-5
-1.394, 1.865e-5
-1.395, 1.865e-5
-1.396, 1.865e-5
-1.397, 1.865e-5
-1.398, 2.174e-5
-1.399, 1.865e-5
-1.400, 1.865e-5
-1.401, 1.865e-5
-1.402, 2.174e-5
-1.403, 1.865e-5
-1.404, 2.174e-5
-1.405, 2.174e-5
-1.406, 2.174e-5
-1.407, 2.174e-5
-1.408, 2.174e-5
-1.409, 2.174e-5
-1.410, 2.174e-5
-1.411, 2.174e-5
-1.412, 2.174e-5
-1.413, 1.865e-5
-1.414, 2.174e-5
-1.415, 2.174e-5
-1.416, 2.174e-5
-1.417, 2.174e-5
-1.418, 2.174e-5
-1.419, 2.174e-5
-1.420, 2.174e-5
-1.421, 2.174e-5
-1.422, 2.174e-5
-1.423, 2.174e-5
-1.424, 2.174e-5
-1.425, 2.174e-5
-1.426, 2.174e-5
-1.427, 2.174e-5
-1.428, 2.174e-5
-1.429, 2.174e-5
-1.430, 2.174e-5
-1.431, 2.174e-5
-1.432, 2.174e-5
-1.433, 2.174e-5
-1.434, 2.174e-5
-1.435, 2.174e-5
-1.436, 2.174e-5
-1.437, 2.174e-5
-1.438, 2.174e-5
-1.439, 2.482e-5
-1.440, 2.174e-5
-1.441, 2.482e-5
-1.442, 2.482e-5
-1.443, 2.482e-5
-1.444, 2.174e-5
-1.445, 2.482e-5
-1.446, 2.482e-5
-1.447, 2.482e-5
-1.448, 2.482e-5
-1.449, 2.482e-5
-1.450, 2.482e-5
-1.451, 2.482e-5
-1.452, 2.482e-5
-1.453, 2.482e-5
-1.454, 2.482e-5
-1.455, 2.482e-5
-1.456, 2.482e-5
-1.457, 2.482e-5
-1.458, 2.482e-5
-1.459, 2.482e-5
-1.460, 2.482e-5
-1.461, 2.482e-5
-1.462, 2.482e-5
-1.463, 2.482e-5
-1.464, 2.482e-5
-1.465, 2.790e-5
-1.466, 2.790e-5
-1.467, 2.790e-5
-1.468, 2.790e-5
-1.469, 2.790e-5
-1.470, 2.790e-5
-1.471, 2.790e-5
-1.472, 2.790e-5
-1.473, 2.790e-5
-1.474, 2.790e-5
-1.475, 2.790e-5
-1.476, 2.790e-5
-1.477, 2.790e-5
-1.478, 2.790e-5
-1.479, 2.790e-5
-1.480, 2.790e-5
-1.481, 2.790e-5
-1.482, 2.790e-5
-1.483, 2.790e-5
-1.484, 3.099e-5
-1.485, 3.099e-5
-1.486, 3.099e-5
-1.487, 3.099e-5
-1.488, 3.099e-5
-1.489, 3.099e-5
-1.490, 3.099e-5
-1.491, 3.099e-5
-1.492, 3.099e-5
-1.493, 3.099e-5
-1.494, 3.099e-5
-1.495, 3.099e-5
-1.496, 3.099e-5
-1.497, 3.099e-5
-1.498, 3.407e-5
-1.499, 3.099e-5
-1.500, 3.099e-5
-1.501, 3.407e-5
-1.502, 3.407e-5
-1.503, 3.407e-5
-1.504, 3.407e-5
-1.505, 3.407e-5
-1.506, 3.407e-5
-1.507, 3.407e-5
-1.508, 3.407e-5
-1.509, 3.407e-5
-1.510, 3.407e-5
-1.511, 3.407e-5
-1.512, 3.715e-5
-1.513, 3.407e-5
-1.514, 3.715e-5
-1.515, 3.715e-5
-1.516, 3.715e-5
-1.517, 3.715e-5
-1.518, 3.715e-5
-1.519, 3.715e-5
-1.520, 3.715e-5
-1.521, 3.715e-5
-1.522, 3.715e-5
-1.523, 4.024e-5
-1.524, 3.715e-5
-1.525, 4.024e-5
-1.526, 4.024e-5
-1.527, 4.024e-5
-1.528, 4.024e-5
-1.529, 4.024e-5
-1.530, 4.024e-5
-1.531, 4.024e-5
-1.532, 4.332e-5
-1.533, 4.332e-5
-1.534, 4.024e-5
-1.535, 4.332e-5
-1.536, 4.332e-5
-1.537, 4.332e-5
-1.538, 4.332e-5
-1.539, 4.332e-5
-1.540, 4.640e-5
-1.541, 4.640e-5
-1.542, 4.640e-5
-1.543, 4.640e-5
-1.544, 4.640e-5
-1.545, 4.640e-5
-1.546, 4.640e-5
-1.547, 4.640e-5
-1.548, 4.949e-5
-1.549, 4.949e-5
-1.550, 4.949e-5
-1.551, 4.949e-5
-1.552, 5.257e-5
-1.553, 4.949e-5
-1.554, 5.257e-5
-1.555, 5.257e-5
-1.556, 5.257e-5
-1.557, 5.257e-5
-1.558, 5.257e-5
-1.559, 5.565e-5
-1.560, 5.565e-5
-1.561, 5.565e-5
-1.562, 5.565e-5
-1.563, 5.565e-5
-1.564, 5.873e-5
-1.565, 5.873e-5
-1.566, 5.873e-5
-1.567, 5.873e-5
-1.568, 6.182e-5
-1.569, 6.182e-5
-1.570, 6.182e-5
-1.571, 6.182e-5
-1.572, 6.490e-5
-1.573, 6.490e-5
-1.574, 6.490e-5
-1.575, 6.798e-5
-1.576, 6.490e-5
-1.577, 6.798e-5
-1.578, 6.798e-5
-1.579, 6.798e-5
-1.580, 7.107e-5
-1.581, 7.107e-5
-1.582, 7.415e-5
-1.583, 7.415e-5
-1.584, 7.415e-5
-1.585, 7.415e-5
-1.586, 7.723e-5
-1.587, 7.723e-5
-1.588, 8.032e-5
-1.589, 8.032e-5
-1.590, 8.032e-5
-1.591, 8.032e-5
-1.592, 8.340e-5
-1.593, 8.340e-5
-1.594, 8.648e-5
-1.595, 8.648e-5
-1.596, 8.957e-5
-1.597, 8.957e-5
-1.598, 9.265e-5
-1.599, 9.265e-5
-1.600, 9.265e-5
-1.601, 9.573e-5
-1.602, 9.573e-5
-1.603, 9.882e-5
-1.604, 9.882e-5
-1.605, 1.019e-4
-1.606, 1.050e-4
-1.607, 1.050e-4
-1.608, 1.081e-4
-1.609, 1.081e-4
-1.610, 1.111e-4
-1.611, 1.111e-4
-1.612, 1.142e-4
-1.613, 1.142e-4
-1.614, 1.173e-4
-1.615, 1.204e-4
-1.616, 1.235e-4
-1.617, 1.235e-4
-1.618, 1.266e-4
-1.619, 1.296e-4
-1.620, 1.296e-4
-1.621, 1.327e-4
-1.622, 1.358e-4
-1.623, 1.389e-4
-1.624, 1.420e-4
-1.625, 1.451e-4
-1.626, 1.481e-4
-1.627, 1.481e-4
-1.628, 1.512e-4
-1.629, 1.543e-4
-1.630, 1.574e-4
-1.631, 1.636e-4
-1.632, 1.636e-4
-1.633, 1.666e-4
-1.634, 1.697e-4
-1.635, 1.759e-4
-1.636, 1.759e-4
-1.637, 1.821e-4
-1.638, 1.851e-4
-1.639, 1.882e-4
-1.640, 1.944e-4
-1.641, 1.975e-4
-1.642, 2.006e-4
-1.643, 2.067e-4
-1.644, 2.098e-4
-1.645, 2.129e-4
-1.646, 2.191e-4
-1.647, 2.221e-4
-1.648, 2.283e-4
-1.649, 2.345e-4
-1.650, 2.376e-4
-1.651, 2.437e-4
-1.652, 2.499e-4
-1.653, 2.530e-4
-1.654, 2.591e-4
-1.655, 2.653e-4
-1.656, 2.715e-4
-1.657, 2.746e-4
-1.658, 2.838e-4
-1.659, 2.900e-4
-1.660, 2.961e-4
-1.661, 3.023e-4
-1.662, 3.115e-4
-1.663, 3.177e-4
-1.664, 3.239e-4
-1.665, 3.331e-4
-1.666, 3.393e-4
-1.667, 3.455e-4
-1.668, 3.547e-4
-1.669, 3.609e-4
-1.670, 3.732e-4
-1.671, 3.794e-4
-1.672, 3.886e-4
-1.673, 4.010e-4
-1.674, 4.102e-4
-1.675, 4.195e-4
-1.676, 4.287e-4
-1.677, 4.380e-4
-1.678, 4.503e-4
-1.679, 4.595e-4
-1.680, 4.719e-4
-1.681, 4.811e-4
-1.682, 4.935e-4
-1.683, 5.058e-4
-1.684, 5.181e-4
-1.685, 5.305e-4
-1.686, 5.428e-4
-1.687, 5.582e-4
-1.688, 5.705e-4
-1.689, 5.859e-4
-1.690, 5.983e-4
-1.691, 6.137e-4
-1.692, 6.291e-4
-1.693, 6.445e-4
-1.694, 6.599e-4
-1.695, 6.784e-4
-1.696, 6.939e-4
-1.697, 7.124e-4
-1.698, 7.278e-4
-1.699, 7.463e-4
-1.700, 7.679e-4
-1.701, 7.863e-4
-1.702, 8.048e-4
-1.703, 8.264e-4
-1.704, 8.480e-4
-1.705, 8.696e-4
-1.706, 8.912e-4
-1.707, 9.128e-4
-1.708, 9.374e-4
-1.709, 9.590e-4
-1.710, 9.837e-4
-1.711, 1.008e-3
-1.712, 1.033e-3
-1.713, 1.058e-3
-1.714, 1.085e-3
-1.715, 1.113e-3
-1.716, 1.138e-3
-1.717, 1.169e-3
-1.718, 1.196e-3
-1.719, 1.224e-3
-1.720, 1.252e-3
-1.721, 1.286e-3
-1.722, 1.317e-3
-1.723, 1.347e-3
-1.724, 1.378e-3
-1.725, 1.412e-3
-1.726, 1.449e-3
-1.727, 1.483e-3
-1.728, 1.520e-3
-1.729, 1.557e-3
-1.730, 1.594e-3
-1.731, 1.631e-3
-1.732, 1.671e-3
-1.733, 1.711e-3
-1.734, 1.751e-3
-1.735, 1.795e-3
-1.736, 1.835e-3
-1.737, 1.875e-3
-1.738, 1.918e-3
-1.739, 1.964e-3
-1.740, 2.007e-3
-1.741, 2.054e-3
-1.742, 2.100e-3
-1.743, 2.146e-3
-1.744, 2.195e-3
-1.745, 2.248e-3
-1.746, 2.300e-3
-1.747, 2.349e-3
-1.748, 2.399e-3
-1.749, 2.454e-3
-1.750, 2.504e-3
-1.751, 2.559e-3
-1.752, 2.612e-3
-1.753, 2.667e-3
-1.754, 2.723e-3
-1.755, 2.778e-3
-1.756, 2.837e-3
-1.757, 2.895e-3
-1.758, 2.954e-3
-1.759, 3.012e-3
-1.760, 3.077e-3
-1.761, 3.139e-3
-1.762, 3.200e-3
-1.763, 3.265e-3
-1.764, 3.327e-3
-1.765, 3.388e-3
-1.766, 3.456e-3
-1.767, 3.521e-3
-1.768, 3.589e-3
-1.769, 3.657e-3
-1.770, 3.721e-3
-1.771, 3.789e-3
-1.772, 3.857e-3
-1.773, 3.928e-3
-1.774, 4.002e-3
-1.775, 4.073e-3
-1.776, 4.147e-3
-1.777, 4.221e-3
-1.778, 4.295e-3
-1.779, 4.366e-3
-1.780, 4.443e-3
-1.781, 4.514e-3
-1.782, 4.591e-3
-1.783, 4.665e-3
-1.784, 4.739e-3
-1.785, 4.816e-3
-1.786, 4.893e-3
-1.787, 4.973e-3
-1.788, 5.047e-3
-1.789, 5.127e-3
-1.790, 5.211e-3
-1.791, 5.294e-3
-1.792, 5.377e-3
-1.793, 5.460e-3
-1.794, 5.544e-3
-1.795, 5.630e-3
-1.796, 5.713e-3
-1.797, 5.799e-3
-1.798, 5.886e-3
-1.799, 5.969e-3
-1.800, 6.018e-3
-1.799, 6.006e-3
-1.798, 5.978e-3
-1.797, 5.951e-3
-1.796, 5.920e-3
-1.795, 5.892e-3
-1.794, 5.858e-3
-1.793, 5.827e-3
-1.792, 5.796e-3
-1.791, 5.766e-3
-1.790, 5.735e-3
-1.789, 5.701e-3
-1.788, 5.664e-3
-1.787, 5.627e-3
-1.786, 5.590e-3
-1.785, 5.550e-3
-1.784, 5.510e-3
-1.783, 5.473e-3
-1.782, 5.430e-3
-1.781, 5.386e-3
-1.780, 5.343e-3
-1.779, 5.303e-3
-1.778, 5.260e-3
-1.777, 5.217e-3
-1.776, 5.177e-3
-1.775, 5.134e-3
-1.774, 5.090e-3
-1.773, 5.050e-3
-1.772, 5.004e-3
-1.771, 4.964e-3
-1.770, 4.924e-3
-1.769, 4.878e-3
-1.768, 4.834e-3
-1.767, 4.785e-3
-1.766, 4.736e-3
-1.765, 4.686e-3
-1.764, 4.637e-3
-1.763, 4.591e-3
-1.762, 4.545e-3
-1.761, 4.498e-3
-1.760, 4.455e-3
-1.759, 4.412e-3
-1.758, 4.372e-3
-1.757, 4.329e-3
-1.756, 4.286e-3
-1.755, 4.243e-3
-1.754, 4.202e-3
-1.753, 4.156e-3
-1.752, 4.116e-3
-1.751, 4.070e-3
-1.750, 4.027e-3
-1.749, 3.977e-3
-1.748, 3.934e-3
-1.747, 3.888e-3
-1.746, 3.845e-3
-1.745, 3.802e-3
-1.744, 3.758e-3
-1.743, 3.715e-3
-1.742, 3.672e-3
-1.741, 3.629e-3
-1.740, 3.589e-3
-1.739, 3.546e-3
-1.738, 3.503e-3
-1.737, 3.462e-3
-1.736, 3.419e-3
-1.735, 3.379e-3
-1.734, 3.339e-3
-1.733, 3.296e-3
-1.732, 3.256e-3
-1.731, 3.213e-3
-1.730, 3.173e-3
-1.729, 3.130e-3
-1.728, 3.089e-3
-1.727, 3.052e-3
-1.726, 3.012e-3
-1.725, 2.975e-3
-1.724, 2.935e-3
-1.723, 2.895e-3
-1.722, 2.858e-3
-1.721, 2.818e-3
-1.720, 2.781e-3
-1.719, 2.744e-3
-1.718, 2.707e-3
-1.717, 2.670e-3
-1.716, 2.630e-3
-1.715, 2.593e-3
-1.714, 2.556e-3
-1.713, 2.519e-3
-1.712, 2.485e-3
-1.711, 2.451e-3
-1.710, 2.414e-3
-1.709, 2.380e-3
-1.708, 2.346e-3
-1.707, 2.312e-3
-1.706, 2.279e-3
-1.705, 2.248e-3
-1.704, 2.211e-3
-1.703, 2.177e-3
-1.702, 2.143e-3
-1.701, 2.112e-3
-1.700, 2.078e-3
-1.699, 2.047e-3
-1.698, 2.017e-3
-1.697, 1.986e-3
-1.696, 1.955e-3
-1.695, 1.924e-3
-1.694, 1.893e-3
-1.693, 1.865e-3
-1.692, 1.835e-3
-1.691, 1.807e-3
-1.690, 1.779e-3
-1.689, 1.748e-3
-1.688, 1.721e-3
-1.687, 1.693e-3
-1.686, 1.665e-3
-1.685, 1.637e-3
-1.684, 1.610e-3
-1.683, 1.582e-3
-1.682, 1.554e-3
-1.681, 1.529e-3
-1.680, 1.505e-3
-1.679, 1.477e-3
-1.678, 1.455e-3
-1.677, 1.431e-3
-1.676, 1.406e-3
-1.675, 1.381e-3
-1.674, 1.360e-3
-1.673, 1.335e-3
-1.672, 1.314e-3
-1.671, 1.289e-3
-1.670, 1.267e-3
-1.669, 1.246e-3
-1.668, 1.224e-3
-1.667, 1.203e-3
-1.666, 1.181e-3
-1.665, 1.159e-3
-1.664, 1.141e-3
-1.663, 1.119e-3
-1.662, 1.098e-3
-1.661, 1.079e-3
-1.660, 1.058e-3
-1.659, 1.042e-3
-1.658, 1.024e-3
-1.657, 1.005e-3
-1.656, 9.837e-4
-1.655, 9.652e-4
-1.654, 9.498e-4
-1.653, 9.313e-4
-1.652, 9.158e-4
-1.651, 8.973e-4
-1.650, 8.819e-4
-1.649, 8.634e-4
-1.648, 8.511e-4
-1.647, 8.326e-4
-1.646, 8.172e-4
-1.645, 8.018e-4
-1.644, 7.863e-4
-1.643, 7.709e-4
-1.642, 7.586e-4
-1.641, 7.401e-4
-1.640, 7.278e-4
-1.639, 7.154e-4
-1.638, 7.000e-4
-1.637, 6.846e-4
-1.636, 6.754e-4
-1.635, 6.599e-4
-1.634, 6.476e-4
-1.633, 6.353e-4
-1.632, 6.229e-4
-1.631, 6.106e-4
-1.630, 5.983e-4
-1.629, 5.890e-4
-1.628, 5.767e-4
-1.627, 5.644e-4
-1.626, 5.551e-4
-1.625, 5.428e-4
-1.624, 5.335e-4
-1.623, 5.212e-4
-1.622, 5.120e-4
-1.621, 5.027e-4
-1.620, 4.904e-4
-1.619, 4.811e-4
-1.618, 4.750e-4
-1.617, 4.626e-4
-1.616, 4.534e-4
-1.615, 4.472e-4
-1.614, 4.380e-4
-1.613, 4.287e-4
-1.612, 4.195e-4
-1.611, 4.102e-4
-1.610, 4.040e-4
-1.609, 3.979e-4
-1.608, 3.886e-4
-1.607, 3.794e-4
-1.606, 3.732e-4
-1.605, 3.640e-4
-1.604, 3.578e-4
-1.603, 3.516e-4
-1.602, 3.424e-4
-1.601, 3.362e-4
-1.600, 3.300e-4
-1.599, 3.239e-4
-1.598, 3.177e-4
-1.597, 3.115e-4
-1.596, 3.054e-4
-1.595, 2.992e-4
-1.594, 2.931e-4
-1.593, 2.869e-4
-1.592, 2.838e-4
-1.591, 2.776e-4
-1.590, 2.715e-4
-1.589, 2.653e-4
-1.588, 2.591e-4
-1.587, 2.561e-4
-1.586, 2.499e-4
-1.585, 2.468e-4
-1.584, 2.406e-4
-1.583, 2.345e-4
-1.582, 2.314e-4
-1.581, 2.283e-4
-1.580, 2.221e-4
-1.579, 2.160e-4
-1.578, 2.129e-4
-1.577, 2.098e-4
-1.576, 2.067e-4
-1.575, 2.006e-4
-1.574, 1.975e-4
-1.573, 1.913e-4
-1.572, 1.882e-4
-1.571, 1.851e-4
-1.570, 1.821e-4
-1.569, 1.790e-4
-1.568, 1.759e-4
-1.567, 1.728e-4
-1.566, 1.666e-4
-1.565, 1.666e-4
-1.564, 1.605e-4
-1.563, 1.574e-4
-1.562, 1.574e-4
-1.561, 1.512e-4
-1.560, 1.481e-4
-1.559, 1.451e-4
-1.558, 1.451e-4
-1.557, 1.389e-4
-1.556, 1.389e-4
-1.555, 1.358e-4
-1.554, 1.327e-4
-1.553, 1.296e-4
-1.552, 1.266e-4
-1.551, 1.266e-4
-1.550, 1.235e-4
-1.549, 1.204e-4
-1.548, 1.173e-4
-1.547, 1.142e-4
-1.546, 1.142e-4
-1.545, 1.111e-4
-1.544, 1.111e-4
-1.543, 1.081e-4
-1.542, 1.050e-4
-1.541, 1.019e-4
-1.540, 1.019e-4
-1.539, 9.882e-5
-1.538, 9.882e-5
-1.537, 9.573e-5
-1.536, 9.265e-5
-1.535, 9.265e-5
-1.534, 8.957e-5
-1.533, 8.957e-5
-1.532, 8.648e-5
-1.531, 8.648e-5
-1.530, 8.340e-5
-1.529, 8.032e-5
-1.528, 8.032e-5
-1.527, 8.032e-5
-1.526, 7.723e-5
-1.525, 7.723e-5
-1.524, 7.415e-5
-1.523, 7.415e-5
-1.522, 7.107e-5
-1.521, 7.107e-5
-1.520, 6.798e-5
-1.519, 6.798e-5
-1.518, 6.490e-5
-1.517, 6.490e-5
-1.516, 6.182e-5
-1.515, 6.182e-5
-1.514, 6.182e-5
-1.513, 6.182e-5
-1.512, 5.873e-5
-1.511, 5.873e-5
-1.510, 5.565e-5
-1.509, 5.565e-5
-1.508, 5.565e-5
-1.507, 5.257e-5
-1.506, 5.257e-5
-1.505, 5.257e-5
-1.504, 4.949e-5
-1.503, 4.949e-5
-1.502, 4.949e-5
-1.501, 4.949e-5
-1.500, 4.640e-5
-1.499, 4.640e-5
-1.498, 4.640e-5
-1.497, 4.332e-5
-1.496, 4.332e-5
-1.495, 4.332e-5
-1.494, 4.024e-5
-1.493, 4.024e-5
-1.492, 4.024e-5
-1.491, 4.024e-5
-1.490, 3.715e-5
-1.489, 3.715e-5
-1.488, 3.715e-5
-1.487, 3.715e-5
-1.486, 3.407e-5
-1.485, 3.407e-5
-1.484, 3.407e-5
-1.483, 3.407e-5
-1.482, 3.407e-5
-1.481, 3.099e-5
-1.480, 3.099e-5
-1.479, 3.099e-5
-1.478, 3.099e-5
-1.477, 3.099e-5
-1.476, 2.790e-5
-1.475, 2.790e-5
-1.474, 2.790e-5
-1.473, 2.790e-5
-1.472, 2.790e-5
-1.471, 2.790e-5
-1.470, 2.482e-5
-1.469, 2.482e-5
-1.468, 2.482e-5
-1.467, 2.482e-5
-1.466, 2.482e-5
-1.465, 2.482e-5
-1.464, 2.482e-5
-1.463, 2.174e-5
-1.462, 2.174e-5
-1.461, 2.174e-5
-1.460, 2.174e-5
-1.459, 2.174e-5
-1.458, 2.174e-5
-1.457, 1.865e-5
-1.456, 1.865e-5
-1.455, 1.865e-5
-1.454, 1.865e-5
-1.453, 1.865e-5
-1.452, 1.865e-5
-1.451, 1.557e-5
-1.450, 1.557e-5
-1.449, 1.557e-5
-1.448, 1.557e-5
-1.447, 1.557e-5
-1.446, 1.557e-5
-1.445, 1.557e-5
-1.444, 1.557e-5
-1.443, 1.557e-5
-1.442, 1.557e-5
-1.441, 1.557e-5
-1.440, 1.249e-5
-1.439, 1.557e-5
-1.438, 1.249e-5
-1.437, 1.249e-5
-1.436, 1.249e-5
-1.435, 1.249e-5
-1.434, 1.249e-5
-1.433, 1.249e-5
-1.432, 9.405e-6
-1.431, 1.249e-5
-1.430, 9.405e-6
-1.429, 1.249e-5
-1.428, 9.405e-6
-1.427, 9.405e-6
-1.426, 9.405e-6
-1.425, 9.405e-6
-1.424, 9.405e-6
-1.423, 9.405e-6
-1.422, 9.405e-6
-1.421, 9.405e-6
-1.420, 9.405e-6
-1.419, 9.405e-6
-1.418, 6.322e-6
-1.417, 9.405e-6
-1.416, 6.322e-6
-1.415, 9.405e-6
-1.414, 6.322e-6
-1.413, 6.322e-6
-1.412, 6.322e-6
-1.411, 6.322e-6
-1.410, 6.322e-6
-1.409, 6.322e-6
-1.408, 6.322e-6
-1.407, 6.322e-6
-1.406, 6.322e-6
-1.405, 6.322e-6
-1.404, 6.322e-6
-1.403, 6.322e-6
-1.402, 6.322e-6
-1.401, 6.322e-6
-1.400, 6.322e-6
-1.399, 6.322e-6
-1.398, 6.322e-6
-1.397, 6.322e-6
-1.396, 6.322e-6
-1.395, 6.322e-6
-1.394, 3.239e-6
-1.393, 3.239e-6
-1.392, 3.239e-6
-1.391, 3.239e-6
-1.390, 3.239e-6
-1.389, 3.239e-6
-1.388, 3.239e-6
-1.387, 3.239e-6
-1.386, 3.239e-6
-1.385, 3.239e-6
-1.384, 3.239e-6
-1.383, 3.239e-6
-1.382, 3.239e-6
-1.381, 3.239e-6
-1.380, 3.239e-6
-1.379, 3.239e-6
-1.378, 3.239e-6
-1.377, 3.239e-6
-1.376, 3.239e-6
-1.375, 3.239e-6
-1.374, 3.239e-6
-1.373, 3.239e-6
-1.372, 3.239e-6
-1.371, 1.559e-7
-1.370, 3.239e-6
-1.369, 1.559e-7
-1.368, 3.239e-6
-1.367, 3.239e-6
-1.366, 3.239e-6
-1.365, 1.559e-7
-1.364, 1.559e-7
-1.363, 1.559e-7
-1.362, 3.239e-6
-1.361, 3.239e-6
-1.360, 3.239e-6
-1.359, 1.559e-7
-1.358, 3.239e-6
-1.357, 1.559e-7
-1.356, 1.559e-7
-1.355, 1.559e-7
-1.354, 1.559e-7
-1.353, 1.559e-7
-1.352, 1.559e-7
-1.351, 1.559e-7
-1.350, 1.559e-7
-1.349, 1.559e-7
-1.348, 1.559e-7
-1.347, 1.559e-7
-1.346, 1.559e-7
-1.345, 1.559e-7
-1.344, 1.559e-7
-1.343, 1.559e-7
-1.342, 1.559e-7
-1.341, 1.559e-7
-1.340, 1.559e-7
-1.339, 1.559e-7
-1.338, 1.559e-7
-1.337, 1.559e-7
-1.336, 1.559e-7
-1.335, 1.559e-7
-1.334, 1.559e-7
-1.333, 1.559e-7
-1.332, 1.559e-7
-1.331, 1.559e-7
-1.330, 1.559e-7
-1.329, 1.559e-7
-1.328, 1.559e-7
-1.327, 1.559e-7
-1.326, 1.559e-7
-1.325, 1.559e-7
-1.324, 1.559e-7
-1.323, 1.559e-7
-1.322, 1.559e-7
-1.321, 1.559e-7
-1.320, -2.927e-6
-1.319, 1.559e-7
-1.318, 1.559e-7
-1.317, 1.559e-7
-1.316, 1.559e-7
-1.315, 1.559e-7
-1.314, 1.559e-7
-1.313, 1.559e-7
-1.312, 1.559e-7
-1.311, 1.559e-7
-1.310, 1.559e-7
-1.309, -2.927e-6
-1.308, 1.559e-7
-1.307, 1.559e-7
-1.306, -2.927e-6
-1.305, 1.559e-7
-1.304, 1.559e-7
-1.303, -2.927e-6
-1.302, -2.927e-6
-1.301, 1.559e-7
-1.300, -2.927e-6
-1.299, -2.927e-6
-1.298, 1.559e-7
-1.297, -2.927e-6
-1.296, -2.927e-6
-1.295, -2.927e-6
-1.294, -2.927e-6
-1.293, -2.927e-6
-1.292, -2.927e-6
-1.291, -2.927e-6
-1.290, 1.559e-7
-1.289, -2.927e-6
-1.288, -2.927e-6
-1.287, -2.927e-6
-1.286, -2.927e-6
-1.285, -2.927e-6
-1.284, -2.927e-6
-1.283, -2.927e-6
-1.282, 1.559e-7
-1.281, -2.927e-6
-1.280, -2.927e-6
-1.279, -2.927e-6
-1.278, 1.559e-7
-1.277, -2.927e-6
-1.276, -2.927e-6
-1.275, -2.927e-6
-1.274, 1.559e-7
-1.273, -2.927e-6
-1.272, -2.927e-6
-1.271, -2.927e-6
-1.270, -2.927e-6
-1.269, -2.927e-6
-1.268, 1.559e-7
-1.267, -2.927e-6
-1.266, -2.927e-6
-1.265, -2.927e-6
-1.264, -2.927e-6
-1.263, -2.927e-6
-1.262, -2.927e-6
-1.261, -2.927e-6
-1.260, -2.927e-6
-1.259, -2.927e-6
-1.258, -2.927e-6
-1.257, -2.927e-6
-1.256, -2.927e-6
-1.255, -2.927e-6
-1.254, -2.927e-6
-1.253, -2.927e-6
-1.252, -2.927e-6
-1.251, -2.927e-6
-1.250, -2.927e-6
-1.249, -2.927e-6
-1.248, -2.927e-6
-1.247, -2.927e-6
-1.246, -2.927e-6
-1.245, -2.927e-6
-1.244, -2.927e-6
-1.243, -2.927e-6
-1.242, -2.927e-6
-1.241, -2.927e-6
-1.240, -2.927e-6
-1.239, -2.927e-6
-1.238, -2.927e-6
-1.237, -2.927e-6
-1.236, -2.927e-6
-1.235, -2.927e-6
-1.234, -2.927e-6
-1.233, -2.927e-6
-1.232, -2.927e-6
-1.231, -2.927e-6
-1.230, -2.927e-6
-1.229, -2.927e-6
-1.228, -2.927e-6
-1.227, -2.927e-6
-1.226, -2.927e-6
-1.225, -2.927e-6
-1.224, -2.927e-6
-1.223, -2.927e-6
-1.222, -2.927e-6
-1.221, -2.927e-6
-1.220, -2.927e-6
-1.219, -2.927e-6
-1.218, -2.927e-6
-1.217, -2.927e-6
-1.216, -2.927e-6
-1.215, -2.927e-6
-1.214, -2.927e-6
-1.213, -2.927e-6
-1.212, -2.927e-6
-1.211, -2.927e-6
-1.210, -2.927e-6
-1.209, -2.927e-6
-1.208, -2.927e-6
-1.207, -2.927e-6
-1.206, -2.927e-6
-1.205, -2.927e-6
-1.204, -2.927e-6
-1.203, -2.927e-6
-1.202, -2.927e-6
-1.201, -2.927e-6
-1.200, -2.927e-6
-1.199, -2.927e-6
-1.198, -2.927e-6
-1.197, -2.927e-6
-1.196, -2.927e-6
-1.195, -2.927e-6
-1.194, -2.927e-6
-1.193, -2.927e-6
-1.192, -2.927e-6
-1.191, -2.927e-6
-1.190, -2.927e-6
-1.189, -2.927e-6
-1.188, -2.927e-6
-1.187, -2.927e-6
-1.186, -2.927e-6
-1.185, -2.927e-6
-1.184, -2.927e-6
-1.183, -2.927e-6
-1.182, -2.927e-6
-1.181, -2.927e-6
-1.180, -2.927e-6
-1.179, -2.927e-6
-1.178, -2.927e-6
-1.177, -2.927e-6
-1.176, -2.927e-6
-1.175, -2.927e-6
-1.174, -2.927e-6
-1.173, -2.927e-6
-1.172, -2.927e-6
-1.171, -2.927e-6
-1.170, -2.927e-6
-1.169, -2.927e-6
-1.168, -2.927e-6
-1.167, -2.927e-6
-1.166, -2.927e-6
-1.165, -2.927e-6
-1.164, -2.927e-6
-1.163, -2.927e-6
-1.162, -2.927e-6
-1.161, -2.927e-6
-1.160, -2.927e-6
-1.159, -2.927e-6
-1.158, -2.927e-6
-1.157, -2.927e-6
-1.156, -2.927e-6
-1.155, -2.927e-6
-1.154, -2.927e-6
-1.153, -2.927e-6
-1.152, -2.927e-6
-1.151, -2.927e-6
-1.150, -2.927e-6
-1.149, -2.927e-6
-1.148, -2.927e-6
-1.147, -2.927e-6
-1.146, -2.927e-6
-1.145, -2.927e-6
-1.144, -2.927e-6
-1.143, -2.927e-6
-1.142, -2.927e-6
-1.141, -2.927e-6
-1.140, -2.927e-6
-1.139, -2.927e-6
-1.138, -2.927e-6
-1.137, -6.010e-6
-1.136, -6.010e-6
-1.135, -2.927e-6
-1.134, -2.927e-6
-1.133, -2.927e-6
-1.132, -2.927e-6
-1.131, -2.927e-6
-1.130, -6.010e-6
-1.129, -2.927e-6
-1.128, -6.010e-6
-1.127, -6.010e-6
-1.126, -6.010e-6
-1.125, -2.927e-6
-1.124, -6.010e-6
-1.123, -6.010e-6
-1.122, -6.010e-6
-1.121, -2.927e-6
-1.120, -6.010e-6
-1.119, -6.010e-6
-1.118, -2.927e-6
-1.117, -2.927e-6
-1.116, -6.010e-6
-1.115, -2.927e-6
-1.114, -6.010e-6
-1.113, -6.010e-6
-1.112, -6.010e-6
-1.111, -6.010e-6
-1.110, -2.927e-6
-1.109, -6.010e-6
-1.108, -6.010e-6
-1.107, -6.010e-6
-1.106, -6.010e-6
-1.105, -6.010e-6
-1.104, -6.010e-6
-1.103, -6.010e-6
-1.102, -6.010e-6
-1.101, -6.010e-6
-1.100, -6.010e-6
-1.099, -6.010e-6
-1.098, -6.010e-6
-1.097, -6.010e-6
-1.096, -6.010e-6
-1.095, -6.010e-6
-1.094, -6.010e-6
-1.093, -6.010e-6
-1.092, -6.010e-6
-1.091, -6.010e-6
-1.090, -6.010e-6
-1.089, -6.010e-6
-1.088, -6.010e-6
-1.087, -6.010e-6
-1.086, -6.010e-6
-1.085, -6.010e-6
-1.084, -6.010e-6
-1.083, -6.010e-6
-1.082, -6.010e-6
-1.081, -6.010e-6
-1.080, -6.010e-6
-1.079, -6.010e-6
-1.078, -6.010e-6
-1.077, -6.010e-6
-1.076, -6.010e-6
-1.075, -6.010e-6
-1.074, -6.010e-6
-1.073, -6.010e-6
-1.072, -6.010e-6
-1.071, -6.010e-6
-1.070, -6.010e-6
-1.069, -6.010e-6
-1.068, -6.010e-6
-1.067, -6.010e-6
-1.066, -6.010e-6
-1.065, -6.010e-6
-1.064, -6.010e-6
-1.063, -6.010e-6
-1.062, -6.010e-6
-1.061, -6.010e-6
-1.060, -6.010e-6
-1.059, -6.010e-6
-1.058, -6.010e-6
-1.057, -6.010e-6
-1.056, -6.010e-6
-1.055, -6.010e-6
-1.054, -9.093e-6
-1.053, -6.010e-6
-1.052, -6.010e-6
-1.051, -6.010e-6
-1.050, -9.093e-6
-1.049, -6.010e-6
-1.048, -6.010e-6
-1.047, -6.010e-6
-1.046, -9.093e-6
-1.045, -6.010e-6
-1.044, -9.093e-6
-1.043, -9.093e-6
-1.042, -9.093e-6
-1.041, -6.010e-6
-1.040, -9.093e-6
-1.039, -9.093e-6
-1.038, -9.093e-6
-1.037, -9.093e-6
-1.036, -9.093e-6
-1.035, -9.093e-6
-1.034, -9.093e-6
-1.033, -9.093e-6
-1.032, -9.093e-6
-1.031, -9.093e-6
-1.030, -9.093e-6
-1.029, -9.093e-6
-1.028, -9.093e-6
-1.027, -9.093e-6
-1.026, -9.093e-6
-1.025, -9.093e-6
-1.024, -9.093e-6
-1.023, -9.093e-6
-1.022, -9.093e-6
-1.021, -9.093e-6
-1.020, -9.093e-6
-1.019, -9.093e-6
-1.018, -9.093e-6
-1.017, -9.093e-6
-1.016, -9.093e-6
-1.015, -9.093e-6
-1.014, -9.093e-6
-1.013, -9.093e-6
-1.012, -9.093e-6
-1.011, -9.093e-6
-1.010, -9.093e-6
-1.009, -9.093e-6
-1.008, -9.093e-6
-1.007, -9.093e-6
-1.006, -9.093e-6
-1.005, -9.093e-6
-1.004, -9.093e-6
-1.003, -9.093e-6
-1.002, -9.093e-6
-1.001, -9.093e-6
