Potential V vs RHE, Current mA cm-2
0.013299999999999867,37.94255706238028
0.012299999999999978,36.20246216354629
0.011299999999999866,34.58969128170015
0.010299999999999976,33.06180307784591
0.009299999999999864,31.661238890979522
0.008299999999999974,30.317263156107735
0.007299999999999862,29.044022986229205
0.006299999999999972,27.742488590353368
0.00529999999999986,26.426807081478888
0.0042999999999999705,25.04039000761115
0.0032999999999998586,23.639825820744765
0.0022999999999999687,22.239261633878378
0.0012999999999998568,20.89528589900659
0.00029999999999996696,19.622045729128057
-0.000700000000000145,18.44783535024008
-0.0017000000000000348,17.316066310348052
-0.0027000000000001467,16.22673860945197
-0.0037000000000000366,15.137410908555893
-0.0047000000000001485,13.954712261868721
-0.005700000000000038,12.733816410085195
-0.00670000000000015,11.469064508005852
-0.00770000000000004,10.20431260592651
-0.008700000000000152,9.025858093138934
-0.009700000000000042,7.848818291651225
-0.010700000000000154,6.801931929751096
-0.011700000000000044,5.75504556785097
-0.012700000000000156,4.795871306542475
-0.013700000000000045,3.7928409949381634
-0.014700000000000157,2.70209858274222
-0.015700000000000047,1.6113561705462767
-0.01670000000000016,0.43403342679859325
-0.01770000000000005,-0.7437137303390498
-0.01870000000000016,-1.8773218949209036
-0.01970000000000005,-2.924208256821031
-0.020700000000000163,-3.927238568425342
-0.021700000000000053,-4.887827541033701
-0.022700000000000164,-5.759289701750564
-0.023700000000000054,-6.719878674358924
-0.024700000000000166,-7.722908985963235
-0.025700000000000056,-8.769795347863363
-0.026700000000000168,-9.85912304875944
-0.027700000000000058,-10.949865460955383
-0.02870000000000017,-12.040607873151327
-0.02970000000000006,-13.043638184755638
-0.03070000000000017,-14.002812446064135
-0.03170000000000006,-14.868615761581536
-0.03270000000000017,-15.70329542850191
-0.03370000000000006,-16.622857773414182
-0.034700000000000175,-17.542420118326454
-0.035700000000000065,-18.53271802823198
-0.03670000000000018,-19.579604390132108
-0.03770000000000007,-20.683079204026836
-0.03870000000000018,-21.67337711393236
-0.03970000000000007,-22.63538079784059
-0.04070000000000018,-23.55494314275286
-0.04170000000000007,-24.432064148669184
-0.04270000000000018,-25.210155363594954
-0.04370000000000007,-26.087276369511276
-0.044700000000000184,-27.00683871442355
-0.045700000000000074,-28.011283737327723
-0.046700000000000186,-29.001581647233255
-0.047700000000000076,-30.00602667013743
-0.04870000000000019,-31.010471693041605
-0.04970000000000008,-31.887592698957924
-0.05070000000000019,-32.764713704874254
-0.05170000000000008,-33.58524625879597
-0.05270000000000019,-34.377484586720385
-0.05370000000000008,-35.198017140642115
-0.05470000000000019,-36.11757948555439
-0.05570000000000008,-37.037141830466666
-0.056700000000000195,-38.08402819236679
-0.057700000000000085,-39.08847321527096
-0.058700000000000196,-40.03632978618054
-0.059700000000000086,-40.95589213109281
-0.0607000000000002,-41.79057179801318
-0.06170000000000009,-42.568663012938956
-0.0627000000000002,-43.36090134086337
-0.06370000000000009,-44.181433894785094
-0.0647000000000002,-45.01611356170547
-0.06570000000000009,-45.97811724561369
-0.0667000000000002,-46.94012092952192
-0.0677000000000001,-47.93041883942744
-0.0687000000000002,-48.89242252333566
-0.0697000000000001,-49.76954352925199
-0.07070000000000021,-50.60422319617236
-0.0717000000000001,-51.38231441109813
-0.07270000000000021,-52.17455273902255
-0.0737000000000001,-52.95264395394832
-0.07470000000000021,-53.82976495986464
-0.0757000000000001,-54.73518019177827
-0.07670000000000021,-55.6971838756865
-0.0777000000000001,-56.70162889859067
-0.07870000000000021,-57.66363258249889
-0.0797000000000001,-58.54075358841522
-0.08070000000000022,-59.36128614233694
-0.0817000000000001,-60.15352447026136
-0.08270000000000022,-60.889174346191176
-0.08370000000000011,-61.6814126741156
-0.08470000000000022,-62.459503889041365
-0.08570000000000011,-63.37906623395363
-0.08670000000000022,-64.34106991786187
-0.08770000000000011,-65.38795627976201
-0.08870000000000022,-66.39240130266617
-0.08970000000000011,-67.25537519558385
-0.09070000000000022,-68.04761352350828
-0.09170000000000011,-68.74082206044213
-0.09270000000000023,-69.43403059737601
-0.09370000000000012,-70.22626892530042
-0.09470000000000023,-71.10338993121674
-0.09570000000000012,-72.05124650212633
-0.09670000000000023,-73.0556915250305
-0.09770000000000012,-74.10257788693062
-0.09870000000000023,-75.02214023184291
-0.09970000000000012,-75.94170257675518
-0.10070000000000023,-76.71979379168094
-0.10170000000000012,-77.51203211960537
-0.10270000000000024,-78.20524065653922
-0.10370000000000013,-78.99747898446365
-0.10470000000000024,-79.81801153838538
-0.10570000000000013,-80.73757388329766
-0.10670000000000024,-81.69957756720586
-0.10770000000000013,-82.70402259011003
-0.10870000000000024,-83.60943782202366
-0.10970000000000013,-84.44411748894404
-0.11070000000000024,-85.27879715586442
-0.11170000000000013,-86.01444703179425
-0.11270000000000002,-86.75009690772404
-0.11370000000000013,-87.49989389665252
-0.11470000000000002,-88.32042645057423
-0.11570000000000014,-89.23998879548651
-0.11670000000000003,-90.20199247939475
-0.11770000000000014,-91.20643750229891
-0.11870000000000003,-92.12599984721119
-0.11970000000000014,-93.03141507912481
-0.12070000000000003,-93.86609474604518
-0.12170000000000014,-94.6583330739696
-0.12270000000000003,-95.39398294989942
-0.12370000000000014,-96.21451550382113
-0.12470000000000003,-97.09163650973747
-0.12570000000000014,-98.05364019364569
-0.12670000000000003,-99.01564387755391
-0.12770000000000015,-100.02008890045809
-0.12870000000000004,-101.02453392336226
-0.12970000000000015,-101.92994915527588
-0.13070000000000004,-102.76462882219626
-0.13170000000000015,-103.59930848911664
-0.13270000000000004,-104.3773997040424
-0.13370000000000015,-105.21207937096277
-0.13470000000000004,-106.07505326388046
-0.13570000000000015,-106.99461560879273
-0.13670000000000004,-107.95661929270095
-0.13770000000000016,-108.96106431560513
-0.13870000000000005,-109.92306799951335
-0.13970000000000016,-110.78604189243102
-0.14070000000000005,-111.6207215593514
-0.14170000000000016,-112.44125411327312
-0.14270000000000005,-113.23349244119754
-0.14370000000000016,-114.0115836561233
-0.14470000000000005,-114.84626332304367
-0.14570000000000016,-115.72338432896
-0.14670000000000005,-116.67124089986959
-0.14770000000000016,-117.67568592277377
-0.14870000000000005,-118.63768960668197
-0.14970000000000017,-119.5996932905902
-0.15070000000000006,-120.51925563550247
-0.15170000000000017,-121.43881798041474
-0.15270000000000006,-122.30179187333242
-0.15370000000000017,-123.1364715402528
-0.15470000000000006,-123.95700409417452
-0.15570000000000017,-124.87656643908679
-0.15670000000000006,-125.7536874450031
-0.15770000000000017,-126.6732497899154
-0.15870000000000006,-127.57866502182902
-0.15970000000000018,-128.41334468874936
-0.16070000000000007,-129.2338772426711
-0.16170000000000018,-130.02611557059552
-0.16270000000000007,-130.8042067855213
-0.16370000000000018,-131.63888645244168
-0.16470000000000007,-132.55844879735392
-0.16570000000000018,-133.52045248126214
-0.16670000000000007,-134.5107503911677
-0.16770000000000018,-135.5576367530678
-0.16870000000000007,-136.51964043697603
-0.16970000000000018,-137.43920278188833
-0.17070000000000007,-138.17485265781812
-0.17170000000000019,-138.92464964674662
-0.17270000000000008,-139.61785818368048
-0.1737000000000002,-140.41009651160488
-0.17470000000000008,-141.2306290655266
-0.1757000000000002,-142.17848563643616
-0.17670000000000008,-143.16878354634173
-0.1777000000000002,-144.30055258623375
-0.17870000000000008,-145.29085049613926
-0.1797000000000002,-146.28114840604482
-0.18070000000000008,-147.1299751859638
-0.1817000000000002,-147.97880196588284
-0.18270000000000008,-148.82762874580186
-0.1837000000000002,-149.6764555257209
-0.1847000000000001,-150.5252823056399
-0.1857000000000002,-151.5155802155454
-0.1867000000000001,-152.64734925543743
-0.1877000000000002,-153.77911829532948
-0.1887000000000001,-154.9108873352215
-0.1897000000000002,-155.90118524512707
-0.1907000000000001,-156.89148315503257
-0.1917000000000001,-157.59883880496508
-0.19269999999999998,-158.3061944548976
-0.1937000000000001,-159.01355010483013
-0.19469999999999998,-159.86237688474912
-0.1957000000000001,-160.71120366466818
-0.19669999999999999,-161.84297270456022
-0.1977000000000001,-162.8332706144657
-0.1987,-163.82356852437124
-0.1997000000000001,-164.81386643427678
-0.2007,-165.8041643441823
-0.2017000000000001,-166.65299112410133
-0.2027,-167.50181790402033
-0.2037000000000001,-168.35064468393938
-0.2047,-169.19947146385837
-0.2057000000000001,-170.18976937376394
-0.2067,-171.18006728366944
-0.2077000000000001,-172.31183632356147
-0.2087,-173.302134233467
-0.2097000000000001,-174.150961013386
-0.2107,-174.99978779330505
-0.2117000000000001,-175.84861457322407
-0.2127,-176.55597022315658
-0.2137000000000001,-177.4047970030756
-0.2147,-178.25362378299462
-0.2157000000000001,-179.24392169290016
-0.2167,-180.23421960280567
-0.21770000000000012,-181.2245175127112
-0.2187,-182.21481542261674
-0.21970000000000012,-183.20511333252225
-0.2207,-184.19541124242778
-0.22170000000000012,-185.0442380223468
-0.2227,-185.89306480226583
-0.22370000000000012,-186.88336271217133
-0.2247,-187.87366062207687
-0.22570000000000012,-188.8639585319824
-0.2267,-189.8542564418879
-0.22770000000000012,-190.84455435179345
-0.22870000000000001,-191.69338113171247
-0.22970000000000013,-192.683679041618
-0.23070000000000002,-193.3910346915505
-0.23170000000000013,-194.2398614714695
-0.23270000000000002,-195.08868825138856
-0.23370000000000013,-195.93751503130758
-0.23470000000000002,-196.7863418112266
-0.23570000000000013,-197.77663972113214
-0.23670000000000002,-198.76693763103765
-0.2376999999999999,-199.75723554094319
-0.23870000000000002,-200.88900458083523
-0.2396999999999999,-201.87930249074074
-0.24070000000000003,-202.7281292706598
-0.24169999999999991,-203.57695605057876
-0.24270000000000003,-204.2843117005113
-0.24369999999999992,-205.13313848043032
-0.24470000000000003,-206.12343639033585
-0.24569999999999992,-207.1137343002414
-0.24670000000000003,-208.1040322101469
-0.24769999999999992,-209.23580125003892
-0.24870000000000003,-210.22609915994445
-0.24969999999999992,-211.21639706985
-0.25070000000000003,-212.065223849769
-0.2516999999999999,-212.914050629688
-0.25270000000000004,-213.76287740960703
-0.2536999999999999,-214.47023305953954
-0.25470000000000004,-215.31905983945856
-0.2556999999999999,-216.3093577493641
-0.25670000000000004,-217.29965565926966
-0.25769999999999993,-218.57289582914817
-0.25870000000000004,-219.7046648690402
-0.25969999999999993,-220.6949627789457
-0.26070000000000004,-221.68526068885126
-0.26169999999999993,-222.53408746877028
-0.26270000000000004,-223.2414431187028
-0.26369999999999993,-224.09026989862178
-0.26470000000000005,-224.93909667854084
-0.26569999999999994,-225.78792345845983
-0.26670000000000005,-226.91969249835188
-0.26769999999999994,-227.9099904082574
-0.26870000000000005,-228.90028831816295
-0.26969999999999994,-229.74911509808197
-0.27070000000000005,-230.59794187800094
-0.27169999999999994,-231.3052975279335
-0.27270000000000005,-232.15412430785253
-0.27369999999999994,-233.00295108777152
-0.27470000000000006,-233.85177786769057
-0.27569999999999995,-234.84207577759608
-0.27670000000000006,-235.97384481748813
-0.27769999999999995,-236.96414272739366
-0.27870000000000006,-238.0959117672857
-0.27969999999999995,-238.94473854720468
-0.28070000000000006,-239.7935653271237
-0.28169999999999995,-240.64239210704275
-0.28270000000000006,-241.34974775697523
-0.28369999999999995,-242.19857453689428
-0.28470000000000006,-243.18887244679982
-0.28569999999999995,-244.17917035670533
-0.28670000000000007,-245.31093939659738
-0.28769999999999996,-246.4427084364894
-0.28870000000000007,-247.57447747638145
-0.28969999999999996,-248.70624651627344
-0.29070000000000007,-249.69654442617897
-0.29169999999999996,-250.6868423360845
-0.29270000000000007,-251.53566911600356
-0.29369999999999996,-252.38449589592256
-0.2947000000000001,-253.37479380582806
-0.29569999999999996,-254.36509171573357
-0.2967000000000001,-255.35538962563913
-0.29769999999999996,-256.34568753554464
-0.2987000000000001,-257.33598544545015
-0.29969999999999997,-258.32628335535566
-0.3007000000000001,-259.0336390052882
-0.30169999999999997,-259.8824657852072
-0.3027000000000001,-260.58982143513975
-0.30369999999999997,-261.4386482150588
-0.3047000000000001,-262.42894612496434
-0.30569999999999997,-263.27777290488336
-0.3067000000000001,-264.2680708147888
-0.3077,-265.39983985468086
-0.3087000000000001,-266.2486666345999
-0.3097,-267.23896454450545
-0.3107000000000001,-268.22926245441096
-0.3117,-269.07808923433
-0.3127000000000001,-269.926916014249
-0.3137,-270.9172139241545
-0.3147000000000001,-271.9075118340601
-0.3157,-273.03928087395207
-0.3167000000000001,-274.1710499138441
-0.3177,-275.30281895373616
-0.3187000000000001,-276.43458799362816
-0.3197,-277.56635703352015
-0.3207000000000001,-278.5566549434257
-0.3217,-279.40548172334474
-0.3227000000000001,-280.25430850326376
-0.3237,-280.9616641531963
-0.3247000000000001,-281.8104909331153
-0.3257,-282.65931771303434
-0.3267000000000001,-283.64961562293985
-0.3277,-284.63991353284536
-0.3287000000000001,-285.6302114427509
-0.3297,-286.6205093526564
-0.3307000000000001,-287.46933613257545
-0.3317,-288.45963404248096
-0.3327000000000001,-289.3084608224
-0.3337,-290.29875873230554
-0.3347000000000001,-291.14758551222457
-0.3357,-292.1378834221301
-0.3367000000000001,-293.26965246202207
-0.3377,-294.4014215019141
-0.3387000000000001,-295.3917194118196
-0.3397,-296.3820173217252
-0.3407000000000001,-297.23084410164427
-0.3417,-298.2211420115498
-0.3427000000000001,-299.06996879146874
-0.3437,-300.06026670137425
-0.3447000000000001,-301.0505646112798
-0.3457,-302.0408625211853
-0.3467000000000001,-303.0311604310908
-0.3477,-304.1629294709828
-0.3487000000000001,-305.0117562509019
-0.3497,-306.00205416080746
-0.3507000000000001,-306.70940981073994
-0.3517,-307.55823659065896
-0.3527000000000001,-308.2655922405915
-0.3537,-309.1144190205105
-0.3547000000000001,-309.9632458004295
-0.3557,-311.09501484032154
-0.35670000000000013,-312.0853127502271
-0.3577,-313.21708179011915
-0.35870000000000013,-314.20737970002466
-0.3597,-315.3391487399167
-0.36070000000000013,-316.3294466498222
-0.3617,-317.1782734297412
-0.3626999999999999,-318.02710020966026
-0.3637,-319.01739811956577
-0.3646999999999999,-320.00769602947133
-0.3657,-320.9979939393768
-0.3666999999999999,-322.12976297926883
-0.3677,-323.2615320191609
-0.3686999999999999,-324.3933010590529
-0.36970000000000003,-325.3835989689584
-0.3706999999999999,-326.23242574887746
-0.37170000000000003,-327.222723658783
-0.3726999999999999,-328.071550438702
-0.37370000000000003,-328.92037721862107
-0.3746999999999999,-329.9106751285266
-0.37570000000000003,-330.9009730384321
-0.3766999999999999,-332.03274207832413
-0.37770000000000004,-333.02303998822964
-0.3786999999999999,-334.01333789813515
-0.37970000000000004,-335.00363580804066
-0.3806999999999999,-335.9939337179462
-0.38170000000000004,-336.84276049786524
-0.38269999999999993,-337.69158727778427
-0.38370000000000004,-338.5404140577033
-0.38469999999999993,-339.5307119676088
-0.38570000000000004,-340.5210098775143
-0.38669999999999993,-340.3795387475279
-0.38570000000000004,-337.9745295377573
-0.38469999999999993,-335.71099145797325
-0.38370000000000004,-333.44745337818915
-0.38269999999999993,-331.18391529840505
-0.38170000000000004,-328.92037721862107
-0.3806999999999999,-326.51536800885043
-0.37970000000000004,-324.25182992906645
-0.3786999999999999,-322.12976297926883
-0.37770000000000004,-320.00769602947133
-0.3766999999999999,-318.02710020966026
-0.37570000000000003,-316.04650438984913
-0.3746999999999999,-313.9244374400517
-0.37370000000000003,-311.80237049025413
-0.3726999999999999,-309.6803035404565
-0.37170000000000003,-307.55823659065896
-0.3706999999999999,-305.43616964086146
-0.36970000000000003,-303.17263156107737
-0.3686999999999999,-301.1920357412663
-0.3677,-299.06996879146874
-0.3666999999999999,-297.0893729716577
-0.3657,-295.25024828183314
-0.3646999999999999,-293.26965246202207
-0.3637,-291.28905664221105
-0.3626999999999999,-289.1669896924135
-0.3617,-287.04492274261594
-0.36070000000000013,-284.9228557928184
-0.3597,-282.8007888430208
-0.35870000000000013,-280.82019302320975
-0.3577,-278.8395972033987
-0.35670000000000013,-277.0004725135742
-0.3557,-275.0198766937631
-0.3547000000000001,-273.1807520039386
-0.3537,-271.05868505414105
-0.3527000000000001,-269.07808923433
-0.3517,-267.09749341451896
-0.3507000000000001,-264.9754264647214
-0.3497,-262.9948306449103
-0.3487000000000001,-261.1557059550858
-0.3477,-259.17511013527474
-0.3467000000000001,-257.33598544545015
-0.3457,-255.49686075562562
-0.3447000000000001,-253.65773606580112
-0.3437,-251.96008250596302
-0.3427000000000001,-249.979486686152
-0.3417,-247.99889086634093
-0.3407000000000001,-246.01829504652986
-0.3397,-244.03769922671884
-0.3387000000000001,-242.05710340690777
-0.3377,-240.35944984706975
-0.3367000000000001,-238.5203251572452
-0.3357,-236.82267159740715
-0.3347000000000001,-234.9835469075826
-0.3337,-233.1444222177581
-0.3327000000000001,-231.3052975279335
-0.3317,-229.32470170812243
-0.3307000000000001,-227.4855770182979
-0.3297,-225.64645232847332
-0.3287000000000001,-223.80732763864881
-0.3277,-222.10967407881074
-0.3267000000000001,-220.41202051897272
-0.3257,-218.71436695913465
-0.3247000000000001,-217.01671339929663
-0.3237,-215.17758870947208
-0.3227000000000001,-213.33846401964755
-0.3217,-211.499339329823
-0.3207000000000001,-209.51874351001192
-0.3197,-207.8210899501739
-0.3187000000000001,-205.98196526034934
-0.3177,-204.2843117005113
-0.3167000000000001,-202.58665814067325
-0.3157,-201.03047571082172
-0.3147000000000001,-199.33282215098367
-0.3137,-197.63516859114563
-0.3127000000000001,-195.79604390132107
-0.3117,-194.09839034148303
-0.3107000000000001,-192.2592656516585
-0.3097,-190.42014096183394
-0.3087000000000001,-188.72248740199586
-0.3077,-187.02483384215788
-0.3067000000000001,-185.46865141230631
-0.30569999999999997,-183.91246898245475
-0.3047000000000001,-182.21481542261674
-0.30369999999999997,-180.65863299276518
-0.3027000000000001,-178.96097943292713
-0.30169999999999997,-177.1218547431026
-0.3007000000000001,-175.28273005327804
-0.29969999999999997,-173.58507649344
-0.2987000000000001,-171.88742293360195
-0.29769999999999996,-170.33124050375042
-0.2967000000000001,-168.77505807389886
-0.29569999999999996,-167.21887564404733
-0.2947000000000001,-165.6626932141958
-0.29369999999999996,-163.96503965435775
-0.29270000000000007,-162.40885722450622
-0.29169999999999996,-160.71120366466818
-0.29070000000000007,-159.01355010483013
-0.28969999999999996,-157.31589654499206
-0.28870000000000007,-155.61824298515404
-0.28769999999999996,-154.0620605553025
-0.28670000000000007,-152.50587812545095
-0.28569999999999995,-151.09116682558593
-0.28470000000000006,-149.53498439573437
-0.28369999999999995,-147.97880196588284
-0.28270000000000006,-146.28114840604482
-0.28169999999999995,-144.58349484620675
-0.28070000000000006,-143.0273124163552
-0.27969999999999995,-141.3721001955131
-0.27870000000000006,-139.74518220066832
-0.27769999999999995,-138.27388244880868
-0.27670000000000006,-136.83087692294635
-0.27569999999999995,-135.43031273607997
-0.27470000000000006,-134.04389566221224
-0.27369999999999994,-132.516007458358
-0.27270000000000005,-130.9456779155078
-0.27169999999999994,-129.33290703366166
-0.27070000000000005,-127.62110636082497
-0.26969999999999994,-126.00833547897882
-0.26870000000000005,-124.39556459713268
-0.26769999999999994,-122.86767639327843
