Potential V vs RHE, Current mA cm-2
0.013299999999999867,41.210540165068515
0.012299999999999978,39.38556258824262
0.011299999999999866,37.77279170639648
0.010299999999999976,36.28734484153819
0.009299999999999864,34.92922199366775
0.008299999999999974,33.712570275783825
0.007299999999999862,32.41103587990799
0.006299999999999972,31.010471693041605
0.00529999999999986,29.567466167179266
0.0042999999999999705,28.12446064131693
0.0032999999999998586,26.780484906445146
0.0022999999999999687,25.563833188561212
0.0012999999999998568,24.37547569667458
0.00029999999999996696,23.328589334774456
-0.000700000000000145,22.239261633878378
-0.0017000000000000348,21.022609915994444
-0.0027000000000001467,19.749369746115914
-0.0037000000000000366,18.40539401124413
-0.0047000000000001485,17.146300954364243
-0.005700000000000038,15.957943462477614
-0.00670000000000015,14.911057100577487
-0.00770000000000004,13.91227092287277
-0.008700000000000152,12.907825899968595
-0.009700000000000042,11.862354249368334
-0.010700000000000154,10.64004368628494
-0.011700000000000044,9.463003884797232
-0.012700000000000156,8.242108033013702
-0.013700000000000045,7.15136562081776
-0.014700000000000157,6.1044792589176335
-0.015700000000000047,5.18774633660509
-0.01670000000000016,4.272428125592412
-0.01770000000000005,3.313253864283916
-0.01870000000000016,2.2663675023837886
-0.01970000000000005,1.0881959318561862
-0.020700000000000163,-0.04582249900262853
-0.021700000000000053,-1.1362961160515976
-0.022700000000000164,-2.1390434853959355
-0.023700000000000054,-3.055776407708479
-0.024700000000000166,-3.884797229429391
-0.025700000000000056,-4.756259390146253
-0.026700000000000168,-5.759289701750564
-0.027700000000000058,-6.806176063650692
-0.02870000000000017,-7.940774526142452
-0.02970000000000006,-8.987660888042578
-0.03070000000000017,-9.99069119964689
-0.03170000000000006,-10.863568071663616
-0.03270000000000017,-11.691174182084664
-0.03370000000000006,-12.520195003805576
-0.034700000000000175,-13.3930718758223
-0.035700000000000065,-14.444202371622024
-0.03670000000000018,-15.491088733522153
-0.03770000000000007,-16.580416434418233
-0.03870000000000018,-17.48583166633185
-0.03970000000000007,-18.40539401124413
-0.04070000000000018,-19.197632339168546
-0.04170000000000007,-19.97572355409432
-0.04270000000000018,-20.85284456001064
-0.04370000000000007,-21.772406904922917
-0.044700000000000184,-22.819293266823045
-0.045700000000000074,-23.823738289727217
-0.046700000000000186,-24.814036199632742
-0.047700000000000076,-25.691157205549064
-0.04870000000000019,-26.525836872469437
-0.04970000000000008,-27.303928087395207
-0.05070000000000019,-28.05372507632368
-0.05170000000000008,-28.959140308237306
-0.05270000000000019,-29.921143992145527
-0.05370000000000008,-30.925589015049702
-0.05470000000000019,-31.887592698957924
-0.05570000000000008,-32.764713704874254
-0.056700000000000195,-33.54280491980002
-0.057700000000000085,-34.278454795729836
-0.058700000000000196,-35.07069312365426
-0.059700000000000086,-35.90537279057463
-0.0607000000000002,-36.81078802248826
-0.06170000000000009,-37.85767438438838
-0.0627000000000002,-38.90456074628851
-0.06370000000000009,-39.78168175220483
-0.0647000000000002,-40.616361419125205
-0.06570000000000009,-41.352011295055014
-0.0667000000000002,-42.04521983198889
-0.0677000000000001,-42.837458159913304
-0.0687000000000002,-43.657990713835034
-0.0697000000000001,-44.619994397743255
-0.07070000000000021,-45.624439420647434
-0.0717000000000001,-46.586443104555656
-0.07270000000000021,-47.40697565847737
-0.0737000000000001,-48.1992139864018
-0.07470000000000021,-48.89242252333566
-0.0757000000000001,-49.68466085126009
-0.07670000000000021,-50.547634744177756
-0.0777000000000001,-51.46719708909004
-0.07870000000000021,-52.471642111994214
-0.0797000000000001,-53.39120445690648
-0.08070000000000022,-54.31076680181876
-0.0817000000000001,-55.046416677748574
-0.08270000000000022,-55.73962521468245
-0.08370000000000011,-56.489422203610914
-0.08470000000000022,-57.26751341853669
-0.08570000000000011,-58.18707576344896
-0.08670000000000022,-59.10663810836124
-0.08770000000000011,-60.06864179226946
-0.08870000000000022,-60.93161568518713
-0.08970000000000011,-61.72385401311155
-0.09070000000000022,-62.41706255004542
-0.09170000000000011,-63.11027108697928
-0.09270000000000023,-63.902509414903705
-0.09370000000000012,-64.82207175981598
-0.09470000000000023,-65.7274869917296
-0.09570000000000012,-66.68949067563783
-0.09670000000000023,-67.65149435954605
-0.09770000000000012,-68.44373268747047
-0.09870000000000023,-69.1793825634003
-0.09970000000000012,-69.87259110033416
-0.10070000000000023,-70.66482942825859
-0.10170000000000012,-71.48536198218031
-0.10270000000000024,-72.44736566608852
-0.10370000000000013,-73.45181068899271
-0.10470000000000024,-74.37137303390499
-0.10570000000000013,-75.29093537881725
-0.10670000000000024,-76.02658525474708
-0.10770000000000013,-76.7622351306769
-0.10870000000000024,-77.42714944161345
-0.10970000000000013,-78.20524065653922
-0.11070000000000024,-79.1248030014515
-0.11170000000000013,-80.04436534636378
-0.11270000000000002,-81.04881036926795
-0.11370000000000013,-81.91178426218562
-0.11470000000000002,-82.746463929106
-0.11570000000000014,-83.48211380503581
-0.11670000000000003,-84.18946945496833
-0.11770000000000014,-84.92511933089816
-0.11870000000000003,-85.80224033681448
-0.11970000000000014,-86.7076555687281
-0.12070000000000003,-87.71210059163228
-0.12170000000000014,-88.6741042755405
-0.12270000000000003,-89.55122528145681
-0.12370000000000014,-90.41419917437449
-0.12470000000000003,-91.16399616330297
-0.12570000000000014,-91.94208737822873
-0.12670000000000003,-92.7767670451491
-0.12770000000000015,-93.69632939006138
-0.12870000000000004,-94.70077441296557
-0.12970000000000015,-95.56374830588322
-0.13070000000000004,-96.3984279728036
-0.13170000000000015,-97.21896052672531
-0.13270000000000004,-98.09608153264163
-0.13370000000000015,-98.93076119956201
-0.13470000000000004,-99.7937350924797
-0.13570000000000015,-100.79818011538387
-0.13670000000000004,-101.76018379929208
-0.13770000000000016,-102.63730480520842
-0.13870000000000005,-103.45783735913014
-0.13970000000000016,-104.2076343480586
-0.14070000000000005,-104.90084288499246
-0.14170000000000016,-105.69308121291688
-0.14270000000000005,-106.51361376683862
-0.14370000000000016,-107.30585209476303
-0.14470000000000005,-108.21126732667666
-0.14570000000000016,-109.21571234958083
-0.14670000000000005,-110.22015737248502
-0.14770000000000016,-111.22460239538917
-0.14870000000000005,-112.05928206230955
-0.14970000000000017,-112.83737327723534
-0.15070000000000006,-113.58717026616378
-0.15170000000000017,-114.3228201420936
-0.15270000000000006,-115.15749980901398
-0.15370000000000017,-116.02047370193165
-0.15470000000000006,-116.89759470784797
-0.15570000000000017,-117.81715705276027
-0.15670000000000006,-118.68013094567793
-0.15770000000000017,-119.55725195159425
-0.15870000000000006,-120.39193161851462
-0.15970000000000018,-121.21246417243634
-0.16070000000000007,-122.1320265173486
-0.16170000000000018,-123.00914752326493
-0.16270000000000007,-123.95700409417452
-0.16370000000000018,-124.87656643908679
-0.16470000000000007,-125.62636342801528
-0.16570000000000018,-126.3195719649491
-0.16670000000000007,-127.09766317987489
-0.16770000000000018,-127.84746016880335
-0.16870000000000007,-128.66799272272507
-0.16970000000000018,-129.58755506763737
-0.17070000000000007,-130.59200009054155
-0.17170000000000019,-131.55400377444977
-0.17270000000000008,-132.37453632837148
-0.1737000000000002,-133.12433331729994
-0.17470000000000008,-133.81754185423384
-0.1757000000000002,-134.6097801821582
-0.17670000000000008,-135.43031273607997
-0.1777000000000002,-136.3923164199882
-0.17870000000000008,-137.39676144289237
-0.1797000000000002,-138.40120646579655
-0.18070000000000008,-139.27832747171286
-0.1817000000000002,-140.0988600256346
-0.18270000000000008,-140.89109835355902
-0.1837000000000002,-141.61260111649017
-0.1847000000000001,-142.4614278964092
-0.1857000000000002,-143.4517258063147
-0.1867000000000001,-144.44202371622026
-0.1877000000000002,-145.57379275611228
-0.1887000000000001,-146.5640906660178
-0.1897000000000002,-147.27144631595033
-0.1907000000000001,-148.12027309586935
-0.1917000000000001,-148.82762874580186
-0.19269999999999998,-149.6764555257209
-0.1937000000000001,-150.66675343562642
-0.19469999999999998,-151.65705134553193
-0.1957000000000001,-152.64734925543743
-0.19669999999999999,-153.63764716534297
-0.1977000000000001,-154.6279450752485
-0.1987,-155.47677185516753
-0.1997000000000001,-156.18412750510007
-0.2007,-157.03295428501906
-0.2017000000000001,-157.88178106493808
-0.2027,-158.87207897484362
-0.2037000000000001,-160.00384801473567
-0.2047,-160.8526747946547
-0.2057000000000001,-161.84297270456022
-0.2067,-162.6917994844792
-0.2077000000000001,-163.39915513441173
-0.2087,-164.10651078434424
-0.2097000000000001,-164.9553375642633
-0.2107,-165.94563547416882
-0.2117000000000001,-167.07740451406085
-0.2127,-168.06770242396635
-0.2137000000000001,-169.0580003338719
-0.2147,-169.9068271137909
-0.2157000000000001,-170.75565389370993
-0.2167,-171.46300954364247
-0.21770000000000012,-172.31183632356147
-0.2187,-173.16066310348046
-0.21970000000000012,-174.150961013386
-0.2207,-175.28273005327804
-0.22170000000000012,-176.13155683319707
-0.2227,-176.98038361311612
-0.22370000000000012,-177.82921039303508
-0.2247,-178.53656604296762
-0.22570000000000012,-179.38539282288664
-0.2267,-180.37569073279218
-0.22770000000000012,-181.36598864269772
-0.22870000000000001,-182.35628655260325
-0.22970000000000013,-183.34658446250873
-0.23070000000000002,-184.33688237241427
-0.23170000000000013,-185.0442380223468
-0.23270000000000002,-185.7515936722793
-0.23370000000000013,-186.60042045219836
-0.23470000000000002,-187.44924723211736
-0.23570000000000013,-188.4395451420229
-0.23670000000000002,-189.42984305192843
-0.2376999999999999,-190.42014096183394
-0.23870000000000002,-191.551910001726
-0.2396999999999999,-192.2592656516585
-0.24070000000000003,-193.10809243157752
-0.24169999999999991,-193.81544808151003
-0.24270000000000003,-194.66427486142905
-0.24369999999999992,-195.65457277133459
-0.24470000000000003,-196.50339955125358
-0.24569999999999992,-197.49369746115914
-0.24670000000000003,-198.48399537106465
-0.24769999999999992,-199.33282215098367
-0.24870000000000003,-200.04017780091618
-0.24969999999999992,-200.88900458083523
-0.25070000000000003,-201.73783136075423
-0.2516999999999999,-202.58665814067325
-0.25270000000000004,-203.57695605057876
-0.2536999999999999,-204.5672539604843
-0.25470000000000004,-205.55755187038983
-0.2556999999999999,-206.40637865030885
-0.25670000000000004,-207.25520543022787
-0.25769999999999993,-207.96256108016038
-0.25870000000000004,-208.8113878600794
-0.25969999999999993,-209.66021463999843
-0.26070000000000004,-210.50904141991748
-0.26169999999999993,-211.64081045980947
-0.26270000000000004,-212.631108369715
-0.26369999999999993,-213.62140627962054
-0.26470000000000005,-214.61170418952605
-0.26569999999999994,-215.31905983945856
-0.26670000000000005,-216.1678866193776
-0.26769999999999994,-217.01671339929663
-0.26870000000000005,-218.00701130920217
-0.26969999999999994,-219.13878034909416
-0.27070000000000005,-220.2705493889862
-0.27169999999999994,-221.26084729889175
-0.27270000000000005,-222.25114520879725
-0.27369999999999994,-222.9585008587298
-0.27470000000000006,-223.80732763864881
-0.27569999999999995,-224.5146832885813
-0.27670000000000006,-225.36351006850035
-0.27769999999999995,-226.35380797840588
-0.27870000000000006,-227.2026347583249
-0.27969999999999995,-228.1929326682304
-0.28070000000000006,-229.18323057813595
-0.28169999999999995,-230.17352848804146
-0.28270000000000006,-231.0223552679605
-0.28369999999999995,-231.8711820478795
-0.28470000000000006,-232.72000882779852
-0.28569999999999995,-233.85177786769057
-0.28670000000000007,-234.9835469075826
-0.28769999999999996,-236.25678707746113
-0.28870000000000007,-237.38855611735315
-0.28969999999999996,-238.2373828972722
-0.29070000000000007,-239.0862096771912
-0.29169999999999996,-239.7935653271237
-0.29270000000000007,-240.50092097705624
-0.29369999999999996,-241.49121888696175
-0.2947000000000001,-242.48151679686728
-0.29569999999999996,-243.6132858367593
-0.2967000000000001,-244.60358374666484
-0.29769999999999996,-245.59388165657037
-0.2987000000000001,-246.5841795664759
-0.29969999999999997,-247.4330063463949
-0.3007000000000001,-248.42330425630044
-0.30169999999999997,-249.41360216620598
-0.3027000000000001,-250.545371206098
-0.30369999999999997,-251.67714024599002
-0.3047000000000001,-252.66743815589555
-0.30569999999999997,-253.65773606580112
-0.3067000000000001,-254.36509171573357
-0.3077,-255.07244736566614
-0.3087000000000001,-255.92127414558513
-0.3097,-256.77010092550415
-0.3107000000000001,-257.76039883540966
-0.3117,-258.7506967453152
-0.3127000000000001,-259.8824657852072
-0.3137,-260.73129256512624
-0.3147000000000001,-261.7215904750318
-0.3157,-262.57041725495077
-0.3167000000000001,-263.27777290488336
-0.3177,-264.12659968480233
-0.3187000000000001,-265.11689759470784
-0.3197,-266.2486666345999
-0.3207000000000001,-267.23896454450545
-0.3217,-268.22926245441096
-0.3227000000000001,-269.2195603643164
-0.3237,-269.926916014249
-0.3247000000000001,-270.63427166418154
-0.3257,-271.341627314114
-0.3267000000000001,-272.1904540940331
-0.3277,-273.1807520039386
-0.3287000000000001,-274.1710499138441
-0.3297,-275.1613478237496
-0.3307000000000001,-276.01017460366864
-0.3317,-276.8590013835877
-0.3327000000000001,-277.7078281635067
-0.3337,-278.5566549434257
-0.3347000000000001,-279.40548172334474
-0.3357,-280.3957796332503
-0.3367000000000001,-281.3860775431558
-0.3377,-282.3763754530613
-0.3387000000000001,-283.5081444929533
-0.3397,-284.35697127287233
-0.3407000000000001,-285.2057980527914
-0.3417,-285.9131537027239
-0.3427000000000001,-286.76198048264297
-0.3437,-287.610807262562
-0.3447000000000001,-288.6011051724675
-0.3457,-289.73287421235955
-0.3467000000000001,-290.723172122265
-0.3477,-291.71347003217056
-0.3487000000000001,-292.4208256821031
-0.3497,-293.26965246202207
-0.3507000000000001,-294.11847924194115
-0.3517,-295.10877715184665
-0.3527000000000001,-296.0990750617522
-0.3537,-297.0893729716577
-0.3547000000000001,-298.07967088156323
-0.3557,-298.9284976614822
-0.35670000000000013,-299.7773244414013
-0.3577,-300.48468009133376
-0.35870000000000013,-301.33350687125284
-0.3597,-302.18233365117186
-0.36070000000000013,-303.31410269106385
-0.3617,-304.4458717309559
-0.3626999999999999,-305.43616964086146
-0.3637,-306.4264675507669
-0.3646999999999999,-307.27529433068594
-0.3657,-308.124121110605
-0.3666999999999999,-308.972947890524
-0.3677,-309.821774670443
-0.3686999999999999,-310.6706014503621
-0.36970000000000003,-311.80237049025413
-0.3706999999999999,-312.79266840015964
-0.37170000000000003,-313.78296631006515
-0.3726999999999999,-314.77326421997066
-0.37370000000000003,-315.6220909998897
-0.3746999999999999,-316.47091777980876
-0.37570000000000003,-317.3197445597277
-0.3766999999999999,-318.16857133964675
-0.37770000000000004,-319.15886924955225
-0.3786999999999999,-320.2906382894443
-0.37970000000000004,-321.2809361993498
-0.3806999999999999,-322.2712341092554
-0.38170000000000004,-323.2615320191609
-0.38269999999999993,-324.1103587990799
-0.38370000000000004,-324.9591855789989
-0.38469999999999993,-325.80801235891795
-0.38570000000000004,-326.79831026882346
-0.38669999999999993,-326.51536800885043
-0.38570000000000004,-324.25182992906645
-0.38469999999999993,-321.98829184928235
-0.38370000000000004,-319.72475376949825
-0.38269999999999993,-317.3197445597277
-0.38170000000000004,-314.77326421997066
-0.3806999999999999,-312.36825501020013
-0.37970000000000004,-309.9632458004295
-0.3786999999999999,-307.841178850632
-0.37770000000000004,-305.8605830308209
-0.3766999999999999,-303.87998721100985
-0.37570000000000003,-301.7579202612123
-0.3746999999999999,-299.3529110514418
-0.37370000000000003,-296.94790184167124
-0.3726999999999999,-294.68436376188714
-0.37170000000000003,-292.56229681208964
-0.3706999999999999,-290.44022986229203
-0.36970000000000003,-288.45963404248096
-0.3686999999999999,-286.47903822266994
-0.3677,-284.63991353284536
-0.3666999999999999,-282.51784658304786
-0.3657,-280.3957796332503
-0.3646999999999999,-278.2737126834527
-0.3637,-276.29311686364167
-0.3626999999999999,-274.31252104383066
-0.3617,-272.1904540940331
-0.36070000000000013,-270.0683871442355
-0.3597,-267.94632019443793
-0.35870000000000013,-265.82425324464043
-0.3577,-263.7021862948428
-0.35670000000000013,-261.58011934504526
-0.3557,-259.4580523952477
-0.3547000000000001,-257.6189277054232
-0.3537,-255.92127414558513
-0.3527000000000001,-254.08214945576057
-0.3517,-252.243024765936
-0.3507000000000001,-250.262428946125
-0.3497,-247.99889086634093
-0.3487000000000001,-245.87682391654337
-0.3477,-243.75475696674582
-0.3467000000000001,-241.77416114693477
-0.3457,-239.93503645711021
-0.3447000000000001,-238.2373828972722
-0.3437,-236.3982582074476
-0.3427000000000001,-234.55913351762308
-0.3417,-232.57853769781204
-0.3407000000000001,-230.59794187800094
-0.3397,-228.61734605818995
-0.3387000000000001,-226.63675023837888
-0.3377,-224.79762554855435
-0.3367000000000001,-223.09997198871628
-0.3357,-221.26084729889175
-0.3347000000000001,-219.5631937390537
-0.3337,-217.72406904922914
-0.3327000000000001,-216.0264154893911
-0.3317,-214.18729079956654
-0.3307000000000001,-212.34816610974204
-0.3297,-210.36757028993094
-0.3287000000000001,-208.6699167300929
-0.3277,-206.97226317025488
-0.3267000000000001,-205.27460961041683
-0.3257,-203.43548492059227
-0.3247000000000001,-201.4548891007812
-0.3237,-199.47429328097016
-0.3227000000000001,-197.49369746115914
-0.3217,-195.65457277133459
-0.3207000000000001,-193.9569192114965
-0.3197,-192.40073678164498
-0.3187000000000001,-190.84455435179345
-0.3177,-189.2883719219419
-0.3167000000000001,-187.59071836210387
-0.3157,-185.7515936722793
-0.3147000000000001,-183.91246898245475
-0.3137,-182.21481542261674
-0.3127000000000001,-180.5171618627787
-0.3117,-178.81950830294062
-0.3107000000000001,-177.2633258730891
-0.3097,-175.56567231325104
-0.3087000000000001,-173.72654762342648
-0.3077,-171.88742293360195
-0.3067000000000001,-170.0482982437774
-0.30569999999999997,-168.20917355395284
-0.3047000000000001,-166.51151999411482
-0.30369999999999997,-164.9553375642633
-0.3027000000000001,-163.54062626439824
-0.30169999999999997,-161.9844438345467
-0.3007000000000001,-160.42826140469515
-0.29969999999999997,-158.73060784485713
-0.2987000000000001,-157.03295428501906
-0.29769999999999996,-155.47677185516753
-0.2967000000000001,-153.920589425316
-0.29569999999999996,-152.36440699546444
-0.2947000000000001,-150.94969569559944
-0.29369999999999996,-149.53498439573437
-0.29270000000000007,-147.83733083589632
-0.29169999999999996,-146.1396772760583
-0.29070000000000007,-144.15908145624724
-0.28969999999999996,-142.4614278964092
-0.28870000000000007,-140.74962722357247
-0.28769999999999996,-139.27832747171286
-0.28670000000000007,-137.79288060685457
-0.28569999999999995,-136.3923164199882
-0.28470000000000006,-134.9068695551299
-0.28369999999999995,-133.29409867328377
-0.28270000000000006,-131.68132779143764
-0.28169999999999995,-130.02611557059552
-0.28070000000000006,-128.45578602774532
-0.27969999999999995,-126.97033916288706
-0.27870000000000006,-125.5273336370247
-0.27769999999999995,-124.14091656315696
-0.27670000000000006,-122.65546969829869
-0.27569999999999995,-121.0851401554485
-0.27470000000000006,-119.47236927360234
-0.27369999999999994,-117.85959839175621
-0.27270000000000005,-116.24682750991008
-0.27169999999999994,-114.76138064505177
-0.27070000000000005,-113.36081645818538
-0.26969999999999994,-112.01684072331359
-0.26870000000000005,-110.6162765364472
-0.26769999999999994,-109.17327101058488
