Sept. 23, 2024   08:36:40
Cyclic Voltammetry
File: c:/users/guazh/data/20240922_batch_417_500/2024-09-22-exp424\exp424-2024-09-23t08_15_37-arkoh\exp424_cv_sr_600mvs_efin_-1900mv.bin
Data Source:  Experiment
Instrument Model:  CHI760E
Header: CV ran at 600 mVs
Note: 

Init E (V) = -1
High E (V) = -1
Low E (V) = -1.9
Final E (V) = -1
Init P/N = N
Scan Rate (V/s) = 0.6
Segment = 3
Sample Interval (V) = 0.001
Quiet Time (sec) = 2
Sensitivity (A/V) = 0.01
Comp R (ohm) = 2.5

Results:

Channel 1:
Segment 1:

Segment 2:

Segment 3:

Potential/V, Current/A

-1.000, 1.559e-7
-1.001, 1.559e-7
-1.002, 1.559e-7
-1.003, 1.559e-7
-1.004, 3.239e-6
-1.005, 3.239e-6
-1.006, 3.239e-6
-1.007, 3.239e-6
-1.008, 3.239e-6
-1.009, 3.239e-6
-1.010, 3.239e-6
-1.011, 3.239e-6
-1.012, 3.239e-6
-1.013, 3.239e-6
-1.014, 3.239e-6
-1.015, 3.239e-6
-1.016, 3.239e-6
-1.017, 3.239e-6
-1.018, 3.239e-6
-1.019, 3.239e-6
-1.020, 3.239e-6
-1.021, 3.239e-6
-1.022, 3.239e-6
-1.023, 3.239e-6
-1.024, 3.239e-6
-1.025, 3.239e-6
-1.026, 3.239e-6
-1.027, 3.239e-6
-1.028, 3.239e-6
-1.029, 3.239e-6
-1.030, 3.239e-6
-1.031, 3.239e-6
-1.032, 3.239e-6
-1.033, 3.239e-6
-1.034, 3.239e-6
-1.035, 3.239e-6
-1.036, 3.239e-6
-1.037, 3.239e-6
-1.038, 3.239e-6
-1.039, 3.239e-6
-1.040, 3.239e-6
-1.041, 3.239e-6
-1.042, 3.239e-6
-1.043, 3.239e-6
-1.044, 3.239e-6
-1.045, 3.239e-6
-1.046, 3.239e-6
-1.047, 3.239e-6
-1.048, 3.239e-6
-1.049, 3.239e-6
-1.050, 3.239e-6
-1.051, 3.239e-6
-1.052, 3.239e-6
-1.053, 3.239e-6
-1.054, 3.239e-6
-1.055, 3.239e-6
-1.056, 3.239e-6
-1.057, 3.239e-6
-1.058, 3.239e-6
-1.059, 3.239e-6
-1.060, 3.239e-6
-1.061, 3.239e-6
-1.062, 3.239e-6
-1.063, 3.239e-6
-1.064, 3.239e-6
-1.065, 3.239e-6
-1.066, 3.239e-6
-1.067, 3.239e-6
-1.068, 3.239e-6
-1.069, 3.239e-6
-1.070, 3.239e-6
-1.071, 3.239e-6
-1.072, 3.239e-6
-1.073, 3.239e-6
-1.074, 3.239e-6
-1.075, 3.239e-6
-1.076, 3.239e-6
-1.077, 3.239e-6
-1.078, 3.239e-6
-1.079, 3.239e-6
-1.080, 3.239e-6
-1.081, 3.239e-6
-1.082, 3.239e-6
-1.083, 3.239e-6
-1.084, 3.239e-6
-1.085, 3.239e-6
-1.086, 3.239e-6
-1.087, 3.239e-6
-1.088, 6.322e-6
-1.089, 3.239e-6
-1.090, 6.322e-6
-1.091, 6.322e-6
-1.092, 6.322e-6
-1.093, 3.239e-6
-1.094, 3.239e-6
-1.095, 3.239e-6
-1.096, 6.322e-6
-1.097, 3.239e-6
-1.098, 3.239e-6
-1.099, 3.239e-6
-1.100, 3.239e-6
-1.101, 3.239e-6
-1.102, 3.239e-6
-1.103, 6.322e-6
-1.104, 3.239e-6
-1.105, 3.239e-6
-1.106, 6.322e-6
-1.107, 3.239e-6
-1.108, 6.322e-6
-1.109, 3.239e-6
-1.110, 3.239e-6
-1.111, 3.239e-6
-1.112, 3.239e-6
-1.113, 6.322e-6
-1.114, 3.239e-6
-1.115, 6.322e-6
-1.116, 6.322e-6
-1.117, 6.322e-6
-1.118, 3.239e-6
-1.119, 6.322e-6
-1.120, 3.239e-6
-1.121, 6.322e-6
-1.122, 6.322e-6
-1.123, 6.322e-6
-1.124, 6.322e-6
-1.125, 6.322e-6
-1.126, 6.322e-6
-1.127, 3.239e-6
-1.128, 6.322e-6
-1.129, 6.322e-6
-1.130, 6.322e-6
-1.131, 6.322e-6
-1.132, 6.322e-6
-1.133, 6.322e-6
-1.134, 6.322e-6
-1.135, 6.322e-6
-1.136, 6.322e-6
-1.137, 6.322e-6
-1.138, 6.322e-6
-1.139, 6.322e-6
-1.140, 3.239e-6
-1.141, 6.322e-6
-1.142, 6.322e-6
-1.143, 6.322e-6
-1.144, 6.322e-6
-1.145, 6.322e-6
-1.146, 6.322e-6
-1.147, 6.322e-6
-1.148, 6.322e-6
-1.149, 6.322e-6
-1.150, 6.322e-6
-1.151, 6.322e-6
-1.152, 6.322e-6
-1.153, 6.322e-6
-1.154, 6.322e-6
-1.155, 6.322e-6
-1.156, 6.322e-6
-1.157, 6.322e-6
-1.158, 6.322e-6
-1.159, 6.322e-6
-1.160, 6.322e-6
-1.161, 6.322e-6
-1.162, 6.322e-6
-1.163, 6.322e-6
-1.164, 6.322e-6
-1.165, 6.322e-6
-1.166, 6.322e-6
-1.167, 6.322e-6
-1.168, 6.322e-6
-1.169, 6.322e-6
-1.170, 6.322e-6
-1.171, 6.322e-6
-1.172, 6.322e-6
-1.173, 6.322e-6
-1.174, 6.322e-6
-1.175, 6.322e-6
-1.176, 6.322e-6
-1.177, 6.322e-6
-1.178, 6.322e-6
-1.179, 6.322e-6
-1.180, 6.322e-6
-1.181, 6.322e-6
-1.182, 6.322e-6
-1.183, 6.322e-6
-1.184, 6.322e-6
-1.185, 6.322e-6
-1.186, 6.322e-6
-1.187, 6.322e-6
-1.188, 6.322e-6
-1.189, 6.322e-6
-1.190, 6.322e-6
-1.191, 6.322e-6
-1.192, 6.322e-6
-1.193, 6.322e-6
-1.194, 6.322e-6
-1.195, 6.322e-6
-1.196, 6.322e-6
-1.197, 6.322e-6
-1.198, 6.322e-6
-1.199, 6.322e-6
-1.200, 6.322e-6
-1.201, 6.322e-6
-1.202, 6.322e-6
-1.203, 6.322e-6
-1.204, 6.322e-6
-1.205, 6.322e-6
-1.206, 6.322e-6
-1.207, 6.322e-6
-1.208, 6.322e-6
-1.209, 6.322e-6
-1.210, 6.322e-6
-1.211, 6.322e-6
-1.212, 6.322e-6
-1.213, 6.322e-6
-1.214, 9.405e-6
-1.215, 6.322e-6
-1.216, 6.322e-6
-1.217, 6.322e-6
-1.218, 6.322e-6
-1.219, 6.322e-6
-1.220, 6.322e-6
-1.221, 6.322e-6
-1.222, 6.322e-6
-1.223, 6.322e-6
-1.224, 6.322e-6
-1.225, 6.322e-6
-1.226, 9.405e-6
-1.227, 6.322e-6
-1.228, 6.322e-6
-1.229, 9.405e-6
-1.230, 6.322e-6
-1.231, 9.405e-6
-1.232, 9.405e-6
-1.233, 6.322e-6
-1.234, 6.322e-6
-1.235, 6.322e-6
-1.236, 6.322e-6
-1.237, 6.322e-6
-1.238, 9.405e-6
-1.239, 6.322e-6
-1.240, 9.405e-6
-1.241, 6.322e-6
-1.242, 6.322e-6
-1.243, 9.405e-6
-1.244, 9.405e-6
-1.245, 6.322e-6
-1.246, 9.405e-6
-1.247, 6.322e-6
-1.248, 6.322e-6
-1.249, 9.405e-6
-1.250, 6.322e-6
-1.251, 9.405e-6
-1.252, 9.405e-6
-1.253, 9.405e-6
-1.254, 9.405e-6
-1.255, 9.405e-6
-1.256, 9.405e-6
-1.257, 9.405e-6
-1.258, 9.405e-6
-1.259, 9.405e-6
-1.260, 9.405e-6
-1.261, 9.405e-6
-1.262, 9.405e-6
-1.263, 9.405e-6
-1.264, 9.405e-6
-1.265, 9.405e-6
-1.266, 9.405e-6
-1.267, 9.405e-6
-1.268, 9.405e-6
-1.269, 9.405e-6
-1.270, 9.405e-6
-1.271, 9.405e-6
-1.272, 9.405e-6
-1.273, 9.405e-6
-1.274, 9.405e-6
-1.275, 9.405e-6
-1.276, 9.405e-6
-1.277, 9.405e-6
-1.278, 9.405e-6
-1.279, 9.405e-6
-1.280, 9.405e-6
-1.281, 9.405e-6
-1.282, 9.405e-6
-1.283, 9.405e-6
-1.284, 9.405e-6
-1.285, 9.405e-6
-1.286, 9.405e-6
-1.287, 9.405e-6
-1.288, 9.405e-6
-1.289, 9.405e-6
-1.290, 9.405e-6
-1.291, 9.405e-6
-1.292, 9.405e-6
-1.293, 9.405e-6
-1.294, 9.405e-6
-1.295, 9.405e-6
-1.296, 9.405e-6
-1.297, 9.405e-6
-1.298, 9.405e-6
-1.299, 9.405e-6
-1.300, 9.405e-6
-1.301, 9.405e-6
-1.302, 9.405e-6
-1.303, 9.405e-6
-1.304, 9.405e-6
-1.305, 9.405e-6
-1.306, 9.405e-6
-1.307, 9.405e-6
-1.308, 9.405e-6
-1.309, 9.405e-6
-1.310, 9.405e-6
-1.311, 9.405e-6
-1.312, 9.405e-6
-1.313, 9.405e-6
-1.314, 9.405e-6
-1.315, 9.405e-6
-1.316, 9.405e-6
-1.317, 9.405e-6
-1.318, 9.405e-6
-1.319, 9.405e-6
-1.320, 9.405e-6
-1.321, 9.405e-6
-1.322, 9.405e-6
-1.323, 9.405e-6
-1.324, 9.405e-6
-1.325, 9.405e-6
-1.326, 9.405e-6
-1.327, 9.405e-6
-1.328, 9.405e-6
-1.329, 9.405e-6
-1.330, 1.249e-5
-1.331, 9.405e-6
-1.332, 9.405e-6
-1.333, 9.405e-6
-1.334, 9.405e-6
-1.335, 1.249e-5
-1.336, 1.249e-5
-1.337, 9.405e-6
-1.338, 9.405e-6
-1.339, 9.405e-6
-1.340, 9.405e-6
-1.341, 9.405e-6
-1.342, 9.405e-6
-1.343, 9.405e-6
-1.344, 9.405e-6
-1.345, 9.405e-6
-1.346, 9.405e-6
-1.347, 9.405e-6
-1.348, 9.405e-6
-1.349, 9.405e-6
-1.350, 9.405e-6
-1.351, 9.405e-6
-1.352, 9.405e-6
-1.353, 9.405e-6
-1.354, 9.405e-6
-1.355, 1.249e-5
-1.356, 9.405e-6
-1.357, 9.405e-6
-1.358, 9.405e-6
-1.359, 1.249e-5
-1.360, 9.405e-6
-1.361, 9.405e-6
-1.362, 1.249e-5
-1.363, 9.405e-6
-1.364, 1.249e-5
-1.365, 9.405e-6
-1.366, 1.249e-5
-1.367, 1.249e-5
-1.368, 9.405e-6
-1.369, 9.405e-6
-1.370, 1.249e-5
-1.371, 1.249e-5
-1.372, 1.249e-5
-1.373, 1.249e-5
-1.374, 9.405e-6
-1.375, 9.405e-6
-1.376, 1.249e-5
-1.377, 1.249e-5
-1.378, 9.405e-6
-1.379, 1.249e-5
-1.380, 9.405e-6
-1.381, 1.249e-5
-1.382, 9.405e-6
-1.383, 1.249e-5
-1.384, 1.249e-5
-1.385, 1.249e-5
-1.386, 1.249e-5
-1.387, 1.249e-5
-1.388, 1.249e-5
-1.389, 1.249e-5
-1.390, 1.249e-5
-1.391, 1.249e-5
-1.392, 1.249e-5
-1.393, 1.249e-5
-1.394, 1.249e-5
-1.395, 1.249e-5
-1.396, 1.249e-5
-1.397, 1.249e-5
-1.398, 1.249e-5
-1.399, 1.249e-5
-1.400, 1.249e-5
-1.401, 1.249e-5
-1.402, 1.249e-5
-1.403, 1.249e-5
-1.404, 1.249e-5
-1.405, 1.249e-5
-1.406, 1.249e-5
-1.407, 1.249e-5
-1.408, 1.249e-5
-1.409, 1.249e-5
-1.410, 1.249e-5
-1.411, 1.249e-5
-1.412, 1.249e-5
-1.413, 1.249e-5
-1.414, 1.249e-5
-1.415, 1.249e-5
-1.416, 1.249e-5
-1.417, 1.249e-5
-1.418, 1.249e-5
-1.419, 1.249e-5
-1.420, 1.249e-5
-1.421, 1.249e-5
-1.422, 1.249e-5
-1.423, 1.249e-5
-1.424, 1.249e-5
-1.425, 1.249e-5
-1.426, 1.249e-5
-1.427, 1.249e-5
-1.428, 1.249e-5
-1.429, 1.249e-5
-1.430, 1.249e-5
-1.431, 1.249e-5
-1.432, 1.249e-5
-1.433, 1.249e-5
-1.434, 1.249e-5
-1.435, 1.249e-5
-1.436, 1.557e-5
-1.437, 1.249e-5
-1.438, 1.249e-5
-1.439, 1.249e-5
-1.440, 1.249e-5
-1.441, 1.249e-5
-1.442, 1.249e-5
-1.443, 1.249e-5
-1.444, 1.249e-5
-1.445, 1.249e-5
-1.446, 1.249e-5
-1.447, 1.249e-5
-1.448, 1.249e-5
-1.449, 1.249e-5
-1.450, 1.557e-5
-1.451, 1.249e-5
-1.452, 1.249e-5
-1.453, 1.249e-5
-1.454, 1.249e-5
-1.455, 1.249e-5
-1.456, 1.557e-5
-1.457, 1.249e-5
-1.458, 1.557e-5
-1.459, 1.557e-5
-1.460, 1.557e-5
-1.461, 1.557e-5
-1.462, 1.557e-5
-1.463, 1.249e-5
-1.464, 1.249e-5
-1.465, 1.557e-5
-1.466, 1.557e-5
-1.467, 1.557e-5
-1.468, 1.557e-5
-1.469, 1.557e-5
-1.470, 1.557e-5
-1.471, 1.557e-5
-1.472, 1.557e-5
-1.473, 1.557e-5
-1.474, 1.557e-5
-1.475, 1.557e-5
-1.476, 1.557e-5
-1.477, 1.557e-5
-1.478, 1.557e-5
-1.479, 1.557e-5
-1.480, 1.557e-5
-1.481, 1.557e-5
-1.482, 1.557e-5
-1.483, 1.557e-5
-1.484, 1.557e-5
-1.485, 1.557e-5
-1.486, 1.557e-5
-1.487, 1.557e-5
-1.488, 1.557e-5
-1.489, 1.557e-5
-1.490, 1.557e-5
-1.491, 1.557e-5
-1.492, 1.557e-5
-1.493, 1.557e-5
-1.494, 1.557e-5
-1.495, 1.557e-5
-1.496, 1.557e-5
-1.497, 1.557e-5
-1.498, 1.557e-5
-1.499, 1.557e-5
-1.500, 1.557e-5
-1.501, 1.557e-5
-1.502, 1.557e-5
-1.503, 1.557e-5
-1.504, 1.557e-5
-1.505, 1.557e-5
-1.506, 1.557e-5
-1.507, 1.557e-5
-1.508, 1.557e-5
-1.509, 1.557e-5
-1.510, 1.557e-5
-1.511, 1.865e-5
-1.512, 1.557e-5
-1.513, 1.557e-5
-1.514, 1.557e-5
-1.515, 1.557e-5
-1.516, 1.865e-5
-1.517, 1.557e-5
-1.518, 1.557e-5
-1.519, 1.557e-5
-1.520, 1.557e-5
-1.521, 1.557e-5
-1.522, 1.865e-5
-1.523, 1.865e-5
-1.524, 1.865e-5
-1.525, 1.865e-5
-1.526, 1.865e-5
-1.527, 1.865e-5
-1.528, 1.865e-5
-1.529, 1.865e-5
-1.530, 1.865e-5
-1.531, 1.865e-5
-1.532, 1.865e-5
-1.533, 1.865e-5
-1.534, 1.865e-5
-1.535, 1.865e-5
-1.536, 1.865e-5
-1.537, 1.865e-5
-1.538, 1.865e-5
-1.539, 1.865e-5
-1.540, 1.865e-5
-1.541, 1.865e-5
-1.542, 1.865e-5
-1.543, 1.865e-5
-1.544, 1.865e-5
-1.545, 1.865e-5
-1.546, 2.174e-5
-1.547, 1.865e-5
-1.548, 1.865e-5
-1.549, 1.865e-5
-1.550, 1.865e-5
-1.551, 2.174e-5
-1.552, 1.865e-5
-1.553, 1.865e-5
-1.554, 2.174e-5
-1.555, 1.865e-5
-1.556, 2.174e-5
-1.557, 2.174e-5
-1.558, 1.865e-5
-1.559, 2.174e-5
-1.560, 2.174e-5
-1.561, 2.174e-5
-1.562, 2.174e-5
-1.563, 2.174e-5
-1.564, 2.174e-5
-1.565, 2.174e-5
-1.566, 2.174e-5
-1.567, 2.174e-5
-1.568, 2.174e-5
-1.569, 2.174e-5
-1.570, 2.174e-5
-1.571, 2.174e-5
-1.572, 2.174e-5
-1.573, 2.174e-5
-1.574, 2.482e-5
-1.575, 2.174e-5
-1.576, 2.482e-5
-1.577, 2.174e-5
-1.578, 2.482e-5
-1.579, 2.482e-5
-1.580, 2.482e-5
-1.581, 2.482e-5
-1.582, 2.482e-5
-1.583, 2.482e-5
-1.584, 2.174e-5
-1.585, 2.482e-5
-1.586, 2.482e-5
-1.587, 2.482e-5
-1.588, 2.482e-5
-1.589, 2.482e-5
-1.590, 2.482e-5
-1.591, 2.790e-5
-1.592, 2.482e-5
-1.593, 2.482e-5
-1.594, 2.790e-5
-1.595, 2.482e-5
-1.596, 2.790e-5
-1.597, 2.790e-5
-1.598, 2.482e-5
-1.599, 2.790e-5
-1.600, 2.790e-5
-1.601, 2.790e-5
-1.602, 2.790e-5
-1.603, 2.790e-5
-1.604, 2.790e-5
-1.605, 2.790e-5
-1.606, 3.099e-5
-1.607, 3.099e-5
-1.608, 2.790e-5
-1.609, 3.099e-5
-1.610, 3.099e-5
-1.611, 3.099e-5
-1.612, 3.099e-5
-1.613, 3.099e-5
-1.614, 3.099e-5
-1.615, 3.099e-5
-1.616, 3.099e-5
-1.617, 3.099e-5
-1.618, 3.099e-5
-1.619, 3.407e-5
-1.620, 3.407e-5
-1.621, 3.407e-5
-1.622, 3.407e-5
-1.623, 3.407e-5
-1.624, 3.407e-5
-1.625, 3.407e-5
-1.626, 3.715e-5
-1.627, 3.407e-5
-1.628, 3.715e-5
-1.629, 3.715e-5
-1.630, 3.715e-5
-1.631, 3.715e-5
-1.632, 3.715e-5
-1.633, 3.715e-5
-1.634, 4.024e-5
-1.635, 4.024e-5
-1.636, 4.024e-5
-1.637, 4.024e-5
-1.638, 4.024e-5
-1.639, 4.024e-5
-1.640, 4.024e-5
-1.641, 4.332e-5
-1.642, 4.332e-5
-1.643, 4.332e-5
-1.644, 4.332e-5
-1.645, 4.332e-5
-1.646, 4.640e-5
-1.647, 4.640e-5
-1.648, 4.640e-5
-1.649, 4.640e-5
-1.650, 4.640e-5
-1.651, 4.949e-5
-1.652, 4.949e-5
-1.653, 4.949e-5
-1.654, 4.949e-5
-1.655, 5.257e-5
-1.656, 4.949e-5
-1.657, 5.257e-5
-1.658, 5.257e-5
-1.659, 5.257e-5
-1.660, 5.565e-5
-1.661, 5.565e-5
-1.662, 5.565e-5
-1.663, 5.873e-5
-1.664, 5.873e-5
-1.665, 5.873e-5
-1.666, 6.182e-5
-1.667, 5.873e-5
-1.668, 6.182e-5
-1.669, 6.182e-5
-1.670, 6.490e-5
-1.671, 6.490e-5
-1.672, 6.490e-5
-1.673, 6.798e-5
-1.674, 6.798e-5
-1.675, 7.107e-5
-1.676, 7.107e-5
-1.677, 7.107e-5
-1.678, 7.415e-5
-1.679, 7.415e-5
-1.680, 7.723e-5
-1.681, 7.723e-5
-1.682, 8.032e-5
-1.683, 8.032e-5
-1.684, 8.032e-5
-1.685, 8.340e-5
-1.686, 8.340e-5
-1.687, 8.648e-5
-1.688, 8.648e-5
-1.689, 8.957e-5
-1.690, 8.957e-5
-1.691, 9.265e-5
-1.692, 9.573e-5
-1.693, 9.573e-5
-1.694, 9.882e-5
-1.695, 1.019e-4
-1.696, 1.019e-4
-1.697, 1.050e-4
-1.698, 1.081e-4
-1.699, 1.081e-4
-1.700, 1.111e-4
-1.701, 1.142e-4
-1.702, 1.142e-4
-1.703, 1.173e-4
-1.704, 1.204e-4
-1.705, 1.235e-4
-1.706, 1.266e-4
-1.707, 1.266e-4
-1.708, 1.296e-4
-1.709, 1.327e-4
-1.710, 1.358e-4
-1.711, 1.389e-4
-1.712, 1.420e-4
-1.713, 1.451e-4
-1.714, 1.481e-4
-1.715, 1.512e-4
-1.716, 1.543e-4
-1.717, 1.574e-4
-1.718, 1.636e-4
-1.719, 1.666e-4
-1.720, 1.697e-4
-1.721, 1.728e-4
-1.722, 1.759e-4
-1.723, 1.821e-4
-1.724, 1.851e-4
-1.725, 1.882e-4
-1.726, 1.944e-4
-1.727, 1.975e-4
-1.728, 2.036e-4
-1.729, 2.067e-4
-1.730, 2.129e-4
-1.731, 2.160e-4
-1.732, 2.221e-4
-1.733, 2.283e-4
-1.734, 2.314e-4
-1.735, 2.376e-4
-1.736, 2.437e-4
-1.737, 2.499e-4
-1.738, 2.561e-4
-1.739, 2.622e-4
-1.740, 2.684e-4
-1.741, 2.746e-4
-1.742, 2.807e-4
-1.743, 2.869e-4
-1.744, 2.931e-4
-1.745, 2.992e-4
-1.746, 3.085e-4
-1.747, 3.146e-4
-1.748, 3.239e-4
-1.749, 3.300e-4
-1.750, 3.393e-4
-1.751, 3.485e-4
-1.752, 3.547e-4
-1.753, 3.640e-4
-1.754, 3.732e-4
-1.755, 3.825e-4
-1.756, 3.917e-4
-1.757, 4.010e-4
-1.758, 4.102e-4
-1.759, 4.195e-4
-1.760, 4.287e-4
-1.761, 4.410e-4
-1.762, 4.534e-4
-1.763, 4.626e-4
-1.764, 4.750e-4
-1.765, 4.842e-4
-1.766, 4.965e-4
-1.767, 5.089e-4
-1.768, 5.212e-4
-1.769, 5.335e-4
-1.770, 5.489e-4
-1.771, 5.613e-4
-1.772, 5.736e-4
-1.773, 5.890e-4
-1.774, 6.014e-4
-1.775, 6.168e-4
-1.776, 6.322e-4
-1.777, 6.476e-4
-1.778, 6.630e-4
-1.779, 6.815e-4
-1.780, 6.969e-4
-1.781, 7.124e-4
-1.782, 7.309e-4
-1.783, 7.463e-4
-1.784, 7.648e-4
-1.785, 7.802e-4
-1.786, 7.987e-4
-1.787, 8.172e-4
-1.788, 8.388e-4
-1.789, 8.573e-4
-1.790, 8.788e-4
-1.791, 8.973e-4
-1.792, 9.189e-4
-1.793, 9.436e-4
-1.794, 9.621e-4
-1.795, 9.837e-4
-1.796, 1.008e-3
-1.797, 1.030e-3
-1.798, 1.051e-3
-1.799, 1.076e-3
-1.800, 1.098e-3
-1.801, 1.122e-3
-1.802, 1.147e-3
-1.803, 1.172e-3
-1.804, 1.199e-3
-1.805, 1.224e-3
-1.806, 1.252e-3
-1.807, 1.280e-3
-1.808, 1.310e-3
-1.809, 1.338e-3
-1.810, 1.366e-3
-1.811, 1.397e-3
-1.812, 1.425e-3
-1.813, 1.452e-3
-1.814, 1.483e-3
-1.815, 1.511e-3
-1.816, 1.542e-3
-1.817, 1.573e-3
-1.818, 1.606e-3
-1.819, 1.640e-3
-1.820, 1.674e-3
-1.821, 1.708e-3
-1.822, 1.745e-3
-1.823, 1.779e-3
-1.824, 1.813e-3
-1.825, 1.847e-3
-1.826, 1.884e-3
-1.827, 1.918e-3
-1.828, 1.955e-3
-1.829, 1.989e-3
-1.830, 2.026e-3
-1.831, 2.066e-3
-1.832, 2.106e-3
-1.833, 2.146e-3
-1.834, 2.189e-3
-1.835, 2.232e-3
-1.836, 2.279e-3
-1.837, 2.322e-3
-1.838, 2.362e-3
-1.839, 2.405e-3
-1.840, 2.445e-3
-1.841, 2.485e-3
-1.842, 2.525e-3
-1.843, 2.562e-3
-1.844, 2.602e-3
-1.845, 2.645e-3
-1.846, 2.692e-3
-1.847, 2.738e-3
-1.848, 2.790e-3
-1.849, 2.840e-3
-1.850, 2.892e-3
-1.851, 2.945e-3
-1.852, 2.994e-3
-1.853, 3.040e-3
-1.854, 3.083e-3
-1.855, 3.130e-3
-1.856, 3.176e-3
-1.857, 3.219e-3
-1.858, 3.265e-3
-1.859, 3.311e-3
-1.860, 3.364e-3
-1.861, 3.413e-3
-1.862, 3.472e-3
-1.863, 3.527e-3
-1.864, 3.586e-3
-1.865, 3.644e-3
-1.866, 3.700e-3
-1.867, 3.752e-3
-1.868, 3.808e-3
-1.869, 3.857e-3
-1.870, 3.906e-3
-1.871, 3.956e-3
-1.872, 4.008e-3
-1.873, 4.064e-3
-1.874, 4.119e-3
-1.875, 4.178e-3
-1.876, 4.236e-3
-1.877, 4.298e-3
-1.878, 4.360e-3
-1.879, 4.424e-3
-1.880, 4.486e-3
-1.881, 4.545e-3
-1.882, 4.603e-3
-1.883, 4.659e-3
-1.884, 4.711e-3
-1.885, 4.767e-3
-1.886, 4.819e-3
-1.887, 4.875e-3
-1.888, 4.927e-3
-1.889, 4.982e-3
-1.890, 5.041e-3
-1.891, 5.103e-3
-1.892, 5.167e-3
-1.893, 5.235e-3
-1.894, 5.300e-3
-1.895, 5.368e-3
-1.896, 5.436e-3
-1.897, 5.497e-3
-1.898, 5.559e-3
-1.899, 5.614e-3
-1.900, 5.642e-3
-1.899, 5.611e-3
-1.898, 5.581e-3
-1.897, 5.547e-3
-1.896, 5.513e-3
-1.895, 5.479e-3
-1.894, 5.442e-3
-1.893, 5.408e-3
-1.892, 5.377e-3
-1.891, 5.349e-3
-1.890, 5.322e-3
-1.889, 5.294e-3
-1.888, 5.257e-3
-1.887, 5.220e-3
-1.886, 5.180e-3
-1.885, 5.143e-3
-1.884, 5.103e-3
-1.883, 5.063e-3
-1.882, 5.023e-3
-1.881, 4.982e-3
-1.880, 4.942e-3
-1.879, 4.905e-3
-1.878, 4.868e-3
-1.877, 4.834e-3
-1.876, 4.801e-3
-1.875, 4.770e-3
-1.874, 4.739e-3
-1.873, 4.702e-3
-1.872, 4.668e-3
-1.871, 4.631e-3
-1.870, 4.591e-3
-1.869, 4.551e-3
-1.868, 4.508e-3
-1.867, 4.464e-3
-1.866, 4.424e-3
-1.865, 4.384e-3
-1.864, 4.347e-3
-1.863, 4.307e-3
-1.862, 4.267e-3
-1.861, 4.227e-3
-1.860, 4.187e-3
-1.859, 4.147e-3
-1.858, 4.110e-3
-1.857, 4.070e-3
-1.856, 4.033e-3
-1.855, 3.999e-3
-1.854, 3.968e-3
-1.853, 3.934e-3
-1.852, 3.900e-3
-1.851, 3.863e-3
-1.850, 3.823e-3
-1.849, 3.780e-3
-1.848, 3.740e-3
-1.847, 3.697e-3
-1.846, 3.654e-3
-1.845, 3.614e-3
-1.844, 3.573e-3
-1.843, 3.536e-3
-1.842, 3.499e-3
-1.841, 3.466e-3
-1.840, 3.435e-3
-1.839, 3.401e-3
-1.838, 3.370e-3
-1.837, 3.339e-3
-1.836, 3.302e-3
-1.835, 3.265e-3
-1.834, 3.228e-3
-1.833, 3.188e-3
-1.832, 3.148e-3
-1.831, 3.108e-3
-1.830, 3.071e-3
-1.829, 3.037e-3
-1.828, 3.003e-3
-1.827, 2.966e-3
-1.826, 2.932e-3
-1.825, 2.901e-3
-1.824, 2.874e-3
-1.823, 2.843e-3
-1.822, 2.812e-3
-1.821, 2.781e-3
-1.820, 2.747e-3
-1.819, 2.710e-3
-1.818, 2.673e-3
-1.817, 2.636e-3
-1.816, 2.599e-3
-1.815, 2.568e-3
-1.814, 2.538e-3
-1.813, 2.504e-3
-1.812, 2.476e-3
-1.811, 2.445e-3
-1.810, 2.414e-3
-1.809, 2.386e-3
-1.808, 2.356e-3
-1.807, 2.325e-3
-1.806, 2.297e-3
-1.805, 2.266e-3
-1.804, 2.238e-3
-1.803, 2.208e-3
-1.802, 2.177e-3
-1.801, 2.146e-3
-1.800, 2.121e-3
-1.799, 2.091e-3
-1.798, 2.063e-3
-1.797, 2.038e-3
-1.796, 2.010e-3
-1.795, 1.983e-3
-1.794, 1.955e-3
-1.793, 1.927e-3
-1.792, 1.902e-3
-1.791, 1.875e-3
-1.790, 1.850e-3
-1.789, 1.825e-3
-1.788, 1.798e-3
-1.787, 1.770e-3
-1.786, 1.745e-3
-1.785, 1.721e-3
-1.784, 1.696e-3
-1.783, 1.671e-3
-1.782, 1.647e-3
-1.781, 1.622e-3
-1.780, 1.600e-3
-1.779, 1.576e-3
-1.778, 1.551e-3
-1.777, 1.526e-3
-1.776, 1.502e-3
-1.775, 1.480e-3
-1.774, 1.458e-3
-1.773, 1.437e-3
-1.772, 1.418e-3
-1.771, 1.397e-3
-1.770, 1.375e-3
-1.769, 1.354e-3
-1.768, 1.332e-3
-1.767, 1.310e-3
-1.766, 1.289e-3
-1.765, 1.270e-3
-1.764, 1.249e-3
-1.763, 1.227e-3
-1.762, 1.209e-3
-1.761, 1.190e-3
-1.760, 1.172e-3
-1.759, 1.153e-3
-1.758, 1.135e-3
-1.757, 1.116e-3
-1.756, 1.098e-3
-1.755, 1.082e-3
-1.754, 1.064e-3
-1.753, 1.045e-3
-1.752, 1.030e-3
-1.751, 1.011e-3
-1.750, 9.929e-4
-1.749, 9.775e-4
-1.748, 9.590e-4
-1.747, 9.436e-4
-1.746, 9.282e-4
-1.745, 9.097e-4
-1.744, 8.973e-4
-1.743, 8.819e-4
-1.742, 8.665e-4
-1.741, 8.511e-4
-1.740, 8.357e-4
-1.739, 8.233e-4
-1.738, 8.079e-4
-1.737, 7.925e-4
-1.736, 7.802e-4
-1.735, 7.648e-4
-1.734, 7.494e-4
-1.733, 7.370e-4
-1.732, 7.247e-4
-1.731, 7.124e-4
-1.730, 7.000e-4
-1.729, 6.877e-4
-1.728, 6.754e-4
-1.727, 6.630e-4
-1.726, 6.507e-4
-1.725, 6.384e-4
-1.724, 6.260e-4
-1.723, 6.168e-4
-1.722, 6.044e-4
-1.721, 5.921e-4
-1.720, 5.829e-4
-1.719, 5.705e-4
-1.718, 5.613e-4
-1.717, 5.489e-4
-1.716, 5.397e-4
-1.715, 5.305e-4
-1.714, 5.212e-4
-1.713, 5.089e-4
-1.712, 4.996e-4
-1.711, 4.904e-4
-1.710, 4.811e-4
-1.709, 4.719e-4
-1.708, 4.626e-4
-1.707, 4.534e-4
-1.706, 4.441e-4
-1.705, 4.380e-4
-1.704, 4.287e-4
-1.703, 4.195e-4
-1.702, 4.133e-4
-1.701, 4.040e-4
-1.700, 3.979e-4
-1.699, 3.886e-4
-1.698, 3.794e-4
-1.697, 3.732e-4
-1.696, 3.670e-4
-1.695, 3.609e-4
-1.694, 3.516e-4
-1.693, 3.455e-4
-1.692, 3.393e-4
-1.691, 3.331e-4
-1.690, 3.239e-4
-1.689, 3.177e-4
-1.688, 3.115e-4
-1.687, 3.054e-4
-1.686, 2.992e-4
-1.685, 2.931e-4
-1.684, 2.869e-4
-1.683, 2.838e-4
-1.682, 2.776e-4
-1.681, 2.715e-4
-1.680, 2.653e-4
-1.679, 2.591e-4
-1.678, 2.561e-4
-1.677, 2.499e-4
-1.676, 2.437e-4
-1.675, 2.406e-4
-1.674, 2.345e-4
-1.673, 2.314e-4
-1.672, 2.252e-4
-1.671, 2.191e-4
-1.670, 2.160e-4
-1.669, 2.129e-4
-1.668, 2.067e-4
-1.667, 2.036e-4
-1.666, 1.975e-4
-1.665, 1.944e-4
-1.664, 1.913e-4
-1.663, 1.851e-4
-1.662, 1.821e-4
-1.661, 1.790e-4
-1.660, 1.759e-4
-1.659, 1.728e-4
-1.658, 1.666e-4
-1.657, 1.636e-4
-1.656, 1.605e-4
-1.655, 1.574e-4
-1.654, 1.543e-4
-1.653, 1.512e-4
-1.652, 1.481e-4
-1.651, 1.451e-4
-1.650, 1.420e-4
-1.649, 1.389e-4
-1.648, 1.358e-4
-1.647, 1.327e-4
-1.646, 1.296e-4
-1.645, 1.266e-4
-1.644, 1.235e-4
-1.643, 1.204e-4
-1.642, 1.204e-4
-1.641, 1.173e-4
-1.640, 1.142e-4
-1.639, 1.111e-4
-1.638, 1.081e-4
-1.637, 1.050e-4
-1.636, 1.050e-4
-1.635, 1.019e-4
-1.634, 9.882e-5
-1.633, 9.573e-5
-1.632, 9.573e-5
-1.631, 9.265e-5
-1.630, 8.957e-5
-1.629, 8.957e-5
-1.628, 8.648e-5
-1.627, 8.340e-5
-1.626, 8.340e-5
-1.625, 8.032e-5
-1.624, 8.032e-5
-1.623, 7.723e-5
-1.622, 7.723e-5
-1.621, 7.415e-5
-1.620, 7.415e-5
-1.619, 7.107e-5
-1.618, 6.798e-5
-1.617, 6.798e-5
-1.616, 6.798e-5
-1.615, 6.490e-5
-1.614, 6.490e-5
-1.613, 6.182e-5
-1.612, 6.182e-5
-1.611, 5.873e-5
-1.610, 5.873e-5
-1.609, 5.565e-5
-1.608, 5.565e-5
-1.607, 5.565e-5
-1.606, 5.257e-5
-1.605, 5.257e-5
-1.604, 5.257e-5
-1.603, 4.949e-5
-1.602, 4.949e-5
-1.601, 4.640e-5
-1.600, 4.640e-5
-1.599, 4.640e-5
-1.598, 4.332e-5
-1.597, 4.332e-5
-1.596, 4.024e-5
-1.595, 4.024e-5
-1.594, 4.024e-5
-1.593, 4.024e-5
-1.592, 3.715e-5
-1.591, 3.715e-5
-1.590, 3.715e-5
-1.589, 3.407e-5
-1.588, 3.407e-5
-1.587, 3.407e-5
-1.586, 3.099e-5
-1.585, 3.099e-5
-1.584, 3.099e-5
-1.583, 3.099e-5
-1.582, 3.099e-5
-1.581, 2.790e-5
-1.580, 2.790e-5
-1.579, 2.790e-5
-1.578, 2.790e-5
-1.577, 2.790e-5
-1.576, 2.482e-5
-1.575, 2.482e-5
-1.574, 2.482e-5
-1.573, 2.482e-5
-1.572, 2.174e-5
-1.571, 2.174e-5
-1.570, 2.174e-5
-1.569, 2.174e-5
-1.568, 2.174e-5
-1.567, 1.865e-5
-1.566, 1.865e-5
-1.565, 2.174e-5
-1.564, 1.865e-5
-1.563, 1.865e-5
-1.562, 1.865e-5
-1.561, 1.557e-5
-1.560, 1.865e-5
-1.559, 1.557e-5
-1.558, 1.557e-5
-1.557, 1.557e-5
-1.556, 1.557e-5
-1.555, 1.557e-5
-1.554, 1.557e-5
-1.553, 1.249e-5
-1.552, 1.249e-5
-1.551, 1.249e-5
-1.550, 1.249e-5
-1.549, 1.249e-5
-1.548, 1.249e-5
-1.547, 1.249e-5
-1.546, 1.249e-5
-1.545, 9.405e-6
-1.544, 1.249e-5
-1.543, 9.405e-6
-1.542, 9.405e-6
-1.541, 9.405e-6
-1.540, 9.405e-6
-1.539, 9.405e-6
-1.538, 9.405e-6
-1.537, 9.405e-6
-1.536, 9.405e-6
-1.535, 9.405e-6
-1.534, 6.322e-6
-1.533, 6.322e-6
-1.532, 9.405e-6
-1.531, 9.405e-6
-1.530, 6.322e-6
-1.529, 6.322e-6
-1.528, 6.322e-6
-1.527, 6.322e-6
-1.526, 6.322e-6
-1.525, 6.322e-6
-1.524, 6.322e-6
-1.523, 6.322e-6
-1.522, 6.322e-6
-1.521, 6.322e-6
-1.520, 6.322e-6
-1.519, 6.322e-6
-1.518, 3.239e-6
-1.517, 6.322e-6
-1.516, 3.239e-6
-1.515, 6.322e-6
-1.514, 3.239e-6
-1.513, 6.322e-6
-1.512, 3.239e-6
-1.511, 3.239e-6
-1.510, 3.239e-6
-1.509, 3.239e-6
-1.508, 3.239e-6
-1.507, 3.239e-6
-1.506, 3.239e-6
-1.505, 3.239e-6
-1.504, 3.239e-6
-1.503, 3.239e-6
-1.502, 3.239e-6
-1.501, 3.239e-6
-1.500, 3.239e-6
-1.499, 3.239e-6
-1.498, 1.559e-7
-1.497, 3.239e-6
-1.496, 1.559e-7
-1.495, 1.559e-7
-1.494, 3.239e-6
-1.493, 3.239e-6
-1.492, 1.559e-7
-1.491, 1.559e-7
-1.490, 1.559e-7
-1.489, 1.559e-7
-1.488, 1.559e-7
-1.487, 1.559e-7
-1.486, 1.559e-7
-1.485, 1.559e-7
-1.484, 1.559e-7
-1.483, 1.559e-7
-1.482, 1.559e-7
-1.481, 1.559e-7
-1.480, 1.559e-7
-1.479, 1.559e-7
-1.478, 1.559e-7
-1.477, 1.559e-7
-1.476, 1.559e-7
-1.475, 1.559e-7
-1.474, 1.559e-7
-1.473, 1.559e-7
-1.472, 1.559e-7
-1.471, 1.559e-7
-1.470, 1.559e-7
-1.469, 1.559e-7
-1.468, 1.559e-7
-1.467, 1.559e-7
-1.466, 1.559e-7
-1.465, 1.559e-7
-1.464, 1.559e-7
-1.463, 1.559e-7
-1.462, 1.559e-7
-1.461, 1.559e-7
-1.460, 1.559e-7
-1.459, 1.559e-7
-1.458, 1.559e-7
-1.457, 1.559e-7
-1.456, 1.559e-7
-1.455, -2.927e-6
-1.454, 1.559e-7
-1.453, 1.559e-7
-1.452, -2.927e-6
-1.451, -2.927e-6
-1.450, -2.927e-6
-1.449, 1.559e-7
-1.448, 1.559e-7
-1.447, 1.559e-7
-1.446, -2.927e-6
-1.445, 1.559e-7
-1.444, 1.559e-7
-1.443, -2.927e-6
-1.442, 1.559e-7
-1.441, -2.927e-6
-1.440, -2.927e-6
-1.439, 1.559e-7
-1.438, -2.927e-6
-1.437, -2.927e-6
-1.436, 1.559e-7
-1.435, -2.927e-6
-1.434, -2.927e-6
-1.433, 1.559e-7
-1.432, -2.927e-6
-1.431, -2.927e-6
-1.430, -2.927e-6
-1.429, -2.927e-6
-1.428, -2.927e-6
-1.427, -2.927e-6
-1.426, -2.927e-6
-1.425, -2.927e-6
-1.424, -2.927e-6
-1.423, -2.927e-6
-1.422, -2.927e-6
-1.421, -2.927e-6
-1.420, -2.927e-6
-1.419, 1.559e-7
-1.418, -2.927e-6
-1.417, -2.927e-6
-1.416, -2.927e-6
-1.415, -2.927e-6
-1.414, -2.927e-6
-1.413, -2.927e-6
-1.412, -2.927e-6
-1.411, -2.927e-6
-1.410, -2.927e-6
-1.409, -2.927e-6
-1.408, -2.927e-6
-1.407, -2.927e-6
-1.406, -2.927e-6
-1.405, -2.927e-6
-1.404, -2.927e-6
-1.403, -2.927e-6
-1.402, -2.927e-6
-1.401, -2.927e-6
-1.400, -2.927e-6
-1.399, -2.927e-6
-1.398, -2.927e-6
-1.397, -2.927e-6
-1.396, -2.927e-6
-1.395, -2.927e-6
-1.394, -2.927e-6
-1.393, -2.927e-6
-1.392, -2.927e-6
-1.391, -2.927e-6
-1.390, -2.927e-6
-1.389, -2.927e-6
-1.388, -2.927e-6
-1.387, -2.927e-6
-1.386, -2.927e-6
-1.385, -2.927e-6
-1.384, -2.927e-6
-1.383, -2.927e-6
-1.382, -2.927e-6
-1.381, -2.927e-6
-1.380, -2.927e-6
-1.379, -2.927e-6
-1.378, -2.927e-6
-1.377, -2.927e-6
-1.376, -2.927e-6
-1.375, -2.927e-6
-1.374, -2.927e-6
-1.373, -2.927e-6
-1.372, -2.927e-6
-1.371, -2.927e-6
-1.370, -2.927e-6
-1.369, -2.927e-6
-1.368, -2.927e-6
-1.367, -2.927e-6
-1.366, -2.927e-6
-1.365, -2.927e-6
-1.364, -2.927e-6
-1.363, -2.927e-6
-1.362, -2.927e-6
-1.361, -2.927e-6
-1.360, -2.927e-6
-1.359, -2.927e-6
-1.358, -2.927e-6
-1.357, -2.927e-6
-1.356, -2.927e-6
-1.355, -2.927e-6
-1.354, -2.927e-6
-1.353, -2.927e-6
-1.352, -2.927e-6
-1.351, -2.927e-6
-1.350, -2.927e-6
-1.349, -2.927e-6
-1.348, -2.927e-6
-1.347, -2.927e-6
-1.346, -2.927e-6
-1.345, -2.927e-6
-1.344, -2.927e-6
-1.343, -2.927e-6
-1.342, -2.927e-6
-1.341, -2.927e-6
-1.340, -2.927e-6
-1.339, -2.927e-6
-1.338, -2.927e-6
-1.337, -2.927e-6
-1.336, -2.927e-6
-1.335, -2.927e-6
-1.334, -2.927e-6
-1.333, -2.927e-6
-1.332, -2.927e-6
-1.331, -2.927e-6
-1.330, -2.927e-6
-1.329, -2.927e-6
-1.328, -2.927e-6
-1.327, -2.927e-6
-1.326, -2.927e-6
-1.325, -2.927e-6
-1.324, -2.927e-6
-1.323, -6.010e-6
-1.322, -2.927e-6
-1.321, -2.927e-6
-1.320, -2.927e-6
-1.319, -2.927e-6
-1.318, -2.927e-6
-1.317, -2.927e-6
-1.316, -2.927e-6
-1.315, -2.927e-6
-1.314, -2.927e-6
-1.313, -2.927e-6
-1.312, -2.927e-6
-1.311, -2.927e-6
-1.310, -2.927e-6
-1.309, -2.927e-6
-1.308, -2.927e-6
-1.307, -2.927e-6
-1.306, -2.927e-6
-1.305, -2.927e-6
-1.304, -2.927e-6
-1.303, -2.927e-6
-1.302, -2.927e-6
-1.301, -2.927e-6
-1.300, -2.927e-6
-1.299, -2.927e-6
-1.298, -2.927e-6
-1.297, -6.010e-6
-1.296, -2.927e-6
-1.295, -6.010e-6
-1.294, -2.927e-6
-1.293, -2.927e-6
-1.292, -6.010e-6
-1.291, -6.010e-6
-1.290, -2.927e-6
-1.289, -2.927e-6
-1.288, -6.010e-6
-1.287, -2.927e-6
-1.286, -6.010e-6
-1.285, -2.927e-6
-1.284, -2.927e-6
-1.283, -6.010e-6
-1.282, -6.010e-6
-1.281, -2.927e-6
-1.280, -2.927e-6
-1.279, -2.927e-6
-1.278, -2.927e-6
-1.277, -6.010e-6
-1.276, -2.927e-6
-1.275, -2.927e-6
-1.274, -2.927e-6
-1.273, -2.927e-6
-1.272, -6.010e-6
-1.271, -6.010e-6
-1.270, -2.927e-6
-1.269, -2.927e-6
-1.268, -2.927e-6
-1.267, -2.927e-6
-1.266, -2.927e-6
-1.265, -2.927e-6
-1.264, -2.927e-6
-1.263, -2.927e-6
-1.262, -2.927e-6
-1.261, -2.927e-6
-1.260, -2.927e-6
-1.259, -2.927e-6
-1.258, -2.927e-6
-1.257, -6.010e-6
-1.256, -2.927e-6
-1.255, -6.010e-6
-1.254, -2.927e-6
-1.253, -6.010e-6
-1.252, -6.010e-6
-1.251, -6.010e-6
-1.250, -2.927e-6
-1.249, -2.927e-6
-1.248, -6.010e-6
-1.247, -2.927e-6
-1.246, -6.010e-6
-1.245, -2.927e-6
-1.244, -2.927e-6
-1.243, -6.010e-6
-1.242, -2.927e-6
-1.241, -2.927e-6
-1.240, -2.927e-6
-1.239, -2.927e-6
-1.238, -2.927e-6
-1.237, -2.927e-6
-1.236, -2.927e-6
-1.235, -6.010e-6
-1.234, -2.927e-6
-1.233, -6.010e-6
-1.232, -6.010e-6
-1.231, -6.010e-6
-1.230, -2.927e-6
-1.229, -2.927e-6
-1.228, -2.927e-6
-1.227, -2.927e-6
-1.226, -2.927e-6
-1.225, -6.010e-6
-1.224, -2.927e-6
-1.223, -6.010e-6
-1.222, -2.927e-6
-1.221, -6.010e-6
-1.220, -6.010e-6
-1.219, -6.010e-6
-1.218, -6.010e-6
-1.217, -6.010e-6
-1.216, -6.010e-6
-1.215, -6.010e-6
-1.214, -6.010e-6
-1.213, -2.927e-6
-1.212, -6.010e-6
-1.211, -2.927e-6
-1.210, -6.010e-6
-1.209, -6.010e-6
-1.208, -6.010e-6
-1.207, -6.010e-6
-1.206, -6.010e-6
-1.205, -6.010e-6
-1.204, -2.927e-6
-1.203, -6.010e-6
-1.202, -2.927e-6
-1.201, -2.927e-6
-1.200, -6.010e-6
-1.199, -2.927e-6
-1.198, -6.010e-6
-1.197, -6.010e-6
-1.196, -6.010e-6
-1.195, -6.010e-6
-1.194, -6.010e-6
-1.193, -6.010e-6
-1.192, -6.010e-6
-1.191, -6.010e-6
-1.190, -6.010e-6
-1.189, -6.010e-6
-1.188, -6.010e-6
-1.187, -6.010e-6
-1.186, -6.010e-6
-1.185, -6.010e-6
-1.184, -6.010e-6
-1.183, -6.010e-6
-1.182, -6.010e-6
-1.181, -6.010e-6
-1.180, -6.010e-6
-1.179, -6.010e-6
-1.178, -6.010e-6
-1.177, -6.010e-6
-1.176, -6.010e-6
-1.175, -6.010e-6
-1.174, -6.010e-6
-1.173, -6.010e-6
-1.172, -6.010e-6
-1.171, -6.010e-6
-1.170, -6.010e-6
-1.169, -6.010e-6
-1.168, -6.010e-6
-1.167, -6.010e-6
-1.166, -6.010e-6
-1.165, -6.010e-6
-1.164, -6.010e-6
-1.163, -6.010e-6
-1.162, -6.010e-6
-1.161, -6.010e-6
-1.160, -6.010e-6
-1.159, -6.010e-6
-1.158, -6.010e-6
-1.157, -6.010e-6
-1.156, -6.010e-6
-1.155, -6.010e-6
-1.154, -6.010e-6
-1.153, -6.010e-6
-1.152, -6.010e-6
-1.151, -6.010e-6
-1.150, -6.010e-6
-1.149, -6.010e-6
-1.148, -6.010e-6
-1.147, -6.010e-6
-1.146, -6.010e-6
-1.145, -6.010e-6
-1.144, -6.010e-6
-1.143, -6.010e-6
-1.142, -6.010e-6
-1.141, -6.010e-6
-1.140, -6.010e-6
-1.139, -6.010e-6
-1.138, -6.010e-6
-1.137, -6.010e-6
-1.136, -6.010e-6
-1.135, -6.010e-6
-1.134, -6.010e-6
-1.133, -6.010e-6
-1.132, -6.010e-6
-1.131, -6.010e-6
-1.130, -6.010e-6
-1.129, -6.010e-6
-1.128, -6.010e-6
-1.127, -6.010e-6
-1.126, -6.010e-6
-1.125, -6.010e-6
-1.124, -6.010e-6
-1.123, -6.010e-6
-1.122, -6.010e-6
-1.121, -6.010e-6
-1.120, -6.010e-6
-1.119, -6.010e-6
-1.118, -6.010e-6
-1.117, -6.010e-6
-1.116, -6.010e-6
-1.115, -6.010e-6
-1.114, -6.010e-6
-1.113, -6.010e-6
-1.112, -6.010e-6
-1.111, -6.010e-6
-1.110, -6.010e-6
-1.109, -6.010e-6
-1.108, -9.093e-6
-1.107, -6.010e-6
-1.106, -6.010e-6
-1.105, -6.010e-6
-1.104, -6.010e-6
-1.103, -6.010e-6
-1.102, -6.010e-6
-1.101, -6.010e-6
-1.100, -6.010e-6
-1.099, -6.010e-6
-1.098, -6.010e-6
-1.097, -6.010e-6
-1.096, -6.010e-6
-1.095, -6.010e-6
-1.094, -6.010e-6
-1.093, -6.010e-6
-1.092, -6.010e-6
-1.091, -6.010e-6
-1.090, -6.010e-6
-1.089, -6.010e-6
-1.088, -9.093e-6
-1.087, -9.093e-6
-1.086, -9.093e-6
-1.085, -9.093e-6
-1.084, -6.010e-6
-1.083, -6.010e-6
-1.082, -9.093e-6
-1.081, -9.093e-6
-1.080, -9.093e-6
-1.079, -6.010e-6
-1.078, -6.010e-6
-1.077, -9.093e-6
-1.076, -6.010e-6
-1.075, -6.010e-6
-1.074, -6.010e-6
-1.073, -9.093e-6
-1.072, -9.093e-6
-1.071, -9.093e-6
-1.070, -9.093e-6
-1.069, -6.010e-6
-1.068, -9.093e-6
-1.067, -6.010e-6
-1.066, -6.010e-6
-1.065, -9.093e-6
-1.064, -6.010e-6
-1.063, -9.093e-6
-1.062, -9.093e-6
-1.061, -6.010e-6
-1.060, -9.093e-6
-1.059, -9.093e-6
-1.058, -9.093e-6
-1.057, -9.093e-6
-1.056, -9.093e-6
-1.055, -9.093e-6
-1.054, -9.093e-6
-1.053, -9.093e-6
-1.052, -9.093e-6
-1.051, -9.093e-6
-1.050, -9.093e-6
-1.049, -9.093e-6
-1.048, -9.093e-6
-1.047, -9.093e-6
-1.046, -9.093e-6
-1.045, -9.093e-6
-1.044, -9.093e-6
-1.043, -9.093e-6
-1.042, -9.093e-6
-1.041, -9.093e-6
-1.040, -9.093e-6
-1.039, -9.093e-6
-1.038, -9.093e-6
-1.037, -9.093e-6
-1.036, -9.093e-6
-1.035, -9.093e-6
-1.034, -9.093e-6
-1.033, -9.093e-6
-1.032, -9.093e-6
-1.031, -9.093e-6
-1.030, -9.093e-6
-1.029, -9.093e-6
-1.028, -9.093e-6
-1.027, -9.093e-6
-1.026, -9.093e-6
-1.025, -9.093e-6
-1.024, -9.093e-6
-1.023, -9.093e-6
-1.022, -9.093e-6
-1.021, -9.093e-6
-1.020, -9.093e-6
-1.019, -9.093e-6
-1.018, -9.093e-6
-1.017, -9.093e-6
-1.016, -9.093e-6
-1.015, -9.093e-6
-1.014, -9.093e-6
-1.013, -1.218e-5
-1.012, -9.093e-6
-1.011, -9.093e-6
-1.010, -1.218e-5
-1.009, -9.093e-6
-1.008, -1.218e-5
-1.007, -1.218e-5
-1.006, -1.218e-5
-1.005, -1.218e-5
-1.004, -9.093e-6
-1.003, -9.093e-6
-1.002, -1.218e-5
-1.001, -1.218e-5
