Potential V vs RHE, Current mA cm-2
0.013299999999999867,-0.6564260431373771
0.012299999999999978,-3.273641947887695
0.011299999999999866,-5.5414241615713475
0.010299999999999976,-7.591340835075788
0.009299999999999864,-9.511104068992642
0.008299999999999974,-11.255443101726232
0.007299999999999862,-12.869628694872238
0.006299999999999972,-14.444202371622024
0.00529999999999986,-15.87306078448571
0.0042999999999999705,-17.2736249713521
0.0032999999999998586,-18.631747819222536
0.0022999999999999687,-19.848399537106463
0.0012999999999998568,-21.065051254990397
0.00029999999999996696,-22.196820294882425
-0.000700000000000145,-23.300295108777156
-0.0017000000000000348,-24.24815167968673
-0.0027000000000001467,-25.210155363594954
-0.0037000000000000366,-26.087276369511276
-0.0047000000000001485,-26.9643973754276
-0.005700000000000038,-27.78492992934932
-0.00670000000000015,-28.577168257273744
-0.00770000000000004,-29.35525947219951
-0.008700000000000152,-30.10505646112798
-0.009700000000000042,-30.88314767605375
-0.010700000000000154,-31.57635621298762
-0.011700000000000044,-32.184682071929586
-0.012700000000000156,-32.764713704874254
-0.013700000000000045,-33.330598224820264
-0.014700000000000157,-33.85404140577033
-0.015700000000000047,-34.33504324772444
-0.01670000000000016,-34.8018979766799
-0.01770000000000005,-35.282899818634014
-0.01870000000000016,-35.763901660588125
-0.01970000000000005,-36.20246216354629
-0.020700000000000163,-36.64102266650445
-0.021700000000000053,-37.07958316946261
-0.022700000000000164,-37.47570233342482
-0.023700000000000054,-37.85767438438838
-0.024700000000000166,-38.16891087035869
-0.025700000000000056,-38.46600024333035
-0.026700000000000168,-38.734795390304704
-0.027700000000000058,-38.98944342428042
-0.02870000000000017,-39.258238571254765
-0.02970000000000006,-39.51288660523048
-0.03070000000000017,-39.78168175220483
-0.03170000000000006,-40.03632978618054
-0.03270000000000017,-40.26268359415894
-0.03370000000000006,-40.51733162813464
-0.034700000000000175,-40.743685436113054
-0.035700000000000065,-40.91345079209687
-0.03670000000000018,-41.04077480908471
-0.03770000000000007,-41.182245939071215
-0.03870000000000018,-41.30956995605907
-0.03970000000000007,-41.39445263405098
-0.04070000000000018,-41.52177665103883
-0.04170000000000007,-41.66324778102533
-0.04270000000000018,-41.83301313700913
-0.04370000000000007,-41.91789581500104
-0.044700000000000184,-42.087661170984845
-0.045700000000000074,-42.186690961975394
-0.046700000000000186,-42.31401497896325
-0.047700000000000076,-42.3564563179592
-0.04870000000000019,-42.39889765695515
-0.04970000000000008,-42.4413389959511
-0.05070000000000019,-42.4413389959511
-0.05170000000000008,-42.483780334947056
-0.05270000000000019,-42.483780334947056
-0.05370000000000008,-42.526221673943
-0.05470000000000019,-42.6111043519349
-0.05570000000000008,-42.6111043519349
-0.056700000000000195,-42.71013414292546
-0.057700000000000085,-42.71013414292546
-0.058700000000000196,-42.71013414292546
-0.059700000000000086,-42.6111043519349
-0.0607000000000002,-42.6111043519349
-0.06170000000000009,-42.568663012938956
-0.0627000000000002,-42.526221673943
-0.06370000000000009,-42.483780334947056
-0.0647000000000002,-42.4413389959511
-0.06570000000000009,-42.39889765695515
-0.0667000000000002,-42.39889765695515
-0.0677000000000001,-42.39889765695515
-0.0687000000000002,-42.39889765695515
-0.0697000000000001,-42.3564563179592
-0.07070000000000021,-42.3564563179592
-0.0717000000000001,-42.229132300971344
-0.07270000000000021,-42.130102509980794
-0.0737000000000001,-42.087661170984845
-0.07470000000000021,-42.00277849299294
-0.0757000000000001,-41.91789581500104
-0.07670000000000021,-41.83301313700913
-0.0777000000000001,-41.79057179801318
-0.07870000000000021,-41.74813045901723
-0.0797000000000001,-41.70568912002128
-0.08070000000000022,-41.606659329030734
-0.0817000000000001,-41.56421799003478
-0.08270000000000022,-41.47933531204288
-0.08370000000000011,-41.352011295055014
-0.08470000000000022,-41.22468727806717
-0.08570000000000011,-41.139804600075266
-0.08670000000000022,-41.04077480908471
-0.08770000000000011,-40.91345079209687
-0.08870000000000022,-40.87100945310091
-0.08970000000000011,-40.78612677510901
-0.09070000000000022,-40.701244097117105
-0.09170000000000011,-40.65880275812115
-0.09270000000000023,-40.559772967130606
-0.09370000000000012,-40.4748902891387
-0.09470000000000023,-40.3900076111468
-0.09570000000000012,-40.26268359415894
-0.09670000000000023,-40.135359577171094
-0.09770000000000012,-39.99388844718459
-0.09870000000000023,-39.86656443019674
-0.09970000000000012,-39.78168175220483
-0.10070000000000023,-39.696799074212926
-0.10170000000000012,-39.654357735216976
-0.10270000000000024,-39.56947505722508
-0.10370000000000013,-39.51288660523048
-0.10470000000000024,-39.42800392723857
-0.10570000000000013,-39.34312124924667
-0.10670000000000024,-39.173355893262865
-0.10770000000000013,-39.08847321527096
-0.10870000000000024,-38.94700208528445
-0.10970000000000013,-38.81967806829661
-0.11070000000000024,-38.692354051308754
-0.11170000000000013,-38.5650300343209
-0.11270000000000002,-38.522588695324956
-0.11370000000000013,-38.42355890433439
-0.11470000000000002,-38.38111756533845
-0.11570000000000014,-38.29623488734655
-0.11670000000000003,-38.211352209354644
-0.11770000000000014,-38.12646953136274
-0.11870000000000003,-38.04158685337084
-0.11970000000000014,-37.90011572338433
-0.12070000000000003,-37.77279170639648
-0.12170000000000014,-37.687909028404576
-0.12270000000000003,-37.56058501141672
-0.12370000000000014,-37.47570233342482
-0.12470000000000003,-37.41911388143023
-0.12570000000000014,-37.334231203438314
-0.12670000000000003,-37.291789864442364
-0.12770000000000015,-37.249348525446415
-0.12870000000000004,-37.164465847454515
-0.12970000000000015,-37.037141830466666
-0.13070000000000004,-36.95225915247476
-0.13170000000000015,-36.81078802248826
-0.13270000000000004,-36.725905344496354
-0.13370000000000015,-36.64102266650445
-0.13470000000000004,-36.55613998851254
-0.13570000000000015,-36.47125731052064
-0.13670000000000004,-36.47125731052064
-0.13770000000000016,-36.37222751953009
-0.13870000000000005,-36.329786180534136
-0.13970000000000016,-36.28734484153819
-0.14070000000000005,-36.20246216354629
-0.14170000000000016,-36.07513814655844
-0.14270000000000005,-36.03269680756248
-0.14370000000000016,-35.90537279057463
-0.14470000000000005,-35.763901660588125
-0.14570000000000016,-35.721460321592176
-0.14670000000000005,-35.679018982596226
-0.14770000000000016,-35.636577643600276
-0.14870000000000005,-35.636577643600276
-0.14970000000000017,-35.594136304604326
-0.15070000000000006,-35.594136304604326
-0.15170000000000017,-35.50925362661242
-0.15270000000000006,-35.46681228761647
-0.15370000000000017,-35.38192960962457
-0.15470000000000006,-35.282899818634014
-0.15570000000000017,-35.198017140642115
-0.15670000000000006,-35.15557580164616
-0.15770000000000017,-35.07069312365426
-0.15870000000000006,-35.07069312365426
-0.15970000000000018,-35.02825178465831
-0.16070000000000007,-35.02825178465831
-0.16170000000000018,-35.02825178465831
-0.16270000000000007,-34.98581044566235
-0.16370000000000018,-34.94336910666641
-0.16470000000000007,-34.94336910666641
-0.16570000000000018,-34.85848642867451
-0.16670000000000007,-34.8018979766799
-0.16770000000000018,-34.717015298688004
-0.16870000000000007,-34.67457395969205
-0.16970000000000018,-34.67457395969205
-0.17070000000000007,-34.632132620696105
-0.17170000000000019,-34.632132620696105
-0.17270000000000008,-34.632132620696105
-0.1737000000000002,-34.632132620696105
-0.17470000000000008,-34.632132620696105
-0.1757000000000002,-34.58969128170015
-0.17670000000000008,-34.5472499427042
-0.1777000000000002,-34.462367264712285
-0.17870000000000008,-34.41992592571634
-0.1797000000000002,-34.41992592571634
-0.18070000000000008,-34.377484586720385
-0.1817000000000002,-34.33504324772444
-0.18270000000000008,-34.377484586720385
-0.1837000000000002,-34.33504324772444
-0.1847000000000001,-34.377484586720385
-0.1857000000000002,-34.377484586720385
-0.1867000000000001,-34.377484586720385
-0.1877000000000002,-34.33504324772444
-0.1887000000000001,-34.33504324772444
-0.1897000000000002,-34.278454795729836
-0.1907000000000001,-34.236013456733886
-0.1917000000000001,-34.193572117737936
-0.19269999999999998,-34.193572117737936
-0.1937000000000001,-34.193572117737936
-0.19469999999999998,-34.193572117737936
-0.1957000000000001,-34.236013456733886
-0.19669999999999999,-34.278454795729836
-0.1977000000000001,-34.236013456733886
-0.1987,-34.236013456733886
-0.1997000000000001,-34.236013456733886
-0.2007,-34.193572117737936
-0.2017000000000001,-34.15113077874198
-0.2027,-34.10868943974604
-0.2037000000000001,-34.10868943974604
-0.2047,-34.10868943974604
-0.2057000000000001,-34.10868943974604
-0.2067,-34.15113077874198
-0.2077000000000001,-34.15113077874198
-0.2087,-34.193572117737936
-0.2097000000000001,-34.193572117737936
-0.2107,-34.193572117737936
-0.2117000000000001,-34.193572117737936
-0.2127,-34.15113077874198
-0.2137000000000001,-34.10868943974604
-0.2147,-34.10868943974604
-0.2157000000000001,-34.193572117737936
-0.2167,-34.193572117737936
-0.21770000000000012,-34.193572117737936
-0.2187,-34.236013456733886
-0.21970000000000012,-34.236013456733886
-0.2207,-34.236013456733886
-0.22170000000000012,-34.278454795729836
-0.2227,-34.278454795729836
-0.22370000000000012,-34.236013456733886
-0.2247,-34.193572117737936
-0.22570000000000012,-34.15113077874198
-0.2267,-34.15113077874198
-0.22770000000000012,-34.15113077874198
-0.22870000000000001,-34.193572117737936
-0.22970000000000013,-34.193572117737936
-0.23070000000000002,-34.278454795729836
-0.23170000000000013,-34.278454795729836
-0.23270000000000002,-34.278454795729836
-0.23370000000000013,-34.33504324772444
-0.23470000000000002,-34.278454795729836
-0.23570000000000013,-34.278454795729836
-0.23670000000000002,-34.236013456733886
-0.2376999999999999,-34.193572117737936
-0.23870000000000002,-34.193572117737936
-0.2396999999999999,-34.193572117737936
-0.24070000000000003,-34.193572117737936
-0.24169999999999991,-34.236013456733886
-0.24270000000000003,-34.278454795729836
-0.24369999999999992,-34.33504324772444
-0.24470000000000003,-34.33504324772444
-0.24569999999999992,-34.33504324772444
-0.24670000000000003,-34.33504324772444
-0.24769999999999992,-34.278454795729836
-0.24870000000000003,-34.236013456733886
-0.24969999999999992,-34.236013456733886
-0.25070000000000003,-34.193572117737936
-0.2516999999999999,-34.236013456733886
-0.25270000000000004,-34.278454795729836
-0.2536999999999999,-34.33504324772444
-0.25470000000000004,-34.377484586720385
-0.2556999999999999,-34.377484586720385
-0.25670000000000004,-34.41992592571634
-0.25769999999999993,-34.41992592571634
-0.25870000000000004,-34.377484586720385
-0.25969999999999993,-34.377484586720385
-0.26070000000000004,-34.33504324772444
-0.26169999999999993,-34.377484586720385
-0.26270000000000004,-34.377484586720385
-0.26369999999999993,-34.377484586720385
-0.26470000000000005,-34.41992592571634
-0.26569999999999994,-34.462367264712285
-0.26670000000000005,-34.5472499427042
-0.26769999999999994,-34.58969128170015
-0.26870000000000005,-34.58969128170015
-0.26969999999999994,-34.58969128170015
-0.27070000000000005,-34.5472499427042
-0.27169999999999994,-34.5472499427042
-0.27270000000000005,-34.5472499427042
-0.27369999999999994,-34.5472499427042
-0.27470000000000006,-34.5472499427042
-0.27569999999999995,-34.58969128170015
-0.27670000000000006,-34.632132620696105
-0.27769999999999995,-34.67457395969205
-0.27870000000000006,-34.717015298688004
-0.27969999999999995,-34.717015298688004
-0.28070000000000006,-34.75945663768395
-0.28169999999999995,-34.717015298688004
-0.28270000000000006,-34.75945663768395
-0.28369999999999995,-34.717015298688004
-0.28470000000000006,-34.717015298688004
-0.28569999999999995,-34.717015298688004
-0.28670000000000007,-34.75945663768395
-0.28769999999999996,-34.75945663768395
-0.28870000000000007,-34.85848642867451
-0.28969999999999996,-34.90092776767045
-0.29070000000000007,-34.94336910666641
-0.29169999999999996,-34.98581044566235
-0.29270000000000007,-34.98581044566235
-0.29369999999999996,-34.98581044566235
-0.2947000000000001,-35.02825178465831
-0.29569999999999996,-34.98581044566235
-0.2967000000000001,-35.02825178465831
-0.29769999999999996,-35.07069312365426
-0.2987000000000001,-35.11313446265021
-0.29969999999999997,-35.15557580164616
-0.3007000000000001,-35.198017140642115
-0.30169999999999997,-35.32534115762997
-0.3027000000000001,-35.32534115762997
-0.30369999999999997,-35.38192960962457
-0.3047000000000001,-35.42437094862052
-0.30569999999999997,-35.42437094862052
-0.3067000000000001,-35.42437094862052
-0.3077,-35.46681228761647
-0.3087000000000001,-35.50925362661242
-0.3097,-35.50925362661242
-0.3107000000000001,-35.594136304604326
-0.3117,-35.679018982596226
-0.3127000000000001,-35.763901660588125
-0.3137,-35.848784338580025
-0.3147000000000001,-35.90537279057463
-0.3157,-35.99025546856653
-0.3167000000000001,-36.03269680756248
-0.3177,-36.07513814655844
-0.3187000000000001,-36.11757948555439
-0.3197,-36.16002082455034
-0.3207000000000001,-36.244903502542236
-0.3217,-36.28734484153819
-0.3227000000000001,-36.4288159715247
-0.3237,-36.5136986495166
-0.3247000000000001,-36.5985813275085
-0.3257,-36.6834640055004
-0.3267000000000001,-36.768346683492304
-0.3277,-36.81078802248826
-0.3287000000000001,-36.8532293614842
-0.3297,-36.89567070048016
-0.3307000000000001,-36.95225915247476
-0.3317,-37.037141830466666
-0.3327000000000001,-37.07958316946261
-0.3337,-37.206907186450465
-0.3347000000000001,-37.291789864442364
-0.3357,-37.376672542434264
-0.3367000000000001,-37.56058501141672
-0.3377,-37.645467689408626
-0.3387000000000001,-37.73035036740053
-0.3397,-37.81523304539243
-0.3407000000000001,-37.85767438438838
-0.3417,-37.94255706238028
-0.3427000000000001,-38.04158685337084
-0.3437,-38.12646953136274
-0.3447000000000001,-38.211352209354644
-0.3457,-38.38111756533845
-0.3467000000000001,-38.46600024333035
-0.3477,-38.6499127123128
-0.3487000000000001,-38.777236729300654
-0.3497,-38.94700208528445
-0.3507000000000001,-39.08847321527096
-0.3517,-39.173355893262865
-0.3527000000000001,-39.258238571254765
-0.3537,-39.38556258824262
-0.3547000000000001,-39.47044526623452
-0.3557,-39.654357735216976
-0.35670000000000013,-39.82412309120078
-0.3577,-39.99388844718459
-0.35870000000000013,-40.177800916167044
-0.3597,-40.3900076111468
-0.36070000000000013,-40.559772967130606
-0.3617,-40.78612677510901
-0.3626999999999999,-40.91345079209687
-0.3637,-41.083216148080666
-0.3646999999999999,-41.22468727806717
-0.3657,-41.352011295055014
-0.3666999999999999,-41.56421799003478
-0.3677,-41.70568912002128
-0.3686999999999999,-41.91789581500104
-0.36970000000000003,-42.186690961975394
-0.3706999999999999,-42.3564563179592
-0.37170000000000003,-42.653545690930855
-0.3726999999999999,-42.837458159913304
-0.37370000000000003,-43.04966485489307
-0.3746999999999999,-43.27601866287147
-0.37570000000000003,-43.48822535785123
-0.3766999999999999,-43.657990713835034
-0.37770000000000004,-43.88434452181344
-0.3786999999999999,-44.096551216793195
-0.37970000000000004,-44.36534636376755
-0.3806999999999999,-44.577553058747306
-0.38170000000000004,-44.88878954471762
-0.38269999999999993,-45.18587891768927
-0.38370000000000004,-45.497115403659585
-0.38469999999999993,-45.79420477663124
-0.38570000000000004,-46.062999923605595
-0.38669999999999993,-44.3229050247716
-0.38570000000000004,-39.654357735216976
-0.38469999999999993,-35.721460321592176
-0.38370000000000004,-32.283711862920136
-0.38269999999999993,-29.27037679420761
-0.38170000000000004,-26.525836872469437
-0.3806999999999999,-24.078386323702922
-0.37970000000000004,-21.814848243918867
-0.3786999999999999,-19.763516859114564
-0.37770000000000004,-17.797068152302163
-0.3766999999999999,-16.056973253468165
-0.37570000000000003,-14.345172580631472
-0.3746999999999999,-12.73806054398479
-0.37370000000000003,-11.299299152022046
-0.3726999999999999,-9.85912304875944
-0.37170000000000003,-8.594371146680096
-0.3706999999999999,-7.37347529489657
-0.36970000000000003,-6.238876832404812
-0.3686999999999999,-5.149549131508733
-0.3677,-4.146518819904423
-0.3666999999999999,-3.2297858975918787
-0.3657,-2.3144676865791998
-0.3646999999999999,-1.4415908145624723
-0.3637,-0.5692798270656908
-0.3626999999999999,0.2594580523952477
-0.3617,1.0446228238203432
-0.36070000000000013,1.7867803717295414
-0.3597,2.5280890928588207
-0.35870000000000013,3.1816857133964676
-0.3577,3.7928409949381634
-0.35670000000000013,4.402581565179994
-0.3557,4.9698807964258735
-0.3547000000000001,5.493323977375938
-0.3537,6.060623208621817
-0.3527000000000001,6.5840663895718805
-0.3517,7.15136562081776
-0.3507000000000001,7.674808801767824
-0.3497,8.154395932422071
-0.3487000000000001,8.677839113372134
-0.3477,9.113570193730567
-0.3467000000000001,9.549301274088998
-0.3457,9.942591015451477
-0.3447000000000001,10.334466045514093
-0.3437,10.727755786876573
-0.3427000000000001,11.119630816939189
-0.3417,11.469064508005852
-0.3407000000000001,11.818498199072517
-0.3397,12.254229279430946
-0.3387000000000001,12.603662970497613
-0.3377,12.995538000560227
-0.3367000000000001,13.301115641331073
-0.3357,13.65054933239774
-0.3347000000000001,13.91227092287277
-0.3337,14.217848563643619
-0.3327000000000001,14.472496597619326
-0.3317,14.741291744593681
-0.3307000000000001,14.995939778569388
-0.3297,15.264734925543747
-0.3287000000000001,15.575971411514052
-0.3277,15.830619445489761
-0.3267000000000001,16.141855931460068
-0.3257,16.396503965435777
-0.3247000000000001,16.665299112410132
-0.3237,16.877505807389888
-0.3227000000000001,17.089712502369647
-0.3217,17.316066310348052
-0.3207000000000001,17.48583166633185
-0.3197,17.669744135314307
-0.3187000000000001,17.924392169290012
-0.3177,18.09415752527382
-0.3167000000000001,18.362952672248177
-0.3157,18.53271802823198
-0.3147000000000001,18.80151317520634
-0.3137,18.97127853119014
-0.3127000000000001,19.1834852261699
-0.3117,19.3249563561564
-0.3107000000000001,19.49472171214021
-0.3097,19.622045729128057
-0.3087000000000001,19.749369746115914
-0.3077,19.93328221509837
-0.3067000000000001,20.06060623208622
-0.30569999999999997,20.230371588070028
-0.3047000000000001,20.456725396048434
-0.30369999999999997,20.626490752032236
-0.3027000000000001,20.79625610801604
-0.30169999999999997,20.980168576998494
-0.3007000000000001,21.107492593986347
-0.29969999999999997,21.2348166109742
-0.2987000000000001,21.376287740960702
-0.29769999999999996,21.503611757948562
-0.2967000000000001,21.58849443594046
-0.29569999999999996,21.71581845292831
-0.2947000000000001,21.899730921910766
-0.29369999999999996,21.98461359990267
-0.29270000000000007,22.15437895588647
-0.29169999999999996,22.324144311870278
-0.29070000000000007,22.46561544185678
-0.28969999999999996,22.592939458844636
-0.28870000000000007,22.72026347583249
-0.28769999999999996,22.80514615382439
-0.28670000000000007,22.890028831816295
-0.28569999999999995,22.989058622806844
-0.28470000000000006,23.073941300798747
-0.28369999999999995,23.15882397879065
-0.28270000000000006,23.286147995778503
-0.28169999999999995,23.47006046476096
-0.28070000000000006,23.597384481748815
-0.27969999999999995,23.682267159740714
-0.27870000000000006,23.809591176728567
-0.27769999999999995,23.894473854720466
-0.27670000000000006,23.993503645711023
-0.27569999999999995,24.078386323702922
-0.27470000000000006,24.120827662698876
-0.27369999999999994,24.16326900169483
-0.27270000000000005,24.24815167968673
-0.27169999999999994,24.33303435767863
-0.27070000000000005,24.417917035670534
-0.26969999999999994,24.559388165657033
-0.26870000000000005,24.686712182644893
-0.26769999999999994,24.771594860636792
-0.26670000000000005,24.856477538628695
-0.26569999999999994,24.983801555616548
-0.26470000000000005,25.04039000761115
