Potential V vs RHE, Current mA cm-2
0.013299999999999867,-0.3620246216354629
0.012299999999999978,-2.047087250904708
0.011299999999999866,-3.1519767760993016
0.010299999999999976,-3.9428003927238575
0.009299999999999864,-4.6572295991557
0.008299999999999974,-5.125499039411029
0.007299999999999862,-5.590939057066626
0.006299999999999972,-5.94603159333275
0.00529999999999986,-6.183703091710075
0.0042999999999999705,-6.482207175981599
0.0032999999999998586,-6.630751862467427
0.0022999999999999687,-6.830226155748398
0.0012999999999998568,-6.994332666532741
0.00029999999999996696,-7.067897654125724
-0.000700000000000145,-7.220686474511147
-0.0017000000000000348,-7.260298390907368
-0.0027000000000001467,-7.35932818189792
-0.0037000000000000366,-7.421575479091982
-0.0047000000000001485,-7.4173313451923875
-0.005700000000000038,-7.49938460058456
-0.00670000000000015,-7.465431529387798
-0.00770000000000004,-7.506458157083885
-0.008700000000000152,-7.5347523830811864
-0.009700000000000042,-7.497969889284694
-0.010700000000000154,-7.557387763879025
-0.011700000000000044,-7.489481621485504
-0.012700000000000156,-7.512117002283345
-0.013700000000000045,-7.500799311884425
-0.014700000000000157,-7.455528550288744
-0.015700000000000047,-7.486652198885773
-0.01670000000000016,-7.427234324291442
-0.01770000000000005,-7.434307880790768
-0.01870000000000016,-7.401769520893872
-0.01970000000000005,-7.345181068899271
-0.020700000000000163,-7.369231160996977
-0.021700000000000053,-7.290007328204534
-0.022700000000000164,-7.291422039504399
-0.023700000000000054,-7.260298390907368
-0.024700000000000166,-7.188148114614252
-0.025700000000000056,-7.209368784112227
-0.026700000000000168,-7.111753704421539
-0.027700000000000058,-7.113168415721404
-0.02870000000000017,-7.0763859219249134
-0.02970000000000006,-6.992917955232877
-0.03070000000000017,-7.018382758630446
-0.03170000000000006,-6.916523545040165
-0.03270000000000017,-6.913694122440434
-0.03370000000000006,-6.920767678939759
-0.034700000000000175,-6.837299712247723
-0.035700000000000065,-6.859935093045563
-0.03670000000000018,-6.7679788585543355
-0.03770000000000007,-6.75807587945528
-0.03870000000000018,-6.73261107605771
-0.03970000000000007,-6.627922439867697
-0.04070000000000018,-6.640654841566483
-0.04170000000000007,-6.554357452274714
-0.04270000000000018,-6.53596620537647
-0.04370000000000007,-6.503427845479574
-0.044700000000000184,-6.425618723986997
-0.045700000000000074,-6.448254104784837
-0.046700000000000186,-6.361956715493069
-0.047700000000000076,-6.346394891194555
-0.04870000000000019,-6.326588932996443
-0.04970000000000008,-6.257268079303058
-0.05070000000000019,-6.285562305300359
-0.05170000000000008,-6.207753183807781
-0.05270000000000019,-6.195020782108996
-0.05370000000000008,-6.163897133511965
-0.05470000000000019,-6.0917468572188485
-0.05570000000000008,-6.101649836317904
-0.056700000000000195,-6.021011292225596
-0.057700000000000085,-6.028084848724921
-0.058700000000000196,-6.008278890526811
-0.059700000000000086,-5.948861015932479
-0.0607000000000002,-5.967252262830725
-0.06170000000000009,-5.903590254336798
-0.0627000000000002,-5.902175543036933
-0.06370000000000009,-5.8752960283394975
-0.0647000000000002,-5.811634019845571
-0.06570000000000009,-5.8356841119432765
-0.0667000000000002,-5.753630856551104
-0.0677000000000001,-5.760704413050429
-0.0687000000000002,-5.746557300051779
-0.0697000000000001,-5.678651157658257
-0.07070000000000021,-5.7111895175551535
-0.0717000000000001,-5.629136262162981
-0.07270000000000021,-5.6333803960625755
-0.0737000000000001,-5.627721550863116
-0.07470000000000021,-5.5668889649689195
-0.0757000000000001,-5.612159726564601
-0.07670000000000021,-5.531521182472294
-0.0777000000000001,-5.535765316371888
-0.07870000000000021,-5.532935893772159
-0.0797000000000001,-5.472103307877963
-0.08070000000000022,-5.5145446468739125
-0.0817000000000001,-5.460785617479042
-0.08270000000000022,-5.457956194879311
-0.08370000000000011,-5.456541483579446
-0.08470000000000022,-5.391464763785655
-0.08570000000000011,-5.428247257582146
-0.08670000000000022,-5.371658805587544
-0.08770000000000011,-5.385805918586194
-0.08870000000000022,-5.3815617846866
-0.08970000000000011,-5.336291023090919
-0.09070000000000022,-5.365999960388084
-0.09170000000000011,-5.300923240594293
-0.09270000000000023,-5.323558621392133
-0.09370000000000012,-5.319314487492538
-0.09470000000000023,-5.274043725896856
-0.09570000000000012,-5.306582085793753
-0.09670000000000023,-5.237261232100366
-0.09770000000000012,-5.264140746797801
-0.09870000000000023,-5.268384880697396
-0.09970000000000012,-5.2259435417014455
-0.10070000000000023,-5.274043725896856
-0.10170000000000012,-5.208967006103065
-0.10270000000000024,-5.240090654700095
-0.10370000000000013,-5.2386759434002315
-0.10470000000000024,-5.189161047904955
-0.10570000000000013,-5.234431809500635
-0.10670000000000024,-5.170769801006709
-0.10770000000000013,-5.201893449603739
-0.10870000000000024,-5.201893449603739
-0.10970000000000013,-5.153793265408329
-0.11070000000000024,-5.203308160903605
-0.11170000000000013,-5.136816729809948
-0.11270000000000002,-5.166525667107114
-0.11370000000000013,-5.1792580688059
-0.11470000000000002,-5.125499039411029
-0.11570000000000014,-5.1792580688059
-0.11670000000000003,-5.125499039411029
-0.11770000000000014,-5.150963842808599
-0.11870000000000003,-5.167940378406978
-0.11970000000000014,-5.118425482911703
-0.12070000000000003,-5.163696244507384
-0.12170000000000014,-5.118425482911703
-0.12270000000000003,-5.132572595910353
-0.12370000000000014,-5.142475575009408
-0.12470000000000003,-5.104278369913052
-0.12570000000000014,-5.1608668219076534
-0.12670000000000003,-5.117010771611838
-0.12770000000000015,-5.128328462010757
-0.12870000000000004,-5.138231441109813
-0.12970000000000015,-5.097204813413727
-0.13070000000000004,-5.149549131508733
-0.13170000000000015,-5.097204813413727
-0.13270000000000004,-5.115596060311972
-0.13370000000000015,-5.124084328111163
-0.13470000000000004,-5.084472411714942
-0.13570000000000015,-5.132572595910353
-0.13670000000000004,-5.098619524713592
-0.13770000000000016,-5.115596060311972
-0.13870000000000005,-5.126913750710893
-0.13970000000000016,-5.0943753908139975
-0.14070000000000005,-5.142475575009408
-0.14170000000000016,-5.0943753908139975
-0.14270000000000005,-5.124084328111163
-0.14370000000000016,-5.150963842808599
-0.14470000000000005,-5.105693081212917
-0.14570000000000016,-5.167940378406978
-0.14670000000000005,-5.095790102113861
-0.14770000000000016,-5.128328462010757
-0.14870000000000005,-5.138231441109813
-0.14970000000000017,-5.087301834314672
-0.15070000000000006,-5.139646152409678
-0.15170000000000017,-5.085887123014808
-0.15270000000000006,-5.112766637712243
-0.15370000000000017,-5.131157884610488
-0.15470000000000006,-5.097204813413727
-0.15570000000000017,-5.163696244507384
-0.15670000000000006,-5.126913750710893
-0.15770000000000017,-5.150963842808599
-0.15870000000000006,-5.172184512306574
-0.15970000000000018,-5.129743173310623
-0.16070000000000007,-5.18491691400536
-0.16170000000000018,-5.132572595910353
-0.16270000000000007,-5.142475575009408
-0.16370000000000018,-5.159452110607789
-0.16470000000000007,-5.124084328111163
-0.16570000000000018,-5.170769801006709
-0.16670000000000007,-5.122669616811298
-0.16770000000000018,-5.138231441109813
-0.16870000000000007,-5.156622688008059
-0.16970000000000018,-5.124084328111163
-0.17070000000000007,-5.180672780105764
-0.17170000000000019,-5.1467197089090035
-0.17270000000000008,-5.175013934906304
-0.1737000000000002,-5.194819893104414
-0.17470000000000008,-5.156622688008059
-0.1757000000000002,-5.2075522948032
-0.17670000000000008,-5.166525667107114
-0.1777000000000002,-5.18774633660509
-0.17870000000000008,-5.190575759204819
-0.1797000000000002,-5.156622688008059
-0.18070000000000008,-5.214625851302525
-0.1817000000000002,-5.162281533207518
-0.18270000000000008,-5.204722872203471
-0.1837000000000002,-5.2075522948032
-0.1847000000000001,-5.172184512306574
-0.1857000000000002,-5.23018767560104
-0.1867000000000001,-5.1792580688059
-0.1877000000000002,-5.23018767560104
-0.1887000000000001,-5.240090654700095
-0.1897000000000002,-5.194819893104414
-0.1907000000000001,-5.261311324198071
-0.1917000000000001,-5.208967006103065
-0.19269999999999998,-5.247164211199421
-0.1937000000000001,-5.275458437196722
-0.19469999999999998,-5.23018767560104
-0.1957000000000001,-5.283946704995913
-0.19669999999999999,-5.231602386900906
-0.1977000000000001,-5.249993633799152
-0.1987,-5.281117282396182
-0.1997000000000001,-5.2457494998995555
-0.2007,-5.303752663194023
-0.2017000000000001,-5.259896612898206
-0.2027,-5.281117282396182
-0.2037000000000001,-5.307996797093617
-0.2047,-5.268384880697396
-0.2057000000000001,-5.337705734390783
-0.2067,-5.2910202614952375
-0.2077000000000001,-5.319314487492538
-0.2087,-5.344779290890109
-0.2097000000000001,-5.307996797093617
-0.2107,-5.3631705377883545
-0.2117000000000001,-5.332046889191323
-0.2127,-5.364585249088219
-0.2137000000000001,-5.377317650787004
-0.2147,-5.3575116925888935
-0.2157000000000001,-5.453712060979717
-0.2167,-5.39287947508552
-0.21770000000000012,-5.4225884123826855
-0.2187,-5.432491391481741
-0.21970000000000012,-5.40136774288471
-0.2207,-5.4551267722795815
-0.22170000000000012,-5.415514855883361
-0.2227,-5.456541483579446
-0.22370000000000012,-5.470688596578097
-0.2247,-5.4353208140814715
-0.22570000000000012,-5.506056379074723
-0.2267,-5.473518019177827
-0.22770000000000012,-5.508885801674452
-0.22870000000000001,-5.528691759872564
-0.22970000000000013,-5.491909266076072
-0.23070000000000002,-5.562644831069325
-0.23170000000000013,-5.523032914673103
-0.23270000000000002,-5.561230119769459
-0.23370000000000013,-5.59518319096622
-0.23470000000000002,-5.549912429370539
-0.23570000000000013,-5.622062705663656
-0.23670000000000002,-5.582450789267434
-0.2376999999999999,-5.616403860464195
-0.23870000000000002,-5.658845199460147
-0.2396999999999999,-5.622062705663656
-0.24070000000000003,-5.699871827156233
-0.24169999999999991,-5.674407023758662
-0.24270000000000003,-5.694212981956773
-0.24369999999999992,-5.739483743552454
-0.24470000000000003,-5.7111895175551535
-0.24569999999999992,-5.773436814749215
-0.24670000000000003,-5.750801433951374
-0.24769999999999992,-5.7833397938482705
-0.24870000000000003,-5.813048731145436
-0.24969999999999992,-5.801731040746516
-0.25070000000000003,-5.866807760540307
-0.2516999999999999,-5.838513534543006
-0.25270000000000004,-5.879540162239093
-0.2536999999999999,-5.910663810836123
-0.25470000000000004,-5.899346120437204
-0.2556999999999999,-5.977155241929781
-0.25670000000000004,-5.958763995031535
-0.25769999999999993,-5.995546488828026
-0.25870000000000004,-6.025255426125191
-0.25969999999999993,-6.015352447026135
-0.26070000000000004,-6.088917434619118
-0.26169999999999993,-6.066282053821277
-0.26270000000000004,-6.120041083216149
-0.26369999999999993,-6.144091175313854
-0.26470000000000005,-6.134188196214799
-0.26569999999999994,-6.2233150081062965
-0.26670000000000005,-6.2162414516069715
-0.26769999999999994,-6.262926924502518
-0.26870000000000005,-6.309612397398063
-0.26969999999999994,-6.2883917279000885
-0.27070000000000005,-6.378933251091451
-0.27169999999999994,-6.357712581593474
-0.27270000000000005,-6.4199598787875365
-0.27369999999999994,-6.477963042082004
-0.27470000000000006,-6.469474774282813
-0.27569999999999995,-6.5670898539735
-0.27670000000000006,-6.554357452274714
-0.27769999999999995,-6.598213502570531
-0.27870000000000006,-6.642069552866347
-0.27969999999999995,-6.627922439867697
-0.28070000000000006,-6.715634540459329
-0.28169999999999995,-6.724122808258519
-0.28270000000000006,-6.783540682852851
-0.28369999999999995,-6.838714423547587
-0.28470000000000006,-6.830226155748398
-0.28569999999999995,-6.916523545040165
-0.28670000000000007,-6.927841235439085
-0.28769999999999996,-6.992917955232877
-0.28870000000000007,-7.065068231525992
-0.28969999999999996,-7.077800633224777
-0.29070000000000007,-7.190977537213982
-0.29169999999999996,-7.19663638241344
-0.29270000000000007,-7.260298390907368
-0.29369999999999996,-7.295666173403994
-0.2947000000000001,-7.291422039504399
-0.29569999999999996,-7.4173313451923875
-0.2967000000000001,-7.4824080649861795
-0.29769999999999996,-7.578608433377001
-0.2987000000000001,-7.616805638473357
-0.29969999999999997,-7.6069026593743025
-0.3007000000000001,-7.711591295564315
-0.30169999999999997,-7.720079563363504
-0.3027000000000001,-7.807791663955138
-0.30369999999999997,-7.871453672449064
-0.3047000000000001,-7.912480300145149
-0.30569999999999997,-8.046877873632328
-0.3067000000000001,-8.065269120530575
-0.3077,-8.162884200221262
-0.3087000000000001,-8.261913991211815
-0.3097,-8.318502443206416
-0.3107000000000001,-8.47412068619157
-0.3117,-8.503829623488736
-0.3127000000000001,-8.584468167581042
-0.3137,-8.669350845572946
-0.3147000000000001,-8.697645071570244
-0.3157,-8.827798511157829
-0.3167000000000001,-8.863166293654455
-0.3177,-8.967854929844465
-0.3187000000000001,-9.09234952423259
-0.3197,-9.140449708428003
-0.3207000000000001,-9.291823817513562
-0.3217,-9.349826980808027
-0.3227000000000001,-9.472906863896286
-0.3237,-9.61154857128306
-0.3247000000000001,-9.683698847576176
-0.3257,-9.839317090561332
-0.3267000000000001,-9.910052655554582
-0.3277,-10.026058982143516
-0.3287000000000001,-10.126503484433933
-0.3297,-10.208556739826104
-0.3307000000000001,-10.439154681704105
-0.3317,-10.55516100829304
-0.3327000000000001,-10.686729159180487
-0.3337,-10.78858837277077
-0.3347000000000001,-10.897521142860379
-0.3357,-11.140851486437164
-0.3367000000000001,-11.269590214724882
-0.3377,-11.402573076912194
-0.3387000000000001,-11.473308641905447
-0.3397,-11.507261713102208
-0.3407000000000001,-11.688344759484933
-0.3417,-11.812839353873056
-0.3427000000000001,-12.020801914953216
-0.3437,-12.200470250036076
-0.3447000000000001,-12.334867823523254
-0.3457,-12.582442300999638
-0.3467000000000001,-12.719669297086545
-0.3477,-12.921973012967245
-0.3487000000000001,-13.11437374974889
-0.3497,-13.31101862043013
-0.3507000000000001,-13.636402219399088
-0.3517,-13.794849884983973
-0.3527000000000001,-13.964615240967778
-0.3537,-14.144283576050634
-0.3547000000000001,-14.316878354634172
-0.3557,-14.585673501608527
-0.35670000000000013,-14.783733083589633
-0.3577,-15.01008689156804
-0.35870000000000013,-15.264734925543747
-0.3597,-15.448647394526201
-0.36070000000000013,-15.78817810649381
-0.3617,-16.02867902747086
-0.3626999999999999,-16.325768400442524
-0.3637,-16.693593338407435
-0.3646999999999999,-16.94824137238314
-0.3657,-17.20288940635885
-0.3666999999999999,-17.471684553333205
-0.3677,-17.839509491298113
-0.3686999999999999,-18.19318731626437
-0.36970000000000003,-18.504423802234676
-0.3706999999999999,-18.92883719219419
-0.37170000000000003,-19.2683679041618
-0.3726999999999999,-19.622045729128057
-0.37370000000000003,-19.97572355409432
-0.3746999999999999,-20.357695605057877
-0.37570000000000003,-20.85284456001064
-0.3766999999999999,-21.2631108369715
-0.37770000000000004,-21.744112678925614
-0.3786999999999999,-22.196820294882425
-0.37970000000000004,-22.649527910839236
-0.3806999999999999,-23.1729710917893
-0.38170000000000004,-23.62567870774611
-0.38269999999999993,-24.106680549700226
-0.38370000000000004,-24.64427084364894
-0.38469999999999993,-25.153566911600354
-0.38570000000000004,-25.73359854454502
-0.38669999999999993,-24.474505487665134
-0.38570000000000004,-22.564645232847337
-0.38469999999999993,-21.58849443594046
-0.38370000000000004,-20.93772723800254
-0.38269999999999993,-20.52746096104168
-0.38170000000000004,-20.13134179707947
-0.3806999999999999,-19.820105311109163
-0.37970000000000004,-19.537163051136158
-0.3786999999999999,-19.211779452167196
-0.37770000000000004,-18.999572757187444
-0.3766999999999999,-18.716630497214435
-0.37570000000000003,-18.518570915233333
-0.3746999999999999,-18.320511333252224
-0.37370000000000003,-17.980980621284615
-0.3726999999999999,-17.683891248312957
-0.37170000000000003,-17.37265476234265
-0.3706999999999999,-17.174595180361546
-0.36970000000000003,-16.93409425938449
-0.3686999999999999,-16.651151999411482
-0.3677,-16.495533756426326
-0.3666999999999999,-16.19844438345467
-0.3657,-15.986237688474914
-0.3646999999999999,-15.731589654499205
-0.3637,-15.406206055530248
-0.3626999999999999,-15.222293586547794
-0.3617,-14.939351326574789
-0.36070000000000013,-14.69885040559773
-0.3597,-14.486643710617974
-0.35870000000000013,-14.203701450644967
-0.3577,-14.022618404262245
-0.35670000000000013,-13.755237968587751
-0.3557,-13.534543005808807
-0.3547000000000001,-13.346386402926754
-0.3537,-13.049297029955099
-0.3527000000000001,-12.851237447973993
-0.3517,-12.57253932190058
-0.3507000000000001,-12.364576760820421
-0.3497,-12.169346601439045
-0.3487000000000001,-11.916113278763204
-0.3477,-11.727956675881154
-0.3467000000000001,-11.449258549807741
-0.3457,-11.248369545226906
-0.3447000000000001,-11.055968808445261
-0.3437,-10.805564908369151
-0.3427000000000001,-10.648531954084133
-0.3417,-10.413689878306533
-0.3407000000000001,-10.194409626827454
-0.3397,-9.965226396249319
-0.3387000000000001,-9.724725475272262
-0.3377,-9.576180788786434
-0.3367000000000001,-9.337094579109243
-0.3357,-9.168743934425303
-0.3347000000000001,-8.973513775043926
-0.3337,-8.735842276666602
-0.3327000000000001,-8.584468167581042
-0.3317,-8.335478978804796
-0.3307000000000001,-8.168543045420723
-0.3297,-8.007265957236108
-0.3287000000000001,-7.789400417056893
-0.3277,-7.657832266169443
-0.3267000000000001,-7.4229901903918485
-0.3257,-7.2390777214093935
-0.3247000000000001,-7.0565799637268025
-0.3237,-6.800517218451231
-0.3227000000000001,-6.712805117859599
-0.3217,-6.506257268079304
-0.3207000000000001,-6.320930087796984
-0.3197,-6.161067710912235
-0.3187000000000001,-5.923396212534908
-0.3177,-5.776266237348945
-0.3167000000000001,-5.551327140670404
-0.3157,-5.394294186385385
-0.3147000000000001,-5.276873148496587
-0.3137,-5.071740010016156
-0.3127000000000001,-4.975539641625334
-0.3117,-4.788797750043149
-0.3107000000000001,-4.651570753956241
-0.3097,-4.508684912669872
-0.3087000000000001,-4.321943021087687
-0.3077,-4.213010250998079
-0.3067000000000001,-4.020609514216435
-0.30569999999999997,-3.8649912712312804
-0.3047000000000001,-3.7263495638445066
-0.30369999999999997,-3.545266517461782
-0.3027000000000001,-3.4561397055702843
-0.30169999999999997,-3.28071550438702
-0.3007000000000001,-3.161879755198357
-0.29969999999999997,-3.028896893011044
-0.2987000000000001,-2.866205093526564
-0.29769999999999996,-2.7869812607341222
-0.2967000000000001,-2.6200453273500477
-0.29569999999999996,-2.5012095781613843
-0.2947000000000001,-2.3979356532712375
-0.29369999999999996,-2.2225114520879723
-0.29270000000000007,-2.1461170418952604
-0.29169999999999996,-1.9777663972113213
-0.29070000000000007,-1.8815660288204987
-0.28969999999999996,-1.776877392630486
-0.28870000000000007,-1.612770881846142
-0.28769999999999996,-1.5632559863508655
-0.28670000000000007,-1.408628041275617
-0.28569999999999995,-1.3093153080250914
-0.28470000000000006,-1.2090122768646603
-0.28369999999999995,-1.0593358213389397
-0.28270000000000006,-1.006425618723987
-0.28169999999999995,-0.8625494795277129
-0.28070000000000006,-0.7720079563363506
-0.27969999999999995,-0.694906190493706
-0.27870000000000006,-0.5439564947981066
-0.27769999999999995,-0.49868573320242543
-0.27670000000000006,-0.3611757948555439
-0.27569999999999995,-0.2733222231339251
-0.27470000000000006,-0.2075381476902009
-0.27369999999999994,-0.07059409386326533
-0.27270000000000005,-0.03249591855789989
-0.27169999999999994,0.09228161809019635
-0.27070000000000005,0.17118006728366944
-0.26969999999999994,0.24163269001694826
-0.26870000000000005,0.36442963084523344
-0.26769999999999994,0.3881967806829661
-0.26670000000000005,0.5223114119101716
-0.26569999999999994,0.5909249099536259
-0.26470000000000005,0.652747793757728
