Potential V vs RHE, Current mA cm-2
0.4132999999999999,-0.013485028110313529
0.4122999999999999,-0.01580232521949246
0.4112999999999999,-0.016552122208420932
0.4102999999999999,-0.01693409425938449
0.4092999999999999,-0.017217036519357496
0.4082999999999999,-0.017429243214337253
0.4072999999999999,-0.017641449909317007
0.4062999999999999,-0.017797068152302163
0.4052999999999999,-0.017910245056291362
0.4042999999999999,-0.018065863299276518
0.4032999999999999,-0.01817904020326572
0.4022999999999999,-0.018292217107254923
0.4012999999999999,-0.018377099785246823
0.4002999999999999,-0.018447835350240076
0.3992999999999999,-0.018575159367227933
0.3982999999999999,-0.018688336271217135
0.3972999999999999,-0.018744924723211737
0.3962999999999999,-0.018843954514202284
0.3952999999999999,-0.01887224874019959
0.3942999999999999,-0.018957131418191494
0.39329999999999987,-0.019042014096183394
0.39229999999999987,-0.019098602548177995
0.39129999999999987,-0.0191551910001726
0.39029999999999987,-0.019211779452167198
0.38929999999999987,-0.01928251501716045
0.38829999999999987,-0.019353250582153703
0.38729999999999987,-0.019395691921149656
0.38629999999999987,-0.019480574599141553
0.38529999999999986,-0.01950886882513886
0.38429999999999986,-0.019565457277133456
0.38329999999999986,-0.019367397695152354
0.38229999999999986,-0.01950886882513886
0.38129999999999986,-0.019791811085111865
0.38029999999999986,-0.019791811085111865
0.37929999999999986,-0.019820105311109164
0.37829999999999986,-0.019862546650105117
0.37729999999999986,-0.019919135102099715
0.37629999999999986,-0.019961576441095665
0.37529999999999986,-0.020018164893090266
0.37429999999999986,-0.02007475334508487
0.37329999999999985,-0.020131341797079472
0.37229999999999985,-0.020187930249074077
0.37129999999999985,-0.020216224475071376
0.37029999999999985,-0.020258665814067326
0.36929999999999985,-0.02032940137906058
0.36829999999999985,-0.020343548492059226
0.36729999999999985,-0.02041428405705248
0.36629999999999985,-0.020442578283049778
0.36529999999999985,-0.020470872509047083
0.36429999999999985,-0.02052746096104168
0.36329999999999985,-0.02055575518703898
0.36229999999999984,-0.020612343639033585
0.36129999999999984,-0.020654784978029535
0.36029999999999984,-0.020668932091028186
0.35929999999999984,-0.02075381476902009
0.35829999999999984,-0.020767961882018737
0.35729999999999984,-0.020824550334013342
0.35629999999999984,-0.02088113878600794
0.35529999999999984,-0.02088113878600794
0.35429999999999984,-0.020937727238002544
0.35329999999999984,-0.020994315689997142
0.35229999999999984,-0.021008462802995797
0.35129999999999983,-0.021079198367989046
0.35029999999999983,-0.021093345480987697
0.34929999999999983,-0.021135786819983647
0.34829999999999983,-0.0212065223849769
0.34729999999999983,-0.0212631108369715
0.34629999999999983,-0.021291405062968803
0.34529999999999983,-0.021305552175967454
0.34429999999999983,-0.021347993514963404
0.3432999999999998,-0.021404581966958002
0.3422999999999998,-0.021432876192955305
0.3412999999999998,-0.021489464644949906
0.3402999999999998,-0.021517758870947205
0.3392999999999998,-0.02153190598394586
0.3382999999999998,-0.02157434732294181
0.3372999999999998,-0.02163093577493641
0.3362999999999998,-0.02165923000093371
0.3352999999999998,-0.021701671339929663
0.3342999999999998,-0.021729965565926962
0.3332999999999998,-0.021772406904922915
0.3322999999999998,-0.021828995356917517
0.3312999999999998,-0.02185728958291482
0.3302999999999998,-0.021885583808912118
0.3292999999999998,-0.021928025147908068
0.3282999999999998,-0.021956319373905367
0.3272999999999998,-0.022027054938898623
0.3262999999999998,-0.022027054938898623
0.3252999999999999,-0.02205534916489592
0.3242999999999999,-0.022126084729889174
0.3232999999999999,-0.022140231842887825
0.3222999999999999,-0.022210967407881078
0.3212999999999999,-0.022253408746877028
0.3202999999999999,-0.02226755585987568
0.3192999999999999,-0.02232414431187028
0.3182999999999999,-0.022338291424868928
0.3172999999999999,-0.02239487987686353
0.3162999999999999,-0.022437321215859483
0.3152999999999999,-0.02245146832885813
0.3142999999999999,-0.022493909667854084
0.3132999999999999,-0.022536351006850038
0.3122999999999999,-0.022578792345845984
0.3112999999999999,-0.022621233684841938
0.3102999999999999,-0.022635380797840585
0.3092999999999999,-0.022691969249835187
0.3082999999999999,-0.02273441058883114
0.3072999999999999,-0.02274855770182979
0.3062999999999999,-0.02279099904082574
0.3052999999999999,-0.022819293266823044
0.3042999999999999,-0.022833440379821688
0.3032999999999999,-0.022904175944814944
0.3022999999999999,-0.022932470170812246
0.3012999999999999,-0.022974911509808196
0.3002999999999999,-0.0230032057358055
0.2992999999999999,-0.023031499961802798
0.2982999999999999,-0.023073941300798748
0.2972999999999999,-0.023116382639794698
0.2962999999999999,-0.023172971091789302
0.2952999999999999,-0.02318711820478795
0.2942999999999999,-0.0232295595437839
0.2932999999999999,-0.02324370665678255
0.2922999999999999,-0.023314442221775804
0.2912999999999999,-0.023314442221775804
0.2902999999999999,-0.023371030673770405
0.2892999999999999,-0.02341347201276636
0.2882999999999999,-0.023427619125765006
0.2872999999999999,-0.023498354690758262
0.2862999999999999,-0.023512501803756906
0.2852999999999999,-0.02352664891675556
0.2842999999999999,-0.023611531594747465
0.2832999999999999,-0.023639825820744764
0.2822999999999999,-0.023668120046742062
0.2812999999999999,-0.023724708498736664
0.2802999999999999,-0.02373885561173532
0.2792999999999999,-0.02378129695073127
0.2782999999999999,-0.023809591176728567
0.2772999999999999,-0.02385203251572452
0.2762999999999999,-0.02390862096771912
0.2752999999999999,-0.02390862096771912
0.2742999999999999,-0.02397935653271237
0.2732999999999999,-0.02400765075870967
0.2722999999999999,-0.024035944984706972
0.2712999999999999,-0.024106680549700225
0.2702999999999999,-0.024134974775697527
0.2692999999999999,-0.024163269001694826
0.26829999999999987,-0.024219857453689427
0.26729999999999987,-0.02424815167968673
0.26629999999999987,-0.024304740131681327
0.26529999999999987,-0.024318887244679982
0.26429999999999987,-0.02436132858367593
0.26329999999999987,-0.024403769922671882
0.26229999999999987,-0.024446211261667832
0.26129999999999987,-0.02447450548766513
0.26029999999999986,-0.024502799713662437
0.25929999999999986,-0.024559388165657038
0.25829999999999986,-0.024587682391654337
0.25729999999999986,-0.024644270843648942
0.25629999999999986,-0.02467256506964624
0.25529999999999986,-0.024700859295643543
0.25429999999999986,-0.02474330063463949
0.25329999999999986,-0.02479988908663409
0.25229999999999986,-0.02482818331263139
0.25129999999999986,-0.024870624651627343
0.25029999999999986,-0.024913065990623297
0.24929999999999986,-0.0249413602166206
0.24829999999999985,-0.024983801555616546
0.24729999999999985,-0.025040390007611147
0.24629999999999985,-0.02506868423360845
0.24529999999999985,-0.02512527268560305
0.24429999999999985,-0.025196008250596303
0.24329999999999985,-0.025196008250596303
0.24229999999999985,-0.025252596702590904
0.24129999999999985,-0.025280890928588207
0.24029999999999985,-0.025309185154585506
0.23929999999999985,-0.02537992071957876
0.23829999999999985,-0.02540821494557606
0.23729999999999984,-0.02545065628457201
0.23629999999999984,-0.025507244736566608
0.23529999999999984,-0.025521391849565263
0.23429999999999984,-0.025563833188561213
0.23329999999999984,-0.025634568753554465
0.23229999999999984,-0.025677010092550415
0.23129999999999984,-0.025705304318547718
0.23029999999999984,-0.02576189277054232
0.22929999999999984,-0.02577603988354097
0.22829999999999984,-0.025832628335535568
0.22729999999999984,-0.02587506967453152
0.22629999999999983,-0.02594580523952477
0.22529999999999983,-0.025974099465522073
0.22429999999999983,-0.026016540804518026
0.22329999999999983,-0.026087276369511275
0.22229999999999983,-0.026115570595508578
0.22129999999999983,-0.026172159047503182
0.22029999999999983,-0.02621460038649913
0.21929999999999983,-0.026257041725495082
0.21829999999999983,-0.02629948306449103
0.21729999999999983,-0.026356071516485634
0.21629999999999983,-0.026412659968480235
0.21529999999999982,-0.026440954194477534
0.21429999999999982,-0.026483395533473487
0.21329999999999982,-0.026539983985468085
0.21229999999999982,-0.02659657243746269
0.21129999999999982,-0.026639013776458643
0.21029999999999982,-0.02668145511545459
0.20929999999999982,-0.026723896454450544
0.20829999999999982,-0.026752190680447843
0.20729999999999982,-0.026851220471438397
0.20629999999999982,-0.026865367584437045
0.20529999999999982,-0.02692195603643165
0.20429999999999982,-0.026978544488426247
0.20329999999999981,-0.027006838714423546
0.2022999999999998,-0.0270775742794168
0.2012999999999998,-0.027134162731411407
0.20029999999999992,-0.027148309844410055
0.19929999999999992,-0.027204898296404656
0.19829999999999992,-0.027247339635400606
0.19729999999999992,-0.02730392808739521
0.19629999999999992,-0.02736051653938981
0.19529999999999992,-0.027374663652388463
0.19429999999999992,-0.027516134782374965
0.19329999999999992,-0.027586870347368214
0.19229999999999992,-0.027586870347368214
0.19129999999999991,-0.02764345879936281
0.1902999999999999,-0.027671753025360117
0.1892999999999999,-0.02772834147735472
0.1882999999999999,-0.027784929929349323
0.1872999999999999,-0.027841518381343924
0.1862999999999999,-0.027912253946337173
0.1852999999999999,-0.027926401059335824
0.1842999999999999,-0.027997136624329073
0.1832999999999999,-0.028053725076323675
0.1822999999999999,-0.02809616641531963
0.1812999999999999,-0.02815275486731423
0.1802999999999999,-0.02820934331930883
0.1792999999999999,-0.028251784658304784
0.1782999999999999,-0.028322520223298033
0.1772999999999999,-0.028393255788291286
0.1762999999999999,-0.028421550014288588
0.1752999999999999,-0.02847813846628319
0.1742999999999999,-0.02854887403127644
0.1732999999999999,-0.028577168257273744
0.1722999999999999,-0.028662050935265648
0.1712999999999999,-0.028704492274261594
0.1702999999999999,-0.028746933613257548
0.1692999999999999,-0.028817669178250797
0.1682999999999999,-0.028874257630245398
0.1672999999999999,-0.02894499319523865
0.1662999999999999,-0.028987434534234607
0.1652999999999999,-0.02902987587323055
0.1642999999999999,-0.029114758551222454
0.1632999999999999,-0.029171347003217055
0.1622999999999999,-0.02922793545521166
0.1612999999999999,-0.029298671020204912
0.1602999999999999,-0.029326965246202208
0.1592999999999999,-0.02941184792419411
0.15829999999999989,-0.02946843637618871
0.15729999999999988,-0.029510877715184666
0.15629999999999988,-0.029581613280177915
0.15529999999999988,-0.029638201732172516
0.15429999999999988,-0.02969479018416712
0.15329999999999988,-0.029765525749160374
0.15229999999999988,-0.02979381997515767
0.15129999999999988,-0.029892849766148224
0.15029999999999988,-0.029921143992145526
0.14929999999999988,-0.029991879557138775
0.14829999999999988,-0.03006261512213203
0.14729999999999988,-0.03011920357412663
0.14629999999999987,-0.03018993913911988
0.14529999999999987,-0.030232380478115835
0.14429999999999987,-0.030288968930110433
0.14329999999999987,-0.030373851608102336
0.14229999999999987,-0.030458734286094236
0.14129999999999987,-0.030501175625090193
0.14029999999999987,-0.03055776407708479
0.13929999999999987,-0.030614352529079396
0.13829999999999987,-0.030685088094072648
0.13729999999999987,-0.0307275294330686
0.13629999999999987,-0.03079826499806185
0.13529999999999986,-0.03085485345005645
0.13429999999999986,-0.0309255890150497
0.13329999999999986,-0.030982177467044306
0.13229999999999986,-0.03103876591903891
0.13129999999999986,-0.03110950148403216
0.13029999999999986,-0.031180237049025412
0.12929999999999986,-0.031250972614018664
0.12829999999999986,-0.03130756106601326
0.12729999999999986,-0.03140659085700381
0.12629999999999986,-0.031434885083001116
0.12529999999999986,-0.03149147353499571
0.12429999999999986,-0.03157635621298762
0.12329999999999985,-0.03163294466498222
0.12229999999999985,-0.03171782734297412
0.12129999999999985,-0.031788562907967374
0.12029999999999985,-0.03181685713396468
0.11929999999999985,-0.03193003403795388
0.11829999999999985,-0.031972475376949826
0.11729999999999985,-0.032057358054941726
0.11629999999999985,-0.03214224073293363
0.11529999999999985,-0.032184682071929586
0.11429999999999985,-0.03228371186292014
0.11329999999999985,-0.032340300314914736
0.11229999999999984,-0.032425182992906636
0.11129999999999984,-0.032524212783897194
0.11029999999999984,-0.032538359896895845
0.10929999999999984,-0.032623242574887745
0.10829999999999984,-0.032736419478876955
0.10729999999999984,-0.0327788608178729
0.10629999999999984,-0.0328637434958648
0.10529999999999984,-0.03293447906085806
0.10429999999999984,-0.033005214625851306
0.10329999999999984,-0.03311839152984051
0.10229999999999984,-0.03318912709483376
0.10129999999999983,-0.03325986265982701
0.10029999999999983,-0.03333059822482026
0.09929999999999983,-0.03340133378981351
0.09829999999999983,-0.03348621646780542
0.09729999999999983,-0.03357109914579732
0.09629999999999983,-0.03364183471079057
0.09529999999999983,-0.033726717388782475
0.09429999999999983,-0.03378330584077707
0.09329999999999983,-0.03386818851876898
0.09229999999999983,-0.033967218309759524
0.09129999999999983,-0.03403795387475279
0.09029999999999982,-0.034108689439746036
0.08929999999999982,-0.034193572117737936
0.08829999999999982,-0.03425016056973254
0.08729999999999982,-0.034335043247724434
0.08629999999999982,-0.03441992592571634
0.08529999999999982,-0.0344906614907096
0.08429999999999982,-0.0345755441687015
0.08329999999999982,-0.034617985507697444
0.08229999999999982,-0.034717015298688
0.08129999999999982,-0.03480189797667991
0.08029999999999982,-0.03484433931567585
0.07929999999999982,-0.03494336910666641
0.07829999999999981,-0.035028251784658314
0.07729999999999981,-0.03509898734965156
0.07629999999999981,-0.035198017140642114
0.07529999999999992,-0.03522631136663941
0.07429999999999992,-0.03531119404463132
0.07329999999999992,-0.03539607672262322
0.07229999999999992,-0.035466812287616466
0.07129999999999992,-0.03553754785260972
0.07029999999999992,-0.035594136304604326
0.06929999999999992,-0.03569316609559487
0.06829999999999992,-0.03577804877358678
0.06729999999999992,-0.03583463722558138
0.06629999999999991,-0.035947814129570585
0.06529999999999991,-0.03600440258156519
0.06429999999999991,-0.03606099103355979
0.06329999999999991,-0.03614587371155169
0.06229999999999991,-0.03624490350254224
0.06129999999999991,-0.03632978618053414
0.06029999999999991,-0.036400521745527395
0.05929999999999991,-0.036485404423519295
0.05829999999999991,-0.0365419928755139
0.05729999999999991,-0.0366268755535058
0.056299999999999906,-0.03669761111849905
0.055299999999999905,-0.03675419957049365
0.054299999999999904,-0.0368249351354869
0.0532999999999999,-0.036923964926477454
0.0522999999999999,-0.03700884760446936
0.0512999999999999,-0.03705128894346531
0.0502999999999999,-0.03712202450845856
0.0492999999999999,-0.03719276007345181
0.0482999999999999,-0.03724934852544641
0.0472999999999999,-0.03733423120343832
0.0462999999999999,-0.037404966768431566
0.045299999999999896,-0.03747570233342482
0.044299999999999895,-0.03754643789841807
0.043299999999999894,-0.037603026350412676
0.04229999999999989,-0.037673761915405925
0.04129999999999989,-0.037772791706396476
0.04029999999999989,-0.03785767438438838
0.03929999999999989,-0.03791426283638299
0.03829999999999989,-0.037956704175378934
0.03729999999999989,-0.038041586853370835
0.03629999999999989,-0.038112322418364084
0.03529999999999989,-0.038154763757360044
0.034299999999999886,-0.038239646435351944
0.033299999999999885,-0.0383103820003452
0.032299999999999884,-0.03838111756533845
0.031299999999999883,-0.03843770601733305
0.030299999999999883,-0.038494294469327645
0.02929999999999988,-0.03855088292132225
0.02829999999999988,-0.038635765599314156
0.02729999999999988,-0.038706501164307405
0.02629999999999988,-0.03880553095529796
0.025299999999999878,-0.03884797229429391
0.024299999999999877,-0.03890456074628851
0.023299999999999876,-0.039003590537279066
0.022299999999999875,-0.039074326102272315
0.021299999999999875,-0.039159208780264215
0.020299999999999874,-0.03921579723225881
0.019299999999999873,-0.03920165011926016
0.018299999999999872,-0.03928653279725207
0.01729999999999987,-0.03939970970124127
0.01629999999999987,-0.03947044526623452
0.01529999999999987,-0.03954118083122777
0.014299999999999868,-0.039611916396221025
0.013299999999999867,-0.03966850484821563
0.012299999999999978,-0.03978168175220483
0.011299999999999866,-0.03985241731719808
0.010299999999999976,-0.03988071154319539
0.009299999999999864,-0.039979741334185935
0.008299999999999974,-0.04002218267318189
0.007299999999999862,-0.04009291823817514
0.006299999999999972,-0.04016365380316839
0.00529999999999986,-0.04020609514216435
0.0042999999999999705,-0.04029097782015625
0.0032999999999998586,-0.04031927204615354
0.0022999999999999687,-0.04040415472414544
0.0012999999999998568,-0.040503184515136
0.00029999999999996696,-0.04058806719312791
-0.000700000000000145,-0.040644655645122506
-0.0017000000000000348,-0.04065880275812116
-0.0027000000000001467,-0.040729538323114406
-0.0037000000000000366,-0.040800273888107655
-0.0047000000000001485,-0.04082856811410496
-0.005700000000000038,-0.04091345079209686
-0.00670000000000015,-0.04097003924409146
-0.00770000000000004,-0.04104077480908471
-0.008700000000000152,-0.04111151037407796
-0.009700000000000042,-0.04113980460007527
-0.010700000000000154,-0.04126712861706312
-0.011700000000000044,-0.04130956995605907
-0.012700000000000156,-0.041366158408053674
-0.013700000000000045,-0.041451041086045574
-0.014700000000000157,-0.04149348242504153
-0.015700000000000047,-0.04156421799003478
-0.01670000000000016,-0.041649100668026684
-0.01770000000000005,-0.04167739489402397
-0.01870000000000016,-0.04173398334601858
-0.01970000000000005,-0.041818866024010484
-0.020700000000000163,-0.04186130736300644
-0.021700000000000053,-0.04193204292799969
-0.022700000000000164,-0.042016925605991594
-0.023700000000000054,-0.04208766117098484
-0.024700000000000166,-0.04215839673597809
-0.025700000000000056,-0.042200838074974045
-0.026700000000000168,-0.04222913230097135
-0.027700000000000058,-0.04232816209196189
-0.02870000000000017,-0.04237060343095785
-0.02970000000000006,-0.04245548610894975
-0.03070000000000017,-0.0424979274479457
-0.03170000000000006,-0.042554515899940304
-0.03270000000000017,-0.042653545690930855
-0.03370000000000006,-0.04268183991692816
-0.034700000000000175,-0.04275257548192141
-0.035700000000000065,-0.042851605272911965
-0.03670000000000018,-0.04290819372490656
-0.03770000000000007,-0.04299307640289847
-0.03870000000000018,-0.04307795908089037
-0.03970000000000007,-0.043092106193889014
-0.04070000000000018,-0.04317698887188092
-0.04170000000000007,-0.04324772443687417
-0.04270000000000018,-0.04331846000186742
-0.04370000000000007,-0.043389195566860675
-0.044700000000000184,-0.04341748979285798
-0.045700000000000074,-0.04351651958384853
-0.046700000000000186,-0.04357310803584313
-0.047700000000000076,-0.04362969648783773
-0.04870000000000019,-0.04371457916582964
-0.04970000000000008,-0.043757020504825585
-0.05070000000000019,-0.04381360895682019
-0.05170000000000008,-0.043912638747810734
-0.05270000000000019,-0.04392678586080939
-0.05370000000000008,-0.04401166853880129
-0.05470000000000019,-0.04406825699079589
-0.05570000000000008,-0.044124845442790495
-0.056700000000000195,-0.0442097281207824
-0.057700000000000085,-0.044266316572777
-0.058700000000000196,-0.0443229050247716
-0.059700000000000086,-0.04436534636376756
-0.0607000000000002,-0.044421934815762155
-0.06170000000000009,-0.04453511171975136
-0.0627000000000002,-0.04461999439774326
-0.06370000000000009,-0.04464828862374056
-0.0647000000000002,-0.04470487707573516
-0.06570000000000009,-0.04476146552772976
-0.0667000000000002,-0.04484634820572166
