Sept. 29, 2024   04:21:11
Cyclic Voltammetry
File: c:/users/guazh/data/20240922_batch_417_500/2024-09-22-exp478\exp478-2024-09-29t04_01_39-arkoh\exp478_cv_sr_200mvs_efin_-1900mv.bin
Data Source:  Experiment
Instrument Model:  CHI760E
Header: CV ran at 200 mVs
Note: 

Init E (V) = -1
High E (V) = -1
Low E (V) = -1.9
Final E (V) = -1
Init P/N = N
Scan Rate (V/s) = 0.2
Segment = 3
Sample Interval (V) = 0.001
Quiet Time (sec) = 2
Sensitivity (A/V) = 0.01
Comp R (ohm) = 2.3

Results:

Channel 1:
Segment 1:

Segment 2:

Segment 3:

Potential/V, Current/A

-1.000, -9.392e-7
-1.001, -7.814e-7
-1.002, -1.067e-6
-1.003, -6.827e-7
-1.004, -1.077e-6
-1.005, -8.800e-7
-1.006, -9.590e-7
-1.007, -7.419e-7
-1.008, -6.433e-7
-1.009, -8.702e-7
-1.010, -6.433e-7
-1.011, -7.419e-7
-1.012, -6.433e-7
-1.013, -5.446e-7
-1.014, -6.827e-7
-1.015, -3.571e-7
-1.016, -4.065e-7
-1.017, -4.657e-7
-1.018, -2.881e-7
-1.019, -6.531e-7
-1.020, -4.657e-7
-1.021, -5.939e-7
-1.022, -4.459e-7
-1.023, -2.684e-7
-1.024, -3.966e-7
-1.025, -4.361e-7
-1.026, -6.235e-7
-1.027, -4.361e-7
-1.028, -1.500e-7
-1.029, -4.065e-7
-1.030, -2.171e-8
-1.031, -5.347e-7
-1.032, -3.078e-7
-1.033, -2.684e-7
-1.034, -2.190e-7
-1.035, -1.302e-7
-1.036, -2.092e-7
-1.037, 1.776e-8
-1.038, -8.090e-8
-1.039, -1.500e-7
-1.040, -1.006e-7
-1.041, -2.585e-7
-1.042, -2.782e-7
-1.043, -2.171e-8
-1.044, -1.894e-7
-1.045, -2.171e-8
-1.046, -1.598e-7
-1.047, 1.066e-7
-1.048, 2.052e-7
-1.049, -1.796e-7
-1.050, 8.682e-8
-1.051, 7.893e-9
-1.052, -1.184e-8
-1.053, 1.066e-7
-1.054, 7.695e-8
-1.055, -3.157e-8
-1.056, 2.151e-7
-1.057, 1.362e-7
-1.058, 2.940e-7
-1.059, -4.144e-8
-1.060, 3.927e-7
-1.061, 1.855e-7
-1.062, -1.973e-9
-1.063, 3.335e-7
-1.064, 1.362e-7
-1.065, 1.559e-7
-1.066, 1.559e-7
-1.067, 1.657e-7
-1.068, 3.433e-7
-1.069, 2.841e-7
-1.070, 3.729e-7
-1.071, 1.559e-7
-1.072, 2.644e-7
-1.073, 3.631e-7
-1.074, 9.669e-8
-1.075, 4.124e-7
-1.076, 2.841e-7
-1.077, 6.294e-7
-1.078, 5.012e-7
-1.079, 1.559e-7
-1.080, 5.900e-7
-1.081, 3.828e-7
-1.082, 4.420e-7
-1.083, 5.209e-7
-1.084, 2.940e-7
-1.085, 7.577e-7
-1.086, 1.263e-7
-1.087, 4.420e-7
-1.088, 3.433e-7
-1.089, 2.052e-7
-1.090, 6.196e-7
-1.091, 5.801e-7
-1.092, 5.505e-7
-1.093, 4.519e-7
-1.094, 4.716e-7
-1.095, 6.689e-7
-1.096, 6.196e-7
-1.097, 5.505e-7
-1.098, 6.985e-7
-1.099, 5.703e-7
-1.100, 7.972e-7
-1.101, 5.604e-7
-1.102, 5.407e-7
-1.103, 1.103e-6
-1.104, 3.433e-7
-1.105, 6.985e-7
-1.106, 8.958e-7
-1.107, 6.985e-7
-1.108, 9.846e-7
-1.109, 7.084e-7
-1.110, 8.564e-7
-1.111, 7.972e-7
-1.112, 3.631e-7
-1.113, 7.281e-7
-1.114, 6.393e-7
-1.115, 9.254e-7
-1.116, 6.097e-7
-1.117, 6.590e-7
-1.118, 8.662e-7
-1.119, 8.070e-7
-1.120, 9.550e-7
-1.121, 8.268e-7
-1.122, 1.004e-6
-1.123, 8.958e-7
-1.124, 8.564e-7
-1.125, 8.761e-7
-1.126, 9.846e-7
-1.127, 1.073e-6
-1.128, 1.064e-6
-1.129, 8.366e-7
-1.130, 9.748e-7
-1.131, 1.133e-6
-1.132, 1.123e-6
-1.133, 1.113e-6
-1.134, 8.268e-7
-1.135, 1.024e-6
-1.136, 1.044e-6
-1.137, 9.550e-7
-1.138, 1.034e-6
-1.139, 7.873e-7
-1.140, 1.290e-6
-1.141, 9.748e-7
-1.142, 1.123e-6
-1.143, 1.024e-6
-1.144, 1.409e-6
-1.145, 1.004e-6
-1.146, 1.034e-6
-1.147, 1.123e-6
-1.148, 1.350e-6
-1.149, 9.945e-7
-1.150, 1.014e-6
-1.151, 1.271e-6
-1.152, 9.846e-7
-1.153, 1.241e-6
-1.154, 1.379e-6
-1.155, 1.271e-6
-1.156, 1.241e-6
-1.157, 1.054e-6
-1.158, 1.369e-6
-1.159, 1.221e-6
-1.160, 1.458e-6
-1.161, 1.251e-6
-1.162, 1.251e-6
-1.163, 1.409e-6
-1.164, 1.162e-6
-1.165, 1.557e-6
-1.166, 1.261e-6
-1.167, 1.360e-6
-1.168, 1.330e-6
-1.169, 1.054e-6
-1.170, 1.586e-6
-1.171, 1.320e-6
-1.172, 1.547e-6
-1.173, 1.202e-6
-1.174, 1.310e-6
-1.175, 1.557e-6
-1.176, 1.271e-6
-1.177, 1.488e-6
-1.178, 1.636e-6
-1.179, 1.389e-6
-1.180, 1.527e-6
-1.181, 1.350e-6
-1.182, 1.527e-6
-1.183, 1.596e-6
-1.184, 1.586e-6
-1.185, 1.695e-6
-1.186, 1.488e-6
-1.187, 1.527e-6
-1.188, 1.586e-6
-1.189, 1.409e-6
-1.190, 1.606e-6
-1.191, 1.744e-6
-1.192, 1.389e-6
-1.193, 1.517e-6
-1.194, 1.616e-6
-1.195, 1.705e-6
-1.196, 1.419e-6
-1.197, 1.616e-6
-1.198, 1.508e-6
-1.199, 1.547e-6
-1.200, 1.705e-6
-1.201, 1.646e-6
-1.202, 1.685e-6
-1.203, 1.537e-6
-1.204, 1.725e-6
-1.205, 1.725e-6
-1.206, 1.636e-6
-1.207, 1.823e-6
-1.208, 1.971e-6
-1.209, 1.646e-6
-1.210, 1.863e-6
-1.211, 1.764e-6
-1.212, 1.794e-6
-1.213, 1.833e-6
-1.214, 1.784e-6
-1.215, 1.912e-6
-1.216, 1.922e-6
-1.217, 1.971e-6
-1.218, 2.021e-6
-1.219, 1.734e-6
-1.220, 1.882e-6
-1.221, 2.060e-6
-1.222, 1.754e-6
-1.223, 1.794e-6
-1.224, 1.675e-6
-1.225, 2.001e-6
-1.226, 1.626e-6
-1.227, 1.646e-6
-1.228, 1.912e-6
-1.229, 1.853e-6
-1.230, 2.198e-6
-1.231, 2.050e-6
-1.232, 1.863e-6
-1.233, 2.030e-6
-1.234, 1.922e-6
-1.235, 2.188e-6
-1.236, 2.178e-6
-1.237, 2.218e-6
-1.238, 2.198e-6
-1.239, 1.912e-6
-1.240, 2.287e-6
-1.241, 2.228e-6
-1.242, 2.257e-6
-1.243, 2.326e-6
-1.244, 2.001e-6
-1.245, 2.405e-6
-1.246, 2.238e-6
-1.247, 2.228e-6
-1.248, 2.395e-6
-1.249, 2.099e-6
-1.250, 2.178e-6
-1.251, 2.188e-6
-1.252, 2.257e-6
-1.253, 2.257e-6
-1.254, 2.169e-6
-1.255, 2.376e-6
-1.256, 2.415e-6
-1.257, 2.326e-6
-1.258, 2.534e-6
-1.259, 2.070e-6
-1.260, 2.504e-6
-1.261, 2.465e-6
-1.262, 2.435e-6
-1.263, 2.366e-6
-1.264, 2.099e-6
-1.265, 2.405e-6
-1.266, 2.218e-6
-1.267, 2.514e-6
-1.268, 2.632e-6
-1.269, 2.257e-6
-1.270, 2.691e-6
-1.271, 2.504e-6
-1.272, 2.386e-6
-1.273, 2.159e-6
-1.274, 2.336e-6
-1.275, 2.474e-6
-1.276, 2.534e-6
-1.277, 2.445e-6
-1.278, 2.494e-6
-1.279, 2.317e-6
-1.280, 2.583e-6
-1.281, 2.445e-6
-1.282, 2.514e-6
-1.283, 2.474e-6
-1.284, 2.445e-6
-1.285, 2.672e-6
-1.286, 2.573e-6
-1.287, 2.583e-6
-1.288, 2.869e-6
-1.289, 2.395e-6
-1.290, 2.770e-6
-1.291, 2.228e-6
-1.292, 2.524e-6
-1.293, 2.514e-6
-1.294, 2.632e-6
-1.295, 2.760e-6
-1.296, 2.573e-6
-1.297, 2.830e-6
-1.298, 2.839e-6
-1.299, 2.711e-6
-1.300, 2.928e-6
-1.301, 2.682e-6
-1.302, 2.691e-6
-1.303, 2.790e-6
-1.304, 2.425e-6
-1.305, 2.642e-6
-1.306, 2.504e-6
-1.307, 2.899e-6
-1.308, 2.662e-6
-1.309, 2.691e-6
-1.310, 2.662e-6
-1.311, 2.879e-6
-1.312, 2.652e-6
-1.313, 2.810e-6
-1.314, 2.869e-6
-1.315, 2.839e-6
-1.316, 3.007e-6
-1.317, 2.978e-6
-1.318, 3.076e-6
-1.319, 2.573e-6
-1.320, 2.918e-6
-1.321, 2.632e-6
-1.322, 2.968e-6
-1.323, 2.859e-6
-1.324, 2.869e-6
-1.325, 3.007e-6
-1.326, 2.770e-6
-1.327, 2.859e-6
-1.328, 2.968e-6
-1.329, 2.662e-6
-1.330, 3.195e-6
-1.331, 2.918e-6
-1.332, 3.066e-6
-1.333, 3.106e-6
-1.334, 3.145e-6
-1.335, 2.938e-6
-1.336, 2.908e-6
-1.337, 3.145e-6
-1.338, 3.234e-6
-1.339, 2.869e-6
-1.340, 3.165e-6
-1.341, 2.997e-6
-1.342, 2.879e-6
-1.343, 3.076e-6
-1.344, 2.830e-6
-1.345, 3.195e-6
-1.346, 3.106e-6
-1.347, 3.145e-6
-1.348, 3.303e-6
-1.349, 2.968e-6
-1.350, 3.313e-6
-1.351, 3.047e-6
-1.352, 3.343e-6
-1.353, 3.056e-6
-1.354, 3.362e-6
-1.355, 3.017e-6
-1.356, 2.948e-6
-1.357, 3.264e-6
-1.358, 3.461e-6
-1.359, 2.978e-6
-1.360, 3.412e-6
-1.361, 3.126e-6
-1.362, 3.234e-6
-1.363, 3.175e-6
-1.364, 3.175e-6
-1.365, 3.343e-6
-1.366, 3.234e-6
-1.367, 3.352e-6
-1.368, 3.441e-6
-1.369, 3.214e-6
-1.370, 3.629e-6
-1.371, 3.441e-6
-1.372, 3.461e-6
-1.373, 3.412e-6
-1.374, 3.362e-6
-1.375, 3.431e-6
-1.376, 3.313e-6
-1.377, 3.333e-6
-1.378, 3.708e-6
-1.379, 3.264e-6
-1.380, 3.451e-6
-1.381, 3.313e-6
-1.382, 3.599e-6
-1.383, 3.570e-6
-1.384, 3.382e-6
-1.385, 3.570e-6
-1.386, 3.668e-6
-1.387, 3.619e-6
-1.388, 3.865e-6
-1.389, 3.412e-6
-1.390, 3.816e-6
-1.391, 3.757e-6
-1.392, 3.629e-6
-1.393, 3.560e-6
-1.394, 3.639e-6
-1.395, 3.717e-6
-1.396, 3.579e-6
-1.397, 3.629e-6
-1.398, 3.826e-6
-1.399, 3.422e-6
-1.400, 3.757e-6
-1.401, 3.708e-6
-1.402, 3.658e-6
-1.403, 3.717e-6
-1.404, 3.550e-6
-1.405, 3.787e-6
-1.406, 3.777e-6
-1.407, 3.885e-6
-1.408, 3.935e-6
-1.409, 3.727e-6
-1.410, 4.004e-6
-1.411, 3.540e-6
-1.412, 4.043e-6
-1.413, 3.895e-6
-1.414, 3.639e-6
-1.415, 3.974e-6
-1.416, 4.023e-6
-1.417, 3.895e-6
-1.418, 4.112e-6
-1.419, 3.648e-6
-1.420, 3.816e-6
-1.421, 4.004e-6
-1.422, 4.033e-6
-1.423, 4.004e-6
-1.424, 4.083e-6
-1.425, 4.221e-6
-1.426, 3.984e-6
-1.427, 4.092e-6
-1.428, 4.004e-6
-1.429, 3.875e-6
-1.430, 4.092e-6
-1.431, 3.925e-6
-1.432, 3.796e-6
-1.433, 3.954e-6
-1.434, 3.984e-6
-1.435, 4.152e-6
-1.436, 4.309e-6
-1.437, 4.171e-6
-1.438, 4.428e-6
-1.439, 4.161e-6
-1.440, 4.349e-6
-1.441, 4.398e-6
-1.442, 4.576e-6
-1.443, 4.191e-6
-1.444, 4.369e-6
-1.445, 4.329e-6
-1.446, 4.171e-6
-1.447, 4.438e-6
-1.448, 4.734e-6
-1.449, 4.191e-6
-1.450, 4.615e-6
-1.451, 4.369e-6
-1.452, 4.467e-6
-1.453, 4.586e-6
-1.454, 4.369e-6
-1.455, 4.507e-6
-1.456, 4.300e-6
-1.457, 4.724e-6
-1.458, 4.803e-6
-1.459, 4.260e-6
-1.460, 4.744e-6
-1.461, 4.655e-6
-1.462, 4.526e-6
-1.463, 4.556e-6
-1.464, 4.665e-6
-1.465, 4.753e-6
-1.466, 4.852e-6
-1.467, 4.990e-6
-1.468, 4.901e-6
-1.469, 4.477e-6
-1.470, 4.911e-6
-1.471, 4.813e-6
-1.472, 4.665e-6
-1.473, 4.931e-6
-1.474, 4.990e-6
-1.475, 4.951e-6
-1.476, 4.694e-6
-1.477, 4.882e-6
-1.478, 5.188e-6
-1.479, 4.704e-6
-1.480, 4.931e-6
-1.481, 5.109e-6
-1.482, 5.237e-6
-1.483, 5.010e-6
-1.484, 5.158e-6
-1.485, 5.109e-6
-1.486, 4.724e-6
-1.487, 5.148e-6
-1.488, 5.207e-6
-1.489, 4.852e-6
-1.490, 5.118e-6
-1.491, 5.533e-6
-1.492, 5.109e-6
-1.493, 5.178e-6
-1.494, 5.059e-6
-1.495, 5.355e-6
-1.496, 5.049e-6
-1.497, 5.483e-6
-1.498, 5.533e-6
-1.499, 5.237e-6
-1.500, 5.375e-6
-1.501, 5.424e-6
-1.502, 5.533e-6
-1.503, 5.474e-6
-1.504, 5.375e-6
-1.505, 5.553e-6
-1.506, 5.483e-6
-1.507, 5.750e-6
-1.508, 5.661e-6
-1.509, 5.257e-6
-1.510, 5.631e-6
-1.511, 5.779e-6
-1.512, 5.977e-6
-1.513, 5.809e-6
-1.514, 5.819e-6
-1.515, 5.740e-6
-1.516, 5.770e-6
-1.517, 5.927e-6
-1.518, 6.036e-6
-1.519, 5.957e-6
-1.520, 6.036e-6
-1.521, 6.223e-6
-1.522, 5.937e-6
-1.523, 6.184e-6
-1.524, 6.026e-6
-1.525, 6.312e-6
-1.526, 6.006e-6
-1.527, 6.233e-6
-1.528, 6.411e-6
-1.529, 6.085e-6
-1.530, 6.529e-6
-1.531, 6.470e-6
-1.532, 6.075e-6
-1.533, 6.283e-6
-1.534, 6.539e-6
-1.535, 6.667e-6
-1.536, 6.431e-6
-1.537, 6.707e-6
-1.538, 6.924e-6
-1.539, 6.628e-6
-1.540, 6.973e-6
-1.541, 6.825e-6
-1.542, 6.736e-6
-1.543, 6.875e-6
-1.544, 7.092e-6
-1.545, 6.924e-6
-1.546, 6.786e-6
-1.547, 7.042e-6
-1.548, 7.516e-6
-1.549, 6.934e-6
-1.550, 7.279e-6
-1.551, 7.171e-6
-1.552, 7.397e-6
-1.553, 7.328e-6
-1.554, 7.388e-6
-1.555, 7.447e-6
-1.556, 7.358e-6
-1.557, 7.536e-6
-1.558, 7.802e-6
-1.559, 7.713e-6
-1.560, 7.447e-6
-1.561, 8.019e-6
-1.562, 7.703e-6
-1.563, 7.743e-6
-1.564, 7.743e-6
-1.565, 8.197e-6
-1.566, 8.147e-6
-1.567, 8.433e-6
-1.568, 8.552e-6
-1.569, 8.137e-6
-1.570, 8.364e-6
-1.571, 8.433e-6
-1.572, 8.374e-6
-1.573, 8.512e-6
-1.574, 8.868e-6
-1.575, 8.808e-6
-1.576, 8.769e-6
-1.577, 8.907e-6
-1.578, 9.163e-6
-1.579, 8.749e-6
-1.580, 9.430e-6
-1.581, 9.213e-6
-1.582, 9.430e-6
-1.583, 9.459e-6
-1.584, 9.479e-6
-1.585, 9.351e-6
-1.586, 9.588e-6
-1.587, 1.016e-5
-1.588, 1.006e-5
-1.589, 9.795e-6
-1.590, 1.025e-5
-1.591, 1.033e-5
-1.592, 1.031e-5
-1.593, 1.039e-5
-1.594, 1.064e-5
-1.595, 1.072e-5
-1.596, 1.073e-5
-1.597, 1.102e-5
-1.598, 1.122e-5
-1.599, 1.108e-5
-1.600, 1.134e-5
-1.601, 1.177e-5
-1.602, 1.168e-5
-1.603, 1.188e-5
-1.604, 1.199e-5
-1.605, 1.200e-5
-1.606, 1.228e-5
-1.607, 1.247e-5
-1.608, 1.257e-5
-1.609, 1.252e-5
-1.610, 1.302e-5
-1.611, 1.296e-5
-1.612, 1.325e-5
-1.613, 1.340e-5
-1.614, 1.351e-5
-1.615, 1.414e-5
-1.616, 1.374e-5
-1.617, 1.421e-5
-1.618, 1.461e-5
-1.619, 1.442e-5
-1.620, 1.512e-5
-1.621, 1.529e-5
-1.622, 1.524e-5
-1.623, 1.534e-5
-1.624, 1.599e-5
-1.625, 1.627e-5
-1.626, 1.607e-5
-1.627, 1.658e-5
-1.628, 1.700e-5
-1.629, 1.723e-5
-1.630, 1.759e-5
-1.631, 1.779e-5
-1.632, 1.822e-5
-1.633, 1.844e-5
-1.634, 1.873e-5
-1.635, 1.913e-5
-1.636, 1.907e-5
-1.637, 1.985e-5
-1.638, 2.037e-5
-1.639, 2.038e-5
-1.640, 2.108e-5
-1.641, 2.128e-5
-1.642, 2.174e-5
-1.643, 2.186e-5
-1.644, 2.269e-5
-1.645, 2.324e-5
-1.646, 2.345e-5
-1.647, 2.414e-5
-1.648, 2.457e-5
-1.649, 2.469e-5
-1.650, 2.552e-5
-1.651, 2.580e-5
-1.652, 2.652e-5
-1.653, 2.712e-5
-1.654, 2.758e-5
-1.655, 2.823e-5
-1.656, 2.848e-5
-1.657, 2.923e-5
-1.658, 3.025e-5
-1.659, 3.019e-5
-1.660, 3.146e-5
-1.661, 3.191e-5
-1.662, 3.264e-5
-1.663, 3.301e-5
-1.664, 3.423e-5
-1.665, 3.498e-5
-1.666, 3.568e-5
-1.667, 3.656e-5
-1.668, 3.750e-5
-1.669, 3.796e-5
-1.670, 3.921e-5
-1.671, 3.996e-5
-1.672, 4.085e-5
-1.673, 4.189e-5
-1.674, 4.288e-5
-1.675, 4.369e-5
-1.676, 4.459e-5
-1.677, 4.596e-5
-1.678, 4.716e-5
-1.679, 4.788e-5
-1.680, 4.939e-5
-1.681, 5.050e-5
-1.682, 5.169e-5
-1.683, 5.303e-5
-1.684, 5.423e-5
-1.685, 5.544e-5
-1.686, 5.687e-5
-1.687, 5.822e-5
-1.688, 5.977e-5
-1.689, 6.078e-5
-1.690, 6.290e-5
-1.691, 6.441e-5
-1.692, 6.595e-5
-1.693, 6.734e-5
-1.694, 6.926e-5
-1.695, 7.107e-5
-1.696, 7.251e-5
-1.697, 7.482e-5
-1.698, 7.666e-5
-1.699, 7.806e-5
-1.700, 8.058e-5
-1.701, 8.259e-5
-1.702, 8.482e-5
-1.703, 8.672e-5
-1.704, 8.906e-5
-1.705, 9.138e-5
-1.706, 9.358e-5
-1.707, 9.592e-5
-1.708, 9.877e-5
-1.709, 1.009e-4
-1.710, 1.038e-4
-1.711, 1.064e-4
-1.712, 1.091e-4
-1.713, 1.119e-4
-1.714, 1.148e-4
-1.715, 1.180e-4
-1.716, 1.209e-4
-1.717, 1.242e-4
-1.718, 1.276e-4
-1.719, 1.308e-4
-1.720, 1.341e-4
-1.721, 1.375e-4
-1.722, 1.416e-4
-1.723, 1.450e-4
-1.724, 1.490e-4
-1.725, 1.530e-4
-1.726, 1.567e-4
-1.727, 1.612e-4
-1.728, 1.656e-4
-1.729, 1.693e-4
-1.730, 1.739e-4
-1.731, 1.788e-4
-1.732, 1.834e-4
-1.733, 1.881e-4
-1.734, 1.934e-4
-1.735, 1.984e-4
-1.736, 2.034e-4
-1.737, 2.087e-4
-1.738, 2.145e-4
-1.739, 2.200e-4
-1.740, 2.257e-4
-1.741, 2.318e-4
-1.742, 2.377e-4
-1.743, 2.435e-4
-1.744, 2.501e-4
-1.745, 2.570e-4
-1.746, 2.633e-4
-1.747, 2.703e-4
-1.748, 2.778e-4
-1.749, 2.843e-4
-1.750, 2.922e-4
-1.751, 2.997e-4
-1.752, 3.075e-4
-1.753, 3.155e-4
-1.754, 3.237e-4
-1.755, 3.323e-4
-1.756, 3.404e-4
-1.757, 3.495e-4
-1.758, 3.586e-4
-1.759, 3.675e-4
-1.760, 3.769e-4
-1.761, 3.863e-4
-1.762, 3.967e-4
-1.763, 4.063e-4
-1.764, 4.165e-4
-1.765, 4.270e-4
-1.766, 4.376e-4
-1.767, 4.484e-4
-1.768, 4.602e-4
-1.769, 4.713e-4
-1.770, 4.832e-4
-1.771, 4.951e-4
-1.772, 5.077e-4
-1.773, 5.195e-4
-1.774, 5.326e-4
-1.775, 5.461e-4
-1.776, 5.590e-4
-1.777, 5.729e-4
-1.778, 5.868e-4
-1.779, 6.004e-4
-1.780, 6.148e-4
-1.781, 6.294e-4
-1.782, 6.446e-4
-1.783, 6.596e-4
-1.784, 6.753e-4
-1.785, 6.914e-4
-1.786, 7.071e-4
-1.787, 7.236e-4
-1.788, 7.408e-4
-1.789, 7.577e-4
-1.790, 7.748e-4
-1.791, 7.930e-4
-1.792, 8.118e-4
-1.793, 8.297e-4
-1.794, 8.487e-4
-1.795, 8.680e-4
-1.796, 8.870e-4
-1.797, 9.065e-4
-1.798, 9.272e-4
-1.799, 9.471e-4
-1.800, 9.674e-4
-1.801, 9.886e-4
-1.802, 1.010e-3
-1.803, 1.031e-3
-1.804, 1.053e-3
-1.805, 1.076e-3
-1.806, 1.098e-3
-1.807, 1.121e-3
-1.808, 1.145e-3
-1.809, 1.168e-3
-1.810, 1.191e-3
-1.811, 1.215e-3
-1.812, 1.240e-3
-1.813, 1.264e-3
-1.814, 1.289e-3
-1.815, 1.316e-3
-1.816, 1.341e-3
-1.817, 1.367e-3
-1.818, 1.395e-3
-1.819, 1.421e-3
-1.820, 1.448e-3
-1.821, 1.476e-3
-1.822, 1.505e-3
-1.823, 1.532e-3
-1.824, 1.561e-3
-1.825, 1.591e-3
-1.826, 1.620e-3
-1.827, 1.650e-3
-1.828, 1.680e-3
-1.829, 1.711e-3
-1.830, 1.741e-3
-1.831, 1.772e-3
-1.832, 1.804e-3
-1.833, 1.834e-3
-1.834, 1.866e-3
-1.835, 1.899e-3
-1.836, 1.931e-3
-1.837, 1.963e-3
-1.838, 1.997e-3
-1.839, 2.031e-3
-1.840, 2.063e-3
-1.841, 2.098e-3
-1.842, 2.133e-3
-1.843, 2.166e-3
-1.844, 2.201e-3
-1.845, 2.238e-3
-1.846, 2.272e-3
-1.847, 2.307e-3
-1.848, 2.344e-3
-1.849, 2.381e-3
-1.850, 2.417e-3
-1.851, 2.454e-3
-1.852, 2.492e-3
-1.853, 2.528e-3
-1.854, 2.566e-3
-1.855, 2.604e-3
-1.856, 2.642e-3
-1.857, 2.679e-3
-1.858, 2.719e-3
-1.859, 2.758e-3
-1.860, 2.796e-3
-1.861, 2.835e-3
-1.862, 2.876e-3
-1.863, 2.914e-3
-1.864, 2.954e-3
-1.865, 2.996e-3
-1.866, 3.035e-3
-1.867, 3.075e-3
-1.868, 3.118e-3
-1.869, 3.158e-3
-1.870, 3.199e-3
-1.871, 3.241e-3
-1.872, 3.284e-3
-1.873, 3.325e-3
-1.874, 3.367e-3
-1.875, 3.410e-3
-1.876, 3.452e-3
-1.877, 3.494e-3
-1.878, 3.538e-3
-1.879, 3.581e-3
-1.880, 3.623e-3
-1.881, 3.667e-3
-1.882, 3.713e-3
-1.883, 3.755e-3
-1.884, 3.798e-3
-1.885, 3.844e-3
-1.886, 3.888e-3
-1.887, 3.931e-3
-1.888, 3.978e-3
-1.889, 4.024e-3
-1.890, 4.067e-3
-1.891, 4.113e-3
-1.892, 4.160e-3
-1.893, 4.204e-3
-1.894, 4.250e-3
-1.895, 4.298e-3
-1.896, 4.343e-3
-1.897, 4.387e-3
-1.898, 4.435e-3
-1.899, 4.482e-3
-1.900, 4.494e-3
-1.899, 4.467e-3
-1.898, 4.440e-3
-1.897, 4.408e-3
-1.896, 4.378e-3
-1.895, 4.349e-3
-1.894, 4.315e-3
-1.893, 4.282e-3
-1.892, 4.250e-3
-1.891, 4.217e-3
-1.890, 4.181e-3
-1.889, 4.148e-3
-1.888, 4.115e-3
-1.887, 4.079e-3
-1.886, 4.043e-3
-1.885, 4.011e-3
-1.884, 3.974e-3
-1.883, 3.938e-3
-1.882, 3.904e-3
-1.881, 3.869e-3
-1.880, 3.832e-3
-1.879, 3.797e-3
-1.878, 3.763e-3
-1.877, 3.727e-3
-1.876, 3.691e-3
-1.875, 3.657e-3
-1.874, 3.621e-3
-1.873, 3.585e-3
-1.872, 3.551e-3
-1.871, 3.524e-3
-1.870, 3.487e-3
-1.869, 3.452e-3
-1.868, 3.420e-3
-1.867, 3.382e-3
-1.866, 3.349e-3
-1.865, 3.315e-3
-1.864, 3.277e-3
-1.863, 3.242e-3
-1.862, 3.209e-3
-1.861, 3.174e-3
-1.860, 3.139e-3
-1.859, 3.105e-3
-1.858, 3.073e-3
-1.857, 3.038e-3
-1.856, 3.005e-3
-1.855, 2.973e-3
-1.854, 2.939e-3
-1.853, 2.906e-3
-1.852, 2.874e-3
-1.851, 2.841e-3
-1.850, 2.808e-3
-1.849, 2.777e-3
-1.848, 2.747e-3
-1.847, 2.714e-3
-1.846, 2.682e-3
-1.845, 2.652e-3
-1.844, 2.619e-3
-1.843, 2.588e-3
-1.842, 2.558e-3
-1.841, 2.527e-3
-1.840, 2.496e-3
-1.839, 2.466e-3
-1.838, 2.437e-3
-1.837, 2.406e-3
-1.836, 2.376e-3
-1.835, 2.348e-3
-1.834, 2.318e-3
-1.833, 2.289e-3
-1.832, 2.261e-3
-1.831, 2.232e-3
-1.830, 2.203e-3
-1.829, 2.176e-3
-1.828, 2.149e-3
-1.827, 2.120e-3
-1.826, 2.093e-3
-1.825, 2.067e-3
-1.824, 2.039e-3
-1.823, 2.012e-3
-1.822, 1.987e-3
-1.821, 1.960e-3
-1.820, 1.933e-3
-1.819, 1.908e-3
-1.818, 1.883e-3
-1.817, 1.857e-3
-1.816, 1.832e-3
-1.815, 1.808e-3
-1.814, 1.783e-3
-1.813, 1.758e-3
-1.812, 1.735e-3
-1.811, 1.711e-3
-1.810, 1.686e-3
-1.809, 1.663e-3
-1.808, 1.641e-3
-1.807, 1.616e-3
-1.806, 1.593e-3
-1.805, 1.572e-3
-1.804, 1.548e-3
-1.803, 1.526e-3
-1.802, 1.505e-3
-1.801, 1.483e-3
-1.800, 1.461e-3
-1.799, 1.440e-3
-1.798, 1.420e-3
-1.797, 1.399e-3
-1.796, 1.378e-3
-1.795, 1.359e-3
-1.794, 1.338e-3
-1.793, 1.318e-3
-1.792, 1.299e-3
-1.791, 1.279e-3
-1.790, 1.260e-3
-1.789, 1.241e-3
-1.788, 1.223e-3
-1.787, 1.205e-3
-1.786, 1.187e-3
-1.785, 1.170e-3
-1.784, 1.151e-3
-1.783, 1.134e-3
-1.782, 1.117e-3
-1.781, 1.099e-3
-1.780, 1.082e-3
-1.779, 1.065e-3
-1.778, 1.049e-3
-1.777, 1.032e-3
-1.776, 1.016e-3
-1.775, 1.001e-3
-1.774, 9.848e-4
-1.773, 9.689e-4
-1.772, 9.537e-4
-1.771, 9.384e-4
-1.770, 9.233e-4
-1.769, 9.086e-4
-1.768, 8.945e-4
-1.767, 8.795e-4
-1.766, 8.652e-4
-1.765, 8.519e-4
-1.764, 8.373e-4
-1.763, 8.234e-4
-1.762, 8.102e-4
-1.761, 7.970e-4
-1.760, 7.831e-4
-1.759, 7.706e-4
-1.758, 7.578e-4
-1.757, 7.449e-4
-1.756, 7.323e-4
-1.755, 7.209e-4
-1.754, 7.084e-4
-1.753, 6.963e-4
-1.752, 6.853e-4
-1.751, 6.733e-4
-1.750, 6.615e-4
-1.749, 6.505e-4
-1.748, 6.399e-4
-1.747, 6.284e-4
-1.746, 6.180e-4
-1.745, 6.078e-4
-1.744, 5.972e-4
-1.743, 5.868e-4
-1.742, 5.770e-4
-1.741, 5.671e-4
-1.740, 5.566e-4
-1.739, 5.474e-4
-1.738, 5.382e-4
-1.737, 5.281e-4
-1.736, 5.188e-4
-1.735, 5.102e-4
-1.734, 5.005e-4
-1.733, 4.921e-4
-1.732, 4.837e-4
-1.731, 4.751e-4
-1.730, 4.663e-4
-1.729, 4.580e-4
-1.728, 4.502e-4
-1.727, 4.417e-4
-1.726, 4.337e-4
-1.725, 4.265e-4
-1.724, 4.186e-4
-1.723, 4.110e-4
-1.722, 4.041e-4
-1.721, 3.966e-4
-1.720, 3.892e-4
-1.719, 3.825e-4
-1.718, 3.754e-4
-1.717, 3.684e-4
-1.716, 3.617e-4
-1.715, 3.552e-4
-1.714, 3.484e-4
-1.713, 3.419e-4
-1.712, 3.357e-4
-1.711, 3.296e-4
-1.710, 3.229e-4
-1.709, 3.173e-4
-1.708, 3.114e-4
-1.707, 3.054e-4
-1.706, 2.997e-4
-1.705, 2.944e-4
-1.704, 2.885e-4
-1.703, 2.833e-4
-1.702, 2.779e-4
-1.701, 2.727e-4
-1.700, 2.673e-4
-1.699, 2.621e-4
-1.698, 2.575e-4
-1.697, 2.524e-4
-1.696, 2.477e-4
-1.695, 2.431e-4
-1.694, 2.380e-4
-1.693, 2.338e-4
-1.692, 2.297e-4
-1.691, 2.248e-4
-1.690, 2.206e-4
-1.689, 2.160e-4
-1.688, 2.123e-4
-1.687, 2.079e-4
-1.686, 2.039e-4
-1.685, 2.005e-4
-1.684, 1.960e-4
-1.683, 1.922e-4
-1.682, 1.886e-4
-1.681, 1.849e-4
-1.680, 1.812e-4
-1.679, 1.775e-4
-1.678, 1.745e-4
-1.677, 1.706e-4
-1.676, 1.672e-4
-1.675, 1.642e-4
-1.674, 1.607e-4
-1.673, 1.576e-4
-1.672, 1.545e-4
-1.671, 1.512e-4
-1.670, 1.480e-4
-1.669, 1.451e-4
-1.668, 1.426e-4
-1.667, 1.392e-4
-1.666, 1.365e-4
-1.665, 1.339e-4
-1.664, 1.309e-4
-1.663, 1.285e-4
-1.662, 1.260e-4
-1.661, 1.230e-4
-1.660, 1.206e-4
-1.659, 1.183e-4
-1.658, 1.158e-4
-1.657, 1.132e-4
-1.656, 1.109e-4
-1.655, 1.091e-4
-1.654, 1.064e-4
-1.653, 1.043e-4
-1.652, 1.023e-4
-1.651, 1.000e-4
-1.650, 9.798e-5
-1.649, 9.604e-5
-1.648, 9.393e-5
-1.647, 9.210e-5
-1.646, 8.993e-5
-1.645, 8.843e-5
-1.644, 8.602e-5
-1.643, 8.473e-5
-1.642, 8.263e-5
-1.641, 8.103e-5
-1.640, 7.916e-5
-1.639, 7.765e-5
-1.638, 7.568e-5
-1.637, 7.412e-5
-1.636, 7.243e-5
-1.635, 7.114e-5
-1.634, 6.947e-5
-1.633, 6.821e-5
-1.632, 6.672e-5
-1.631, 6.494e-5
-1.630, 6.377e-5
-1.629, 6.227e-5
-1.628, 6.127e-5
-1.627, 5.962e-5
-1.626, 5.798e-5
-1.625, 5.729e-5
-1.624, 5.567e-5
-1.623, 5.475e-5
-1.622, 5.335e-5
-1.621, 5.218e-5
-1.620, 5.124e-5
-1.619, 4.990e-5
-1.618, 4.889e-5
-1.617, 4.764e-5
-1.616, 4.652e-5
-1.615, 4.573e-5
-1.614, 4.438e-5
-1.613, 4.343e-5
-1.612, 4.284e-5
-1.611, 4.151e-5
-1.610, 4.077e-5
-1.609, 3.970e-5
-1.608, 3.891e-5
-1.607, 3.779e-5
-1.606, 3.689e-5
-1.605, 3.631e-5
-1.604, 3.510e-5
-1.603, 3.457e-5
-1.602, 3.375e-5
-1.601, 3.284e-5
-1.600, 3.215e-5
-1.599, 3.127e-5
-1.598, 3.092e-5
-1.597, 2.991e-5
-1.596, 2.923e-5
-1.595, 2.885e-5
-1.594, 2.761e-5
-1.593, 2.731e-5
-1.592, 2.649e-5
-1.591, 2.579e-5
-1.590, 2.527e-5
-1.589, 2.453e-5
-1.588, 2.444e-5
-1.587, 2.339e-5
-1.586, 2.304e-5
-1.585, 2.243e-5
-1.584, 2.154e-5
-1.583, 2.105e-5
-1.582, 2.090e-5
-1.581, 2.012e-5
-1.580, 1.961e-5
-1.579, 1.922e-5
-1.578, 1.873e-5
-1.577, 1.824e-5
-1.576, 1.772e-5
-1.575, 1.762e-5
-1.574, 1.676e-5
-1.573, 1.646e-5
-1.572, 1.588e-5
-1.571, 1.541e-5
-1.570, 1.512e-5
-1.569, 1.487e-5
-1.568, 1.450e-5
-1.567, 1.414e-5
-1.566, 1.345e-5
-1.565, 1.350e-5
-1.564, 1.262e-5
-1.563, 1.282e-5
-1.562, 1.256e-5
-1.561, 1.174e-5
-1.560, 1.151e-5
-1.559, 1.126e-5
-1.558, 1.109e-5
-1.557, 1.070e-5
-1.556, 1.024e-5
-1.555, 1.001e-5
-1.554, 9.706e-6
-1.553, 9.736e-6
-1.552, 9.410e-6
-1.551, 8.946e-6
-1.550, 9.016e-6
-1.549, 8.611e-6
-1.548, 8.374e-6
-1.547, 8.078e-6
-1.546, 7.664e-6
-1.545, 7.822e-6
-1.544, 7.161e-6
-1.543, 6.875e-6
-1.542, 6.776e-6
-1.541, 6.579e-6
-1.540, 6.598e-6
-1.539, 6.164e-6
-1.538, 6.233e-6
-1.537, 5.918e-6
-1.536, 5.651e-6
-1.535, 5.582e-6
-1.534, 5.148e-6
-1.533, 5.336e-6
-1.532, 4.921e-6
-1.531, 4.842e-6
-1.530, 4.517e-6
-1.529, 4.625e-6
-1.528, 4.388e-6
-1.527, 4.309e-6
-1.526, 3.836e-6
-1.525, 3.915e-6
-1.524, 3.727e-6
-1.523, 3.461e-6
-1.522, 3.560e-6
-1.521, 3.066e-6
-1.520, 3.066e-6
-1.519, 2.899e-6
-1.518, 3.047e-6
-1.517, 2.760e-6
-1.516, 2.731e-6
-1.515, 2.899e-6
-1.514, 2.465e-6
-1.513, 2.139e-6
-1.512, 2.159e-6
-1.511, 2.257e-6
-1.510, 1.794e-6
-1.509, 1.567e-6
-1.508, 2.011e-6
-1.507, 1.547e-6
-1.506, 1.705e-6
-1.505, 1.656e-6
-1.504, 1.399e-6
-1.503, 1.350e-6
-1.502, 1.399e-6
-1.501, 1.034e-6
-1.500, 1.024e-6
-1.499, 7.873e-7
-1.498, 9.353e-7
-1.497, 7.182e-7
-1.496, 5.801e-7
-1.495, 5.900e-7
-1.494, 5.801e-7
-1.493, 7.676e-7
-1.492, 6.788e-7
-1.491, 4.716e-7
-1.490, 3.532e-7
-1.489, 2.249e-7
-1.488, 4.124e-7
-1.487, 3.631e-7
-1.486, -4.144e-8
-1.485, 1.855e-7
-1.484, -3.374e-7
-1.483, -1.697e-7
-1.482, -1.894e-7
-1.481, -2.092e-7
-1.480, -2.190e-7
-1.479, -3.078e-7
-1.478, -2.782e-7
-1.477, -7.025e-7
-1.476, -2.684e-7
-1.475, -6.729e-7
-1.474, -4.459e-7
-1.473, -5.446e-7
-1.472, -5.051e-7
-1.471, -8.307e-7
-1.470, -5.643e-7
-1.469, -7.617e-7
-1.468, -6.137e-7
-1.467, -7.419e-7
-1.466, -9.984e-7
-1.465, -8.208e-7
-1.464, -1.058e-6
-1.463, -1.038e-6
-1.462, -1.048e-6
-1.461, -1.008e-6
-1.460, -1.107e-6
-1.459, -1.225e-6
-1.458, -1.255e-6
-1.457, -1.285e-6
-1.456, -1.393e-6
-1.455, -1.038e-6
-1.454, -1.521e-6
-1.453, -1.265e-6
-1.452, -1.067e-6
-1.451, -1.433e-6
-1.450, -1.393e-6
-1.449, -1.334e-6
-1.448, -1.344e-6
-1.447, -1.413e-6
-1.446, -1.640e-6
-1.445, -1.650e-6
-1.444, -1.640e-6
-1.443, -1.452e-6
-1.442, -1.363e-6
-1.441, -1.768e-6
-1.440, -1.551e-6
-1.439, -1.709e-6
-1.438, -1.413e-6
-1.437, -1.975e-6
-1.436, -1.738e-6
-1.435, -1.610e-6
-1.434, -1.807e-6
-1.433, -1.877e-6
-1.432, -1.807e-6
-1.431, -1.936e-6
-1.430, -1.847e-6
-1.429, -1.946e-6
-1.428, -1.768e-6
-1.427, -2.123e-6
-1.426, -1.877e-6
-1.425, -1.788e-6
-1.424, -2.054e-6
-1.423, -2.163e-6
-1.422, -2.044e-6
-1.421, -1.946e-6
-1.420, -2.182e-6
-1.419, -2.330e-6
-1.418, -1.906e-6
-1.417, -2.360e-6
-1.416, -2.054e-6
-1.415, -2.182e-6
-1.414, -2.212e-6
-1.413, -2.044e-6
-1.412, -2.281e-6
-1.411, -2.518e-6
-1.410, -2.024e-6
-1.409, -2.587e-6
-1.408, -2.222e-6
-1.407, -2.281e-6
-1.406, -2.380e-6
-1.405, -2.478e-6
-1.404, -2.419e-6
-1.403, -2.202e-6
-1.402, -2.074e-6
-1.401, -2.251e-6
-1.400, -2.399e-6
-1.399, -2.360e-6
-1.398, -2.103e-6
-1.397, -2.419e-6
-1.396, -2.222e-6
-1.395, -2.399e-6
-1.394, -2.478e-6
-1.393, -2.261e-6
-1.392, -2.488e-6
-1.391, -2.557e-6
-1.390, -2.478e-6
-1.389, -2.468e-6
-1.388, -2.291e-6
-1.387, -2.508e-6
-1.386, -2.222e-6
-1.385, -2.528e-6
-1.384, -2.636e-6
-1.383, -2.666e-6
-1.382, -2.577e-6
-1.381, -2.488e-6
-1.380, -2.360e-6
-1.379, -2.607e-6
-1.378, -2.597e-6
-1.377, -2.488e-6
-1.376, -2.577e-6
-1.375, -2.360e-6
-1.374, -2.873e-6
-1.373, -2.518e-6
-1.372, -2.212e-6
-1.371, -2.626e-6
-1.370, -2.459e-6
-1.369, -2.962e-6
-1.368, -2.518e-6
-1.367, -2.715e-6
-1.366, -2.597e-6
-1.365, -2.725e-6
-1.364, -2.814e-6
-1.363, -2.538e-6
-1.362, -2.577e-6
-1.361, -2.646e-6
-1.360, -2.715e-6
-1.359, -2.695e-6
-1.358, -2.557e-6
-1.357, -2.814e-6
-1.356, -2.676e-6
-1.355, -2.755e-6
-1.354, -2.814e-6
-1.353, -2.636e-6
-1.352, -2.715e-6
-1.351, -2.626e-6
-1.350, -2.834e-6
-1.349, -2.784e-6
-1.348, -2.656e-6
-1.347, -2.873e-6
-1.346, -2.794e-6
-1.345, -2.587e-6
-1.344, -3.001e-6
-1.343, -2.636e-6
-1.342, -2.814e-6
-1.341, -2.932e-6
-1.340, -2.834e-6
-1.339, -2.972e-6
-1.338, -2.705e-6
-1.337, -3.021e-6
-1.336, -2.972e-6
-1.335, -2.794e-6
-1.334, -2.834e-6
-1.333, -2.567e-6
-1.332, -2.725e-6
-1.331, -3.159e-6
-1.330, -2.755e-6
-1.329, -2.962e-6
-1.328, -2.972e-6
-1.327, -3.120e-6
-1.326, -2.764e-6
-1.325, -3.090e-6
-1.324, -3.021e-6
-1.323, -2.942e-6
-1.322, -3.090e-6
-1.321, -3.179e-6
-1.320, -2.814e-6
-1.319, -3.021e-6
-1.318, -2.932e-6
-1.317, -2.972e-6
-1.316, -2.912e-6
-1.315, -2.873e-6
-1.314, -3.228e-6
-1.313, -3.129e-6
-1.312, -2.952e-6
-1.311, -3.070e-6
-1.310, -2.942e-6
-1.309, -2.991e-6
-1.308, -2.991e-6
-1.307, -3.090e-6
-1.306, -3.021e-6
-1.305, -3.120e-6
-1.304, -3.218e-6
-1.303, -3.031e-6
-1.302, -2.972e-6
-1.301, -3.258e-6
-1.300, -2.903e-6
-1.299, -3.189e-6
-1.298, -2.922e-6
-1.297, -3.248e-6
-1.296, -2.932e-6
-1.295, -2.853e-6
-1.294, -3.159e-6
-1.293, -3.070e-6
-1.292, -2.952e-6
-1.291, -3.129e-6
-1.290, -2.863e-6
-1.289, -3.199e-6
-1.288, -2.666e-6
-1.287, -3.317e-6
-1.286, -3.248e-6
-1.285, -3.218e-6
-1.284, -3.268e-6
-1.283, -3.070e-6
-1.282, -3.001e-6
-1.281, -3.120e-6
-1.280, -3.060e-6
-1.279, -3.199e-6
-1.278, -3.021e-6
-1.277, -3.268e-6
-1.276, -3.149e-6
-1.275, -3.139e-6
-1.274, -3.307e-6
-1.273, -3.070e-6
-1.272, -3.110e-6
-1.271, -2.932e-6
-1.270, -2.942e-6
-1.269, -3.100e-6
-1.268, -2.991e-6
-1.267, -3.159e-6
-1.266, -3.317e-6
-1.265, -3.218e-6
-1.264, -3.228e-6
-1.263, -3.228e-6
-1.262, -3.070e-6
-1.261, -3.396e-6
-1.260, -3.149e-6
-1.259, -3.248e-6
-1.258, -3.376e-6
-1.257, -3.366e-6
-1.256, -2.981e-6
-1.255, -3.021e-6
-1.254, -3.504e-6
-1.253, -3.090e-6
-1.252, -3.317e-6
-1.251, -3.277e-6
-1.250, -3.129e-6
-1.249, -3.317e-6
-1.248, -3.090e-6
-1.247, -3.307e-6
-1.246, -3.218e-6
-1.245, -3.356e-6
-1.244, -3.376e-6
-1.243, -3.001e-6
-1.242, -3.208e-6
-1.241, -3.544e-6
-1.240, -3.139e-6
-1.239, -3.307e-6
-1.238, -3.159e-6
-1.237, -3.159e-6
-1.236, -3.238e-6
-1.235, -3.317e-6
-1.234, -3.455e-6
-1.233, -3.327e-6
-1.232, -3.495e-6
-1.231, -3.268e-6
-1.230, -3.475e-6
-1.229, -3.425e-6
-1.228, -3.435e-6
-1.227, -3.475e-6
-1.226, -3.761e-6
-1.225, -3.238e-6
-1.224, -3.623e-6
-1.223, -3.169e-6
-1.222, -3.090e-6
-1.221, -3.504e-6
-1.220, -3.169e-6
-1.219, -3.771e-6
-1.218, -3.356e-6
-1.217, -3.682e-6
-1.216, -3.633e-6
-1.215, -3.386e-6
-1.214, -3.672e-6
-1.213, -3.317e-6
-1.212, -3.425e-6
-1.211, -3.682e-6
-1.210, -3.366e-6
-1.209, -3.564e-6
-1.208, -3.248e-6
-1.207, -3.564e-6
-1.206, -3.347e-6
-1.205, -3.386e-6
-1.204, -3.761e-6
-1.203, -3.504e-6
-1.202, -3.465e-6
-1.201, -3.564e-6
-1.200, -3.199e-6
-1.199, -3.554e-6
-1.198, -3.287e-6
-1.197, -3.495e-6
-1.196, -3.435e-6
-1.195, -3.425e-6
-1.194, -3.978e-6
-1.193, -3.623e-6
-1.192, -3.347e-6
-1.191, -3.702e-6
-1.190, -3.465e-6
-1.189, -3.652e-6
-1.188, -3.544e-6
-1.187, -3.514e-6
-1.186, -3.712e-6
-1.185, -3.652e-6
-1.184, -3.643e-6
-1.183, -3.435e-6
-1.182, -3.643e-6
-1.181, -3.820e-6
-1.180, -3.741e-6
-1.179, -3.583e-6
-1.178, -3.485e-6
-1.177, -3.771e-6
-1.176, -3.317e-6
-1.175, -3.643e-6
-1.174, -3.751e-6
-1.173, -3.820e-6
-1.172, -3.633e-6
-1.171, -3.800e-6
-1.170, -3.662e-6
-1.169, -3.840e-6
-1.168, -3.435e-6
-1.167, -3.761e-6
-1.166, -3.603e-6
-1.165, -3.514e-6
-1.164, -3.879e-6
-1.163, -3.682e-6
-1.162, -3.534e-6
-1.161, -3.830e-6
-1.160, -3.721e-6
-1.159, -3.810e-6
-1.158, -3.643e-6
-1.157, -3.958e-6
-1.156, -3.840e-6
-1.155, -3.583e-6
-1.154, -3.938e-6
-1.153, -3.741e-6
-1.152, -3.721e-6
-1.151, -3.948e-6
-1.150, -3.721e-6
-1.149, -3.672e-6
-1.148, -3.554e-6
-1.147, -3.662e-6
-1.146, -3.712e-6
-1.145, -3.860e-6
-1.144, -3.850e-6
-1.143, -3.643e-6
-1.142, -3.800e-6
-1.141, -3.810e-6
-1.140, -3.879e-6
-1.139, -4.008e-6
-1.138, -3.751e-6
-1.137, -3.938e-6
-1.136, -3.771e-6
-1.135, -3.741e-6
-1.134, -3.929e-6
-1.133, -3.751e-6
-1.132, -3.879e-6
-1.131, -3.978e-6
-1.130, -3.919e-6
-1.129, -3.603e-6
-1.128, -3.899e-6
-1.127, -4.008e-6
-1.126, -4.017e-6
-1.125, -3.860e-6
-1.124, -4.195e-6
-1.123, -3.909e-6
-1.122, -4.017e-6
-1.121, -3.938e-6
-1.120, -3.860e-6
-1.119, -3.958e-6
-1.118, -3.712e-6
-1.117, -3.988e-6
-1.116, -3.929e-6
-1.115, -3.919e-6
-1.114, -3.938e-6
-1.113, -4.037e-6
-1.112, -3.682e-6
-1.111, -4.096e-6
-1.110, -3.840e-6
-1.109, -4.116e-6
-1.108, -3.790e-6
-1.107, -4.156e-6
-1.106, -3.781e-6
-1.105, -3.741e-6
-1.104, -4.106e-6
-1.103, -3.672e-6
-1.102, -3.958e-6
-1.101, -4.027e-6
-1.100, -4.215e-6
-1.099, -3.998e-6
-1.098, -4.077e-6
-1.097, -4.086e-6
-1.096, -3.771e-6
-1.095, -3.820e-6
-1.094, -4.195e-6
-1.093, -4.077e-6
-1.092, -3.879e-6
-1.091, -4.017e-6
-1.090, -3.879e-6
-1.089, -3.958e-6
-1.088, -3.850e-6
-1.087, -4.146e-6
-1.086, -4.146e-6
-1.085, -3.830e-6
-1.084, -3.938e-6
-1.083, -4.047e-6
-1.082, -3.820e-6
-1.081, -4.077e-6
-1.080, -3.968e-6
-1.079, -4.244e-6
-1.078, -3.879e-6
-1.077, -4.185e-6
-1.076, -4.037e-6
-1.075, -4.146e-6
-1.074, -4.382e-6
-1.073, -3.998e-6
-1.072, -4.017e-6
-1.071, -3.978e-6
-1.070, -4.116e-6
-1.069, -4.313e-6
-1.068, -4.027e-6
-1.067, -4.017e-6
-1.066, -4.037e-6
-1.065, -4.008e-6
-1.064, -4.185e-6
-1.063, -4.086e-6
-1.062, -4.067e-6
-1.061, -4.294e-6
-1.060, -4.116e-6
-1.059, -4.146e-6
-1.058, -3.968e-6
-1.057, -4.234e-6
-1.056, -4.185e-6
-1.055, -4.077e-6
-1.054, -4.254e-6
-1.053, -4.017e-6
-1.052, -4.146e-6
-1.051, -4.392e-6
-1.050, -3.860e-6
-1.049, -4.461e-6
-1.048, -4.096e-6
-1.047, -4.175e-6
-1.046, -4.175e-6
-1.045, -4.195e-6
-1.044, -4.353e-6
-1.043, -4.165e-6
-1.042, -4.077e-6
-1.041, -4.373e-6
-1.040, -4.333e-6
-1.039, -4.195e-6
-1.038, -4.264e-6
-1.037, -4.639e-6
-1.036, -4.363e-6
-1.035, -4.234e-6
-1.034, -4.521e-6
-1.033, -4.333e-6
-1.032, -4.234e-6
-1.031, -4.461e-6
-1.030, -4.452e-6
-1.029, -4.294e-6
-1.028, -4.175e-6
-1.027, -4.402e-6
-1.026, -4.392e-6
-1.025, -4.382e-6
-1.024, -4.570e-6
-1.023, -4.412e-6
-1.022, -4.402e-6
-1.021, -4.373e-6
-1.020, -4.422e-6
-1.019, -4.442e-6
-1.018, -4.215e-6
-1.017, -4.609e-6
-1.016, -4.432e-6
-1.015, -4.323e-6
-1.014, -4.826e-6
-1.013, -4.333e-6
-1.012, -4.560e-6
-1.011, -4.501e-6
-1.010, -4.461e-6
-1.009, -4.590e-6
-1.008, -4.560e-6
-1.007, -4.629e-6
-1.006, -4.402e-6
-1.005, -4.580e-6
-1.004, -4.688e-6
-1.003, -4.363e-6
-1.002, -4.363e-6
-1.001, -4.600e-6
