Potential V vs RHE, Current mA cm-2
0.05339999999999995,-0.08219472652215863
0.05239999999999995,-0.08400555698598587
0.051399999999999946,-0.08512317891287925
0.050399999999999945,-0.08605688837079019
0.049399999999999944,-0.08689156803771056
0.04839999999999994,-0.08762721791364038
0.04739999999999994,-0.08834872067657155
0.04639999999999994,-0.08908437055250136
0.04539999999999994,-0.08982002042843118
0.04439999999999994,-0.090555670304361
0.04339999999999994,-0.09122058461529756
0.04239999999999994,-0.09191379315223143
0.04139999999999994,-0.09259285457616664
0.040399999999999936,-0.09325776888710322
0.039399999999999935,-0.09393683031103843
0.038399999999999934,-0.09458759750897636
0.03739999999999993,-0.09519592336791832
0.03639999999999993,-0.09581839633985893
0.03539999999999993,-0.09641257508580224
0.03439999999999993,-0.09704919517074152
0.03339999999999993,-0.09760093257768888
0.03239999999999993,-0.09816681709763489
0.03139999999999993,-0.09874684873057955
0.030399999999999927,-0.09931273325052556
0.029399999999999926,-0.09986447065747293
0.028399999999999925,-0.10041620806442031
0.027399999999999924,-0.10093965124537037
0.026399999999999924,-0.10150553576531639
0.025399999999999923,-0.1020148318332678
0.024399999999999922,-0.10253827501421786
0.02339999999999992,-0.10303342396917063
0.02239999999999992,-0.10350027869812609
0.02139999999999992,-0.10400957476607749
0.020399999999999918,-0.10449057660803161
0.019399999999999917,-0.10492913711098976
0.018399999999999916,-0.10539599183994523
0.017399999999999916,-0.10587699368189933
0.016399999999999915,-0.10632970129785616
0.015399999999999914,-0.10676826180081432
0.014399999999999913,-0.10719267519077383
0.013399999999999912,-0.10764538280673064
0.012399999999999911,-0.10806979619669015
0.01139999999999991,-0.10846591536065237
0.01039999999999991,-0.10887618163761323
0.009399999999999908,-0.10927230080157543
0.008399999999999908,-0.10954109594854979
0.007399999999999907,-0.10992306799951335
0.006399999999999906,-0.11030504005047691
0.005399999999999905,-0.11067286498844181
0.004399999999999904,-0.11105483703940537
0.003399999999999903,-0.11140851486437164
0.002399999999999902,-0.11174804557633926
0.0013999999999999013,-0.1120734291753082
0.00039999999999990044,-0.11238466566127853
-0.0006000000000001005,-0.11271004926024747
-0.0016000000000001013,-0.11299299152022048
-0.0026000000000001022,-0.11329008089319213
-0.003600000000000103,-0.11357302315316514
-0.004600000000000104,-0.1138135240741422
-0.005600000000000105,-0.11408231922111656
-0.006600000000000106,-0.1143228201420936
-0.007600000000000107,-0.11457746817606933
-0.008600000000000108,-0.11483211621004503
-0.009600000000000108,-0.11500188156602882
-0.01060000000000011,-0.1152140882610086
-0.01160000000000011,-0.11545458918198566
-0.012600000000000111,-0.11568094298996405
-0.013600000000000112,-0.1158648554589465
-0.014600000000000113,-0.11603462081493031
-0.015600000000000114,-0.11620438617091411
-0.016600000000000115,-0.11637415152689792
-0.017600000000000116,-0.11650147554388576
-0.018600000000000116,-0.11665709378687093
-0.019600000000000117,-0.11678441780385877
-0.020600000000000118,-0.11691174182084664
-0.02160000000000012,-0.11701077161183718
-0.02260000000000012,-0.11712394851582639
-0.02360000000000012,-0.11720883119381828
-0.024600000000000122,-0.1172937138718102
-0.025600000000000123,-0.11736444943680345
-0.026600000000000124,-0.11742103788879804
-0.027600000000000124,-0.11749177345379128
-0.028600000000000125,-0.1175483619057859
-0.029600000000000126,-0.11757665613178321
-0.030600000000000127,-0.11761909747077916
-0.03160000000000013,-0.11767568592277375
-0.03260000000000013,-0.11767568592277375
-0.03360000000000013,-0.11767568592277375
-0.03460000000000002,-0.11768983303577239
-0.03560000000000002,-0.11768983303577239
-0.03660000000000002,-0.11764739169677645
-0.03760000000000002,-0.11764739169677645
-0.03860000000000002,-0.1176615388097751
-0.039600000000000024,-0.11759080324478184
-0.040600000000000025,-0.11756250901878454
-0.041600000000000026,-0.11750592056678995
-0.04260000000000003,-0.11744933211479533
-0.04360000000000003,-0.11743518500179671
-0.04460000000000003,-0.11736444943680345
-0.04560000000000003,-0.11727956675881154
-0.04660000000000003,-0.11720883119381828
-0.04760000000000003,-0.11712394851582639
-0.04860000000000003,-0.11706736006383177
-0.04960000000000003,-0.11695418315984259
-0.050600000000000034,-0.11688344759484932
-0.051600000000000035,-0.11677027069086011
-0.052600000000000036,-0.11667124089986959
-0.053600000000000037,-0.11655806399588038
-0.05460000000000004,-0.11643073997889253
-0.05560000000000004,-0.11630341596190466
-0.05660000000000004,-0.11617609194491682
-0.05760000000000004,-0.11602047370193166
-0.05860000000000004,-0.11589314968494381
-0.05960000000000004,-0.11576582566795594
-0.06060000000000004,-0.11562435453796945
-0.061600000000000044,-0.11545458918198566
-0.06260000000000004,-0.11529897093900049
-0.06360000000000005,-0.11518579403501128
-0.06460000000000005,-0.11504432290502477
-0.06560000000000005,-0.11488870466203964
-0.06660000000000005,-0.11471893930605583
-0.06760000000000005,-0.11454917395007203
-0.06860000000000005,-0.11437940859408821
-0.06960000000000005,-0.1142379374641017
-0.07060000000000005,-0.1140964663341152
-0.07160000000000005,-0.11391255386513276
-0.07260000000000005,-0.1137569356221476
-0.07360000000000005,-0.11360131737916243
-0.07460000000000006,-0.11343155202317864
-0.07560000000000006,-0.11327593378019349
-0.07660000000000006,-0.11309202131121103
-0.07760000000000006,-0.11289396172922993
-0.07860000000000006,-0.11272419637324613
-0.07960000000000006,-0.11255443101726233
-0.08060000000000006,-0.11238466566127853
-0.08160000000000006,-0.11218660607929741
-0.08260000000000006,-0.1119885464973163
-0.08360000000000006,-0.11180463402833385
-0.08460000000000006,-0.1116207215593514
-0.08560000000000006,-0.11143680909036893
-0.08660000000000007,-0.11123874950838784
-0.08760000000000007,-0.11104068992640674
-0.08860000000000007,-0.11087092457042293
-0.08960000000000007,-0.11068701210144047
-0.09060000000000007,-0.11050309963245801
-0.09160000000000007,-0.11029089293747825
-0.09260000000000007,-0.11012112758149446
-0.09360000000000007,-0.109937215112512
-0.09460000000000007,-0.10975330264352953
-0.09560000000000007,-0.10955524306154844
-0.09660000000000007,-0.10935718347956734
-0.09760000000000008,-0.1091732710105849
-0.09860000000000008,-0.10898935854160242
-0.09960000000000008,-0.10881959318561862
-0.10060000000000008,-0.10860738649063886
-0.10160000000000008,-0.10843762113465506
-0.10260000000000008,-0.10823956155267396
-0.10360000000000008,-0.1080556490836915
-0.10460000000000008,-0.1078858837277077
-0.10560000000000008,-0.10770197125872524
-0.10660000000000008,-0.10748976456374548
-0.10760000000000008,-0.10731999920776168
-0.10860000000000009,-0.10713608673877922
-0.10960000000000009,-0.10696632138279542
-0.11060000000000009,-0.10678240891381298
-0.11160000000000009,-0.10658434933183186
-0.11260000000000009,-0.10641458397584806
-0.11360000000000009,-0.10623067150686559
-0.11460000000000009,-0.10608920037687909
-0.11560000000000009,-0.10593358213389395
-0.11660000000000009,-0.10570722832591554
-0.1176000000000001,-0.10553746296993173
-0.1186000000000001,-0.10538184472694657
-0.1196000000000001,-0.10521207937096277
-0.1206000000000001,-0.10502816690198033
-0.1216000000000001,-0.10484425443299787
-0.1226000000000001,-0.10468863619001273
-0.1236000000000001,-0.10451887083402892
-0.1246000000000001,-0.10433495836504646
-0.1256000000000001,-0.1042076343480586
-0.1266000000000001,-0.1040378689920748
-0.1276000000000001,-0.10389639786208829
-0.1286000000000001,-0.10371248539310583
-0.1296000000000001,-0.10357101426311933
-0.1306000000000001,-0.10342954313313284
-0.1316000000000001,-0.10324563066415038
-0.1326000000000001,-0.10307586530816658
-0.1336000000000001,-0.10294854129117871
-0.1346000000000001,-0.10282121727419087
-0.1356000000000001,-0.10267974614420436
-0.1366000000000001,-0.1025241279012192
-0.1376000000000001,-0.1023826567712327
-0.1386000000000001,-0.10222703852824755
-0.1396000000000001,-0.10209971451125968
-0.1406000000000001,-0.10195824338127318
-0.14160000000000011,-0.10180262513828804
-0.14260000000000012,-0.10166115400830154
-0.14360000000000012,-0.10151968287831505
-0.14460000000000012,-0.10139235886132718
-0.14560000000000012,-0.10123674061834202
-0.14660000000000012,-0.10109526948835552
-0.14760000000000012,-0.10096794547136766
-0.14860000000000012,-0.10082647434138116
-0.14960000000000012,-0.10071329743739196
-0.15060000000000012,-0.10060012053340277
-0.15160000000000012,-0.1004445022904176
-0.15260000000000012,-0.10031717827342976
-0.15360000000000013,-0.10017570714344325
-0.15460000000000013,-0.10006253023945405
-0.15560000000000013,-0.09994935333546484
-0.15660000000000013,-0.09979373509247969
-0.15760000000000013,-0.09968055818849049
-0.15860000000000013,-0.09958152839749992
-0.15960000000000002,-0.09945420438051207
-0.16060000000000002,-0.09936932170252018
-0.16160000000000002,-0.09921370345953502
-0.16260000000000002,-0.09911467366854448
-0.16360000000000002,-0.09901564387755392
-0.16460000000000002,-0.09888831986056607
-0.16560000000000002,-0.09883173140857146
-0.16660000000000003,-0.09873270161758091
-0.16760000000000003,-0.0985912304875944
-0.16860000000000003,-0.09849220069660385
-0.16960000000000003,-0.098364876679616
-0.17060000000000003,-0.09826584688862545
-0.17160000000000003,-0.09813852287163759
-0.17260000000000003,-0.09803949308064704
-0.17360000000000003,-0.09794046328965648
-0.17460000000000003,-0.09784143349866595
-0.17560000000000003,-0.0977424037076754
-0.17660000000000003,-0.09764337391668483
-0.17760000000000004,-0.09754434412569428
-0.17860000000000004,-0.09745946144770237
-0.17960000000000004,-0.09736043165671183
-0.18060000000000004,-0.09726140186572127
-0.18160000000000004,-0.09716237207473072
-0.18260000000000004,-0.09706334228374017
-0.18360000000000004,-0.09699260671874692
-0.18460000000000004,-0.09689357692775637
-0.18560000000000004,-0.0967945471367658
-0.18660000000000004,-0.09670966445877392
-0.18760000000000004,-0.09661063466778336
-0.18860000000000005,-0.0965116048767928
-0.18960000000000005,-0.09644086931179956
-0.19060000000000005,-0.09635598663380765
-0.19160000000000005,-0.09627110395581574
-0.19260000000000005,-0.09621451550382115
-0.19360000000000005,-0.0960871914868333
-0.19460000000000005,-0.09601645592184005
-0.19560000000000005,-0.09595986746984543
-0.19660000000000005,-0.09584669056585624
-0.19760000000000005,-0.09576180788786433
-0.19860000000000005,-0.09569107232287108
-0.19960000000000006,-0.09559204253188053
-0.20060000000000006,-0.09553545407988592
-0.20160000000000006,-0.09542227717589671
-0.20260000000000006,-0.09535154161090346
-0.20360000000000006,-0.09529495315890889
-0.20460000000000006,-0.09521007048091697
-0.20560000000000006,-0.09516762914192102
-0.20660000000000006,-0.09506859935093047
-0.20760000000000006,-0.0949978637859372
-0.20860000000000006,-0.09492712822094396
-0.20960000000000006,-0.09484224554295206
-0.21060000000000006,-0.09478565709095746
-0.21160000000000007,-0.09471492152596421
-0.21260000000000007,-0.0946300388479723
-0.21360000000000007,-0.09457345039597771
-0.21460000000000007,-0.09451686194398311
-0.21560000000000007,-0.09444612637898986
-0.21660000000000007,-0.09438953792699524
-0.21760000000000007,-0.09433294947500065
-0.21860000000000007,-0.09424806679700874
-0.21960000000000007,-0.0941773312320155
-0.22060000000000007,-0.09412074278002087
-0.22160000000000007,-0.09402171298903034
-0.22260000000000008,-0.09397927165003438
-0.22360000000000008,-0.09389438897204248
-0.22460000000000008,-0.09386609474604518
-0.22560000000000008,-0.09379535918105193
-0.22660000000000008,-0.09371047650306003
-0.22760000000000008,-0.09368218227706274
-0.22860000000000008,-0.09359729959907082
-0.22960000000000008,-0.09355485826007487
-0.23060000000000008,-0.09349826980808028
-0.23160000000000008,-0.09341338713008837
-0.23260000000000008,-0.09338509290409107
-0.23360000000000009,-0.09331435733909782
-0.2346000000000001,-0.09324362177410456
-0.2356000000000001,-0.09320118043510862
-0.2366000000000001,-0.09311629775711672
-0.2376000000000001,-0.09307385641812077
-0.2386000000000001,-0.09301726796612615
-0.2396000000000001,-0.0929748266271302
-0.2406000000000001,-0.0929182381751356
-0.2416000000000001,-0.09283335549714371
-0.2426000000000001,-0.0928050612711464
-0.2436000000000001,-0.0927484728191518
-0.2446000000000001,-0.09266359014115991
-0.2456000000000001,-0.09262114880216396
-0.2466000000000001,-0.09256456035016934
-0.2476000000000001,-0.09250797189817477
-0.2486000000000001,-0.09247967767217745
-0.2496000000000001,-0.09242308922018284
-0.2506000000000001,-0.09236650076818824
-0.2516000000000001,-0.09229576520319499
-0.2526000000000001,-0.09225332386419903
-0.2536000000000001,-0.09218258829920578
-0.2546000000000001,-0.09214014696020983
-0.2556000000000001,-0.09209770562121389
-0.2566000000000001,-0.09204111716921928
-0.2576000000000001,-0.092012822943222
-0.2586000000000001,-0.09194208737822873
-0.2596000000000001,-0.09191379315223143
-0.2606000000000001,-0.09185720470023684
-0.2616000000000001,-0.09181476336124088
-0.2626000000000001,-0.09177232202224493
-0.2636000000000001,-0.09171573357025031
-0.2646000000000001,-0.09168743934425302
-0.2656000000000001,-0.09164499800525706
-0.2666000000000001,-0.09157426244026382
-0.2676000000000001,-0.09153182110126787
-0.2686000000000001,-0.09150352687527057
-0.2696000000000001,-0.09147523264927326
-0.2706000000000001,-0.09141864419727867
-0.2716000000000001,-0.09134790863228542
-0.2726000000000001,-0.09133376151928675
-0.2736000000000001,-0.09127717306729217
-0.2746000000000001,-0.09124887884129487
-0.2756000000000001,-0.09122058461529756
-0.2766000000000001,-0.09117814327630162
-0.2776000000000001,-0.09113570193730568
-0.2786000000000001,-0.09109326059830972
-0.2796000000000001,-0.09105081925931376
-0.2806000000000001,-0.09102252503331647
-0.28160000000000013,-0.09096593658132186
-0.28260000000000013,-0.09093764235532456
-0.28360000000000013,-0.09089520101632861
-0.2846,-0.09086690679033131
-0.2856,-0.09082446545133536
-0.2866,-0.0907820241123394
-0.2876,-0.0907254356603448
-0.2886,-0.09071128854734616
-0.2896,-0.09066884720835021
-0.2906,-0.0906405529823529
-0.2916,-0.0905839645303583
-0.2926,-0.09054152319136234
-0.2936,-0.09054152319136234
-0.29460000000000003,-0.09052737607836371
-0.29560000000000003,-0.09048493473936775
-0.29660000000000003,-0.09044249340037179
-0.29760000000000003,-0.09040005206137584
-0.29860000000000003,-0.09037175783537854
-0.29960000000000003,-0.09037175783537854
-0.30060000000000003,-0.09031516938338394
-0.30160000000000003,-0.09028687515738665
-0.30260000000000004,-0.09028687515738665
-0.30360000000000004,-0.09023028670539203
-0.30460000000000004,-0.09024443381839069
-0.30560000000000004,-0.09018784536639608
-0.30660000000000004,-0.09017369825339744
-0.30760000000000004,-0.09015955114039878
-0.30860000000000004,-0.09011710980140283
-0.30960000000000004,-0.09013125691440148
-0.31060000000000004,-0.09010296268840419
-0.31160000000000004,-0.09004637423640958
-0.31260000000000004,-0.09004637423640958
-0.31360000000000005,-0.09001808001041228
-0.31460000000000005,-0.09000393289741364
-0.31560000000000005,-0.08998978578441498
-0.31660000000000005,-0.08996149155841768
-0.31760000000000005,-0.08994734444541903
-0.31860000000000005,-0.08994734444541903
-0.31960000000000005,-0.08996149155841768
-0.32060000000000005,-0.08994734444541903
-0.32160000000000005,-0.08991905021942173
-0.32260000000000005,-0.08990490310642309
-0.32360000000000005,-0.08990490310642309
-0.32460000000000006,-0.08989075599342443
-0.32560000000000006,-0.08990490310642309
-0.32660000000000006,-0.08989075599342443
-0.32760000000000006,-0.08987660888042578
-0.32860000000000006,-0.08987660888042578
-0.32960000000000006,-0.08984831465442847
-0.33060000000000006,-0.08986246176742714
-0.33160000000000006,-0.08984831465442847
-0.33260000000000006,-0.08984831465442847
-0.33360000000000006,-0.08984831465442847
-0.33460000000000006,-0.08986246176742714
-0.33560000000000006,-0.08984831465442847
-0.33660000000000007,-0.08984831465442847
-0.33760000000000007,-0.08984831465442847
-0.33860000000000007,-0.08986246176742714
-0.33960000000000007,-0.08987660888042578
-0.34060000000000007,-0.08987660888042578
-0.34160000000000007,-0.08986246176742714
-0.34260000000000007,-0.08989075599342443
-0.34360000000000007,-0.08990490310642309
-0.3446000000000001,-0.08993319733242039
-0.3456000000000001,-0.08993319733242039
-0.3466000000000001,-0.08993319733242039
-0.34759999999999996,-0.08994734444541903
-0.3486000000000001,-0.08994734444541903
-0.34959999999999997,-0.08997563867141634
-0.3506000000000001,-0.08998978578441498
-0.35159999999999997,-0.08998978578441498
-0.3526000000000001,-0.09003222712341094
-0.35359999999999997,-0.09000393289741364
-0.3546000000000001,-0.09004637423640958
-0.35559999999999997,-0.09007466846240689
-0.3566000000000001,-0.09006052134940823
-0.3576,-0.09013125691440148
-0.3586000000000001,-0.09014540402740015
-0.3596,-0.09018784536639608
-0.3606000000000001,-0.09020199247939473
-0.3616,-0.09020199247939473
-0.3626000000000001,-0.09024443381839069
-0.3636,-0.09027272804438799
-0.3646000000000001,-0.09031516938338394
-0.3656,-0.09034346360938124
-0.3666000000000001,-0.09037175783537854
-0.3676,-0.09040005206137584
-0.3686000000000001,-0.09044249340037179
-0.3696,-0.09047078762636909
-0.3706000000000001,-0.09054152319136234
-0.3716,-0.0905839645303583
-0.3726000000000001,-0.09062640586935425
-0.3736,-0.09066884720835021
-0.3746000000000001,-0.09068299432134884
-0.3756,-0.0907254356603448
-0.3766000000000001,-0.0907820241123394
-0.3776,-0.09082446545133536
-0.3786000000000001,-0.09086690679033131
-0.3796,-0.09093764235532456
-0.3806000000000001,-0.09096593658132186
-0.3816,-0.09099423080731917
-0.3826000000000001,-0.09107911348531106
-0.3836,-0.091121554824307
-0.3846000000000001,-0.09119229038930025
-0.3856,-0.09122058461529756
-0.3866000000000001,-0.09129132018029082
-0.3876,-0.09136205574528407
-0.3886000000000001,-0.09140449708428001
-0.3896,-0.09147523264927326
-0.3906000000000001,-0.09153182110126787
-0.3916,-0.09158840955326249
-0.3926000000000001,-0.09164499800525706
-0.3936,-0.09171573357025031
-0.3946000000000001,-0.09180061624824223
-0.3956,-0.09184305758723818
-0.3966000000000001,-0.09189964603923279
-0.3976,-0.09199867583022334
-0.3986000000000001,-0.09205526428221794
-0.3996,-0.09214014696020983
-0.4006000000000001,-0.09219673541220444
-0.4016,-0.09225332386419903
-0.4026000000000001,-0.09233820654219095
-0.4036,-0.09242308922018284
-0.4046000000000001,-0.0924938247851761
-0.4056,-0.09256456035016934
-0.40660000000000013,-0.09267773725415854
-0.4076,-0.09279091415814776
-0.40860000000000013,-0.09288994394913831
-0.4096,-0.0929465324011329
-0.41060000000000013,-0.0929748266271302
-0.4116,-0.09305970930512211
-0.41260000000000013,-0.09315873909611266
-0.4136,-0.09322947466110591
-0.41460000000000014,-0.09332850445209646
-0.4156,-0.09339924001708971
-0.41660000000000014,-0.09349826980808028
-0.4176,-0.09358315248607219
-0.41860000000000014,-0.09366803516406408
-0.41960000000000003,-0.09378121206805329
-0.42060000000000014,-0.09385194763304654
-0.42160000000000003,-0.09395097742403709
-0.42260000000000014,-0.0940641543280263
-0.42360000000000003,-0.09414903700601819
-0.42460000000000014,-0.09424806679700874
-0.42560000000000003,-0.09431880236200199
-0.42660000000000015,-0.0944036850399939
-0.42760000000000004,-0.09453100905698175
-0.42860000000000015,-0.0946300388479723
-0.42960000000000004,-0.09472906863896285
-0.43060000000000015,-0.09481395131695476
-0.43160000000000004,-0.09489883399494665
-0.43260000000000015,-0.09502615801193452
-0.43360000000000004,-0.0951110406899264
-0.43460000000000015,-0.09523836470691427
-0.43560000000000004,-0.09533739449790483
-0.43660000000000015,-0.09542227717589671
