Potential V vs RHE, Current mA cm-2
0.013299999999999867,14.868615761581536
0.012299999999999978,13.257259591035258
0.011299999999999866,11.686930048185067
0.010299999999999976,10.160456555630693
0.009299999999999864,8.63398306307632
0.008299999999999974,7.195221671113577
0.007299999999999862,5.75504556785097
0.006299999999999972,4.360140226184043
0.00529999999999986,3.0515322738088844
0.0042999999999999705,1.6990682711379093
0.0032999999999998586,0.43403342679859325
0.0022999999999999687,-0.7872868383748929
0.0012999999999998568,-2.095187435100119
0.00029999999999996696,-3.317497998183511
-0.000700000000000145,-4.538393849967037
-0.0017000000000000348,-5.80314575204638
-0.0027000000000001467,-7.067897654125724
-0.0037000000000000366,-8.332649556205066
-0.0047000000000001485,-9.55496011928846
-0.005700000000000038,-10.819712021367803
-0.00670000000000015,-12.040607873151327
-0.00770000000000004,-13.261503724934855
-0.008700000000000152,-14.401761032626075
-0.009700000000000042,-15.575971411514052
-0.010700000000000154,-16.70774045140608
-0.011700000000000044,-17.75462681330621
-0.012700000000000156,-18.80151317520634
-0.013700000000000045,-19.890840876102416
-0.014700000000000157,-20.980168576998494
-0.015700000000000047,-22.027054938898623
-0.01670000000000016,-23.1163826397947
-0.01770000000000005,-24.24815167968673
-0.01870000000000016,-25.337479380582806
-0.01970000000000005,-26.440954194477534
-0.020700000000000163,-27.530281895373616
-0.021700000000000053,-28.619609596269694
-0.022700000000000164,-29.708937297165768
-0.023700000000000054,-30.670940981073993
-0.024700000000000166,-31.717827342974125
-0.025700000000000056,-32.66568391388369
-0.026700000000000168,-33.627687597791926
-0.027700000000000058,-34.58969128170015
-0.02870000000000017,-35.594136304604326
-0.02970000000000006,-36.55613998851254
-0.03070000000000017,-37.51814367242077
-0.03170000000000006,-38.46600024333035
-0.03270000000000017,-39.47044526623452
-0.03370000000000006,-40.4748902891387
-0.034700000000000175,-41.47933531204288
-0.035700000000000065,-42.526221673943
-0.03670000000000018,-43.48822535785123
-0.03770000000000007,-44.45022904175945
-0.03870000000000018,-45.36979138667173
-0.03970000000000007,-46.27520661858535
-0.04070000000000018,-47.19476896349763
-0.04170000000000007,-48.071889969413945
-0.04270000000000018,-48.89242252333566
-0.04370000000000007,-49.81198486824794
-0.044700000000000184,-50.68910587416426
-0.045700000000000074,-51.509638428085985
-0.046700000000000186,-52.42920077299826
-0.047700000000000076,-53.348763117910536
-0.04870000000000019,-54.31076680181876
-0.04970000000000008,-55.21618203373238
-0.05070000000000019,-56.1781857176406
-0.05170000000000008,-57.14018940154883
-0.05270000000000019,-58.05975174646111
-0.05370000000000008,-58.92272563937878
-0.05470000000000019,-59.7998466452951
-0.05570000000000008,-60.63452631221547
-0.056700000000000195,-61.455058866137186
-0.057700000000000085,-62.20485585506566
-0.058700000000000196,-63.06782974798333
-0.059700000000000086,-63.902509414903705
-0.0607000000000002,-64.72304196882543
-0.06170000000000009,-65.5577216357458
-0.0627000000000002,-66.47728398065809
-0.06370000000000009,-67.39684632557035
-0.0647000000000002,-68.25982021848802
-0.06570000000000009,-69.1793825634003
-0.0667000000000002,-70.05650356931662
-0.0677000000000001,-70.91947746223428
-0.0687000000000002,-71.75415712915466
-0.0697000000000001,-72.57468968307639
-0.07070000000000021,-73.40936934999675
-0.0717000000000001,-74.14501922592657
-0.07270000000000021,-74.93725755385098
-0.0737000000000001,-75.71534876877676
-0.07470000000000021,-76.50758709670117
-0.0757000000000001,-77.34226676362155
-0.07670000000000021,-78.16279931754329
-0.0777000000000001,-79.0399203234596
-0.07870000000000021,-79.90289421637728
-0.0797000000000001,-80.7800152222936
-0.08070000000000022,-81.69957756720586
-0.0817000000000001,-82.52011012112759
-0.08270000000000022,-83.35478978804795
-0.08370000000000011,-84.13288100297372
-0.08470000000000022,-84.8826779919022
-0.08570000000000011,-85.70321054582392
-0.08670000000000022,-86.45300753475239
-0.08770000000000011,-87.18865741068221
-0.08870000000000022,-87.98089573860662
-0.08970000000000011,-88.7589869535324
-0.09070000000000022,-89.50878394246087
-0.09170000000000011,-90.32931649638259
-0.09270000000000023,-91.16399616330297
-0.09370000000000012,-92.04111716921928
-0.09470000000000023,-92.86164972314101
-0.09570000000000012,-93.78121206805329
-0.09670000000000023,-94.601744621975
-0.09770000000000012,-95.47886562789132
-0.09870000000000023,-96.27110395581576
-0.09970000000000012,-97.09163650973747
-0.10070000000000023,-97.84143349866595
-0.10170000000000012,-98.57708337459576
-0.10270000000000024,-99.31273325052557
-0.10370000000000013,-100.10497157844999
-0.10470000000000024,-100.88306279337576
-0.10570000000000013,-101.6753011213002
-0.10670000000000024,-102.4958336752219
-0.10770000000000013,-103.33051334214227
-0.10870000000000024,-104.2076343480586
-0.10970000000000013,-105.02816690198033
-0.11070000000000024,-105.94772924689259
-0.11170000000000013,-106.78240891381296
-0.11270000000000002,-107.64538280673065
-0.11370000000000013,-108.48006247365102
-0.11470000000000002,-109.25815368857677
-0.11570000000000014,-110.05039201650122
-0.11670000000000003,-110.82848323142699
-0.11770000000000014,-111.57828022035544
-0.11870000000000003,-112.3563714352812
-0.11970000000000014,-113.10616842420968
-0.12070000000000003,-113.88425963913545
-0.12170000000000014,-114.67649796705987
-0.12270000000000003,-115.45458918198564
-0.12370000000000014,-116.28926884890602
-0.12470000000000003,-117.15224274182368
-0.12570000000000014,-117.98692240874406
-0.12670000000000003,-118.82160207566443
-0.12770000000000015,-119.64213462958614
-0.12870000000000004,-120.47681429650652
-0.12970000000000015,-121.2549055114323
-0.13070000000000004,-122.0471438393567
-0.13170000000000015,-122.86767639327843
-0.13270000000000004,-123.6174733822069
-0.13370000000000015,-124.43800593612862
-0.13470000000000004,-125.272685603049
-0.13570000000000015,-126.05077681797478
-0.13670000000000004,-126.88545648489513
-0.13770000000000016,-127.76257749081147
-0.13870000000000005,-128.5831100447332
-0.13970000000000016,-129.4602310506495
-0.14070000000000005,-130.32320494356716
-0.14170000000000016,-131.2003259494835
-0.14270000000000005,-132.07744695539984
-0.14370000000000016,-132.8555381703256
-0.14470000000000005,-133.64777649825
-0.14570000000000016,-134.42586771317576
-0.14670000000000005,-135.17566470210423
-0.14770000000000016,-135.95375591703004
-0.14870000000000005,-136.74599424495443
-0.14970000000000017,-137.52408545988024
-0.15070000000000006,-138.3163237878046
-0.15170000000000017,-139.13685634172634
-0.15270000000000006,-140.05641868663866
-0.15370000000000017,-140.9759810315509
-0.15470000000000006,-141.89554337646317
-0.15570000000000017,-142.7443701563822
-0.15670000000000006,-143.73466806628772
-0.15770000000000017,-144.58349484620675
-0.15870000000000006,-145.57379275611228
-0.15970000000000018,-146.28114840604482
-0.16070000000000007,-147.1299751859638
-0.16170000000000018,-147.83733083589632
-0.16270000000000007,-148.54468648582886
-0.16370000000000018,-149.39351326574788
-0.16470000000000007,-150.24234004566688
-0.16570000000000018,-150.94969569559944
-0.16670000000000007,-151.65705134553193
-0.16770000000000018,-152.50587812545095
-0.16870000000000007,-153.49617603535648
-0.16970000000000018,-154.3450028152755
-0.17070000000000007,-155.19382959519453
-0.17170000000000019,-156.04265637511355
-0.17270000000000008,-156.89148315503257
-0.1737000000000002,-157.7403099349516
-0.17470000000000008,-158.4476655848841
-0.1757000000000002,-159.29649236480313
-0.17670000000000008,-160.14531914472215
-0.1777000000000002,-160.8526747946547
-0.17870000000000008,-161.5600304445872
-0.1797000000000002,-162.40885722450622
-0.18070000000000008,-163.25768400442522
-0.1817000000000002,-164.10651078434424
-0.18270000000000008,-164.9553375642633
-0.1837000000000002,-165.8041643441823
-0.1847000000000001,-166.65299112410133
-0.1857000000000002,-167.6432890340068
-0.1867000000000001,-168.35064468393938
-0.1877000000000002,-169.3409425938449
-0.1887000000000001,-170.0482982437774
-0.1897000000000002,-170.89712502369645
-0.1907000000000001,-171.74595180361547
-0.1917000000000001,-172.59477858353446
-0.19269999999999998,-173.44360536345349
-0.1937000000000001,-174.2924321433725
-0.19469999999999998,-175.14125892329156
-0.1957000000000001,-175.84861457322407
-0.19669999999999999,-176.6974413531431
-0.1977000000000001,-177.6877392630486
-0.1987,-178.53656604296762
-0.1997000000000001,-179.38539282288664
-0.2007,-180.37569073279218
-0.2017000000000001,-181.2245175127112
-0.2027,-182.07334429263022
-0.2037000000000001,-182.78069994256273
-0.2047,-183.48805559249527
-0.2057000000000001,-184.33688237241427
-0.2067,-185.0442380223468
-0.2077000000000001,-185.89306480226583
-0.2087,-186.74189158218485
-0.2097000000000001,-187.44924723211736
-0.2107,-188.29807401203638
-0.2117000000000001,-189.1469007919554
-0.2127,-190.13719870186094
-0.2137000000000001,-190.98602548177996
-0.2147,-191.83485226169896
-0.2157000000000001,-192.82515017160452
-0.2167,-193.6739769515235
-0.21770000000000012,-194.52280373144254
-0.2187,-195.23015938137505
-0.21970000000000012,-196.0789861612941
-0.2207,-196.7863418112266
-0.22170000000000012,-197.63516859114563
-0.2227,-198.3425242410781
-0.22370000000000012,-199.19135102099716
-0.2247,-200.04017780091618
-0.22570000000000012,-200.88900458083523
-0.2267,-201.73783136075423
-0.22770000000000012,-202.58665814067325
-0.22870000000000001,-203.57695605057876
-0.22970000000000013,-204.42578283049778
-0.23070000000000002,-205.41608074040332
-0.23170000000000013,-206.40637865030885
-0.23270000000000002,-207.25520543022787
-0.23370000000000013,-208.1040322101469
-0.23470000000000002,-208.95285899006592
-0.23570000000000013,-209.66021463999843
-0.23670000000000002,-210.50904141991748
-0.2376999999999999,-211.21639706985
-0.23870000000000002,-212.2066949797555
-0.2396999999999999,-212.914050629688
-0.24070000000000003,-213.76287740960703
-0.24169999999999991,-214.61170418952605
-0.24270000000000003,-215.4605309694451
-0.24369999999999992,-216.1678866193776
-0.24470000000000003,-217.01671339929663
-0.24569999999999992,-217.86554017921566
-0.24670000000000003,-218.85583808912116
-0.24769999999999992,-219.5631937390537
-0.24870000000000003,-220.41202051897272
-0.24969999999999992,-221.26084729889175
-0.25070000000000003,-222.10967407881074
-0.2516999999999999,-222.9585008587298
-0.25270000000000004,-223.6658565086623
-0.2536999999999999,-224.65615441856778
-0.25470000000000004,-225.50498119848683
-0.2556999999999999,-226.35380797840588
-0.25670000000000004,-227.2026347583249
-0.25769999999999993,-228.1929326682304
-0.25870000000000004,-229.04175944814943
-0.25969999999999993,-230.03205735805497
-0.26070000000000004,-231.0223552679605
-0.26169999999999993,-232.01265317786604
-0.26270000000000004,-232.86147995778504
-0.26369999999999993,-233.71030673770406
-0.26470000000000005,-234.55913351762308
-0.26569999999999994,-235.40796029754208
-0.26670000000000005,-236.25678707746113
-0.26769999999999994,-236.96414272739366
-0.26870000000000005,-237.67149837732615
-0.26969999999999994,-238.5203251572452
-0.27070000000000005,-239.2276808071777
-0.27169999999999994,-240.0765075870967
-0.27270000000000005,-240.92533436701575
-0.27369999999999994,-241.77416114693477
-0.27470000000000006,-242.62298792685377
-0.27569999999999995,-243.75475696674582
-0.27670000000000006,-244.60358374666484
-0.27769999999999995,-245.45241052658386
-0.27870000000000006,-246.4427084364894
-0.27969999999999995,-247.2915352164084
-0.28070000000000006,-248.14036199632744
-0.28169999999999995,-248.9891887762465
-0.28270000000000006,-249.83801555616546
-0.28369999999999995,-250.6868423360845
-0.28470000000000006,-251.53566911600356
-0.28569999999999995,-252.38449589592256
-0.28670000000000007,-253.37479380582806
-0.28769999999999996,-254.2236205857471
-0.28870000000000007,-255.21391849565262
-0.28969999999999996,-256.20421640555816
-0.29070000000000007,-257.0530431854772
-0.29169999999999996,-258.0433410953827
-0.29270000000000007,-258.7506967453152
-0.29369999999999996,-259.59952352523425
-0.2947000000000001,-260.3068791751668
-0.29569999999999996,-261.1557059550858
-0.2967000000000001,-262.0045327350048
-0.29769999999999996,-262.7118883849373
-0.2987000000000001,-263.56071516485633
-0.29969999999999997,-264.40954194477536
-0.3007000000000001,-265.2583687246944
-0.30169999999999997,-266.2486666345999
-0.3027000000000001,-267.09749341451896
-0.30369999999999997,-268.0877913244245
-0.3047000000000001,-269.07808923433
-0.30569999999999997,-270.0683871442355
-0.3067000000000001,-271.05868505414105
-0.3077,-272.1904540940331
-0.3087000000000001,-273.03928087395207
-0.3097,-274.0295787838576
-0.3107000000000001,-274.87840556377665
-0.3117,-275.7272323436957
-0.3127000000000001,-276.43458799362816
-0.3137,-277.4248859035337
-0.3147000000000001,-278.1322415534662
-0.3157,-278.9810683333853
-0.3167000000000001,-279.82989511330425
-0.3177,-280.5372507632368
-0.3187000000000001,-281.52754867314235
-0.3197,-282.3763754530613
-0.3207000000000001,-283.3666733629668
-0.3217,-284.35697127287233
-0.3227000000000001,-285.3472691827779
-0.3237,-286.196095962697
-0.3247000000000001,-287.1863938726024
-0.3257,-288.03522065252145
-0.3267000000000001,-288.8840474324405
-0.3277,-289.73287421235955
-0.3287000000000001,-290.723172122265
-0.3297,-291.571998902184
-0.3307000000000001,-292.4208256821031
-0.3317,-293.26965246202207
-0.3327000000000001,-294.2599503719276
-0.3337,-295.25024828183314
-0.3347000000000001,-296.0990750617522
-0.3357,-297.0893729716577
-0.3367000000000001,-298.07967088156323
-0.3377,-298.9284976614822
-0.3387000000000001,-299.7773244414013
-0.3397,-300.76762235130684
-0.3407000000000001,-301.47497800123926
-0.3417,-302.32380478115834
-0.3427000000000001,-303.17263156107737
-0.3437,-304.0214583409964
-0.3447000000000001,-304.72881399092887
-0.3457,-305.57764077084795
-0.3467000000000001,-306.4264675507669
-0.3477,-307.4167654606725
-0.3487000000000001,-308.2655922405915
-0.3497,-309.255890150497
-0.3507000000000001,-310.10471693041603
-0.3517,-311.09501484032154
-0.3527000000000001,-311.94384162024056
-0.3537,-312.79266840015964
-0.3547000000000001,-313.78296631006515
-0.3557,-314.6317930899841
-0.35670000000000013,-315.4806198699032
-0.3577,-316.3294466498222
-0.35870000000000013,-317.1782734297412
-0.3597,-318.02710020966026
-0.36070000000000013,-318.8759269895793
-0.3617,-319.8662248994848
-0.3626999999999999,-320.8565228093903
-0.3637,-321.8468207192958
-0.3646999999999999,-322.83711862920137
-0.3657,-323.8274165391069
-0.3666999999999999,-324.81771444901244
-0.3677,-325.6665412289314
-0.3686999999999999,-326.656839138837
-0.36970000000000003,-327.6471370487425
-0.3706999999999999,-328.4959638286615
-0.37170000000000003,-329.3447906085805
-0.3726999999999999,-330.19361738849955
-0.37370000000000003,-331.0424441684186
-0.3746999999999999,-331.89127094833765
-0.37570000000000003,-332.7400977282566
-0.3766999999999999,-333.7303956381621
-0.37770000000000004,-334.7206935480677
-0.3786999999999999,-335.71099145797325
-0.37970000000000004,-336.70128936787876
-0.3806999999999999,-337.83305840777075
-0.38170000000000004,-338.8233563176763
-0.38269999999999993,-339.6721830975953
-0.38370000000000004,-340.66248100750084
-0.38469999999999993,-341.51130778741987
-0.38570000000000004,-342.5016056973254
-0.38669999999999993,-342.07719230736586
-0.38570000000000004,-339.6721830975953
-0.38469999999999993,-337.26717388782475
-0.38370000000000004,-335.00363580804066
-0.38269999999999993,-332.8815688582431
-0.38170000000000004,-330.7595019084456
-0.3806999999999999,-328.63743495864804
-0.37970000000000004,-326.656839138837
-0.3786999999999999,-324.5347721890394
-0.37770000000000004,-322.5541763692284
-0.3766999999999999,-320.57358054941733
-0.37570000000000003,-318.59298472960626
-0.3746999999999999,-316.47091777980876
-0.37370000000000003,-314.49032195999763
-0.3726999999999999,-312.36825501020013
-0.37170000000000003,-310.10471693041603
-0.3706999999999999,-307.98264998061853
-0.36970000000000003,-305.8605830308209
-0.3686999999999999,-303.73851608102336
-0.3677,-301.6164491312258
-0.3666999999999999,-299.49438218142825
-0.3657,-297.51378636161724
-0.3646999999999999,-295.53319054180616
-0.3637,-293.55259472199515
-0.3626999999999999,-291.571998902184
-0.3617,-289.59140308237295
-0.36070000000000013,-287.610807262562
-0.3597,-285.6302114427509
-0.35870000000000013,-283.9325578829129
-0.3577,-281.9519620631018
-0.35670000000000013,-280.11283737327733
-0.3557,-278.1322415534662
-0.3547000000000001,-276.29311686364167
-0.3537,-274.4539921738171
-0.3527000000000001,-272.61486748399255
-0.3517,-270.775742794168
-0.3507000000000001,-268.93661810434344
-0.3497,-267.09749341451896
-0.3487000000000001,-265.2583687246944
-0.3477,-263.56071516485633
-0.3467000000000001,-261.58011934504526
-0.3457,-259.7409946552208
-0.3447000000000001,-257.76039883540966
-0.3437,-255.92127414558513
-0.3427000000000001,-253.94067832577412
-0.3417,-251.96008250596302
-0.3407000000000001,-249.979486686152
-0.3397,-247.99889086634093
-0.3387000000000001,-246.15976617651637
-0.3377,-244.32064148669184
-0.3367000000000001,-242.62298792685377
-0.3357,-240.92533436701575
-0.3347000000000001,-239.2276808071777
-0.3337,-237.53002724733966
-0.3327000000000001,-235.83237368750162
-0.3317,-234.13472012766357
-0.3307000000000001,-232.29559543783904
-0.3297,-230.45647074801445
-0.3287000000000001,-228.75881718817644
-0.3277,-226.91969249835188
-0.3267000000000001,-225.08056780852735
-0.3257,-223.2414431187028
-0.3247000000000001,-221.40231842887826
-0.3237,-219.5631937390537
-0.3227000000000001,-217.72406904922914
-0.3217,-216.0264154893911
-0.3207000000000001,-214.32876192955305
-0.3197,-212.48963723972852
-0.3187000000000001,-210.79198367989048
-0.3177,-209.0943301200524
-0.3167000000000001,-207.3966765602144
-0.3157,-205.69902300037634
-0.3147000000000001,-203.85989831055176
-0.3137,-202.16224475071377
-0.3127000000000001,-200.3231200608892
-0.3117,-198.62546650105114
-0.3107000000000001,-196.92781294121312
-0.3097,-195.23015938137505
-0.3087000000000001,-193.3910346915505
-0.3077,-191.551910001726
-0.3067000000000001,-189.99572757187443
-0.30569999999999997,-188.29807401203638
-0.3047000000000001,-186.74189158218485
-0.30369999999999997,-185.0442380223468
-0.3027000000000001,-183.48805559249527
-0.30169999999999997,-181.93187316264374
-0.3007000000000001,-180.37569073279218
-0.29969999999999997,-178.67803717295413
-0.2987000000000001,-176.98038361311612
-0.29769999999999996,-175.42420118326456
-0.2967000000000001,-173.58507649344
-0.29569999999999996,-171.88742293360195
-0.2947000000000001,-170.18976937376394
-0.29369999999999996,-168.49211581392586
-0.29270000000000007,-166.79446225408785
-0.29169999999999996,-165.09680869424977
-0.29070000000000007,-163.54062626439824
-0.28969999999999996,-161.84297270456022
-0.28870000000000007,-160.28679027470866
-0.28769999999999996,-158.73060784485713
-0.28670000000000007,-157.17442541500557
-0.28569999999999995,-155.61824298515404
-0.28470000000000006,-153.920589425316
-0.28369999999999995,-152.36440699546444
-0.28270000000000006,-150.8082245656129
-0.28169999999999995,-149.1105710057749
-0.28070000000000006,-147.55438857592333
-0.27969999999999995,-145.9982061460718
-0.27870000000000006,-144.44202371622026
-0.27769999999999995,-142.7443701563822
-0.27670000000000006,-141.2306290655266
-0.27569999999999995,-139.70274086167237
-0.27470000000000006,-138.23144110981272
-0.27369999999999994,-136.66111156696255
-0.27270000000000005,-135.2181060411002
-0.27169999999999994,-133.69021783724597
-0.27070000000000005,-132.16232963339172
-0.26969999999999994,-130.63444142953747
-0.26870000000000005,-129.10655322568326
-0.26769999999999994,-127.57866502182902
