Potential V vs RHE, Current mA cm-2
0.013299999999999867,24.17741611469348
0.012299999999999978,22.607086571843286
0.011299999999999866,21.19237527197825
0.010299999999999976,20.01816489309027
0.009299999999999864,18.674189158218486
0.008299999999999974,17.669744135314307
0.007299999999999862,16.56626932141958
0.006299999999999972,15.491088733522153
0.00529999999999986,14.61396772760583
0.0042999999999999705,13.51615175891056
0.0032999999999998586,12.682886803290055
0.0022999999999999687,11.72654196458129
0.0012999999999998568,10.795661929270095
0.00029999999999996696,10.052938496840952
-0.000700000000000145,9.08103183383367
-0.0017000000000000348,8.373676183901154
-0.0027000000000001467,7.543240650880375
-0.0037000000000000366,6.72695223085825
-0.0047000000000001485,6.070526187720873
-0.005700000000000038,5.211796428702795
-0.00670000000000015,4.603470569760829
-0.00770000000000004,3.8579177147319554
-0.008700000000000152,3.1378296631006513
-0.009700000000000042,2.5535538962563913
-0.010700000000000154,1.7556567231325106
-0.011700000000000044,1.204202258445119
-0.012700000000000156,0.5169355089706844
-0.013700000000000045,-0.14911057100577488
-0.014700000000000157,-0.6719878674358926
-0.015700000000000047,-1.4087695124056037
-0.01670000000000016,-1.897127853119014
-0.01770000000000005,-2.539406783257741
-0.01870000000000016,-3.1434885083001114
-0.01970000000000005,-3.6131726598553033
-0.020700000000000163,-4.309210619388901
-0.021700000000000053,-4.747771122347063
-0.022700000000000164,-5.344779290890109
-0.023700000000000054,-5.914907944735719
-0.024700000000000166,-6.342150757294959
-0.025700000000000056,-6.992917955232877
-0.026700000000000168,-7.403184232193737
-0.027700000000000058,-7.960580484340561
-0.02870000000000017,-8.509488468688197
-0.02970000000000006,-8.899948787450944
-0.03070000000000017,-9.528080604591022
-0.03170000000000006,-9.901564387755393
-0.03270000000000017,-10.441984104303836
-0.03370000000000006,-10.94562132705579
-0.034700000000000175,-11.321934532819888
-0.035700000000000065,-11.94299279346064
-0.03670000000000018,-12.295255907127034
-0.03770000000000007,-12.794648995979392
-0.03870000000000018,-13.292627373531884
-0.03970000000000007,-13.62508452900017
-0.04070000000000018,-14.203701450644967
-0.04170000000000007,-14.529085049613924
-0.04270000000000018,-15.02423400456669
-0.04370000000000007,-15.519382959519453
-0.044700000000000184,-15.844766558488407
-0.045700000000000074,-16.396503965435777
-0.046700000000000186,-16.70774045140608
-0.047700000000000076,-17.174595180361546
-0.04870000000000019,-17.641449909317007
-0.04970000000000008,-17.938539282288666
-0.05070000000000019,-18.504423802234676
-0.05170000000000008,-18.829807401203638
-0.05270000000000019,-19.2683679041618
-0.05370000000000008,-19.721075520118614
-0.05470000000000019,-20.046459119087572
-0.05570000000000008,-20.584049413036283
-0.056700000000000195,-20.881138786007945
-0.057700000000000085,-21.347993514963402
-0.058700000000000196,-21.786554017921564
-0.059700000000000086,-22.083643390893226
-0.0607000000000002,-22.621233684841933
-0.06170000000000009,-22.932470170812245
-0.0627000000000002,-23.385177786769056
-0.06370000000000009,-23.823738289727217
-0.0647000000000002,-24.120827662698876
-0.06570000000000009,-24.67256506964624
-0.0667000000000002,-24.95550732961925
-0.0677000000000001,-25.42236205857471
-0.0687000000000002,-25.846775448534224
-0.0697000000000001,-26.129717708507226
-0.07070000000000021,-26.681455115454593
-0.0717000000000001,-26.9643973754276
-0.07270000000000021,-27.417104991384413
-0.0737000000000001,-27.869812607341224
-0.07470000000000021,-28.13860775431558
-0.0757000000000001,-28.662050935265643
-0.07670000000000021,-28.93084608224
-0.0777000000000001,-29.369406585198163
-0.07870000000000021,-29.793819975157668
-0.0797000000000001,-30.13335068712528
-0.08070000000000022,-30.685088094072643
-0.0817000000000001,-30.968030354045652
-0.08270000000000022,-31.40659085700382
-0.08370000000000011,-31.816857133964678
-0.08470000000000022,-32.09979939393769
-0.08570000000000011,-32.59494834889044
-0.08670000000000022,-32.87789060886345
-0.08770000000000011,-33.288156885824314
-0.08870000000000022,-33.740864501781125
-0.08970000000000011,-34.03795387475279
-0.09070000000000022,-34.60383839469879
-0.09170000000000011,-34.9150748806691
-0.09270000000000023,-35.41022383562187
-0.09370000000000012,-35.848784338580025
-0.09470000000000023,-36.11757948555439
-0.09570000000000012,-36.655169779503105
-0.09670000000000023,-36.9381120394761
-0.09770000000000012,-37.40496676843157
-0.09870000000000023,-37.81523304539243
-0.09970000000000012,-38.06988107936814
-0.10070000000000023,-38.607471373316855
-0.10170000000000012,-38.86211940729255
-0.10270000000000024,-39.30067991025072
-0.10370000000000013,-39.75338752620753
-0.10470000000000024,-40.06462401217784
-0.10570000000000013,-40.602214306126555
-0.10670000000000024,-40.88515656609956
-0.10770000000000013,-41.352011295055014
-0.10870000000000024,-41.77642468501453
-0.10970000000000013,-42.073514057986195
-0.11070000000000024,-42.625251464933555
-0.11170000000000013,-42.92234083790521
-0.11270000000000002,-43.38919556686068
-0.11370000000000013,-43.84190318281749
-0.11470000000000002,-44.110698329791845
-0.11570000000000014,-44.67658284973786
-0.11670000000000003,-44.98781933570817
-0.11770000000000014,-45.39808561266902
-0.11870000000000003,-45.87908745462314
-0.11970000000000014,-46.19032394059345
-0.12070000000000003,-46.68547289554621
-0.12170000000000014,-46.94012092952192
-0.12270000000000003,-47.46356411047198
-0.12370000000000014,-47.85968327443419
-0.12470000000000003,-48.114331308409895
-0.12570000000000014,-48.75095139334916
-0.12670000000000003,-49.03389365332217
-0.12770000000000015,-49.43001281728438
-0.12870000000000004,-49.89686754623985
-0.12970000000000015,-50.23639825820745
-0.13070000000000004,-50.74569432615886
-0.13170000000000015,-51.05693081212917
-0.13270000000000004,-51.52378554108463
-0.13370000000000015,-51.948198931044146
-0.13470000000000004,-52.28772964301176
-0.13570000000000015,-52.79702571096317
-0.13670000000000004,-53.136556422930774
-0.13770000000000016,-53.56096981289029
-0.13870000000000005,-54.02782454184575
-0.13970000000000016,-54.33906102781606
-0.14070000000000005,-54.904945547762075
-0.14170000000000016,-55.17374069473642
-0.14270000000000005,-55.7254781016838
-0.14370000000000016,-56.22062705663656
-0.14470000000000005,-56.53186354260687
-0.14570000000000016,-57.06945383655558
-0.14670000000000005,-57.352396096528594
-0.14770000000000016,-57.819250825484055
-0.14870000000000005,-58.25781132844221
-0.14970000000000017,-58.54075358841522
-0.15070000000000006,-59.10663810836124
-0.15170000000000017,-59.403727481332886
-0.15270000000000006,-59.89887643628565
-0.15370000000000017,-60.32328982624517
-0.15470000000000006,-60.71940899020737
-0.15570000000000017,-61.37017618814529
-0.15670000000000006,-61.75214823910885
-0.15770000000000017,-62.16241451606972
-0.15870000000000006,-62.64341635802381
-0.15970000000000018,-62.94050573099548
-0.16070000000000007,-63.54883158993744
-0.16170000000000018,-63.902509414903705
-0.16270000000000007,-64.34106991786187
-0.16370000000000018,-64.83621887281464
-0.16470000000000007,-65.20404381077954
-0.16570000000000018,-65.78407544372419
-0.16670000000000007,-66.15190038168912
-0.16770000000000018,-66.64704933664189
-0.16870000000000007,-67.17049251759194
-0.16970000000000018,-67.53831745555684
-0.17070000000000007,-68.04761352350828
-0.17170000000000019,-68.42958557447183
-0.17270000000000008,-68.91058741642594
-0.1737000000000002,-69.39158925838004
-0.17470000000000008,-69.73111997034766
-0.1757000000000002,-70.39603428128423
-0.17670000000000008,-70.73556499325183
-0.1777000000000002,-71.2590081742019
-0.17870000000000008,-71.78245135515196
-0.1797000000000002,-72.15027629311687
-0.18070000000000008,-72.8293377170521
-0.1817000000000002,-73.2254568810143
-0.18270000000000008,-73.80548851395896
-0.1837000000000002,-74.42796148589959
-0.1847000000000001,-74.78163931086584
-0.1857000000000002,-75.4465536218024
-0.1867000000000001,-75.68705454277946
-0.1877000000000002,-76.16805638473357
-0.1887000000000001,-76.69149956568363
-0.1897000000000002,-77.08761872964584
-0.1907000000000001,-77.7525330405824
-0.1917000000000001,-78.14865220454463
-0.19269999999999998,-78.67209538549469
-0.1937000000000001,-79.1530972274488
-0.19469999999999998,-79.61995195640426
-0.1957000000000001,-80.42633739732734
-0.19669999999999999,-80.6385440923071
-0.1977000000000001,-81.16198727325715
-0.1987,-81.88349003618832
-0.1997000000000001,-82.57669857312219
-0.2007,-83.1991715450628
-0.2017000000000001,-83.68017338701692
-0.2027,-84.20361656796698
-0.2037000000000001,-84.75535397491434
-0.2047,-85.17976736487385
-0.2057000000000001,-85.80224033681448
-0.2067,-86.18421238777805
-0.2077000000000001,-86.77839113372136
-0.2087,-87.37256987966467
-0.2097000000000001,-87.91016017361338
-0.2107,-88.53263314555399
-0.2117000000000001,-88.91460519651754
-0.2127,-89.60781373345144
-0.2137000000000001,-90.15955114039879
-0.2147,-90.62640586935424
-0.2157000000000001,-91.41864419727867
-0.2167,-91.82891047423954
-0.21770000000000012,-92.42308922018285
-0.2187,-93.13044487011537
-0.21970000000000012,-93.58315248607218
-0.2207,-94.26221391000739
-0.22170000000000012,-94.77150997795881
-0.2227,-95.40813006289807
-0.22370000000000012,-96.00230880884139
-0.2247,-96.55404621578876
-0.22570000000000012,-97.28969609171857
-0.2267,-97.84143349866595
-0.22770000000000012,-98.43561224460926
-0.22870000000000001,-98.95905542555931
-0.22970000000000013,-99.46835149351072
-0.23070000000000002,-100.2747369344338
-0.23170000000000013,-100.74159166338926
-0.23270000000000002,-101.46309442632044
-0.23370000000000013,-102.12800873725699
-0.23470000000000002,-102.65145191820707
-0.23570000000000013,-103.35880756813957
-0.23670000000000002,-103.92469208808559
-0.2376999999999999,-104.58960639902216
-0.23870000000000002,-105.25452070995874
-0.2396999999999999,-105.66478698691958
-0.24070000000000003,-106.4287310888467
-0.24169999999999991,-107.03705694778867
-0.24270000000000003,-107.68782414572658
-0.24369999999999992,-108.39517979565912
-0.24470000000000003,-108.94691720260647
-0.24569999999999992,-109.8523324345201
-0.24670000000000003,-110.22015737248502
-0.24769999999999992,-110.80018900542967
-0.24870000000000003,-111.3660735253757
-0.24969999999999992,-111.93195804532172
-0.25070000000000003,-112.73834348624479
-0.2516999999999999,-113.26178666719483
-0.25270000000000004,-113.94084809113006
-0.2536999999999999,-114.61990951506527
-0.25470000000000004,-115.18579403501128
-0.2556999999999999,-115.96388524993705
-0.25670000000000004,-116.47318131788847
-0.25769999999999993,-117.33615521080614
-0.25870000000000004,-117.93033395674945
-0.25969999999999993,-118.46792425069816
-0.26070000000000004,-119.30260391761853
-0.26169999999999993,-119.88263555056322
-0.26270000000000004,-120.92952191246334
-0.26369999999999993,-121.77834869238235
-0.26470000000000005,-122.2452034213378
-0.26569999999999994,-122.91011773227437
-0.26670000000000005,-123.4760022522204
-0.26769999999999994,-124.14091656315696
-0.26870000000000005,-124.76338953509759
-0.26969999999999994,-125.3292740550436
-0.27070000000000005,-126.06492393097344
-0.27169999999999994,-126.48933732093293
-0.27270000000000005,-127.04107472788029
-0.27369999999999994,-127.72013615181551
-0.27470000000000006,-128.28602067176152
-0.27569999999999995,-128.99337632169403
-0.27670000000000006,-129.4319368246522
-0.27769999999999995,-130.08270402259012
-0.27870000000000006,-130.7193241075294
-0.27969999999999995,-131.29935574047406
-0.28070000000000006,-132.24721231138363
-0.28169999999999995,-132.67162570134315
-0.28270000000000006,-133.46386402926754
-0.28369999999999995,-134.256102357192
-0.28470000000000006,-134.73710419914607
-0.28569999999999995,-135.43031273607997
-0.28670000000000007,-136.02449148202328
-0.28769999999999996,-136.7318471319558
-0.28870000000000007,-137.36846721689506
-0.28969999999999996,-137.80702771985324
-0.29070000000000007,-138.59926604777763
-0.29169999999999996,-138.9812380987412
-0.29270000000000007,-139.39150437570208
-0.29369999999999996,-139.91494755665212
-0.2947000000000001,-140.48083207659815
-0.29569999999999996,-141.24477617852526
-0.2967000000000001,-141.75407224647665
-0.29769999999999996,-142.17848563643616
-0.2987000000000001,-142.7443701563822
-0.29969999999999997,-143.4517258063147
-0.3007000000000001,-144.01761032626072
-0.30169999999999997,-144.58349484620675
-0.3027000000000001,-145.29085049613926
-0.30369999999999997,-145.9982061460718
-0.3047000000000001,-146.5640906660178
-0.30569999999999997,-147.27144631595033
-0.3067000000000001,-147.55438857592333
-0.3077,-147.4129174459368
-0.3087000000000001,-147.6958597059098
-0.3097,-148.26174422585584
-0.3107000000000001,-149.1105710057749
-0.3117,-149.53498439573437
-0.3127000000000001,-150.24234004566688
-0.3137,-151.09116682558593
-0.3147000000000001,-151.37410908555893
-0.3157,-152.0814647354914
-0.3167000000000001,-152.22293586547795
-0.3177,-152.78882038542397
-0.3187000000000001,-153.49617603535648
-0.3197,-154.0620605553025
-0.3207000000000001,-154.9108873352215
-0.3217,-155.19382959519453
-0.3227000000000001,-155.61824298515404
-0.3237,-156.18412750510007
-0.3247000000000001,-156.60854089505958
-0.3257,-157.17442541500557
-0.3267000000000001,-157.59883880496508
-0.3277,-158.1647233249111
-0.3287000000000001,-158.5891367148706
-0.3297,-159.01355010483013
-0.3307000000000001,-159.57943462477613
-0.3317,-160.00384801473567
-0.3327000000000001,-160.28679027470866
-0.3337,-160.71120366466818
-0.3347000000000001,-160.99414592464117
-0.3357,-161.5600304445872
-0.3367000000000001,-161.84297270456022
-0.3377,-162.5503283544927
-0.3387000000000001,-162.97474174445222
-0.3397,-163.25768400442522
-0.3407000000000001,-163.68209739438475
-0.3417,-163.82356852437124
-0.3427000000000001,-164.24798191433075
-0.3437,-164.67239530429026
-0.3447000000000001,-164.9553375642633
-0.3457,-165.5212220842093
-0.3467000000000001,-165.5212220842093
-0.3477,-165.94563547416882
-0.3487000000000001,-166.3700488641283
-0.3497,-166.65299112410133
-0.3507000000000001,-166.65299112410133
-0.3517,-165.8041643441823
-0.3527000000000001,-165.94563547416882
-0.3537,-166.0871066041553
-0.3547000000000001,-166.22857773414182
-0.3557,-166.51151999411482
-0.35670000000000013,-166.65299112410133
-0.3577,-166.79446225408785
-0.35870000000000013,-167.21887564404733
-0.3597,-167.21887564404733
-0.36070000000000013,-167.50181790402033
-0.3617,-167.6432890340068
-0.3626999999999999,-167.92623129397984
-0.3637,-168.20917355395284
-0.3646999999999999,-168.35064468393938
-0.3657,-168.49211581392586
-0.3666999999999999,-168.49211581392586
-0.3677,-168.77505807389886
-0.3686999999999999,-168.91652920388537
-0.36970000000000003,-168.91652920388537
-0.3706999999999999,-169.0580003338719
-0.37170000000000003,-169.19947146385837
-0.3726999999999999,-169.48241372383137
-0.37370000000000003,-169.7653559838044
-0.3746999999999999,-169.9068271137909
-0.37570000000000003,-170.0482982437774
-0.3766999999999999,-170.18976937376394
-0.37770000000000004,-170.33124050375042
-0.3786999999999999,-170.47271163373694
-0.37970000000000004,-170.47271163373694
-0.3806999999999999,-170.47271163373694
-0.38170000000000004,-170.47271163373694
-0.38269999999999993,-170.47271163373694
-0.38370000000000004,-170.61418276372342
-0.38469999999999993,-170.89712502369645
-0.38570000000000004,-171.03859615368293
-0.38669999999999993,-169.3409425938449
-0.38570000000000004,-166.3700488641283
-0.38469999999999993,-163.54062626439824
-0.38370000000000004,-160.5697325346817
-0.38269999999999993,-158.02325219492457
-0.38170000000000004,-155.19382959519453
-0.3806999999999999,-152.78882038542397
-0.37970000000000004,-150.1008689156804
-0.3786999999999999,-147.4129174459368
-0.37770000000000004,-144.86643710617977
-0.3766999999999999,-142.4614278964092
-0.37570000000000003,-140.05641868663866
-0.3746999999999999,-137.67970370286537
-0.37370000000000003,-135.23225315409883
-0.3726999999999999,-133.13848043029859
-0.37170000000000003,-130.81835389851994
-0.3706999999999999,-128.5831100447332
-0.36970000000000003,-126.43274886893832
-0.3686999999999999,-124.11262233715966
-0.3677,-122.11787940434998
-0.3666999999999999,-119.92507688955916
-0.3657,-117.95862818274676
-0.3646999999999999,-115.93559102393975
-0.3637,-113.84181830013951
-0.3626999999999999,-112.00269361031496
-0.3617,-109.89477377351605
-0.36070000000000013,-108.0839433096888
-0.3597,-106.3155541848575
-0.35870000000000013,-104.41984104303836
-0.3577,-102.99098263017467
-0.35670000000000013,-101.03868103636091
-0.3557,-99.25614479853097
-0.3547000000000001,-97.45946144770237
-0.3537,-95.52130696688728
-0.3527000000000001,-93.85194763304654
-0.3517,-92.12599984721119
-0.3507000000000001,-90.51322896536506
-0.3497,-88.91460519651754
-0.3487000000000001,-87.10377473269031
-0.3477,-85.60418075483337
-0.3467000000000001,-83.92067430799398
-0.3457,-82.32205053914649
-0.3447000000000001,-80.76586810929494
-0.3437,-79.0965087754542
-0.3427000000000001,-77.71009170158646
-0.3417,-76.16805638473357
-0.3407000000000001,-74.75334508486853
-0.3397,-73.31033955900621
-0.3387000000000001,-71.69756867716005
-0.3377,-70.42432850728152
-0.3367000000000001,-68.99547009441784
-0.3357,-67.6090530205501
-0.3347000000000001,-66.34995996367022
-0.3337,-64.89280732480923
-0.3327000000000001,-63.69030271992394
-0.3317,-62.21900296806431
-0.3307000000000001,-60.95990991118443
-0.3297,-59.757405306299155
-0.3287000000000001,-58.32854689343546
-0.3277,-57.16848362754614
-0.3267000000000001,-55.82450789267435
-0.3257,-54.57956194879311
-0.3247000000000001,-53.433645795902436
-0.3237,-52.1038171740293
-0.3227000000000001,-51.113519264123774
-0.3217,-49.86857332024254
-0.3207000000000001,-48.79339273234511
-0.3197,-47.73235925744634
-0.3187000000000001,-46.44497197456916
-0.3177,-45.51126251665823
-0.3167000000000001,-44.30875791177294
-0.3157,-43.205283097878215
-0.3147000000000001,-42.200838074974044
-0.3137,-40.99833347008877
-0.3127000000000001,-40.10706535117379
-0.3117,-39.00359053727906
-0.3107000000000001,-37.97085128837759
-0.3097,-37.02299471746801
-0.3087000000000001,-35.90537279057463
-0.3077,-35.02825178465831
-0.3067000000000001,-33.99551253575683
-0.30569999999999997,-33.04765596484726
-0.3047000000000001,-32.184682071929586
-0.30369999999999997,-31.12364859703081
-0.3027000000000001,-30.331410269106385
-0.30169999999999997,-29.31281813320356
-0.3007000000000001,-28.421550014288584
-0.29969999999999997,-27.615164573365515
-0.2987000000000001,-26.62486666345999
-0.29769999999999996,-25.86092256153287
-0.2967000000000001,-24.898918877624645
-0.29569999999999996,-24.050092097705623
-0.2947000000000001,-23.257853769781203
-0.29369999999999996,-22.253408746877028
-0.29270000000000007,-21.54605309694451
-0.29169999999999996,-20.612343639033586
-0.29070000000000007,-19.820105311109163
-0.28969999999999996,-19.084455435179343
-0.28870000000000007,-18.13659886426977
-0.28769999999999996,-17.499978779330505
-0.28670000000000007,-16.651151999411482
-0.28569999999999995,-15.901355010483012
-0.28470000000000006,-15.208146473549144
-0.28369999999999995,-14.30273124163552
-0.28270000000000006,-13.700064227893014
-0.28169999999999995,-12.865384560972643
-0.28070000000000006,-12.13963766414188
-0.27969999999999995,-11.483211621004504
-0.27870000000000006,-10.62306715068656
-0.27769999999999995,-10.054353208140816
-0.27670000000000006,-9.262114880216396
-0.27569999999999995,-8.574565188481987
-0.27470000000000006,-7.966239329540022
-0.27369999999999994,-7.149950909517895
-0.27270000000000005,-6.6109459042693155
-0.27169999999999994,-5.855490070141387
-0.27070000000000005,-5.201893449603739
-0.26969999999999994,-4.630350084458265
-0.26870000000000005,-3.85367358083236
-0.26769999999999994,-3.3542804919800018
-0.26670000000000005,-2.615801193450453
