Potential V vs RHE, Current mA cm-2
0.05339999999999995,-0.16368209739438472
0.05239999999999995,-0.16919947146385841
0.051399999999999946,-0.17202889406358848
0.050399999999999945,-0.17400948988339954
0.049399999999999944,-0.17584861457322407
0.04839999999999994,-0.17754626813306212
0.04739999999999994,-0.17910245056291366
0.04639999999999994,-0.1806586329927652
0.04539999999999994,-0.18193187316264373
0.04439999999999994,-0.18334658446250876
0.04339999999999994,-0.1847612957623738
0.04239999999999994,-0.1861760070622388
0.04139999999999994,-0.18744924723211737
0.040399999999999936,-0.18872248740199588
0.039399999999999935,-0.1899957275718744
0.038399999999999934,-0.19141043887173945
0.03739999999999993,-0.19268367904161798
0.03639999999999993,-0.19395691921149652
0.03539999999999993,-0.19508868825138856
0.03439999999999993,-0.19636192842126707
0.03339999999999993,-0.19777663972113213
0.03239999999999993,-0.19904987989101067
0.03139999999999993,-0.20032312006088918
0.030399999999999927,-0.20145488910078121
0.029399999999999926,-0.20272812927065975
0.028399999999999925,-0.2041428405705248
0.027399999999999924,-0.20541608074040332
0.026399999999999924,-0.2066893209102819
0.025399999999999923,-0.2079625610801604
0.024399999999999922,-0.20923580125003893
0.02339999999999992,-0.21065051254990397
0.02239999999999992,-0.2119237527197825
0.02139999999999992,-0.21319699288966104
0.020399999999999918,-0.21447023305953958
0.019399999999999917,-0.2157434732294181
0.018399999999999916,-0.21701671339929662
0.017399999999999916,-0.21843142469916169
0.016399999999999915,-0.21970466486904017
0.015399999999999914,-0.22097790503891873
0.014399999999999913,-0.22225114520879727
0.013399999999999912,-0.22366585650866228
0.012399999999999911,-0.2250805678085273
0.01139999999999991,-0.22635380797840585
0.01039999999999991,-0.2276270481482844
0.009399999999999908,-0.22890028831816295
0.008399999999999908,-0.23017352848804143
0.007399999999999907,-0.23158823978790652
0.006399999999999906,-0.23286147995778506
0.005399999999999905,-0.23413472012766354
0.004399999999999904,-0.2354079602975421
0.003399999999999903,-0.23668120046742064
0.002399999999999902,-0.23809591176728565
0.0013999999999999013,-0.2393691519371642
0.00039999999999990044,-0.24050092097705625
-0.0006000000000001005,-0.24177416114693479
-0.0016000000000001013,-0.24304740131681332
-0.0026000000000001022,-0.2443206414866918
-0.003600000000000103,-0.24559388165657034
-0.004600000000000104,-0.24672565069646235
-0.005600000000000105,-0.24799889086634092
-0.006600000000000106,-0.24927213103621945
-0.007600000000000107,-0.250545371206098
-0.008600000000000108,-0.2518186113759765
-0.009600000000000108,-0.252808909285882
-0.01060000000000011,-0.25394067832577405
-0.01160000000000011,-0.2552139184956526
-0.012600000000000111,-0.2564871586655311
-0.013600000000000112,-0.25761892770542316
-0.014600000000000113,-0.2586092256153287
-0.015600000000000114,-0.25974099465522077
-0.016600000000000115,-0.2610142348250993
-0.017600000000000116,-0.2622874749949778
-0.018600000000000116,-0.2634192440348699
-0.019600000000000117,-0.26440954194477534
-0.020600000000000118,-0.2653998398546809
-0.02160000000000012,-0.2665316088945729
-0.02260000000000012,-0.26766337793446493
-0.02360000000000012,-0.2686536758443705
-0.024600000000000122,-0.2695025026242895
-0.025600000000000123,-0.27049280053419505
-0.026600000000000124,-0.27162456957408704
-0.027600000000000124,-0.2726148674839926
-0.028600000000000125,-0.2736051653938981
-0.029600000000000126,-0.27445399217381716
-0.030600000000000127,-0.27530281895373615
-0.03160000000000013,-0.2762931168636417
-0.03260000000000013,-0.2772834147735472
-0.03360000000000013,-0.27827371268345275
-0.03460000000000002,-0.27898106833338526
-0.03560000000000002,-0.27982989511330425
-0.03660000000000002,-0.2806787218932233
-0.03760000000000002,-0.2816690198031288
-0.03860000000000002,-0.28251784658304785
-0.039600000000000024,-0.28322520223298037
-0.040600000000000025,-0.2839325578829129
-0.041600000000000026,-0.28478138466283187
-0.04260000000000003,-0.2856302114427509
-0.04360000000000003,-0.28633756709268343
-0.04460000000000003,-0.28704492274261595
-0.04560000000000003,-0.28761080726256194
-0.04660000000000003,-0.288459634042481
-0.04760000000000003,-0.2891669896924135
-0.04860000000000003,-0.289874345342346
-0.04960000000000003,-0.29044022986229207
-0.050600000000000034,-0.2911475855122245
-0.051600000000000035,-0.2918549411621571
-0.052600000000000036,-0.29256229681208956
-0.053600000000000037,-0.2931281813320356
-0.05460000000000004,-0.29369406585198166
-0.05560000000000004,-0.2941184792419411
-0.05660000000000004,-0.29482583489187364
-0.05760000000000004,-0.29539171941181963
-0.05860000000000004,-0.2959576039317657
-0.05960000000000004,-0.2963820173217252
-0.06060000000000004,-0.29680643071168467
-0.061600000000000044,-0.2973723152316307
-0.06260000000000004,-0.29793819975157676
-0.06360000000000005,-0.29850408427152275
-0.06460000000000005,-0.2989284976614822
-0.06560000000000005,-0.2993529110514418
-0.06660000000000005,-0.29977732444140126
-0.06760000000000005,-0.30034320896134725
-0.06860000000000005,-0.3006261512213203
-0.06960000000000005,-0.30105056461127977
-0.07060000000000005,-0.3013335068712528
-0.07160000000000005,-0.3018993913911988
-0.07260000000000005,-0.30232380478115833
-0.07360000000000005,-0.30260674704113133
-0.07460000000000006,-0.3028896893011043
-0.07560000000000006,-0.3033141026910639
-0.07660000000000006,-0.3035970449510369
-0.07760000000000006,-0.30402145834099636
-0.07860000000000006,-0.30430440060096936
-0.07960000000000006,-0.30458734286094236
-0.08060000000000006,-0.30487028512091535
-0.08160000000000006,-0.3051532273808884
-0.08260000000000006,-0.30543616964086145
-0.08360000000000006,-0.3058605830308209
-0.08460000000000006,-0.30600205416080745
-0.08560000000000006,-0.3061435252907939
-0.08660000000000007,-0.3064264675507669
-0.08760000000000007,-0.3067094098107399
-0.08860000000000007,-0.30699235207071296
-0.08960000000000007,-0.3071338232006995
-0.09060000000000007,-0.30727529433068596
-0.09160000000000007,-0.30755823659065895
-0.09260000000000007,-0.30784117885063195
-0.09360000000000007,-0.3079826499806185
-0.09460000000000007,-0.308124121110605
-0.09560000000000007,-0.30826559224059147
-0.09660000000000007,-0.30854853450056446
-0.09760000000000008,-0.308690005630551
-0.09860000000000008,-0.30897294789052404
-0.09960000000000008,-0.30897294789052404
-0.10060000000000008,-0.3091144190205105
-0.10160000000000008,-0.30925589015049704
-0.10260000000000008,-0.30953883241047003
-0.10360000000000008,-0.3096803035404565
-0.10460000000000008,-0.3096803035404565
-0.10560000000000008,-0.30982177467044303
-0.10660000000000008,-0.3099632458004295
-0.10760000000000008,-0.3102461880604025
-0.10860000000000009,-0.310387659190389
-0.10960000000000009,-0.310387659190389
-0.11060000000000009,-0.310387659190389
-0.11160000000000009,-0.310670601450362
-0.11260000000000009,-0.3108120725803486
-0.11360000000000009,-0.3108120725803486
-0.11460000000000009,-0.31095354371033507
-0.11560000000000009,-0.3110950148403216
-0.11660000000000009,-0.3110950148403216
-0.1176000000000001,-0.3113779571002946
-0.1186000000000001,-0.3113779571002946
-0.1196000000000001,-0.3113779571002946
-0.1206000000000001,-0.31151942823028106
-0.1216000000000001,-0.3116608993602676
-0.1226000000000001,-0.31180237049025405
-0.1236000000000001,-0.31180237049025405
-0.1246000000000001,-0.3119438416202406
-0.1256000000000001,-0.3119438416202406
-0.1266000000000001,-0.31208531275022705
-0.1276000000000001,-0.3122267838802136
-0.1286000000000001,-0.31236825501020005
-0.1296000000000001,-0.31236825501020005
-0.1306000000000001,-0.31236825501020005
-0.1316000000000001,-0.31265119727017304
-0.1326000000000001,-0.3127926684001596
-0.1336000000000001,-0.31293413953014615
-0.1346000000000001,-0.31293413953014615
-0.1356000000000001,-0.31293413953014615
-0.1366000000000001,-0.3130756106601326
-0.1376000000000001,-0.31321708179011915
-0.1386000000000001,-0.3133585529201056
-0.1396000000000001,-0.31350002405009214
-0.1406000000000001,-0.31350002405009214
-0.14160000000000011,-0.31378296631006514
-0.14260000000000012,-0.31406590857003813
-0.14360000000000012,-0.3142073797000246
-0.14460000000000012,-0.3142073797000246
-0.14560000000000012,-0.3142073797000246
-0.14660000000000012,-0.3144903219599976
-0.14760000000000012,-0.3146317930899841
-0.14860000000000012,-0.31477326421997065
-0.14960000000000012,-0.3149147353499572
-0.15060000000000012,-0.31505620647994365
-0.15160000000000012,-0.31533914873991664
-0.15260000000000012,-0.3156220909998897
-0.15360000000000013,-0.31576356212987616
-0.15460000000000013,-0.3159050332598627
-0.15560000000000013,-0.31604650438984916
-0.15660000000000013,-0.3161879755198357
-0.15760000000000013,-0.3166123889097952
-0.15860000000000013,-0.31675386003978173
-0.15960000000000002,-0.3170368022997547
-0.16060000000000002,-0.3171782734297412
-0.16160000000000002,-0.3173197445597277
-0.16260000000000002,-0.3177441579496872
-0.16360000000000002,-0.3178856290796737
-0.16460000000000002,-0.3181685713396467
-0.16560000000000002,-0.3184515135996197
-0.16660000000000003,-0.3188759269895793
-0.16760000000000003,-0.31930034037953875
-0.16860000000000003,-0.31958328263951175
-0.16960000000000003,-0.31986622489948474
-0.17060000000000003,-0.32014916715945774
-0.17160000000000003,-0.3204321094194308
-0.17260000000000003,-0.3208565228093903
-0.17360000000000003,-0.32128093619934983
-0.17460000000000003,-0.3215638784593228
-0.17560000000000003,-0.3218468207192958
-0.17660000000000003,-0.3222712341092553
-0.17760000000000004,-0.32283711862920134
-0.17860000000000004,-0.32326153201916086
-0.17960000000000004,-0.3236859454091204
-0.18060000000000004,-0.3239688876690934
-0.18160000000000004,-0.3243933010590529
-0.18260000000000004,-0.3249591855789989
-0.18360000000000004,-0.3253835989689584
-0.18460000000000004,-0.3259494834889044
-0.18560000000000004,-0.32623242574887745
-0.18660000000000004,-0.32679831026882344
-0.18760000000000004,-0.32750566591875596
-0.18860000000000005,-0.32807155043870195
-0.18960000000000005,-0.32849596382866153
-0.19060000000000005,-0.3290618483486075
-0.19160000000000005,-0.32976920399854004
-0.19260000000000005,-0.33047655964847256
-0.19360000000000005,-0.3310424441684186
-0.19460000000000005,-0.3316083286883646
-0.19560000000000005,-0.3323156843382971
-0.19660000000000005,-0.33302303998822963
-0.19760000000000005,-0.33373039563816215
-0.19860000000000005,-0.3344377512880947
-0.19960000000000006,-0.3351451069380272
-0.20060000000000006,-0.33585246258795975
-0.20160000000000006,-0.33670128936787874
-0.20260000000000006,-0.33755011614779773
-0.20360000000000006,-0.33839894292771683
-0.20460000000000006,-0.3392477697076358
-0.20560000000000006,-0.34009659648755486
-0.20660000000000006,-0.34094542326747385
-0.20760000000000006,-0.3419357211773794
-0.20860000000000006,-0.3429260190872849
-0.20960000000000006,-0.34377484586720397
-0.21060000000000006,-0.34462367264712296
-0.21160000000000007,-0.3456139705570285
-0.21260000000000007,-0.346604268466934
-0.21360000000000007,-0.347736037506826
-0.21460000000000007,-0.34858486428674507
-0.21560000000000007,-0.3495751621966506
-0.21660000000000007,-0.3508484023665291
-0.21760000000000007,-0.3519801714064211
-0.21860000000000007,-0.35311194044631317
-0.21960000000000007,-0.3542437094862052
-0.22060000000000007,-0.3552340073961107
-0.22160000000000007,-0.3565072475659892
-0.22260000000000008,-0.3577804877358678
-0.22360000000000008,-0.35905372790574636
-0.22460000000000008,-0.36018549694563834
-0.22560000000000008,-0.3613172659855304
-0.22660000000000008,-0.3625905061554089
-0.22760000000000008,-0.36414668858526045
-0.22860000000000008,-0.36541992875513896
-0.22960000000000008,-0.3666931689250175
-0.23060000000000008,-0.36796640909489603
-0.23160000000000008,-0.36938112039476106
-0.23260000000000008,-0.3709373028246126
-0.23360000000000009,-0.3723520141244776
-0.2346000000000001,-0.3737667254243427
-0.2356000000000001,-0.37518143672420773
-0.2366000000000001,-0.3767376191540593
-0.2376000000000001,-0.3784352727138973
-0.2386000000000001,-0.3799914551437488
-0.2396000000000001,-0.3815476375736004
-0.2406000000000001,-0.38310382000345194
-0.2416000000000001,-0.38466000243330345
-0.2426000000000001,-0.38635765599314154
-0.2436000000000001,-0.38805530955297957
-0.2446000000000001,-0.3897529631128176
-0.2456000000000001,-0.3913091455426691
-0.2466000000000001,-0.3930067991025072
-0.2476000000000001,-0.3947044526623452
-0.2486000000000001,-0.3965435773521698
-0.2496000000000001,-0.39809975978202133
-0.2506000000000001,-0.39993888447184583
-0.2516000000000001,-0.4017780091616704
-0.2526000000000001,-0.4037586049814815
-0.2536000000000001,-0.40559772967130603
-0.2546000000000001,-0.4074368543611306
-0.2556000000000001,-0.40927597905095514
-0.2566000000000001,-0.4111151037407797
-0.2576000000000001,-0.4130956995605908
-0.2586000000000001,-0.4150762953804018
-0.2596000000000001,-0.41705689120021283
-0.2606000000000001,-0.4188960158900374
-0.2616000000000001,-0.42087661170984847
-0.2626000000000001,-0.42299867865964597
-0.2636000000000001,-0.42497927447945705
-0.2646000000000001,-0.4269598702992681
-0.2656000000000001,-0.42894046611907916
-0.2666000000000001,-0.4310625330688767
-0.2676000000000001,-0.43318460001867426
-0.2686000000000001,-0.4354481380984583
-0.2696000000000001,-0.43742873391826936
-0.2706000000000001,-0.43955080086806686
-0.2716000000000001,-0.44167286781786447
-0.2726000000000001,-0.44407787702763507
-0.2736000000000001,-0.44619994397743257
-0.2746000000000001,-0.4483220109272302
-0.2756000000000001,-0.4505855490070142
-0.2766000000000001,-0.4528490870867982
-0.2776000000000001,-0.4552540962965688
-0.2786000000000001,-0.4573761632463663
-0.2796000000000001,-0.45963970132615045
-0.2806000000000001,-0.46176176827594795
-0.28160000000000013,-0.4641667774857185
-0.28260000000000013,-0.4664303155655025
-0.28360000000000013,-0.4688353247752731
-0.2846,-0.47109886285505725
-0.2856,-0.4733624009348413
-0.2866,-0.4757674101446118
-0.2876,-0.47817241935438237
-0.2886,-0.480577428564153
-0.2896,-0.48284096664393705
-0.2906,-0.4851045047237211
-0.2916,-0.48765098506347815
-0.2926,-0.4900559942732487
-0.2936,-0.49260247461300577
-0.29460000000000003,-0.4950074838227763
-0.29560000000000003,-0.49741249303254687
-0.29660000000000003,-0.4999589733723039
-0.29760000000000003,-0.5023639825820745
-0.29860000000000003,-0.505051934051818
-0.29960000000000003,-0.5074569432615886
-0.30060000000000003,-0.5100034236013458
-0.30160000000000003,-0.5124084328111163
-0.30260000000000004,-0.5150963842808599
-0.30360000000000004,-0.5176428646206169
-0.30460000000000004,-0.520189344960374
-0.30560000000000004,-0.5225943541701447
-0.30660000000000004,-0.5252823056398881
-0.30760000000000004,-0.5279702571096317
-0.30860000000000004,-0.5306582085793753
-0.30960000000000004,-0.5332046889191324
-0.31060000000000004,-0.5357511692588894
-0.31160000000000004,-0.538439120728633
-0.31260000000000004,-0.5412685433283632
-0.31360000000000005,-0.5439564947981066
-0.31460000000000005,-0.5466444462678502
-0.31560000000000005,-0.5493323977375938
-0.31660000000000005,-0.5518788780773508
-0.31760000000000005,-0.5548497718070674
-0.31860000000000005,-0.5576791944067975
-0.31960000000000005,-0.5603671458765411
-0.32060000000000005,-0.5631965684762711
-0.32160000000000005,-0.5660259910760012
-0.32260000000000005,-0.5688554136757313
-0.32360000000000005,-0.5718263074054479
-0.32460000000000006,-0.5745142588751914
-0.32560000000000006,-0.5773436814749214
-0.32660000000000006,-0.580314575204638
-0.32760000000000006,-0.5832854689343547
-0.32860000000000006,-0.5862563626640712
-0.32960000000000006,-0.5890857852638013
-0.33060000000000006,-0.5919152078635314
-0.33160000000000006,-0.5947446304632614
-0.33260000000000006,-0.5978569953229644
-0.33360000000000006,-0.6009693601826676
-0.33460000000000006,-0.6039402539123842
-0.33560000000000006,-0.6067696765121142
-0.33660000000000007,-0.6098820413718172
-0.33760000000000007,-0.6129944062315204
-0.33860000000000007,-0.615965299961237
-0.33960000000000007,-0.618794722560967
-0.34060000000000007,-0.6217656162906836
-0.34160000000000007,-0.6248779811503866
-0.34260000000000007,-0.6281318171400763
-0.34360000000000007,-0.6312441819997794
-0.3446000000000001,-0.6343565468594824
-0.3456000000000001,-0.6374689117191855
-0.3466000000000001,-0.640722747708875
-0.34759999999999996,-0.6439765836985646
-0.3486000000000001,-0.6470889485582677
-0.34959999999999997,-0.6503427845479574
-0.3506000000000001,-0.6534551494076605
-0.35159999999999997,-0.65670898539735
-0.3526000000000001,-0.6601042925170262
-0.35359999999999997,-0.6633581285067156
-0.3546000000000001,-0.6664704933664187
-0.35559999999999997,-0.6697243293561084
-0.3566000000000001,-0.672978165345798
-0.3576,-0.6765149435954606
-0.3586000000000001,-0.6799102507151367
-0.3596,-0.6831640867048262
-0.3606000000000001,-0.6865593938245023
-0.3616,-0.6898132298141919
-0.3626000000000001,-0.6933500080638545
-0.3636,-0.6968867863135171
-0.3646000000000001,-0.7001406223032067
-0.3656,-0.7033944582928963
-0.3666000000000001,-0.7067897654125724
-0.3676,-0.710326543662235
-0.3686000000000001,-0.7138633219118975
-0.3696,-0.717117157901587
-0.3706000000000001,-0.7206539361512496
-0.3716,-0.7240492432709258
-0.3726000000000001,-0.7274445503906019
-0.3736,-0.7309813286402644
-0.3746000000000001,-0.7343766357599406
-0.3756,-0.7376304717496301
-0.3766000000000001,-0.7411672499992927
-0.3776,-0.7447040282489552
-0.3786000000000001,-0.7482408064986178
-0.3796,-0.7517775847482805
-0.3806000000000001,-0.75503142073797
-0.3816,-0.7585681989876326
-0.3826000000000001,-0.7621049772372952
-0.3836,-0.7656417554869578
-0.3846000000000001,-0.769037062606634
-0.3856,-0.77243236972631
-0.3866000000000001,-0.7758276768459861
-0.3876,-0.7793644550956487
-0.3886000000000001,-0.7829012333453113
-0.3896,-0.7865794827249604
-0.3906000000000001,-0.7898333187146499
-0.3916,-0.793228625834326
-0.3926000000000001,-0.7969068752139751
-0.3936,-0.8003021823336512
-0.3946000000000001,-0.8036974894533273
-0.3956,-0.8070927965730035
-0.3966000000000001,-0.810346632562693
-0.3976,-0.8138834108123556
-0.3986000000000001,-0.8174201890620182
-0.3996,-0.8206740250517078
-0.4006000000000001,-0.8240693321713839
-0.4016,-0.8273231681610735
-0.4026000000000001,-0.8308599464107361
-0.4036,-0.8343967246603987
-0.4046000000000001,-0.8376505606500882
-0.4056,-0.8407629255097913
-0.40660000000000013,-0.8440167614994809
-0.4076,-0.847412068619157
-0.40860000000000013,-0.850807375738833
-0.4096,-0.8540612117285227
-0.41060000000000013,-0.8573150477182123
-0.4116,-0.8605688837079019
-0.41260000000000013,-0.8639641908275778
-0.4136,-0.8673594979472539
-0.41460000000000014,-0.8704718628069571
-0.4156,-0.8735842276666601
-0.41660000000000014,-0.8766965925263633
-0.4176,-0.8800918996460394
-0.41860000000000014,-0.8834872067657155
-0.41960000000000003,-0.8865995716254184
-0.42060000000000014,-0.889570465355135
-0.42160000000000003,-0.8928243013448246
-0.42260000000000014,-0.8962196084645007
-0.42360000000000003,-0.8993319733242039
-0.42460000000000014,-0.9024443381839068
-0.42560000000000003,-0.9054152319136234
-0.42660000000000015,-0.9085275967733266
-0.42760000000000004,-0.9116399616330296
-0.42860000000000015,-0.9148937976227193
-0.42960000000000004,-0.9178646913524358
-0.43060000000000015,-0.9208355850821524
-0.43160000000000004,-0.923806478811869
-0.43260000000000015,-0.926918843671572
-0.43360000000000004,-0.9300312085312752
-0.43460000000000015,-0.9330021022609917
-0.43560000000000004,-0.9358315248607216
-0.43660000000000015,-0.9388024185904382
-0.43760000000000004,-0.9419147834501415
-0.43860000000000016,-0.9448856771798579
-0.43960000000000005,-0.9478565709095745
-0.44060000000000016,-0.9506859935093046
-0.44160000000000005,-0.9536568872390212
-0.44260000000000016,-0.9566277809687379
-0.44360000000000005,-0.9595986746984544
