Potential V vs RHE, Current mA cm-2
0.05339999999999995,-0.058045604633462464
0.05239999999999995,-0.06036573116524111
0.051399999999999946,-0.06128529351015339
0.050399999999999945,-0.06183703091710076
0.049399999999999944,-0.06234632698505217
0.04839999999999994,-0.06303953552198605
0.04739999999999994,-0.06383177384991046
0.04639999999999994,-0.06445424682185108
0.04539999999999994,-0.06486451309881193
0.04439999999999994,-0.06528892648877145
0.04339999999999994,-0.06591139946071205
0.04239999999999994,-0.06664704933664188
0.04139999999999994,-0.06719878674358926
0.040399999999999936,-0.06756661168155415
0.039399999999999935,-0.06797687795851501
0.038399999999999934,-0.06859935093045562
0.03739999999999993,-0.06925011812839355
0.03639999999999993,-0.06975941419634496
0.03539999999999993,-0.0701130920213112
0.03439999999999993,-0.07046676984627748
0.03339999999999993,-0.07104680147922215
0.03239999999999993,-0.07168342156416141
0.03139999999999993,-0.07219271763211282
0.030399999999999927,-0.07248980700508448
0.029399999999999926,-0.07282933771705208
0.028399999999999925,-0.07338107512399945
0.027399999999999924,-0.07398940098294142
0.026399999999999924,-0.07448454993789419
0.025399999999999923,-0.07476749219786719
0.024399999999999922,-0.07506458157083885
0.02339999999999992,-0.07558802475178891
0.02239999999999992,-0.07616805638473358
0.02139999999999992,-0.0766207640006904
0.020399999999999918,-0.07688955914766474
0.019399999999999917,-0.07714420718164045
0.018399999999999916,-0.07765350324959187
0.017399999999999916,-0.07824768199553518
0.016399999999999915,-0.07862965404649873
0.015399999999999914,-0.07888430208047445
0.014399999999999913,-0.0791248030014515
0.013399999999999912,-0.07960580484340561
0.012399999999999911,-0.08014339513735433
0.01139999999999991,-0.08051122007531925
0.01039999999999991,-0.08073757388329764
0.009399999999999908,-0.0809780748042747
0.008399999999999908,-0.08140248819423422
0.007399999999999907,-0.08192593137518428
0.006399999999999906,-0.08229375631314918
0.005399999999999905,-0.08246352166913298
0.004399999999999904,-0.0826615812511141
0.003399999999999903,-0.0830577004150763
0.002399999999999902,-0.08353870225703043
0.0013999999999999013,-0.08384993874300072
0.00039999999999990044,-0.08401970409898453
-0.0006000000000001005,-0.08418946945496834
-0.0016000000000001013,-0.08454314727993459
-0.0026000000000001022,-0.0849958548958914
-0.003600000000000103,-0.08529294426886307
-0.004600000000000104,-0.08540612117285226
-0.005600000000000105,-0.08556173941583743
-0.006600000000000106,-0.08590127012780503
-0.007600000000000107,-0.08629738929176724
-0.008600000000000108,-0.0865944786647389
-0.009600000000000108,-0.08669350845572944
-0.01060000000000011,-0.08679253824672
-0.01160000000000011,-0.08711792184568896
-0.012600000000000111,-0.08752818812264983
-0.013600000000000112,-0.08775454193062822
-0.014600000000000113,-0.08779698326962418
-0.015600000000000114,-0.08788186594761609
-0.016600000000000115,-0.08815066109459044
-0.017600000000000116,-0.0885043389195567
-0.018600000000000116,-0.08871654561453644
-0.019600000000000117,-0.08877313406653106
-0.020600000000000118,-0.08880142829252836
-0.02160000000000012,-0.0890419292135054
-0.02260000000000012,-0.08939560703847166
-0.02360000000000012,-0.08957951950745412
-0.024600000000000122,-0.08957951950745412
-0.025600000000000123,-0.08959366662045277
-0.026600000000000124,-0.08983416754142984
-0.027600000000000124,-0.09017369825339744
-0.028600000000000125,-0.09030102227038528
-0.029600000000000126,-0.09025858093138935
-0.030600000000000127,-0.09025858093138935
-0.03160000000000013,-0.09047078762636909
-0.03260000000000013,-0.09076787699934075
-0.03360000000000013,-0.09088105390332996
-0.03460000000000002,-0.09082446545133536
-0.03560000000000002,-0.0907820241123394
-0.03660000000000002,-0.09093764235532456
-0.03760000000000002,-0.09120643750229893
-0.03860000000000002,-0.09130546729328948
-0.039600000000000024,-0.09122058461529756
-0.040600000000000025,-0.09114984905030431
-0.041600000000000026,-0.09129132018029082
-0.04260000000000003,-0.09153182110126787
-0.04360000000000003,-0.09161670377925978
-0.04460000000000003,-0.09148937976227192
-0.04560000000000003,-0.09140449708428001
-0.04660000000000003,-0.09153182110126787
-0.04760000000000003,-0.09172988068324898
-0.04860000000000003,-0.09180061624824223
-0.04960000000000003,-0.09164499800525706
-0.050600000000000034,-0.09153182110126787
-0.051600000000000035,-0.09164499800525706
-0.052600000000000036,-0.09180061624824223
-0.053600000000000037,-0.09184305758723818
-0.05460000000000004,-0.09170158645725168
-0.05560000000000004,-0.09154596821426653
-0.05660000000000004,-0.09165914511825574
-0.05760000000000004,-0.09180061624824223
-0.05860000000000004,-0.09180061624824223
-0.05960000000000004,-0.09164499800525706
-0.06060000000000004,-0.09144693842327598
-0.061600000000000044,-0.09151767398826924
-0.06260000000000004,-0.09167329223125438
-0.06360000000000005,-0.09164499800525706
-0.06460000000000005,-0.09147523264927326
-0.06560000000000005,-0.09127717306729217
-0.06660000000000005,-0.09129132018029082
-0.06760000000000005,-0.09144693842327598
-0.06860000000000005,-0.09137620285828273
-0.06960000000000005,-0.09119229038930025
-0.07060000000000005,-0.09099423080731917
-0.07160000000000005,-0.09100837792031781
-0.07260000000000005,-0.091121554824307
-0.07360000000000005,-0.09107911348531106
-0.07460000000000006,-0.09085275967733265
-0.07560000000000006,-0.09065470009535155
-0.07660000000000006,-0.0906405529823529
-0.07760000000000006,-0.09073958277334346
-0.07860000000000006,-0.09068299432134884
-0.07960000000000006,-0.09044249340037179
-0.08060000000000006,-0.09023028670539203
-0.08160000000000006,-0.0902161395923934
-0.08260000000000006,-0.09030102227038528
-0.08360000000000006,-0.09020199247939473
-0.08460000000000006,-0.08994734444541903
-0.08560000000000006,-0.08973513775043927
-0.08660000000000007,-0.08972099063744063
-0.08760000000000007,-0.08979172620243389
-0.08860000000000007,-0.08972099063744063
-0.08960000000000007,-0.08946634260346491
-0.09060000000000007,-0.08921169456948921
-0.09160000000000007,-0.08919754745649056
-0.09260000000000007,-0.08925413590848516
-0.09360000000000007,-0.08916925323049325
-0.09460000000000007,-0.08888631097052026
-0.09560000000000007,-0.0886458100495432
-0.09660000000000007,-0.0886458100495432
-0.09760000000000008,-0.08868825138853914
-0.09860000000000008,-0.08857507448454995
-0.09960000000000008,-0.08832042645057424
-0.10060000000000008,-0.08807992552959719
-0.10160000000000008,-0.08805163130359987
-0.10260000000000008,-0.08809407264259583
-0.10360000000000008,-0.08798089573860662
-0.10460000000000008,-0.08772624770463092
-0.10560000000000008,-0.08747159967065522
-0.10660000000000008,-0.0874433054446579
-0.10760000000000008,-0.08749989389665253
-0.10860000000000009,-0.08737256987966466
-0.10960000000000009,-0.08711792184568896
-0.11060000000000009,-0.08686327381171326
-0.11160000000000009,-0.08683497958571595
-0.11260000000000009,-0.08689156803771056
-0.11360000000000009,-0.0867642440207227
-0.11460000000000009,-0.086509595986747
-0.11560000000000009,-0.0862832421787686
-0.11660000000000009,-0.08621250661377533
-0.1176000000000001,-0.08626909506576994
-0.1186000000000001,-0.08615591816178074
-0.1196000000000001,-0.08585882878880907
-0.1206000000000001,-0.08561832786783201
-0.1216000000000001,-0.08557588652883606
-0.1226000000000001,-0.08561832786783201
-0.1236000000000001,-0.08551929807684147
-0.1246000000000001,-0.08520806159087116
-0.1256000000000001,-0.08498170778289275
-0.1266000000000001,-0.0849392664438968
-0.1276000000000001,-0.0849958548958914
-0.1286000000000001,-0.08486853087890354
-0.1296000000000001,-0.0845714415059319
-0.1306000000000001,-0.08433094058495484
-0.1316000000000001,-0.08431679347195618
-0.1326000000000001,-0.08435923481095214
-0.1336000000000001,-0.08424605790696293
-0.1346000000000001,-0.08399140987298723
-0.1356000000000001,-0.08373676183901152
-0.1366000000000001,-0.08370846761301422
-0.1376000000000001,-0.08375090895201018
-0.1386000000000001,-0.08363773204802097
-0.1396000000000001,-0.08338308401404526
-0.1406000000000001,-0.08312843598006955
-0.14160000000000011,-0.08312843598006955
-0.14260000000000012,-0.08318502443206416
-0.14360000000000012,-0.0830577004150763
-0.14460000000000012,-0.08278890526810194
-0.14560000000000012,-0.08253425723412625
-0.14660000000000012,-0.08253425723412625
-0.14760000000000012,-0.08259084568612084
-0.14860000000000012,-0.08247766878213163
-0.14960000000000012,-0.08222302074815592
-0.15060000000000012,-0.08196837271418023
-0.15160000000000012,-0.08194007848818292
-0.15260000000000012,-0.08201081405317617
-0.15360000000000013,-0.08189763714918698
-0.15460000000000013,-0.08162884200221261
-0.15560000000000013,-0.08138834108123556
-0.15660000000000013,-0.0813458997422396
-0.15760000000000013,-0.08143078242023151
-0.15860000000000013,-0.08131760551624231
-0.15960000000000002,-0.08106295748226659
-0.16060000000000002,-0.08085075078728685
-0.16160000000000002,-0.08079416233529225
-0.16260000000000002,-0.0808931921262828
-0.16360000000000002,-0.08079416233529225
-0.16460000000000002,-0.08051122007531925
-0.16560000000000002,-0.08035560183233408
-0.16660000000000003,-0.08036974894533275
-0.16760000000000003,-0.08039804317133004
-0.16860000000000003,-0.08028486626734083
-0.16960000000000003,-0.08001607112036647
-0.17060000000000003,-0.07978971731238807
-0.17160000000000003,-0.07983215865138403
-0.17260000000000003,-0.07986045287738132
-0.17360000000000003,-0.07977557019938941
-0.17460000000000003,-0.07952092216541372
-0.17560000000000003,-0.0792945683574353
-0.17660000000000003,-0.0793228625834326
-0.17760000000000004,-0.07939359814842585
-0.17860000000000004,-0.07928042124443666
-0.17960000000000004,-0.07903992032345959
-0.18060000000000004,-0.07881356651548119
-0.18160000000000004,-0.07884186074147849
-0.18260000000000004,-0.07891259630647175
-0.18360000000000004,-0.07882771362847985
-0.18460000000000004,-0.07858721270750278
-0.18560000000000004,-0.07834671178652573
-0.18660000000000004,-0.07837500601252304
-0.18760000000000004,-0.07845988869051494
-0.18860000000000005,-0.07836085889952438
-0.18960000000000005,-0.07810621086554868
-0.19060000000000005,-0.07792229839656621
-0.19160000000000005,-0.07793644550956487
-0.19260000000000005,-0.07804962241355407
-0.19360000000000005,-0.07795059262256351
-0.19460000000000005,-0.07769594458858782
-0.19560000000000005,-0.0774978850066067
-0.19660000000000005,-0.0774978850066067
-0.19760000000000005,-0.07761106191059591
-0.19860000000000005,-0.077526179232604
-0.19960000000000006,-0.07725738408562965
-0.20060000000000006,-0.0770734716166472
-0.20160000000000006,-0.0771017658426445
-0.20260000000000006,-0.07720079563363505
-0.20360000000000006,-0.0771300600686418
-0.20460000000000006,-0.07688955914766474
-0.20560000000000006,-0.0767056466786823
-0.20660000000000006,-0.0767339409046796
-0.20760000000000006,-0.07681882358267149
-0.20860000000000006,-0.07674808801767824
-0.20960000000000006,-0.07650758709670118
-0.21060000000000006,-0.07633782174071738
-0.21160000000000007,-0.07638026307971334
-0.21260000000000007,-0.07647929287070389
-0.21360000000000007,-0.07640855730571063
-0.21460000000000007,-0.07615390927173492
-0.21560000000000007,-0.07598414391575113
-0.21660000000000007,-0.07605487948074438
-0.21760000000000007,-0.07618220349773222
-0.21860000000000007,-0.07606902659374302
-0.21960000000000007,-0.07584267278576462
-0.22060000000000007,-0.07565876031678216
-0.22160000000000007,-0.07572949588177541
-0.22260000000000008,-0.07582852567276598
-0.22360000000000008,-0.07574364299477407
-0.22460000000000008,-0.07553143629979431
-0.22560000000000008,-0.07534752383081185
-0.22660000000000008,-0.0754182593958051
-0.22760000000000008,-0.07553143629979431
-0.22860000000000008,-0.0754465536218024
-0.22960000000000008,-0.07523434692682264
-0.23060000000000008,-0.07506458157083885
-0.23160000000000008,-0.0751353171358321
-0.23260000000000008,-0.07524849403982131
-0.23360000000000009,-0.07516361136182939
-0.2346000000000001,-0.07496555177984829
-0.2356000000000001,-0.0747957864238645
-0.2366000000000001,-0.07485237487585908
-0.2376000000000001,-0.07497969889284695
-0.2386000000000001,-0.0749089633278537
-0.2396000000000001,-0.07468260951987529
-0.2406000000000001,-0.07454113838988878
-0.2416000000000001,-0.07458357972888473
-0.2426000000000001,-0.07473919797186988
-0.2436000000000001,-0.07466846240687663
-0.2446000000000001,-0.07442796148589957
-0.2456000000000001,-0.07430063746891173
-0.2466000000000001,-0.07435722592090632
-0.2476000000000001,-0.07449869705089282
-0.2486000000000001,-0.07444210859889823
-0.2496000000000001,-0.07421575479091982
-0.2506000000000001,-0.07403184232193737
-0.2516000000000001,-0.07414501922592658
-0.2526000000000001,-0.07425819612991578
-0.2536000000000001,-0.07421575479091982
-0.2546000000000001,-0.07401769520893872
-0.2556000000000001,-0.07383378273995628
-0.2566000000000001,-0.0739328125309468
-0.2576000000000001,-0.07406013654793467
-0.2586000000000001,-0.07400354809594006
-0.2596000000000001,-0.0738196356269576
-0.2606000000000001,-0.07363572315797516
-0.2616000000000001,-0.07374890006196436
-0.2626000000000001,-0.07389037119195085
-0.2636000000000001,-0.07380548851395898
-0.2646000000000001,-0.0736215760449765
-0.2656000000000001,-0.07346595780199136
-0.2666000000000001,-0.07356498759298191
-0.2676000000000001,-0.07370645872296841
-0.2686000000000001,-0.0736498702709738
-0.2696000000000001,-0.0734518106889927
-0.2706000000000001,-0.07332448667200485
-0.2716000000000001,-0.07340936934999676
-0.2726000000000001,-0.07355084047998325
-0.2736000000000001,-0.07348010491499
-0.2746000000000001,-0.0732820453330089
-0.2756000000000001,-0.07315472131602105
-0.2766000000000001,-0.0732537511070116
-0.2776000000000001,-0.07338107512399945
-0.2786000000000001,-0.0733386337850035
-0.2796000000000001,-0.07312642709002375
-0.2806000000000001,-0.07301325018603454
-0.28160000000000013,-0.0731122799770251
-0.28260000000000013,-0.0732254568810143
-0.28360000000000013,-0.07319716265501701
-0.2846,-0.07298495596003725
-0.2856,-0.07287177905604804
-0.2866,-0.07297080884703859
-0.2876,-0.07309813286402644
-0.2886,-0.07306983863802914
-0.2896,-0.07287177905604804
-0.2906,-0.07271616081306288
-0.2916,-0.07285763194304938
-0.2926,-0.07298495596003725
-0.2936,-0.07295666173403995
-0.29460000000000003,-0.0727727492650575
-0.29560000000000003,-0.07263127813507098
-0.29660000000000003,-0.07274445503906019
-0.29760000000000003,-0.0728859261690467
-0.29860000000000003,-0.07282933771705208
-0.29960000000000003,-0.07265957236106828
-0.30060000000000003,-0.07251810123108177
-0.30160000000000003,-0.07264542524806963
-0.30260000000000004,-0.0727727492650575
-0.30360000000000004,-0.07270201370006424
-0.30460000000000004,-0.07256054257007773
-0.30560000000000004,-0.07241907144009123
-0.30660000000000004,-0.07254639545707908
-0.30760000000000004,-0.07268786658706558
-0.30860000000000004,-0.07263127813507098
-0.30960000000000004,-0.07246151277908719
-0.31060000000000004,-0.07234833587509798
-0.31160000000000004,-0.07244736566608852
-0.31260000000000004,-0.07260298390907369
-0.31360000000000005,-0.07254639545707908
-0.31460000000000005,-0.07236248298809662
-0.31560000000000005,-0.07224930608410743
-0.31660000000000005,-0.07236248298809662
-0.31760000000000005,-0.07250395411808314
-0.31860000000000005,-0.07246151277908719
-0.31960000000000005,-0.07232004164910069
-0.32060000000000005,-0.07220686474511147
-0.32160000000000005,-0.07227760031010473
-0.32260000000000005,-0.07243321855308989
-0.32360000000000005,-0.07240492432709257
-0.32460000000000006,-0.07222101185811013
-0.32560000000000006,-0.07212198206711957
-0.32660000000000006,-0.07222101185811013
-0.32760000000000006,-0.07234833587509798
-0.32860000000000006,-0.07232004164910069
-0.32960000000000006,-0.07213612918011822
-0.33060000000000006,-0.07202295227612901
-0.33160000000000006,-0.07215027629311688
-0.33260000000000006,-0.07227760031010473
-0.33360000000000006,-0.07223515897110877
-0.33460000000000006,-0.07207954072812363
-0.33560000000000006,-0.07195221671113576
-0.33660000000000007,-0.07207954072812363
-0.33760000000000007,-0.07222101185811013
-0.33860000000000007,-0.07217857051911417
-0.33960000000000007,-0.07199465805013172
-0.34060000000000007,-0.07188148114614251
-0.34160000000000007,-0.07200880516313038
-0.34260000000000007,-0.07215027629311688
-0.34360000000000007,-0.07210783495412092
-0.3446000000000001,-0.07193806959813712
-0.3456000000000001,-0.07185318692014521
-0.3466000000000001,-0.07195221671113576
-0.34759999999999996,-0.07210783495412092
-0.3486000000000001,-0.07205124650212633
-0.34959999999999997,-0.07188148114614251
-0.3506000000000001,-0.07178245135515196
-0.35159999999999997,-0.07190977537213981
-0.3526000000000001,-0.07205124650212633
-0.35359999999999997,-0.07199465805013172
-0.3546000000000001,-0.07181074558114926
-0.35559999999999997,-0.07172586290315736
-0.3566000000000001,-0.07181074558114926
-0.3576,-0.07198051093713306
-0.3586000000000001,-0.07195221671113576
-0.3596,-0.07175415712915466
-0.3606000000000001,-0.07166927445116276
-0.3616,-0.07176830424215332
-0.3626000000000001,-0.07190977537213981
-0.3636,-0.07188148114614251
-0.3646000000000001,-0.0717117157901587
-0.3656,-0.0715985388861695
-0.3666000000000001,-0.07172586290315736
-0.3676,-0.07185318692014521
-0.3686000000000001,-0.07182489269414791
-0.3696,-0.07164098022516545
-0.3706000000000001,-0.0715702446601722
-0.3716,-0.0717117157901587
-0.3726000000000001,-0.0717965984681506
-0.3736,-0.07178245135515196
-0.3746000000000001,-0.07161268599916816
-0.3756,-0.07151365620817761
-0.3766000000000001,-0.07164098022516545
-0.3776,-0.07178245135515196
-0.3786000000000001,-0.07174001001615601
-0.3796,-0.0715702446601722
-0.3806000000000001,-0.07147121486918166
-0.3816,-0.0715985388861695
-0.3826000000000001,-0.07175415712915466
-0.3836,-0.0717117157901587
-0.3846000000000001,-0.07155609754717356
-0.3856,-0.07145706775618299
-0.3866000000000001,-0.07158439177317086
-0.3876,-0.07172586290315736
-0.3886000000000001,-0.07166927445116276
-0.3896,-0.07152780332117625
-0.3906000000000001,-0.07145706775618299
-0.3916,-0.07158439177317086
-0.3926000000000001,-0.0717117157901587
-0.3936,-0.07166927445116276
-0.3946000000000001,-0.07152780332117625
-0.3956,-0.07145706775618299
-0.3966000000000001,-0.0715702446601722
-0.3976,-0.0717117157901587
-0.3986000000000001,-0.0717117157901587
-0.3996,-0.07154195043417491
-0.4006000000000001,-0.07147121486918166
-0.4016,-0.0715985388861695
-0.4026000000000001,-0.07174001001615601
-0.4036,-0.07172586290315736
-0.4046000000000001,-0.0715702446601722
-0.4056,-0.07149950909517895
-0.40660000000000013,-0.0716268331121668
-0.4076,-0.07178245135515196
-0.40860000000000013,-0.0717965984681506
-0.4096,-0.07164098022516545
-0.41060000000000013,-0.07158439177317086
-0.4116,-0.07172586290315736
-0.41260000000000013,-0.07189562825914117
-0.4136,-0.07188148114614251
-0.41460000000000014,-0.07175415712915466
-0.4156,-0.07168342156416141
-0.41660000000000014,-0.07185318692014521
-0.4176,-0.07200880516313038
-0.41860000000000014,-0.07199465805013172
-0.41960000000000003,-0.07186733403314385
-0.42060000000000014,-0.07182489269414791
-0.42160000000000003,-0.07202295227612901
-0.42260000000000014,-0.07220686474511147
-0.42360000000000003,-0.07216442340611552
-0.42460000000000014,-0.07206539361512497
-0.42560000000000003,-0.07202295227612901
-0.42660000000000015,-0.07219271763211282
-0.42760000000000004,-0.07237663010109527
-0.42860000000000015,-0.07239077721409394
-0.42960000000000004,-0.07229174742310338
-0.43060000000000015,-0.07226345319710607
-0.43160000000000004,-0.07243321855308989
-0.43260000000000015,-0.07263127813507098
-0.43360000000000004,-0.07265957236106828
-0.43460000000000015,-0.07257468968307638
-0.43560000000000004,-0.07257468968307638
-0.43660000000000015,-0.07274445503906019
