Potential V vs RHE, Current mA cm-2
0.05339999999999995,-0.038154763757360044
0.05239999999999995,-0.03928653279725207
0.051399999999999946,-0.03999388844718459
0.050399999999999945,-0.04051733162813465
0.049399999999999944,-0.04098418635709011
0.04839999999999994,-0.041451041086045574
0.04739999999999994,-0.04196033715399699
0.04639999999999994,-0.04237060343095785
0.04539999999999994,-0.04276672259492006
0.04439999999999994,-0.043106253306887665
0.04339999999999994,-0.04348822535785123
0.04239999999999994,-0.043912638747810734
0.04139999999999994,-0.0443229050247716
0.040399999999999936,-0.04471902418873381
0.039399999999999935,-0.045100996239697363
0.038399999999999934,-0.04546882117766228
0.03739999999999993,-0.045893234567621795
0.03639999999999993,-0.046331795070579954
0.03539999999999993,-0.046699620008544857
0.03439999999999993,-0.04705329783351112
0.03339999999999993,-0.04744941699747333
0.03239999999999993,-0.04788797750043149
0.03139999999999993,-0.048284096664393705
0.030399999999999927,-0.048637774489359964
0.029399999999999926,-0.04901974654032352
0.028399999999999925,-0.04941586570428573
0.027399999999999924,-0.04986857332024254
0.026399999999999924,-0.05027883959720341
0.025399999999999923,-0.05063251742216966
0.024399999999999922,-0.05100034236013457
0.02339999999999992,-0.051410608637095435
0.02239999999999992,-0.0518491691400536
0.02139999999999992,-0.05233017098200771
0.020399999999999918,-0.05272629014596992
0.019399999999999917,-0.05312240930993213
0.018399999999999916,-0.053504381360895685
0.017399999999999916,-0.053971236089851146
0.016399999999999915,-0.05440979659280931
0.015399999999999914,-0.05480591575677152
0.014399999999999913,-0.05518788780773508
0.013399999999999912,-0.055598154084695935
0.012399999999999911,-0.056022567474655456
0.01139999999999991,-0.05643283375161631
0.01039999999999991,-0.05685724714157582
0.009399999999999908,-0.057281660531535335
0.008399999999999908,-0.05767777969549755
0.007399999999999907,-0.05811634019845571
0.006399999999999906,-0.058554900701413864
0.005399999999999905,-0.05896516697837473
0.004399999999999904,-0.05936128614233694
0.003399999999999903,-0.05978569953229645
0.002399999999999902,-0.06026670137425057
0.0013999999999999013,-0.06067696765121142
0.00039999999999990044,-0.06112967526716823
-0.0006000000000001005,-0.061554088657127755
-0.0016000000000001013,-0.06196435493408861
-0.0026000000000001022,-0.06244535677604271
-0.003600000000000103,-0.06289806439199953
-0.004600000000000104,-0.06332247778195904
-0.005600000000000105,-0.0638176267369118
-0.006600000000000106,-0.06428448146586727
-0.007600000000000107,-0.06476548330782138
-0.008600000000000108,-0.06528892648877145
-0.009600000000000108,-0.0657274869917296
-0.01060000000000011,-0.06618019460768641
-0.01160000000000011,-0.06664704933664188
-0.012600000000000111,-0.06717049251759194
-0.013600000000000112,-0.06765149435954605
-0.014600000000000113,-0.06809005486250422
-0.015600000000000114,-0.06854276247846103
-0.016600000000000115,-0.06899547009441785
-0.017600000000000116,-0.06944817771037465
-0.018600000000000116,-0.06991503243933012
-0.019600000000000117,-0.07039603428128423
-0.020600000000000118,-0.07087703612323834
-0.02160000000000012,-0.0713438908521938
-0.02260000000000012,-0.07182489269414791
-0.02360000000000012,-0.07229174742310338
-0.024600000000000122,-0.07281519060405345
-0.025600000000000123,-0.07323960399401294
-0.026600000000000124,-0.07373475294896571
-0.027600000000000124,-0.07418746056492254
-0.028600000000000125,-0.07473919797186988
-0.029600000000000126,-0.07522019981382401
-0.030600000000000127,-0.07565876031678216
-0.03160000000000013,-0.07616805638473358
-0.03260000000000013,-0.07663491111368903
-0.03360000000000013,-0.07711591295564316
-0.03460000000000002,-0.07761106191059591
-0.03560000000000002,-0.07806376952655272
-0.03660000000000002,-0.07858721270750278
-0.03760000000000002,-0.07913895011445016
-0.03860000000000002,-0.07963409906940291
-0.039600000000000024,-0.08007265957236107
-0.040600000000000025,-0.08055366141431519
-0.041600000000000026,-0.0809780748042747
-0.04260000000000003,-0.0814873708722261
-0.04360000000000003,-0.08199666694017753
-0.04460000000000003,-0.08246352166913298
-0.04560000000000003,-0.0828879350590925
-0.04660000000000003,-0.0833972311270439
-0.04760000000000003,-0.08387823296899803
-0.04860000000000003,-0.08435923481095214
-0.04960000000000003,-0.08475535397491435
-0.050600000000000034,-0.08516562025187521
-0.051600000000000035,-0.08564662209382931
-0.052600000000000036,-0.08615591816178074
-0.053600000000000037,-0.0866510671167335
-0.05460000000000004,-0.08711792184568896
-0.05560000000000004,-0.08754233523564847
-0.05660000000000004,-0.08800918996460394
-0.05760000000000004,-0.08847604469355938
-0.05860000000000004,-0.08902778210050676
-0.05960000000000004,-0.08946634260346491
-0.06060000000000004,-0.08984831465442847
-0.061600000000000044,-0.09027272804438799
-0.06260000000000004,-0.09076787699934075
-0.06360000000000005,-0.0912630259542935
-0.06460000000000005,-0.09170158645725168
-0.06560000000000005,-0.09212599984721119
-0.06660000000000005,-0.09257870746316801
-0.06760000000000005,-0.09305970930512211
-0.06860000000000005,-0.09345582846908432
-0.06960000000000005,-0.09385194763304654
-0.07060000000000005,-0.09427636102300604
-0.07160000000000005,-0.09468662729996691
-0.07260000000000005,-0.09516762914192102
-0.07360000000000005,-0.09557789541888188
-0.07460000000000006,-0.09598816169584275
-0.07560000000000006,-0.09639842797280361
-0.07660000000000006,-0.0967945471367658
-0.07760000000000006,-0.09717651918772936
-0.07860000000000006,-0.09761507969068753
-0.07960000000000006,-0.09799705174165109
-0.08060000000000006,-0.09835072956661735
-0.08160000000000006,-0.09873270161758091
-0.08260000000000006,-0.09919955634653636
-0.08360000000000006,-0.09962396973649587
-0.08460000000000006,-0.09994935333546484
-0.08560000000000006,-0.10028888404743246
-0.08660000000000007,-0.10065670898539736
-0.08760000000000007,-0.10103868103636092
-0.08860000000000007,-0.10149138865231773
-0.08960000000000007,-0.1019016549292786
-0.09060000000000007,-0.10222703852824755
-0.09160000000000007,-0.1025241279012192
-0.09260000000000007,-0.10290609995218276
-0.09360000000000007,-0.10325977777714902
-0.09460000000000007,-0.10355686715012069
-0.09560000000000007,-0.10389639786208829
-0.09660000000000007,-0.10422178146105725
-0.09760000000000008,-0.10456131217302486
-0.09860000000000008,-0.10491498999799112
-0.09960000000000008,-0.10522622648396143
-0.10060000000000008,-0.10550916874393444
-0.10160000000000008,-0.10584869945590204
-0.10260000000000008,-0.10621652439386696
-0.10360000000000008,-0.10648531954084133
-0.10460000000000008,-0.10675411468781566
-0.10560000000000008,-0.10707949828678462
-0.10660000000000008,-0.10737658765975629
-0.10760000000000008,-0.10771611837172389
-0.10860000000000009,-0.10801320774469556
-0.10960000000000009,-0.1082254144396753
-0.11060000000000009,-0.10846591536065237
-0.11160000000000009,-0.10870641628162941
-0.11260000000000009,-0.10897521142860378
-0.11360000000000009,-0.10924400657557813
-0.11460000000000009,-0.10952694883555114
-0.11560000000000009,-0.10971086130453359
-0.11660000000000009,-0.10988062666051741
-0.1176000000000001,-0.1101352746944931
-0.1186000000000001,-0.11041821695446612
-0.1196000000000001,-0.11055968808445263
-0.1206000000000001,-0.11070115921443913
-0.1216000000000001,-0.11088507168342157
-0.1226000000000001,-0.11115386683039592
-0.1236000000000001,-0.11140851486437164
-0.1246000000000001,-0.11156413310735679
-0.1256000000000001,-0.1117621926893379
-0.1266000000000001,-0.11191781093232304
-0.1276000000000001,-0.11211587051430415
-0.1286000000000001,-0.11224319453129203
-0.1296000000000001,-0.11241295988727582
-0.1306000000000001,-0.11258272524325963
-0.1316000000000001,-0.11275249059924342
-0.1326000000000001,-0.11292225595522724
-0.1336000000000001,-0.11312031553720833
-0.1346000000000001,-0.11321934532819887
-0.1356000000000001,-0.11336081645818537
-0.1366000000000001,-0.11347399336217459
-0.1376000000000001,-0.11355887604016648
-0.1386000000000001,-0.1136720529441557
-0.1396000000000001,-0.1137852298481449
-0.1406000000000001,-0.1139549952041287
-0.14160000000000011,-0.11403987788212061
-0.14260000000000012,-0.11415305478610982
-0.14360000000000012,-0.11425208457710037
-0.14460000000000012,-0.1143228201420936
-0.14560000000000012,-0.11435111436809091
-0.14660000000000012,-0.11439355570708687
-0.14760000000000012,-0.11453502683707338
-0.14860000000000012,-0.11463405662806392
-0.14960000000000012,-0.11469064508005854
-0.15060000000000012,-0.11467649796705988
-0.15160000000000012,-0.11470479219305717
-0.15260000000000012,-0.11484626332304368
-0.15360000000000013,-0.11491699888803693
-0.15460000000000013,-0.11498773445303019
-0.15560000000000013,-0.11504432290502477
-0.15660000000000013,-0.11498773445303019
-0.15760000000000013,-0.11504432290502477
-0.15860000000000013,-0.11517164692201265
-0.15960000000000002,-0.11524238248700588
-0.16060000000000002,-0.11517164692201265
-0.16160000000000002,-0.11514335269601533
-0.16260000000000002,-0.11522823537400724
-0.16360000000000002,-0.11528482382600183
-0.16460000000000002,-0.11529897093900049
-0.16560000000000002,-0.11534141227799644
-0.16660000000000003,-0.11532726516499778
-0.16760000000000003,-0.11536970650399375
-0.16860000000000003,-0.11548288340798295
-0.16960000000000003,-0.1154687362949843
-0.17060000000000003,-0.1154121478429897
-0.17160000000000003,-0.1154121478429897
-0.17260000000000003,-0.11551117763398025
-0.17360000000000003,-0.11548288340798295
-0.17460000000000003,-0.11542629495598833
-0.17560000000000003,-0.11542629495598833
-0.17660000000000003,-0.11539800072999104
-0.17760000000000004,-0.11536970650399375
-0.17860000000000004,-0.11536970650399375
-0.17960000000000004,-0.11534141227799644
-0.18060000000000004,-0.11532726516499778
-0.18160000000000004,-0.11539800072999104
-0.18260000000000004,-0.11544044206898699
-0.18360000000000004,-0.11539800072999104
-0.18460000000000004,-0.11534141227799644
-0.18560000000000004,-0.11522823537400724
-0.18660000000000004,-0.11510091135701939
-0.18760000000000004,-0.1150726171310221
-0.18860000000000005,-0.1150726171310221
-0.18960000000000005,-0.11498773445303019
-0.19060000000000005,-0.11494529311403422
-0.19160000000000005,-0.11490285177503827
-0.19260000000000005,-0.11490285177503827
-0.19360000000000005,-0.11493114600103559
-0.19460000000000005,-0.11493114600103559
-0.19560000000000005,-0.11490285177503827
-0.19660000000000005,-0.11474723353205314
-0.19760000000000005,-0.11476138064505177
-0.19860000000000005,-0.11483211621004503
-0.19960000000000006,-0.11473308641905447
-0.20060000000000006,-0.11469064508005854
-0.20160000000000006,-0.11471893930605583
-0.20260000000000006,-0.11486041043604232
-0.20360000000000006,-0.11491699888803693
-0.20460000000000006,-0.11491699888803693
-0.20560000000000006,-0.11478967487104909
-0.20660000000000006,-0.11470479219305717
-0.20760000000000006,-0.11473308641905447
-0.20860000000000006,-0.11476138064505177
-0.20960000000000006,-0.1146623508540612
-0.21060000000000006,-0.11453502683707338
-0.21160000000000007,-0.11447843838507876
-0.21260000000000007,-0.11440770282008553
-0.21360000000000007,-0.11437940859408821
-0.21460000000000007,-0.11443599704608282
-0.21560000000000007,-0.11436526148108955
-0.21660000000000007,-0.11428037880309765
-0.21760000000000007,-0.11437940859408821
-0.21860000000000007,-0.11437940859408821
-0.21960000000000007,-0.11429452591609632
-0.22060000000000007,-0.11425208457710037
-0.22160000000000007,-0.11419549612510577
-0.22260000000000008,-0.11420964323810441
-0.22360000000000008,-0.1140964663341152
-0.22460000000000008,-0.11399743654312465
-0.22560000000000008,-0.11387011252613681
-0.22660000000000008,-0.1138418183001395
-0.22760000000000008,-0.11391255386513276
-0.22860000000000008,-0.11396914231712736
-0.22960000000000008,-0.11392670097813141
-0.23060000000000008,-0.11392670097813141
-0.23160000000000008,-0.11385596541313814
-0.23260000000000008,-0.11396914231712736
-0.23360000000000009,-0.11396914231712736
-0.2346000000000001,-0.1138984067521341
-0.2356000000000001,-0.11392670097813141
-0.2366000000000001,-0.11403987788212061
-0.2376000000000001,-0.11403987788212061
-0.2386000000000001,-0.1140964663341152
-0.2396000000000001,-0.11413890767311115
-0.2406000000000001,-0.11413890767311115
-0.2416000000000001,-0.11420964323810441
-0.2426000000000001,-0.11419549612510577
-0.2436000000000001,-0.11429452591609632
-0.2446000000000001,-0.11426623169009903
-0.2456000000000001,-0.11436526148108955
-0.2466000000000001,-0.11445014415908147
-0.2476000000000001,-0.11446429127208012
-0.2486000000000001,-0.11460576240206662
-0.2496000000000001,-0.11467649796705988
-0.2506000000000001,-0.11474723353205314
-0.2516000000000001,-0.11476138064505177
-0.2526000000000001,-0.11488870466203964
-0.2536000000000001,-0.11498773445303019
-0.2546000000000001,-0.11498773445303019
-0.2556000000000001,-0.11517164692201265
-0.2566000000000001,-0.11522823537400724
-0.2576000000000001,-0.11531311805199915
-0.2586000000000001,-0.1155536189729762
-0.2596000000000001,-0.11553947185997754
-0.2606000000000001,-0.11570923721596137
-0.2616000000000001,-0.11593559102393976
-0.2626000000000001,-0.11603462081493031
-0.2636000000000001,-0.11616194483191816
-0.2646000000000001,-0.11623268039691143
-0.2656000000000001,-0.11650147554388576
-0.2666000000000001,-0.11664294667387226
-0.2676000000000001,-0.11681271202985609
-0.2686000000000001,-0.11708150717683044
-0.2696000000000001,-0.1172937138718102
-0.2706000000000001,-0.11743518500179671
-0.2716000000000001,-0.1175483619057859
-0.2726000000000001,-0.1178030099397616
-0.2736000000000001,-0.11793033395674946
-0.2746000000000001,-0.1181708348777265
-0.2756000000000001,-0.11818498199072516
-0.2766000000000001,-0.11831230600771302
-0.2776000000000001,-0.11853865981569144
-0.2786000000000001,-0.11879330784966712
-0.2796000000000001,-0.11907625010964012
-0.2806000000000001,-0.11972701730757807
-0.28160000000000013,-0.12003825379354836
-0.28260000000000013,-0.12015143069753757
-0.28360000000000013,-0.12042022584451192
-0.2846,-0.12054754986149978
-0.2856,-0.12081634500847413
-0.2866,-0.12100025747745657
-0.2876,-0.12121246417243635
-0.2886,-0.12133978818942417
-0.2896,-0.12148125931941069
-0.2906,-0.12160858333639855
-0.2916,-0.12190567270937022
-0.2926,-0.12201884961335942
-0.2936,-0.12223105630833916
-0.29460000000000003,-0.12252814568131082
-0.29560000000000003,-0.12258473413330541
-0.29660000000000003,-0.12272620526329193
-0.29760000000000003,-0.1231930599922474
-0.29860000000000003,-0.12350429647821769
-0.29960000000000003,-0.12349014936521906
-0.30060000000000003,-0.12357503204321095
-0.30160000000000003,-0.12388626852918126
-0.30260000000000004,-0.12416921078915429
-0.30360000000000004,-0.12446630016212593
-0.30460000000000004,-0.12470680108310296
-0.30560000000000004,-0.1248765664390868
-0.30660000000000004,-0.12508877313406655
-0.30760000000000004,-0.12537171539403955
-0.30860000000000004,-0.12562636342801525
-0.30960000000000004,-0.12592345280098693
-0.31060000000000004,-0.12624883639995585
-0.31160000000000004,-0.12653177865992887
-0.31260000000000004,-0.12671569112891135
-0.31360000000000005,-0.12694204493688974
-0.31460000000000005,-0.12719669297086547
-0.31560000000000005,-0.12764940058682225
-0.31660000000000005,-0.12781916594280607
-0.31760000000000005,-0.12813040242877638
-0.31860000000000005,-0.1285831100447332
-0.31960000000000005,-0.12893678786969942
-0.32060000000000005,-0.12926217146866842
-0.32160000000000005,-0.12964414351963197
-0.32260000000000005,-0.13015343958758338
-0.32360000000000005,-0.1305778529775429
-0.32460000000000006,-0.13101641348050105
-0.32560000000000006,-0.13132764996647137
-0.32660000000000006,-0.13170962201743494
-0.32760000000000006,-0.13221891808538633
-0.32860000000000006,-0.13296871507431476
-0.32960000000000006,-0.1334214226902716
-0.33060000000000006,-0.1336336293852514
-0.33160000000000006,-0.13384583608023112
-0.33260000000000006,-0.13428439658318927
-0.33360000000000006,-0.13475125131214474
-0.33460000000000006,-0.13506248779811506
-0.33560000000000006,-0.13543031273607994
-0.33660000000000007,-0.13598205014302733
-0.33760000000000007,-0.13632158085499493
-0.33860000000000007,-0.13680258269694906
-0.33960000000000007,-0.13729773165190182
-0.34060000000000007,-0.13760896813787213
-0.34160000000000007,-0.13811826420582352
-0.34260000000000007,-0.13861341316077627
-0.34360000000000007,-0.13898123809874122
-0.3446000000000001,-0.13953297550568855
-0.3456000000000001,-0.14015544847762917
-0.3466000000000001,-0.1406364503195833
-0.34759999999999996,-0.1410608637095428
-0.3486000000000001,-0.14161260111649018
-0.34959999999999997,-0.1420370145064497
-0.3506000000000001,-0.1424614278964092
-0.35159999999999997,-0.1428858412863687
-0.3526000000000001,-0.1433102546763282
-0.35359999999999997,-0.14401761032626076
-0.3546000000000001,-0.14458349484620675
-0.35559999999999997,-0.14500790823616627
-0.3566000000000001,-0.14571526388609876
-0.3576,-0.14628114840604478
-0.3586000000000001,-0.14684703292599083
-0.3596,-0.14755438857592332
-0.3606000000000001,-0.14797880196588284
-0.3616,-0.14840321535584233
-0.3626000000000001,-0.14911057100577488
-0.3636,-0.1498179266557074
-0.3646000000000001,-0.1503838111756534
-0.3656,-0.1509496956955994
-0.3666000000000001,-0.15151558021554543
-0.3676,-0.15208146473549145
-0.3686000000000001,-0.15278882038542396
-0.3696,-0.15349617603535648
-0.3706000000000001,-0.154203531685289
-0.3716,-0.15476941620523502
-0.3726000000000001,-0.15547677185516753
-0.3736,-0.15618412750510002
-0.3746000000000001,-0.15689148315503257
-0.3756,-0.1574573676749786
-0.3766000000000001,-0.15802325219492458
-0.3776,-0.1587306078448571
-0.3786000000000001,-0.15943796349478964
-0.3796,-0.16028679027470866
-0.3806000000000001,-0.16099414592464115
-0.3816,-0.1617015015745737
-0.3826000000000001,-0.1625503283544927
-0.3836,-0.16311621287443873
-0.3846000000000001,-0.16396503965435774
-0.3856,-0.16467239530429026
-0.3866000000000001,-0.1655212220842093
-0.3876,-0.16622857773414182
-0.3886000000000001,-0.1669359333840743
-0.3896,-0.16764328903400685
-0.3906000000000001,-0.16820917355395287
-0.3916,-0.16919947146385841
-0.3926000000000001,-0.17004829824377743
-0.3936,-0.17075565389370992
-0.3946000000000001,-0.17132153841365594
-0.3956,-0.17231183632356148
-0.3966000000000001,-0.173019191973494
-0.3976,-0.1737265476234265
-0.3986000000000001,-0.17457537440334553
-0.3996,-0.17542420118326454
-0.4006000000000001,-0.17641449909317006
-0.4016,-0.1771218547431026
-0.4026000000000001,-0.17797068152302162
-0.4036,-0.17867803717295414
-0.4046000000000001,-0.17966833508285968
-0.4056,-0.18037569073279217
-0.40660000000000013,-0.18122451751271118
-0.4076,-0.18221481542261672
-0.40860000000000013,-0.18306364220253574
-0.4096,-0.18391246898245475
-0.41060000000000013,-0.1847612957623738
-0.4116,-0.1854686514123063
-0.41260000000000013,-0.18631747819222533
-0.4136,-0.18702483384215784
-0.41460000000000014,-0.18787366062207686
-0.4156,-0.18872248740199588
-0.41660000000000014,-0.18957131418191492
-0.4176,-0.19042014096183393
-0.41860000000000014,-0.19126896774175295
-0.41960000000000003,-0.1922592656516585
-0.42060000000000014,-0.1931080924315775
-0.42160000000000003,-0.19409839034148305
-0.42260000000000014,-0.19508868825138856
-0.42360000000000003,-0.19593751503130757
-0.42460000000000014,-0.19692781294121312
-0.42560000000000003,-0.1974936974611591
-0.42660000000000015,-0.19834252424107812
-0.42760000000000004,-0.19904987989101067
-0.42860000000000015,-0.19989870667092968
-0.42960000000000004,-0.2008890045808352
-0.43060000000000015,-0.20187930249074074
-0.43160000000000004,-0.20286960040064628
-0.43260000000000015,-0.2037184271805653
-0.43360000000000004,-0.20470872509047083
-0.43460000000000015,-0.20555755187038985
-0.43560000000000004,-0.2065478497802954
-0.43660000000000015,-0.2073966765602144
