Oct. 21, 2024   06:09:52
Cyclic Voltammetry
File: c:/users/guazh/data/banditlqround3/2024-10-20-exp590\exp590-2024-10-21t05_40_23-h2koh\exp590_cv_sr_600mvs_efin_-2000mv.bin
Data Source:  Experiment
Instrument Model:  CHI760E
Header: CV ran at 600 mVs
Note: 

Init E (V) = -1
High E (V) = -1
Low E (V) = -2
Final E (V) = -1
Init P/N = N
Scan Rate (V/s) = 0.6
Segment = 3
Sample Interval (V) = 0.001
Quiet Time (sec) = 2
Sensitivity (A/V) = 0.01
Comp R (ohm) = 1.0

Results:

Channel 1:
Segment 1:
Ep = -1.409V
ip = 5.696e-5A
Ah = 6.794e-6C

Segment 2:
Ep = -1.185V
ip = -4.223e-5A
Ah = -7.356e-6C

Segment 3:

Potential/V, Current/A

-1.000, 6.322e-6
-1.001, 9.405e-6
-1.002, 1.249e-5
-1.003, 1.557e-5
-1.004, 1.865e-5
-1.005, 2.174e-5
-1.006, 2.174e-5
-1.007, 2.482e-5
-1.008, 2.790e-5
-1.009, 3.099e-5
-1.010, 3.099e-5
-1.011, 3.407e-5
-1.012, 3.407e-5
-1.013, 3.407e-5
-1.014, 3.715e-5
-1.015, 3.715e-5
-1.016, 4.024e-5
-1.017, 4.024e-5
-1.018, 4.024e-5
-1.019, 4.332e-5
-1.020, 4.332e-5
-1.021, 4.332e-5
-1.022, 4.332e-5
-1.023, 4.332e-5
-1.024, 4.332e-5
-1.025, 4.640e-5
-1.026, 4.640e-5
-1.027, 4.640e-5
-1.028, 4.949e-5
-1.029, 4.640e-5
-1.030, 4.949e-5
-1.031, 4.949e-5
-1.032, 4.949e-5
-1.033, 4.949e-5
-1.034, 4.949e-5
-1.035, 4.949e-5
-1.036, 4.949e-5
-1.037, 5.257e-5
-1.038, 5.257e-5
-1.039, 5.257e-5
-1.040, 5.257e-5
-1.041, 5.257e-5
-1.042, 5.565e-5
-1.043, 5.565e-5
-1.044, 5.565e-5
-1.045, 5.565e-5
-1.046, 5.565e-5
-1.047, 5.565e-5
-1.048, 5.565e-5
-1.049, 5.565e-5
-1.050, 5.565e-5
-1.051, 5.873e-5
-1.052, 5.873e-5
-1.053, 5.873e-5
-1.054, 5.873e-5
-1.055, 5.873e-5
-1.056, 5.873e-5
-1.057, 5.873e-5
-1.058, 5.873e-5
-1.059, 5.873e-5
-1.060, 5.873e-5
-1.061, 5.873e-5
-1.062, 5.873e-5
-1.063, 6.182e-5
-1.064, 5.873e-5
-1.065, 5.873e-5
-1.066, 5.873e-5
-1.067, 6.182e-5
-1.068, 6.182e-5
-1.069, 6.182e-5
-1.070, 6.182e-5
-1.071, 6.182e-5
-1.072, 6.182e-5
-1.073, 6.182e-5
-1.074, 6.182e-5
-1.075, 6.490e-5
-1.076, 6.490e-5
-1.077, 6.490e-5
-1.078, 6.490e-5
-1.079, 6.490e-5
-1.080, 6.490e-5
-1.081, 6.490e-5
-1.082, 6.490e-5
-1.083, 6.490e-5
-1.084, 6.798e-5
-1.085, 6.490e-5
-1.086, 6.798e-5
-1.087, 6.798e-5
-1.088, 6.798e-5
-1.089, 6.798e-5
-1.090, 6.798e-5
-1.091, 6.798e-5
-1.092, 6.798e-5
-1.093, 6.798e-5
-1.094, 6.798e-5
-1.095, 6.798e-5
-1.096, 7.107e-5
-1.097, 6.798e-5
-1.098, 7.107e-5
-1.099, 7.107e-5
-1.100, 6.798e-5
-1.101, 7.107e-5
-1.102, 7.107e-5
-1.103, 7.107e-5
-1.104, 7.107e-5
-1.105, 7.107e-5
-1.106, 6.798e-5
-1.107, 7.107e-5
-1.108, 7.107e-5
-1.109, 7.107e-5
-1.110, 7.107e-5
-1.111, 7.107e-5
-1.112, 7.107e-5
-1.113, 7.107e-5
-1.114, 7.107e-5
-1.115, 7.107e-5
-1.116, 7.107e-5
-1.117, 7.107e-5
-1.118, 7.107e-5
-1.119, 7.107e-5
-1.120, 7.107e-5
-1.121, 7.107e-5
-1.122, 7.107e-5
-1.123, 7.107e-5
-1.124, 7.107e-5
-1.125, 7.107e-5
-1.126, 7.107e-5
-1.127, 7.415e-5
-1.128, 7.415e-5
-1.129, 7.107e-5
-1.130, 7.415e-5
-1.131, 7.415e-5
-1.132, 7.107e-5
-1.133, 7.107e-5
-1.134, 7.415e-5
-1.135, 7.107e-5
-1.136, 7.107e-5
-1.137, 7.415e-5
-1.138, 7.107e-5
-1.139, 7.107e-5
-1.140, 7.107e-5
-1.141, 7.107e-5
-1.142, 7.107e-5
-1.143, 7.107e-5
-1.144, 7.107e-5
-1.145, 7.107e-5
-1.146, 7.107e-5
-1.147, 7.107e-5
-1.148, 7.107e-5
-1.149, 7.107e-5
-1.150, 7.107e-5
-1.151, 7.107e-5
-1.152, 7.107e-5
-1.153, 7.107e-5
-1.154, 7.107e-5
-1.155, 7.107e-5
-1.156, 7.107e-5
-1.157, 7.107e-5
-1.158, 7.107e-5
-1.159, 7.107e-5
-1.160, 7.107e-5
-1.161, 7.107e-5
-1.162, 7.107e-5
-1.163, 7.107e-5
-1.164, 7.107e-5
-1.165, 7.107e-5
-1.166, 7.107e-5
-1.167, 7.107e-5
-1.168, 7.107e-5
-1.169, 7.415e-5
-1.170, 7.107e-5
-1.171, 7.107e-5
-1.172, 7.107e-5
-1.173, 7.107e-5
-1.174, 7.107e-5
-1.175, 7.107e-5
-1.176, 7.107e-5
-1.177, 7.107e-5
-1.178, 7.107e-5
-1.179, 7.107e-5
-1.180, 7.415e-5
-1.181, 7.415e-5
-1.182, 7.107e-5
-1.183, 7.107e-5
-1.184, 7.107e-5
-1.185, 7.107e-5
-1.186, 7.107e-5
-1.187, 7.107e-5
-1.188, 7.107e-5
-1.189, 7.107e-5
-1.190, 7.107e-5
-1.191, 7.107e-5
-1.192, 7.107e-5
-1.193, 7.415e-5
-1.194, 7.107e-5
-1.195, 7.107e-5
-1.196, 7.415e-5
-1.197, 7.107e-5
-1.198, 7.415e-5
-1.199, 7.415e-5
-1.200, 7.415e-5
-1.201, 7.415e-5
-1.202, 7.415e-5
-1.203, 7.415e-5
-1.204, 7.415e-5
-1.205, 7.415e-5
-1.206, 7.415e-5
-1.207, 7.415e-5
-1.208, 7.415e-5
-1.209, 7.415e-5
-1.210, 7.415e-5
-1.211, 7.415e-5
-1.212, 7.415e-5
-1.213, 7.415e-5
-1.214, 7.415e-5
-1.215, 7.415e-5
-1.216, 7.415e-5
-1.217, 7.415e-5
-1.218, 7.415e-5
-1.219, 7.415e-5
-1.220, 7.415e-5
-1.221, 7.415e-5
-1.222, 7.415e-5
-1.223, 7.415e-5
-1.224, 7.415e-5
-1.225, 7.415e-5
-1.226, 7.415e-5
-1.227, 7.415e-5
-1.228, 7.415e-5
-1.229, 7.415e-5
-1.230, 7.415e-5
-1.231, 7.723e-5
-1.232, 7.415e-5
-1.233, 7.415e-5
-1.234, 7.415e-5
-1.235, 7.415e-5
-1.236, 7.415e-5
-1.237, 7.723e-5
-1.238, 7.723e-5
-1.239, 7.723e-5
-1.240, 7.723e-5
-1.241, 7.723e-5
-1.242, 7.723e-5
-1.243, 7.723e-5
-1.244, 7.723e-5
-1.245, 7.723e-5
-1.246, 7.723e-5
-1.247, 7.723e-5
-1.248, 7.723e-5
-1.249, 8.032e-5
-1.250, 7.723e-5
-1.251, 8.032e-5
-1.252, 8.032e-5
-1.253, 7.723e-5
-1.254, 7.723e-5
-1.255, 8.032e-5
-1.256, 7.723e-5
-1.257, 8.032e-5
-1.258, 8.032e-5
-1.259, 8.032e-5
-1.260, 8.032e-5
-1.261, 8.032e-5
-1.262, 8.032e-5
-1.263, 8.032e-5
-1.264, 8.032e-5
-1.265, 8.032e-5
-1.266, 8.032e-5
-1.267, 8.032e-5
-1.268, 8.032e-5
-1.269, 8.032e-5
-1.270, 8.032e-5
-1.271, 8.032e-5
-1.272, 8.032e-5
-1.273, 8.032e-5
-1.274, 8.032e-5
-1.275, 8.340e-5
-1.276, 8.032e-5
-1.277, 8.032e-5
-1.278, 8.340e-5
-1.279, 8.340e-5
-1.280, 8.340e-5
-1.281, 8.340e-5
-1.282, 8.340e-5
-1.283, 8.340e-5
-1.284, 8.340e-5
-1.285, 8.340e-5
-1.286, 8.340e-5
-1.287, 8.340e-5
-1.288, 8.340e-5
-1.289, 8.340e-5
-1.290, 8.648e-5
-1.291, 8.340e-5
-1.292, 8.340e-5
-1.293, 8.648e-5
-1.294, 8.340e-5
-1.295, 8.340e-5
-1.296, 8.340e-5
-1.297, 8.340e-5
-1.298, 8.340e-5
-1.299, 8.648e-5
-1.300, 8.340e-5
-1.301, 8.340e-5
-1.302, 8.648e-5
-1.303, 8.648e-5
-1.304, 8.648e-5
-1.305, 8.648e-5
-1.306, 8.648e-5
-1.307, 8.648e-5
-1.308, 8.648e-5
-1.309, 8.648e-5
-1.310, 8.648e-5
-1.311, 8.957e-5
-1.312, 8.648e-5
-1.313, 8.957e-5
-1.314, 8.648e-5
-1.315, 8.957e-5
-1.316, 8.957e-5
-1.317, 8.957e-5
-1.318, 8.957e-5
-1.319, 8.957e-5
-1.320, 8.957e-5
-1.321, 8.957e-5
-1.322, 8.957e-5
-1.323, 8.957e-5
-1.324, 8.957e-5
-1.325, 8.957e-5
-1.326, 8.957e-5
-1.327, 8.957e-5
-1.328, 9.265e-5
-1.329, 9.265e-5
-1.330, 9.265e-5
-1.331, 9.265e-5
-1.332, 9.265e-5
-1.333, 9.265e-5
-1.334, 9.265e-5
-1.335, 9.265e-5
-1.336, 9.265e-5
-1.337, 9.265e-5
-1.338, 9.573e-5
-1.339, 9.573e-5
-1.340, 9.573e-5
-1.341, 9.573e-5
-1.342, 9.573e-5
-1.343, 9.573e-5
-1.344, 9.573e-5
-1.345, 9.573e-5
-1.346, 9.573e-5
-1.347, 9.573e-5
-1.348, 9.882e-5
-1.349, 9.882e-5
-1.350, 9.882e-5
-1.351, 9.882e-5
-1.352, 9.882e-5
-1.353, 9.882e-5
-1.354, 9.882e-5
-1.355, 1.019e-4
-1.356, 9.882e-5
-1.357, 1.019e-4
-1.358, 1.019e-4
-1.359, 1.019e-4
-1.360, 1.019e-4
-1.361, 1.050e-4
-1.362, 1.050e-4
-1.363, 1.050e-4
-1.364, 1.050e-4
-1.365, 1.050e-4
-1.366, 1.050e-4
-1.367, 1.050e-4
-1.368, 1.050e-4
-1.369, 1.081e-4
-1.370, 1.081e-4
-1.371, 1.081e-4
-1.372, 1.081e-4
-1.373, 1.111e-4
-1.374, 1.111e-4
-1.375, 1.111e-4
-1.376, 1.111e-4
-1.377, 1.111e-4
-1.378, 1.111e-4
-1.379, 1.142e-4
-1.380, 1.142e-4
-1.381, 1.142e-4
-1.382, 1.142e-4
-1.383, 1.142e-4
-1.384, 1.173e-4
-1.385, 1.173e-4
-1.386, 1.173e-4
-1.387, 1.173e-4
-1.388, 1.173e-4
-1.389, 1.173e-4
-1.390, 1.204e-4
-1.391, 1.204e-4
-1.392, 1.173e-4
-1.393, 1.204e-4
-1.394, 1.204e-4
-1.395, 1.204e-4
-1.396, 1.235e-4
-1.397, 1.235e-4
-1.398, 1.235e-4
-1.399, 1.235e-4
-1.400, 1.235e-4
-1.401, 1.235e-4
-1.402, 1.266e-4
-1.403, 1.266e-4
-1.404, 1.266e-4
-1.405, 1.266e-4
-1.406, 1.266e-4
-1.407, 1.266e-4
-1.408, 1.266e-4
-1.409, 1.296e-4
-1.410, 1.266e-4
-1.411, 1.296e-4
-1.412, 1.296e-4
-1.413, 1.266e-4
-1.414, 1.266e-4
-1.415, 1.296e-4
-1.416, 1.296e-4
-1.417, 1.266e-4
-1.418, 1.296e-4
-1.419, 1.296e-4
-1.420, 1.296e-4
-1.421, 1.296e-4
-1.422, 1.296e-4
-1.423, 1.296e-4
-1.424, 1.266e-4
-1.425, 1.296e-4
-1.426, 1.266e-4
-1.427, 1.266e-4
-1.428, 1.266e-4
-1.429, 1.266e-4
-1.430, 1.266e-4
-1.431, 1.266e-4
-1.432, 1.266e-4
-1.433, 1.235e-4
-1.434, 1.266e-4
-1.435, 1.266e-4
-1.436, 1.235e-4
-1.437, 1.235e-4
-1.438, 1.235e-4
-1.439, 1.235e-4
-1.440, 1.235e-4
-1.441, 1.235e-4
-1.442, 1.235e-4
-1.443, 1.235e-4
-1.444, 1.235e-4
-1.445, 1.204e-4
-1.446, 1.235e-4
-1.447, 1.235e-4
-1.448, 1.204e-4
-1.449, 1.235e-4
-1.450, 1.204e-4
-1.451, 1.204e-4
-1.452, 1.204e-4
-1.453, 1.204e-4
-1.454, 1.204e-4
-1.455, 1.204e-4
-1.456, 1.204e-4
-1.457, 1.173e-4
-1.458, 1.173e-4
-1.459, 1.173e-4
-1.460, 1.173e-4
-1.461, 1.173e-4
-1.462, 1.173e-4
-1.463, 1.173e-4
-1.464, 1.173e-4
-1.465, 1.142e-4
-1.466, 1.142e-4
-1.467, 1.142e-4
-1.468, 1.142e-4
-1.469, 1.142e-4
-1.470, 1.142e-4
-1.471, 1.142e-4
-1.472, 1.142e-4
-1.473, 1.142e-4
-1.474, 1.142e-4
-1.475, 1.142e-4
-1.476, 1.142e-4
-1.477, 1.142e-4
-1.478, 1.142e-4
-1.479, 1.142e-4
-1.480, 1.111e-4
-1.481, 1.111e-4
-1.482, 1.111e-4
-1.483, 1.111e-4
-1.484, 1.111e-4
-1.485, 1.111e-4
-1.486, 1.081e-4
-1.487, 1.081e-4
-1.488, 1.111e-4
-1.489, 1.081e-4
-1.490, 1.081e-4
-1.491, 1.081e-4
-1.492, 1.081e-4
-1.493, 1.081e-4
-1.494, 1.081e-4
-1.495, 1.081e-4
-1.496, 1.050e-4
-1.497, 1.081e-4
-1.498, 1.050e-4
-1.499, 1.081e-4
-1.500, 1.050e-4
-1.501, 1.050e-4
-1.502, 1.050e-4
-1.503, 1.050e-4
-1.504, 1.019e-4
-1.505, 1.019e-4
-1.506, 1.019e-4
-1.507, 1.019e-4
-1.508, 1.019e-4
-1.509, 1.019e-4
-1.510, 1.019e-4
-1.511, 1.019e-4
-1.512, 1.019e-4
-1.513, 9.882e-5
-1.514, 9.882e-5
-1.515, 9.882e-5
-1.516, 9.882e-5
-1.517, 9.882e-5
-1.518, 9.882e-5
-1.519, 9.882e-5
-1.520, 9.882e-5
-1.521, 9.882e-5
-1.522, 9.573e-5
-1.523, 9.573e-5
-1.524, 9.882e-5
-1.525, 9.573e-5
-1.526, 9.573e-5
-1.527, 9.573e-5
-1.528, 9.573e-5
-1.529, 9.573e-5
-1.530, 9.573e-5
-1.531, 9.573e-5
-1.532, 9.573e-5
-1.533, 9.573e-5
-1.534, 9.573e-5
-1.535, 9.573e-5
-1.536, 9.573e-5
-1.537, 9.573e-5
-1.538, 9.573e-5
-1.539, 9.573e-5
-1.540, 9.573e-5
-1.541, 9.573e-5
-1.542, 9.573e-5
-1.543, 9.265e-5
-1.544, 9.573e-5
-1.545, 9.265e-5
-1.546, 9.265e-5
-1.547, 9.265e-5
-1.548, 9.573e-5
-1.549, 9.573e-5
-1.550, 9.573e-5
-1.551, 9.573e-5
-1.552, 9.573e-5
-1.553, 9.573e-5
-1.554, 9.573e-5
-1.555, 9.573e-5
-1.556, 9.573e-5
-1.557, 9.573e-5
-1.558, 9.573e-5
-1.559, 9.882e-5
-1.560, 9.573e-5
-1.561, 9.573e-5
-1.562, 9.882e-5
-1.563, 9.882e-5
-1.564, 9.882e-5
-1.565, 9.882e-5
-1.566, 9.882e-5
-1.567, 9.882e-5
-1.568, 9.882e-5
-1.569, 9.882e-5
-1.570, 9.882e-5
-1.571, 9.882e-5
-1.572, 9.882e-5
-1.573, 9.882e-5
-1.574, 9.882e-5
-1.575, 9.882e-5
-1.576, 9.882e-5
-1.577, 1.019e-4
-1.578, 1.019e-4
-1.579, 1.019e-4
-1.580, 1.019e-4
-1.581, 1.019e-4
-1.582, 1.019e-4
-1.583, 1.050e-4
-1.584, 1.050e-4
-1.585, 1.050e-4
-1.586, 1.050e-4
-1.587, 1.050e-4
-1.588, 1.050e-4
-1.589, 1.081e-4
-1.590, 1.081e-4
-1.591, 1.081e-4
-1.592, 1.081e-4
-1.593, 1.081e-4
-1.594, 1.111e-4
-1.595, 1.111e-4
-1.596, 1.111e-4
-1.597, 1.142e-4
-1.598, 1.142e-4
-1.599, 1.142e-4
-1.600, 1.142e-4
-1.601, 1.173e-4
-1.602, 1.173e-4
-1.603, 1.173e-4
-1.604, 1.173e-4
-1.605, 1.204e-4
-1.606, 1.204e-4
-1.607, 1.204e-4
-1.608, 1.204e-4
-1.609, 1.235e-4
-1.610, 1.235e-4
-1.611, 1.235e-4
-1.612, 1.266e-4
-1.613, 1.266e-4
-1.614, 1.266e-4
-1.615, 1.296e-4
-1.616, 1.296e-4
-1.617, 1.296e-4
-1.618, 1.327e-4
-1.619, 1.327e-4
-1.620, 1.327e-4
-1.621, 1.358e-4
-1.622, 1.358e-4
-1.623, 1.358e-4
-1.624, 1.358e-4
-1.625, 1.389e-4
-1.626, 1.389e-4
-1.627, 1.389e-4
-1.628, 1.420e-4
-1.629, 1.420e-4
-1.630, 1.420e-4
-1.631, 1.451e-4
-1.632, 1.451e-4
-1.633, 1.481e-4
-1.634, 1.481e-4
-1.635, 1.481e-4
-1.636, 1.512e-4
-1.637, 1.543e-4
-1.638, 1.543e-4
-1.639, 1.574e-4
-1.640, 1.574e-4
-1.641, 1.574e-4
-1.642, 1.605e-4
-1.643, 1.605e-4
-1.644, 1.605e-4
-1.645, 1.636e-4
-1.646, 1.636e-4
-1.647, 1.666e-4
-1.648, 1.697e-4
-1.649, 1.697e-4
-1.650, 1.697e-4
-1.651, 1.728e-4
-1.652, 1.759e-4
-1.653, 1.759e-4
-1.654, 1.759e-4
-1.655, 1.759e-4
-1.656, 1.790e-4
-1.657, 1.821e-4
-1.658, 1.821e-4
-1.659, 1.851e-4
-1.660, 1.882e-4
-1.661, 1.882e-4
-1.662, 1.913e-4
-1.663, 1.913e-4
-1.664, 1.944e-4
-1.665, 1.944e-4
-1.666, 1.975e-4
-1.667, 1.975e-4
-1.668, 2.006e-4
-1.669, 2.036e-4
-1.670, 2.067e-4
-1.671, 2.067e-4
-1.672, 2.098e-4
-1.673, 2.098e-4
-1.674, 2.129e-4
-1.675, 2.129e-4
-1.676, 2.160e-4
-1.677, 2.191e-4
-1.678, 2.221e-4
-1.679, 2.252e-4
-1.680, 2.252e-4
-1.681, 2.283e-4
-1.682, 2.283e-4
-1.683, 2.283e-4
-1.684, 2.314e-4
-1.685, 2.314e-4
-1.686, 2.376e-4
-1.687, 2.406e-4
-1.688, 2.437e-4
-1.689, 2.468e-4
-1.690, 2.499e-4
-1.691, 2.499e-4
-1.692, 2.530e-4
-1.693, 2.561e-4
-1.694, 2.561e-4
-1.695, 2.591e-4
-1.696, 2.622e-4
-1.697, 2.653e-4
-1.698, 2.653e-4
-1.699, 2.684e-4
-1.700, 2.684e-4
-1.701, 2.715e-4
-1.702, 2.746e-4
-1.703, 2.776e-4
-1.704, 2.776e-4
-1.705, 2.807e-4
-1.706, 2.838e-4
-1.707, 2.869e-4
-1.708, 2.900e-4
-1.709, 2.931e-4
-1.710, 2.961e-4
-1.711, 2.992e-4
-1.712, 3.023e-4
-1.713, 3.054e-4
-1.714, 3.054e-4
-1.715, 3.085e-4
-1.716, 3.115e-4
-1.717, 3.177e-4
-1.718, 3.177e-4
-1.719, 3.208e-4
-1.720, 3.239e-4
-1.721, 3.270e-4
-1.722, 3.300e-4
-1.723, 3.300e-4
-1.724, 3.331e-4
-1.725, 3.362e-4
-1.726, 3.393e-4
-1.727, 3.424e-4
-1.728, 3.455e-4
-1.729, 3.516e-4
-1.730, 3.516e-4
-1.731, 3.578e-4
-1.732, 3.609e-4
-1.733, 3.640e-4
-1.734, 3.670e-4
-1.735, 3.732e-4
-1.736, 3.763e-4
-1.737, 3.825e-4
-1.738, 3.855e-4
-1.739, 3.886e-4
-1.740, 3.917e-4
-1.741, 3.948e-4
-1.742, 3.979e-4
-1.743, 4.010e-4
-1.744, 4.040e-4
-1.745, 4.071e-4
-1.746, 4.102e-4
-1.747, 4.164e-4
-1.748, 4.195e-4
-1.749, 4.225e-4
-1.750, 4.287e-4
-1.751, 4.318e-4
-1.752, 4.349e-4
-1.753, 4.380e-4
-1.754, 4.410e-4
-1.755, 4.441e-4
-1.756, 4.472e-4
-1.757, 4.503e-4
-1.758, 4.565e-4
-1.759, 4.595e-4
-1.760, 4.626e-4
-1.761, 4.688e-4
-1.762, 4.719e-4
-1.763, 4.750e-4
-1.764, 4.811e-4
-1.765, 4.842e-4
-1.766, 4.873e-4
-1.767, 4.904e-4
-1.768, 4.935e-4
-1.769, 4.965e-4
-1.770, 5.027e-4
-1.771, 5.058e-4
-1.772, 5.120e-4
-1.773, 5.150e-4
-1.774, 5.181e-4
-1.775, 5.212e-4
-1.776, 5.274e-4
-1.777, 5.274e-4
-1.778, 5.335e-4
-1.779, 5.366e-4
-1.780, 5.428e-4
-1.781, 5.459e-4
-1.782, 5.489e-4
-1.783, 5.489e-4
-1.784, 5.489e-4
-1.785, 5.520e-4
-1.786, 5.551e-4
-1.787, 5.582e-4
-1.788, 5.613e-4
-1.789, 5.644e-4
-1.790, 5.705e-4
-1.791, 5.736e-4
-1.792, 5.767e-4
-1.793, 5.829e-4
-1.794, 5.859e-4
-1.795, 5.890e-4
-1.796, 5.952e-4
-1.797, 6.014e-4
-1.798, 6.075e-4
-1.799, 6.106e-4
-1.800, 6.168e-4
-1.801, 6.229e-4
-1.802, 6.260e-4
-1.803, 6.291e-4
-1.804, 6.353e-4
-1.805, 6.384e-4
-1.806, 6.476e-4
-1.807, 6.476e-4
-1.808, 6.507e-4
-1.809, 6.599e-4
-1.810, 6.630e-4
-1.811, 6.692e-4
-1.812, 6.723e-4
-1.813, 6.784e-4
-1.814, 6.846e-4
-1.815, 6.877e-4
-1.816, 6.908e-4
-1.817, 6.969e-4
-1.818, 7.031e-4
-1.819, 7.093e-4
-1.820, 7.154e-4
-1.821, 7.154e-4
-1.822, 7.216e-4
-1.823, 7.278e-4
-1.824, 7.309e-4
-1.825, 7.370e-4
-1.826, 7.432e-4
-1.827, 7.494e-4
-1.828, 7.555e-4
-1.829, 7.648e-4
-1.830, 7.709e-4
-1.831, 7.802e-4
-1.832, 7.863e-4
-1.833, 7.894e-4
-1.834, 7.925e-4
-1.835, 7.987e-4
-1.836, 8.079e-4
-1.837, 8.141e-4
-1.838, 8.203e-4
-1.839, 8.264e-4
-1.840, 8.326e-4
-1.841, 8.418e-4
-1.842, 8.480e-4
-1.843, 8.511e-4
-1.844, 8.603e-4
-1.845, 8.634e-4
-1.846, 8.696e-4
-1.847, 8.788e-4
-1.848, 8.850e-4
-1.849, 8.943e-4
-1.850, 8.973e-4
-1.851, 9.035e-4
-1.852, 9.097e-4
-1.853, 9.189e-4
-1.854, 9.251e-4
-1.855, 9.313e-4
-1.856, 9.405e-4
-1.857, 9.528e-4
-1.858, 9.621e-4
-1.859, 9.713e-4
-1.860, 9.744e-4
-1.861, 9.806e-4
-1.862, 9.898e-4
-1.863, 1.002e-3
-1.864, 1.008e-3
-1.865, 1.018e-3
-1.866, 1.024e-3
-1.867, 1.036e-3
-1.868, 1.048e-3
-1.869, 1.058e-3
-1.870, 1.064e-3
-1.871, 1.070e-3
-1.872, 1.076e-3
-1.873, 1.085e-3
-1.874, 1.095e-3
-1.875, 1.101e-3
-1.876, 1.113e-3
-1.877, 1.122e-3
-1.878, 1.132e-3
-1.879, 1.144e-3
-1.880, 1.153e-3
-1.881, 1.162e-3
-1.882, 1.172e-3
-1.883, 1.181e-3
-1.884, 1.190e-3
-1.885, 1.203e-3
-1.886, 1.212e-3
-1.887, 1.224e-3
-1.888, 1.236e-3
-1.889, 1.249e-3
-1.890, 1.258e-3
-1.891, 1.270e-3
-1.892, 1.280e-3
-1.893, 1.289e-3
-1.894, 1.304e-3
-1.895, 1.320e-3
-1.896, 1.335e-3
-1.897, 1.347e-3
-1.898, 1.363e-3
-1.899, 1.375e-3
-1.900, 1.397e-3
-1.901, 1.412e-3
-1.902, 1.421e-3
-1.903, 1.434e-3
-1.904, 1.443e-3
-1.905, 1.462e-3
-1.906, 1.474e-3
-1.907, 1.489e-3
-1.908, 1.514e-3
-1.909, 1.532e-3
-1.910, 1.551e-3
-1.911, 1.566e-3
-1.912, 1.579e-3
-1.913, 1.591e-3
-1.914, 1.610e-3
-1.915, 1.616e-3
-1.916, 1.631e-3
-1.917, 1.653e-3
-1.918, 1.671e-3
-1.919, 1.684e-3
-1.920, 1.699e-3
-1.921, 1.714e-3
-1.922, 1.733e-3
-1.923, 1.748e-3
-1.924, 1.770e-3
-1.925, 1.798e-3
-1.926, 1.813e-3
-1.927, 1.841e-3
-1.928, 1.872e-3
-1.929, 1.887e-3
-1.930, 1.909e-3
-1.931, 1.933e-3
-1.932, 1.958e-3
-1.933, 1.976e-3
-1.934, 2.001e-3
-1.935, 2.026e-3
-1.936, 2.047e-3
-1.937, 2.066e-3
-1.938, 2.097e-3
-1.939, 2.118e-3
-1.940, 2.140e-3
-1.941, 2.155e-3
-1.942, 2.180e-3
-1.943, 2.195e-3
-1.944, 2.214e-3
-1.945, 2.242e-3
-1.946, 2.263e-3
-1.947, 2.279e-3
-1.948, 2.303e-3
-1.949, 2.328e-3
-1.950, 2.356e-3
-1.951, 2.386e-3
-1.952, 2.417e-3
-1.953, 2.445e-3
-1.954, 2.479e-3
-1.955, 2.516e-3
-1.956, 2.541e-3
-1.957, 2.578e-3
-1.958, 2.602e-3
-1.959, 2.630e-3
-1.960, 2.667e-3
-1.961, 2.704e-3
-1.962, 2.735e-3
-1.963, 2.766e-3
-1.964, 2.793e-3
-1.965, 2.821e-3
-1.966, 2.861e-3
-1.967, 2.889e-3
-1.968, 2.926e-3
-1.969, 2.963e-3
-1.970, 2.994e-3
-1.971, 3.031e-3
-1.972, 3.065e-3
-1.973, 3.105e-3
-1.974, 3.148e-3
-1.975, 3.185e-3
-1.976, 3.225e-3
-1.977, 3.274e-3
-1.978, 3.314e-3
-1.979, 3.361e-3
-1.980, 3.392e-3
-1.981, 3.432e-3
-1.982, 3.481e-3
-1.983, 3.527e-3
-1.984, 3.570e-3
-1.985, 3.607e-3
-1.986, 3.654e-3
-1.987, 3.709e-3
-1.988, 3.758e-3
-1.989, 3.799e-3
-1.990, 3.842e-3
-1.991, 3.873e-3
-1.992, 3.913e-3
-1.993, 3.956e-3
-1.994, 3.996e-3
-1.995, 4.039e-3
-1.996, 4.095e-3
-1.997, 4.150e-3
-1.998, 4.206e-3
-1.999, 4.273e-3
-2.000, 4.292e-3
-1.999, 4.267e-3
-1.998, 4.239e-3
-1.997, 4.199e-3
-1.996, 4.159e-3
-1.995, 4.116e-3
-1.994, 4.082e-3
-1.993, 4.045e-3
-1.992, 4.002e-3
-1.991, 3.956e-3
-1.990, 3.913e-3
-1.989, 3.876e-3
-1.988, 3.839e-3
-1.987, 3.802e-3
-1.986, 3.758e-3
-1.985, 3.715e-3
-1.984, 3.691e-3
-1.983, 3.657e-3
-1.982, 3.617e-3
-1.981, 3.598e-3
-1.980, 3.570e-3
-1.979, 3.543e-3
-1.978, 3.506e-3
-1.977, 3.472e-3
-1.976, 3.432e-3
-1.975, 3.401e-3
-1.974, 3.373e-3
-1.973, 3.351e-3
-1.972, 3.318e-3
-1.971, 3.296e-3
-1.970, 3.265e-3
-1.969, 3.228e-3
-1.968, 3.197e-3
-1.967, 3.167e-3
-1.966, 3.130e-3
-1.965, 3.093e-3
-1.964, 3.065e-3
-1.963, 3.031e-3
-1.962, 2.994e-3
-1.961, 2.978e-3
-1.960, 2.951e-3
-1.959, 2.926e-3
-1.958, 2.892e-3
-1.957, 2.877e-3
-1.956, 2.849e-3
-1.955, 2.827e-3
-1.954, 2.806e-3
-1.953, 2.784e-3
-1.952, 2.756e-3
-1.951, 2.726e-3
-1.950, 2.704e-3
-1.949, 2.673e-3
-1.948, 2.649e-3
-1.947, 2.624e-3
-1.946, 2.608e-3
-1.945, 2.578e-3
-1.944, 2.556e-3
-1.943, 2.528e-3
-1.942, 2.507e-3
-1.941, 2.473e-3
-1.940, 2.454e-3
-1.939, 2.430e-3
-1.938, 2.402e-3
-1.937, 2.371e-3
-1.936, 2.346e-3
-1.935, 2.328e-3
-1.934, 2.300e-3
-1.933, 2.282e-3
-1.932, 2.263e-3
-1.931, 2.251e-3
-1.930, 2.226e-3
-1.929, 2.201e-3
-1.928, 2.180e-3
-1.927, 2.161e-3
-1.926, 2.137e-3
-1.925, 2.121e-3
-1.924, 2.097e-3
-1.923, 2.084e-3
-1.922, 2.072e-3
-1.921, 2.047e-3
-1.920, 2.020e-3
-1.919, 2.001e-3
-1.918, 1.986e-3
-1.917, 1.964e-3
-1.916, 1.946e-3
-1.915, 1.924e-3
-1.914, 1.899e-3
-1.913, 1.887e-3
-1.912, 1.881e-3
-1.911, 1.859e-3
-1.910, 1.844e-3
-1.909, 1.828e-3
-1.908, 1.807e-3
-1.907, 1.785e-3
-1.906, 1.764e-3
-1.905, 1.745e-3
-1.904, 1.730e-3
-1.903, 1.717e-3
-1.902, 1.702e-3
-1.901, 1.693e-3
-1.900, 1.684e-3
-1.899, 1.662e-3
-1.898, 1.650e-3
-1.897, 1.634e-3
-1.896, 1.613e-3
-1.895, 1.594e-3
-1.894, 1.582e-3
-1.893, 1.563e-3
-1.892, 1.548e-3
-1.891, 1.529e-3
-1.890, 1.520e-3
-1.889, 1.502e-3
-1.888, 1.492e-3
-1.887, 1.480e-3
-1.886, 1.465e-3
-1.885, 1.449e-3
-1.884, 1.434e-3
-1.883, 1.421e-3
-1.882, 1.409e-3
-1.881, 1.400e-3
-1.880, 1.384e-3
-1.879, 1.366e-3
-1.878, 1.354e-3
-1.877, 1.347e-3
-1.876, 1.335e-3
-1.875, 1.329e-3
-1.874, 1.320e-3
-1.873, 1.314e-3
-1.872, 1.301e-3
-1.871, 1.292e-3
-1.870, 1.273e-3
-1.869, 1.261e-3
-1.868, 1.246e-3
-1.867, 1.233e-3
-1.866, 1.221e-3
-1.865, 1.206e-3
-1.864, 1.190e-3
-1.863, 1.181e-3
-1.862, 1.169e-3
-1.861, 1.156e-3
-1.860, 1.144e-3
-1.859, 1.135e-3
-1.858, 1.122e-3
-1.857, 1.113e-3
-1.856, 1.098e-3
-1.855, 1.088e-3
-1.854, 1.076e-3
-1.853, 1.064e-3
-1.852, 1.051e-3
-1.851, 1.048e-3
-1.850, 1.042e-3
-1.849, 1.030e-3
-1.848, 1.024e-3
-1.847, 1.011e-3
-1.846, 9.991e-4
-1.845, 9.929e-4
-1.844, 9.806e-4
-1.843, 9.713e-4
-1.842, 9.621e-4
-1.841, 9.528e-4
-1.840, 9.436e-4
-1.839, 9.343e-4
-1.838, 9.251e-4
-1.837, 9.189e-4
-1.836, 9.066e-4
-1.835, 8.943e-4
-1.834, 8.819e-4
-1.833, 8.696e-4
-1.832, 8.665e-4
-1.831, 8.573e-4
-1.830, 8.480e-4
-1.829, 8.357e-4
-1.828, 8.264e-4
-1.827, 8.203e-4
-1.826, 8.141e-4
-1.825, 8.079e-4
-1.824, 8.018e-4
-1.823, 7.956e-4
-1.822, 7.894e-4
-1.821, 7.833e-4
-1.820, 7.771e-4
-1.819, 7.679e-4
-1.818, 7.586e-4
-1.817, 7.524e-4
-1.816, 7.463e-4
-1.815, 7.401e-4
-1.814, 7.370e-4
-1.813, 7.309e-4
-1.812, 7.247e-4
-1.811, 7.154e-4
-1.810, 7.062e-4
-1.809, 7.000e-4
-1.808, 6.939e-4
-1.807, 6.908e-4
-1.806, 6.784e-4
-1.805, 6.723e-4
-1.804, 6.692e-4
-1.803, 6.661e-4
-1.802, 6.599e-4
-1.801, 6.507e-4
-1.800, 6.414e-4
-1.799, 6.384e-4
-1.798, 6.322e-4
-1.797, 6.229e-4
-1.796, 6.168e-4
-1.795, 6.106e-4
-1.794, 6.014e-4
-1.793, 5.952e-4
-1.792, 5.890e-4
-1.791, 5.859e-4
-1.790, 5.798e-4
-1.789, 5.736e-4
-1.788, 5.674e-4
-1.787, 5.582e-4
-1.786, 5.489e-4
-1.785, 5.459e-4
-1.784, 5.397e-4
-1.783, 5.366e-4
-1.782, 5.335e-4
-1.781, 5.305e-4
-1.780, 5.243e-4
-1.779, 5.181e-4
-1.778, 5.120e-4
-1.777, 5.089e-4
-1.776, 5.027e-4
-1.775, 4.965e-4
-1.774, 4.904e-4
-1.773, 4.873e-4
-1.772, 4.811e-4
-1.771, 4.780e-4
-1.770, 4.719e-4
-1.769, 4.657e-4
-1.768, 4.626e-4
-1.767, 4.595e-4
-1.766, 4.503e-4
-1.765, 4.472e-4
-1.764, 4.441e-4
-1.763, 4.380e-4
-1.762, 4.380e-4
-1.761, 4.349e-4
-1.760, 4.256e-4
-1.759, 4.225e-4
-1.758, 4.164e-4
-1.757, 4.071e-4
-1.756, 4.040e-4
-1.755, 4.010e-4
-1.754, 3.979e-4
-1.753, 3.948e-4
-1.752, 3.886e-4
-1.751, 3.825e-4
-1.750, 3.794e-4
-1.749, 3.763e-4
-1.748, 3.701e-4
-1.747, 3.640e-4
-1.746, 3.609e-4
-1.745, 3.578e-4
-1.744, 3.516e-4
-1.743, 3.485e-4
-1.742, 3.455e-4
-1.741, 3.393e-4
-1.740, 3.362e-4
-1.739, 3.331e-4
-1.738, 3.300e-4
-1.737, 3.300e-4
-1.736, 3.239e-4
-1.735, 3.239e-4
-1.734, 3.208e-4
-1.733, 3.146e-4
-1.732, 3.146e-4
-1.731, 3.085e-4
-1.730, 3.085e-4
-1.729, 3.054e-4
-1.728, 3.023e-4
-1.727, 2.961e-4
-1.726, 2.900e-4
-1.725, 2.869e-4
-1.724, 2.838e-4
-1.723, 2.776e-4
-1.722, 2.746e-4
-1.721, 2.746e-4
-1.720, 2.684e-4
-1.719, 2.653e-4
-1.718, 2.591e-4
-1.717, 2.561e-4
-1.716, 2.530e-4
-1.715, 2.499e-4
-1.714, 2.437e-4
-1.713, 2.406e-4
-1.712, 2.406e-4
-1.711, 2.376e-4
-1.710, 2.345e-4
-1.709, 2.314e-4
-1.708, 2.252e-4
-1.707, 2.221e-4
-1.706, 2.191e-4
-1.705, 2.160e-4
-1.704, 2.129e-4
-1.703, 2.129e-4
-1.702, 2.098e-4
-1.701, 2.067e-4
-1.700, 2.036e-4
-1.699, 2.036e-4
-1.698, 2.006e-4
-1.697, 1.975e-4
-1.696, 1.913e-4
-1.695, 1.913e-4
-1.694, 1.882e-4
-1.693, 1.851e-4
-1.692, 1.821e-4
-1.691, 1.790e-4
-1.690, 1.759e-4
-1.689, 1.728e-4
-1.688, 1.728e-4
-1.687, 1.697e-4
-1.686, 1.636e-4
-1.685, 1.636e-4
-1.684, 1.605e-4
-1.683, 1.574e-4
-1.682, 1.574e-4
-1.681, 1.543e-4
-1.680, 1.512e-4
-1.679, 1.481e-4
-1.678, 1.451e-4
-1.677, 1.451e-4
-1.676, 1.420e-4
-1.675, 1.389e-4
-1.674, 1.358e-4
-1.673, 1.358e-4
-1.672, 1.327e-4
-1.671, 1.296e-4
-1.670, 1.266e-4
-1.669, 1.266e-4
-1.668, 1.235e-4
-1.667, 1.204e-4
-1.666, 1.173e-4
-1.665, 1.173e-4
-1.664, 1.142e-4
-1.663, 1.142e-4
-1.662, 1.111e-4
-1.661, 1.111e-4
-1.660, 1.081e-4
-1.659, 1.050e-4
-1.658, 1.019e-4
-1.657, 1.019e-4
-1.656, 9.882e-5
-1.655, 9.882e-5
-1.654, 9.573e-5
-1.653, 9.265e-5
-1.652, 9.265e-5
-1.651, 8.957e-5
-1.650, 8.957e-5
-1.649, 8.648e-5
-1.648, 8.340e-5
-1.647, 8.340e-5
-1.646, 8.032e-5
-1.645, 7.723e-5
-1.644, 7.723e-5
-1.643, 7.415e-5
-1.642, 7.415e-5
-1.641, 7.107e-5
-1.640, 7.107e-5
-1.639, 6.798e-5
-1.638, 6.798e-5
-1.637, 6.490e-5
-1.636, 6.490e-5
-1.635, 6.490e-5
-1.634, 6.182e-5
-1.633, 5.873e-5
-1.632, 5.873e-5
-1.631, 5.873e-5
-1.630, 5.565e-5
-1.629, 5.565e-5
-1.628, 5.257e-5
-1.627, 4.949e-5
-1.626, 4.949e-5
-1.625, 4.640e-5
-1.624, 4.332e-5
-1.623, 4.640e-5
-1.622, 4.332e-5
-1.621, 4.332e-5
-1.620, 4.024e-5
-1.619, 4.024e-5
-1.618, 3.715e-5
-1.617, 3.715e-5
-1.616, 3.407e-5
-1.615, 3.407e-5
-1.614, 3.407e-5
-1.613, 3.099e-5
-1.612, 3.099e-5
-1.611, 3.099e-5
-1.610, 2.790e-5
-1.609, 2.790e-5
-1.608, 2.482e-5
-1.607, 2.482e-5
-1.606, 2.174e-5
-1.605, 2.174e-5
-1.604, 2.174e-5
-1.603, 2.174e-5
-1.602, 2.174e-5
-1.601, 1.865e-5
-1.600, 1.865e-5
-1.599, 1.865e-5
-1.598, 1.557e-5
-1.597, 1.557e-5
-1.596, 1.249e-5
-1.595, 1.249e-5
-1.594, 1.249e-5
-1.593, 9.405e-6
-1.592, 9.405e-6
-1.591, 9.405e-6
-1.590, 9.405e-6
-1.589, 9.405e-6
-1.588, 6.322e-6
-1.587, 6.322e-6
-1.586, 3.239e-6
-1.585, 3.239e-6
-1.584, 3.239e-6
-1.583, 3.239e-6
-1.582, 3.239e-6
-1.581, 3.239e-6
-1.580, 1.559e-7
-1.579, 1.559e-7
-1.578, 1.559e-7
-1.577, 1.559e-7
-1.576, 1.559e-7
-1.575, -2.927e-6
-1.574, -2.927e-6
-1.573, -2.927e-6
-1.572, -2.927e-6
-1.571, -6.010e-6
-1.570, -2.927e-6
-1.569, -2.927e-6
-1.568, -6.010e-6
-1.567, -6.010e-6
-1.566, -6.010e-6
-1.565, -6.010e-6
-1.564, -9.093e-6
-1.563, -9.093e-6
-1.562, -9.093e-6
-1.561, -9.093e-6
-1.560, -9.093e-6
-1.559, -9.093e-6
-1.558, -9.093e-6
-1.557, -1.218e-5
-1.556, -1.218e-5
-1.555, -1.218e-5
-1.554, -1.218e-5
-1.553, -1.218e-5
-1.552, -1.218e-5
-1.551, -1.218e-5
-1.550, -1.218e-5
-1.549, -1.218e-5
-1.548, -1.526e-5
-1.547, -1.526e-5
-1.546, -1.526e-5
-1.545, -1.526e-5
-1.544, -1.526e-5
-1.543, -1.526e-5
-1.542, -1.526e-5
-1.541, -1.526e-5
-1.540, -1.526e-5
-1.539, -1.526e-5
-1.538, -1.834e-5
-1.537, -1.834e-5
-1.536, -1.834e-5
-1.535, -1.834e-5
-1.534, -1.834e-5
-1.533, -1.834e-5
-1.532, -1.834e-5
-1.531, -1.834e-5
-1.530, -1.834e-5
-1.529, -1.834e-5
-1.528, -1.834e-5
-1.527, -1.834e-5
-1.526, -1.834e-5
-1.525, -1.834e-5
-1.524, -2.143e-5
-1.523, -2.143e-5
-1.522, -2.143e-5
-1.521, -2.143e-5
-1.520, -2.143e-5
-1.519, -2.143e-5
-1.518, -2.143e-5
-1.517, -2.143e-5
-1.516, -2.143e-5
-1.515, -2.143e-5
-1.514, -2.143e-5
-1.513, -2.143e-5
-1.512, -2.143e-5
-1.511, -2.143e-5
-1.510, -2.143e-5
-1.509, -2.143e-5
-1.508, -2.143e-5
-1.507, -2.143e-5
-1.506, -2.451e-5
-1.505, -2.451e-5
-1.504, -2.451e-5
-1.503, -2.451e-5
-1.502, -2.451e-5
-1.501, -2.451e-5
-1.500, -2.451e-5
-1.499, -2.451e-5
-1.498, -2.451e-5
-1.497, -2.451e-5
-1.496, -2.451e-5
-1.495, -2.451e-5
-1.494, -2.451e-5
-1.493, -2.451e-5
-1.492, -2.451e-5
-1.491, -2.451e-5
-1.490, -2.451e-5
-1.489, -2.451e-5
-1.488, -2.451e-5
-1.487, -2.451e-5
-1.486, -2.451e-5
-1.485, -2.759e-5
-1.484, -2.759e-5
-1.483, -2.759e-5
-1.482, -2.451e-5
-1.481, -2.451e-5
-1.480, -2.759e-5
-1.479, -2.451e-5
-1.478, -2.759e-5
-1.477, -2.759e-5
-1.476, -2.759e-5
-1.475, -2.759e-5
-1.474, -2.759e-5
-1.473, -2.759e-5
-1.472, -2.759e-5
-1.471, -2.759e-5
-1.470, -2.759e-5
-1.469, -2.759e-5
-1.468, -2.759e-5
-1.467, -2.759e-5
-1.466, -2.759e-5
-1.465, -2.759e-5
-1.464, -2.759e-5
-1.463, -2.759e-5
-1.462, -2.759e-5
-1.461, -2.759e-5
-1.460, -2.759e-5
-1.459, -2.759e-5
-1.458, -2.759e-5
-1.457, -2.759e-5
-1.456, -2.759e-5
-1.455, -2.759e-5
-1.454, -2.759e-5
-1.453, -2.759e-5
-1.452, -2.759e-5
-1.451, -2.759e-5
-1.450, -2.759e-5
-1.449, -2.759e-5
-1.448, -2.759e-5
-1.447, -2.759e-5
-1.446, -2.759e-5
-1.445, -2.759e-5
-1.444, -3.068e-5
-1.443, -2.759e-5
-1.442, -3.068e-5
-1.441, -2.759e-5
-1.440, -3.068e-5
-1.439, -3.068e-5
-1.438, -3.068e-5
-1.437, -3.068e-5
-1.436, -3.068e-5
-1.435, -3.068e-5
-1.434, -3.068e-5
-1.433, -3.068e-5
-1.432, -3.068e-5
-1.431, -2.759e-5
-1.430, -3.068e-5
-1.429, -3.068e-5
-1.428, -3.068e-5
-1.427, -3.068e-5
-1.426, -3.068e-5
-1.425, -3.068e-5
-1.424, -3.068e-5
-1.423, -3.068e-5
-1.422, -3.068e-5
-1.421, -3.068e-5
-1.420, -3.068e-5
-1.419, -3.068e-5
-1.418, -3.068e-5
-1.417, -3.068e-5
-1.416, -3.068e-5
-1.415, -3.376e-5
-1.414, -3.068e-5
-1.413, -3.068e-5
-1.412, -3.068e-5
-1.411, -3.068e-5
-1.410, -3.068e-5
-1.409, -3.068e-5
-1.408, -3.068e-5
-1.407, -3.068e-5
-1.406, -3.376e-5
-1.405, -3.376e-5
-1.404, -3.376e-5
-1.403, -3.376e-5
-1.402, -3.068e-5
-1.401, -3.068e-5
-1.400, -3.068e-5
-1.399, -3.068e-5
-1.398, -3.376e-5
-1.397, -3.376e-5
-1.396, -3.376e-5
-1.395, -3.376e-5
-1.394, -3.376e-5
-1.393, -3.376e-5
-1.392, -3.376e-5
-1.391, -3.376e-5
-1.390, -3.376e-5
-1.389, -3.376e-5
-1.388, -3.376e-5
-1.387, -3.376e-5
-1.386, -3.376e-5
-1.385, -3.376e-5
-1.384, -3.376e-5
-1.383, -3.376e-5
-1.382, -3.376e-5
-1.381, -3.376e-5
-1.380, -3.376e-5
-1.379, -3.376e-5
-1.378, -3.376e-5
-1.377, -3.376e-5
-1.376, -3.684e-5
-1.375, -3.376e-5
-1.374, -3.684e-5
-1.373, -3.684e-5
-1.372, -3.376e-5
-1.371, -3.376e-5
-1.370, -3.684e-5
-1.369, -3.684e-5
-1.368, -3.684e-5
-1.367, -3.684e-5
-1.366, -3.684e-5
-1.365, -3.684e-5
-1.364, -3.684e-5
-1.363, -3.684e-5
-1.362, -3.684e-5
-1.361, -3.684e-5
-1.360, -3.684e-5
-1.359, -3.684e-5
-1.358, -3.684e-5
-1.357, -3.684e-5
-1.356, -3.992e-5
-1.355, -3.684e-5
-1.354, -3.684e-5
-1.353, -3.684e-5
-1.352, -3.684e-5
-1.351, -3.684e-5
-1.350, -3.992e-5
-1.349, -3.992e-5
-1.348, -3.992e-5
-1.347, -3.992e-5
-1.346, -3.992e-5
-1.345, -3.992e-5
-1.344, -3.992e-5
-1.343, -3.992e-5
-1.342, -3.992e-5
-1.341, -3.992e-5
-1.340, -3.992e-5
-1.339, -3.992e-5
-1.338, -3.992e-5
-1.337, -3.992e-5
-1.336, -3.992e-5
-1.335, -4.301e-5
-1.334, -4.301e-5
-1.333, -4.301e-5
-1.332, -4.301e-5
-1.331, -3.992e-5
-1.330, -4.301e-5
-1.329, -4.301e-5
-1.328, -4.301e-5
-1.327, -4.301e-5
-1.326, -4.301e-5
-1.325, -4.301e-5
-1.324, -4.301e-5
-1.323, -4.609e-5
-1.322, -4.609e-5
-1.321, -4.609e-5
-1.320, -4.609e-5
-1.319, -4.609e-5
-1.318, -4.609e-5
-1.317, -4.609e-5
-1.316, -4.609e-5
-1.315, -4.609e-5
-1.314, -4.609e-5
-1.313, -4.609e-5
-1.312, -4.609e-5
-1.311, -4.917e-5
-1.310, -4.917e-5
-1.309, -4.917e-5
-1.308, -4.917e-5
-1.307, -4.917e-5
-1.306, -4.917e-5
-1.305, -5.226e-5
-1.304, -4.917e-5
-1.303, -5.226e-5
-1.302, -5.226e-5
-1.301, -4.917e-5
-1.300, -5.226e-5
-1.299, -5.226e-5
-1.298, -5.226e-5
-1.297, -5.226e-5
-1.296, -5.226e-5
-1.295, -5.534e-5
-1.294, -5.534e-5
-1.293, -5.534e-5
-1.292, -5.534e-5
-1.291, -5.534e-5
-1.290, -5.534e-5
-1.289, -5.534e-5
-1.288, -5.534e-5
-1.287, -5.842e-5
-1.286, -5.842e-5
-1.285, -5.842e-5
-1.284, -5.842e-5
-1.283, -5.842e-5
-1.282, -5.842e-5
-1.281, -5.842e-5
-1.280, -6.151e-5
-1.279, -6.151e-5
-1.278, -6.151e-5
-1.277, -6.151e-5
-1.276, -6.151e-5
-1.275, -6.151e-5
-1.274, -6.151e-5
-1.273, -6.459e-5
-1.272, -6.459e-5
-1.271, -6.459e-5
-1.270, -6.459e-5
-1.269, -6.459e-5
-1.268, -6.459e-5
-1.267, -6.459e-5
-1.266, -6.459e-5
-1.265, -6.767e-5
-1.264, -6.767e-5
-1.263, -6.767e-5
-1.262, -6.767e-5
-1.261, -6.767e-5
-1.260, -6.767e-5
-1.259, -6.767e-5
-1.258, -6.767e-5
-1.257, -6.767e-5
-1.256, -7.076e-5
-1.255, -7.076e-5
-1.254, -7.076e-5
-1.253, -7.076e-5
-1.252, -7.076e-5
-1.251, -7.076e-5
-1.250, -7.076e-5
-1.249, -7.076e-5
-1.248, -7.076e-5
-1.247, -7.384e-5
-1.246, -7.384e-5
-1.245, -7.384e-5
-1.244, -7.384e-5
-1.243, -7.384e-5
-1.242, -7.384e-5
-1.241, -7.384e-5
-1.240, -7.384e-5
-1.239, -7.384e-5
-1.238, -7.384e-5
-1.237, -7.384e-5
-1.236, -7.692e-5
-1.235, -7.692e-5
-1.234, -7.692e-5
-1.233, -7.692e-5
-1.232, -7.692e-5
-1.231, -7.692e-5
-1.230, -7.692e-5
-1.229, -7.692e-5
-1.228, -7.692e-5
-1.227, -7.692e-5
-1.226, -7.692e-5
-1.225, -7.692e-5
-1.224, -8.000e-5
-1.223, -7.692e-5
-1.222, -8.000e-5
-1.221, -7.692e-5
-1.220, -8.000e-5
-1.219, -8.000e-5
-1.218, -8.000e-5
-1.217, -8.000e-5
-1.216, -8.000e-5
-1.215, -8.000e-5
-1.214, -8.000e-5
-1.213, -8.000e-5
-1.212, -8.000e-5
-1.211, -8.000e-5
-1.210, -8.000e-5
-1.209, -8.000e-5
-1.208, -8.000e-5
-1.207, -8.000e-5
-1.206, -8.000e-5
-1.205, -8.000e-5
-1.204, -8.000e-5
-1.203, -8.000e-5
-1.202, -8.000e-5
-1.201, -8.000e-5
-1.200, -8.000e-5
-1.199, -8.000e-5
-1.198, -8.000e-5
-1.197, -8.000e-5
-1.196, -8.000e-5
-1.195, -8.000e-5
-1.194, -8.000e-5
-1.193, -8.000e-5
-1.192, -8.000e-5
-1.191, -8.000e-5
-1.190, -8.000e-5
-1.189, -8.000e-5
-1.188, -8.000e-5
-1.187, -8.000e-5
-1.186, -8.000e-5
-1.185, -8.309e-5
-1.184, -8.309e-5
-1.183, -8.000e-5
-1.182, -8.000e-5
-1.181, -8.309e-5
-1.180, -8.309e-5
-1.179, -8.309e-5
-1.178, -8.309e-5
-1.177, -8.309e-5
-1.176, -8.309e-5
-1.175, -8.309e-5
-1.174, -8.309e-5
-1.173, -8.309e-5
-1.172, -8.309e-5
-1.171, -8.000e-5
-1.170, -8.309e-5
-1.169, -8.309e-5
-1.168, -8.000e-5
-1.167, -8.309e-5
-1.166, -8.309e-5
-1.165, -8.309e-5
-1.164, -8.309e-5
-1.163, -8.000e-5
-1.162, -8.000e-5
-1.161, -8.000e-5
-1.160, -8.000e-5
-1.159, -8.000e-5
-1.158, -8.000e-5
-1.157, -8.000e-5
-1.156, -8.000e-5
-1.155, -8.309e-5
-1.154, -8.000e-5
-1.153, -8.000e-5
-1.152, -8.000e-5
-1.151, -8.000e-5
-1.150, -8.000e-5
-1.149, -8.000e-5
-1.148, -8.000e-5
-1.147, -8.000e-5
-1.146, -8.000e-5
-1.145, -8.000e-5
-1.144, -8.000e-5
-1.143, -8.000e-5
-1.142, -8.000e-5
-1.141, -8.000e-5
-1.140, -8.000e-5
-1.139, -8.000e-5
-1.138, -8.000e-5
-1.137, -8.000e-5
-1.136, -8.000e-5
-1.135, -8.000e-5
-1.134, -8.000e-5
-1.133, -8.000e-5
-1.132, -8.000e-5
-1.131, -8.000e-5
-1.130, -8.000e-5
-1.129, -8.000e-5
-1.128, -8.000e-5
-1.127, -8.000e-5
-1.126, -8.000e-5
-1.125, -8.000e-5
-1.124, -8.000e-5
-1.123, -8.000e-5
-1.122, -8.000e-5
-1.121, -8.000e-5
-1.120, -8.000e-5
-1.119, -8.000e-5
-1.118, -8.000e-5
-1.117, -8.000e-5
-1.116, -8.000e-5
-1.115, -8.000e-5
-1.114, -8.000e-5
-1.113, -8.000e-5
-1.112, -8.000e-5
-1.111, -8.000e-5
-1.110, -8.000e-5
-1.109, -8.000e-5
-1.108, -8.000e-5
-1.107, -8.000e-5
-1.106, -8.000e-5
-1.105, -8.309e-5
-1.104, -8.309e-5
-1.103, -8.309e-5
-1.102, -8.309e-5
-1.101, -8.000e-5
-1.100, -8.000e-5
-1.099, -8.000e-5
-1.098, -8.309e-5
-1.097, -8.000e-5
-1.096, -8.309e-5
-1.095, -8.309e-5
-1.094, -8.309e-5
-1.093, -8.309e-5
-1.092, -8.309e-5
-1.091, -8.309e-5
-1.090, -8.309e-5
-1.089, -8.309e-5
-1.088, -8.309e-5
-1.087, -8.309e-5
-1.086, -8.309e-5
-1.085, -8.309e-5
-1.084, -8.309e-5
-1.083, -8.309e-5
-1.082, -8.309e-5
-1.081, -8.309e-5
-1.080, -8.309e-5
-1.079, -8.309e-5
-1.078, -8.617e-5
-1.077, -8.309e-5
-1.076, -8.309e-5
-1.075, -8.617e-5
-1.074, -8.617e-5
-1.073, -8.309e-5
-1.072, -8.617e-5
-1.071, -8.309e-5
-1.070, -8.617e-5
-1.069, -8.617e-5
-1.068, -8.617e-5
-1.067, -8.617e-5
-1.066, -8.617e-5
-1.065, -8.617e-5
-1.064, -8.617e-5
-1.063, -8.617e-5
-1.062, -8.617e-5
-1.061, -8.617e-5
-1.060, -8.617e-5
-1.059, -8.617e-5
-1.058, -8.617e-5
-1.057, -8.925e-5
-1.056, -8.925e-5
-1.055, -8.925e-5
-1.054, -8.925e-5
-1.053, -8.925e-5
-1.052, -8.925e-5
-1.051, -8.925e-5
-1.050, -8.925e-5
-1.049, -8.925e-5
-1.048, -8.925e-5
-1.047, -8.617e-5
-1.046, -8.925e-5
-1.045, -8.925e-5
-1.044, -8.925e-5
-1.043, -8.925e-5
-1.042, -8.925e-5
-1.041, -8.925e-5
-1.040, -8.925e-5
-1.039, -8.925e-5
-1.038, -8.925e-5
-1.037, -8.925e-5
-1.036, -8.925e-5
-1.035, -8.925e-5
-1.034, -8.925e-5
-1.033, -8.925e-5
-1.032, -8.925e-5
-1.031, -8.925e-5
-1.030, -8.925e-5
-1.029, -8.925e-5
-1.028, -9.234e-5
-1.027, -8.925e-5
-1.026, -8.925e-5
-1.025, -9.234e-5
-1.024, -9.234e-5
-1.023, -9.234e-5
-1.022, -9.234e-5
-1.021, -9.234e-5
-1.020, -9.234e-5
-1.019, -9.234e-5
-1.018, -9.234e-5
-1.017, -9.234e-5
-1.016, -9.234e-5
-1.015, -9.234e-5
-1.014, -9.234e-5
-1.013, -9.234e-5
-1.012, -9.234e-5
-1.011, -9.234e-5
-1.010, -9.234e-5
-1.009, -8.925e-5
-1.008, -8.925e-5
-1.007, -8.925e-5
-1.006, -8.925e-5
-1.005, -9.234e-5
-1.004, -9.234e-5
-1.003, -9.234e-5
-1.002, -8.925e-5
-1.001, -9.234e-5
