Mar. 11, 2025   11:33:29
Cyclic Voltammetry
File: c:/users/guazh/data/banditlqround7_x0exp891_r5/2025-03-03-exp876\exp876-2025-03-11t11_19_02-h2koh\exp876_cv_sr_300mvs_efin_-1600mv.bin
Data Source:  Experiment
Instrument Model:  CHI760E
Header: CV ran at 300 mVs
Note: 

Init E (V) = -1
High E (V) = -1
Low E (V) = -1.6
Final E (V) = -1
Init P/N = N
Scan Rate (V/s) = 0.3
Segment = 3
Sample Interval (V) = 0.001
Quiet Time (sec) = 2
Sensitivity (A/V) = 0.01
Comp R (ohm) = 1.7

Results:

Channel 1:
Segment 1:

Segment 2:

Segment 3:

Potential/V, Current/A

-1.000, 3.099e-5
-1.001, 8.648e-5
-1.002, 1.081e-4
-1.003, 1.204e-4
-1.004, 1.327e-4
-1.005, 1.420e-4
-1.006, 1.451e-4
-1.007, 1.481e-4
-1.008, 1.451e-4
-1.009, 1.481e-4
-1.010, 1.512e-4
-1.011, 1.512e-4
-1.012, 1.512e-4
-1.013, 1.512e-4
-1.014, 1.543e-4
-1.015, 1.574e-4
-1.016, 1.605e-4
-1.017, 1.605e-4
-1.018, 1.574e-4
-1.019, 1.605e-4
-1.020, 1.605e-4
-1.021, 1.605e-4
-1.022, 1.605e-4
-1.023, 1.574e-4
-1.024, 1.605e-4
-1.025, 1.666e-4
-1.026, 1.666e-4
-1.027, 1.636e-4
-1.028, 1.636e-4
-1.029, 1.636e-4
-1.030, 1.666e-4
-1.031, 1.666e-4
-1.032, 1.605e-4
-1.033, 1.605e-4
-1.034, 1.636e-4
-1.035, 1.697e-4
-1.036, 1.728e-4
-1.037, 1.697e-4
-1.038, 1.697e-4
-1.039, 1.697e-4
-1.040, 1.697e-4
-1.041, 1.666e-4
-1.042, 1.636e-4
-1.043, 1.636e-4
-1.044, 1.666e-4
-1.045, 1.697e-4
-1.046, 1.759e-4
-1.047, 1.728e-4
-1.048, 1.728e-4
-1.049, 1.759e-4
-1.050, 1.728e-4
-1.051, 1.728e-4
-1.052, 1.697e-4
-1.053, 1.666e-4
-1.054, 1.697e-4
-1.055, 1.728e-4
-1.056, 1.728e-4
-1.057, 1.728e-4
-1.058, 1.728e-4
-1.059, 1.728e-4
-1.060, 1.759e-4
-1.061, 1.759e-4
-1.062, 1.728e-4
-1.063, 1.728e-4
-1.064, 1.728e-4
-1.065, 1.759e-4
-1.066, 1.759e-4
-1.067, 1.759e-4
-1.068, 1.759e-4
-1.069, 1.759e-4
-1.070, 1.790e-4
-1.071, 1.790e-4
-1.072, 1.759e-4
-1.073, 1.759e-4
-1.074, 1.759e-4
-1.075, 1.790e-4
-1.076, 1.790e-4
-1.077, 1.759e-4
-1.078, 1.759e-4
-1.079, 1.790e-4
-1.080, 1.790e-4
-1.081, 1.821e-4
-1.082, 1.790e-4
-1.083, 1.759e-4
-1.084, 1.759e-4
-1.085, 1.790e-4
-1.086, 1.790e-4
-1.087, 1.759e-4
-1.088, 1.759e-4
-1.089, 1.790e-4
-1.090, 1.851e-4
-1.091, 1.882e-4
-1.092, 1.851e-4
-1.093, 1.821e-4
-1.094, 1.821e-4
-1.095, 1.821e-4
-1.096, 1.790e-4
-1.097, 1.759e-4
-1.098, 1.790e-4
-1.099, 1.821e-4
-1.100, 1.882e-4
-1.101, 1.882e-4
-1.102, 1.882e-4
-1.103, 1.851e-4
-1.104, 1.821e-4
-1.105, 1.851e-4
-1.106, 1.851e-4
-1.107, 1.851e-4
-1.108, 1.821e-4
-1.109, 1.821e-4
-1.110, 1.851e-4
-1.111, 1.882e-4
-1.112, 1.851e-4
-1.113, 1.851e-4
-1.114, 1.851e-4
-1.115, 1.882e-4
-1.116, 1.882e-4
-1.117, 1.851e-4
-1.118, 1.851e-4
-1.119, 1.851e-4
-1.120, 1.882e-4
-1.121, 1.882e-4
-1.122, 1.851e-4
-1.123, 1.851e-4
-1.124, 1.851e-4
-1.125, 1.882e-4
-1.126, 1.882e-4
-1.127, 1.882e-4
-1.128, 1.882e-4
-1.129, 1.882e-4
-1.130, 1.913e-4
-1.131, 1.913e-4
-1.132, 1.913e-4
-1.133, 1.882e-4
-1.134, 1.882e-4
-1.135, 1.913e-4
-1.136, 1.913e-4
-1.137, 1.913e-4
-1.138, 1.882e-4
-1.139, 1.913e-4
-1.140, 1.913e-4
-1.141, 1.913e-4
-1.142, 1.882e-4
-1.143, 1.882e-4
-1.144, 1.913e-4
-1.145, 1.975e-4
-1.146, 1.944e-4
-1.147, 1.913e-4
-1.148, 1.913e-4
-1.149, 1.882e-4
-1.150, 1.944e-4
-1.151, 1.944e-4
-1.152, 1.944e-4
-1.153, 1.913e-4
-1.154, 1.944e-4
-1.155, 1.944e-4
-1.156, 1.944e-4
-1.157, 1.944e-4
-1.158, 1.913e-4
-1.159, 1.944e-4
-1.160, 1.944e-4
-1.161, 1.975e-4
-1.162, 1.944e-4
-1.163, 1.944e-4
-1.164, 1.944e-4
-1.165, 1.975e-4
-1.166, 1.975e-4
-1.167, 1.944e-4
-1.168, 1.944e-4
-1.169, 1.975e-4
-1.170, 1.975e-4
-1.171, 2.006e-4
-1.172, 1.975e-4
-1.173, 1.975e-4
-1.174, 1.975e-4
-1.175, 2.006e-4
-1.176, 2.006e-4
-1.177, 2.006e-4
-1.178, 1.975e-4
-1.179, 1.975e-4
-1.180, 2.006e-4
-1.181, 2.006e-4
-1.182, 2.006e-4
-1.183, 1.975e-4
-1.184, 2.006e-4
-1.185, 2.036e-4
-1.186, 2.006e-4
-1.187, 1.975e-4
-1.188, 1.944e-4
-1.189, 1.944e-4
-1.190, 1.975e-4
-1.191, 1.975e-4
-1.192, 2.036e-4
-1.193, 2.036e-4
-1.194, 2.036e-4
-1.195, 2.067e-4
-1.196, 2.067e-4
-1.197, 2.036e-4
-1.198, 2.006e-4
-1.199, 2.006e-4
-1.200, 2.036e-4
-1.201, 2.036e-4
-1.202, 2.036e-4
-1.203, 2.036e-4
-1.204, 2.067e-4
-1.205, 2.098e-4
-1.206, 2.067e-4
-1.207, 2.067e-4
-1.208, 2.036e-4
-1.209, 2.067e-4
-1.210, 2.098e-4
-1.211, 2.098e-4
-1.212, 2.098e-4
-1.213, 2.067e-4
-1.214, 2.067e-4
-1.215, 2.098e-4
-1.216, 2.098e-4
-1.217, 2.098e-4
-1.218, 2.098e-4
-1.219, 2.129e-4
-1.220, 2.129e-4
-1.221, 2.129e-4
-1.222, 2.098e-4
-1.223, 2.067e-4
-1.224, 2.067e-4
-1.225, 2.129e-4
-1.226, 2.160e-4
-1.227, 2.160e-4
-1.228, 2.129e-4
-1.229, 2.160e-4
-1.230, 2.191e-4
-1.231, 2.221e-4
-1.232, 2.160e-4
-1.233, 2.129e-4
-1.234, 2.160e-4
-1.235, 2.191e-4
-1.236, 2.191e-4
-1.237, 2.221e-4
-1.238, 2.191e-4
-1.239, 2.221e-4
-1.240, 2.252e-4
-1.241, 2.221e-4
-1.242, 2.221e-4
-1.243, 2.191e-4
-1.244, 2.221e-4
-1.245, 2.252e-4
-1.246, 2.283e-4
-1.247, 2.283e-4
-1.248, 2.252e-4
-1.249, 2.283e-4
-1.250, 2.314e-4
-1.251, 2.314e-4
-1.252, 2.283e-4
-1.253, 2.283e-4
-1.254, 2.283e-4
-1.255, 2.345e-4
-1.256, 2.345e-4
-1.257, 2.345e-4
-1.258, 2.345e-4
-1.259, 2.376e-4
-1.260, 2.406e-4
-1.261, 2.376e-4
-1.262, 2.345e-4
-1.263, 2.345e-4
-1.264, 2.376e-4
-1.265, 2.437e-4
-1.266, 2.437e-4
-1.267, 2.437e-4
-1.268, 2.406e-4
-1.269, 2.437e-4
-1.270, 2.499e-4
-1.271, 2.468e-4
-1.272, 2.468e-4
-1.273, 2.468e-4
-1.274, 2.468e-4
-1.275, 2.530e-4
-1.276, 2.530e-4
-1.277, 2.530e-4
-1.278, 2.561e-4
-1.279, 2.591e-4
-1.280, 2.591e-4
-1.281, 2.622e-4
-1.282, 2.622e-4
-1.283, 2.591e-4
-1.284, 2.622e-4
-1.285, 2.653e-4
-1.286, 2.684e-4
-1.287, 2.684e-4
-1.288, 2.684e-4
-1.289, 2.715e-4
-1.290, 2.746e-4
-1.291, 2.746e-4
-1.292, 2.746e-4
-1.293, 2.746e-4
-1.294, 2.776e-4
-1.295, 2.807e-4
-1.296, 2.838e-4
-1.297, 2.838e-4
-1.298, 2.838e-4
-1.299, 2.869e-4
-1.300, 2.931e-4
-1.301, 2.931e-4
-1.302, 2.900e-4
-1.303, 2.900e-4
-1.304, 2.900e-4
-1.305, 2.992e-4
-1.306, 3.023e-4
-1.307, 3.085e-4
-1.308, 3.085e-4
-1.309, 3.115e-4
-1.310, 3.085e-4
-1.311, 3.085e-4
-1.312, 3.054e-4
-1.313, 3.054e-4
-1.314, 3.115e-4
-1.315, 3.239e-4
-1.316, 3.300e-4
-1.317, 3.300e-4
-1.318, 3.300e-4
-1.319, 3.331e-4
-1.320, 3.362e-4
-1.321, 3.362e-4
-1.322, 3.362e-4
-1.323, 3.362e-4
-1.324, 3.424e-4
-1.325, 3.485e-4
-1.326, 3.578e-4
-1.327, 3.578e-4
-1.328, 3.578e-4
-1.329, 3.609e-4
-1.330, 3.670e-4
-1.331, 3.670e-4
-1.332, 3.701e-4
-1.333, 3.701e-4
-1.334, 3.732e-4
-1.335, 3.825e-4
-1.336, 3.855e-4
-1.337, 3.886e-4
-1.338, 3.917e-4
-1.339, 3.979e-4
-1.340, 4.010e-4
-1.341, 4.040e-4
-1.342, 4.071e-4
-1.343, 4.102e-4
-1.344, 4.164e-4
-1.345, 4.225e-4
-1.346, 4.256e-4
-1.347, 4.318e-4
-1.348, 4.349e-4
-1.349, 4.410e-4
-1.350, 4.503e-4
-1.351, 4.534e-4
-1.352, 4.565e-4
-1.353, 4.595e-4
-1.354, 4.657e-4
-1.355, 4.750e-4
-1.356, 4.780e-4
-1.357, 4.811e-4
-1.358, 4.842e-4
-1.359, 4.935e-4
-1.360, 4.996e-4
-1.361, 5.058e-4
-1.362, 5.120e-4
-1.363, 5.150e-4
-1.364, 5.212e-4
-1.365, 5.305e-4
-1.366, 5.397e-4
-1.367, 5.428e-4
-1.368, 5.489e-4
-1.369, 5.582e-4
-1.370, 5.674e-4
-1.371, 5.736e-4
-1.372, 5.798e-4
-1.373, 5.829e-4
-1.374, 5.921e-4
-1.375, 6.014e-4
-1.376, 6.106e-4
-1.377, 6.199e-4
-1.378, 6.322e-4
-1.379, 6.445e-4
-1.380, 6.538e-4
-1.381, 6.599e-4
-1.382, 6.630e-4
-1.383, 6.599e-4
-1.384, 6.569e-4
-1.385, 6.630e-4
-1.386, 6.692e-4
-1.387, 6.939e-4
-1.388, 7.278e-4
-1.389, 7.463e-4
-1.390, 7.524e-4
-1.391, 7.555e-4
-1.392, 7.586e-4
-1.393, 7.617e-4
-1.394, 7.679e-4
-1.395, 7.740e-4
-1.396, 7.894e-4
-1.397, 8.048e-4
-1.398, 8.203e-4
-1.399, 8.418e-4
-1.400, 8.573e-4
-1.401, 8.665e-4
-1.402, 8.665e-4
-1.403, 8.758e-4
-1.404, 8.881e-4
-1.405, 9.035e-4
-1.406, 9.189e-4
-1.407, 9.313e-4
-1.408, 9.467e-4
-1.409, 9.652e-4
-1.410, 9.837e-4
-1.411, 9.991e-4
-1.412, 1.008e-3
-1.413, 1.018e-3
-1.414, 1.033e-3
-1.415, 1.051e-3
-1.416, 1.064e-3
-1.417, 1.076e-3
-1.418, 1.092e-3
-1.419, 1.113e-3
-1.420, 1.138e-3
-1.421, 1.159e-3
-1.422, 1.172e-3
-1.423, 1.187e-3
-1.424, 1.203e-3
-1.425, 1.218e-3
-1.426, 1.230e-3
-1.427, 1.249e-3
-1.428, 1.270e-3
-1.429, 1.298e-3
-1.430, 1.323e-3
-1.431, 1.344e-3
-1.432, 1.363e-3
-1.433, 1.381e-3
-1.434, 1.394e-3
-1.435, 1.409e-3
-1.436, 1.428e-3
-1.437, 1.455e-3
-1.438, 1.492e-3
-1.439, 1.532e-3
-1.440, 1.569e-3
-1.441, 1.591e-3
-1.442, 1.597e-3
-1.443, 1.597e-3
-1.444, 1.600e-3
-1.445, 1.606e-3
-1.446, 1.613e-3
-1.447, 1.647e-3
-1.448, 1.711e-3
-1.449, 1.767e-3
-1.450, 1.804e-3
-1.451, 1.828e-3
-1.452, 1.841e-3
-1.453, 1.853e-3
-1.454, 1.862e-3
-1.455, 1.872e-3
-1.456, 1.884e-3
-1.457, 1.918e-3
-1.458, 1.967e-3
-1.459, 2.017e-3
-1.460, 2.050e-3
-1.461, 2.078e-3
-1.462, 2.097e-3
-1.463, 2.115e-3
-1.464, 2.131e-3
-1.465, 2.152e-3
-1.466, 2.183e-3
-1.467, 2.220e-3
-1.468, 2.263e-3
-1.469, 2.309e-3
-1.470, 2.346e-3
-1.471, 2.374e-3
-1.472, 2.402e-3
-1.473, 2.430e-3
-1.474, 2.457e-3
-1.475, 2.485e-3
-1.476, 2.513e-3
-1.477, 2.541e-3
-1.478, 2.581e-3
-1.479, 2.621e-3
-1.480, 2.667e-3
-1.481, 2.707e-3
-1.482, 2.738e-3
-1.483, 2.769e-3
-1.484, 2.803e-3
-1.485, 2.837e-3
-1.486, 2.858e-3
-1.487, 2.877e-3
-1.488, 2.911e-3
-1.489, 2.957e-3
-1.490, 3.009e-3
-1.491, 3.059e-3
-1.492, 3.102e-3
-1.493, 3.136e-3
-1.494, 3.167e-3
-1.495, 3.197e-3
-1.496, 3.228e-3
-1.497, 3.256e-3
-1.498, 3.290e-3
-1.499, 3.333e-3
-1.500, 3.382e-3
-1.501, 3.432e-3
-1.502, 3.469e-3
-1.503, 3.499e-3
-1.504, 3.527e-3
-1.505, 3.555e-3
-1.506, 3.589e-3
-1.507, 3.623e-3
-1.508, 3.672e-3
-1.509, 3.721e-3
-1.510, 3.774e-3
-1.511, 3.823e-3
-1.512, 3.860e-3
-1.513, 3.891e-3
-1.514, 3.925e-3
-1.515, 3.962e-3
-1.516, 4.011e-3
-1.517, 4.054e-3
-1.518, 4.101e-3
-1.519, 4.147e-3
-1.520, 4.193e-3
-1.521, 4.233e-3
-1.522, 4.267e-3
-1.523, 4.304e-3
-1.524, 4.347e-3
-1.525, 4.394e-3
-1.526, 4.443e-3
-1.527, 4.489e-3
-1.528, 4.532e-3
-1.529, 4.575e-3
-1.530, 4.619e-3
-1.531, 4.662e-3
-1.532, 4.705e-3
-1.533, 4.751e-3
-1.534, 4.797e-3
-1.535, 4.844e-3
-1.536, 4.887e-3
-1.537, 4.930e-3
-1.538, 4.973e-3
-1.539, 5.013e-3
-1.540, 5.060e-3
-1.541, 5.097e-3
-1.542, 5.134e-3
-1.543, 5.177e-3
-1.544, 5.232e-3
-1.545, 5.288e-3
-1.546, 5.340e-3
-1.547, 5.399e-3
-1.548, 5.451e-3
-1.549, 5.491e-3
-1.550, 5.528e-3
-1.551, 5.562e-3
-1.552, 5.593e-3
-1.553, 5.636e-3
-1.554, 5.704e-3
-1.555, 5.799e-3
-1.556, 5.886e-3
-1.557, 5.944e-3
-1.558, 5.984e-3
-1.559, 6.003e-3
-1.560, 6.003e-3
-1.561, 5.978e-3
-1.562, 5.907e-3
-1.563, 5.836e-3
-1.564, 5.954e-3
-1.565, 6.185e-3
-1.566, 6.351e-3
-1.567, 6.435e-3
-1.568, 6.462e-3
-1.569, 6.453e-3
-1.570, 6.422e-3
-1.571, 6.376e-3
-1.572, 6.321e-3
-1.573, 6.324e-3
-1.574, 6.447e-3
-1.575, 6.620e-3
-1.576, 6.764e-3
-1.577, 6.882e-3
-1.578, 6.943e-3
-1.579, 6.968e-3
-1.580, 6.968e-3
-1.581, 6.949e-3
-1.582, 6.956e-3
-1.583, 6.990e-3
-1.584, 7.039e-3
-1.585, 7.116e-3
-1.586, 7.208e-3
-1.587, 7.307e-3
-1.588, 7.393e-3
-1.589, 7.437e-3
-1.590, 7.452e-3
-1.591, 7.467e-3
-1.592, 7.489e-3
-1.593, 7.526e-3
-1.594, 7.575e-3
-1.595, 7.643e-3
-1.596, 7.726e-3
-1.597, 7.800e-3
-1.598, 7.871e-3
-1.599, 7.939e-3
-1.600, 7.908e-3
-1.599, 7.794e-3
-1.598, 7.702e-3
-1.597, 7.615e-3
-1.596, 7.541e-3
-1.595, 7.480e-3
-1.594, 7.418e-3
-1.593, 7.344e-3
-1.592, 7.276e-3
-1.591, 7.202e-3
-1.590, 7.128e-3
-1.589, 7.060e-3
-1.588, 6.986e-3
-1.587, 6.912e-3
-1.586, 6.857e-3
-1.585, 6.811e-3
-1.584, 6.768e-3
-1.583, 6.718e-3
-1.582, 6.660e-3
-1.581, 6.595e-3
-1.580, 6.536e-3
-1.579, 6.462e-3
-1.578, 6.388e-3
-1.577, 6.324e-3
-1.576, 6.284e-3
-1.575, 6.231e-3
-1.574, 6.176e-3
-1.573, 6.129e-3
-1.572, 6.071e-3
-1.571, 5.994e-3
-1.570, 5.926e-3
-1.569, 5.858e-3
-1.568, 5.799e-3
-1.567, 5.732e-3
-1.566, 5.676e-3
-1.565, 5.624e-3
-1.564, 5.574e-3
-1.563, 5.522e-3
-1.562, 5.467e-3
-1.561, 5.408e-3
-1.560, 5.365e-3
-1.559, 5.309e-3
-1.558, 5.241e-3
-1.557, 5.186e-3
-1.556, 5.134e-3
-1.555, 5.090e-3
-1.554, 5.038e-3
-1.553, 4.995e-3
-1.552, 4.949e-3
-1.551, 4.915e-3
-1.550, 4.868e-3
-1.549, 4.822e-3
-1.548, 4.764e-3
-1.547, 4.699e-3
-1.546, 4.628e-3
-1.545, 4.551e-3
-1.544, 4.486e-3
-1.543, 4.428e-3
-1.542, 4.391e-3
-1.541, 4.378e-3
-1.540, 4.350e-3
-1.539, 4.310e-3
-1.538, 4.261e-3
-1.537, 4.196e-3
-1.536, 4.132e-3
-1.535, 4.073e-3
-1.534, 4.027e-3
-1.533, 3.984e-3
-1.532, 3.962e-3
-1.531, 3.943e-3
-1.530, 3.919e-3
-1.529, 3.882e-3
-1.528, 3.832e-3
-1.527, 3.783e-3
-1.526, 3.737e-3
-1.525, 3.678e-3
-1.524, 3.626e-3
-1.523, 3.583e-3
-1.522, 3.549e-3
-1.521, 3.524e-3
-1.520, 3.506e-3
-1.519, 3.478e-3
-1.518, 3.444e-3
-1.517, 3.398e-3
-1.516, 3.342e-3
-1.515, 3.287e-3
-1.514, 3.247e-3
-1.513, 3.197e-3
-1.512, 3.167e-3
-1.511, 3.133e-3
-1.510, 3.114e-3
-1.509, 3.089e-3
-1.508, 3.049e-3
-1.507, 3.003e-3
-1.506, 2.960e-3
-1.505, 2.917e-3
-1.504, 2.874e-3
-1.503, 2.830e-3
-1.502, 2.797e-3
-1.501, 2.781e-3
-1.500, 2.756e-3
-1.499, 2.732e-3
-1.498, 2.695e-3
-1.497, 2.661e-3
-1.496, 2.633e-3
-1.495, 2.596e-3
-1.494, 2.559e-3
-1.493, 2.528e-3
-1.492, 2.491e-3
-1.491, 2.457e-3
-1.490, 2.427e-3
-1.489, 2.396e-3
-1.488, 2.368e-3
-1.487, 2.340e-3
-1.486, 2.328e-3
-1.485, 2.306e-3
-1.484, 2.266e-3
-1.483, 2.214e-3
-1.482, 2.155e-3
-1.481, 2.128e-3
-1.480, 2.134e-3
-1.479, 2.140e-3
-1.478, 2.143e-3
-1.477, 2.115e-3
-1.476, 2.075e-3
-1.475, 2.041e-3
-1.474, 2.007e-3
-1.473, 1.973e-3
-1.472, 1.918e-3
-1.471, 1.872e-3
-1.470, 1.838e-3
-1.469, 1.819e-3
-1.468, 1.816e-3
-1.467, 1.819e-3
-1.466, 1.807e-3
-1.465, 1.782e-3
-1.464, 1.751e-3
-1.463, 1.717e-3
-1.462, 1.690e-3
-1.461, 1.662e-3
-1.460, 1.637e-3
-1.459, 1.616e-3
-1.458, 1.591e-3
-1.457, 1.566e-3
-1.456, 1.551e-3
-1.455, 1.532e-3
-1.454, 1.514e-3
-1.453, 1.492e-3
-1.452, 1.465e-3
-1.451, 1.440e-3
-1.450, 1.418e-3
-1.449, 1.391e-3
-1.448, 1.369e-3
-1.447, 1.360e-3
-1.446, 1.354e-3
-1.445, 1.341e-3
-1.444, 1.326e-3
-1.443, 1.301e-3
-1.442, 1.277e-3
-1.441, 1.258e-3
-1.440, 1.233e-3
-1.439, 1.209e-3
-1.438, 1.184e-3
-1.437, 1.166e-3
-1.436, 1.156e-3
-1.435, 1.150e-3
-1.434, 1.132e-3
-1.433, 1.110e-3
-1.432, 1.088e-3
-1.431, 1.067e-3
-1.430, 1.048e-3
-1.429, 1.030e-3
-1.428, 1.018e-3
-1.427, 1.002e-3
-1.426, 9.929e-4
-1.425, 9.806e-4
-1.424, 9.621e-4
-1.423, 9.436e-4
-1.422, 9.251e-4
-1.421, 9.066e-4
-1.420, 8.943e-4
-1.419, 8.788e-4
-1.418, 8.634e-4
-1.417, 8.511e-4
-1.416, 8.418e-4
-1.415, 8.264e-4
-1.414, 8.110e-4
-1.413, 7.925e-4
-1.412, 7.771e-4
-1.411, 7.648e-4
-1.410, 7.524e-4
-1.409, 7.401e-4
-1.408, 7.247e-4
-1.407, 7.124e-4
-1.406, 7.031e-4
-1.405, 6.939e-4
-1.404, 6.754e-4
-1.403, 6.630e-4
-1.402, 6.476e-4
-1.401, 6.322e-4
-1.400, 6.260e-4
-1.399, 6.137e-4
-1.398, 6.044e-4
-1.397, 5.952e-4
-1.396, 5.859e-4
-1.395, 5.736e-4
-1.394, 5.582e-4
-1.393, 5.428e-4
-1.392, 5.274e-4
-1.391, 5.150e-4
-1.390, 5.120e-4
-1.389, 5.027e-4
-1.388, 4.935e-4
-1.387, 4.811e-4
-1.386, 4.750e-4
-1.385, 4.657e-4
-1.384, 4.534e-4
-1.383, 4.410e-4
-1.382, 4.287e-4
-1.381, 4.225e-4
-1.380, 4.133e-4
-1.379, 4.040e-4
-1.378, 3.917e-4
-1.377, 3.825e-4
-1.376, 3.732e-4
-1.375, 3.640e-4
-1.374, 3.547e-4
-1.373, 3.485e-4
-1.372, 3.393e-4
-1.371, 3.331e-4
-1.370, 3.270e-4
-1.369, 3.177e-4
-1.368, 3.085e-4
-1.367, 2.992e-4
-1.366, 2.931e-4
-1.365, 2.838e-4
-1.364, 2.746e-4
-1.363, 2.653e-4
-1.362, 2.591e-4
-1.361, 2.530e-4
-1.360, 2.468e-4
-1.359, 2.376e-4
-1.358, 2.314e-4
-1.357, 2.221e-4
-1.356, 2.160e-4
-1.355, 2.098e-4
-1.354, 2.067e-4
-1.353, 1.975e-4
-1.352, 1.913e-4
-1.351, 1.882e-4
-1.350, 1.790e-4
-1.349, 1.728e-4
-1.348, 1.605e-4
-1.347, 1.512e-4
-1.346, 1.481e-4
-1.345, 1.389e-4
-1.344, 1.327e-4
-1.343, 1.296e-4
-1.342, 1.296e-4
-1.341, 1.296e-4
-1.340, 1.235e-4
-1.339, 1.142e-4
-1.338, 1.050e-4
-1.337, 9.573e-5
-1.336, 9.265e-5
-1.335, 8.648e-5
-1.334, 8.032e-5
-1.333, 7.723e-5
-1.332, 7.107e-5
-1.331, 7.107e-5
-1.330, 6.798e-5
-1.329, 6.182e-5
-1.328, 5.565e-5
-1.327, 4.640e-5
-1.326, 4.332e-5
-1.325, 4.024e-5
-1.324, 3.715e-5
-1.323, 3.099e-5
-1.322, 2.482e-5
-1.321, 2.482e-5
-1.320, 1.865e-5
-1.319, 1.557e-5
-1.318, 9.405e-6
-1.317, 3.239e-6
-1.316, 1.559e-7
-1.315, 1.559e-7
-1.314, -2.927e-6
-1.313, -1.218e-5
-1.312, -1.526e-5
-1.311, -1.526e-5
-1.310, -1.834e-5
-1.309, -2.143e-5
-1.308, -3.068e-5
-1.307, -3.376e-5
-1.306, -3.376e-5
-1.305, -3.684e-5
-1.304, -3.992e-5
-1.303, -4.609e-5
-1.302, -4.917e-5
-1.301, -4.917e-5
-1.300, -5.226e-5
-1.299, -5.534e-5
-1.298, -6.151e-5
-1.297, -6.459e-5
-1.296, -6.459e-5
-1.295, -6.459e-5
-1.294, -7.076e-5
-1.293, -7.384e-5
-1.292, -7.692e-5
-1.291, -7.692e-5
-1.290, -8.000e-5
-1.289, -8.309e-5
-1.288, -8.617e-5
-1.287, -8.925e-5
-1.286, -9.234e-5
-1.285, -9.234e-5
-1.284, -9.542e-5
-1.283, -9.850e-5
-1.282, -1.016e-4
-1.281, -1.016e-4
-1.280, -1.047e-4
-1.279, -1.078e-4
-1.278, -1.108e-4
-1.277, -1.139e-4
-1.276, -1.139e-4
-1.275, -1.139e-4
-1.274, -1.170e-4
-1.273, -1.201e-4
-1.272, -1.232e-4
-1.271, -1.232e-4
-1.270, -1.232e-4
-1.269, -1.263e-4
-1.268, -1.293e-4
-1.267, -1.324e-4
-1.266, -1.293e-4
-1.265, -1.293e-4
-1.264, -1.324e-4
-1.263, -1.355e-4
-1.262, -1.386e-4
-1.261, -1.386e-4
-1.260, -1.417e-4
-1.259, -1.417e-4
-1.258, -1.448e-4
-1.257, -1.478e-4
-1.256, -1.478e-4
-1.255, -1.478e-4
-1.254, -1.509e-4
-1.253, -1.509e-4
-1.252, -1.540e-4
-1.251, -1.540e-4
-1.250, -1.509e-4
-1.249, -1.540e-4
-1.248, -1.571e-4
-1.247, -1.602e-4
-1.246, -1.602e-4
-1.245, -1.602e-4
-1.244, -1.632e-4
-1.243, -1.663e-4
-1.242, -1.663e-4
-1.241, -1.632e-4
-1.240, -1.663e-4
-1.239, -1.663e-4
-1.238, -1.694e-4
-1.237, -1.694e-4
-1.236, -1.725e-4
-1.235, -1.694e-4
-1.234, -1.725e-4
-1.233, -1.756e-4
-1.232, -1.756e-4
-1.231, -1.756e-4
-1.230, -1.725e-4
-1.229, -1.756e-4
-1.228, -1.817e-4
-1.227, -1.787e-4
-1.226, -1.787e-4
-1.225, -1.787e-4
-1.224, -1.787e-4
-1.223, -1.817e-4
-1.222, -1.848e-4
-1.221, -1.817e-4
-1.220, -1.848e-4
-1.219, -1.848e-4
-1.218, -1.848e-4
-1.217, -1.848e-4
-1.216, -1.848e-4
-1.215, -1.848e-4
-1.214, -1.879e-4
-1.213, -1.879e-4
-1.212, -1.910e-4
-1.211, -1.879e-4
-1.210, -1.879e-4
-1.209, -1.879e-4
-1.208, -1.910e-4
-1.207, -1.941e-4
-1.206, -1.910e-4
-1.205, -1.879e-4
-1.204, -1.910e-4
-1.203, -1.910e-4
-1.202, -1.941e-4
-1.201, -1.941e-4
-1.200, -1.941e-4
-1.199, -1.972e-4
-1.198, -2.002e-4
-1.197, -1.972e-4
-1.196, -1.972e-4
-1.195, -1.941e-4
-1.194, -1.941e-4
-1.193, -1.972e-4
-1.192, -1.972e-4
-1.191, -1.972e-4
-1.190, -2.002e-4
-1.189, -2.002e-4
-1.188, -2.033e-4
-1.187, -2.033e-4
-1.186, -2.002e-4
-1.185, -2.002e-4
-1.184, -2.002e-4
-1.183, -2.002e-4
-1.182, -2.033e-4
-1.181, -2.002e-4
-1.180, -2.002e-4
-1.179, -2.033e-4
-1.178, -2.064e-4
-1.177, -2.064e-4
-1.176, -2.033e-4
-1.175, -2.033e-4
-1.174, -2.033e-4
-1.173, -2.033e-4
-1.172, -2.064e-4
-1.171, -2.064e-4
-1.170, -2.033e-4
-1.169, -2.064e-4
-1.168, -2.064e-4
-1.167, -2.064e-4
-1.166, -2.064e-4
-1.165, -2.033e-4
-1.164, -2.064e-4
-1.163, -2.064e-4
-1.162, -2.095e-4
-1.161, -2.064e-4
-1.160, -2.064e-4
-1.159, -2.095e-4
-1.158, -2.095e-4
-1.157, -2.095e-4
-1.156, -2.095e-4
-1.155, -2.064e-4
-1.154, -2.064e-4
-1.153, -2.095e-4
-1.152, -2.126e-4
-1.151, -2.095e-4
-1.150, -2.095e-4
-1.149, -2.095e-4
-1.148, -2.126e-4
-1.147, -2.126e-4
-1.146, -2.095e-4
-1.145, -2.095e-4
-1.144, -2.095e-4
-1.143, -2.126e-4
-1.142, -2.126e-4
-1.141, -2.095e-4
-1.140, -2.095e-4
-1.139, -2.095e-4
-1.138, -2.126e-4
-1.137, -2.126e-4
-1.136, -2.126e-4
-1.135, -2.126e-4
-1.134, -2.126e-4
-1.133, -2.157e-4
-1.132, -2.157e-4
-1.131, -2.126e-4
-1.130, -2.095e-4
-1.129, -2.126e-4
-1.128, -2.126e-4
-1.127, -2.157e-4
-1.126, -2.157e-4
-1.125, -2.126e-4
-1.124, -2.157e-4
-1.123, -2.157e-4
-1.122, -2.157e-4
-1.121, -2.126e-4
-1.120, -2.126e-4
-1.119, -2.157e-4
-1.118, -2.157e-4
-1.117, -2.157e-4
-1.116, -2.157e-4
-1.115, -2.157e-4
-1.114, -2.157e-4
-1.113, -2.157e-4
-1.112, -2.187e-4
-1.111, -2.157e-4
-1.110, -2.126e-4
-1.109, -2.157e-4
-1.108, -2.187e-4
-1.107, -2.187e-4
-1.106, -2.157e-4
-1.105, -2.157e-4
-1.104, -2.157e-4
-1.103, -2.187e-4
-1.102, -2.187e-4
-1.101, -2.157e-4
-1.100, -2.157e-4
-1.099, -2.187e-4
-1.098, -2.187e-4
-1.097, -2.187e-4
-1.096, -2.187e-4
-1.095, -2.157e-4
-1.094, -2.187e-4
-1.093, -2.218e-4
-1.092, -2.218e-4
-1.091, -2.187e-4
-1.090, -2.187e-4
-1.089, -2.187e-4
-1.088, -2.218e-4
-1.087, -2.218e-4
-1.086, -2.187e-4
-1.085, -2.187e-4
-1.084, -2.187e-4
-1.083, -2.218e-4
-1.082, -2.218e-4
-1.081, -2.187e-4
-1.080, -2.187e-4
-1.079, -2.218e-4
-1.078, -2.218e-4
-1.077, -2.249e-4
-1.076, -2.218e-4
-1.075, -2.218e-4
-1.074, -2.218e-4
-1.073, -2.249e-4
-1.072, -2.249e-4
-1.071, -2.218e-4
-1.070, -2.218e-4
-1.069, -2.218e-4
-1.068, -2.249e-4
-1.067, -2.249e-4
-1.066, -2.218e-4
-1.065, -2.218e-4
-1.064, -2.218e-4
-1.063, -2.280e-4
-1.062, -2.280e-4
-1.061, -2.249e-4
-1.060, -2.218e-4
-1.059, -2.249e-4
-1.058, -2.280e-4
-1.057, -2.280e-4
-1.056, -2.249e-4
-1.055, -2.249e-4
-1.054, -2.280e-4
-1.053, -2.280e-4
-1.052, -2.280e-4
-1.051, -2.249e-4
-1.050, -2.249e-4
-1.049, -2.249e-4
-1.048, -2.280e-4
-1.047, -2.311e-4
-1.046, -2.311e-4
-1.045, -2.280e-4
-1.044, -2.311e-4
-1.043, -2.311e-4
-1.042, -2.311e-4
-1.041, -2.311e-4
-1.040, -2.280e-4
-1.039, -2.280e-4
-1.038, -2.311e-4
-1.037, -2.311e-4
-1.036, -2.311e-4
-1.035, -2.311e-4
-1.034, -2.311e-4
-1.033, -2.342e-4
-1.032, -2.342e-4
-1.031, -2.311e-4
-1.030, -2.280e-4
-1.029, -2.311e-4
-1.028, -2.342e-4
-1.027, -2.342e-4
-1.026, -2.311e-4
-1.025, -2.342e-4
-1.024, -2.372e-4
-1.023, -2.403e-4
-1.022, -2.372e-4
-1.021, -2.342e-4
-1.020, -2.342e-4
-1.019, -2.372e-4
-1.018, -2.434e-4
-1.017, -2.434e-4
-1.016, -2.403e-4
-1.015, -2.372e-4
-1.014, -2.372e-4
-1.013, -2.403e-4
-1.012, -2.403e-4
-1.011, -2.342e-4
-1.010, -2.342e-4
-1.009, -2.403e-4
-1.008, -2.434e-4
-1.007, -2.465e-4
-1.006, -2.434e-4
-1.005, -2.403e-4
-1.004, -2.403e-4
-1.003, -2.434e-4
-1.002, -2.403e-4
-1.001, -2.403e-4
