Potential V vs RHE, Current mA cm-2
0.013299999999999867,-0.02199876071290132
0.012299999999999978,-0.025691157205549067
0.011299999999999866,-0.027332222313392506
0.010299999999999976,-0.02829422599730073
0.009299999999999864,-0.029383553698196813
0.008299999999999974,-0.030387998721100987
0.007299999999999862,-0.031250972614018664
0.006299999999999972,-0.03217053495893094
0.00529999999999986,-0.0327788608178729
0.0042999999999999705,-0.03311839152984051
0.0032999999999998586,-0.03378330584077707
0.0022999999999999687,-0.034717015298688
0.0012999999999998568,-0.03524045847963807
0.00029999999999996696,-0.03587707856457733
-0.000700000000000145,-0.03624490350254224
-0.0017000000000000348,-0.0366268755535058
-0.0027000000000001467,-0.03712202450845856
-0.0037000000000000366,-0.03798499840137624
-0.0047000000000001485,-0.0385367358083236
-0.005700000000000038,-0.0385650300343209
-0.00670000000000015,-0.03921579723225881
-0.00770000000000004,-0.039597769283222374
-0.008700000000000152,-0.04010706535117379
-0.009700000000000042,-0.04057392008012925
-0.010700000000000154,-0.04119639305206987
-0.011700000000000044,-0.041578365103033435
-0.012700000000000156,-0.042186690961975394
-0.013700000000000045,-0.04262525146493356
-0.014700000000000157,-0.043092106193889014
-0.015700000000000047,-0.04333260711486608
-0.01670000000000016,-0.04361554937483908
-0.01770000000000005,-0.04425216945977835
-0.01870000000000016,-0.04464828862374056
-0.01970000000000005,-0.04508684912669872
-0.020700000000000163,-0.04527076159568117
-0.021700000000000053,-0.04529905582167848
-0.022700000000000164,-0.046147882601597495
-0.023700000000000054,-0.04667132578254756
-0.024700000000000166,-0.04715232762450167
-0.025700000000000056,-0.047166474737500325
-0.026700000000000168,-0.047237210302493574
-0.027700000000000058,-0.04749185833646928
-0.02870000000000017,-0.048170919760404496
-0.02970000000000006,-0.04903389365332217
-0.03070000000000017,-0.049118776331314076
-0.03170000000000006,-0.04948660126927898
-0.03270000000000017,-0.049458307043281684
-0.03370000000000006,-0.05023639825820745
-0.034700000000000175,-0.050674958761165616
-0.035700000000000065,-0.050363722275195304
-0.03670000000000018,-0.051042783699130526
-0.03770000000000007,-0.051651109558072485
-0.03870000000000018,-0.051651109558072485
-0.03970000000000007,-0.05233017098200771
-0.04070000000000018,-0.0521038171740293
-0.04170000000000007,-0.05266970169397532
-0.04270000000000018,-0.052938496840949666
-0.04370000000000007,-0.053348763117910536
-0.044700000000000184,-0.05375902939487139
-0.045700000000000074,-0.0539005005248579
-0.046700000000000186,-0.05412685433283631
-0.047700000000000076,-0.05467859173978367
-0.04870000000000019,-0.055074710903745876
-0.04970000000000008,-0.05545668295470944
-0.05070000000000019,-0.055668889649689184
-0.05170000000000008,-0.05549912429370539
-0.05270000000000019,-0.05620647994363791
-0.05370000000000008,-0.05657430488160282
-0.05470000000000019,-0.056871394254574464
-0.05570000000000008,-0.05692798270656907
-0.056700000000000195,-0.05716848362754613
-0.057700000000000085,-0.05767777969549755
-0.058700000000000196,-0.057875839277478656
-0.059700000000000086,-0.058017310407465154
-0.0607000000000002,-0.05854075358841522
-0.06170000000000009,-0.05845587091042332
-0.0627000000000002,-0.05900760831737068
-0.06370000000000009,-0.059375433255335584
-0.0647000000000002,-0.059601787063313996
-0.06570000000000009,-0.059955464888280255
-0.0667000000000002,-0.0599979062272762
-0.0677000000000001,-0.060408172504237065
-0.0687000000000002,-0.06064867342521412
-0.0697000000000001,-0.06076185032920333
-0.07070000000000021,-0.06091746857218847
-0.0717000000000001,-0.06112967526716823
-0.07270000000000021,-0.0614550588661372
-0.0737000000000001,-0.06202094338608321
-0.07470000000000021,-0.06211997317707376
-0.0757000000000001,-0.062190708742067016
-0.07670000000000021,-0.06277074037501168
-0.0777000000000001,-0.06257268079303058
-0.07870000000000021,-0.06335077200795634
-0.0797000000000001,-0.0632800364429631
-0.08070000000000022,-0.0634498017989469
-0.0817000000000001,-0.06377518539791585
-0.08270000000000022,-0.06410056899688482
-0.08370000000000011,-0.06449668816084701
-0.08470000000000022,-0.06479377753381868
-0.08570000000000011,-0.06475133619482273
-0.08670000000000022,-0.06465230640383217
-0.08770000000000011,-0.06520404381077954
-0.08870000000000022,-0.06579822255672285
-0.08970000000000011,-0.06619434172068506
-0.09070000000000022,-0.06596798791270667
-0.09170000000000011,-0.06602457636470126
-0.09270000000000023,-0.06661875511064458
-0.09370000000000012,-0.0668168146926257
-0.09470000000000023,-0.06695828582261219
-0.09570000000000012,-0.06708560983960003
-0.09670000000000023,-0.06731196364757845
-0.09770000000000012,-0.0676656414725447
-0.09870000000000023,-0.0679485837325177
-0.09970000000000012,-0.06817493754049611
-0.10070000000000023,-0.06850032113946508
-0.10170000000000012,-0.06876911628643943
-0.10270000000000024,-0.06885399896443134
-0.10370000000000013,-0.0693774421453814
-0.10470000000000024,-0.06960379595335982
-0.10570000000000013,-0.06953306038836657
-0.10670000000000024,-0.06985844398733551
-0.10770000000000013,-0.06999991511732201
-0.10870000000000024,-0.07050921118527342
-0.10970000000000013,-0.07049506407227478
-0.11070000000000024,-0.07073556499325184
-0.11170000000000013,-0.07103265436622348
-0.11270000000000002,-0.07099021302722754
-0.11370000000000013,-0.07183903980714657
-0.11470000000000002,-0.07183903980714657
-0.11570000000000014,-0.07222101185811013
-0.11670000000000003,-0.07223515897110877
-0.11770000000000014,-0.07268786658706558
-0.11870000000000003,-0.0732254568810143
-0.11970000000000014,-0.0731122799770251
-0.12070000000000003,-0.07319716265501701
-0.12170000000000014,-0.07329619244600755
-0.12270000000000003,-0.07389037119195085
-0.12370000000000014,-0.07411672499992927
-0.12470000000000003,-0.07438552014690362
-0.12570000000000014,-0.07430063746891173
-0.12670000000000003,-0.0747957864238645
-0.12770000000000015,-0.07492311044085233
-0.12870000000000004,-0.0754465536218024
-0.12970000000000015,-0.07592755546375651
-0.13070000000000004,-0.07563046609078486
-0.13170000000000015,-0.07605487948074438
-0.13270000000000004,-0.07619635061073088
-0.13370000000000015,-0.07683297069567015
-0.13470000000000004,-0.0768754120346661
-0.13570000000000015,-0.0770734716166472
-0.13670000000000004,-0.07714420718164045
-0.13770000000000016,-0.0773281196506229
-0.13870000000000005,-0.07812035797854733
-0.13970000000000016,-0.07823353488253654
-0.14070000000000005,-0.0783891531255217
-0.14170000000000016,-0.07858721270750278
-0.14270000000000005,-0.0791530972274488
-0.14370000000000016,-0.0792096856794434
-0.14470000000000005,-0.07961995195640426
-0.14570000000000016,-0.07947848082641776
-0.14670000000000005,-0.07974727597339212
-0.14770000000000016,-0.07998777689436919
-0.14870000000000005,-0.08053951430131655
-0.14970000000000017,-0.08076586810929494
-0.15070000000000006,-0.08068098543130305
-0.15170000000000017,-0.08124686995124906
-0.15270000000000006,-0.08154395932422072
-0.15370000000000017,-0.08196837271418023
-0.15470000000000006,-0.08222302074815592
-0.15570000000000017,-0.08226546208715188
-0.15670000000000006,-0.08244937455613434
-0.15770000000000017,-0.08278890526810194
-0.15870000000000006,-0.08334064267504931
-0.15970000000000018,-0.08375090895201018
-0.16070000000000007,-0.08353870225703043
-0.16170000000000018,-0.08417532234196969
-0.16270000000000007,-0.08447241171494134
-0.16370000000000018,-0.08498170778289275
-0.16470000000000007,-0.08523635581686846
-0.16570000000000018,-0.08513732602587791
-0.16670000000000007,-0.08557588652883606
-0.16770000000000018,-0.08614177104878207
-0.16870000000000007,-0.08660862577773754
-0.16970000000000018,-0.08686327381171326
-0.17070000000000007,-0.08679253824672
-0.17170000000000019,-0.08700474494169977
-0.17270000000000008,-0.08769795347863363
-0.1737000000000002,-0.08827798511157829
-0.17470000000000008,-0.08836286778957018
-0.1757000000000002,-0.08878728117952969
-0.17670000000000008,-0.0890985176655
-0.1777000000000002,-0.08967854929844467
-0.17870000000000008,-0.08990490310642309
-0.1797000000000002,-0.09024443381839069
-0.18070000000000008,-0.09051322896536505
-0.1817000000000002,-0.09103667214631511
-0.18270000000000008,-0.09154596821426653
-0.1837000000000002,-0.09199867583022334
-0.1847000000000001,-0.0923523536551896
-0.1857000000000002,-0.09256456035016934
-0.1867000000000001,-0.09298897374012885
-0.1877000000000002,-0.09366803516406408
-0.1887000000000001,-0.09419147834501414
-0.1897000000000002,-0.09438953792699524
-0.1907000000000001,-0.09489883399494665
-0.1917000000000001,-0.09487053976894937
-0.19269999999999998,-0.09597401458284409
-0.1937000000000001,-0.096624781780782
-0.19469999999999998,-0.09699260671874692
-0.1957000000000001,-0.09711993073573477
-0.19669999999999999,-0.09798290462865245
-0.1977000000000001,-0.09818096421063353
-0.1987,-0.09901564387755392
-0.1997000000000001,-0.09934102747652288
-0.2007,-0.09996350044846349
-0.2017000000000001,-0.10082647434138116
-0.2027,-0.10101038681036362
-0.2037000000000001,-0.10180262513828804
-0.2047,-0.10242509811022867
-0.2057000000000001,-0.10265145191820706
-0.2067,-0.10348613158512744
-0.2077000000000001,-0.10402372187907614
-0.2087,-0.10501401978898167
-0.2097000000000001,-0.10548087451793714
-0.2107,-0.1058628465689007
-0.2117000000000001,-0.10659849644483052
-0.2127,-0.10748976456374548
-0.2137000000000001,-0.10845176824765372
-0.2147,-0.10911668255859029
-0.2157000000000001,-0.10989477377351606
-0.2167,-0.11031918716347557
-0.21770000000000012,-0.11142266197737029
-0.2187,-0.11235637143528121
-0.21970000000000012,-0.11302128574621777
-0.2207,-0.1138418183001395
-0.22170000000000012,-0.11495944022703289
-0.2227,-0.11573753144195865
-0.22370000000000012,-0.11686930048185068
-0.2247,-0.11727956675881154
-0.22570000000000012,-0.11825571755571843
-0.2267,-0.11910454433563744
-0.22770000000000012,-0.12002410668054972
-0.22870000000000001,-0.12163687756239586
-0.22970000000000013,-0.12208958517835267
-0.23070000000000002,-0.12293841195827168
-0.23170000000000013,-0.12422579924114888
-0.23270000000000002,-0.12565465765401257
-0.23370000000000013,-0.12688545648489513
-0.23470000000000002,-0.12743719389184252
-0.23570000000000013,-0.12888019941770484
-0.23670000000000002,-0.13019588092657933
-0.2376999999999999,-0.1312569144014781
-0.23870000000000002,-0.13268577281434177
-0.2396999999999999,-0.13346386402926755
-0.24070000000000003,-0.13503419357211774
-0.24169999999999991,-0.13660452311496796
-0.24270000000000003,-0.13793435173684107
-0.24369999999999992,-0.13943394571469803
-0.24470000000000003,-0.1406364503195833
-0.24569999999999992,-0.1420370145064497
-0.24670000000000003,-0.1434517258063147
-0.24769999999999992,-0.14529085049613927
-0.24870000000000003,-0.14684703292599083
-0.24969999999999992,-0.14840321535584233
-0.25070000000000003,-0.1498179266557074
-0.2516999999999999,-0.1512326379555724
-0.25270000000000004,-0.15335470490536995
-0.2536999999999999,-0.1551938295951945
-0.25470000000000004,-0.15646706976507307
-0.2556999999999999,-0.1584476655848841
-0.25670000000000004,-0.16014531914472213
-0.25769999999999993,-0.1626917994844792
-0.25870000000000004,-0.16438945304431726
-0.25969999999999993,-0.16608710660415532
-0.26070000000000004,-0.16806770242396638
-0.26169999999999993,-0.17018976937376393
-0.26270000000000004,-0.17202889406358848
-0.26369999999999993,-0.17457537440334553
-0.26470000000000005,-0.17641449909317006
-0.26569999999999994,-0.17867803717295414
-0.26670000000000005,-0.18094157525273818
-0.26769999999999994,-0.18334658446250876
-0.26870000000000005,-0.1860345359322523
-0.26969999999999994,-0.18843954514202288
-0.27070000000000005,-0.19070308322180693
-0.27169999999999994,-0.192966621301591
-0.27270000000000005,-0.19565457277133455
-0.27369999999999994,-0.19876693763103764
-0.27470000000000006,-0.2010304757108217
-0.27569999999999995,-0.2037184271805653
-0.27670000000000006,-0.20626490752032234
-0.27769999999999995,-0.2089528589900659
-0.27870000000000006,-0.21248963723972852
-0.27969999999999995,-0.2151775887094721
-0.28070000000000006,-0.21800701130920216
-0.28169999999999995,-0.22111937616890526
-0.28270000000000006,-0.2239487987686353
-0.28369999999999995,-0.2276270481482844
-0.28470000000000006,-0.23045647074801448
-0.28569999999999995,-0.23328589334774452
-0.28670000000000007,-0.2365397293374341
-0.28769999999999996,-0.24035944984706975
-0.28870000000000007,-0.24403769922671883
-0.28969999999999996,-0.24729153521640837
-0.29070000000000007,-0.250828313466071
-0.29169999999999996,-0.25450656284572004
-0.29270000000000007,-0.25790186996539616
-0.29369999999999996,-0.2624289461249643
-0.2947000000000001,-0.26582425324464043
-0.29569999999999996,-0.2697854448842625
-0.2967000000000001,-0.2733222231339251
-0.29769999999999996,-0.2775663570335202
-0.2987000000000001,-0.2818104909331153
-0.29969999999999997,-0.2857716825727374
-0.3007000000000001,-0.289874345342346
-0.30169999999999997,-0.29425995037192765
-0.3027000000000001,-0.29850408427152275
-0.30369999999999997,-0.3033141026910639
-0.3047000000000001,-0.3076997077206455
-0.30569999999999997,-0.31236825501020005
-0.3067000000000001,-0.3170368022997547
-0.3077,-0.3221297629792688
-0.3087000000000001,-0.32708125252879644
-0.3097,-0.33146685755837807
-0.3107000000000001,-0.3362768759779193
-0.3117,-0.34151130778741984
-0.3127000000000001,-0.346887210726907
-0.3137,-0.3525460559263671
-0.3147000000000001,-0.35763901660588127
-0.3157,-0.36287344841538194
-0.3167000000000001,-0.3686737647448286
-0.3177,-0.37390819655432916
-0.3187000000000001,-0.38013292627373535
-0.3197,-0.38565030034320896
-0.3207000000000001,-0.3915920878026421
-0.3217,-0.3975338752620753
-0.3227000000000001,-0.40404154724145447
-0.3237,-0.41012480583087413
-0.3247000000000001,-0.4164910066802668
-0.3257,-0.4225742652696865
-0.3267000000000001,-0.42865752385910616
-0.3277,-0.43573108035843133
-0.3287000000000001,-0.44266316572777
-0.3297,-0.44888789544717617
-0.3307000000000001,-0.45553703855654176
-0.3317,-0.46246912392588047
-0.3327000000000001,-0.46968415155519216
-0.3337,-0.47718212144447686
-0.3347000000000001,-0.48354832229386957
-0.3357,-0.49090482105316774
-0.3367000000000001,-0.4981198486824793
-0.3377,-0.5054763474417775
-0.3387000000000001,-0.5132572595910353
-0.3397,-0.520189344960374
-0.3407000000000001,-0.5276873148496587
-0.3417,-0.5351852847389434
-0.3427000000000001,-0.5432491391481741
-0.3437,-0.5510300512974318
-0.3447000000000001,-0.5582450789267435
-0.3457,-0.5665918755959471
-0.3467000000000001,-0.5739483743552454
-0.3477,-0.5820122287644761
-0.3487000000000001,-0.5897931409137338
-0.3497,-0.5977155241929779
-0.3507000000000001,-0.6053549652122492
-0.3517,-0.6135602907514663
-0.3527000000000001,-0.6216241451606972
-0.3537,-0.6301124129598873
-0.3547000000000001,-0.637893325109145
-0.3557,-0.6458157083883892
-0.35670000000000013,-0.6547283895775389
-0.3577,-0.6630751862467427
-0.35870000000000013,-0.6712805117859599
-0.3597,-0.6796273084551637
-0.36070000000000013,-0.6879741051243674
-0.3617,-0.6967453151835306
-0.3626999999999999,-0.7059409386326533
-0.3637,-0.7142877353018571
-0.3646999999999999,-0.7233418876209933
-0.3657,-0.731688684290197
-0.3666999999999999,-0.7408843077393197
-0.3677,-0.749938460058456
-0.3686999999999999,-0.7592755546375651
-0.36970000000000003,-0.769037062606634
-0.3706999999999999,-0.7780912149257702
-0.37170000000000003,-0.7874283095048794
-0.3726999999999999,-0.7971898174739481
-0.37370000000000003,-0.8070927965730035
-0.3746999999999999,-0.8168543045420722
-0.37570000000000003,-0.8261913991211816
-0.3766999999999999,-0.8363773204802097
-0.37770000000000004,-0.8467047129692244
-0.3786999999999999,-0.8566076920682798
-0.37970000000000004,-0.8669350845572944
-0.3806999999999999,-0.8768380636563498
-0.38170000000000004,-0.8877313406653105
-0.38269999999999993,-0.8983416754142982
-0.38370000000000004,-0.9090934812932725
-0.38469999999999993,-0.9198452871722468
-0.38570000000000004,-0.9305970930512211
-0.38669999999999993,-0.9416318411901684
-0.38770000000000004,-0.9533739449790483
-0.38869999999999993,-0.9645501642479821
-0.38970000000000005,-0.9761507969068753
-0.39069999999999994,-0.9874684873057956
-0.39170000000000005,-0.9992105910946756
-0.39269999999999994,-1.011518579403501
-0.39370000000000005,-1.0231192120623944
-0.39469999999999994,-1.0348613158512743
-0.39570000000000005,-1.0473107752900865
-0.39669999999999994,-1.059477292468926
-0.39770000000000005,-1.0719267519077382
-0.39869999999999994,-1.0852250381264696
-0.39970000000000006,-1.0975330264352956
-0.40069999999999995,-1.1098410147441211
-0.40170000000000006,-1.1232807720928393
-0.40269999999999995,-1.1360131737916246
-0.40370000000000006,-1.1491699888803693
-0.40469999999999995,-1.1619023905791546
-0.40570000000000006,-1.1756250901878456
-0.40669999999999995,-1.1886404341466037
-0.40770000000000006,-1.2020801914953216
-0.40869999999999995,-1.2158028911040124
-0.40970000000000006,-1.2302329463626358
-0.41069999999999995,-1.243389761451381
-0.41170000000000007,-1.2579612878399904
-0.41269999999999996,-1.2725328142286005
-0.41370000000000007,-1.2868213983572372
-0.41469999999999996,-1.3008270402259012
-0.41570000000000007,-1.3158229800044707
-0.41669999999999996,-1.3306774486530535
-0.41770000000000007,-1.345956330691596
-0.41869999999999996,-1.3605278570802057
-0.4197000000000001,-1.3765140947686807
-0.42069999999999996,-1.3919344479372096
-0.4217000000000001,-1.406930387715779
-0.42269999999999996,-1.423199567664227
-0.4237000000000001,-1.4387613919627424
-0.42469999999999997,-1.4543232162612578
-0.4257000000000001,-1.4698850405597732
-0.42669999999999997,-1.4854468648582886
-0.4277000000000001,-1.502423400456669
-0.42869999999999997,-1.5179852247551844
-0.4297000000000001,-1.5349617603535646
-0.43069999999999997,-1.55052358465208
-0.4317000000000001,-1.5660854089505953
-0.4327,-1.583061944548976
-0.4337000000000001,-1.6014531914472214
-0.4347,-1.6184297270456018
-0.4357000000000001,-1.6354062626439825
-0.4367,-1.6523827982423631
-0.4377000000000001,-1.6707740451406083
-0.4387,-1.6877505807389888
-0.4397000000000001,-1.7061418276372344
-0.4407,-1.7245330745354797
-0.4417000000000001,-1.7429243214337253
-0.4427,-1.7613155683319706
-0.4437000000000001,-1.781121526530081
-0.4447,-1.7995127734283267
-0.4457000000000001,-1.8179040203265722
-0.4467,-1.8362952672248178
-0.4477000000000001,-1.8546865141230628
-0.4487,-1.8744924723211736
-0.4497000000000001,-1.894298430519284
-0.4507,-1.9141043887173947
-0.4517000000000001,-1.933910346915505
-0.4527,-1.9537163051136157
-0.4537000000000001,-1.9735222633117262
-0.4547,-1.993328221509837
-0.4557000000000001,-2.013134179707947
-0.4567,-2.0343548492059225
-0.4577000000000001,-2.0555755187038987
-0.4587,-2.076796188201874
-0.4597000000000001,-2.0980168576998492
-0.4607,-2.1192375271978254
-0.4617000000000001,-2.1404581966958003
-0.4627,-2.1630935774936413
-0.4637000000000001,-2.184314246991617
-0.4647,-2.208364339089322
-0.4657000000000001,-2.229585008587298
-0.4667,-2.250805678085273
-0.4677000000000001,-2.273441058883114
-0.4687,-2.2974911509808194
-0.4697000000000001,-2.3201265317786604
-0.4707,-2.3441766238763657
-0.4717000000000001,-2.3668120046742067
-0.4727,-2.3908620967719116
-0.4737000000000001,-2.414912188869618
-0.4747,-2.438962280967323
-0.4757000000000001,-2.461597661765164
-0.4767,-2.4870624651627344
-0.4777000000000001,-2.512527268560305
-0.4787,-2.5379920719578757
-0.4797000000000001,-2.5634568753554463
-0.4807,-2.588921678753017
-0.48170000000000013,-2.6143864821505876
-0.4827,-2.639851285548158
-0.48370000000000013,-2.666730800245594
-0.4847,-2.6921956036431647
-0.48570000000000013,-2.719075118340601
-0.4867,-2.745954633038036
-0.4876999999999999,-2.7714194364356066
-0.4887,-2.7997136624329078
-0.4896999999999999,-2.8280078884302084
-0.4907,-2.854887403127644
-0.4916999999999999,-2.8831816291249446
