Dec. 17, 2024   01:47:10
Cyclic Voltammetry
File: c:/users/guazh/data/banditlqround7_x0exp667_r5/2024-12-16-exp676\exp676-2024-12-17t01_38_27-arkoh\exp676_cv_50mvs_efin_-1600mv.bin
Data Source:  Experiment
Instrument Model:  CHI760E
Header: CV ran at 50 mVs
Note: 

Init E (V) = -1
High E (V) = -1
Low E (V) = -1.6
Final E (V) = -1
Init P/N = N
Scan Rate (V/s) = 0.05
Segment = 7
Sample Interval (V) = 0.001
Quiet Time (sec) = 60
Sensitivity (A/V) = 0.001
Comp R (ohm) = 1.1

Results:

Channel 1:
Segment 1:
Ep = -1.247V
ip = 6.715e-5A
Ah = 9.593e-5C

Segment 2:
Ep = -1.177V
ip = -3.569e-5A
Ah = -3.216e-5C

Segment 3:
Ep = -1.251V
ip = 2.432e-5A
Ah = 3.467e-5C

Segment 4:
Ep = -1.177V
ip = -3.884e-5A
Ah = -3.667e-5C

Segment 5:
Ep = -1.246V
ip = 2.254e-5A
Ah = 3.065e-5C

Segment 6:
Ep = -1.182V
ip = -3.797e-5A
Ah = -3.064e-5C

Segment 7:

Potential/V, Current/A

-1.000, 3.295e-6
-1.001, 5.268e-6
-1.002, 5.650e-6
-1.003, 5.138e-6
-1.004, 5.111e-6
-1.005, 5.675e-6
-1.006, 6.606e-6
-1.007, 6.751e-6
-1.008, 6.180e-6
-1.009, 5.987e-6
-1.010, 6.655e-6
-1.011, 7.394e-6
-1.012, 7.517e-6
-1.013, 7.053e-6
-1.014, 6.764e-6
-1.015, 7.419e-6
-1.016, 8.192e-6
-1.017, 8.246e-6
-1.018, 7.861e-6
-1.019, 7.489e-6
-1.020, 8.184e-6
-1.021, 8.935e-6
-1.022, 9.102e-6
-1.023, 8.608e-6
-1.024, 8.325e-6
-1.025, 8.937e-6
-1.026, 9.811e-6
-1.027, 9.960e-6
-1.028, 9.452e-6
-1.029, 9.147e-6
-1.030, 9.903e-6
-1.031, 1.078e-5
-1.032, 1.089e-5
-1.033, 1.037e-5
-1.034, 1.022e-5
-1.035, 1.082e-5
-1.036, 1.172e-5
-1.037, 1.200e-5
-1.038, 1.145e-5
-1.039, 1.125e-5
-1.040, 1.186e-5
-1.041, 1.288e-5
-1.042, 1.317e-5
-1.043, 1.259e-5
-1.044, 1.249e-5
-1.045, 1.308e-5
-1.046, 1.408e-5
-1.047, 1.440e-5
-1.048, 1.389e-5
-1.049, 1.369e-5
-1.050, 1.442e-5
-1.051, 1.542e-5
-1.052, 1.565e-5
-1.053, 1.524e-5
-1.054, 1.508e-5
-1.055, 1.575e-5
-1.056, 1.682e-5
-1.057, 1.712e-5
-1.058, 1.674e-5
-1.059, 1.647e-5
-1.060, 1.728e-5
-1.061, 1.825e-5
-1.062, 1.860e-5
-1.063, 1.823e-5
-1.064, 1.788e-5
-1.065, 1.870e-5
-1.066, 1.983e-5
-1.067, 2.015e-5
-1.068, 1.969e-5
-1.069, 1.953e-5
-1.070, 2.025e-5
-1.071, 2.132e-5
-1.072, 2.170e-5
-1.073, 2.123e-5
-1.074, 2.110e-5
-1.075, 2.183e-5
-1.076, 2.294e-5
-1.077, 2.327e-5
-1.078, 2.276e-5
-1.079, 2.268e-5
-1.080, 2.329e-5
-1.081, 2.440e-5
-1.082, 2.484e-5
-1.083, 2.425e-5
-1.084, 2.420e-5
-1.085, 2.478e-5
-1.086, 2.588e-5
-1.087, 2.632e-5
-1.088, 2.586e-5
-1.089, 2.564e-5
-1.090, 2.636e-5
-1.091, 2.742e-5
-1.092, 2.776e-5
-1.093, 2.733e-5
-1.094, 2.707e-5
-1.095, 2.789e-5
-1.096, 2.888e-5
-1.097, 2.919e-5
-1.098, 2.885e-5
-1.099, 2.849e-5
-1.100, 2.928e-5
-1.101, 3.029e-5
-1.102, 3.064e-5
-1.103, 3.030e-5
-1.104, 2.997e-5
-1.105, 3.073e-5
-1.106, 3.174e-5
-1.107, 3.207e-5
-1.108, 3.169e-5
-1.109, 3.140e-5
-1.110, 3.215e-5
-1.111, 3.322e-5
-1.112, 3.353e-5
-1.113, 3.298e-5
-1.114, 3.294e-5
-1.115, 3.359e-5
-1.116, 3.465e-5
-1.117, 3.498e-5
-1.118, 3.454e-5
-1.119, 3.437e-5
-1.120, 3.503e-5
-1.121, 3.614e-5
-1.122, 3.653e-5
-1.123, 3.598e-5
-1.124, 3.590e-5
-1.125, 3.658e-5
-1.126, 3.761e-5
-1.127, 3.808e-5
-1.128, 3.752e-5
-1.129, 3.745e-5
-1.130, 3.819e-5
-1.131, 3.922e-5
-1.132, 3.966e-5
-1.133, 3.925e-5
-1.134, 3.911e-5
-1.135, 3.986e-5
-1.136, 4.097e-5
-1.137, 4.137e-5
-1.138, 4.110e-5
-1.139, 4.083e-5
-1.140, 4.171e-5
-1.141, 4.284e-5
-1.142, 4.320e-5
-1.143, 4.304e-5
-1.144, 4.274e-5
-1.145, 4.365e-5
-1.146, 4.480e-5
-1.147, 4.531e-5
-1.148, 4.504e-5
-1.149, 4.494e-5
-1.150, 4.579e-5
-1.151, 4.699e-5
-1.152, 4.759e-5
-1.153, 4.722e-5
-1.154, 4.720e-5
-1.155, 4.812e-5
-1.156, 4.933e-5
-1.157, 4.988e-5
-1.158, 4.968e-5
-1.159, 4.974e-5
-1.160, 5.056e-5
-1.161, 5.186e-5
-1.162, 5.251e-5
-1.163, 5.237e-5
-1.164, 5.247e-5
-1.165, 5.329e-5
-1.166, 5.464e-5
-1.167, 5.535e-5
-1.168, 5.518e-5
-1.169, 5.532e-5
-1.170, 5.623e-5
-1.171, 5.764e-5
-1.172, 5.833e-5
-1.173, 5.821e-5
-1.174, 5.840e-5
-1.175, 5.944e-5
-1.176, 6.082e-5
-1.177, 6.161e-5
-1.178, 6.174e-5
-1.179, 6.172e-5
-1.180, 6.289e-5
-1.181, 6.434e-5
-1.182, 6.514e-5
-1.183, 6.523e-5
-1.184, 6.530e-5
-1.185, 6.650e-5
-1.186, 6.803e-5
-1.187, 6.884e-5
-1.188, 6.903e-5
-1.189, 6.920e-5
-1.190, 7.048e-5
-1.191, 7.202e-5
-1.192, 7.298e-5
-1.193, 7.308e-5
-1.194, 7.329e-5
-1.195, 7.457e-5
-1.196, 7.608e-5
-1.197, 7.718e-5
-1.198, 7.732e-5
-1.199, 7.769e-5
-1.200, 7.883e-5
-1.201, 8.054e-5
-1.202, 8.163e-5
-1.203, 8.172e-5
-1.204, 8.212e-5
-1.205, 8.336e-5
-1.206, 8.510e-5
-1.207, 8.628e-5
-1.208, 8.636e-5
-1.209, 8.670e-5
-1.210, 8.803e-5
-1.211, 8.978e-5
-1.212, 9.092e-5
-1.213, 9.107e-5
-1.214, 9.142e-5
-1.215, 9.271e-5
-1.216, 9.448e-5
-1.217, 9.557e-5
-1.218, 9.578e-5
-1.219, 9.597e-5
-1.220, 9.734e-5
-1.221, 9.911e-5
-1.222, 1.001e-4
-1.223, 1.003e-4
-1.224, 1.004e-4
-1.225, 1.017e-4
-1.226, 1.035e-4
-1.227, 1.044e-4
-1.228, 1.046e-4
-1.229, 1.048e-4
-1.230, 1.058e-4
-1.231, 1.075e-4
-1.232, 1.083e-4
-1.233, 1.082e-4
-1.234, 1.081e-4
-1.235, 1.091e-4
-1.236, 1.106e-4
-1.237, 1.112e-4
-1.238, 1.109e-4
-1.239, 1.106e-4
-1.240, 1.113e-4
-1.241, 1.126e-4
-1.242, 1.131e-4
-1.243, 1.126e-4
-1.244, 1.119e-4
-1.245, 1.126e-4
-1.246, 1.136e-4
-1.247, 1.139e-4
-1.248, 1.130e-4
-1.249, 1.122e-4
-1.250, 1.126e-4
-1.251, 1.133e-4
-1.252, 1.133e-4
-1.253, 1.123e-4
-1.254, 1.112e-4
-1.255, 1.114e-4
-1.256, 1.119e-4
-1.257, 1.117e-4
-1.258, 1.104e-4
-1.259, 1.090e-4
-1.260, 1.090e-4
-1.261, 1.093e-4
-1.262, 1.090e-4
-1.263, 1.075e-4
-1.264, 1.059e-4
-1.265, 1.055e-4
-1.266, 1.058e-4
-1.267, 1.052e-4
-1.268, 1.034e-4
-1.269, 1.018e-4
-1.270, 1.013e-4
-1.271, 1.015e-4
-1.272, 1.007e-4
-1.273, 9.890e-5
-1.274, 9.712e-5
-1.275, 9.640e-5
-1.276, 9.653e-5
-1.277, 9.554e-5
-1.278, 9.363e-5
-1.279, 9.176e-5
-1.280, 9.119e-5
-1.281, 9.109e-5
-1.282, 9.007e-5
-1.283, 8.803e-5
-1.284, 8.598e-5
-1.285, 8.536e-5
-1.286, 8.513e-5
-1.287, 8.426e-5
-1.288, 8.217e-5
-1.289, 8.008e-5
-1.290, 7.956e-5
-1.291, 7.930e-5
-1.292, 7.846e-5
-1.293, 7.637e-5
-1.294, 7.445e-5
-1.295, 7.386e-5
-1.296, 7.375e-5
-1.297, 7.298e-5
-1.298, 7.110e-5
-1.299, 6.904e-5
-1.300, 6.852e-5
-1.301, 6.866e-5
-1.302, 6.794e-5
-1.303, 6.608e-5
-1.304, 6.431e-5
-1.305, 6.395e-5
-1.306, 6.430e-5
-1.307, 6.364e-5
-1.308, 6.187e-5
-1.309, 6.031e-5
-1.310, 6.004e-5
-1.311, 6.056e-5
-1.312, 5.999e-5
-1.313, 5.839e-5
-1.314, 5.704e-5
-1.315, 5.696e-5
-1.316, 5.763e-5
-1.317, 5.725e-5
-1.318, 5.582e-5
-1.319, 5.461e-5
-1.320, 5.464e-5
-1.321, 5.541e-5
-1.322, 5.524e-5
-1.323, 5.383e-5
-1.324, 5.279e-5
-1.325, 5.300e-5
-1.326, 5.390e-5
-1.327, 5.390e-5
-1.328, 5.264e-5
-1.329, 5.155e-5
-1.330, 5.197e-5
-1.331, 5.300e-5
-1.332, 5.302e-5
-1.333, 5.195e-5
-1.334, 5.095e-5
-1.335, 5.157e-5
-1.336, 5.256e-5
-1.337, 5.268e-5
-1.338, 5.173e-5
-1.339, 5.081e-5
-1.340, 5.152e-5
-1.341, 5.265e-5
-1.342, 5.292e-5
-1.343, 5.205e-5
-1.344, 5.115e-5
-1.345, 5.195e-5
-1.346, 5.321e-5
-1.347, 5.342e-5
-1.348, 5.264e-5
-1.349, 5.189e-5
-1.350, 5.284e-5
-1.351, 5.399e-5
-1.352, 5.438e-5
-1.353, 5.354e-5
-1.354, 5.313e-5
-1.355, 5.389e-5
-1.356, 5.535e-5
-1.357, 5.573e-5
-1.358, 5.480e-5
-1.359, 5.441e-5
-1.360, 5.525e-5
-1.361, 5.671e-5
-1.362, 5.727e-5
-1.363, 5.639e-5
-1.364, 5.608e-5
-1.365, 5.710e-5
-1.366, 5.862e-5
-1.367, 5.944e-5
-1.368, 5.850e-5
-1.369, 5.798e-5
-1.370, 5.896e-5
-1.371, 6.043e-5
-1.372, 6.097e-5
-1.373, 6.020e-5
-1.374, 6.001e-5
-1.375, 6.117e-5
-1.376, 6.247e-5
-1.377, 6.304e-5
-1.378, 6.248e-5
-1.379, 6.195e-5
-1.380, 6.311e-5
-1.381, 6.466e-5
-1.382, 6.517e-5
-1.383, 6.443e-5
-1.384, 6.376e-5
-1.385, 6.483e-5
-1.386, 6.633e-5
-1.387, 6.674e-5
-1.388, 6.610e-5
-1.389, 6.548e-5
-1.390, 6.654e-5
-1.391, 6.806e-5
-1.392, 6.827e-5
-1.393, 6.758e-5
-1.394, 6.710e-5
-1.395, 6.805e-5
-1.396, 6.942e-5
-1.397, 6.967e-5
-1.398, 6.879e-5
-1.399, 6.832e-5
-1.400, 6.918e-5
-1.401, 7.034e-5
-1.402, 7.061e-5
-1.403, 6.958e-5
-1.404, 6.899e-5
-1.405, 6.989e-5
-1.406, 7.094e-5
-1.407, 7.125e-5
-1.408, 7.007e-5
-1.409, 6.933e-5
-1.410, 7.027e-5
-1.411, 7.129e-5
-1.412, 7.138e-5
-1.413, 7.021e-5
-1.414, 6.953e-5
-1.415, 7.031e-5
-1.416, 7.124e-5
-1.417, 7.131e-5
-1.418, 7.019e-5
-1.419, 6.941e-5
-1.420, 7.023e-5
-1.421, 7.120e-5
-1.422, 7.117e-5
-1.423, 7.010e-5
-1.424, 6.929e-5
-1.425, 7.018e-5
-1.426, 7.122e-5
-1.427, 7.108e-5
-1.428, 7.006e-5
-1.429, 6.955e-5
-1.430, 7.032e-5
-1.431, 7.151e-5
-1.432, 7.142e-5
-1.433, 7.057e-5
-1.434, 7.025e-5
-1.435, 7.109e-5
-1.436, 7.235e-5
-1.437, 7.250e-5
-1.438, 7.172e-5
-1.439, 7.169e-5
-1.440, 7.279e-5
-1.441, 7.424e-5
-1.442, 7.467e-5
-1.443, 7.424e-5
-1.444, 7.460e-5
-1.445, 7.610e-5
-1.446, 7.792e-5
-1.447, 7.886e-5
-1.448, 7.916e-5
-1.449, 8.026e-5
-1.450, 8.298e-5
-1.451, 8.644e-5
-1.452, 9.038e-5
-1.453, 9.459e-5
-1.454, 1.005e-4
-1.455, 1.091e-4
-1.456, 1.200e-4
-1.457, 1.342e-4
-1.458, 1.525e-4
-1.459, 1.760e-4
-1.460, 2.048e-4
-1.461, 2.336e-4
-1.462, 2.669e-4
-1.463, 3.003e-4
-1.464, 3.519e-4
-1.465, 4.097e-4
-1.466, 4.766e-4
-1.467, 5.487e-4
-1.468, 6.187e-4
-1.469, 7.078e-4
-1.470, 8.130e-4
-1.471, 9.258e-4
-1.472, 1.047e-3
-1.473, 1.155e-3
-1.474, 1.264e-3
-1.475, 1.350e-3
-1.476, 1.434e-3
-1.477, 1.490e-3
-1.478, 1.536e-3
-1.479, 1.571e-3
-1.480, 1.603e-3
-1.481, 1.638e-3
-1.482, 1.670e-3
-1.483, 1.699e-3
-1.484, 1.707e-3
-1.485, 1.732e-3
-1.486, 1.761e-3
-1.487, 1.783e-3
-1.488, 1.812e-3
-1.489, 1.831e-3
-1.490, 1.855e-3
-1.491, 1.883e-3
-1.492, 1.889e-3
-1.493, 1.917e-3
-1.494, 1.940e-3
-1.495, 1.963e-3
-1.496, 1.992e-3
-1.497, 2.024e-3
-1.498, 2.040e-3
-1.499, 2.047e-3
-1.500, 2.060e-3
-1.501, 2.105e-3
-1.502, 2.135e-3
-1.503, 2.157e-3
-1.504, 2.201e-3
-1.505, 2.218e-3
-1.506, 2.253e-3
-1.507, 2.281e-3
-1.508, 2.312e-3
-1.509, 2.341e-3
-1.510, 2.384e-3
-1.511, 2.414e-3
-1.512, 2.439e-3
-1.513, 2.455e-3
-1.514, 2.481e-3
-1.515, 2.508e-3
-1.516, 2.531e-3
-1.517, 2.571e-3
-1.518, 2.601e-3
-1.519, 2.641e-3
-1.520, 2.679e-3
-1.521, 2.695e-3
-1.522, 2.733e-3
-1.523, 2.752e-3
-1.524, 2.765e-3
-1.525, 2.798e-3
-1.526, 2.834e-3
-1.527, 2.861e-3
-1.528, 2.914e-3
-1.529, 2.933e-3
-1.530, 2.944e-3
-1.531, 2.985e-3
-1.532, 3.022e-3
-1.533, 3.062e-3
-1.534, 3.083e-3
-1.535, 3.108e-3
-1.536, 3.129e-3
-1.537, 3.165e-3
-1.538, 3.198e-3
-1.539, 3.216e-3
-1.540, 3.244e-3
-1.541, 3.263e-3
-1.542, 3.301e-3
-1.543, 3.337e-3
-1.544, 3.371e-3
-1.545, 3.387e-3
-1.546, 3.418e-3
-1.547, 3.499e-3
-1.548, 3.519e-3
-1.549, 3.571e-3
-1.550, 3.604e-3
-1.551, 3.662e-3
-1.552, 3.675e-3
-1.553, 3.685e-3
-1.554, 3.678e-3
-1.555, 3.751e-3
-1.556, 3.812e-3
-1.557, 3.878e-3
-1.558, 3.887e-3
-1.559, 3.872e-3
-1.560, 3.890e-3
-1.561, 3.904e-3
-1.562, 3.922e-3
-1.563, 3.948e-3
-1.564, 3.954e-3
-1.565, 4.011e-3
-1.566, 4.016e-3
-1.567, 4.047e-3
-1.568, 4.073e-3
-1.569, 4.149e-3
-1.570, 4.173e-3
-1.571, 4.184e-3
-1.572, 4.236e-3
-1.573, 4.250e-3
-1.574, 4.268e-3
-1.575, 4.316e-3
-1.576, 4.360e-3
-1.577, 4.455e-3
-1.578, 4.448e-3
-1.579, 4.474e-3
-1.580, 4.521e-3
-1.581, 4.563e-3
-1.582, 4.610e-3
-1.583, 4.642e-3
-1.584, 4.683e-3
-1.585, 4.718e-3
-1.586, 4.771e-3
-1.587, 4.759e-3
-1.588, 4.776e-3
-1.589, 4.856e-3
-1.590, 4.883e-3
-1.591, 4.883e-3
-1.592, 4.986e-3
-1.593, 5.042e-3
-1.594, 5.119e-3
-1.595, 5.119e-3
-1.596, 5.142e-3
-1.597, 5.173e-3
-1.598, 5.192e-3
-1.599, 5.232e-3
-1.600, 5.256e-3
-1.599, 5.121e-3
-1.598, 5.056e-3
-1.597, 5.003e-3
-1.596, 4.971e-3
-1.595, 4.880e-3
-1.594, 4.858e-3
-1.593, 4.869e-3
-1.592, 4.811e-3
-1.591, 4.771e-3
-1.590, 4.740e-3
-1.589, 4.748e-3
-1.588, 4.661e-3
-1.587, 4.556e-3
-1.586, 4.485e-3
-1.585, 4.417e-3
-1.584, 4.410e-3
-1.583, 4.397e-3
-1.582, 4.425e-3
-1.581, 4.371e-3
-1.580, 4.321e-3
-1.579, 4.300e-3
-1.578, 4.247e-3
-1.577, 4.227e-3
-1.576, 4.149e-3
-1.575, 4.106e-3
-1.574, 4.094e-3
-1.573, 4.047e-3
-1.572, 3.986e-3
-1.571, 3.958e-3
-1.570, 3.905e-3
-1.569, 3.893e-3
-1.568, 3.925e-3
-1.567, 3.822e-3
-1.566, 3.794e-3
-1.565, 3.763e-3
-1.564, 3.762e-3
-1.563, 3.724e-3
-1.562, 3.733e-3
-1.561, 3.688e-3
-1.560, 3.655e-3
-1.559, 3.633e-3
-1.558, 3.610e-3
-1.557, 3.587e-3
-1.556, 3.564e-3
-1.555, 3.521e-3
-1.554, 3.484e-3
-1.553, 3.440e-3
-1.552, 3.406e-3
-1.551, 3.386e-3
-1.550, 3.352e-3
-1.549, 3.320e-3
-1.548, 3.262e-3
-1.547, 3.212e-3
-1.546, 3.171e-3
-1.545, 3.137e-3
-1.544, 3.109e-3
-1.543, 3.090e-3
-1.542, 3.037e-3
-1.541, 2.976e-3
-1.540, 2.941e-3
-1.539, 2.923e-3
-1.538, 2.893e-3
-1.537, 2.847e-3
-1.536, 2.802e-3
-1.535, 2.771e-3
-1.534, 2.732e-3
-1.533, 2.688e-3
-1.532, 2.642e-3
-1.531, 2.594e-3
-1.530, 2.569e-3
-1.529, 2.551e-3
-1.528, 2.521e-3
-1.527, 2.478e-3
-1.526, 2.449e-3
-1.525, 2.429e-3
-1.524, 2.378e-3
-1.523, 2.362e-3
-1.522, 2.314e-3
-1.521, 2.269e-3
-1.520, 2.241e-3
-1.519, 2.214e-3
-1.518, 2.200e-3
-1.517, 2.179e-3
-1.516, 2.148e-3
-1.515, 2.104e-3
-1.514, 2.071e-3
-1.513, 2.044e-3
-1.512, 2.006e-3
-1.511, 1.975e-3
-1.510, 1.949e-3
-1.509, 1.919e-3
-1.508, 1.886e-3
-1.507, 1.860e-3
-1.506, 1.842e-3
-1.505, 1.820e-3
-1.504, 1.797e-3
-1.503, 1.747e-3
-1.502, 1.727e-3
-1.501, 1.687e-3
-1.500, 1.672e-3
-1.499, 1.647e-3
-1.498, 1.616e-3
-1.497, 1.588e-3
-1.496, 1.553e-3
-1.495, 1.522e-3
-1.494, 1.494e-3
-1.493, 1.479e-3
-1.492, 1.438e-3
-1.491, 1.412e-3
-1.490, 1.392e-3
-1.489, 1.363e-3
-1.488, 1.344e-3
-1.487, 1.320e-3
-1.486, 1.291e-3
-1.485, 1.274e-3
-1.484, 1.249e-3
-1.483, 1.229e-3
-1.482, 1.201e-3
-1.481, 1.186e-3
-1.480, 1.167e-3
-1.479, 1.142e-3
-1.478, 1.119e-3
-1.477, 1.108e-3
-1.476, 1.076e-3
-1.475, 1.052e-3
-1.474, 1.034e-3
-1.473, 1.012e-3
-1.472, 9.898e-4
-1.471, 9.690e-4
-1.470, 9.452e-4
-1.469, 9.246e-4
-1.468, 9.052e-4
-1.467, 8.902e-4
-1.466, 8.627e-4
-1.465, 8.471e-4
-1.464, 8.230e-4
-1.463, 8.024e-4
-1.462, 7.854e-4
-1.461, 7.674e-4
-1.460, 7.470e-4
-1.459, 7.275e-4
-1.458, 7.069e-4
-1.457, 6.871e-4
-1.456, 6.711e-4
-1.455, 6.526e-4
-1.454, 6.421e-4
-1.453, 6.209e-4
-1.452, 6.012e-4
-1.451, 5.809e-4
-1.450, 5.734e-4
-1.449, 5.591e-4
-1.448, 5.407e-4
-1.447, 5.239e-4
-1.446, 5.131e-4
-1.445, 4.930e-4
-1.444, 4.804e-4
-1.443, 4.642e-4
-1.442, 4.538e-4
-1.441, 4.450e-4
-1.440, 4.331e-4
-1.439, 4.181e-4
-1.438, 4.042e-4
-1.437, 3.890e-4
-1.436, 3.802e-4
-1.435, 3.684e-4
-1.434, 3.580e-4
-1.433, 3.476e-4
-1.432, 3.383e-4
-1.431, 3.283e-4
-1.430, 3.183e-4
-1.429, 3.101e-4
-1.428, 2.975e-4
-1.427, 2.879e-4
-1.426, 2.783e-4
-1.425, 2.682e-4
-1.424, 2.587e-4
-1.423, 2.498e-4
-1.422, 2.420e-4
-1.421, 2.320e-4
-1.420, 2.252e-4
-1.419, 2.173e-4
-1.418, 2.091e-4
-1.417, 2.014e-4
-1.416, 1.946e-4
-1.415, 1.875e-4
-1.414, 1.800e-4
-1.413, 1.718e-4
-1.412, 1.641e-4
-1.411, 1.572e-4
-1.410, 1.523e-4
-1.409, 1.466e-4
-1.408, 1.410e-4
-1.407, 1.338e-4
-1.406, 1.291e-4
-1.405, 1.246e-4
-1.404, 1.205e-4
-1.403, 1.163e-4
-1.402, 1.110e-4
-1.401, 1.058e-4
-1.400, 1.018e-4
-1.399, 9.788e-5
-1.398, 9.345e-5
-1.397, 8.925e-5
-1.396, 8.639e-5
-1.395, 8.299e-5
-1.394, 7.959e-5
-1.393, 7.563e-5
-1.392, 7.185e-5
-1.391, 6.849e-5
-1.390, 6.584e-5
-1.389, 6.290e-5
-1.388, 5.922e-5
-1.387, 5.591e-5
-1.386, 5.313e-5
-1.385, 5.093e-5
-1.384, 4.864e-5
-1.383, 4.538e-5
-1.382, 4.234e-5
-1.381, 4.031e-5
-1.380, 3.867e-5
-1.379, 3.644e-5
-1.378, 3.404e-5
-1.377, 3.162e-5
-1.376, 2.984e-5
-1.375, 2.868e-5
-1.374, 2.716e-5
-1.373, 2.499e-5
-1.372, 2.264e-5
-1.371, 2.089e-5
-1.370, 2.020e-5
-1.369, 1.900e-5
-1.368, 1.712e-5
-1.367, 1.515e-5
-1.366, 1.407e-5
-1.365, 1.359e-5
-1.364, 1.263e-5
-1.363, 1.079e-5
-1.362, 9.252e-6
-1.361, 8.549e-6
-1.360, 8.353e-6
-1.359, 7.664e-6
-1.358, 6.083e-6
-1.357, 4.570e-6
-1.356, 3.798e-6
-1.355, 3.742e-6
-1.354, 3.230e-6
-1.353, 1.721e-6
-1.352, 3.648e-7
-1.351, -3.070e-7
-1.350, -3.485e-7
-1.349, -6.533e-7
-1.348, -1.625e-6
-1.347, -2.877e-6
-1.346, -3.210e-6
-1.345, -3.052e-6
-1.344, -3.468e-6
-1.343, -4.593e-6
-1.342, -5.912e-6
-1.341, -6.050e-6
-1.340, -5.735e-6
-1.339, -6.011e-6
-1.338, -6.911e-6
-1.337, -8.203e-6
-1.336, -8.304e-6
-1.335, -7.889e-6
-1.334, -7.954e-6
-1.333, -8.837e-6
-1.332, -9.912e-6
-1.331, -1.004e-5
-1.330, -9.643e-6
-1.329, -9.661e-6
-1.328, -1.042e-5
-1.327, -1.151e-5
-1.326, -1.163e-5
-1.325, -1.116e-5
-1.324, -1.114e-5
-1.323, -1.222e-5
-1.322, -1.311e-5
-1.321, -1.334e-5
-1.320, -1.272e-5
-1.319, -1.277e-5
-1.318, -1.356e-5
-1.317, -1.448e-5
-1.316, -1.459e-5
-1.315, -1.395e-5
-1.314, -1.396e-5
-1.313, -1.494e-5
-1.312, -1.588e-5
-1.311, -1.598e-5
-1.310, -1.528e-5
-1.309, -1.512e-5
-1.308, -1.609e-5
-1.307, -1.708e-5
-1.306, -1.709e-5
-1.305, -1.666e-5
-1.304, -1.638e-5
-1.303, -1.699e-5
-1.302, -1.814e-5
-1.301, -1.809e-5
-1.300, -1.754e-5
-1.299, -1.744e-5
-1.298, -1.811e-5
-1.297, -1.914e-5
-1.296, -1.902e-5
-1.295, -1.847e-5
-1.294, -1.839e-5
-1.293, -1.927e-5
-1.292, -2.034e-5
-1.291, -2.037e-5
-1.290, -1.952e-5
-1.289, -1.954e-5
-1.288, -2.031e-5
-1.287, -2.124e-5
-1.286, -2.143e-5
-1.285, -2.068e-5
-1.284, -2.060e-5
-1.283, -2.153e-5
-1.282, -2.239e-5
-1.281, -2.260e-5
-1.280, -2.202e-5
-1.279, -2.195e-5
-1.278, -2.297e-5
-1.277, -2.378e-5
-1.276, -2.382e-5
-1.275, -2.317e-5
-1.274, -2.314e-5
-1.273, -2.406e-5
-1.272, -2.516e-5
-1.271, -2.519e-5
-1.270, -2.474e-5
-1.269, -2.459e-5
-1.268, -2.557e-5
-1.267, -2.669e-5
-1.266, -2.671e-5
-1.265, -2.620e-5
-1.264, -2.622e-5
-1.263, -2.722e-5
-1.262, -2.844e-5
-1.261, -2.843e-5
-1.260, -2.806e-5
-1.259, -2.815e-5
-1.258, -2.909e-5
-1.257, -3.031e-5
-1.256, -3.036e-5
-1.255, -2.982e-5
-1.254, -2.994e-5
-1.253, -3.107e-5
-1.252, -3.218e-5
-1.251, -3.245e-5
-1.250, -3.188e-5
-1.249, -3.200e-5
-1.248, -3.313e-5
-1.247, -3.429e-5
-1.246, -3.476e-5
-1.245, -3.417e-5
-1.244, -3.430e-5
-1.243, -3.554e-5
-1.242, -3.676e-5
-1.241, -3.720e-5
-1.240, -3.667e-5
-1.239, -3.684e-5
-1.238, -3.822e-5
-1.237, -3.955e-5
-1.236, -4.002e-5
-1.235, -3.984e-5
-1.234, -4.006e-5
-1.233, -4.151e-5
-1.232, -4.289e-5
-1.231, -4.332e-5
-1.230, -4.329e-5
-1.229, -4.404e-5
-1.228, -4.526e-5
-1.227, -4.683e-5
-1.226, -4.737e-5
-1.225, -4.731e-5
-1.224, -4.770e-5
-1.223, -4.929e-5
-1.222, -5.100e-5
-1.221, -5.150e-5
-1.220, -5.149e-5
-1.219, -5.204e-5
-1.218, -5.360e-5
-1.217, -5.540e-5
-1.216, -5.592e-5
-1.215, -5.601e-5
-1.214, -5.675e-5
-1.213, -5.833e-5
-1.212, -5.992e-5
-1.211, -6.062e-5
-1.210, -6.063e-5
-1.209, -6.123e-5
-1.208, -6.274e-5
-1.207, -6.453e-5
-1.206, -6.533e-5
-1.205, -6.528e-5
-1.204, -6.591e-5
-1.203, -6.757e-5
-1.202, -6.910e-5
-1.201, -6.988e-5
-1.200, -6.960e-5
-1.199, -7.013e-5
-1.198, -7.160e-5
-1.197, -7.305e-5
-1.196, -7.354e-5
-1.195, -7.322e-5
-1.194, -7.351e-5
-1.193, -7.486e-5
-1.192, -7.603e-5
-1.191, -7.639e-5
-1.190, -7.605e-5
-1.189, -7.618e-5
-1.188, -7.733e-5
-1.187, -7.847e-5
-1.186, -7.847e-5
-1.185, -7.797e-5
-1.184, -7.782e-5
-1.183, -7.882e-5
-1.182, -8.001e-5
-1.181, -7.972e-5
-1.180, -7.884e-5
-1.179, -7.852e-5
-1.178, -7.947e-5
-1.177, -8.017e-5
-1.176, -7.980e-5
-1.175, -7.887e-5
-1.174, -7.871e-5
-1.173, -7.905e-5
-1.172, -7.958e-5
-1.171, -7.915e-5
-1.170, -7.795e-5
-1.169, -7.749e-5
-1.168, -7.786e-5
-1.167, -7.820e-5
-1.166, -7.769e-5
-1.165, -7.635e-5
-1.164, -7.581e-5
-1.163, -7.605e-5
-1.162, -7.634e-5
-1.161, -7.575e-5
-1.160, -7.423e-5
-1.159, -7.369e-5
-1.158, -7.391e-5
-1.157, -7.412e-5
-1.156, -7.324e-5
-1.155, -7.198e-5
-1.154, -7.120e-5
-1.153, -7.148e-5
-1.152, -7.159e-5
-1.151, -7.090e-5
-1.150, -6.966e-5
-1.149, -6.876e-5
-1.148, -6.905e-5
-1.147, -6.922e-5
-1.146, -6.840e-5
-1.145, -6.713e-5
-1.144, -6.642e-5
-1.143, -6.669e-5
-1.142, -6.693e-5
-1.141, -6.614e-5
-1.140, -6.484e-5
-1.139, -6.428e-5
-1.138, -6.457e-5
-1.137, -6.489e-5
-1.136, -6.402e-5
-1.135, -6.289e-5
-1.134, -6.240e-5
-1.133, -6.265e-5
-1.132, -6.296e-5
-1.131, -6.221e-5
-1.130, -6.110e-5
-1.129, -6.063e-5
-1.128, -6.095e-5
-1.127, -6.131e-5
-1.126, -6.059e-5
-1.125, -5.948e-5
-1.124, -5.905e-5
-1.123, -5.955e-5
-1.122, -5.981e-5
-1.121, -5.925e-5
-1.120, -5.804e-5
-1.119, -5.767e-5
-1.118, -5.823e-5
-1.117, -5.842e-5
-1.116, -5.780e-5
-1.115, -5.682e-5
-1.114, -5.647e-5
-1.113, -5.704e-5
-1.112, -5.732e-5
-1.111, -5.668e-5
-1.110, -5.574e-5
-1.109, -5.538e-5
-1.108, -5.580e-5
-1.107, -5.632e-5
-1.106, -5.561e-5
-1.105, -5.473e-5
-1.104, -5.435e-5
-1.103, -5.491e-5
-1.102, -5.540e-5
-1.101, -5.466e-5
-1.100, -5.390e-5
-1.099, -5.375e-5
-1.098, -5.416e-5
-1.097, -5.465e-5
-1.096, -5.402e-5
-1.095, -5.307e-5
-1.094, -5.291e-5
-1.093, -5.347e-5
-1.092, -5.389e-5
-1.091, -5.329e-5
-1.090, -5.231e-5
-1.089, -5.227e-5
-1.088, -5.280e-5
-1.087, -5.324e-5
-1.086, -5.272e-5
-1.085, -5.175e-5
-1.084, -5.165e-5
-1.083, -5.238e-5
-1.082, -5.277e-5
-1.081, -5.217e-5
-1.080, -5.128e-5
-1.079, -5.120e-5
-1.078, -5.192e-5
-1.077, -5.233e-5
-1.076, -5.180e-5
-1.075, -5.110e-5
-1.074, -5.090e-5
-1.073, -5.165e-5
-1.072, -5.200e-5
-1.071, -5.144e-5
-1.070, -5.078e-5
-1.069, -5.055e-5
-1.068, -5.136e-5
-1.067, -5.173e-5
-1.066, -5.121e-5
-1.065, -5.046e-5
-1.064, -5.036e-5
-1.063, -5.116e-5
-1.062, -5.163e-5
-1.061, -5.105e-5
-1.060, -5.026e-5
-1.059, -5.035e-5
-1.058, -5.100e-5
-1.057, -5.151e-5
-1.056, -5.085e-5
-1.055, -5.022e-5
-1.054, -5.025e-5
-1.053, -5.094e-5
-1.052, -5.146e-5
-1.051, -5.094e-5
-1.050, -5.028e-5
-1.049, -5.024e-5
-1.048, -5.094e-5
-1.047, -5.146e-5
-1.046, -5.093e-5
-1.045, -5.017e-5
-1.044, -5.020e-5
-1.043, -5.108e-5
-1.042, -5.139e-5
-1.041, -5.098e-5
-1.040, -5.018e-5
-1.039, -5.027e-5
-1.038, -5.105e-5
-1.037, -5.147e-5
-1.036, -5.087e-5
-1.035, -5.028e-5
-1.034, -5.029e-5
-1.033, -5.107e-5
-1.032, -5.147e-5
-1.031, -5.090e-5
-1.030, -5.027e-5
-1.029, -5.030e-5
-1.028, -5.105e-5
-1.027, -5.154e-5
-1.026, -5.089e-5
-1.025, -5.028e-5
-1.024, -5.044e-5
-1.023, -5.117e-5
-1.022, -5.161e-5
-1.021, -5.094e-5
-1.020, -5.033e-5
-1.019, -5.040e-5
-1.018, -5.117e-5
-1.017, -5.159e-5
-1.016, -5.097e-5
-1.015, -5.036e-5
-1.014, -5.037e-5
-1.013, -5.114e-5
-1.012, -5.159e-5
-1.011, -5.104e-5
-1.010, -5.025e-5
-1.009, -5.046e-5
-1.008, -5.110e-5
-1.007, -5.151e-5
-1.006, -5.100e-5
-1.005, -5.025e-5
-1.004, -5.044e-5
-1.003, -5.115e-5
-1.002, -5.151e-5
-1.001, -5.094e-5
-1.000, -3.887e-5
-1.001, -3.118e-5
-1.002, -2.772e-5
-1.003, -2.469e-5
-1.004, -2.127e-5
-1.005, -1.819e-5
-1.006, -1.612e-5
-1.007, -1.494e-5
-1.008, -1.359e-5
-1.009, -1.144e-5
-1.010, -9.387e-6
-1.011, -8.225e-6
-1.012, -7.728e-6
-1.013, -6.975e-6
-1.014, -5.490e-6
-1.015, -3.848e-6
-1.016, -3.158e-6
-1.017, -3.028e-6
-1.018, -2.603e-6
-1.019, -1.326e-6
-1.020, -4.163e-8
-1.021, 4.467e-7
-1.022, 4.043e-7
-1.023, 6.381e-7
-1.024, 1.809e-6
-1.025, 2.889e-6
-1.026, 3.265e-6
-1.027, 2.966e-6
-1.028, 3.132e-6
-1.029, 4.173e-6
-1.030, 5.109e-6
-1.031, 5.474e-6
-1.032, 5.094e-6
-1.033, 5.100e-6
-1.034, 6.173e-6
-1.035, 7.107e-6
-1.036, 7.296e-6
-1.037, 6.900e-6
-1.038, 6.955e-6
-1.039, 7.828e-6
-1.040, 8.704e-6
-1.041, 8.964e-6
-1.042, 8.480e-6
-1.043, 8.447e-6
-1.044, 9.331e-6
-1.045, 1.032e-5
-1.046, 1.029e-5
-1.047, 9.921e-6
-1.048, 9.866e-6
-1.049, 1.067e-5
-1.050, 1.161e-5
-1.051, 1.173e-5
-1.052, 1.123e-5
-1.053, 1.112e-5
-1.054, 1.207e-5
-1.055, 1.289e-5
-1.056, 1.297e-5
-1.057, 1.245e-5
-1.058, 1.244e-5
-1.059, 1.318e-5
-1.060, 1.408e-5
-1.061, 1.420e-5
-1.062, 1.364e-5
-1.063, 1.368e-5
-1.064, 1.439e-5
-1.065, 1.531e-5
-1.066, 1.543e-5
-1.067, 1.486e-5
-1.068, 1.481e-5
-1.069, 1.558e-5
-1.070, 1.645e-5
-1.071, 1.663e-5
-1.072, 1.599e-5
-1.073, 1.595e-5
-1.074, 1.680e-5
-1.075, 1.772e-5
-1.076, 1.776e-5
-1.077, 1.721e-5
-1.078, 1.714e-5
-1.079, 1.795e-5
-1.080, 1.873e-5
-1.081, 1.885e-5
-1.082, 1.840e-5
-1.083, 1.822e-5
-1.084, 1.910e-5
-1.085, 1.991e-5
-1.086, 2.003e-5
-1.087, 1.953e-5
-1.088, 1.938e-5
-1.089, 2.022e-5
-1.090, 2.111e-5
-1.091, 2.114e-5
-1.092, 2.066e-5
-1.093, 2.061e-5
-1.094, 2.129e-5
-1.095, 2.232e-5
-1.096, 2.229e-5
-1.097, 2.177e-5
-1.098, 2.182e-5
-1.099, 2.253e-5
-1.100, 2.349e-5
-1.101, 2.344e-5
-1.102, 2.299e-5
-1.103, 2.297e-5
-1.104, 2.363e-5
-1.105, 2.458e-5
-1.106, 2.471e-5
-1.107, 2.415e-5
-1.108, 2.413e-5
-1.109, 2.497e-5
-1.110, 2.574e-5
-1.111, 2.600e-5
-1.112, 2.542e-5
-1.113, 2.532e-5
-1.114, 2.627e-5
-1.115, 2.707e-5
-1.116, 2.726e-5
-1.117, 2.667e-5
-1.118, 2.675e-5
-1.119, 2.747e-5
-1.120, 2.834e-5
-1.121, 2.851e-5
-1.122, 2.803e-5
-1.123, 2.804e-5
-1.124, 2.883e-5
-1.125, 2.981e-5
-1.126, 2.984e-5
-1.127, 2.957e-5
-1.128, 2.943e-5
-1.129, 3.027e-5
-1.130, 3.126e-5
-1.131, 3.129e-5
-1.132, 3.100e-5
-1.133, 3.090e-5
-1.134, 3.182e-5
-1.135, 3.276e-5
-1.136, 3.283e-5
-1.137, 3.247e-5
-1.138, 3.258e-5
-1.139, 3.343e-5
-1.140, 3.434e-5
-1.141, 3.464e-5
-1.142, 3.417e-5
-1.143, 3.426e-5
-1.144, 3.513e-5
-1.145, 3.604e-5
-1.146, 3.643e-5
-1.147, 3.596e-5
-1.148, 3.616e-5
-1.149, 3.693e-5
-1.150, 3.802e-5
-1.151, 3.830e-5
-1.152, 3.790e-5
-1.153, 3.804e-5
-1.154, 3.893e-5
-1.155, 4.003e-5
-1.156, 4.030e-5
-1.157, 3.997e-5
-1.158, 4.009e-5
-1.159, 4.114e-5
-1.160, 4.213e-5
-1.161, 4.245e-5
-1.162, 4.224e-5
-1.163, 4.230e-5
-1.164, 4.333e-5
-1.165, 4.440e-5
-1.166, 4.483e-5
-1.167, 4.455e-5
-1.168, 4.465e-5
-1.169, 4.567e-5
-1.170, 4.687e-5
-1.171, 4.728e-5
-1.172, 4.706e-5
-1.173, 4.715e-5
-1.174, 4.818e-5
-1.175, 4.948e-5
-1.176, 4.982e-5
-1.177, 4.970e-5
-1.178, 4.988e-5
-1.179, 5.088e-5
-1.180, 5.220e-5
-1.181, 5.253e-5
-1.182, 5.236e-5
-1.183, 5.257e-5
-1.184, 5.356e-5
-1.185, 5.489e-5
-1.186, 5.532e-5
-1.187, 5.517e-5
-1.188, 5.534e-5
-1.189, 5.646e-5
-1.190, 5.760e-5
-1.191, 5.826e-5
-1.192, 5.796e-5
-1.193, 5.820e-5
-1.194, 5.932e-5
-1.195, 6.045e-5
-1.196, 6.114e-5
-1.197, 6.094e-5
-1.198, 6.104e-5
-1.199, 6.226e-5
-1.200, 6.342e-5
-1.201, 6.394e-5
-1.202, 6.385e-5
-1.203, 6.387e-5
-1.204, 6.508e-5
-1.205, 6.635e-5
-1.206, 6.683e-5
-1.207, 6.668e-5
-1.208, 6.674e-5
-1.209, 6.778e-5
-1.210, 6.912e-5
-1.211, 6.960e-5
-1.212, 6.945e-5
-1.213, 6.931e-5
-1.214, 7.050e-5
-1.215, 7.171e-5
-1.216, 7.225e-5
-1.217, 7.201e-5
-1.218, 7.203e-5
-1.219, 7.296e-5
-1.220, 7.418e-5
-1.221, 7.466e-5
-1.222, 7.422e-5
-1.223, 7.423e-5
-1.224, 7.510e-5
-1.225, 7.634e-5
-1.226, 7.674e-5
-1.227, 7.624e-5
-1.228, 7.624e-5
-1.229, 7.729e-5
-1.230, 7.835e-5
-1.231, 7.865e-5
-1.232, 7.809e-5
-1.233, 7.784e-5
-1.234, 7.868e-5
-1.235, 7.965e-5
-1.236, 8.000e-5
-1.237, 7.932e-5
-1.238, 7.894e-5
-1.239, 7.975e-5
-1.240, 8.056e-5
-1.241, 8.086e-5
-1.242, 8.018e-5
-1.243, 7.968e-5
-1.244, 8.044e-5
-1.245, 8.120e-5
-1.246, 8.136e-5
-1.247, 8.063e-5
-1.248, 7.995e-5
-1.249, 8.057e-5
-1.250, 8.141e-5
-1.251, 8.144e-5
-1.252, 8.061e-5
-1.253, 7.985e-5
-1.254, 8.029e-5
-1.255, 8.123e-5
-1.256, 8.096e-5
-1.257, 8.003e-5
-1.258, 7.940e-5
-1.259, 7.957e-5
-1.260, 8.039e-5
-1.261, 8.011e-5
-1.262, 7.908e-5
-1.263, 7.822e-5
-1.264, 7.843e-5
-1.265, 7.893e-5
-1.266, 7.872e-5
-1.267, 7.759e-5
-1.268, 7.655e-5
-1.269, 7.669e-5
-1.270, 7.715e-5
-1.271, 7.689e-5
-1.272, 7.552e-5
-1.273, 7.434e-5
-1.274, 7.454e-5
-1.275, 7.473e-5
-1.276, 7.451e-5
-1.277, 7.300e-5
-1.278, 7.180e-5
-1.279, 7.178e-5
-1.280, 7.215e-5
-1.281, 7.167e-5
-1.282, 7.011e-5
-1.283, 6.875e-5
-1.284, 6.867e-5
-1.285, 6.895e-5
-1.286, 6.830e-5
-1.287, 6.677e-5
-1.288, 6.534e-5
-1.289, 6.520e-5
-1.290, 6.544e-5
-1.291, 6.471e-5
-1.292, 6.318e-5
-1.293, 6.167e-5
-1.294, 6.148e-5
-1.295, 6.185e-5
-1.296, 6.112e-5
-1.297, 5.949e-5
-1.298, 5.799e-5
-1.299, 5.788e-5
-1.300, 5.814e-5
-1.301, 5.744e-5
-1.302, 5.587e-5
-1.303, 5.445e-5
-1.304, 5.433e-5
-1.305, 5.462e-5
-1.306, 5.412e-5
-1.307, 5.249e-5
-1.308, 5.112e-5
-1.309, 5.109e-5
-1.310, 5.138e-5
-1.311, 5.111e-5
-1.312, 4.941e-5
-1.313, 4.825e-5
-1.314, 4.830e-5
-1.315, 4.862e-5
-1.316, 4.838e-5
-1.317, 4.689e-5
-1.318, 4.578e-5
-1.319, 4.600e-5
-1.320, 4.652e-5
-1.321, 4.621e-5
-1.322, 4.505e-5
-1.323, 4.390e-5
-1.324, 4.427e-5
-1.325, 4.489e-5
-1.326, 4.474e-5
-1.327, 4.371e-5
-1.328, 4.258e-5
-1.329, 4.303e-5
-1.330, 4.392e-5
-1.331, 4.383e-5
-1.332, 4.287e-5
-1.333, 4.189e-5
-1.334, 4.250e-5
-1.335, 4.329e-5
-1.336, 4.343e-5
-1.337, 4.249e-5
-1.338, 4.170e-5
-1.339, 4.236e-5
-1.340, 4.344e-5
-1.341, 4.353e-5
-1.342, 4.274e-5
-1.343, 4.208e-5
-1.344, 4.267e-5
-1.345, 4.377e-5
-1.346, 4.417e-5
-1.347, 4.322e-5
-1.348, 4.280e-5
-1.349, 4.342e-5
-1.350, 4.458e-5
-1.351, 4.498e-5
-1.352, 4.423e-5
-1.353, 4.373e-5
-1.354, 4.448e-5
-1.355, 4.576e-5
-1.356, 4.619e-5
-1.357, 4.548e-5
-1.358, 4.497e-5
-1.359, 4.592e-5
-1.360, 4.701e-5
-1.361, 4.755e-5
-1.362, 4.694e-5
-1.363, 4.643e-5
-1.364, 4.731e-5
-1.365, 4.855e-5
-1.366, 4.906e-5
-1.367, 4.859e-5
-1.368, 4.793e-5
-1.369, 4.885e-5
-1.370, 5.022e-5
-1.371, 5.062e-5
-1.372, 5.017e-5
-1.373, 4.968e-5
-1.374, 5.055e-5
-1.375, 5.186e-5
-1.376, 5.233e-5
-1.377, 5.169e-5
-1.378, 5.129e-5
-1.379, 5.204e-5
-1.380, 5.347e-5
-1.381, 5.395e-5
-1.382, 5.332e-5
-1.383, 5.296e-5
-1.384, 5.359e-5
-1.385, 5.494e-5
-1.386, 5.537e-5
-1.387, 5.470e-5
-1.388, 5.426e-5
-1.389, 5.497e-5
-1.390, 5.619e-5
-1.391, 5.672e-5
-1.392, 5.599e-5
-1.393, 5.537e-5
-1.394, 5.616e-5
-1.395, 5.733e-5
-1.396, 5.769e-5
-1.397, 5.698e-5
-1.398, 5.634e-5
-1.399, 5.715e-5
-1.400, 5.816e-5
-1.401, 5.848e-5
-1.402, 5.784e-5
-1.403, 5.706e-5
-1.404, 5.784e-5
-1.405, 5.878e-5
-1.406, 5.909e-5
-1.407, 5.834e-5
-1.408, 5.762e-5
-1.409, 5.829e-5
-1.410, 5.942e-5
-1.411, 5.963e-5
-1.412, 5.871e-5
-1.413, 5.808e-5
-1.414, 5.876e-5
-1.415, 5.977e-5
-1.416, 5.990e-5
-1.417, 5.919e-5
-1.418, 5.855e-5
-1.419, 5.913e-5
-1.420, 6.022e-5
-1.421, 6.041e-5
-1.422, 5.966e-5
-1.423, 5.920e-5
-1.424, 5.971e-5
-1.425, 6.079e-5
-1.426, 6.118e-5
-1.427, 6.036e-5
-1.428, 5.999e-5
-1.429, 6.057e-5
-1.430, 6.188e-5
-1.431, 6.218e-5
-1.432, 6.157e-5
-1.433, 6.133e-5
-1.434, 6.226e-5
-1.435, 6.345e-5
-1.436, 6.406e-5
-1.437, 6.374e-5
-1.438, 6.365e-5
-1.439, 6.492e-5
-1.440, 6.637e-5
-1.441, 6.726e-5
-1.442, 6.745e-5
-1.443, 6.782e-5
-1.444, 6.967e-5
-1.445, 7.179e-5
-1.446, 7.342e-5
-1.447, 7.443e-5
-1.448, 7.594e-5
-1.449, 7.889e-5
-1.450, 8.259e-5
-1.451, 8.608e-5
-1.452, 8.952e-5
-1.453, 9.415e-5
-1.454, 1.009e-4
-1.455, 1.097e-4
-1.456, 1.194e-4
-1.457, 1.309e-4
-1.458, 1.460e-4
-1.459, 1.670e-4
-1.460, 1.944e-4
-1.461, 2.274e-4
-1.462, 2.650e-4
-1.463, 3.077e-4
-1.464, 3.552e-4
-1.465, 4.070e-4
-1.466, 4.616e-4
-1.467, 5.225e-4
-1.468, 5.810e-4
-1.469, 6.385e-4
-1.470, 7.082e-4
-1.471, 7.752e-4
-1.472, 8.376e-4
-1.473, 9.070e-4
-1.474, 9.770e-4
-1.475, 1.041e-3
-1.476, 1.102e-3
-1.477, 1.152e-3
-1.478, 1.201e-3
-1.479, 1.241e-3
-1.480, 1.279e-3
-1.481, 1.309e-3
-1.482, 1.351e-3
-1.483, 1.380e-3
-1.484, 1.399e-3
-1.485, 1.426e-3
-1.486, 1.447e-3
-1.487, 1.464e-3
-1.488, 1.489e-3
-1.489, 1.508e-3
-1.490, 1.532e-3
-1.491, 1.555e-3
-1.492, 1.575e-3
-1.493, 1.588e-3
-1.494, 1.607e-3
-1.495, 1.633e-3
-1.496, 1.666e-3
-1.497, 1.680e-3
-1.498, 1.701e-3
-1.499, 1.729e-3
-1.500, 1.752e-3
-1.501, 1.776e-3
-1.502, 1.806e-3
-1.503, 1.827e-3
-1.504, 1.846e-3
-1.505, 1.873e-3
-1.506, 1.901e-3
-1.507, 1.917e-3
-1.508, 1.946e-3
-1.509, 1.973e-3
-1.510, 2.002e-3
-1.511, 2.024e-3
-1.512, 2.034e-3
-1.513, 2.065e-3
-1.514, 2.084e-3
-1.515, 2.103e-3
-1.516, 2.133e-3
-1.517, 2.167e-3
-1.518, 2.210e-3
-1.519, 2.232e-3
-1.520, 2.259e-3
-1.521, 2.287e-3
-1.522, 2.308e-3
-1.523, 2.322e-3
-1.524, 2.369e-3
-1.525, 2.384e-3
-1.526, 2.433e-3
-1.527, 2.450e-3
-1.528, 2.472e-3
-1.529, 2.496e-3
-1.530, 2.519e-3
-1.531, 2.550e-3
-1.532, 2.572e-3
-1.533, 2.608e-3
-1.534, 2.649e-3
-1.535, 2.655e-3
-1.536, 2.688e-3
-1.537, 2.707e-3
-1.538, 2.742e-3
-1.539, 2.785e-3
-1.540, 2.818e-3
-1.541, 2.841e-3
-1.542, 2.869e-3
-1.543, 2.899e-3
-1.544, 2.930e-3
-1.545, 2.964e-3
-1.546, 3.000e-3
-1.547, 3.011e-3
-1.548, 3.042e-3
-1.549, 3.083e-3
-1.550, 3.118e-3
-1.551, 3.124e-3
-1.552, 3.148e-3
-1.553, 3.178e-3
-1.554, 3.193e-3
-1.555, 3.232e-3
-1.556, 3.261e-3
-1.557, 3.294e-3
-1.558, 3.310e-3
-1.559, 3.345e-3
-1.560, 3.375e-3
-1.561, 3.413e-3
-1.562, 3.432e-3
-1.563, 3.446e-3
-1.564, 3.477e-3
-1.565, 3.496e-3
-1.566, 3.530e-3
-1.567, 3.569e-3
-1.568, 3.591e-3
-1.569, 3.672e-3
-1.570, 3.695e-3
-1.571, 3.698e-3
-1.572, 3.753e-3
-1.573, 3.775e-3
-1.574, 3.816e-3
-1.575, 3.825e-3
-1.576, 3.813e-3
-1.577, 3.816e-3
-1.578, 3.837e-3
-1.579, 3.869e-3
-1.580, 3.896e-3
-1.581, 3.934e-3
-1.582, 3.963e-3
-1.583, 3.993e-3
-1.584, 4.020e-3
-1.585, 4.043e-3
-1.586, 4.084e-3
-1.587, 4.170e-3
-1.588, 4.187e-3
-1.589, 4.220e-3
-1.590, 4.218e-3
-1.591, 4.272e-3
-1.592, 4.336e-3
-1.593, 4.417e-3
-1.594, 4.464e-3
-1.595, 4.491e-3
-1.596, 4.495e-3
-1.597, 4.537e-3
-1.598, 4.546e-3
-1.599, 4.588e-3
-1.600, 4.582e-3
-1.599, 4.577e-3
-1.598, 4.524e-3
-1.597, 4.425e-3
-1.596, 4.454e-3
-1.595, 4.416e-3
-1.594, 4.470e-3
-1.593, 4.392e-3
-1.592, 4.343e-3
-1.591, 4.304e-3
-1.590, 4.259e-3
-1.589, 4.250e-3
-1.588, 4.227e-3
-1.587, 4.152e-3
-1.586, 4.114e-3
-1.585, 4.074e-3
-1.584, 4.046e-3
-1.583, 4.023e-3
-1.582, 4.019e-3
-1.581, 3.976e-3
-1.580, 3.885e-3
-1.579, 3.846e-3
-1.578, 3.861e-3
-1.577, 3.814e-3
-1.576, 3.724e-3
-1.575, 3.718e-3
-1.574, 3.718e-3
-1.573, 3.695e-3
-1.572, 3.638e-3
-1.571, 3.586e-3
-1.570, 3.529e-3
-1.569, 3.493e-3
-1.568, 3.468e-3
-1.567, 3.439e-3
-1.566, 3.406e-3
-1.565, 3.403e-3
-1.564, 3.364e-3
-1.563, 3.309e-3
-1.562, 3.300e-3
-1.561, 3.263e-3
-1.560, 3.212e-3
-1.559, 3.166e-3
-1.558, 3.150e-3
-1.557, 3.108e-3
-1.556, 3.080e-3
-1.555, 3.037e-3
-1.554, 2.988e-3
-1.553, 2.942e-3
-1.552, 2.902e-3
-1.551, 2.881e-3
-1.550, 2.858e-3
-1.549, 2.836e-3
-1.548, 2.801e-3
-1.547, 2.776e-3
-1.546, 2.777e-3
-1.545, 2.710e-3
-1.544, 2.689e-3
-1.543, 2.650e-3
-1.542, 2.615e-3
-1.541, 2.598e-3
-1.540, 2.564e-3
-1.539, 2.527e-3
-1.538, 2.478e-3
-1.537, 2.460e-3
-1.536, 2.415e-3
-1.535, 2.381e-3
-1.534, 2.339e-3
-1.533, 2.319e-3
-1.532, 2.292e-3
-1.531, 2.254e-3
-1.530, 2.224e-3
-1.529, 2.203e-3
-1.528, 2.185e-3
-1.527, 2.138e-3
-1.526, 2.111e-3
-1.525, 2.081e-3
-1.524, 2.043e-3
-1.523, 2.038e-3
-1.522, 2.004e-3
-1.521, 1.974e-3
-1.520, 1.939e-3
-1.519, 1.923e-3
-1.518, 1.895e-3
-1.517, 1.864e-3
-1.516, 1.840e-3
-1.515, 1.819e-3
-1.514, 1.785e-3
-1.513, 1.763e-3
-1.512, 1.736e-3
-1.511, 1.708e-3
-1.510, 1.684e-3
-1.509, 1.658e-3
-1.508, 1.632e-3
-1.507, 1.589e-3
-1.506, 1.567e-3
-1.505, 1.529e-3
-1.504, 1.510e-3
-1.503, 1.481e-3
-1.502, 1.463e-3
-1.501, 1.433e-3
-1.500, 1.410e-3
-1.499, 1.382e-3
-1.498, 1.368e-3
-1.497, 1.338e-3
-1.496, 1.315e-3
-1.495, 1.299e-3
-1.494, 1.282e-3
-1.493, 1.258e-3
-1.492, 1.232e-3
-1.491, 1.210e-3
-1.490, 1.191e-3
-1.489, 1.170e-3
-1.488, 1.153e-3
-1.487, 1.119e-3
-1.486, 1.089e-3
-1.485, 1.061e-3
-1.484, 1.043e-3
-1.483, 1.024e-3
-1.482, 1.004e-3
-1.481, 9.888e-4
-1.480, 9.748e-4
-1.479, 9.548e-4
-1.478, 9.373e-4
-1.477, 9.147e-4
-1.476, 8.939e-4
-1.475, 8.757e-4
-1.474, 8.512e-4
-1.473, 8.297e-4
-1.472, 8.121e-4
-1.471, 7.933e-4
-1.470, 7.854e-4
-1.469, 7.619e-4
-1.468, 7.434e-4
-1.467, 7.305e-4
-1.466, 7.079e-4
-1.465, 6.860e-4
-1.464, 6.680e-4
-1.463, 6.524e-4
-1.462, 6.374e-4
-1.461, 6.207e-4
-1.460, 6.038e-4
-1.459, 5.917e-4
-1.458, 5.762e-4
-1.457, 5.605e-4
-1.456, 5.512e-4
-1.455, 5.365e-4
-1.454, 5.225e-4
-1.453, 5.082e-4
-1.452, 4.968e-4
-1.451, 4.823e-4
-1.450, 4.700e-4
-1.449, 4.568e-4
-1.448, 4.430e-4
-1.447, 4.307e-4
-1.446, 4.191e-4
-1.445, 4.063e-4
-1.444, 3.912e-4
-1.443, 3.769e-4
-1.442, 3.645e-4
-1.441, 3.517e-4
-1.440, 3.392e-4
-1.439, 3.319e-4
-1.438, 3.231e-4
-1.437, 3.126e-4
-1.436, 3.021e-4
-1.435, 2.911e-4
-1.434, 2.793e-4
-1.433, 2.711e-4
-1.432, 2.624e-4
-1.431, 2.536e-4
-1.430, 2.470e-4
-1.429, 2.378e-4
-1.428, 2.290e-4
-1.427, 2.202e-4
-1.426, 2.120e-4
-1.425, 2.041e-4
-1.424, 1.966e-4
-1.423, 1.902e-4
-1.422, 1.831e-4
-1.421, 1.768e-4
-1.420, 1.707e-4
-1.419, 1.640e-4
-1.418, 1.578e-4
-1.417, 1.513e-4
-1.416, 1.452e-4
-1.415, 1.392e-4
-1.414, 1.331e-4
-1.413, 1.272e-4
-1.412, 1.216e-4
-1.411, 1.164e-4
-1.410, 1.120e-4
-1.409, 1.079e-4
-1.408, 1.020e-4
-1.407, 9.738e-5
-1.406, 9.315e-5
-1.405, 8.939e-5
-1.404, 8.575e-5
-1.403, 8.115e-5
-1.402, 7.697e-5
-1.401, 7.361e-5
-1.400, 7.068e-5
-1.399, 6.765e-5
-1.398, 6.373e-5
-1.397, 6.025e-5
-1.396, 5.745e-5
-1.395, 5.511e-5
-1.394, 5.228e-5
-1.393, 4.883e-5
-1.392, 4.555e-5
-1.391, 4.350e-5
-1.390, 4.173e-5
-1.389, 3.959e-5
-1.388, 3.673e-5
-1.387, 3.414e-5
-1.386, 3.241e-5
-1.385, 3.101e-5
-1.384, 2.911e-5
-1.383, 2.658e-5
-1.382, 2.443e-5
-1.381, 2.322e-5
-1.380, 2.300e-5
-1.379, 2.175e-5
-1.378, 1.981e-5
-1.377, 1.761e-5
-1.376, 1.646e-5
-1.375, 1.565e-5
-1.374, 1.439e-5
-1.373, 1.279e-5
-1.372, 1.113e-5
-1.371, 1.011e-5
-1.370, 9.781e-6
-1.369, 8.869e-6
-1.368, 7.309e-6
-1.367, 5.862e-6
-1.366, 5.024e-6
-1.365, 4.883e-6
-1.364, 4.215e-6
-1.363, 2.751e-6
-1.362, 1.318e-6
-1.361, 6.214e-7
-1.360, 7.989e-7
-1.359, 4.694e-7
-1.358, -6.938e-7
-1.357, -1.811e-6
-1.356, -2.155e-6
-1.355, -1.916e-6
-1.354, -2.248e-6
-1.353, -3.351e-6
-1.352, -4.547e-6
-1.351, -5.098e-6
-1.350, -4.824e-6
-1.349, -5.157e-6
-1.348, -6.040e-6
-1.347, -7.199e-6
-1.346, -7.282e-6
-1.345, -6.987e-6
-1.344, -6.985e-6
-1.343, -8.218e-6
-1.342, -9.298e-6
-1.341, -9.119e-6
-1.340, -8.610e-6
-1.339, -8.652e-6
-1.338, -9.508e-6
-1.337, -1.043e-5
-1.336, -1.046e-5
-1.335, -9.889e-6
-1.334, -9.951e-6
-1.333, -1.072e-5
-1.332, -1.169e-5
-1.331, -1.175e-5
-1.330, -1.108e-5
-1.329, -1.118e-5
-1.328, -1.195e-5
-1.327, -1.290e-5
-1.326, -1.300e-5
-1.325, -1.233e-5
-1.324, -1.226e-5
-1.323, -1.313e-5
-1.322, -1.397e-5
-1.321, -1.406e-5
-1.320, -1.338e-5
-1.319, -1.331e-5
-1.318, -1.414e-5
-1.317, -1.494e-5
-1.316, -1.498e-5
-1.315, -1.436e-5
-1.314, -1.419e-5
-1.313, -1.491e-5
-1.312, -1.577e-5
-1.311, -1.618e-5
-1.310, -1.544e-5
-1.309, -1.506e-5
-1.308, -1.575e-5
-1.307, -1.669e-5
-1.306, -1.672e-5
-1.305, -1.616e-5
-1.304, -1.580e-5
-1.303, -1.666e-5
-1.302, -1.765e-5
-1.301, -1.769e-5
-1.300, -1.697e-5
-1.299, -1.677e-5
-1.298, -1.755e-5
-1.297, -1.856e-5
-1.296, -1.855e-5
-1.295, -1.793e-5
-1.294, -1.776e-5
-1.293, -1.855e-5
-1.292, -1.955e-5
-1.291, -1.965e-5
-1.290, -1.901e-5
-1.289, -1.897e-5
-1.288, -1.967e-5
-1.287, -2.078e-5
-1.286, -2.089e-5
-1.285, -2.020e-5
-1.284, -2.009e-5
-1.283, -2.090e-5
-1.282, -2.201e-5
-1.281, -2.207e-5
-1.280, -2.158e-5
-1.279, -2.127e-5
-1.278, -2.206e-5
-1.277, -2.305e-5
-1.276, -2.331e-5
-1.275, -2.257e-5
-1.274, -2.239e-5
-1.273, -2.337e-5
-1.272, -2.430e-5
-1.271, -2.453e-5
-1.270, -2.398e-5
-1.269, -2.378e-5
-1.268, -2.476e-5
-1.267, -2.588e-5
-1.266, -2.614e-5
-1.265, -2.557e-5
-1.264, -2.541e-5
-1.263, -2.636e-5
-1.262, -2.755e-5
-1.261, -2.762e-5
-1.260, -2.716e-5
-1.259, -2.711e-5
-1.258, -2.803e-5
-1.257, -2.938e-5
-1.256, -2.951e-5
-1.255, -2.898e-5
-1.254, -2.882e-5
-1.253, -2.962e-5
-1.252, -3.086e-5
-1.251, -3.129e-5
-1.250, -3.073e-5
-1.249, -3.078e-5
-1.248, -3.166e-5
-1.247, -3.308e-5
-1.246, -3.342e-5
-1.245, -3.314e-5
-1.244, -3.310e-5
-1.243, -3.427e-5
-1.242, -3.566e-5
-1.241, -3.614e-5
-1.240, -3.587e-5
-1.239, -3.586e-5
-1.238, -3.714e-5
-1.237, -3.848e-5
-1.236, -3.899e-5
-1.235, -3.881e-5
-1.234, -3.895e-5
-1.233, -4.026e-5
-1.232, -4.169e-5
-1.231, -4.250e-5
-1.230, -4.242e-5
-1.229, -4.305e-5
-1.228, -4.411e-5
-1.227, -4.576e-5
-1.226, -4.641e-5
-1.225, -4.642e-5
-1.224, -4.671e-5
-1.223, -4.812e-5
-1.222, -4.999e-5
-1.221, -5.076e-5
-1.220, -5.082e-5
-1.219, -5.108e-5
-1.218, -5.255e-5
-1.217, -5.453e-5
-1.216, -5.535e-5
-1.215, -5.543e-5
-1.214, -5.575e-5
-1.213, -5.731e-5
-1.212, -5.909e-5
-1.211, -5.999e-5
-1.210, -5.985e-5
-1.209, -6.042e-5
-1.208, -6.186e-5
-1.207, -6.348e-5
-1.206, -6.455e-5
-1.205, -6.450e-5
-1.204, -6.489e-5
-1.203, -6.633e-5
-1.202, -6.790e-5
-1.201, -6.880e-5
-1.200, -6.869e-5
-1.199, -6.908e-5
-1.198, -7.030e-5
-1.197, -7.181e-5
-1.196, -7.252e-5
-1.195, -7.224e-5
-1.194, -7.237e-5
-1.193, -7.347e-5
-1.192, -7.493e-5
-1.191, -7.537e-5
-1.190, -7.508e-5
-1.189, -7.490e-5
-1.188, -7.579e-5
-1.187, -7.701e-5
-1.186, -7.719e-5
-1.185, -7.677e-5
-1.184, -7.639e-5
-1.183, -7.718e-5
-1.182, -7.813e-5
-1.181, -7.822e-5
-1.180, -7.744e-5
-1.179, -7.690e-5
-1.178, -7.752e-5
-1.177, -7.826e-5
-1.176, -7.821e-5
-1.175, -7.710e-5
-1.174, -7.654e-5
-1.173, -7.672e-5
-1.172, -7.736e-5
-1.171, -7.703e-5
-1.170, -7.592e-5
-1.169, -7.519e-5
-1.168, -7.528e-5
-1.167, -7.575e-5
-1.166, -7.544e-5
-1.165, -7.404e-5
-1.164, -7.321e-5
-1.163, -7.325e-5
-1.162, -7.348e-5
-1.161, -7.316e-5
-1.160, -7.172e-5
-1.159, -7.078e-5
-1.158, -7.076e-5
-1.157, -7.104e-5
-1.156, -7.051e-5
-1.155, -6.929e-5
-1.154, -6.810e-5
-1.153, -6.814e-5
-1.152, -6.837e-5
-1.151, -6.777e-5
-1.150, -6.653e-5
-1.149, -6.554e-5
-1.148, -6.564e-5
-1.147, -6.589e-5
-1.146, -6.527e-5
-1.145, -6.411e-5
-1.144, -6.306e-5
-1.143, -6.315e-5
-1.142, -6.361e-5
-1.141, -6.299e-5
-1.140, -6.181e-5
-1.139, -6.099e-5
-1.138, -6.108e-5
-1.137, -6.155e-5
-1.136, -6.103e-5
-1.135, -5.980e-5
-1.134, -5.906e-5
-1.133, -5.918e-5
-1.132, -5.957e-5
-1.131, -5.920e-5
-1.130, -5.802e-5
-1.129, -5.742e-5
-1.128, -5.750e-5
-1.127, -5.797e-5
-1.126, -5.766e-5
-1.125, -5.647e-5
-1.124, -5.581e-5
-1.123, -5.610e-5
-1.122, -5.659e-5
-1.121, -5.622e-5
-1.120, -5.509e-5
-1.119, -5.455e-5
-1.118, -5.491e-5
-1.117, -5.534e-5
-1.116, -5.490e-5
-1.115, -5.406e-5
-1.114, -5.337e-5
-1.113, -5.376e-5
-1.112, -5.421e-5
-1.111, -5.397e-5
-1.110, -5.297e-5
-1.109, -5.233e-5
-1.108, -5.276e-5
-1.107, -5.328e-5
-1.106, -5.306e-5
-1.105, -5.209e-5
-1.104, -5.154e-5
-1.103, -5.192e-5
-1.102, -5.248e-5
-1.101, -5.226e-5
-1.100, -5.123e-5
-1.099, -5.086e-5
-1.098, -5.121e-5
-1.097, -5.177e-5
-1.096, -5.150e-5
-1.095, -5.058e-5
-1.094, -5.031e-5
-1.093, -5.057e-5
-1.092, -5.121e-5
-1.091, -5.097e-5
-1.090, -5.002e-5
-1.089, -4.967e-5
-1.088, -4.998e-5
-1.087, -5.067e-5
-1.086, -5.049e-5
-1.085, -4.952e-5
-1.084, -4.918e-5
-1.083, -4.966e-5
-1.082, -5.024e-5
-1.081, -5.004e-5
-1.080, -4.917e-5
-1.079, -4.881e-5
-1.078, -4.936e-5
-1.077, -4.984e-5
-1.076, -4.978e-5
-1.075, -4.897e-5
-1.074, -4.862e-5
-1.073, -4.913e-5
-1.072, -4.969e-5
-1.071, -4.950e-5
-1.070, -4.879e-5
-1.069, -4.837e-5
-1.068, -4.897e-5
-1.067, -4.956e-5
-1.066, -4.940e-5
-1.065, -4.867e-5
-1.064, -4.832e-5
-1.063, -4.881e-5
-1.062, -4.959e-5
-1.061, -4.936e-5
-1.060, -4.856e-5
-1.059, -4.840e-5
-1.058, -4.888e-5
-1.057, -4.952e-5
-1.056, -4.936e-5
-1.055, -4.853e-5
-1.054, -4.836e-5
-1.053, -4.880e-5
-1.052, -4.958e-5
-1.051, -4.947e-5
-1.050, -4.866e-5
-1.049, -4.845e-5
-1.048, -4.896e-5
-1.047, -4.967e-5
-1.046, -4.955e-5
-1.045, -4.877e-5
-1.044, -4.859e-5
-1.043, -4.919e-5
-1.042, -4.983e-5
-1.041, -4.976e-5
-1.040, -4.890e-5
-1.039, -4.861e-5
-1.038, -4.933e-5
-1.037, -4.993e-5
-1.036, -4.981e-5
-1.035, -4.915e-5
-1.034, -4.876e-5
-1.033, -4.951e-5
-1.032, -5.007e-5
-1.031, -5.001e-5
-1.030, -4.924e-5
-1.029, -4.898e-5
-1.028, -4.962e-5
-1.027, -5.032e-5
-1.026, -5.009e-5
-1.025, -4.937e-5
-1.024, -4.923e-5
-1.023, -4.975e-5
-1.022, -5.057e-5
-1.021, -5.019e-5
-1.020, -4.953e-5
-1.019, -4.935e-5
-1.018, -4.989e-5
-1.017, -5.064e-5
-1.016, -5.037e-5
-1.015, -4.962e-5
-1.014, -4.948e-5
-1.013, -4.999e-5
-1.012, -5.060e-5
-1.011, -5.058e-5
-1.010, -4.972e-5
-1.009, -4.956e-5
-1.008, -5.016e-5
-1.007, -5.066e-5
-1.006, -5.066e-5
-1.005, -4.980e-5
-1.004, -4.965e-5
-1.003, -5.026e-5
-1.002, -5.083e-5
-1.001, -5.066e-5
-1.000, -3.860e-5
-1.001, -3.064e-5
-1.002, -2.698e-5
-1.003, -2.433e-5
-1.004, -2.117e-5
-1.005, -1.802e-5
-1.006, -1.574e-5
-1.007, -1.436e-5
-1.008, -1.330e-5
-1.009, -1.154e-5
-1.010, -9.380e-6
-1.011, -7.939e-6
-1.012, -7.377e-6
-1.013, -6.741e-6
-1.014, -5.681e-6
-1.015, -3.836e-6
-1.016, -2.970e-6
-1.017, -2.648e-6
-1.018, -2.495e-6
-1.019, -1.535e-6
-1.020, -1.462e-7
-1.021, 6.145e-7
-1.022, 6.825e-7
-1.023, 6.825e-7
-1.024, 1.528e-6
-1.025, 2.694e-6
-1.026, 3.413e-6
-1.027, 3.248e-6
-1.028, 3.135e-6
-1.029, 3.847e-6
-1.030, 4.956e-6
-1.031, 5.584e-6
-1.032, 5.309e-6
-1.033, 5.147e-6
-1.034, 5.755e-6
-1.035, 6.834e-6
-1.036, 7.329e-6
-1.037, 7.100e-6
-1.038, 6.841e-6
-1.039, 7.455e-6
-1.040, 8.498e-6
-1.041, 8.962e-6
-1.042, 8.676e-6
-1.043, 8.342e-6
-1.044, 8.932e-6
-1.045, 9.911e-6
-1.046, 1.034e-5
-1.047, 1.013e-5
-1.048, 9.682e-6
-1.049, 1.030e-5
-1.050, 1.131e-5
-1.051, 1.169e-5
-1.052, 1.138e-5
-1.053, 1.106e-5
-1.054, 1.148e-5
-1.055, 1.256e-5
-1.056, 1.295e-5
-1.057, 1.259e-5
-1.058, 1.237e-5
-1.059, 1.269e-5
-1.060, 1.381e-5
-1.061, 1.409e-5
-1.062, 1.376e-5
-1.063, 1.349e-5
-1.064, 1.392e-5
-1.065, 1.490e-5
-1.066, 1.531e-5
-1.067, 1.502e-5
-1.068, 1.458e-5
-1.069, 1.517e-5
-1.070, 1.609e-5
-1.071, 1.651e-5
-1.072, 1.610e-5
-1.073, 1.577e-5
-1.074, 1.630e-5
-1.075, 1.731e-5
-1.076, 1.768e-5
-1.077, 1.725e-5
-1.078, 1.698e-5
-1.079, 1.744e-5
-1.080, 1.830e-5
-1.081, 1.875e-5
-1.082, 1.842e-5
-1.083, 1.811e-5
-1.084, 1.847e-5
-1.085, 1.957e-5
-1.086, 1.984e-5
-1.087, 1.956e-5
-1.088, 1.919e-5
-1.089, 1.966e-5
-1.090, 2.071e-5
-1.091, 2.099e-5
-1.092, 2.076e-5
-1.093, 2.024e-5
-1.094, 2.082e-5
-1.095, 2.184e-5
-1.096, 2.211e-5
-1.097, 2.181e-5
-1.098, 2.148e-5
-1.099, 2.196e-5
-1.100, 2.292e-5
-1.101, 2.338e-5
-1.102, 2.295e-5
-1.103, 2.265e-5
-1.104, 2.314e-5
-1.105, 2.413e-5
-1.106, 2.463e-5
-1.107, 2.412e-5
-1.108, 2.391e-5
-1.109, 2.428e-5
-1.110, 2.529e-5
-1.111, 2.579e-5
-1.112, 2.538e-5
-1.113, 2.499e-5
-1.114, 2.565e-5
-1.115, 2.655e-5
-1.116, 2.696e-5
-1.117, 2.671e-5
-1.118, 2.630e-5
-1.119, 2.694e-5
-1.120, 2.788e-5
-1.121, 2.820e-5
-1.122, 2.799e-5
-1.123, 2.765e-5
-1.124, 2.826e-5
-1.125, 2.915e-5
-1.126, 2.961e-5
-1.127, 2.939e-5
-1.128, 2.901e-5
-1.129, 2.959e-5
-1.130, 3.064e-5
-1.131, 3.109e-5
-1.132, 3.082e-5
-1.133, 3.049e-5
-1.134, 3.108e-5
-1.135, 3.219e-5
-1.136, 3.252e-5
-1.137, 3.236e-5
-1.138, 3.211e-5
-1.139, 3.264e-5
-1.140, 3.376e-5
-1.141, 3.421e-5
-1.142, 3.400e-5
-1.143, 3.370e-5
-1.144, 3.433e-5
-1.145, 3.546e-5
-1.146, 3.599e-5
-1.147, 3.569e-5
-1.148, 3.555e-5
-1.149, 3.610e-5
-1.150, 3.723e-5
-1.151, 3.788e-5
-1.152, 3.759e-5
-1.153, 3.743e-5
-1.154, 3.808e-5
-1.155, 3.914e-5
-1.156, 3.983e-5
-1.157, 3.958e-5
-1.158, 3.941e-5
-1.159, 4.021e-5
-1.160, 4.121e-5
-1.161, 4.186e-5
-1.162, 4.177e-5
-1.163, 4.150e-5
-1.164, 4.239e-5
-1.165, 4.343e-5
-1.166, 4.416e-5
-1.167, 4.400e-5
-1.168, 4.387e-5
-1.169, 4.460e-5
-1.170, 4.584e-5
-1.171, 4.651e-5
-1.172, 4.639e-5
-1.173, 4.642e-5
-1.174, 4.693e-5
-1.175, 4.835e-5
-1.176, 4.898e-5
-1.177, 4.885e-5
-1.178, 4.901e-5
-1.179, 4.956e-5
-1.180, 5.090e-5
-1.181, 5.159e-5
-1.182, 5.154e-5
-1.183, 5.145e-5
-1.184, 5.225e-5
-1.185, 5.340e-5
-1.186, 5.428e-5
-1.187, 5.412e-5
-1.188, 5.406e-5
-1.189, 5.485e-5
-1.190, 5.612e-5
-1.191, 5.704e-5
-1.192, 5.678e-5
-1.193, 5.682e-5
-1.194, 5.754e-5
-1.195, 5.886e-5
-1.196, 5.964e-5
-1.197, 5.953e-5
-1.198, 5.953e-5
-1.199, 6.025e-5
-1.200, 6.150e-5
-1.201, 6.231e-5
-1.202, 6.226e-5
-1.203, 6.211e-5
-1.204, 6.298e-5
-1.205, 6.416e-5
-1.206, 6.502e-5
-1.207, 6.479e-5
-1.208, 6.466e-5
-1.209, 6.544e-5
-1.210, 6.668e-5
-1.211, 6.735e-5
-1.212, 6.741e-5
-1.213, 6.705e-5
-1.214, 6.778e-5
-1.215, 6.910e-5
-1.216, 6.974e-5
-1.217, 6.946e-5
-1.218, 6.941e-5
-1.219, 6.988e-5
-1.220, 7.122e-5
-1.221, 7.181e-5
-1.222, 7.166e-5
-1.223, 7.122e-5
-1.224, 7.177e-5
-1.225, 7.323e-5
-1.226, 7.352e-5
-1.227, 7.337e-5
-1.228, 7.297e-5
-1.229, 7.372e-5
-1.230, 7.479e-5
-1.231, 7.536e-5
-1.232, 7.479e-5
-1.233, 7.428e-5
-1.234, 7.491e-5
-1.235, 7.591e-5
-1.236, 7.636e-5
-1.237, 7.555e-5
-1.238, 7.536e-5
-1.239, 7.567e-5
-1.240, 7.664e-5
-1.241, 7.704e-5
-1.242, 7.655e-5
-1.243, 7.588e-5
-1.244, 7.607e-5
-1.245, 7.698e-5
-1.246, 7.747e-5
-1.247, 7.671e-5
-1.248, 7.582e-5
-1.249, 7.612e-5
-1.250, 7.719e-5
-1.251, 7.728e-5
-1.252, 7.648e-5
-1.253, 7.574e-5
-1.254, 7.597e-5
-1.255, 7.674e-5
-1.256, 7.674e-5
-1.257, 7.601e-5
-1.258, 7.515e-5
-1.259, 7.517e-5
-1.260, 7.599e-5
-1.261, 7.608e-5
-1.262, 7.503e-5
-1.263, 7.418e-5
-1.264, 7.397e-5
-1.265, 7.478e-5
-1.266, 7.487e-5
-1.267, 7.362e-5
-1.268, 7.265e-5
-1.269, 7.253e-5
-1.270, 7.309e-5
-1.271, 7.309e-5
-1.272, 7.192e-5
-1.273, 7.073e-5
-1.274, 7.053e-5
-1.275, 7.093e-5
-1.276, 7.095e-5
-1.277, 6.961e-5
-1.278, 6.833e-5
-1.279, 6.809e-5
-1.280, 6.865e-5
-1.281, 6.832e-5
-1.282, 6.701e-5
-1.283, 6.562e-5
-1.284, 6.534e-5
-1.285, 6.567e-5
-1.286, 6.536e-5
-1.287, 6.408e-5
-1.288, 6.259e-5
-1.289, 6.225e-5
-1.290, 6.255e-5
-1.291, 6.216e-5
-1.292, 6.087e-5
-1.293, 5.932e-5
-1.294, 5.899e-5
-1.295, 5.926e-5
-1.296, 5.882e-5
-1.297, 5.732e-5
-1.298, 5.603e-5
-1.299, 5.557e-5
-1.300, 5.586e-5
-1.301, 5.562e-5
-1.302, 5.405e-5
-1.303, 5.255e-5
-1.304, 5.236e-5
-1.305, 5.268e-5
-1.306, 5.231e-5
-1.307, 5.084e-5
-1.308, 4.965e-5
-1.309, 4.918e-5
-1.310, 4.965e-5
-1.311, 4.954e-5
-1.312, 4.800e-5
-1.313, 4.663e-5
-1.314, 4.652e-5
-1.315, 4.706e-5
-1.316, 4.670e-5
-1.317, 4.564e-5
-1.318, 4.431e-5
-1.319, 4.436e-5
-1.320, 4.482e-5
-1.321, 4.481e-5
-1.322, 4.371e-5
-1.323, 4.244e-5
-1.324, 4.258e-5
-1.325, 4.325e-5
-1.326, 4.333e-5
-1.327, 4.228e-5
-1.328, 4.125e-5
-1.329, 4.138e-5
-1.330, 4.239e-5
-1.331, 4.235e-5
-1.332, 4.149e-5
-1.333, 4.049e-5
-1.334, 4.088e-5
-1.335, 4.186e-5
-1.336, 4.193e-5
-1.337, 4.119e-5
-1.338, 4.057e-5
-1.339, 4.083e-5
-1.340, 4.188e-5
-1.341, 4.221e-5
-1.342, 4.144e-5
-1.343, 4.078e-5
-1.344, 4.109e-5
-1.345, 4.240e-5
-1.346, 4.280e-5
-1.347, 4.191e-5
-1.348, 4.140e-5
-1.349, 4.187e-5
-1.350, 4.309e-5
-1.351, 4.362e-5
-1.352, 4.285e-5
-1.353, 4.228e-5
-1.354, 4.300e-5
-1.355, 4.418e-5
-1.356, 4.470e-5
-1.357, 4.413e-5
-1.358, 4.355e-5
-1.359, 4.436e-5
-1.360, 4.540e-5
-1.361, 4.619e-5
-1.362, 4.555e-5
-1.363, 4.492e-5
-1.364, 4.582e-5
-1.365, 4.714e-5
-1.366, 4.747e-5
-1.367, 4.708e-5
-1.368, 4.650e-5
-1.369, 4.727e-5
-1.370, 4.883e-5
-1.371, 4.925e-5
-1.372, 4.869e-5
-1.373, 4.818e-5
-1.374, 4.900e-5
-1.375, 5.024e-5
-1.376, 5.066e-5
-1.377, 5.026e-5
-1.378, 4.977e-5
-1.379, 5.041e-5
-1.380, 5.190e-5
-1.381, 5.239e-5
-1.382, 5.184e-5
-1.383, 5.130e-5
-1.384, 5.188e-5
-1.385, 5.327e-5
-1.386, 5.377e-5
-1.387, 5.314e-5
-1.388, 5.273e-5
-1.389, 5.327e-5
-1.390, 5.465e-5
-1.391, 5.508e-5
-1.392, 5.440e-5
-1.393, 5.377e-5
-1.394, 5.453e-5
-1.395, 5.564e-5
-1.396, 5.621e-5
-1.397, 5.552e-5
-1.398, 5.479e-5
-1.399, 5.544e-5
-1.400, 5.670e-5
-1.401, 5.699e-5
-1.402, 5.622e-5
-1.403, 5.564e-5
-1.404, 5.616e-5
-1.405, 5.745e-5
-1.406, 5.751e-5
-1.407, 5.704e-5
-1.408, 5.619e-5
-1.409, 5.676e-5
-1.410, 5.786e-5
-1.411, 5.812e-5
-1.412, 5.736e-5
-1.413, 5.662e-5
-1.414, 5.719e-5
-1.415, 5.847e-5
-1.416, 5.836e-5
-1.417, 5.770e-5
-1.418, 5.722e-5
-1.419, 5.762e-5
-1.420, 5.869e-5
-1.421, 5.895e-5
-1.422, 5.808e-5
-1.423, 5.762e-5
-1.424, 5.805e-5
-1.425, 5.917e-5
-1.426, 5.950e-5
-1.427, 5.873e-5
-1.428, 5.822e-5
-1.429, 5.897e-5
-1.430, 5.995e-5
-1.431, 6.041e-5
-1.432, 5.969e-5
-1.433, 5.929e-5
-1.434, 6.022e-5
-1.435, 6.134e-5
-1.436, 6.188e-5
-1.437, 6.142e-5
-1.438, 6.123e-5
-1.439, 6.235e-5
-1.440, 6.375e-5
-1.441, 6.439e-5
-1.442, 6.443e-5
-1.443, 6.454e-5
-1.444, 6.609e-5
-1.445, 6.796e-5
-1.446, 6.912e-5
-1.447, 6.985e-5
-1.448, 7.071e-5
-1.449, 7.308e-5
-1.450, 7.613e-5
-1.451, 7.853e-5
-1.452, 8.072e-5
-1.453, 8.389e-5
-1.454, 8.878e-5
-1.455, 9.506e-5
-1.456, 1.020e-4
-1.457, 1.104e-4
-1.458, 1.214e-4
-1.459, 1.362e-4
-1.460, 1.553e-4
-1.461, 1.780e-4
-1.462, 2.055e-4
-1.463, 2.397e-4
-1.464, 2.821e-4
-1.465, 3.289e-4
-1.466, 3.784e-4
-1.467, 4.242e-4
-1.468, 4.766e-4
-1.469, 5.340e-4
-1.470, 5.832e-4
-1.471, 6.299e-4
-1.472, 6.857e-4
-1.473, 7.430e-4
-1.474, 8.055e-4
-1.475, 8.779e-4
-1.476, 9.449e-4
-1.477, 1.013e-3
-1.478, 1.074e-3
-1.479, 1.126e-3
-1.480, 1.173e-3
-1.481, 1.210e-3
-1.482, 1.253e-3
-1.483, 1.284e-3
-1.484, 1.307e-3
-1.485, 1.343e-3
-1.486, 1.366e-3
-1.487, 1.385e-3
-1.488, 1.397e-3
-1.489, 1.420e-3
-1.490, 1.446e-3
-1.491, 1.470e-3
-1.492, 1.480e-3
-1.493, 1.502e-3
-1.494, 1.526e-3
-1.495, 1.543e-3
-1.496, 1.564e-3
-1.497, 1.601e-3
-1.498, 1.611e-3
-1.499, 1.631e-3
-1.500, 1.662e-3
-1.501, 1.681e-3
-1.502, 1.710e-3
-1.503, 1.740e-3
-1.504, 1.748e-3
-1.505, 1.776e-3
-1.506, 1.795e-3
-1.507, 1.813e-3
-1.508, 1.850e-3
-1.509, 1.881e-3
-1.510, 1.896e-3
-1.511, 1.920e-3
-1.512, 1.951e-3
-1.513, 1.967e-3
-1.514, 1.999e-3
-1.515, 2.017e-3
-1.516, 2.043e-3
-1.517, 2.059e-3
-1.518, 2.079e-3
-1.519, 2.113e-3
-1.520, 2.146e-3
-1.521, 2.178e-3
-1.522, 2.199e-3
-1.523, 2.226e-3
-1.524, 2.279e-3
-1.525, 2.291e-3
-1.526, 2.325e-3
-1.527, 2.353e-3
-1.528, 2.368e-3
-1.529, 2.386e-3
-1.530, 2.421e-3
-1.531, 2.436e-3
-1.532, 2.465e-3
-1.533, 2.485e-3
-1.534, 2.529e-3
-1.535, 2.547e-3
-1.536, 2.579e-3
-1.537, 2.611e-3
-1.538, 2.639e-3
-1.539, 2.666e-3
-1.540, 2.711e-3
-1.541, 2.724e-3
-1.542, 2.743e-3
-1.543, 2.783e-3
-1.544, 2.804e-3
-1.545, 2.833e-3
-1.546, 2.854e-3
-1.547, 2.874e-3
-1.548, 2.916e-3
-1.549, 2.947e-3
-1.550, 2.982e-3
-1.551, 3.027e-3
-1.552, 3.069e-3
-1.553, 3.085e-3
-1.554, 3.113e-3
-1.555, 3.139e-3
-1.556, 3.159e-3
-1.557, 3.187e-3
-1.558, 3.205e-3
-1.559, 3.224e-3
-1.560, 3.238e-3
-1.561, 3.295e-3
-1.562, 3.327e-3
-1.563, 3.359e-3
-1.564, 3.394e-3
-1.565, 3.409e-3
-1.566, 3.431e-3
-1.567, 3.469e-3
-1.568, 3.496e-3
-1.569, 3.513e-3
-1.570, 3.559e-3
-1.571, 3.609e-3
-1.572, 3.631e-3
-1.573, 3.637e-3
-1.574, 3.694e-3
-1.575, 3.725e-3
-1.576, 3.749e-3
-1.577, 3.751e-3
-1.578, 3.791e-3
-1.579, 3.806e-3
-1.580, 3.856e-3
-1.581, 3.896e-3
-1.582, 3.937e-3
-1.583, 3.963e-3
-1.584, 3.980e-3
-1.585, 4.008e-3
-1.586, 4.032e-3
-1.587, 4.068e-3
-1.588, 4.100e-3
-1.589, 4.152e-3
-1.590, 4.202e-3
-1.591, 4.192e-3
-1.592, 4.197e-3
-1.593, 4.272e-3
-1.594, 4.345e-3
-1.595, 4.343e-3
-1.596, 4.360e-3
-1.597, 4.354e-3
-1.598, 4.392e-3
-1.599, 4.419e-3
-1.600, 4.458e-3
-1.599, 4.396e-3
-1.598, 4.342e-3
-1.597, 4.345e-3
-1.596, 4.314e-3
-1.595, 4.284e-3
-1.594, 4.293e-3
-1.593, 4.325e-3
-1.592, 4.283e-3
-1.591, 4.205e-3
-1.590, 4.147e-3
-1.589, 4.159e-3
-1.588, 4.084e-3
-1.587, 4.060e-3
-1.586, 4.042e-3
-1.585, 3.980e-3
-1.584, 3.942e-3
-1.583, 3.887e-3
-1.582, 3.827e-3
-1.581, 3.761e-3
-1.580, 3.726e-3
-1.579, 3.689e-3
-1.578, 3.673e-3
-1.577, 3.659e-3
-1.576, 3.628e-3
-1.575, 3.611e-3
-1.574, 3.589e-3
-1.573, 3.537e-3
-1.572, 3.513e-3
-1.571, 3.497e-3
-1.570, 3.433e-3
-1.569, 3.376e-3
-1.568, 3.371e-3
-1.567, 3.315e-3
-1.566, 3.276e-3
-1.565, 3.275e-3
-1.564, 3.227e-3
-1.563, 3.172e-3
-1.562, 3.137e-3
-1.561, 3.108e-3
-1.560, 3.088e-3
-1.559, 3.061e-3
-1.558, 3.060e-3
-1.557, 3.026e-3
-1.556, 2.958e-3
-1.555, 2.905e-3
-1.554, 2.837e-3
-1.553, 2.808e-3
-1.552, 2.771e-3
-1.551, 2.733e-3
-1.550, 2.719e-3
-1.549, 2.684e-3
-1.548, 2.632e-3
-1.547, 2.613e-3
-1.546, 2.576e-3
-1.545, 2.553e-3
-1.544, 2.510e-3
-1.543, 2.484e-3
-1.542, 2.457e-3
-1.541, 2.435e-3
-1.540, 2.421e-3
-1.539, 2.405e-3
-1.538, 2.378e-3
-1.537, 2.356e-3
-1.536, 2.314e-3
-1.535, 2.277e-3
-1.534, 2.246e-3
-1.533, 2.208e-3
-1.532, 2.203e-3
-1.531, 2.175e-3
-1.530, 2.164e-3
-1.529, 2.156e-3
-1.528, 2.120e-3
-1.527, 2.089e-3
-1.526, 2.040e-3
-1.525, 2.007e-3
-1.524, 1.984e-3
-1.523, 1.959e-3
-1.522, 1.931e-3
-1.521, 1.910e-3
-1.520, 1.874e-3
-1.519, 1.845e-3
-1.518, 1.812e-3
-1.517, 1.787e-3
-1.516, 1.765e-3
-1.515, 1.738e-3
-1.514, 1.710e-3
-1.513, 1.678e-3
-1.512, 1.656e-3
-1.511, 1.628e-3
-1.510, 1.593e-3
-1.509, 1.570e-3
-1.508, 1.549e-3
-1.507, 1.526e-3
-1.506, 1.493e-3
-1.505, 1.472e-3
-1.504, 1.452e-3
-1.503, 1.425e-3
-1.502, 1.398e-3
-1.501, 1.377e-3
-1.500, 1.350e-3
-1.499, 1.331e-3
-1.498, 1.299e-3
-1.497, 1.285e-3
-1.496, 1.261e-3
-1.495, 1.238e-3
-1.494, 1.219e-3
-1.493, 1.195e-3
-1.492, 1.167e-3
-1.491, 1.143e-3
-1.490, 1.129e-3
-1.489, 1.107e-3
-1.488, 1.101e-3
-1.487, 1.073e-3
-1.486, 1.045e-3
-1.485, 1.024e-3
-1.484, 1.003e-3
-1.483, 9.827e-4
-1.482, 9.651e-4
-1.481, 9.425e-4
-1.480, 9.237e-4
-1.479, 9.109e-4
-1.478, 8.833e-4
-1.477, 8.667e-4
-1.476, 8.462e-4
-1.475, 8.254e-4
-1.474, 8.114e-4
-1.473, 7.950e-4
-1.472, 7.789e-4
-1.471, 7.613e-4
-1.470, 7.488e-4
-1.469, 7.299e-4
-1.468, 7.014e-4
-1.467, 6.848e-4
-1.466, 6.700e-4
-1.465, 6.572e-4
-1.464, 6.415e-4
-1.463, 6.287e-4
-1.462, 6.054e-4
-1.461, 5.886e-4
-1.460, 5.758e-4
-1.459, 5.607e-4
-1.458, 5.493e-4
-1.457, 5.371e-4
-1.456, 5.256e-4
-1.455, 5.124e-4
-1.454, 4.981e-4
-1.453, 4.810e-4
-1.452, 4.671e-4
-1.451, 4.521e-4
-1.450, 4.375e-4
-1.449, 4.255e-4
-1.448, 4.127e-4
-1.447, 3.975e-4
-1.446, 3.886e-4
-1.445, 3.772e-4
-1.444, 3.661e-4
-1.443, 3.541e-4
-1.442, 3.411e-4
-1.441, 3.305e-4
-1.440, 3.204e-4
-1.439, 3.091e-4
-1.438, 2.993e-4
-1.437, 2.897e-4
-1.436, 2.818e-4
-1.435, 2.706e-4
-1.434, 2.627e-4
-1.433, 2.533e-4
-1.432, 2.429e-4
-1.431, 2.348e-4
-1.430, 2.268e-4
-1.429, 2.182e-4
-1.428, 2.099e-4
-1.427, 2.011e-4
-1.426, 1.927e-4
-1.425, 1.867e-4
-1.424, 1.800e-4
-1.423, 1.718e-4
-1.422, 1.649e-4
-1.421, 1.590e-4
-1.420, 1.536e-4
-1.419, 1.477e-4
-1.418, 1.425e-4
-1.417, 1.360e-4
-1.416, 1.321e-4
-1.415, 1.278e-4
-1.414, 1.234e-4
-1.413, 1.182e-4
-1.412, 1.131e-4
-1.411, 1.089e-4
-1.410, 1.052e-4
-1.409, 1.010e-4
-1.408, 9.626e-5
-1.407, 9.163e-5
-1.406, 8.813e-5
-1.405, 8.442e-5
-1.404, 8.138e-5
-1.403, 7.730e-5
-1.402, 7.313e-5
-1.401, 7.004e-5
-1.400, 6.703e-5
-1.399, 6.360e-5
-1.398, 5.977e-5
-1.397, 5.642e-5
-1.396, 5.368e-5
-1.395, 5.129e-5
-1.394, 4.878e-5
-1.393, 4.566e-5
-1.392, 4.300e-5
-1.391, 4.103e-5
-1.390, 3.930e-5
-1.389, 3.696e-5
-1.388, 3.410e-5
-1.387, 3.163e-5
-1.386, 3.018e-5
-1.385, 2.887e-5
-1.384, 2.693e-5
-1.383, 2.460e-5
-1.382, 2.254e-5
-1.381, 2.135e-5
-1.380, 2.040e-5
-1.379, 1.884e-5
-1.378, 1.694e-5
-1.377, 1.531e-5
-1.376, 1.496e-5
-1.375, 1.421e-5
-1.374, 1.296e-5
-1.373, 1.124e-5
-1.372, 9.799e-6
-1.371, 9.075e-6
-1.370, 8.532e-6
-1.369, 7.520e-6
-1.368, 6.044e-6
-1.367, 4.825e-6
-1.366, 4.271e-6
-1.365, 4.105e-6
-1.364, 3.220e-6
-1.363, 1.712e-6
-1.362, 6.332e-7
-1.361, 2.731e-7
-1.360, 5.158e-7
-1.359, -4.854e-8
-1.358, -1.391e-6
-1.357, -2.516e-6
-1.356, -2.713e-6
-1.355, -2.659e-6
-1.354, -3.019e-6
-1.353, -4.285e-6
-1.352, -5.179e-6
-1.351, -5.208e-6
-1.350, -5.111e-6
-1.349, -5.453e-6
-1.348, -6.533e-6
-1.347, -7.501e-6
-1.346, -7.397e-6
-1.345, -7.022e-6
-1.344, -7.364e-6
-1.343, -8.391e-6
-1.342, -9.420e-6
-1.341, -9.383e-6
-1.340, -8.868e-6
-1.339, -8.978e-6
-1.338, -9.870e-6
-1.337, -1.075e-5
-1.336, -1.060e-5
-1.335, -1.008e-5
-1.334, -1.048e-5
-1.333, -1.136e-5
-1.332, -1.220e-5
-1.331, -1.206e-5
-1.330, -1.148e-5
-1.329, -1.158e-5
-1.328, -1.240e-5
-1.327, -1.332e-5
-1.326, -1.319e-5
-1.325, -1.254e-5
-1.324, -1.264e-5
-1.323, -1.368e-5
-1.322, -1.437e-5
-1.321, -1.424e-5
-1.320, -1.349e-5
-1.319, -1.359e-5
-1.318, -1.455e-5
-1.317, -1.528e-5
-1.316, -1.505e-5
-1.315, -1.457e-5
-1.314, -1.460e-5
-1.313, -1.555e-5
-1.312, -1.628e-5
-1.311, -1.598e-5
-1.310, -1.547e-5
-1.309, -1.526e-5
-1.308, -1.636e-5
-1.307, -1.720e-5
-1.306, -1.683e-5
-1.305, -1.623e-5
-1.304, -1.617e-5
-1.303, -1.706e-5
-1.302, -1.794e-5
-1.301, -1.769e-5
-1.300, -1.717e-5
-1.299, -1.718e-5
-1.298, -1.796e-5
-1.297, -1.887e-5
-1.296, -1.861e-5
-1.295, -1.800e-5
-1.294, -1.809e-5
-1.293, -1.941e-5
-1.292, -2.027e-5
-1.291, -2.011e-5
-1.290, -1.922e-5
-1.289, -1.915e-5
-1.288, -2.001e-5
-1.287, -2.084e-5
-1.286, -2.076e-5
-1.285, -2.003e-5
-1.284, -2.013e-5
-1.283, -2.106e-5
-1.282, -2.201e-5
-1.281, -2.183e-5
-1.280, -2.125e-5
-1.279, -2.117e-5
-1.278, -2.222e-5
-1.277, -2.308e-5
-1.276, -2.284e-5
-1.275, -2.245e-5
-1.274, -2.244e-5
-1.273, -2.352e-5
-1.272, -2.435e-5
-1.271, -2.419e-5
-1.270, -2.367e-5
-1.269, -2.366e-5
-1.268, -2.474e-5
-1.267, -2.570e-5
-1.266, -2.561e-5
-1.265, -2.501e-5
-1.264, -2.498e-5
-1.263, -2.596e-5
-1.262, -2.711e-5
-1.261, -2.696e-5
-1.260, -2.640e-5
-1.259, -2.649e-5
-1.258, -2.761e-5
-1.257, -2.874e-5
-1.256, -2.877e-5
-1.255, -2.818e-5
-1.254, -2.849e-5
-1.253, -2.948e-5
-1.252, -3.057e-5
-1.251, -3.082e-5
-1.250, -3.027e-5
-1.249, -3.060e-5
-1.248, -3.172e-5
-1.247, -3.289e-5
-1.246, -3.321e-5
-1.245, -3.271e-5
-1.244, -3.320e-5
-1.243, -3.454e-5
-1.242, -3.572e-5
-1.241, -3.612e-5
-1.240, -3.563e-5
-1.239, -3.612e-5
-1.238, -3.735e-5
-1.237, -3.854e-5
-1.236, -3.904e-5
-1.235, -3.889e-5
-1.234, -3.899e-5
-1.233, -4.073e-5
-1.232, -4.184e-5
-1.231, -4.236e-5
-1.230, -4.229e-5
-1.229, -4.291e-5
-1.228, -4.423e-5
-1.227, -4.578e-5
-1.226, -4.612e-5
-1.225, -4.628e-5
-1.224, -4.665e-5
-1.223, -4.823e-5
-1.222, -4.983e-5
-1.221, -5.042e-5
-1.220, -5.042e-5
-1.219, -5.102e-5
-1.218, -5.249e-5
-1.217, -5.411e-5
-1.216, -5.482e-5
-1.215, -5.483e-5
-1.214, -5.552e-5
-1.213, -5.707e-5
-1.212, -5.876e-5
-1.211, -5.981e-5
-1.210, -5.969e-5
-1.209, -6.021e-5
-1.208, -6.155e-5
-1.207, -6.336e-5
-1.206, -6.411e-5
-1.205, -6.397e-5
-1.204, -6.452e-5
-1.203, -6.598e-5
-1.202, -6.745e-5
-1.201, -6.812e-5
-1.200, -6.785e-5
-1.199, -6.822e-5
-1.198, -6.976e-5
-1.197, -7.099e-5
-1.196, -7.150e-5
-1.195, -7.147e-5
-1.194, -7.142e-5
-1.193, -7.283e-5
-1.192, -7.413e-5
-1.191, -7.413e-5
-1.190, -7.400e-5
-1.189, -7.383e-5
-1.188, -7.504e-5
-1.187, -7.606e-5
-1.186, -7.608e-5
-1.185, -7.567e-5
-1.184, -7.542e-5
-1.183, -7.612e-5
-1.182, -7.716e-5
-1.181, -7.683e-5
-1.180, -7.615e-5
-1.179, -7.579e-5
-1.178, -7.645e-5
-1.177, -7.708e-5
-1.176, -7.674e-5
-1.175, -7.565e-5
-1.174, -7.520e-5
-1.173, -7.554e-5
-1.172, -7.603e-5
-1.171, -7.562e-5
-1.170, -7.438e-5
-1.169, -7.377e-5
-1.168, -7.394e-5
-1.167, -7.430e-5
-1.166, -7.373e-5
-1.165, -7.250e-5
-1.164, -7.174e-5
-1.163, -7.189e-5
-1.162, -7.207e-5
-1.161, -7.149e-5
-1.160, -7.017e-5
-1.159, -6.959e-5
-1.158, -6.951e-5
-1.157, -6.981e-5
-1.156, -6.925e-5
-1.155, -6.784e-5
-1.154, -6.696e-5
-1.153, -6.711e-5
-1.152, -6.704e-5
-1.151, -6.649e-5
-1.150, -6.524e-5
-1.149, -6.433e-5
-1.148, -6.457e-5
-1.147, -6.477e-5
-1.146, -6.400e-5
-1.145, -6.301e-5
-1.144, -6.201e-5
-1.143, -6.221e-5
-1.142, -6.255e-5
-1.141, -6.187e-5
-1.140, -6.055e-5
-1.139, -5.987e-5
-1.138, -6.009e-5
-1.137, -6.039e-5
-1.136, -5.979e-5
-1.135, -5.863e-5
-1.134, -5.809e-5
-1.133, -5.828e-5
-1.132, -5.850e-5
-1.131, -5.814e-5
-1.130, -5.692e-5
-1.129, -5.638e-5
-1.128, -5.658e-5
-1.127, -5.695e-5
-1.126, -5.660e-5
-1.125, -5.533e-5
-1.124, -5.498e-5
-1.123, -5.518e-5
-1.122, -5.552e-5
-1.121, -5.529e-5
-1.120, -5.416e-5
-1.119, -5.357e-5
-1.118, -5.410e-5
-1.117, -5.431e-5
-1.116, -5.401e-5
-1.115, -5.299e-5
-1.114, -5.246e-5
-1.113, -5.297e-5
-1.112, -5.331e-5
-1.111, -5.296e-5
-1.110, -5.192e-5
-1.109, -5.149e-5
-1.108, -5.193e-5
-1.107, -5.235e-5
-1.106, -5.200e-5
-1.105, -5.120e-5
-1.104, -5.070e-5
-1.103, -5.158e-5
-1.102, -5.161e-5
-1.101, -5.142e-5
-1.100, -5.030e-5
-1.099, -4.999e-5
-1.098, -5.046e-5
-1.097, -5.088e-5
-1.096, -5.056e-5
-1.095, -4.961e-5
-1.094, -4.926e-5
-1.093, -4.972e-5
-1.092, -5.019e-5
-1.091, -4.992e-5
-1.090, -4.896e-5
-1.089, -4.871e-5
-1.088, -4.917e-5
-1.087, -4.980e-5
-1.086, -4.932e-5
-1.085, -4.859e-5
-1.084, -4.814e-5
-1.083, -4.881e-5
-1.082, -4.934e-5
-1.081, -4.897e-5
-1.080, -4.827e-5
-1.079, -4.780e-5
-1.078, -4.854e-5
-1.077, -4.889e-5
-1.076, -4.881e-5
-1.075, -4.801e-5
-1.074, -4.758e-5
-1.073, -4.831e-5
-1.072, -4.876e-5
-1.071, -4.858e-5
-1.070, -4.781e-5
-1.069, -4.747e-5
-1.068, -4.799e-5
-1.067, -4.871e-5
-1.066, -4.835e-5
-1.065, -4.768e-5
-1.064, -4.738e-5
-1.063, -4.802e-5
-1.062, -4.867e-5
-1.061, -4.832e-5
-1.060, -4.759e-5
-1.059, -4.745e-5
-1.058, -4.793e-5
-1.057, -4.863e-5
-1.056, -4.850e-5
-1.055, -4.758e-5
-1.054, -4.760e-5
-1.053, -4.790e-5
-1.052, -4.873e-5
-1.051, -4.844e-5
-1.050, -4.780e-5
-1.049, -4.755e-5
-1.048, -4.814e-5
-1.047, -4.882e-5
-1.046, -4.858e-5
-1.045, -4.793e-5
-1.044, -4.763e-5
-1.043, -4.834e-5
-1.042, -4.894e-5
-1.041, -4.883e-5
-1.040, -4.815e-5
-1.039, -4.781e-5
-1.038, -4.849e-5
-1.037, -4.902e-5
-1.036, -4.894e-5
-1.035, -4.827e-5
-1.034, -4.804e-5
-1.033, -4.867e-5
-1.032, -4.927e-5
-1.031, -4.906e-5
-1.030, -4.846e-5
-1.029, -4.819e-5
-1.028, -4.874e-5
-1.027, -4.961e-5
-1.026, -4.923e-5
-1.025, -4.870e-5
-1.024, -4.847e-5
-1.023, -4.909e-5
-1.022, -4.962e-5
-1.021, -4.962e-5
-1.020, -4.873e-5
-1.019, -4.868e-5
-1.018, -4.921e-5
-1.017, -4.992e-5
-1.016, -4.970e-5
-1.015, -4.896e-5
-1.014, -4.882e-5
-1.013, -4.927e-5
-1.012, -5.004e-5
-1.011, -4.981e-5
-1.010, -4.916e-5
-1.009, -4.891e-5
-1.008, -4.956e-5
-1.007, -5.009e-5
-1.006, -5.114e-5
-1.005, -5.199e-5
-1.004, -5.006e-5
-1.003, -5.033e-5
-1.002, -5.060e-5
-1.001, -5.052e-5
