Potential V vs RHE, Current mA cm-2
0.013299999999999867,0.639873920928956
0.012299999999999978,-0.8759892368764308
0.011299999999999866,-2.044257828304978
0.010299999999999976,-3.0953883241047
0.009299999999999864,-4.097003924409146
0.008299999999999974,-4.947245415628033
0.007299999999999862,-5.6065008813651405
0.006299999999999972,-6.122870505815879
0.00529999999999986,-6.654801954565133
0.0042999999999999705,-7.257468968307639
0.0032999999999998586,-7.799303396155947
0.0022999999999999687,-8.181275447119509
0.0012999999999998568,-8.481194242690894
0.00029999999999996696,-8.822139665958368
-0.000700000000000145,-9.257870746316799
-0.0017000000000000348,-9.644086931179956
-0.0027000000000001467,-9.902979099055257
-0.0037000000000000366,-10.081232722838251
-0.0047000000000001485,-10.335880756813957
-0.005700000000000038,-10.692388004379948
-0.00670000000000015,-11.03050400504769
-0.00770000000000004,-11.246954833927042
-0.008700000000000152,-11.396914231712735
-0.009700000000000042,-11.613365060592086
-0.010700000000000154,-11.933089814361585
-0.011700000000000044,-12.225935053433647
-0.012700000000000156,-12.412676945015832
-0.013700000000000045,-12.551318652402605
-0.014700000000000157,-12.75503707958317
-0.015700000000000047,-13.053541163854694
-0.01670000000000016,-13.344971691626892
-0.01770000000000005,-13.521810604110021
-0.01870000000000016,-13.632158085499492
-0.01970000000000005,-13.834461801380193
-0.020700000000000163,-14.12306290655266
-0.021700000000000053,-14.430055258623375
-0.022700000000000164,-14.62811484060448
-0.023700000000000054,-14.741291744593681
-0.024700000000000166,-14.911057100577487
-0.025700000000000056,-15.236440699546446
-0.026700000000000168,-15.519382959519453
-0.027700000000000058,-15.731589654499205
-0.02870000000000017,-15.87306078448571
-0.02970000000000006,-16.085267479465468
-0.03070000000000017,-16.382356852437127
-0.03170000000000006,-16.679446225408782
-0.03270000000000017,-16.863358694391238
-0.03370000000000006,-17.00482982437774
-0.034700000000000175,-17.217036519357496
-0.035700000000000065,-17.570714344323754
-0.03670000000000018,-17.910245056291366
-0.03770000000000007,-18.13659886426977
-0.03870000000000018,-18.292217107254928
-0.03970000000000007,-18.504423802234676
-0.04070000000000018,-18.829807401203638
-0.04170000000000007,-19.098602548177997
-0.04270000000000018,-19.353250582153702
-0.04370000000000007,-19.49472171214021
-0.044700000000000184,-19.73522263311726
-0.045700000000000074,-20.10304757108217
-0.046700000000000186,-20.48501962204573
-0.047700000000000076,-20.73966765602144
-0.04870000000000019,-20.90943301200524
-0.04970000000000008,-21.13578681998365
-0.05070000000000019,-21.51775887094721
-0.05170000000000008,-21.885583808912116
-0.05270000000000019,-22.126084729889175
-0.05370000000000008,-22.352438537867577
-0.05470000000000019,-22.621233684841933
-0.05570000000000008,-23.003205735805498
-0.056700000000000195,-23.385177786769056
-0.057700000000000085,-23.710561385738018
-0.058700000000000196,-23.908620967719123
-0.059700000000000086,-24.134974775697525
-0.0607000000000002,-24.531093939659737
-0.06170000000000009,-24.9130659906233
-0.0627000000000002,-25.210155363594954
-0.06370000000000009,-25.40821494557606
-0.0647000000000002,-25.648715866553115
-0.06570000000000009,-26.058982143513976
-0.0667000000000002,-26.455101307476184
-0.0677000000000001,-26.766337793446493
-0.0687000000000002,-26.936103149430302
-0.0697000000000001,-27.204898296404657
-0.07070000000000021,-27.62931168636417
-0.0717000000000001,-28.09616641531963
-0.07270000000000021,-28.393255788291288
-0.0737000000000001,-28.591315370272387
-0.07470000000000021,-28.86011051724675
-0.0757000000000001,-29.284523907206257
-0.07670000000000021,-29.59576039317657
-0.0777000000000001,-29.906996879146874
-0.07870000000000021,-30.11920357412663
-0.0797000000000001,-30.402145834099635
-0.08070000000000022,-30.82655922405915
-0.0817000000000001,-31.265119727017314
-0.08270000000000022,-31.56220909998897
-0.08370000000000011,-31.77441579496872
-0.08470000000000022,-32.05735805494172
-0.08570000000000011,-32.439330105905285
-0.08670000000000022,-32.8354492698675
-0.08770000000000011,-33.13253864283916
-0.08870000000000022,-33.25986265982701
-0.08970000000000011,-33.51451069380272
-0.09070000000000022,-33.93892408376223
-0.09170000000000011,-34.36333747372174
-0.09270000000000023,-34.6604268466934
-0.09370000000000012,-34.87263354167316
-0.09470000000000023,-35.14142868864751
-0.09570000000000012,-35.53754785260972
-0.09670000000000023,-36.01854969456383
-0.09770000000000012,-36.38637463252874
-0.09870000000000023,-36.55613998851254
-0.09970000000000012,-36.768346683492304
-0.10070000000000023,-37.136171621457216
-0.10170000000000012,-37.53229078541942
-0.10270000000000024,-37.81523304539243
-0.10370000000000013,-38.02743974037218
-0.10470000000000024,-38.35282333934114
-0.10570000000000013,-38.777236729300654
-0.10670000000000024,-39.187503006261515
-0.10770000000000013,-39.44215104023723
-0.10870000000000024,-39.654357735216976
-0.10970000000000013,-39.95144710818864
-0.11070000000000024,-40.34756627215084
-0.11170000000000013,-40.814421001106304
-0.11270000000000002,-41.196393052069865
-0.11370000000000013,-41.32371706905772
-0.11470000000000002,-41.46518819904423
-0.11570000000000014,-41.74813045901723
-0.11670000000000003,-42.130102509980794
-0.11770000000000014,-42.45548610894975
-0.11870000000000003,-42.72428125592411
-0.11970000000000014,-43.02137062889577
-0.12070000000000003,-43.40334267985933
-0.12170000000000014,-43.72872627882828
-0.12270000000000003,-43.96922719980534
-0.12370000000000014,-44.124845442790495
-0.12470000000000003,-44.36534636376755
-0.12570000000000014,-44.74731841473111
-0.12670000000000003,-45.143437578693316
-0.12770000000000015,-45.46882117766227
-0.12870000000000004,-45.69517498564068
-0.12970000000000015,-45.949823019616396
-0.13070000000000004,-46.24691239258805
-0.13170000000000015,-46.60059021755431
-0.13270000000000004,-46.82694402553272
-0.13370000000000015,-47.01085649451517
-0.13470000000000004,-47.26550452849088
-0.13570000000000015,-47.590888127459834
-0.13670000000000004,-47.987007291422046
-0.13770000000000016,-48.24165532539775
-0.13870000000000005,-48.39727356838291
-0.13970000000000016,-48.581186037365356
-0.14070000000000005,-48.920716749332975
-0.14170000000000016,-49.33098302629383
-0.14270000000000005,-49.68466085126009
-0.14370000000000016,-49.88272043324119
-0.14470000000000005,-50.12322135421825
-0.14570000000000016,-50.50519340518181
-0.14670000000000005,-50.90131256914402
-0.14770000000000016,-51.127666377122424
-0.14870000000000005,-51.28328462010758
-0.14970000000000017,-51.43890286309273
-0.15070000000000006,-51.72184512306574
-0.15170000000000017,-52.132111400026595
-0.15270000000000006,-52.42920077299826
-0.15370000000000017,-52.528230563988814
-0.15470000000000006,-52.75458437196722
-0.15570000000000017,-53.051673744938874
-0.15670000000000006,-53.447792908901086
-0.15770000000000017,-53.68829382987814
-0.15870000000000006,-53.85805918586195
-0.15970000000000018,-54.05611876784305
-0.16070000000000007,-54.31076680181876
-0.16170000000000018,-54.63615040078772
-0.16270000000000007,-54.876651321764776
-0.16370000000000018,-55.06056379074723
-0.16470000000000007,-55.31521182472294
-0.16570000000000018,-55.5840069716973
-0.16670000000000007,-55.9235376836649
-0.16770000000000018,-56.1781857176406
-0.16870000000000007,-56.34795107362442
-0.16970000000000018,-56.53186354260687
-0.17070000000000007,-56.81480580257987
-0.17170000000000019,-57.15433651454749
-0.17270000000000008,-57.423131661521836
-0.1737000000000002,-57.59289701750564
-0.17470000000000008,-57.76266237348945
-0.1757000000000002,-58.07389885945976
-0.17670000000000008,-58.41342957142736
-0.1777000000000002,-58.72466605739767
-0.17870000000000008,-59.12078522135989
-0.1797000000000002,-59.47446304632614
-0.18070000000000008,-59.70081685430455
-0.1817000000000002,-59.913023549284304
-0.18270000000000008,-60.08278890526811
-0.1837000000000002,-60.18181869625866
-0.1847000000000001,-60.37987827823977
-0.1857000000000002,-60.71940899020737
-0.1867000000000001,-61.14382238016689
-0.1877000000000002,-61.55408865712774
-0.1887000000000001,-61.83703091710075
-0.1897000000000002,-61.9926491600859
-0.1907000000000001,-62.30388564605621
-0.1917000000000001,-62.68585769701977
-0.19269999999999998,-62.88391727900089
-0.1937000000000001,-63.01124129598873
-0.19469999999999998,-63.19515376497119
-0.1957000000000001,-63.46394891194555
-0.19669999999999999,-63.902509414903705
-0.1977000000000001,-64.25618723986996
-0.1987,-64.48254104784839
-0.1997000000000001,-64.68060062982947
-0.2007,-65.02013134179708
-0.2017000000000001,-65.37380916676335
-0.2027,-65.61431008774039
-0.2037000000000001,-65.79822255672285
-0.2047,-66.05287059069857
-0.2057000000000001,-66.44898975466076
-0.2067,-66.87340314462028
-0.2077000000000001,-67.19878674358924
-0.2087,-67.42514055156765
-0.2097000000000001,-67.62320013354876
-0.2107,-67.9202895065204
-0.2117000000000001,-68.35885000947859
-0.2127,-68.68423360844753
-0.2137000000000001,-68.9813229814192
-0.2147,-69.27841235439085
-0.2157000000000001,-69.6886786313517
-0.2167,-70.21212181230177
-0.21770000000000012,-70.55165252426939
-0.2187,-70.79215344524643
-0.21970000000000012,-71.06094859222078
-0.2207,-71.41462641718705
-0.22170000000000012,-71.76830424215332
-0.2227,-72.12198206711957
-0.22370000000000012,-72.46151277908717
-0.2247,-72.77274926505748
-0.22570000000000012,-73.197162655017
-0.2267,-73.60742893197786
-0.22770000000000012,-74.03184232193736
-0.22870000000000001,-74.45625571189689
-0.22970000000000013,-74.7109037458726
-0.23070000000000002,-75.13531713583208
-0.23170000000000013,-75.82852567276596
-0.23270000000000002,-75.99829102874978
-0.23370000000000013,-76.15390927173492
-0.23470000000000002,-76.33782174071737
-0.23570000000000013,-76.71979379168094
-0.23670000000000002,-77.34226676362155
-0.2376999999999999,-77.95059262256353
-0.23870000000000002,-78.37500601252303
-0.2396999999999999,-78.82771362847984
-0.24070000000000003,-79.2945683574353
-0.24169999999999991,-79.64824618240156
-0.24270000000000003,-80.01607112036648
-0.24369999999999992,-80.32730760633679
-0.24470000000000003,-80.73757388329766
-0.24569999999999992,-81.33175262924095
-0.24670000000000003,-81.92593137518428
-0.24769999999999992,-82.43522744313569
-0.24870000000000003,-82.81719949409924
-0.24969999999999992,-83.1991715450628
-0.25070000000000003,-83.60943782202366
-0.2516999999999999,-84.11873388997508
-0.25270000000000004,-84.55729439293323
-0.2536999999999999,-84.99585489589141
-0.25470000000000004,-85.47685673784551
-0.2556999999999999,-86.07103548378883
-0.25670000000000004,-86.72180268172674
-0.25769999999999993,-87.23109874967815
-0.25870000000000004,-87.58477657464444
-0.25969999999999993,-87.92430728661203
-0.26070000000000004,-88.32042645057423
-0.26169999999999993,-88.9004580835189
-0.26270000000000004,-89.60781373345144
-0.26369999999999993,-90.03222712341093
-0.26470000000000005,-90.62640586935424
-0.26569999999999994,-91.30546729328947
-0.26670000000000005,-91.88549892623412
-0.26769999999999994,-92.578707463168
-0.26870000000000005,-93.04556219212347
-0.26969999999999994,-93.32850445209648
-0.27070000000000005,-93.80950629405058
-0.27169999999999994,-94.4036850399939
-0.27270000000000005,-95.01201089893587
-0.27369999999999994,-95.47886562789132
-0.27470000000000006,-96.01645592184003
-0.27569999999999995,-96.624781780782
-0.27670000000000006,-97.28969609171857
-0.27769999999999995,-98.13852287163759
-0.27870000000000006,-98.69026027858496
-0.27969999999999995,-98.98734965155661
-0.28070000000000006,-100.00594178745945
-0.28169999999999995,-100.5293849684095
-0.28270000000000006,-100.75573877638791
-0.28369999999999995,-101.06697526235823
-0.28470000000000006,-101.92994915527588
-0.28569999999999995,-102.83536438718951
-0.28670000000000007,-103.585161376118
-0.28769999999999996,-104.02372187907615
-0.28870000000000007,-104.56131217302486
-0.28969999999999996,-105.08475535397493
-0.29070000000000007,-105.73552255191284
-0.29169999999999996,-106.54190799283592
-0.29270000000000007,-107.15023385177788
-0.29369999999999996,-107.31999920776168
-0.2947000000000001,-107.8575895017104
-0.29569999999999996,-108.0556490836915
-0.2967000000000001,-108.90447586361051
-0.29769999999999996,-109.8523324345201
-0.2987000000000001,-110.4465111804634
-0.29969999999999997,-111.13971971739728
-0.3007000000000001,-111.77633980233655
-0.30169999999999997,-112.48369545226906
-0.3027000000000001,-113.17690398920294
-0.30369999999999997,-113.64375871815841
-0.3047000000000001,-114.13890767311116
-0.30569999999999997,-114.83211621004502
-0.3067000000000001,-115.56776608597484
-0.3077,-116.26097462290872
-0.3087000000000001,-116.91174182084664
-0.3097,-117.4917734537913
-0.3107000000000001,-118.2557175557184
-0.3117,-118.9772203186496
-0.3127000000000001,-119.82604709856861
-0.3137,-120.47681429650652
-0.3147000000000001,-121.0568459294512
-0.3157,-121.82079003137831
-0.3167000000000001,-122.78279371528653
-0.3177,-123.58917915620961
-0.3187000000000001,-123.9852983201718
-0.3197,-124.45215304912726
-0.3207000000000001,-125.00389045607463
-0.3217,-125.73954033200447
-0.3227000000000001,-126.50348443393159
-0.3237,-127.04107472788029
-0.3247000000000001,-127.63525347382362
-0.3257,-128.39919757575075
-0.3267000000000001,-129.2904656946657
-0.3277,-129.8280559886144
-0.3287000000000001,-130.40808762155908
-0.3297,-130.9173836895105
-0.3307000000000001,-131.624739339443
-0.3317,-132.36038921537283
-0.3327000000000001,-132.92627373531886
-0.3337,-133.5911880462554
-0.3347000000000001,-134.41172060017715
-0.3357,-135.06248779811506
-0.3367000000000001,-135.78399056104624
-0.3377,-136.49134621097875
-0.3387000000000001,-137.04308361792607
-0.3397,-137.59482102487348
-0.3407000000000001,-138.20314688381544
-0.3417,-138.91050253374794
-0.3427000000000001,-139.61785818368048
-0.3437,-140.325213833613
-0.3447000000000001,-141.07501082254146
-0.3457,-142.03701450644968
-0.3467000000000001,-142.6028990263957
-0.3477,-142.8858412863687
-0.3487000000000001,-143.0273124163552
-0.3497,-143.0273124163552
-0.3507000000000001,-143.0273124163552
-0.3517,-143.0273124163552
-0.3527000000000001,-143.0273124163552
-0.3537,-143.0273124163552
-0.3547000000000001,-143.0273124163552
-0.3557,-143.0273124163552
-0.35670000000000013,-143.0273124163552
-0.3577,-143.0273124163552
-0.35870000000000013,-143.0273124163552
-0.3597,-143.0273124163552
-0.36070000000000013,-143.0273124163552
-0.3617,-143.0273124163552
-0.3626999999999999,-143.0273124163552
-0.3637,-143.0273124163552
-0.3646999999999999,-143.0273124163552
-0.3657,-143.0273124163552
-0.3666999999999999,-143.0273124163552
-0.3677,-143.0273124163552
-0.3686999999999999,-143.0273124163552
-0.36970000000000003,-143.0273124163552
-0.3706999999999999,-143.0273124163552
-0.37170000000000003,-143.0273124163552
-0.3726999999999999,-143.0273124163552
-0.37370000000000003,-143.0273124163552
-0.3746999999999999,-143.0273124163552
-0.37570000000000003,-143.0273124163552
-0.3766999999999999,-143.0273124163552
-0.37770000000000004,-143.0273124163552
-0.3786999999999999,-143.0273124163552
-0.37970000000000004,-143.0273124163552
-0.3806999999999999,-143.0273124163552
-0.38170000000000004,-143.0273124163552
-0.38269999999999993,-143.0273124163552
-0.38370000000000004,-143.0273124163552
-0.38469999999999993,-143.0273124163552
-0.38570000000000004,-143.0273124163552
-0.38669999999999993,-143.0273124163552
-0.38570000000000004,-143.0273124163552
-0.38469999999999993,-143.0273124163552
-0.38370000000000004,-143.0273124163552
-0.38269999999999993,-143.0273124163552
-0.38170000000000004,-143.0273124163552
-0.3806999999999999,-143.0273124163552
-0.37970000000000004,-143.0273124163552
-0.3786999999999999,-143.0273124163552
-0.37770000000000004,-143.0273124163552
-0.3766999999999999,-142.4614278964092
-0.37570000000000003,-140.62230320658463
-0.3746999999999999,-138.45779491779115
-0.37370000000000003,-136.08107993401788
-0.3726999999999999,-133.74680628924057
-0.37170000000000003,-131.6530335654403
-0.3706999999999999,-130.08270402259012
-0.36970000000000003,-127.90404862079797
-0.3686999999999999,-125.92345280098691
-0.3677,-123.6740618342015
-0.3666999999999999,-121.69346601439047
-0.3657,-119.84019421156725
-0.3646999999999999,-117.81715705276027
-0.3637,-115.76582566795594
-0.3626999999999999,-113.82767118714084
-0.3617,-112.07342917530822
-0.36070000000000013,-110.3050400504769
-0.3597,-108.50835669964832
-0.35870000000000013,-106.61264355782916
-0.3577,-104.91498999799111
-0.35670000000000013,-103.28807200314633
-0.3557,-101.60456555630694
-0.3547000000000001,-99.77958797948104
-0.3537,-97.96875751565379
-0.3527000000000001,-96.29939818181305
-0.3517,-94.70077441296557
-0.3507000000000001,-93.08800353111941
-0.3497,-91.43279131027732
-0.3487000000000001,-89.77757908943524
-0.3477,-88.17895532058775
-0.3467000000000001,-86.7359497947254
-0.3457,-85.33538560785901
-0.3447000000000001,-83.58114359602637
-0.3437,-82.01081405317618
-0.3427000000000001,-80.49707296232059
-0.3417,-79.0965087754542
-0.3407000000000001,-77.83741571857432
-0.3397,-76.57832266169444
-0.3387000000000001,-75.1070229098348
-0.3377,-73.6498702709738
-0.3367000000000001,-72.26345319710607
-0.3357,-70.90533034923564
-0.3347000000000001,-69.3774421453814
-0.3337,-67.90614239352176
-0.3327000000000001,-66.57631377164863
-0.3317,-65.37380916676335
-0.3307000000000001,-64.22789301387266
-0.3297,-63.251742216965795
-0.3287000000000001,-61.794589578104805
-0.3277,-60.45061384323302
-0.3267000000000001,-59.07834388236393
-0.3257,-57.96072195547055
-0.3247000000000001,-56.71577601158933
-0.3237,-55.17374069473642
-0.3227000000000001,-53.971236089851146
-0.3217,-52.966791066946975
-0.3207000000000001,-51.8774633660509
-0.3197,-50.77398855215617
-0.3187000000000001,-49.514895495276285
-0.3177,-48.2558024383964
-0.3167000000000001,-47.15232762450167
-0.3157,-46.062999923605595
-0.3147000000000001,-44.88878954471762
-0.3137,-43.643843600836384
-0.3127000000000001,-42.540368786941656
-0.3117,-41.56421799003478
-0.3107000000000001,-40.545625854131956
-0.3097,-39.45629815323587
-0.3087000000000001,-38.29623488734655
-0.3077,-37.26349563844507
-0.3067000000000001,-36.30149195453684
-0.30569999999999997,-35.32534115762997
-0.3047000000000001,-34.221866343735236
-0.30369999999999997,-33.13253864283916
-0.3027000000000001,-32.07150516794038
-0.30169999999999997,-31.151942823028104
-0.3007000000000001,-30.260674704113132
-0.29969999999999997,-29.242082568210304
-0.2987000000000001,-28.166901980312883
-0.29769999999999996,-27.162456957408708
-0.2967000000000001,-26.29948306449103
-0.29569999999999996,-25.43650917157336
-0.2947000000000001,-24.488652600663784
-0.29369999999999996,-23.45591335176231
-0.29270000000000007,-22.46561544185678
-0.29169999999999996,-21.63093577493641
-0.29070000000000007,-20.78210899501739
-0.28969999999999996,-19.848399537106463
-0.28870000000000007,-18.872248740199588
-0.28769999999999996,-17.966833508285966
-0.28670000000000007,-17.174595180361546
-0.28569999999999995,-16.424798191433077
-0.28470000000000006,-15.561824298515406
-0.28369999999999995,-14.599820614607177
-0.28270000000000006,-13.73543201038964
-0.28169999999999995,-12.987049732761037
-0.28070000000000006,-12.235838032532703
-0.27969999999999995,-11.428037880309766
-0.27870000000000006,-10.541013895294387
-0.27769999999999995,-9.7190666300728
-0.27670000000000006,-9.017369825339744
-0.27569999999999995,-8.341137824004257
-0.27470000000000006,-7.588511412476056
-0.27369999999999994,-6.736855209957304
-0.27270000000000005,-5.933299191633965
-0.27169999999999994,-5.2655554580976665
-0.27070000000000005,-4.600641147161099
-0.26969999999999994,-3.85084415823263
-0.26870000000000005,-3.0189939139119883
-0.26769999999999994,-2.249390966785408
-0.26670000000000005,-1.5929649236480312
-0.26569999999999994,-0.9716237207473072
