Potential V vs RHE, Current mA cm-2
0.4132999999999999,0.003935726836224532
0.4122999999999999,0.0003045873428609424
0.4112999999999999,-0.0009781313927266862
0.4102999999999999,-0.0017839509491298113
0.4092999999999999,-0.0025790186996539617
0.4082999999999999,-0.0033302303998822965
0.4072999999999999,-0.004102662769608606
0.4062999999999999,-0.004668547289554621
0.4052999999999999,-0.005169355089706844
0.4042999999999999,-0.005576791944067974
0.4032999999999999,-0.00596583755153086
0.4022999999999999,-0.006393080364090101
0.4012999999999999,-0.006734025787357574
0.4002999999999999,-0.007046676984627748
0.3992999999999999,-0.007414501922592657
0.3982999999999999,-0.007779497437957837
0.3972999999999999,-0.008076586810929494
0.3962999999999999,-0.008351040803103312
0.3952999999999999,-0.008502414912188871
0.3942999999999999,-0.008714621607168627
0.39329999999999987,-0.008965025507244737
0.39229999999999987,-0.009208355850821524
0.39129999999999987,-0.00941207427800209
0.39029999999999987,-0.009552130696688728
0.38929999999999987,-0.009726140186572127
0.38829999999999987,-0.009922785057253367
0.38729999999999987,-0.010079818011538386
0.38629999999999987,-0.010231192120623945
0.38529999999999986,-0.010324563066415037
0.38429999999999986,-0.010453301794702757
0.38329999999999986,-0.010638628974985076
0.38229999999999986,-0.010812638464868476
0.38129999999999986,-0.010932888925357003
0.38029999999999986,-0.011034748138947286
0.37929999999999986,-0.011105483703940539
0.37829999999999986,-0.011246954833927042
0.37729999999999986,-0.011402573076912195
0.37629999999999986,-0.011467649796705988
0.37529999999999986,-0.011524238248700589
0.37429999999999986,-0.011638829863989656
0.37329999999999985,-0.01177181272617697
0.37229999999999985,-0.01192884568046199
0.37129999999999985,-0.0119769458646574
0.37029999999999985,-0.012044852007050922
0.36929999999999985,-0.012132564107642555
0.36829999999999985,-0.012225935053433647
0.36729999999999985,-0.012380138585118937
0.36629999999999985,-0.012436727037113538
0.36529999999999985,-0.012486241932608813
0.36429999999999985,-0.01257536874450031
0.36329999999999985,-0.012660251422492214
0.36229999999999984,-0.012786160728180201
0.36129999999999984,-0.012855481581873588
0.36029999999999984,-0.012912070033868189
0.35929999999999984,-0.013018173381358068
0.35829999999999984,-0.01309456779155078
0.35729999999999984,-0.013227550653738094
0.35629999999999984,-0.013298286218731345
0.35529999999999984,-0.013337898135127564
0.35429999999999984,-0.013418536679219873
0.35329999999999984,-0.013548690118807456
0.35229999999999984,-0.01364206106459855
0.35129999999999983,-0.01372411431999072
0.35029999999999983,-0.013766555658986672
0.34929999999999983,-0.013818899977081677
0.34829999999999983,-0.013985835910465752
0.34729999999999983,-0.014101842237054685
0.34629999999999983,-0.014175407224647668
0.34529999999999983,-0.014189554337646317
0.34429999999999983,-0.01424614278964092
0.3432999999999998,-0.014373466806628774
0.3422999999999998,-0.014500790823616624
0.3412999999999998,-0.014557379275611227
0.3402999999999998,-0.014628114840604478
0.3392999999999998,-0.014684703292599082
0.3382999999999998,-0.014812027309586936
0.3372999999999998,-0.014939351326574786
0.3362999999999998,-0.014981792665570736
0.3352999999999998,-0.015080822456561293
0.3342999999999998,-0.015137410908555892
0.3332999999999998,-0.015250587812545097
0.3322999999999998,-0.015406206055530251
0.3312999999999998,-0.01546279450752485
0.3302999999999998,-0.015491088733522153
0.3292999999999998,-0.015561824298515404
0.3282999999999998,-0.015618412750510005
0.3272999999999998,-0.01578817810649381
0.3262999999999998,-0.01584476655848841
0.3252999999999999,-0.01588720789748436
0.3242999999999999,-0.015929649236480315
0.3232999999999999,-0.016014531914472215
0.3222999999999999,-0.01615600304445872
0.3212999999999999,-0.016269179948447923
0.3202999999999999,-0.016212591496453318
0.3192999999999999,-0.016311621287443873
0.3182999999999999,-0.016410651078434424
0.3172999999999999,-0.016552122208420932
0.3162999999999999,-0.016679446225408782
0.3152999999999999,-0.016721887564404736
0.3142999999999999,-0.016792623129397985
0.3132999999999999,-0.016863358694391237
0.3122999999999999,-0.017004829824377742
0.3112999999999999,-0.017089712502369642
0.3102999999999999,-0.017132153841365592
0.3092999999999999,-0.017202889406358845
0.3082999999999999,-0.01731606631034805
0.3072999999999999,-0.017372654762342652
0.3062999999999999,-0.017429243214337253
0.3052999999999999,-0.017514125892329157
0.3042999999999999,-0.017556567231325104
0.3032999999999999,-0.017641449909317007
0.3022999999999999,-0.01772633258730891
0.3012999999999999,-0.01781121526530081
0.3002999999999999,-0.017881950830294063
0.2992999999999999,-0.017924392169290013
0.2982999999999999,-0.018023421960280565
0.2972999999999999,-0.018108304638272472
0.2962999999999999,-0.01813659886426977
0.2952999999999999,-0.01817904020326572
0.2942999999999999,-0.018193187316264375
0.2932999999999999,-0.018278069994256275
0.2922999999999999,-0.018377099785246823
0.2912999999999999,-0.018461982463238727
0.2902999999999999,-0.01851857091523333
0.2892999999999999,-0.018575159367227933
0.2882999999999999,-0.018617600706223883
0.2872999999999999,-0.018730777610213082
0.2862999999999999,-0.018744924723211737
0.2852999999999999,-0.018744924723211737
0.2842999999999999,-0.01882980740120364
0.2832999999999999,-0.01891469007919554
0.2822999999999999,-0.019056161209182042
0.2812999999999999,-0.01928251501716045
0.2802999999999999,-0.019395691921149656
0.2792999999999999,-0.019395691921149656
0.2782999999999999,-0.0192683679041618
0.2772999999999999,-0.01928251501716045
0.2762999999999999,-0.019310809243157753
0.2752999999999999,-0.01928251501716045
0.2742999999999999,-0.019381544808151
0.2732999999999999,-0.019480574599141553
0.2722999999999999,-0.019551310164134805
0.2712999999999999,-0.019622045729128058
0.2702999999999999,-0.019579604390132108
0.2692999999999999,-0.019607898616129407
0.26829999999999987,-0.01965033995512536
0.26729999999999987,-0.01970692840711996
0.26629999999999987,-0.01973522263311726
0.26529999999999987,-0.01973522263311726
0.26429999999999987,-0.01973522263311726
0.26329999999999987,-0.019791811085111865
0.26229999999999987,-0.019848399537106463
0.26129999999999987,-0.019848399537106463
0.26029999999999986,-0.019919135102099715
0.25929999999999986,-0.019933282215098366
0.25829999999999986,-0.02007475334508487
0.25729999999999986,-0.02015963602307677
0.25629999999999986,-0.020131341797079472
0.25529999999999986,-0.020103047571082173
0.25429999999999986,-0.020131341797079472
0.25329999999999986,-0.020173783136075422
0.25229999999999986,-0.020258665814067326
0.25129999999999986,-0.020286960040064625
0.25029999999999986,-0.02032940137906058
0.24929999999999986,-0.020357695605057877
0.24829999999999985,-0.020371842718056525
0.24729999999999985,-0.02042843117005113
0.24629999999999985,-0.020442578283049778
0.24529999999999985,-0.020513313848043033
0.24429999999999985,-0.020541608074040336
0.24329999999999985,-0.020598196526034934
0.24229999999999985,-0.020951874351001196
0.24129999999999985,-0.021036757028993096
0.24029999999999985,-0.020895285899006594
0.23929999999999985,-0.020838697447011986
0.23829999999999985,-0.020838697447011986
0.23729999999999984,-0.020824550334013342
0.23629999999999984,-0.02086699167300929
0.23529999999999984,-0.020810403221014687
0.23429999999999984,-0.02086699167300929
0.23329999999999984,-0.020923580125003893
0.23229999999999984,-0.020923580125003893
0.23129999999999984,-0.020923580125003893
0.23029999999999984,-0.02086699167300929
0.22929999999999984,-0.020923580125003893
0.22829999999999984,-0.021022609915994445
0.22729999999999984,-0.021121639706984996
0.22629999999999983,-0.0212631108369715
0.22529999999999983,-0.02124896372397285
0.22429999999999983,-0.02122066949797555
0.22329999999999983,-0.02124896372397285
0.22229999999999983,-0.021319699288966102
0.22129999999999983,-0.021305552175967454
0.22029999999999983,-0.021319699288966102
0.21929999999999983,-0.021319699288966102
0.21829999999999983,-0.021404581966958002
0.21729999999999983,-0.021489464644949906
0.21629999999999983,-0.021475317531951258
0.21529999999999982,-0.021432876192955305
0.21429999999999982,-0.021475317531951258
0.21329999999999982,-0.02158849443594046
0.21229999999999982,-0.02167337711393236
0.21129999999999982,-0.021800701130920214
0.21029999999999982,-0.021871436695913467
0.20929999999999982,-0.02198461359990267
0.20829999999999982,-0.02194217226090672
0.20729999999999982,-0.021885583808912118
0.20629999999999982,-0.021814848243918866
0.20529999999999982,-0.02198461359990267
0.20429999999999982,-0.02208364339089322
0.20329999999999981,-0.02205534916489592
0.2022999999999998,-0.02208364339089322
0.2012999999999998,-0.022140231842887825
0.20029999999999992,-0.022210967407881078
0.19929999999999992,-0.022366585650866227
0.19829999999999992,-0.02235243853786758
0.19729999999999992,-0.022338291424868928
0.19629999999999992,-0.02240902698986218
0.19529999999999992,-0.022366585650866227
0.19429999999999992,-0.022479762554855433
0.19329999999999992,-0.022508056780852735
0.19229999999999992,-0.02245146832885813
0.19129999999999991,-0.022508056780852735
0.1902999999999999,-0.022479762554855433
0.1892999999999999,-0.022437321215859483
0.1882999999999999,-0.022493909667854084
0.1872999999999999,-0.02240902698986218
0.1862999999999999,-0.02238073276386488
0.1852999999999999,-0.022366585650866227
0.1842999999999999,-0.022338291424868928
0.1832999999999999,-0.02242317410286083
0.1822999999999999,-0.022522203893851383
0.1812999999999999,-0.022621233684841938
0.1802999999999999,-0.022663675023837888
0.1792999999999999,-0.022663675023837888
0.1782999999999999,-0.02276270481482844
0.1772999999999999,-0.022819293266823044
0.1762999999999999,-0.02280514615382439
0.1752999999999999,-0.02279099904082574
0.1742999999999999,-0.02280514615382439
0.1732999999999999,-0.022819293266823044
0.1722999999999999,-0.022932470170812246
0.1712999999999999,-0.022989058622806844
0.1702999999999999,-0.023031499961802798
0.1692999999999999,-0.023017352848804146
0.1682999999999999,-0.023073941300798748
0.1672999999999999,-0.023158823978790648
0.1662999999999999,-0.0232012653177866
0.1652999999999999,-0.02313052975279335
0.1642999999999999,-0.02313052975279335
0.1632999999999999,-0.023158823978790648
0.1622999999999999,-0.023286147995778505
0.1612999999999999,-0.023441766238763657
0.1602999999999999,-0.023583237368750162
0.1592999999999999,-0.023625678707746112
0.15829999999999989,-0.023625678707746112
0.15729999999999988,-0.023668120046742062
0.15629999999999988,-0.02378129695073127
0.15529999999999988,-0.02392276808071777
0.15429999999999988,-0.024884771764625994
0.15329999999999988,-0.025860922561532867
0.15229999999999988,-0.025280890928588207
0.15129999999999988,-0.02474330063463949
0.15029999999999988,-0.024149121888696175
0.14929999999999988,-0.02397935653271237
0.14829999999999988,-0.024064239210704275
0.14729999999999988,-0.024035944984706972
0.14629999999999987,-0.024021797871708325
0.14529999999999987,-0.02395106230671507
0.14429999999999987,-0.02395106230671507
0.14329999999999987,-0.024050092097705623
0.14229999999999987,-0.02420571034069078
0.14129999999999987,-0.02424815167968673
0.14029999999999987,-0.02436132858367593
0.13929999999999987,-0.024488652600663786
0.13829999999999987,-0.02457353527865569
0.13729999999999987,-0.02461597661765164
0.13629999999999987,-0.024545241052658383
0.13529999999999986,-0.024587682391654337
0.13429999999999986,-0.024587682391654337
0.13329999999999986,-0.024644270843648942
0.13229999999999986,-0.02475744774763814
0.13129999999999986,-0.024729153521640842
0.13029999999999986,-0.02474330063463949
0.12929999999999986,-0.024870624651627343
0.12829999999999986,-0.0249413602166206
0.12729999999999986,-0.025040390007611147
0.12629999999999986,-0.0250545371206098
0.12529999999999986,-0.025040390007611147
0.12429999999999986,-0.025040390007611147
0.12329999999999985,-0.0250545371206098
0.12229999999999985,-0.025196008250596303
0.12129999999999985,-0.025266743815589552
0.12029999999999985,-0.025210155363594954
0.11929999999999985,-0.025224302476593602
0.11829999999999985,-0.025323332267584157
0.11729999999999985,-0.02539406783257741
0.11629999999999985,-0.025577980301559864
0.11529999999999985,-0.025521391849565263
0.11429999999999985,-0.025521391849565263
0.11329999999999985,-0.025563833188561213
0.11229999999999984,-0.025606274527557166
0.11129999999999984,-0.025648715866553113
0.11029999999999984,-0.025606274527557166
0.10929999999999984,-0.025606274527557166
0.10829999999999984,-0.025677010092550415
0.10729999999999984,-0.025719451431546365
0.10629999999999984,-0.02576189277054232
0.10529999999999984,-0.025790186996539618
0.10429999999999984,-0.025818481222536924
0.10329999999999984,-0.025889216787530173
0.10229999999999984,-0.025974099465522073
0.10129999999999983,-0.026073129256512624
0.10029999999999983,-0.026087276369511275
0.09929999999999983,-0.026030687917516674
0.09829999999999983,-0.026101423482509926
0.09729999999999983,-0.026158011934504528
0.09629999999999983,-0.026172159047503182
0.09529999999999983,-0.02614386482150588
0.09429999999999983,-0.026115570595508578
0.09329999999999983,-0.02612971770850723
0.09229999999999983,-0.02612971770850723
0.09129999999999983,-0.026087276369511275
0.09029999999999982,-0.026087276369511275
0.08929999999999982,-0.02614386482150588
0.08829999999999982,-0.02612971770850723
0.08729999999999982,-0.026158011934504528
0.08629999999999982,-0.026172159047503182
0.08529999999999982,-0.026172159047503182
0.08429999999999982,-0.026257041725495082
0.08329999999999982,-0.02629948306449103
0.08229999999999982,-0.026412659968480235
0.08129999999999982,-0.026398512855481584
0.08029999999999982,-0.026370218629484285
0.07929999999999982,-0.026412659968480235
0.07829999999999981,-0.02645510130747619
0.07729999999999981,-0.02656827821146539
0.07629999999999981,-0.02656827821146539
0.07529999999999992,-0.026483395533473487
0.07429999999999992,-0.02655413109846674
0.07329999999999992,-0.02659657243746269
0.07229999999999992,-0.02662486666345999
0.07129999999999992,-0.02661071955046134
0.07029999999999992,-0.02661071955046134
0.06929999999999992,-0.026667308002455942
0.06829999999999992,-0.02673804356744919
0.06729999999999992,-0.026808779132442447
0.06629999999999991,-0.026907808923433
0.06529999999999991,-0.026865367584437045
0.06429999999999991,-0.026865367584437045
0.06329999999999991,-0.02692195603643165
0.06229999999999991,-0.026978544488426247
0.06129999999999991,-0.02695025026242895
0.06029999999999991,-0.02695025026242895
0.05929999999999991,-0.026978544488426247
0.05829999999999991,-0.0270775742794168
0.05729999999999991,-0.027134162731411407
0.056299999999999906,-0.027105868505414105
0.055299999999999905,-0.027134162731411407
0.054299999999999904,-0.027063427166418155
0.0532999999999999,-0.027120015618412752
0.0522999999999999,-0.027289780974396556
0.0512999999999999,-0.02723319252240196
0.0502999999999999,-0.02727563386139791
0.0492999999999999,-0.027332222313392506
0.0482999999999999,-0.02730392808739521
0.0472999999999999,-0.027459546330380363
0.0462999999999999,-0.027473693443379014
0.045299999999999896,-0.027544429008372267
0.044299999999999895,-0.027572723234369562
0.043299999999999894,-0.027530281895373616
0.04229999999999989,-0.027572723234369562
0.04129999999999989,-0.027601017460366868
0.04029999999999989,-0.02762931168636417
0.03929999999999989,-0.02770004725135742
0.03829999999999989,-0.027770782816350672
0.03729999999999989,-0.027869812607341227
0.03629999999999989,-0.027926401059335824
0.03529999999999989,-0.027912253946337173
0.034299999999999886,-0.027926401059335824
0.033299999999999885,-0.02802543085032638
0.032299999999999884,-0.02809616641531963
0.031299999999999883,-0.02806787218932233
0.030299999999999883,-0.027997136624329073
0.02929999999999988,-0.027982989511330426
0.02829999999999988,-0.02809616641531963
0.02729999999999988,-0.02819519620631018
0.02629999999999988,-0.028251784658304784
0.025299999999999878,-0.028251784658304784
0.024299999999999877,-0.028237637545306133
0.023299999999999876,-0.028280078884302083
0.022299999999999875,-0.028407402901289937
0.021299999999999875,-0.028449844240285887
0.020299999999999874,-0.028449844240285887
0.019299999999999873,-0.02847813846628319
0.018299999999999872,-0.028534726918277787
0.01729999999999987,-0.028647903822266993
0.01629999999999987,-0.028676198048264292
0.01529999999999987,-0.028718639387260245
0.014299999999999868,-0.028761080726256192
0.013299999999999867,-0.028775227839254847
0.012299999999999978,-0.028831816291249444
0.011299999999999866,-0.028874257630245398
0.010299999999999976,-0.028874257630245398
0.009299999999999864,-0.02893084608224
0.008299999999999974,-0.028973287421235953
0.007299999999999862,-0.029058170099227856
0.006299999999999972,-0.02912890566422111
0.00529999999999986,-0.029086464325225152
0.0042999999999999705,-0.0290723172122265
0.0032999999999998586,-0.029086464325225152
0.0022999999999999687,-0.02921378834221301
0.0012999999999998568,-0.02922793545521166
0.00029999999999996696,-0.029199641229214358
-0.000700000000000145,-0.029284523907206258
-0.0017000000000000348,-0.029369406585198165
-0.0027000000000001467,-0.02946843637618871
-0.0037000000000000366,-0.02953917194118197
-0.0047000000000001485,-0.029525024828183317
-0.005700000000000038,-0.029525024828183317
-0.00670000000000015,-0.029567466167179264
-0.00770000000000004,-0.02966649595816982
-0.008700000000000152,-0.02979381997515767
-0.009700000000000042,-0.030232380478115835
-0.010700000000000154,-0.03033141026910639
-0.011700000000000044,-0.030642646755076695
-0.012700000000000156,-0.030529469851087492
-0.013700000000000045,-0.030501175625090193
-0.014700000000000157,-0.030501175625090193
-0.015700000000000047,-0.030416292947098293
-0.01670000000000016,-0.03051532273808884
-0.01770000000000005,-0.0307275294330686
-0.01870000000000016,-0.030883147676053754
-0.01970000000000005,-0.03103876591903891
-0.020700000000000163,-0.031151942823028106
-0.021700000000000053,-0.03103876591903891
-0.022700000000000164,-0.0309255890150497
-0.023700000000000054,-0.030982177467044306
-0.024700000000000166,-0.0309255890150497
-0.025700000000000056,-0.03136414951800787
-0.026700000000000168,-0.031731974455972776
-0.027700000000000058,-0.031972475376949826
-0.02870000000000017,-0.031972475376949826
-0.02970000000000006,-0.031873445585959274
-0.03070000000000017,-0.03190173981195658
-0.03170000000000006,-0.03204321094194308
-0.03270000000000017,-0.03137829663100652
-0.03370000000000006,-0.03167538600397817
-0.034700000000000175,-0.03191588692495523
-0.035700000000000065,-0.03211394650693633
-0.03670000000000018,-0.03193003403795388
-0.03770000000000007,-0.03183100424696332
-0.03870000000000018,-0.031802710020966025
-0.03970000000000007,-0.03193003403795388
-0.04070000000000018,-0.03236859454091204
-0.04170000000000007,-0.03249591855789989
-0.04270000000000018,-0.03212809361993498
-0.04370000000000007,-0.03198662248994848
-0.044700000000000184,-0.03194418115095252
-0.045700000000000074,-0.03193003403795388
-0.046700000000000186,-0.03194418115095252
-0.047700000000000076,-0.03194418115095252
-0.04870000000000019,-0.03204321094194308
-0.04970000000000008,-0.03212809361993498
-0.05070000000000019,-0.032057358054941726
-0.05170000000000008,-0.03211394650693633
-0.05270000000000019,-0.03219882918492823
-0.05370000000000008,-0.03221297629792688
-0.05470000000000019,-0.032326153201916084
-0.05570000000000008,-0.03248177144490124
-0.056700000000000195,-0.032538359896895845
-0.057700000000000085,-0.0326656839138837
-0.058700000000000196,-0.03259494834889044
-0.059700000000000086,-0.03258080123589179
-0.0607000000000002,-0.03258080123589179
-0.06170000000000009,-0.032708125252879645
-0.0627000000000002,-0.03279300793087155
-0.06370000000000009,-0.0327788608178729
-0.0647000000000002,-0.0327505665918756
