July 16, 2024   07:53:29
Linear Sweep Voltammetry
File: c:/users/guazh/data/20240709_batch67/2024-07-10-exp59\1acid_3ac-2024-07-16t07_50_15-lsvinphos\1acid_3ac_lsv_50mvs_efin_-2300mv.bin
Data Source:  Experiment
Instrument Model:  CHI760E
Header: LSV ran at 50 mVs with Efin at -2300mV
Note: 

Init E (V) = -0.6
Final E (V) = -2.3
Scan Rate (V/s) = 0.05
Sample Interval (V) = 0.001
Quiet Time (sec) = 2
Sensitivity (A/V) = 1e-4
Comp R (ohm) = 10.5

Results:

Channel 1:
Ep = -2.010V
ip = 6.611e-4A
Ah = 8.955e-4C

Potential/V, Current/A

-0.600, 2.688e-6
-0.601, 2.760e-6
-0.602, 2.799e-6
-0.603, 2.830e-6
-0.604, 2.861e-6
-0.605, 2.889e-6
-0.606, 2.914e-6
-0.607, 2.940e-6
-0.608, 2.966e-6
-0.609, 2.994e-6
-0.610, 3.021e-6
-0.611, 3.046e-6
-0.612, 3.071e-6
-0.613, 3.096e-6
-0.614, 3.127e-6
-0.615, 3.155e-6
-0.616, 3.180e-6
-0.617, 3.205e-6
-0.618, 3.231e-6
-0.619, 3.259e-6
-0.620, 3.285e-6
-0.621, 3.312e-6
-0.622, 3.338e-6
-0.623, 3.365e-6
-0.624, 3.396e-6
-0.625, 3.426e-6
-0.626, 3.451e-6
-0.627, 3.479e-6
-0.628, 3.507e-6
-0.629, 3.536e-6
-0.630, 3.566e-6
-0.631, 3.594e-6
-0.632, 3.622e-6
-0.633, 3.652e-6
-0.634, 3.683e-6
-0.635, 3.714e-6
-0.636, 3.742e-6
-0.637, 3.772e-6
-0.638, 3.802e-6
-0.639, 3.835e-6
-0.640, 3.868e-6
-0.641, 3.898e-6
-0.642, 3.926e-6
-0.643, 3.958e-6
-0.644, 3.991e-6
-0.645, 4.025e-6
-0.646, 4.055e-6
-0.647, 4.085e-6
-0.648, 4.117e-6
-0.649, 4.152e-6
-0.650, 4.184e-6
-0.651, 4.214e-6
-0.652, 4.246e-6
-0.653, 4.278e-6
-0.654, 4.315e-6
-0.655, 4.350e-6
-0.656, 4.381e-6
-0.657, 4.415e-6
-0.658, 4.449e-6
-0.659, 4.486e-6
-0.660, 4.524e-6
-0.661, 4.558e-6
-0.662, 4.592e-6
-0.663, 4.627e-6
-0.664, 4.666e-6
-0.665, 4.703e-6
-0.666, 4.739e-6
-0.667, 4.775e-6
-0.668, 4.811e-6
-0.669, 4.849e-6
-0.670, 4.887e-6
-0.671, 4.921e-6
-0.672, 4.958e-6
-0.673, 4.995e-6
-0.674, 5.035e-6
-0.675, 5.076e-6
-0.676, 5.111e-6
-0.677, 5.147e-6
-0.678, 5.185e-6
-0.679, 5.227e-6
-0.680, 5.267e-6
-0.681, 5.305e-6
-0.682, 5.343e-6
-0.683, 5.381e-6
-0.684, 5.422e-6
-0.685, 5.463e-6
-0.686, 5.502e-6
-0.687, 5.540e-6
-0.688, 5.582e-6
-0.689, 5.624e-6
-0.690, 5.664e-6
-0.691, 5.703e-6
-0.692, 5.743e-6
-0.693, 5.784e-6
-0.694, 5.829e-6
-0.695, 5.870e-6
-0.696, 5.906e-6
-0.697, 5.945e-6
-0.698, 5.985e-6
-0.699, 6.029e-6
-0.700, 6.071e-6
-0.701, 6.112e-6
-0.702, 6.152e-6
-0.703, 6.191e-6
-0.704, 6.234e-6
-0.705, 6.276e-6
-0.706, 6.315e-6
-0.707, 6.357e-6
-0.708, 6.398e-6
-0.709, 6.443e-6
-0.710, 6.486e-6
-0.711, 6.525e-6
-0.712, 6.567e-6
-0.713, 6.610e-6
-0.714, 6.653e-6
-0.715, 6.697e-6
-0.716, 6.737e-6
-0.717, 6.779e-6
-0.718, 6.822e-6
-0.719, 6.865e-6
-0.720, 6.910e-6
-0.721, 6.958e-6
-0.722, 6.998e-6
-0.723, 7.042e-6
-0.724, 7.087e-6
-0.725, 7.131e-6
-0.726, 7.171e-6
-0.727, 7.211e-6
-0.728, 7.250e-6
-0.729, 7.294e-6
-0.730, 7.335e-6
-0.731, 7.375e-6
-0.732, 7.415e-6
-0.733, 7.455e-6
-0.734, 7.499e-6
-0.735, 7.539e-6
-0.736, 7.579e-6
-0.737, 7.620e-6
-0.738, 7.659e-6
-0.739, 7.702e-6
-0.740, 7.743e-6
-0.741, 7.781e-6
-0.742, 7.819e-6
-0.743, 7.859e-6
-0.744, 7.901e-6
-0.745, 7.942e-6
-0.746, 7.979e-6
-0.747, 8.015e-6
-0.748, 8.055e-6
-0.749, 8.096e-6
-0.750, 8.135e-6
-0.751, 8.172e-6
-0.752, 8.212e-6
-0.753, 8.250e-6
-0.754, 8.290e-6
-0.755, 8.329e-6
-0.756, 8.364e-6
-0.757, 8.399e-6
-0.758, 8.436e-6
-0.759, 8.475e-6
-0.760, 8.513e-6
-0.761, 8.547e-6
-0.762, 8.582e-6
-0.763, 8.615e-6
-0.764, 8.651e-6
-0.765, 8.687e-6
-0.766, 8.720e-6
-0.767, 8.752e-6
-0.768, 8.789e-6
-0.769, 8.827e-6
-0.770, 8.858e-6
-0.771, 8.889e-6
-0.772, 8.921e-6
-0.773, 8.952e-6
-0.774, 8.988e-6
-0.775, 9.021e-6
-0.776, 9.052e-6
-0.777, 9.083e-6
-0.778, 9.114e-6
-0.779, 9.147e-6
-0.780, 9.178e-6
-0.781, 9.209e-6
-0.782, 9.238e-6
-0.783, 9.268e-6
-0.784, 9.301e-6
-0.785, 9.331e-6
-0.786, 9.358e-6
-0.787, 9.384e-6
-0.788, 9.412e-6
-0.789, 9.442e-6
-0.790, 9.472e-6
-0.791, 9.498e-6
-0.792, 9.524e-6
-0.793, 9.553e-6
-0.794, 9.583e-6
-0.795, 9.610e-6
-0.796, 9.635e-6
-0.797, 9.659e-6
-0.798, 9.685e-6
-0.799, 9.712e-6
-0.800, 9.740e-6
-0.801, 9.765e-6
-0.802, 9.788e-6
-0.803, 9.813e-6
-0.804, 9.839e-6
-0.805, 9.865e-6
-0.806, 9.887e-6
-0.807, 9.909e-6
-0.808, 9.932e-6
-0.809, 9.958e-6
-0.810, 9.982e-6
-0.811, 1.000e-5
-0.812, 1.002e-5
-0.813, 1.005e-5
-0.814, 1.007e-5
-0.815, 1.009e-5
-0.816, 1.011e-5
-0.817, 1.013e-5
-0.818, 1.015e-5
-0.819, 1.018e-5
-0.820, 1.020e-5
-0.821, 1.022e-5
-0.822, 1.024e-5
-0.823, 1.026e-5
-0.824, 1.028e-5
-0.825, 1.030e-5
-0.826, 1.032e-5
-0.827, 1.034e-5
-0.828, 1.036e-5
-0.829, 1.038e-5
-0.830, 1.040e-5
-0.831, 1.042e-5
-0.832, 1.044e-5
-0.833, 1.046e-5
-0.834, 1.048e-5
-0.835, 1.050e-5
-0.836, 1.051e-5
-0.837, 1.053e-5
-0.838, 1.055e-5
-0.839, 1.057e-5
-0.840, 1.059e-5
-0.841, 1.061e-5
-0.842, 1.063e-5
-0.843, 1.065e-5
-0.844, 1.067e-5
-0.845, 1.069e-5
-0.846, 1.070e-5
-0.847, 1.072e-5
-0.848, 1.074e-5
-0.849, 1.076e-5
-0.850, 1.078e-5
-0.851, 1.079e-5
-0.852, 1.081e-5
-0.853, 1.083e-5
-0.854, 1.085e-5
-0.855, 1.087e-5
-0.856, 1.088e-5
-0.857, 1.090e-5
-0.858, 1.092e-5
-0.859, 1.094e-5
-0.860, 1.096e-5
-0.861, 1.098e-5
-0.862, 1.099e-5
-0.863, 1.101e-5
-0.864, 1.103e-5
-0.865, 1.105e-5
-0.866, 1.107e-5
-0.867, 1.108e-5
-0.868, 1.110e-5
-0.869, 1.112e-5
-0.870, 1.114e-5
-0.871, 1.116e-5
-0.872, 1.117e-5
-0.873, 1.119e-5
-0.874, 1.122e-5
-0.875, 1.123e-5
-0.876, 1.125e-5
-0.877, 1.127e-5
-0.878, 1.129e-5
-0.879, 1.131e-5
-0.880, 1.133e-5
-0.881, 1.134e-5
-0.882, 1.136e-5
-0.883, 1.138e-5
-0.884, 1.140e-5
-0.885, 1.142e-5
-0.886, 1.144e-5
-0.887, 1.145e-5
-0.888, 1.147e-5
-0.889, 1.149e-5
-0.890, 1.151e-5
-0.891, 1.153e-5
-0.892, 1.154e-5
-0.893, 1.156e-5
-0.894, 1.158e-5
-0.895, 1.160e-5
-0.896, 1.162e-5
-0.897, 1.164e-5
-0.898, 1.166e-5
-0.899, 1.168e-5
-0.900, 1.170e-5
-0.901, 1.172e-5
-0.902, 1.174e-5
-0.903, 1.175e-5
-0.904, 1.178e-5
-0.905, 1.180e-5
-0.906, 1.181e-5
-0.907, 1.183e-5
-0.908, 1.185e-5
-0.909, 1.187e-5
-0.910, 1.189e-5
-0.911, 1.191e-5
-0.912, 1.193e-5
-0.913, 1.195e-5
-0.914, 1.197e-5
-0.915, 1.199e-5
-0.916, 1.200e-5
-0.917, 1.202e-5
-0.918, 1.203e-5
-0.919, 1.205e-5
-0.920, 1.207e-5
-0.921, 1.208e-5
-0.922, 1.210e-5
-0.923, 1.212e-5
-0.924, 1.214e-5
-0.925, 1.216e-5
-0.926, 1.217e-5
-0.927, 1.219e-5
-0.928, 1.221e-5
-0.929, 1.223e-5
-0.930, 1.225e-5
-0.931, 1.227e-5
-0.932, 1.229e-5
-0.933, 1.230e-5
-0.934, 1.233e-5
-0.935, 1.235e-5
-0.936, 1.236e-5
-0.937, 1.238e-5
-0.938, 1.240e-5
-0.939, 1.242e-5
-0.940, 1.244e-5
-0.941, 1.245e-5
-0.942, 1.247e-5
-0.943, 1.249e-5
-0.944, 1.251e-5
-0.945, 1.253e-5
-0.946, 1.254e-5
-0.947, 1.256e-5
-0.948, 1.258e-5
-0.949, 1.260e-5
-0.950, 1.261e-5
-0.951, 1.263e-5
-0.952, 1.264e-5
-0.953, 1.266e-5
-0.954, 1.268e-5
-0.955, 1.270e-5
-0.956, 1.271e-5
-0.957, 1.273e-5
-0.958, 1.275e-5
-0.959, 1.276e-5
-0.960, 1.278e-5
-0.961, 1.279e-5
-0.962, 1.281e-5
-0.963, 1.282e-5
-0.964, 1.284e-5
-0.965, 1.286e-5
-0.966, 1.287e-5
-0.967, 1.288e-5
-0.968, 1.290e-5
-0.969, 1.292e-5
-0.970, 1.293e-5
-0.971, 1.294e-5
-0.972, 1.296e-5
-0.973, 1.297e-5
-0.974, 1.299e-5
-0.975, 1.300e-5
-0.976, 1.302e-5
-0.977, 1.303e-5
-0.978, 1.304e-5
-0.979, 1.306e-5
-0.980, 1.307e-5
-0.981, 1.308e-5
-0.982, 1.309e-5
-0.983, 1.311e-5
-0.984, 1.312e-5
-0.985, 1.313e-5
-0.986, 1.314e-5
-0.987, 1.315e-5
-0.988, 1.317e-5
-0.989, 1.318e-5
-0.990, 1.319e-5
-0.991, 1.320e-5
-0.992, 1.321e-5
-0.993, 1.322e-5
-0.994, 1.323e-5
-0.995, 1.325e-5
-0.996, 1.325e-5
-0.997, 1.326e-5
-0.998, 1.327e-5
-0.999, 1.329e-5
-1.000, 1.330e-5
-1.001, 1.330e-5
-1.002, 1.331e-5
-1.003, 1.332e-5
-1.004, 1.333e-5
-1.005, 1.334e-5
-1.006, 1.335e-5
-1.007, 1.336e-5
-1.008, 1.337e-5
-1.009, 1.338e-5
-1.010, 1.338e-5
-1.011, 1.339e-5
-1.012, 1.340e-5
-1.013, 1.340e-5
-1.014, 1.341e-5
-1.015, 1.342e-5
-1.016, 1.342e-5
-1.017, 1.343e-5
-1.018, 1.344e-5
-1.019, 1.344e-5
-1.020, 1.345e-5
-1.021, 1.345e-5
-1.022, 1.346e-5
-1.023, 1.346e-5
-1.024, 1.347e-5
-1.025, 1.348e-5
-1.026, 1.348e-5
-1.027, 1.349e-5
-1.028, 1.349e-5
-1.029, 1.350e-5
-1.030, 1.350e-5
-1.031, 1.350e-5
-1.032, 1.351e-5
-1.033, 1.351e-5
-1.034, 1.352e-5
-1.035, 1.352e-5
-1.036, 1.352e-5
-1.037, 1.352e-5
-1.038, 1.353e-5
-1.039, 1.353e-5
-1.040, 1.354e-5
-1.041, 1.354e-5
-1.042, 1.354e-5
-1.043, 1.354e-5
-1.044, 1.355e-5
-1.045, 1.355e-5
-1.046, 1.355e-5
-1.047, 1.355e-5
-1.048, 1.355e-5
-1.049, 1.355e-5
-1.050, 1.355e-5
-1.051, 1.356e-5
-1.052, 1.355e-5
-1.053, 1.356e-5
-1.054, 1.356e-5
-1.055, 1.356e-5
-1.056, 1.356e-5
-1.057, 1.356e-5
-1.058, 1.356e-5
-1.059, 1.356e-5
-1.060, 1.356e-5
-1.061, 1.356e-5
-1.062, 1.356e-5
-1.063, 1.356e-5
-1.064, 1.356e-5
-1.065, 1.356e-5
-1.066, 1.356e-5
-1.067, 1.356e-5
-1.068, 1.356e-5
-1.069, 1.356e-5
-1.070, 1.356e-5
-1.071, 1.355e-5
-1.072, 1.355e-5
-1.073, 1.355e-5
-1.074, 1.355e-5
-1.075, 1.355e-5
-1.076, 1.355e-5
-1.077, 1.354e-5
-1.078, 1.354e-5
-1.079, 1.354e-5
-1.080, 1.354e-5
-1.081, 1.354e-5
-1.082, 1.353e-5
-1.083, 1.353e-5
-1.084, 1.353e-5
-1.085, 1.353e-5
-1.086, 1.352e-5
-1.087, 1.352e-5
-1.088, 1.351e-5
-1.089, 1.351e-5
-1.090, 1.351e-5
-1.091, 1.351e-5
-1.092, 1.350e-5
-1.093, 1.350e-5
-1.094, 1.350e-5
-1.095, 1.349e-5
-1.096, 1.349e-5
-1.097, 1.348e-5
-1.098, 1.348e-5
-1.099, 1.348e-5
-1.100, 1.347e-5
-1.101, 1.346e-5
-1.102, 1.346e-5
-1.103, 1.346e-5
-1.104, 1.345e-5
-1.105, 1.345e-5
-1.106, 1.344e-5
-1.107, 1.344e-5
-1.108, 1.343e-5
-1.109, 1.343e-5
-1.110, 1.342e-5
-1.111, 1.342e-5
-1.112, 1.341e-5
-1.113, 1.341e-5
-1.114, 1.340e-5
-1.115, 1.340e-5
-1.116, 1.339e-5
-1.117, 1.338e-5
-1.118, 1.338e-5
-1.119, 1.337e-5
-1.120, 1.337e-5
-1.121, 1.336e-5
-1.122, 1.335e-5
-1.123, 1.335e-5
-1.124, 1.334e-5
-1.125, 1.334e-5
-1.126, 1.333e-5
-1.127, 1.332e-5
-1.128, 1.332e-5
-1.129, 1.331e-5
-1.130, 1.330e-5
-1.131, 1.329e-5
-1.132, 1.329e-5
-1.133, 1.328e-5
-1.134, 1.328e-5
-1.135, 1.327e-5
-1.136, 1.326e-5
-1.137, 1.325e-5
-1.138, 1.324e-5
-1.139, 1.324e-5
-1.140, 1.323e-5
-1.141, 1.322e-5
-1.142, 1.321e-5
-1.143, 1.320e-5
-1.144, 1.320e-5
-1.145, 1.319e-5
-1.146, 1.318e-5
-1.147, 1.317e-5
-1.148, 1.317e-5
-1.149, 1.316e-5
-1.150, 1.315e-5
-1.151, 1.314e-5
-1.152, 1.314e-5
-1.153, 1.313e-5
-1.154, 1.312e-5
-1.155, 1.311e-5
-1.156, 1.311e-5
-1.157, 1.310e-5
-1.158, 1.309e-5
-1.159, 1.308e-5
-1.160, 1.307e-5
-1.161, 1.306e-5
-1.162, 1.306e-5
-1.163, 1.305e-5
-1.164, 1.305e-5
-1.165, 1.304e-5
-1.166, 1.303e-5
-1.167, 1.302e-5
-1.168, 1.302e-5
-1.169, 1.301e-5
-1.170, 1.301e-5
-1.171, 1.300e-5
-1.172, 1.299e-5
-1.173, 1.298e-5
-1.174, 1.298e-5
-1.175, 1.297e-5
-1.176, 1.297e-5
-1.177, 1.296e-5
-1.178, 1.296e-5
-1.179, 1.295e-5
-1.180, 1.295e-5
-1.181, 1.294e-5
-1.182, 1.294e-5
-1.183, 1.293e-5
-1.184, 1.293e-5
-1.185, 1.292e-5
-1.186, 1.292e-5
-1.187, 1.291e-5
-1.188, 1.291e-5
-1.189, 1.291e-5
-1.190, 1.291e-5
-1.191, 1.290e-5
-1.192, 1.290e-5
-1.193, 1.289e-5
-1.194, 1.289e-5
-1.195, 1.289e-5
-1.196, 1.289e-5
-1.197, 1.288e-5
-1.198, 1.288e-5
-1.199, 1.288e-5
-1.200, 1.288e-5
-1.201, 1.287e-5
-1.202, 1.287e-5
-1.203, 1.287e-5
-1.204, 1.287e-5
-1.205, 1.287e-5
-1.206, 1.287e-5
-1.207, 1.287e-5
-1.208, 1.287e-5
-1.209, 1.287e-5
-1.210, 1.287e-5
-1.211, 1.287e-5
-1.212, 1.286e-5
-1.213, 1.286e-5
-1.214, 1.286e-5
-1.215, 1.286e-5
-1.216, 1.286e-5
-1.217, 1.286e-5
-1.218, 1.286e-5
-1.219, 1.286e-5
-1.220, 1.286e-5
-1.221, 1.286e-5
-1.222, 1.286e-5
-1.223, 1.286e-5
-1.224, 1.286e-5
-1.225, 1.286e-5
-1.226, 1.286e-5
-1.227, 1.286e-5
-1.228, 1.287e-5
-1.229, 1.287e-5
-1.230, 1.287e-5
-1.231, 1.287e-5
-1.232, 1.287e-5
-1.233, 1.287e-5
-1.234, 1.287e-5
-1.235, 1.287e-5
-1.236, 1.288e-5
-1.237, 1.288e-5
-1.238, 1.288e-5
-1.239, 1.289e-5
-1.240, 1.289e-5
-1.241, 1.289e-5
-1.242, 1.289e-5
-1.243, 1.289e-5
-1.244, 1.290e-5
-1.245, 1.290e-5
-1.246, 1.290e-5
-1.247, 1.290e-5
-1.248, 1.290e-5
-1.249, 1.291e-5
-1.250, 1.291e-5
-1.251, 1.291e-5
-1.252, 1.291e-5
-1.253, 1.292e-5
-1.254, 1.292e-5
-1.255, 1.292e-5
-1.256, 1.292e-5
-1.257, 1.292e-5
-1.258, 1.293e-5
-1.259, 1.293e-5
-1.260, 1.293e-5
-1.261, 1.293e-5
-1.262, 1.293e-5
-1.263, 1.294e-5
-1.264, 1.294e-5
-1.265, 1.295e-5
-1.266, 1.295e-5
-1.267, 1.295e-5
-1.268, 1.295e-5
-1.269, 1.296e-5
-1.270, 1.296e-5
-1.271, 1.296e-5
-1.272, 1.297e-5
-1.273, 1.297e-5
-1.274, 1.298e-5
-1.275, 1.298e-5
-1.276, 1.299e-5
-1.277, 1.299e-5
-1.278, 1.300e-5
-1.279, 1.300e-5
-1.280, 1.301e-5
-1.281, 1.302e-5
-1.282, 1.302e-5
-1.283, 1.303e-5
-1.284, 1.304e-5
-1.285, 1.304e-5
-1.286, 1.304e-5
-1.287, 1.305e-5
-1.288, 1.306e-5
-1.289, 1.307e-5
-1.290, 1.307e-5
-1.291, 1.308e-5
-1.292, 1.308e-5
-1.293, 1.309e-5
-1.294, 1.310e-5
-1.295, 1.310e-5
-1.296, 1.311e-5
-1.297, 1.312e-5
-1.298, 1.313e-5
-1.299, 1.314e-5
-1.300, 1.314e-5
-1.301, 1.315e-5
-1.302, 1.316e-5
-1.303, 1.317e-5
-1.304, 1.318e-5
-1.305, 1.319e-5
-1.306, 1.320e-5
-1.307, 1.321e-5
-1.308, 1.322e-5
-1.309, 1.323e-5
-1.310, 1.325e-5
-1.311, 1.325e-5
-1.312, 1.326e-5
-1.313, 1.327e-5
-1.314, 1.328e-5
-1.315, 1.330e-5
-1.316, 1.330e-5
-1.317, 1.331e-5
-1.318, 1.333e-5
-1.319, 1.334e-5
-1.320, 1.335e-5
-1.321, 1.336e-5
-1.322, 1.337e-5
-1.323, 1.339e-5
-1.324, 1.340e-5
-1.325, 1.342e-5
-1.326, 1.343e-5
-1.327, 1.344e-5
-1.328, 1.345e-5
-1.329, 1.347e-5
-1.330, 1.348e-5
-1.331, 1.349e-5
-1.332, 1.350e-5
-1.333, 1.351e-5
-1.334, 1.353e-5
-1.335, 1.354e-5
-1.336, 1.355e-5
-1.337, 1.356e-5
-1.338, 1.357e-5
-1.339, 1.359e-5
-1.340, 1.360e-5
-1.341, 1.361e-5
-1.342, 1.363e-5
-1.343, 1.364e-5
-1.344, 1.365e-5
-1.345, 1.367e-5
-1.346, 1.368e-5
-1.347, 1.369e-5
-1.348, 1.371e-5
-1.349, 1.372e-5
-1.350, 1.374e-5
-1.351, 1.375e-5
-1.352, 1.376e-5
-1.353, 1.378e-5
-1.354, 1.379e-5
-1.355, 1.380e-5
-1.356, 1.381e-5
-1.357, 1.383e-5
-1.358, 1.384e-5
-1.359, 1.386e-5
-1.360, 1.387e-5
-1.361, 1.388e-5
-1.362, 1.389e-5
-1.363, 1.391e-5
-1.364, 1.392e-5
-1.365, 1.393e-5
-1.366, 1.395e-5
-1.367, 1.396e-5
-1.368, 1.398e-5
-1.369, 1.399e-5
-1.370, 1.400e-5
-1.371, 1.402e-5
-1.372, 1.403e-5
-1.373, 1.405e-5
-1.374, 1.406e-5
-1.375, 1.407e-5
-1.376, 1.409e-5
-1.377, 1.410e-5
-1.378, 1.411e-5
-1.379, 1.413e-5
-1.380, 1.414e-5
-1.381, 1.415e-5
-1.382, 1.417e-5
-1.383, 1.418e-5
-1.384, 1.420e-5
-1.385, 1.421e-5
-1.386, 1.422e-5
-1.387, 1.424e-5
-1.388, 1.425e-5
-1.389, 1.427e-5
-1.390, 1.428e-5
-1.391, 1.429e-5
-1.392, 1.431e-5
-1.393, 1.432e-5
-1.394, 1.434e-5
-1.395, 1.435e-5
-1.396, 1.436e-5
-1.397, 1.437e-5
-1.398, 1.438e-5
-1.399, 1.440e-5
-1.400, 1.441e-5
-1.401, 1.442e-5
-1.402, 1.444e-5
-1.403, 1.446e-5
-1.404, 1.448e-5
-1.405, 1.449e-5
-1.406, 1.451e-5
-1.407, 1.452e-5
-1.408, 1.453e-5
-1.409, 1.455e-5
-1.410, 1.457e-5
-1.411, 1.458e-5
-1.412, 1.460e-5
-1.413, 1.462e-5
-1.414, 1.464e-5
-1.415, 1.466e-5
-1.416, 1.467e-5
-1.417, 1.469e-5
-1.418, 1.471e-5
-1.419, 1.473e-5
-1.420, 1.474e-5
-1.421, 1.476e-5
-1.422, 1.478e-5
-1.423, 1.480e-5
-1.424, 1.482e-5
-1.425, 1.483e-5
-1.426, 1.485e-5
-1.427, 1.487e-5
-1.428, 1.490e-5
-1.429, 1.492e-5
-1.430, 1.494e-5
-1.431, 1.496e-5
-1.432, 1.498e-5
-1.433, 1.500e-5
-1.434, 1.502e-5
-1.435, 1.505e-5
-1.436, 1.507e-5
-1.437, 1.509e-5
-1.438, 1.511e-5
-1.439, 1.513e-5
-1.440, 1.516e-5
-1.441, 1.518e-5
-1.442, 1.520e-5
-1.443, 1.523e-5
-1.444, 1.525e-5
-1.445, 1.527e-5
-1.446, 1.530e-5
-1.447, 1.532e-5
-1.448, 1.535e-5
-1.449, 1.537e-5
-1.450, 1.540e-5
-1.451, 1.542e-5
-1.452, 1.546e-5
-1.453, 1.549e-5
-1.454, 1.551e-5
-1.455, 1.554e-5
-1.456, 1.556e-5
-1.457, 1.559e-5
-1.458, 1.562e-5
-1.459, 1.565e-5
-1.460, 1.568e-5
-1.461, 1.571e-5
-1.462, 1.574e-5
-1.463, 1.577e-5
-1.464, 1.581e-5
-1.465, 1.584e-5
-1.466, 1.586e-5
-1.467, 1.589e-5
-1.468, 1.593e-5
-1.469, 1.596e-5
-1.470, 1.599e-5
-1.471, 1.602e-5
-1.472, 1.606e-5
-1.473, 1.610e-5
-1.474, 1.614e-5
-1.475, 1.617e-5
-1.476, 1.621e-5
-1.477, 1.624e-5
-1.478, 1.628e-5
-1.479, 1.632e-5
-1.480, 1.636e-5
-1.481, 1.640e-5
-1.482, 1.645e-5
-1.483, 1.649e-5
-1.484, 1.653e-5
-1.485, 1.657e-5
-1.486, 1.661e-5
-1.487, 1.665e-5
-1.488, 1.670e-5
-1.489, 1.674e-5
-1.490, 1.678e-5
-1.491, 1.682e-5
-1.492, 1.687e-5
-1.493, 1.691e-5
-1.494, 1.696e-5
-1.495, 1.701e-5
-1.496, 1.705e-5
-1.497, 1.710e-5
-1.498, 1.715e-5
-1.499, 1.720e-5
-1.500, 1.725e-5
-1.501, 1.730e-5
-1.502, 1.735e-5
-1.503, 1.741e-5
-1.504, 1.746e-5
-1.505, 1.752e-5
-1.506, 1.757e-5
-1.507, 1.762e-5
-1.508, 1.768e-5
-1.509, 1.774e-5
-1.510, 1.780e-5
-1.511, 1.785e-5
-1.512, 1.791e-5
-1.513, 1.797e-5
-1.514, 1.803e-5
-1.515, 1.809e-5
-1.516, 1.815e-5
-1.517, 1.821e-5
-1.518, 1.827e-5
-1.519, 1.834e-5
-1.520, 1.840e-5
-1.521, 1.847e-5
-1.522, 1.854e-5
-1.523, 1.861e-5
-1.524, 1.868e-5
-1.525, 1.875e-5
-1.526, 1.882e-5
-1.527, 1.889e-5
-1.528, 1.897e-5
-1.529, 1.904e-5
-1.530, 1.912e-5
-1.531, 1.919e-5
-1.532, 1.927e-5
-1.533, 1.935e-5
-1.534, 1.943e-5
-1.535, 1.951e-5
-1.536, 1.959e-5
-1.537, 1.969e-5
-1.538, 1.977e-5
-1.539, 1.985e-5
-1.540, 1.994e-5
-1.541, 2.002e-5
-1.542, 2.011e-5
-1.543, 2.020e-5
-1.544, 2.030e-5
-1.545, 2.040e-5
-1.546, 2.049e-5
-1.547, 2.058e-5
-1.548, 2.068e-5
-1.549, 2.078e-5
-1.550, 2.088e-5
-1.551, 2.098e-5
-1.552, 2.109e-5
-1.553, 2.120e-5
-1.554, 2.131e-5
-1.555, 2.141e-5
-1.556, 2.152e-5
-1.557, 2.164e-5
-1.558, 2.176e-5
-1.559, 2.187e-5
-1.560, 2.199e-5
-1.561, 2.210e-5
-1.562, 2.224e-5
-1.563, 2.235e-5
-1.564, 2.248e-5
-1.565, 2.261e-5
-1.566, 2.273e-5
-1.567, 2.286e-5
-1.568, 2.300e-5
-1.569, 2.313e-5
-1.570, 2.327e-5
-1.571, 2.341e-5
-1.572, 2.355e-5
-1.573, 2.369e-5
-1.574, 2.385e-5
-1.575, 2.400e-5
-1.576, 2.415e-5
-1.577, 2.430e-5
-1.578, 2.446e-5
-1.579, 2.462e-5
-1.580, 2.478e-5
-1.581, 2.494e-5
-1.582, 2.510e-5
-1.583, 2.528e-5
-1.584, 2.544e-5
-1.585, 2.561e-5
-1.586, 2.578e-5
-1.587, 2.597e-5
-1.588, 2.616e-5
-1.589, 2.634e-5
-1.590, 2.652e-5
-1.591, 2.671e-5
-1.592, 2.690e-5
-1.593, 2.709e-5
-1.594, 2.729e-5
-1.595, 2.749e-5
-1.596, 2.769e-5
-1.597, 2.788e-5
-1.598, 2.809e-5
-1.599, 2.830e-5
-1.600, 2.851e-5
-1.601, 2.873e-5
-1.602, 2.894e-5
-1.603, 2.917e-5
-1.604, 2.940e-5
-1.605, 2.963e-5
-1.606, 2.985e-5
-1.607, 3.008e-5
-1.608, 3.032e-5
-1.609, 3.056e-5
-1.610, 3.081e-5
-1.611, 3.106e-5
-1.612, 3.131e-5
-1.613, 3.157e-5
-1.614, 3.183e-5
-1.615, 3.209e-5
-1.616, 3.235e-5
-1.617, 3.262e-5
-1.618, 3.290e-5
-1.619, 3.318e-5
-1.620, 3.346e-5
-1.621, 3.373e-5
-1.622, 3.402e-5
-1.623, 3.431e-5
-1.624, 3.461e-5
-1.625, 3.490e-5
-1.626, 3.520e-5
-1.627, 3.551e-5
-1.628, 3.582e-5
-1.629, 3.613e-5
-1.630, 3.645e-5
-1.631, 3.677e-5
-1.632, 3.709e-5
-1.633, 3.743e-5
-1.634, 3.776e-5
-1.635, 3.809e-5
-1.636, 3.843e-5
-1.637, 3.877e-5
-1.638, 3.913e-5
-1.639, 3.950e-5
-1.640, 3.987e-5
-1.641, 4.024e-5
-1.642, 4.061e-5
-1.643, 4.100e-5
-1.644, 4.138e-5
-1.645, 4.175e-5
-1.646, 4.213e-5
-1.647, 4.252e-5
-1.648, 4.293e-5
-1.649, 4.333e-5
-1.650, 4.372e-5
-1.651, 4.412e-5
-1.652, 4.452e-5
-1.653, 4.494e-5
-1.654, 4.537e-5
-1.655, 4.579e-5
-1.656, 4.622e-5
-1.657, 4.665e-5
-1.658, 4.710e-5
-1.659, 4.755e-5
-1.660, 4.800e-5
-1.661, 4.845e-5
-1.662, 4.891e-5
-1.663, 4.938e-5
-1.664, 4.985e-5
-1.665, 5.032e-5
-1.666, 5.079e-5
-1.667, 5.128e-5
-1.668, 5.177e-5
-1.669, 5.226e-5
-1.670, 5.276e-5
-1.671, 5.326e-5
-1.672, 5.376e-5
-1.673, 5.428e-5
-1.674, 5.480e-5
-1.675, 5.533e-5
-1.676, 5.586e-5
-1.677, 5.639e-5
-1.678, 5.694e-5
-1.679, 5.749e-5
-1.680, 5.804e-5
-1.681, 5.858e-5
-1.682, 5.913e-5
-1.683, 5.968e-5
-1.684, 6.025e-5
-1.685, 6.082e-5
-1.686, 6.139e-5
-1.687, 6.197e-5
-1.688, 6.257e-5
-1.689, 6.317e-5
-1.690, 6.379e-5
-1.691, 6.439e-5
-1.692, 6.500e-5
-1.693, 6.562e-5
-1.694, 6.624e-5
-1.695, 6.686e-5
-1.696, 6.748e-5
-1.697, 6.812e-5
-1.698, 6.877e-5
-1.699, 6.942e-5
-1.700, 7.007e-5
-1.701, 7.073e-5
-1.702, 7.139e-5
-1.703, 7.207e-5
-1.704, 7.275e-5
-1.705, 7.342e-5
-1.706, 7.410e-5
-1.707, 7.478e-5
-1.708, 7.547e-5
-1.709, 7.617e-5
-1.710, 7.688e-5
-1.711, 7.757e-5
-1.712, 7.828e-5
-1.713, 7.901e-5
-1.714, 7.973e-5
-1.715, 8.046e-5
-1.716, 8.119e-5
-1.717, 8.193e-5
-1.718, 8.268e-5
-1.719, 8.343e-5
-1.720, 8.418e-5
-1.721, 8.492e-5
-1.722, 8.568e-5
-1.723, 8.646e-5
-1.724, 8.724e-5
-1.725, 8.801e-5
-1.726, 8.877e-5
-1.727, 8.956e-5
-1.728, 9.035e-5
-1.729, 9.114e-5
-1.730, 9.193e-5
-1.731, 9.273e-5
-1.732, 9.352e-5
-1.733, 9.435e-5
-1.734, 9.518e-5
-1.735, 9.599e-5
-1.736, 9.680e-5
-1.737, 9.762e-5
-1.738, 9.846e-5
-1.739, 9.930e-5
-1.740, 1.001e-4
-1.741, 1.010e-4
-1.742, 1.018e-4
-1.743, 1.027e-4
-1.744, 1.035e-4
-1.745, 1.044e-4
-1.746, 1.052e-4
-1.747, 1.061e-4
-1.748, 1.069e-4
-1.749, 1.078e-4
-1.750, 1.087e-4
-1.751, 1.095e-4
-1.752, 1.104e-4
-1.753, 1.113e-4
-1.754, 1.122e-4
-1.755, 1.131e-4
-1.756, 1.139e-4
-1.757, 1.148e-4
-1.758, 1.157e-4
-1.759, 1.166e-4
-1.760, 1.175e-4
-1.761, 1.184e-4
-1.762, 1.193e-4
-1.763, 1.203e-4
-1.764, 1.212e-4
-1.765, 1.221e-4
-1.766, 1.230e-4
-1.767, 1.239e-4
-1.768, 1.248e-4
-1.769, 1.257e-4
-1.770, 1.266e-4
-1.771, 1.275e-4
-1.772, 1.284e-4
-1.773, 1.293e-4
-1.774, 1.303e-4
-1.775, 1.312e-4
-1.776, 1.321e-4
-1.777, 1.330e-4
-1.778, 1.340e-4
-1.779, 1.349e-4
-1.780, 1.358e-4
-1.781, 1.368e-4
-1.782, 1.377e-4
-1.783, 1.386e-4
-1.784, 1.396e-4
-1.785, 1.405e-4
-1.786, 1.414e-4
-1.787, 1.424e-4
-1.788, 1.433e-4
-1.789, 1.443e-4
-1.790, 1.452e-4
-1.791, 1.461e-4
-1.792, 1.471e-4
-1.793, 1.481e-4
-1.794, 1.490e-4
-1.795, 1.500e-4
-1.796, 1.509e-4
-1.797, 1.519e-4
-1.798, 1.529e-4
-1.799, 1.539e-4
-1.800, 1.548e-4
-1.801, 1.558e-4
-1.802, 1.567e-4
-1.803, 1.577e-4
-1.804, 1.587e-4
-1.805, 1.592e-4
-1.806, 1.600e-4
-1.807, 1.610e-4
-1.808, 1.619e-4
-1.809, 1.628e-4
-1.810, 1.637e-4
-1.811, 1.646e-4
-1.812, 1.656e-4
-1.813, 1.667e-4
-1.814, 1.677e-4
-1.815, 1.686e-4
-1.816, 1.695e-4
-1.817, 1.705e-4
-1.818, 1.716e-4
-1.819, 1.727e-4
-1.820, 1.737e-4
-1.821, 1.747e-4
-1.822, 1.757e-4
-1.823, 1.767e-4
-1.824, 1.778e-4
-1.825, 1.789e-4
-1.826, 1.799e-4
-1.827, 1.812e-4
-1.828, 1.824e-4
-1.829, 1.836e-4
-1.830, 1.847e-4
-1.831, 1.859e-4
-1.832, 1.871e-4
-1.833, 1.884e-4
-1.834, 1.898e-4
-1.835, 1.911e-4
-1.836, 1.925e-4
-1.837, 1.940e-4
-1.838, 1.955e-4
-1.839, 1.970e-4
-1.840, 1.985e-4
-1.841, 2.001e-4
-1.842, 2.018e-4
-1.843, 2.037e-4
-1.844, 2.054e-4
-1.845, 2.072e-4
-1.846, 2.089e-4
-1.847, 2.107e-4
-1.848, 2.127e-4
-1.849, 2.147e-4
-1.850, 2.167e-4
-1.851, 2.188e-4
-1.852, 2.209e-4
-1.853, 2.231e-4
-1.854, 2.254e-4
-1.855, 2.277e-4
-1.856, 2.300e-4
-1.857, 2.324e-4
-1.858, 2.348e-4
-1.859, 2.373e-4
-1.860, 2.398e-4
-1.861, 2.424e-4
-1.862, 2.451e-4
-1.863, 2.478e-4
-1.864, 2.505e-4
-1.865, 2.532e-4
-1.866, 2.560e-4
-1.867, 2.589e-4
-1.868, 2.618e-4
-1.869, 2.648e-4
-1.870, 2.679e-4
-1.871, 2.710e-4
-1.872, 2.740e-4
-1.873, 2.771e-4
-1.874, 2.803e-4
-1.875, 2.835e-4
-1.876, 2.868e-4
-1.877, 2.902e-4
-1.878, 2.937e-4
-1.879, 2.970e-4
-1.880, 3.004e-4
-1.881, 3.039e-4
-1.882, 3.074e-4
-1.883, 3.110e-4
-1.884, 3.147e-4
-1.885, 3.183e-4
-1.886, 3.220e-4
-1.887, 3.257e-4
-1.888, 3.295e-4
-1.889, 3.334e-4
-1.890, 3.373e-4
-1.891, 3.413e-4
-1.892, 3.452e-4
-1.893, 3.491e-4
-1.894, 3.531e-4
-1.895, 3.572e-4
-1.896, 3.613e-4
-1.897, 3.656e-4
-1.898, 3.698e-4
-1.899, 3.739e-4
-1.900, 3.781e-4
-1.901, 3.823e-4
-1.902, 3.866e-4
-1.903, 3.910e-4
-1.904, 3.953e-4
-1.905, 3.996e-4
-1.906, 4.038e-4
-1.907, 4.082e-4
-1.908, 4.128e-4
-1.909, 4.173e-4
-1.910, 4.219e-4
-1.911, 4.265e-4
-1.912, 4.312e-4
-1.913, 4.359e-4
-1.914, 4.405e-4
-1.915, 4.452e-4
-1.916, 4.499e-4
-1.917, 4.548e-4
-1.918, 4.598e-4
-1.919, 4.646e-4
-1.920, 4.695e-4
-1.921, 4.743e-4
-1.922, 4.793e-4
-1.923, 4.844e-4
-1.924, 4.895e-4
-1.925, 4.945e-4
-1.926, 4.996e-4
-1.927, 5.048e-4
-1.928, 5.101e-4
-1.929, 5.153e-4
-1.930, 5.202e-4
-1.931, 5.254e-4
-1.932, 5.305e-4
-1.933, 5.359e-4
-1.934, 5.413e-4
-1.935, 5.467e-4
-1.936, 5.518e-4
-1.937, 5.570e-4
-1.938, 5.625e-4
-1.939, 5.681e-4
-1.940, 5.735e-4
-1.941, 5.790e-4
-1.942, 5.846e-4
-1.943, 5.903e-4
-1.944, 5.960e-4
-1.945, 6.016e-4
-1.946, 6.072e-4
-1.947, 6.130e-4
-1.948, 6.187e-4
-1.949, 6.244e-4
-1.950, 6.302e-4
-1.951, 6.360e-4
-1.952, 6.419e-4
-1.953, 6.478e-4
-1.954, 6.536e-4
-1.955, 6.595e-4
-1.956, 6.654e-4
-1.957, 6.714e-4
-1.958, 6.773e-4
-1.959, 6.832e-4
-1.960, 6.891e-4
-1.961, 6.951e-4
-1.962, 7.012e-4
-1.963, 7.073e-4
-1.964, 7.136e-4
-1.965, 7.196e-4
-1.966, 7.256e-4
-1.967, 7.318e-4
-1.968, 7.381e-4
-1.969, 7.445e-4
-1.970, 7.508e-4
-1.971, 7.571e-4
-1.972, 7.635e-4
-1.973, 7.699e-4
-1.974, 7.764e-4
-1.975, 7.829e-4
-1.976, 7.892e-4
-1.977, 7.956e-4
-1.978, 8.022e-4
-1.979, 8.085e-4
-1.980, 8.148e-4
-1.981, 8.211e-4
-1.982, 8.278e-4
-1.983, 8.343e-4
-1.984, 8.409e-4
-1.985, 8.474e-4
-1.986, 8.540e-4
-1.987, 8.605e-4
-1.988, 8.670e-4
-1.989, 8.737e-4
-1.990, 8.805e-4
-1.991, 8.869e-4
-1.992, 8.935e-4
-1.993, 9.002e-4
-1.994, 9.070e-4
-1.995, 9.135e-4
-1.996, 9.200e-4
-1.997, 9.267e-4
-1.998, 9.334e-4
-1.999, 9.401e-4
-2.000, 9.467e-4
-2.001, 9.534e-4
-2.002, 9.602e-4
-2.003, 9.670e-4
-2.004, 9.738e-4
-2.005, 9.809e-4
-2.006, 9.877e-4
-2.007, 9.945e-4
-2.008, 1.002e-3
-2.009, 1.008e-3
-2.010, 1.011e-3
-2.011, 1.011e-3
-2.012, 1.011e-3
-2.013, 1.011e-3
-2.014, 1.011e-3
-2.015, 1.011e-3
-2.016, 1.011e-3
-2.017, 1.011e-3
-2.018, 1.011e-3
-2.019, 1.011e-3
-2.020, 1.011e-3
-2.021, 1.011e-3
-2.022, 1.011e-3
-2.023, 1.011e-3
-2.024, 1.011e-3
-2.025, 1.011e-3
-2.026, 1.011e-3
-2.027, 1.011e-3
-2.028, 1.011e-3
-2.029, 1.011e-3
-2.030, 1.011e-3
-2.031, 1.011e-3
-2.032, 1.011e-3
-2.033, 1.011e-3
-2.034, 1.011e-3
-2.035, 1.011e-3
-2.036, 1.011e-3
-2.037, 1.011e-3
-2.038, 1.011e-3
-2.039, 1.011e-3
-2.040, 1.011e-3
-2.041, 1.011e-3
-2.042, 1.011e-3
-2.043, 1.011e-3
-2.044, 1.011e-3
-2.045, 1.011e-3
-2.046, 1.011e-3
-2.047, 1.011e-3
-2.048, 1.011e-3
-2.049, 1.011e-3
-2.050, 1.011e-3
-2.051, 1.011e-3
-2.052, 1.011e-3
-2.053, 1.011e-3
-2.054, 1.011e-3
-2.055, 1.011e-3
-2.056, 1.011e-3
-2.057, 1.011e-3
-2.058, 1.011e-3
-2.059, 1.011e-3
-2.060, 1.011e-3
-2.061, 1.011e-3
-2.062, 1.011e-3
-2.063, 1.011e-3
-2.064, 1.011e-3
-2.065, 1.011e-3
-2.066, 1.011e-3
-2.067, 1.011e-3
-2.068, 1.011e-3
-2.069, 1.011e-3
-2.070, 1.011e-3
-2.071, 1.011e-3
-2.072, 1.011e-3
-2.073, 1.011e-3
-2.074, 1.011e-3
-2.075, 1.011e-3
-2.076, 1.011e-3
-2.077, 1.011e-3
-2.078, 1.011e-3
-2.079, 1.011e-3
-2.080, 1.011e-3
-2.081, 1.011e-3
-2.082, 1.011e-3
-2.083, 1.011e-3
-2.084, 1.011e-3
-2.085, 1.011e-3
-2.086, 1.011e-3
-2.087, 1.011e-3
-2.088, 1.011e-3
-2.089, 1.011e-3
-2.090, 1.011e-3
-2.091, 1.011e-3
-2.092, 1.011e-3
-2.093, 1.011e-3
-2.094, 1.011e-3
-2.095, 1.011e-3
-2.096, 1.011e-3
-2.097, 1.011e-3
-2.098, 1.011e-3
-2.099, 1.011e-3
-2.100, 1.011e-3
-2.101, 1.011e-3
-2.102, 1.011e-3
-2.103, 1.011e-3
-2.104, 1.011e-3
-2.105, 1.011e-3
-2.106, 1.011e-3
-2.107, 1.011e-3
-2.108, 1.011e-3
-2.109, 1.011e-3
-2.110, 1.011e-3
-2.111, 1.011e-3
-2.112, 1.011e-3
-2.113, 1.011e-3
-2.114, 1.011e-3
-2.115, 1.011e-3
-2.116, 1.011e-3
-2.117, 1.011e-3
-2.118, 1.011e-3
-2.119, 1.011e-3
-2.120, 1.011e-3
-2.121, 1.011e-3
-2.122, 1.011e-3
-2.123, 1.011e-3
-2.124, 1.011e-3
-2.125, 1.011e-3
-2.126, 1.011e-3
-2.127, 1.011e-3
-2.128, 1.011e-3
-2.129, 1.011e-3
-2.130, 1.011e-3
-2.131, 1.011e-3
-2.132, 1.011e-3
-2.133, 1.011e-3
-2.134, 1.011e-3
-2.135, 1.011e-3
-2.136, 1.011e-3
-2.137, 1.011e-3
-2.138, 1.011e-3
-2.139, 1.011e-3
-2.140, 1.011e-3
-2.141, 1.011e-3
-2.142, 1.011e-3
-2.143, 1.011e-3
-2.144, 1.011e-3
-2.145, 1.011e-3
-2.146, 1.011e-3
-2.147, 1.011e-3
-2.148, 1.011e-3
-2.149, 1.011e-3
-2.150, 1.011e-3
-2.151, 1.011e-3
-2.152, 1.011e-3
-2.153, 1.011e-3
-2.154, 1.011e-3
-2.155, 1.011e-3
-2.156, 1.011e-3
-2.157, 1.011e-3
-2.158, 1.011e-3
-2.159, 1.011e-3
-2.160, 1.011e-3
-2.161, 1.011e-3
-2.162, 1.011e-3
-2.163, 1.011e-3
-2.164, 1.011e-3
-2.165, 1.011e-3
-2.166, 1.011e-3
-2.167, 1.011e-3
-2.168, 1.011e-3
-2.169, 1.011e-3
-2.170, 1.011e-3
-2.171, 1.011e-3
-2.172, 1.011e-3
-2.173, 1.011e-3
-2.174, 1.011e-3
-2.175, 1.011e-3
-2.176, 1.011e-3
-2.177, 1.011e-3
-2.178, 1.011e-3
-2.179, 1.011e-3
-2.180, 1.011e-3
-2.181, 1.011e-3
-2.182, 1.011e-3
-2.183, 1.011e-3
-2.184, 1.011e-3
-2.185, 1.011e-3
-2.186, 1.011e-3
-2.187, 1.011e-3
-2.188, 1.011e-3
-2.189, 1.011e-3
-2.190, 1.011e-3
-2.191, 1.011e-3
-2.192, 1.011e-3
-2.193, 1.011e-3
-2.194, 1.011e-3
-2.195, 1.011e-3
-2.196, 1.011e-3
-2.197, 1.011e-3
-2.198, 1.011e-3
-2.199, 1.011e-3
-2.200, 1.011e-3
-2.201, 1.011e-3
-2.202, 1.011e-3
-2.203, 1.011e-3
-2.204, 1.011e-3
-2.205, 1.011e-3
-2.206, 1.011e-3
-2.207, 1.011e-3
-2.208, 1.011e-3
-2.209, 1.011e-3
-2.210, 1.011e-3
-2.211, 1.011e-3
-2.212, 1.011e-3
-2.213, 1.011e-3
-2.214, 1.011e-3
-2.215, 1.011e-3
-2.216, 1.011e-3
-2.217, 1.011e-3
-2.218, 1.011e-3
-2.219, 1.011e-3
-2.220, 1.011e-3
-2.221, 1.011e-3
-2.222, 1.011e-3
-2.223, 1.011e-3
-2.224, 1.011e-3
-2.225, 1.011e-3
-2.226, 1.011e-3
-2.227, 1.011e-3
-2.228, 1.011e-3
-2.229, 1.011e-3
-2.230, 1.011e-3
-2.231, 1.011e-3
-2.232, 1.011e-3
-2.233, 1.011e-3
-2.234, 1.011e-3
-2.235, 1.011e-3
-2.236, 1.011e-3
-2.237, 1.011e-3
-2.238, 1.011e-3
-2.239, 1.011e-3
-2.240, 1.011e-3
-2.241, 1.011e-3
-2.242, 1.011e-3
-2.243, 1.011e-3
-2.244, 1.011e-3
-2.245, 1.011e-3
-2.246, 1.011e-3
-2.247, 1.011e-3
-2.248, 1.011e-3
-2.249, 1.011e-3
-2.250, 1.011e-3
-2.251, 1.011e-3
-2.252, 1.011e-3
-2.253, 1.011e-3
-2.254, 1.011e-3
-2.255, 1.011e-3
-2.256, 1.011e-3
-2.257, 1.011e-3
-2.258, 1.011e-3
-2.259, 1.011e-3
-2.260, 1.011e-3
-2.261, 1.011e-3
-2.262, 1.011e-3
-2.263, 1.011e-3
-2.264, 1.011e-3
-2.265, 1.011e-3
-2.266, 1.011e-3
-2.267, 1.011e-3
-2.268, 1.011e-3
-2.269, 1.011e-3
-2.270, 1.011e-3
-2.271, 1.011e-3
-2.272, 1.011e-3
-2.273, 1.011e-3
-2.274, 1.011e-3
-2.275, 1.011e-3
-2.276, 1.011e-3
-2.277, 1.011e-3
-2.278, 1.011e-3
-2.279, 1.011e-3
-2.280, 1.011e-3
-2.281, 1.011e-3
-2.282, 1.011e-3
-2.283, 1.011e-3
-2.284, 1.011e-3
-2.285, 1.011e-3
-2.286, 1.011e-3
-2.287, 1.011e-3
-2.288, 1.011e-3
-2.289, 1.011e-3
-2.290, 1.011e-3
-2.291, 1.011e-3
-2.292, 1.011e-3
-2.293, 1.011e-3
-2.294, 1.011e-3
-2.295, 1.011e-3
-2.296, 1.011e-3
-2.297, 1.011e-3
-2.298, 1.011e-3
-2.299, 1.011e-3
