Jan. 14, 2025   22:28:15
Cyclic Voltammetry
File: c:/users/guazh/data/banditlqround7_x0exp772_r5/2025-01-10-exp847\exp847-2025-01-14t22_15_59-arkoh\exp847_cv_sr_800mvs_efin_-1500mv.bin
Data Source:  Experiment
Instrument Model:  CHI760E
Header: CV ran at 800 mVs
Note: 

Init E (V) = -1
High E (V) = -1
Low E (V) = -1.5
Final E (V) = -1
Init P/N = N
Scan Rate (V/s) = 0.8
Segment = 3
Sample Interval (V) = 0.001
Quiet Time (sec) = 2
Sensitivity (A/V) = 0.01
Comp R (ohm) = 1.5

Results:

Channel 1:
Segment 1:

Segment 2:

Segment 3:

Potential/V, Current/A

-1.000, -7.384e-5
-1.001, -1.526e-5
-1.002, 2.790e-5
-1.003, 6.490e-5
-1.004, 9.573e-5
-1.005, 1.204e-4
-1.006, 1.420e-4
-1.007, 1.636e-4
-1.008, 1.851e-4
-1.009, 2.036e-4
-1.010, 2.221e-4
-1.011, 2.406e-4
-1.012, 2.591e-4
-1.013, 2.776e-4
-1.014, 2.961e-4
-1.015, 3.115e-4
-1.016, 3.239e-4
-1.017, 3.393e-4
-1.018, 3.485e-4
-1.019, 3.609e-4
-1.020, 3.763e-4
-1.021, 3.855e-4
-1.022, 3.979e-4
-1.023, 4.102e-4
-1.024, 4.225e-4
-1.025, 4.349e-4
-1.026, 4.503e-4
-1.027, 4.626e-4
-1.028, 4.750e-4
-1.029, 4.873e-4
-1.030, 4.965e-4
-1.031, 5.058e-4
-1.032, 5.150e-4
-1.033, 5.243e-4
-1.034, 5.335e-4
-1.035, 5.428e-4
-1.036, 5.551e-4
-1.037, 5.644e-4
-1.038, 5.767e-4
-1.039, 5.890e-4
-1.040, 6.014e-4
-1.041, 6.137e-4
-1.042, 6.229e-4
-1.043, 6.353e-4
-1.044, 6.445e-4
-1.045, 6.538e-4
-1.046, 6.630e-4
-1.047, 6.723e-4
-1.048, 6.815e-4
-1.049, 6.939e-4
-1.050, 7.062e-4
-1.051, 7.154e-4
-1.052, 7.278e-4
-1.053, 7.432e-4
-1.054, 7.555e-4
-1.055, 7.648e-4
-1.056, 7.802e-4
-1.057, 7.894e-4
-1.058, 7.956e-4
-1.059, 8.048e-4
-1.060, 8.141e-4
-1.061, 8.233e-4
-1.062, 8.357e-4
-1.063, 8.449e-4
-1.064, 8.573e-4
-1.065, 8.727e-4
-1.066, 8.850e-4
-1.067, 9.004e-4
-1.068, 9.128e-4
-1.069, 9.282e-4
-1.070, 9.374e-4
-1.071, 9.498e-4
-1.072, 9.590e-4
-1.073, 9.683e-4
-1.074, 9.775e-4
-1.075, 9.929e-4
-1.076, 1.002e-3
-1.077, 1.014e-3
-1.078, 1.027e-3
-1.079, 1.045e-3
-1.080, 1.055e-3
-1.081, 1.070e-3
-1.082, 1.082e-3
-1.083, 1.098e-3
-1.084, 1.107e-3
-1.085, 1.119e-3
-1.086, 1.132e-3
-1.087, 1.144e-3
-1.088, 1.156e-3
-1.089, 1.169e-3
-1.090, 1.184e-3
-1.091, 1.196e-3
-1.092, 1.212e-3
-1.093, 1.224e-3
-1.094, 1.243e-3
-1.095, 1.258e-3
-1.096, 1.273e-3
-1.097, 1.283e-3
-1.098, 1.295e-3
-1.099, 1.307e-3
-1.100, 1.320e-3
-1.101, 1.329e-3
-1.102, 1.341e-3
-1.103, 1.357e-3
-1.104, 1.369e-3
-1.105, 1.388e-3
-1.106, 1.403e-3
-1.107, 1.421e-3
-1.108, 1.437e-3
-1.109, 1.452e-3
-1.110, 1.468e-3
-1.111, 1.480e-3
-1.112, 1.495e-3
-1.113, 1.508e-3
-1.114, 1.520e-3
-1.115, 1.532e-3
-1.116, 1.545e-3
-1.117, 1.560e-3
-1.118, 1.576e-3
-1.119, 1.591e-3
-1.120, 1.610e-3
-1.121, 1.625e-3
-1.122, 1.640e-3
-1.123, 1.656e-3
-1.124, 1.671e-3
-1.125, 1.684e-3
-1.126, 1.696e-3
-1.127, 1.711e-3
-1.128, 1.724e-3
-1.129, 1.739e-3
-1.130, 1.754e-3
-1.131, 1.770e-3
-1.132, 1.788e-3
-1.133, 1.804e-3
-1.134, 1.825e-3
-1.135, 1.841e-3
-1.136, 1.856e-3
-1.137, 1.872e-3
-1.138, 1.887e-3
-1.139, 1.899e-3
-1.140, 1.912e-3
-1.141, 1.924e-3
-1.142, 1.939e-3
-1.143, 1.952e-3
-1.144, 1.967e-3
-1.145, 1.986e-3
-1.146, 2.001e-3
-1.147, 2.020e-3
-1.148, 2.035e-3
-1.149, 2.050e-3
-1.150, 2.066e-3
-1.151, 2.078e-3
-1.152, 2.094e-3
-1.153, 2.106e-3
-1.154, 2.118e-3
-1.155, 2.134e-3
-1.156, 2.149e-3
-1.157, 2.168e-3
-1.158, 2.183e-3
-1.159, 2.205e-3
-1.160, 2.223e-3
-1.161, 2.242e-3
-1.162, 2.257e-3
-1.163, 2.272e-3
-1.164, 2.291e-3
-1.165, 2.303e-3
-1.166, 2.316e-3
-1.167, 2.328e-3
-1.168, 2.343e-3
-1.169, 2.359e-3
-1.170, 2.374e-3
-1.171, 2.393e-3
-1.172, 2.411e-3
-1.173, 2.430e-3
-1.174, 2.448e-3
-1.175, 2.464e-3
-1.176, 2.482e-3
-1.177, 2.497e-3
-1.178, 2.513e-3
-1.179, 2.525e-3
-1.180, 2.541e-3
-1.181, 2.556e-3
-1.182, 2.575e-3
-1.183, 2.587e-3
-1.184, 2.605e-3
-1.185, 2.627e-3
-1.186, 2.642e-3
-1.187, 2.664e-3
-1.188, 2.682e-3
-1.189, 2.701e-3
-1.190, 2.713e-3
-1.191, 2.729e-3
-1.192, 2.741e-3
-1.193, 2.756e-3
-1.194, 2.769e-3
-1.195, 2.781e-3
-1.196, 2.797e-3
-1.197, 2.812e-3
-1.198, 2.830e-3
-1.199, 2.849e-3
-1.200, 2.864e-3
-1.201, 2.883e-3
-1.202, 2.898e-3
-1.203, 2.914e-3
-1.204, 2.929e-3
-1.205, 2.941e-3
-1.206, 2.957e-3
-1.207, 2.966e-3
-1.208, 2.982e-3
-1.209, 2.994e-3
-1.210, 3.012e-3
-1.211, 3.028e-3
-1.212, 3.046e-3
-1.213, 3.062e-3
-1.214, 3.080e-3
-1.215, 3.099e-3
-1.216, 3.117e-3
-1.217, 3.133e-3
-1.218, 3.145e-3
-1.219, 3.160e-3
-1.220, 3.176e-3
-1.221, 3.191e-3
-1.222, 3.207e-3
-1.223, 3.225e-3
-1.224, 3.241e-3
-1.225, 3.259e-3
-1.226, 3.278e-3
-1.227, 3.296e-3
-1.228, 3.311e-3
-1.229, 3.333e-3
-1.230, 3.348e-3
-1.231, 3.361e-3
-1.232, 3.373e-3
-1.233, 3.385e-3
-1.234, 3.395e-3
-1.235, 3.410e-3
-1.236, 3.422e-3
-1.237, 3.441e-3
-1.238, 3.456e-3
-1.239, 3.478e-3
-1.240, 3.496e-3
-1.241, 3.518e-3
-1.242, 3.533e-3
-1.243, 3.552e-3
-1.244, 3.567e-3
-1.245, 3.580e-3
-1.246, 3.595e-3
-1.247, 3.604e-3
-1.248, 3.617e-3
-1.249, 3.629e-3
-1.250, 3.641e-3
-1.251, 3.657e-3
-1.252, 3.675e-3
-1.253, 3.691e-3
-1.254, 3.709e-3
-1.255, 3.725e-3
-1.256, 3.743e-3
-1.257, 3.758e-3
-1.258, 3.774e-3
-1.259, 3.786e-3
-1.260, 3.802e-3
-1.261, 3.814e-3
-1.262, 3.826e-3
-1.263, 3.839e-3
-1.264, 3.854e-3
-1.265, 3.869e-3
-1.266, 3.885e-3
-1.267, 3.900e-3
-1.268, 3.913e-3
-1.269, 3.925e-3
-1.270, 3.940e-3
-1.271, 3.953e-3
-1.272, 3.965e-3
-1.273, 3.977e-3
-1.274, 3.990e-3
-1.275, 4.005e-3
-1.276, 4.017e-3
-1.277, 4.036e-3
-1.278, 4.054e-3
-1.279, 4.070e-3
-1.280, 4.088e-3
-1.281, 4.101e-3
-1.282, 4.116e-3
-1.283, 4.128e-3
-1.284, 4.141e-3
-1.285, 4.150e-3
-1.286, 4.162e-3
-1.287, 4.172e-3
-1.288, 4.184e-3
-1.289, 4.196e-3
-1.290, 4.209e-3
-1.291, 4.221e-3
-1.292, 4.239e-3
-1.293, 4.255e-3
-1.294, 4.267e-3
-1.295, 4.283e-3
-1.296, 4.298e-3
-1.297, 4.310e-3
-1.298, 4.323e-3
-1.299, 4.335e-3
-1.300, 4.344e-3
-1.301, 4.354e-3
-1.302, 4.363e-3
-1.303, 4.375e-3
-1.304, 4.391e-3
-1.305, 4.403e-3
-1.306, 4.412e-3
-1.307, 4.421e-3
-1.308, 4.437e-3
-1.309, 4.446e-3
-1.310, 4.458e-3
-1.311, 4.471e-3
-1.312, 4.480e-3
-1.313, 4.492e-3
-1.314, 4.505e-3
-1.315, 4.517e-3
-1.316, 4.532e-3
-1.317, 4.545e-3
-1.318, 4.560e-3
-1.319, 4.575e-3
-1.320, 4.588e-3
-1.321, 4.600e-3
-1.322, 4.609e-3
-1.323, 4.622e-3
-1.324, 4.631e-3
-1.325, 4.637e-3
-1.326, 4.640e-3
-1.327, 4.643e-3
-1.328, 4.653e-3
-1.329, 4.659e-3
-1.330, 4.668e-3
-1.331, 4.680e-3
-1.332, 4.690e-3
-1.333, 4.705e-3
-1.334, 4.714e-3
-1.335, 4.727e-3
-1.336, 4.739e-3
-1.337, 4.745e-3
-1.338, 4.751e-3
-1.339, 4.757e-3
-1.340, 4.760e-3
-1.341, 4.764e-3
-1.342, 4.773e-3
-1.343, 4.779e-3
-1.344, 4.785e-3
-1.345, 4.797e-3
-1.346, 4.810e-3
-1.347, 4.822e-3
-1.348, 4.834e-3
-1.349, 4.844e-3
-1.350, 4.853e-3
-1.351, 4.856e-3
-1.352, 4.865e-3
-1.353, 4.868e-3
-1.354, 4.871e-3
-1.355, 4.881e-3
-1.356, 4.887e-3
-1.357, 4.899e-3
-1.358, 4.908e-3
-1.359, 4.918e-3
-1.360, 4.921e-3
-1.361, 4.927e-3
-1.362, 4.933e-3
-1.363, 4.936e-3
-1.364, 4.936e-3
-1.365, 4.939e-3
-1.366, 4.930e-3
-1.367, 4.921e-3
-1.368, 4.924e-3
-1.369, 4.930e-3
-1.370, 4.939e-3
-1.371, 4.952e-3
-1.372, 4.967e-3
-1.373, 4.982e-3
-1.374, 4.998e-3
-1.375, 5.007e-3
-1.376, 5.016e-3
-1.377, 5.023e-3
-1.378, 5.026e-3
-1.379, 5.029e-3
-1.380, 5.032e-3
-1.381, 5.035e-3
-1.382, 5.044e-3
-1.383, 5.056e-3
-1.384, 5.072e-3
-1.385, 5.084e-3
-1.386, 5.093e-3
-1.387, 5.103e-3
-1.388, 5.115e-3
-1.389, 5.124e-3
-1.390, 5.130e-3
-1.391, 5.140e-3
-1.392, 5.146e-3
-1.393, 5.146e-3
-1.394, 5.149e-3
-1.395, 5.149e-3
-1.396, 5.149e-3
-1.397, 5.152e-3
-1.398, 5.155e-3
-1.399, 5.161e-3
-1.400, 5.164e-3
-1.401, 5.174e-3
-1.402, 5.183e-3
-1.403, 5.192e-3
-1.404, 5.201e-3
-1.405, 5.208e-3
-1.406, 5.217e-3
-1.407, 5.217e-3
-1.408, 5.229e-3
-1.409, 5.245e-3
-1.410, 5.257e-3
-1.411, 5.272e-3
-1.412, 5.288e-3
-1.413, 5.300e-3
-1.414, 5.312e-3
-1.415, 5.322e-3
-1.416, 5.328e-3
-1.417, 5.331e-3
-1.418, 5.334e-3
-1.419, 5.337e-3
-1.420, 5.340e-3
-1.421, 5.343e-3
-1.422, 5.352e-3
-1.423, 5.359e-3
-1.424, 5.365e-3
-1.425, 5.380e-3
-1.426, 5.389e-3
-1.427, 5.405e-3
-1.428, 5.414e-3
-1.429, 5.426e-3
-1.430, 5.439e-3
-1.431, 5.451e-3
-1.432, 5.460e-3
-1.433, 5.473e-3
-1.434, 5.479e-3
-1.435, 5.485e-3
-1.436, 5.491e-3
-1.437, 5.500e-3
-1.438, 5.510e-3
-1.439, 5.519e-3
-1.440, 5.528e-3
-1.441, 5.541e-3
-1.442, 5.547e-3
-1.443, 5.556e-3
-1.444, 5.568e-3
-1.445, 5.578e-3
-1.446, 5.590e-3
-1.447, 5.599e-3
-1.448, 5.611e-3
-1.449, 5.627e-3
-1.450, 5.642e-3
-1.451, 5.658e-3
-1.452, 5.673e-3
-1.453, 5.682e-3
-1.454, 5.698e-3
-1.455, 5.710e-3
-1.456, 5.722e-3
-1.457, 5.732e-3
-1.458, 5.741e-3
-1.459, 5.750e-3
-1.460, 5.759e-3
-1.461, 5.772e-3
-1.462, 5.781e-3
-1.463, 5.793e-3
-1.464, 5.803e-3
-1.465, 5.812e-3
-1.466, 5.821e-3
-1.467, 5.830e-3
-1.468, 5.843e-3
-1.469, 5.855e-3
-1.470, 5.867e-3
-1.471, 5.880e-3
-1.472, 5.895e-3
-1.473, 5.910e-3
-1.474, 5.926e-3
-1.475, 5.941e-3
-1.476, 5.957e-3
-1.477, 5.966e-3
-1.478, 5.975e-3
-1.479, 5.981e-3
-1.480, 5.988e-3
-1.481, 5.994e-3
-1.482, 6.000e-3
-1.483, 6.006e-3
-1.484, 6.012e-3
-1.485, 6.021e-3
-1.486, 6.037e-3
-1.487, 6.052e-3
-1.488, 6.074e-3
-1.489, 6.095e-3
-1.490, 6.120e-3
-1.491, 6.145e-3
-1.492, 6.163e-3
-1.493, 6.185e-3
-1.494, 6.203e-3
-1.495, 6.222e-3
-1.496, 6.237e-3
-1.497, 6.253e-3
-1.498, 6.271e-3
-1.499, 6.290e-3
-1.500, 6.243e-3
-1.499, 6.111e-3
-1.498, 6.000e-3
-1.497, 5.904e-3
-1.496, 5.815e-3
-1.495, 5.735e-3
-1.494, 5.658e-3
-1.493, 5.581e-3
-1.492, 5.507e-3
-1.491, 5.436e-3
-1.490, 5.368e-3
-1.489, 5.300e-3
-1.488, 5.226e-3
-1.487, 5.158e-3
-1.486, 5.087e-3
-1.485, 5.023e-3
-1.484, 4.958e-3
-1.483, 4.899e-3
-1.482, 4.844e-3
-1.481, 4.788e-3
-1.480, 4.736e-3
-1.479, 4.680e-3
-1.478, 4.625e-3
-1.477, 4.572e-3
-1.476, 4.517e-3
-1.475, 4.461e-3
-1.474, 4.409e-3
-1.473, 4.354e-3
-1.472, 4.304e-3
-1.471, 4.252e-3
-1.470, 4.206e-3
-1.469, 4.159e-3
-1.468, 4.113e-3
-1.467, 4.067e-3
-1.466, 4.021e-3
-1.465, 3.971e-3
-1.464, 3.928e-3
-1.463, 3.879e-3
-1.462, 3.829e-3
-1.461, 3.777e-3
-1.460, 3.725e-3
-1.459, 3.672e-3
-1.458, 3.620e-3
-1.457, 3.573e-3
-1.456, 3.527e-3
-1.455, 3.481e-3
-1.454, 3.438e-3
-1.453, 3.398e-3
-1.452, 3.351e-3
-1.451, 3.311e-3
-1.450, 3.265e-3
-1.449, 3.216e-3
-1.448, 3.170e-3
-1.447, 3.126e-3
-1.446, 3.080e-3
-1.445, 3.037e-3
-1.444, 2.991e-3
-1.443, 2.948e-3
-1.442, 2.904e-3
-1.441, 2.864e-3
-1.440, 2.827e-3
-1.439, 2.784e-3
-1.438, 2.747e-3
-1.437, 2.707e-3
-1.436, 2.664e-3
-1.435, 2.621e-3
-1.434, 2.581e-3
-1.433, 2.541e-3
-1.432, 2.504e-3
-1.431, 2.464e-3
-1.430, 2.427e-3
-1.429, 2.390e-3
-1.428, 2.356e-3
-1.427, 2.322e-3
-1.426, 2.288e-3
-1.425, 2.251e-3
-1.424, 2.217e-3
-1.423, 2.180e-3
-1.422, 2.143e-3
-1.421, 2.106e-3
-1.420, 2.069e-3
-1.419, 2.029e-3
-1.418, 1.992e-3
-1.417, 1.958e-3
-1.416, 1.924e-3
-1.415, 1.893e-3
-1.414, 1.862e-3
-1.413, 1.828e-3
-1.412, 1.795e-3
-1.411, 1.761e-3
-1.410, 1.727e-3
-1.409, 1.693e-3
-1.408, 1.659e-3
-1.407, 1.622e-3
-1.406, 1.588e-3
-1.405, 1.557e-3
-1.404, 1.529e-3
-1.403, 1.499e-3
-1.402, 1.471e-3
-1.401, 1.443e-3
-1.400, 1.415e-3
-1.399, 1.388e-3
-1.398, 1.360e-3
-1.397, 1.329e-3
-1.396, 1.301e-3
-1.395, 1.270e-3
-1.394, 1.240e-3
-1.393, 1.209e-3
-1.392, 1.181e-3
-1.391, 1.153e-3
-1.390, 1.125e-3
-1.389, 1.101e-3
-1.388, 1.079e-3
-1.387, 1.051e-3
-1.386, 1.027e-3
-1.385, 1.005e-3
-1.384, 9.806e-4
-1.383, 9.559e-4
-1.382, 9.282e-4
-1.381, 9.035e-4
-1.380, 8.758e-4
-1.379, 8.511e-4
-1.378, 8.264e-4
-1.377, 8.018e-4
-1.376, 7.802e-4
-1.375, 7.555e-4
-1.374, 7.339e-4
-1.373, 7.154e-4
-1.372, 6.939e-4
-1.371, 6.723e-4
-1.370, 6.507e-4
-1.369, 6.260e-4
-1.368, 6.014e-4
-1.367, 5.798e-4
-1.366, 5.551e-4
-1.365, 5.335e-4
-1.364, 5.120e-4
-1.363, 4.935e-4
-1.362, 4.750e-4
-1.361, 4.565e-4
-1.360, 4.380e-4
-1.359, 4.164e-4
-1.358, 3.948e-4
-1.357, 3.763e-4
-1.356, 3.547e-4
-1.355, 3.331e-4
-1.354, 3.115e-4
-1.353, 2.900e-4
-1.352, 2.684e-4
-1.351, 2.468e-4
-1.350, 2.314e-4
-1.349, 2.160e-4
-1.348, 1.975e-4
-1.347, 1.821e-4
-1.346, 1.636e-4
-1.345, 1.481e-4
-1.344, 1.327e-4
-1.343, 1.111e-4
-1.342, 9.265e-5
-1.341, 7.415e-5
-1.340, 5.257e-5
-1.339, 3.407e-5
-1.338, 1.557e-5
-1.337, -2.927e-6
-1.336, -1.834e-5
-1.335, -3.376e-5
-1.334, -4.609e-5
-1.333, -6.151e-5
-1.332, -7.692e-5
-1.331, -9.234e-5
-1.330, -1.108e-4
-1.329, -1.293e-4
-1.328, -1.448e-4
-1.327, -1.632e-4
-1.326, -1.817e-4
-1.325, -1.972e-4
-1.324, -2.126e-4
-1.323, -2.280e-4
-1.322, -2.434e-4
-1.321, -2.557e-4
-1.320, -2.681e-4
-1.319, -2.804e-4
-1.318, -2.958e-4
-1.317, -3.143e-4
-1.316, -3.267e-4
-1.315, -3.452e-4
-1.314, -3.606e-4
-1.313, -3.791e-4
-1.312, -3.914e-4
-1.311, -4.068e-4
-1.310, -4.222e-4
-1.309, -4.346e-4
-1.308, -4.469e-4
-1.307, -4.592e-4
-1.306, -4.716e-4
-1.305, -4.839e-4
-1.304, -4.993e-4
-1.303, -5.116e-4
-1.302, -5.301e-4
-1.301, -5.486e-4
-1.300, -5.610e-4
-1.299, -5.764e-4
-1.298, -5.918e-4
-1.297, -6.041e-4
-1.296, -6.195e-4
-1.295, -6.288e-4
-1.294, -6.411e-4
-1.293, -6.504e-4
-1.292, -6.627e-4
-1.291, -6.781e-4
-1.290, -6.905e-4
-1.289, -7.059e-4
-1.288, -7.182e-4
-1.287, -7.336e-4
-1.286, -7.521e-4
-1.285, -7.645e-4
-1.284, -7.768e-4
-1.283, -7.891e-4
-1.282, -8.015e-4
-1.281, -8.107e-4
-1.280, -8.230e-4
-1.279, -8.354e-4
-1.278, -8.477e-4
-1.277, -8.600e-4
-1.276, -8.724e-4
-1.275, -8.878e-4
-1.274, -9.032e-4
-1.273, -9.186e-4
-1.272, -9.309e-4
-1.271, -9.433e-4
-1.270, -9.556e-4
-1.269, -9.649e-4
-1.268, -9.741e-4
-1.267, -9.864e-4
-1.266, -9.957e-4
-1.265, -1.008e-3
-1.264, -1.017e-3
-1.263, -1.033e-3
-1.262, -1.045e-3
-1.261, -1.060e-3
-1.260, -1.076e-3
-1.259, -1.088e-3
-1.258, -1.104e-3
-1.257, -1.113e-3
-1.256, -1.125e-3
-1.255, -1.134e-3
-1.254, -1.144e-3
-1.253, -1.153e-3
-1.252, -1.165e-3
-1.251, -1.175e-3
-1.250, -1.187e-3
-1.249, -1.199e-3
-1.248, -1.215e-3
-1.247, -1.230e-3
-1.246, -1.245e-3
-1.245, -1.258e-3
-1.244, -1.270e-3
-1.243, -1.282e-3
-1.242, -1.289e-3
-1.241, -1.301e-3
-1.240, -1.310e-3
-1.239, -1.322e-3
-1.238, -1.332e-3
-1.237, -1.344e-3
-1.236, -1.356e-3
-1.235, -1.369e-3
-1.234, -1.384e-3
-1.233, -1.396e-3
-1.232, -1.409e-3
-1.231, -1.424e-3
-1.230, -1.433e-3
-1.229, -1.449e-3
-1.228, -1.458e-3
-1.227, -1.464e-3
-1.226, -1.474e-3
-1.225, -1.486e-3
-1.224, -1.498e-3
-1.223, -1.511e-3
-1.222, -1.526e-3
-1.221, -1.541e-3
-1.220, -1.557e-3
-1.219, -1.572e-3
-1.218, -1.585e-3
-1.217, -1.597e-3
-1.216, -1.606e-3
-1.215, -1.618e-3
-1.214, -1.628e-3
-1.213, -1.637e-3
-1.212, -1.646e-3
-1.211, -1.655e-3
-1.210, -1.668e-3
-1.209, -1.680e-3
-1.208, -1.696e-3
-1.207, -1.708e-3
-1.206, -1.723e-3
-1.205, -1.733e-3
-1.204, -1.748e-3
-1.203, -1.760e-3
-1.202, -1.770e-3
-1.201, -1.782e-3
-1.200, -1.791e-3
-1.199, -1.807e-3
-1.198, -1.819e-3
-1.197, -1.831e-3
-1.196, -1.847e-3
-1.195, -1.865e-3
-1.194, -1.884e-3
-1.193, -1.902e-3
-1.192, -1.914e-3
-1.191, -1.930e-3
-1.190, -1.939e-3
-1.189, -1.948e-3
-1.188, -1.955e-3
-1.187, -1.964e-3
-1.186, -1.970e-3
-1.185, -1.979e-3
-1.184, -1.988e-3
-1.183, -2.004e-3
-1.182, -2.019e-3
-1.181, -2.035e-3
-1.180, -2.053e-3
-1.179, -2.072e-3
-1.178, -2.090e-3
-1.177, -2.106e-3
-1.176, -2.118e-3
-1.175, -2.130e-3
-1.174, -2.143e-3
-1.173, -2.155e-3
-1.172, -2.167e-3
-1.171, -2.180e-3
-1.170, -2.195e-3
-1.169, -2.210e-3
-1.168, -2.226e-3
-1.167, -2.244e-3
-1.166, -2.260e-3
-1.165, -2.275e-3
-1.164, -2.291e-3
-1.163, -2.303e-3
-1.162, -2.315e-3
-1.161, -2.331e-3
-1.160, -2.343e-3
-1.159, -2.355e-3
-1.158, -2.368e-3
-1.157, -2.383e-3
-1.156, -2.402e-3
-1.155, -2.417e-3
-1.154, -2.432e-3
-1.153, -2.451e-3
-1.152, -2.469e-3
-1.151, -2.485e-3
-1.150, -2.500e-3
-1.149, -2.519e-3
-1.148, -2.528e-3
-1.147, -2.543e-3
-1.146, -2.556e-3
-1.145, -2.574e-3
-1.144, -2.590e-3
-1.143, -2.608e-3
-1.142, -2.627e-3
-1.141, -2.645e-3
-1.140, -2.667e-3
-1.139, -2.682e-3
-1.138, -2.701e-3
-1.137, -2.716e-3
-1.136, -2.728e-3
-1.135, -2.741e-3
-1.134, -2.750e-3
-1.133, -2.762e-3
-1.132, -2.778e-3
-1.131, -2.787e-3
-1.130, -2.799e-3
-1.129, -2.815e-3
-1.128, -2.830e-3
-1.127, -2.849e-3
-1.126, -2.867e-3
-1.125, -2.883e-3
-1.124, -2.898e-3
-1.123, -2.913e-3
-1.122, -2.926e-3
-1.121, -2.938e-3
-1.120, -2.950e-3
-1.119, -2.966e-3
-1.118, -2.978e-3
-1.117, -2.990e-3
-1.116, -3.009e-3
-1.115, -3.027e-3
-1.114, -3.043e-3
-1.113, -3.058e-3
-1.112, -3.074e-3
-1.111, -3.089e-3
-1.110, -3.101e-3
-1.109, -3.114e-3
-1.108, -3.126e-3
-1.107, -3.138e-3
-1.106, -3.151e-3
-1.105, -3.163e-3
-1.104, -3.175e-3
-1.103, -3.191e-3
-1.102, -3.203e-3
-1.101, -3.219e-3
-1.100, -3.234e-3
-1.099, -3.243e-3
-1.098, -3.256e-3
-1.097, -3.265e-3
-1.096, -3.274e-3
-1.095, -3.283e-3
-1.094, -3.299e-3
-1.093, -3.305e-3
-1.092, -3.314e-3
-1.091, -3.323e-3
-1.090, -3.336e-3
-1.089, -3.345e-3
-1.088, -3.357e-3
-1.087, -3.373e-3
-1.086, -3.385e-3
-1.085, -3.397e-3
-1.084, -3.413e-3
-1.083, -3.425e-3
-1.082, -3.434e-3
-1.081, -3.447e-3
-1.080, -3.462e-3
-1.079, -3.478e-3
-1.078, -3.487e-3
-1.077, -3.499e-3
-1.076, -3.512e-3
-1.075, -3.527e-3
-1.074, -3.539e-3
-1.073, -3.558e-3
-1.072, -3.570e-3
-1.071, -3.576e-3
-1.070, -3.582e-3
-1.069, -3.586e-3
-1.068, -3.589e-3
-1.067, -3.595e-3
-1.066, -3.598e-3
-1.065, -3.607e-3
-1.064, -3.613e-3
-1.063, -3.626e-3
-1.062, -3.638e-3
-1.061, -3.653e-3
-1.060, -3.666e-3
-1.059, -3.675e-3
-1.058, -3.684e-3
-1.057, -3.693e-3
-1.056, -3.703e-3
-1.055, -3.712e-3
-1.054, -3.718e-3
-1.053, -3.724e-3
-1.052, -3.737e-3
-1.051, -3.743e-3
-1.050, -3.749e-3
-1.049, -3.758e-3
-1.048, -3.761e-3
-1.047, -3.767e-3
-1.046, -3.777e-3
-1.045, -3.780e-3
-1.044, -3.786e-3
-1.043, -3.789e-3
-1.042, -3.792e-3
-1.041, -3.795e-3
-1.040, -3.801e-3
-1.039, -3.814e-3
-1.038, -3.820e-3
-1.037, -3.829e-3
-1.036, -3.841e-3
-1.035, -3.851e-3
-1.034, -3.860e-3
-1.033, -3.878e-3
-1.032, -3.885e-3
-1.031, -3.891e-3
-1.030, -3.891e-3
-1.029, -3.891e-3
-1.028, -3.894e-3
-1.027, -3.891e-3
-1.026, -3.897e-3
-1.025, -3.897e-3
-1.024, -3.900e-3
-1.023, -3.903e-3
-1.022, -3.912e-3
-1.021, -3.918e-3
-1.020, -3.928e-3
-1.019, -3.937e-3
-1.018, -3.946e-3
-1.017, -3.955e-3
-1.016, -3.959e-3
-1.015, -3.965e-3
-1.014, -3.965e-3
-1.013, -3.968e-3
-1.012, -3.971e-3
-1.011, -3.974e-3
-1.010, -3.977e-3
-1.009, -3.980e-3
-1.008, -3.983e-3
-1.007, -3.989e-3
-1.006, -3.992e-3
-1.005, -3.996e-3
-1.004, -4.002e-3
-1.003, -4.002e-3
-1.002, -4.002e-3
-1.001, -4.005e-3
