Potential V vs RHE, Current mA cm-2
0.05339999999999995,1.066692320098238
0.05239999999999995,0.8492511933089816
0.051399999999999946,0.6069111476421007
0.050399999999999945,0.41847160250007787
0.049399999999999944,0.2700683871442355
0.04839999999999994,0.14599820614607179
0.04739999999999994,0.038706501164307405
0.04639999999999994,-0.05548497718070674
0.04539999999999994,-0.14147112998650369
0.04439999999999994,-0.2206949627789457
0.04339999999999994,-0.2955331905418062
0.04239999999999994,-0.3658443421450985
0.04139999999999994,-0.4312040041988632
0.040399999999999936,-0.4943001281728438
0.039399999999999935,-0.5562644831069326
0.038399999999999934,-0.6172385401311155
0.03739999999999993,-0.6748172900356225
0.03639999999999993,-0.7288592616904669
0.03539999999999993,-0.7823353488253653
0.03439999999999993,-0.8360943782202367
0.03339999999999993,-0.887306927275351
0.03239999999999993,-0.9382365340704923
0.03139999999999993,-0.9871855450458225
0.030399999999999927,-1.0354272003712204
0.029399999999999926,-1.0836688556966183
0.028399999999999925,-1.1313446265020697
0.027399999999999924,-1.177747157137643
0.026399999999999924,-1.2241496877732163
0.025399999999999923,-1.2688545648489515
0.024399999999999922,-1.3144082687046057
0.02339999999999992,-1.3599619725602599
0.02239999999999992,-1.4032521383361298
0.02139999999999992,-1.4472496597619326
0.020399999999999918,-1.4911057100577487
0.019399999999999917,-1.5321323377538347
0.018399999999999916,-1.5759883880496508
0.017399999999999916,-1.6184297270456018
0.016399999999999915,-1.660871066041553
0.015399999999999914,-1.701897693737639
0.014399999999999913,-1.7443390327335901
0.013399999999999912,-1.7867803717295414
0.012399999999999911,-1.8278069994256272
0.01139999999999991,-1.8688336271217136
0.01039999999999991,-1.9098602548177994
0.009399999999999908,-1.9508868825138854
0.008399999999999908,-1.9919135102099716
0.007399999999999907,-2.0329401379060577
0.006399999999999906,-2.072552054302279
0.005399999999999905,-2.113578681998365
0.004399999999999904,-2.1546053096944506
0.003399999999999903,-2.194217226090672
0.002399999999999902,-2.235243853786758
0.0013999999999999013,-2.276270481482844
0.00039999999999990044,-2.3158823978790646
-0.0006000000000001005,-2.358323736875016
-0.0016000000000001013,-2.3979356532712375
-0.0026000000000001022,-2.438962280967323
-0.003600000000000103,-2.4785741973635442
-0.004600000000000104,-2.5196008250596305
-0.005600000000000105,-2.5606274527557162
-0.006600000000000106,-2.6016540804518025
-0.007600000000000107,-2.6426807081478887
-0.008600000000000108,-2.6851220471438397
-0.009600000000000108,-2.7247339635400607
-0.01060000000000011,-2.767175302536012
-0.01160000000000011,-2.8096166415319628
-0.012600000000000111,-2.8534726918277786
-0.013600000000000112,-2.8959140308237297
-0.014600000000000113,-2.9369406585198163
-0.015600000000000114,-2.977967286215902
-0.016600000000000115,-3.0204086252118536
-0.017600000000000116,-3.0628499642078046
-0.018600000000000116,-3.1052913032037557
-0.019600000000000117,-3.1491473534995715
-0.020600000000000118,-3.1915886924955226
-0.02160000000000012,-3.235444742791339
-0.02260000000000012,-3.27788608178729
-0.02360000000000012,-3.321742132083106
-0.024600000000000122,-3.3655981823789225
-0.025600000000000123,-3.4094542326747383
-0.026600000000000124,-3.4561397055702843
-0.027600000000000124,-3.4999957558661006
-0.028600000000000125,-3.543851806161917
-0.029600000000000126,-3.589122567757598
-0.030600000000000127,-3.6358080406531443
-0.03160000000000013,-3.681078802248825
-0.03260000000000013,-3.727764275144372
-0.03360000000000013,-3.7716203254401877
-0.03460000000000002,-3.819720509635599
-0.03560000000000002,-3.8664059825311448
-0.03660000000000002,-3.9130914554266916
-0.03760000000000002,-3.962606350921967
-0.03860000000000002,-4.009291823817514
-0.039600000000000024,-4.057392008012925
-0.040600000000000025,-4.105492192208336
-0.041600000000000026,-4.153592376403748
-0.04260000000000003,-4.203107271899024
-0.04360000000000003,-4.251207456094435
-0.04460000000000003,-4.300722351589712
-0.04560000000000003,-4.351651958384853
-0.04660000000000003,-4.402581565179994
-0.04760000000000003,-4.45209646067527
-0.04860000000000003,-4.501611356170546
-0.04960000000000003,-4.552540962965688
-0.050600000000000034,-4.603470569760829
-0.051600000000000035,-4.655814887855835
-0.052600000000000036,-4.706744494650977
-0.053600000000000037,-4.759088812745984
-0.05460000000000004,-4.811433130840991
-0.05560000000000004,-4.863777448935997
-0.05660000000000004,-4.9175364783308675
-0.05760000000000004,-4.971295507725738
-0.05860000000000004,-5.02505453712061
-0.05960000000000004,-5.077398855215616
-0.06060000000000004,-5.131157884610488
-0.061600000000000044,-5.18774633660509
-0.06260000000000004,-5.241505365999961
-0.06360000000000005,-5.296679106694698
-0.06460000000000005,-5.3504381360895685
-0.06560000000000005,-5.405611876784305
-0.06660000000000005,-5.463615040078771
-0.06760000000000005,-5.518788780773508
-0.06860000000000005,-5.5739625214682444
-0.06960000000000005,-5.630550973462847
-0.07060000000000005,-5.687139425457448
-0.07160000000000005,-5.7437278774520495
-0.07260000000000005,-5.801731040746516
-0.07360000000000005,-5.856904781441251
-0.07460000000000006,-5.914907944735719
-0.07560000000000006,-5.9729111080301855
-0.07660000000000006,-6.0323289826245166
-0.07760000000000006,-6.090332145918983
-0.07860000000000006,-6.146920597913584
-0.07960000000000006,-6.204923761208051
-0.08060000000000006,-6.265756347102247
-0.08160000000000006,-6.323759510396714
-0.08260000000000006,-6.383177384991045
-0.08360000000000006,-6.442595259585377
-0.08460000000000006,-6.500598422879844
-0.08560000000000006,-6.56143100877404
-0.08660000000000007,-6.620848883368372
-0.08760000000000007,-6.680266757962703
-0.08860000000000007,-6.7410993438569
-0.08960000000000007,-6.800517218451231
-0.09060000000000007,-6.861349804345428
-0.09160000000000007,-6.922182390239625
-0.09260000000000007,-6.983014976133821
-0.09360000000000007,-7.042432850728153
-0.09460000000000007,-7.103265436622349
-0.09560000000000007,-7.164098022516545
-0.09660000000000007,-7.226345319710607
-0.09760000000000008,-7.287177905604803
-0.09860000000000008,-7.349425202798865
-0.09960000000000008,-7.408843077393197
-0.10060000000000008,-7.471090374587258
-0.10160000000000008,-7.53333767178132
-0.10260000000000008,-7.5941702576755175
-0.10360000000000008,-7.656417554869579
-0.10460000000000008,-7.7186648520636405
-0.10560000000000008,-7.780912149257703
-0.10660000000000008,-7.8431594464517636
-0.10760000000000008,-7.905406743645826
-0.10860000000000009,-7.967654040839887
-0.10960000000000009,-8.029901338033948
-0.11060000000000009,-8.092148635228009
-0.11160000000000009,-8.154395932422071
-0.11260000000000009,-8.218057940915998
-0.11360000000000009,-8.28030523811006
-0.11460000000000009,-8.343967246603986
-0.11560000000000009,-8.40904396639778
-0.11660000000000009,-8.472705974891705
-0.1176000000000001,-8.534953272085767
-0.1186000000000001,-8.597200569279828
-0.1196000000000001,-8.660862577773754
-0.1206000000000001,-8.72452458626768
-0.1216000000000001,-8.788186594761608
-0.1226000000000001,-8.851848603255535
-0.1236000000000001,-8.914095900449595
-0.1246000000000001,-8.977757908943524
-0.1256000000000001,-9.042834628737316
-0.1266000000000001,-9.10649663723124
-0.1276000000000001,-9.171573357025034
-0.1286000000000001,-9.23523536551896
-0.1296000000000001,-9.298897374012885
-0.1306000000000001,-9.365388805106543
-0.1316000000000001,-9.429050813600469
-0.1326000000000001,-9.492712822094397
-0.1336000000000001,-9.557789541888187
-0.1346000000000001,-9.622866261681981
-0.1356000000000001,-9.68794298147577
-0.1366000000000001,-9.753019701269562
-0.1376000000000001,-9.818096421063354
-0.1386000000000001,-9.883173140857146
-0.1396000000000001,-9.949664571950803
-0.1406000000000001,-10.01615600304446
-0.14160000000000011,-10.082647434138115
-0.14260000000000012,-10.14772415393191
-0.14360000000000012,-10.214215585025565
-0.14460000000000012,-10.279292304819355
-0.14560000000000012,-10.345783735913013
-0.14660000000000012,-10.412275167006669
-0.14760000000000012,-10.48018130940019
-0.14860000000000012,-10.545258029193985
-0.14960000000000012,-10.613164171587506
-0.15060000000000012,-10.679655602681162
-0.15160000000000012,-10.747561745074684
-0.15260000000000012,-10.815467887468206
-0.15360000000000013,-10.881959318561863
-0.15460000000000013,-10.949865460955383
-0.15560000000000013,-11.017771603348905
-0.15660000000000013,-11.085677745742426
-0.15760000000000013,-11.153583888135948
-0.15860000000000013,-11.22149003052947
-0.15960000000000002,-11.289396172922991
-0.16060000000000002,-11.358717026616379
-0.16160000000000002,-11.428037880309766
-0.16260000000000002,-11.497358734003152
-0.16360000000000002,-11.565264876396675
-0.16460000000000002,-11.634585730090063
-0.16560000000000002,-11.70673600638318
-0.16660000000000003,-11.783130416575892
-0.16760000000000003,-11.853865981569143
-0.16860000000000003,-11.921772123962665
-0.16960000000000003,-11.991092977656052
-0.17060000000000003,-12.061828542649302
-0.17160000000000003,-12.131149396342689
-0.17260000000000003,-12.200470250036076
-0.17360000000000003,-12.27120581502933
-0.17460000000000003,-12.340526668722715
-0.17560000000000003,-12.412676945015832
-0.17660000000000003,-12.481997798709218
-0.17760000000000004,-12.554148075002335
-0.17860000000000004,-12.624883639995588
-0.17960000000000004,-12.697033916288705
-0.18060000000000004,-12.767769481281956
-0.18160000000000004,-12.839919757575073
-0.18260000000000004,-12.91207003386819
-0.18360000000000004,-12.984220310161305
-0.18460000000000004,-13.056370586454424
-0.18560000000000004,-13.127106151447675
-0.18660000000000004,-13.200671139040656
-0.18760000000000004,-13.272821415333775
-0.18860000000000005,-13.343556980327028
-0.18960000000000005,-13.417121967920007
-0.19060000000000005,-13.49068695551299
-0.19160000000000005,-13.562837231806107
-0.19260000000000005,-13.634987508099224
-0.19360000000000005,-13.70713778439234
-0.19460000000000005,-13.780702771985322
-0.19560000000000005,-13.852853048278439
-0.19660000000000005,-13.926418035871421
-0.19760000000000005,-14.00139773476427
-0.19860000000000005,-14.073548011057385
-0.19960000000000006,-14.147112998650368
-0.20060000000000006,-14.217848563643619
-0.20160000000000006,-14.288584128636872
-0.20260000000000006,-14.30273124163552
-0.20360000000000006,-14.30273124163552
-0.20460000000000006,-14.30273124163552
-0.20560000000000006,-14.30273124163552
-0.20660000000000006,-14.30273124163552
-0.20760000000000006,-14.30273124163552
-0.20860000000000006,-14.30273124163552
-0.20960000000000006,-14.30273124163552
-0.21060000000000006,-14.30273124163552
-0.21160000000000007,-14.30273124163552
-0.21260000000000007,-14.30273124163552
-0.21360000000000007,-14.30273124163552
-0.21460000000000007,-14.30273124163552
-0.21560000000000007,-14.30273124163552
-0.21660000000000007,-14.30273124163552
-0.21760000000000007,-14.30273124163552
-0.21860000000000007,-14.30273124163552
-0.21960000000000007,-14.30273124163552
-0.22060000000000007,-14.30273124163552
-0.22160000000000007,-14.30273124163552
-0.22260000000000008,-14.30273124163552
-0.22360000000000008,-14.30273124163552
-0.22460000000000008,-14.30273124163552
-0.22560000000000008,-14.30273124163552
-0.22660000000000008,-14.30273124163552
-0.22760000000000008,-14.30273124163552
-0.22860000000000008,-14.30273124163552
-0.22960000000000008,-14.30273124163552
-0.23060000000000008,-14.30273124163552
-0.23160000000000008,-14.30273124163552
-0.23260000000000008,-14.30273124163552
-0.23360000000000009,-14.30273124163552
-0.2346000000000001,-14.30273124163552
-0.2356000000000001,-14.30273124163552
-0.2366000000000001,-14.30273124163552
-0.2376000000000001,-14.30273124163552
-0.2386000000000001,-14.30273124163552
-0.2396000000000001,-14.30273124163552
-0.2406000000000001,-14.30273124163552
-0.2416000000000001,-14.30273124163552
-0.2426000000000001,-14.30273124163552
-0.2436000000000001,-14.30273124163552
-0.2446000000000001,-14.30273124163552
-0.2456000000000001,-14.30273124163552
-0.2466000000000001,-14.30273124163552
-0.2476000000000001,-14.30273124163552
-0.2486000000000001,-14.30273124163552
-0.2496000000000001,-14.30273124163552
-0.2506000000000001,-14.30273124163552
-0.2516000000000001,-14.30273124163552
-0.2526000000000001,-14.30273124163552
-0.2536000000000001,-14.30273124163552
-0.2546000000000001,-14.30273124163552
-0.2556000000000001,-14.30273124163552
-0.2566000000000001,-14.30273124163552
-0.2576000000000001,-14.30273124163552
-0.2586000000000001,-14.30273124163552
-0.2596000000000001,-14.30273124163552
-0.2606000000000001,-14.30273124163552
-0.2616000000000001,-14.30273124163552
-0.2626000000000001,-14.30273124163552
-0.2636000000000001,-14.30273124163552
-0.2646000000000001,-14.30273124163552
-0.2656000000000001,-14.30273124163552
-0.2666000000000001,-14.30273124163552
-0.2676000000000001,-14.30273124163552
-0.2686000000000001,-14.30273124163552
-0.2696000000000001,-14.30273124163552
-0.2706000000000001,-14.30273124163552
-0.2716000000000001,-14.30273124163552
-0.2726000000000001,-14.30273124163552
-0.2736000000000001,-14.30273124163552
-0.2746000000000001,-14.30273124163552
-0.2756000000000001,-14.30273124163552
-0.2766000000000001,-14.30273124163552
-0.2776000000000001,-14.30273124163552
-0.2786000000000001,-14.30273124163552
-0.2796000000000001,-14.30273124163552
-0.2806000000000001,-14.30273124163552
-0.28160000000000013,-14.30273124163552
-0.28260000000000013,-14.30273124163552
-0.28360000000000013,-14.30273124163552
-0.2846,-14.30273124163552
-0.2856,-14.30273124163552
-0.2866,-14.30273124163552
-0.2876,-14.30273124163552
-0.2886,-14.30273124163552
-0.2896,-14.30273124163552
-0.2906,-14.30273124163552
-0.2916,-14.30273124163552
-0.2926,-14.30273124163552
-0.2936,-14.30273124163552
-0.29460000000000003,-14.30273124163552
-0.29560000000000003,-14.30273124163552
-0.29660000000000003,-14.30273124163552
-0.29760000000000003,-14.30273124163552
-0.29860000000000003,-14.30273124163552
-0.29960000000000003,-14.30273124163552
-0.30060000000000003,-14.30273124163552
-0.30160000000000003,-14.30273124163552
-0.30260000000000004,-14.30273124163552
-0.30360000000000004,-14.30273124163552
-0.30460000000000004,-14.30273124163552
-0.30560000000000004,-14.30273124163552
-0.30660000000000004,-14.30273124163552
-0.30760000000000004,-14.30273124163552
-0.30860000000000004,-14.30273124163552
-0.30960000000000004,-14.30273124163552
-0.31060000000000004,-14.30273124163552
-0.31160000000000004,-14.30273124163552
-0.31260000000000004,-14.30273124163552
-0.31360000000000005,-14.30273124163552
-0.31460000000000005,-14.30273124163552
-0.31560000000000005,-14.30273124163552
-0.31660000000000005,-14.30273124163552
-0.31760000000000005,-14.30273124163552
-0.31860000000000005,-14.30273124163552
-0.31960000000000005,-14.30273124163552
-0.32060000000000005,-14.30273124163552
-0.32160000000000005,-14.30273124163552
-0.32260000000000005,-14.30273124163552
-0.32360000000000005,-14.30273124163552
-0.32460000000000006,-14.30273124163552
-0.32560000000000006,-14.30273124163552
-0.32660000000000006,-14.30273124163552
-0.32760000000000006,-14.30273124163552
-0.32860000000000006,-14.30273124163552
-0.32960000000000006,-14.30273124163552
-0.33060000000000006,-14.30273124163552
-0.33160000000000006,-14.30273124163552
-0.33260000000000006,-14.30273124163552
-0.33360000000000006,-14.30273124163552
-0.33460000000000006,-14.30273124163552
-0.33560000000000006,-14.30273124163552
-0.33660000000000007,-14.30273124163552
-0.33760000000000007,-14.30273124163552
-0.33860000000000007,-14.30273124163552
-0.33960000000000007,-14.30273124163552
-0.34060000000000007,-14.30273124163552
-0.34160000000000007,-14.30273124163552
-0.34260000000000007,-14.30273124163552
-0.34360000000000007,-14.30273124163552
-0.3446000000000001,-14.30273124163552
-0.3456000000000001,-14.30273124163552
-0.3466000000000001,-14.30273124163552
-0.34759999999999996,-14.30273124163552
-0.3486000000000001,-14.30273124163552
-0.34959999999999997,-14.30273124163552
-0.3506000000000001,-14.30273124163552
-0.35159999999999997,-14.30273124163552
-0.3526000000000001,-14.30273124163552
-0.35359999999999997,-14.30273124163552
-0.3546000000000001,-14.30273124163552
-0.35559999999999997,-14.30273124163552
-0.3566000000000001,-14.30273124163552
-0.3576,-14.30273124163552
-0.3586000000000001,-14.30273124163552
-0.3596,-14.30273124163552
-0.3606000000000001,-14.30273124163552
-0.3616,-14.30273124163552
-0.3626000000000001,-14.30273124163552
-0.3636,-14.30273124163552
-0.3646000000000001,-14.30273124163552
-0.3656,-14.30273124163552
-0.3666000000000001,-14.30273124163552
-0.3676,-14.30273124163552
-0.3686000000000001,-14.30273124163552
-0.3696,-14.30273124163552
-0.3706000000000001,-14.30273124163552
-0.3716,-14.30273124163552
-0.3726000000000001,-14.30273124163552
-0.3736,-14.30273124163552
-0.3746000000000001,-14.30273124163552
-0.3756,-14.30273124163552
-0.3766000000000001,-14.30273124163552
-0.3776,-14.30273124163552
-0.3786000000000001,-14.30273124163552
-0.3796,-14.30273124163552
-0.3806000000000001,-14.30273124163552
-0.3816,-14.30273124163552
-0.3826000000000001,-14.30273124163552
-0.3836,-14.30273124163552
-0.3846000000000001,-14.30273124163552
-0.3856,-14.30273124163552
-0.3866000000000001,-14.30273124163552
-0.3876,-14.30273124163552
-0.3886000000000001,-14.30273124163552
-0.3896,-14.30273124163552
-0.3906000000000001,-14.30273124163552
-0.3916,-14.30273124163552
-0.3926000000000001,-14.30273124163552
-0.3936,-14.30273124163552
-0.3946000000000001,-14.30273124163552
-0.3956,-14.30273124163552
-0.3966000000000001,-14.30273124163552
-0.3976,-14.30273124163552
-0.3986000000000001,-14.30273124163552
-0.3996,-14.30273124163552
-0.4006000000000001,-14.30273124163552
-0.4016,-14.30273124163552
-0.4026000000000001,-14.30273124163552
-0.4036,-14.30273124163552
-0.4046000000000001,-14.30273124163552
-0.4056,-14.30273124163552
-0.40660000000000013,-14.30273124163552
-0.4076,-14.30273124163552
-0.40860000000000013,-14.30273124163552
-0.4096,-14.30273124163552
-0.41060000000000013,-14.30273124163552
-0.4116,-14.30273124163552
-0.41260000000000013,-14.30273124163552
-0.4136,-14.30273124163552
-0.41460000000000014,-14.30273124163552
-0.4156,-14.30273124163552
-0.41660000000000014,-14.30273124163552
-0.4176,-14.30273124163552
-0.41860000000000014,-14.30273124163552
-0.41960000000000003,-14.30273124163552
-0.42060000000000014,-14.30273124163552
-0.42160000000000003,-14.30273124163552
-0.42260000000000014,-14.30273124163552
-0.42360000000000003,-14.30273124163552
-0.42460000000000014,-14.30273124163552
-0.42560000000000003,-14.30273124163552
-0.42660000000000015,-14.30273124163552
-0.42760000000000004,-14.30273124163552
-0.42860000000000015,-14.30273124163552
-0.42960000000000004,-14.30273124163552
-0.43060000000000015,-14.30273124163552
-0.43160000000000004,-14.30273124163552
-0.43260000000000015,-14.30273124163552
-0.43360000000000004,-14.30273124163552
-0.43460000000000015,-14.30273124163552
-0.43560000000000004,-14.30273124163552
-0.43660000000000015,-14.30273124163552
-0.43760000000000004,-14.30273124163552
-0.43860000000000016,-14.30273124163552
-0.43960000000000005,-14.30273124163552
-0.44060000000000016,-14.30273124163552
-0.44160000000000005,-14.30273124163552
-0.44260000000000016,-14.30273124163552
-0.44360000000000005,-14.30273124163552
-0.44460000000000016,-14.30273124163552
-0.44560000000000005,-14.30273124163552
-0.44660000000000016,-14.30273124163552
-0.44760000000000005,-14.30273124163552
-0.44860000000000017,-14.30273124163552
-0.44960000000000006,-14.30273124163552
-0.45060000000000017,-14.30273124163552
-0.45160000000000006,-14.30273124163552
-0.45260000000000017,-14.30273124163552
-0.45360000000000006,-14.30273124163552
-0.45460000000000017,-14.30273124163552
-0.45560000000000006,-14.30273124163552
-0.4566000000000002,-14.30273124163552
