Potential V vs RHE, Current mA cm-2
0.013299999999999867,-0.5255652478998613
0.012299999999999978,-1.5717442541500557
0.011299999999999866,-2.2706116362833835
0.010299999999999976,-2.794054817233447
0.009299999999999864,-3.1420737970002466
0.008299999999999974,-3.403795387475278
0.007299999999999862,-3.579219588658543
0.006299999999999972,-3.7532290785419424
0.00529999999999986,-3.884797229429391
0.0042999999999999705,-4.014950669016974
0.0032999999999998586,-4.102662769608606
0.0022999999999999687,-4.1889601589003735
0.0012999999999998568,-4.23281620919619
0.00029999999999996696,-4.276672259492005
-0.000700000000000145,-4.276672259492005
-0.0017000000000000348,-4.276672259492005
-0.0027000000000001467,-4.3205283097878215
-0.0037000000000000366,-4.364384360083638
-0.0047000000000001485,-4.364384360083638
-0.005700000000000038,-4.406825699079589
-0.00670000000000015,-4.450681749375406
-0.00770000000000004,-4.450681749375406
-0.008700000000000152,-4.450681749375406
-0.009700000000000042,-4.450681749375406
-0.010700000000000154,-4.450681749375406
-0.011700000000000044,-4.450681749375406
-0.012700000000000156,-4.450681749375406
-0.013700000000000045,-4.450681749375406
-0.014700000000000157,-4.494537799671222
-0.015700000000000047,-4.494537799671222
-0.01670000000000016,-4.494537799671222
-0.01770000000000005,-4.538393849967037
-0.01870000000000016,-4.538393849967037
-0.01970000000000005,-4.538393849967037
-0.020700000000000163,-4.538393849967037
-0.021700000000000053,-4.538393849967037
-0.022700000000000164,-4.582249900262854
-0.023700000000000054,-4.582249900262854
-0.024700000000000166,-4.626105950558669
-0.025700000000000056,-4.668547289554621
-0.026700000000000168,-4.712403339850438
-0.027700000000000058,-4.712403339850438
-0.02870000000000017,-4.712403339850438
-0.02970000000000006,-4.668547289554621
-0.03070000000000017,-4.668547289554621
-0.03170000000000006,-4.626105950558669
-0.03270000000000017,-4.626105950558669
-0.03370000000000006,-4.626105950558669
-0.034700000000000175,-4.668547289554621
-0.035700000000000065,-4.668547289554621
-0.03670000000000018,-4.712403339850438
-0.03770000000000007,-4.668547289554621
-0.03870000000000018,-4.712403339850438
-0.03970000000000007,-4.668547289554621
-0.04070000000000018,-4.668547289554621
-0.04170000000000007,-4.626105950558669
-0.04270000000000018,-4.626105950558669
-0.04370000000000007,-4.626105950558669
-0.044700000000000184,-4.668547289554621
-0.045700000000000074,-4.668547289554621
-0.046700000000000186,-4.756259390146253
-0.047700000000000076,-4.756259390146253
-0.04870000000000019,-4.756259390146253
-0.04970000000000008,-4.756259390146253
-0.05070000000000019,-4.756259390146253
-0.05170000000000008,-4.756259390146253
-0.05270000000000019,-4.756259390146253
-0.05370000000000008,-4.756259390146253
-0.05470000000000019,-4.800115440442069
-0.05570000000000008,-4.800115440442069
-0.056700000000000195,-4.843971490737885
-0.057700000000000085,-4.843971490737885
-0.058700000000000196,-4.800115440442069
-0.059700000000000086,-4.800115440442069
-0.0607000000000002,-4.800115440442069
-0.06170000000000009,-4.800115440442069
-0.0627000000000002,-4.800115440442069
-0.06370000000000009,-4.800115440442069
-0.0647000000000002,-4.800115440442069
-0.06570000000000009,-4.756259390146253
-0.0667000000000002,-4.800115440442069
-0.0677000000000001,-4.800115440442069
-0.0687000000000002,-4.800115440442069
-0.0697000000000001,-4.756259390146253
-0.07070000000000021,-4.756259390146253
-0.0717000000000001,-4.756259390146253
-0.07270000000000021,-4.756259390146253
-0.0737000000000001,-4.756259390146253
-0.07470000000000021,-4.756259390146253
-0.0757000000000001,-4.756259390146253
-0.07670000000000021,-4.800115440442069
-0.0777000000000001,-4.800115440442069
-0.07870000000000021,-4.800115440442069
-0.0797000000000001,-4.800115440442069
-0.08070000000000022,-4.843971490737885
-0.0817000000000001,-4.800115440442069
-0.08270000000000022,-4.843971490737885
-0.08370000000000011,-4.843971490737885
-0.08470000000000022,-4.887827541033701
-0.08570000000000011,-4.9302688800296535
-0.08670000000000022,-4.974124930325469
-0.08770000000000011,-4.9302688800296535
-0.08870000000000022,-4.9302688800296535
-0.08970000000000011,-4.9302688800296535
-0.09070000000000022,-4.887827541033701
-0.09170000000000011,-4.887827541033701
-0.09270000000000023,-4.843971490737885
-0.09370000000000012,-4.843971490737885
-0.09470000000000023,-4.843971490737885
-0.09570000000000012,-4.843971490737885
-0.09670000000000023,-4.843971490737885
-0.09770000000000012,-4.843971490737885
-0.09870000000000023,-4.843971490737885
-0.09970000000000012,-4.843971490737885
-0.10070000000000023,-4.887827541033701
-0.10170000000000012,-4.843971490737885
-0.10270000000000024,-4.887827541033701
-0.10370000000000013,-4.887827541033701
-0.10470000000000024,-4.9302688800296535
-0.10570000000000013,-4.9302688800296535
-0.10670000000000024,-4.9302688800296535
-0.10770000000000013,-4.9302688800296535
-0.10870000000000024,-4.9302688800296535
-0.10970000000000013,-4.887827541033701
-0.11070000000000024,-4.887827541033701
-0.11170000000000013,-4.843971490737885
-0.11270000000000002,-4.843971490737885
-0.11370000000000013,-4.843971490737885
-0.11470000000000002,-4.887827541033701
-0.11570000000000014,-4.887827541033701
-0.11670000000000003,-4.9302688800296535
-0.11770000000000014,-4.9302688800296535
-0.11870000000000003,-4.974124930325469
-0.11970000000000014,-4.974124930325469
-0.12070000000000003,-4.974124930325469
-0.12170000000000014,-4.9302688800296535
-0.12270000000000003,-4.974124930325469
-0.12370000000000014,-4.974124930325469
-0.12470000000000003,-4.974124930325469
-0.12570000000000014,-4.974124930325469
-0.12670000000000003,-5.017980980621284
-0.12770000000000015,-5.017980980621284
-0.12870000000000004,-5.017980980621284
-0.12970000000000015,-5.017980980621284
-0.13070000000000004,-4.974124930325469
-0.13170000000000015,-4.974124930325469
-0.13270000000000004,-4.974124930325469
-0.13370000000000015,-4.974124930325469
-0.13470000000000004,-5.017980980621284
-0.13570000000000015,-5.017980980621284
-0.13670000000000004,-5.0618370309171015
-0.13770000000000016,-5.0618370309171015
-0.13870000000000005,-5.0618370309171015
-0.13970000000000016,-5.0618370309171015
-0.14070000000000005,-5.0618370309171015
-0.14170000000000016,-5.017980980621284
-0.14270000000000005,-5.017980980621284
-0.14370000000000016,-5.017980980621284
-0.14470000000000005,-5.017980980621284
-0.14570000000000016,-5.0618370309171015
-0.14670000000000005,-5.0618370309171015
-0.14770000000000016,-5.0618370309171015
-0.14870000000000005,-5.0618370309171015
-0.14970000000000017,-5.0618370309171015
-0.15070000000000006,-5.0618370309171015
-0.15170000000000017,-5.0618370309171015
-0.15270000000000006,-5.0618370309171015
-0.15370000000000017,-5.105693081212917
-0.15470000000000006,-5.105693081212917
-0.15570000000000017,-5.105693081212917
-0.15670000000000006,-5.149549131508733
-0.15770000000000017,-5.149549131508733
-0.15870000000000006,-5.149549131508733
-0.15970000000000018,-5.105693081212917
-0.16070000000000007,-5.105693081212917
-0.16170000000000018,-5.105693081212917
-0.16270000000000007,-5.105693081212917
-0.16370000000000018,-5.105693081212917
-0.16470000000000007,-5.105693081212917
-0.16570000000000018,-5.149549131508733
-0.16670000000000007,-5.149549131508733
-0.16770000000000018,-5.149549131508733
-0.16870000000000007,-5.149549131508733
-0.16970000000000018,-5.191990470504685
-0.17070000000000007,-5.149549131508733
-0.17170000000000019,-5.149549131508733
-0.17270000000000008,-5.149549131508733
-0.1737000000000002,-5.149549131508733
-0.17470000000000008,-5.191990470504685
-0.1757000000000002,-5.191990470504685
-0.17670000000000008,-5.191990470504685
-0.1777000000000002,-5.191990470504685
-0.17870000000000008,-5.149549131508733
-0.1797000000000002,-5.149549131508733
-0.18070000000000008,-5.149549131508733
-0.1817000000000002,-5.149549131508733
-0.18270000000000008,-5.149549131508733
-0.1837000000000002,-5.149549131508733
-0.1847000000000001,-5.149549131508733
-0.1857000000000002,-5.191990470504685
-0.1867000000000001,-5.191990470504685
-0.1877000000000002,-5.235846520800501
-0.1887000000000001,-5.235846520800501
-0.1897000000000002,-5.235846520800501
-0.1907000000000001,-5.235846520800501
-0.1917000000000001,-5.191990470504685
-0.19269999999999998,-5.191990470504685
-0.1937000000000001,-5.235846520800501
-0.19469999999999998,-5.279702571096316
-0.1957000000000001,-5.323558621392133
-0.19669999999999999,-5.323558621392133
-0.1977000000000001,-5.323558621392133
-0.1987,-5.323558621392133
-0.1997000000000001,-5.323558621392133
-0.2007,-5.323558621392133
-0.2017000000000001,-5.323558621392133
-0.2027,-5.279702571096316
-0.2037000000000001,-5.323558621392133
-0.2047,-5.323558621392133
-0.2057000000000001,-5.323558621392133
-0.2067,-5.367414671687949
-0.2077000000000001,-5.367414671687949
-0.2087,-5.367414671687949
-0.2097000000000001,-5.323558621392133
-0.2107,-5.367414671687949
-0.2117000000000001,-5.323558621392133
-0.2127,-5.323558621392133
-0.2137000000000001,-5.323558621392133
-0.2147,-5.367414671687949
-0.2157000000000001,-5.411270721983764
-0.2167,-5.411270721983764
-0.21770000000000012,-5.411270721983764
-0.2187,-5.411270721983764
-0.21970000000000012,-5.411270721983764
-0.2207,-5.367414671687949
-0.22170000000000012,-5.367414671687949
-0.2227,-5.367414671687949
-0.22370000000000012,-5.367414671687949
-0.2247,-5.411270721983764
-0.22570000000000012,-5.453712060979717
-0.2267,-5.497568111275533
-0.22770000000000012,-5.497568111275533
-0.22870000000000001,-5.497568111275533
-0.22970000000000013,-5.5414241615713475
-0.23070000000000002,-5.5414241615713475
-0.23170000000000013,-5.497568111275533
-0.23270000000000002,-5.5414241615713475
-0.23370000000000013,-5.5414241615713475
-0.23470000000000002,-5.5414241615713475
-0.23570000000000013,-5.5414241615713475
-0.23670000000000002,-5.585280211867165
-0.2376999999999999,-5.585280211867165
-0.23870000000000002,-5.585280211867165
-0.2396999999999999,-5.585280211867165
-0.24070000000000003,-5.585280211867165
-0.24169999999999991,-5.585280211867165
-0.24270000000000003,-5.585280211867165
-0.24369999999999992,-5.585280211867165
-0.24470000000000003,-5.629136262162981
-0.24569999999999992,-5.629136262162981
-0.24670000000000003,-5.672992312458796
-0.24769999999999992,-5.672992312458796
-0.24870000000000003,-5.715433651454749
-0.24969999999999992,-5.715433651454749
-0.25070000000000003,-5.715433651454749
-0.2516999999999999,-5.672992312458796
-0.25270000000000004,-5.715433651454749
-0.2536999999999999,-5.715433651454749
-0.25470000000000004,-5.759289701750564
-0.2556999999999999,-5.759289701750564
-0.25670000000000004,-5.80314575204638
-0.25769999999999993,-5.80314575204638
-0.25870000000000004,-5.80314575204638
-0.25969999999999993,-5.847001802342197
-0.26070000000000004,-5.847001802342197
-0.26169999999999993,-5.80314575204638
-0.26270000000000004,-5.847001802342197
-0.26369999999999993,-5.847001802342197
-0.26470000000000005,-5.890857852638012
-0.26569999999999994,-5.890857852638012
-0.26670000000000005,-5.9347139029338285
-0.26769999999999994,-5.977155241929781
-0.26870000000000005,-5.977155241929781
-0.26969999999999994,-5.977155241929781
-0.27070000000000005,-5.977155241929781
-0.27169999999999994,-5.977155241929781
-0.27270000000000005,-6.021011292225596
-0.27369999999999994,-6.021011292225596
-0.27470000000000006,-6.064867342521412
-0.27569999999999995,-6.064867342521412
-0.27670000000000006,-6.108723392817228
-0.27769999999999995,-6.108723392817228
-0.27870000000000006,-6.152579443113044
-0.27969999999999995,-6.108723392817228
-0.28070000000000006,-6.108723392817228
-0.28169999999999995,-6.108723392817228
-0.28270000000000006,-6.108723392817228
-0.28369999999999995,-6.152579443113044
-0.28470000000000006,-6.196435493408861
-0.28569999999999995,-6.196435493408861
-0.28670000000000007,-6.282732882700628
-0.28769999999999996,-6.282732882700628
-0.28870000000000007,-6.326588932996443
-0.28969999999999996,-6.326588932996443
-0.29070000000000007,-6.326588932996443
-0.29169999999999996,-6.326588932996443
-0.29270000000000007,-6.37044498329226
-0.29369999999999996,-6.414301033588076
-0.2947000000000001,-6.458157083883892
-0.29569999999999996,-6.500598422879844
-0.2967000000000001,-6.54445447317566
-0.29769999999999996,-6.588310523471475
-0.2987000000000001,-6.588310523471475
-0.29969999999999997,-6.588310523471475
-0.3007000000000001,-6.588310523471475
-0.30169999999999997,-6.632166573767292
-0.3027000000000001,-6.632166573767292
-0.30369999999999997,-6.6760226240631075
-0.3047000000000001,-6.719878674358924
-0.30569999999999997,-6.762320013354876
-0.3067000000000001,-6.806176063650692
-0.3077,-6.806176063650692
-0.3087000000000001,-6.806176063650692
-0.3097,-6.850032113946507
-0.3107000000000001,-6.850032113946507
-0.3117,-6.850032113946507
-0.3127000000000001,-6.893888164242324
-0.3137,-6.93774421453814
-0.3147000000000001,-6.981600264833956
-0.3157,-7.024041603829907
-0.3167000000000001,-7.067897654125724
-0.3177,-7.111753704421539
-0.3187000000000001,-7.155609754717355
-0.3197,-7.199465805013171
-0.3207000000000001,-7.199465805013171
-0.3217,-7.243321855308987
-0.3227000000000001,-7.28576319430494
-0.3237,-7.28576319430494
-0.3247000000000001,-7.37347529489657
-0.3257,-7.4173313451923875
-0.3267000000000001,-7.461187395488204
-0.3277,-7.50504344578402
-0.3287000000000001,-7.50504344578402
-0.3297,-7.5474847847799715
-0.3307000000000001,-7.5474847847799715
-0.3317,-7.591340835075788
-0.3327000000000001,-7.635196885371603
-0.3337,-7.679052935667419
-0.3347000000000001,-7.7653503249591855
-0.3357,-7.853062425550818
-0.3367000000000001,-7.896918475846635
-0.3377,-7.940774526142452
-0.3387000000000001,-7.984630576438266
-0.3397,-8.027071915434218
-0.3407000000000001,-8.027071915434218
-0.3417,-8.027071915434218
-0.3427000000000001,-8.070927965730034
-0.3437,-8.070927965730034
-0.3447000000000001,-8.158640066321666
-0.3457,-8.202496116617484
-0.3467000000000001,-8.246352166913299
-0.3477,-8.288793505909249
-0.3487000000000001,-8.332649556205066
-0.3497,-8.376505606500881
-0.3507000000000001,-8.464217707092514
-0.3517,-8.464217707092514
-0.3527000000000001,-8.55051509638428
-0.3537,-8.638227196975913
-0.3547000000000001,-8.725939297567548
-0.3557,-8.812236686859313
-0.35670000000000013,-8.899948787450944
-0.3577,-8.943804837746763
-0.35870000000000013,-9.073958277334345
-0.3597,-9.11781432763016
-0.36070000000000013,-9.161670377925978
-0.3617,-9.205526428221793
-0.3626999999999999,-9.293238528813426
-0.3637,-9.335679867809377
-0.3646999999999999,-9.467248018696827
-0.3657,-9.511104068992642
-0.3666999999999999,-9.641257508580225
-0.3677,-9.728969609171857
-0.3686999999999999,-9.81668170976349
-0.36970000000000003,-9.85912304875944
-0.3706999999999999,-9.902979099055257
-0.37170000000000003,-9.946835149351072
-0.3726999999999999,-10.034547249942705
-0.37370000000000003,-10.078403300238522
-0.3746999999999999,-10.164700689530287
-0.37570000000000003,-10.25241279012192
-0.3766999999999999,-10.382566229709504
-0.37770000000000004,-10.470278330301136
-0.3786999999999999,-10.601846481188586
-0.37970000000000004,-10.688143870480351
-0.3806999999999999,-10.819712021367803
-0.38170000000000004,-10.906009410659568
-0.38269999999999993,-10.993721511251199
-0.38370000000000004,-11.1677310011346
-0.38469999999999993,-11.299299152022046
-0.38570000000000004,-11.42945259160963
-0.38669999999999993,-11.56102074249708
-0.38770000000000004,-11.691174182084664
-0.38869999999999993,-11.82274233297211
-0.38970000000000005,-11.909039722263879
-0.39069999999999994,-11.996751822855511
-0.39170000000000005,-12.084463923447142
-0.39269999999999994,-12.170761312738911
-0.39370000000000005,-12.258473413330542
-0.39469999999999994,-12.390041564217992
-0.39570000000000005,-12.520195003805576
-0.39669999999999994,-12.651763154693022
-0.39770000000000005,-12.781916594280606
-0.39869999999999994,-12.913484745168056
-0.39970000000000006,-13.043638184755638
-0.40069999999999995,-13.175206335643086
-0.40170000000000006,-13.30535977523067
-0.40269999999999995,-13.3930718758223
-0.40370000000000006,-13.567081365705702
-0.40469999999999995,-13.741090855589102
-0.40570000000000006,-13.872659006476551
-0.40669999999999995,-14.046668496359947
-0.40770000000000006,-14.175407224647667
-0.40869999999999995,-14.345172580631472
-0.40970000000000006,-14.444202371622024
-0.41069999999999995,-14.57152638860988
-0.41170000000000007,-14.69885040559773
-0.41269999999999996,-14.826174422585586
-0.41370000000000007,-15.01008689156804
-0.41469999999999996,-15.179852247551842
-0.41570000000000007,-15.3920589425316
-0.41669999999999996,-15.618412750510005
-0.41770000000000007,-15.78817810649381
-0.41869999999999996,-16.014531914472215
-0.4197000000000001,-16.22673860945197
-0.42069999999999996,-16.354062626439823
-0.4217000000000001,-16.53797509542228
-0.42269999999999996,-16.750181790402035
-0.4237000000000001,-16.919947146385837
-0.42469999999999997,-17.103859615368293
-0.4257000000000001,-17.2736249713521
-0.42669999999999997,-17.4433903273359
-0.4277000000000001,-17.669744135314307
-0.42869999999999997,-17.839509491298113
-0.4297000000000001,-18.009274847281915
-0.43069999999999997,-18.23562865526032
-0.4317000000000001,-18.40539401124413
-0.4327,-18.631747819222536
-0.4337000000000001,-18.88639585319824
-0.4347,-19.155191000172596
-0.4357000000000001,-19.452280373144255
-0.4367,-19.721075520118614
-0.4377000000000001,-19.97572355409432
-0.4387,-20.202077362072725
-0.4397000000000001,-20.414284057052477
-0.4407,-20.683079204026836
-0.4417000000000001,-20.89528589900659
-0.4427,-21.149933932982297
-0.4437000000000001,-21.418729079956652
-0.4447,-21.729965565926964
-0.4457000000000001,-22.069496277894572
-0.4467,-22.38073276386488
-0.4477000000000001,-22.67782213683654
-0.4487,-22.989058622806844
-0.4497000000000001,-23.300295108777156
-0.4507,-23.55494314275286
-0.4517000000000001,-23.86617962872317
-0.4527,-24.16326900169483
-0.4537000000000001,-24.432064148669184
-0.4547,-24.729153521640843
-0.4557000000000001,-25.04039000761115
-0.4567,-25.337479380582806
-0.4577000000000001,-25.648715866553115
-0.4587,-25.91751101352747
-0.4597000000000001,-26.17215904750318
-0.4607,-26.483395533473487
-0.4617000000000001,-26.780484906445146
-0.4627,-27.176604070407354
-0.4637000000000001,-27.530281895373616
-0.4647,-27.954695285333123
-0.4657000000000001,-28.393255788291288
-0.4667,-28.831816291249446
-0.4677000000000001,-29.27037679420761
-0.4687,-29.708937297165768
-0.4697000000000001,-30.10505646112798
-0.4707,-30.487028512091538
-0.4717000000000001,-30.925589015049702
-0.4727,-31.36414951800786
-0.4737000000000001,-31.802710020966025
-0.4747,-32.283711862920136
-0.4757000000000001,-32.807155043870196
-0.4767,-33.231568433829715
-0.4777000000000001,-33.670128936787876
-0.4787,-34.10868943974604
-0.4797000000000001,-34.50480860370825
-0.4807,-34.94336910666641
-0.48170000000000013,-35.38192960962457
-0.4827,-35.806342999584075
-0.48370000000000013,-36.28734484153819
-0.4847,-36.768346683492304
-0.48570000000000013,-37.249348525446415
-0.4867,-37.77279170639648
-0.4876999999999999,-38.211352209354644
-0.4887,-38.692354051308754
-0.4896999999999999,-39.173355893262865
-0.4907,-39.56947505722508
-0.4916999999999999,-39.99388844718459
-0.4927,-40.43244895014274
-0.4936999999999999,-40.91345079209687
-0.49470000000000003,-41.43689397304693
-0.4956999999999999,-42.00277849299294
-0.49670000000000003,-42.568663012938956
-0.4976999999999999,-43.09210619388902
-0.49870000000000003,-43.657990713835034
-0.4996999999999999,-44.28046368577565
-0.5007,-44.88878954471762
-0.5016999999999999,-45.53955674265553
-0.5027,-46.19032394059345
-0.5036999999999999,-46.84109113853137
-0.5047,-47.54844678846388
-0.5056999999999999,-48.24165532539775
-0.5067,-48.93486386233162
-0.5076999999999999,-49.59977817326819
-0.5087,-50.2505453712061
-0.5096999999999999,-50.77398855215617
-0.5107,-51.38231441109813
