Potential V vs RHE, Current mA cm-2
0.013299999999999867,-0.09985032354447429
0.012299999999999978,-0.15618412750510002
0.011299999999999866,-0.17358507649344
0.010299999999999976,-0.1860345359322523
0.009299999999999864,-0.19381544808151
0.008299999999999974,-0.19975723554094318
0.007299999999999862,-0.2066893209102819
0.006299999999999972,-0.21305552175967452
0.00529999999999986,-0.2204120205189727
0.0042999999999999705,-0.2250805678085273
0.0032999999999998586,-0.23059794187800098
0.0022999999999999687,-0.2345591335176231
0.0012999999999998568,-0.24120827662698877
0.00029999999999996696,-0.24658417956647588
-0.000700000000000145,-0.24955507329619245
-0.0017000000000000348,-0.2532333226758416
-0.0027000000000001467,-0.25634568753554465
-0.0037000000000000366,-0.2611557059550858
-0.0047000000000001485,-0.2666730800245595
-0.005700000000000038,-0.268795146974357
-0.00670000000000015,-0.27134162731411404
-0.00770000000000004,-0.2733222231339251
-0.008700000000000152,-0.27586870347368214
-0.009700000000000042,-0.2818104909331153
-0.010700000000000154,-0.28379108675292636
-0.011700000000000044,-0.28379108675292636
-0.012700000000000156,-0.2852057980527914
-0.013700000000000045,-0.2874693361325754
-0.014700000000000157,-0.2921378834221301
-0.015700000000000047,-0.2934111235920086
-0.01670000000000016,-0.29284523907206256
-0.01770000000000005,-0.2955331905418062
-0.01870000000000016,-0.29539171941181963
-0.01970000000000005,-0.2996358533114148
-0.020700000000000163,-0.3016164491312258
-0.021700000000000053,-0.3006261512213203
-0.022700000000000164,-0.3018993913911988
-0.023700000000000054,-0.30373851608102337
-0.024700000000000166,-0.3067094098107399
-0.025700000000000056,-0.30925589015049704
-0.026700000000000168,-0.3076997077206455
-0.027700000000000058,-0.30826559224059147
-0.02870000000000017,-0.3116608993602676
-0.02970000000000006,-0.31378296631006514
-0.03070000000000017,-0.3149147353499572
-0.03170000000000006,-0.3161879755198357
-0.03270000000000017,-0.3156220909998897
-0.03370000000000006,-0.3173197445597277
-0.034700000000000175,-0.32014916715945774
-0.035700000000000065,-0.3222712341092553
-0.03670000000000018,-0.32255417636922834
-0.03770000000000007,-0.32241270523924187
-0.03870000000000018,-0.3245347721890394
-0.03970000000000007,-0.32764713704874243
-0.04070000000000018,-0.32807155043870195
-0.04170000000000007,-0.32948626173856704
-0.04270000000000018,-0.329203319478594
-0.04370000000000007,-0.33146685755837807
-0.044700000000000184,-0.3354280491980002
-0.045700000000000074,-0.3352865780680137
-0.046700000000000186,-0.3378330584077708
-0.047700000000000076,-0.3362768759779193
-0.04870000000000019,-0.3395307119676088
-0.04970000000000008,-0.3432089613472579
-0.05070000000000019,-0.3433504324772444
-0.05170000000000008,-0.34434073038714996
-0.05270000000000019,-0.34518955716706895
-0.05370000000000008,-0.34759456637683955
-0.05470000000000019,-0.35268752705635364
-0.05570000000000008,-0.35183870027643466
-0.056700000000000195,-0.3539607672262322
-0.057700000000000085,-0.35466812287616467
-0.058700000000000196,-0.35636577643600276
-0.059700000000000086,-0.3611757948555439
-0.0607000000000002,-0.36287344841538194
-0.06170000000000009,-0.365985813275085
-0.0627000000000002,-0.3647125731052065
-0.06370000000000009,-0.36810788022488256
-0.0647000000000002,-0.3712202450845856
-0.06570000000000009,-0.3747570233342482
-0.0667000000000002,-0.3753229078541942
-0.0677000000000001,-0.37588879237414025
-0.0687000000000002,-0.38041586853370835
-0.0697000000000001,-0.3822549932235329
-0.07070000000000021,-0.3874894250330335
-0.0717000000000001,-0.3897529631128176
-0.07270000000000021,-0.38918707859287155
-0.0737000000000001,-0.3937141547524397
-0.07470000000000021,-0.39739240413208876
-0.0757000000000001,-0.4013535957717109
-0.07670000000000021,-0.40290977820156243
-0.0777000000000001,-0.40390007611146794
-0.07870000000000021,-0.40913450792096867
-0.0797000000000001,-0.4121054016506852
-0.08070000000000022,-0.4157836510303343
-0.0817000000000001,-0.42002778492992937
-0.08270000000000022,-0.42130102509980794
-0.08370000000000011,-0.42611104351934903
-0.08470000000000022,-0.43021370628895766
-0.08570000000000011,-0.4341748979285798
-0.08670000000000022,-0.4371457916582963
-0.08770000000000011,-0.4401166853880129
-0.08870000000000022,-0.4442193481576215
-0.08970000000000011,-0.4511514335269602
-0.09070000000000022,-0.4535564427367308
-0.09170000000000011,-0.4569517498564068
-0.09270000000000023,-0.462610595055867
-0.09370000000000012,-0.46529854652561053
-0.09470000000000023,-0.47251357415492223
-0.09570000000000012,-0.47675770805451734
-0.09670000000000023,-0.47887977500431494
-0.09770000000000012,-0.48637774489359964
-0.09870000000000023,-0.4893486386233161
-0.09970000000000012,-0.49670513738261435
-0.10070000000000023,-0.503637222751953
-0.10170000000000012,-0.5061837030917101
-0.10270000000000024,-0.5121254905511432
-0.10370000000000013,-0.5172184512306574
-0.10470000000000024,-0.5245749499899556
-0.10570000000000013,-0.5319314487492538
-0.10670000000000024,-0.5347608713489839
-0.10770000000000013,-0.5419758989782956
-0.10870000000000024,-0.5484835709576747
-0.10970000000000013,-0.5555571274569999
-0.11070000000000024,-0.5640453952561902
-0.11170000000000013,-0.5674407023758662
-0.11270000000000002,-0.5746557300051779
-0.11370000000000013,-0.5824366421544356
-0.11470000000000002,-0.5899346120437202
-0.11570000000000014,-0.5978569953229644
-0.11670000000000003,-0.6035158405224247
-0.11770000000000014,-0.6110138104117093
-0.11870000000000003,-0.6180873669110345
-0.11970000000000014,-0.6258682790602923
-0.12070000000000003,-0.6350639025094149
-0.12170000000000014,-0.6419959878787537
-0.12270000000000003,-0.6477963042082002
-0.12370000000000014,-0.6562845720073905
-0.12470000000000003,-0.6677437335362972
-0.12570000000000014,-0.6767978858554337
-0.12670000000000003,-0.6834470289647994
-0.12770000000000015,-0.6908035277240974
-0.12870000000000004,-0.6998576800432337
-0.12970000000000015,-0.7100436014022619
-0.13070000000000004,-0.7195221671113576
-0.13170000000000015,-0.7278689637805613
-0.13270000000000004,-0.7372060583596707
-0.13370000000000015,-0.7456943261588609
-0.13470000000000004,-0.7571534876877677
-0.13570000000000015,-0.7681882358267149
-0.13670000000000004,-0.773564138766202
-0.13770000000000016,-0.7844574157751628
-0.13870000000000005,-0.7943603948742181
-0.13970000000000016,-0.8032730760633678
-0.14070000000000005,-0.8150151798522477
-0.14170000000000016,-0.8222302074815594
-0.14270000000000005,-0.832840542230547
-0.14370000000000016,-0.8433094058495484
-0.14470000000000005,-0.8542026828585092
-0.14570000000000016,-0.8662277289073619
-0.14670000000000005,-0.8728768720167276
-0.14770000000000016,-0.8833457356357289
-0.14870000000000005,-0.8956537239445548
-0.14970000000000017,-0.9061225875635559
-0.15070000000000006,-0.9180061624824223
-0.15170000000000017,-0.9263529591516261
-0.15270000000000006,-0.9365388805106541
-0.15370000000000017,-0.949129811079453
-0.15470000000000006,-0.9601645592184004
-0.15570000000000017,-0.9730384320471723
-0.15670000000000006,-0.9825169977562679
-0.15770000000000017,-0.9905808521654985
-0.15870000000000006,-1.0034547249942705
-0.15970000000000018,-1.0143480020032312
-0.16070000000000007,-1.0255242212721651
-0.16170000000000018,-1.0359930848911665
-0.16270000000000007,-1.0456131217302487
-0.16370000000000018,-1.0584869945590205
-0.16470000000000007,-1.0709364539978328
-0.16570000000000018,-1.0812638464868474
-0.16670000000000007,-1.0913082967158894
-0.16770000000000018,-1.09937215112512
-0.16870000000000007,-1.1116801394339457
-0.16970000000000018,-1.1251198967826637
-0.17070000000000007,-1.136437587181584
-0.17170000000000019,-1.1477552775805042
-0.17270000000000008,-1.1579411989395323
-0.1737000000000002,-1.1684100625585339
-0.17470000000000008,-1.181425406517292
-0.1757000000000002,-1.1921772123962666
-0.17670000000000008,-1.2023631337552947
-0.1777000000000002,-1.2112758149444443
-0.17870000000000008,-1.2204714383935673
-0.1797000000000002,-1.233345311222339
-0.18070000000000008,-1.2449459438812323
-0.1817000000000002,-1.254141567330355
-0.18270000000000008,-1.2643274886893834
-0.1837000000000002,-1.2733816410085195
-0.1847000000000001,-1.2848408025374263
-0.1857000000000002,-1.2955926084164004
-0.1867000000000001,-1.3043638184755637
-0.1877000000000002,-1.312569144014781
-0.1887000000000001,-1.3237453632837148
-0.1897000000000002,-1.3349215825526486
-0.1907000000000001,-1.3438342637417984
-0.1917000000000001,-1.3543031273607997
-0.19269999999999998,-1.3609522704701653
-0.1937000000000001,-1.373260258778991
-0.19469999999999998,-1.3817485265781813
-0.1957000000000001,-1.3910856211572906
-0.19669999999999999,-1.4009886002563459
-0.1977000000000001,-1.4076377433657117
-0.1987,-1.4189554337646317
-0.1997000000000001,-1.4288584128636872
-0.2007,-1.4373466806628774
-0.2017000000000001,-1.4472496597619326
-0.2027,-1.4529085049613928
-0.2037000000000001,-1.462811484060448
-0.2047,-1.4741291744593683
-0.2057000000000001,-1.4826174422585585
-0.2067,-1.4911057100577487
-0.2077000000000001,-1.498179266557074
-0.2087,-1.506667534356264
-0.2097000000000001,-1.5179852247551844
-0.2107,-1.5264734925543744
-0.2117000000000001,-1.5349617603535646
-0.2127,-1.540620605553025
-0.2137000000000001,-1.5491088733522151
-0.2147,-1.5604265637511354
-0.2157000000000001,-1.5717442541500557
-0.2167,-1.5788178106493809
-0.21770000000000012,-1.585891367148706
-0.2187,-1.5943796349478963
-0.21970000000000012,-1.6071120366466816
-0.2207,-1.6156003044458718
-0.22170000000000012,-1.6240885722450622
-0.2227,-1.6311621287443874
-0.22370000000000012,-1.6410651078434426
-0.2247,-1.6523827982423631
-0.22570000000000012,-1.6637004886412832
-0.2267,-1.6721887564404734
-0.22770000000000012,-1.6806770242396636
-0.22870000000000001,-1.6891652920388538
-0.22970000000000013,-1.700482982437774
-0.23070000000000002,-1.7103859615368293
-0.23170000000000013,-1.7202889406358846
-0.23270000000000002,-1.7287772084350748
-0.23370000000000013,-1.7400948988339953
-0.23470000000000002,-1.7528273005327806
-0.23570000000000013,-1.7641449909317006
-0.23670000000000002,-1.776877392630486
-0.2376999999999999,-1.7853656604296764
-0.23870000000000002,-1.7966833508285964
-0.2396999999999999,-1.8080010412275167
-0.24070000000000003,-1.8207334429263025
-0.24169999999999991,-1.8320511333252225
-0.24270000000000003,-1.8405394011244125
-0.24369999999999992,-1.8532718028231983
-0.24470000000000003,-1.8688336271217136
-0.24569999999999992,-1.8815660288204987
-0.24670000000000003,-1.895713141819149
-0.24769999999999992,-1.9084455435179344
-0.24870000000000003,-1.92117794521672
-0.24969999999999992,-1.9367397695152353
-0.25070000000000003,-1.9508868825138854
-0.2516999999999999,-1.9664487068124006
-0.25270000000000004,-1.9791811085111866
-0.2536999999999999,-1.993328221509837
-0.25470000000000004,-2.011719468408082
-0.2556999999999999,-2.0286960040064623
-0.25670000000000004,-2.045672539604843
-0.25769999999999993,-2.0612343639033583
-0.25870000000000004,-2.079625610801604
-0.25969999999999993,-2.0966021463999844
-0.26070000000000004,-2.11782281589796
-0.26169999999999993,-2.136214062796206
-0.26270000000000004,-2.156020020994316
-0.26369999999999993,-2.178655401792157
-0.26470000000000005,-2.1984613599902674
-0.26569999999999994,-2.2225114520879723
-0.26670000000000005,-2.2465615441856785
-0.26769999999999994,-2.2649527910839233
-0.26870000000000005,-2.2904175944814944
-0.26969999999999994,-2.3116382639794697
-0.27070000000000005,-2.3385177786769056
-0.27169999999999994,-2.361153159474746
-0.27270000000000005,-2.383788540272587
-0.27369999999999994,-2.4106680549700226
-0.27470000000000006,-2.436132858367593
-0.27569999999999995,-2.464427084364894
-0.27670000000000006,-2.4913065990623298
-0.27769999999999995,-2.5139419798601703
-0.27870000000000006,-2.542236205857471
-0.27969999999999995,-2.5705304318547717
-0.28070000000000006,-2.5988246578520724
-0.28169999999999995,-2.6257041725495083
-0.28270000000000006,-2.6525836872469437
-0.28369999999999995,-2.6822926245441097
-0.28470000000000006,-2.712001561841275
-0.28569999999999995,-2.743125210438306
-0.28670000000000007,-2.772834147735472
-0.28769999999999996,-2.7997136624329078
-0.28870000000000007,-2.8294225997300737
-0.28969999999999996,-2.8619609596269693
-0.29070000000000007,-2.893084608224
-0.29169999999999996,-2.925622968120896
-0.29270000000000007,-2.9609907506175217
-0.29369999999999996,-2.989284976614823
-0.2947000000000001,-3.024652759111448
-0.29569999999999996,-3.055776407708479
-0.2967000000000001,-3.0883147676053753
-0.29769999999999996,-3.119438416202406
-0.2987000000000001,-3.1519767760993016
-0.29969999999999997,-3.1873445585959277
-0.3007000000000001,-3.2212976297926885
-0.30169999999999997,-3.2552507009894494
-0.3027000000000001,-3.287789060886346
-0.30369999999999997,-3.3203274207832414
-0.3047000000000001,-3.357109914579732
-0.30569999999999997,-3.392477697076358
-0.3067000000000001,-3.426430768273119
-0.3077,-3.4589691281700143
-0.3087000000000001,-3.492922199366775
-0.3097,-3.5297046931632665
-0.3107000000000001,-3.5679018982596227
-0.3117,-3.6032696807562488
-0.3127000000000001,-3.6372227519530096
-0.3137,-3.6725905344496357
-0.3147000000000001,-3.710787739545991
-0.3157,-3.7461555220426166
-0.3167000000000001,-3.784352727138973
-0.3177,-3.819720509635599
-0.3187000000000001,-3.8579177147319554
-0.3197,-3.8947002085284463
-0.3207000000000001,-3.9300679910250715
-0.3217,-3.969679907421293
-0.3227000000000001,-4.003632978618054
-0.3237,-4.043244895014275
-0.3247000000000001,-4.082856811410497
-0.3257,-4.119639305206987
-0.3267000000000001,-4.162080644202938
-0.3277,-4.197448426699564
-0.3287000000000001,-4.234230920496055
-0.3297,-4.276672259492005
-0.3307000000000001,-4.313454753288497
-0.3317,-4.351651958384853
-0.3327000000000001,-4.389849163481209
-0.3337,-4.426631657277699
-0.3347000000000001,-4.476146552772976
-0.3357,-4.515758469169198
-0.3367000000000001,-4.552540962965688
-0.3377,-4.587908745462314
-0.3387000000000001,-4.619032394059345
-0.3397,-4.658644310455566
-0.3407000000000001,-4.696841515551922
-0.3417,-4.736453431948143
-0.3427000000000001,-4.776065348344364
-0.3437,-4.811433130840991
-0.3447000000000001,-4.85387446983694
-0.3457,-4.894901097533027
-0.3467000000000001,-4.935927725229114
-0.3477,-4.976954352925199
-0.3487000000000001,-5.017980980621284
-0.3497,-5.06466645351683
-0.3507000000000001,-5.108522503812647
-0.3517,-5.152378554108464
-0.3527000000000001,-5.197649315704145
-0.3537,-5.242920077299826
-0.3547000000000001,-5.286776127595641
-0.3557,-5.329217466591594
-0.35670000000000013,-5.368829382987815
-0.3577,-5.408441299384036
-0.35870000000000013,-5.446638504480391
-0.3597,-5.489079843476342
-0.36070000000000013,-5.530106471172428
-0.3617,-5.569718387568649
-0.3626999999999999,-5.60367145876541
-0.3637,-5.640453952561901
-0.3646999999999999,-5.684310002857718
-0.3657,-5.721092496654209
-0.3666999999999999,-5.763533835650159
-0.3677,-5.801731040746516
-0.3686999999999999,-5.8427576684426015
-0.36970000000000003,-5.885199007438552
-0.3706999999999999,-5.927640346434504
-0.37170000000000003,-5.968666974130589
-0.3726999999999999,-6.011108313126541
-0.37370000000000003,-6.0521349408226275
-0.3746999999999999,-6.097405702418309
-0.37570000000000003,-6.141261752714124
-0.3766999999999999,-6.182288380410211
-0.37770000000000004,-6.227559142005892
-0.3786999999999999,-6.268585769701978
-0.37970000000000004,-6.3152712425975235
-0.3806999999999999,-6.35912729289334
-0.38170000000000004,-6.398739209289561
-0.38269999999999993,-6.446839393484972
-0.38370000000000004,-6.489280732480923
-0.38469999999999993,-6.54162505057593
-0.38570000000000004,-6.647728398065807
-0.38669999999999993,-6.811834908850152
-0.38770000000000004,-6.851446825246373
-0.38869999999999993,-6.920767678939759
-0.38970000000000005,-6.947647193637194
-0.39069999999999994,-6.988673821333281
-0.39170000000000005,-7.059409386326533
-0.39269999999999994,-7.1145831270212705
-0.39370000000000005,-7.185318692014522
-0.39469999999999994,-7.247565989208583
-0.39570000000000005,-7.321130976801564
-0.39669999999999994,-7.384792985295491
-0.39770000000000005,-7.451284416389148
-0.39869999999999994,-7.512117002283345
-0.39970000000000006,-7.571534876877676
-0.40069999999999995,-7.6408557305710625
-0.40170000000000006,-7.71017658426445
-0.40269999999999995,-7.776668015358106
-0.40370000000000006,-7.847403580351358
-0.40469999999999995,-7.919553856644475
-0.40570000000000006,-8.004436534636376
-0.40669999999999995,-8.079416233529225
-0.40770000000000006,-8.155810643721937
-0.40869999999999995,-8.27181697031087
-0.40970000000000006,-8.384993874300074
-0.41069999999999995,-8.486853087890356
-0.41170000000000007,-8.571735765882257
-0.41269999999999996,-8.658033155174026
-0.41370000000000007,-8.72452458626768
-0.41469999999999996,-8.798089573860663
-0.41570000000000007,-8.875898695353241
-0.41669999999999996,-8.950878394246088
-0.41770000000000007,-9.037175783537855
-0.41869999999999996,-9.123473172829621
-0.4197000000000001,-9.218258829920579
-0.42069999999999996,-9.321532754810727
-0.4217000000000001,-9.413488989301953
-0.42269999999999996,-9.505445223793181
-0.4237000000000001,-9.598816169584273
-0.42469999999999997,-9.702090094474421
-0.4257000000000001,-9.82799940016241
-0.42669999999999997,-9.924199768553231
-0.4277000000000001,-10.017570714344325
-0.42869999999999997,-10.118015216634742
-0.4297000000000001,-10.225533275424485
-0.43069999999999997,-10.340124890713554
-0.4317000000000001,-10.44622823820343
-0.4327,-10.556575719592905
-0.4337000000000001,-10.66833791228224
-0.4347,-10.787173661470904
-0.4357000000000001,-10.914497678458758
-0.4367,-11.031918716347556
-0.4377000000000001,-11.147925042936489
-0.4387,-11.31627568762043
-0.4397000000000001,-11.435111436809091
-0.4407,-11.56950901029627
-0.4417000000000001,-11.678441780385876
-0.4427,-11.78030099397616
-0.4437000000000001,-11.899136743164824
-0.4447,-12.013728358453893
-0.4457000000000001,-12.11134343814458
-0.4467,-12.221690919534051
-0.4477000000000001,-12.329208978323795
-0.4487,-12.422579924114888
-0.4497000000000001,-12.51029202470652
-0.4507,-12.60649239309734
-0.4517000000000001,-12.691375071089244
-0.4527,-12.797478418579121
-0.4537000000000001,-12.890849364370213
-0.4547,-12.995538000560227
-0.4557000000000001,-13.052126452554827
-0.4567,-13.08607952375159
-0.4577000000000001,-13.14549739834592
-0.4587,-13.216232963339174
-0.4597000000000001,-13.296871507431481
-0.4607,-13.361948227225271
-0.4617000000000001,-13.384583608023112
-0.4627,-13.436927926118118
-0.4637000000000001,-13.480783976413935
-0.4647,-13.518981181510291
-0.4657000000000001,-13.565666654405838
-0.4667,-13.602449148202329
-0.4677000000000001,-13.654793466297335
-0.4687,-13.708552495692206
-0.4697000000000001,-13.73543201038964
-0.4707,-13.773629215485999
-0.4717000000000001,-13.794849884983973
-0.4727,-13.838705935279789
-0.4737000000000001,-13.885391408175334
-0.4747,-13.970274086167239
-0.4757000000000001,-14.01837427036265
-0.4767,-14.084865701456305
-0.4777000000000001,-14.175407224647667
-0.4787,-14.24614278964092
-0.4797000000000001,-14.30273124163552
-0.4807,-14.387613919627421
-0.48170000000000013,-14.444202371622024
-0.4827,-14.543232162612577
-0.48370000000000013,-14.642261953603128
-0.4847,-14.67055617960043
-0.48570000000000013,-14.65640906660178
-0.4867,-14.24614278964092
-0.48570000000000013,-13.799094018883569
-0.4847,-13.436927926118118
-0.48370000000000013,-13.052126452554827
-0.4827,-12.716839874486816
-0.48170000000000013,-12.387212141618262
-0.4807,-12.067487387848763
-0.4797000000000001,-11.77747157137643
-0.4787,-11.478967487104908
-0.4777000000000001,-11.180463402833384
-0.4767,-10.903179988059838
-0.4757000000000001,-10.630140707185886
-0.4747,-10.385395652309235
-0.4737000000000001,-10.140650597432582
-0.4727,-9.888831986056605
-0.4717000000000001,-9.6341839520809
-0.4707,-9.405000721502764
-0.4697000000000001,-9.185720470023682
