Sept. 28, 2024   00:37:05
Linear Sweep Voltammetry
File: c:/users/guazh/data/20240922_batch_417_500/2024-09-22-exp467\1acid_3ac-2024-09-28t00_33_53-lsvinphos\1acid_3ac_lsv_50mvs_efin_-2300mv.bin
Data Source:  Experiment
Instrument Model:  CHI760E
Header: LSV ran at 50 mVs with Efin at -2300mV
Note: 

Init E (V) = -0.6
Final E (V) = -2.3
Scan Rate (V/s) = 0.05
Sample Interval (V) = 0.001
Quiet Time (sec) = 2
Sensitivity (A/V) = 1e-4
Comp R (ohm) = 15.6

Results:

Channel 1:
Ep = -1.843V
ip = 6.764e-4A
Ah = 9.447e-4C

Potential/V, Current/A

-0.600, 2.749e-5
-0.601, 2.763e-5
-0.602, 2.768e-5
-0.603, 2.770e-5
-0.604, 2.772e-5
-0.605, 2.773e-5
-0.606, 2.773e-5
-0.607, 2.773e-5
-0.608, 2.772e-5
-0.609, 2.773e-5
-0.610, 2.771e-5
-0.611, 2.770e-5
-0.612, 2.769e-5
-0.613, 2.768e-5
-0.614, 2.767e-5
-0.615, 2.765e-5
-0.616, 2.762e-5
-0.617, 2.761e-5
-0.618, 2.759e-5
-0.619, 2.758e-5
-0.620, 2.755e-5
-0.621, 2.752e-5
-0.622, 2.750e-5
-0.623, 2.746e-5
-0.624, 2.744e-5
-0.625, 2.742e-5
-0.626, 2.738e-5
-0.627, 2.736e-5
-0.628, 2.733e-5
-0.629, 2.729e-5
-0.630, 2.726e-5
-0.631, 2.723e-5
-0.632, 2.720e-5
-0.633, 2.716e-5
-0.634, 2.712e-5
-0.635, 2.708e-5
-0.636, 2.704e-5
-0.637, 2.700e-5
-0.638, 2.696e-5
-0.639, 2.692e-5
-0.640, 2.689e-5
-0.641, 2.685e-5
-0.642, 2.681e-5
-0.643, 2.677e-5
-0.644, 2.673e-5
-0.645, 2.669e-5
-0.646, 2.665e-5
-0.647, 2.661e-5
-0.648, 2.658e-5
-0.649, 2.653e-5
-0.650, 2.649e-5
-0.651, 2.644e-5
-0.652, 2.640e-5
-0.653, 2.636e-5
-0.654, 2.632e-5
-0.655, 2.627e-5
-0.656, 2.623e-5
-0.657, 2.619e-5
-0.658, 2.614e-5
-0.659, 2.611e-5
-0.660, 2.607e-5
-0.661, 2.602e-5
-0.662, 2.598e-5
-0.663, 2.594e-5
-0.664, 2.590e-5
-0.665, 2.585e-5
-0.666, 2.580e-5
-0.667, 2.576e-5
-0.668, 2.572e-5
-0.669, 2.568e-5
-0.670, 2.564e-5
-0.671, 2.559e-5
-0.672, 2.555e-5
-0.673, 2.550e-5
-0.674, 2.546e-5
-0.675, 2.542e-5
-0.676, 2.537e-5
-0.677, 2.533e-5
-0.678, 2.529e-5
-0.679, 2.525e-5
-0.680, 2.521e-5
-0.681, 2.517e-5
-0.682, 2.513e-5
-0.683, 2.508e-5
-0.684, 2.505e-5
-0.685, 2.501e-5
-0.686, 2.497e-5
-0.687, 2.493e-5
-0.688, 2.489e-5
-0.689, 2.485e-5
-0.690, 2.481e-5
-0.691, 2.478e-5
-0.692, 2.474e-5
-0.693, 2.470e-5
-0.694, 2.466e-5
-0.695, 2.462e-5
-0.696, 2.458e-5
-0.697, 2.454e-5
-0.698, 2.450e-5
-0.699, 2.447e-5
-0.700, 2.443e-5
-0.701, 2.439e-5
-0.702, 2.436e-5
-0.703, 2.432e-5
-0.704, 2.429e-5
-0.705, 2.425e-5
-0.706, 2.421e-5
-0.707, 2.418e-5
-0.708, 2.415e-5
-0.709, 2.411e-5
-0.710, 2.408e-5
-0.711, 2.405e-5
-0.712, 2.401e-5
-0.713, 2.398e-5
-0.714, 2.395e-5
-0.715, 2.392e-5
-0.716, 2.388e-5
-0.717, 2.385e-5
-0.718, 2.382e-5
-0.719, 2.379e-5
-0.720, 2.376e-5
-0.721, 2.372e-5
-0.722, 2.369e-5
-0.723, 2.366e-5
-0.724, 2.364e-5
-0.725, 2.360e-5
-0.726, 2.357e-5
-0.727, 2.354e-5
-0.728, 2.351e-5
-0.729, 2.349e-5
-0.730, 2.346e-5
-0.731, 2.343e-5
-0.732, 2.340e-5
-0.733, 2.337e-5
-0.734, 2.334e-5
-0.735, 2.331e-5
-0.736, 2.328e-5
-0.737, 2.326e-5
-0.738, 2.323e-5
-0.739, 2.321e-5
-0.740, 2.318e-5
-0.741, 2.314e-5
-0.742, 2.312e-5
-0.743, 2.309e-5
-0.744, 2.306e-5
-0.745, 2.304e-5
-0.746, 2.302e-5
-0.747, 2.299e-5
-0.748, 2.297e-5
-0.749, 2.294e-5
-0.750, 2.292e-5
-0.751, 2.290e-5
-0.752, 2.287e-5
-0.753, 2.285e-5
-0.754, 2.283e-5
-0.755, 2.280e-5
-0.756, 2.277e-5
-0.757, 2.276e-5
-0.758, 2.274e-5
-0.759, 2.272e-5
-0.760, 2.270e-5
-0.761, 2.267e-5
-0.762, 2.264e-5
-0.763, 2.262e-5
-0.764, 2.260e-5
-0.765, 2.258e-5
-0.766, 2.255e-5
-0.767, 2.253e-5
-0.768, 2.252e-5
-0.769, 2.250e-5
-0.770, 2.247e-5
-0.771, 2.245e-5
-0.772, 2.244e-5
-0.773, 2.242e-5
-0.774, 2.241e-5
-0.775, 2.238e-5
-0.776, 2.236e-5
-0.777, 2.235e-5
-0.778, 2.233e-5
-0.779, 2.231e-5
-0.780, 2.229e-5
-0.781, 2.227e-5
-0.782, 2.225e-5
-0.783, 2.224e-5
-0.784, 2.222e-5
-0.785, 2.220e-5
-0.786, 2.218e-5
-0.787, 2.216e-5
-0.788, 2.215e-5
-0.789, 2.213e-5
-0.790, 2.212e-5
-0.791, 2.209e-5
-0.792, 2.208e-5
-0.793, 2.206e-5
-0.794, 2.205e-5
-0.795, 2.204e-5
-0.796, 2.202e-5
-0.797, 2.200e-5
-0.798, 2.199e-5
-0.799, 2.197e-5
-0.800, 2.196e-5
-0.801, 2.194e-5
-0.802, 2.192e-5
-0.803, 2.191e-5
-0.804, 2.189e-5
-0.805, 2.187e-5
-0.806, 2.186e-5
-0.807, 2.185e-5
-0.808, 2.184e-5
-0.809, 2.182e-5
-0.810, 2.181e-5
-0.811, 2.179e-5
-0.812, 2.178e-5
-0.813, 2.176e-5
-0.814, 2.175e-5
-0.815, 2.174e-5
-0.816, 2.173e-5
-0.817, 2.171e-5
-0.818, 2.170e-5
-0.819, 2.169e-5
-0.820, 2.168e-5
-0.821, 2.166e-5
-0.822, 2.165e-5
-0.823, 2.164e-5
-0.824, 2.162e-5
-0.825, 2.161e-5
-0.826, 2.160e-5
-0.827, 2.160e-5
-0.828, 2.159e-5
-0.829, 2.157e-5
-0.830, 2.156e-5
-0.831, 2.155e-5
-0.832, 2.154e-5
-0.833, 2.153e-5
-0.834, 2.152e-5
-0.835, 2.151e-5
-0.836, 2.150e-5
-0.837, 2.149e-5
-0.838, 2.148e-5
-0.839, 2.147e-5
-0.840, 2.146e-5
-0.841, 2.144e-5
-0.842, 2.143e-5
-0.843, 2.143e-5
-0.844, 2.142e-5
-0.845, 2.141e-5
-0.846, 2.140e-5
-0.847, 2.139e-5
-0.848, 2.139e-5
-0.849, 2.138e-5
-0.850, 2.137e-5
-0.851, 2.136e-5
-0.852, 2.136e-5
-0.853, 2.134e-5
-0.854, 2.133e-5
-0.855, 2.132e-5
-0.856, 2.131e-5
-0.857, 2.130e-5
-0.858, 2.129e-5
-0.859, 2.129e-5
-0.860, 2.128e-5
-0.861, 2.127e-5
-0.862, 2.128e-5
-0.863, 2.127e-5
-0.864, 2.126e-5
-0.865, 2.126e-5
-0.866, 2.125e-5
-0.867, 2.124e-5
-0.868, 2.124e-5
-0.869, 2.124e-5
-0.870, 2.123e-5
-0.871, 2.122e-5
-0.872, 2.121e-5
-0.873, 2.120e-5
-0.874, 2.120e-5
-0.875, 2.119e-5
-0.876, 2.119e-5
-0.877, 2.118e-5
-0.878, 2.118e-5
-0.879, 2.117e-5
-0.880, 2.117e-5
-0.881, 2.116e-5
-0.882, 2.116e-5
-0.883, 2.115e-5
-0.884, 2.115e-5
-0.885, 2.115e-5
-0.886, 2.114e-5
-0.887, 2.114e-5
-0.888, 2.113e-5
-0.889, 2.113e-5
-0.890, 2.113e-5
-0.891, 2.113e-5
-0.892, 2.115e-5
-0.893, 2.113e-5
-0.894, 2.113e-5
-0.895, 2.112e-5
-0.896, 2.112e-5
-0.897, 2.112e-5
-0.898, 2.112e-5
-0.899, 2.111e-5
-0.900, 2.110e-5
-0.901, 2.110e-5
-0.902, 2.110e-5
-0.903, 2.110e-5
-0.904, 2.111e-5
-0.905, 2.110e-5
-0.906, 2.110e-5
-0.907, 2.110e-5
-0.908, 2.110e-5
-0.909, 2.110e-5
-0.910, 2.110e-5
-0.911, 2.109e-5
-0.912, 2.109e-5
-0.913, 2.109e-5
-0.914, 2.108e-5
-0.915, 2.108e-5
-0.916, 2.108e-5
-0.917, 2.108e-5
-0.918, 2.108e-5
-0.919, 2.109e-5
-0.920, 2.109e-5
-0.921, 2.109e-5
-0.922, 2.109e-5
-0.923, 2.109e-5
-0.924, 2.109e-5
-0.925, 2.110e-5
-0.926, 2.110e-5
-0.927, 2.110e-5
-0.928, 2.110e-5
-0.929, 2.111e-5
-0.930, 2.112e-5
-0.931, 2.112e-5
-0.932, 2.112e-5
-0.933, 2.113e-5
-0.934, 2.124e-5
-0.935, 2.133e-5
-0.936, 2.119e-5
-0.937, 2.116e-5
-0.938, 2.115e-5
-0.939, 2.115e-5
-0.940, 2.116e-5
-0.941, 2.115e-5
-0.942, 2.116e-5
-0.943, 2.116e-5
-0.944, 2.117e-5
-0.945, 2.117e-5
-0.946, 2.118e-5
-0.947, 2.119e-5
-0.948, 2.119e-5
-0.949, 2.119e-5
-0.950, 2.119e-5
-0.951, 2.120e-5
-0.952, 2.121e-5
-0.953, 2.121e-5
-0.954, 2.122e-5
-0.955, 2.122e-5
-0.956, 2.123e-5
-0.957, 2.124e-5
-0.958, 2.124e-5
-0.959, 2.125e-5
-0.960, 2.125e-5
-0.961, 2.126e-5
-0.962, 2.126e-5
-0.963, 2.127e-5
-0.964, 2.128e-5
-0.965, 2.129e-5
-0.966, 2.130e-5
-0.967, 2.131e-5
-0.968, 2.132e-5
-0.969, 2.133e-5
-0.970, 2.133e-5
-0.971, 2.134e-5
-0.972, 2.135e-5
-0.973, 2.136e-5
-0.974, 2.137e-5
-0.975, 2.138e-5
-0.976, 2.139e-5
-0.977, 2.140e-5
-0.978, 2.141e-5
-0.979, 2.142e-5
-0.980, 2.143e-5
-0.981, 2.144e-5
-0.982, 2.145e-5
-0.983, 2.147e-5
-0.984, 2.148e-5
-0.985, 2.150e-5
-0.986, 2.151e-5
-0.987, 2.153e-5
-0.988, 2.155e-5
-0.989, 2.156e-5
-0.990, 2.158e-5
-0.991, 2.159e-5
-0.992, 2.160e-5
-0.993, 2.162e-5
-0.994, 2.164e-5
-0.995, 2.166e-5
-0.996, 2.167e-5
-0.997, 2.169e-5
-0.998, 2.171e-5
-0.999, 2.173e-5
-1.000, 2.175e-5
-1.001, 2.177e-5
-1.002, 2.179e-5
-1.003, 2.181e-5
-1.004, 2.184e-5
-1.005, 2.186e-5
-1.006, 2.189e-5
-1.007, 2.191e-5
-1.008, 2.193e-5
-1.009, 2.195e-5
-1.010, 2.197e-5
-1.011, 2.200e-5
-1.012, 2.203e-5
-1.013, 2.205e-5
-1.014, 2.208e-5
-1.015, 2.211e-5
-1.016, 2.214e-5
-1.017, 2.216e-5
-1.018, 2.219e-5
-1.019, 2.223e-5
-1.020, 2.227e-5
-1.021, 2.230e-5
-1.022, 2.234e-5
-1.023, 2.237e-5
-1.024, 2.241e-5
-1.025, 2.244e-5
-1.026, 2.248e-5
-1.027, 2.252e-5
-1.028, 2.255e-5
-1.029, 2.259e-5
-1.030, 2.263e-5
-1.031, 2.267e-5
-1.032, 2.271e-5
-1.033, 2.276e-5
-1.034, 2.280e-5
-1.035, 2.284e-5
-1.036, 2.288e-5
-1.037, 2.293e-5
-1.038, 2.298e-5
-1.039, 2.302e-5
-1.040, 2.307e-5
-1.041, 2.313e-5
-1.042, 2.318e-5
-1.043, 2.324e-5
-1.044, 2.329e-5
-1.045, 2.335e-5
-1.046, 2.341e-5
-1.047, 2.347e-5
-1.048, 2.353e-5
-1.049, 2.360e-5
-1.050, 2.366e-5
-1.051, 2.372e-5
-1.052, 2.379e-5
-1.053, 2.386e-5
-1.054, 2.392e-5
-1.055, 2.400e-5
-1.056, 2.407e-5
-1.057, 2.414e-5
-1.058, 2.422e-5
-1.059, 2.430e-5
-1.060, 2.437e-5
-1.061, 2.445e-5
-1.062, 2.453e-5
-1.063, 2.461e-5
-1.064, 2.468e-5
-1.065, 2.476e-5
-1.066, 2.484e-5
-1.067, 2.492e-5
-1.068, 2.501e-5
-1.069, 2.509e-5
-1.070, 2.518e-5
-1.071, 2.526e-5
-1.072, 2.535e-5
-1.073, 2.544e-5
-1.074, 2.553e-5
-1.075, 2.562e-5
-1.076, 2.572e-5
-1.077, 2.581e-5
-1.078, 2.590e-5
-1.079, 2.599e-5
-1.080, 2.608e-5
-1.081, 2.618e-5
-1.082, 2.628e-5
-1.083, 2.637e-5
-1.084, 2.646e-5
-1.085, 2.656e-5
-1.086, 2.666e-5
-1.087, 2.676e-5
-1.088, 2.687e-5
-1.089, 2.697e-5
-1.090, 2.706e-5
-1.091, 2.714e-5
-1.092, 2.724e-5
-1.093, 2.734e-5
-1.094, 2.744e-5
-1.095, 2.754e-5
-1.096, 2.763e-5
-1.097, 2.773e-5
-1.098, 2.782e-5
-1.099, 2.791e-5
-1.100, 2.800e-5
-1.101, 2.808e-5
-1.102, 2.818e-5
-1.103, 2.828e-5
-1.104, 2.837e-5
-1.105, 2.847e-5
-1.106, 2.856e-5
-1.107, 2.865e-5
-1.108, 2.874e-5
-1.109, 2.882e-5
-1.110, 2.892e-5
-1.111, 2.900e-5
-1.112, 2.910e-5
-1.113, 2.919e-5
-1.114, 2.928e-5
-1.115, 2.937e-5
-1.116, 2.946e-5
-1.117, 2.955e-5
-1.118, 2.963e-5
-1.119, 2.972e-5
-1.120, 2.981e-5
-1.121, 2.989e-5
-1.122, 2.998e-5
-1.123, 3.006e-5
-1.124, 3.014e-5
-1.125, 3.022e-5
-1.126, 3.030e-5
-1.127, 3.038e-5
-1.128, 3.046e-5
-1.129, 3.054e-5
-1.130, 3.061e-5
-1.131, 3.068e-5
-1.132, 3.076e-5
-1.133, 3.085e-5
-1.134, 3.091e-5
-1.135, 3.097e-5
-1.136, 3.104e-5
-1.137, 3.112e-5
-1.138, 3.119e-5
-1.139, 3.126e-5
-1.140, 3.132e-5
-1.141, 3.138e-5
-1.142, 3.146e-5
-1.143, 3.155e-5
-1.144, 3.164e-5
-1.145, 3.171e-5
-1.146, 3.179e-5
-1.147, 3.183e-5
-1.148, 3.188e-5
-1.149, 3.195e-5
-1.150, 3.202e-5
-1.151, 3.209e-5
-1.152, 3.214e-5
-1.153, 3.217e-5
-1.154, 3.220e-5
-1.155, 3.225e-5
-1.156, 3.230e-5
-1.157, 3.233e-5
-1.158, 3.237e-5
-1.159, 3.243e-5
-1.160, 3.247e-5
-1.161, 3.251e-5
-1.162, 3.255e-5
-1.163, 3.260e-5
-1.164, 3.265e-5
-1.165, 3.269e-5
-1.166, 3.273e-5
-1.167, 3.276e-5
-1.168, 3.280e-5
-1.169, 3.285e-5
-1.170, 3.290e-5
-1.171, 3.293e-5
-1.172, 3.297e-5
-1.173, 3.300e-5
-1.174, 3.303e-5
-1.175, 3.307e-5
-1.176, 3.311e-5
-1.177, 3.316e-5
-1.178, 3.321e-5
-1.179, 3.324e-5
-1.180, 3.327e-5
-1.181, 3.330e-5
-1.182, 3.335e-5
-1.183, 3.337e-5
-1.184, 3.341e-5
-1.185, 3.344e-5
-1.186, 3.347e-5
-1.187, 3.350e-5
-1.188, 3.353e-5
-1.189, 3.357e-5
-1.190, 3.361e-5
-1.191, 3.364e-5
-1.192, 3.368e-5
-1.193, 3.370e-5
-1.194, 3.374e-5
-1.195, 3.378e-5
-1.196, 3.381e-5
-1.197, 3.386e-5
-1.198, 3.390e-5
-1.199, 3.394e-5
-1.200, 3.397e-5
-1.201, 3.402e-5
-1.202, 3.406e-5
-1.203, 3.413e-5
-1.204, 3.418e-5
-1.205, 3.422e-5
-1.206, 3.425e-5
-1.207, 3.428e-5
-1.208, 3.433e-5
-1.209, 3.437e-5
-1.210, 3.440e-5
-1.211, 3.442e-5
-1.212, 3.446e-5
-1.213, 3.450e-5
-1.214, 3.454e-5
-1.215, 3.458e-5
-1.216, 3.463e-5
-1.217, 3.468e-5
-1.218, 3.473e-5
-1.219, 3.479e-5
-1.220, 3.483e-5
-1.221, 3.487e-5
-1.222, 3.493e-5
-1.223, 3.499e-5
-1.224, 3.504e-5
-1.225, 3.508e-5
-1.226, 3.513e-5
-1.227, 3.519e-5
-1.228, 3.525e-5
-1.229, 3.529e-5
-1.230, 3.533e-5
-1.231, 3.539e-5
-1.232, 3.542e-5
-1.233, 3.547e-5
-1.234, 3.553e-5
-1.235, 3.559e-5
-1.236, 3.563e-5
-1.237, 3.566e-5
-1.238, 3.571e-5
-1.239, 3.576e-5
-1.240, 3.581e-5
-1.241, 3.586e-5
-1.242, 3.590e-5
-1.243, 3.596e-5
-1.244, 3.602e-5
-1.245, 3.609e-5
-1.246, 3.614e-5
-1.247, 3.620e-5
-1.248, 3.626e-5
-1.249, 3.630e-5
-1.250, 3.638e-5
-1.251, 3.644e-5
-1.252, 3.649e-5
-1.253, 3.654e-5
-1.254, 3.661e-5
-1.255, 3.667e-5
-1.256, 3.671e-5
-1.257, 3.677e-5
-1.258, 3.683e-5
-1.259, 3.689e-5
-1.260, 3.694e-5
-1.261, 3.699e-5
-1.262, 3.704e-5
-1.263, 3.711e-5
-1.264, 3.716e-5
-1.265, 3.721e-5
-1.266, 3.726e-5
-1.267, 3.730e-5
-1.268, 3.737e-5
-1.269, 3.740e-5
-1.270, 3.745e-5
-1.271, 3.751e-5
-1.272, 3.757e-5
-1.273, 3.765e-5
-1.274, 3.771e-5
-1.275, 3.776e-5
-1.276, 3.782e-5
-1.277, 3.787e-5
-1.278, 3.794e-5
-1.279, 3.800e-5
-1.280, 3.806e-5
-1.281, 3.811e-5
-1.282, 3.815e-5
-1.283, 3.821e-5
-1.284, 3.827e-5
-1.285, 3.834e-5
-1.286, 3.839e-5
-1.287, 3.844e-5
-1.288, 3.850e-5
-1.289, 3.853e-5
-1.290, 3.859e-5
-1.291, 3.865e-5
-1.292, 3.870e-5
-1.293, 3.876e-5
-1.294, 3.882e-5
-1.295, 3.886e-5
-1.296, 3.894e-5
-1.297, 3.904e-5
-1.298, 3.913e-5
-1.299, 3.923e-5
-1.300, 3.930e-5
-1.301, 3.936e-5
-1.302, 3.945e-5
-1.303, 3.955e-5
-1.304, 3.966e-5
-1.305, 3.973e-5
-1.306, 3.980e-5
-1.307, 3.987e-5
-1.308, 3.992e-5
-1.309, 3.999e-5
-1.310, 4.005e-5
-1.311, 4.010e-5
-1.312, 4.019e-5
-1.313, 4.026e-5
-1.314, 4.030e-5
-1.315, 4.035e-5
-1.316, 4.044e-5
-1.317, 4.053e-5
-1.318, 4.056e-5
-1.319, 4.059e-5
-1.320, 4.064e-5
-1.321, 4.068e-5
-1.322, 4.075e-5
-1.323, 4.083e-5
-1.324, 4.090e-5
-1.325, 4.095e-5
-1.326, 4.103e-5
-1.327, 4.111e-5
-1.328, 4.118e-5
-1.329, 4.123e-5
-1.330, 4.128e-5
-1.331, 4.134e-5
-1.332, 4.141e-5
-1.333, 4.151e-5
-1.334, 4.159e-5
-1.335, 4.169e-5
-1.336, 4.175e-5
-1.337, 4.176e-5
-1.338, 4.183e-5
-1.339, 4.194e-5
-1.340, 4.199e-5
-1.341, 4.206e-5
-1.342, 4.213e-5
-1.343, 4.218e-5
-1.344, 4.223e-5
-1.345, 4.230e-5
-1.346, 4.236e-5
-1.347, 4.242e-5
-1.348, 4.249e-5
-1.349, 4.256e-5
-1.350, 4.265e-5
-1.351, 4.273e-5
-1.352, 4.277e-5
-1.353, 4.283e-5
-1.354, 4.290e-5
-1.355, 4.299e-5
-1.356, 4.305e-5
-1.357, 4.309e-5
-1.358, 4.316e-5
-1.359, 4.327e-5
-1.360, 4.334e-5
-1.361, 4.344e-5
-1.362, 4.356e-5
-1.363, 4.366e-5
-1.364, 4.374e-5
-1.365, 4.380e-5
-1.366, 4.386e-5
-1.367, 4.393e-5
-1.368, 4.399e-5
-1.369, 4.405e-5
-1.370, 4.408e-5
-1.371, 4.414e-5
-1.372, 4.420e-5
-1.373, 4.426e-5
-1.374, 4.433e-5
-1.375, 4.442e-5
-1.376, 4.451e-5
-1.377, 4.460e-5
-1.378, 4.475e-5
-1.379, 4.479e-5
-1.380, 4.482e-5
-1.381, 4.487e-5
-1.382, 4.493e-5
-1.383, 4.498e-5
-1.384, 4.504e-5
-1.385, 4.513e-5
-1.386, 4.522e-5
-1.387, 4.535e-5
-1.388, 4.546e-5
-1.389, 4.560e-5
-1.390, 4.578e-5
-1.391, 4.579e-5
-1.392, 4.587e-5
-1.393, 4.597e-5
-1.394, 4.603e-5
-1.395, 4.612e-5
-1.396, 4.622e-5
-1.397, 4.632e-5
-1.398, 4.641e-5
-1.399, 4.646e-5
-1.400, 4.653e-5
-1.401, 4.663e-5
-1.402, 4.672e-5
-1.403, 4.679e-5
-1.404, 4.690e-5
-1.405, 4.707e-5
-1.406, 4.719e-5
-1.407, 4.726e-5
-1.408, 4.734e-5
-1.409, 4.743e-5
-1.410, 4.750e-5
-1.411, 4.760e-5
-1.412, 4.768e-5
-1.413, 4.777e-5
-1.414, 4.789e-5
-1.415, 4.797e-5
-1.416, 4.806e-5
-1.417, 4.816e-5
-1.418, 4.818e-5
-1.419, 4.826e-5
-1.420, 4.839e-5
-1.421, 4.849e-5
-1.422, 4.858e-5
-1.423, 4.869e-5
-1.424, 4.880e-5
-1.425, 4.893e-5
-1.426, 4.903e-5
-1.427, 4.913e-5
-1.428, 4.923e-5
-1.429, 4.932e-5
-1.430, 4.944e-5
-1.431, 4.958e-5
-1.432, 4.961e-5
-1.433, 4.968e-5
-1.434, 4.981e-5
-1.435, 4.997e-5
-1.436, 5.012e-5
-1.437, 5.011e-5
-1.438, 5.026e-5
-1.439, 5.034e-5
-1.440, 5.035e-5
-1.441, 5.040e-5
-1.442, 5.055e-5
-1.443, 5.059e-5
-1.444, 5.071e-5
-1.445, 5.084e-5
-1.446, 5.091e-5
-1.447, 5.100e-5
-1.448, 5.114e-5
-1.449, 5.125e-5
-1.450, 5.135e-5
-1.451, 5.152e-5
-1.452, 5.164e-5
-1.453, 5.174e-5
-1.454, 5.189e-5
-1.455, 5.203e-5
-1.456, 5.214e-5
-1.457, 5.222e-5
-1.458, 5.238e-5
-1.459, 5.251e-5
-1.460, 5.256e-5
-1.461, 5.272e-5
-1.462, 5.286e-5
-1.463, 5.302e-5
-1.464, 5.323e-5
-1.465, 5.333e-5
-1.466, 5.344e-5
-1.467, 5.355e-5
-1.468, 5.383e-5
-1.469, 5.406e-5
-1.470, 5.416e-5
-1.471, 5.419e-5
-1.472, 5.419e-5
-1.473, 5.428e-5
-1.474, 5.441e-5
-1.475, 5.450e-5
-1.476, 5.463e-5
-1.477, 5.475e-5
-1.478, 5.489e-5
-1.479, 5.504e-5
-1.480, 5.521e-5
-1.481, 5.537e-5
-1.482, 5.561e-5
-1.483, 5.589e-5
-1.484, 5.619e-5
-1.485, 5.633e-5
-1.486, 5.632e-5
-1.487, 5.649e-5
-1.488, 5.665e-5
-1.489, 5.686e-5
-1.490, 5.705e-5
-1.491, 5.717e-5
-1.492, 5.720e-5
-1.493, 5.728e-5
-1.494, 5.741e-5
-1.495, 5.755e-5
-1.496, 5.771e-5
-1.497, 5.793e-5
-1.498, 5.813e-5
-1.499, 5.828e-5
-1.500, 5.843e-5
-1.501, 5.865e-5
-1.502, 5.892e-5
-1.503, 5.904e-5
-1.504, 5.917e-5
-1.505, 5.931e-5
-1.506, 5.956e-5
-1.507, 5.985e-5
-1.508, 6.002e-5
-1.509, 6.013e-5
-1.510, 6.045e-5
-1.511, 6.064e-5
-1.512, 6.084e-5
-1.513, 6.115e-5
-1.514, 6.136e-5
-1.515, 6.156e-5
-1.516, 6.177e-5
-1.517, 6.195e-5
-1.518, 6.210e-5
-1.519, 6.225e-5
-1.520, 6.247e-5
-1.521, 6.274e-5
-1.522, 6.308e-5
-1.523, 6.346e-5
-1.524, 6.358e-5
-1.525, 6.370e-5
-1.526, 6.394e-5
-1.527, 6.423e-5
-1.528, 6.440e-5
-1.529, 6.466e-5
-1.530, 6.485e-5
-1.531, 6.531e-5
-1.532, 6.544e-5
-1.533, 6.568e-5
-1.534, 6.600e-5
-1.535, 6.625e-5
-1.536, 6.652e-5
-1.537, 6.680e-5
-1.538, 6.706e-5
-1.539, 6.735e-5
-1.540, 6.766e-5
-1.541, 6.795e-5
-1.542, 6.828e-5
-1.543, 6.860e-5
-1.544, 6.894e-5
-1.545, 6.921e-5
-1.546, 6.953e-5
-1.547, 6.990e-5
-1.548, 7.028e-5
-1.549, 7.069e-5
-1.550, 7.102e-5
-1.551, 7.152e-5
-1.552, 7.203e-5
-1.553, 7.251e-5
-1.554, 7.273e-5
-1.555, 7.314e-5
-1.556, 7.323e-5
-1.557, 7.353e-5
-1.558, 7.388e-5
-1.559, 7.420e-5
-1.560, 7.457e-5
-1.561, 7.502e-5
-1.562, 7.544e-5
-1.563, 7.591e-5
-1.564, 7.627e-5
-1.565, 7.664e-5
-1.566, 7.696e-5
-1.567, 7.744e-5
-1.568, 7.783e-5
-1.569, 7.833e-5
-1.570, 7.885e-5
-1.571, 7.942e-5
-1.572, 7.998e-5
-1.573, 8.045e-5
-1.574, 8.093e-5
-1.575, 8.160e-5
-1.576, 8.207e-5
-1.577, 8.256e-5
-1.578, 8.315e-5
-1.579, 8.372e-5
-1.580, 8.432e-5
-1.581, 8.483e-5
-1.582, 8.536e-5
-1.583, 8.600e-5
-1.584, 8.668e-5
-1.585, 8.731e-5
-1.586, 8.791e-5
-1.587, 8.853e-5
-1.588, 8.929e-5
-1.589, 8.990e-5
-1.590, 9.059e-5
-1.591, 9.137e-5
-1.592, 9.215e-5
-1.593, 9.280e-5
-1.594, 9.347e-5
-1.595, 9.417e-5
-1.596, 9.548e-5
-1.597, 9.610e-5
-1.598, 9.675e-5
-1.599, 9.774e-5
-1.600, 9.850e-5
-1.601, 9.911e-5
-1.602, 9.994e-5
-1.603, 1.007e-4
-1.604, 1.015e-4
-1.605, 1.024e-4
-1.606, 1.033e-4
-1.607, 1.042e-4
-1.608, 1.051e-4
-1.609, 1.060e-4
-1.610, 1.070e-4
-1.611, 1.079e-4
-1.612, 1.089e-4
-1.613, 1.098e-4
-1.614, 1.108e-4
-1.615, 1.119e-4
-1.616, 1.130e-4
-1.617, 1.140e-4
-1.618, 1.149e-4
-1.619, 1.161e-4
-1.620, 1.171e-4
-1.621, 1.182e-4
-1.622, 1.194e-4
-1.623, 1.205e-4
-1.624, 1.216e-4
-1.625, 1.228e-4
-1.626, 1.240e-4
-1.627, 1.252e-4
-1.628, 1.265e-4
-1.629, 1.277e-4
-1.630, 1.290e-4
-1.631, 1.302e-4
-1.632, 1.315e-4
-1.633, 1.328e-4
-1.634, 1.342e-4
-1.635, 1.356e-4
-1.636, 1.370e-4
-1.637, 1.383e-4
-1.638, 1.397e-4
-1.639, 1.412e-4
-1.640, 1.426e-4
-1.641, 1.441e-4
-1.642, 1.455e-4
-1.643, 1.470e-4
-1.644, 1.484e-4
-1.645, 1.500e-4
-1.646, 1.516e-4
-1.647, 1.530e-4
-1.648, 1.545e-4
-1.649, 1.561e-4
-1.650, 1.577e-4
-1.651, 1.592e-4
-1.652, 1.608e-4
-1.653, 1.625e-4
-1.654, 1.642e-4
-1.655, 1.659e-4
-1.656, 1.676e-4
-1.657, 1.693e-4
-1.658, 1.711e-4
-1.659, 1.729e-4
-1.660, 1.748e-4
-1.661, 1.766e-4
-1.662, 1.783e-4
-1.663, 1.803e-4
-1.664, 1.822e-4
-1.665, 1.839e-4
-1.666, 1.857e-4
-1.667, 1.876e-4
-1.668, 1.896e-4
-1.669, 1.917e-4
-1.670, 1.937e-4
-1.671, 1.956e-4
-1.672, 1.973e-4
-1.673, 1.992e-4
-1.674, 2.012e-4
-1.675, 2.033e-4
-1.676, 2.053e-4
-1.677, 2.074e-4
-1.678, 2.096e-4
-1.679, 2.115e-4
-1.680, 2.136e-4
-1.681, 2.158e-4
-1.682, 2.178e-4
-1.683, 2.199e-4
-1.684, 2.223e-4
-1.685, 2.245e-4
-1.686, 2.266e-4
-1.687, 2.289e-4
-1.688, 2.311e-4
-1.689, 2.333e-4
-1.690, 2.358e-4
-1.691, 2.381e-4
-1.692, 2.404e-4
-1.693, 2.430e-4
-1.694, 2.455e-4
-1.695, 2.474e-4
-1.696, 2.496e-4
-1.697, 2.522e-4
-1.698, 2.545e-4
-1.699, 2.570e-4
-1.700, 2.595e-4
-1.701, 2.621e-4
-1.702, 2.647e-4
-1.703, 2.673e-4
-1.704, 2.700e-4
-1.705, 2.728e-4
-1.706, 2.757e-4
-1.707, 2.787e-4
-1.708, 2.816e-4
-1.709, 2.846e-4
-1.710, 2.877e-4
-1.711, 2.910e-4
-1.712, 2.943e-4
-1.713, 2.969e-4
-1.714, 3.000e-4
-1.715, 3.033e-4
-1.716, 3.066e-4
-1.717, 3.101e-4
-1.718, 3.135e-4
-1.719, 3.168e-4
-1.720, 3.202e-4
-1.721, 3.236e-4
-1.722, 3.271e-4
-1.723, 3.307e-4
-1.724, 3.343e-4
-1.725, 3.378e-4
-1.726, 3.415e-4
-1.727, 3.452e-4
-1.728, 3.490e-4
-1.729, 3.528e-4
-1.730, 3.566e-4
-1.731, 3.605e-4
-1.732, 3.645e-4
-1.733, 3.687e-4
-1.734, 3.728e-4
-1.735, 3.767e-4
-1.736, 3.808e-4
-1.737, 3.848e-4
-1.738, 3.890e-4
-1.739, 3.932e-4
-1.740, 3.974e-4
-1.741, 4.018e-4
-1.742, 4.060e-4
-1.743, 4.102e-4
-1.744, 4.147e-4
-1.745, 4.192e-4
-1.746, 4.237e-4
-1.747, 4.282e-4
-1.748, 4.326e-4
-1.749, 4.373e-4
-1.750, 4.419e-4
-1.751, 4.464e-4
-1.752, 4.511e-4
-1.753, 4.558e-4
-1.754, 4.605e-4
-1.755, 4.654e-4
-1.756, 4.703e-4
-1.757, 4.751e-4
-1.758, 4.800e-4
-1.759, 4.848e-4
-1.760, 4.898e-4
-1.761, 4.948e-4
-1.762, 5.000e-4
-1.763, 5.051e-4
-1.764, 5.103e-4
-1.765, 5.156e-4
-1.766, 5.208e-4
-1.767, 5.259e-4
-1.768, 5.312e-4
-1.769, 5.364e-4
-1.770, 5.418e-4
-1.771, 5.473e-4
-1.772, 5.527e-4
-1.773, 5.586e-4
-1.774, 5.640e-4
-1.775, 5.696e-4
-1.776, 5.751e-4
-1.777, 5.807e-4
-1.778, 5.861e-4
-1.779, 5.917e-4
-1.780, 5.974e-4
-1.781, 6.029e-4
-1.782, 6.088e-4
-1.783, 6.145e-4
-1.784, 6.203e-4
-1.785, 6.262e-4
-1.786, 6.320e-4
-1.787, 6.380e-4
-1.788, 6.439e-4
-1.789, 6.497e-4
-1.790, 6.558e-4
-1.791, 6.617e-4
-1.792, 6.677e-4
-1.793, 6.738e-4
-1.794, 6.799e-4
-1.795, 6.862e-4
-1.796, 6.924e-4
-1.797, 6.985e-4
-1.798, 7.048e-4
-1.799, 7.113e-4
-1.800, 7.175e-4
-1.801, 7.239e-4
-1.802, 7.302e-4
-1.803, 7.367e-4
-1.804, 7.431e-4
-1.805, 7.497e-4
-1.806, 7.562e-4
-1.807, 7.627e-4
-1.808, 7.693e-4
-1.809, 7.759e-4
-1.810, 7.826e-4
-1.811, 7.894e-4
-1.812, 7.959e-4
-1.813, 8.026e-4
-1.814, 8.093e-4
-1.815, 8.160e-4
-1.816, 8.228e-4
-1.817, 8.297e-4
-1.818, 8.365e-4
-1.819, 8.433e-4
-1.820, 8.502e-4
-1.821, 8.571e-4
-1.822, 8.643e-4
-1.823, 8.714e-4
-1.824, 8.783e-4
-1.825, 8.855e-4
-1.826, 8.925e-4
-1.827, 8.997e-4
-1.828, 9.067e-4
-1.829, 9.138e-4
-1.830, 9.211e-4
-1.831, 9.283e-4
-1.832, 9.357e-4
-1.833, 9.431e-4
-1.834, 9.503e-4
-1.835, 9.577e-4
-1.836, 9.650e-4
-1.837, 9.723e-4
-1.838, 9.796e-4
-1.839, 9.871e-4
-1.840, 9.946e-4
-1.841, 1.002e-3
-1.842, 1.009e-3
-1.843, 1.011e-3
-1.844, 1.011e-3
-1.845, 1.011e-3
-1.846, 1.011e-3
-1.847, 1.011e-3
-1.848, 1.011e-3
-1.849, 1.011e-3
-1.850, 1.011e-3
-1.851, 1.011e-3
-1.852, 1.011e-3
-1.853, 1.011e-3
-1.854, 1.011e-3
-1.855, 1.011e-3
-1.856, 1.011e-3
-1.857, 1.011e-3
-1.858, 1.011e-3
-1.859, 1.011e-3
-1.860, 1.011e-3
-1.861, 1.011e-3
-1.862, 1.011e-3
-1.863, 1.011e-3
-1.864, 1.011e-3
-1.865, 1.011e-3
-1.866, 1.011e-3
-1.867, 1.011e-3
-1.868, 1.011e-3
-1.869, 1.011e-3
-1.870, 1.011e-3
-1.871, 1.011e-3
-1.872, 1.011e-3
-1.873, 1.011e-3
-1.874, 1.011e-3
-1.875, 1.011e-3
-1.876, 1.011e-3
-1.877, 1.011e-3
-1.878, 1.011e-3
-1.879, 1.011e-3
-1.880, 1.011e-3
-1.881, 1.011e-3
-1.882, 1.011e-3
-1.883, 1.011e-3
-1.884, 1.011e-3
-1.885, 1.011e-3
-1.886, 1.011e-3
-1.887, 1.011e-3
-1.888, 1.011e-3
-1.889, 1.011e-3
-1.890, 1.011e-3
-1.891, 1.011e-3
-1.892, 1.011e-3
-1.893, 1.011e-3
-1.894, 1.011e-3
-1.895, 1.011e-3
-1.896, 1.011e-3
-1.897, 1.011e-3
-1.898, 1.011e-3
-1.899, 1.011e-3
-1.900, 1.011e-3
-1.901, 1.011e-3
-1.902, 1.011e-3
-1.903, 1.011e-3
-1.904, 1.011e-3
-1.905, 1.011e-3
-1.906, 1.011e-3
-1.907, 1.011e-3
-1.908, 1.011e-3
-1.909, 1.011e-3
-1.910, 1.011e-3
-1.911, 1.011e-3
-1.912, 1.011e-3
-1.913, 1.011e-3
-1.914, 1.011e-3
-1.915, 1.011e-3
-1.916, 1.011e-3
-1.917, 1.011e-3
-1.918, 1.011e-3
-1.919, 1.011e-3
-1.920, 1.011e-3
-1.921, 1.011e-3
-1.922, 1.011e-3
-1.923, 1.011e-3
-1.924, 1.011e-3
-1.925, 1.011e-3
-1.926, 1.011e-3
-1.927, 1.011e-3
-1.928, 1.011e-3
-1.929, 1.011e-3
-1.930, 1.011e-3
-1.931, 1.011e-3
-1.932, 1.011e-3
-1.933, 1.011e-3
-1.934, 1.011e-3
-1.935, 1.011e-3
-1.936, 1.011e-3
-1.937, 1.011e-3
-1.938, 1.011e-3
-1.939, 1.011e-3
-1.940, 1.011e-3
-1.941, 1.011e-3
-1.942, 1.011e-3
-1.943, 1.011e-3
-1.944, 1.011e-3
-1.945, 1.011e-3
-1.946, 1.011e-3
-1.947, 1.011e-3
-1.948, 1.011e-3
-1.949, 1.011e-3
-1.950, 1.011e-3
-1.951, 1.011e-3
-1.952, 1.011e-3
-1.953, 1.011e-3
-1.954, 1.011e-3
-1.955, 1.011e-3
-1.956, 1.011e-3
-1.957, 1.011e-3
-1.958, 1.011e-3
-1.959, 1.011e-3
-1.960, 1.011e-3
-1.961, 1.011e-3
-1.962, 1.011e-3
-1.963, 1.011e-3
-1.964, 1.011e-3
-1.965, 1.011e-3
-1.966, 1.011e-3
-1.967, 1.011e-3
-1.968, 1.011e-3
-1.969, 1.011e-3
-1.970, 1.011e-3
-1.971, 1.011e-3
-1.972, 1.011e-3
-1.973, 1.011e-3
-1.974, 1.011e-3
-1.975, 1.011e-3
-1.976, 1.011e-3
-1.977, 1.011e-3
-1.978, 1.011e-3
-1.979, 1.011e-3
-1.980, 1.011e-3
-1.981, 1.011e-3
-1.982, 1.011e-3
-1.983, 1.011e-3
-1.984, 1.011e-3
-1.985, 1.011e-3
-1.986, 1.011e-3
-1.987, 1.011e-3
-1.988, 1.011e-3
-1.989, 1.011e-3
-1.990, 1.011e-3
-1.991, 1.011e-3
-1.992, 1.011e-3
-1.993, 1.011e-3
-1.994, 1.011e-3
-1.995, 1.011e-3
-1.996, 1.011e-3
-1.997, 1.011e-3
-1.998, 1.011e-3
-1.999, 1.011e-3
-2.000, 1.011e-3
-2.001, 1.011e-3
-2.002, 1.011e-3
-2.003, 1.011e-3
-2.004, 1.011e-3
-2.005, 1.011e-3
-2.006, 1.011e-3
-2.007, 1.011e-3
-2.008, 1.011e-3
-2.009, 1.011e-3
-2.010, 1.011e-3
-2.011, 1.011e-3
-2.012, 1.011e-3
-2.013, 1.011e-3
-2.014, 1.011e-3
-2.015, 1.011e-3
-2.016, 1.011e-3
-2.017, 1.011e-3
-2.018, 1.011e-3
-2.019, 1.011e-3
-2.020, 1.011e-3
-2.021, 1.011e-3
-2.022, 1.011e-3
-2.023, 1.011e-3
-2.024, 1.011e-3
-2.025, 1.011e-3
-2.026, 1.011e-3
-2.027, 1.011e-3
-2.028, 1.011e-3
-2.029, 1.011e-3
-2.030, 1.011e-3
-2.031, 1.011e-3
-2.032, 1.011e-3
-2.033, 1.011e-3
-2.034, 1.011e-3
-2.035, 1.011e-3
-2.036, 1.011e-3
-2.037, 1.011e-3
-2.038, 1.011e-3
-2.039, 1.011e-3
-2.040, 1.011e-3
-2.041, 1.011e-3
-2.042, 1.011e-3
-2.043, 1.011e-3
-2.044, 1.011e-3
-2.045, 1.011e-3
-2.046, 1.011e-3
-2.047, 1.011e-3
-2.048, 1.011e-3
-2.049, 1.011e-3
-2.050, 1.011e-3
-2.051, 1.011e-3
-2.052, 1.011e-3
-2.053, 1.011e-3
-2.054, 1.011e-3
-2.055, 1.011e-3
-2.056, 1.011e-3
-2.057, 1.011e-3
-2.058, 1.011e-3
-2.059, 1.011e-3
-2.060, 1.011e-3
-2.061, 1.011e-3
-2.062, 1.011e-3
-2.063, 1.011e-3
-2.064, 1.011e-3
-2.065, 1.011e-3
-2.066, 1.011e-3
-2.067, 1.011e-3
-2.068, 1.011e-3
-2.069, 1.011e-3
-2.070, 1.011e-3
-2.071, 1.011e-3
-2.072, 1.011e-3
-2.073, 1.011e-3
-2.074, 1.011e-3
-2.075, 1.011e-3
-2.076, 1.011e-3
-2.077, 1.011e-3
-2.078, 1.011e-3
-2.079, 1.011e-3
-2.080, 1.011e-3
-2.081, 1.011e-3
-2.082, 1.011e-3
-2.083, 1.011e-3
-2.084, 1.011e-3
-2.085, 1.011e-3
-2.086, 1.011e-3
-2.087, 1.011e-3
-2.088, 1.011e-3
-2.089, 1.011e-3
-2.090, 1.011e-3
-2.091, 1.011e-3
-2.092, 1.011e-3
-2.093, 1.011e-3
-2.094, 1.011e-3
-2.095, 1.011e-3
-2.096, 1.011e-3
-2.097, 1.011e-3
-2.098, 1.011e-3
-2.099, 1.011e-3
-2.100, 1.011e-3
-2.101, 1.011e-3
-2.102, 1.011e-3
-2.103, 1.011e-3
-2.104, 1.011e-3
-2.105, 1.011e-3
-2.106, 1.011e-3
-2.107, 1.011e-3
-2.108, 1.011e-3
-2.109, 1.011e-3
-2.110, 1.011e-3
-2.111, 1.011e-3
-2.112, 1.011e-3
-2.113, 1.011e-3
-2.114, 1.011e-3
-2.115, 1.011e-3
-2.116, 1.011e-3
-2.117, 1.011e-3
-2.118, 1.011e-3
-2.119, 1.011e-3
-2.120, 1.011e-3
-2.121, 1.011e-3
-2.122, 1.011e-3
-2.123, 1.011e-3
-2.124, 1.011e-3
-2.125, 1.011e-3
-2.126, 1.011e-3
-2.127, 1.011e-3
-2.128, 1.011e-3
-2.129, 1.011e-3
-2.130, 1.011e-3
-2.131, 1.011e-3
-2.132, 1.011e-3
-2.133, 1.011e-3
-2.134, 1.011e-3
-2.135, 1.011e-3
-2.136, 1.011e-3
-2.137, 1.011e-3
-2.138, 1.011e-3
-2.139, 1.011e-3
-2.140, 1.011e-3
-2.141, 1.011e-3
-2.142, 1.011e-3
-2.143, 1.011e-3
-2.144, 1.011e-3
-2.145, 1.011e-3
-2.146, 1.011e-3
-2.147, 1.011e-3
-2.148, 1.011e-3
-2.149, 1.011e-3
-2.150, 1.011e-3
-2.151, 1.011e-3
-2.152, 1.011e-3
-2.153, 1.011e-3
-2.154, 1.011e-3
-2.155, 1.011e-3
-2.156, 1.011e-3
-2.157, 1.011e-3
-2.158, 1.011e-3
-2.159, 1.011e-3
-2.160, 1.011e-3
-2.161, 1.011e-3
-2.162, 1.011e-3
-2.163, 1.011e-3
-2.164, 1.011e-3
-2.165, 1.011e-3
-2.166, 1.011e-3
-2.167, 1.011e-3
-2.168, 1.011e-3
-2.169, 1.011e-3
-2.170, 1.011e-3
-2.171, 1.011e-3
-2.172, 1.011e-3
-2.173, 1.011e-3
-2.174, 1.011e-3
-2.175, 1.011e-3
-2.176, 1.011e-3
-2.177, 1.011e-3
-2.178, 1.011e-3
-2.179, 1.011e-3
-2.180, 1.011e-3
-2.181, 1.011e-3
-2.182, 1.011e-3
-2.183, 1.011e-3
-2.184, 1.011e-3
-2.185, 1.011e-3
-2.186, 1.011e-3
-2.187, 1.011e-3
-2.188, 1.011e-3
-2.189, 1.011e-3
-2.190, 1.011e-3
-2.191, 1.011e-3
-2.192, 1.011e-3
-2.193, 1.011e-3
-2.194, 1.011e-3
-2.195, 1.011e-3
-2.196, 1.011e-3
-2.197, 1.011e-3
-2.198, 1.011e-3
-2.199, 1.011e-3
-2.200, 1.011e-3
-2.201, 1.011e-3
-2.202, 1.011e-3
-2.203, 1.011e-3
-2.204, 1.011e-3
-2.205, 1.011e-3
-2.206, 1.011e-3
-2.207, 1.011e-3
-2.208, 1.011e-3
-2.209, 1.011e-3
-2.210, 1.011e-3
-2.211, 1.011e-3
-2.212, 1.011e-3
-2.213, 1.011e-3
-2.214, 1.011e-3
-2.215, 1.011e-3
-2.216, 1.011e-3
-2.217, 1.011e-3
-2.218, 1.011e-3
-2.219, 1.011e-3
-2.220, 1.011e-3
-2.221, 1.011e-3
-2.222, 1.011e-3
-2.223, 1.011e-3
-2.224, 1.011e-3
-2.225, 1.011e-3
-2.226, 1.011e-3
-2.227, 1.011e-3
-2.228, 1.011e-3
-2.229, 1.011e-3
-2.230, 1.011e-3
-2.231, 1.011e-3
-2.232, 1.011e-3
-2.233, 1.011e-3
-2.234, 1.011e-3
-2.235, 1.011e-3
-2.236, 1.011e-3
-2.237, 1.011e-3
-2.238, 1.011e-3
-2.239, 1.011e-3
-2.240, 1.011e-3
-2.241, 1.011e-3
-2.242, 1.011e-3
-2.243, 1.011e-3
-2.244, 1.011e-3
-2.245, 1.011e-3
-2.246, 1.011e-3
-2.247, 1.011e-3
-2.248, 1.011e-3
-2.249, 1.011e-3
-2.250, 1.011e-3
-2.251, 1.011e-3
-2.252, 1.011e-3
-2.253, 1.011e-3
-2.254, 1.011e-3
-2.255, 1.011e-3
-2.256, 1.011e-3
-2.257, 1.011e-3
-2.258, 1.011e-3
-2.259, 1.011e-3
-2.260, 1.011e-3
-2.261, 1.011e-3
-2.262, 1.011e-3
-2.263, 1.011e-3
-2.264, 1.011e-3
-2.265, 1.011e-3
-2.266, 1.011e-3
-2.267, 1.011e-3
-2.268, 1.011e-3
-2.269, 1.011e-3
-2.270, 1.011e-3
-2.271, 1.011e-3
-2.272, 1.011e-3
-2.273, 1.011e-3
-2.274, 1.011e-3
-2.275, 1.011e-3
-2.276, 1.011e-3
-2.277, 1.011e-3
-2.278, 1.011e-3
-2.279, 1.011e-3
-2.280, 1.011e-3
-2.281, 1.011e-3
-2.282, 1.011e-3
-2.283, 1.011e-3
-2.284, 1.011e-3
-2.285, 1.011e-3
-2.286, 1.011e-3
-2.287, 1.011e-3
-2.288, 1.011e-3
-2.289, 1.011e-3
-2.290, 1.011e-3
-2.291, 1.011e-3
-2.292, 1.011e-3
-2.293, 1.011e-3
-2.294, 1.011e-3
-2.295, 1.011e-3
-2.296, 1.011e-3
-2.297, 1.011e-3
-2.298, 1.011e-3
-2.299, 1.011e-3
