Mar. 31, 2025   23:44:01
Cyclic Voltammetry
File: c:/users/guazh/data/banditlqround7_x0exp518_r20/2025-03-28-exp1004\exp1004-2025-03-31t23_35_30-arkoh\exp1004_cv_50mvs_efin_-1500mv.bin
Data Source:  Experiment
Instrument Model:  CHI760E
Header: CV ran at 50 mVs
Note: 

Init E (V) = -1
High E (V) = -1
Low E (V) = -1.5
Final E (V) = -1
Init P/N = N
Scan Rate (V/s) = 0.05
Segment = 7
Sample Interval (V) = 0.001
Quiet Time (sec) = 60
Sensitivity (A/V) = 0.001
Comp R (ohm) = 1.7

Results:

Channel 1:
Segment 1:

Segment 2:

Segment 3:

Segment 4:

Segment 5:

Segment 6:

Segment 7:

Potential/V, Current/A

-1.000, 3.700e-5
-1.001, 8.460e-5
-1.002, 9.858e-5
-1.003, 1.044e-4
-1.004, 1.070e-4
-1.005, 1.075e-4
-1.006, 1.084e-4
-1.007, 1.099e-4
-1.008, 1.114e-4
-1.009, 1.122e-4
-1.010, 1.120e-4
-1.011, 1.119e-4
-1.012, 1.132e-4
-1.013, 1.139e-4
-1.014, 1.144e-4
-1.015, 1.142e-4
-1.016, 1.138e-4
-1.017, 1.143e-4
-1.018, 1.159e-4
-1.019, 1.153e-4
-1.020, 1.153e-4
-1.021, 1.145e-4
-1.022, 1.151e-4
-1.023, 1.163e-4
-1.024, 1.168e-4
-1.025, 1.156e-4
-1.026, 1.152e-4
-1.027, 1.156e-4
-1.028, 1.166e-4
-1.029, 1.160e-4
-1.030, 1.160e-4
-1.031, 1.159e-4
-1.032, 1.156e-4
-1.033, 1.166e-4
-1.034, 1.167e-4
-1.035, 1.160e-4
-1.036, 1.160e-4
-1.037, 1.161e-4
-1.038, 1.168e-4
-1.039, 1.169e-4
-1.040, 1.154e-4
-1.041, 1.156e-4
-1.042, 1.163e-4
-1.043, 1.168e-4
-1.044, 1.171e-4
-1.045, 1.160e-4
-1.046, 1.156e-4
-1.047, 1.162e-4
-1.048, 1.168e-4
-1.049, 1.169e-4
-1.050, 1.162e-4
-1.051, 1.157e-4
-1.052, 1.165e-4
-1.053, 1.167e-4
-1.054, 1.168e-4
-1.055, 1.165e-4
-1.056, 1.158e-4
-1.057, 1.162e-4
-1.058, 1.171e-4
-1.059, 1.171e-4
-1.060, 1.166e-4
-1.061, 1.159e-4
-1.062, 1.159e-4
-1.063, 1.169e-4
-1.064, 1.169e-4
-1.065, 1.163e-4
-1.066, 1.159e-4
-1.067, 1.160e-4
-1.068, 1.175e-4
-1.069, 1.169e-4
-1.070, 1.162e-4
-1.071, 1.161e-4
-1.072, 1.158e-4
-1.073, 1.172e-4
-1.074, 1.172e-4
-1.075, 1.172e-4
-1.076, 1.166e-4
-1.077, 1.163e-4
-1.078, 1.170e-4
-1.079, 1.175e-4
-1.080, 1.162e-4
-1.081, 1.159e-4
-1.082, 1.167e-4
-1.083, 1.168e-4
-1.084, 1.173e-4
-1.085, 1.167e-4
-1.086, 1.164e-4
-1.087, 1.168e-4
-1.088, 1.171e-4
-1.089, 1.174e-4
-1.090, 1.166e-4
-1.091, 1.161e-4
-1.092, 1.169e-4
-1.093, 1.175e-4
-1.094, 1.179e-4
-1.095, 1.175e-4
-1.096, 1.162e-4
-1.097, 1.167e-4
-1.098, 1.178e-4
-1.099, 1.178e-4
-1.100, 1.174e-4
-1.101, 1.167e-4
-1.102, 1.169e-4
-1.103, 1.183e-4
-1.104, 1.179e-4
-1.105, 1.175e-4
-1.106, 1.173e-4
-1.107, 1.171e-4
-1.108, 1.183e-4
-1.109, 1.185e-4
-1.110, 1.176e-4
-1.111, 1.175e-4
-1.112, 1.175e-4
-1.113, 1.188e-4
-1.114, 1.191e-4
-1.115, 1.182e-4
-1.116, 1.180e-4
-1.117, 1.178e-4
-1.118, 1.188e-4
-1.119, 1.196e-4
-1.120, 1.184e-4
-1.121, 1.181e-4
-1.122, 1.186e-4
-1.123, 1.193e-4
-1.124, 1.201e-4
-1.125, 1.191e-4
-1.126, 1.188e-4
-1.127, 1.196e-4
-1.128, 1.196e-4
-1.129, 1.205e-4
-1.130, 1.199e-4
-1.131, 1.190e-4
-1.132, 1.201e-4
-1.133, 1.205e-4
-1.134, 1.209e-4
-1.135, 1.207e-4
-1.136, 1.199e-4
-1.137, 1.204e-4
-1.138, 1.217e-4
-1.139, 1.217e-4
-1.140, 1.215e-4
-1.141, 1.207e-4
-1.142, 1.209e-4
-1.143, 1.223e-4
-1.144, 1.222e-4
-1.145, 1.219e-4
-1.146, 1.219e-4
-1.147, 1.220e-4
-1.148, 1.235e-4
-1.149, 1.232e-4
-1.150, 1.229e-4
-1.151, 1.230e-4
-1.152, 1.230e-4
-1.153, 1.243e-4
-1.154, 1.246e-4
-1.155, 1.242e-4
-1.156, 1.241e-4
-1.157, 1.241e-4
-1.158, 1.251e-4
-1.159, 1.262e-4
-1.160, 1.253e-4
-1.161, 1.252e-4
-1.162, 1.258e-4
-1.163, 1.266e-4
-1.164, 1.275e-4
-1.165, 1.267e-4
-1.166, 1.269e-4
-1.167, 1.274e-4
-1.168, 1.280e-4
-1.169, 1.288e-4
-1.170, 1.286e-4
-1.171, 1.282e-4
-1.172, 1.292e-4
-1.173, 1.297e-4
-1.174, 1.309e-4
-1.175, 1.305e-4
-1.176, 1.302e-4
-1.177, 1.318e-4
-1.178, 1.327e-4
-1.179, 1.329e-4
-1.180, 1.331e-4
-1.181, 1.323e-4
-1.182, 1.331e-4
-1.183, 1.346e-4
-1.184, 1.353e-4
-1.185, 1.352e-4
-1.186, 1.353e-4
-1.187, 1.357e-4
-1.188, 1.371e-4
-1.189, 1.379e-4
-1.190, 1.381e-4
-1.191, 1.385e-4
-1.192, 1.387e-4
-1.193, 1.402e-4
-1.194, 1.415e-4
-1.195, 1.414e-4
-1.196, 1.416e-4
-1.197, 1.422e-4
-1.198, 1.441e-4
-1.199, 1.455e-4
-1.200, 1.451e-4
-1.201, 1.457e-4
-1.202, 1.469e-4
-1.203, 1.484e-4
-1.204, 1.500e-4
-1.205, 1.494e-4
-1.206, 1.501e-4
-1.207, 1.518e-4
-1.208, 1.532e-4
-1.209, 1.546e-4
-1.210, 1.555e-4
-1.211, 1.554e-4
-1.212, 1.574e-4
-1.213, 1.588e-4
-1.214, 1.604e-4
-1.215, 1.615e-4
-1.216, 1.620e-4
-1.217, 1.636e-4
-1.218, 1.657e-4
-1.219, 1.674e-4
-1.220, 1.687e-4
-1.221, 1.693e-4
-1.222, 1.713e-4
-1.223, 1.740e-4
-1.224, 1.757e-4
-1.225, 1.767e-4
-1.226, 1.781e-4
-1.227, 1.801e-4
-1.228, 1.836e-4
-1.229, 1.868e-4
-1.230, 1.870e-4
-1.231, 1.881e-4
-1.232, 1.900e-4
-1.233, 1.935e-4
-1.234, 1.962e-4
-1.235, 1.978e-4
-1.236, 1.998e-4
-1.237, 2.023e-4
-1.238, 2.057e-4
-1.239, 2.090e-4
-1.240, 2.106e-4
-1.241, 2.130e-4
-1.242, 2.161e-4
-1.243, 2.196e-4
-1.244, 2.239e-4
-1.245, 2.257e-4
-1.246, 2.289e-4
-1.247, 2.324e-4
-1.248, 2.367e-4
-1.249, 2.409e-4
-1.250, 2.435e-4
-1.251, 2.467e-4
-1.252, 2.509e-4
-1.253, 2.553e-4
-1.254, 2.601e-4
-1.255, 2.643e-4
-1.256, 2.675e-4
-1.257, 2.723e-4
-1.258, 2.777e-4
-1.259, 2.830e-4
-1.260, 2.875e-4
-1.261, 2.911e-4
-1.262, 2.967e-4
-1.263, 3.029e-4
-1.264, 3.086e-4
-1.265, 3.141e-4
-1.266, 3.195e-4
-1.267, 3.255e-4
-1.268, 3.328e-4
-1.269, 3.389e-4
-1.270, 3.446e-4
-1.271, 3.506e-4
-1.272, 3.583e-4
-1.273, 3.662e-4
-1.274, 3.740e-4
-1.275, 3.809e-4
-1.276, 3.878e-4
-1.277, 3.950e-4
-1.278, 4.035e-4
-1.279, 4.125e-4
-1.280, 4.208e-4
-1.281, 4.290e-4
-1.282, 4.380e-4
-1.283, 4.482e-4
-1.284, 4.579e-4
-1.285, 4.664e-4
-1.286, 4.758e-4
-1.287, 4.867e-4
-1.288, 4.975e-4
-1.289, 5.086e-4
-1.290, 5.198e-4
-1.291, 5.304e-4
-1.292, 5.419e-4
-1.293, 5.542e-4
-1.294, 5.670e-4
-1.295, 5.793e-4
-1.296, 5.908e-4
-1.297, 6.046e-4
-1.298, 6.184e-4
-1.299, 6.326e-4
-1.300, 6.468e-4
-1.301, 6.597e-4
-1.302, 6.744e-4
-1.303, 6.912e-4
-1.304, 7.062e-4
-1.305, 7.222e-4
-1.306, 7.374e-4
-1.307, 7.535e-4
-1.308, 7.711e-4
-1.309, 7.888e-4
-1.310, 8.060e-4
-1.311, 8.242e-4
-1.312, 8.423e-4
-1.313, 8.620e-4
-1.314, 8.814e-4
-1.315, 9.005e-4
-1.316, 9.192e-4
-1.317, 9.383e-4
-1.318, 9.602e-4
-1.319, 9.844e-4
-1.320, 1.006e-3
-1.321, 1.027e-3
-1.322, 1.049e-3
-1.323, 1.071e-3
-1.324, 1.096e-3
-1.325, 1.118e-3
-1.326, 1.142e-3
-1.327, 1.166e-3
-1.328, 1.194e-3
-1.329, 1.221e-3
-1.330, 1.246e-3
-1.331, 1.271e-3
-1.332, 1.299e-3
-1.333, 1.327e-3
-1.334, 1.356e-3
-1.335, 1.383e-3
-1.336, 1.411e-3
-1.337, 1.443e-3
-1.338, 1.472e-3
-1.339, 1.504e-3
-1.340, 1.538e-3
-1.341, 1.565e-3
-1.342, 1.596e-3
-1.343, 1.631e-3
-1.344, 1.664e-3
-1.345, 1.696e-3
-1.346, 1.728e-3
-1.347, 1.763e-3
-1.348, 1.800e-3
-1.349, 1.837e-3
-1.350, 1.874e-3
-1.351, 1.909e-3
-1.352, 1.945e-3
-1.353, 1.981e-3
-1.354, 2.020e-3
-1.355, 2.057e-3
-1.356, 2.096e-3
-1.357, 2.136e-3
-1.358, 2.179e-3
-1.359, 2.222e-3
-1.360, 2.261e-3
-1.361, 2.302e-3
-1.362, 2.343e-3
-1.363, 2.385e-3
-1.364, 2.430e-3
-1.365, 2.473e-3
-1.366, 2.518e-3
-1.367, 2.561e-3
-1.368, 2.606e-3
-1.369, 2.658e-3
-1.370, 2.707e-3
-1.371, 2.753e-3
-1.372, 2.798e-3
-1.373, 2.845e-3
-1.374, 2.891e-3
-1.375, 2.940e-3
-1.376, 2.986e-3
-1.377, 3.039e-3
-1.378, 3.089e-3
-1.379, 3.141e-3
-1.380, 3.194e-3
-1.381, 3.244e-3
-1.382, 3.296e-3
-1.383, 3.350e-3
-1.384, 3.402e-3
-1.385, 3.455e-3
-1.386, 3.510e-3
-1.387, 3.559e-3
-1.388, 3.620e-3
-1.389, 3.673e-3
-1.390, 3.725e-3
-1.391, 3.782e-3
-1.392, 3.838e-3
-1.393, 3.897e-3
-1.394, 3.953e-3
-1.395, 4.008e-3
-1.396, 4.066e-3
-1.397, 4.125e-3
-1.398, 4.185e-3
-1.399, 4.246e-3
-1.400, 4.300e-3
-1.401, 4.360e-3
-1.402, 4.416e-3
-1.403, 4.482e-3
-1.404, 4.547e-3
-1.405, 4.608e-3
-1.406, 4.665e-3
-1.407, 4.729e-3
-1.408, 4.786e-3
-1.409, 4.846e-3
-1.410, 4.896e-3
-1.411, 4.955e-3
-1.412, 5.022e-3
-1.413, 5.084e-3
-1.414, 5.155e-3
-1.415, 5.220e-3
-1.416, 5.276e-3
-1.417, 5.339e-3
-1.418, 5.401e-3
-1.419, 5.466e-3
-1.420, 5.523e-3
-1.421, 5.592e-3
-1.422, 5.666e-3
-1.423, 5.728e-3
-1.424, 5.797e-3
-1.425, 5.862e-3
-1.426, 5.926e-3
-1.427, 5.993e-3
-1.428, 6.059e-3
-1.429, 6.129e-3
-1.430, 6.192e-3
-1.431, 6.285e-3
-1.432, 6.341e-3
-1.433, 6.405e-3
-1.434, 6.466e-3
-1.435, 6.529e-3
-1.436, 6.616e-3
-1.437, 6.684e-3
-1.438, 6.745e-3
-1.439, 6.813e-3
-1.440, 6.878e-3
-1.441, 6.939e-3
-1.442, 6.998e-3
-1.443, 7.073e-3
-1.444, 7.138e-3
-1.445, 7.203e-3
-1.446, 7.249e-3
-1.447, 7.322e-3
-1.448, 7.393e-3
-1.449, 7.461e-3
-1.450, 7.527e-3
-1.451, 7.609e-3
-1.452, 7.660e-3
-1.453, 7.719e-3
-1.454, 7.772e-3
-1.455, 7.835e-3
-1.456, 7.897e-3
-1.457, 7.977e-3
-1.458, 8.042e-3
-1.459, 8.097e-3
-1.460, 8.158e-3
-1.461, 8.201e-3
-1.462, 8.257e-3
-1.463, 8.328e-3
-1.464, 8.401e-3
-1.465, 8.455e-3
-1.466, 8.484e-3
-1.467, 8.561e-3
-1.468, 8.611e-3
-1.469, 8.679e-3
-1.470, 8.717e-3
-1.471, 8.756e-3
-1.472, 8.841e-3
-1.473, 8.929e-3
-1.474, 8.967e-3
-1.475, 9.027e-3
-1.476, 9.113e-3
-1.477, 9.175e-3
-1.478, 9.219e-3
-1.479, 9.287e-3
-1.480, 9.333e-3
-1.481, 9.403e-3
-1.482, 9.472e-3
-1.483, 9.529e-3
-1.484, 9.584e-3
-1.485, 9.630e-3
-1.486, 9.697e-3
-1.487, 9.766e-3
-1.488, 9.806e-3
-1.489, 9.866e-3
-1.490, 9.935e-3
-1.491, 1.002e-2
-1.492, 1.003e-2
-1.493, 1.010e-2
-1.494, 1.010e-2
-1.495, 1.011e-2
-1.496, 1.011e-2
-1.497, 1.011e-2
-1.498, 1.011e-2
-1.499, 1.011e-2
-1.500, 1.011e-2
-1.499, 1.011e-2
-1.498, 1.011e-2
-1.497, 1.010e-2
-1.496, 1.004e-2
-1.495, 9.918e-3
-1.494, 9.795e-3
-1.493, 9.688e-3
-1.492, 9.650e-3
-1.491, 9.506e-3
-1.490, 9.399e-3
-1.489, 9.342e-3
-1.488, 9.279e-3
-1.487, 9.160e-3
-1.486, 9.063e-3
-1.485, 8.999e-3
-1.484, 8.919e-3
-1.483, 8.849e-3
-1.482, 8.806e-3
-1.481, 8.643e-3
-1.480, 8.528e-3
-1.479, 8.474e-3
-1.478, 8.366e-3
-1.477, 8.410e-3
-1.476, 8.341e-3
-1.475, 8.212e-3
-1.474, 8.166e-3
-1.473, 8.105e-3
-1.472, 8.024e-3
-1.471, 7.927e-3
-1.470, 7.820e-3
-1.469, 7.717e-3
-1.468, 7.611e-3
-1.467, 7.516e-3
-1.466, 7.337e-3
-1.465, 6.956e-3
-1.464, 6.877e-3
-1.463, 6.784e-3
-1.462, 6.687e-3
-1.461, 6.593e-3
-1.460, 6.560e-3
-1.459, 6.520e-3
-1.458, 6.464e-3
-1.457, 6.420e-3
-1.456, 6.360e-3
-1.455, 6.403e-3
-1.454, 6.327e-3
-1.453, 6.223e-3
-1.452, 6.153e-3
-1.451, 6.083e-3
-1.450, 6.015e-3
-1.449, 5.940e-3
-1.448, 5.837e-3
-1.447, 5.765e-3
-1.446, 5.694e-3
-1.445, 5.620e-3
-1.444, 5.561e-3
-1.443, 5.517e-3
-1.442, 5.441e-3
-1.441, 5.408e-3
-1.440, 5.347e-3
-1.439, 5.293e-3
-1.438, 5.257e-3
-1.437, 5.198e-3
-1.436, 5.131e-3
-1.435, 5.067e-3
-1.434, 5.009e-3
-1.433, 4.930e-3
-1.432, 4.895e-3
-1.431, 4.851e-3
-1.430, 4.858e-3
-1.429, 4.749e-3
-1.428, 4.646e-3
-1.427, 4.582e-3
-1.426, 4.537e-3
-1.425, 4.485e-3
-1.424, 4.415e-3
-1.423, 4.364e-3
-1.422, 4.311e-3
-1.421, 4.251e-3
-1.420, 4.196e-3
-1.419, 4.131e-3
-1.418, 4.079e-3
-1.417, 4.013e-3
-1.416, 3.950e-3
-1.415, 3.907e-3
-1.414, 3.884e-3
-1.413, 3.823e-3
-1.412, 3.767e-3
-1.411, 3.712e-3
-1.410, 3.652e-3
-1.409, 3.594e-3
-1.408, 3.536e-3
-1.407, 3.479e-3
-1.406, 3.429e-3
-1.405, 3.381e-3
-1.404, 3.334e-3
-1.403, 3.289e-3
-1.402, 3.230e-3
-1.401, 3.176e-3
-1.400, 3.128e-3
-1.399, 3.079e-3
-1.398, 3.043e-3
-1.397, 2.984e-3
-1.396, 2.933e-3
-1.395, 2.892e-3
-1.394, 2.844e-3
-1.393, 2.802e-3
-1.392, 2.756e-3
-1.391, 2.695e-3
-1.390, 2.659e-3
-1.389, 2.618e-3
-1.388, 2.578e-3
-1.387, 2.538e-3
-1.386, 2.495e-3
-1.385, 2.448e-3
-1.384, 2.404e-3
-1.383, 2.363e-3
-1.382, 2.326e-3
-1.381, 2.282e-3
-1.380, 2.245e-3
-1.379, 2.200e-3
-1.378, 2.167e-3
-1.377, 2.122e-3
-1.376, 2.083e-3
-1.375, 2.046e-3
-1.374, 2.007e-3
-1.373, 1.968e-3
-1.372, 1.932e-3
-1.371, 1.896e-3
-1.370, 1.860e-3
-1.369, 1.828e-3
-1.368, 1.791e-3
-1.367, 1.752e-3
-1.366, 1.717e-3
-1.365, 1.686e-3
-1.364, 1.653e-3
-1.363, 1.620e-3
-1.362, 1.586e-3
-1.361, 1.556e-3
-1.360, 1.524e-3
-1.359, 1.490e-3
-1.358, 1.459e-3
-1.357, 1.445e-3
-1.356, 1.403e-3
-1.355, 1.374e-3
-1.354, 1.342e-3
-1.353, 1.312e-3
-1.352, 1.286e-3
-1.351, 1.258e-3
-1.350, 1.227e-3
-1.349, 1.201e-3
-1.348, 1.175e-3
-1.347, 1.148e-3
-1.346, 1.124e-3
-1.345, 1.098e-3
-1.344, 1.069e-3
-1.343, 1.036e-3
-1.342, 1.017e-3
-1.341, 9.943e-4
-1.340, 9.698e-4
-1.339, 9.459e-4
-1.338, 9.231e-4
-1.337, 9.040e-4
-1.336, 8.864e-4
-1.335, 8.614e-4
-1.334, 8.364e-4
-1.333, 8.191e-4
-1.332, 7.960e-4
-1.331, 7.751e-4
-1.330, 7.555e-4
-1.329, 7.562e-4
-1.328, 7.219e-4
-1.327, 7.010e-4
-1.326, 6.811e-4
-1.325, 6.634e-4
-1.324, 6.446e-4
-1.323, 6.282e-4
-1.322, 6.106e-4
-1.321, 5.929e-4
-1.320, 5.759e-4
-1.319, 5.578e-4
-1.318, 5.415e-4
-1.317, 5.246e-4
-1.316, 5.090e-4
-1.315, 4.945e-4
-1.314, 4.783e-4
-1.313, 4.629e-4
-1.312, 4.505e-4
-1.311, 4.357e-4
-1.310, 4.220e-4
-1.309, 4.076e-4
-1.308, 3.926e-4
-1.307, 3.796e-4
-1.306, 3.696e-4
-1.305, 3.557e-4
-1.304, 3.441e-4
-1.303, 3.312e-4
-1.302, 3.194e-4
-1.301, 3.088e-4
-1.300, 2.974e-4
-1.299, 2.869e-4
-1.298, 2.749e-4
-1.297, 2.649e-4
-1.296, 2.561e-4
-1.295, 2.454e-4
-1.294, 2.345e-4
-1.293, 2.250e-4
-1.292, 2.153e-4
-1.291, 2.074e-4
-1.290, 1.985e-4
-1.289, 1.890e-4
-1.288, 1.808e-4
-1.287, 1.721e-4
-1.286, 1.648e-4
-1.285, 1.573e-4
-1.284, 1.487e-4
-1.283, 1.411e-4
-1.282, 1.338e-4
-1.281, 1.268e-4
-1.280, 1.200e-4
-1.279, 1.129e-4
-1.278, 1.060e-4
-1.277, 1.002e-4
-1.276, 9.447e-5
-1.275, 8.839e-5
-1.274, 8.192e-5
-1.273, 7.555e-5
-1.272, 7.033e-5
-1.271, 6.543e-5
-1.270, 6.016e-5
-1.269, 5.483e-5
-1.268, 4.885e-5
-1.267, 4.425e-5
-1.266, 4.024e-5
-1.265, 3.478e-5
-1.264, 3.030e-5
-1.263, 2.510e-5
-1.262, 2.089e-5
-1.261, 1.812e-5
-1.260, 1.395e-5
-1.259, 9.673e-6
-1.258, 5.353e-6
-1.257, 1.716e-6
-1.256, -1.005e-6
-1.255, -4.646e-6
-1.254, -8.811e-6
-1.253, -1.235e-5
-1.252, -1.615e-5
-1.251, -1.813e-5
-1.250, -2.104e-5
-1.249, -2.481e-5
-1.248, -2.760e-5
-1.247, -3.011e-5
-1.246, -3.244e-5
-1.245, -3.465e-5
-1.244, -3.801e-5
-1.243, -4.062e-5
-1.242, -4.296e-5
-1.241, -4.457e-5
-1.240, -4.647e-5
-1.239, -4.964e-5
-1.238, -5.227e-5
-1.237, -5.352e-5
-1.236, -5.543e-5
-1.235, -5.718e-5
-1.234, -5.945e-5
-1.233, -6.202e-5
-1.232, -6.332e-5
-1.231, -6.419e-5
-1.230, -6.587e-5
-1.229, -6.969e-5
-1.228, -7.067e-5
-1.227, -7.163e-5
-1.226, -7.220e-5
-1.225, -7.361e-5
-1.224, -7.532e-5
-1.223, -7.708e-5
-1.222, -7.822e-5
-1.221, -7.862e-5
-1.220, -7.978e-5
-1.219, -8.163e-5
-1.218, -8.326e-5
-1.217, -8.437e-5
-1.216, -8.408e-5
-1.215, -8.538e-5
-1.214, -8.706e-5
-1.213, -8.809e-5
-1.212, -8.899e-5
-1.211, -8.904e-5
-1.210, -8.982e-5
-1.209, -9.151e-5
-1.208, -9.240e-5
-1.207, -9.395e-5
-1.206, -9.416e-5
-1.205, -9.419e-5
-1.204, -9.560e-5
-1.203, -9.660e-5
-1.202, -9.679e-5
-1.201, -9.693e-5
-1.200, -9.711e-5
-1.199, -9.830e-5
-1.198, -9.944e-5
-1.197, -9.970e-5
-1.196, -9.952e-5
-1.195, -9.987e-5
-1.194, -1.009e-4
-1.193, -1.021e-4
-1.192, -1.019e-4
-1.191, -1.018e-4
-1.190, -1.025e-4
-1.189, -1.036e-4
-1.188, -1.047e-4
-1.187, -1.048e-4
-1.186, -1.042e-4
-1.185, -1.045e-4
-1.184, -1.049e-4
-1.183, -1.060e-4
-1.182, -1.064e-4
-1.181, -1.057e-4
-1.180, -1.061e-4
-1.179, -1.072e-4
-1.178, -1.084e-4
-1.177, -1.083e-4
-1.176, -1.073e-4
-1.175, -1.081e-4
-1.174, -1.094e-4
-1.173, -1.098e-4
-1.172, -1.097e-4
-1.171, -1.088e-4
-1.170, -1.088e-4
-1.169, -1.101e-4
-1.168, -1.104e-4
-1.167, -1.104e-4
-1.166, -1.100e-4
-1.165, -1.102e-4
-1.164, -1.114e-4
-1.163, -1.115e-4
-1.162, -1.116e-4
-1.161, -1.112e-4
-1.160, -1.109e-4
-1.159, -1.119e-4
-1.158, -1.126e-4
-1.157, -1.121e-4
-1.156, -1.118e-4
-1.155, -1.120e-4
-1.154, -1.130e-4
-1.153, -1.139e-4
-1.152, -1.134e-4
-1.151, -1.130e-4
-1.150, -1.132e-4
-1.149, -1.135e-4
-1.148, -1.148e-4
-1.147, -1.143e-4
-1.146, -1.135e-4
-1.145, -1.141e-4
-1.144, -1.142e-4
-1.143, -1.151e-4
-1.142, -1.151e-4
-1.141, -1.144e-4
-1.140, -1.149e-4
-1.139, -1.154e-4
-1.138, -1.161e-4
-1.137, -1.163e-4
-1.136, -1.151e-4
-1.135, -1.151e-4
-1.134, -1.159e-4
-1.133, -1.166e-4
-1.132, -1.167e-4
-1.131, -1.159e-4
-1.130, -1.160e-4
-1.129, -1.173e-4
-1.128, -1.169e-4
-1.127, -1.175e-4
-1.126, -1.169e-4
-1.125, -1.164e-4
-1.124, -1.174e-4
-1.123, -1.179e-4
-1.122, -1.179e-4
-1.121, -1.178e-4
-1.120, -1.176e-4
-1.119, -1.185e-4
-1.118, -1.193e-4
-1.117, -1.185e-4
-1.116, -1.182e-4
-1.115, -1.181e-4
-1.114, -1.186e-4
-1.113, -1.197e-4
-1.112, -1.194e-4
-1.111, -1.192e-4
-1.110, -1.190e-4
-1.109, -1.200e-4
-1.108, -1.205e-4
-1.107, -1.202e-4
-1.106, -1.196e-4
-1.105, -1.202e-4
-1.104, -1.204e-4
-1.103, -1.213e-4
-1.102, -1.211e-4
-1.101, -1.205e-4
-1.100, -1.212e-4
-1.099, -1.219e-4
-1.098, -1.226e-4
-1.097, -1.231e-4
-1.096, -1.223e-4
-1.095, -1.216e-4
-1.094, -1.229e-4
-1.093, -1.234e-4
-1.092, -1.231e-4
-1.091, -1.225e-4
-1.090, -1.226e-4
-1.089, -1.241e-4
-1.088, -1.245e-4
-1.087, -1.243e-4
-1.086, -1.240e-4
-1.085, -1.235e-4
-1.084, -1.247e-4
-1.083, -1.253e-4
-1.082, -1.254e-4
-1.081, -1.249e-4
-1.080, -1.249e-4
-1.079, -1.258e-4
-1.078, -1.268e-4
-1.077, -1.265e-4
-1.076, -1.265e-4
-1.075, -1.271e-4
-1.074, -1.274e-4
-1.073, -1.280e-4
-1.072, -1.280e-4
-1.071, -1.277e-4
-1.070, -1.281e-4
-1.069, -1.289e-4
-1.068, -1.296e-4
-1.067, -1.298e-4
-1.066, -1.291e-4
-1.065, -1.298e-4
-1.064, -1.303e-4
-1.063, -1.311e-4
-1.062, -1.319e-4
-1.061, -1.311e-4
-1.060, -1.319e-4
-1.059, -1.327e-4
-1.058, -1.336e-4
-1.057, -1.339e-4
-1.056, -1.331e-4
-1.055, -1.339e-4
-1.054, -1.354e-4
-1.053, -1.355e-4
-1.052, -1.361e-4
-1.051, -1.364e-4
-1.050, -1.367e-4
-1.049, -1.384e-4
-1.048, -1.395e-4
-1.047, -1.396e-4
-1.046, -1.395e-4
-1.045, -1.394e-4
-1.044, -1.411e-4
-1.043, -1.423e-4
-1.042, -1.427e-4
-1.041, -1.429e-4
-1.040, -1.433e-4
-1.039, -1.450e-4
-1.038, -1.462e-4
-1.037, -1.460e-4
-1.036, -1.468e-4
-1.035, -1.477e-4
-1.034, -1.489e-4
-1.033, -1.510e-4
-1.032, -1.511e-4
-1.031, -1.510e-4
-1.030, -1.519e-4
-1.029, -1.533e-4
-1.028, -1.551e-4
-1.027, -1.560e-4
-1.026, -1.562e-4
-1.025, -1.577e-4
-1.024, -1.599e-4
-1.023, -1.611e-4
-1.022, -1.618e-4
-1.021, -1.620e-4
-1.020, -1.638e-4
-1.019, -1.656e-4
-1.018, -1.674e-4
-1.017, -1.686e-4
-1.016, -1.690e-4
-1.015, -1.711e-4
-1.014, -1.732e-4
-1.013, -1.749e-4
-1.012, -1.767e-4
-1.011, -1.776e-4
-1.010, -1.794e-4
-1.009, -1.819e-4
-1.008, -1.842e-4
-1.007, -1.858e-4
-1.006, -1.876e-4
-1.005, -1.892e-4
-1.004, -1.920e-4
-1.003, -1.950e-4
-1.002, -1.969e-4
-1.001, -1.990e-4
-1.000, -1.186e-4
-1.001, -2.750e-5
-1.002, 6.322e-6
-1.003, 2.327e-5
-1.004, 3.531e-5
-1.005, 4.317e-5
-1.006, 4.904e-5
-1.007, 5.467e-5
-1.008, 5.920e-5
-1.009, 6.430e-5
-1.010, 6.833e-5
-1.011, 7.087e-5
-1.012, 7.387e-5
-1.013, 7.667e-5
-1.014, 8.016e-5
-1.015, 8.254e-5
-1.016, 8.395e-5
-1.017, 8.573e-5
-1.018, 8.765e-5
-1.019, 9.001e-5
-1.020, 9.201e-5
-1.021, 9.227e-5
-1.022, 9.345e-5
-1.023, 9.495e-5
-1.024, 9.689e-5
-1.025, 9.773e-5
-1.026, 9.799e-5
-1.027, 9.836e-5
-1.028, 9.970e-5
-1.029, 1.004e-4
-1.030, 1.014e-4
-1.031, 1.019e-4
-1.032, 1.016e-4
-1.033, 1.028e-4
-1.034, 1.036e-4
-1.035, 1.040e-4
-1.036, 1.042e-4
-1.037, 1.038e-4
-1.038, 1.047e-4
-1.039, 1.058e-4
-1.040, 1.056e-4
-1.041, 1.056e-4
-1.042, 1.057e-4
-1.043, 1.061e-4
-1.044, 1.073e-4
-1.045, 1.071e-4
-1.046, 1.067e-4
-1.047, 1.068e-4
-1.048, 1.071e-4
-1.049, 1.080e-4
-1.050, 1.082e-4
-1.051, 1.073e-4
-1.052, 1.076e-4
-1.053, 1.077e-4
-1.054, 1.083e-4
-1.055, 1.090e-4
-1.056, 1.078e-4
-1.057, 1.081e-4
-1.058, 1.084e-4
-1.059, 1.092e-4
-1.060, 1.095e-4
-1.061, 1.085e-4
-1.062, 1.083e-4
-1.063, 1.088e-4
-1.064, 1.091e-4
-1.065, 1.097e-4
-1.066, 1.088e-4
-1.067, 1.087e-4
-1.068, 1.092e-4
-1.069, 1.096e-4
-1.070, 1.099e-4
-1.071, 1.102e-4
-1.072, 1.092e-4
-1.073, 1.093e-4
-1.074, 1.102e-4
-1.075, 1.105e-4
-1.076, 1.099e-4
-1.077, 1.092e-4
-1.078, 1.095e-4
-1.079, 1.104e-4
-1.080, 1.100e-4
-1.081, 1.097e-4
-1.082, 1.091e-4
-1.083, 1.094e-4
-1.084, 1.104e-4
-1.085, 1.101e-4
-1.086, 1.098e-4
-1.087, 1.098e-4
-1.088, 1.094e-4
-1.089, 1.103e-4
-1.090, 1.104e-4
-1.091, 1.094e-4
-1.092, 1.097e-4
-1.093, 1.094e-4
-1.094, 1.104e-4
-1.095, 1.110e-4
-1.096, 1.097e-4
-1.097, 1.096e-4
-1.098, 1.099e-4
-1.099, 1.103e-4
-1.100, 1.107e-4
-1.101, 1.097e-4
-1.102, 1.094e-4
-1.103, 1.101e-4
-1.104, 1.103e-4
-1.105, 1.109e-4
-1.106, 1.103e-4
-1.107, 1.096e-4
-1.108, 1.099e-4
-1.109, 1.111e-4
-1.110, 1.111e-4
-1.111, 1.104e-4
-1.112, 1.096e-4
-1.113, 1.103e-4
-1.114, 1.109e-4
-1.115, 1.106e-4
-1.116, 1.107e-4
-1.117, 1.096e-4
-1.118, 1.100e-4
-1.119, 1.111e-4
-1.120, 1.108e-4
-1.121, 1.102e-4
-1.122, 1.101e-4
-1.123, 1.101e-4
-1.124, 1.116e-4
-1.125, 1.111e-4
-1.126, 1.104e-4
-1.127, 1.103e-4
-1.128, 1.101e-4
-1.129, 1.114e-4
-1.130, 1.112e-4
-1.131, 1.107e-4
-1.132, 1.107e-4
-1.133, 1.107e-4
-1.134, 1.116e-4
-1.135, 1.119e-4
-1.136, 1.107e-4
-1.137, 1.104e-4
-1.138, 1.110e-4
-1.139, 1.118e-4
-1.140, 1.122e-4
-1.141, 1.114e-4
-1.142, 1.112e-4
-1.143, 1.116e-4
-1.144, 1.118e-4
-1.145, 1.121e-4
-1.146, 1.117e-4
-1.147, 1.112e-4
-1.148, 1.120e-4
-1.149, 1.125e-4
-1.150, 1.126e-4
-1.151, 1.126e-4
-1.152, 1.118e-4
-1.153, 1.123e-4
-1.154, 1.133e-4
-1.155, 1.131e-4
-1.156, 1.130e-4
-1.157, 1.123e-4
-1.158, 1.131e-4
-1.159, 1.140e-4
-1.160, 1.137e-4
-1.161, 1.134e-4
-1.162, 1.133e-4
-1.163, 1.135e-4
-1.164, 1.150e-4
-1.165, 1.146e-4
-1.166, 1.141e-4
-1.167, 1.140e-4
-1.168, 1.146e-4
-1.169, 1.155e-4
-1.170, 1.155e-4
-1.171, 1.151e-4
-1.172, 1.151e-4
-1.173, 1.156e-4
-1.174, 1.164e-4
-1.175, 1.171e-4
-1.176, 1.162e-4
-1.177, 1.166e-4
-1.178, 1.174e-4
-1.179, 1.178e-4
-1.180, 1.180e-4
-1.181, 1.173e-4
-1.182, 1.174e-4
-1.183, 1.184e-4
-1.184, 1.189e-4
-1.185, 1.195e-4
-1.186, 1.190e-4
-1.187, 1.188e-4
-1.188, 1.201e-4
-1.189, 1.209e-4
-1.190, 1.212e-4
-1.191, 1.211e-4
-1.192, 1.219e-4
-1.193, 1.223e-4
-1.194, 1.231e-4
-1.195, 1.233e-4
-1.196, 1.232e-4
-1.197, 1.230e-4
-1.198, 1.238e-4
-1.199, 1.254e-4
-1.200, 1.255e-4
-1.201, 1.259e-4
-1.202, 1.260e-4
-1.203, 1.267e-4
-1.204, 1.282e-4
-1.205, 1.283e-4
-1.206, 1.288e-4
-1.207, 1.292e-4
-1.208, 1.296e-4
-1.209, 1.311e-4
-1.210, 1.321e-4
-1.211, 1.315e-4
-1.212, 1.328e-4
-1.213, 1.334e-4
-1.214, 1.349e-4
-1.215, 1.363e-4
-1.216, 1.364e-4
-1.217, 1.371e-4
-1.218, 1.382e-4
-1.219, 1.397e-4
-1.220, 1.410e-4
-1.221, 1.406e-4
-1.222, 1.415e-4
-1.223, 1.431e-4
-1.224, 1.450e-4
-1.225, 1.463e-4
-1.226, 1.466e-4
-1.227, 1.477e-4
-1.228, 1.500e-4
-1.229, 1.531e-4
-1.230, 1.529e-4
-1.231, 1.539e-4
-1.232, 1.548e-4
-1.233, 1.567e-4
-1.234, 1.587e-4
-1.235, 1.599e-4
-1.236, 1.612e-4
-1.237, 1.628e-4
-1.238, 1.649e-4
-1.239, 1.677e-4
-1.240, 1.691e-4
-1.241, 1.706e-4
-1.242, 1.721e-4
-1.243, 1.747e-4
-1.244, 1.776e-4
-1.245, 1.799e-4
-1.246, 1.815e-4
-1.247, 1.834e-4
-1.248, 1.858e-4
-1.249, 1.893e-4
-1.250, 1.916e-4
-1.251, 1.936e-4
-1.252, 1.965e-4
-1.253, 1.992e-4
-1.254, 2.028e-4
-1.255, 2.069e-4
-1.256, 2.086e-4
-1.257, 2.115e-4
-1.258, 2.147e-4
-1.259, 2.190e-4
-1.260, 2.226e-4
-1.261, 2.252e-4
-1.262, 2.284e-4
-1.263, 2.330e-4
-1.264, 2.373e-4
-1.265, 2.413e-4
-1.266, 2.453e-4
-1.267, 2.492e-4
-1.268, 2.539e-4
-1.269, 2.591e-4
-1.270, 2.636e-4
-1.271, 2.681e-4
-1.272, 2.718e-4
-1.273, 2.775e-4
-1.274, 2.836e-4
-1.275, 2.893e-4
-1.276, 2.936e-4
-1.277, 2.989e-4
-1.278, 3.050e-4
-1.279, 3.120e-4
-1.280, 3.192e-4
-1.281, 3.241e-4
-1.282, 3.305e-4
-1.283, 3.371e-4
-1.284, 3.450e-4
-1.285, 3.514e-4
-1.286, 3.582e-4
-1.287, 3.651e-4
-1.288, 3.732e-4
-1.289, 3.818e-4
-1.290, 3.901e-4
-1.291, 3.978e-4
-1.292, 4.063e-4
-1.293, 4.149e-4
-1.294, 4.247e-4
-1.295, 4.345e-4
-1.296, 4.430e-4
-1.297, 4.515e-4
-1.298, 4.624e-4
-1.299, 4.729e-4
-1.300, 4.832e-4
-1.301, 4.938e-4
-1.302, 5.048e-4
-1.303, 5.160e-4
-1.304, 5.282e-4
-1.305, 5.408e-4
-1.306, 5.529e-4
-1.307, 5.644e-4
-1.308, 5.804e-4
-1.309, 5.900e-4
-1.310, 6.039e-4
-1.311, 6.176e-4
-1.312, 6.303e-4
-1.313, 6.475e-4
-1.314, 6.616e-4
-1.315, 6.764e-4
-1.316, 6.913e-4
-1.317, 7.054e-4
-1.318, 7.232e-4
-1.319, 7.398e-4
-1.320, 7.568e-4
-1.321, 7.743e-4
-1.322, 7.906e-4
-1.323, 8.090e-4
-1.324, 8.281e-4
-1.325, 8.459e-4
-1.326, 8.661e-4
-1.327, 8.866e-4
-1.328, 9.041e-4
-1.329, 9.246e-4
-1.330, 9.462e-4
-1.331, 9.672e-4
-1.332, 9.886e-4
-1.333, 1.011e-3
-1.334, 1.035e-3
-1.335, 1.057e-3
-1.336, 1.079e-3
-1.337, 1.101e-3
-1.338, 1.127e-3
-1.339, 1.151e-3
-1.340, 1.178e-3
-1.341, 1.203e-3
-1.342, 1.228e-3
-1.343, 1.256e-3
-1.344, 1.281e-3
-1.345, 1.308e-3
-1.346, 1.336e-3
-1.347, 1.364e-3
-1.348, 1.392e-3
-1.349, 1.424e-3
-1.350, 1.455e-3
-1.351, 1.480e-3
-1.352, 1.511e-3
-1.353, 1.545e-3
-1.354, 1.579e-3
-1.355, 1.610e-3
-1.356, 1.642e-3
-1.357, 1.670e-3
-1.358, 1.705e-3
-1.359, 1.739e-3
-1.360, 1.775e-3
-1.361, 1.809e-3
-1.362, 1.844e-3
-1.363, 1.876e-3
-1.364, 1.914e-3
-1.365, 1.953e-3
-1.366, 1.990e-3
-1.367, 2.025e-3
-1.368, 2.064e-3
-1.369, 2.103e-3
-1.370, 2.139e-3
-1.371, 2.179e-3
-1.372, 2.218e-3
-1.373, 2.258e-3
-1.374, 2.298e-3
-1.375, 2.341e-3
-1.376, 2.383e-3
-1.377, 2.424e-3
-1.378, 2.465e-3
-1.379, 2.504e-3
-1.380, 2.545e-3
-1.381, 2.589e-3
-1.382, 2.634e-3
-1.383, 2.682e-3
-1.384, 2.725e-3
-1.385, 2.768e-3
-1.386, 2.817e-3
-1.387, 2.861e-3
-1.388, 2.907e-3
-1.389, 2.953e-3
-1.390, 3.002e-3
-1.391, 3.047e-3
-1.392, 3.095e-3
-1.393, 3.143e-3
-1.394, 3.190e-3
-1.395, 3.238e-3
-1.396, 3.293e-3
-1.397, 3.339e-3
-1.398, 3.387e-3
-1.399, 3.440e-3
-1.400, 3.494e-3
-1.401, 3.544e-3
-1.402, 3.593e-3
-1.403, 3.643e-3
-1.404, 3.695e-3
-1.405, 3.748e-3
-1.406, 3.801e-3
-1.407, 3.856e-3
-1.408, 3.908e-3
-1.409, 3.968e-3
-1.410, 4.027e-3
-1.411, 4.080e-3
-1.412, 4.140e-3
-1.413, 4.188e-3
-1.414, 4.246e-3
-1.415, 4.302e-3
-1.416, 4.353e-3
-1.417, 4.414e-3
-1.418, 4.484e-3
-1.419, 4.497e-3
-1.420, 4.565e-3
-1.421, 4.608e-3
-1.422, 4.665e-3
-1.423, 4.723e-3
-1.424, 4.796e-3
-1.425, 4.844e-3
-1.426, 4.897e-3
-1.427, 4.951e-3
-1.428, 5.013e-3
-1.429, 5.073e-3
-1.430, 5.128e-3
-1.431, 5.197e-3
-1.432, 5.253e-3
-1.433, 5.321e-3
-1.434, 5.403e-3
-1.435, 5.455e-3
-1.436, 5.506e-3
-1.437, 5.573e-3
-1.438, 5.625e-3
-1.439, 5.707e-3
-1.440, 5.764e-3
-1.441, 5.817e-3
-1.442, 5.882e-3
-1.443, 5.950e-3
-1.444, 6.015e-3
-1.445, 6.067e-3
-1.446, 6.132e-3
-1.447, 6.202e-3
-1.448, 6.260e-3
-1.449, 6.319e-3
-1.450, 6.371e-3
-1.451, 6.428e-3
-1.452, 6.484e-3
-1.453, 6.555e-3
-1.454, 6.613e-3
-1.455, 6.661e-3
-1.456, 6.684e-3
-1.457, 6.754e-3
-1.458, 6.954e-3
-1.459, 6.931e-3
-1.460, 7.001e-3
-1.461, 7.085e-3
-1.462, 7.125e-3
-1.463, 7.195e-3
-1.464, 7.252e-3
-1.465, 7.313e-3
-1.466, 7.356e-3
-1.467, 7.425e-3
-1.468, 7.484e-3
-1.469, 7.566e-3
-1.470, 7.621e-3
-1.471, 7.680e-3
-1.472, 7.738e-3
-1.473, 7.807e-3
-1.474, 7.857e-3
-1.475, 7.945e-3
-1.476, 8.011e-3
-1.477, 8.096e-3
-1.478, 8.182e-3
-1.479, 8.262e-3
-1.480, 8.308e-3
-1.481, 8.378e-3
-1.482, 8.458e-3
-1.483, 8.512e-3
-1.484, 8.565e-3
-1.485, 8.628e-3
-1.486, 8.705e-3
-1.487, 8.788e-3
-1.488, 8.864e-3
-1.489, 8.938e-3
-1.490, 9.007e-3
-1.491, 9.043e-3
-1.492, 9.017e-3
-1.493, 9.048e-3
-1.494, 9.134e-3
-1.495, 9.188e-3
-1.496, 9.260e-3
-1.497, 9.335e-3
-1.498, 9.413e-3
-1.499, 9.464e-3
-1.500, 9.434e-3
-1.499, 9.351e-3
-1.498, 9.238e-3
-1.497, 9.128e-3
-1.496, 9.060e-3
-1.495, 8.981e-3
-1.494, 8.900e-3
-1.493, 8.810e-3
-1.492, 8.810e-3
-1.491, 8.707e-3
-1.490, 8.588e-3
-1.489, 8.506e-3
-1.488, 8.447e-3
-1.487, 8.377e-3
-1.486, 8.273e-3
-1.485, 8.192e-3
-1.484, 8.259e-3
-1.483, 8.172e-3
-1.482, 8.063e-3
-1.481, 7.934e-3
-1.480, 7.842e-3
-1.479, 7.775e-3
-1.478, 7.783e-3
-1.477, 7.754e-3
-1.476, 7.690e-3
-1.475, 7.637e-3
-1.474, 7.554e-3
-1.473, 7.495e-3
-1.472, 7.425e-3
-1.471, 7.376e-3
-1.470, 7.295e-3
-1.469, 7.174e-3
-1.468, 7.085e-3
-1.467, 7.023e-3
-1.466, 6.931e-3
-1.465, 6.859e-3
-1.464, 6.828e-3
-1.463, 6.699e-3
-1.462, 6.557e-3
-1.461, 6.463e-3
-1.460, 6.381e-3
-1.459, 6.291e-3
-1.458, 6.222e-3
-1.457, 6.143e-3
-1.456, 6.090e-3
-1.455, 6.013e-3
-1.454, 5.927e-3
-1.453, 5.881e-3
-1.452, 5.821e-3
-1.451, 5.738e-3
-1.450, 5.670e-3
-1.449, 5.603e-3
-1.448, 5.530e-3
-1.447, 5.483e-3
-1.446, 5.399e-3
-1.445, 5.344e-3
-1.444, 5.285e-3
-1.443, 5.215e-3
-1.442, 5.164e-3
-1.441, 5.068e-3
-1.440, 5.012e-3
-1.439, 4.961e-3
-1.438, 4.900e-3
-1.437, 4.835e-3
-1.436, 4.774e-3
-1.435, 4.727e-3
-1.434, 4.662e-3
-1.433, 4.597e-3
-1.432, 4.548e-3
-1.431, 4.491e-3
-1.430, 4.441e-3
-1.429, 4.378e-3
-1.428, 4.315e-3
-1.427, 4.249e-3
-1.426, 4.196e-3
-1.425, 4.142e-3
-1.424, 4.077e-3
-1.423, 4.033e-3
-1.422, 3.977e-3
-1.421, 3.912e-3
-1.420, 3.865e-3
-1.419, 3.819e-3
-1.418, 3.786e-3
-1.417, 3.752e-3
-1.416, 3.720e-3
-1.415, 3.658e-3
-1.414, 3.600e-3
-1.413, 3.556e-3
-1.412, 3.524e-3
-1.411, 3.474e-3
-1.410, 3.426e-3
-1.409, 3.373e-3
-1.408, 3.314e-3
-1.407, 3.282e-3
-1.406, 3.238e-3
-1.405, 3.193e-3
-1.404, 3.131e-3
-1.403, 3.085e-3
-1.402, 3.056e-3
-1.401, 3.011e-3
-1.400, 2.968e-3
-1.399, 2.910e-3
-1.398, 2.865e-3
-1.397, 2.816e-3
-1.396, 2.778e-3
-1.395, 2.744e-3
-1.394, 2.699e-3
-1.393, 2.648e-3
-1.392, 2.605e-3
-1.391, 2.563e-3
-1.390, 2.518e-3
-1.389, 2.474e-3
-1.388, 2.429e-3
-1.387, 2.389e-3
-1.386, 2.344e-3
-1.385, 2.305e-3
-1.384, 2.257e-3
-1.383, 2.249e-3
-1.382, 2.191e-3
-1.381, 2.149e-3
-1.380, 2.106e-3
-1.379, 2.069e-3
-1.378, 2.025e-3
-1.377, 1.988e-3
-1.376, 1.953e-3
-1.375, 1.905e-3
-1.374, 1.863e-3
-1.373, 1.827e-3
-1.372, 1.793e-3
-1.371, 1.761e-3
-1.370, 1.723e-3
-1.369, 1.688e-3
-1.368, 1.651e-3
-1.367, 1.616e-3
-1.366, 1.593e-3
-1.365, 1.556e-3
-1.364, 1.518e-3
-1.363, 1.487e-3
-1.362, 1.454e-3
-1.361, 1.425e-3
-1.360, 1.395e-3
-1.359, 1.359e-3
-1.358, 1.334e-3
-1.357, 1.307e-3
-1.356, 1.276e-3
-1.355, 1.251e-3
-1.354, 1.218e-3
-1.353, 1.192e-3
-1.352, 1.164e-3
-1.351, 1.136e-3
-1.350, 1.110e-3
-1.349, 1.083e-3
-1.348, 1.057e-3
-1.347, 1.032e-3
-1.346, 1.007e-3
-1.345, 9.815e-4
-1.344, 9.599e-4
-1.343, 9.324e-4
-1.342, 9.089e-4
-1.341, 8.897e-4
-1.340, 8.658e-4
-1.339, 8.428e-4
-1.338, 8.209e-4
-1.337, 7.986e-4
-1.336, 7.788e-4
-1.335, 7.579e-4
-1.334, 7.380e-4
-1.333, 7.177e-4
-1.332, 6.993e-4
-1.331, 6.817e-4
-1.330, 6.621e-4
-1.329, 6.433e-4
-1.328, 6.240e-4
-1.327, 6.069e-4
-1.326, 5.901e-4
-1.325, 5.723e-4
-1.324, 5.546e-4
-1.323, 5.382e-4
-1.322, 5.217e-4
-1.321, 5.068e-4
-1.320, 4.921e-4
-1.319, 4.765e-4
-1.318, 4.613e-4
-1.317, 4.466e-4
-1.316, 4.343e-4
-1.315, 4.202e-4
-1.314, 4.073e-4
-1.313, 3.932e-4
-1.312, 3.804e-4
-1.311, 3.682e-4
-1.310, 3.553e-4
-1.309, 3.432e-4
-1.308, 3.312e-4
-1.307, 3.193e-4
-1.306, 3.096e-4
-1.305, 2.981e-4
-1.304, 2.864e-4
-1.303, 2.749e-4
-1.302, 2.654e-4
-1.301, 2.555e-4
-1.300, 2.451e-4
-1.299, 2.354e-4
-1.298, 2.264e-4
-1.297, 2.167e-4
-1.296, 2.091e-4
-1.295, 2.002e-4
-1.294, 1.914e-4
-1.293, 1.828e-4
-1.292, 1.744e-4
-1.291, 1.671e-4
-1.290, 1.596e-4
-1.289, 1.509e-4
-1.288, 1.437e-4
-1.287, 1.367e-4
-1.286, 1.302e-4
-1.285, 1.238e-4
-1.284, 1.164e-4
-1.283, 1.098e-4
-1.282, 1.037e-4
-1.281, 9.823e-5
-1.280, 9.180e-5
-1.279, 8.547e-5
-1.278, 7.941e-5
-1.277, 7.447e-5
-1.276, 6.970e-5
-1.275, 6.446e-5
-1.274, 5.908e-5
-1.273, 5.337e-5
-1.272, 4.898e-5
-1.271, 4.470e-5
-1.270, 4.010e-5
-1.269, 3.561e-5
-1.268, 3.057e-5
-1.267, 2.653e-5
-1.266, 2.352e-5
-1.265, 1.932e-5
-1.264, 1.525e-5
-1.263, 1.073e-5
-1.262, 7.294e-6
-1.261, 4.651e-6
-1.260, 1.177e-6
-1.259, -2.782e-6
-1.258, -6.273e-6
-1.257, -9.464e-6
-1.256, -1.169e-5
-1.255, -1.460e-5
-1.254, -1.821e-5
-1.253, -2.123e-5
-1.252, -2.380e-5
-1.251, -2.586e-5
-1.250, -2.813e-5
-1.249, -3.169e-5
-1.248, -3.415e-5
-1.247, -3.657e-5
-1.246, -3.820e-5
-1.245, -3.989e-5
-1.244, -4.277e-5
-1.243, -4.514e-5
-1.242, -4.696e-5
-1.241, -4.887e-5
-1.240, -5.007e-5
-1.239, -5.271e-5
-1.238, -5.479e-5
-1.237, -5.620e-5
-1.236, -5.745e-5
-1.235, -5.880e-5
-1.234, -6.111e-5
-1.233, -6.337e-5
-1.232, -6.398e-5
-1.231, -6.498e-5
-1.230, -6.668e-5
-1.229, -6.968e-5
-1.228, -7.073e-5
-1.227, -7.147e-5
-1.226, -7.154e-5
-1.225, -7.315e-5
-1.224, -7.411e-5
-1.223, -7.628e-5
-1.222, -7.700e-5
-1.221, -7.744e-5
-1.220, -7.836e-5
-1.219, -8.024e-5
-1.218, -8.122e-5
-1.217, -8.231e-5
-1.216, -8.212e-5
-1.215, -8.282e-5
-1.214, -8.471e-5
-1.213, -8.551e-5
-1.212, -8.641e-5
-1.211, -8.646e-5
-1.210, -8.679e-5
-1.209, -8.855e-5
-1.208, -8.913e-5
-1.207, -8.993e-5
-1.206, -9.015e-5
-1.205, -9.014e-5
-1.204, -9.144e-5
-1.203, -9.299e-5
-1.202, -9.281e-5
-1.201, -9.327e-5
-1.200, -9.313e-5
-1.199, -9.432e-5
-1.198, -9.559e-5
-1.197, -9.524e-5
-1.196, -9.556e-5
-1.195, -9.620e-5
-1.194, -9.666e-5
-1.193, -9.795e-5
-1.192, -9.751e-5
-1.191, -9.771e-5
-1.190, -9.811e-5
-1.189, -9.863e-5
-1.188, -9.983e-5
-1.187, -9.994e-5
-1.186, -9.937e-5
-1.185, -1.001e-4
-1.184, -9.990e-5
-1.183, -1.015e-4
-1.182, -1.020e-4
-1.181, -1.012e-4
-1.180, -1.014e-4
-1.179, -1.023e-4
-1.178, -1.030e-4
-1.177, -1.035e-4
-1.176, -1.027e-4
-1.175, -1.027e-4
-1.174, -1.034e-4
-1.173, -1.044e-4
-1.172, -1.043e-4
-1.171, -1.039e-4
-1.170, -1.038e-4
-1.169, -1.049e-4
-1.168, -1.051e-4
-1.167, -1.054e-4
-1.166, -1.049e-4
-1.165, -1.050e-4
-1.164, -1.057e-4
-1.163, -1.065e-4
-1.162, -1.062e-4
-1.161, -1.061e-4
-1.160, -1.058e-4
-1.159, -1.066e-4
-1.158, -1.073e-4
-1.157, -1.069e-4
-1.156, -1.068e-4
-1.155, -1.067e-4
-1.154, -1.073e-4
-1.153, -1.085e-4
-1.152, -1.081e-4
-1.151, -1.076e-4
-1.150, -1.075e-4
-1.149, -1.082e-4
-1.148, -1.090e-4
-1.147, -1.091e-4
-1.146, -1.085e-4
-1.145, -1.087e-4
-1.144, -1.089e-4
-1.143, -1.096e-4
-1.142, -1.099e-4
-1.141, -1.091e-4
-1.140, -1.092e-4
-1.139, -1.097e-4
-1.138, -1.104e-4
-1.137, -1.108e-4
-1.136, -1.098e-4
-1.135, -1.098e-4
-1.134, -1.108e-4
-1.133, -1.109e-4
-1.132, -1.114e-4
-1.131, -1.106e-4
-1.130, -1.107e-4
-1.129, -1.112e-4
-1.128, -1.117e-4
-1.127, -1.120e-4
-1.126, -1.118e-4
-1.125, -1.114e-4
-1.124, -1.120e-4
-1.123, -1.129e-4
-1.122, -1.124e-4
-1.121, -1.127e-4
-1.120, -1.119e-4
-1.119, -1.129e-4
-1.118, -1.139e-4
-1.117, -1.134e-4
-1.116, -1.129e-4
-1.115, -1.133e-4
-1.114, -1.133e-4
-1.113, -1.145e-4
-1.112, -1.142e-4
-1.111, -1.139e-4
-1.110, -1.141e-4
-1.109, -1.143e-4
-1.108, -1.152e-4
-1.107, -1.153e-4
-1.106, -1.147e-4
-1.105, -1.149e-4
-1.104, -1.151e-4
-1.103, -1.164e-4
-1.102, -1.162e-4
-1.101, -1.157e-4
-1.100, -1.156e-4
-1.099, -1.165e-4
-1.098, -1.167e-4
-1.097, -1.176e-4
-1.096, -1.164e-4
-1.095, -1.166e-4
-1.094, -1.177e-4
-1.093, -1.180e-4
-1.092, -1.185e-4
-1.091, -1.178e-4
-1.090, -1.174e-4
-1.089, -1.187e-4
-1.088, -1.191e-4
-1.087, -1.194e-4
-1.086, -1.189e-4
-1.085, -1.189e-4
-1.084, -1.200e-4
-1.083, -1.205e-4
-1.082, -1.208e-4
-1.081, -1.206e-4
-1.080, -1.201e-4
-1.079, -1.209e-4
-1.078, -1.221e-4
-1.077, -1.219e-4
-1.076, -1.219e-4
-1.075, -1.225e-4
-1.074, -1.226e-4
-1.073, -1.239e-4
-1.072, -1.235e-4
-1.071, -1.231e-4
-1.070, -1.234e-4
-1.069, -1.243e-4
-1.068, -1.256e-4
-1.067, -1.257e-4
-1.066, -1.251e-4
-1.065, -1.258e-4
-1.064, -1.263e-4
-1.063, -1.276e-4
-1.062, -1.279e-4
-1.061, -1.274e-4
-1.060, -1.278e-4
-1.059, -1.287e-4
-1.058, -1.296e-4
-1.057, -1.302e-4
-1.056, -1.296e-4
-1.055, -1.303e-4
-1.054, -1.316e-4
-1.053, -1.321e-4
-1.052, -1.332e-4
-1.051, -1.332e-4
-1.050, -1.331e-4
-1.049, -1.347e-4
-1.048, -1.358e-4
-1.047, -1.361e-4
-1.046, -1.365e-4
-1.045, -1.368e-4
-1.044, -1.383e-4
-1.043, -1.397e-4
-1.042, -1.398e-4
-1.041, -1.406e-4
-1.040, -1.406e-4
-1.039, -1.421e-4
-1.038, -1.436e-4
-1.037, -1.443e-4
-1.036, -1.447e-4
-1.035, -1.466e-4
-1.034, -1.475e-4
-1.033, -1.490e-4
-1.032, -1.494e-4
-1.031, -1.499e-4
-1.030, -1.513e-4
-1.029, -1.523e-4
-1.028, -1.545e-4
-1.027, -1.555e-4
-1.026, -1.562e-4
-1.025, -1.573e-4
-1.024, -1.593e-4
-1.023, -1.614e-4
-1.022, -1.625e-4
-1.021, -1.630e-4
-1.020, -1.649e-4
-1.019, -1.670e-4
-1.018, -1.685e-4
-1.017, -1.705e-4
-1.016, -1.711e-4
-1.015, -1.733e-4
-1.014, -1.756e-4
-1.013, -1.778e-4
-1.012, -1.802e-4
-1.011, -1.815e-4
-1.010, -1.832e-4
-1.009, -1.862e-4
-1.008, -1.887e-4
-1.007, -1.913e-4
-1.006, -1.929e-4
-1.005, -1.951e-4
-1.004, -1.982e-4
-1.003, -2.009e-4
-1.002, -2.036e-4
-1.001, -2.060e-4
-1.000, -1.307e-4
-1.001, -4.128e-5
-1.002, -5.890e-6
-1.003, 1.264e-5
-1.004, 2.538e-5
-1.005, 3.396e-5
-1.006, 4.114e-5
-1.007, 4.722e-5
-1.008, 5.214e-5
-1.009, 5.779e-5
-1.010, 6.258e-5
-1.011, 6.568e-5
-1.012, 6.907e-5
-1.013, 7.163e-5
-1.014, 7.512e-5
-1.015, 7.860e-5
-1.016, 8.011e-5
-1.017, 8.207e-5
-1.018, 8.425e-5
-1.019, 8.643e-5
-1.020, 8.888e-5
-1.021, 8.952e-5
-1.022, 9.059e-5
-1.023, 9.230e-5
-1.024, 9.421e-5
-1.025, 9.574e-5
-1.026, 9.590e-5
-1.027, 9.628e-5
-1.028, 9.755e-5
-1.029, 9.869e-5
-1.030, 9.979e-5
-1.031, 1.002e-4
-1.032, 9.998e-5
-1.033, 1.012e-4
-1.034, 1.021e-4
-1.035, 1.025e-4
-1.036, 1.031e-4
-1.037, 1.027e-4
-1.038, 1.033e-4
-1.039, 1.044e-4
-1.040, 1.046e-4
-1.041, 1.047e-4
-1.042, 1.043e-4
-1.043, 1.044e-4
-1.044, 1.061e-4
-1.045, 1.062e-4
-1.046, 1.062e-4
-1.047, 1.058e-4
-1.048, 1.056e-4
-1.049, 1.067e-4
-1.050, 1.073e-4
-1.051, 1.070e-4
-1.052, 1.067e-4
-1.053, 1.063e-4
-1.054, 1.071e-4
-1.055, 1.078e-4
-1.056, 1.071e-4
-1.057, 1.069e-4
-1.058, 1.071e-4
-1.059, 1.077e-4
-1.060, 1.084e-4
-1.061, 1.076e-4
-1.062, 1.078e-4
-1.063, 1.076e-4
-1.064, 1.078e-4
-1.065, 1.087e-4
-1.066, 1.081e-4
-1.067, 1.077e-4
-1.068, 1.078e-4
-1.069, 1.084e-4
-1.070, 1.086e-4
-1.071, 1.087e-4
-1.072, 1.077e-4
-1.073, 1.083e-4
-1.074, 1.087e-4
-1.075, 1.095e-4
-1.076, 1.091e-4
-1.077, 1.079e-4
-1.078, 1.079e-4
-1.079, 1.087e-4
-1.080, 1.088e-4
-1.081, 1.088e-4
-1.082, 1.081e-4
-1.083, 1.083e-4
-1.084, 1.088e-4
-1.085, 1.089e-4
-1.086, 1.086e-4
-1.087, 1.084e-4
-1.088, 1.082e-4
-1.089, 1.087e-4
-1.090, 1.093e-4
-1.091, 1.087e-4
-1.092, 1.084e-4
-1.093, 1.080e-4
-1.094, 1.087e-4
-1.095, 1.094e-4
-1.096, 1.086e-4
-1.097, 1.082e-4
-1.098, 1.084e-4
-1.099, 1.089e-4
-1.100, 1.097e-4
-1.101, 1.086e-4
-1.102, 1.082e-4
-1.103, 1.084e-4
-1.104, 1.087e-4
-1.105, 1.092e-4
-1.106, 1.089e-4
-1.107, 1.081e-4
-1.108, 1.088e-4
-1.109, 1.087e-4
-1.110, 1.091e-4
-1.111, 1.092e-4
-1.112, 1.081e-4
-1.113, 1.086e-4
-1.114, 1.090e-4
-1.115, 1.091e-4
-1.116, 1.092e-4
-1.117, 1.081e-4
-1.118, 1.082e-4
-1.119, 1.093e-4
-1.120, 1.095e-4
-1.121, 1.091e-4
-1.122, 1.087e-4
-1.123, 1.082e-4
-1.124, 1.094e-4
-1.125, 1.094e-4
-1.126, 1.093e-4
-1.127, 1.090e-4
-1.128, 1.084e-4
-1.129, 1.093e-4
-1.130, 1.096e-4
-1.131, 1.094e-4
-1.132, 1.089e-4
-1.133, 1.087e-4
-1.134, 1.095e-4
-1.135, 1.103e-4
-1.136, 1.094e-4
-1.137, 1.090e-4
-1.138, 1.092e-4
-1.139, 1.096e-4
-1.140, 1.102e-4
-1.141, 1.096e-4
-1.142, 1.092e-4
-1.143, 1.094e-4
-1.144, 1.097e-4
-1.145, 1.107e-4
-1.146, 1.103e-4
-1.147, 1.095e-4
-1.148, 1.098e-4
-1.149, 1.103e-4
-1.150, 1.107e-4
-1.151, 1.109e-4
-1.152, 1.101e-4
-1.153, 1.100e-4
-1.154, 1.109e-4
-1.155, 1.112e-4
-1.156, 1.113e-4
-1.157, 1.103e-4
-1.158, 1.108e-4
-1.159, 1.114e-4
-1.160, 1.117e-4
-1.161, 1.116e-4
-1.162, 1.111e-4
-1.163, 1.110e-4
-1.164, 1.120e-4
-1.165, 1.124e-4
-1.166, 1.121e-4
-1.167, 1.121e-4
-1.168, 1.117e-4
-1.169, 1.126e-4
-1.170, 1.129e-4
-1.171, 1.128e-4
-1.172, 1.128e-4
-1.173, 1.125e-4
-1.174, 1.137e-4
-1.175, 1.142e-4
-1.176, 1.140e-4
-1.177, 1.139e-4
-1.178, 1.141e-4
-1.179, 1.144e-4
-1.180, 1.154e-4
-1.181, 1.150e-4
-1.182, 1.148e-4
-1.183, 1.153e-4
-1.184, 1.152e-4
-1.185, 1.162e-4
-1.186, 1.163e-4
-1.187, 1.159e-4
-1.188, 1.164e-4
-1.189, 1.170e-4
-1.190, 1.177e-4
-1.191, 1.181e-4
-1.192, 1.173e-4
-1.193, 1.180e-4
-1.194, 1.189e-4
-1.195, 1.194e-4
-1.196, 1.197e-4
-1.197, 1.193e-4
-1.198, 1.197e-4
-1.199, 1.209e-4
-1.200, 1.214e-4
-1.201, 1.219e-4
-1.202, 1.214e-4
-1.203, 1.220e-4
-1.204, 1.232e-4
-1.205, 1.235e-4
-1.206, 1.242e-4
-1.207, 1.241e-4
-1.208, 1.244e-4
-1.209, 1.258e-4
-1.210, 1.268e-4
-1.211, 1.270e-4
-1.212, 1.275e-4
-1.213, 1.277e-4
-1.214, 1.287e-4
-1.215, 1.303e-4
-1.216, 1.304e-4
-1.217, 1.306e-4
-1.218, 1.313e-4
-1.219, 1.325e-4
-1.220, 1.342e-4
-1.221, 1.346e-4
-1.222, 1.348e-4
-1.223, 1.357e-4
-1.224, 1.369e-4
-1.225, 1.389e-4
-1.226, 1.394e-4
-1.227, 1.398e-4
-1.228, 1.415e-4
-1.229, 1.447e-4
-1.230, 1.443e-4
-1.231, 1.455e-4
-1.232, 1.455e-4
-1.233, 1.471e-4
-1.234, 1.486e-4
-1.235, 1.507e-4
-1.236, 1.518e-4
-1.237, 1.523e-4
-1.238, 1.541e-4
-1.239, 1.563e-4
-1.240, 1.581e-4
-1.241, 1.597e-4
-1.242, 1.608e-4
-1.243, 1.622e-4
-1.244, 1.648e-4
-1.245, 1.667e-4
-1.246, 1.687e-4
-1.247, 1.704e-4
-1.248, 1.719e-4
-1.249, 1.748e-4
-1.250, 1.775e-4
-1.251, 1.793e-4
-1.252, 1.813e-4
-1.253, 1.835e-4
-1.254, 1.866e-4
-1.255, 1.895e-4
-1.256, 1.917e-4
-1.257, 1.940e-4
-1.258, 1.967e-4
-1.259, 1.998e-4
-1.260, 2.039e-4
-1.261, 2.061e-4
-1.262, 2.093e-4
-1.263, 2.117e-4
-1.264, 2.158e-4
-1.265, 2.196e-4
-1.266, 2.233e-4
-1.267, 2.264e-4
-1.268, 2.305e-4
-1.269, 2.344e-4
-1.270, 2.382e-4
-1.271, 2.431e-4
-1.272, 2.462e-4
-1.273, 2.505e-4
-1.274, 2.558e-4
-1.275, 2.605e-4
-1.276, 2.658e-4
-1.277, 2.695e-4
-1.278, 2.741e-4
-1.279, 2.801e-4
-1.280, 2.868e-4
-1.281, 2.911e-4
-1.282, 2.956e-4
-1.283, 3.018e-4
-1.284, 3.076e-4
-1.285, 3.150e-4
-1.286, 3.211e-4
-1.287, 3.266e-4
-1.288, 3.336e-4
-1.289, 3.407e-4
-1.290, 3.487e-4
-1.291, 3.552e-4
-1.292, 3.615e-4
-1.293, 3.696e-4
-1.294, 3.777e-4
-1.295, 3.864e-4
-1.296, 3.939e-4
-1.297, 4.021e-4
-1.298, 4.107e-4
-1.299, 4.199e-4
-1.300, 4.299e-4
-1.301, 4.387e-4
-1.302, 4.476e-4
-1.303, 4.575e-4
-1.304, 4.683e-4
-1.305, 4.790e-4
-1.306, 4.902e-4
-1.307, 4.999e-4
-1.308, 5.110e-4
-1.309, 5.222e-4
-1.310, 5.344e-4
-1.311, 5.460e-4
-1.312, 5.588e-4
-1.313, 5.705e-4
-1.314, 5.843e-4
-1.315, 5.978e-4
-1.316, 6.113e-4
-1.317, 6.252e-4
-1.318, 6.380e-4
-1.319, 6.539e-4
-1.320, 6.696e-4
-1.321, 6.850e-4
-1.322, 6.992e-4
-1.323, 7.145e-4
-1.324, 7.306e-4
-1.325, 7.489e-4
-1.326, 7.638e-4
-1.327, 7.829e-4
-1.328, 8.004e-4
-1.329, 8.184e-4
-1.330, 8.388e-4
-1.331, 8.569e-4
-1.332, 8.753e-4
-1.333, 8.922e-4
-1.334, 9.148e-4
-1.335, 9.357e-4
-1.336, 9.589e-4
-1.337, 9.802e-4
-1.338, 1.001e-3
-1.339, 1.023e-3
-1.340, 1.048e-3
-1.341, 1.068e-3
-1.342, 1.092e-3
-1.343, 1.116e-3
-1.344, 1.137e-3
-1.345, 1.164e-3
-1.346, 1.189e-3
-1.347, 1.215e-3
-1.348, 1.243e-3
-1.349, 1.269e-3
-1.350, 1.298e-3
-1.351, 1.323e-3
-1.352, 1.348e-3
-1.353, 1.376e-3
-1.354, 1.405e-3
-1.355, 1.435e-3
-1.356, 1.466e-3
-1.357, 1.495e-3
-1.358, 1.527e-3
-1.359, 1.561e-3
-1.360, 1.587e-3
-1.361, 1.618e-3
-1.362, 1.650e-3
-1.363, 1.685e-3
-1.364, 1.718e-3
-1.365, 1.752e-3
-1.366, 1.785e-3
-1.367, 1.818e-3
-1.368, 1.854e-3
-1.369, 1.889e-3
-1.370, 1.929e-3
-1.371, 1.967e-3
-1.372, 2.004e-3
-1.373, 2.040e-3
-1.374, 2.076e-3
-1.375, 2.114e-3
-1.376, 2.151e-3
-1.377, 2.189e-3
-1.378, 2.228e-3
-1.379, 2.270e-3
-1.380, 2.314e-3
-1.381, 2.351e-3
-1.382, 2.393e-3
-1.383, 2.434e-3
-1.384, 2.477e-3
-1.385, 2.518e-3
-1.386, 2.565e-3
-1.387, 2.601e-3
-1.388, 2.648e-3
-1.389, 2.694e-3
-1.390, 2.741e-3
-1.391, 2.778e-3
-1.392, 2.820e-3
-1.393, 2.861e-3
-1.394, 2.917e-3
-1.395, 2.958e-3
-1.396, 3.006e-3
-1.397, 3.043e-3
-1.398, 3.084e-3
-1.399, 3.134e-3
-1.400, 3.176e-3
-1.401, 3.225e-3
-1.402, 3.279e-3
-1.403, 3.332e-3
-1.404, 3.379e-3
-1.405, 3.415e-3
-1.406, 3.467e-3
-1.407, 3.523e-3
-1.408, 3.569e-3
-1.409, 3.625e-3
-1.410, 3.672e-3
-1.411, 3.723e-3
-1.412, 3.782e-3
-1.413, 3.837e-3
-1.414, 3.889e-3
-1.415, 3.928e-3
-1.416, 3.988e-3
-1.417, 4.047e-3
-1.418, 4.114e-3
-1.419, 4.161e-3
-1.420, 4.214e-3
-1.421, 4.259e-3
-1.422, 4.317e-3
-1.423, 4.374e-3
-1.424, 4.428e-3
-1.425, 4.488e-3
-1.426, 4.540e-3
-1.427, 4.597e-3
-1.428, 4.647e-3
-1.429, 4.701e-3
-1.430, 4.760e-3
-1.431, 4.824e-3
-1.432, 4.894e-3
-1.433, 4.931e-3
-1.434, 4.985e-3
-1.435, 5.038e-3
-1.436, 5.092e-3
-1.437, 5.147e-3
-1.438, 5.200e-3
-1.439, 5.264e-3
-1.440, 5.308e-3
-1.441, 5.355e-3
-1.442, 5.398e-3
-1.443, 5.454e-3
-1.444, 5.527e-3
-1.445, 5.589e-3
-1.446, 5.646e-3
-1.447, 5.705e-3
-1.448, 5.787e-3
-1.449, 5.833e-3
-1.450, 5.879e-3
-1.451, 5.938e-3
-1.452, 6.034e-3
-1.453, 6.136e-3
-1.454, 6.198e-3
-1.455, 6.255e-3
-1.456, 6.333e-3
-1.457, 6.381e-3
-1.458, 6.452e-3
-1.459, 6.523e-3
-1.460, 6.574e-3
-1.461, 6.635e-3
-1.462, 6.690e-3
-1.463, 6.777e-3
-1.464, 6.853e-3
-1.465, 6.918e-3
-1.466, 6.984e-3
-1.467, 7.046e-3
-1.468, 7.109e-3
-1.469, 7.174e-3
-1.470, 7.238e-3
-1.471, 7.295e-3
-1.472, 7.345e-3
-1.473, 7.412e-3
-1.474, 7.460e-3
-1.475, 7.552e-3
-1.476, 7.595e-3
-1.477, 7.639e-3
-1.478, 7.687e-3
-1.479, 7.714e-3
-1.480, 7.784e-3
-1.481, 7.844e-3
-1.482, 7.916e-3
-1.483, 7.976e-3
-1.484, 8.032e-3
-1.485, 8.089e-3
-1.486, 8.176e-3
-1.487, 8.219e-3
-1.488, 8.280e-3
-1.489, 8.341e-3
-1.490, 8.402e-3
-1.491, 8.401e-3
-1.492, 8.435e-3
-1.493, 8.474e-3
-1.494, 8.524e-3
-1.495, 8.582e-3
-1.496, 8.670e-3
-1.497, 8.699e-3
-1.498, 8.743e-3
-1.499, 8.801e-3
-1.500, 8.788e-3
-1.499, 8.712e-3
-1.498, 8.667e-3
-1.497, 8.564e-3
-1.496, 8.497e-3
-1.495, 8.415e-3
-1.494, 8.314e-3
-1.493, 8.207e-3
-1.492, 8.128e-3
-1.491, 8.087e-3
-1.490, 7.980e-3
-1.489, 7.885e-3
-1.488, 7.805e-3
-1.487, 7.744e-3
-1.486, 7.645e-3
-1.485, 7.550e-3
-1.484, 7.427e-3
-1.483, 7.357e-3
-1.482, 7.288e-3
-1.481, 7.211e-3
-1.480, 7.161e-3
-1.479, 7.087e-3
-1.478, 7.040e-3
-1.477, 6.957e-3
-1.476, 6.894e-3
-1.475, 6.840e-3
-1.474, 6.811e-3
-1.473, 6.787e-3
-1.472, 6.734e-3
-1.471, 6.722e-3
-1.470, 6.665e-3
-1.469, 6.597e-3
-1.468, 6.541e-3
-1.467, 6.525e-3
-1.466, 6.473e-3
-1.465, 6.473e-3
-1.464, 6.398e-3
-1.463, 6.326e-3
-1.462, 6.270e-3
-1.461, 6.198e-3
-1.460, 6.115e-3
-1.459, 6.086e-3
-1.458, 6.018e-3
-1.457, 5.953e-3
-1.456, 5.861e-3
-1.455, 5.808e-3
-1.454, 5.744e-3
-1.453, 5.672e-3
-1.452, 5.601e-3
-1.451, 5.537e-3
-1.450, 5.471e-3
-1.449, 5.402e-3
-1.448, 5.328e-3
-1.447, 5.255e-3
-1.446, 5.177e-3
-1.445, 5.118e-3
-1.444, 5.056e-3
-1.443, 4.971e-3
-1.442, 4.934e-3
-1.441, 4.878e-3
-1.440, 4.817e-3
-1.439, 4.751e-3
-1.438, 4.695e-3
-1.437, 4.629e-3
-1.436, 4.567e-3
-1.435, 4.495e-3
-1.434, 4.416e-3
-1.433, 4.369e-3
-1.432, 4.318e-3
-1.431, 4.241e-3
-1.430, 4.185e-3
-1.429, 4.148e-3
-1.428, 4.084e-3
-1.427, 4.031e-3
-1.426, 3.970e-3
-1.425, 3.926e-3
-1.424, 3.875e-3
-1.423, 3.821e-3
-1.422, 3.765e-3
-1.421, 3.712e-3
-1.420, 3.661e-3
-1.419, 3.617e-3
-1.418, 3.561e-3
-1.417, 3.522e-3
-1.416, 3.467e-3
-1.415, 3.411e-3
-1.414, 3.351e-3
-1.413, 3.328e-3
-1.412, 3.292e-3
-1.411, 3.256e-3
-1.410, 3.219e-3
-1.409, 3.161e-3
-1.408, 3.111e-3
-1.407, 3.060e-3
-1.406, 3.017e-3
-1.405, 2.961e-3
-1.404, 2.921e-3
-1.403, 2.864e-3
-1.402, 2.828e-3
-1.401, 2.779e-3
-1.400, 2.754e-3
-1.399, 2.704e-3
-1.398, 2.651e-3
-1.397, 2.608e-3
-1.396, 2.564e-3
-1.395, 2.536e-3
-1.394, 2.500e-3
-1.393, 2.455e-3
-1.392, 2.412e-3
-1.391, 2.372e-3
-1.390, 2.334e-3
-1.389, 2.296e-3
-1.388, 2.260e-3
-1.387, 2.217e-3
-1.386, 2.176e-3
-1.385, 2.138e-3
-1.384, 2.102e-3
-1.383, 2.059e-3
-1.382, 2.023e-3
-1.381, 1.989e-3
-1.380, 1.950e-3
-1.379, 1.913e-3
-1.378, 1.871e-3
-1.377, 1.832e-3
-1.376, 1.800e-3
-1.375, 1.775e-3
-1.374, 1.741e-3
-1.373, 1.711e-3
-1.372, 1.677e-3
-1.371, 1.643e-3
-1.370, 1.616e-3
-1.369, 1.582e-3
-1.368, 1.552e-3
-1.367, 1.518e-3
-1.366, 1.487e-3
-1.365, 1.458e-3
-1.364, 1.422e-3
-1.363, 1.397e-3
-1.362, 1.370e-3
-1.361, 1.337e-3
-1.360, 1.312e-3
-1.359, 1.283e-3
-1.358, 1.253e-3
-1.357, 1.218e-3
-1.356, 1.194e-3
-1.355, 1.169e-3
-1.354, 1.141e-3
-1.353, 1.121e-3
-1.352, 1.087e-3
-1.351, 1.069e-3
-1.350, 1.042e-3
-1.349, 1.017e-3
-1.348, 9.938e-4
-1.347, 9.683e-4
-1.346, 9.447e-4
-1.345, 9.222e-4
-1.344, 8.966e-4
-1.343, 8.766e-4
-1.342, 8.514e-4
-1.341, 8.322e-4
-1.340, 8.157e-4
-1.339, 8.004e-4
-1.338, 7.746e-4
-1.337, 7.499e-4
-1.336, 7.305e-4
-1.335, 7.124e-4
-1.334, 6.968e-4
-1.333, 6.755e-4
-1.332, 6.565e-4
-1.331, 6.392e-4
-1.330, 6.227e-4
-1.329, 6.078e-4
-1.328, 5.873e-4
-1.327, 5.696e-4
-1.326, 5.536e-4
-1.325, 5.392e-4
-1.324, 5.188e-4
-1.323, 5.094e-4
-1.322, 4.986e-4
-1.321, 4.824e-4
-1.320, 4.672e-4
-1.319, 4.512e-4
-1.318, 4.393e-4
-1.317, 4.247e-4
-1.316, 4.109e-4
-1.315, 3.978e-4
-1.314, 3.866e-4
-1.313, 3.710e-4
-1.312, 3.577e-4
-1.311, 3.468e-4
-1.310, 3.350e-4
-1.309, 3.248e-4
-1.308, 3.128e-4
-1.307, 3.005e-4
-1.306, 2.894e-4
-1.305, 2.794e-4
-1.304, 2.699e-4
-1.303, 2.589e-4
-1.302, 2.496e-4
-1.301, 2.400e-4
-1.300, 2.305e-4
-1.299, 2.219e-4
-1.298, 2.125e-4
-1.297, 2.084e-4
-1.296, 1.949e-4
-1.295, 1.861e-4
-1.294, 1.786e-4
-1.293, 1.706e-4
-1.292, 1.618e-4
-1.291, 1.550e-4
-1.290, 1.481e-4
-1.289, 1.411e-4
-1.288, 1.334e-4
-1.287, 1.267e-4
-1.286, 1.192e-4
-1.285, 1.143e-4
-1.284, 1.075e-4
-1.283, 1.008e-4
-1.282, 9.447e-5
-1.281, 8.882e-5
-1.280, 8.315e-5
-1.279, 7.816e-5
-1.278, 7.225e-5
-1.277, 6.668e-5
-1.276, 6.147e-5
-1.275, 5.735e-5
-1.274, 5.276e-5
-1.273, 4.731e-5
-1.272, 4.240e-5
-1.271, 3.777e-5
-1.270, 3.399e-5
-1.269, 3.022e-5
-1.268, 2.554e-5
-1.267, 2.122e-5
-1.266, 1.735e-5
-1.265, 1.407e-5
-1.264, 1.059e-5
-1.263, 6.116e-6
-1.262, 2.107e-6
-1.261, -4.678e-7
-1.260, -3.399e-6
-1.259, -6.266e-6
-1.258, -9.712e-6
-1.257, -1.343e-5
-1.256, -1.594e-5
-1.255, -1.839e-5
-1.254, -2.087e-5
-1.253, -2.377e-5
-1.252, -2.732e-5
-1.251, -2.960e-5
-1.250, -3.112e-5
-1.249, -3.395e-5
-1.248, -3.603e-5
-1.247, -3.904e-5
-1.246, -4.101e-5
-1.245, -4.233e-5
-1.244, -4.431e-5
-1.243, -4.714e-5
-1.242, -4.904e-5
-1.241, -5.158e-5
-1.240, -5.219e-5
-1.239, -5.368e-5
-1.238, -5.615e-5
-1.237, -5.774e-5
-1.236, -5.936e-5
-1.235, -6.071e-5
-1.234, -6.187e-5
-1.233, -6.396e-5
-1.232, -6.557e-5
-1.231, -6.678e-5
-1.230, -6.806e-5
-1.229, -7.010e-5
-1.228, -7.142e-5
-1.227, -7.242e-5
-1.226, -7.354e-5
-1.225, -7.432e-5
-1.224, -7.470e-5
-1.223, -7.632e-5
-1.222, -7.796e-5
-1.221, -7.852e-5
-1.220, -7.908e-5
-1.219, -7.984e-5
-1.218, -8.145e-5
-1.217, -8.313e-5
-1.216, -8.340e-5
-1.215, -8.332e-5
-1.214, -8.438e-5
-1.213, -8.518e-5
-1.212, -8.680e-5
-1.211, -8.735e-5
-1.210, -8.741e-5
-1.209, -8.811e-5
-1.208, -8.887e-5
-1.207, -9.017e-5
-1.206, -9.083e-5
-1.205, -9.056e-5
-1.204, -9.124e-5
-1.203, -9.241e-5
-1.202, -9.302e-5
-1.201, -9.396e-5
-1.200, -9.335e-5
-1.199, -9.402e-5
-1.198, -9.491e-5
-1.197, -9.589e-5
-1.196, -9.590e-5
-1.195, -9.613e-5
-1.194, -9.562e-5
-1.193, -9.720e-5
-1.192, -9.747e-5
-1.191, -9.805e-5
-1.190, -9.825e-5
-1.189, -9.799e-5
-1.188, -9.919e-5
-1.187, -1.001e-4
-1.186, -9.996e-5
-1.185, -1.001e-4
-1.184, -9.967e-5
-1.183, -1.006e-4
-1.182, -1.013e-4
-1.181, -1.012e-4
-1.180, -1.014e-4
-1.179, -1.010e-4
-1.178, -1.025e-4
-1.177, -1.037e-4
-1.176, -1.032e-4
-1.175, -1.029e-4
-1.174, -1.028e-4
-1.173, -1.030e-4
-1.172, -1.042e-4
-1.171, -1.042e-4
-1.170, -1.036e-4
-1.169, -1.038e-4
-1.168, -1.045e-4
-1.167, -1.051e-4
-1.166, -1.054e-4
-1.165, -1.047e-4
-1.164, -1.050e-4
-1.163, -1.054e-4
-1.162, -1.061e-4
-1.161, -1.066e-4
-1.160, -1.058e-4
-1.159, -1.057e-4
-1.158, -1.068e-4
-1.157, -1.069e-4
-1.156, -1.073e-4
-1.155, -1.068e-4
-1.154, -1.064e-4
-1.153, -1.078e-4
-1.152, -1.077e-4
-1.151, -1.085e-4
-1.150, -1.079e-4
-1.149, -1.073e-4
-1.148, -1.079e-4
-1.147, -1.086e-4
-1.146, -1.087e-4
-1.145, -1.087e-4
-1.144, -1.089e-4
-1.143, -1.092e-4
-1.142, -1.100e-4
-1.141, -1.094e-4
-1.140, -1.092e-4
-1.139, -1.090e-4
-1.138, -1.095e-4
-1.137, -1.104e-4
-1.136, -1.105e-4
-1.135, -1.097e-4
-1.134, -1.104e-4
-1.133, -1.103e-4
-1.132, -1.116e-4
-1.131, -1.112e-4
-1.130, -1.107e-4
-1.129, -1.106e-4
-1.128, -1.110e-4
-1.127, -1.120e-4
-1.126, -1.120e-4
-1.125, -1.114e-4
-1.124, -1.116e-4
-1.123, -1.123e-4
-1.122, -1.130e-4
-1.121, -1.134e-4
-1.120, -1.124e-4
-1.119, -1.118e-4
-1.118, -1.128e-4
-1.117, -1.132e-4
-1.116, -1.133e-4
-1.115, -1.132e-4
-1.114, -1.126e-4
-1.113, -1.144e-4
-1.112, -1.143e-4
-1.111, -1.146e-4
-1.110, -1.142e-4
-1.109, -1.139e-4
-1.108, -1.145e-4
-1.107, -1.152e-4
-1.106, -1.152e-4
-1.105, -1.152e-4
-1.104, -1.146e-4
-1.103, -1.154e-4
-1.102, -1.168e-4
-1.101, -1.165e-4
-1.100, -1.160e-4
-1.099, -1.157e-4
-1.098, -1.163e-4
-1.097, -1.174e-4
-1.096, -1.171e-4
-1.095, -1.170e-4
-1.094, -1.170e-4
-1.093, -1.182e-4
-1.092, -1.179e-4
-1.091, -1.178e-4
-1.090, -1.176e-4
-1.089, -1.182e-4
-1.088, -1.190e-4
-1.087, -1.194e-4
-1.086, -1.199e-4
-1.085, -1.198e-4
-1.084, -1.195e-4
-1.083, -1.208e-4
-1.082, -1.209e-4
-1.081, -1.215e-4
-1.080, -1.204e-4
-1.079, -1.204e-4
-1.078, -1.215e-4
-1.077, -1.220e-4
-1.076, -1.232e-4
-1.075, -1.231e-4
-1.074, -1.225e-4
-1.073, -1.236e-4
-1.072, -1.237e-4
-1.071, -1.242e-4
-1.070, -1.246e-4
-1.069, -1.242e-4
-1.068, -1.256e-4
-1.067, -1.257e-4
-1.066, -1.264e-4
-1.065, -1.261e-4
-1.064, -1.262e-4
-1.063, -1.272e-4
-1.062, -1.288e-4
-1.061, -1.287e-4
-1.060, -1.284e-4
-1.059, -1.286e-4
-1.058, -1.298e-4
-1.057, -1.310e-4
-1.056, -1.317e-4
-1.055, -1.311e-4
-1.054, -1.318e-4
-1.053, -1.326e-4
-1.052, -1.345e-4
-1.051, -1.350e-4
-1.050, -1.352e-4
-1.049, -1.348e-4
-1.048, -1.356e-4
-1.047, -1.374e-4
-1.046, -1.380e-4
-1.045, -1.383e-4
-1.044, -1.391e-4
-1.043, -1.404e-4
-1.042, -1.416e-4
-1.041, -1.428e-4
-1.040, -1.424e-4
-1.039, -1.430e-4
-1.038, -1.448e-4
-1.037, -1.461e-4
-1.036, -1.471e-4
-1.035, -1.480e-4
-1.034, -1.486e-4
-1.033, -1.503e-4
-1.032, -1.514e-4
-1.031, -1.527e-4
-1.030, -1.538e-4
-1.029, -1.544e-4
-1.028, -1.560e-4
-1.027, -1.581e-4
-1.026, -1.596e-4
-1.025, -1.605e-4
-1.024, -1.619e-4
-1.023, -1.634e-4
-1.022, -1.657e-4
-1.021, -1.674e-4
-1.020, -1.684e-4
-1.019, -1.707e-4
-1.018, -1.714e-4
-1.017, -1.749e-4
-1.016, -1.760e-4
-1.015, -1.777e-4
-1.014, -1.798e-4
-1.013, -1.817e-4
-1.012, -1.850e-4
-1.011, -1.870e-4
-1.010, -1.885e-4
-1.009, -1.913e-4
-1.008, -1.936e-4
-1.007, -1.969e-4
-1.006, -2.001e-4
-1.005, -2.008e-4
-1.004, -2.039e-4
-1.003, -2.073e-4
-1.002, -2.101e-4
-1.001, -2.142e-4
