Potential V vs RHE, Current mA cm-2
0.013299999999999867,-0.4384190318281749
0.012299999999999978,-2.4446211261667834
0.011299999999999866,-4.23281620919619
0.010299999999999976,-5.759289701750564
0.009299999999999864,-6.850032113946507
0.008299999999999974,-7.679052935667419
0.007299999999999862,-8.55051509638428
0.006299999999999972,-9.423391968401008
0.00529999999999986,-10.164700689530287
0.0042999999999999705,-10.644287820184536
0.0032999999999998586,-10.949865460955383
0.0022999999999999687,-11.343155202317865
0.0012999999999998568,-11.86659838326793
0.00029999999999996696,-12.258473413330542
-0.000700000000000145,-12.476338953509758
-0.0017000000000000348,-12.56405105410139
-0.0027000000000001467,-12.73806054398479
-0.0037000000000000366,-13.087494235051453
-0.0047000000000001485,-13.349215825526485
-0.005700000000000038,-13.436927926118118
-0.00670000000000015,-13.3930718758223
-0.00770000000000004,-13.436927926118118
-0.008700000000000152,-13.698649516593148
-0.009700000000000042,-13.960371107068182
-0.010700000000000154,-13.960371107068182
-0.011700000000000044,-13.916515056772363
-0.012700000000000156,-13.916515056772363
-0.013700000000000045,-14.090524546655764
-0.014700000000000157,-14.26028990263957
-0.015700000000000047,-14.217848563643619
-0.01670000000000016,-14.090524546655764
-0.01770000000000005,-14.090524546655764
-0.01870000000000016,-14.26028990263957
-0.01970000000000005,-14.401761032626075
-0.020700000000000163,-14.345172580631472
-0.021700000000000053,-14.175407224647667
-0.022700000000000164,-14.175407224647667
-0.023700000000000054,-14.30273124163552
-0.024700000000000166,-14.444202371622024
-0.025700000000000056,-14.345172580631472
-0.026700000000000168,-14.175407224647667
-0.027700000000000058,-14.175407224647667
-0.02870000000000017,-14.30273124163552
-0.02970000000000006,-14.444202371622024
-0.03070000000000017,-14.401761032626075
-0.03170000000000006,-14.175407224647667
-0.03270000000000017,-14.175407224647667
-0.03370000000000006,-14.26028990263957
-0.034700000000000175,-14.401761032626075
-0.035700000000000065,-14.345172580631472
-0.03670000000000018,-14.175407224647667
-0.03770000000000007,-14.13438059695158
-0.03870000000000018,-14.26028990263957
-0.03970000000000007,-14.401761032626075
-0.04070000000000018,-14.30273124163552
-0.04170000000000007,-14.13438059695158
-0.04270000000000018,-14.090524546655764
-0.04370000000000007,-14.217848563643619
-0.044700000000000184,-14.345172580631472
-0.045700000000000074,-14.30273124163552
-0.046700000000000186,-14.13438059695158
-0.047700000000000076,-14.090524546655764
-0.04870000000000019,-14.217848563643619
-0.04970000000000008,-14.345172580631472
-0.05070000000000019,-14.30273124163552
-0.05170000000000008,-14.13438059695158
-0.05270000000000019,-14.090524546655764
-0.05370000000000008,-14.217848563643619
-0.05470000000000019,-14.345172580631472
-0.05570000000000008,-14.26028990263957
-0.056700000000000195,-14.090524546655764
-0.057700000000000085,-14.046668496359947
-0.058700000000000196,-14.175407224647667
-0.059700000000000086,-14.30273124163552
-0.0607000000000002,-14.217848563643619
-0.06170000000000009,-14.090524546655764
-0.0627000000000002,-14.090524546655764
-0.06370000000000009,-14.175407224647667
-0.0647000000000002,-14.30273124163552
-0.06570000000000009,-14.217848563643619
-0.0667000000000002,-14.046668496359947
-0.0677000000000001,-14.046668496359947
-0.0687000000000002,-14.13438059695158
-0.0697000000000001,-14.26028990263957
-0.07070000000000021,-14.217848563643619
-0.0717000000000001,-14.046668496359947
-0.07270000000000021,-14.002812446064135
-0.0737000000000001,-14.13438059695158
-0.07470000000000021,-14.26028990263957
-0.0757000000000001,-14.175407224647667
-0.07670000000000021,-14.002812446064135
-0.0777000000000001,-13.960371107068182
-0.07870000000000021,-14.090524546655764
-0.0797000000000001,-14.217848563643619
-0.08070000000000022,-14.13438059695158
-0.0817000000000001,-14.002812446064135
-0.08270000000000022,-13.960371107068182
-0.08370000000000011,-14.090524546655764
-0.08470000000000022,-14.217848563643619
-0.08570000000000011,-14.13438059695158
-0.08670000000000022,-14.002812446064135
-0.08770000000000011,-13.960371107068182
-0.08870000000000022,-14.090524546655764
-0.08970000000000011,-14.217848563643619
-0.09070000000000022,-14.175407224647667
-0.09170000000000011,-14.002812446064135
-0.09270000000000023,-13.960371107068182
-0.09370000000000012,-14.090524546655764
-0.09470000000000023,-14.217848563643619
-0.09570000000000012,-14.13438059695158
-0.09670000000000023,-14.002812446064135
-0.09770000000000012,-13.960371107068182
-0.09870000000000023,-14.090524546655764
-0.09970000000000012,-14.217848563643619
-0.10070000000000023,-14.175407224647667
-0.10170000000000012,-14.002812446064135
-0.10270000000000024,-13.960371107068182
-0.10370000000000013,-14.090524546655764
-0.10470000000000024,-14.217848563643619
-0.10570000000000013,-14.13438059695158
-0.10670000000000024,-14.002812446064135
-0.10770000000000013,-13.960371107068182
-0.10870000000000024,-14.090524546655764
-0.10970000000000013,-14.217848563643619
-0.11070000000000024,-14.175407224647667
-0.11170000000000013,-14.046668496359947
-0.11270000000000002,-13.960371107068182
-0.11370000000000013,-14.13438059695158
-0.11470000000000002,-14.26028990263957
-0.11570000000000014,-14.217848563643619
-0.11670000000000003,-14.046668496359947
-0.11770000000000014,-14.046668496359947
-0.11870000000000003,-14.175407224647667
-0.11970000000000014,-14.30273124163552
-0.12070000000000003,-14.26028990263957
-0.12170000000000014,-14.090524546655764
-0.12270000000000003,-14.046668496359947
-0.12370000000000014,-14.217848563643619
-0.12470000000000003,-14.345172580631472
-0.12570000000000014,-14.30273124163552
-0.12670000000000003,-14.13438059695158
-0.12770000000000015,-14.090524546655764
-0.12870000000000004,-14.217848563643619
-0.12970000000000015,-14.345172580631472
-0.13070000000000004,-14.30273124163552
-0.13170000000000015,-14.13438059695158
-0.13270000000000004,-14.090524546655764
-0.13370000000000015,-14.26028990263957
-0.13470000000000004,-14.401761032626075
-0.13570000000000015,-14.345172580631472
-0.13670000000000004,-14.175407224647667
-0.13770000000000016,-14.13438059695158
-0.13870000000000005,-14.26028990263957
-0.13970000000000016,-14.401761032626075
-0.14070000000000005,-14.345172580631472
-0.14170000000000016,-14.175407224647667
-0.14270000000000005,-14.175407224647667
-0.14370000000000016,-14.30273124163552
-0.14470000000000005,-14.444202371622024
-0.14570000000000016,-14.444202371622024
-0.14670000000000005,-14.26028990263957
-0.14770000000000016,-14.26028990263957
-0.14870000000000005,-14.401761032626075
-0.14970000000000017,-14.529085049613924
-0.15070000000000006,-14.486643710617974
-0.15170000000000017,-14.345172580631472
-0.15270000000000006,-14.30273124163552
-0.15370000000000017,-14.486643710617974
-0.15470000000000006,-14.61396772760583
-0.15570000000000017,-14.57152638860988
-0.15670000000000006,-14.401761032626075
-0.15770000000000017,-14.401761032626075
-0.15870000000000006,-14.529085049613924
-0.15970000000000018,-14.65640906660178
-0.16070000000000007,-14.61396772760583
-0.16170000000000018,-14.486643710617974
-0.16270000000000007,-14.486643710617974
-0.16370000000000018,-14.61396772760583
-0.16470000000000007,-14.783733083589633
-0.16570000000000018,-14.741291744593681
-0.16670000000000007,-14.61396772760583
-0.16770000000000018,-14.57152638860988
-0.16870000000000007,-14.741291744593681
-0.16970000000000018,-14.868615761581536
-0.17070000000000007,-14.826174422585586
-0.17170000000000019,-14.69885040559773
-0.17270000000000008,-14.65640906660178
-0.1737000000000002,-14.826174422585586
-0.17470000000000008,-15.01008689156804
-0.1757000000000002,-14.967645552572087
-0.17670000000000008,-14.826174422585586
-0.1777000000000002,-14.783733083589633
-0.17870000000000008,-14.967645552572087
-0.1797000000000002,-15.137410908555893
-0.18070000000000008,-15.094969569559943
-0.1817000000000002,-14.967645552572087
-0.18270000000000008,-14.967645552572087
-0.1837000000000002,-15.137410908555893
-0.1847000000000001,-15.307176264539699
-0.1857000000000002,-15.264734925543747
-0.1867000000000001,-15.137410908555893
-0.1877000000000002,-15.179852247551842
-0.1887000000000001,-15.349617603535648
-0.1897000000000002,-15.491088733522153
-0.1907000000000001,-15.491088733522153
-0.1917000000000001,-15.349617603535648
-0.19269999999999998,-15.349617603535648
-0.1937000000000001,-15.533530072518102
-0.19469999999999998,-15.660854089505953
-0.1957000000000001,-15.660854089505953
-0.19669999999999999,-15.533530072518102
-0.1977000000000001,-15.533530072518102
-0.1987,-15.70329542850191
-0.1997000000000001,-15.87306078448571
-0.2007,-15.87306078448571
-0.2017000000000001,-15.74573676749786
-0.2027,-15.74573676749786
-0.2037000000000001,-15.972090575476265
-0.2047,-16.099414592464115
-0.2057000000000001,-16.099414592464115
-0.2067,-15.972090575476265
-0.2077000000000001,-16.014531914472215
-0.2087,-16.184297270456018
-0.2097000000000001,-16.354062626439823
-0.2107,-16.396503965435777
-0.2117000000000001,-16.311621287443874
-0.2127,-16.311621287443874
-0.2137000000000001,-16.53797509542228
-0.2147,-16.70774045140608
-0.2157000000000001,-16.792623129397985
-0.2167,-16.70774045140608
-0.21770000000000012,-16.70774045140608
-0.2187,-16.877505807389888
-0.21970000000000012,-17.103859615368293
-0.2207,-17.103859615368293
-0.22170000000000012,-17.061418276372343
-0.2227,-17.103859615368293
-0.22370000000000012,-17.2736249713521
-0.2247,-17.48583166633185
-0.22570000000000012,-17.542420118326454
-0.2267,-17.4433903273359
-0.22770000000000012,-17.542420118326454
-0.22870000000000001,-17.797068152302163
-0.22970000000000013,-18.009274847281915
-0.23070000000000002,-18.10830463827247
-0.23170000000000013,-18.009274847281915
-0.23270000000000002,-18.10830463827247
-0.23370000000000013,-18.362952672248177
-0.23470000000000002,-18.589306480226583
-0.23570000000000013,-18.674189158218486
-0.23670000000000002,-18.631747819222536
-0.2376999999999999,-18.674189158218486
-0.23870000000000002,-18.97127853119014
-0.2396999999999999,-19.2400736781645
-0.24070000000000003,-19.3249563561564
-0.24169999999999991,-19.28251501716045
-0.24270000000000003,-19.409839034148305
-0.24369999999999992,-19.678634181122664
-0.24470000000000003,-19.93328221509837
-0.24569999999999992,-20.06060623208622
-0.24670000000000003,-20.06060623208622
-0.24769999999999992,-20.159636023076775
-0.24870000000000003,-20.456725396048434
-0.24969999999999992,-20.76796188201874
-0.25070000000000003,-20.85284456001064
-0.2516999999999999,-20.89528589900659
-0.25270000000000004,-21.022609915994444
-0.2536999999999999,-21.333846401964752
-0.25470000000000004,-21.67337711393236
-0.2556999999999999,-21.772406904922917
-0.25670000000000004,-21.857289582914817
-0.25769999999999993,-22.027054938898623
-0.25870000000000004,-22.33829142486893
-0.25969999999999993,-22.67782213683654
-0.26070000000000004,-22.861734605818995
-0.26169999999999993,-22.904175944814945
-0.26270000000000004,-23.1163826397947
-0.26369999999999993,-23.47006046476096
-0.26470000000000005,-23.86617962872317
-0.26569999999999994,-24.035944984706973
-0.26670000000000005,-24.120827662698876
-0.26769999999999994,-24.34718147067728
-0.26870000000000005,-24.729153521640843
-0.26969999999999994,-25.12527268560305
-0.27070000000000005,-25.39406783257741
-0.27169999999999994,-25.478950510569312
-0.27270000000000005,-25.73359854454502
-0.27369999999999994,-26.17215904750318
-0.27470000000000006,-26.568278211465387
-0.27569999999999995,-26.86536758443705
-0.27670000000000006,-27.00683871442355
-0.27769999999999995,-27.303928087395207
-0.27870000000000006,-27.78492992934932
-0.27969999999999995,-28.22349043230748
-0.28070000000000006,-28.53472691827779
-0.28169999999999995,-28.704492274261593
-0.28270000000000006,-28.959140308237306
-0.28369999999999995,-29.440142150191413
-0.28470000000000006,-29.921143992145527
-0.28569999999999995,-30.232380478115836
-0.28670000000000007,-30.444587173095588
-0.28769999999999996,-30.7558236590659
-0.28870000000000007,-31.321708179011907
-0.28969999999999996,-31.84515135996197
-0.29070000000000007,-32.184682071929586
-0.29169999999999996,-32.45347721890394
-0.29270000000000007,-32.84959638286615
-0.29369999999999996,-33.41548090281216
-0.2947000000000001,-33.98136542275818
-0.29569999999999996,-34.33504324772444
-0.2967000000000001,-34.632132620696105
-0.29769999999999996,-35.02825178465831
-0.2987000000000001,-35.636577643600276
-0.29969999999999997,-36.244903502542236
-0.3007000000000001,-36.6834640055004
-0.30169999999999997,-36.99470049147071
-0.3027000000000001,-37.47570233342482
-0.30369999999999997,-38.08402819236679
-0.3047000000000001,-38.734795390304704
-0.30569999999999997,-39.173355893262865
-0.3067000000000001,-39.51288660523048
-0.3077,-40.03632978618054
-0.3087000000000001,-40.743685436113054
-0.3097,-41.43689397304693
-0.3107000000000001,-41.96033715399699
-0.3117,-42.31401497896325
-0.3127000000000001,-42.87989949890926
-0.3137,-43.61554937483908
-0.3147000000000001,-44.3229050247716
-0.3157,-44.88878954471762
-0.3167000000000001,-45.36979138667173
-0.3177,-45.93567590661774
-0.3187000000000001,-46.713767121543505
-0.3197,-47.506005449467935
-0.3207000000000001,-48.114331308409895
-0.3217,-48.63777448935996
-0.3227000000000001,-49.28854168729788
-0.3237,-50.12322135421825
-0.3247000000000001,-50.943753908139975
-0.3257,-51.594521106077885
-0.3267000000000001,-52.11796428702795
-0.3277,-52.74043725896857
-0.3287000000000001,-53.603411151886235
-0.3297,-54.43809081880661
-0.3307000000000001,-55.13129935574048
-0.3317,-55.6971838756865
-0.3327000000000001,-56.404539525619015
-0.3337,-57.30995475753264
-0.3347000000000001,-58.27195844144086
-0.3357,-59.02175543036933
-0.3367000000000001,-59.587639950315335
-0.3377,-60.32328982624517
-0.3387000000000001,-61.242852171157445
-0.3397,-62.16241451606972
-0.3407000000000001,-62.89806439199953
-0.3417,-63.54883158993744
-0.3427000000000001,-64.38351125685783
-0.3437,-65.43039761875795
-0.3447000000000001,-66.43484264166212
-0.3457,-67.2978165345798
-0.3467000000000001,-68.0051721845123
-0.3477,-68.91058741642594
-0.3487000000000001,-69.91503243933012
-0.3497,-71.06094859222078
-0.3507000000000001,-71.96636382413442
-0.3517,-72.75860215205884
-0.3527000000000001,-73.62157604497652
-0.3537,-74.72505085887124
-0.3547000000000001,-75.81437855976732
-0.3557,-76.67735245268499
-0.35670000000000013,-77.46959078060941
-0.3577,-78.38915312552167
-0.35870000000000013,-79.47848082641775
-0.3597,-80.56780852731384
-0.36070000000000013,-81.47322375922747
-0.3617,-82.30790342614785
-0.3626999999999999,-83.26990711005605
-0.3637,-84.44411748894404
-0.3646999999999999,-85.57588652883607
-0.3657,-86.5378902127443
-0.3666999999999999,-87.41501121866061
-0.3677,-88.37701490256885
-0.3686999999999999,-89.55122528145681
-0.36970000000000003,-90.76787699934074
-0.3706999999999999,-91.77232202224494
-0.37170000000000003,-92.6918843671572
-0.3726999999999999,-93.73877072905732
-0.37370000000000003,-94.95542244694126
-0.3746999999999999,-96.17207416482519
-0.37570000000000003,-97.21896052672531
-0.3766999999999999,-98.13852287163759
-0.37770000000000004,-99.22785057253368
-0.3786999999999999,-100.45864940341626
-0.37970000000000004,-101.71774246029614
-0.3806999999999999,-102.80707016119221
-0.38170000000000004,-103.76907384510045
-0.38269999999999993,-104.85840154599651
-0.38370000000000004,-106.11749460287639
-0.38469999999999993,-107.39073477275493
-0.38570000000000004,-108.48006247365102
-0.38669999999999993,-107.8292952757131
-0.38570000000000004,-104.77351886800463
-0.38469999999999993,-102.45339233622596
-0.38370000000000004,-100.45864940341626
-0.38269999999999993,-98.49220069660386
-0.38170000000000004,-96.61063466778336
-0.3806999999999999,-94.95542244694126
-0.37970000000000004,-93.55485826007487
-0.3786999999999999,-92.25332386419905
-0.37770000000000004,-90.76787699934074
-0.3766999999999999,-89.19754745649055
-0.37570000000000003,-87.75454193062824
-0.3746999999999999,-86.5378902127443
-0.37370000000000003,-85.36367983385631
-0.3726999999999999,-84.00555698598588
-0.37170000000000003,-82.52011012112759
-0.3706999999999999,-81.1761343862558
-0.36970000000000003,-80.04436534636378
-0.3686999999999999,-78.85600785447714
-0.3677,-77.55447345860131
-0.3666999999999999,-76.11146793273898
-0.3657,-74.80993353686314
-0.3646999999999999,-73.72060583596706
-0.3637,-72.63127813507097
-0.3626999999999999,-71.35803796519245
-0.3617,-69.95747377832606
-0.36070000000000013,-68.74082206044213
-0.3597,-67.693935698542
-0.35870000000000013,-66.60460799764593
-0.3577,-65.38795627976201
-0.35670000000000013,-64.0722747708875
-0.3557,-62.89806439199953
-0.3547000000000001,-61.89361936909536
-0.3537,-60.93161568518713
-0.3527000000000001,-59.7998466452951
-0.3517,-58.583194927411164
-0.3507000000000001,-57.408984548523186
-0.3497,-56.44698086461496
-0.3487000000000001,-55.527418519702685
-0.3477,-54.43809081880661
-0.3467000000000001,-53.22143910092268
-0.3457,-52.075522948032
-0.3447000000000001,-51.17010771611838
-0.3437,-50.29298671020206
-0.3427000000000001,-49.20365900930597
-0.3417,-48.071889969413945
-0.3407000000000001,-47.02500360751382
-0.3397,-46.19032394059345
-0.3387000000000001,-45.36979138667173
-0.3377,-44.3229050247716
-0.3367000000000001,-43.23357732387552
-0.3357,-42.229132300971344
-0.3347000000000001,-41.43689397304693
-0.3337,-40.701244097117105
-0.3327000000000001,-39.739240413208876
-0.3317,-38.607471373316855
-0.3307000000000001,-37.60302635041268
-0.3297,-36.8532293614842
-0.3287000000000001,-36.16002082455034
-0.3277,-35.240458479638065
-0.3267000000000001,-34.193572117737936
-0.3257,-33.288156885824314
-0.3247000000000001,-32.53835989689585
-0.3237,-31.802710020966025
-0.3227000000000001,-30.925589015049702
-0.3217,-29.921143992145527
-0.3207000000000001,-29.058170099227848
-0.3197,-28.350814449295335
-0.3187000000000001,-27.700047251357418
-0.3177,-26.86536758443705
-0.3167000000000001,-25.91751101352747
-0.3157,-25.0828313466071
-0.3147000000000001,-24.432064148669184
-0.3137,-23.823738289727217
-0.3127000000000001,-22.989058622806844
-0.3117,-22.069496277894572
-0.3107000000000001,-21.291405062968803
-0.3097,-20.72552054302279
-0.3087000000000001,-20.159636023076775
-0.3077,-19.409839034148305
-0.3067000000000001,-18.53271802823198
-0.30569999999999997,-17.797068152302163
-0.3047000000000001,-17.2736249713521
-0.30369999999999997,-16.750181790402035
-0.3027000000000001,-16.056973253468165
-0.30169999999999997,-15.222293586547794
-0.3007000000000001,-14.529085049613924
-0.29969999999999997,-14.046668496359947
-0.2987000000000001,-13.567081365705702
-0.29769999999999996,-12.869628694872238
-0.2967000000000001,-12.084463923447142
-0.29569999999999996,-11.42945259160963
-0.2947000000000001,-10.949865460955383
-0.29369999999999996,-10.514134380596953
-0.29270000000000007,-9.902979099055257
-0.29169999999999996,-9.161670377925978
-0.29070000000000007,-8.594371146680096
-0.28969999999999996,-8.11478401602585
-0.28870000000000007,-7.722908985963235
-0.28769999999999996,-7.199465805013171
-0.28670000000000007,-6.500598422879844
-0.28569999999999995,-5.9347139029338285
-0.28470000000000006,-5.5414241615713475
-0.28369999999999995,-5.191990470504685
-0.28270000000000006,-4.626105950558669
-0.28169999999999995,-3.971094618721158
-0.28070000000000006,-3.447651437771094
-0.27969999999999995,-3.0996324580042955
-0.27870000000000006,-2.794054817233447
-0.27769999999999995,-2.3144676865791998
-0.27670000000000006,-1.7033124050375041
-0.27569999999999995,-1.1798692240874404
-0.27470000000000006,-0.8745745255765657
-0.27369999999999994,-0.5692798270656908
-0.27270000000000005,-0.1330535977523067
-0.27169999999999994,0.43403342679859325
-0.27070000000000005,0.9137620285828272
-0.26969999999999994,1.175483619057859
-0.26870000000000005,1.4373466806628774
-0.26769999999999994,1.8730777610213083
