Potential V vs RHE, Current mA cm-2
0.013299999999999867,-0.48199213986401795
0.012299999999999978,-2.706342716641815
0.011299999999999866,-4.800115440442069
0.010299999999999976,-6.6760226240631075
0.009299999999999864,-8.464217707092514
0.008299999999999974,-10.120844639234473
0.007299999999999862,-11.604876792792895
0.006299999999999972,-12.955926084164007
0.00529999999999986,-14.13438059695158
0.0042999999999999705,-15.264734925543747
0.0032999999999998586,-16.311621287443874
0.0022999999999999687,-17.231183632356142
0.0012999999999998568,-18.15074597726842
0.00029999999999996696,-19.056161209182044
-0.000700000000000145,-19.93328221509837
-0.0017000000000000348,-20.76796188201874
-0.0027000000000001467,-21.54605309694451
-0.0037000000000000366,-22.33829142486893
-0.0047000000000001485,-22.989058622806844
-0.005700000000000038,-23.597384481748815
-0.00670000000000015,-24.120827662698876
-0.00770000000000004,-24.559388165657033
-0.008700000000000152,-24.95550732961925
-0.009700000000000042,-25.39406783257741
-0.010700000000000154,-25.77603988354097
-0.011700000000000044,-26.21460038649913
-0.012700000000000156,-26.65316088945729
-0.013700000000000045,-27.091721392415455
-0.014700000000000157,-27.530281895373616
-0.015700000000000047,-27.78492992934932
-0.01670000000000016,-28.13860775431558
-0.01770000000000005,-28.393255788291288
-0.01870000000000016,-28.577168257273744
-0.01970000000000005,-28.789374952253496
-0.020700000000000163,-28.8742576302454
-0.021700000000000053,-29.100611438223805
-0.022700000000000164,-29.27037679420761
-0.023700000000000054,-29.482583489187363
-0.024700000000000166,-29.708937297165768
-0.025700000000000056,-29.921143992145527
-0.026700000000000168,-30.147497800123933
-0.027700000000000058,-30.317263156107735
-0.02870000000000017,-30.444587173095588
-0.02970000000000006,-30.529469851087494
-0.03070000000000017,-30.614352529079397
-0.03170000000000006,-30.614352529079397
-0.03270000000000017,-30.670940981073993
-0.03370000000000006,-30.71338232006995
-0.034700000000000175,-30.79826499806185
-0.035700000000000065,-30.925589015049702
-0.03670000000000018,-31.052913032037555
-0.03770000000000007,-31.23682550102001
-0.03870000000000018,-31.36414951800786
-0.03970000000000007,-31.449032195999767
-0.04070000000000018,-31.49147353499572
-0.04170000000000007,-31.449032195999767
-0.04270000000000018,-31.449032195999767
-0.04370000000000007,-31.449032195999767
-0.044700000000000184,-31.449032195999767
-0.045700000000000074,-31.449032195999767
-0.046700000000000186,-31.533914873991666
-0.047700000000000076,-31.57635621298762
-0.04870000000000019,-31.717827342974125
-0.04970000000000008,-31.802710020966025
-0.05070000000000019,-31.887592698957924
-0.05170000000000008,-31.930034037953877
-0.05270000000000019,-31.930034037953877
-0.05370000000000008,-31.887592698957924
-0.05470000000000019,-31.84515135996197
-0.05570000000000008,-31.802710020966025
-0.056700000000000195,-31.802710020966025
-0.057700000000000085,-31.802710020966025
-0.058700000000000196,-31.84515135996197
-0.059700000000000086,-31.930034037953877
-0.0607000000000002,-31.972475376949827
-0.06170000000000009,-32.09979939393769
-0.0627000000000002,-32.14224073293363
-0.06370000000000009,-32.14224073293363
-0.0647000000000002,-32.09979939393769
-0.06570000000000009,-32.01491671594578
-0.0667000000000002,-31.930034037953877
-0.0677000000000001,-31.887592698957924
-0.0687000000000002,-31.84515135996197
-0.0697000000000001,-31.84515135996197
-0.07070000000000021,-31.887592698957924
-0.0717000000000001,-31.930034037953877
-0.07270000000000021,-32.01491671594578
-0.0737000000000001,-32.05735805494172
-0.07470000000000021,-32.09979939393769
-0.0757000000000001,-32.09979939393769
-0.07670000000000021,-32.05735805494172
-0.0777000000000001,-31.972475376949827
-0.07870000000000021,-31.887592698957924
-0.0797000000000001,-31.84515135996197
-0.08070000000000022,-31.84515135996197
-0.0817000000000001,-31.84515135996197
-0.08270000000000022,-31.887592698957924
-0.08370000000000011,-31.972475376949827
-0.08470000000000022,-32.05735805494172
-0.08570000000000011,-32.09979939393769
-0.08670000000000022,-32.09979939393769
-0.08770000000000011,-32.05735805494172
-0.08870000000000022,-31.972475376949827
-0.08970000000000011,-31.887592698957924
-0.09070000000000022,-31.802710020966025
-0.09170000000000011,-31.76026868197007
-0.09270000000000023,-31.76026868197007
-0.09370000000000012,-31.802710020966025
-0.09470000000000023,-31.84515135996197
-0.09570000000000012,-31.887592698957924
-0.09670000000000023,-31.972475376949827
-0.09770000000000012,-32.01491671594578
-0.09870000000000023,-32.01491671594578
-0.09970000000000012,-31.972475376949827
-0.10070000000000023,-31.930034037953877
-0.10170000000000012,-31.84515135996197
-0.10270000000000024,-31.76026868197007
-0.10370000000000013,-31.76026868197007
-0.10470000000000024,-31.76026868197007
-0.10570000000000013,-31.84515135996197
-0.10670000000000024,-31.887592698957924
-0.10770000000000013,-31.972475376949827
-0.10870000000000024,-32.05735805494172
-0.10970000000000013,-32.05735805494172
-0.11070000000000024,-32.05735805494172
-0.11170000000000013,-31.972475376949827
-0.11270000000000002,-31.930034037953877
-0.11370000000000013,-31.84515135996197
-0.11470000000000002,-31.84515135996197
-0.11570000000000014,-31.802710020966025
-0.11670000000000003,-31.802710020966025
-0.11770000000000014,-31.887592698957924
-0.11870000000000003,-31.972475376949827
-0.11970000000000014,-32.05735805494172
-0.12070000000000003,-32.09979939393769
-0.12170000000000014,-32.14224073293363
-0.12270000000000003,-32.05735805494172
-0.12370000000000014,-32.05735805494172
-0.12470000000000003,-31.972475376949827
-0.12570000000000014,-31.887592698957924
-0.12670000000000003,-31.930034037953877
-0.12770000000000015,-31.887592698957924
-0.12870000000000004,-31.930034037953877
-0.12970000000000015,-31.972475376949827
-0.13070000000000004,-32.05735805494172
-0.13170000000000015,-32.184682071929586
-0.13270000000000004,-32.24127052392419
-0.13370000000000015,-32.24127052392419
-0.13470000000000004,-32.184682071929586
-0.13570000000000015,-32.14224073293363
-0.13670000000000004,-32.09979939393769
-0.13770000000000016,-32.05735805494172
-0.13870000000000005,-32.05735805494172
-0.13970000000000016,-32.05735805494172
-0.14070000000000005,-32.14224073293363
-0.14170000000000016,-32.24127052392419
-0.14270000000000005,-32.32615320191609
-0.14370000000000016,-32.368594540912035
-0.14470000000000005,-32.45347721890394
-0.14570000000000016,-32.45347721890394
-0.14670000000000005,-32.41103587990799
-0.14770000000000016,-32.368594540912035
-0.14870000000000005,-32.283711862920136
-0.14970000000000017,-32.283711862920136
-0.15070000000000006,-32.283711862920136
-0.15170000000000017,-32.32615320191609
-0.15270000000000006,-32.368594540912035
-0.15370000000000017,-32.49591855789989
-0.15470000000000006,-32.58080123589179
-0.15570000000000017,-32.66568391388369
-0.15670000000000006,-32.70812525287965
-0.15770000000000017,-32.70812525287965
-0.15870000000000006,-32.66568391388369
-0.15970000000000018,-32.62324257488775
-0.16070000000000007,-32.58080123589179
-0.16170000000000018,-32.58080123589179
-0.16270000000000007,-32.58080123589179
-0.16370000000000018,-32.66568391388369
-0.16470000000000007,-32.764713704874254
-0.16570000000000018,-32.84959638286615
-0.16670000000000007,-32.97692039985401
-0.16770000000000018,-33.01936173884996
-0.16870000000000007,-33.06180307784591
-0.16970000000000018,-33.06180307784591
-0.17070000000000007,-33.06180307784591
-0.17170000000000019,-32.97692039985401
-0.17270000000000008,-32.97692039985401
-0.1737000000000002,-32.97692039985401
-0.17470000000000008,-33.01936173884996
-0.1757000000000002,-33.10424441684186
-0.17670000000000008,-33.18912709483376
-0.1777000000000002,-33.330598224820264
-0.17870000000000008,-33.373039563816214
-0.1797000000000002,-33.45792224180811
-0.18070000000000008,-33.45792224180811
-0.1817000000000002,-33.45792224180811
-0.18270000000000008,-33.41548090281216
-0.1837000000000002,-33.330598224820264
-0.1847000000000001,-33.330598224820264
-0.1857000000000002,-33.330598224820264
-0.1867000000000001,-33.41548090281216
-0.1877000000000002,-33.54280491980002
-0.1887000000000001,-33.58524625879597
-0.1897000000000002,-33.755011614779775
-0.1907000000000001,-33.85404140577033
-0.1917000000000001,-33.93892408376223
-0.19269999999999998,-33.93892408376223
-0.1937000000000001,-33.89648274476628
-0.19469999999999998,-33.89648274476628
-0.1957000000000001,-33.85404140577033
-0.19669999999999999,-33.85404140577033
-0.1977000000000001,-33.89648274476628
-0.1987,-33.98136542275818
-0.1997000000000001,-34.06624810075008
-0.2007,-34.193572117737936
-0.2017000000000001,-34.33504324772444
-0.2027,-34.41992592571634
-0.2037000000000001,-34.462367264712285
-0.2047,-34.462367264712285
-0.2057000000000001,-34.462367264712285
-0.2067,-34.462367264712285
-0.2077000000000001,-34.41992592571634
-0.2087,-34.462367264712285
-0.2097000000000001,-34.50480860370825
-0.2107,-34.632132620696105
-0.2117000000000001,-34.75945663768395
-0.2127,-34.90092776767045
-0.2137000000000001,-35.02825178465831
-0.2147,-35.11313446265021
-0.2157000000000001,-35.240458479638065
-0.2167,-35.282899818634014
-0.21770000000000012,-35.282899818634014
-0.2187,-35.282899818634014
-0.21970000000000012,-35.32534115762997
-0.2207,-35.38192960962457
-0.22170000000000012,-35.46681228761647
-0.2227,-35.594136304604326
-0.22370000000000012,-35.763901660588125
-0.2247,-35.94781412957058
-0.22570000000000012,-36.07513814655844
-0.2267,-36.20246216354629
-0.22770000000000012,-36.244903502542236
-0.22870000000000001,-36.28734484153819
-0.22970000000000013,-36.329786180534136
-0.23070000000000002,-36.329786180534136
-0.23170000000000013,-36.37222751953009
-0.23270000000000002,-36.47125731052064
-0.23370000000000013,-36.64102266650445
-0.23470000000000002,-36.768346683492304
-0.23570000000000013,-36.99470049147071
-0.23670000000000002,-37.164465847454515
-0.2376999999999999,-37.291789864442364
-0.23870000000000002,-37.41911388143023
-0.2396999999999999,-37.51814367242077
-0.24070000000000003,-37.56058501141672
-0.24169999999999991,-37.60302635041268
-0.24270000000000003,-37.73035036740053
-0.24369999999999992,-37.81523304539243
-0.24470000000000003,-37.90011572338433
-0.24569999999999992,-38.12646953136274
-0.24670000000000003,-38.29623488734655
-0.24769999999999992,-38.522588695324956
-0.24870000000000003,-38.692354051308754
-0.24969999999999992,-38.86211940729255
-0.25070000000000003,-38.98944342428042
-0.2516999999999999,-39.08847321527096
-0.25270000000000004,-39.173355893262865
-0.2536999999999999,-39.258238571254765
-0.25470000000000004,-39.38556258824262
-0.2556999999999999,-39.47044526623452
-0.25670000000000004,-39.654357735216976
-0.25769999999999993,-39.86656443019674
-0.25870000000000004,-40.135359577171094
-0.25969999999999993,-40.43244895014274
-0.26070000000000004,-40.616361419125205
-0.26169999999999993,-40.87100945310091
-0.26270000000000004,-41.04077480908471
-0.26369999999999993,-41.182245939071215
-0.26470000000000005,-41.30956995605907
-0.26569999999999994,-41.43689397304693
-0.26670000000000005,-41.66324778102533
-0.26769999999999994,-41.83301313700913
-0.26870000000000005,-42.087661170984845
-0.26969999999999994,-42.39889765695515
-0.27070000000000005,-42.653545690930855
-0.27169999999999994,-42.96478217690117
-0.27270000000000005,-43.23357732387552
-0.27369999999999994,-43.48822535785123
-0.27470000000000006,-43.657990713835034
-0.27569999999999995,-43.92678586080939
-0.27670000000000006,-44.096551216793195
-0.27769999999999995,-44.28046368577565
-0.27870000000000006,-44.535111719751356
-0.27969999999999995,-44.80390686672572
-0.28070000000000006,-45.143437578693316
-0.28169999999999995,-45.497115403659585
-0.28270000000000006,-45.89323456762179
-0.28369999999999995,-46.2327652795894
-0.28470000000000006,-46.586443104555656
-0.28569999999999995,-46.84109113853137
-0.28670000000000007,-47.15232762450167
-0.28769999999999996,-47.36453431948143
-0.28870000000000007,-47.633329466455784
-0.28969999999999996,-47.8879775004315
-0.29070000000000007,-48.1992139864018
-0.29169999999999996,-48.55289181136806
-0.29270000000000007,-48.93486386233162
-0.29369999999999996,-49.373424365289786
-0.2947000000000001,-49.85442620724389
-0.29569999999999996,-50.2505453712061
-0.2967000000000001,-50.64666453516831
-0.29769999999999996,-50.98619524713592
-0.2987000000000001,-51.33987307210218
-0.29969999999999997,-51.65110955807249
-0.3007000000000001,-51.948198931044146
-0.30169999999999997,-52.34431809500636
-0.3027000000000001,-52.74043725896857
-0.30369999999999997,-53.16485064892808
-0.3047000000000001,-53.68829382987814
-0.30569999999999997,-54.2117370108282
-0.3067000000000001,-54.69273885278232
-0.3077,-55.21618203373238
-0.3087000000000001,-55.65474253669055
-0.3097,-56.093303039648696
-0.3107000000000001,-56.53186354260687
-0.3117,-56.927982706569075
-0.3127000000000001,-57.352396096528594
-0.3137,-57.8333979384827
-0.3147000000000001,-58.31439978043681
-0.3157,-58.83784296138688
-0.3167000000000001,-59.403727481332886
-0.3177,-60.02620045327351
-0.3187000000000001,-60.63452631221547
-0.3197,-61.20041083216149
-0.3207000000000001,-61.72385401311155
-0.3217,-62.24729719406162
-0.3227000000000001,-62.72829903601572
-0.3237,-63.20930087796983
-0.3247000000000001,-63.77518539791585
-0.3257,-64.34106991786187
-0.3267000000000001,-64.99183711579978
-0.3277,-65.60016297474175
-0.3287000000000001,-66.29337151167562
-0.3297,-67.04316850060408
-0.3307000000000001,-67.693935698542
-0.3317,-68.38714423547587
-0.3327000000000001,-69.0096172074165
-0.3337,-69.6603844053544
-0.3347000000000001,-70.22626892530042
-0.3357,-70.79215344524643
-0.3367000000000001,-71.44292064318435
-0.3377,-72.10783495412092
-0.3387000000000001,-72.84348483005074
-0.3397,-73.62157604497652
-0.3407000000000001,-74.37137303390499
-0.3417,-75.19190558782671
-0.3427000000000001,-75.94170257675518
-0.3437,-76.67735245268499
-0.3447000000000001,-77.42714944161345
-0.3457,-78.12035797854733
-0.3467000000000001,-78.8135665154812
-0.3477,-79.56336350440966
-0.3487000000000001,-80.29901338033947
-0.3497,-81.09125170826391
-0.3507000000000001,-81.95422560118158
-0.3517,-82.8313466070979
-0.3527000000000001,-83.79335029100612
-0.3537,-84.6563241839238
-0.3547000000000001,-85.53344518984011
-0.3557,-86.41056619575643
-0.35670000000000013,-87.23109874967815
-0.3577,-88.02333707760259
-0.35870000000000013,-88.8438696315243
-0.3597,-89.67854929844468
-0.36070000000000013,-90.55567030436099
-0.3617,-91.46108553627462
-0.3626999999999999,-92.42308922018285
-0.3637,-93.42753424308701
-0.3646999999999999,-94.4319792659912
-0.3657,-95.39398294989942
-0.3666999999999999,-96.35598663380765
-0.3677,-97.31799031771587
-0.3686999999999999,-98.2234055496295
-0.36970000000000003,-99.14296789454177
-0.3706999999999999,-100.02008890045809
-0.37170000000000003,-101.02453392336226
-0.3726999999999999,-101.97239049427183
-0.37370000000000003,-103.01927685617197
-0.3746999999999999,-104.12275167006669
-0.37570000000000003,-105.16963803196683
-0.3766999999999999,-106.30140707185885
-0.37770000000000004,-107.34829343375898
-0.3786999999999999,-108.43762113465506
-0.37970000000000004,-109.44206615755924
-0.3806999999999999,-110.48895251945936
-0.38170000000000004,-111.49339754236355
-0.38269999999999993,-112.48369545226906
-0.38370000000000004,-113.53058181416918
-0.38469999999999993,-114.63405662806393
-0.38570000000000004,-115.76582566795594
-0.38669999999999993,-115.2423824870059
-0.38570000000000004,-111.83292825433115
-0.38469999999999993,-108.83374029861727
-0.38370000000000004,-106.0326119248845
-0.38269999999999993,-103.45783735913014
-0.38170000000000004,-101.02453392336226
-0.3806999999999999,-98.66196605258766
-0.37970000000000004,-96.44086931179956
-0.3786999999999999,-94.38953792699526
-0.37770000000000004,-92.3806478811869
-0.3766999999999999,-90.55567030436099
-0.37570000000000003,-88.80142829252836
-0.3746999999999999,-87.14621607168625
-0.37370000000000003,-85.57588652883607
-0.3726999999999999,-84.00555698598588
-0.37170000000000003,-82.52011012112759
-0.3706999999999999,-80.9497805782774
-0.36970000000000003,-79.37945103542721
-0.3686999999999999,-77.80912149257702
-0.3677,-76.29538040172143
-0.3666999999999999,-74.80993353686314
-0.3657,-73.3669280110008
-0.3646999999999999,-72.05124650212633
-0.3637,-70.70727076725453
-0.3626999999999999,-69.43403059737601
-0.3617,-68.21737887949207
-0.36070000000000013,-66.87340314462028
-0.3597,-65.60016297474175
-0.35870000000000013,-64.25618723986996
-0.3577,-62.94050573099548
-0.35670000000000013,-61.5965299961237
-0.3557,-60.23840714825326
-0.3547000000000001,-59.02175543036933
-0.3537,-57.7485152604908
-0.3527000000000001,-56.61674622059877
-0.3517,-55.442535841710786
-0.3507000000000001,-54.35320814081471
-0.3497,-53.22143910092268
-0.3487000000000001,-52.033081609036046
-0.3477,-50.90131256914402
-0.3467000000000001,-49.68466085126009
-0.3457,-48.51045047237211
-0.3447000000000001,-47.27965164148953
-0.3437,-46.147882601597495
-0.3427000000000001,-44.97367222270952
-0.3417,-43.88434452181344
-0.3407000000000001,-42.837458159913304
-0.3397,-41.79057179801318
-0.3387000000000001,-40.828568114104954
-0.3377,-39.739240413208876
-0.3367000000000001,-38.734795390304704
-0.3357,-37.645467689408626
-0.3347000000000001,-36.55613998851254
-0.3337,-35.46681228761647
-0.3327000000000001,-34.33504324772444
-0.3317,-33.330598224820264
-0.3307000000000001,-32.283711862920136
-0.3297,-31.36414951800786
-0.3287000000000001,-30.402145834099635
-0.3277,-29.525024828183312
-0.3267000000000001,-28.619609596269694
-0.3257,-27.700047251357418
-0.3247000000000001,-26.780484906445146
-0.3237,-25.77603988354097
-0.3227000000000001,-24.771594860636792
-0.3217,-23.823738289727217
-0.3207000000000001,-22.776851927827092
-0.3197,-21.857289582914817
-0.3187000000000001,-20.89528589900659
-0.3177,-20.06060623208622
-0.3167000000000001,-19.28251501716045
-0.3157,-18.44783535024008
-0.3147000000000001,-17.669744135314307
-0.3137,-16.835064468393938
-0.3127000000000001,-15.972090575476265
-0.3117,-15.094969569559943
-0.3107000000000001,-14.217848563643619
-0.3097,-13.30535977523067
-0.3087000000000001,-12.432482903213943
-0.3077,-11.56102074249708
-0.3067000000000001,-10.819712021367803
-0.30569999999999997,-10.034547249942705
-0.3047000000000001,-9.293238528813426
-0.30369999999999997,-8.638227196975913
-0.3027000000000001,-7.896918475846635
-0.30169999999999997,-7.199465805013171
-0.3007000000000001,-6.414301033588076
-0.29969999999999997,-5.629136262162981
-0.2987000000000001,-4.800115440442069
-0.29769999999999996,-3.971094618721158
-0.2967000000000001,-3.2297858975918787
-0.29569999999999996,-2.532333226758415
-0.2947000000000001,-1.8773218949209036
-0.29369999999999996,-1.1798692240874404
-0.29270000000000007,-0.5692798270656908
-0.29169999999999996,0.04140859974704963
-0.29070000000000007,0.6520404381077953
-0.28969999999999996,1.3063444142953748
-0.28870000000000007,2.004645911908757
-0.28769999999999996,2.70209858274222
-0.28670000000000007,3.4434073038714996
-0.28569999999999995,4.098418635709011
-0.28470000000000006,4.752015256246658
-0.28369999999999995,5.405611876784305
-0.28270000000000006,5.9729111080301855
-0.28169999999999995,6.496354288980249
-0.28070000000000006,7.019797469930312
-0.27969999999999995,7.543240650880375
-0.27870000000000006,8.066683831830439
-0.27769999999999995,8.677839113372134
-0.27670000000000006,9.287579683613965
-0.27569999999999995,9.898734965155663
-0.27470000000000006,10.509890246697358
-0.27369999999999994,11.119630816939189
-0.27270000000000005,11.686930048185067
-0.27169999999999994,12.166517178839316
-0.27070000000000005,12.68996035978938
-0.26969999999999994,13.127106151447675
-0.26870000000000005,13.518981181510291
-0.26769999999999994,13.998568312164537
-0.26670000000000005,14.430055258623375
-0.26569999999999994,14.953498439573437
