Apr. 30, 2025   23:20:33
Cyclic Voltammetry
File: c:/users/guazh/data/banditlqround7_x0exp1108_r5/2025-04-30-exp1201\exp1201-2025-04-30t23_15_39-arkoh\exp1201_cv_50mvs_efin_-1400mv.bin
Data Source:  Experiment
Instrument Model:  CHI760E
Header: CV ran at 50 mVs
Note: 

Init E (V) = -1
High E (V) = -1
Low E (V) = -1.4
Final E (V) = -1
Init P/N = N
Scan Rate (V/s) = 0.05
Segment = 7
Sample Interval (V) = 0.001
Quiet Time (sec) = 60
Sensitivity (A/V) = 0.001
Comp R (ohm) = 1.2

Results:

Channel 1:
Segment 1:

Segment 2:

Segment 3:

Segment 4:

Segment 5:

Segment 6:

Segment 7:

Potential/V, Current/A

-1.000, 5.185e-5
-1.001, 1.199e-4
-1.002, 1.437e-4
-1.003, 1.522e-4
-1.004, 1.577e-4
-1.005, 1.622e-4
-1.006, 1.657e-4
-1.007, 1.667e-4
-1.008, 1.653e-4
-1.009, 1.663e-4
-1.010, 1.688e-4
-1.011, 1.706e-4
-1.012, 1.705e-4
-1.013, 1.676e-4
-1.014, 1.678e-4
-1.015, 1.701e-4
-1.016, 1.717e-4
-1.017, 1.713e-4
-1.018, 1.700e-4
-1.019, 1.700e-4
-1.020, 1.718e-4
-1.021, 1.732e-4
-1.022, 1.717e-4
-1.023, 1.702e-4
-1.024, 1.704e-4
-1.025, 1.722e-4
-1.026, 1.738e-4
-1.027, 1.727e-4
-1.028, 1.712e-4
-1.029, 1.700e-4
-1.030, 1.723e-4
-1.031, 1.735e-4
-1.032, 1.721e-4
-1.033, 1.705e-4
-1.034, 1.702e-4
-1.035, 1.719e-4
-1.036, 1.740e-4
-1.037, 1.728e-4
-1.038, 1.707e-4
-1.039, 1.710e-4
-1.040, 1.720e-4
-1.041, 1.735e-4
-1.042, 1.726e-4
-1.043, 1.707e-4
-1.044, 1.708e-4
-1.045, 1.724e-4
-1.046, 1.742e-4
-1.047, 1.732e-4
-1.048, 1.708e-4
-1.049, 1.708e-4
-1.050, 1.728e-4
-1.051, 1.739e-4
-1.052, 1.735e-4
-1.053, 1.709e-4
-1.054, 1.711e-4
-1.055, 1.731e-4
-1.056, 1.745e-4
-1.057, 1.734e-4
-1.058, 1.722e-4
-1.059, 1.712e-4
-1.060, 1.738e-4
-1.061, 1.747e-4
-1.062, 1.737e-4
-1.063, 1.726e-4
-1.064, 1.718e-4
-1.065, 1.740e-4
-1.066, 1.754e-4
-1.067, 1.745e-4
-1.068, 1.733e-4
-1.069, 1.724e-4
-1.070, 1.747e-4
-1.071, 1.762e-4
-1.072, 1.748e-4
-1.073, 1.736e-4
-1.074, 1.732e-4
-1.075, 1.761e-4
-1.076, 1.777e-4
-1.077, 1.760e-4
-1.078, 1.741e-4
-1.079, 1.745e-4
-1.080, 1.760e-4
-1.081, 1.779e-4
-1.082, 1.772e-4
-1.083, 1.750e-4
-1.084, 1.753e-4
-1.085, 1.771e-4
-1.086, 1.787e-4
-1.087, 1.781e-4
-1.088, 1.761e-4
-1.089, 1.761e-4
-1.090, 1.783e-4
-1.091, 1.798e-4
-1.092, 1.795e-4
-1.093, 1.775e-4
-1.094, 1.775e-4
-1.095, 1.799e-4
-1.096, 1.813e-4
-1.097, 1.809e-4
-1.098, 1.791e-4
-1.099, 1.789e-4
-1.100, 1.814e-4
-1.101, 1.831e-4
-1.102, 1.821e-4
-1.103, 1.813e-4
-1.104, 1.805e-4
-1.105, 1.825e-4
-1.106, 1.845e-4
-1.107, 1.841e-4
-1.108, 1.829e-4
-1.109, 1.826e-4
-1.110, 1.849e-4
-1.111, 1.870e-4
-1.112, 1.859e-4
-1.113, 1.842e-4
-1.114, 1.843e-4
-1.115, 1.867e-4
-1.116, 1.892e-4
-1.117, 1.884e-4
-1.118, 1.874e-4
-1.119, 1.875e-4
-1.120, 1.894e-4
-1.121, 1.911e-4
-1.122, 1.905e-4
-1.123, 1.889e-4
-1.124, 1.896e-4
-1.125, 1.920e-4
-1.126, 1.940e-4
-1.127, 1.942e-4
-1.128, 1.920e-4
-1.129, 1.929e-4
-1.130, 1.953e-4
-1.131, 1.975e-4
-1.132, 1.972e-4
-1.133, 1.956e-4
-1.134, 1.965e-4
-1.135, 1.989e-4
-1.136, 1.996e-4
-1.137, 2.000e-4
-1.138, 1.996e-4
-1.139, 2.001e-4
-1.140, 2.030e-4
-1.141, 2.049e-4
-1.142, 2.045e-4
-1.143, 2.037e-4
-1.144, 2.037e-4
-1.145, 2.068e-4
-1.146, 2.094e-4
-1.147, 2.089e-4
-1.148, 2.086e-4
-1.149, 2.087e-4
-1.150, 2.118e-4
-1.151, 2.147e-4
-1.152, 2.144e-4
-1.153, 2.144e-4
-1.154, 2.147e-4
-1.155, 2.177e-4
-1.156, 2.207e-4
-1.157, 2.202e-4
-1.158, 2.195e-4
-1.159, 2.215e-4
-1.160, 2.236e-4
-1.161, 2.265e-4
-1.162, 2.267e-4
-1.163, 2.262e-4
-1.164, 2.283e-4
-1.165, 2.319e-4
-1.166, 2.344e-4
-1.167, 2.348e-4
-1.168, 2.341e-4
-1.169, 2.355e-4
-1.170, 2.393e-4
-1.171, 2.416e-4
-1.172, 2.433e-4
-1.173, 2.425e-4
-1.174, 2.445e-4
-1.175, 2.489e-4
-1.176, 2.517e-4
-1.177, 2.534e-4
-1.178, 2.538e-4
-1.179, 2.548e-4
-1.180, 2.593e-4
-1.181, 2.623e-4
-1.182, 2.645e-4
-1.183, 2.647e-4
-1.184, 2.662e-4
-1.185, 2.701e-4
-1.186, 2.744e-4
-1.187, 2.756e-4
-1.188, 2.767e-4
-1.189, 2.793e-4
-1.190, 2.835e-4
-1.191, 2.883e-4
-1.192, 2.898e-4
-1.193, 2.909e-4
-1.194, 2.936e-4
-1.195, 2.985e-4
-1.196, 3.035e-4
-1.197, 3.053e-4
-1.198, 3.073e-4
-1.199, 3.108e-4
-1.200, 3.155e-4
-1.201, 3.207e-4
-1.202, 3.238e-4
-1.203, 3.253e-4
-1.204, 3.290e-4
-1.205, 3.344e-4
-1.206, 3.406e-4
-1.207, 3.443e-4
-1.208, 3.459e-4
-1.209, 3.506e-4
-1.210, 3.566e-4
-1.211, 3.625e-4
-1.212, 3.674e-4
-1.213, 3.699e-4
-1.214, 3.744e-4
-1.215, 3.820e-4
-1.216, 3.882e-4
-1.217, 3.930e-4
-1.218, 3.962e-4
-1.219, 4.003e-4
-1.220, 4.096e-4
-1.221, 4.166e-4
-1.222, 4.221e-4
-1.223, 4.275e-4
-1.224, 4.323e-4
-1.225, 4.409e-4
-1.226, 4.488e-4
-1.227, 4.551e-4
-1.228, 4.617e-4
-1.229, 4.702e-4
-1.230, 4.783e-4
-1.231, 4.867e-4
-1.232, 4.936e-4
-1.233, 5.001e-4
-1.234, 5.075e-4
-1.235, 5.185e-4
-1.236, 5.289e-4
-1.237, 5.364e-4
-1.238, 5.437e-4
-1.239, 5.532e-4
-1.240, 5.642e-4
-1.241, 5.756e-4
-1.242, 5.843e-4
-1.243, 5.925e-4
-1.244, 6.035e-4
-1.245, 6.162e-4
-1.246, 6.293e-4
-1.247, 6.397e-4
-1.248, 6.485e-4
-1.249, 6.607e-4
-1.250, 6.748e-4
-1.251, 6.896e-4
-1.252, 7.029e-4
-1.253, 7.139e-4
-1.254, 7.273e-4
-1.255, 7.434e-4
-1.256, 7.575e-4
-1.257, 7.708e-4
-1.258, 7.833e-4
-1.259, 7.993e-4
-1.260, 8.182e-4
-1.261, 8.348e-4
-1.262, 8.514e-4
-1.263, 8.663e-4
-1.264, 8.817e-4
-1.265, 8.991e-4
-1.266, 9.188e-4
-1.267, 9.357e-4
-1.268, 9.534e-4
-1.269, 9.729e-4
-1.270, 9.943e-4
-1.271, 1.015e-3
-1.272, 1.034e-3
-1.273, 1.053e-3
-1.274, 1.075e-3
-1.275, 1.099e-3
-1.276, 1.123e-3
-1.277, 1.145e-3
-1.278, 1.166e-3
-1.279, 1.189e-3
-1.280, 1.215e-3
-1.281, 1.241e-3
-1.282, 1.265e-3
-1.283, 1.290e-3
-1.284, 1.316e-3
-1.285, 1.345e-3
-1.286, 1.376e-3
-1.287, 1.401e-3
-1.288, 1.427e-3
-1.289, 1.454e-3
-1.290, 1.484e-3
-1.291, 1.514e-3
-1.292, 1.546e-3
-1.293, 1.576e-3
-1.294, 1.611e-3
-1.295, 1.646e-3
-1.296, 1.679e-3
-1.297, 1.711e-3
-1.298, 1.743e-3
-1.299, 1.772e-3
-1.300, 1.807e-3
-1.301, 1.844e-3
-1.302, 1.880e-3
-1.303, 1.918e-3
-1.304, 1.956e-3
-1.305, 1.997e-3
-1.306, 2.036e-3
-1.307, 2.073e-3
-1.308, 2.112e-3
-1.309, 2.150e-3
-1.310, 2.194e-3
-1.311, 2.238e-3
-1.312, 2.279e-3
-1.313, 2.321e-3
-1.314, 2.366e-3
-1.315, 2.411e-3
-1.316, 2.456e-3
-1.317, 2.500e-3
-1.318, 2.546e-3
-1.319, 2.595e-3
-1.320, 2.641e-3
-1.321, 2.696e-3
-1.322, 2.747e-3
-1.323, 2.798e-3
-1.324, 2.849e-3
-1.325, 2.899e-3
-1.326, 2.947e-3
-1.327, 2.992e-3
-1.328, 3.043e-3
-1.329, 3.099e-3
-1.330, 3.156e-3
-1.331, 3.213e-3
-1.332, 3.269e-3
-1.333, 3.320e-3
-1.334, 3.374e-3
-1.335, 3.433e-3
-1.336, 3.494e-3
-1.337, 3.553e-3
-1.338, 3.609e-3
-1.339, 3.668e-3
-1.340, 3.728e-3
-1.341, 3.788e-3
-1.342, 3.850e-3
-1.343, 3.911e-3
-1.344, 3.973e-3
-1.345, 4.039e-3
-1.346, 4.104e-3
-1.347, 4.161e-3
-1.348, 4.218e-3
-1.349, 4.278e-3
-1.350, 4.349e-3
-1.351, 4.419e-3
-1.352, 4.485e-3
-1.353, 4.553e-3
-1.354, 4.617e-3
-1.355, 4.683e-3
-1.356, 4.754e-3
-1.357, 4.821e-3
-1.358, 4.889e-3
-1.359, 4.963e-3
-1.360, 5.029e-3
-1.361, 5.105e-3
-1.362, 5.178e-3
-1.363, 5.249e-3
-1.364, 5.324e-3
-1.365, 5.399e-3
-1.366, 5.474e-3
-1.367, 5.545e-3
-1.368, 5.619e-3
-1.369, 5.694e-3
-1.370, 5.773e-3
-1.371, 5.844e-3
-1.372, 5.923e-3
-1.373, 6.006e-3
-1.374, 6.085e-3
-1.375, 6.159e-3
-1.376, 6.235e-3
-1.377, 6.308e-3
-1.378, 6.383e-3
-1.379, 6.456e-3
-1.380, 6.540e-3
-1.381, 6.624e-3
-1.382, 6.705e-3
-1.383, 6.785e-3
-1.384, 6.872e-3
-1.385, 6.955e-3
-1.386, 7.032e-3
-1.387, 7.110e-3
-1.388, 7.188e-3
-1.389, 7.271e-3
-1.390, 7.356e-3
-1.391, 7.442e-3
-1.392, 7.532e-3
-1.393, 7.619e-3
-1.394, 7.716e-3
-1.395, 7.815e-3
-1.396, 7.912e-3
-1.397, 7.986e-3
-1.398, 8.071e-3
-1.399, 8.132e-3
-1.400, 8.083e-3
-1.399, 7.950e-3
-1.398, 7.832e-3
-1.397, 7.721e-3
-1.396, 7.601e-3
-1.395, 7.505e-3
-1.394, 7.406e-3
-1.393, 7.285e-3
-1.392, 7.197e-3
-1.391, 7.103e-3
-1.390, 6.991e-3
-1.389, 6.887e-3
-1.388, 6.795e-3
-1.387, 6.709e-3
-1.386, 6.618e-3
-1.385, 6.529e-3
-1.384, 6.436e-3
-1.383, 6.340e-3
-1.382, 6.250e-3
-1.381, 6.163e-3
-1.380, 6.074e-3
-1.379, 5.988e-3
-1.378, 5.904e-3
-1.377, 5.815e-3
-1.376, 5.724e-3
-1.375, 5.641e-3
-1.374, 5.563e-3
-1.373, 5.481e-3
-1.372, 5.397e-3
-1.371, 5.317e-3
-1.370, 5.237e-3
-1.369, 5.153e-3
-1.368, 5.074e-3
-1.367, 4.986e-3
-1.366, 4.912e-3
-1.365, 4.833e-3
-1.364, 4.760e-3
-1.363, 4.683e-3
-1.362, 4.604e-3
-1.361, 4.527e-3
-1.360, 4.455e-3
-1.359, 4.383e-3
-1.358, 4.315e-3
-1.357, 4.244e-3
-1.356, 4.170e-3
-1.355, 4.110e-3
-1.354, 4.043e-3
-1.353, 3.977e-3
-1.352, 3.907e-3
-1.351, 3.839e-3
-1.350, 3.778e-3
-1.349, 3.713e-3
-1.348, 3.643e-3
-1.347, 3.571e-3
-1.346, 3.498e-3
-1.345, 3.437e-3
-1.344, 3.383e-3
-1.343, 3.323e-3
-1.342, 3.259e-3
-1.341, 3.196e-3
-1.340, 3.137e-3
-1.339, 3.079e-3
-1.338, 3.019e-3
-1.337, 2.958e-3
-1.336, 2.899e-3
-1.335, 2.840e-3
-1.334, 2.789e-3
-1.333, 2.735e-3
-1.332, 2.677e-3
-1.331, 2.624e-3
-1.330, 2.568e-3
-1.329, 2.509e-3
-1.328, 2.454e-3
-1.327, 2.402e-3
-1.326, 2.350e-3
-1.325, 2.303e-3
-1.324, 2.254e-3
-1.323, 2.205e-3
-1.322, 2.154e-3
-1.321, 2.105e-3
-1.320, 2.060e-3
-1.319, 2.015e-3
-1.318, 1.972e-3
-1.317, 1.924e-3
-1.316, 1.875e-3
-1.315, 1.833e-3
-1.314, 1.793e-3
-1.313, 1.747e-3
-1.312, 1.703e-3
-1.311, 1.659e-3
-1.310, 1.620e-3
-1.309, 1.584e-3
-1.308, 1.543e-3
-1.307, 1.503e-3
-1.306, 1.463e-3
-1.305, 1.426e-3
-1.304, 1.391e-3
-1.303, 1.352e-3
-1.302, 1.312e-3
-1.301, 1.272e-3
-1.300, 1.240e-3
-1.299, 1.209e-3
-1.298, 1.176e-3
-1.297, 1.140e-3
-1.296, 1.105e-3
-1.295, 1.073e-3
-1.294, 1.041e-3
-1.293, 1.009e-3
-1.292, 9.774e-4
-1.291, 9.471e-4
-1.290, 9.190e-4
-1.289, 8.911e-4
-1.288, 8.636e-4
-1.287, 8.333e-4
-1.286, 8.031e-4
-1.285, 7.779e-4
-1.284, 7.530e-4
-1.283, 7.263e-4
-1.282, 6.986e-4
-1.281, 6.721e-4
-1.280, 6.481e-4
-1.279, 6.260e-4
-1.278, 6.017e-4
-1.277, 5.758e-4
-1.276, 5.517e-4
-1.275, 5.309e-4
-1.274, 5.112e-4
-1.273, 4.893e-4
-1.272, 4.679e-4
-1.271, 4.461e-4
-1.270, 4.262e-4
-1.269, 4.088e-4
-1.268, 3.881e-4
-1.267, 3.675e-4
-1.266, 3.489e-4
-1.265, 3.322e-4
-1.264, 3.169e-4
-1.263, 2.992e-4
-1.262, 2.797e-4
-1.261, 2.628e-4
-1.260, 2.473e-4
-1.259, 2.332e-4
-1.258, 2.173e-4
-1.257, 1.999e-4
-1.256, 1.854e-4
-1.255, 1.724e-4
-1.254, 1.598e-4
-1.253, 1.459e-4
-1.252, 1.307e-4
-1.251, 1.175e-4
-1.250, 1.069e-4
-1.249, 9.563e-5
-1.248, 8.340e-5
-1.247, 6.917e-5
-1.246, 5.720e-5
-1.245, 4.876e-5
-1.244, 3.921e-5
-1.243, 2.795e-5
-1.242, 1.602e-5
-1.241, 5.112e-6
-1.240, -2.615e-6
-1.239, -9.996e-6
-1.238, -1.984e-5
-1.237, -3.034e-5
-1.236, -3.965e-5
-1.235, -4.639e-5
-1.234, -5.276e-5
-1.233, -6.148e-5
-1.232, -7.072e-5
-1.231, -7.842e-5
-1.230, -8.429e-5
-1.229, -9.174e-5
-1.228, -9.848e-5
-1.227, -1.059e-4
-1.226, -1.121e-4
-1.225, -1.173e-4
-1.224, -1.213e-4
-1.223, -1.280e-4
-1.222, -1.356e-4
-1.221, -1.405e-4
-1.220, -1.443e-4
-1.219, -1.477e-4
-1.218, -1.533e-4
-1.217, -1.603e-4
-1.216, -1.646e-4
-1.215, -1.677e-4
-1.214, -1.707e-4
-1.213, -1.752e-4
-1.212, -1.810e-4
-1.211, -1.849e-4
-1.210, -1.866e-4
-1.209, -1.888e-4
-1.208, -1.926e-4
-1.207, -1.980e-4
-1.206, -2.020e-4
-1.205, -2.022e-4
-1.204, -2.048e-4
-1.203, -2.080e-4
-1.202, -2.117e-4
-1.201, -2.147e-4
-1.200, -2.145e-4
-1.199, -2.153e-4
-1.198, -2.179e-4
-1.197, -2.221e-4
-1.196, -2.253e-4
-1.195, -2.255e-4
-1.194, -2.257e-4
-1.193, -2.277e-4
-1.192, -2.306e-4
-1.191, -2.328e-4
-1.190, -2.330e-4
-1.189, -2.322e-4
-1.188, -2.343e-4
-1.187, -2.376e-4
-1.186, -2.391e-4
-1.185, -2.389e-4
-1.184, -2.378e-4
-1.183, -2.393e-4
-1.182, -2.422e-4
-1.181, -2.432e-4
-1.180, -2.431e-4
-1.179, -2.419e-4
-1.178, -2.437e-4
-1.177, -2.464e-4
-1.176, -2.461e-4
-1.175, -2.451e-4
-1.174, -2.438e-4
-1.173, -2.447e-4
-1.172, -2.469e-4
-1.171, -2.478e-4
-1.170, -2.466e-4
-1.169, -2.455e-4
-1.168, -2.454e-4
-1.167, -2.478e-4
-1.166, -2.489e-4
-1.165, -2.468e-4
-1.164, -2.453e-4
-1.163, -2.455e-4
-1.162, -2.474e-4
-1.161, -2.483e-4
-1.160, -2.460e-4
-1.159, -2.445e-4
-1.158, -2.456e-4
-1.157, -2.468e-4
-1.156, -2.476e-4
-1.155, -2.462e-4
-1.154, -2.443e-4
-1.153, -2.453e-4
-1.152, -2.457e-4
-1.151, -2.465e-4
-1.150, -2.450e-4
-1.149, -2.421e-4
-1.148, -2.426e-4
-1.147, -2.443e-4
-1.146, -2.447e-4
-1.145, -2.438e-4
-1.144, -2.411e-4
-1.143, -2.416e-4
-1.142, -2.434e-4
-1.141, -2.436e-4
-1.140, -2.416e-4
-1.139, -2.396e-4
-1.138, -2.397e-4
-1.137, -2.417e-4
-1.136, -2.407e-4
-1.135, -2.392e-4
-1.134, -2.377e-4
-1.133, -2.377e-4
-1.132, -2.396e-4
-1.131, -2.398e-4
-1.130, -2.378e-4
-1.129, -2.364e-4
-1.128, -2.361e-4
-1.127, -2.377e-4
-1.126, -2.383e-4
-1.125, -2.363e-4
-1.124, -2.340e-4
-1.123, -2.342e-4
-1.122, -2.355e-4
-1.121, -2.365e-4
-1.120, -2.341e-4
-1.119, -2.326e-4
-1.118, -2.331e-4
-1.117, -2.343e-4
-1.116, -2.350e-4
-1.115, -2.333e-4
-1.114, -2.312e-4
-1.113, -2.319e-4
-1.112, -2.327e-4
-1.111, -2.331e-4
-1.110, -2.317e-4
-1.109, -2.288e-4
-1.108, -2.294e-4
-1.107, -2.309e-4
-1.106, -2.315e-4
-1.105, -2.308e-4
-1.104, -2.283e-4
-1.103, -2.286e-4
-1.102, -2.301e-4
-1.101, -2.306e-4
-1.100, -2.292e-4
-1.099, -2.268e-4
-1.098, -2.272e-4
-1.097, -2.300e-4
-1.096, -2.293e-4
-1.095, -2.276e-4
-1.094, -2.259e-4
-1.093, -2.258e-4
-1.092, -2.281e-4
-1.091, -2.289e-4
-1.090, -2.271e-4
-1.089, -2.261e-4
-1.088, -2.257e-4
-1.087, -2.278e-4
-1.086, -2.289e-4
-1.085, -2.266e-4
-1.084, -2.254e-4
-1.083, -2.255e-4
-1.082, -2.271e-4
-1.081, -2.281e-4
-1.080, -2.264e-4
-1.079, -2.248e-4
-1.078, -2.256e-4
-1.077, -2.268e-4
-1.076, -2.279e-4
-1.075, -2.276e-4
-1.074, -2.250e-4
-1.073, -2.257e-4
-1.072, -2.273e-4
-1.071, -2.281e-4
-1.070, -2.268e-4
-1.069, -2.245e-4
-1.068, -2.255e-4
-1.067, -2.276e-4
-1.066, -2.278e-4
-1.065, -2.269e-4
-1.064, -2.250e-4
-1.063, -2.258e-4
-1.062, -2.279e-4
-1.061, -2.285e-4
-1.060, -2.278e-4
-1.059, -2.254e-4
-1.058, -2.260e-4
-1.057, -2.284e-4
-1.056, -2.286e-4
-1.055, -2.281e-4
-1.054, -2.271e-4
-1.053, -2.269e-4
-1.052, -2.291e-4
-1.051, -2.302e-4
-1.050, -2.285e-4
-1.049, -2.276e-4
-1.048, -2.277e-4
-1.047, -2.300e-4
-1.046, -2.314e-4
-1.045, -2.301e-4
-1.044, -2.288e-4
-1.043, -2.291e-4
-1.042, -2.314e-4
-1.041, -2.334e-4
-1.040, -2.322e-4
-1.039, -2.308e-4
-1.038, -2.319e-4
-1.037, -2.339e-4
-1.036, -2.358e-4
-1.035, -2.344e-4
-1.034, -2.326e-4
-1.033, -2.335e-4
-1.032, -2.352e-4
-1.031, -2.366e-4
-1.030, -2.366e-4
-1.029, -2.348e-4
-1.028, -2.362e-4
-1.027, -2.386e-4
-1.026, -2.400e-4
-1.025, -2.402e-4
-1.024, -2.388e-4
-1.023, -2.396e-4
-1.022, -2.423e-4
-1.021, -2.438e-4
-1.020, -2.437e-4
-1.019, -2.426e-4
-1.018, -2.433e-4
-1.017, -2.466e-4
-1.016, -2.482e-4
-1.015, -2.480e-4
-1.014, -2.473e-4
-1.013, -2.490e-4
-1.012, -2.525e-4
-1.011, -2.541e-4
-1.010, -2.538e-4
-1.009, -2.537e-4
-1.008, -2.542e-4
-1.007, -2.579e-4
-1.006, -2.608e-4
-1.005, -2.605e-4
-1.004, -2.608e-4
-1.003, -2.622e-4
-1.002, -2.654e-4
-1.001, -2.695e-4
-1.000, -1.576e-4
-1.001, -1.966e-5
-1.002, 3.749e-5
-1.003, 6.404e-5
-1.004, 8.012e-5
-1.005, 9.124e-5
-1.006, 1.018e-4
-1.007, 1.078e-4
-1.008, 1.109e-4
-1.009, 1.144e-4
-1.010, 1.190e-4
-1.011, 1.239e-4
-1.012, 1.278e-4
-1.013, 1.280e-4
-1.014, 1.287e-4
-1.015, 1.329e-4
-1.016, 1.358e-4
-1.017, 1.380e-4
-1.018, 1.376e-4
-1.019, 1.381e-4
-1.020, 1.405e-4
-1.021, 1.431e-4
-1.022, 1.445e-4
-1.023, 1.441e-4
-1.024, 1.441e-4
-1.025, 1.460e-4
-1.026, 1.483e-4
-1.027, 1.484e-4
-1.028, 1.478e-4
-1.029, 1.469e-4
-1.030, 1.484e-4
-1.031, 1.512e-4
-1.032, 1.519e-4
-1.033, 1.505e-4
-1.034, 1.494e-4
-1.035, 1.506e-4
-1.036, 1.535e-4
-1.037, 1.536e-4
-1.038, 1.521e-4
-1.039, 1.511e-4
-1.040, 1.519e-4
-1.041, 1.545e-4
-1.042, 1.551e-4
-1.043, 1.534e-4
-1.044, 1.529e-4
-1.045, 1.536e-4
-1.046, 1.554e-4
-1.047, 1.563e-4
-1.048, 1.542e-4
-1.049, 1.534e-4
-1.050, 1.546e-4
-1.051, 1.563e-4
-1.052, 1.571e-4
-1.053, 1.553e-4
-1.054, 1.544e-4
-1.055, 1.555e-4
-1.056, 1.570e-4
-1.057, 1.580e-4
-1.058, 1.559e-4
-1.059, 1.547e-4
-1.060, 1.558e-4
-1.061, 1.574e-4
-1.062, 1.584e-4
-1.063, 1.569e-4
-1.064, 1.552e-4
-1.065, 1.569e-4
-1.066, 1.581e-4
-1.067, 1.583e-4
-1.068, 1.575e-4
-1.069, 1.558e-4
-1.070, 1.568e-4
-1.071, 1.594e-4
-1.072, 1.595e-4
-1.073, 1.581e-4
-1.074, 1.564e-4
-1.075, 1.581e-4
-1.076, 1.606e-4
-1.077, 1.601e-4
-1.078, 1.580e-4
-1.079, 1.573e-4
-1.080, 1.579e-4
-1.081, 1.600e-4
-1.082, 1.606e-4
-1.083, 1.587e-4
-1.084, 1.580e-4
-1.085, 1.583e-4
-1.086, 1.608e-4
-1.087, 1.616e-4
-1.088, 1.591e-4
-1.089, 1.583e-4
-1.090, 1.596e-4
-1.091, 1.609e-4
-1.092, 1.623e-4
-1.093, 1.602e-4
-1.094, 1.593e-4
-1.095, 1.604e-4
-1.096, 1.616e-4
-1.097, 1.626e-4
-1.098, 1.616e-4
-1.099, 1.598e-4
-1.100, 1.611e-4
-1.101, 1.630e-4
-1.102, 1.635e-4
-1.103, 1.622e-4
-1.104, 1.605e-4
-1.105, 1.619e-4
-1.106, 1.636e-4
-1.107, 1.644e-4
-1.108, 1.632e-4
-1.109, 1.616e-4
-1.110, 1.628e-4
-1.111, 1.651e-4
-1.112, 1.655e-4
-1.113, 1.641e-4
-1.114, 1.627e-4
-1.115, 1.636e-4
-1.116, 1.658e-4
-1.117, 1.661e-4
-1.118, 1.652e-4
-1.119, 1.647e-4
-1.120, 1.649e-4
-1.121, 1.672e-4
-1.122, 1.680e-4
-1.123, 1.665e-4
-1.124, 1.660e-4
-1.125, 1.666e-4
-1.126, 1.689e-4
-1.127, 1.702e-4
-1.128, 1.682e-4
-1.129, 1.670e-4
-1.130, 1.679e-4
-1.131, 1.702e-4
-1.132, 1.714e-4
-1.133, 1.700e-4
-1.134, 1.691e-4
-1.135, 1.703e-4
-1.136, 1.720e-4
-1.137, 1.734e-4
-1.138, 1.725e-4
-1.139, 1.715e-4
-1.140, 1.726e-4
-1.141, 1.744e-4
-1.142, 1.755e-4
-1.143, 1.751e-4
-1.144, 1.732e-4
-1.145, 1.746e-4
-1.146, 1.769e-4
-1.147, 1.784e-4
-1.148, 1.778e-4
-1.149, 1.763e-4
-1.150, 1.775e-4
-1.151, 1.801e-4
-1.152, 1.812e-4
-1.153, 1.807e-4
-1.154, 1.798e-4
-1.155, 1.810e-4
-1.156, 1.837e-4
-1.157, 1.850e-4
-1.158, 1.847e-4
-1.159, 1.839e-4
-1.160, 1.850e-4
-1.161, 1.877e-4
-1.162, 1.893e-4
-1.163, 1.883e-4
-1.164, 1.883e-4
-1.165, 1.895e-4
-1.166, 1.923e-4
-1.167, 1.942e-4
-1.168, 1.934e-4
-1.169, 1.933e-4
-1.170, 1.953e-4
-1.171, 1.979e-4
-1.172, 2.003e-4
-1.173, 1.993e-4
-1.174, 1.991e-4
-1.175, 2.013e-4
-1.176, 2.040e-4
-1.177, 2.071e-4
-1.178, 2.073e-4
-1.179, 2.060e-4
-1.180, 2.084e-4
-1.181, 2.109e-4
-1.182, 2.138e-4
-1.183, 2.142e-4
-1.184, 2.140e-4
-1.185, 2.166e-4
-1.186, 2.195e-4
-1.187, 2.216e-4
-1.188, 2.234e-4
-1.189, 2.231e-4
-1.190, 2.257e-4
-1.191, 2.297e-4
-1.192, 2.323e-4
-1.193, 2.334e-4
-1.194, 2.340e-4
-1.195, 2.363e-4
-1.196, 2.414e-4
-1.197, 2.444e-4
-1.198, 2.454e-4
-1.199, 2.467e-4
-1.200, 2.494e-4
-1.201, 2.546e-4
-1.202, 2.583e-4
-1.203, 2.602e-4
-1.204, 2.614e-4
-1.205, 2.648e-4
-1.206, 2.700e-4
-1.207, 2.746e-4
-1.208, 2.761e-4
-1.209, 2.782e-4
-1.210, 2.824e-4
-1.211, 2.884e-4
-1.212, 2.936e-4
-1.213, 2.949e-4
-1.214, 2.974e-4
-1.215, 3.024e-4
-1.216, 3.076e-4
-1.217, 3.130e-4
-1.218, 3.179e-4
-1.219, 3.205e-4
-1.220, 3.265e-4
-1.221, 3.329e-4
-1.222, 3.391e-4
-1.223, 3.434e-4
-1.224, 3.461e-4
-1.225, 3.525e-4
-1.226, 3.599e-4
-1.227, 3.670e-4
-1.228, 3.730e-4
-1.229, 3.784e-4
-1.230, 3.847e-4
-1.231, 3.929e-4
-1.232, 3.999e-4
-1.233, 4.062e-4
-1.234, 4.120e-4
-1.235, 4.203e-4
-1.236, 4.302e-4
-1.237, 4.389e-4
-1.238, 4.452e-4
-1.239, 4.518e-4
-1.240, 4.601e-4
-1.241, 4.714e-4
-1.242, 4.814e-4
-1.243, 4.894e-4
-1.244, 4.977e-4
-1.245, 5.078e-4
-1.246, 5.205e-4
-1.247, 5.321e-4
-1.248, 5.406e-4
-1.249, 5.490e-4
-1.250, 5.598e-4
-1.251, 5.736e-4
-1.252, 5.874e-4
-1.253, 5.971e-4
-1.254, 6.086e-4
-1.255, 6.219e-4
-1.256, 6.368e-4
-1.257, 6.524e-4
-1.258, 6.643e-4
-1.259, 6.758e-4
-1.260, 6.907e-4
-1.261, 7.059e-4
-1.262, 7.224e-4
-1.263, 7.385e-4
-1.264, 7.522e-4
-1.265, 7.670e-4
-1.266, 7.856e-4
-1.267, 8.044e-4
-1.268, 8.200e-4
-1.269, 8.344e-4
-1.270, 8.536e-4
-1.271, 8.744e-4
-1.272, 8.937e-4
-1.273, 9.119e-4
-1.274, 9.302e-4
-1.275, 9.509e-4
-1.276, 9.738e-4
-1.277, 9.954e-4
-1.278, 1.015e-3
-1.279, 1.035e-3
-1.280, 1.059e-3
-1.281, 1.085e-3
-1.282, 1.108e-3
-1.283, 1.129e-3
-1.284, 1.151e-3
-1.285, 1.176e-3
-1.286, 1.202e-3
-1.287, 1.230e-3
-1.288, 1.255e-3
-1.289, 1.280e-3
-1.290, 1.305e-3
-1.291, 1.337e-3
-1.292, 1.366e-3
-1.293, 1.394e-3
-1.294, 1.421e-3
-1.295, 1.452e-3
-1.296, 1.484e-3
-1.297, 1.515e-3
-1.298, 1.546e-3
-1.299, 1.577e-3
-1.300, 1.611e-3
-1.301, 1.646e-3
-1.302, 1.682e-3
-1.303, 1.714e-3
-1.304, 1.745e-3
-1.305, 1.780e-3
-1.306, 1.817e-3
-1.307, 1.855e-3
-1.308, 1.896e-3
-1.309, 1.933e-3
-1.310, 1.974e-3
-1.311, 2.012e-3
-1.312, 2.048e-3
-1.313, 2.088e-3
-1.314, 2.126e-3
-1.315, 2.167e-3
-1.316, 2.211e-3
-1.317, 2.256e-3
-1.318, 2.299e-3
-1.319, 2.343e-3
-1.320, 2.386e-3
-1.321, 2.432e-3
-1.322, 2.478e-3
-1.323, 2.522e-3
-1.324, 2.567e-3
-1.325, 2.613e-3
-1.326, 2.664e-3
-1.327, 2.714e-3
-1.328, 2.761e-3
-1.329, 2.808e-3
-1.330, 2.860e-3
-1.331, 2.918e-3
-1.332, 2.971e-3
-1.333, 3.018e-3
-1.334, 3.067e-3
-1.335, 3.121e-3
-1.336, 3.174e-3
-1.337, 3.230e-3
-1.338, 3.285e-3
-1.339, 3.340e-3
-1.340, 3.396e-3
-1.341, 3.453e-3
-1.342, 3.512e-3
-1.343, 3.568e-3
-1.344, 3.626e-3
-1.345, 3.690e-3
-1.346, 3.752e-3
-1.347, 3.812e-3
-1.348, 3.870e-3
-1.349, 3.927e-3
-1.350, 3.987e-3
-1.351, 4.053e-3
-1.352, 4.117e-3
-1.353, 4.181e-3
-1.354, 4.243e-3
-1.355, 4.307e-3
-1.356, 4.375e-3
-1.357, 4.443e-3
-1.358, 4.510e-3
-1.359, 4.576e-3
-1.360, 4.645e-3
-1.361, 4.716e-3
-1.362, 4.787e-3
-1.363, 4.856e-3
-1.364, 4.922e-3
-1.365, 4.988e-3
-1.366, 5.059e-3
-1.367, 5.135e-3
-1.368, 5.208e-3
-1.369, 5.276e-3
-1.370, 5.343e-3
-1.371, 5.416e-3
-1.372, 5.492e-3
-1.373, 5.563e-3
-1.374, 5.641e-3
-1.375, 5.717e-3
-1.376, 5.795e-3
-1.377, 5.875e-3
-1.378, 5.952e-3
-1.379, 6.032e-3
-1.380, 6.116e-3
-1.381, 6.193e-3
-1.382, 6.293e-3
-1.383, 6.372e-3
-1.384, 6.436e-3
-1.385, 6.513e-3
-1.386, 6.591e-3
-1.387, 6.661e-3
-1.388, 6.740e-3
-1.389, 6.827e-3
-1.390, 6.911e-3
-1.391, 6.999e-3
-1.392, 7.087e-3
-1.393, 7.167e-3
-1.394, 7.242e-3
-1.395, 7.328e-3
-1.396, 7.412e-3
-1.397, 7.501e-3
-1.398, 7.606e-3
-1.399, 7.692e-3
-1.400, 7.641e-3
-1.399, 7.500e-3
-1.398, 7.384e-3
-1.397, 7.290e-3
-1.396, 7.195e-3
-1.395, 7.101e-3
-1.394, 7.002e-3
-1.393, 6.905e-3
-1.392, 6.820e-3
-1.391, 6.729e-3
-1.390, 6.637e-3
-1.389, 6.539e-3
-1.388, 6.445e-3
-1.387, 6.355e-3
-1.386, 6.264e-3
-1.385, 6.183e-3
-1.384, 6.105e-3
-1.383, 6.020e-3
-1.382, 5.923e-3
-1.381, 5.833e-3
-1.380, 5.760e-3
-1.379, 5.666e-3
-1.378, 5.578e-3
-1.377, 5.496e-3
-1.376, 5.413e-3
-1.375, 5.336e-3
-1.374, 5.258e-3
-1.373, 5.177e-3
-1.372, 5.100e-3
-1.371, 5.027e-3
-1.370, 4.949e-3
-1.369, 4.874e-3
-1.368, 4.800e-3
-1.367, 4.725e-3
-1.366, 4.648e-3
-1.365, 4.572e-3
-1.364, 4.500e-3
-1.363, 4.431e-3
-1.362, 4.359e-3
-1.361, 4.286e-3
-1.360, 4.213e-3
-1.359, 4.142e-3
-1.358, 4.076e-3
-1.357, 4.007e-3
-1.356, 3.940e-3
-1.355, 3.871e-3
-1.354, 3.808e-3
-1.353, 3.746e-3
-1.352, 3.685e-3
-1.351, 3.623e-3
-1.350, 3.557e-3
-1.349, 3.500e-3
-1.348, 3.445e-3
-1.347, 3.378e-3
-1.346, 3.307e-3
-1.345, 3.241e-3
-1.344, 3.188e-3
-1.343, 3.134e-3
-1.342, 3.075e-3
-1.341, 3.012e-3
-1.340, 2.955e-3
-1.339, 2.901e-3
-1.338, 2.848e-3
-1.337, 2.788e-3
-1.336, 2.737e-3
-1.335, 2.685e-3
-1.334, 2.629e-3
-1.333, 2.577e-3
-1.332, 2.525e-3
-1.331, 2.470e-3
-1.330, 2.416e-3
-1.329, 2.366e-3
-1.328, 2.318e-3
-1.327, 2.272e-3
-1.326, 2.223e-3
-1.325, 2.172e-3
-1.324, 2.124e-3
-1.323, 2.078e-3
-1.322, 2.032e-3
-1.321, 1.984e-3
-1.320, 1.938e-3
-1.319, 1.896e-3
-1.318, 1.856e-3
-1.317, 1.813e-3
-1.316, 1.768e-3
-1.315, 1.726e-3
-1.314, 1.686e-3
-1.313, 1.646e-3
-1.312, 1.604e-3
-1.311, 1.563e-3
-1.310, 1.524e-3
-1.309, 1.487e-3
-1.308, 1.450e-3
-1.307, 1.412e-3
-1.306, 1.378e-3
-1.305, 1.341e-3
-1.304, 1.307e-3
-1.303, 1.274e-3
-1.302, 1.239e-3
-1.301, 1.205e-3
-1.300, 1.168e-3
-1.299, 1.134e-3
-1.298, 1.103e-3
-1.297, 1.070e-3
-1.296, 1.040e-3
-1.295, 1.009e-3
-1.294, 9.807e-4
-1.293, 9.523e-4
-1.292, 9.229e-4
-1.291, 8.919e-4
-1.290, 8.629e-4
-1.289, 8.387e-4
-1.288, 8.139e-4
-1.287, 7.863e-4
-1.286, 7.576e-4
-1.285, 7.334e-4
-1.284, 7.104e-4
-1.283, 6.860e-4
-1.282, 6.599e-4
-1.281, 6.327e-4
-1.280, 6.076e-4
-1.279, 5.868e-4
-1.278, 5.664e-4
-1.277, 5.452e-4
-1.276, 5.222e-4
-1.275, 5.020e-4
-1.274, 4.831e-4
-1.273, 4.646e-4
-1.272, 4.451e-4
-1.271, 4.228e-4
-1.270, 4.028e-4
-1.269, 3.862e-4
-1.268, 3.693e-4
-1.267, 3.503e-4
-1.266, 3.319e-4
-1.265, 3.148e-4
-1.264, 3.000e-4
-1.263, 2.860e-4
-1.262, 2.685e-4
-1.261, 2.512e-4
-1.260, 2.358e-4
-1.259, 2.227e-4
-1.258, 2.107e-4
-1.257, 1.959e-4
-1.256, 1.812e-4
-1.255, 1.669e-4
-1.254, 1.552e-4
-1.253, 1.449e-4
-1.252, 1.315e-4
-1.251, 1.182e-4
-1.250, 1.059e-4
-1.249, 9.571e-5
-1.248, 8.730e-5
-1.247, 7.546e-5
-1.246, 6.298e-5
-1.245, 5.252e-5
-1.244, 4.424e-5
-1.243, 3.605e-5
-1.242, 2.583e-5
-1.241, 1.485e-5
-1.240, 6.368e-6
-1.239, -9.858e-7
-1.238, -7.968e-6
-1.237, -1.608e-5
-1.236, -2.603e-5
-1.235, -3.409e-5
-1.234, -4.007e-5
-1.233, -4.603e-5
-1.232, -5.304e-5
-1.231, -6.181e-5
-1.230, -6.896e-5
-1.229, -7.604e-5
-1.228, -7.960e-5
-1.227, -8.521e-5
-1.226, -9.215e-5
-1.225, -9.881e-5
-1.224, -1.023e-4
-1.223, -1.068e-4
-1.222, -1.123e-4
-1.221, -1.182e-4
-1.220, -1.236e-4
-1.219, -1.265e-4
-1.218, -1.289e-4
-1.217, -1.340e-4
-1.216, -1.395e-4
-1.215, -1.445e-4
-1.214, -1.466e-4
-1.213, -1.484e-4
-1.212, -1.524e-4
-1.211, -1.577e-4
-1.210, -1.613e-4
-1.209, -1.635e-4
-1.208, -1.645e-4
-1.207, -1.679e-4
-1.206, -1.728e-4
-1.205, -1.752e-4
-1.204, -1.767e-4
-1.203, -1.773e-4
-1.202, -1.800e-4
-1.201, -1.843e-4
-1.200, -1.862e-4
-1.199, -1.878e-4
-1.198, -1.879e-4
-1.197, -1.899e-4
-1.196, -1.940e-4
-1.195, -1.961e-4
-1.194, -1.960e-4
-1.193, -1.961e-4
-1.192, -1.977e-4
-1.191, -2.016e-4
-1.190, -2.035e-4
-1.189, -2.025e-4
-1.188, -2.029e-4
-1.187, -2.041e-4
-1.186, -2.071e-4
-1.185, -2.089e-4
-1.184, -2.080e-4
-1.183, -2.075e-4
-1.182, -2.090e-4
-1.181, -2.113e-4
-1.180, -2.129e-4
-1.179, -2.121e-4
-1.178, -2.121e-4
-1.177, -2.136e-4
-1.176, -2.149e-4
-1.175, -2.162e-4
-1.174, -2.155e-4
-1.173, -2.137e-4
-1.172, -2.151e-4
-1.171, -2.176e-4
-1.170, -2.182e-4
-1.169, -2.175e-4
-1.168, -2.157e-4
-1.167, -2.171e-4
-1.166, -2.199e-4
-1.165, -2.199e-4
-1.164, -2.199e-4
-1.163, -2.184e-4
-1.162, -2.195e-4
-1.161, -2.216e-4
-1.160, -2.209e-4
-1.159, -2.188e-4
-1.158, -2.177e-4
-1.157, -2.186e-4
-1.156, -2.218e-4
-1.155, -2.229e-4
-1.154, -2.214e-4
-1.153, -2.199e-4
-1.152, -2.197e-4
-1.151, -2.215e-4
-1.150, -2.226e-4
-1.149, -2.208e-4
-1.148, -2.197e-4
-1.147, -2.204e-4
-1.146, -2.218e-4
-1.145, -2.232e-4
-1.144, -2.212e-4
-1.143, -2.191e-4
-1.142, -2.200e-4
-1.141, -2.213e-4
-1.140, -2.219e-4
-1.139, -2.208e-4
-1.138, -2.189e-4
-1.137, -2.193e-4
-1.136, -2.207e-4
-1.135, -2.215e-4
-1.134, -2.205e-4
-1.133, -2.180e-4
-1.132, -2.184e-4
-1.131, -2.203e-4
-1.130, -2.211e-4
-1.129, -2.201e-4
-1.128, -2.169e-4
-1.127, -2.180e-4
-1.126, -2.201e-4
-1.125, -2.204e-4
-1.124, -2.193e-4
-1.123, -2.173e-4
-1.122, -2.175e-4
-1.121, -2.195e-4
-1.120, -2.193e-4
-1.119, -2.184e-4
-1.118, -2.170e-4
-1.117, -2.167e-4
-1.116, -2.189e-4
-1.115, -2.197e-4
-1.114, -2.184e-4
-1.113, -2.174e-4
-1.112, -2.164e-4
-1.111, -2.187e-4
-1.110, -2.196e-4
-1.109, -2.179e-4
-1.108, -2.165e-4
-1.107, -2.166e-4
-1.106, -2.182e-4
-1.105, -2.191e-4
-1.104, -2.173e-4
-1.103, -2.157e-4
-1.102, -2.163e-4
-1.101, -2.180e-4
-1.100, -2.188e-4
-1.099, -2.176e-4
-1.098, -2.155e-4
-1.097, -2.164e-4
-1.096, -2.178e-4
-1.095, -2.190e-4
-1.094, -2.183e-4
-1.093, -2.160e-4
-1.092, -2.167e-4
-1.091, -2.180e-4
-1.090, -2.187e-4
-1.089, -2.175e-4
-1.088, -2.155e-4
-1.087, -2.165e-4
-1.086, -2.185e-4
-1.085, -2.191e-4
-1.084, -2.182e-4
-1.083, -2.160e-4
-1.082, -2.164e-4
-1.081, -2.192e-4
-1.080, -2.189e-4
-1.079, -2.183e-4
-1.078, -2.170e-4
-1.077, -2.170e-4
-1.076, -2.197e-4
-1.075, -2.212e-4
-1.074, -2.196e-4
-1.073, -2.180e-4
-1.072, -2.182e-4
-1.071, -2.201e-4
-1.070, -2.209e-4
-1.069, -2.188e-4
-1.068, -2.178e-4
-1.067, -2.186e-4
-1.066, -2.198e-4
-1.065, -2.220e-4
-1.064, -2.206e-4
-1.063, -2.189e-4
-1.062, -2.198e-4
-1.061, -2.211e-4
-1.060, -2.222e-4
-1.059, -2.218e-4
-1.058, -2.212e-4
-1.057, -2.221e-4
-1.056, -2.232e-4
-1.055, -2.242e-4
-1.054, -2.232e-4
-1.053, -2.209e-4
-1.052, -2.219e-4
-1.051, -2.241e-4
-1.050, -2.253e-4
-1.049, -2.250e-4
-1.048, -2.231e-4
-1.047, -2.239e-4
-1.046, -2.265e-4
-1.045, -2.268e-4
-1.044, -2.263e-4
-1.043, -2.249e-4
-1.042, -2.257e-4
-1.041, -2.286e-4
-1.040, -2.294e-4
-1.039, -2.286e-4
-1.038, -2.278e-4
-1.037, -2.285e-4
-1.036, -2.309e-4
-1.035, -2.321e-4
-1.034, -2.313e-4
-1.033, -2.310e-4
-1.032, -2.313e-4
-1.031, -2.342e-4
-1.030, -2.356e-4
-1.029, -2.352e-4
-1.028, -2.340e-4
-1.027, -2.354e-4
-1.026, -2.381e-4
-1.025, -2.405e-4
-1.024, -2.403e-4
-1.023, -2.389e-4
-1.022, -2.403e-4
-1.021, -2.424e-4
-1.020, -2.445e-4
-1.019, -2.446e-4
-1.018, -2.437e-4
-1.017, -2.459e-4
-1.016, -2.482e-4
-1.015, -2.505e-4
-1.014, -2.507e-4
-1.013, -2.500e-4
-1.012, -2.526e-4
-1.011, -2.560e-4
-1.010, -2.584e-4
-1.009, -2.592e-4
-1.008, -2.578e-4
-1.007, -2.595e-4
-1.006, -2.638e-4
-1.005, -2.663e-4
-1.004, -2.672e-4
-1.003, -2.675e-4
-1.002, -2.699e-4
-1.001, -2.741e-4
-1.000, -1.650e-4
-1.001, -2.574e-5
-1.002, 3.498e-5
-1.003, 6.450e-5
-1.004, 8.054e-5
-1.005, 9.097e-5
-1.006, 1.009e-4
-1.007, 1.099e-4
-1.008, 1.144e-4
-1.009, 1.176e-4
-1.010, 1.208e-4
-1.011, 1.252e-4
-1.012, 1.308e-4
-1.013, 1.324e-4
-1.014, 1.332e-4
-1.015, 1.349e-4
-1.016, 1.377e-4
-1.017, 1.412e-4
-1.018, 1.430e-4
-1.019, 1.424e-4
-1.020, 1.435e-4
-1.021, 1.453e-4
-1.022, 1.484e-4
-1.023, 1.491e-4
-1.024, 1.485e-4
-1.025, 1.485e-4
-1.026, 1.499e-4
-1.027, 1.525e-4
-1.028, 1.531e-4
-1.029, 1.515e-4
-1.030, 1.512e-4
-1.031, 1.535e-4
-1.032, 1.551e-4
-1.033, 1.558e-4
-1.034, 1.538e-4
-1.035, 1.530e-4
-1.036, 1.547e-4
-1.037, 1.563e-4
-1.038, 1.562e-4
-1.039, 1.549e-4
-1.040, 1.543e-4
-1.041, 1.561e-4
-1.042, 1.582e-4
-1.043, 1.575e-4
-1.044, 1.566e-4
-1.045, 1.548e-4
-1.046, 1.563e-4
-1.047, 1.588e-4
-1.048, 1.582e-4
-1.049, 1.569e-4
-1.050, 1.560e-4
-1.051, 1.572e-4
-1.052, 1.595e-4
-1.053, 1.585e-4
-1.054, 1.567e-4
-1.055, 1.567e-4
-1.056, 1.573e-4
-1.057, 1.600e-4
-1.058, 1.592e-4
-1.059, 1.572e-4
-1.060, 1.570e-4
-1.061, 1.576e-4
-1.062, 1.595e-4
-1.063, 1.597e-4
-1.064, 1.569e-4
-1.065, 1.568e-4
-1.066, 1.581e-4
-1.067, 1.598e-4
-1.068, 1.599e-4
-1.069, 1.576e-4
-1.070, 1.570e-4
-1.071, 1.588e-4
-1.072, 1.603e-4
-1.073, 1.600e-4
-1.074, 1.583e-4
-1.075, 1.586e-4
-1.076, 1.595e-4
-1.077, 1.604e-4
-1.078, 1.597e-4
-1.079, 1.579e-4
-1.080, 1.569e-4
-1.081, 1.592e-4
-1.082, 1.608e-4
-1.083, 1.600e-4
-1.084, 1.587e-4
-1.085, 1.573e-4
-1.086, 1.590e-4
-1.087, 1.612e-4
-1.088, 1.604e-4
-1.089, 1.590e-4
-1.090, 1.585e-4
-1.091, 1.595e-4
-1.092, 1.617e-4
-1.093, 1.611e-4
-1.094, 1.594e-4
-1.095, 1.589e-4
-1.096, 1.604e-4
-1.097, 1.620e-4
-1.098, 1.616e-4
-1.099, 1.599e-4
-1.100, 1.601e-4
-1.101, 1.610e-4
-1.102, 1.622e-4
-1.103, 1.623e-4
-1.104, 1.600e-4
-1.105, 1.600e-4
-1.106, 1.611e-4
-1.107, 1.628e-4
-1.108, 1.632e-4
-1.109, 1.611e-4
-1.110, 1.600e-4
-1.111, 1.617e-4
-1.112, 1.634e-4
-1.113, 1.635e-4
-1.114, 1.617e-4
-1.115, 1.613e-4
-1.116, 1.632e-4
-1.117, 1.641e-4
-1.118, 1.642e-4
-1.119, 1.626e-4
-1.120, 1.615e-4
-1.121, 1.633e-4
-1.122, 1.658e-4
-1.123, 1.654e-4
-1.124, 1.646e-4
-1.125, 1.635e-4
-1.126, 1.645e-4
-1.127, 1.673e-4
-1.128, 1.669e-4
-1.129, 1.652e-4
-1.130, 1.646e-4
-1.131, 1.660e-4
-1.132, 1.687e-4
-1.133, 1.677e-4
-1.134, 1.660e-4
-1.135, 1.662e-4
-1.136, 1.674e-4
-1.137, 1.699e-4
-1.138, 1.697e-4
-1.139, 1.680e-4
-1.140, 1.678e-4
-1.141, 1.692e-4
-1.142, 1.716e-4
-1.143, 1.717e-4
-1.144, 1.697e-4
-1.145, 1.702e-4
-1.146, 1.722e-4
-1.147, 1.743e-4
-1.148, 1.739e-4
-1.149, 1.721e-4
-1.150, 1.719e-4
-1.151, 1.738e-4
-1.152, 1.762e-4
-1.153, 1.768e-4
-1.154, 1.750e-4
-1.155, 1.745e-4
-1.156, 1.772e-4
-1.157, 1.790e-4
-1.158, 1.793e-4
-1.159, 1.782e-4
-1.160, 1.775e-4
-1.161, 1.805e-4
-1.162, 1.829e-4
-1.163, 1.825e-4
-1.164, 1.818e-4
-1.165, 1.819e-4
-1.166, 1.843e-4
-1.167, 1.868e-4
-1.168, 1.868e-4
-1.169, 1.861e-4
-1.170, 1.864e-4
-1.171, 1.881e-4
-1.172, 1.918e-4
-1.173, 1.919e-4
-1.174, 1.910e-4
-1.175, 1.917e-4
-1.176, 1.943e-4
-1.177, 1.976e-4
-1.178, 1.987e-4
-1.179, 1.970e-4
-1.180, 1.979e-4
-1.181, 2.002e-4
-1.182, 2.036e-4
-1.183, 2.049e-4
-1.184, 2.037e-4
-1.185, 2.055e-4
-1.186, 2.079e-4
-1.187, 2.110e-4
-1.188, 2.125e-4
-1.189, 2.118e-4
-1.190, 2.129e-4
-1.191, 2.167e-4
-1.192, 2.195e-4
-1.193, 2.216e-4
-1.194, 2.217e-4
-1.195, 2.229e-4
-1.196, 2.272e-4
-1.197, 2.305e-4
-1.198, 2.321e-4
-1.199, 2.329e-4
-1.200, 2.342e-4
-1.201, 2.385e-4
-1.202, 2.431e-4
-1.203, 2.455e-4
-1.204, 2.465e-4
-1.205, 2.485e-4
-1.206, 2.526e-4
-1.207, 2.574e-4
-1.208, 2.596e-4
-1.209, 2.616e-4
-1.210, 2.648e-4
-1.211, 2.694e-4
-1.212, 2.753e-4
-1.213, 2.769e-4
-1.214, 2.792e-4
-1.215, 2.822e-4
-1.216, 2.871e-4
-1.217, 2.935e-4
-1.218, 2.972e-4
-1.219, 2.996e-4
-1.220, 3.047e-4
-1.221, 3.100e-4
-1.222, 3.164e-4
-1.223, 3.207e-4
-1.224, 3.233e-4
-1.225, 3.284e-4
-1.226, 3.354e-4
-1.227, 3.430e-4
-1.228, 3.491e-4
-1.229, 3.545e-4
-1.230, 3.584e-4
-1.231, 3.664e-4
-1.232, 3.733e-4
-1.233, 3.792e-4
-1.234, 3.848e-4
-1.235, 3.907e-4
-1.236, 3.998e-4
-1.237, 4.081e-4
-1.238, 4.168e-4
-1.239, 4.229e-4
-1.240, 4.299e-4
-1.241, 4.400e-4
-1.242, 4.494e-4
-1.243, 4.556e-4
-1.244, 4.640e-4
-1.245, 4.727e-4
-1.246, 4.837e-4
-1.247, 4.961e-4
-1.248, 5.058e-4
-1.249, 5.140e-4
-1.250, 5.231e-4
-1.251, 5.354e-4
-1.252, 5.487e-4
-1.253, 5.585e-4
-1.254, 5.688e-4
-1.255, 5.810e-4
-1.256, 5.946e-4
-1.257, 6.093e-4
-1.258, 6.225e-4
-1.259, 6.337e-4
-1.260, 6.471e-4
-1.261, 6.608e-4
-1.262, 6.762e-4
-1.263, 6.903e-4
-1.264, 7.031e-4
-1.265, 7.191e-4
-1.266, 7.365e-4
-1.267, 7.537e-4
-1.268, 7.705e-4
-1.269, 7.845e-4
-1.270, 8.009e-4
-1.271, 8.209e-4
-1.272, 8.408e-4
-1.273, 8.582e-4
-1.274, 8.751e-4
-1.275, 8.938e-4
-1.276, 9.152e-4
-1.277, 9.364e-4
-1.278, 9.566e-4
-1.279, 9.758e-4
-1.280, 9.978e-4
-1.281, 1.021e-3
-1.282, 1.044e-3
-1.283, 1.067e-3
-1.284, 1.088e-3
-1.285, 1.111e-3
-1.286, 1.138e-3
-1.287, 1.166e-3
-1.288, 1.190e-3
-1.289, 1.215e-3
-1.290, 1.241e-3
-1.291, 1.267e-3
-1.292, 1.294e-3
-1.293, 1.319e-3
-1.294, 1.347e-3
-1.295, 1.377e-3
-1.296, 1.409e-3
-1.297, 1.442e-3
-1.298, 1.472e-3
-1.299, 1.500e-3
-1.300, 1.532e-3
-1.301, 1.563e-3
-1.302, 1.594e-3
-1.303, 1.627e-3
-1.304, 1.659e-3
-1.305, 1.695e-3
-1.306, 1.732e-3
-1.307, 1.770e-3
-1.308, 1.804e-3
-1.309, 1.838e-3
-1.310, 1.874e-3
-1.311, 1.912e-3
-1.312, 1.952e-3
-1.313, 1.991e-3
-1.314, 2.029e-3
-1.315, 2.068e-3
-1.316, 2.112e-3
-1.317, 2.154e-3
-1.318, 2.195e-3
-1.319, 2.235e-3
-1.320, 2.276e-3
-1.321, 2.322e-3
-1.322, 2.367e-3
-1.323, 2.411e-3
-1.324, 2.452e-3
-1.325, 2.498e-3
-1.326, 2.548e-3
-1.327, 2.598e-3
-1.328, 2.647e-3
-1.329, 2.699e-3
-1.330, 2.749e-3
-1.331, 2.800e-3
-1.332, 2.846e-3
-1.333, 2.892e-3
-1.334, 2.946e-3
-1.335, 2.995e-3
-1.336, 3.045e-3
-1.337, 3.101e-3
-1.338, 3.159e-3
-1.339, 3.212e-3
-1.340, 3.263e-3
-1.341, 3.316e-3
-1.342, 3.372e-3
-1.343, 3.430e-3
-1.344, 3.485e-3
-1.345, 3.544e-3
-1.346, 3.605e-3
-1.347, 3.667e-3
-1.348, 3.727e-3
-1.349, 3.786e-3
-1.350, 3.847e-3
-1.351, 3.918e-3
-1.352, 3.980e-3
-1.353, 4.041e-3
-1.354, 4.103e-3
-1.355, 4.160e-3
-1.356, 4.223e-3
-1.357, 4.285e-3
-1.358, 4.348e-3
-1.359, 4.416e-3
-1.360, 4.483e-3
-1.361, 4.554e-3
-1.362, 4.623e-3
-1.363, 4.686e-3
-1.364, 4.749e-3
-1.365, 4.815e-3
-1.366, 4.888e-3
-1.367, 4.964e-3
-1.368, 5.034e-3
-1.369, 5.109e-3
-1.370, 5.178e-3
-1.371, 5.247e-3
-1.372, 5.317e-3
-1.373, 5.387e-3
-1.374, 5.461e-3
-1.375, 5.537e-3
-1.376, 5.619e-3
-1.377, 5.697e-3
-1.378, 5.776e-3
-1.379, 5.851e-3
-1.380, 5.926e-3
-1.381, 6.000e-3
-1.382, 6.076e-3
-1.383, 6.145e-3
-1.384, 6.215e-3
-1.385, 6.304e-3
-1.386, 6.387e-3
-1.387, 6.473e-3
-1.388, 6.559e-3
-1.389, 6.631e-3
-1.390, 6.706e-3
-1.391, 6.773e-3
-1.392, 6.874e-3
-1.393, 6.965e-3
-1.394, 7.042e-3
-1.395, 7.134e-3
-1.396, 7.219e-3
-1.397, 7.283e-3
-1.398, 7.351e-3
-1.399, 7.444e-3
-1.400, 7.413e-3
-1.399, 7.288e-3
-1.398, 7.191e-3
-1.397, 7.102e-3
-1.396, 7.016e-3
-1.395, 6.925e-3
-1.394, 6.826e-3
-1.393, 6.729e-3
-1.392, 6.628e-3
-1.391, 6.529e-3
-1.390, 6.442e-3
-1.389, 6.352e-3
-1.388, 6.262e-3
-1.387, 6.172e-3
-1.386, 6.092e-3
-1.385, 6.002e-3
-1.384, 5.919e-3
-1.383, 5.845e-3
-1.382, 5.768e-3
-1.381, 5.677e-3
-1.380, 5.579e-3
-1.379, 5.496e-3
-1.378, 5.424e-3
-1.377, 5.342e-3
-1.376, 5.255e-3
-1.375, 5.182e-3
-1.374, 5.110e-3
-1.373, 5.033e-3
-1.372, 4.948e-3
-1.371, 4.867e-3
-1.370, 4.794e-3
-1.369, 4.723e-3
-1.368, 4.648e-3
-1.367, 4.575e-3
-1.366, 4.502e-3
-1.365, 4.427e-3
-1.364, 4.354e-3
-1.363, 4.286e-3
-1.362, 4.213e-3
-1.361, 4.141e-3
-1.360, 4.076e-3
-1.359, 4.010e-3
-1.358, 3.941e-3
-1.357, 3.873e-3
-1.356, 3.805e-3
-1.355, 3.739e-3
-1.354, 3.676e-3
-1.353, 3.616e-3
-1.352, 3.551e-3
-1.351, 3.482e-3
-1.350, 3.418e-3
-1.349, 3.362e-3
-1.348, 3.305e-3
-1.347, 3.251e-3
-1.346, 3.192e-3
-1.345, 3.135e-3
-1.344, 3.074e-3
-1.343, 3.015e-3
-1.342, 2.958e-3
-1.341, 2.896e-3
-1.340, 2.841e-3
-1.339, 2.787e-3
-1.338, 2.737e-3
-1.337, 2.681e-3
-1.336, 2.629e-3
-1.335, 2.579e-3
-1.334, 2.535e-3
-1.333, 2.484e-3
-1.332, 2.436e-3
-1.331, 2.382e-3
-1.330, 2.330e-3
-1.329, 2.283e-3
-1.328, 2.232e-3
-1.327, 2.179e-3
-1.326, 2.135e-3
-1.325, 2.094e-3
-1.324, 2.054e-3
-1.323, 2.011e-3
-1.322, 1.964e-3
-1.321, 1.912e-3
-1.320, 1.868e-3
-1.319, 1.821e-3
-1.318, 1.770e-3
-1.317, 1.736e-3
-1.316, 1.703e-3
-1.315, 1.667e-3
-1.314, 1.627e-3
-1.313, 1.585e-3
-1.312, 1.545e-3
-1.311, 1.504e-3
-1.310, 1.467e-3
-1.309, 1.433e-3
-1.308, 1.397e-3
-1.307, 1.360e-3
-1.306, 1.322e-3
-1.305, 1.287e-3
-1.304, 1.254e-3
-1.303, 1.222e-3
-1.302, 1.187e-3
-1.301, 1.153e-3
-1.300, 1.120e-3
-1.299, 1.091e-3
-1.298, 1.061e-3
-1.297, 1.030e-3
-1.296, 9.981e-4
-1.295, 9.680e-4
-1.294, 9.398e-4
-1.293, 9.135e-4
-1.292, 8.850e-4
-1.291, 8.551e-4
-1.290, 8.283e-4
-1.289, 8.036e-4
-1.288, 7.791e-4
-1.287, 7.520e-4
-1.286, 7.251e-4
-1.285, 7.007e-4
-1.284, 6.783e-4
-1.283, 6.565e-4
-1.282, 6.327e-4
-1.281, 6.082e-4
-1.280, 5.850e-4
-1.279, 5.648e-4
-1.278, 5.443e-4
-1.277, 5.232e-4
-1.276, 5.014e-4
-1.275, 4.811e-4
-1.274, 4.633e-4
-1.273, 4.457e-4
-1.272, 4.271e-4
-1.271, 4.068e-4
-1.270, 3.880e-4
-1.269, 3.717e-4
-1.268, 3.550e-4
-1.267, 3.377e-4
-1.266, 3.200e-4
-1.265, 3.038e-4
-1.264, 2.911e-4
-1.263, 2.769e-4
-1.262, 2.611e-4
-1.261, 2.448e-4
-1.260, 2.295e-4
-1.259, 2.177e-4
-1.258, 2.054e-4
-1.257, 1.903e-4
-1.256, 1.766e-4
-1.255, 1.641e-4
-1.254, 1.535e-4
-1.253, 1.431e-4
-1.252, 1.306e-4
-1.251, 1.178e-4
-1.250, 1.067e-4
-1.249, 9.762e-5
-1.248, 8.874e-5
-1.247, 7.727e-5
-1.246, 6.561e-5
-1.245, 5.663e-5
-1.244, 4.865e-5
-1.243, 4.124e-5
-1.242, 3.154e-5
-1.241, 2.067e-5
-1.240, 1.286e-5
-1.239, 6.625e-6
-1.238, -2.005e-7
-1.237, -8.294e-6
-1.236, -1.804e-5
-1.235, -2.502e-5
-1.234, -2.990e-5
-1.233, -3.577e-5
-1.232, -4.275e-5
-1.231, -5.063e-5
-1.230, -5.699e-5
-1.229, -6.358e-5
-1.228, -6.737e-5
-1.227, -7.331e-5
-1.226, -7.985e-5
-1.225, -8.515e-5
-1.224, -8.792e-5
-1.223, -9.161e-5
-1.222, -9.750e-5
-1.221, -1.035e-4
-1.220, -1.080e-4
-1.219, -1.105e-4
-1.218, -1.133e-4
-1.217, -1.183e-4
-1.216, -1.231e-4
-1.215, -1.273e-4
-1.214, -1.291e-4
-1.213, -1.310e-4
-1.212, -1.356e-4
-1.211, -1.406e-4
-1.210, -1.437e-4
-1.209, -1.453e-4
-1.208, -1.462e-4
-1.207, -1.504e-4
-1.206, -1.546e-4
-1.205, -1.562e-4
-1.204, -1.579e-4
-1.203, -1.591e-4
-1.202, -1.620e-4
-1.201, -1.662e-4
-1.200, -1.676e-4
-1.199, -1.680e-4
-1.198, -1.690e-4
-1.197, -1.714e-4
-1.196, -1.755e-4
-1.195, -1.773e-4
-1.194, -1.767e-4
-1.193, -1.775e-4
-1.192, -1.796e-4
-1.191, -1.830e-4
-1.190, -1.841e-4
-1.189, -1.833e-4
-1.188, -1.837e-4
-1.187, -1.861e-4
-1.186, -1.887e-4
-1.185, -1.901e-4
-1.184, -1.885e-4
-1.183, -1.889e-4
-1.182, -1.910e-4
-1.181, -1.929e-4
-1.180, -1.942e-4
-1.179, -1.934e-4
-1.178, -1.938e-4
-1.177, -1.959e-4
-1.176, -1.976e-4
-1.175, -1.983e-4
-1.174, -1.972e-4
-1.173, -1.962e-4
-1.172, -1.983e-4
-1.171, -2.002e-4
-1.170, -2.005e-4
-1.169, -1.993e-4
-1.168, -1.980e-4
-1.167, -2.002e-4
-1.166, -2.025e-4
-1.165, -2.032e-4
-1.164, -2.023e-4
-1.163, -2.016e-4
-1.162, -2.045e-4
-1.161, -2.062e-4
-1.160, -2.043e-4
-1.159, -2.025e-4
-1.158, -2.025e-4
-1.157, -2.035e-4
-1.156, -2.058e-4
-1.155, -2.070e-4
-1.154, -2.048e-4
-1.153, -2.048e-4
-1.152, -2.051e-4
-1.151, -2.072e-4
-1.150, -2.076e-4
-1.149, -2.054e-4
-1.148, -2.047e-4
-1.147, -2.050e-4
-1.146, -2.066e-4
-1.145, -2.079e-4
-1.144, -2.050e-4
-1.143, -2.044e-4
-1.142, -2.056e-4
-1.141, -2.077e-4
-1.140, -2.086e-4
-1.139, -2.068e-4
-1.138, -2.049e-4
-1.137, -2.066e-4
-1.136, -2.074e-4
-1.135, -2.077e-4
-1.134, -2.062e-4
-1.133, -2.048e-4
-1.132, -2.063e-4
-1.131, -2.082e-4
-1.130, -2.081e-4
-1.129, -2.068e-4
-1.128, -2.054e-4
-1.127, -2.066e-4
-1.126, -2.087e-4
-1.125, -2.078e-4
-1.124, -2.065e-4
-1.123, -2.056e-4
-1.122, -2.070e-4
-1.121, -2.092e-4
-1.120, -2.080e-4
-1.119, -2.068e-4
-1.118, -2.059e-4
-1.117, -2.067e-4
-1.116, -2.085e-4
-1.115, -2.084e-4
-1.114, -2.066e-4
-1.113, -2.063e-4
-1.112, -2.065e-4
-1.111, -2.090e-4
-1.110, -2.099e-4
-1.109, -2.076e-4
-1.108, -2.071e-4
-1.107, -2.081e-4
-1.106, -2.087e-4
-1.105, -2.088e-4
-1.104, -2.070e-4
-1.103, -2.064e-4
-1.102, -2.083e-4
-1.101, -2.099e-4
-1.100, -2.099e-4
-1.099, -2.086e-4
-1.098, -2.072e-4
-1.097, -2.082e-4
-1.096, -2.092e-4
-1.095, -2.099e-4
-1.094, -2.086e-4
-1.093, -2.072e-4
-1.092, -2.092e-4
-1.091, -2.106e-4
-1.090, -2.105e-4
-1.089, -2.094e-4
-1.088, -2.077e-4
-1.087, -2.092e-4
-1.086, -2.115e-4
-1.085, -2.113e-4
-1.084, -2.101e-4
-1.083, -2.086e-4
-1.082, -2.099e-4
-1.081, -2.123e-4
-1.080, -2.116e-4
-1.079, -2.101e-4
-1.078, -2.094e-4
-1.077, -2.105e-4
-1.076, -2.129e-4
-1.075, -2.139e-4
-1.074, -2.118e-4
-1.073, -2.115e-4
-1.072, -2.118e-4
-1.071, -2.137e-4
-1.070, -2.142e-4
-1.069, -2.120e-4
-1.068, -2.122e-4
-1.067, -2.134e-4
-1.066, -2.150e-4
-1.065, -2.159e-4
-1.064, -2.133e-4
-1.063, -2.127e-4
-1.062, -2.143e-4
-1.061, -2.161e-4
-1.060, -2.163e-4
-1.059, -2.150e-4
-1.058, -2.146e-4
-1.057, -2.162e-4
-1.056, -2.179e-4
-1.055, -2.184e-4
-1.054, -2.171e-4
-1.053, -2.155e-4
-1.052, -2.173e-4
-1.051, -2.193e-4
-1.050, -2.200e-4
-1.049, -2.190e-4
-1.048, -2.182e-4
-1.047, -2.202e-4
-1.046, -2.226e-4
-1.045, -2.223e-4
-1.044, -2.209e-4
-1.043, -2.204e-4
-1.042, -2.215e-4
-1.041, -2.248e-4
-1.040, -2.248e-4
-1.039, -2.240e-4
-1.038, -2.241e-4
-1.037, -2.256e-4
-1.036, -2.279e-4
-1.035, -2.281e-4
-1.034, -2.265e-4
-1.033, -2.272e-4
-1.032, -2.286e-4
-1.031, -2.317e-4
-1.030, -2.323e-4
-1.029, -2.312e-4
-1.028, -2.316e-4
-1.027, -2.338e-4
-1.026, -2.365e-4
-1.025, -2.379e-4
-1.024, -2.369e-4
-1.023, -2.365e-4
-1.022, -2.386e-4
-1.021, -2.408e-4
-1.020, -2.420e-4
-1.019, -2.419e-4
-1.018, -2.422e-4
-1.017, -2.453e-4
-1.016, -2.481e-4
-1.015, -2.492e-4
-1.014, -2.492e-4
-1.013, -2.491e-4
-1.012, -2.523e-4
-1.011, -2.557e-4
-1.010, -2.573e-4
-1.009, -2.577e-4
-1.008, -2.573e-4
-1.007, -2.609e-4
-1.006, -2.653e-4
-1.005, -2.670e-4
-1.004, -2.675e-4
-1.003, -2.686e-4
-1.002, -2.727e-4
-1.001, -2.767e-4
