Sept. 27, 2024   07:46:09
Amperometric i-t Curve
File: c:/users/guazh/data/20240922_batch_417_500/2024-09-22-exp461\exp461deposition-2024-09-27t07_41_49-deposition\exp461deposition_it_edep_-150mv.bin
Data Source:  Experiment
Instrument Model:  CHI760E
Header: 
Note: 

Init E (V) = -1.5
Sample Interval (s) = 0.1
Run Time (sec) = 90
Quiet Time (sec) = 2
Sensitivity (A/V) = 0.001
Comp R (ohm) = 22.6

Results:

Channel 1:

Time/sec, Current/A

1.000e-1, 3.939e-4
2.000e-1, 3.930e-4
3.000e-1, 3.929e-4
4.000e-1, 3.920e-4
5.000e-1, 3.918e-4
6.000e-1, 3.933e-4
7.000e-1, 3.940e-4
8.000e-1, 3.934e-4
9.000e-1, 3.926e-4
1.000e+0, 3.923e-4
1.100e+0, 3.910e-4
1.200e+0, 3.907e-4
1.300e+0, 3.895e-4
1.400e+0, 3.883e-4
1.500e+0, 3.880e-4
1.600e+0, 3.879e-4
1.700e+0, 3.877e-4
1.800e+0, 3.897e-4
1.900e+0, 3.926e-4
2.000e+0, 3.938e-4
2.100e+0, 3.965e-4
2.200e+0, 3.984e-4
2.300e+0, 3.983e-4
2.400e+0, 3.978e-4
2.500e+0, 3.969e-4
2.600e+0, 3.958e-4
2.700e+0, 3.958e-4
2.800e+0, 3.952e-4
2.900e+0, 3.949e-4
3.000e+0, 3.945e-4
3.100e+0, 3.937e-4
3.200e+0, 3.924e-4
3.300e+0, 3.917e-4
3.400e+0, 3.913e-4
3.500e+0, 3.905e-4
3.600e+0, 3.914e-4
3.700e+0, 3.926e-4
3.800e+0, 3.922e-4
3.900e+0, 3.911e-4
4.000e+0, 3.890e-4
4.100e+0, 3.873e-4
4.200e+0, 3.863e-4
4.300e+0, 3.860e-4
4.400e+0, 3.855e-4
4.500e+0, 3.849e-4
4.600e+0, 3.843e-4
4.700e+0, 3.840e-4
4.800e+0, 3.841e-4
4.900e+0, 3.842e-4
5.000e+0, 3.837e-4
5.100e+0, 3.836e-4
5.200e+0, 3.836e-4
5.300e+0, 3.836e-4
5.400e+0, 3.838e-4
5.500e+0, 3.838e-4
5.600e+0, 3.833e-4
5.700e+0, 3.830e-4
5.800e+0, 3.821e-4
5.900e+0, 3.806e-4
6.000e+0, 3.799e-4
6.100e+0, 3.792e-4
6.200e+0, 3.786e-4
6.300e+0, 3.782e-4
6.400e+0, 3.779e-4
6.500e+0, 3.776e-4
6.600e+0, 3.776e-4
6.700e+0, 3.770e-4
6.800e+0, 3.759e-4
6.900e+0, 3.758e-4
7.000e+0, 3.776e-4
7.100e+0, 3.785e-4
7.200e+0, 3.781e-4
7.300e+0, 3.772e-4
7.400e+0, 3.760e-4
7.500e+0, 3.754e-4
7.600e+0, 3.752e-4
7.700e+0, 3.747e-4
7.800e+0, 3.745e-4
7.900e+0, 3.742e-4
8.000e+0, 3.735e-4
8.100e+0, 3.737e-4
8.200e+0, 3.739e-4
8.300e+0, 3.740e-4
8.400e+0, 3.738e-4
8.500e+0, 3.732e-4
8.600e+0, 3.721e-4
8.700e+0, 3.713e-4
8.800e+0, 3.699e-4
8.900e+0, 3.683e-4
9.000e+0, 3.676e-4
9.100e+0, 3.669e-4
9.200e+0, 3.665e-4
9.300e+0, 3.663e-4
9.400e+0, 3.659e-4
9.500e+0, 3.655e-4
9.600e+0, 3.655e-4
9.700e+0, 3.654e-4
9.800e+0, 3.655e-4
9.900e+0, 3.655e-4
1.000e+1, 3.647e-4
1.010e+1, 3.633e-4
1.020e+1, 3.625e-4
1.030e+1, 3.612e-4
1.040e+1, 3.600e-4
1.050e+1, 3.594e-4
1.060e+1, 3.586e-4
1.070e+1, 3.580e-4
1.080e+1, 3.579e-4
1.090e+1, 3.573e-4
1.100e+1, 3.568e-4
1.110e+1, 3.566e-4
1.120e+1, 3.560e-4
1.130e+1, 3.553e-4
1.140e+1, 3.550e-4
1.150e+1, 3.542e-4
1.160e+1, 3.536e-4
1.170e+1, 3.537e-4
1.180e+1, 3.537e-4
1.190e+1, 3.534e-4
1.200e+1, 3.534e-4
1.210e+1, 3.531e-4
1.220e+1, 3.525e-4
1.230e+1, 3.522e-4
1.240e+1, 3.512e-4
1.250e+1, 3.501e-4
1.260e+1, 3.493e-4
1.270e+1, 3.484e-4
1.280e+1, 3.476e-4
1.290e+1, 3.476e-4
1.300e+1, 3.471e-4
1.310e+1, 3.465e-4
1.320e+1, 3.463e-4
1.330e+1, 3.459e-4
1.340e+1, 3.457e-4
1.350e+1, 3.457e-4
1.360e+1, 3.455e-4
1.370e+1, 3.453e-4
1.380e+1, 3.453e-4
1.390e+1, 3.450e-4
1.400e+1, 3.448e-4
1.410e+1, 3.450e-4
1.420e+1, 3.452e-4
1.430e+1, 3.458e-4
1.440e+1, 3.463e-4
1.450e+1, 3.463e-4
1.460e+1, 3.460e-4
1.470e+1, 3.460e-4
1.480e+1, 3.459e-4
1.490e+1, 3.457e-4
1.500e+1, 3.461e-4
1.510e+1, 3.461e-4
1.520e+1, 3.464e-4
1.530e+1, 3.472e-4
1.540e+1, 3.477e-4
1.550e+1, 3.482e-4
1.560e+1, 3.486e-4
1.570e+1, 3.485e-4
1.580e+1, 3.483e-4
1.590e+1, 3.480e-4
1.600e+1, 3.474e-4
1.610e+1, 3.473e-4
1.620e+1, 3.477e-4
1.630e+1, 3.478e-4
1.640e+1, 3.480e-4
1.650e+1, 3.477e-4
1.660e+1, 3.469e-4
1.670e+1, 3.463e-4
1.680e+1, 3.462e-4
1.690e+1, 3.462e-4
1.700e+1, 3.464e-4
1.710e+1, 3.468e-4
1.720e+1, 3.465e-4
1.730e+1, 3.460e-4
1.740e+1, 3.455e-4
1.750e+1, 3.446e-4
1.760e+1, 3.440e-4
1.770e+1, 3.436e-4
1.780e+1, 3.429e-4
1.790e+1, 3.424e-4
1.800e+1, 3.421e-4
1.810e+1, 3.414e-4
1.820e+1, 3.410e-4
1.830e+1, 3.407e-4
1.840e+1, 3.399e-4
1.850e+1, 3.394e-4
1.860e+1, 3.391e-4
1.870e+1, 3.384e-4
1.880e+1, 3.382e-4
1.890e+1, 3.383e-4
1.900e+1, 3.385e-4
1.910e+1, 3.389e-4
1.920e+1, 3.395e-4
1.930e+1, 3.396e-4
1.940e+1, 3.398e-4
1.950e+1, 3.400e-4
1.960e+1, 3.397e-4
1.970e+1, 3.397e-4
1.980e+1, 3.399e-4
1.990e+1, 3.396e-4
2.000e+1, 3.397e-4
2.010e+1, 3.397e-4
2.020e+1, 3.392e-4
2.030e+1, 3.390e-4
2.040e+1, 3.390e-4
2.050e+1, 3.388e-4
2.060e+1, 3.390e-4
2.070e+1, 3.391e-4
2.080e+1, 3.388e-4
2.090e+1, 3.389e-4
2.100e+1, 3.391e-4
2.110e+1, 3.390e-4
2.120e+1, 3.394e-4
2.130e+1, 3.399e-4
2.140e+1, 3.398e-4
2.150e+1, 3.399e-4
2.160e+1, 3.400e-4
2.170e+1, 3.396e-4
2.180e+1, 3.394e-4
2.190e+1, 3.390e-4
2.200e+1, 3.381e-4
2.210e+1, 3.373e-4
2.220e+1, 3.368e-4
2.230e+1, 3.360e-4
2.240e+1, 3.355e-4
2.250e+1, 3.351e-4
2.260e+1, 3.342e-4
2.270e+1, 3.339e-4
2.280e+1, 3.337e-4
2.290e+1, 3.332e-4
2.300e+1, 3.330e-4
2.310e+1, 3.330e-4
2.320e+1, 3.326e-4
2.330e+1, 3.327e-4
2.340e+1, 3.328e-4
2.350e+1, 3.326e-4
2.360e+1, 3.327e-4
2.370e+1, 3.329e-4
2.380e+1, 3.327e-4
2.390e+1, 3.328e-4
2.400e+1, 3.330e-4
2.410e+1, 3.330e-4
2.420e+1, 3.333e-4
2.430e+1, 3.336e-4
2.440e+1, 3.332e-4
2.450e+1, 3.332e-4
2.460e+1, 3.331e-4
2.470e+1, 3.326e-4
2.480e+1, 3.325e-4
2.490e+1, 3.324e-4
2.500e+1, 3.319e-4
2.510e+1, 3.319e-4
2.520e+1, 3.318e-4
2.530e+1, 3.315e-4
2.540e+1, 3.317e-4
2.550e+1, 3.321e-4
2.560e+1, 3.322e-4
2.570e+1, 3.326e-4
2.580e+1, 3.328e-4
2.590e+1, 3.327e-4
2.600e+1, 3.329e-4
2.610e+1, 3.329e-4
2.620e+1, 3.324e-4
2.630e+1, 3.322e-4
2.640e+1, 3.319e-4
2.650e+1, 3.314e-4
2.660e+1, 3.313e-4
2.670e+1, 3.314e-4
2.680e+1, 3.312e-4
2.690e+1, 3.315e-4
2.700e+1, 3.315e-4
2.710e+1, 3.313e-4
2.720e+1, 3.316e-4
2.730e+1, 3.317e-4
2.740e+1, 3.317e-4
2.750e+1, 3.321e-4
2.760e+1, 3.321e-4
2.770e+1, 3.319e-4
2.780e+1, 3.321e-4
2.790e+1, 3.322e-4
2.800e+1, 3.318e-4
2.810e+1, 3.318e-4
2.820e+1, 3.317e-4
2.830e+1, 3.316e-4
2.840e+1, 3.320e-4
2.850e+1, 3.322e-4
2.860e+1, 3.319e-4
2.870e+1, 3.320e-4
2.880e+1, 3.319e-4
2.890e+1, 3.318e-4
2.900e+1, 3.322e-4
2.910e+1, 3.322e-4
2.920e+1, 3.318e-4
2.930e+1, 3.318e-4
2.940e+1, 3.316e-4
2.950e+1, 3.313e-4
2.960e+1, 3.314e-4
2.970e+1, 3.312e-4
2.980e+1, 3.308e-4
2.990e+1, 3.311e-4
3.000e+1, 3.311e-4
3.010e+1, 3.309e-4
3.020e+1, 3.313e-4
3.030e+1, 3.313e-4
3.040e+1, 3.310e-4
3.050e+1, 3.308e-4
3.060e+1, 3.302e-4
3.070e+1, 3.294e-4
3.080e+1, 3.292e-4
3.090e+1, 3.290e-4
3.100e+1, 3.286e-4
3.110e+1, 3.286e-4
3.120e+1, 3.284e-4
3.130e+1, 3.281e-4
3.140e+1, 3.284e-4
3.150e+1, 3.285e-4
3.160e+1, 3.285e-4
3.170e+1, 3.288e-4
3.180e+1, 3.287e-4
3.190e+1, 3.284e-4
3.200e+1, 3.284e-4
3.210e+1, 3.284e-4
3.220e+1, 3.283e-4
3.230e+1, 3.286e-4
3.240e+1, 3.286e-4
3.250e+1, 3.285e-4
3.260e+1, 3.287e-4
3.270e+1, 3.285e-4
3.280e+1, 3.283e-4
3.290e+1, 3.284e-4
3.300e+1, 3.282e-4
3.310e+1, 3.279e-4
3.320e+1, 3.281e-4
3.330e+1, 3.278e-4
3.340e+1, 3.276e-4
3.350e+1, 3.277e-4
3.360e+1, 3.275e-4
3.370e+1, 3.273e-4
3.380e+1, 3.276e-4
3.390e+1, 3.275e-4
3.400e+1, 3.273e-4
3.410e+1, 3.274e-4
3.420e+1, 3.273e-4
3.430e+1, 3.272e-4
3.440e+1, 3.273e-4
3.450e+1, 3.271e-4
3.460e+1, 3.270e-4
3.470e+1, 3.270e-4
3.480e+1, 3.267e-4
3.490e+1, 3.264e-4
3.500e+1, 3.266e-4
3.510e+1, 3.264e-4
3.520e+1, 3.264e-4
3.530e+1, 3.266e-4
3.540e+1, 3.266e-4
3.550e+1, 3.267e-4
3.560e+1, 3.270e-4
3.570e+1, 3.269e-4
3.580e+1, 3.268e-4
3.590e+1, 3.269e-4
3.600e+1, 3.266e-4
3.610e+1, 3.262e-4
3.620e+1, 3.260e-4
3.630e+1, 3.256e-4
3.640e+1, 3.252e-4
3.650e+1, 3.251e-4
3.660e+1, 3.247e-4
3.670e+1, 3.244e-4
3.680e+1, 3.245e-4
3.690e+1, 3.242e-4
3.700e+1, 3.240e-4
3.710e+1, 3.242e-4
3.720e+1, 3.240e-4
3.730e+1, 3.240e-4
3.740e+1, 3.242e-4
3.750e+1, 3.241e-4
3.760e+1, 3.240e-4
3.770e+1, 3.242e-4
3.780e+1, 3.240e-4
3.790e+1, 3.241e-4
3.800e+1, 3.243e-4
3.810e+1, 3.240e-4
3.820e+1, 3.239e-4
3.830e+1, 3.240e-4
3.840e+1, 3.236e-4
3.850e+1, 3.234e-4
3.860e+1, 3.234e-4
3.870e+1, 3.231e-4
3.880e+1, 3.229e-4
3.890e+1, 3.230e-4
3.900e+1, 3.227e-4
3.910e+1, 3.225e-4
3.920e+1, 3.225e-4
3.930e+1, 3.221e-4
3.940e+1, 3.219e-4
3.950e+1, 3.219e-4
3.960e+1, 3.216e-4
3.970e+1, 3.216e-4
3.980e+1, 3.218e-4
3.990e+1, 3.217e-4
4.000e+1, 3.217e-4
4.010e+1, 3.219e-4
4.020e+1, 3.217e-4
4.030e+1, 3.218e-4
4.040e+1, 3.221e-4
4.050e+1, 3.219e-4
4.060e+1, 3.219e-4
4.070e+1, 3.221e-4
4.080e+1, 3.218e-4
4.090e+1, 3.217e-4
4.100e+1, 3.218e-4
4.110e+1, 3.214e-4
4.120e+1, 3.214e-4
4.130e+1, 3.217e-4
4.140e+1, 3.216e-4
4.150e+1, 3.217e-4
4.160e+1, 3.219e-4
4.170e+1, 3.215e-4
4.180e+1, 3.214e-4
4.190e+1, 3.213e-4
4.200e+1, 3.208e-4
4.210e+1, 3.206e-4
4.220e+1, 3.206e-4
4.230e+1, 3.203e-4
4.240e+1, 3.203e-4
4.250e+1, 3.205e-4
4.260e+1, 3.203e-4
4.270e+1, 3.204e-4
4.280e+1, 3.206e-4
4.290e+1, 3.205e-4
4.300e+1, 3.206e-4
4.310e+1, 3.208e-4
4.320e+1, 3.206e-4
4.330e+1, 3.207e-4
4.340e+1, 3.209e-4
4.350e+1, 3.207e-4
4.360e+1, 3.207e-4
4.370e+1, 3.209e-4
4.380e+1, 3.206e-4
4.390e+1, 3.206e-4
4.400e+1, 3.206e-4
4.410e+1, 3.202e-4
4.420e+1, 3.201e-4
4.430e+1, 3.200e-4
4.440e+1, 3.196e-4
4.450e+1, 3.195e-4
4.460e+1, 3.195e-4
4.470e+1, 3.192e-4
4.480e+1, 3.192e-4
4.490e+1, 3.191e-4
4.500e+1, 3.189e-4
4.510e+1, 3.190e-4
4.520e+1, 3.191e-4
4.530e+1, 3.187e-4
4.540e+1, 3.187e-4
4.550e+1, 3.188e-4
4.560e+1, 3.185e-4
4.570e+1, 3.186e-4
4.580e+1, 3.187e-4
4.590e+1, 3.184e-4
4.600e+1, 3.185e-4
4.610e+1, 3.185e-4
4.620e+1, 3.181e-4
4.630e+1, 3.182e-4
4.640e+1, 3.182e-4
4.650e+1, 3.179e-4
4.660e+1, 3.180e-4
4.670e+1, 3.180e-4
4.680e+1, 3.177e-4
4.690e+1, 3.178e-4
4.700e+1, 3.179e-4
4.710e+1, 3.176e-4
4.720e+1, 3.177e-4
4.730e+1, 3.180e-4
4.740e+1, 3.171e-4
4.750e+1, 3.171e-4
4.760e+1, 3.185e-4
4.770e+1, 3.183e-4
4.780e+1, 3.185e-4
4.790e+1, 3.186e-4
4.800e+1, 3.184e-4
4.810e+1, 3.186e-4
4.820e+1, 3.187e-4
4.830e+1, 3.185e-4
4.840e+1, 3.187e-4
4.850e+1, 3.187e-4
4.860e+1, 3.185e-4
4.870e+1, 3.186e-4
4.880e+1, 3.187e-4
4.890e+1, 3.184e-4
4.900e+1, 3.186e-4
4.910e+1, 3.185e-4
4.920e+1, 3.182e-4
4.930e+1, 3.184e-4
4.940e+1, 3.184e-4
4.950e+1, 3.181e-4
4.960e+1, 3.182e-4
4.970e+1, 3.180e-4
4.980e+1, 3.176e-4
4.990e+1, 3.177e-4
5.000e+1, 3.175e-4
5.010e+1, 3.171e-4
5.020e+1, 3.170e-4
5.030e+1, 3.169e-4
5.040e+1, 3.164e-4
5.050e+1, 3.165e-4
5.060e+1, 3.164e-4
5.070e+1, 3.161e-4
5.080e+1, 3.164e-4
5.090e+1, 3.165e-4
5.100e+1, 3.162e-4
5.110e+1, 3.163e-4
5.120e+1, 3.161e-4
5.130e+1, 3.158e-4
5.140e+1, 3.159e-4
5.150e+1, 3.158e-4
5.160e+1, 3.155e-4
5.170e+1, 3.157e-4
5.180e+1, 3.156e-4
5.190e+1, 3.153e-4
5.200e+1, 3.154e-4
5.210e+1, 3.153e-4
5.220e+1, 3.151e-4
5.230e+1, 3.153e-4
5.240e+1, 3.152e-4
5.250e+1, 3.150e-4
5.260e+1, 3.153e-4
5.270e+1, 3.154e-4
5.280e+1, 3.153e-4
5.290e+1, 3.156e-4
5.300e+1, 3.157e-4
5.310e+1, 3.155e-4
5.320e+1, 3.156e-4
5.330e+1, 3.155e-4
5.340e+1, 3.152e-4
5.350e+1, 3.153e-4
5.360e+1, 3.153e-4
5.370e+1, 3.151e-4
5.380e+1, 3.152e-4
5.390e+1, 3.153e-4
5.400e+1, 3.150e-4
5.410e+1, 3.152e-4
5.420e+1, 3.151e-4
5.430e+1, 3.148e-4
5.440e+1, 3.150e-4
5.450e+1, 3.149e-4
5.460e+1, 3.146e-4
5.470e+1, 3.149e-4
5.480e+1, 3.149e-4
5.490e+1, 3.146e-4
5.500e+1, 3.147e-4
5.510e+1, 3.145e-4
5.520e+1, 3.142e-4
5.530e+1, 3.142e-4
5.540e+1, 3.142e-4
5.550e+1, 3.140e-4
5.560e+1, 3.141e-4
5.570e+1, 3.139e-4
5.580e+1, 3.136e-4
5.590e+1, 3.136e-4
5.600e+1, 3.134e-4
5.610e+1, 3.131e-4
5.620e+1, 3.132e-4
5.630e+1, 3.130e-4
5.640e+1, 3.128e-4
5.650e+1, 3.130e-4
5.660e+1, 3.129e-4
5.670e+1, 3.127e-4
5.680e+1, 3.130e-4
5.690e+1, 3.129e-4
5.700e+1, 3.128e-4
5.710e+1, 3.130e-4
5.720e+1, 3.130e-4
5.730e+1, 3.137e-4
5.740e+1, 3.144e-4
5.750e+1, 3.144e-4
5.760e+1, 3.144e-4
5.770e+1, 3.147e-4
5.780e+1, 3.147e-4
5.790e+1, 3.145e-4
5.800e+1, 3.146e-4
5.810e+1, 3.143e-4
5.820e+1, 3.140e-4
5.830e+1, 3.140e-4
5.840e+1, 3.138e-4
5.850e+1, 3.136e-4
5.860e+1, 3.139e-4
5.870e+1, 3.137e-4
5.880e+1, 3.136e-4
5.890e+1, 3.137e-4
5.900e+1, 3.136e-4
5.910e+1, 3.133e-4
5.920e+1, 3.134e-4
5.930e+1, 3.132e-4
5.940e+1, 3.131e-4
5.950e+1, 3.132e-4
5.960e+1, 3.131e-4
5.970e+1, 3.129e-4
5.980e+1, 3.131e-4
5.990e+1, 3.129e-4
6.000e+1, 3.128e-4
6.010e+1, 3.130e-4
6.020e+1, 3.128e-4
6.030e+1, 3.126e-4
6.040e+1, 3.128e-4
6.050e+1, 3.126e-4
6.060e+1, 3.125e-4
6.070e+1, 3.127e-4
6.080e+1, 3.126e-4
6.090e+1, 3.126e-4
6.100e+1, 3.128e-4
6.110e+1, 3.127e-4
6.120e+1, 3.126e-4
6.130e+1, 3.129e-4
6.140e+1, 3.128e-4
6.150e+1, 3.127e-4
6.160e+1, 3.130e-4
6.170e+1, 3.128e-4
6.180e+1, 3.127e-4
6.190e+1, 3.129e-4
6.200e+1, 3.127e-4
6.210e+1, 3.126e-4
6.220e+1, 3.128e-4
6.230e+1, 3.128e-4
6.240e+1, 3.128e-4
6.250e+1, 3.130e-4
6.260e+1, 3.128e-4
6.270e+1, 3.128e-4
6.280e+1, 3.131e-4
6.290e+1, 3.130e-4
6.300e+1, 3.130e-4
6.310e+1, 3.132e-4
6.320e+1, 3.130e-4
6.330e+1, 3.130e-4
6.340e+1, 3.132e-4
6.350e+1, 3.131e-4
6.360e+1, 3.130e-4
6.370e+1, 3.132e-4
6.380e+1, 3.130e-4
6.390e+1, 3.130e-4
6.400e+1, 3.132e-4
6.410e+1, 3.130e-4
6.420e+1, 3.130e-4
6.430e+1, 3.132e-4
6.440e+1, 3.130e-4
6.450e+1, 3.130e-4
6.460e+1, 3.133e-4
6.470e+1, 3.132e-4
6.480e+1, 3.133e-4
6.490e+1, 3.135e-4
6.500e+1, 3.134e-4
6.510e+1, 3.136e-4
6.520e+1, 3.137e-4
6.530e+1, 3.135e-4
6.540e+1, 3.135e-4
6.550e+1, 3.136e-4
6.560e+1, 3.133e-4
6.570e+1, 3.132e-4
6.580e+1, 3.133e-4
6.590e+1, 3.129e-4
6.600e+1, 3.129e-4
6.610e+1, 3.131e-4
6.620e+1, 3.129e-4
6.630e+1, 3.130e-4
6.640e+1, 3.132e-4
6.650e+1, 3.129e-4
6.660e+1, 3.130e-4
6.670e+1, 3.131e-4
6.680e+1, 3.128e-4
6.690e+1, 3.128e-4
6.700e+1, 3.128e-4
6.710e+1, 3.125e-4
6.720e+1, 3.124e-4
6.730e+1, 3.124e-4
6.740e+1, 3.121e-4
6.750e+1, 3.121e-4
6.760e+1, 3.121e-4
6.770e+1, 3.118e-4
6.780e+1, 3.118e-4
6.790e+1, 3.118e-4
6.800e+1, 3.115e-4
6.810e+1, 3.115e-4
6.820e+1, 3.116e-4
6.830e+1, 3.113e-4
6.840e+1, 3.113e-4
6.850e+1, 3.114e-4
6.860e+1, 3.111e-4
6.870e+1, 3.112e-4
6.880e+1, 3.113e-4
6.890e+1, 3.111e-4
6.900e+1, 3.112e-4
6.910e+1, 3.113e-4
6.920e+1, 3.110e-4
6.930e+1, 3.111e-4
6.940e+1, 3.111e-4
6.950e+1, 3.108e-4
6.960e+1, 3.108e-4
6.970e+1, 3.108e-4
6.980e+1, 3.105e-4
6.990e+1, 3.105e-4
7.000e+1, 3.105e-4
7.010e+1, 3.103e-4
7.020e+1, 3.104e-4
7.030e+1, 3.105e-4
7.040e+1, 3.103e-4
7.050e+1, 3.104e-4
7.060e+1, 3.104e-4
7.070e+1, 3.102e-4
7.080e+1, 3.103e-4
7.090e+1, 3.104e-4
7.100e+1, 3.102e-4
7.110e+1, 3.103e-4
7.120e+1, 3.103e-4
7.130e+1, 3.100e-4
7.140e+1, 3.100e-4
7.150e+1, 3.100e-4
7.160e+1, 3.097e-4
7.170e+1, 3.097e-4
7.180e+1, 3.097e-4
7.190e+1, 3.093e-4
7.200e+1, 3.093e-4
7.210e+1, 3.092e-4
7.220e+1, 3.089e-4
7.230e+1, 3.089e-4
7.240e+1, 3.089e-4
7.250e+1, 3.087e-4
7.260e+1, 3.088e-4
7.270e+1, 3.088e-4
7.280e+1, 3.085e-4
7.290e+1, 3.086e-4
7.300e+1, 3.086e-4
7.310e+1, 3.083e-4
7.320e+1, 3.084e-4
7.330e+1, 3.084e-4
7.340e+1, 3.082e-4
7.350e+1, 3.083e-4
7.360e+1, 3.083e-4
7.370e+1, 3.081e-4
7.380e+1, 3.082e-4
7.390e+1, 3.083e-4
7.400e+1, 3.081e-4
7.410e+1, 3.084e-4
7.420e+1, 3.085e-4
7.430e+1, 3.083e-4
7.440e+1, 3.085e-4
7.450e+1, 3.086e-4
7.460e+1, 3.083e-4
7.470e+1, 3.084e-4
7.480e+1, 3.085e-4
7.490e+1, 3.083e-4
7.500e+1, 3.085e-4
7.510e+1, 3.085e-4
7.520e+1, 3.081e-4
7.530e+1, 3.082e-4
7.540e+1, 3.080e-4
7.550e+1, 3.077e-4
7.560e+1, 3.078e-4
7.570e+1, 3.077e-4
7.580e+1, 3.074e-4
7.590e+1, 3.075e-4
7.600e+1, 3.073e-4
7.610e+1, 3.070e-4
7.620e+1, 3.072e-4
7.630e+1, 3.070e-4
7.640e+1, 3.067e-4
7.650e+1, 3.067e-4
7.660e+1, 3.066e-4
7.670e+1, 3.062e-4
7.680e+1, 3.063e-4
7.690e+1, 3.061e-4
7.700e+1, 3.058e-4
7.710e+1, 3.059e-4
7.720e+1, 3.057e-4
7.730e+1, 3.054e-4
7.740e+1, 3.054e-4
7.750e+1, 3.053e-4
7.760e+1, 3.050e-4
7.770e+1, 3.050e-4
7.780e+1, 3.049e-4
7.790e+1, 3.045e-4
7.800e+1, 3.046e-4
7.810e+1, 3.045e-4
7.820e+1, 3.042e-4
7.830e+1, 3.044e-4
7.840e+1, 3.042e-4
7.850e+1, 3.040e-4
7.860e+1, 3.042e-4
7.870e+1, 3.040e-4
7.880e+1, 3.038e-4
7.890e+1, 3.040e-4
7.900e+1, 3.039e-4
7.910e+1, 3.037e-4
7.920e+1, 3.039e-4
7.930e+1, 3.039e-4
7.940e+1, 3.037e-4
7.950e+1, 3.038e-4
7.960e+1, 3.037e-4
7.970e+1, 3.034e-4
7.980e+1, 3.035e-4
7.990e+1, 3.033e-4
8.000e+1, 3.030e-4
8.010e+1, 3.031e-4
8.020e+1, 3.029e-4
8.030e+1, 3.026e-4
8.040e+1, 3.027e-4
8.050e+1, 3.025e-4
8.060e+1, 3.023e-4
8.070e+1, 3.024e-4
8.080e+1, 3.022e-4
8.090e+1, 3.020e-4
8.100e+1, 3.021e-4
8.110e+1, 3.019e-4
8.120e+1, 3.015e-4
8.130e+1, 3.016e-4
8.140e+1, 3.013e-4
8.150e+1, 3.011e-4
8.160e+1, 3.013e-4
8.170e+1, 3.011e-4
8.180e+1, 3.009e-4
8.190e+1, 3.010e-4
8.200e+1, 3.008e-4
8.210e+1, 3.006e-4
8.220e+1, 3.007e-4
8.230e+1, 3.006e-4
8.240e+1, 3.004e-4
8.250e+1, 3.005e-4
8.260e+1, 3.003e-4
8.270e+1, 3.001e-4
8.280e+1, 3.001e-4
8.290e+1, 2.998e-4
8.300e+1, 2.996e-4
8.310e+1, 2.996e-4
8.320e+1, 2.993e-4
8.330e+1, 2.991e-4
8.340e+1, 2.992e-4
8.350e+1, 2.990e-4
8.360e+1, 2.988e-4
8.370e+1, 2.989e-4
8.380e+1, 2.986e-4
8.390e+1, 2.985e-4
8.400e+1, 2.986e-4
8.410e+1, 2.985e-4
8.420e+1, 2.983e-4
8.430e+1, 2.984e-4
8.440e+1, 2.982e-4
8.450e+1, 2.981e-4
8.460e+1, 2.983e-4
8.470e+1, 2.981e-4
8.480e+1, 2.981e-4
8.490e+1, 2.982e-4
8.500e+1, 2.980e-4
8.510e+1, 2.979e-4
8.520e+1, 2.981e-4
8.530e+1, 2.980e-4
8.540e+1, 2.978e-4
8.550e+1, 2.979e-4
8.560e+1, 2.977e-4
8.570e+1, 2.975e-4
8.580e+1, 2.976e-4
8.590e+1, 2.973e-4
8.600e+1, 2.972e-4
8.610e+1, 2.973e-4
8.620e+1, 2.971e-4
8.630e+1, 2.971e-4
8.640e+1, 2.973e-4
8.650e+1, 2.972e-4
8.660e+1, 2.971e-4
8.670e+1, 2.973e-4
8.680e+1, 2.972e-4
8.690e+1, 2.971e-4
8.700e+1, 2.972e-4
8.710e+1, 2.971e-4
8.720e+1, 2.971e-4
8.730e+1, 2.973e-4
8.740e+1, 2.970e-4
8.750e+1, 2.970e-4
8.760e+1, 2.971e-4
8.770e+1, 2.968e-4
8.780e+1, 2.967e-4
8.790e+1, 2.968e-4
8.800e+1, 2.966e-4
8.810e+1, 2.965e-4
8.820e+1, 2.967e-4
8.830e+1, 2.964e-4
8.840e+1, 2.964e-4
8.850e+1, 2.965e-4
8.860e+1, 2.962e-4
8.870e+1, 2.961e-4
8.880e+1, 2.962e-4
8.890e+1, 2.960e-4
8.900e+1, 2.963e-4
8.910e+1, 2.967e-4
8.920e+1, 2.964e-4
8.930e+1, 2.963e-4
8.940e+1, 2.964e-4
8.950e+1, 2.961e-4
8.960e+1, 2.961e-4
8.970e+1, 2.962e-4
8.980e+1, 2.959e-4
8.990e+1, 2.960e-4
9.000e+1, 2.961e-4
