Potential V vs RHE, Current mA cm-2
0.013299999999999867,-0.4384190318281749
0.012299999999999978,-2.095187435100119
0.011299999999999866,-3.5353635383627267
0.010299999999999976,-4.756259390146253
0.009299999999999864,-5.847001802342197
0.008299999999999974,-6.762320013354876
0.007299999999999862,-7.591340835075788
0.006299999999999972,-8.376505606500881
0.00529999999999986,-9.073958277334345
0.0042999999999999705,-9.728969609171857
0.0032999999999998586,-10.296268840417738
0.0022999999999999687,-10.775855971071984
0.0012999999999998568,-11.1677310011346
0.00029999999999996696,-11.473308641905447
-0.000700000000000145,-11.82274233297211
-0.0017000000000000348,-12.12831997374296
-0.0027000000000001467,-12.390041564217992
-0.0037000000000000366,-12.651763154693022
-0.0047000000000001485,-12.913484745168056
-0.005700000000000038,-13.087494235051453
-0.00670000000000015,-13.261503724934855
-0.00770000000000004,-13.3930718758223
-0.008700000000000152,-13.523225315409885
-0.009700000000000042,-13.610937416001518
-0.010700000000000154,-13.784946905884919
-0.011700000000000044,-13.916515056772363
-0.012700000000000156,-14.046668496359947
-0.013700000000000045,-14.090524546655764
-0.014700000000000157,-14.13438059695158
-0.015700000000000047,-14.175407224647667
-0.01670000000000016,-14.13438059695158
-0.01770000000000005,-14.175407224647667
-0.01870000000000016,-14.217848563643619
-0.01970000000000005,-14.30273124163552
-0.020700000000000163,-14.401761032626075
-0.021700000000000053,-14.486643710617974
-0.022700000000000164,-14.529085049613924
-0.023700000000000054,-14.529085049613924
-0.024700000000000166,-14.57152638860988
-0.025700000000000056,-14.529085049613924
-0.026700000000000168,-14.57152638860988
-0.027700000000000058,-14.61396772760583
-0.02870000000000017,-14.69885040559773
-0.02970000000000006,-14.69885040559773
-0.03070000000000017,-14.741291744593681
-0.03170000000000006,-14.69885040559773
-0.03270000000000017,-14.69885040559773
-0.03370000000000006,-14.65640906660178
-0.034700000000000175,-14.61396772760583
-0.035700000000000065,-14.65640906660178
-0.03670000000000018,-14.65640906660178
-0.03770000000000007,-14.69885040559773
-0.03870000000000018,-14.69885040559773
-0.03970000000000007,-14.65640906660178
-0.04070000000000018,-14.65640906660178
-0.04170000000000007,-14.61396772760583
-0.04270000000000018,-14.61396772760583
-0.04370000000000007,-14.65640906660178
-0.044700000000000184,-14.69885040559773
-0.045700000000000074,-14.741291744593681
-0.046700000000000186,-14.783733083589633
-0.047700000000000076,-14.783733083589633
-0.04870000000000019,-14.783733083589633
-0.04970000000000008,-14.741291744593681
-0.05070000000000019,-14.69885040559773
-0.05170000000000008,-14.69885040559773
-0.05270000000000019,-14.741291744593681
-0.05370000000000008,-14.741291744593681
-0.05470000000000019,-14.783733083589633
-0.05570000000000008,-14.741291744593681
-0.056700000000000195,-14.69885040559773
-0.057700000000000085,-14.69885040559773
-0.058700000000000196,-14.65640906660178
-0.059700000000000086,-14.65640906660178
-0.0607000000000002,-14.69885040559773
-0.06170000000000009,-14.783733083589633
-0.0627000000000002,-14.868615761581536
-0.06370000000000009,-14.925204213576137
-0.0647000000000002,-14.868615761581536
-0.06570000000000009,-14.868615761581536
-0.0667000000000002,-14.783733083589633
-0.0677000000000001,-14.741291744593681
-0.0687000000000002,-14.741291744593681
-0.0697000000000001,-14.783733083589633
-0.07070000000000021,-14.826174422585586
-0.0717000000000001,-14.826174422585586
-0.07270000000000021,-14.868615761581536
-0.0737000000000001,-14.826174422585586
-0.07470000000000021,-14.741291744593681
-0.0757000000000001,-14.741291744593681
-0.07670000000000021,-14.741291744593681
-0.0777000000000001,-14.741291744593681
-0.07870000000000021,-14.783733083589633
-0.0797000000000001,-14.783733083589633
-0.08070000000000022,-14.783733083589633
-0.0817000000000001,-14.783733083589633
-0.08270000000000022,-14.741291744593681
-0.08370000000000011,-14.69885040559773
-0.08470000000000022,-14.69885040559773
-0.08570000000000011,-14.741291744593681
-0.08670000000000022,-14.741291744593681
-0.08770000000000011,-14.783733083589633
-0.08870000000000022,-14.783733083589633
-0.08970000000000011,-14.741291744593681
-0.09070000000000022,-14.69885040559773
-0.09170000000000011,-14.69885040559773
-0.09270000000000023,-14.65640906660178
-0.09370000000000012,-14.69885040559773
-0.09470000000000023,-14.741291744593681
-0.09570000000000012,-14.783733083589633
-0.09670000000000023,-14.826174422585586
-0.09770000000000012,-14.826174422585586
-0.09870000000000023,-14.783733083589633
-0.09970000000000012,-14.741291744593681
-0.10070000000000023,-14.69885040559773
-0.10170000000000012,-14.69885040559773
-0.10270000000000024,-14.783733083589633
-0.10370000000000013,-14.826174422585586
-0.10470000000000024,-14.925204213576137
-0.10570000000000013,-14.925204213576137
-0.10670000000000024,-14.868615761581536
-0.10770000000000013,-14.868615761581536
-0.10870000000000024,-14.826174422585586
-0.10970000000000013,-14.826174422585586
-0.11070000000000024,-14.826174422585586
-0.11170000000000013,-14.868615761581536
-0.11270000000000002,-14.925204213576137
-0.11370000000000013,-14.925204213576137
-0.11470000000000002,-14.868615761581536
-0.11570000000000014,-14.826174422585586
-0.11670000000000003,-14.741291744593681
-0.11770000000000014,-14.741291744593681
-0.11870000000000003,-14.783733083589633
-0.11970000000000014,-14.826174422585586
-0.12070000000000003,-14.925204213576137
-0.12170000000000014,-15.01008689156804
-0.12270000000000003,-15.01008689156804
-0.12370000000000014,-14.967645552572087
-0.12470000000000003,-14.868615761581536
-0.12570000000000014,-14.783733083589633
-0.12670000000000003,-14.783733083589633
-0.12770000000000015,-14.783733083589633
-0.12870000000000004,-14.868615761581536
-0.12970000000000015,-14.925204213576137
-0.13070000000000004,-14.967645552572087
-0.13170000000000015,-15.01008689156804
-0.13270000000000004,-15.01008689156804
-0.13370000000000015,-15.05252823056399
-0.13470000000000004,-15.094969569559943
-0.13570000000000015,-15.094969569559943
-0.13670000000000004,-15.01008689156804
-0.13770000000000016,-14.967645552572087
-0.13870000000000005,-14.868615761581536
-0.13970000000000016,-14.783733083589633
-0.14070000000000005,-14.69885040559773
-0.14170000000000016,-14.61396772760583
-0.14270000000000005,-14.69885040559773
-0.14370000000000016,-14.967645552572087
-0.14470000000000005,-15.222293586547794
-0.14570000000000016,-15.448647394526201
-0.14670000000000005,-15.448647394526201
-0.14770000000000016,-15.448647394526201
-0.14870000000000005,-15.349617603535648
-0.14970000000000017,-15.179852247551842
-0.15070000000000006,-15.05252823056399
-0.15170000000000017,-14.925204213576137
-0.15270000000000006,-14.826174422585586
-0.15370000000000017,-14.868615761581536
-0.15470000000000006,-14.967645552572087
-0.15570000000000017,-15.05252823056399
-0.15670000000000006,-15.137410908555893
-0.15770000000000017,-15.222293586547794
-0.15870000000000006,-15.264734925543747
-0.15970000000000018,-15.264734925543747
-0.16070000000000007,-15.307176264539699
-0.16170000000000018,-15.3920589425316
-0.16270000000000007,-15.448647394526201
-0.16370000000000018,-15.491088733522153
-0.16470000000000007,-15.533530072518102
-0.16570000000000018,-15.491088733522153
-0.16670000000000007,-15.491088733522153
-0.16770000000000018,-15.491088733522153
-0.16870000000000007,-15.491088733522153
-0.16970000000000018,-15.533530072518102
-0.17070000000000007,-15.533530072518102
-0.17170000000000019,-15.575971411514052
-0.17270000000000008,-15.533530072518102
-0.1737000000000002,-15.575971411514052
-0.17470000000000008,-15.533530072518102
-0.1757000000000002,-15.575971411514052
-0.17670000000000008,-15.618412750510005
-0.1777000000000002,-15.660854089505953
-0.17870000000000008,-15.74573676749786
-0.1797000000000002,-15.830619445489761
-0.18070000000000008,-15.87306078448571
-0.1817000000000002,-15.87306078448571
-0.18270000000000008,-15.87306078448571
-0.1837000000000002,-15.87306078448571
-0.1847000000000001,-15.91550212348166
-0.1857000000000002,-15.972090575476265
-0.1867000000000001,-16.056973253468165
-0.1877000000000002,-16.184297270456018
-0.1887000000000001,-16.22673860945197
-0.1897000000000002,-16.269179948447924
-0.1907000000000001,-16.269179948447924
-0.1917000000000001,-16.269179948447924
-0.19269999999999998,-16.269179948447924
-0.1937000000000001,-16.311621287443874
-0.19469999999999998,-16.311621287443874
-0.1957000000000001,-16.354062626439823
-0.19669999999999999,-16.438945304431726
-0.1977000000000001,-16.438945304431726
-0.1987,-16.495533756426326
-0.1997000000000001,-16.53797509542228
-0.2007,-16.622857773414182
-0.2017000000000001,-16.70774045140608
-0.2027,-16.835064468393938
-0.2037000000000001,-17.018976937376394
-0.2047,-17.146300954364243
-0.2057000000000001,-17.231183632356142
-0.2067,-17.2736249713521
-0.2077000000000001,-17.2736249713521
-0.2087,-17.2736249713521
-0.2097000000000001,-17.316066310348052
-0.2107,-17.358507649344002
-0.2117000000000001,-17.4433903273359
-0.2127,-17.584861457322408
-0.2137000000000001,-17.627302796318357
-0.2147,-17.71218547431026
-0.2157000000000001,-17.797068152302163
-0.2167,-17.881950830294063
-0.21770000000000012,-17.924392169290012
-0.2187,-18.06586329927652
-0.21970000000000012,-18.19318731626437
-0.2207,-18.320511333252224
-0.22170000000000012,-18.49027668923603
-0.2227,-18.589306480226583
-0.22370000000000012,-18.631747819222536
-0.2247,-18.674189158218486
-0.22570000000000012,-18.80151317520634
-0.2267,-18.88639585319824
-0.22770000000000012,-19.056161209182044
-0.22870000000000001,-19.197632339168546
-0.22970000000000013,-19.367397695152352
-0.23070000000000002,-19.49472171214021
-0.23170000000000013,-19.579604390132108
-0.23270000000000002,-19.678634181122664
-0.23370000000000013,-19.805958198110513
-0.23470000000000002,-19.93328221509837
-0.23570000000000013,-20.159636023076775
-0.23670000000000002,-20.371842718056527
-0.2376999999999999,-20.626490752032236
-0.23870000000000002,-20.89528589900659
-0.2396999999999999,-21.107492593986347
-0.24070000000000003,-21.333846401964752
-0.24169999999999991,-21.461170418952605
-0.24270000000000003,-21.58849443594046
-0.24369999999999992,-21.729965565926964
-0.24470000000000003,-21.857289582914817
-0.24569999999999992,-21.98461359990267
-0.24670000000000003,-22.111937616890522
-0.24769999999999992,-22.253408746877028
-0.24870000000000003,-22.38073276386488
-0.24969999999999992,-22.508056780852733
-0.25070000000000003,-22.67782213683654
-0.2516999999999999,-22.946617283810895
-0.25270000000000004,-23.24370665678255
-0.2536999999999999,-23.55494314275286
-0.25470000000000004,-23.908620967719123
-0.2556999999999999,-24.20571034069078
-0.25670000000000004,-24.516946826661083
-0.25769999999999993,-24.729153521640843
-0.25870000000000004,-24.95550732961925
-0.25969999999999993,-25.167714024599
-0.26070000000000004,-25.39406783257741
-0.26169999999999993,-25.60627452755716
-0.26270000000000004,-25.86092256153287
-0.26369999999999993,-26.087276369511276
-0.26470000000000005,-26.34192440348698
-0.26569999999999994,-26.61071955046134
-0.26670000000000005,-26.86536758443705
-0.26769999999999994,-27.219045409403304
-0.26870000000000005,-27.572723234369565
-0.26969999999999994,-27.912253946337174
-0.27070000000000005,-28.308373110299385
-0.27169999999999994,-28.662050935265643
-0.27270000000000005,-29.001581647233255
-0.27369999999999994,-29.27037679420761
-0.27470000000000006,-29.482583489187363
-0.27569999999999995,-29.836261314153624
-0.27670000000000006,-30.189939139119886
-0.27769999999999995,-30.571911190083444
-0.27870000000000006,-30.968030354045652
-0.27969999999999995,-31.40659085700382
-0.28070000000000006,-31.802710020966025
-0.28169999999999995,-32.14224073293363
-0.28270000000000006,-32.49591855789989
-0.28369999999999995,-32.892037721862096
-0.28470000000000006,-33.231568433829715
-0.28569999999999995,-33.627687597791926
-0.28670000000000007,-34.06624810075008
-0.28769999999999996,-34.50480860370825
-0.28870000000000007,-34.98581044566235
-0.28969999999999996,-35.42437094862052
-0.29070000000000007,-35.848784338580025
-0.29169999999999996,-36.329786180534136
-0.29270000000000007,-36.768346683492304
-0.29369999999999996,-37.206907186450465
-0.2947000000000001,-37.687909028404576
-0.29569999999999996,-38.16891087035869
-0.2967000000000001,-38.6499127123128
-0.29769999999999996,-39.130914554266916
-0.2987000000000001,-39.51288660523048
-0.29969999999999997,-39.90900576919269
-0.3007000000000001,-40.3900076111468
-0.30169999999999997,-40.91345079209687
-0.3027000000000001,-41.43689397304693
-0.30369999999999997,-42.00277849299294
-0.3047000000000001,-42.6111043519349
-0.30569999999999997,-43.23357732387552
-0.3067000000000001,-43.75702050482558
-0.3077,-44.3229050247716
-0.3087000000000001,-44.88878954471762
-0.3097,-45.497115403659585
-0.3107000000000001,-46.147882601597495
-0.3117,-46.713767121543505
-0.3127000000000001,-47.36453431948143
-0.3137,-47.987007291422046
-0.3147000000000001,-48.55289181136806
-0.3157,-49.20365900930597
-0.3167000000000001,-49.76954352925199
-0.3177,-50.37786938819396
-0.3187000000000001,-51.071077925127824
-0.3197,-51.77843357506035
-0.3207000000000001,-52.514083450990164
-0.3217,-53.22143910092268
-0.3227000000000001,-53.872206298860604
-0.3237,-54.52297349679851
-0.3247000000000001,-55.13129935574048
-0.3257,-55.73962521468245
-0.3267000000000001,-56.44698086461496
-0.3277,-57.182630740544774
-0.3287000000000001,-57.974869068469204
-0.3297,-58.75296028339497
-0.3307000000000001,-59.54519861131939
-0.3317,-60.32328982624517
-0.3327000000000001,-61.01649836317903
-0.3337,-61.7662953521075
-0.3347000000000001,-62.501945228037314
-0.3357,-63.37906623395363
-0.3367000000000001,-64.15715744887942
-0.3377,-64.99183711579978
-0.3387000000000001,-65.76992833072556
-0.3397,-66.56216665864997
-0.3407000000000001,-67.2978165345798
-0.3417,-68.04761352350828
-0.3427000000000001,-68.74082206044213
-0.3437,-69.53306038836655
-0.3447000000000001,-70.31115160329232
-0.3457,-71.18827260920865
-0.3467000000000001,-72.00880516313036
-0.3477,-72.8859261690467
-0.3487000000000001,-73.80548851395896
-0.3497,-74.76749219786718
-0.3507000000000001,-75.81437855976732
-0.3517,-76.81882358267148
-0.3527000000000001,-77.80912149257702
-0.3537,-78.77112517648524
-0.3547000000000001,-79.56336350440966
-0.3557,-80.29901338033947
-0.35670000000000013,-80.99222191727335
-0.3577,-81.69957756720586
-0.35870000000000013,-82.39278610413973
-0.3597,-83.18502443206415
-0.36070000000000013,-84.00555698598588
-0.3617,-84.8826779919022
-0.3626999999999999,-85.88712301480638
-0.3637,-86.89156803771054
-0.3646999999999999,-87.85357172161878
-0.3657,-88.94289942251486
-0.3666999999999999,-89.94734444541903
-0.3677,-90.89520101632861
-0.3686999999999999,-91.89964603923279
-0.36970000000000003,-92.90409106213696
-0.3706999999999999,-93.86609474604518
-0.37170000000000003,-94.91298110794531
-0.3726999999999999,-95.91742613084948
-0.37370000000000003,-96.96431249274961
-0.3746999999999999,-97.92631617665783
-0.37570000000000003,-98.88831986056607
-0.3766999999999999,-99.83617643147564
-0.37770000000000004,-100.79818011538387
-0.3786999999999999,-101.76018379929208
-0.37970000000000004,-102.76462882219626
-0.3806999999999999,-103.81151518409638
-0.38170000000000004,-104.85840154599651
-0.38269999999999993,-105.94772924689259
-0.38370000000000004,-107.16438096477653
-0.38469999999999993,-108.43762113465506
-0.38570000000000004,-109.654272852539
-0.38669999999999993,-109.92306799951335
-0.38570000000000004,-107.95661929270095
-0.38469999999999993,-105.90528790789664
-0.38370000000000004,-104.02372187907615
-0.38269999999999993,-102.19874430225026
-0.38170000000000004,-100.84062145437981
-0.3806999999999999,-99.53908705850398
-0.37970000000000004,-98.26584688862545
-0.3786999999999999,-97.04919517074151
-0.37770000000000004,-95.91742613084948
-0.3766999999999999,-94.601744621975
-0.37570000000000003,-93.25776888710321
-0.3746999999999999,-91.85720470023682
-0.37370000000000003,-90.47078762636909
-0.3726999999999999,-89.02778210050676
-0.37170000000000003,-87.66965925263632
-0.3706999999999999,-86.45300753475239
-0.36970000000000003,-85.36367983385631
-0.3686999999999999,-84.31679347195619
-0.3677,-83.39723112704392
-0.3666999999999999,-82.43522744313569
-0.3657,-81.43078242023151
-0.3646999999999999,-80.46877873632329
-0.3637,-79.47848082641775
-0.3626999999999999,-78.55891848150549
-0.3617,-77.55447345860131
-0.36070000000000013,-76.5924697746931
-0.3597,-75.5880247517889
-0.35870000000000013,-74.49869705089283
-0.3577,-73.45181068899271
-0.35670000000000013,-72.36248298809663
-0.3557,-71.27315528720055
-0.3547000000000001,-70.22626892530042
-0.3537,-69.0944998854084
-0.3527000000000001,-68.0051721845123
-0.3517,-67.00072716160814
-0.3507000000000001,-66.03872347769992
-0.3497,-65.11916113278764
-0.3487000000000001,-64.15715744887942
-0.3477,-63.15271242597524
-0.3467000000000001,-62.11997317707376
-0.3457,-61.15796949316553
-0.3447000000000001,-60.15352447026136
-0.3437,-59.19152078635314
-0.3427000000000001,-58.14463442445301
-0.3417,-57.182630740544774
-0.3407000000000001,-56.13574437864466
-0.3397,-55.13129935574048
-0.3387000000000001,-54.1268543328363
-0.3377,-53.22143910092268
-0.3367000000000001,-52.34431809500636
-0.3357,-51.509638428085985
-0.3347000000000001,-50.64666453516831
-0.3337,-49.81198486824794
-0.3327000000000001,-49.03389365332217
-0.3317,-48.24165532539775
-0.3307000000000001,-47.46356411047198
-0.3297,-46.628884443551605
-0.3287000000000001,-45.79420477663124
-0.3277,-44.97367222270952
-0.3267000000000001,-44.054109877797245
-0.3257,-43.09210619388902
-0.3247000000000001,-42.130102509980794
-0.3237,-41.139804600075266
-0.3227000000000001,-40.177800916167044
-0.3217,-39.258238571254765
-0.3207000000000001,-38.42355890433439
-0.3197,-37.60302635041268
-0.3187000000000001,-36.81078802248826
-0.3177,-36.03269680756248
-0.3167000000000001,-35.240458479638065
-0.3157,-34.41992592571634
-0.3147000000000001,-33.670128936787876
-0.3137,-32.892037721862096
-0.3127000000000001,-32.184682071929586
-0.3117,-31.449032195999767
-0.3107000000000001,-30.7558236590659
-0.3097,-30.00602667013743
-0.3087000000000001,-29.22793545521166
-0.3077,-28.478138466283188
-0.3067000000000001,-27.742488590353368
-0.30569999999999997,-27.00683871442355
-0.3047000000000001,-26.34192440348698
-0.30369999999999997,-25.691157205549064
-0.3027000000000001,-25.04039000761115
-0.30169999999999997,-24.34718147067728
-0.3007000000000001,-23.597384481748815
-0.29969999999999997,-22.819293266823045
-0.2987000000000001,-22.069496277894572
-0.29769999999999996,-21.333846401964752
-0.2967000000000001,-20.626490752032236
-0.29569999999999996,-19.97572355409432
-0.2947000000000001,-19.367397695152352
-0.29369999999999996,-18.759071836210385
-0.29270000000000007,-18.10830463827247
-0.29169999999999996,-17.4433903273359
-0.29070000000000007,-16.792623129397985
-0.28969999999999996,-16.099414592464115
-0.28870000000000007,-15.448647394526201
-0.28769999999999996,-14.868615761581536
-0.28670000000000007,-14.30273124163552
-0.28569999999999995,-13.741090855589102
-0.28470000000000006,-13.217647674639037
-0.28369999999999995,-12.607907104397206
-0.28270000000000006,-12.040607873151327
-0.28169999999999995,-11.385596541313816
-0.28070000000000006,-10.819712021367803
-0.27969999999999995,-10.296268840417738
-0.27870000000000006,-9.728969609171857
-0.27769999999999995,-9.205526428221793
-0.27670000000000006,-8.68208324727173
-0.27569999999999995,-8.11478401602585
-0.27470000000000006,-7.591340835075788
-0.27369999999999994,-6.981600264833956
-0.27270000000000005,-6.458157083883892
-0.27169999999999994,-5.977155241929781
-0.27070000000000005,-5.497568111275533
-0.26969999999999994,-5.0618370309171015
-0.26870000000000005,-4.626105950558669
-0.26769999999999994,-4.1889601589003735
