Apr. 1, 2025   18:16:46
Cyclic Voltammetry
File: c:/users/guazh/data/banditlqround7_x0exp518_r20/2025-03-28-exp1012\exp1012-2025-04-01t18_11_17-h2koh\exp1012_cv_sr_50mvs_efin_-1400mv.bin
Data Source:  Experiment
Instrument Model:  CHI760E
Header: CV ran at 50 mVs
Note: 

Init E (V) = -1
High E (V) = -1
Low E (V) = -1.4
Final E (V) = -1
Init P/N = N
Scan Rate (V/s) = 0.05
Segment = 3
Sample Interval (V) = 0.001
Quiet Time (sec) = 2
Sensitivity (A/V) = 0.01
Comp R (ohm) = 1.9

Results:

Channel 1:
Segment 1:

Segment 2:

Segment 3:

Potential/V, Current/A

-1.000, 2.765e-5
-1.001, 7.432e-5
-1.002, 8.659e-5
-1.003, 9.191e-5
-1.004, 9.548e-5
-1.005, 9.730e-5
-1.006, 9.807e-5
-1.007, 9.838e-5
-1.008, 9.961e-5
-1.009, 1.018e-4
-1.010, 1.027e-4
-1.011, 1.022e-4
-1.012, 1.025e-4
-1.013, 1.036e-4
-1.014, 1.051e-4
-1.015, 1.062e-4
-1.016, 1.050e-4
-1.017, 1.055e-4
-1.018, 1.059e-4
-1.019, 1.070e-4
-1.020, 1.078e-4
-1.021, 1.072e-4
-1.022, 1.069e-4
-1.023, 1.077e-4
-1.024, 1.095e-4
-1.025, 1.094e-4
-1.026, 1.090e-4
-1.027, 1.079e-4
-1.028, 1.091e-4
-1.029, 1.096e-4
-1.030, 1.100e-4
-1.031, 1.102e-4
-1.032, 1.093e-4
-1.033, 1.099e-4
-1.034, 1.109e-4
-1.035, 1.109e-4
-1.036, 1.103e-4
-1.037, 1.094e-4
-1.038, 1.103e-4
-1.039, 1.117e-4
-1.040, 1.113e-4
-1.041, 1.106e-4
-1.042, 1.098e-4
-1.043, 1.105e-4
-1.044, 1.119e-4
-1.045, 1.113e-4
-1.046, 1.107e-4
-1.047, 1.108e-4
-1.048, 1.109e-4
-1.049, 1.121e-4
-1.050, 1.123e-4
-1.051, 1.112e-4
-1.052, 1.110e-4
-1.053, 1.113e-4
-1.054, 1.122e-4
-1.055, 1.123e-4
-1.056, 1.111e-4
-1.057, 1.112e-4
-1.058, 1.117e-4
-1.059, 1.126e-4
-1.060, 1.129e-4
-1.061, 1.116e-4
-1.062, 1.115e-4
-1.063, 1.120e-4
-1.064, 1.123e-4
-1.065, 1.131e-4
-1.066, 1.122e-4
-1.067, 1.112e-4
-1.068, 1.121e-4
-1.069, 1.127e-4
-1.070, 1.130e-4
-1.071, 1.122e-4
-1.072, 1.112e-4
-1.073, 1.124e-4
-1.074, 1.133e-4
-1.075, 1.137e-4
-1.076, 1.133e-4
-1.077, 1.117e-4
-1.078, 1.124e-4
-1.079, 1.135e-4
-1.080, 1.136e-4
-1.081, 1.128e-4
-1.082, 1.119e-4
-1.083, 1.123e-4
-1.084, 1.137e-4
-1.085, 1.136e-4
-1.086, 1.132e-4
-1.087, 1.128e-4
-1.088, 1.132e-4
-1.089, 1.140e-4
-1.090, 1.138e-4
-1.091, 1.133e-4
-1.092, 1.136e-4
-1.093, 1.131e-4
-1.094, 1.142e-4
-1.095, 1.145e-4
-1.096, 1.134e-4
-1.097, 1.136e-4
-1.098, 1.136e-4
-1.099, 1.148e-4
-1.100, 1.152e-4
-1.101, 1.142e-4
-1.102, 1.139e-4
-1.103, 1.148e-4
-1.104, 1.153e-4
-1.105, 1.156e-4
-1.106, 1.146e-4
-1.107, 1.145e-4
-1.108, 1.155e-4
-1.109, 1.162e-4
-1.110, 1.164e-4
-1.111, 1.160e-4
-1.112, 1.150e-4
-1.113, 1.162e-4
-1.114, 1.172e-4
-1.115, 1.173e-4
-1.116, 1.169e-4
-1.117, 1.162e-4
-1.118, 1.169e-4
-1.119, 1.183e-4
-1.120, 1.189e-4
-1.121, 1.184e-4
-1.122, 1.178e-4
-1.123, 1.180e-4
-1.124, 1.196e-4
-1.125, 1.197e-4
-1.126, 1.192e-4
-1.127, 1.194e-4
-1.128, 1.194e-4
-1.129, 1.213e-4
-1.130, 1.219e-4
-1.131, 1.212e-4
-1.132, 1.208e-4
-1.133, 1.215e-4
-1.134, 1.235e-4
-1.135, 1.237e-4
-1.136, 1.227e-4
-1.137, 1.227e-4
-1.138, 1.240e-4
-1.139, 1.251e-4
-1.140, 1.262e-4
-1.141, 1.256e-4
-1.142, 1.255e-4
-1.143, 1.265e-4
-1.144, 1.279e-4
-1.145, 1.287e-4
-1.146, 1.285e-4
-1.147, 1.281e-4
-1.148, 1.298e-4
-1.149, 1.309e-4
-1.150, 1.318e-4
-1.151, 1.322e-4
-1.152, 1.320e-4
-1.153, 1.336e-4
-1.154, 1.349e-4
-1.155, 1.357e-4
-1.156, 1.361e-4
-1.157, 1.362e-4
-1.158, 1.373e-4
-1.159, 1.399e-4
-1.160, 1.403e-4
-1.161, 1.405e-4
-1.162, 1.413e-4
-1.163, 1.428e-4
-1.164, 1.452e-4
-1.165, 1.458e-4
-1.166, 1.461e-4
-1.167, 1.473e-4
-1.168, 1.487e-4
-1.169, 1.514e-4
-1.170, 1.523e-4
-1.171, 1.533e-4
-1.172, 1.546e-4
-1.173, 1.559e-4
-1.174, 1.586e-4
-1.175, 1.602e-4
-1.176, 1.608e-4
-1.177, 1.623e-4
-1.178, 1.651e-4
-1.179, 1.674e-4
-1.180, 1.693e-4
-1.181, 1.703e-4
-1.182, 1.717e-4
-1.183, 1.747e-4
-1.184, 1.769e-4
-1.185, 1.799e-4
-1.186, 1.813e-4
-1.187, 1.835e-4
-1.188, 1.862e-4
-1.189, 1.895e-4
-1.190, 1.922e-4
-1.191, 1.941e-4
-1.192, 1.959e-4
-1.193, 1.998e-4
-1.194, 2.039e-4
-1.195, 2.068e-4
-1.196, 2.094e-4
-1.197, 2.118e-4
-1.198, 2.162e-4
-1.199, 2.209e-4
-1.200, 2.234e-4
-1.201, 2.268e-4
-1.202, 2.300e-4
-1.203, 2.343e-4
-1.204, 2.394e-4
-1.205, 2.433e-4
-1.206, 2.465e-4
-1.207, 2.511e-4
-1.208, 2.563e-4
-1.209, 2.620e-4
-1.210, 2.671e-4
-1.211, 2.707e-4
-1.212, 2.757e-4
-1.213, 2.811e-4
-1.214, 2.886e-4
-1.215, 2.939e-4
-1.216, 2.983e-4
-1.217, 3.041e-4
-1.218, 3.112e-4
-1.219, 3.184e-4
-1.220, 3.252e-4
-1.221, 3.312e-4
-1.222, 3.378e-4
-1.223, 3.462e-4
-1.224, 3.538e-4
-1.225, 3.619e-4
-1.226, 3.679e-4
-1.227, 3.751e-4
-1.228, 3.851e-4
-1.229, 3.975e-4
-1.230, 4.039e-4
-1.231, 4.115e-4
-1.232, 4.207e-4
-1.233, 4.306e-4
-1.234, 4.410e-4
-1.235, 4.514e-4
-1.236, 4.617e-4
-1.237, 4.709e-4
-1.238, 4.829e-4
-1.239, 4.948e-4
-1.240, 5.076e-4
-1.241, 5.168e-4
-1.242, 5.283e-4
-1.243, 5.424e-4
-1.244, 5.570e-4
-1.245, 5.696e-4
-1.246, 5.816e-4
-1.247, 5.946e-4
-1.248, 6.085e-4
-1.249, 6.252e-4
-1.250, 6.410e-4
-1.251, 6.550e-4
-1.252, 6.690e-4
-1.253, 6.848e-4
-1.254, 7.039e-4
-1.255, 7.207e-4
-1.256, 7.364e-4
-1.257, 7.533e-4
-1.258, 7.730e-4
-1.259, 7.920e-4
-1.260, 8.107e-4
-1.261, 8.283e-4
-1.262, 8.486e-4
-1.263, 8.697e-4
-1.264, 8.905e-4
-1.265, 9.132e-4
-1.266, 9.330e-4
-1.267, 9.545e-4
-1.268, 9.776e-4
-1.269, 1.002e-3
-1.270, 1.026e-3
-1.271, 1.047e-3
-1.272, 1.073e-3
-1.273, 1.099e-3
-1.274, 1.123e-3
-1.275, 1.148e-3
-1.276, 1.176e-3
-1.277, 1.200e-3
-1.278, 1.226e-3
-1.279, 1.255e-3
-1.280, 1.284e-3
-1.281, 1.313e-3
-1.282, 1.343e-3
-1.283, 1.376e-3
-1.284, 1.405e-3
-1.285, 1.435e-3
-1.286, 1.463e-3
-1.287, 1.496e-3
-1.288, 1.530e-3
-1.289, 1.562e-3
-1.290, 1.594e-3
-1.291, 1.635e-3
-1.292, 1.668e-3
-1.293, 1.699e-3
-1.294, 1.738e-3
-1.295, 1.777e-3
-1.296, 1.809e-3
-1.297, 1.847e-3
-1.298, 1.889e-3
-1.299, 1.927e-3
-1.300, 1.967e-3
-1.301, 2.005e-3
-1.302, 2.045e-3
-1.303, 2.082e-3
-1.304, 2.125e-3
-1.305, 2.170e-3
-1.306, 2.211e-3
-1.307, 2.254e-3
-1.308, 2.301e-3
-1.309, 2.348e-3
-1.310, 2.388e-3
-1.311, 2.433e-3
-1.312, 2.479e-3
-1.313, 2.525e-3
-1.314, 2.575e-3
-1.315, 2.629e-3
-1.316, 2.675e-3
-1.317, 2.721e-3
-1.318, 2.770e-3
-1.319, 2.812e-3
-1.320, 2.866e-3
-1.321, 2.921e-3
-1.322, 2.969e-3
-1.323, 3.017e-3
-1.324, 3.070e-3
-1.325, 3.122e-3
-1.326, 3.189e-3
-1.327, 3.237e-3
-1.328, 3.291e-3
-1.329, 3.349e-3
-1.330, 3.399e-3
-1.331, 3.454e-3
-1.332, 3.514e-3
-1.333, 3.572e-3
-1.334, 3.629e-3
-1.335, 3.691e-3
-1.336, 3.745e-3
-1.337, 3.805e-3
-1.338, 3.863e-3
-1.339, 3.931e-3
-1.340, 4.013e-3
-1.341, 4.076e-3
-1.342, 4.117e-3
-1.343, 4.175e-3
-1.344, 4.241e-3
-1.345, 4.313e-3
-1.346, 4.365e-3
-1.347, 4.420e-3
-1.348, 4.496e-3
-1.349, 4.562e-3
-1.350, 4.627e-3
-1.351, 4.689e-3
-1.352, 4.747e-3
-1.353, 4.815e-3
-1.354, 4.885e-3
-1.355, 4.959e-3
-1.356, 5.028e-3
-1.357, 5.101e-3
-1.358, 5.174e-3
-1.359, 5.246e-3
-1.360, 5.306e-3
-1.361, 5.378e-3
-1.362, 5.441e-3
-1.363, 5.517e-3
-1.364, 5.591e-3
-1.365, 5.669e-3
-1.366, 5.750e-3
-1.367, 5.812e-3
-1.368, 5.886e-3
-1.369, 5.944e-3
-1.370, 6.021e-3
-1.371, 6.108e-3
-1.372, 6.169e-3
-1.373, 6.253e-3
-1.374, 6.321e-3
-1.375, 6.404e-3
-1.376, 6.456e-3
-1.377, 6.528e-3
-1.378, 6.612e-3
-1.379, 6.694e-3
-1.380, 6.771e-3
-1.381, 6.861e-3
-1.382, 6.960e-3
-1.383, 7.044e-3
-1.384, 7.103e-3
-1.385, 7.202e-3
-1.386, 7.270e-3
-1.387, 7.342e-3
-1.388, 7.405e-3
-1.389, 7.474e-3
-1.390, 7.553e-3
-1.391, 7.602e-3
-1.392, 7.657e-3
-1.393, 7.749e-3
-1.394, 7.836e-3
-1.395, 7.902e-3
-1.396, 7.978e-3
-1.397, 8.060e-3
-1.398, 8.125e-3
-1.399, 8.188e-3
-1.400, 8.161e-3
-1.399, 8.058e-3
-1.398, 7.967e-3
-1.397, 7.915e-3
-1.396, 7.802e-3
-1.395, 7.673e-3
-1.394, 7.568e-3
-1.393, 7.498e-3
-1.392, 7.391e-3
-1.391, 7.294e-3
-1.390, 7.194e-3
-1.389, 7.109e-3
-1.388, 7.019e-3
-1.387, 6.936e-3
-1.386, 6.866e-3
-1.385, 6.774e-3
-1.384, 6.684e-3
-1.383, 6.607e-3
-1.382, 6.522e-3
-1.381, 6.431e-3
-1.380, 6.345e-3
-1.379, 6.269e-3
-1.378, 6.198e-3
-1.377, 6.118e-3
-1.376, 6.037e-3
-1.375, 5.966e-3
-1.374, 5.895e-3
-1.373, 5.827e-3
-1.372, 5.762e-3
-1.371, 5.712e-3
-1.370, 5.628e-3
-1.369, 5.549e-3
-1.368, 5.479e-3
-1.367, 5.411e-3
-1.366, 5.321e-3
-1.365, 5.243e-3
-1.364, 5.180e-3
-1.363, 5.120e-3
-1.362, 5.058e-3
-1.361, 4.981e-3
-1.360, 4.902e-3
-1.359, 4.821e-3
-1.358, 4.754e-3
-1.357, 4.684e-3
-1.356, 4.611e-3
-1.355, 4.541e-3
-1.354, 4.469e-3
-1.353, 4.400e-3
-1.352, 4.323e-3
-1.351, 4.257e-3
-1.350, 4.199e-3
-1.349, 4.144e-3
-1.348, 4.077e-3
-1.347, 3.997e-3
-1.346, 3.947e-3
-1.345, 3.894e-3
-1.344, 3.826e-3
-1.343, 3.765e-3
-1.342, 3.705e-3
-1.341, 3.646e-3
-1.340, 3.596e-3
-1.339, 3.538e-3
-1.338, 3.476e-3
-1.337, 3.425e-3
-1.336, 3.381e-3
-1.335, 3.332e-3
-1.334, 3.264e-3
-1.333, 3.216e-3
-1.332, 3.158e-3
-1.331, 3.110e-3
-1.330, 3.056e-3
-1.329, 3.009e-3
-1.328, 2.958e-3
-1.327, 2.894e-3
-1.326, 2.836e-3
-1.325, 2.782e-3
-1.324, 2.720e-3
-1.323, 2.676e-3
-1.322, 2.630e-3
-1.321, 2.575e-3
-1.320, 2.527e-3
-1.319, 2.495e-3
-1.318, 2.444e-3
-1.317, 2.390e-3
-1.316, 2.341e-3
-1.315, 2.295e-3
-1.314, 2.249e-3
-1.313, 2.204e-3
-1.312, 2.158e-3
-1.311, 2.114e-3
-1.310, 2.068e-3
-1.309, 2.028e-3
-1.308, 1.984e-3
-1.307, 1.937e-3
-1.306, 1.897e-3
-1.305, 1.853e-3
-1.304, 1.811e-3
-1.303, 1.771e-3
-1.302, 1.733e-3
-1.301, 1.697e-3
-1.300, 1.652e-3
-1.299, 1.614e-3
-1.298, 1.577e-3
-1.297, 1.542e-3
-1.296, 1.505e-3
-1.295, 1.471e-3
-1.294, 1.436e-3
-1.293, 1.402e-3
-1.292, 1.364e-3
-1.291, 1.332e-3
-1.290, 1.300e-3
-1.289, 1.266e-3
-1.288, 1.233e-3
-1.287, 1.202e-3
-1.286, 1.173e-3
-1.285, 1.143e-3
-1.284, 1.112e-3
-1.283, 1.084e-3
-1.282, 1.058e-3
-1.281, 1.029e-3
-1.280, 9.992e-4
-1.279, 9.705e-4
-1.278, 9.414e-4
-1.277, 9.187e-4
-1.276, 8.967e-4
-1.275, 8.703e-4
-1.274, 8.402e-4
-1.273, 8.109e-4
-1.272, 7.892e-4
-1.271, 7.661e-4
-1.270, 7.427e-4
-1.269, 7.204e-4
-1.268, 6.973e-4
-1.267, 6.740e-4
-1.266, 6.556e-4
-1.265, 6.333e-4
-1.264, 6.122e-4
-1.263, 5.915e-4
-1.262, 5.712e-4
-1.261, 5.512e-4
-1.260, 5.319e-4
-1.259, 5.140e-4
-1.258, 4.960e-4
-1.257, 4.781e-4
-1.256, 4.614e-4
-1.255, 4.428e-4
-1.254, 4.277e-4
-1.253, 4.108e-4
-1.252, 3.964e-4
-1.251, 3.811e-4
-1.250, 3.645e-4
-1.249, 3.488e-4
-1.248, 3.344e-4
-1.247, 3.210e-4
-1.246, 3.074e-4
-1.245, 2.938e-4
-1.244, 2.788e-4
-1.243, 2.655e-4
-1.242, 2.530e-4
-1.241, 2.412e-4
-1.240, 2.298e-4
-1.239, 2.173e-4
-1.238, 2.052e-4
-1.237, 1.947e-4
-1.236, 1.836e-4
-1.235, 1.730e-4
-1.234, 1.623e-4
-1.233, 1.513e-4
-1.232, 1.420e-4
-1.231, 1.325e-4
-1.230, 1.240e-4
-1.229, 1.123e-4
-1.228, 1.034e-4
-1.227, 9.553e-5
-1.226, 8.838e-5
-1.225, 8.034e-5
-1.224, 7.192e-5
-1.223, 6.347e-5
-1.222, 5.581e-5
-1.221, 5.055e-5
-1.220, 4.314e-5
-1.219, 3.524e-5
-1.218, 2.812e-5
-1.217, 2.143e-5
-1.216, 1.640e-5
-1.215, 1.042e-5
-1.214, 3.372e-6
-1.213, -2.212e-6
-1.212, -7.964e-6
-1.211, -1.223e-5
-1.210, -1.701e-5
-1.209, -2.355e-5
-1.208, -2.815e-5
-1.207, -3.272e-5
-1.206, -3.665e-5
-1.205, -4.018e-5
-1.204, -4.588e-5
-1.203, -5.031e-5
-1.202, -5.438e-5
-1.201, -5.754e-5
-1.200, -6.017e-5
-1.199, -6.481e-5
-1.198, -6.917e-5
-1.197, -7.187e-5
-1.196, -7.460e-5
-1.195, -7.743e-5
-1.194, -8.089e-5
-1.193, -8.510e-5
-1.192, -8.680e-5
-1.191, -8.915e-5
-1.190, -9.230e-5
-1.189, -9.472e-5
-1.188, -9.805e-5
-1.187, -9.985e-5
-1.186, -1.013e-4
-1.185, -1.039e-4
-1.184, -1.062e-4
-1.183, -1.094e-4
-1.182, -1.112e-4
-1.181, -1.115e-4
-1.180, -1.135e-4
-1.179, -1.163e-4
-1.178, -1.191e-4
-1.177, -1.206e-4
-1.176, -1.204e-4
-1.175, -1.217e-4
-1.174, -1.238e-4
-1.173, -1.259e-4
-1.172, -1.271e-4
-1.171, -1.276e-4
-1.170, -1.278e-4
-1.169, -1.302e-4
-1.168, -1.313e-4
-1.167, -1.325e-4
-1.166, -1.328e-4
-1.165, -1.336e-4
-1.164, -1.354e-4
-1.163, -1.366e-4
-1.162, -1.374e-4
-1.161, -1.375e-4
-1.160, -1.378e-4
-1.159, -1.398e-4
-1.158, -1.413e-4
-1.157, -1.411e-4
-1.156, -1.409e-4
-1.155, -1.415e-4
-1.154, -1.427e-4
-1.153, -1.440e-4
-1.152, -1.447e-4
-1.151, -1.443e-4
-1.150, -1.449e-4
-1.149, -1.458e-4
-1.148, -1.471e-4
-1.147, -1.466e-4
-1.146, -1.460e-4
-1.145, -1.468e-4
-1.144, -1.473e-4
-1.143, -1.492e-4
-1.142, -1.488e-4
-1.141, -1.482e-4
-1.140, -1.492e-4
-1.139, -1.504e-4
-1.138, -1.506e-4
-1.137, -1.512e-4
-1.136, -1.496e-4
-1.135, -1.501e-4
-1.134, -1.513e-4
-1.133, -1.513e-4
-1.132, -1.515e-4
-1.131, -1.508e-4
-1.130, -1.504e-4
-1.129, -1.520e-4
-1.128, -1.528e-4
-1.127, -1.524e-4
-1.126, -1.523e-4
-1.125, -1.521e-4
-1.124, -1.530e-4
-1.123, -1.534e-4
-1.122, -1.530e-4
-1.121, -1.527e-4
-1.120, -1.522e-4
-1.119, -1.528e-4
-1.118, -1.539e-4
-1.117, -1.536e-4
-1.116, -1.534e-4
-1.115, -1.526e-4
-1.114, -1.533e-4
-1.113, -1.544e-4
-1.112, -1.537e-4
-1.111, -1.533e-4
-1.110, -1.532e-4
-1.109, -1.535e-4
-1.108, -1.544e-4
-1.107, -1.545e-4
-1.106, -1.535e-4
-1.105, -1.537e-4
-1.104, -1.537e-4
-1.103, -1.545e-4
-1.102, -1.551e-4
-1.101, -1.536e-4
-1.100, -1.535e-4
-1.099, -1.540e-4
-1.098, -1.547e-4
-1.097, -1.546e-4
-1.096, -1.536e-4
-1.095, -1.535e-4
-1.094, -1.543e-4
-1.093, -1.546e-4
-1.092, -1.548e-4
-1.091, -1.536e-4
-1.090, -1.536e-4
-1.089, -1.548e-4
-1.088, -1.550e-4
-1.087, -1.548e-4
-1.086, -1.543e-4
-1.085, -1.535e-4
-1.084, -1.545e-4
-1.083, -1.553e-4
-1.082, -1.548e-4
-1.081, -1.546e-4
-1.080, -1.539e-4
-1.079, -1.549e-4
-1.078, -1.556e-4
-1.077, -1.555e-4
-1.076, -1.540e-4
-1.075, -1.552e-4
-1.074, -1.553e-4
-1.073, -1.562e-4
-1.072, -1.555e-4
-1.071, -1.547e-4
-1.070, -1.548e-4
-1.069, -1.553e-4
-1.068, -1.563e-4
-1.067, -1.556e-4
-1.066, -1.553e-4
-1.065, -1.557e-4
-1.064, -1.554e-4
-1.063, -1.565e-4
-1.062, -1.570e-4
-1.061, -1.556e-4
-1.060, -1.552e-4
-1.059, -1.564e-4
-1.058, -1.568e-4
-1.057, -1.572e-4
-1.056, -1.556e-4
-1.055, -1.558e-4
-1.054, -1.575e-4
-1.053, -1.577e-4
-1.052, -1.579e-4
-1.051, -1.570e-4
-1.050, -1.572e-4
-1.049, -1.582e-4
-1.048, -1.578e-4
-1.047, -1.594e-4
-1.046, -1.581e-4
-1.045, -1.576e-4
-1.044, -1.589e-4
-1.043, -1.589e-4
-1.042, -1.597e-4
-1.041, -1.589e-4
-1.040, -1.587e-4
-1.039, -1.598e-4
-1.038, -1.606e-4
-1.037, -1.603e-4
-1.036, -1.603e-4
-1.035, -1.601e-4
-1.034, -1.608e-4
-1.033, -1.626e-4
-1.032, -1.620e-4
-1.031, -1.619e-4
-1.030, -1.618e-4
-1.029, -1.628e-4
-1.028, -1.638e-4
-1.027, -1.635e-4
-1.026, -1.634e-4
-1.025, -1.639e-4
-1.024, -1.647e-4
-1.023, -1.661e-4
-1.022, -1.666e-4
-1.021, -1.654e-4
-1.020, -1.658e-4
-1.019, -1.670e-4
-1.018, -1.674e-4
-1.017, -1.689e-4
-1.016, -1.678e-4
-1.015, -1.687e-4
-1.014, -1.697e-4
-1.013, -1.710e-4
-1.012, -1.716e-4
-1.011, -1.713e-4
-1.010, -1.709e-4
-1.009, -1.732e-4
-1.008, -1.745e-4
-1.007, -1.752e-4
-1.006, -1.751e-4
-1.005, -1.753e-4
-1.004, -1.766e-4
-1.003, -1.781e-4
-1.002, -1.789e-4
-1.001, -1.796e-4
