Sept. 21, 2024   09:47:52
Cyclic Voltammetry
File: c:/users/guazh/data/20240903_batch_400_500/2024-09-20-exp407\exp407-2024-09-21t09_33_04-arkoh\exp407_cv_sr_200mvs_efin_-1800mv.bin
Data Source:  Experiment
Instrument Model:  CHI760E
Header: CV ran at 200 mVs
Note: 

Init E (V) = -1
High E (V) = -1
Low E (V) = -1.8
Final E (V) = -1
Init P/N = N
Scan Rate (V/s) = 0.2
Segment = 3
Sample Interval (V) = 0.001
Quiet Time (sec) = 2
Sensitivity (A/V) = 0.01
Comp R (ohm) = 1.9

Results:

Channel 1:
Segment 1:

Segment 2:

Segment 3:

Potential/V, Current/A

-1.000, -6.630e-7
-1.001, -9.491e-7
-1.002, -5.841e-7
-1.003, -6.827e-7
-1.004, -5.249e-7
-1.005, -5.545e-7
-1.006, -6.531e-7
-1.007, -5.643e-7
-1.008, -7.222e-7
-1.009, -6.729e-7
-1.010, -4.657e-7
-1.011, -6.334e-7
-1.012, -3.374e-7
-1.013, -6.729e-7
-1.014, -4.657e-7
-1.015, -4.163e-7
-1.016, -4.854e-7
-1.017, -3.374e-7
-1.018, -4.854e-7
-1.019, -1.894e-7
-1.020, -2.289e-7
-1.021, -2.980e-7
-1.022, -1.401e-7
-1.023, -3.374e-7
-1.024, -2.684e-7
-1.025, -1.401e-7
-1.026, -2.881e-7
-1.027, -7.103e-8
-1.028, -3.374e-7
-1.029, -8.090e-8
-1.030, -1.500e-7
-1.031, 2.762e-8
-1.032, -3.157e-8
-1.033, -2.092e-7
-1.034, -1.184e-8
-1.035, -1.894e-7
-1.036, -1.302e-7
-1.037, 1.657e-7
-1.038, -1.973e-9
-1.039, 1.855e-7
-1.040, -1.184e-8
-1.041, -1.184e-8
-1.042, 7.695e-8
-1.043, -1.204e-7
-1.044, 9.669e-8
-1.045, 9.669e-8
-1.046, 8.682e-8
-1.047, 6.709e-8
-1.048, -5.130e-8
-1.049, 8.682e-8
-1.050, 3.039e-7
-1.051, -3.157e-8
-1.052, 1.657e-7
-1.053, 8.682e-8
-1.054, 1.953e-7
-1.055, 1.559e-7
-1.056, 2.644e-7
-1.057, 2.447e-7
-1.058, 2.151e-7
-1.059, 1.657e-7
-1.060, 3.335e-7
-1.061, 1.855e-7
-1.062, 3.335e-7
-1.063, 2.743e-7
-1.064, 3.631e-7
-1.065, 4.223e-7
-1.066, 3.631e-7
-1.067, 5.703e-7
-1.068, 1.657e-7
-1.069, 2.841e-7
-1.070, 3.828e-7
-1.071, 4.124e-7
-1.072, 4.420e-7
-1.073, 2.743e-7
-1.074, 5.209e-7
-1.075, 4.420e-7
-1.076, 2.644e-7
-1.077, 5.209e-7
-1.078, 3.335e-7
-1.079, 5.505e-7
-1.080, 4.025e-7
-1.081, 5.703e-7
-1.082, 4.815e-7
-1.083, 4.025e-7
-1.084, 4.815e-7
-1.085, 5.407e-7
-1.086, 5.801e-7
-1.087, 5.111e-7
-1.088, 5.209e-7
-1.089, 5.900e-7
-1.090, 5.012e-7
-1.091, 4.716e-7
-1.092, 5.900e-7
-1.093, 4.716e-7
-1.094, 6.294e-7
-1.095, 6.689e-7
-1.096, 6.590e-7
-1.097, 7.676e-7
-1.098, 4.716e-7
-1.099, 7.972e-7
-1.100, 4.519e-7
-1.101, 3.828e-7
-1.102, 7.873e-7
-1.103, 6.590e-7
-1.104, 8.070e-7
-1.105, 7.182e-7
-1.106, 7.774e-7
-1.107, 7.084e-7
-1.108, 7.084e-7
-1.109, 1.044e-6
-1.110, 9.156e-7
-1.111, 7.478e-7
-1.112, 8.958e-7
-1.113, 8.465e-7
-1.114, 1.014e-6
-1.115, 7.774e-7
-1.116, 8.761e-7
-1.117, 7.676e-7
-1.118, 8.564e-7
-1.119, 9.353e-7
-1.120, 8.958e-7
-1.121, 9.156e-7
-1.122, 9.254e-7
-1.123, 7.577e-7
-1.124, 9.748e-7
-1.125, 8.366e-7
-1.126, 8.662e-7
-1.127, 1.093e-6
-1.128, 9.057e-7
-1.129, 1.251e-6
-1.130, 1.142e-6
-1.131, 1.073e-6
-1.132, 1.034e-6
-1.133, 9.156e-7
-1.134, 9.846e-7
-1.135, 1.212e-6
-1.136, 1.123e-6
-1.137, 1.034e-6
-1.138, 9.945e-7
-1.139, 1.251e-6
-1.140, 1.271e-6
-1.141, 1.172e-6
-1.142, 1.113e-6
-1.143, 1.014e-6
-1.144, 1.113e-6
-1.145, 1.113e-6
-1.146, 1.172e-6
-1.147, 1.360e-6
-1.148, 9.353e-7
-1.149, 1.399e-6
-1.150, 1.172e-6
-1.151, 1.123e-6
-1.152, 1.389e-6
-1.153, 1.142e-6
-1.154, 1.320e-6
-1.155, 1.231e-6
-1.156, 1.162e-6
-1.157, 1.498e-6
-1.158, 1.202e-6
-1.159, 1.468e-6
-1.160, 1.369e-6
-1.161, 1.429e-6
-1.162, 1.320e-6
-1.163, 1.172e-6
-1.164, 1.478e-6
-1.165, 1.498e-6
-1.166, 1.350e-6
-1.167, 1.360e-6
-1.168, 1.271e-6
-1.169, 1.616e-6
-1.170, 1.488e-6
-1.171, 1.231e-6
-1.172, 1.586e-6
-1.173, 1.330e-6
-1.174, 1.478e-6
-1.175, 1.429e-6
-1.176, 1.202e-6
-1.177, 1.764e-6
-1.178, 1.429e-6
-1.179, 1.725e-6
-1.180, 1.764e-6
-1.181, 1.567e-6
-1.182, 1.863e-6
-1.183, 1.498e-6
-1.184, 1.616e-6
-1.185, 1.646e-6
-1.186, 1.636e-6
-1.187, 1.823e-6
-1.188, 1.488e-6
-1.189, 1.715e-6
-1.190, 1.577e-6
-1.191, 1.675e-6
-1.192, 1.971e-6
-1.193, 1.586e-6
-1.194, 1.725e-6
-1.195, 1.942e-6
-1.196, 1.754e-6
-1.197, 1.922e-6
-1.198, 1.626e-6
-1.199, 1.853e-6
-1.200, 1.912e-6
-1.201, 1.734e-6
-1.202, 1.853e-6
-1.203, 1.734e-6
-1.204, 2.050e-6
-1.205, 1.823e-6
-1.206, 1.892e-6
-1.207, 2.099e-6
-1.208, 1.646e-6
-1.209, 1.784e-6
-1.210, 1.961e-6
-1.211, 1.823e-6
-1.212, 2.021e-6
-1.213, 1.754e-6
-1.214, 2.198e-6
-1.215, 2.099e-6
-1.216, 2.001e-6
-1.217, 2.228e-6
-1.218, 1.744e-6
-1.219, 2.149e-6
-1.220, 2.326e-6
-1.221, 1.764e-6
-1.222, 2.228e-6
-1.223, 2.159e-6
-1.224, 2.021e-6
-1.225, 2.178e-6
-1.226, 2.070e-6
-1.227, 2.307e-6
-1.228, 2.218e-6
-1.229, 2.287e-6
-1.230, 2.238e-6
-1.231, 2.178e-6
-1.232, 2.356e-6
-1.233, 2.366e-6
-1.234, 2.297e-6
-1.235, 2.405e-6
-1.236, 2.159e-6
-1.237, 2.336e-6
-1.238, 2.149e-6
-1.239, 2.494e-6
-1.240, 2.287e-6
-1.241, 2.001e-6
-1.242, 2.494e-6
-1.243, 2.307e-6
-1.244, 2.514e-6
-1.245, 2.415e-6
-1.246, 2.386e-6
-1.247, 2.691e-6
-1.248, 2.297e-6
-1.249, 2.474e-6
-1.250, 2.593e-6
-1.251, 2.307e-6
-1.252, 2.543e-6
-1.253, 2.415e-6
-1.254, 2.484e-6
-1.255, 2.869e-6
-1.256, 2.376e-6
-1.257, 2.504e-6
-1.258, 2.534e-6
-1.259, 2.662e-6
-1.260, 2.386e-6
-1.261, 2.514e-6
-1.262, 2.691e-6
-1.263, 2.613e-6
-1.264, 2.682e-6
-1.265, 2.691e-6
-1.266, 2.652e-6
-1.267, 2.721e-6
-1.268, 2.573e-6
-1.269, 2.820e-6
-1.270, 2.731e-6
-1.271, 2.593e-6
-1.272, 2.889e-6
-1.273, 2.524e-6
-1.274, 2.770e-6
-1.275, 2.731e-6
-1.276, 2.642e-6
-1.277, 2.899e-6
-1.278, 2.751e-6
-1.279, 3.007e-6
-1.280, 2.879e-6
-1.281, 2.731e-6
-1.282, 2.928e-6
-1.283, 2.889e-6
-1.284, 2.948e-6
-1.285, 2.978e-6
-1.286, 2.810e-6
-1.287, 2.997e-6
-1.288, 2.928e-6
-1.289, 2.760e-6
-1.290, 3.066e-6
-1.291, 2.800e-6
-1.292, 2.889e-6
-1.293, 2.691e-6
-1.294, 3.116e-6
-1.295, 3.086e-6
-1.296, 3.155e-6
-1.297, 3.047e-6
-1.298, 2.770e-6
-1.299, 3.096e-6
-1.300, 3.323e-6
-1.301, 2.987e-6
-1.302, 3.165e-6
-1.303, 3.007e-6
-1.304, 3.175e-6
-1.305, 3.254e-6
-1.306, 3.037e-6
-1.307, 3.204e-6
-1.308, 3.017e-6
-1.309, 3.323e-6
-1.310, 3.234e-6
-1.311, 3.126e-6
-1.312, 3.313e-6
-1.313, 3.264e-6
-1.314, 3.431e-6
-1.315, 3.313e-6
-1.316, 3.313e-6
-1.317, 3.392e-6
-1.318, 3.116e-6
-1.319, 3.362e-6
-1.320, 3.441e-6
-1.321, 3.362e-6
-1.322, 3.224e-6
-1.323, 3.145e-6
-1.324, 3.441e-6
-1.325, 3.441e-6
-1.326, 3.283e-6
-1.327, 3.579e-6
-1.328, 3.352e-6
-1.329, 3.431e-6
-1.330, 3.471e-6
-1.331, 3.471e-6
-1.332, 3.698e-6
-1.333, 3.422e-6
-1.334, 3.639e-6
-1.335, 3.599e-6
-1.336, 3.619e-6
-1.337, 3.678e-6
-1.338, 3.816e-6
-1.339, 3.747e-6
-1.340, 3.609e-6
-1.341, 3.599e-6
-1.342, 3.796e-6
-1.343, 3.441e-6
-1.344, 3.698e-6
-1.345, 3.875e-6
-1.346, 3.708e-6
-1.347, 3.935e-6
-1.348, 3.609e-6
-1.349, 3.915e-6
-1.350, 3.865e-6
-1.351, 3.875e-6
-1.352, 3.905e-6
-1.353, 3.935e-6
-1.354, 3.954e-6
-1.355, 3.964e-6
-1.356, 3.885e-6
-1.357, 4.013e-6
-1.358, 3.846e-6
-1.359, 4.023e-6
-1.360, 4.063e-6
-1.361, 4.073e-6
-1.362, 4.191e-6
-1.363, 4.102e-6
-1.364, 4.083e-6
-1.365, 4.221e-6
-1.366, 4.073e-6
-1.367, 4.152e-6
-1.368, 4.161e-6
-1.369, 4.319e-6
-1.370, 4.398e-6
-1.371, 4.240e-6
-1.372, 4.260e-6
-1.373, 4.191e-6
-1.374, 4.369e-6
-1.375, 4.349e-6
-1.376, 4.349e-6
-1.377, 4.526e-6
-1.378, 4.270e-6
-1.379, 4.605e-6
-1.380, 4.546e-6
-1.381, 4.339e-6
-1.382, 4.388e-6
-1.383, 4.457e-6
-1.384, 4.586e-6
-1.385, 4.724e-6
-1.386, 4.803e-6
-1.387, 4.852e-6
-1.388, 4.507e-6
-1.389, 4.931e-6
-1.390, 4.704e-6
-1.391, 4.546e-6
-1.392, 4.941e-6
-1.393, 4.665e-6
-1.394, 4.961e-6
-1.395, 4.773e-6
-1.396, 5.000e-6
-1.397, 5.059e-6
-1.398, 4.990e-6
-1.399, 5.178e-6
-1.400, 5.168e-6
-1.401, 4.872e-6
-1.402, 5.237e-6
-1.403, 5.099e-6
-1.404, 5.168e-6
-1.405, 5.188e-6
-1.406, 5.010e-6
-1.407, 5.385e-6
-1.408, 5.030e-6
-1.409, 5.395e-6
-1.410, 5.385e-6
-1.411, 5.326e-6
-1.412, 5.553e-6
-1.413, 5.454e-6
-1.414, 5.592e-6
-1.415, 5.651e-6
-1.416, 5.454e-6
-1.417, 5.493e-6
-1.418, 5.612e-6
-1.419, 5.868e-6
-1.420, 5.779e-6
-1.421, 5.691e-6
-1.422, 5.809e-6
-1.423, 5.720e-6
-1.424, 5.997e-6
-1.425, 5.829e-6
-1.426, 5.829e-6
-1.427, 5.987e-6
-1.428, 5.661e-6
-1.429, 6.125e-6
-1.430, 6.204e-6
-1.431, 5.987e-6
-1.432, 6.184e-6
-1.433, 6.075e-6
-1.434, 6.480e-6
-1.435, 6.273e-6
-1.436, 6.214e-6
-1.437, 6.401e-6
-1.438, 6.352e-6
-1.439, 6.569e-6
-1.440, 6.727e-6
-1.441, 6.440e-6
-1.442, 6.579e-6
-1.443, 6.707e-6
-1.444, 6.806e-6
-1.445, 6.825e-6
-1.446, 6.825e-6
-1.447, 6.855e-6
-1.448, 6.855e-6
-1.449, 7.042e-6
-1.450, 6.914e-6
-1.451, 6.884e-6
-1.452, 7.072e-6
-1.453, 7.220e-6
-1.454, 7.378e-6
-1.455, 7.289e-6
-1.456, 7.131e-6
-1.457, 7.259e-6
-1.458, 7.230e-6
-1.459, 7.624e-6
-1.460, 7.486e-6
-1.461, 7.595e-6
-1.462, 7.565e-6
-1.463, 7.644e-6
-1.464, 7.753e-6
-1.465, 7.911e-6
-1.466, 7.920e-6
-1.467, 7.891e-6
-1.468, 7.901e-6
-1.469, 7.989e-6
-1.470, 8.118e-6
-1.471, 7.861e-6
-1.472, 8.226e-6
-1.473, 8.157e-6
-1.474, 8.256e-6
-1.475, 8.433e-6
-1.476, 8.493e-6
-1.477, 8.236e-6
-1.478, 8.493e-6
-1.479, 8.532e-6
-1.480, 8.749e-6
-1.481, 8.512e-6
-1.482, 9.035e-6
-1.483, 8.690e-6
-1.484, 8.887e-6
-1.485, 8.907e-6
-1.486, 9.025e-6
-1.487, 9.045e-6
-1.488, 9.272e-6
-1.489, 9.302e-6
-1.490, 9.529e-6
-1.491, 9.104e-6
-1.492, 9.598e-6
-1.493, 9.262e-6
-1.494, 9.538e-6
-1.495, 9.637e-6
-1.496, 9.785e-6
-1.497, 9.716e-6
-1.498, 9.933e-6
-1.499, 1.005e-5
-1.500, 1.006e-5
-1.501, 9.854e-6
-1.502, 1.033e-5
-1.503, 1.011e-5
-1.504, 1.034e-5
-1.505, 1.044e-5
-1.506, 1.045e-5
-1.507, 1.066e-5
-1.508, 1.031e-5
-1.509, 1.064e-5
-1.510, 1.086e-5
-1.511, 1.086e-5
-1.512, 1.110e-5
-1.513, 1.115e-5
-1.514, 1.120e-5
-1.515, 1.126e-5
-1.516, 1.103e-5
-1.517, 1.137e-5
-1.518, 1.149e-5
-1.519, 1.155e-5
-1.520, 1.172e-5
-1.521, 1.173e-5
-1.522, 1.200e-5
-1.523, 1.193e-5
-1.524, 1.211e-5
-1.525, 1.229e-5
-1.526, 1.237e-5
-1.527, 1.256e-5
-1.528, 1.224e-5
-1.529, 1.266e-5
-1.530, 1.281e-5
-1.531, 1.271e-5
-1.532, 1.287e-5
-1.533, 1.308e-5
-1.534, 1.290e-5
-1.535, 1.333e-5
-1.536, 1.314e-5
-1.537, 1.352e-5
-1.538, 1.371e-5
-1.539, 1.415e-5
-1.540, 1.404e-5
-1.541, 1.396e-5
-1.542, 1.429e-5
-1.543, 1.423e-5
-1.544, 1.465e-5
-1.545, 1.473e-5
-1.546, 1.487e-5
-1.547, 1.515e-5
-1.548, 1.481e-5
-1.549, 1.528e-5
-1.550, 1.542e-5
-1.551, 1.547e-5
-1.552, 1.583e-5
-1.553, 1.586e-5
-1.554, 1.604e-5
-1.555, 1.628e-5
-1.556, 1.632e-5
-1.557, 1.674e-5
-1.558, 1.654e-5
-1.559, 1.712e-5
-1.560, 1.723e-5
-1.561, 1.721e-5
-1.562, 1.779e-5
-1.563, 1.762e-5
-1.564, 1.810e-5
-1.565, 1.803e-5
-1.566, 1.831e-5
-1.567, 1.871e-5
-1.568, 1.880e-5
-1.569, 1.917e-5
-1.570, 1.941e-5
-1.571, 1.928e-5
-1.572, 1.994e-5
-1.573, 1.990e-5
-1.574, 2.024e-5
-1.575, 2.034e-5
-1.576, 2.075e-5
-1.577, 2.104e-5
-1.578, 2.120e-5
-1.579, 2.175e-5
-1.580, 2.207e-5
-1.581, 2.219e-5
-1.582, 2.270e-5
-1.583, 2.293e-5
-1.584, 2.328e-5
-1.585, 2.355e-5
-1.586, 2.376e-5
-1.587, 2.435e-5
-1.588, 2.454e-5
-1.589, 2.518e-5
-1.590, 2.570e-5
-1.591, 2.568e-5
-1.592, 2.615e-5
-1.593, 2.647e-5
-1.594, 2.711e-5
-1.595, 2.732e-5
-1.596, 2.798e-5
-1.597, 2.855e-5
-1.598, 2.869e-5
-1.599, 2.920e-5
-1.600, 2.995e-5
-1.601, 3.023e-5
-1.602, 3.099e-5
-1.603, 3.149e-5
-1.604, 3.194e-5
-1.605, 3.251e-5
-1.606, 3.320e-5
-1.607, 3.395e-5
-1.608, 3.414e-5
-1.609, 3.510e-5
-1.610, 3.581e-5
-1.611, 3.631e-5
-1.612, 3.715e-5
-1.613, 3.776e-5
-1.614, 3.868e-5
-1.615, 3.921e-5
-1.616, 3.997e-5
-1.617, 4.090e-5
-1.618, 4.166e-5
-1.619, 4.261e-5
-1.620, 4.369e-5
-1.621, 4.413e-5
-1.622, 4.527e-5
-1.623, 4.624e-5
-1.624, 4.714e-5
-1.625, 4.803e-5
-1.626, 4.936e-5
-1.627, 5.021e-5
-1.628, 5.126e-5
-1.629, 5.264e-5
-1.630, 5.376e-5
-1.631, 5.486e-5
-1.632, 5.623e-5
-1.633, 5.738e-5
-1.634, 5.882e-5
-1.635, 5.999e-5
-1.636, 6.127e-5
-1.637, 6.281e-5
-1.638, 6.442e-5
-1.639, 6.588e-5
-1.640, 6.759e-5
-1.641, 6.917e-5
-1.642, 7.118e-5
-1.643, 7.240e-5
-1.644, 7.424e-5
-1.645, 7.649e-5
-1.646, 7.817e-5
-1.647, 8.018e-5
-1.648, 8.182e-5
-1.649, 8.435e-5
-1.650, 8.639e-5
-1.651, 8.836e-5
-1.652, 9.084e-5
-1.653, 9.315e-5
-1.654, 9.554e-5
-1.655, 9.823e-5
-1.656, 1.007e-4
-1.657, 1.033e-4
-1.658, 1.060e-4
-1.659, 1.089e-4
-1.660, 1.120e-4
-1.661, 1.147e-4
-1.662, 1.179e-4
-1.663, 1.213e-4
-1.664, 1.246e-4
-1.665, 1.279e-4
-1.666, 1.316e-4
-1.667, 1.353e-4
-1.668, 1.388e-4
-1.669, 1.430e-4
-1.670, 1.470e-4
-1.671, 1.510e-4
-1.672, 1.554e-4
-1.673, 1.599e-4
-1.674, 1.644e-4
-1.675, 1.690e-4
-1.676, 1.738e-4
-1.677, 1.791e-4
-1.678, 1.842e-4
-1.679, 1.897e-4
-1.680, 1.954e-4
-1.681, 2.006e-4
-1.682, 2.069e-4
-1.683, 2.129e-4
-1.684, 2.192e-4
-1.685, 2.252e-4
-1.686, 2.320e-4
-1.687, 2.388e-4
-1.688, 2.455e-4
-1.689, 2.529e-4
-1.690, 2.609e-4
-1.691, 2.686e-4
-1.692, 2.767e-4
-1.693, 2.847e-4
-1.694, 2.934e-4
-1.695, 3.021e-4
-1.696, 3.110e-4
-1.697, 3.205e-4
-1.698, 3.301e-4
-1.699, 3.399e-4
-1.700, 3.503e-4
-1.701, 3.609e-4
-1.702, 3.718e-4
-1.703, 3.829e-4
-1.704, 3.945e-4
-1.705, 4.062e-4
-1.706, 4.180e-4
-1.707, 4.306e-4
-1.708, 4.433e-4
-1.709, 4.568e-4
-1.710, 4.706e-4
-1.711, 4.846e-4
-1.712, 4.993e-4
-1.713, 5.142e-4
-1.714, 5.297e-4
-1.715, 5.452e-4
-1.716, 5.617e-4
-1.717, 5.785e-4
-1.718, 5.952e-4
-1.719, 6.129e-4
-1.720, 6.306e-4
-1.721, 6.491e-4
-1.722, 6.682e-4
-1.723, 6.875e-4
-1.724, 7.078e-4
-1.725, 7.280e-4
-1.726, 7.487e-4
-1.727, 7.706e-4
-1.728, 7.926e-4
-1.729, 8.156e-4
-1.730, 8.394e-4
-1.731, 8.628e-4
-1.732, 8.865e-4
-1.733, 9.112e-4
-1.734, 9.373e-4
-1.735, 9.634e-4
-1.736, 9.896e-4
-1.737, 1.017e-3
-1.738, 1.044e-3
-1.739, 1.073e-3
-1.740, 1.102e-3
-1.741, 1.131e-3
-1.742, 1.161e-3
-1.743, 1.192e-3
-1.744, 1.223e-3
-1.745, 1.254e-3
-1.746, 1.287e-3
-1.747, 1.321e-3
-1.748, 1.355e-3
-1.749, 1.389e-3
-1.750, 1.423e-3
-1.751, 1.460e-3
-1.752, 1.496e-3
-1.753, 1.533e-3
-1.754, 1.571e-3
-1.755, 1.609e-3
-1.756, 1.648e-3
-1.757, 1.688e-3
-1.758, 1.728e-3
-1.759, 1.768e-3
-1.760, 1.810e-3
-1.761, 1.852e-3
-1.762, 1.895e-3
-1.763, 1.938e-3
-1.764, 1.982e-3
-1.765, 2.026e-3
-1.766, 2.072e-3
-1.767, 2.116e-3
-1.768, 2.161e-3
-1.769, 2.209e-3
-1.770, 2.256e-3
-1.771, 2.303e-3
-1.772, 2.351e-3
-1.773, 2.402e-3
-1.774, 2.453e-3
-1.775, 2.501e-3
-1.776, 2.551e-3
-1.777, 2.605e-3
-1.778, 2.656e-3
-1.779, 2.707e-3
-1.780, 2.760e-3
-1.781, 2.813e-3
-1.782, 2.867e-3
-1.783, 2.921e-3
-1.784, 2.974e-3
-1.785, 3.030e-3
-1.786, 3.086e-3
-1.787, 3.141e-3
-1.788, 3.197e-3
-1.789, 3.254e-3
-1.790, 3.313e-3
-1.791, 3.370e-3
-1.792, 3.427e-3
-1.793, 3.486e-3
-1.794, 3.546e-3
-1.795, 3.604e-3
-1.796, 3.663e-3
-1.797, 3.724e-3
-1.798, 3.786e-3
-1.799, 3.848e-3
-1.800, 3.877e-3
-1.799, 3.860e-3
-1.798, 3.841e-3
-1.797, 3.820e-3
-1.796, 3.796e-3
-1.795, 3.773e-3
-1.794, 3.745e-3
-1.793, 3.716e-3
-1.792, 3.686e-3
-1.791, 3.658e-3
-1.790, 3.628e-3
-1.789, 3.595e-3
-1.788, 3.564e-3
-1.787, 3.534e-3
-1.786, 3.503e-3
-1.785, 3.471e-3
-1.784, 3.440e-3
-1.783, 3.410e-3
-1.782, 3.377e-3
-1.781, 3.345e-3
-1.780, 3.312e-3
-1.779, 3.280e-3
-1.778, 3.247e-3
-1.777, 3.213e-3
-1.776, 3.180e-3
-1.775, 3.145e-3
-1.774, 3.112e-3
-1.773, 3.080e-3
-1.772, 3.046e-3
-1.771, 3.013e-3
-1.770, 2.981e-3
-1.769, 2.949e-3
-1.768, 2.914e-3
-1.767, 2.881e-3
-1.766, 2.848e-3
-1.765, 2.814e-3
-1.764, 2.781e-3
-1.763, 2.748e-3
-1.762, 2.716e-3
-1.761, 2.684e-3
-1.760, 2.651e-3
-1.759, 2.618e-3
-1.758, 2.587e-3
-1.757, 2.555e-3
-1.756, 2.524e-3
-1.755, 2.491e-3
-1.754, 2.460e-3
-1.753, 2.430e-3
-1.752, 2.397e-3
-1.751, 2.364e-3
-1.750, 2.334e-3
-1.749, 2.303e-3
-1.748, 2.272e-3
-1.747, 2.241e-3
-1.746, 2.210e-3
-1.745, 2.180e-3
-1.744, 2.150e-3
-1.743, 2.119e-3
-1.742, 2.089e-3
-1.741, 2.060e-3
-1.740, 2.031e-3
-1.739, 2.002e-3
-1.738, 1.973e-3
-1.737, 1.944e-3
-1.736, 1.916e-3
-1.735, 1.887e-3
-1.734, 1.858e-3
-1.733, 1.829e-3
-1.732, 1.802e-3
-1.731, 1.775e-3
-1.730, 1.747e-3
-1.729, 1.719e-3
-1.728, 1.693e-3
-1.727, 1.667e-3
-1.726, 1.640e-3
-1.725, 1.614e-3
-1.724, 1.589e-3
-1.723, 1.564e-3
-1.722, 1.538e-3
-1.721, 1.513e-3
-1.720, 1.489e-3
-1.719, 1.464e-3
-1.718, 1.439e-3
-1.717, 1.415e-3
-1.716, 1.392e-3
-1.715, 1.368e-3
-1.714, 1.344e-3
-1.713, 1.321e-3
-1.712, 1.298e-3
-1.711, 1.275e-3
-1.710, 1.253e-3
-1.709, 1.231e-3
-1.708, 1.209e-3
-1.707, 1.188e-3
-1.706, 1.168e-3
-1.705, 1.146e-3
-1.704, 1.125e-3
-1.703, 1.105e-3
-1.702, 1.084e-3
-1.701, 1.064e-3
-1.700, 1.044e-3
-1.699, 1.025e-3
-1.698, 1.006e-3
-1.697, 9.866e-4
-1.696, 9.682e-4
-1.695, 9.489e-4
-1.694, 9.302e-4
-1.693, 9.126e-4
-1.692, 8.942e-4
-1.691, 8.768e-4
-1.690, 8.594e-4
-1.689, 8.422e-4
-1.688, 8.257e-4
-1.687, 8.086e-4
-1.686, 7.924e-4
-1.685, 7.762e-4
-1.684, 7.602e-4
-1.683, 7.449e-4
-1.682, 7.295e-4
-1.681, 7.146e-4
-1.680, 6.999e-4
-1.679, 6.851e-4
-1.678, 6.705e-4
-1.677, 6.561e-4
-1.676, 6.426e-4
-1.675, 6.290e-4
-1.674, 6.155e-4
-1.673, 6.028e-4
-1.672, 5.896e-4
-1.671, 5.770e-4
-1.670, 5.647e-4
-1.669, 5.521e-4
-1.668, 5.399e-4
-1.667, 5.279e-4
-1.666, 5.165e-4
-1.665, 5.050e-4
-1.664, 4.935e-4
-1.663, 4.826e-4
-1.662, 4.716e-4
-1.661, 4.609e-4
-1.660, 4.505e-4
-1.659, 4.400e-4
-1.658, 4.301e-4
-1.657, 4.205e-4
-1.656, 4.112e-4
-1.655, 4.019e-4
-1.654, 3.924e-4
-1.653, 3.839e-4
-1.652, 3.744e-4
-1.651, 3.658e-4
-1.650, 3.573e-4
-1.649, 3.485e-4
-1.648, 3.408e-4
-1.647, 3.326e-4
-1.646, 3.249e-4
-1.645, 3.170e-4
-1.644, 3.093e-4
-1.643, 3.024e-4
-1.642, 2.950e-4
-1.641, 2.879e-4
-1.640, 2.811e-4
-1.639, 2.740e-4
-1.638, 2.672e-4
-1.637, 2.607e-4
-1.636, 2.549e-4
-1.635, 2.483e-4
-1.634, 2.422e-4
-1.633, 2.367e-4
-1.632, 2.309e-4
-1.631, 2.253e-4
-1.630, 2.200e-4
-1.629, 2.144e-4
-1.628, 2.092e-4
-1.627, 2.039e-4
-1.626, 1.992e-4
-1.625, 1.941e-4
-1.624, 1.893e-4
-1.623, 1.849e-4
-1.622, 1.799e-4
-1.621, 1.756e-4
-1.620, 1.713e-4
-1.619, 1.668e-4
-1.618, 1.628e-4
-1.617, 1.586e-4
-1.616, 1.548e-4
-1.615, 1.509e-4
-1.614, 1.470e-4
-1.613, 1.436e-4
-1.612, 1.397e-4
-1.611, 1.364e-4
-1.610, 1.329e-4
-1.609, 1.293e-4
-1.608, 1.265e-4
-1.607, 1.230e-4
-1.606, 1.200e-4
-1.605, 1.169e-4
-1.604, 1.140e-4
-1.603, 1.114e-4
-1.602, 1.083e-4
-1.601, 1.056e-4
-1.600, 1.029e-4
-1.599, 1.002e-4
-1.598, 9.754e-5
-1.597, 9.523e-5
-1.596, 9.284e-5
-1.595, 9.071e-5
-1.594, 8.811e-5
-1.593, 8.612e-5
-1.592, 8.366e-5
-1.591, 8.183e-5
-1.590, 7.967e-5
-1.589, 7.768e-5
-1.588, 7.576e-5
-1.587, 7.352e-5
-1.586, 7.179e-5
-1.585, 7.004e-5
-1.584, 6.816e-5
-1.583, 6.660e-5
-1.582, 6.458e-5
-1.581, 6.312e-5
-1.580, 6.179e-5
-1.579, 5.983e-5
-1.578, 5.863e-5
-1.577, 5.701e-5
-1.576, 5.584e-5
-1.575, 5.431e-5
-1.574, 5.269e-5
-1.573, 5.147e-5
-1.572, 5.007e-5
-1.571, 4.882e-5
-1.570, 4.779e-5
-1.569, 4.624e-5
-1.568, 4.535e-5
-1.567, 4.395e-5
-1.566, 4.291e-5
-1.565, 4.171e-5
-1.564, 4.081e-5
-1.563, 3.978e-5
-1.562, 3.869e-5
-1.561, 3.750e-5
-1.560, 3.679e-5
-1.559, 3.577e-5
-1.558, 3.493e-5
-1.557, 3.389e-5
-1.556, 3.310e-5
-1.555, 3.212e-5
-1.554, 3.127e-5
-1.553, 3.067e-5
-1.552, 2.969e-5
-1.551, 2.883e-5
-1.550, 2.848e-5
-1.549, 2.750e-5
-1.548, 2.680e-5
-1.547, 2.602e-5
-1.546, 2.550e-5
-1.545, 2.476e-5
-1.544, 2.427e-5
-1.543, 2.371e-5
-1.542, 2.285e-5
-1.541, 2.249e-5
-1.540, 2.197e-5
-1.539, 2.108e-5
-1.538, 2.064e-5
-1.537, 1.990e-5
-1.536, 1.946e-5
-1.535, 1.898e-5
-1.534, 1.852e-5
-1.533, 1.822e-5
-1.532, 1.757e-5
-1.531, 1.725e-5
-1.530, 1.686e-5
-1.529, 1.596e-5
-1.528, 1.584e-5
-1.527, 1.514e-5
-1.526, 1.492e-5
-1.525, 1.467e-5
-1.524, 1.437e-5
-1.523, 1.390e-5
-1.522, 1.345e-5
-1.521, 1.317e-5
-1.520, 1.267e-5
-1.519, 1.223e-5
-1.518, 1.215e-5
-1.517, 1.180e-5
-1.516, 1.145e-5
-1.515, 1.113e-5
-1.514, 1.096e-5
-1.513, 1.061e-5
-1.512, 1.023e-5
-1.511, 1.002e-5
-1.510, 9.933e-6
-1.509, 9.311e-6
-1.508, 9.262e-6
-1.507, 9.006e-6
-1.506, 8.838e-6
-1.505, 8.473e-6
-1.504, 8.305e-6
-1.503, 8.108e-6
-1.502, 7.743e-6
-1.501, 7.555e-6
-1.500, 7.516e-6
-1.499, 7.032e-6
-1.498, 7.062e-6
-1.497, 6.648e-6
-1.496, 6.579e-6
-1.495, 6.312e-6
-1.494, 6.204e-6
-1.493, 6.135e-6
-1.492, 5.582e-6
-1.491, 5.582e-6
-1.490, 5.513e-6
-1.489, 5.296e-6
-1.488, 5.099e-6
-1.487, 4.990e-6
-1.486, 4.901e-6
-1.485, 4.665e-6
-1.484, 4.655e-6
-1.483, 4.300e-6
-1.482, 4.270e-6
-1.481, 4.132e-6
-1.480, 4.152e-6
-1.479, 3.639e-6
-1.478, 3.560e-6
-1.477, 3.668e-6
-1.476, 3.303e-6
-1.475, 3.313e-6
-1.474, 3.126e-6
-1.473, 3.274e-6
-1.472, 2.830e-6
-1.471, 3.037e-6
-1.470, 2.790e-6
-1.469, 2.484e-6
-1.468, 2.455e-6
-1.467, 2.395e-6
-1.466, 2.346e-6
-1.465, 2.326e-6
-1.464, 2.090e-6
-1.463, 2.247e-6
-1.462, 1.961e-6
-1.461, 2.030e-6
-1.460, 1.912e-6
-1.459, 1.409e-6
-1.458, 1.547e-6
-1.457, 1.488e-6
-1.456, 1.705e-6
-1.455, 1.389e-6
-1.454, 1.419e-6
-1.453, 1.320e-6
-1.452, 8.958e-7
-1.451, 1.192e-6
-1.450, 9.649e-7
-1.449, 9.057e-7
-1.448, 8.268e-7
-1.447, 6.196e-7
-1.446, 6.492e-7
-1.445, 7.182e-7
-1.444, 5.703e-7
-1.443, 6.590e-7
-1.442, 3.433e-7
-1.441, 4.321e-7
-1.440, 6.393e-7
-1.439, 3.335e-7
-1.438, 2.940e-7
-1.437, 3.532e-7
-1.436, 3.828e-7
-1.435, 5.722e-8
-1.434, 2.249e-7
-1.433, -1.204e-7
-1.432, -3.078e-7
-1.431, -3.157e-8
-1.430, -2.289e-7
-1.429, -3.275e-7
-1.428, -1.204e-7
-1.427, -3.867e-7
-1.426, -3.867e-7
-1.425, -4.459e-7
-1.424, -3.374e-7
-1.423, -3.473e-7
-1.422, -5.150e-7
-1.421, -6.137e-7
-1.420, -4.262e-7
-1.419, -8.702e-7
-1.418, -5.643e-7
-1.417, -9.392e-7
-1.416, -6.433e-7
-1.415, -5.742e-7
-1.414, -8.406e-7
-1.413, -7.419e-7
-1.412, -7.814e-7
-1.411, -9.195e-7
-1.410, -7.617e-7
-1.409, -1.097e-6
-1.408, -9.787e-7
-1.407, -1.176e-6
-1.406, -1.186e-6
-1.405, -1.038e-6
-1.404, -1.077e-6
-1.403, -1.146e-6
-1.402, -1.215e-6
-1.401, -1.166e-6
-1.400, -1.137e-6
-1.399, -1.482e-6
-1.398, -1.413e-6
-1.397, -1.472e-6
-1.396, -1.294e-6
-1.395, -1.423e-6
-1.394, -1.413e-6
-1.393, -1.245e-6
-1.392, -1.521e-6
-1.391, -1.472e-6
-1.390, -1.413e-6
-1.389, -1.847e-6
-1.388, -1.620e-6
-1.387, -1.531e-6
-1.386, -1.511e-6
-1.385, -1.571e-6
-1.384, -1.650e-6
-1.383, -1.462e-6
-1.382, -1.955e-6
-1.381, -1.788e-6
-1.380, -1.640e-6
-1.379, -1.867e-6
-1.378, -1.699e-6
-1.377, -1.650e-6
-1.376, -1.748e-6
-1.375, -2.054e-6
-1.374, -1.798e-6
-1.373, -1.630e-6
-1.372, -1.857e-6
-1.371, -1.748e-6
-1.370, -1.886e-6
-1.369, -2.301e-6
-1.368, -1.768e-6
-1.367, -1.896e-6
-1.366, -1.985e-6
-1.365, -2.044e-6
-1.364, -2.074e-6
-1.363, -1.847e-6
-1.362, -2.311e-6
-1.361, -1.847e-6
-1.360, -1.847e-6
-1.359, -2.202e-6
-1.358, -1.758e-6
-1.357, -2.251e-6
-1.356, -1.985e-6
-1.355, -2.153e-6
-1.354, -2.192e-6
-1.353, -1.985e-6
-1.352, -2.222e-6
-1.351, -2.143e-6
-1.350, -1.867e-6
-1.349, -2.281e-6
-1.348, -2.182e-6
-1.347, -2.468e-6
-1.346, -2.222e-6
-1.345, -2.360e-6
-1.344, -2.419e-6
-1.343, -2.281e-6
-1.342, -2.172e-6
-1.341, -2.084e-6
-1.340, -2.222e-6
-1.339, -2.577e-6
-1.338, -2.261e-6
-1.337, -2.202e-6
-1.336, -2.468e-6
-1.335, -2.192e-6
-1.334, -2.281e-6
-1.333, -2.370e-6
-1.332, -2.360e-6
-1.331, -2.488e-6
-1.330, -2.380e-6
-1.329, -2.735e-6
-1.328, -2.439e-6
-1.327, -2.666e-6
-1.326, -2.390e-6
-1.325, -2.320e-6
-1.324, -2.518e-6
-1.323, -2.291e-6
-1.322, -2.636e-6
-1.321, -2.547e-6
-1.320, -2.370e-6
-1.319, -2.478e-6
-1.318, -2.340e-6
-1.317, -2.478e-6
-1.316, -2.607e-6
-1.315, -2.636e-6
-1.314, -2.616e-6
-1.313, -2.488e-6
-1.312, -2.597e-6
-1.311, -2.429e-6
-1.310, -2.311e-6
-1.309, -2.567e-6
-1.308, -2.508e-6
-1.307, -2.676e-6
-1.306, -2.508e-6
-1.305, -2.764e-6
-1.304, -2.597e-6
-1.303, -2.518e-6
-1.302, -2.715e-6
-1.301, -2.439e-6
-1.300, -2.409e-6
-1.299, -2.883e-6
-1.298, -2.567e-6
-1.297, -2.804e-6
-1.296, -2.607e-6
-1.295, -2.774e-6
-1.294, -2.656e-6
-1.293, -2.636e-6
-1.292, -2.715e-6
-1.291, -2.587e-6
-1.290, -2.488e-6
-1.289, -2.853e-6
-1.288, -2.626e-6
-1.287, -2.893e-6
-1.286, -2.616e-6
-1.285, -2.735e-6
-1.284, -2.705e-6
-1.283, -2.616e-6
-1.282, -2.804e-6
-1.281, -2.656e-6
-1.280, -2.715e-6
-1.279, -2.981e-6
-1.278, -2.616e-6
-1.277, -2.824e-6
-1.276, -2.745e-6
-1.275, -2.695e-6
-1.274, -2.814e-6
-1.273, -2.666e-6
-1.272, -2.843e-6
-1.271, -2.715e-6
-1.270, -2.824e-6
-1.269, -3.149e-6
-1.268, -2.764e-6
-1.267, -2.705e-6
-1.266, -2.774e-6
-1.265, -2.942e-6
-1.264, -2.863e-6
-1.263, -2.893e-6
-1.262, -2.922e-6
-1.261, -2.518e-6
-1.260, -2.686e-6
-1.259, -2.991e-6
-1.258, -2.962e-6
-1.257, -2.922e-6
-1.256, -2.676e-6
-1.255, -2.794e-6
-1.254, -2.824e-6
-1.253, -2.824e-6
-1.252, -2.952e-6
-1.251, -2.853e-6
-1.250, -2.843e-6
-1.249, -2.824e-6
-1.248, -2.676e-6
-1.247, -2.972e-6
-1.246, -2.735e-6
-1.245, -2.853e-6
-1.244, -2.962e-6
-1.243, -2.705e-6
-1.242, -2.903e-6
-1.241, -2.922e-6
-1.240, -2.774e-6
-1.239, -3.051e-6
-1.238, -3.021e-6
-1.237, -2.932e-6
-1.236, -2.972e-6
-1.235, -2.873e-6
-1.234, -2.942e-6
-1.233, -3.041e-6
-1.232, -2.942e-6
-1.231, -2.952e-6
-1.230, -2.794e-6
-1.229, -3.445e-6
-1.228, -3.228e-6
-1.227, -3.248e-6
-1.226, -3.110e-6
-1.225, -3.001e-6
-1.224, -3.051e-6
-1.223, -3.129e-6
-1.222, -3.258e-6
-1.221, -3.031e-6
-1.220, -2.991e-6
-1.219, -3.307e-6
-1.218, -3.041e-6
-1.217, -3.051e-6
-1.216, -3.060e-6
-1.215, -2.932e-6
-1.214, -3.031e-6
-1.213, -3.129e-6
-1.212, -3.218e-6
-1.211, -3.248e-6
-1.210, -3.169e-6
-1.209, -3.287e-6
-1.208, -3.021e-6
-1.207, -3.139e-6
-1.206, -3.001e-6
-1.205, -2.932e-6
-1.204, -3.110e-6
-1.203, -3.139e-6
-1.202, -3.445e-6
-1.201, -3.149e-6
-1.200, -3.129e-6
-1.199, -3.248e-6
-1.198, -3.149e-6
-1.197, -3.149e-6
-1.196, -3.287e-6
-1.195, -3.031e-6
-1.194, -3.376e-6
-1.193, -3.179e-6
-1.192, -3.238e-6
-1.191, -3.080e-6
-1.190, -3.100e-6
-1.189, -3.366e-6
-1.188, -3.169e-6
-1.187, -3.386e-6
-1.186, -3.080e-6
-1.185, -3.208e-6
-1.184, -3.169e-6
-1.183, -3.218e-6
-1.182, -3.337e-6
-1.181, -3.179e-6
-1.180, -2.981e-6
-1.179, -3.337e-6
-1.178, -3.268e-6
-1.177, -3.199e-6
-1.176, -3.435e-6
-1.175, -3.169e-6
-1.174, -3.435e-6
-1.173, -3.317e-6
-1.172, -3.347e-6
-1.171, -3.258e-6
-1.170, -3.169e-6
-1.169, -3.366e-6
-1.168, -3.268e-6
-1.167, -3.396e-6
-1.166, -3.129e-6
-1.165, -3.386e-6
-1.164, -3.277e-6
-1.163, -3.238e-6
-1.162, -3.593e-6
-1.161, -3.356e-6
-1.160, -3.268e-6
-1.159, -3.583e-6
-1.158, -3.248e-6
-1.157, -3.435e-6
-1.156, -3.366e-6
-1.155, -3.573e-6
-1.154, -3.356e-6
-1.153, -3.268e-6
-1.152, -3.327e-6
-1.151, -3.317e-6
-1.150, -3.248e-6
-1.149, -3.741e-6
-1.148, -3.268e-6
-1.147, -3.347e-6
-1.146, -3.218e-6
-1.145, -3.337e-6
-1.144, -3.327e-6
-1.143, -3.307e-6
-1.142, -3.425e-6
-1.141, -3.376e-6
-1.140, -3.287e-6
-1.139, -3.751e-6
-1.138, -3.573e-6
-1.137, -3.406e-6
-1.136, -3.307e-6
-1.135, -3.475e-6
-1.134, -3.544e-6
-1.133, -3.416e-6
-1.132, -3.790e-6
-1.131, -3.465e-6
-1.130, -3.465e-6
-1.129, -3.633e-6
-1.128, -3.455e-6
-1.127, -3.416e-6
-1.126, -3.514e-6
-1.125, -3.376e-6
-1.124, -3.504e-6
-1.123, -3.583e-6
-1.122, -3.544e-6
-1.121, -3.268e-6
-1.120, -3.623e-6
-1.119, -3.771e-6
-1.118, -3.425e-6
-1.117, -3.781e-6
-1.116, -3.504e-6
-1.115, -3.475e-6
-1.114, -3.623e-6
-1.113, -3.633e-6
-1.112, -3.751e-6
-1.111, -3.633e-6
-1.110, -3.347e-6
-1.109, -3.633e-6
-1.108, -3.514e-6
-1.107, -3.840e-6
-1.106, -3.544e-6
-1.105, -3.623e-6
-1.104, -3.721e-6
-1.103, -3.495e-6
-1.102, -3.712e-6
-1.101, -3.643e-6
-1.100, -3.623e-6
-1.099, -4.037e-6
-1.098, -3.564e-6
-1.097, -3.564e-6
-1.096, -3.623e-6
-1.095, -3.721e-6
-1.094, -3.623e-6
-1.093, -3.554e-6
-1.092, -3.731e-6
-1.091, -3.524e-6
-1.090, -3.751e-6
-1.089, -4.057e-6
-1.088, -3.800e-6
-1.087, -3.919e-6
-1.086, -3.692e-6
-1.085, -3.583e-6
-1.084, -3.702e-6
-1.083, -3.583e-6
-1.082, -3.820e-6
-1.081, -3.712e-6
-1.080, -3.850e-6
-1.079, -3.889e-6
-1.078, -3.573e-6
-1.077, -3.810e-6
-1.076, -3.603e-6
-1.075, -3.712e-6
-1.074, -3.840e-6
-1.073, -3.781e-6
-1.072, -4.057e-6
-1.071, -3.721e-6
-1.070, -3.573e-6
-1.069, -3.909e-6
-1.068, -3.721e-6
-1.067, -3.820e-6
-1.066, -3.682e-6
-1.065, -4.077e-6
-1.064, -3.909e-6
-1.063, -3.869e-6
-1.062, -4.116e-6
-1.061, -3.850e-6
-1.060, -3.820e-6
-1.059, -4.136e-6
-1.058, -3.731e-6
-1.057, -4.027e-6
-1.056, -3.998e-6
-1.055, -3.840e-6
-1.054, -4.116e-6
-1.053, -3.613e-6
-1.052, -4.136e-6
-1.051, -3.879e-6
-1.050, -4.086e-6
-1.049, -4.185e-6
-1.048, -3.929e-6
-1.047, -4.027e-6
-1.046, -3.948e-6
-1.045, -4.077e-6
-1.044, -3.978e-6
-1.043, -3.938e-6
-1.042, -4.146e-6
-1.041, -3.889e-6
-1.040, -3.899e-6
-1.039, -4.185e-6
-1.038, -3.919e-6
-1.037, -4.027e-6
-1.036, -4.037e-6
-1.035, -4.205e-6
-1.034, -4.175e-6
-1.033, -4.215e-6
-1.032, -4.116e-6
-1.031, -4.027e-6
-1.030, -4.057e-6
-1.029, -4.284e-6
-1.028, -4.205e-6
-1.027, -4.274e-6
-1.026, -4.086e-6
-1.025, -4.086e-6
-1.024, -4.284e-6
-1.023, -4.215e-6
-1.022, -4.461e-6
-1.021, -4.195e-6
-1.020, -4.146e-6
-1.019, -4.422e-6
-1.018, -4.294e-6
-1.017, -4.284e-6
-1.016, -4.254e-6
-1.015, -4.264e-6
-1.014, -4.294e-6
-1.013, -4.373e-6
-1.012, -4.244e-6
-1.011, -4.550e-6
-1.010, -4.343e-6
-1.009, -4.570e-6
-1.008, -4.294e-6
-1.007, -4.481e-6
-1.006, -4.412e-6
-1.005, -4.422e-6
-1.004, -4.412e-6
-1.003, -4.353e-6
-1.002, -4.511e-6
-1.001, -4.452e-6
