Potential V vs RHE, Current mA cm-2
0.013299999999999867,5.066081164816696
0.012299999999999978,4.04183018371441
0.011299999999999866,3.4943369106666404
0.010299999999999976,2.877522783925485
0.009299999999999864,2.4007650758709675
0.008299999999999974,2.045672539604843
0.007299999999999862,1.543450028152755
0.006299999999999972,1.2875287540071698
0.00529999999999986,0.8772624770463092
0.0042999999999999705,0.5545668295470944
0.0032999999999998586,0.3181685713396467
0.0022999999999999687,-0.0765924697746931
0.0012999999999998568,-0.24545241052658387
0.00029999999999996696,-0.5804560463346246
-0.000700000000000145,-0.8442997037594538
-0.0017000000000000348,-1.022128914152489
-0.0027000000000001467,-1.3683087692294635
-0.0037000000000000366,-1.4925204213576138
-0.0047000000000001485,-1.7853656604296764
-0.005700000000000038,-2.0060606232086218
-0.00670000000000015,-2.150361175794856
-0.00770000000000004,-2.465841795664759
-0.008700000000000152,-2.5620421640555815
-0.009700000000000042,-2.8322520223298033
-0.010700000000000154,-3.0387998721100984
-0.011700000000000044,-3.160465043898492
-0.012700000000000156,-3.4603838394698796
-0.013700000000000045,-3.5311194044631313
-0.014700000000000157,-3.7928409949381634
-0.015700000000000047,-3.9767534639206183
-0.01670000000000016,-4.080027388810766
-0.01770000000000005,-4.379946184382153
-0.01870000000000016,-4.442193481576215
-0.01970000000000005,-4.685523825153001
-0.020700000000000163,-4.866606871535726
-0.021700000000000053,-4.968466085126009
-0.022700000000000164,-5.268384880697396
-0.023700000000000054,-5.329217466591594
-0.024700000000000166,-5.571133098868514
-0.025700000000000056,-5.745142588751914
-0.026700000000000168,-5.830025266743816
-0.027700000000000058,-6.111552815416958
-0.02870000000000017,-6.1766295352107505
-0.02970000000000006,-6.418545167487672
-0.03070000000000017,-6.595384079970801
-0.03170000000000006,-6.671778490163514
-0.03270000000000017,-6.922182390239625
-0.03370000000000006,-6.95189132753679
-0.034700000000000175,-7.175415712915465
-0.035700000000000065,-7.370645872296841
-0.03670000000000018,-7.506458157083885
-0.03770000000000007,-7.860135982050143
-0.03870000000000018,-7.918139145344611
-0.03970000000000007,-8.167128334120857
-0.04070000000000018,-8.339723112704391
-0.04170000000000007,-8.447241171494134
-0.04270000000000018,-8.759892368764307
-0.04370000000000007,-8.83628677895702
-0.044700000000000184,-9.076787699934075
-0.045700000000000074,-9.247967767217744
-0.046700000000000186,-9.322947466110591
-0.047700000000000076,-9.594572035684678
-0.04870000000000019,-9.628525106881439
-0.04970000000000008,-9.870440739158362
-0.05070000000000019,-10.040206095142164
-0.05170000000000008,-10.136406463532989
-0.05270000000000019,-10.427836991305185
-0.05370000000000008,-10.495743133698706
-0.05470000000000019,-10.767367703272795
-0.05570000000000008,-10.969671419153494
-0.056700000000000195,-11.065871787544317
-0.057700000000000085,-11.35588760401665
-0.058700000000000196,-11.402573076912194
-0.059700000000000086,-11.658635822187769
-0.0607000000000002,-11.849621847669546
-0.06170000000000009,-11.945822216060371
-0.0627000000000002,-12.247155722931621
-0.06370000000000009,-12.312232442725414
-0.0647000000000002,-12.568295188000986
-0.06570000000000009,-12.764940058682226
-0.0667000000000002,-12.855481581873589
-0.0677000000000001,-13.14549739834592
-0.0687000000000002,-13.179450469542681
-0.0697000000000001,-13.436927926118118
-0.07070000000000021,-13.683087692294635
-0.0717000000000001,-13.685917114894366
-0.07270000000000021,-13.943394571469803
-0.0737000000000001,-14.041009651160486
-0.07470000000000021,-14.288584128636872
-0.0757000000000001,-14.57152638860988
-0.07670000000000021,-14.61396772760583
-0.0777000000000001,-14.925204213576137
-0.07870000000000021,-15.02423400456669
-0.0797000000000001,-15.264734925543747
-0.08070000000000022,-15.4769416205235
-0.0817000000000001,-15.618412750510005
-0.08270000000000022,-15.929649236480316
-0.08370000000000011,-15.986237688474914
-0.08470000000000022,-16.22673860945197
-0.08570000000000011,-16.438945304431726
-0.08670000000000022,-16.53797509542228
-0.08770000000000011,-16.820917355395284
-0.08870000000000022,-16.863358694391238
-0.08970000000000011,-17.089712502369647
-0.09070000000000022,-17.2736249713521
-0.09170000000000011,-17.358507649344002
-0.09270000000000023,-17.683891248312957
-0.09370000000000012,-17.76877392630486
-0.09470000000000023,-18.03756907327922
-0.09570000000000012,-18.221481542261674
-0.09670000000000023,-18.306364220253574
-0.09770000000000012,-18.617600706223882
-0.09870000000000023,-18.660042045219836
-0.09970000000000012,-18.91469007919554
-0.10070000000000023,-19.126896774175293
-0.10170000000000012,-19.197632339168546
-0.10270000000000024,-19.409839034148305
-0.10370000000000013,-19.141043887173947
-0.10470000000000024,-19.2683679041618
-0.10570000000000013,-19.4381332601456
-0.10670000000000024,-19.565457277133458
-0.10770000000000013,-19.93328221509837
-0.10870000000000024,-20.046459119087572
-0.10970000000000013,-20.272812927065978
-0.11070000000000024,-20.47087250904708
-0.11170000000000013,-20.555755187038983
-0.11270000000000002,-20.85284456001064
-0.11370000000000013,-20.89528589900659
-0.11470000000000002,-21.093345480987697
-0.11570000000000014,-21.291405062968803
-0.11670000000000003,-21.404581966958006
-0.11770000000000014,-21.71581845292831
-0.11870000000000003,-21.729965565926964
-0.11970000000000014,-21.97046648690402
-0.12070000000000003,-22.168526068885125
-0.12170000000000014,-22.267555859875678
-0.12270000000000003,-22.564645232847337
-0.12370000000000014,-22.63538079784059
-0.12470000000000003,-22.890028831816295
-0.12570000000000014,-23.1163826397947
-0.12670000000000003,-23.15882397879065
-0.12770000000000015,-23.41347201276636
-0.12870000000000004,-23.44176623876366
-0.12970000000000015,-23.66812004674206
-0.13070000000000004,-23.908620967719123
-0.13170000000000015,-24.191563227692125
-0.13270000000000004,-24.67256506964624
-0.13370000000000015,-24.771594860636792
-0.13470000000000004,-25.04039000761115
-0.13570000000000015,-25.224302476593607
-0.13670000000000004,-25.295038041586857
-0.13770000000000016,-25.592127414558515
-0.13870000000000005,-25.592127414558515
-0.13970000000000016,-25.677010092550415
-0.14070000000000005,-25.705304318547718
-0.14170000000000016,-25.73359854454502
-0.14270000000000005,-26.002393691519377
-0.14370000000000016,-26.101423482509926
-0.14470000000000005,-26.38436574248293
-0.14570000000000016,-26.63901377645864
-0.14670000000000005,-26.766337793446493
-0.14770000000000016,-27.162456957408708
-0.14870000000000005,-27.233192522401957
-0.14970000000000017,-27.445399217381713
-0.15070000000000006,-27.64345879936282
-0.15170000000000017,-27.742488590353368
-0.15270000000000006,-28.05372507632368
-0.15370000000000017,-28.12446064131693
-0.15470000000000006,-28.364961562293985
-0.15570000000000017,-28.591315370272387
-0.15670000000000006,-28.690345161262943
-0.15770000000000017,-29.015728760231898
-0.15870000000000006,-29.114758551222454
-0.15970000000000018,-29.38355369819681
-0.16070000000000007,-29.62405461917387
-0.16170000000000018,-29.694790184167122
-0.16270000000000007,-29.991879557138777
-0.16370000000000018,-30.06261512213203
-0.16470000000000007,-30.317263156107735
-0.16570000000000018,-30.50117562509019
-0.16670000000000007,-30.571911190083444
-0.16770000000000018,-30.88314767605375
-0.16870000000000007,-30.982177467044306
-0.16970000000000018,-31.23682550102001
-0.17070000000000007,-31.449032195999767
-0.17170000000000019,-31.56220909998897
-0.17270000000000008,-31.887592698957924
-0.1737000000000002,-31.986622489948477
-0.17470000000000008,-32.255417636922836
-0.1757000000000002,-32.4676243319026
-0.17670000000000008,-32.56665412289314
-0.1777000000000002,-32.87789060886345
-0.17870000000000008,-32.96277328685535
-0.1797000000000002,-33.245715546828364
-0.18070000000000008,-33.48621646780542
-0.1817000000000002,-33.59939337179462
-0.18270000000000008,-33.924776970763574
-0.1837000000000002,-33.98136542275818
-0.1847000000000001,-34.16527789174064
-0.1857000000000002,-34.32089613472579
-0.1867000000000001,-34.377484586720385
-0.1877000000000002,-34.702868185689354
-0.1887000000000001,-34.787750863681254
-0.1897000000000002,-35.07069312365426
-0.1907000000000001,-35.339488270628614
-0.1917000000000001,-35.46681228761647
-0.19269999999999998,-35.83463722558138
-0.1937000000000001,-35.91951990357328
-0.19469999999999998,-36.16002082455034
-0.1957000000000001,-36.35808040653144
-0.19669999999999999,-36.41466885852605
-0.1977000000000001,-36.69761111849905
-0.1987,-36.740052457495004
-0.1997000000000001,-36.95225915247476
-0.2007,-37.136171621457216
-0.2017000000000001,-37.249348525446415
-0.2027,-37.631320576409976
-0.2037000000000001,-37.758644593397825
-0.2047,-38.01329262737354
-0.2057000000000001,-38.28208777434789
-0.2067,-38.253793548350586
-0.2077000000000001,-38.32452911334384
-0.2087,-37.97085128837759
-0.2097000000000001,-38.211352209354644
-0.2107,-38.42355890433439
-0.2117000000000001,-38.57917714731955
-0.2127,-38.89041363328986
-0.2137000000000001,-39.187503006261515
-0.2147,-39.47044526623452
-0.2157000000000001,-39.82412309120078
-0.2167,-39.88071154319538
-0.21770000000000012,-40.20609514216434
-0.2187,-40.29097782015624
-0.21970000000000012,-40.545625854131956
-0.2207,-40.743685436113054
-0.22170000000000012,-40.715391210115754
-0.2227,-40.98418635709011
-0.22370000000000012,-40.97003924409146
-0.2247,-41.139804600075266
-0.22570000000000012,-41.23883439106582
-0.2267,-41.32371706905772
-0.22770000000000012,-41.69154200702263
-0.22870000000000001,-41.77642468501453
-0.22970000000000013,-41.98863137999429
-0.23070000000000002,-42.186690961975394
-0.23170000000000013,-42.25742652696865
-0.23270000000000002,-42.554515899940306
-0.23370000000000013,-42.63939857793221
-0.23470000000000002,-42.89404661190791
-0.23570000000000013,-43.148694645883616
-0.23670000000000002,-43.17698887188092
-0.2376999999999999,-43.40334267985933
-0.23870000000000002,-43.40334267985933
-0.2396999999999999,-43.50237247084988
-0.24070000000000003,-43.657990713835034
-0.24169999999999991,-43.672137826833676
-0.24270000000000003,-43.82775606981884
-0.24369999999999992,-43.60140226184043
-0.24470000000000003,-43.544813809845834
-0.24569999999999992,-43.672137826833676
-0.24670000000000003,-43.75702050482558
-0.24769999999999992,-44.223875233781044
-0.24870000000000003,-44.4926703807554
-0.24969999999999992,-44.81805397972436
-0.25070000000000003,-45.01611356170547
-0.2516999999999999,-45.07270201370007
-0.25270000000000004,-45.32735004767578
-0.2536999999999999,-45.28490870867982
-0.25470000000000004,-45.35564427367308
-0.2556999999999999,-45.45467406466363
-0.25670000000000004,-45.42637983866633
-0.25769999999999993,-45.652733646644734
-0.25870000000000004,-45.61029230764878
-0.25969999999999993,-45.70932209863933
-0.26070000000000004,-45.86494034162449
-0.26169999999999993,-45.87908745462314
-0.26270000000000004,-46.147882601597495
-0.26369999999999993,-46.19032394059345
-0.26470000000000005,-46.3459421835786
-0.26569999999999994,-46.4874133135651
-0.26670000000000005,-46.45911908756781
-0.26769999999999994,-46.61473733055296
-0.26870000000000005,-46.501560426563756
-0.26969999999999994,-46.529854652561056
-0.27070000000000005,-46.60059021755431
-0.27169999999999994,-46.515707539562406
-0.27270000000000005,-46.72791423454216
-0.27369999999999994,-46.68547289554621
-0.27470000000000006,-46.78450268653676
-0.27569999999999995,-46.86938536452866
-0.27670000000000006,-46.79864979953541
-0.27769999999999995,-46.96841515551922
-0.27870000000000006,-46.88353247752732
-0.27969999999999995,-46.94012092952192
-0.28070000000000006,-47.067444946509774
-0.28169999999999995,-46.99670938151652
-0.28270000000000006,-47.15232762450167
-0.28369999999999995,-47.053297833511124
-0.28470000000000006,-47.067444946509774
-0.28569999999999995,-47.08159205950842
-0.28670000000000007,-46.92597381652327
-0.28769999999999996,-47.053297833511124
-0.28870000000000007,-46.95426804252057
-0.28969999999999996,-47.01085649451517
-0.29070000000000007,-47.095739172507066
-0.29169999999999996,-47.02500360751382
-0.29270000000000007,-47.19476896349763
-0.29369999999999996,-47.067444946509774
-0.2947000000000001,-47.053297833511124
-0.29569999999999996,-47.067444946509774
-0.2967000000000001,-46.88353247752732
-0.29769999999999996,-46.96841515551922
-0.2987000000000001,-46.86938536452866
-0.29969999999999997,-46.94012092952192
-0.3007000000000001,-46.99670938151652
-0.30169999999999997,-46.84109113853137
-0.3027000000000001,-46.95426804252057
-0.30369999999999997,-46.84109113853137
-0.3047000000000001,-46.89767959052597
-0.30569999999999997,-46.94012092952192
-0.3067000000000001,-46.77035557353811
-0.3077,-46.88353247752732
-0.3087000000000001,-46.72791423454216
-0.3097,-46.72791423454216
-0.3107000000000001,-46.81279691253406
-0.3117,-46.68547289554621
-0.3127000000000001,-46.82694402553272
-0.3137,-46.77035557353811
-0.3147000000000001,-46.713767121543505
-0.3157,-46.72791423454216
-0.3167000000000001,-46.515707539562406
-0.3177,-46.67132578254756
-0.3187000000000001,-46.67132578254756
-0.3197,-46.77035557353811
-0.3207000000000001,-46.84109113853137
-0.3217,-46.713767121543505
-0.3227000000000001,-46.85523825153001
-0.3237,-46.74206134754081
-0.3247000000000001,-46.79864979953541
-0.3257,-46.81279691253406
-0.3267000000000001,-46.47326620056646
-0.3277,-46.529854652561056
-0.3287000000000001,-46.47326620056646
-0.3297,-46.544001765559706
-0.3307000000000001,-46.65717866954891
-0.3317,-46.586443104555656
-0.3327000000000001,-46.84109113853137
-0.3337,-46.81279691253406
-0.3347000000000001,-46.81279691253406
-0.3357,-46.85523825153001
-0.3367000000000001,-46.77035557353811
-0.3377,-46.91182670352462
-0.3387000000000001,-46.84109113853137
-0.3397,-46.96841515551922
-0.3407000000000001,-47.16647473750032
-0.3417,-47.095739172507066
-0.3427000000000001,-47.23721030249357
-0.3437,-47.180621850498966
-0.3447000000000001,-47.15232762450167
-0.3457,-47.19476896349763
-0.3467000000000001,-47.15232762450167
-0.3477,-47.39282854547873
-0.3487000000000001,-47.350387206482786
-0.3497,-47.40697565847737
-0.3507000000000001,-47.520152562466585
-0.3517,-47.449416997473335
-0.3527000000000001,-47.67577080545174
-0.3537,-47.71821214444768
-0.3547000000000001,-47.83138904843689
-0.3557,-48.086037082412595
-0.35670000000000013,-48.1709197604045
-0.3577,-48.39727356838291
-0.35870000000000013,-48.312390890391
-0.3597,-48.35483222938696
-0.36070000000000013,-48.4255677943802
-0.3617,-48.38312645538425
-0.3626999999999999,-48.62362737636131
-0.3637,-48.63777448935996
-0.3646999999999999,-48.65192160235861
-0.3657,-48.76509850634781
-0.3666999999999999,-48.70851005435321
-0.3677,-48.90656963633432
-0.3686999999999999,-48.89242252333566
-0.36970000000000003,-49.019746540323524
-0.3706999999999999,-49.17536478330867
-0.37170000000000003,-49.16121767031002
-0.3726999999999999,-49.43001281728438
-0.37370000000000003,-49.514895495276285
-0.3746999999999999,-49.58563106026953
-0.37570000000000003,-49.67051373826144
-0.3766999999999999,-49.571483947270885
-0.37770000000000004,-49.71295507725739
-0.3786999999999999,-49.68466085126009
-0.37970000000000004,-49.78369064225064
-0.3806999999999999,-49.98175022423175
-0.38170000000000004,-49.967603111233096
-0.38269999999999993,-50.20810403221015
-0.38370000000000004,-50.22225114520881
-0.38469999999999993,-50.30713382320071
-0.38570000000000004,-50.448604953187214
-0.38669999999999993,-50.39201650119261
-0.38770000000000004,-50.56178185717641
-0.38869999999999993,-50.51934051818046
-0.38970000000000005,-50.57592897017506
-0.39069999999999994,-50.74569432615886
-0.39170000000000005,-50.71740010016157
-0.39269999999999994,-50.943753908139975
-0.39370000000000005,-50.97204813413727
-0.39469999999999994,-51.071077925127824
-0.39570000000000005,-51.29743173310623
-0.39669999999999994,-51.325725959103536
-0.39770000000000005,-51.594521106077885
-0.39869999999999994,-51.679403784069784
-0.39970000000000006,-51.7642864620617
-0.40069999999999995,-51.948198931044146
-0.40170000000000006,-51.962346044042796
-0.40269999999999995,-52.1886998520212
-0.40370000000000006,-52.23114119101716
-0.40469999999999995,-52.35846520800501
-0.40570000000000006,-52.68384880697396
-0.40669999999999995,-52.75458437196722
-0.40770000000000006,-53.051673744938874
-0.40869999999999995,-53.19314487492538
-0.40970000000000006,-53.39120445690648
-0.41069999999999995,-53.68829382987814
-0.41170000000000007,-53.85805918586195
-0.41269999999999996,-54.25417834982416
-0.41370000000000007,-54.480532157802564
-0.41469999999999996,-54.890798434763425
-0.41570000000000007,-55.56985985869864
-0.41669999999999996,-56.22062705663656
-0.41770000000000007,-57.16848362754614
-0.41869999999999996,-58.04560463346245
-0.4197000000000001,-59.10663810836124
-0.42069999999999996,-60.47890806923032
-0.4217000000000001,-61.7662953521075
-0.42269999999999996,-63.49224313794284
-0.4237000000000001,-65.14745535878494
-0.42469999999999997,-66.94413870961354
-0.4257000000000001,-68.91058741642594
-0.42669999999999997,-70.76385921924914
-0.4277000000000001,-72.95666173403994
-0.42869999999999997,-75.02214023184291
-0.4297000000000001,-77.28567831162695
-0.43069999999999997,-79.56336350440966
-0.4317000000000001,-81.43078242023151
-0.4327,-83.39723112704392
-0.4337000000000001,-85.13732602587791
-0.4347,-86.84912669871461
-0.4357000000000001,-88.46189758056073
-0.4367,-89.89075599342443
-0.4377000000000001,-91.56011532726518
-0.4387,-93.21532754810727
-0.4397000000000001,-95.04030512493317
-0.4407,-96.4267221988009
-0.4417000000000001,-97.38872588270912
-0.4427,-98.66196605258766
-0.4437000000000001,-99.80788220547834
-0.4447,-100.92550413237171
-0.4457000000000001,-102.25533275424485
-0.4467,-103.3871017941369
-0.4477000000000001,-104.81596020700057
-0.4487,-106.1457888288737
-0.4497000000000001,-107.67367703272794
-0.4507,-109.32888925357003
-0.4517000000000001,-110.81433611842832
-0.4527,-112.49784256526772
-0.4537000000000001,-113.96914231712736
-0.4547,-115.5536189729762
-0.4557000000000001,-117.22297830681694
-0.4567,-118.72257228467387
-0.4577000000000001,-120.70316810448492
-0.4587,-122.52814568131083
-0.4597000000000001,-124.60777129211242
-0.4607,-126.98448627588569
-0.4617000000000001,-129.27631858166706
-0.4627,-131.72376913043357
-0.4637000000000001,-134.00145432321628
-0.4647,-136.43475775898415
-0.4657000000000001,-138.93879675974523
-0.4667,-141.13159927453606
-0.4677000000000001,-143.5931969363012
-0.4687,-145.43232162612577
-0.4697000000000001,-147.4129174459368
-0.4707,-149.95939778569388
-0.4717000000000001,-152.0814647354914
-0.4727,-153.77911829532948
-0.4737000000000001,-155.47677185516753
-0.4747,-157.31589654499206
-0.4757000000000001,-159.43796349478964
-0.4767,-162.12591496453322
-0.4777000000000001,-164.67239530429026
-0.4787,-167.50181790402033
-0.4797000000000001,-169.48241372383137
-0.4807,-171.60448067362896
-0.48170000000000013,-173.44360536345349
-0.4827,-175.56567231325104
-0.48370000000000013,-177.9706815230216
-0.4847,-180.37569073279218
-0.48570000000000013,-182.21481542261674
-0.4867,-182.49775768258974
-0.48570000000000013,-181.2245175127112
-0.4847,-179.80980621284618
-0.48370000000000013,-178.25362378299462
-0.4827,-177.1218547431026
-0.48170000000000013,-175.70714344323756
-0.4807,-174.43390327335902
-0.4797000000000001,-173.58507649344
-0.4787,-172.45330745354798
-0.4777000000000001,-171.46300954364247
-0.4767,-170.18976937376394
-0.4757000000000001,-169.19947146385837
-0.4747,-167.50181790402033
-0.4737000000000001,-166.22857773414182
-0.4727,-165.3797509542228
-0.4717000000000001,-164.10651078434424
-0.4707,-163.54062626439824
-0.4697000000000001,-162.40885722450622
-0.4687,-161.41855931460069
-0.4677000000000001,-160.28679027470866
-0.4667,-158.87207897484362
-0.4657000000000001,-157.88178106493808
-0.4647,-156.75001202504606
