Potential V vs RHE, Current mA cm-2
0.013299999999999867,6.889644030342729
0.012299999999999978,5.667333467259336
0.011299999999999866,4.708159205950842
0.010299999999999976,3.8366970452339793
0.009299999999999864,2.963820173217252
0.008299999999999974,2.0909433012005243
0.007299999999999862,1.3063444142953748
0.006299999999999972,0.6520404381077953
0.00529999999999986,0.08502414912188871
0.0042999999999999705,-0.4384190318281749
0.0032999999999998586,-1.0054353208140816
0.0022999999999999687,-1.6594563547416883
0.0012999999999998568,-2.3144676865791998
0.00029999999999996696,-2.8803522065252145
-0.000700000000000145,-3.361354048479327
-0.0017000000000000348,-3.7093730282461257
-0.0027000000000001467,-4.146518819904423
-0.0037000000000000366,-4.626105950558669
-0.0047000000000001485,-5.191990470504685
-0.005700000000000038,-5.715433651454749
-0.00670000000000015,-6.238876832404812
-0.00770000000000004,-6.54445447317566
-0.008700000000000152,-6.893888164242324
-0.009700000000000042,-7.243321855308987
-0.010700000000000154,-7.722908985963235
-0.011700000000000044,-8.246352166913299
-0.012700000000000156,-8.68208324727173
-0.013700000000000045,-9.073958277334345
-0.014700000000000157,-9.379535918105192
-0.015700000000000047,-9.685113558876042
-0.01670000000000016,-9.99069119964689
-0.01770000000000005,-10.470278330301136
-0.01870000000000016,-10.949865460955383
-0.01970000000000005,-11.385596541313816
-0.020700000000000163,-11.691174182084664
-0.021700000000000053,-11.952895772559694
-0.022700000000000164,-12.258473413330542
-0.023700000000000054,-12.651763154693022
-0.024700000000000166,-13.087494235051453
-0.025700000000000056,-13.567081365705702
-0.026700000000000168,-13.916515056772363
-0.027700000000000058,-14.217848563643619
-0.02870000000000017,-14.444202371622024
-0.02970000000000006,-14.741291744593681
-0.03070000000000017,-15.137410908555893
-0.03170000000000006,-15.618412750510005
-0.03270000000000017,-16.056973253468165
-0.03370000000000006,-16.396503965435777
-0.034700000000000175,-16.665299112410132
-0.035700000000000065,-16.919947146385837
-0.03670000000000018,-17.231183632356142
-0.03770000000000007,-17.669744135314307
-0.03870000000000018,-18.10830463827247
-0.03970000000000007,-18.53271802823198
-0.04070000000000018,-18.88639585319824
-0.04170000000000007,-19.112749661176647
-0.04270000000000018,-19.409839034148305
-0.04370000000000007,-19.805958198110513
-0.044700000000000184,-20.244518701068674
-0.045700000000000074,-20.72552054302279
-0.046700000000000186,-21.149933932982297
-0.047700000000000076,-21.418729079956652
-0.04870000000000019,-21.729965565926964
-0.04970000000000008,-22.027054938898623
-0.05070000000000019,-22.42317410286083
-0.05170000000000008,-22.946617283810895
-0.05270000000000019,-23.385177786769056
-0.05370000000000008,-23.767149837732617
-0.05470000000000019,-24.078386323702922
-0.05570000000000008,-24.34718147067728
-0.056700000000000195,-24.686712182644893
-0.057700000000000085,-25.167714024599
-0.058700000000000196,-25.648715866553115
-0.059700000000000086,-26.129717708507226
-0.0607000000000002,-26.483395533473487
-0.06170000000000009,-26.780484906445146
-0.0627000000000002,-27.091721392415455
-0.06370000000000009,-27.43125210438306
-0.0647000000000002,-27.954695285333123
-0.06570000000000009,-28.435697127287238
-0.0667000000000002,-28.8742576302454
-0.0677000000000001,-29.18549411621571
-0.0687000000000002,-29.440142150191413
-0.0697000000000001,-29.751378636161718
-0.07070000000000021,-30.232380478115836
-0.0717000000000001,-30.7558236590659
-0.07270000000000021,-31.23682550102001
-0.0737000000000001,-31.618797551983565
-0.07470000000000021,-31.930034037953877
-0.0757000000000001,-32.24127052392419
-0.07670000000000021,-32.62324257488775
-0.0777000000000001,-33.10424441684186
-0.07870000000000021,-33.627687597791926
-0.0797000000000001,-34.10868943974604
-0.08070000000000022,-34.462367264712285
-0.0817000000000001,-34.75945663768395
-0.08270000000000022,-35.07069312365426
-0.08370000000000011,-35.50925362661242
-0.08470000000000022,-35.99025546856653
-0.08570000000000011,-36.5136986495166
-0.08670000000000022,-36.95225915247476
-0.08770000000000011,-37.291789864442364
-0.08870000000000022,-37.56058501141672
-0.08970000000000011,-37.90011572338433
-0.09070000000000022,-38.33867622634249
-0.09170000000000011,-38.90456074628851
-0.09270000000000023,-39.38556258824262
-0.09370000000000012,-39.82412309120078
-0.09470000000000023,-40.135359577171094
-0.09570000000000012,-40.43244895014274
-0.09670000000000023,-40.828568114104954
-0.09770000000000012,-41.30956995605907
-0.09870000000000023,-41.83301313700913
-0.09970000000000012,-42.31401497896325
-0.10070000000000023,-42.71013414292546
-0.10170000000000012,-43.007223515897124
-0.10270000000000024,-43.31846000186743
-0.10370000000000013,-43.75702050482558
-0.10470000000000024,-44.28046368577565
-0.10570000000000013,-44.80390686672572
-0.10670000000000024,-45.32735004767578
-0.10770000000000013,-45.666880759643384
-0.10870000000000024,-46.02055858460964
-0.10970000000000013,-46.41667774857186
-0.11070000000000024,-46.88353247752732
-0.11170000000000013,-47.40697565847737
-0.11270000000000002,-47.93041883942744
-0.11370000000000013,-48.36897934238561
-0.11470000000000002,-48.68021582835591
-0.11570000000000014,-48.97730520132757
-0.11670000000000003,-49.33098302629383
-0.11770000000000014,-49.81198486824794
-0.11870000000000003,-50.335428049198
-0.11970000000000014,-50.81642989115212
-0.12070000000000003,-51.21254905511432
-0.12170000000000014,-51.46719708909004
-0.12270000000000003,-51.77843357506035
-0.12370000000000014,-52.2169940780185
-0.12470000000000003,-52.69799591997262
-0.12570000000000014,-53.22143910092268
-0.12670000000000003,-53.603411151886235
-0.12770000000000015,-53.9570889768525
-0.12870000000000004,-54.2117370108282
-0.12970000000000015,-54.52297349679851
-0.13070000000000004,-54.919092660760725
-0.13170000000000015,-55.400094502714836
-0.13270000000000004,-55.881096344668954
-0.13370000000000015,-56.26306839563251
-0.13470000000000004,-56.57430488160282
-0.13570000000000015,-56.82895291557852
-0.13670000000000004,-57.22507207954074
-0.13770000000000016,-57.7485152604908
-0.13870000000000005,-58.27195844144086
-0.13970000000000016,-58.79540162239092
-0.14070000000000005,-59.23396212534908
-0.14170000000000016,-59.502757272323436
-0.14270000000000005,-59.842287984291055
-0.14370000000000016,-60.28084848724921
-0.14470000000000005,-60.80429166819927
-0.14570000000000016,-61.327734849149344
-0.14670000000000005,-61.7662953521075
-0.14770000000000016,-62.11997317707376
-0.14870000000000005,-62.37462121104946
-0.14970000000000017,-62.72829903601572
-0.15070000000000006,-63.15271242597524
-0.15170000000000017,-63.6761556069253
-0.15270000000000006,-64.15715744887942
-0.15370000000000017,-64.55327661284163
-0.15470000000000006,-64.86451309881193
-0.15570000000000017,-65.11916113278764
-0.15670000000000006,-65.4728389577539
-0.15770000000000017,-65.91139946071206
-0.15870000000000006,-66.43484264166212
-0.15970000000000018,-66.91584448361623
-0.16070000000000007,-67.21293385658788
-0.16170000000000018,-67.48172900356225
-0.16270000000000007,-67.693935698542
-0.16370000000000018,-68.13249620150016
-0.16470000000000007,-68.57105670445833
-0.16570000000000018,-69.0096172074165
-0.16670000000000007,-69.43403059737601
-0.16770000000000018,-69.70282574435035
-0.16870000000000007,-70.01406223032066
-0.16970000000000018,-70.31115160329232
-0.17070000000000007,-70.74971210625048
-0.17170000000000019,-71.27315528720055
-0.17270000000000008,-71.7117157901587
-0.1737000000000002,-72.05124650212633
-0.17470000000000008,-72.32004164910067
-0.1757000000000002,-72.53224834408043
-0.17670000000000008,-72.8859261690467
-0.1777000000000002,-73.2820453330089
-0.17870000000000008,-73.76304717496302
-0.1797000000000002,-74.20160767792116
-0.18070000000000008,-74.45625571189689
-0.1817000000000002,-74.66846240687663
-0.18270000000000008,-74.93725755385098
-0.1837000000000002,-75.37581805680915
-0.1847000000000001,-75.81437855976732
-0.1857000000000002,-76.19635061073087
-0.1867000000000001,-76.50758709670117
-0.1877000000000002,-76.71979379168094
-0.1887000000000001,-76.86126492166746
-0.1897000000000002,-77.1583542946391
-0.1907000000000001,-77.55447345860131
-0.1917000000000001,-77.99303396155948
-0.19269999999999998,-78.43159446451764
-0.1937000000000001,-78.77112517648524
-0.19469999999999998,-79.0399203234596
-0.1957000000000001,-79.20968567944341
-0.19669999999999999,-79.42189237442317
-0.1977000000000001,-79.81801153838538
-0.1987,-80.25657204134353
-0.1997000000000001,-80.56780852731384
-0.2007,-80.7800152222936
-0.2017000000000001,-80.90733923928146
-0.2027,-81.09125170826391
-0.2037000000000001,-81.38834108123557
-0.2047,-81.74201890620182
-0.2057000000000001,-82.13813807016405
-0.2067,-82.43522744313569
-0.2077000000000001,-82.52011012112759
-0.2087,-82.70402259011003
-0.2097000000000001,-82.95867062408576
-0.2107,-83.48211380503581
-0.2117000000000001,-84.00555698598588
-0.2127,-84.35923481095215
-0.2137000000000001,-84.48655882793999
-0.2147,-84.7129126359184
-0.2157000000000001,-84.8826779919022
-0.2167,-85.13732602587791
-0.21770000000000012,-85.53344518984011
-0.2187,-86.01444703179425
-0.21970000000000012,-86.45300753475239
-0.2207,-86.75009690772404
-0.22170000000000012,-87.06133339369435
-0.2227,-87.33012854066871
-0.22370000000000012,-87.66965925263632
-0.2247,-88.06577841659853
-0.22570000000000012,-88.5043389195567
-0.2267,-88.8438696315243
-0.22770000000000012,-89.07022343950271
-0.22870000000000001,-89.28243013448247
-0.22970000000000013,-89.50878394246087
-0.23070000000000002,-89.76343197643658
-0.23170000000000013,-90.11710980140283
-0.23270000000000002,-90.41419917437449
-0.23370000000000013,-90.6405529823529
-0.23470000000000002,-90.7254356603448
-0.23570000000000013,-90.85275967733266
-0.23670000000000002,-91.07911348531105
-0.2376999999999999,-91.37620285828272
-0.23870000000000002,-91.81476336124088
-0.2396999999999999,-92.2108825252031
-0.24070000000000003,-92.42308922018285
-0.24169999999999991,-92.56456035016936
-0.24270000000000003,-92.73432570615316
-0.24369999999999992,-93.03141507912481
-0.24470000000000003,-93.42753424308701
-0.24569999999999992,-93.78121206805329
-0.24670000000000003,-94.13488989301955
-0.24769999999999992,-94.30465524900335
-0.24870000000000003,-94.5168619439831
-0.24969999999999992,-94.7432157519615
-0.25070000000000003,-95.04030512493317
-0.2516999999999999,-95.43642428889537
-0.25270000000000004,-95.83254345285758
-0.2536999999999999,-96.04475014783733
-0.25470000000000004,-96.21451550382113
-0.2556999999999999,-96.35598663380765
-0.25670000000000004,-96.5681933287874
-0.25769999999999993,-96.87942981475771
-0.25870000000000004,-97.26140186572127
-0.25969999999999993,-97.61507969068752
-0.26070000000000004,-97.84143349866595
-0.26169999999999993,-98.05364019364569
-0.26270000000000004,-98.2234055496295
-0.26369999999999993,-98.4497593576079
-0.26470000000000005,-98.74684873057957
-0.26569999999999994,-99.10052655554581
-0.26670000000000005,-99.41176304151614
-0.26769999999999994,-99.62396973649588
-0.26870000000000005,-99.70885241448778
-0.26969999999999994,-99.93520622246619
-0.27070000000000005,-100.14741291744595
-0.27169999999999994,-100.5010907424122
-0.27270000000000005,-100.84062145437981
-0.27369999999999994,-101.06697526235823
-0.27470000000000006,-101.23674061834203
-0.27569999999999995,-101.32162329633393
-0.27670000000000006,-101.59041844330828
-0.27769999999999995,-102.02897894626645
-0.27870000000000006,-102.45339233622596
-0.27969999999999995,-102.84951150018817
-0.28070000000000006,-103.11830664716253
-0.28169999999999995,-103.28807200314633
-0.28270000000000006,-103.50027869812607
-0.28369999999999995,-103.81151518409638
-0.28470000000000006,-104.25007568705455
-0.28569999999999995,-104.64619485101677
-0.28670000000000007,-104.98572556298437
-0.28769999999999996,-105.11304957997223
-0.28870000000000007,-105.21207937096277
-0.28969999999999996,-105.33940338795064
-0.29070000000000007,-105.63649276092228
-0.29169999999999996,-105.94772924689259
-0.29270000000000007,-106.2589657328629
-0.29369999999999996,-106.4287310888467
-0.2947000000000001,-106.51361376683862
-0.29569999999999996,-106.55605510583456
-0.2967000000000001,-106.73996757481702
-0.29769999999999996,-107.03705694778867
-0.2987000000000001,-107.4331761117509
-0.29969999999999997,-107.78685393671715
-0.3007000000000001,-107.95661929270095
-0.30169999999999997,-108.0839433096888
-0.3027000000000001,-108.2537086656726
-0.30369999999999997,-108.52250381264696
-0.3047000000000001,-108.91862297660917
-0.30569999999999997,-109.30059502757274
-0.3067000000000001,-109.61183151354304
-0.3077,-109.8240382085228
-0.3087000000000001,-110.00795067750525
-0.3097,-110.22015737248502
-0.3107000000000001,-110.57383519745127
-0.3117,-111.05483703940537
-0.3127000000000001,-111.4509562033676
-0.3137,-111.66316289834735
-0.3147000000000001,-111.83292825433115
-0.3157,-112.01684072331359
-0.3167000000000001,-112.27148875728932
-0.3177,-112.58272524325962
-0.3187000000000001,-112.96469729422319
-0.3197,-113.27593378019348
-0.3207000000000001,-113.44569913617728
-0.3217,-113.53058181416918
-0.3227000000000001,-113.67205294415571
-0.3237,-113.88425963913545
-0.3247000000000001,-114.19549612510575
-0.3257,-114.4925854980774
-0.3267000000000001,-114.76138064505177
-0.3277,-114.88870466203963
-0.3287000000000001,-114.93114600103557
-0.3297,-115.10091135701937
-0.3307000000000001,-115.32726516499778
-0.3317,-115.68094298996405
-0.3327000000000001,-115.93559102393975
-0.3337,-116.14779771891952
-0.3347000000000001,-116.28926884890602
-0.3357,-116.45903420488982
-0.3367000000000001,-116.67124089986959
-0.3377,-117.02491872483584
-0.3387000000000001,-117.42103788879804
-0.3397,-117.63324458377778
-0.3407000000000001,-117.77471571376431
-0.3417,-117.94448106974811
-0.3427000000000001,-118.07180508673595
-0.3437,-118.29815889471436
-0.3447000000000001,-118.59524826768603
-0.3457,-118.90648475365633
-0.3467000000000001,-119.1186914486361
-0.3477,-119.20357412662798
-0.3487000000000001,-119.3450452566145
-0.3497,-119.55725195159425
-0.3507000000000001,-119.95337111555646
-0.3517,-120.29290182752408
-0.3527000000000001,-120.60413831349437
-0.3537,-120.77390366947817
-0.3547000000000001,-120.81634500847414
-0.3557,-120.95781613846064
-0.35670000000000013,-121.17002283344038
-0.3577,-121.52370065840667
-0.35870000000000013,-121.90567270937021
-0.3597,-122.17446785634456
-0.36070000000000013,-122.34423321232836
-0.3617,-122.42911589032028
-0.3626999999999999,-122.57058702030677
-0.3637,-122.69791103729463
-0.3646999999999999,-122.91011773227437
-0.3657,-123.17891287924873
-0.3666999999999999,-123.34867823523254
-0.3677,-123.43356091322445
-0.3686999999999999,-123.4760022522204
-0.36970000000000003,-123.65991472120285
-0.3706999999999999,-123.95700409417452
-0.37170000000000003,-124.31068191914078
-0.3726999999999999,-124.57947706611512
-0.37370000000000003,-124.62191840511109
-0.3746999999999999,-124.57947706611512
-0.37570000000000003,-124.48044727512458
-0.3766999999999999,-124.52288861412055
-0.37770000000000004,-124.70680108310299
-0.3786999999999999,-124.83412510009084
-0.37970000000000004,-124.91900777808273
-0.3806999999999999,-124.83412510009084
-0.38170000000000004,-124.74924242209892
-0.38269999999999993,-124.74924242209892
-0.38370000000000004,-124.83412510009084
-0.38469999999999993,-124.9614491170787
-0.38570000000000004,-125.00389045607463
-0.38669999999999993,-125.14536158606113
-0.38770000000000004,-125.18780292505707
-0.38869999999999993,-125.23024426405304
-0.38970000000000005,-125.272685603049
-0.39069999999999994,-125.44245095903281
-0.39170000000000005,-125.6688047670112
-0.39269999999999994,-125.88101146199097
-0.39370000000000005,-126.00833547897882
-0.39469999999999994,-126.00833547897882
-0.39570000000000005,-126.00833547897882
-0.39669999999999994,-126.14980660896532
-0.39770000000000005,-126.27713062595316
-0.39869999999999994,-126.48933732093293
-0.39970000000000006,-126.71569112891132
-0.40069999999999995,-126.80057380690324
-0.40170000000000006,-126.84301514589919
-0.40269999999999995,-126.88545648489513
-0.40370000000000006,-126.9278978238911
-0.40469999999999995,-127.012780501883
-0.40570000000000006,-127.09766317987489
-0.40669999999999995,-127.14010451887084
-0.40770000000000006,-127.09766317987489
-0.40869999999999995,-127.05522184087894
-0.40970000000000006,-127.09766317987489
-0.41069999999999995,-127.28157564885734
-0.41170000000000007,-127.4937823438371
-0.41269999999999996,-127.62110636082497
-0.41370000000000007,-127.72013615181551
-0.41469999999999996,-127.66354769982091
-0.41570000000000007,-127.57866502182902
-0.41669999999999996,-127.57866502182902
-0.41770000000000007,-127.76257749081147
-0.41869999999999996,-127.93234284679528
-0.4197000000000001,-128.10210820277908
-0.42069999999999996,-128.144549541775
-0.4217000000000001,-128.10210820277908
-0.42269999999999996,-128.10210820277908
-0.4237000000000001,-128.144549541775
-0.42469999999999997,-128.32846201075745
-0.4257000000000001,-128.45578602774532
-0.42669999999999997,-128.45578602774532
-0.4277000000000001,-128.37090334975343
-0.42869999999999997,-128.2294322197669
-0.4297000000000001,-128.144549541775
-0.43069999999999997,-128.2294322197669
-0.4317000000000001,-128.37090334975343
-0.4327,-128.54066870573723
-0.4337000000000001,-128.5831100447332
-0.4347,-128.41334468874936
-0.4357000000000001,-128.28602067176152
-0.4367,-128.28602067176152
-0.4377000000000001,-128.37090334975343
-0.4387,-128.54066870573723
-0.4397000000000001,-128.5831100447332
-0.4407,-128.5831100447332
-0.4417000000000001,-128.45578602774532
-0.4427,-128.37090334975343
-0.4437000000000001,-128.41334468874936
-0.4447,-128.45578602774532
-0.4457000000000001,-128.54066870573723
-0.4467,-128.45578602774532
-0.4477000000000001,-128.28602067176152
-0.4487,-128.10210820277908
-0.4497000000000001,-128.05966686378312
-0.4507,-128.10210820277908
-0.4517000000000001,-128.32846201075745
-0.4527,-128.54066870573723
-0.4537000000000001,-128.66799272272507
-0.4547,-128.752875400717
-0.4557000000000001,-128.85190519170752
-0.4567,-129.0641118866873
-0.4577000000000001,-129.3753483726576
-0.4587,-129.7148790846252
-0.4597000000000001,-130.06855690959148
-0.4607,-130.32320494356716
-0.4617000000000001,-130.5495587515456
-0.4627,-130.84664812451723
-0.4637000000000001,-131.24276728847948
-0.4647,-131.72376913043357
-0.4657000000000001,-132.24721231138363
-0.4667,-132.7706554923337
-0.4677000000000001,-133.20921599529186
-0.4687,-133.69021783724597
-0.4697000000000001,-134.21366101819604
-0.4707,-134.94931089412586
-0.4717000000000001,-135.86887323903812
-0.4727,-136.7884355839504
-0.4737000000000001,-137.65140947686808
-0.4747,-138.52853048278442
-0.4757000000000001,-139.44809282769666
-0.4767,-140.45253785060083
-0.4777000000000001,-141.61260111649017
-0.4787,-142.8858412863687
-0.4797000000000001,-144.15908145624724
-0.4807,-145.43232162612577
-0.48170000000000013,-146.7055617960043
-0.4827,-147.97880196588284
-0.48370000000000013,-149.6764555257209
-0.4847,-151.23263795557244
-0.48570000000000013,-153.07176264539694
-0.4867,-153.49617603535648
-0.48570000000000013,-152.0814647354914
-0.4847,-150.8082245656129
-0.48370000000000013,-149.6764555257209
-0.4827,-148.54468648582886
-0.48170000000000013,-147.6958597059098
-0.4807,-146.7055617960043
-0.4797000000000001,-145.57379275611228
-0.4787,-144.44202371622026
-0.4777000000000001,-143.3102546763282
-0.4767,-142.03701450644968
-0.4757000000000001,-141.06086370954282
-0.4747,-140.0988600256346
-0.4737000000000001,-139.05197366373446
-0.4727,-137.87776328484648
-0.4717000000000001,-136.562081775972
-0.4707,-135.2181060411002
-0.4697000000000001,-134.04389566221224
-0.4687,-132.9404208483175
-0.4677000000000001,-131.8510931474214
-0.4667,-130.7193241075294
-0.4657000000000001,-129.3753483726576
-0.4647,-128.05966686378312
