Jan. 15, 2025   08:09:49
Cyclic Voltammetry
File: c:/users/guazh/data/banditlqround7_x0exp772_r5/2025-01-10-exp851\exp851-2025-01-15t07_58_37-h2koh\exp851_cv_sr_500mvs_efin_-1500mv.bin
Data Source:  Experiment
Instrument Model:  CHI760E
Header: CV ran at 500 mVs
Note: 

Init E (V) = -1
High E (V) = -1
Low E (V) = -1.5
Final E (V) = -1
Init P/N = N
Scan Rate (V/s) = 0.5
Segment = 3
Sample Interval (V) = 0.001
Quiet Time (sec) = 2
Sensitivity (A/V) = 0.01
Comp R (ohm) = 1.4

Results:

Channel 1:
Segment 1:

Segment 2:

Segment 3:

Potential/V, Current/A

-1.000, -4.746e-4
-1.001, -3.791e-4
-1.002, -3.082e-4
-1.003, -2.372e-4
-1.004, -1.725e-4
-1.005, -1.078e-4
-1.006, -4.917e-5
-1.007, 6.322e-6
-1.008, 5.257e-5
-1.009, 9.573e-5
-1.010, 1.327e-4
-1.011, 1.759e-4
-1.012, 2.191e-4
-1.013, 2.653e-4
-1.014, 3.115e-4
-1.015, 3.516e-4
-1.016, 3.886e-4
-1.017, 4.195e-4
-1.018, 4.472e-4
-1.019, 4.750e-4
-1.020, 5.089e-4
-1.021, 5.459e-4
-1.022, 5.859e-4
-1.023, 6.229e-4
-1.024, 6.569e-4
-1.025, 6.846e-4
-1.026, 7.093e-4
-1.027, 7.339e-4
-1.028, 7.648e-4
-1.029, 7.956e-4
-1.030, 8.326e-4
-1.031, 8.665e-4
-1.032, 9.004e-4
-1.033, 9.282e-4
-1.034, 9.498e-4
-1.035, 9.713e-4
-1.036, 9.960e-4
-1.037, 1.027e-3
-1.038, 1.061e-3
-1.039, 1.095e-3
-1.040, 1.129e-3
-1.041, 1.156e-3
-1.042, 1.178e-3
-1.043, 1.199e-3
-1.044, 1.224e-3
-1.045, 1.252e-3
-1.046, 1.283e-3
-1.047, 1.317e-3
-1.048, 1.351e-3
-1.049, 1.381e-3
-1.050, 1.406e-3
-1.051, 1.428e-3
-1.052, 1.452e-3
-1.053, 1.480e-3
-1.054, 1.514e-3
-1.055, 1.548e-3
-1.056, 1.582e-3
-1.057, 1.616e-3
-1.058, 1.643e-3
-1.059, 1.668e-3
-1.060, 1.699e-3
-1.061, 1.721e-3
-1.062, 1.754e-3
-1.063, 1.788e-3
-1.064, 1.825e-3
-1.065, 1.859e-3
-1.066, 1.884e-3
-1.067, 1.909e-3
-1.068, 1.930e-3
-1.069, 1.955e-3
-1.070, 1.986e-3
-1.071, 2.020e-3
-1.072, 2.057e-3
-1.073, 2.087e-3
-1.074, 2.121e-3
-1.075, 2.146e-3
-1.076, 2.174e-3
-1.077, 2.195e-3
-1.078, 2.223e-3
-1.079, 2.254e-3
-1.080, 2.291e-3
-1.081, 2.325e-3
-1.082, 2.359e-3
-1.083, 2.383e-3
-1.084, 2.408e-3
-1.085, 2.430e-3
-1.086, 2.457e-3
-1.087, 2.491e-3
-1.088, 2.528e-3
-1.089, 2.565e-3
-1.090, 2.602e-3
-1.091, 2.633e-3
-1.092, 2.661e-3
-1.093, 2.682e-3
-1.094, 2.710e-3
-1.095, 2.741e-3
-1.096, 2.775e-3
-1.097, 2.818e-3
-1.098, 2.852e-3
-1.099, 2.889e-3
-1.100, 2.917e-3
-1.101, 2.948e-3
-1.102, 2.975e-3
-1.103, 3.006e-3
-1.104, 3.043e-3
-1.105, 3.080e-3
-1.106, 3.117e-3
-1.107, 3.154e-3
-1.108, 3.185e-3
-1.109, 3.210e-3
-1.110, 3.234e-3
-1.111, 3.262e-3
-1.112, 3.296e-3
-1.113, 3.333e-3
-1.114, 3.370e-3
-1.115, 3.407e-3
-1.116, 3.438e-3
-1.117, 3.469e-3
-1.118, 3.493e-3
-1.119, 3.521e-3
-1.120, 3.555e-3
-1.121, 3.592e-3
-1.122, 3.632e-3
-1.123, 3.669e-3
-1.124, 3.703e-3
-1.125, 3.734e-3
-1.126, 3.762e-3
-1.127, 3.789e-3
-1.128, 3.820e-3
-1.129, 3.857e-3
-1.130, 3.894e-3
-1.131, 3.934e-3
-1.132, 3.968e-3
-1.133, 3.999e-3
-1.134, 4.027e-3
-1.135, 4.051e-3
-1.136, 4.079e-3
-1.137, 4.116e-3
-1.138, 4.153e-3
-1.139, 4.193e-3
-1.140, 4.230e-3
-1.141, 4.261e-3
-1.142, 4.289e-3
-1.143, 4.307e-3
-1.144, 4.332e-3
-1.145, 4.363e-3
-1.146, 4.400e-3
-1.147, 4.437e-3
-1.148, 4.474e-3
-1.149, 4.508e-3
-1.150, 4.535e-3
-1.151, 4.560e-3
-1.152, 4.588e-3
-1.153, 4.619e-3
-1.154, 4.653e-3
-1.155, 4.693e-3
-1.156, 4.736e-3
-1.157, 4.776e-3
-1.158, 4.807e-3
-1.159, 4.834e-3
-1.160, 4.862e-3
-1.161, 4.893e-3
-1.162, 4.930e-3
-1.163, 4.970e-3
-1.164, 5.010e-3
-1.165, 5.047e-3
-1.166, 5.081e-3
-1.167, 5.109e-3
-1.168, 5.130e-3
-1.169, 5.152e-3
-1.170, 5.183e-3
-1.171, 5.217e-3
-1.172, 5.251e-3
-1.173, 5.288e-3
-1.174, 5.315e-3
-1.175, 5.340e-3
-1.176, 5.362e-3
-1.177, 5.383e-3
-1.178, 5.408e-3
-1.179, 5.430e-3
-1.180, 5.457e-3
-1.181, 5.491e-3
-1.182, 5.519e-3
-1.183, 5.544e-3
-1.184, 5.565e-3
-1.185, 5.587e-3
-1.186, 5.611e-3
-1.187, 5.642e-3
-1.188, 5.676e-3
-1.189, 5.713e-3
-1.190, 5.750e-3
-1.191, 5.781e-3
-1.192, 5.809e-3
-1.193, 5.830e-3
-1.194, 5.855e-3
-1.195, 5.883e-3
-1.196, 5.910e-3
-1.197, 5.944e-3
-1.198, 5.978e-3
-1.199, 6.006e-3
-1.200, 6.028e-3
-1.201, 6.049e-3
-1.202, 6.071e-3
-1.203, 6.095e-3
-1.204, 6.123e-3
-1.205, 6.154e-3
-1.206, 6.182e-3
-1.207, 6.206e-3
-1.208, 6.231e-3
-1.209, 6.247e-3
-1.210, 6.265e-3
-1.211, 6.287e-3
-1.212, 6.317e-3
-1.213, 6.348e-3
-1.214, 6.385e-3
-1.215, 6.419e-3
-1.216, 6.450e-3
-1.217, 6.475e-3
-1.218, 6.496e-3
-1.219, 6.518e-3
-1.220, 6.546e-3
-1.221, 6.573e-3
-1.222, 6.607e-3
-1.223, 6.635e-3
-1.224, 6.666e-3
-1.225, 6.687e-3
-1.226, 6.712e-3
-1.227, 6.728e-3
-1.228, 6.749e-3
-1.229, 6.780e-3
-1.230, 6.814e-3
-1.231, 6.848e-3
-1.232, 6.875e-3
-1.233, 6.897e-3
-1.234, 6.912e-3
-1.235, 6.928e-3
-1.236, 6.946e-3
-1.237, 6.968e-3
-1.238, 6.990e-3
-1.239, 7.011e-3
-1.240, 7.036e-3
-1.241, 7.054e-3
-1.242, 7.070e-3
-1.243, 7.082e-3
-1.244, 7.094e-3
-1.245, 7.119e-3
-1.246, 7.144e-3
-1.247, 7.171e-3
-1.248, 7.199e-3
-1.249, 7.224e-3
-1.250, 7.239e-3
-1.251, 7.258e-3
-1.252, 7.276e-3
-1.253, 7.298e-3
-1.254, 7.329e-3
-1.255, 7.360e-3
-1.256, 7.387e-3
-1.257, 7.412e-3
-1.258, 7.430e-3
-1.259, 7.443e-3
-1.260, 7.452e-3
-1.261, 7.467e-3
-1.262, 7.486e-3
-1.263, 7.511e-3
-1.264, 7.535e-3
-1.265, 7.560e-3
-1.266, 7.582e-3
-1.267, 7.600e-3
-1.268, 7.615e-3
-1.269, 7.631e-3
-1.270, 7.656e-3
-1.271, 7.683e-3
-1.272, 7.717e-3
-1.273, 7.751e-3
-1.274, 7.779e-3
-1.275, 7.797e-3
-1.276, 7.819e-3
-1.277, 7.837e-3
-1.278, 7.856e-3
-1.279, 7.878e-3
-1.280, 7.905e-3
-1.281, 7.927e-3
-1.282, 7.942e-3
-1.283, 7.948e-3
-1.284, 7.964e-3
-1.285, 7.976e-3
-1.286, 7.998e-3
-1.287, 8.022e-3
-1.288, 8.050e-3
-1.289, 8.075e-3
-1.290, 8.096e-3
-1.291, 8.019e-3
-1.292, 7.899e-3
-1.293, 7.908e-3
-1.294, 7.921e-3
-1.295, 7.939e-3
-1.296, 7.961e-3
-1.297, 7.985e-3
-1.298, 8.007e-3
-1.299, 8.025e-3
-1.300, 8.044e-3
-1.301, 8.053e-3
-1.302, 8.069e-3
-1.303, 8.096e-3
-1.304, 8.180e-3
-1.305, 8.217e-3
-1.306, 8.263e-3
-1.307, 8.309e-3
-1.308, 8.321e-3
-1.309, 8.355e-3
-1.310, 8.386e-3
-1.311, 8.417e-3
-1.312, 8.457e-3
-1.313, 8.491e-3
-1.314, 8.525e-3
-1.315, 8.553e-3
-1.316, 8.577e-3
-1.317, 8.596e-3
-1.318, 8.608e-3
-1.319, 8.633e-3
-1.320, 8.661e-3
-1.321, 8.688e-3
-1.322, 8.719e-3
-1.323, 8.753e-3
-1.324, 8.781e-3
-1.325, 8.799e-3
-1.326, 8.809e-3
-1.327, 8.827e-3
-1.328, 8.839e-3
-1.329, 8.864e-3
-1.330, 8.886e-3
-1.331, 8.898e-3
-1.332, 8.978e-3
-1.333, 8.997e-3
-1.334, 9.012e-3
-1.335, 9.028e-3
-1.336, 9.043e-3
-1.337, 9.064e-3
-1.338, 9.089e-3
-1.339, 9.117e-3
-1.340, 9.142e-3
-1.341, 9.160e-3
-1.342, 9.175e-3
-1.343, 9.188e-3
-1.344, 9.200e-3
-1.345, 9.222e-3
-1.346, 9.243e-3
-1.347, 9.271e-3
-1.348, 9.299e-3
-1.349, 9.320e-3
-1.350, 9.339e-3
-1.351, 9.351e-3
-1.352, 9.367e-3
-1.353, 9.388e-3
-1.354, 9.413e-3
-1.355, 9.441e-3
-1.356, 9.465e-3
-1.357, 9.484e-3
-1.358, 9.502e-3
-1.359, 9.512e-3
-1.360, 9.524e-3
-1.361, 9.539e-3
-1.362, 9.558e-3
-1.363, 9.576e-3
-1.364, 9.601e-3
-1.365, 9.623e-3
-1.366, 9.638e-3
-1.367, 9.647e-3
-1.368, 9.647e-3
-1.369, 9.660e-3
-1.370, 9.678e-3
-1.371, 9.703e-3
-1.372, 9.737e-3
-1.373, 9.761e-3
-1.374, 9.789e-3
-1.375, 9.804e-3
-1.376, 9.820e-3
-1.377, 9.838e-3
-1.378, 9.857e-3
-1.379, 9.885e-3
-1.380, 9.915e-3
-1.381, 9.940e-3
-1.382, 9.965e-3
-1.383, 9.983e-3
-1.384, 9.993e-3
-1.385, 1.000e-2
-1.386, 1.001e-2
-1.387, 1.003e-2
-1.388, 1.006e-2
-1.389, 1.008e-2
-1.390, 1.010e-2
-1.391, 1.012e-2
-1.392, 1.012e-2
-1.393, 1.013e-2
-1.394, 1.014e-2
-1.395, 1.016e-2
-1.396, 1.018e-2
-1.397, 1.020e-2
-1.398, 1.021e-2
-1.399, 1.022e-2
-1.400, 1.023e-2
-1.401, 1.023e-2
-1.402, 1.024e-2
-1.403, 1.025e-2
-1.404, 1.026e-2
-1.405, 1.028e-2
-1.406, 1.030e-2
-1.407, 1.032e-2
-1.408, 1.033e-2
-1.409, 1.033e-2
-1.410, 1.034e-2
-1.411, 1.035e-2
-1.412, 1.037e-2
-1.413, 1.038e-2
-1.414, 1.040e-2
-1.415, 1.041e-2
-1.416, 1.042e-2
-1.417, 1.043e-2
-1.418, 1.044e-2
-1.419, 1.044e-2
-1.420, 1.046e-2
-1.421, 1.047e-2
-1.422, 1.050e-2
-1.423, 1.051e-2
-1.424, 1.053e-2
-1.425, 1.054e-2
-1.426, 1.054e-2
-1.427, 1.055e-2
-1.428, 1.055e-2
-1.429, 1.057e-2
-1.430, 1.058e-2
-1.431, 1.059e-2
-1.432, 1.060e-2
-1.433, 1.060e-2
-1.434, 1.059e-2
-1.435, 1.059e-2
-1.436, 1.060e-2
-1.437, 1.060e-2
-1.438, 1.062e-2
-1.439, 1.063e-2
-1.440, 1.065e-2
-1.441, 1.066e-2
-1.442, 1.066e-2
-1.443, 1.067e-2
-1.444, 1.067e-2
-1.445, 1.068e-2
-1.446, 1.070e-2
-1.447, 1.071e-2
-1.448, 1.072e-2
-1.449, 1.074e-2
-1.450, 1.074e-2
-1.451, 1.073e-2
-1.452, 1.073e-2
-1.453, 1.074e-2
-1.454, 1.075e-2
-1.455, 1.077e-2
-1.456, 1.078e-2
-1.457, 1.078e-2
-1.458, 1.078e-2
-1.459, 1.078e-2
-1.460, 1.078e-2
-1.461, 1.078e-2
-1.462, 1.079e-2
-1.463, 1.080e-2
-1.464, 1.081e-2
-1.465, 1.082e-2
-1.466, 1.082e-2
-1.467, 1.082e-2
-1.468, 1.081e-2
-1.469, 1.081e-2
-1.470, 1.082e-2
-1.471, 1.082e-2
-1.472, 1.084e-2
-1.473, 1.085e-2
-1.474, 1.085e-2
-1.475, 1.086e-2
-1.476, 1.085e-2
-1.477, 1.086e-2
-1.478, 1.086e-2
-1.479, 1.088e-2
-1.480, 1.090e-2
-1.481, 1.091e-2
-1.482, 1.092e-2
-1.483, 1.093e-2
-1.484, 1.094e-2
-1.485, 1.095e-2
-1.486, 1.097e-2
-1.487, 1.099e-2
-1.488, 1.102e-2
-1.489, 1.106e-2
-1.490, 1.110e-2
-1.491, 1.112e-2
-1.492, 1.115e-2
-1.493, 1.118e-2
-1.494, 1.122e-2
-1.495, 1.127e-2
-1.496, 1.133e-2
-1.497, 1.138e-2
-1.498, 1.144e-2
-1.499, 1.152e-2
-1.500, 1.149e-2
-1.499, 1.133e-2
-1.498, 1.120e-2
-1.497, 1.108e-2
-1.496, 1.098e-2
-1.495, 1.087e-2
-1.494, 1.078e-2
-1.493, 1.068e-2
-1.492, 1.058e-2
-1.491, 1.047e-2
-1.490, 1.037e-2
-1.489, 1.027e-2
-1.488, 1.017e-2
-1.487, 1.008e-2
-1.486, 9.999e-3
-1.485, 9.909e-3
-1.484, 9.814e-3
-1.483, 9.718e-3
-1.482, 9.619e-3
-1.481, 9.524e-3
-1.480, 9.438e-3
-1.479, 9.357e-3
-1.478, 9.280e-3
-1.477, 9.203e-3
-1.476, 9.117e-3
-1.475, 9.034e-3
-1.474, 8.941e-3
-1.473, 8.855e-3
-1.472, 8.772e-3
-1.471, 8.691e-3
-1.470, 8.611e-3
-1.469, 8.537e-3
-1.468, 8.454e-3
-1.467, 8.371e-3
-1.466, 8.284e-3
-1.465, 8.192e-3
-1.464, 8.109e-3
-1.463, 8.025e-3
-1.462, 7.948e-3
-1.461, 7.871e-3
-1.460, 7.791e-3
-1.459, 7.711e-3
-1.458, 7.622e-3
-1.457, 7.529e-3
-1.456, 7.446e-3
-1.455, 7.360e-3
-1.454, 7.279e-3
-1.453, 7.199e-3
-1.452, 7.116e-3
-1.451, 7.030e-3
-1.450, 6.940e-3
-1.449, 6.848e-3
-1.448, 6.761e-3
-1.447, 6.675e-3
-1.446, 6.598e-3
-1.445, 6.518e-3
-1.444, 6.438e-3
-1.443, 6.358e-3
-1.442, 6.268e-3
-1.441, 6.179e-3
-1.440, 6.089e-3
-1.439, 6.000e-3
-1.438, 5.923e-3
-1.437, 5.849e-3
-1.436, 5.772e-3
-1.435, 5.698e-3
-1.434, 5.611e-3
-1.433, 5.522e-3
-1.432, 5.436e-3
-1.431, 5.349e-3
-1.430, 5.275e-3
-1.429, 5.201e-3
-1.428, 5.130e-3
-1.427, 5.060e-3
-1.426, 4.982e-3
-1.425, 4.902e-3
-1.424, 4.822e-3
-1.423, 4.742e-3
-1.422, 4.668e-3
-1.421, 4.600e-3
-1.420, 4.529e-3
-1.419, 4.464e-3
-1.418, 4.394e-3
-1.417, 4.323e-3
-1.416, 4.249e-3
-1.415, 4.172e-3
-1.414, 4.101e-3
-1.413, 4.033e-3
-1.412, 3.971e-3
-1.411, 3.910e-3
-1.410, 3.845e-3
-1.409, 3.777e-3
-1.408, 3.706e-3
-1.407, 3.632e-3
-1.406, 3.561e-3
-1.405, 3.496e-3
-1.404, 3.435e-3
-1.403, 3.376e-3
-1.402, 3.318e-3
-1.401, 3.253e-3
-1.400, 3.185e-3
-1.399, 3.114e-3
-1.398, 3.049e-3
-1.397, 2.988e-3
-1.396, 2.926e-3
-1.395, 2.871e-3
-1.394, 2.815e-3
-1.393, 2.760e-3
-1.392, 2.698e-3
-1.391, 2.633e-3
-1.390, 2.568e-3
-1.389, 2.510e-3
-1.388, 2.454e-3
-1.387, 2.405e-3
-1.386, 2.353e-3
-1.385, 2.300e-3
-1.384, 2.248e-3
-1.383, 2.186e-3
-1.382, 2.128e-3
-1.381, 2.069e-3
-1.380, 2.020e-3
-1.379, 1.973e-3
-1.378, 1.927e-3
-1.377, 1.881e-3
-1.376, 1.828e-3
-1.375, 1.776e-3
-1.374, 1.721e-3
-1.373, 1.668e-3
-1.372, 1.622e-3
-1.371, 1.576e-3
-1.370, 1.536e-3
-1.369, 1.492e-3
-1.368, 1.449e-3
-1.367, 1.400e-3
-1.366, 1.351e-3
-1.365, 1.295e-3
-1.364, 1.249e-3
-1.363, 1.209e-3
-1.362, 1.172e-3
-1.361, 1.135e-3
-1.360, 1.098e-3
-1.359, 1.051e-3
-1.358, 1.005e-3
-1.357, 9.559e-4
-1.356, 9.097e-4
-1.355, 8.727e-4
-1.354, 8.388e-4
-1.353, 8.048e-4
-1.352, 7.709e-4
-1.351, 7.309e-4
-1.350, 6.877e-4
-1.349, 6.384e-4
-1.348, 5.983e-4
-1.347, 5.613e-4
-1.346, 5.305e-4
-1.345, 4.965e-4
-1.344, 4.657e-4
-1.343, 4.318e-4
-1.342, 3.948e-4
-1.341, 3.516e-4
-1.340, 3.115e-4
-1.339, 2.746e-4
-1.338, 2.437e-4
-1.337, 2.129e-4
-1.336, 1.882e-4
-1.335, 1.543e-4
-1.334, 1.204e-4
-1.333, 8.340e-5
-1.332, 4.332e-5
-1.331, 6.322e-6
-1.330, -2.451e-5
-1.329, -4.917e-5
-1.328, -7.384e-5
-1.327, -1.016e-4
-1.326, -1.324e-4
-1.325, -1.694e-4
-1.324, -2.064e-4
-1.323, -2.372e-4
-1.322, -2.681e-4
-1.321, -2.958e-4
-1.320, -3.174e-4
-1.319, -3.390e-4
-1.318, -3.698e-4
-1.317, -4.006e-4
-1.316, -4.346e-4
-1.315, -4.685e-4
-1.314, -4.993e-4
-1.313, -5.240e-4
-1.312, -5.456e-4
-1.311, -5.671e-4
-1.310, -5.918e-4
-1.309, -6.195e-4
-1.308, -6.535e-4
-1.307, -6.874e-4
-1.306, -7.151e-4
-1.305, -7.398e-4
-1.304, -7.614e-4
-1.303, -7.768e-4
-1.302, -7.984e-4
-1.301, -8.200e-4
-1.300, -8.508e-4
-1.299, -8.816e-4
-1.298, -9.094e-4
-1.297, -9.340e-4
-1.296, -9.525e-4
-1.295, -9.710e-4
-1.294, -9.957e-4
-1.293, -1.017e-3
-1.292, -1.048e-3
-1.291, -1.076e-3
-1.290, -1.104e-3
-1.289, -1.131e-3
-1.288, -1.153e-3
-1.287, -1.168e-3
-1.286, -1.187e-3
-1.285, -1.205e-3
-1.284, -1.230e-3
-1.283, -1.261e-3
-1.282, -1.289e-3
-1.281, -1.316e-3
-1.280, -1.335e-3
-1.279, -1.350e-3
-1.278, -1.366e-3
-1.277, -1.381e-3
-1.276, -1.406e-3
-1.275, -1.430e-3
-1.274, -1.458e-3
-1.273, -1.483e-3
-1.272, -1.504e-3
-1.271, -1.523e-3
-1.270, -1.538e-3
-1.269, -1.554e-3
-1.268, -1.572e-3
-1.267, -1.597e-3
-1.266, -1.622e-3
-1.265, -1.652e-3
-1.264, -1.674e-3
-1.263, -1.692e-3
-1.262, -1.708e-3
-1.261, -1.720e-3
-1.260, -1.739e-3
-1.259, -1.763e-3
-1.258, -1.788e-3
-1.257, -1.816e-3
-1.256, -1.837e-3
-1.255, -1.853e-3
-1.254, -1.865e-3
-1.253, -1.877e-3
-1.252, -1.893e-3
-1.251, -1.911e-3
-1.250, -1.933e-3
-1.249, -1.958e-3
-1.248, -1.982e-3
-1.247, -2.001e-3
-1.246, -2.016e-3
-1.245, -2.029e-3
-1.244, -2.044e-3
-1.243, -2.062e-3
-1.242, -2.087e-3
-1.241, -2.106e-3
-1.240, -2.130e-3
-1.239, -2.152e-3
-1.238, -2.170e-3
-1.237, -2.183e-3
-1.236, -2.198e-3
-1.235, -2.217e-3
-1.234, -2.235e-3
-1.233, -2.263e-3
-1.232, -2.288e-3
-1.231, -2.312e-3
-1.230, -2.331e-3
-1.229, -2.346e-3
-1.228, -2.358e-3
-1.227, -2.371e-3
-1.226, -2.389e-3
-1.225, -2.414e-3
-1.224, -2.439e-3
-1.223, -2.460e-3
-1.222, -2.479e-3
-1.221, -2.491e-3
-1.220, -2.503e-3
-1.219, -2.516e-3
-1.218, -2.528e-3
-1.217, -2.553e-3
-1.216, -2.577e-3
-1.215, -2.602e-3
-1.214, -2.620e-3
-1.213, -2.636e-3
-1.212, -2.648e-3
-1.211, -2.657e-3
-1.210, -2.673e-3
-1.209, -2.691e-3
-1.208, -2.716e-3
-1.207, -2.744e-3
-1.206, -2.768e-3
-1.205, -2.784e-3
-1.204, -2.796e-3
-1.203, -2.809e-3
-1.202, -2.821e-3
-1.201, -2.839e-3
-1.200, -2.858e-3
-1.199, -2.883e-3
-1.198, -2.907e-3
-1.197, -2.926e-3
-1.196, -2.944e-3
-1.195, -2.957e-3
-1.194, -2.972e-3
-1.193, -2.994e-3
-1.192, -3.015e-3
-1.191, -3.040e-3
-1.190, -3.068e-3
-1.189, -3.089e-3
-1.188, -3.105e-3
-1.187, -3.117e-3
-1.186, -3.132e-3
-1.185, -3.151e-3
-1.184, -3.169e-3
-1.183, -3.197e-3
-1.182, -3.225e-3
-1.181, -3.246e-3
-1.180, -3.265e-3
-1.179, -3.280e-3
-1.178, -3.293e-3
-1.177, -3.311e-3
-1.176, -3.330e-3
-1.175, -3.357e-3
-1.174, -3.382e-3
-1.173, -3.404e-3
-1.172, -3.425e-3
-1.171, -3.441e-3
-1.170, -3.453e-3
-1.169, -3.468e-3
-1.168, -3.487e-3
-1.167, -3.508e-3
-1.166, -3.533e-3
-1.165, -3.561e-3
-1.164, -3.582e-3
-1.163, -3.601e-3
-1.162, -3.613e-3
-1.161, -3.629e-3
-1.160, -3.644e-3
-1.159, -3.669e-3
-1.158, -3.700e-3
-1.157, -3.727e-3
-1.156, -3.755e-3
-1.155, -3.774e-3
-1.154, -3.789e-3
-1.153, -3.804e-3
-1.152, -3.823e-3
-1.151, -3.848e-3
-1.150, -3.875e-3
-1.149, -3.906e-3
-1.148, -3.937e-3
-1.147, -3.959e-3
-1.146, -3.980e-3
-1.145, -3.996e-3
-1.144, -4.014e-3
-1.143, -4.036e-3
-1.142, -4.063e-3
-1.141, -4.091e-3
-1.140, -4.122e-3
-1.139, -4.150e-3
-1.138, -4.171e-3
-1.137, -4.190e-3
-1.136, -4.208e-3
-1.135, -4.233e-3
-1.134, -4.261e-3
-1.133, -4.292e-3
-1.132, -4.322e-3
-1.131, -4.350e-3
-1.130, -4.372e-3
-1.129, -4.390e-3
-1.128, -4.409e-3
-1.127, -4.430e-3
-1.126, -4.458e-3
-1.125, -4.489e-3
-1.124, -4.523e-3
-1.123, -4.551e-3
-1.122, -4.575e-3
-1.121, -4.597e-3
-1.120, -4.612e-3
-1.119, -4.634e-3
-1.118, -4.658e-3
-1.117, -4.686e-3
-1.116, -4.723e-3
-1.115, -4.754e-3
-1.114, -4.782e-3
-1.113, -4.803e-3
-1.112, -4.822e-3
-1.111, -4.840e-3
-1.110, -4.862e-3
-1.109, -4.887e-3
-1.108, -4.917e-3
-1.107, -4.951e-3
-1.106, -4.982e-3
-1.105, -5.007e-3
-1.104, -5.025e-3
-1.103, -5.050e-3
-1.102, -5.068e-3
-1.101, -5.093e-3
-1.100, -5.124e-3
-1.099, -5.161e-3
-1.098, -5.192e-3
-1.097, -5.216e-3
-1.096, -5.238e-3
-1.095, -5.257e-3
-1.094, -5.281e-3
-1.093, -5.303e-3
-1.092, -5.337e-3
-1.091, -5.371e-3
-1.090, -5.405e-3
-1.089, -5.435e-3
-1.088, -5.460e-3
-1.087, -5.485e-3
-1.086, -5.506e-3
-1.085, -5.531e-3
-1.084, -5.562e-3
-1.083, -5.596e-3
-1.082, -5.630e-3
-1.081, -5.660e-3
-1.080, -5.688e-3
-1.079, -5.710e-3
-1.078, -5.728e-3
-1.077, -5.753e-3
-1.076, -5.784e-3
-1.075, -5.821e-3
-1.074, -5.855e-3
-1.073, -5.889e-3
-1.072, -5.913e-3
-1.071, -5.941e-3
-1.070, -5.959e-3
-1.069, -5.981e-3
-1.068, -6.012e-3
-1.067, -6.043e-3
-1.066, -6.074e-3
-1.065, -6.107e-3
-1.064, -6.132e-3
-1.063, -6.157e-3
-1.062, -6.175e-3
-1.061, -6.194e-3
-1.060, -6.215e-3
-1.059, -6.243e-3
-1.058, -6.274e-3
-1.057, -6.308e-3
-1.056, -6.333e-3
-1.055, -6.357e-3
-1.054, -6.376e-3
-1.053, -6.391e-3
-1.052, -6.410e-3
-1.051, -6.431e-3
-1.050, -6.459e-3
-1.049, -6.487e-3
-1.048, -6.514e-3
-1.047, -6.536e-3
-1.046, -6.558e-3
-1.045, -6.573e-3
-1.044, -6.595e-3
-1.043, -6.619e-3
-1.042, -6.647e-3
-1.041, -6.678e-3
-1.040, -6.699e-3
-1.039, -6.721e-3
-1.038, -6.740e-3
-1.037, -6.758e-3
-1.036, -6.777e-3
-1.035, -6.792e-3
-1.034, -6.817e-3
-1.033, -6.847e-3
-1.032, -6.881e-3
-1.031, -6.909e-3
-1.030, -6.931e-3
-1.029, -6.949e-3
-1.028, -6.968e-3
-1.027, -6.986e-3
-1.026, -7.014e-3
-1.025, -7.042e-3
-1.024, -7.072e-3
-1.023, -7.103e-3
-1.022, -7.125e-3
-1.021, -7.143e-3
-1.020, -7.162e-3
-1.019, -7.180e-3
-1.018, -7.208e-3
-1.017, -7.236e-3
-1.016, -7.270e-3
-1.015, -7.301e-3
-1.014, -7.325e-3
-1.013, -7.350e-3
-1.012, -7.372e-3
-1.011, -7.387e-3
-1.010, -7.412e-3
-1.009, -7.436e-3
-1.008, -7.467e-3
-1.007, -7.501e-3
-1.006, -7.529e-3
-1.005, -7.557e-3
-1.004, -7.572e-3
-1.003, -7.590e-3
-1.002, -7.609e-3
-1.001, -7.634e-3
