Potential V vs RHE, Current mA cm-2
0.013299999999999867,6.801931929751096
0.012299999999999978,5.667333467259336
0.011299999999999866,4.839727356838291
0.010299999999999976,3.9668504848215624
0.009299999999999864,3.0515322738088844
0.008299999999999974,2.30880884137974
0.007299999999999862,1.7867803717295414
0.006299999999999972,1.2626298351295453
0.00529999999999986,0.6956135461436386
0.0042999999999999705,-0.002205534916489592
0.0032999999999998586,-0.5692798270656908
0.0022999999999999687,-1.0054353208140816
0.0012999999999998568,-1.3543031273607997
0.00029999999999996696,-1.8334658446250875
-0.000700000000000145,-2.4007650758709675
-0.0017000000000000348,-2.924208256821031
-0.0027000000000001467,-3.273641947887695
-0.0037000000000000366,-3.579219588658543
-0.0047000000000001485,-3.971094618721158
-0.005700000000000038,-4.494537799671222
-0.00670000000000015,-4.974124930325469
-0.00770000000000004,-5.279702571096316
-0.008700000000000152,-5.497568111275533
-0.009700000000000042,-5.890857852638012
-0.010700000000000154,-6.37044498329226
-0.011700000000000044,-6.806176063650692
-0.012700000000000156,-7.067897654125724
-0.013700000000000045,-7.28576319430494
-0.014700000000000157,-7.635196885371603
-0.015700000000000047,-8.070927965730034
-0.01670000000000016,-8.508073757388331
-0.01770000000000005,-8.725939297567548
-0.01870000000000016,-8.943804837746763
-0.01970000000000005,-9.293238528813426
-0.020700000000000163,-9.728969609171857
-0.021700000000000053,-10.078403300238522
-0.022700000000000164,-10.340124890713554
-0.023700000000000054,-10.514134380596953
-0.024700000000000166,-10.863568071663616
-0.025700000000000056,-11.299299152022046
-0.026700000000000168,-11.691174182084664
-0.027700000000000058,-11.952895772559694
-0.02870000000000017,-12.12831997374296
-0.02970000000000006,-12.432482903213943
-0.03070000000000017,-12.869628694872238
-0.03170000000000006,-13.261503724934855
-0.03270000000000017,-13.47936926511407
-0.03370000000000006,-13.698649516593148
-0.034700000000000175,-14.002812446064135
-0.035700000000000065,-14.486643710617974
-0.03670000000000018,-14.826174422585586
-0.03770000000000007,-15.094969569559943
-0.03870000000000018,-15.264734925543747
-0.03970000000000007,-15.618412750510005
-0.04070000000000018,-16.099414592464115
-0.04170000000000007,-16.495533756426326
-0.04270000000000018,-16.70774045140608
-0.04370000000000007,-16.919947146385837
-0.044700000000000184,-17.231183632356142
-0.045700000000000074,-17.669744135314307
-0.046700000000000186,-18.06586329927652
-0.047700000000000076,-18.320511333252224
-0.04870000000000019,-18.53271802823198
-0.04970000000000008,-18.88639585319824
-0.05070000000000019,-19.3249563561564
-0.05170000000000008,-19.763516859114564
-0.05270000000000019,-19.97572355409432
-0.05370000000000008,-20.159636023076775
-0.05470000000000019,-20.499166735044383
-0.05570000000000008,-20.93772723800254
-0.056700000000000195,-21.376287740960702
-0.057700000000000085,-21.63093577493641
-0.058700000000000196,-21.814848243918867
-0.059700000000000086,-22.15437895588647
-0.0607000000000002,-22.63538079784059
-0.06170000000000009,-23.073941300798747
-0.0627000000000002,-23.342736447773106
-0.06370000000000009,-23.55494314275286
-0.0647000000000002,-23.908620967719123
-0.06570000000000009,-24.389622809673234
-0.0667000000000002,-24.771594860636792
-0.0677000000000001,-25.04039000761115
-0.0687000000000002,-25.210155363594954
-0.0697000000000001,-25.563833188561212
-0.07070000000000021,-26.087276369511276
-0.0717000000000001,-26.483395533473487
-0.07270000000000021,-26.780484906445146
-0.0737000000000001,-26.9643973754276
-0.07470000000000021,-27.303928087395207
-0.0757000000000001,-27.827371268345274
-0.07670000000000021,-28.265931771303435
-0.0777000000000001,-28.53472691827779
-0.07870000000000021,-28.789374952253496
-0.0797000000000001,-29.14305277721976
-0.08070000000000022,-29.62405461917387
-0.0817000000000001,-30.00602667013743
-0.08270000000000022,-30.274821817111786
-0.08370000000000011,-30.487028512091538
-0.08470000000000022,-30.8407063370578
-0.08570000000000011,-31.321708179011907
-0.08670000000000022,-31.717827342974125
-0.08770000000000011,-31.930034037953877
-0.08870000000000022,-32.09979939393769
-0.08970000000000011,-32.45347721890394
-0.09070000000000022,-32.93447906085806
-0.09170000000000011,-33.373039563816214
-0.09270000000000023,-33.627687597791926
-0.09370000000000012,-33.85404140577033
-0.09470000000000023,-34.236013456733886
-0.09570000000000012,-34.717015298688004
-0.09670000000000023,-35.11313446265021
-0.09770000000000012,-35.42437094862052
-0.09870000000000023,-35.636577643600276
-0.09970000000000012,-36.03269680756248
-0.10070000000000023,-36.5136986495166
-0.10170000000000012,-36.95225915247476
-0.10270000000000024,-37.249348525446415
-0.10370000000000013,-37.56058501141672
-0.10470000000000024,-38.16891087035869
-0.10570000000000013,-38.692354051308754
-0.10670000000000024,-38.6499127123128
-0.10770000000000013,-39.046031876275016
-0.10870000000000024,-39.34312124924667
-0.10970000000000013,-39.739240413208876
-0.11070000000000024,-40.220242255162994
-0.11170000000000013,-40.65880275812115
-0.11270000000000002,-40.99833347008877
-0.11370000000000013,-41.30956995605907
-0.11470000000000002,-41.74813045901723
-0.11570000000000014,-41.70568912002128
-0.11670000000000003,-42.04521983198889
-0.11770000000000014,-42.3564563179592
-0.11870000000000003,-42.6111043519349
-0.11970000000000014,-43.007223515897124
-0.12070000000000003,-43.48822535785123
-0.12170000000000014,-43.92678586080939
-0.12270000000000003,-44.181433894785094
-0.12370000000000014,-44.4077877027635
-0.12470000000000003,-44.74731841473111
-0.12570000000000014,-45.36979138667173
-0.12670000000000003,-46.02055858460964
-0.12770000000000015,-46.41667774857186
-0.12870000000000004,-46.628884443551605
-0.12970000000000015,-47.15232762450167
-0.13070000000000004,-47.84553616143554
-0.13170000000000015,-48.156772647405845
-0.13270000000000004,-48.51045047237211
-0.13370000000000015,-48.72265716735186
-0.13470000000000004,-49.076334992318124
-0.13570000000000015,-49.557336834272235
-0.13670000000000004,-49.98175022423175
-0.13770000000000016,-50.20810403221015
-0.13870000000000005,-50.37786938819396
-0.13970000000000016,-50.68910587416426
-0.14070000000000005,-51.127666377122424
-0.14170000000000016,-51.46719708909004
-0.14270000000000005,-51.69355089706845
-0.14370000000000016,-51.82087491405629
-0.14470000000000005,-52.075522948032
-0.14570000000000016,-52.42920077299826
-0.14670000000000005,-52.82531993696047
-0.14770000000000016,-53.079967970936174
-0.14870000000000005,-53.26388043991864
-0.14970000000000017,-53.56096981289029
-0.15070000000000006,-54.0419716548444
-0.15170000000000017,-54.480532157802564
-0.15270000000000006,-54.73518019177827
-0.15370000000000017,-54.961533999756675
-0.15470000000000006,-55.31521182472294
-0.15570000000000017,-55.7820665536784
-0.15670000000000006,-56.22062705663656
-0.15770000000000017,-56.489422203610914
-0.15870000000000006,-56.70162889859067
-0.15970000000000018,-57.14018940154883
-0.16070000000000007,-57.53630856551105
-0.16170000000000018,-58.017310407465146
-0.16270000000000007,-58.35684111943277
-0.16370000000000018,-58.583194927411164
-0.16470000000000007,-58.27195844144086
-0.16570000000000018,-58.583194927411164
-0.16670000000000007,-58.97931409137338
-0.16770000000000018,-59.10663810836124
-0.16870000000000007,-59.19152078635314
-0.16970000000000018,-59.6300812893113
-0.17070000000000007,-60.06864179226946
-0.17170000000000019,-60.59208497321952
-0.17270000000000008,-60.84673300719523
-0.1737000000000002,-61.07308681517363
-0.17470000000000008,-61.455058866137186
-0.1757000000000002,-61.89361936909536
-0.17670000000000008,-62.41706255004542
-0.1777000000000002,-62.72829903601572
-0.17870000000000008,-62.855623053003576
-0.1797000000000002,-63.11027108697928
-0.18070000000000008,-63.5063902509415
-0.1817000000000002,-63.902509414903705
-0.18270000000000008,-64.11471610988345
-0.1837000000000002,-64.34106991786187
-0.1847000000000001,-64.68060062982947
-0.1857000000000002,-65.2464851497755
-0.1867000000000001,-65.64260431373769
-0.1877000000000002,-65.91139946071206
-0.1887000000000001,-65.99628213870396
-0.1897000000000002,-66.34995996367022
-0.1907000000000001,-66.81681469262568
-0.1917000000000001,-67.25537519558385
-0.19269999999999998,-67.65149435954605
-0.1937000000000001,-67.86370105452582
-0.19469999999999998,-68.17493754049613
-0.1957000000000001,-68.61349804345427
-0.19669999999999999,-68.96717586842054
-0.1977000000000001,-69.13694122440434
-0.1987,-69.26426524139221
-0.1997000000000001,-69.53306038836655
-0.2007,-69.95747377832606
-0.2017000000000001,-70.35359294228827
-0.2027,-70.57994675026669
-0.2037000000000001,-70.70727076725453
-0.2047,-71.0043601402262
-0.2057000000000001,-71.4004793041884
-0.2067,-71.7965984681506
-0.2077000000000001,-71.8814811461425
-0.2087,-71.92392248513846
-0.2097000000000001,-72.15027629311687
-0.2107,-72.44736566608852
-0.2117000000000001,-72.75860215205884
-0.2127,-72.92836750804264
-0.2137000000000001,-73.01325018603454
-0.2147,-73.32448667200485
-0.2157000000000001,-73.76304717496302
-0.2167,-74.10257788693062
-0.21770000000000012,-74.32893169490903
-0.2187,-74.72505085887124
-0.21970000000000012,-75.1070229098348
-0.2207,-75.29093537881725
-0.22170000000000012,-73.89037119195086
-0.2227,-73.8479298529549
-0.22370000000000012,-73.8479298529549
-0.2247,-73.76304717496302
-0.22570000000000012,-74.24404901691713
-0.2267,-74.80993353686314
-0.22770000000000012,-74.8523748758591
-0.22870000000000001,-74.97969889284694
-0.22970000000000013,-75.2484940398213
-0.23070000000000002,-75.63046609078486
-0.23170000000000013,-76.11146793273898
-0.23270000000000002,-76.71979379168094
-0.23370000000000013,-77.11591295564315
-0.23470000000000002,-77.68179747558916
-0.23570000000000013,-78.12035797854733
-0.23670000000000002,-78.51647714250953
-0.2376999999999999,-78.91259630647174
-0.23870000000000002,-79.25212701843935
-0.2396999999999999,-79.52092216541372
-0.24070000000000003,-79.86045287738132
-0.24169999999999991,-80.34145471933543
-0.24270000000000003,-80.52536718831789
-0.24369999999999992,-80.61024986630979
-0.24470000000000003,-80.82245656128954
-0.24569999999999992,-81.1761343862558
-0.24670000000000003,-81.47322375922747
-0.24769999999999992,-81.57225355021802
-0.24870000000000003,-81.57225355021802
-0.24969999999999992,-81.69957756720586
-0.25070000000000003,-81.99666694017753
-0.2516999999999999,-82.22302074815593
-0.25270000000000004,-82.26546208715187
-0.2536999999999999,-82.30790342614785
-0.25470000000000004,-82.47766878213164
-0.2556999999999999,-82.78890526810196
-0.25670000000000004,-83.08599464107361
-0.25769999999999993,-83.22746577106011
-0.25870000000000004,-83.26990711005605
-0.25969999999999993,-83.52455514403178
-0.26070000000000004,-83.92067430799398
-0.26169999999999993,-84.27435213296022
-0.26270000000000004,-84.44411748894404
-0.26369999999999993,-84.52900016693594
-0.26470000000000005,-84.84023665290624
-0.26569999999999994,-85.17976736487385
-0.26670000000000005,-85.53344518984011
-0.26769999999999994,-85.66076920682796
-0.26870000000000005,-85.84468167581042
-0.26969999999999994,-86.09932970978613
-0.27070000000000005,-86.58033155174023
-0.27169999999999994,-87.14621607168625
-0.27270000000000005,-87.41501121866061
-0.27369999999999994,-87.54233523564847
-0.27470000000000006,-87.89601306061473
-0.27569999999999995,-88.27798511157829
-0.27670000000000006,-88.5892215975486
-0.27769999999999995,-88.6741042755405
-0.27870000000000006,-88.7589869535324
-0.27969999999999995,-88.9853407615108
-0.28070000000000006,-89.32487147347842
-0.28169999999999995,-89.59366662045278
-0.28270000000000006,-89.72099063744062
-0.28369999999999995,-89.80587331543254
-0.28470000000000006,-89.72099063744062
-0.28569999999999995,-90.03222712341093
-0.28670000000000007,-90.32931649638259
-0.28769999999999996,-90.47078762636909
-0.28870000000000007,-90.51322896536506
-0.28969999999999996,-90.7254356603448
-0.29070000000000007,-91.07911348531105
-0.29169999999999996,-91.37620285828272
-0.29270000000000007,-91.51767398826922
-0.29369999999999996,-91.68743934425302
-0.2947000000000001,-91.98452871722468
-0.29569999999999996,-92.3806478811869
-0.2967000000000001,-92.73432570615316
-0.29769999999999996,-92.81920838414506
-0.2987000000000001,-92.90409106213696
-0.29969999999999997,-93.08800353111941
-0.3007000000000001,-93.42753424308701
-0.30169999999999997,-93.65388805106544
-0.3027000000000001,-93.69632939006138
-0.30369999999999997,-93.65388805106544
-0.3047000000000001,-93.78121206805329
-0.30569999999999997,-94.03586010202899
-0.3067000000000001,-94.26221391000739
-0.3077,-94.30465524900335
-0.3087000000000001,-94.30465524900335
-0.3097,-94.5168619439831
-0.3107000000000001,-94.8280984299534
-0.3117,-95.04030512493317
-0.3127000000000001,-95.12518780292505
-0.3137,-95.26665893291157
-0.3147000000000001,-95.52130696688728
-0.3157,-95.95986746984543
-0.3167000000000001,-96.27110395581576
-0.3177,-96.44086931179956
-0.3187000000000001,-96.52575198979144
-0.3197,-96.73795868477121
-0.3207000000000001,-97.09163650973747
-0.3217,-97.40287299570777
-0.3227000000000001,-97.4877556736997
-0.3237,-97.53019701269562
-0.3247000000000001,-97.6575210296835
-0.3257,-97.92631617665783
-0.3267000000000001,-98.18096421063355
-0.3277,-98.2234055496295
-0.3287000000000001,-98.2234055496295
-0.3297,-98.40731801861195
-0.3307000000000001,-98.66196605258766
-0.3317,-98.88831986056607
-0.3327000000000001,-98.88831986056607
-0.3337,-98.88831986056607
-0.3347000000000001,-98.97320253855796
-0.3357,-99.27029191152963
-0.3367000000000001,-99.49664571950804
-0.3377,-99.53908705850398
-0.3387000000000001,-99.53908705850398
-0.3397,-99.75129375348374
-0.3407000000000001,-100.10497157844999
-0.3417,-100.35961961242569
-0.3427000000000001,-100.45864940341626
-0.3437,-100.5010907424122
-0.3447000000000001,-100.62841475940007
-0.3457,-101.02453392336226
-0.3467000000000001,-101.19429927934607
-0.3477,-101.23674061834203
-0.3487000000000001,-101.19429927934607
-0.3497,-101.27918195733798
-0.3507000000000001,-101.50553576531638
-0.3517,-101.6753011213002
-0.3527000000000001,-101.59041844330828
-0.3537,-101.44894731332178
-0.3547000000000001,-101.40650597432582
-0.3557,-101.59041844330828
-0.35670000000000013,-101.71774246029614
-0.3577,-101.6753011213002
-0.35870000000000013,-101.54797710431234
-0.3597,-101.59041844330828
-0.36070000000000013,-101.76018379929208
-0.3617,-101.80262513828804
-0.3626999999999999,-101.80262513828804
-0.3637,-101.76018379929208
-0.3646999999999999,-101.88750781627995
-0.3657,-102.07142028526239
-0.3666999999999999,-102.28362698024215
-0.3677,-102.28362698024215
-0.3686999999999999,-102.1563029632543
-0.36970000000000003,-102.3260683192381
-0.3706999999999999,-102.45339233622596
-0.37170000000000003,-102.67974614420436
-0.3726999999999999,-102.72218748320032
-0.37370000000000003,-102.72218748320032
-0.3746999999999999,-102.84951150018817
-0.37570000000000003,-103.01927685617197
-0.3766999999999999,-103.11830664716253
-0.37770000000000004,-103.11830664716253
-0.3786999999999999,-103.01927685617197
-0.37970000000000004,-103.07586530816658
-0.3806999999999999,-103.20318932515443
-0.38170000000000004,-103.24563066415038
-0.38269999999999993,-102.80707016119221
-0.38370000000000004,-101.88750781627995
-0.38469999999999993,-101.27918195733798
-0.38570000000000004,-101.80262513828804
-0.38669999999999993,-101.76018379929208
-0.38770000000000004,-100.75573877638791
-0.38869999999999993,-100.62841475940007
-0.38970000000000005,-101.06697526235823
-0.39069999999999994,-101.76018379929208
-0.39170000000000005,-102.02897894626645
-0.39269999999999994,-101.97239049427183
-0.39370000000000005,-101.92994915527588
-0.39469999999999994,-102.36850965823406
-0.39570000000000005,-102.72218748320032
-0.39669999999999994,-102.97683551717601
-0.39770000000000005,-103.41539602013418
-0.39869999999999994,-103.59930848911664
-0.39970000000000006,-103.85395652309235
-0.40069999999999995,-103.85395652309235
-0.40170000000000006,-104.2076343480586
-0.40269999999999995,-104.2925170260505
-0.40370000000000006,-103.81151518409638
-0.40469999999999995,-103.89639786208829
-0.40570000000000006,-104.06616321807209
-0.40669999999999995,-104.16519300906265
-0.40770000000000006,-104.06616321807209
-0.40869999999999995,-103.98128054008019
-0.40970000000000006,-104.02372187907615
-0.41069999999999995,-104.12275167006669
-0.41170000000000007,-104.16519300906265
-0.41269999999999996,-104.02372187907615
-0.41370000000000007,-103.89639786208829
-0.41469999999999996,-103.89639786208829
-0.41570000000000007,-103.93883920108425
-0.41669999999999996,-103.89639786208829
-0.41770000000000007,-103.7266325061045
-0.41869999999999996,-103.50027869812607
-0.4197000000000001,-103.54272003712204
-0.42069999999999996,-103.68419116710854
-0.4217000000000001,-103.7266325061045
-0.42269999999999996,-103.64174982811258
-0.4237000000000001,-103.54272003712204
-0.42469999999999997,-103.68419116710854
-0.4257000000000001,-103.93883920108425
-0.42669999999999997,-104.12275167006669
-0.4277000000000001,-104.16519300906265
-0.42869999999999997,-104.06616321807209
-0.4297000000000001,-104.2925170260505
-0.43069999999999997,-104.64619485101677
-0.4317000000000001,-104.90084288499246
-0.4327,-104.90084288499246
-0.4337000000000001,-104.94328422398843
-0.4347,-105.16963803196683
-0.4357000000000001,-105.42428606594254
-0.4367,-105.59405142192634
-0.4377000000000001,-105.63649276092228
-0.4387,-105.63649276092228
-0.4397000000000001,-105.7779638909088
-0.4407,-105.99017058588855
-0.4417000000000001,-106.21652439386696
-0.4427,-106.21652439386696
-0.4437000000000001,-106.30140707185885
-0.4447,-106.38628974985076
-0.4457000000000001,-106.64093778382647
-0.4467,-106.99461560879273
-0.4477000000000001,-107.12193962578058
-0.4487,-107.30585209476303
-0.4497000000000001,-107.6029414677347
-0.4507,-107.56050012873874
-0.4517000000000001,-107.914177953705
-0.4527,-108.21126732667666
-0.4537000000000001,-108.35273845666316
-0.4547,-108.87618163761321
-0.4557000000000001,-109.52694883555114
-0.4567,-110.26259871148096
-0.4577000000000001,-110.92751302241753
-0.4587,-111.57828022035544
-0.4597000000000001,-112.3563714352812
-0.4607,-113.40325779718134
-0.4617000000000001,-114.4925854980774
-0.4627,-115.45458918198564
-0.4637000000000001,-116.37415152689792
-0.4647,-117.54836190578591
-0.4657000000000001,-119.03380877064419
-0.4667,-120.43437295751058
-0.4677000000000001,-121.73590735338641
-0.4687,-123.05158886226087
-0.4697000000000001,-124.74924242209892
-0.4707,-126.61666133792076
-0.4717000000000001,-128.4982273667413
-0.4727,-130.1534395875834
-0.4737000000000001,-131.8510931474214
-0.4747,-133.73265917624192
-0.4757000000000001,-135.78399056104624
-0.4767,-137.65140947686808
-0.4777000000000001,-139.27832747171286
-0.4787,-140.93353969255494
-0.4797000000000001,-142.7443701563822
-0.4807,-144.58349484620675
-0.48170000000000013,-146.4226195360313
-0.4827,-147.83733083589632
-0.48370000000000013,-149.39351326574788
-0.4847,-151.23263795557244
-0.48570000000000013,-153.07176264539694
-0.4867,-153.63764716534297
-0.48570000000000013,-151.93999360550492
-0.4847,-150.5252823056399
-0.48370000000000013,-149.25204213576137
-0.4827,-148.26174422585584
-0.48170000000000013,-147.1299751859638
-0.4807,-145.7152638860988
-0.4797000000000001,-144.44202371622026
-0.4787,-143.3102546763282
-0.4777000000000001,-142.17848563643616
-0.4767,-140.89109835355902
-0.4757000000000001,-139.36321014970477
-0.4747,-137.87776328484648
-0.4737000000000001,-136.562081775972
-0.4727,-135.387871397084
-0.4717000000000001,-134.17121967920008
-0.4707,-132.64333147534586
-0.4697000000000001,-131.15788461048754
-0.4687,-129.79976176261712
-0.4677000000000001,-128.62555138372915
-0.4667,-127.36645832684925
-0.4657000000000001,-125.88101146199097
-0.4647,-124.43800593612862
-0.4637000000000001,-123.1364715402528
