Dec. 26, 2024   04:41:10
Cyclic Voltammetry
File: c:/users/guazh/data/banditlqround7_x0exp136_r20/2024-12-24-exp744\exp744-2024-12-26t04_24_00-h2koh\exp744_cv_sr_50mvs_efin_-1700mv.bin
Data Source:  Experiment
Instrument Model:  CHI760E
Header: CV ran at 50 mVs
Note: 

Init E (V) = -1
High E (V) = -1
Low E (V) = -1.7
Final E (V) = -1
Init P/N = N
Scan Rate (V/s) = 0.05
Segment = 3
Sample Interval (V) = 0.001
Quiet Time (sec) = 2
Sensitivity (A/V) = 0.01
Comp R (ohm) = 1.4

Results:

Channel 1:
Segment 1:

Segment 2:

Segment 3:

Potential/V, Current/A

-1.000, 2.869e-6
-1.001, 3.885e-6
-1.002, 3.944e-6
-1.003, 3.737e-6
-1.004, 3.865e-6
-1.005, 4.379e-6
-1.006, 4.546e-6
-1.007, 4.369e-6
-1.008, 4.102e-6
-1.009, 4.161e-6
-1.010, 4.576e-6
-1.011, 4.822e-6
-1.012, 4.487e-6
-1.013, 4.359e-6
-1.014, 4.438e-6
-1.015, 4.744e-6
-1.016, 5.010e-6
-1.017, 4.704e-6
-1.018, 4.438e-6
-1.019, 4.556e-6
-1.020, 4.941e-6
-1.021, 5.069e-6
-1.022, 4.832e-6
-1.023, 4.507e-6
-1.024, 4.744e-6
-1.025, 5.049e-6
-1.026, 5.326e-6
-1.027, 4.961e-6
-1.028, 4.684e-6
-1.029, 4.783e-6
-1.030, 5.109e-6
-1.031, 5.424e-6
-1.032, 4.970e-6
-1.033, 4.822e-6
-1.034, 4.862e-6
-1.035, 5.237e-6
-1.036, 5.395e-6
-1.037, 5.188e-6
-1.038, 4.901e-6
-1.039, 5.040e-6
-1.040, 5.316e-6
-1.041, 5.483e-6
-1.042, 5.197e-6
-1.043, 4.990e-6
-1.044, 5.030e-6
-1.045, 5.296e-6
-1.046, 5.553e-6
-1.047, 5.257e-6
-1.048, 4.961e-6
-1.049, 5.049e-6
-1.050, 5.533e-6
-1.051, 5.572e-6
-1.052, 5.336e-6
-1.053, 5.128e-6
-1.054, 5.138e-6
-1.055, 5.553e-6
-1.056, 5.631e-6
-1.057, 5.385e-6
-1.058, 5.168e-6
-1.059, 5.168e-6
-1.060, 5.523e-6
-1.061, 5.789e-6
-1.062, 5.405e-6
-1.063, 5.247e-6
-1.064, 5.326e-6
-1.065, 5.681e-6
-1.066, 5.819e-6
-1.067, 5.464e-6
-1.068, 5.286e-6
-1.069, 5.345e-6
-1.070, 5.740e-6
-1.071, 5.888e-6
-1.072, 5.582e-6
-1.073, 5.257e-6
-1.074, 5.444e-6
-1.075, 5.789e-6
-1.076, 5.937e-6
-1.077, 5.681e-6
-1.078, 5.523e-6
-1.079, 5.513e-6
-1.080, 5.839e-6
-1.081, 5.977e-6
-1.082, 5.701e-6
-1.083, 5.444e-6
-1.084, 5.631e-6
-1.085, 5.977e-6
-1.086, 6.115e-6
-1.087, 5.710e-6
-1.088, 5.612e-6
-1.089, 5.622e-6
-1.090, 6.075e-6
-1.091, 6.066e-6
-1.092, 5.799e-6
-1.093, 5.543e-6
-1.094, 5.651e-6
-1.095, 6.184e-6
-1.096, 6.075e-6
-1.097, 5.868e-6
-1.098, 5.691e-6
-1.099, 5.661e-6
-1.100, 6.036e-6
-1.101, 6.204e-6
-1.102, 5.858e-6
-1.103, 5.701e-6
-1.104, 5.750e-6
-1.105, 6.223e-6
-1.106, 6.312e-6
-1.107, 5.888e-6
-1.108, 5.691e-6
-1.109, 5.868e-6
-1.110, 6.253e-6
-1.111, 6.401e-6
-1.112, 6.095e-6
-1.113, 5.829e-6
-1.114, 5.997e-6
-1.115, 6.273e-6
-1.116, 6.450e-6
-1.117, 6.006e-6
-1.118, 5.878e-6
-1.119, 6.095e-6
-1.120, 6.322e-6
-1.121, 6.549e-6
-1.122, 6.085e-6
-1.123, 5.997e-6
-1.124, 6.016e-6
-1.125, 6.460e-6
-1.126, 6.588e-6
-1.127, 6.243e-6
-1.128, 6.075e-6
-1.129, 6.174e-6
-1.130, 6.519e-6
-1.131, 6.569e-6
-1.132, 6.174e-6
-1.133, 6.105e-6
-1.134, 6.184e-6
-1.135, 6.598e-6
-1.136, 6.667e-6
-1.137, 6.253e-6
-1.138, 6.085e-6
-1.139, 6.164e-6
-1.140, 6.638e-6
-1.141, 6.815e-6
-1.142, 6.352e-6
-1.143, 6.223e-6
-1.144, 6.204e-6
-1.145, 6.519e-6
-1.146, 6.786e-6
-1.147, 6.322e-6
-1.148, 6.243e-6
-1.149, 6.421e-6
-1.150, 6.697e-6
-1.151, 6.677e-6
-1.152, 6.371e-6
-1.153, 6.312e-6
-1.154, 6.490e-6
-1.155, 6.658e-6
-1.156, 6.944e-6
-1.157, 6.480e-6
-1.158, 6.243e-6
-1.159, 6.440e-6
-1.160, 6.707e-6
-1.161, 6.825e-6
-1.162, 6.460e-6
-1.163, 6.293e-6
-1.164, 6.450e-6
-1.165, 6.875e-6
-1.166, 6.973e-6
-1.167, 6.510e-6
-1.168, 6.401e-6
-1.169, 6.500e-6
-1.170, 6.904e-6
-1.171, 6.983e-6
-1.172, 6.608e-6
-1.173, 6.381e-6
-1.174, 6.480e-6
-1.175, 6.855e-6
-1.176, 6.914e-6
-1.177, 6.539e-6
-1.178, 6.559e-6
-1.179, 6.707e-6
-1.180, 6.944e-6
-1.181, 6.963e-6
-1.182, 6.736e-6
-1.183, 6.500e-6
-1.184, 6.569e-6
-1.185, 7.042e-6
-1.186, 7.121e-6
-1.187, 6.687e-6
-1.188, 6.598e-6
-1.189, 6.756e-6
-1.190, 7.062e-6
-1.191, 7.180e-6
-1.192, 6.746e-6
-1.193, 6.608e-6
-1.194, 6.736e-6
-1.195, 7.092e-6
-1.196, 7.161e-6
-1.197, 6.776e-6
-1.198, 6.588e-6
-1.199, 6.736e-6
-1.200, 7.161e-6
-1.201, 7.092e-6
-1.202, 6.756e-6
-1.203, 6.677e-6
-1.204, 6.944e-6
-1.205, 7.289e-6
-1.206, 7.102e-6
-1.207, 6.904e-6
-1.208, 6.776e-6
-1.209, 6.845e-6
-1.210, 7.250e-6
-1.211, 7.190e-6
-1.212, 6.894e-6
-1.213, 6.776e-6
-1.214, 6.924e-6
-1.215, 7.299e-6
-1.216, 7.259e-6
-1.217, 6.924e-6
-1.218, 6.855e-6
-1.219, 6.983e-6
-1.220, 7.328e-6
-1.221, 7.180e-6
-1.222, 6.954e-6
-1.223, 6.973e-6
-1.224, 7.013e-6
-1.225, 7.299e-6
-1.226, 7.299e-6
-1.227, 7.023e-6
-1.228, 6.954e-6
-1.229, 7.102e-6
-1.230, 7.467e-6
-1.231, 7.427e-6
-1.232, 7.023e-6
-1.233, 7.013e-6
-1.234, 7.250e-6
-1.235, 7.526e-6
-1.236, 7.457e-6
-1.237, 7.210e-6
-1.238, 7.141e-6
-1.239, 7.259e-6
-1.240, 7.467e-6
-1.241, 7.516e-6
-1.242, 7.338e-6
-1.243, 7.180e-6
-1.244, 7.259e-6
-1.245, 7.605e-6
-1.246, 7.496e-6
-1.247, 7.378e-6
-1.248, 7.092e-6
-1.249, 7.407e-6
-1.250, 7.743e-6
-1.251, 7.585e-6
-1.252, 7.348e-6
-1.253, 7.309e-6
-1.254, 7.388e-6
-1.255, 7.772e-6
-1.256, 7.753e-6
-1.257, 7.526e-6
-1.258, 7.447e-6
-1.259, 7.486e-6
-1.260, 7.891e-6
-1.261, 7.832e-6
-1.262, 7.536e-6
-1.263, 7.476e-6
-1.264, 7.575e-6
-1.265, 7.920e-6
-1.266, 7.881e-6
-1.267, 7.634e-6
-1.268, 7.575e-6
-1.269, 7.753e-6
-1.270, 8.059e-6
-1.271, 7.950e-6
-1.272, 7.812e-6
-1.273, 7.565e-6
-1.274, 7.930e-6
-1.275, 8.137e-6
-1.276, 8.177e-6
-1.277, 7.950e-6
-1.278, 7.763e-6
-1.279, 8.029e-6
-1.280, 8.384e-6
-1.281, 8.285e-6
-1.282, 8.078e-6
-1.283, 7.960e-6
-1.284, 8.039e-6
-1.285, 8.473e-6
-1.286, 8.404e-6
-1.287, 8.266e-6
-1.288, 8.167e-6
-1.289, 8.285e-6
-1.290, 8.739e-6
-1.291, 8.502e-6
-1.292, 8.364e-6
-1.293, 8.384e-6
-1.294, 8.572e-6
-1.295, 9.006e-6
-1.296, 8.848e-6
-1.297, 8.562e-6
-1.298, 8.522e-6
-1.299, 8.769e-6
-1.300, 9.203e-6
-1.301, 9.045e-6
-1.302, 8.877e-6
-1.303, 8.917e-6
-1.304, 9.075e-6
-1.305, 9.450e-6
-1.306, 9.430e-6
-1.307, 9.242e-6
-1.308, 9.213e-6
-1.309, 9.499e-6
-1.310, 9.736e-6
-1.311, 9.854e-6
-1.312, 9.627e-6
-1.313, 9.519e-6
-1.314, 9.834e-6
-1.315, 1.009e-5
-1.316, 1.005e-5
-1.317, 1.001e-5
-1.318, 9.943e-6
-1.319, 1.031e-5
-1.320, 1.060e-5
-1.321, 1.061e-5
-1.322, 1.061e-5
-1.323, 1.043e-5
-1.324, 1.065e-5
-1.325, 1.107e-5
-1.326, 1.114e-5
-1.327, 1.100e-5
-1.328, 1.104e-5
-1.329, 1.122e-5
-1.330, 1.165e-5
-1.331, 1.162e-5
-1.332, 1.161e-5
-1.333, 1.161e-5
-1.334, 1.195e-5
-1.335, 1.243e-5
-1.336, 1.239e-5
-1.337, 1.226e-5
-1.338, 1.231e-5
-1.339, 1.258e-5
-1.340, 1.304e-5
-1.341, 1.310e-5
-1.342, 1.308e-5
-1.343, 1.308e-5
-1.344, 1.349e-5
-1.345, 1.390e-5
-1.346, 1.399e-5
-1.347, 1.389e-5
-1.348, 1.405e-5
-1.349, 1.454e-5
-1.350, 1.490e-5
-1.351, 1.501e-5
-1.352, 1.496e-5
-1.353, 1.517e-5
-1.354, 1.562e-5
-1.355, 1.596e-5
-1.356, 1.616e-5
-1.357, 1.625e-5
-1.358, 1.634e-5
-1.359, 1.672e-5
-1.360, 1.743e-5
-1.361, 1.748e-5
-1.362, 1.752e-5
-1.363, 1.776e-5
-1.364, 1.823e-5
-1.365, 1.880e-5
-1.366, 1.910e-5
-1.367, 1.913e-5
-1.368, 1.928e-5
-1.369, 1.981e-5
-1.370, 2.060e-5
-1.371, 2.071e-5
-1.372, 2.089e-5
-1.373, 2.127e-5
-1.374, 2.181e-5
-1.375, 2.244e-5
-1.376, 2.278e-5
-1.377, 2.301e-5
-1.378, 2.340e-5
-1.379, 2.395e-5
-1.380, 2.458e-5
-1.381, 2.510e-5
-1.382, 2.537e-5
-1.383, 2.588e-5
-1.384, 2.655e-5
-1.385, 2.735e-5
-1.386, 2.783e-5
-1.387, 2.809e-5
-1.388, 2.860e-5
-1.389, 2.945e-5
-1.390, 3.029e-5
-1.391, 3.078e-5
-1.392, 3.126e-5
-1.393, 3.202e-5
-1.394, 3.277e-5
-1.395, 3.367e-5
-1.396, 3.434e-5
-1.397, 3.492e-5
-1.398, 3.567e-5
-1.399, 3.661e-5
-1.400, 3.770e-5
-1.401, 3.851e-5
-1.402, 3.923e-5
-1.403, 3.995e-5
-1.404, 4.115e-5
-1.405, 4.232e-5
-1.406, 4.319e-5
-1.407, 4.397e-5
-1.408, 4.500e-5
-1.409, 4.638e-5
-1.410, 4.773e-5
-1.411, 4.861e-5
-1.412, 4.954e-5
-1.413, 5.071e-5
-1.414, 5.217e-5
-1.415, 5.376e-5
-1.416, 5.490e-5
-1.417, 5.607e-5
-1.418, 5.746e-5
-1.419, 5.895e-5
-1.420, 6.075e-5
-1.421, 6.220e-5
-1.422, 6.352e-5
-1.423, 6.508e-5
-1.424, 6.690e-5
-1.425, 6.893e-5
-1.426, 7.055e-5
-1.427, 7.219e-5
-1.428, 7.404e-5
-1.429, 7.624e-5
-1.430, 7.841e-5
-1.431, 8.028e-5
-1.432, 8.227e-5
-1.433, 8.441e-5
-1.434, 8.691e-5
-1.435, 8.947e-5
-1.436, 9.172e-5
-1.437, 9.397e-5
-1.438, 9.643e-5
-1.439, 9.925e-5
-1.440, 1.021e-4
-1.441, 1.048e-4
-1.442, 1.074e-4
-1.443, 1.102e-4
-1.444, 1.134e-4
-1.445, 1.166e-4
-1.446, 1.197e-4
-1.447, 1.229e-4
-1.448, 1.262e-4
-1.449, 1.298e-4
-1.450, 1.336e-4
-1.451, 1.371e-4
-1.452, 1.407e-4
-1.453, 1.445e-4
-1.454, 1.486e-4
-1.455, 1.531e-4
-1.456, 1.571e-4
-1.457, 1.612e-4
-1.458, 1.657e-4
-1.459, 1.704e-4
-1.460, 1.753e-4
-1.461, 1.801e-4
-1.462, 1.849e-4
-1.463, 1.899e-4
-1.464, 1.952e-4
-1.465, 2.008e-4
-1.466, 2.063e-4
-1.467, 2.117e-4
-1.468, 2.173e-4
-1.469, 2.234e-4
-1.470, 2.295e-4
-1.471, 2.357e-4
-1.472, 2.418e-4
-1.473, 2.483e-4
-1.474, 2.553e-4
-1.475, 2.623e-4
-1.476, 2.695e-4
-1.477, 2.765e-4
-1.478, 2.838e-4
-1.479, 2.916e-4
-1.480, 2.997e-4
-1.481, 3.077e-4
-1.482, 3.156e-4
-1.483, 3.239e-4
-1.484, 3.329e-4
-1.485, 3.420e-4
-1.486, 3.508e-4
-1.487, 3.599e-4
-1.488, 3.690e-4
-1.489, 3.788e-4
-1.490, 3.889e-4
-1.491, 3.989e-4
-1.492, 4.089e-4
-1.493, 4.193e-4
-1.494, 4.302e-4
-1.495, 4.411e-4
-1.496, 4.522e-4
-1.497, 4.633e-4
-1.498, 4.748e-4
-1.499, 4.870e-4
-1.500, 4.996e-4
-1.501, 5.120e-4
-1.502, 5.246e-4
-1.503, 5.374e-4
-1.504, 5.507e-4
-1.505, 5.644e-4
-1.506, 5.782e-4
-1.507, 5.918e-4
-1.508, 6.057e-4
-1.509, 6.200e-4
-1.510, 6.349e-4
-1.511, 6.502e-4
-1.512, 6.655e-4
-1.513, 6.809e-4
-1.514, 6.971e-4
-1.515, 7.136e-4
-1.516, 7.301e-4
-1.517, 7.466e-4
-1.518, 7.638e-4
-1.519, 7.814e-4
-1.520, 7.995e-4
-1.521, 8.180e-4
-1.522, 8.365e-4
-1.523, 8.551e-4
-1.524, 8.742e-4
-1.525, 8.935e-4
-1.526, 9.134e-4
-1.527, 9.332e-4
-1.528, 9.534e-4
-1.529, 9.740e-4
-1.530, 9.952e-4
-1.531, 1.016e-3
-1.532, 1.037e-3
-1.533, 1.059e-3
-1.534, 1.081e-3
-1.535, 1.104e-3
-1.536, 1.128e-3
-1.537, 1.151e-3
-1.538, 1.174e-3
-1.539, 1.198e-3
-1.540, 1.221e-3
-1.541, 1.245e-3
-1.542, 1.271e-3
-1.543, 1.297e-3
-1.544, 1.323e-3
-1.545, 1.349e-3
-1.546, 1.375e-3
-1.547, 1.400e-3
-1.548, 1.427e-3
-1.549, 1.455e-3
-1.550, 1.484e-3
-1.551, 1.512e-3
-1.552, 1.540e-3
-1.553, 1.568e-3
-1.554, 1.597e-3
-1.555, 1.628e-3
-1.556, 1.659e-3
-1.557, 1.689e-3
-1.558, 1.718e-3
-1.559, 1.748e-3
-1.560, 1.780e-3
-1.561, 1.811e-3
-1.562, 1.842e-3
-1.563, 1.875e-3
-1.564, 1.908e-3
-1.565, 1.942e-3
-1.566, 1.975e-3
-1.567, 2.008e-3
-1.568, 2.041e-3
-1.569, 2.075e-3
-1.570, 2.109e-3
-1.571, 2.144e-3
-1.572, 2.180e-3
-1.573, 2.214e-3
-1.574, 2.250e-3
-1.575, 2.286e-3
-1.576, 2.322e-3
-1.577, 2.358e-3
-1.578, 2.395e-3
-1.579, 2.433e-3
-1.580, 2.473e-3
-1.581, 2.509e-3
-1.582, 2.544e-3
-1.583, 2.583e-3
-1.584, 2.621e-3
-1.585, 2.660e-3
-1.586, 2.699e-3
-1.587, 2.738e-3
-1.588, 2.777e-3
-1.589, 2.815e-3
-1.590, 2.857e-3
-1.591, 2.898e-3
-1.592, 2.939e-3
-1.593, 2.978e-3
-1.594, 3.020e-3
-1.595, 3.061e-3
-1.596, 3.102e-3
-1.597, 3.142e-3
-1.598, 3.184e-3
-1.599, 3.226e-3
-1.600, 3.269e-3
-1.601, 3.313e-3
-1.602, 3.354e-3
-1.603, 3.393e-3
-1.604, 3.436e-3
-1.605, 3.482e-3
-1.606, 3.525e-3
-1.607, 3.568e-3
-1.608, 3.611e-3
-1.609, 3.655e-3
-1.610, 3.701e-3
-1.611, 3.746e-3
-1.612, 3.790e-3
-1.613, 3.836e-3
-1.614, 3.883e-3
-1.615, 3.930e-3
-1.616, 3.976e-3
-1.617, 4.023e-3
-1.618, 4.070e-3
-1.619, 4.116e-3
-1.620, 4.164e-3
-1.621, 4.211e-3
-1.622, 4.261e-3
-1.623, 4.308e-3
-1.624, 4.357e-3
-1.625, 4.406e-3
-1.626, 4.455e-3
-1.627, 4.506e-3
-1.628, 4.554e-3
-1.629, 4.603e-3
-1.630, 4.658e-3
-1.631, 4.709e-3
-1.632, 4.758e-3
-1.633, 4.806e-3
-1.634, 4.860e-3
-1.635, 4.912e-3
-1.636, 4.955e-3
-1.637, 5.005e-3
-1.638, 5.065e-3
-1.639, 5.126e-3
-1.640, 5.183e-3
-1.641, 5.237e-3
-1.642, 5.287e-3
-1.643, 5.343e-3
-1.644, 5.399e-3
-1.645, 5.452e-3
-1.646, 5.512e-3
-1.647, 5.566e-3
-1.648, 5.621e-3
-1.649, 5.681e-3
-1.650, 5.744e-3
-1.651, 5.800e-3
-1.652, 5.852e-3
-1.653, 5.905e-3
-1.654, 5.961e-3
-1.655, 6.020e-3
-1.656, 6.081e-3
-1.657, 6.137e-3
-1.658, 6.195e-3
-1.659, 6.257e-3
-1.660, 6.314e-3
-1.661, 6.370e-3
-1.662, 6.424e-3
-1.663, 6.477e-3
-1.664, 6.539e-3
-1.665, 6.601e-3
-1.666, 6.649e-3
-1.667, 6.708e-3
-1.668, 6.762e-3
-1.669, 6.818e-3
-1.670, 6.880e-3
-1.671, 6.935e-3
-1.672, 7.026e-3
-1.673, 7.117e-3
-1.674, 7.224e-3
-1.675, 7.290e-3
-1.676, 7.328e-3
-1.677, 7.368e-3
-1.678, 7.407e-3
-1.679, 7.484e-3
-1.680, 7.566e-3
-1.681, 7.640e-3
-1.682, 7.697e-3
-1.683, 7.748e-3
-1.684, 7.805e-3
-1.685, 7.873e-3
-1.686, 7.928e-3
-1.687, 7.989e-3
-1.688, 8.057e-3
-1.689, 8.116e-3
-1.690, 8.178e-3
-1.691, 8.241e-3
-1.692, 8.300e-3
-1.693, 8.376e-3
-1.694, 8.436e-3
-1.695, 8.491e-3
-1.696, 8.543e-3
-1.697, 8.609e-3
-1.698, 8.677e-3
-1.699, 8.777e-3
-1.700, 8.775e-3
-1.699, 8.674e-3
-1.698, 8.595e-3
-1.697, 8.513e-3
-1.696, 8.418e-3
-1.695, 8.327e-3
-1.694, 8.218e-3
-1.693, 8.126e-3
-1.692, 8.039e-3
-1.691, 7.949e-3
-1.690, 7.861e-3
-1.689, 7.766e-3
-1.688, 7.698e-3
-1.687, 7.624e-3
-1.686, 7.568e-3
-1.685, 7.498e-3
-1.684, 7.433e-3
-1.683, 7.364e-3
-1.682, 7.273e-3
-1.681, 7.196e-3
-1.680, 7.118e-3
-1.679, 7.036e-3
-1.678, 6.950e-3
-1.677, 6.874e-3
-1.676, 6.806e-3
-1.675, 6.733e-3
-1.674, 6.662e-3
-1.673, 6.582e-3
-1.672, 6.522e-3
-1.671, 6.444e-3
-1.670, 6.369e-3
-1.669, 6.296e-3
-1.668, 6.214e-3
-1.667, 6.142e-3
-1.666, 6.073e-3
-1.665, 6.012e-3
-1.664, 5.938e-3
-1.663, 5.865e-3
-1.662, 5.788e-3
-1.661, 5.711e-3
-1.660, 5.639e-3
-1.659, 5.576e-3
-1.658, 5.512e-3
-1.657, 5.436e-3
-1.656, 5.373e-3
-1.655, 5.307e-3
-1.654, 5.236e-3
-1.653, 5.173e-3
-1.652, 5.114e-3
-1.651, 5.043e-3
-1.650, 4.972e-3
-1.649, 4.899e-3
-1.648, 4.835e-3
-1.647, 4.771e-3
-1.646, 4.714e-3
-1.645, 4.661e-3
-1.644, 4.603e-3
-1.643, 4.547e-3
-1.642, 4.487e-3
-1.641, 4.426e-3
-1.640, 4.364e-3
-1.639, 4.303e-3
-1.638, 4.244e-3
-1.637, 4.184e-3
-1.636, 4.129e-3
-1.635, 4.070e-3
-1.634, 4.012e-3
-1.633, 3.950e-3
-1.632, 3.896e-3
-1.631, 3.840e-3
-1.630, 3.788e-3
-1.629, 3.735e-3
-1.628, 3.682e-3
-1.627, 3.629e-3
-1.626, 3.578e-3
-1.625, 3.535e-3
-1.624, 3.489e-3
-1.623, 3.446e-3
-1.622, 3.398e-3
-1.621, 3.345e-3
-1.620, 3.296e-3
-1.619, 3.247e-3
-1.618, 3.197e-3
-1.617, 3.147e-3
-1.616, 3.097e-3
-1.615, 3.053e-3
-1.614, 3.008e-3
-1.613, 2.961e-3
-1.612, 2.914e-3
-1.611, 2.870e-3
-1.610, 2.826e-3
-1.609, 2.783e-3
-1.608, 2.740e-3
-1.607, 2.696e-3
-1.606, 2.652e-3
-1.605, 2.611e-3
-1.604, 2.571e-3
-1.603, 2.531e-3
-1.602, 2.491e-3
-1.601, 2.452e-3
-1.600, 2.414e-3
-1.599, 2.372e-3
-1.598, 2.335e-3
-1.597, 2.297e-3
-1.596, 2.260e-3
-1.595, 2.224e-3
-1.594, 2.189e-3
-1.593, 2.151e-3
-1.592, 2.116e-3
-1.591, 2.081e-3
-1.590, 2.047e-3
-1.589, 2.016e-3
-1.588, 1.981e-3
-1.587, 1.948e-3
-1.586, 1.915e-3
-1.585, 1.883e-3
-1.584, 1.851e-3
-1.583, 1.819e-3
-1.582, 1.789e-3
-1.581, 1.758e-3
-1.580, 1.728e-3
-1.579, 1.698e-3
-1.578, 1.667e-3
-1.577, 1.639e-3
-1.576, 1.611e-3
-1.575, 1.582e-3
-1.574, 1.554e-3
-1.573, 1.527e-3
-1.572, 1.500e-3
-1.571, 1.474e-3
-1.570, 1.449e-3
-1.569, 1.422e-3
-1.568, 1.400e-3
-1.567, 1.375e-3
-1.566, 1.350e-3
-1.565, 1.326e-3
-1.564, 1.302e-3
-1.563, 1.279e-3
-1.562, 1.255e-3
-1.561, 1.233e-3
-1.560, 1.211e-3
-1.559, 1.190e-3
-1.558, 1.168e-3
-1.557, 1.146e-3
-1.556, 1.125e-3
-1.555, 1.104e-3
-1.554, 1.083e-3
-1.553, 1.062e-3
-1.552, 1.042e-3
-1.551, 1.022e-3
-1.550, 1.003e-3
-1.549, 9.844e-4
-1.548, 9.653e-4
-1.547, 9.471e-4
-1.546, 9.291e-4
-1.545, 9.114e-4
-1.544, 8.938e-4
-1.543, 8.759e-4
-1.542, 8.583e-4
-1.541, 8.418e-4
-1.540, 8.254e-4
-1.539, 8.088e-4
-1.538, 7.929e-4
-1.537, 7.770e-4
-1.536, 7.622e-4
-1.535, 7.464e-4
-1.534, 7.317e-4
-1.533, 7.166e-4
-1.532, 7.025e-4
-1.531, 6.892e-4
-1.530, 6.755e-4
-1.529, 6.619e-4
-1.528, 6.482e-4
-1.527, 6.346e-4
-1.526, 6.219e-4
-1.525, 6.093e-4
-1.524, 5.969e-4
-1.523, 5.842e-4
-1.522, 5.719e-4
-1.521, 5.602e-4
-1.520, 5.488e-4
-1.519, 5.369e-4
-1.518, 5.255e-4
-1.517, 5.142e-4
-1.516, 5.033e-4
-1.515, 4.929e-4
-1.514, 4.824e-4
-1.513, 4.720e-4
-1.512, 4.620e-4
-1.511, 4.524e-4
-1.510, 4.426e-4
-1.509, 4.330e-4
-1.508, 4.237e-4
-1.507, 4.146e-4
-1.506, 4.059e-4
-1.505, 3.975e-4
-1.504, 3.885e-4
-1.503, 3.798e-4
-1.502, 3.715e-4
-1.501, 3.637e-4
-1.500, 3.557e-4
-1.499, 3.477e-4
-1.498, 3.400e-4
-1.497, 3.325e-4
-1.496, 3.254e-4
-1.495, 3.182e-4
-1.494, 3.110e-4
-1.493, 3.039e-4
-1.492, 2.972e-4
-1.491, 2.907e-4
-1.490, 2.841e-4
-1.489, 2.776e-4
-1.488, 2.713e-4
-1.487, 2.652e-4
-1.486, 2.593e-4
-1.485, 2.535e-4
-1.484, 2.474e-4
-1.483, 2.416e-4
-1.482, 2.361e-4
-1.481, 2.311e-4
-1.480, 2.259e-4
-1.479, 2.206e-4
-1.478, 2.155e-4
-1.477, 2.107e-4
-1.476, 2.061e-4
-1.475, 2.013e-4
-1.474, 1.965e-4
-1.473, 1.917e-4
-1.472, 1.876e-4
-1.471, 1.834e-4
-1.470, 1.790e-4
-1.469, 1.747e-4
-1.468, 1.704e-4
-1.467, 1.665e-4
-1.466, 1.628e-4
-1.465, 1.589e-4
-1.464, 1.550e-4
-1.463, 1.512e-4
-1.462, 1.476e-4
-1.461, 1.444e-4
-1.460, 1.409e-4
-1.459, 1.373e-4
-1.458, 1.339e-4
-1.457, 1.307e-4
-1.456, 1.279e-4
-1.455, 1.247e-4
-1.454, 1.215e-4
-1.453, 1.186e-4
-1.452, 1.157e-4
-1.451, 1.134e-4
-1.450, 1.107e-4
-1.449, 1.077e-4
-1.448, 1.050e-4
-1.447, 1.026e-4
-1.446, 1.003e-4
-1.445, 9.778e-5
-1.444, 9.533e-5
-1.443, 9.282e-5
-1.442, 9.066e-5
-1.441, 8.861e-5
-1.440, 8.638e-5
-1.439, 8.405e-5
-1.438, 8.189e-5
-1.437, 8.002e-5
-1.436, 7.830e-5
-1.435, 7.617e-5
-1.434, 7.408e-5
-1.433, 7.215e-5
-1.432, 7.095e-5
-1.431, 6.899e-5
-1.430, 6.722e-5
-1.429, 6.536e-5
-1.428, 6.364e-5
-1.427, 6.204e-5
-1.426, 6.074e-5
-1.425, 5.914e-5
-1.424, 5.752e-5
-1.423, 5.599e-5
-1.422, 5.462e-5
-1.421, 5.349e-5
-1.420, 5.209e-5
-1.419, 5.056e-5
-1.418, 4.910e-5
-1.417, 4.804e-5
-1.416, 4.699e-5
-1.415, 4.560e-5
-1.414, 4.433e-5
-1.413, 4.316e-5
-1.412, 4.204e-5
-1.411, 4.112e-5
-1.410, 4.007e-5
-1.409, 3.883e-5
-1.408, 3.772e-5
-1.407, 3.678e-5
-1.406, 3.606e-5
-1.405, 3.500e-5
-1.404, 3.398e-5
-1.403, 3.290e-5
-1.402, 3.217e-5
-1.401, 3.151e-5
-1.400, 3.066e-5
-1.399, 2.957e-5
-1.398, 2.869e-5
-1.397, 2.808e-5
-1.396, 2.749e-5
-1.395, 2.662e-5
-1.394, 2.573e-5
-1.393, 2.495e-5
-1.392, 2.435e-5
-1.391, 2.405e-5
-1.390, 2.313e-5
-1.389, 2.232e-5
-1.388, 2.165e-5
-1.387, 2.115e-5
-1.386, 2.088e-5
-1.385, 2.013e-5
-1.384, 1.954e-5
-1.383, 1.872e-5
-1.382, 1.830e-5
-1.381, 1.801e-5
-1.380, 1.742e-5
-1.379, 1.673e-5
-1.378, 1.613e-5
-1.377, 1.581e-5
-1.376, 1.554e-5
-1.375, 1.503e-5
-1.374, 1.447e-5
-1.373, 1.390e-5
-1.372, 1.360e-5
-1.371, 1.349e-5
-1.370, 1.299e-5
-1.369, 1.235e-5
-1.368, 1.193e-5
-1.367, 1.171e-5
-1.366, 1.162e-5
-1.365, 1.106e-5
-1.364, 1.161e-5
-1.363, 1.034e-5
-1.362, 9.953e-6
-1.361, 9.963e-6
-1.360, 9.558e-6
-1.359, 9.075e-6
-1.358, 8.650e-6
-1.357, 8.552e-6
-1.356, 8.473e-6
-1.355, 8.137e-6
-1.354, 7.713e-6
-1.353, 7.368e-6
-1.352, 7.161e-6
-1.351, 7.289e-6
-1.350, 6.855e-6
-1.349, 6.411e-6
-1.348, 6.125e-6
-1.347, 6.066e-6
-1.346, 6.095e-6
-1.345, 5.740e-6
-1.344, 5.365e-6
-1.343, 5.168e-6
-1.342, 5.069e-6
-1.341, 5.138e-6
-1.340, 4.813e-6
-1.339, 4.556e-6
-1.338, 4.211e-6
-1.337, 4.132e-6
-1.336, 4.300e-6
-1.335, 3.984e-6
-1.334, 3.678e-6
-1.333, 3.481e-6
-1.332, 3.422e-6
-1.331, 3.352e-6
-1.330, 3.165e-6
-1.329, 2.938e-6
-1.328, 2.672e-6
-1.327, 2.691e-6
-1.326, 2.800e-6
-1.325, 2.553e-6
-1.324, 2.287e-6
-1.323, 2.119e-6
-1.322, 2.090e-6
-1.321, 2.178e-6
-1.320, 1.971e-6
-1.319, 1.695e-6
-1.318, 1.419e-6
-1.317, 1.508e-6
-1.316, 1.715e-6
-1.315, 1.310e-6
-1.314, 1.192e-6
-1.313, 9.945e-7
-1.312, 9.846e-7
-1.311, 1.261e-6
-1.310, 9.452e-7
-1.309, 8.070e-7
-1.308, 5.703e-7
-1.307, 6.689e-7
-1.306, 7.084e-7
-1.305, 4.420e-7
-1.304, 3.335e-7
-1.303, 8.682e-8
-1.302, 2.052e-7
-1.301, 4.124e-7
-1.300, 2.151e-7
-1.299, -1.401e-7
-1.298, -2.486e-7
-1.297, -3.571e-7
-1.296, -5.130e-8
-1.295, -1.401e-7
-1.294, -4.361e-7
-1.293, -5.841e-7
-1.292, -3.670e-7
-1.291, -2.782e-7
-1.290, -5.051e-7
-1.289, -6.433e-7
-1.288, -8.208e-7
-1.287, -7.419e-7
-1.286, -5.939e-7
-1.285, -7.912e-7
-1.284, -8.504e-7
-1.283, -1.028e-6
-1.282, -1.048e-6
-1.281, -8.998e-7
-1.280, -9.886e-7
-1.279, -1.215e-6
-1.278, -1.383e-6
-1.277, -1.314e-6
-1.276, -9.984e-7
-1.275, -1.215e-6
-1.274, -1.423e-6
-1.273, -1.640e-6
-1.272, -1.531e-6
-1.271, -1.235e-6
-1.270, -1.442e-6
-1.269, -1.659e-6
-1.268, -1.709e-6
-1.267, -1.709e-6
-1.266, -1.442e-6
-1.265, -1.640e-6
-1.264, -1.729e-6
-1.263, -1.965e-6
-1.262, -1.867e-6
-1.261, -1.620e-6
-1.260, -1.788e-6
-1.259, -2.005e-6
-1.258, -2.064e-6
-1.257, -1.975e-6
-1.256, -1.807e-6
-1.255, -1.965e-6
-1.254, -2.232e-6
-1.253, -2.350e-6
-1.252, -2.192e-6
-1.251, -1.985e-6
-1.250, -2.133e-6
-1.249, -2.399e-6
-1.248, -2.498e-6
-1.247, -2.380e-6
-1.246, -2.153e-6
-1.245, -2.320e-6
-1.244, -2.429e-6
-1.243, -2.616e-6
-1.242, -2.547e-6
-1.241, -2.370e-6
-1.240, -2.488e-6
-1.239, -2.656e-6
-1.238, -2.912e-6
-1.237, -2.587e-6
-1.236, -2.498e-6
-1.235, -2.686e-6
-1.234, -2.784e-6
-1.233, -2.962e-6
-1.232, -2.755e-6
-1.231, -2.557e-6
-1.230, -2.676e-6
-1.229, -3.179e-6
-1.228, -3.169e-6
-1.227, -3.051e-6
-1.226, -2.764e-6
-1.225, -2.952e-6
-1.224, -3.159e-6
-1.223, -3.218e-6
-1.222, -3.110e-6
-1.221, -2.804e-6
-1.220, -3.080e-6
-1.219, -3.307e-6
-1.218, -3.307e-6
-1.217, -3.248e-6
-1.216, -3.021e-6
-1.215, -3.179e-6
-1.214, -3.366e-6
-1.213, -3.514e-6
-1.212, -3.425e-6
-1.211, -3.120e-6
-1.210, -3.228e-6
-1.209, -3.564e-6
-1.208, -3.643e-6
-1.207, -3.583e-6
-1.206, -3.258e-6
-1.205, -3.366e-6
-1.204, -3.643e-6
-1.203, -3.810e-6
-1.202, -3.692e-6
-1.201, -3.356e-6
-1.200, -3.534e-6
-1.199, -3.731e-6
-1.198, -3.820e-6
-1.197, -3.712e-6
-1.196, -3.455e-6
-1.195, -3.672e-6
-1.194, -3.830e-6
-1.193, -4.057e-6
-1.192, -3.860e-6
-1.191, -3.534e-6
-1.190, -3.751e-6
-1.189, -4.106e-6
-1.188, -4.136e-6
-1.187, -4.047e-6
-1.186, -3.682e-6
-1.185, -3.840e-6
-1.184, -4.165e-6
-1.183, -4.313e-6
-1.182, -4.126e-6
-1.181, -3.810e-6
-1.180, -3.850e-6
-1.179, -4.304e-6
-1.178, -4.422e-6
-1.177, -4.304e-6
-1.176, -4.017e-6
-1.175, -4.146e-6
-1.174, -4.540e-6
-1.173, -4.540e-6
-1.172, -4.323e-6
-1.171, -4.116e-6
-1.170, -4.294e-6
-1.169, -4.550e-6
-1.168, -4.629e-6
-1.167, -4.442e-6
-1.166, -4.294e-6
-1.165, -4.234e-6
-1.164, -4.619e-6
-1.163, -4.836e-6
-1.162, -4.669e-6
-1.161, -4.313e-6
-1.160, -4.452e-6
-1.159, -4.698e-6
-1.158, -4.915e-6
-1.157, -4.797e-6
-1.156, -4.294e-6
-1.155, -4.600e-6
-1.154, -4.856e-6
-1.153, -5.083e-6
-1.152, -4.846e-6
-1.151, -4.570e-6
-1.150, -4.757e-6
-1.149, -5.004e-6
-1.148, -5.113e-6
-1.147, -4.965e-6
-1.146, -4.659e-6
-1.145, -4.856e-6
-1.144, -5.122e-6
-1.143, -5.261e-6
-1.142, -5.073e-6
-1.141, -4.866e-6
-1.140, -4.945e-6
-1.139, -5.211e-6
-1.138, -5.389e-6
-1.137, -5.142e-6
-1.136, -4.965e-6
-1.135, -5.053e-6
-1.134, -5.349e-6
-1.133, -5.527e-6
-1.132, -5.261e-6
-1.131, -5.034e-6
-1.130, -5.093e-6
-1.129, -5.557e-6
-1.128, -5.507e-6
-1.127, -5.389e-6
-1.126, -5.152e-6
-1.125, -5.300e-6
-1.124, -5.566e-6
-1.123, -5.724e-6
-1.122, -5.547e-6
-1.121, -5.201e-6
-1.120, -5.349e-6
-1.119, -5.695e-6
-1.118, -5.813e-6
-1.117, -5.557e-6
-1.116, -5.251e-6
-1.115, -5.409e-6
-1.114, -5.862e-6
-1.113, -5.991e-6
-1.112, -5.724e-6
-1.111, -5.428e-6
-1.110, -5.606e-6
-1.109, -5.892e-6
-1.108, -6.079e-6
-1.107, -5.852e-6
-1.106, -5.557e-6
-1.105, -5.665e-6
-1.104, -6.040e-6
-1.103, -6.178e-6
-1.102, -6.089e-6
-1.101, -5.645e-6
-1.100, -5.833e-6
-1.099, -6.168e-6
-1.098, -6.237e-6
-1.097, -6.109e-6
-1.096, -5.734e-6
-1.095, -5.862e-6
-1.094, -6.287e-6
-1.093, -6.405e-6
-1.092, -6.178e-6
-1.091, -5.961e-6
-1.090, -6.050e-6
-1.089, -6.346e-6
-1.088, -6.553e-6
-1.087, -6.306e-6
-1.086, -6.099e-6
-1.085, -6.198e-6
-1.084, -6.563e-6
-1.083, -6.671e-6
-1.082, -6.494e-6
-1.081, -6.158e-6
-1.080, -6.296e-6
-1.079, -6.563e-6
-1.078, -6.800e-6
-1.077, -6.573e-6
-1.076, -6.237e-6
-1.075, -6.484e-6
-1.074, -6.760e-6
-1.073, -6.967e-6
-1.072, -6.632e-6
-1.071, -6.425e-6
-1.070, -6.454e-6
-1.069, -6.760e-6
-1.068, -7.115e-6
-1.067, -6.869e-6
-1.066, -6.454e-6
-1.065, -6.661e-6
-1.064, -7.036e-6
-1.063, -7.105e-6
-1.062, -6.987e-6
-1.061, -6.543e-6
-1.060, -6.721e-6
-1.059, -7.165e-6
-1.058, -7.175e-6
-1.057, -7.046e-6
-1.056, -6.731e-6
-1.055, -6.859e-6
-1.054, -7.155e-6
-1.053, -7.283e-6
-1.052, -7.194e-6
-1.051, -6.800e-6
-1.050, -6.928e-6
-1.049, -7.392e-6
-1.048, -7.480e-6
-1.047, -7.194e-6
-1.046, -6.997e-6
-1.045, -7.027e-6
-1.044, -7.352e-6
-1.043, -7.569e-6
-1.042, -7.401e-6
-1.041, -7.027e-6
-1.040, -7.155e-6
-1.039, -7.461e-6
-1.038, -7.668e-6
-1.037, -7.500e-6
-1.036, -7.145e-6
-1.035, -7.470e-6
-1.034, -7.737e-6
-1.033, -7.875e-6
-1.032, -7.628e-6
-1.031, -7.323e-6
-1.030, -7.618e-6
-1.029, -7.747e-6
-1.028, -7.885e-6
-1.027, -7.668e-6
-1.026, -7.323e-6
-1.025, -7.490e-6
-1.024, -8.043e-6
-1.023, -8.132e-6
-1.022, -7.974e-6
-1.021, -7.618e-6
-1.020, -7.717e-6
-1.019, -8.112e-6
-1.018, -8.141e-6
-1.017, -7.984e-6
-1.016, -7.668e-6
-1.015, -7.826e-6
-1.014, -8.309e-6
-1.013, -8.329e-6
-1.012, -8.141e-6
-1.011, -7.914e-6
-1.010, -7.954e-6
-1.009, -8.329e-6
-1.008, -8.526e-6
-1.007, -8.220e-6
-1.006, -8.003e-6
-1.005, -8.122e-6
-1.004, -8.467e-6
-1.003, -8.664e-6
-1.002, -8.280e-6
-1.001, -8.092e-6
