Mar. 10, 2025   13:01:45
Linear Sweep Voltammetry
File: c:/users/guazh/data/banditlqround7_x0exp891_r5/2025-03-03-exp866\1acid_1ac-2025-03-10t12_58_35-lsvinphos\1acid_1ac_lsv_50mvs_efin_-2100mv.bin
Data Source:  Experiment
Instrument Model:  CHI760E
Header: LSV ran at 50 mVs with Efin at -2100mV
Note: 

Init E (V) = -0.6
Final E (V) = -2.1
Scan Rate (V/s) = 0.05
Sample Interval (V) = 0.001
Quiet Time (sec) = 2
Sensitivity (A/V) = 1e-4
Comp R (ohm) = 10.1

Results:

Channel 1:
Ep = -1.130V
ip = 4.817e-5A
Ah = 9.702e-5C

Ep = -1.799V
ip = 6.040e-4A
Ah = 9.195e-4C

Potential/V, Current/A

-0.600, 3.498e-5
-0.601, 3.541e-5
-0.602, 3.562e-5
-0.603, 3.572e-5
-0.604, 3.580e-5
-0.605, 3.583e-5
-0.606, 3.583e-5
-0.607, 3.581e-5
-0.608, 3.584e-5
-0.609, 3.585e-5
-0.610, 3.586e-5
-0.611, 3.585e-5
-0.612, 3.586e-5
-0.613, 3.586e-5
-0.614, 3.588e-5
-0.615, 3.586e-5
-0.616, 3.584e-5
-0.617, 3.583e-5
-0.618, 3.581e-5
-0.619, 3.581e-5
-0.620, 3.578e-5
-0.621, 3.577e-5
-0.622, 3.575e-5
-0.623, 3.574e-5
-0.624, 3.571e-5
-0.625, 3.568e-5
-0.626, 3.567e-5
-0.627, 3.566e-5
-0.628, 3.567e-5
-0.629, 3.564e-5
-0.630, 3.560e-5
-0.631, 3.557e-5
-0.632, 3.558e-5
-0.633, 3.557e-5
-0.634, 3.551e-5
-0.635, 3.547e-5
-0.636, 3.544e-5
-0.637, 3.543e-5
-0.638, 3.541e-5
-0.639, 3.538e-5
-0.640, 3.534e-5
-0.641, 3.532e-5
-0.642, 3.529e-5
-0.643, 3.525e-5
-0.644, 3.521e-5
-0.645, 3.516e-5
-0.646, 3.513e-5
-0.647, 3.511e-5
-0.648, 3.511e-5
-0.649, 3.506e-5
-0.650, 3.502e-5
-0.651, 3.499e-5
-0.652, 3.496e-5
-0.653, 3.494e-5
-0.654, 3.490e-5
-0.655, 3.485e-5
-0.656, 3.484e-5
-0.657, 3.481e-5
-0.658, 3.474e-5
-0.659, 3.472e-5
-0.660, 3.468e-5
-0.661, 3.466e-5
-0.662, 3.462e-5
-0.663, 3.459e-5
-0.664, 3.456e-5
-0.665, 3.450e-5
-0.666, 3.446e-5
-0.667, 3.441e-5
-0.668, 3.437e-5
-0.669, 3.433e-5
-0.670, 3.427e-5
-0.671, 3.420e-5
-0.672, 3.418e-5
-0.673, 3.417e-5
-0.674, 3.411e-5
-0.675, 3.405e-5
-0.676, 3.400e-5
-0.677, 3.397e-5
-0.678, 3.394e-5
-0.679, 3.389e-5
-0.680, 3.385e-5
-0.681, 3.379e-5
-0.682, 3.374e-5
-0.683, 3.370e-5
-0.684, 3.368e-5
-0.685, 3.363e-5
-0.686, 3.357e-5
-0.687, 3.352e-5
-0.688, 3.348e-5
-0.689, 3.345e-5
-0.690, 3.340e-5
-0.691, 3.336e-5
-0.692, 3.331e-5
-0.693, 3.326e-5
-0.694, 3.321e-5
-0.695, 3.316e-5
-0.696, 3.311e-5
-0.697, 3.306e-5
-0.698, 3.302e-5
-0.699, 3.298e-5
-0.700, 3.291e-5
-0.701, 3.286e-5
-0.702, 3.282e-5
-0.703, 3.277e-5
-0.704, 3.274e-5
-0.705, 3.269e-5
-0.706, 3.264e-5
-0.707, 3.261e-5
-0.708, 3.258e-5
-0.709, 3.252e-5
-0.710, 3.245e-5
-0.711, 3.238e-5
-0.712, 3.235e-5
-0.713, 3.231e-5
-0.714, 3.227e-5
-0.715, 3.223e-5
-0.716, 3.218e-5
-0.717, 3.213e-5
-0.718, 3.209e-5
-0.719, 3.205e-5
-0.720, 3.199e-5
-0.721, 3.193e-5
-0.722, 3.190e-5
-0.723, 3.186e-5
-0.724, 3.184e-5
-0.725, 3.178e-5
-0.726, 3.172e-5
-0.727, 3.170e-5
-0.728, 3.167e-5
-0.729, 3.162e-5
-0.730, 3.157e-5
-0.731, 3.151e-5
-0.732, 3.148e-5
-0.733, 3.145e-5
-0.734, 3.141e-5
-0.735, 3.136e-5
-0.736, 3.132e-5
-0.737, 3.127e-5
-0.738, 3.124e-5
-0.739, 3.121e-5
-0.740, 3.115e-5
-0.741, 3.113e-5
-0.742, 3.112e-5
-0.743, 3.107e-5
-0.744, 3.102e-5
-0.745, 3.097e-5
-0.746, 3.089e-5
-0.747, 3.085e-5
-0.748, 3.081e-5
-0.749, 3.077e-5
-0.750, 3.072e-5
-0.751, 3.069e-5
-0.752, 3.066e-5
-0.753, 3.065e-5
-0.754, 3.061e-5
-0.755, 3.055e-5
-0.756, 3.048e-5
-0.757, 3.044e-5
-0.758, 3.042e-5
-0.759, 3.040e-5
-0.760, 3.036e-5
-0.761, 3.033e-5
-0.762, 3.028e-5
-0.763, 3.026e-5
-0.764, 3.023e-5
-0.765, 3.018e-5
-0.766, 3.015e-5
-0.767, 3.012e-5
-0.768, 3.012e-5
-0.769, 3.008e-5
-0.770, 3.003e-5
-0.771, 2.998e-5
-0.772, 2.994e-5
-0.773, 2.993e-5
-0.774, 2.991e-5
-0.775, 2.987e-5
-0.776, 2.983e-5
-0.777, 2.981e-5
-0.778, 2.979e-5
-0.779, 2.976e-5
-0.780, 2.973e-5
-0.781, 2.970e-5
-0.782, 2.967e-5
-0.783, 2.966e-5
-0.784, 2.962e-5
-0.785, 2.960e-5
-0.786, 2.956e-5
-0.787, 2.954e-5
-0.788, 2.951e-5
-0.789, 2.948e-5
-0.790, 2.945e-5
-0.791, 2.941e-5
-0.792, 2.938e-5
-0.793, 2.937e-5
-0.794, 2.935e-5
-0.795, 2.933e-5
-0.796, 2.930e-5
-0.797, 2.926e-5
-0.798, 2.924e-5
-0.799, 2.922e-5
-0.800, 2.919e-5
-0.801, 2.916e-5
-0.802, 2.914e-5
-0.803, 2.912e-5
-0.804, 2.909e-5
-0.805, 2.906e-5
-0.806, 2.901e-5
-0.807, 2.899e-5
-0.808, 2.898e-5
-0.809, 2.894e-5
-0.810, 2.890e-5
-0.811, 2.888e-5
-0.812, 2.888e-5
-0.813, 2.886e-5
-0.814, 2.885e-5
-0.815, 2.882e-5
-0.816, 2.877e-5
-0.817, 2.875e-5
-0.818, 2.872e-5
-0.819, 2.870e-5
-0.820, 2.868e-5
-0.821, 2.865e-5
-0.822, 2.863e-5
-0.823, 2.860e-5
-0.824, 2.857e-5
-0.825, 2.852e-5
-0.826, 2.848e-5
-0.827, 2.845e-5
-0.828, 2.844e-5
-0.829, 2.841e-5
-0.830, 2.836e-5
-0.831, 2.834e-5
-0.832, 2.832e-5
-0.833, 2.828e-5
-0.834, 2.825e-5
-0.835, 2.821e-5
-0.836, 2.818e-5
-0.837, 2.817e-5
-0.838, 2.816e-5
-0.839, 2.813e-5
-0.840, 2.811e-5
-0.841, 2.808e-5
-0.842, 2.804e-5
-0.843, 2.802e-5
-0.844, 2.799e-5
-0.845, 2.806e-5
-0.846, 2.806e-5
-0.847, 2.800e-5
-0.848, 2.797e-5
-0.849, 2.791e-5
-0.850, 2.788e-5
-0.851, 2.782e-5
-0.852, 2.777e-5
-0.853, 2.777e-5
-0.854, 2.774e-5
-0.855, 2.773e-5
-0.856, 2.771e-5
-0.857, 2.767e-5
-0.858, 2.760e-5
-0.859, 2.759e-5
-0.860, 2.757e-5
-0.861, 2.754e-5
-0.862, 2.755e-5
-0.863, 2.754e-5
-0.864, 2.753e-5
-0.865, 2.750e-5
-0.866, 2.746e-5
-0.867, 2.744e-5
-0.868, 2.746e-5
-0.869, 2.741e-5
-0.870, 2.741e-5
-0.871, 2.739e-5
-0.872, 2.733e-5
-0.873, 2.734e-5
-0.874, 2.731e-5
-0.875, 2.728e-5
-0.876, 2.727e-5
-0.877, 2.724e-5
-0.878, 2.724e-5
-0.879, 2.721e-5
-0.880, 2.720e-5
-0.881, 2.718e-5
-0.882, 2.718e-5
-0.883, 2.721e-5
-0.884, 2.719e-5
-0.885, 2.717e-5
-0.886, 2.714e-5
-0.887, 2.712e-5
-0.888, 2.713e-5
-0.889, 2.713e-5
-0.890, 2.713e-5
-0.891, 2.712e-5
-0.892, 2.711e-5
-0.893, 2.713e-5
-0.894, 2.715e-5
-0.895, 2.718e-5
-0.896, 2.716e-5
-0.897, 2.715e-5
-0.898, 2.715e-5
-0.899, 2.718e-5
-0.900, 2.720e-5
-0.901, 2.721e-5
-0.902, 2.723e-5
-0.903, 2.723e-5
-0.904, 2.726e-5
-0.905, 2.728e-5
-0.906, 2.731e-5
-0.907, 2.738e-5
-0.908, 2.743e-5
-0.909, 2.746e-5
-0.910, 2.752e-5
-0.911, 2.756e-5
-0.912, 2.760e-5
-0.913, 2.767e-5
-0.914, 2.775e-5
-0.915, 2.783e-5
-0.916, 2.792e-5
-0.917, 2.800e-5
-0.918, 2.811e-5
-0.919, 2.822e-5
-0.920, 2.832e-5
-0.921, 2.842e-5
-0.922, 2.856e-5
-0.923, 2.869e-5
-0.924, 2.883e-5
-0.925, 2.897e-5
-0.926, 2.911e-5
-0.927, 2.928e-5
-0.928, 2.946e-5
-0.929, 2.964e-5
-0.930, 2.981e-5
-0.931, 3.000e-5
-0.932, 3.020e-5
-0.933, 3.042e-5
-0.934, 3.065e-5
-0.935, 3.089e-5
-0.936, 3.112e-5
-0.937, 3.138e-5
-0.938, 3.165e-5
-0.939, 3.193e-5
-0.940, 3.219e-5
-0.941, 3.246e-5
-0.942, 3.276e-5
-0.943, 3.306e-5
-0.944, 3.337e-5
-0.945, 3.370e-5
-0.946, 3.400e-5
-0.947, 3.431e-5
-0.948, 3.465e-5
-0.949, 3.499e-5
-0.950, 3.527e-5
-0.951, 3.559e-5
-0.952, 3.594e-5
-0.953, 3.626e-5
-0.954, 3.660e-5
-0.955, 3.691e-5
-0.956, 3.720e-5
-0.957, 3.749e-5
-0.958, 3.778e-5
-0.959, 3.805e-5
-0.960, 3.832e-5
-0.961, 3.858e-5
-0.962, 3.884e-5
-0.963, 3.911e-5
-0.964, 3.936e-5
-0.965, 3.959e-5
-0.966, 3.979e-5
-0.967, 4.000e-5
-0.968, 4.021e-5
-0.969, 4.039e-5
-0.970, 4.056e-5
-0.971, 4.072e-5
-0.972, 4.088e-5
-0.973, 4.100e-5
-0.974, 4.117e-5
-0.975, 4.131e-5
-0.976, 4.143e-5
-0.977, 4.157e-5
-0.978, 4.169e-5
-0.979, 4.181e-5
-0.980, 4.191e-5
-0.981, 4.198e-5
-0.982, 4.205e-5
-0.983, 4.214e-5
-0.984, 4.221e-5
-0.985, 4.230e-5
-0.986, 4.237e-5
-0.987, 4.246e-5
-0.988, 4.255e-5
-0.989, 4.263e-5
-0.990, 4.273e-5
-0.991, 4.277e-5
-0.992, 4.283e-5
-0.993, 4.290e-5
-0.994, 4.296e-5
-0.995, 4.303e-5
-0.996, 4.310e-5
-0.997, 4.319e-5
-0.998, 4.328e-5
-0.999, 4.336e-5
-1.000, 4.345e-5
-1.001, 4.353e-5
-1.002, 4.361e-5
-1.003, 4.371e-5
-1.004, 4.379e-5
-1.005, 4.388e-5
-1.006, 4.398e-5
-1.007, 4.409e-5
-1.008, 4.421e-5
-1.009, 4.435e-5
-1.010, 4.444e-5
-1.011, 4.456e-5
-1.012, 4.467e-5
-1.013, 4.478e-5
-1.014, 4.492e-5
-1.015, 4.504e-5
-1.016, 4.515e-5
-1.017, 4.529e-5
-1.018, 4.543e-5
-1.019, 4.557e-5
-1.020, 4.573e-5
-1.021, 4.588e-5
-1.022, 4.604e-5
-1.023, 4.620e-5
-1.024, 4.639e-5
-1.025, 4.659e-5
-1.026, 4.675e-5
-1.027, 4.691e-5
-1.028, 4.711e-5
-1.029, 4.731e-5
-1.030, 4.749e-5
-1.031, 4.769e-5
-1.032, 4.792e-5
-1.033, 4.811e-5
-1.034, 4.831e-5
-1.035, 4.850e-5
-1.036, 4.871e-5
-1.037, 4.892e-5
-1.038, 4.915e-5
-1.039, 4.937e-5
-1.040, 4.960e-5
-1.041, 4.981e-5
-1.042, 5.004e-5
-1.043, 5.029e-5
-1.044, 5.056e-5
-1.045, 5.079e-5
-1.046, 5.102e-5
-1.047, 5.124e-5
-1.048, 5.151e-5
-1.049, 5.177e-5
-1.050, 5.203e-5
-1.051, 5.229e-5
-1.052, 5.258e-5
-1.053, 5.287e-5
-1.054, 5.314e-5
-1.055, 5.343e-5
-1.056, 5.372e-5
-1.057, 5.402e-5
-1.058, 5.435e-5
-1.059, 5.465e-5
-1.060, 5.496e-5
-1.061, 5.527e-5
-1.062, 5.559e-5
-1.063, 5.594e-5
-1.064, 5.629e-5
-1.065, 5.661e-5
-1.066, 5.690e-5
-1.067, 5.723e-5
-1.068, 5.757e-5
-1.069, 5.791e-5
-1.070, 5.825e-5
-1.071, 5.858e-5
-1.072, 5.891e-5
-1.073, 5.928e-5
-1.074, 5.964e-5
-1.075, 5.999e-5
-1.076, 6.036e-5
-1.077, 6.071e-5
-1.078, 6.109e-5
-1.079, 6.146e-5
-1.080, 6.185e-5
-1.081, 6.222e-5
-1.082, 6.258e-5
-1.083, 6.304e-5
-1.084, 6.346e-5
-1.085, 6.386e-5
-1.086, 6.425e-5
-1.087, 6.461e-5
-1.088, 6.498e-5
-1.089, 6.536e-5
-1.090, 6.574e-5
-1.091, 6.612e-5
-1.092, 6.648e-5
-1.093, 6.685e-5
-1.094, 6.723e-5
-1.095, 6.757e-5
-1.096, 6.792e-5
-1.097, 6.828e-5
-1.098, 6.864e-5
-1.099, 6.904e-5
-1.100, 6.942e-5
-1.101, 6.975e-5
-1.102, 7.007e-5
-1.103, 7.042e-5
-1.104, 7.077e-5
-1.105, 7.112e-5
-1.106, 7.144e-5
-1.107, 7.177e-5
-1.108, 7.207e-5
-1.109, 7.236e-5
-1.110, 7.263e-5
-1.111, 7.287e-5
-1.112, 7.311e-5
-1.113, 7.337e-5
-1.114, 7.363e-5
-1.115, 7.387e-5
-1.116, 7.406e-5
-1.117, 7.426e-5
-1.118, 7.444e-5
-1.119, 7.463e-5
-1.120, 7.479e-5
-1.121, 7.491e-5
-1.122, 7.501e-5
-1.123, 7.512e-5
-1.124, 7.520e-5
-1.125, 7.527e-5
-1.126, 7.533e-5
-1.127, 7.538e-5
-1.128, 7.541e-5
-1.129, 7.543e-5
-1.130, 7.543e-5
-1.131, 7.543e-5
-1.132, 7.541e-5
-1.133, 7.541e-5
-1.134, 7.540e-5
-1.135, 7.540e-5
-1.136, 7.538e-5
-1.137, 7.529e-5
-1.138, 7.524e-5
-1.139, 7.520e-5
-1.140, 7.504e-5
-1.141, 7.489e-5
-1.142, 7.476e-5
-1.143, 7.467e-5
-1.144, 7.456e-5
-1.145, 7.439e-5
-1.146, 7.423e-5
-1.147, 7.412e-5
-1.148, 7.397e-5
-1.149, 7.379e-5
-1.150, 7.365e-5
-1.151, 7.350e-5
-1.152, 7.335e-5
-1.153, 7.321e-5
-1.154, 7.309e-5
-1.155, 7.298e-5
-1.156, 7.288e-5
-1.157, 7.273e-5
-1.158, 7.261e-5
-1.159, 7.248e-5
-1.160, 7.231e-5
-1.161, 7.218e-5
-1.162, 7.205e-5
-1.163, 7.194e-5
-1.164, 7.182e-5
-1.165, 7.169e-5
-1.166, 7.158e-5
-1.167, 7.146e-5
-1.168, 7.133e-5
-1.169, 7.123e-5
-1.170, 7.112e-5
-1.171, 7.099e-5
-1.172, 7.088e-5
-1.173, 7.080e-5
-1.174, 7.073e-5
-1.175, 7.060e-5
-1.176, 7.048e-5
-1.177, 7.040e-5
-1.178, 7.036e-5
-1.179, 7.028e-5
-1.180, 7.021e-5
-1.181, 7.015e-5
-1.182, 7.010e-5
-1.183, 7.004e-5
-1.184, 6.999e-5
-1.185, 6.994e-5
-1.186, 6.987e-5
-1.187, 6.984e-5
-1.188, 6.982e-5
-1.189, 6.978e-5
-1.190, 6.974e-5
-1.191, 6.972e-5
-1.192, 6.970e-5
-1.193, 6.968e-5
-1.194, 6.964e-5
-1.195, 6.960e-5
-1.196, 6.958e-5
-1.197, 6.958e-5
-1.198, 6.961e-5
-1.199, 6.962e-5
-1.200, 6.963e-5
-1.201, 6.963e-5
-1.202, 6.965e-5
-1.203, 6.966e-5
-1.204, 6.970e-5
-1.205, 6.975e-5
-1.206, 6.979e-5
-1.207, 6.983e-5
-1.208, 6.987e-5
-1.209, 6.991e-5
-1.210, 6.996e-5
-1.211, 7.001e-5
-1.212, 7.008e-5
-1.213, 7.017e-5
-1.214, 7.025e-5
-1.215, 7.035e-5
-1.216, 7.042e-5
-1.217, 7.050e-5
-1.218, 7.059e-5
-1.219, 7.072e-5
-1.220, 7.083e-5
-1.221, 7.094e-5
-1.222, 7.108e-5
-1.223, 7.125e-5
-1.224, 7.138e-5
-1.225, 7.154e-5
-1.226, 7.172e-5
-1.227, 7.191e-5
-1.228, 7.207e-5
-1.229, 7.228e-5
-1.230, 7.248e-5
-1.231, 7.264e-5
-1.232, 7.282e-5
-1.233, 7.300e-5
-1.234, 7.319e-5
-1.235, 7.338e-5
-1.236, 7.360e-5
-1.237, 7.386e-5
-1.238, 7.406e-5
-1.239, 7.425e-5
-1.240, 7.443e-5
-1.241, 7.466e-5
-1.242, 7.488e-5
-1.243, 7.513e-5
-1.244, 7.535e-5
-1.245, 7.561e-5
-1.246, 7.584e-5
-1.247, 7.609e-5
-1.248, 7.637e-5
-1.249, 7.663e-5
-1.250, 7.688e-5
-1.251, 7.712e-5
-1.252, 7.736e-5
-1.253, 7.764e-5
-1.254, 7.790e-5
-1.255, 7.815e-5
-1.256, 7.843e-5
-1.257, 7.873e-5
-1.258, 7.908e-5
-1.259, 7.940e-5
-1.260, 7.968e-5
-1.261, 7.999e-5
-1.262, 8.033e-5
-1.263, 8.061e-5
-1.264, 8.091e-5
-1.265, 8.121e-5
-1.266, 8.147e-5
-1.267, 8.177e-5
-1.268, 8.204e-5
-1.269, 8.236e-5
-1.270, 8.264e-5
-1.271, 8.292e-5
-1.272, 8.321e-5
-1.273, 8.355e-5
-1.274, 8.384e-5
-1.275, 8.413e-5
-1.276, 8.445e-5
-1.277, 8.475e-5
-1.278, 8.507e-5
-1.279, 8.536e-5
-1.280, 8.562e-5
-1.281, 8.586e-5
-1.282, 8.613e-5
-1.283, 8.641e-5
-1.284, 8.668e-5
-1.285, 8.694e-5
-1.286, 8.713e-5
-1.287, 8.732e-5
-1.288, 8.761e-5
-1.289, 8.793e-5
-1.290, 8.817e-5
-1.291, 8.835e-5
-1.292, 8.850e-5
-1.293, 8.877e-5
-1.294, 8.897e-5
-1.295, 8.912e-5
-1.296, 8.927e-5
-1.297, 8.938e-5
-1.298, 8.953e-5
-1.299, 8.970e-5
-1.300, 8.981e-5
-1.301, 8.993e-5
-1.302, 9.012e-5
-1.303, 9.025e-5
-1.304, 9.036e-5
-1.305, 9.047e-5
-1.306, 9.060e-5
-1.307, 9.072e-5
-1.308, 9.085e-5
-1.309, 9.086e-5
-1.310, 9.090e-5
-1.311, 9.087e-5
-1.312, 9.090e-5
-1.313, 9.095e-5
-1.314, 9.095e-5
-1.315, 9.091e-5
-1.316, 9.087e-5
-1.317, 9.086e-5
-1.318, 9.077e-5
-1.319, 9.067e-5
-1.320, 9.061e-5
-1.321, 9.053e-5
-1.322, 9.043e-5
-1.323, 9.035e-5
-1.324, 9.023e-5
-1.325, 9.012e-5
-1.326, 8.991e-5
-1.327, 8.977e-5
-1.328, 8.971e-5
-1.329, 8.958e-5
-1.330, 8.946e-5
-1.331, 8.923e-5
-1.332, 8.908e-5
-1.333, 8.887e-5
-1.334, 8.867e-5
-1.335, 8.859e-5
-1.336, 8.850e-5
-1.337, 8.826e-5
-1.338, 8.805e-5
-1.339, 8.790e-5
-1.340, 8.769e-5
-1.341, 8.746e-5
-1.342, 8.726e-5
-1.343, 8.712e-5
-1.344, 8.696e-5
-1.345, 8.681e-5
-1.346, 8.663e-5
-1.347, 8.652e-5
-1.348, 8.637e-5
-1.349, 8.619e-5
-1.350, 8.597e-5
-1.351, 8.574e-5
-1.352, 8.559e-5
-1.353, 8.546e-5
-1.354, 8.530e-5
-1.355, 8.518e-5
-1.356, 8.502e-5
-1.357, 8.489e-5
-1.358, 8.478e-5
-1.359, 8.472e-5
-1.360, 8.467e-5
-1.361, 8.454e-5
-1.362, 8.438e-5
-1.363, 8.432e-5
-1.364, 8.424e-5
-1.365, 8.419e-5
-1.366, 8.410e-5
-1.367, 8.405e-5
-1.368, 8.403e-5
-1.369, 8.399e-5
-1.370, 8.398e-5
-1.371, 8.391e-5
-1.372, 8.389e-5
-1.373, 8.387e-5
-1.374, 8.384e-5
-1.375, 8.382e-5
-1.376, 8.385e-5
-1.377, 8.378e-5
-1.378, 8.375e-5
-1.379, 8.379e-5
-1.380, 8.370e-5
-1.381, 8.366e-5
-1.382, 8.367e-5
-1.383, 8.372e-5
-1.384, 8.375e-5
-1.385, 8.373e-5
-1.386, 8.373e-5
-1.387, 8.377e-5
-1.388, 8.379e-5
-1.389, 8.386e-5
-1.390, 8.389e-5
-1.391, 8.384e-5
-1.392, 8.388e-5
-1.393, 8.392e-5
-1.394, 8.398e-5
-1.395, 8.401e-5
-1.396, 8.404e-5
-1.397, 8.406e-5
-1.398, 8.404e-5
-1.399, 8.405e-5
-1.400, 8.409e-5
-1.401, 8.414e-5
-1.402, 8.423e-5
-1.403, 8.430e-5
-1.404, 8.437e-5
-1.405, 8.439e-5
-1.406, 8.442e-5
-1.407, 8.448e-5
-1.408, 8.456e-5
-1.409, 8.464e-5
-1.410, 8.470e-5
-1.411, 8.476e-5
-1.412, 8.483e-5
-1.413, 8.489e-5
-1.414, 8.493e-5
-1.415, 8.496e-5
-1.416, 8.500e-5
-1.417, 8.502e-5
-1.418, 8.504e-5
-1.419, 8.510e-5
-1.420, 8.513e-5
-1.421, 8.516e-5
-1.422, 8.522e-5
-1.423, 8.530e-5
-1.424, 8.537e-5
-1.425, 8.540e-5
-1.426, 8.543e-5
-1.427, 8.542e-5
-1.428, 8.549e-5
-1.429, 8.559e-5
-1.430, 8.563e-5
-1.431, 8.562e-5
-1.432, 8.566e-5
-1.433, 8.570e-5
-1.434, 8.577e-5
-1.435, 8.580e-5
-1.436, 8.580e-5
-1.437, 8.584e-5
-1.438, 8.582e-5
-1.439, 8.584e-5
-1.440, 8.582e-5
-1.441, 8.582e-5
-1.442, 8.581e-5
-1.443, 8.586e-5
-1.444, 8.591e-5
-1.445, 8.589e-5
-1.446, 8.582e-5
-1.447, 8.571e-5
-1.448, 8.565e-5
-1.449, 8.562e-5
-1.450, 8.555e-5
-1.451, 8.549e-5
-1.452, 8.543e-5
-1.453, 8.540e-5
-1.454, 8.547e-5
-1.455, 8.554e-5
-1.456, 8.553e-5
-1.457, 8.552e-5
-1.458, 8.547e-5
-1.459, 8.549e-5
-1.460, 8.549e-5
-1.461, 8.545e-5
-1.462, 8.539e-5
-1.463, 8.536e-5
-1.464, 8.537e-5
-1.465, 8.537e-5
-1.466, 8.533e-5
-1.467, 8.526e-5
-1.468, 8.525e-5
-1.469, 8.526e-5
-1.470, 8.525e-5
-1.471, 8.517e-5
-1.472, 8.507e-5
-1.473, 8.502e-5
-1.474, 8.502e-5
-1.475, 8.496e-5
-1.476, 8.495e-5
-1.477, 8.495e-5
-1.478, 8.500e-5
-1.479, 8.500e-5
-1.480, 8.501e-5
-1.481, 8.505e-5
-1.482, 8.511e-5
-1.483, 8.528e-5
-1.484, 8.538e-5
-1.485, 8.539e-5
-1.486, 8.543e-5
-1.487, 8.542e-5
-1.488, 8.552e-5
-1.489, 8.568e-5
-1.490, 8.564e-5
-1.491, 8.559e-5
-1.492, 8.558e-5
-1.493, 8.561e-5
-1.494, 8.577e-5
-1.495, 8.590e-5
-1.496, 8.604e-5
-1.497, 8.618e-5
-1.498, 8.627e-5
-1.499, 8.637e-5
-1.500, 8.655e-5
-1.501, 8.663e-5
-1.502, 8.671e-5
-1.503, 8.687e-5
-1.504, 8.702e-5
-1.505, 8.716e-5
-1.506, 8.733e-5
-1.507, 8.749e-5
-1.508, 8.769e-5
-1.509, 8.801e-5
-1.510, 8.827e-5
-1.511, 8.853e-5
-1.512, 8.879e-5
-1.513, 8.908e-5
-1.514, 8.939e-5
-1.515, 8.965e-5
-1.516, 8.990e-5
-1.517, 9.016e-5
-1.518, 9.050e-5
-1.519, 9.087e-5
-1.520, 9.127e-5
-1.521, 9.162e-5
-1.522, 9.196e-5
-1.523, 9.238e-5
-1.524, 9.283e-5
-1.525, 9.332e-5
-1.526, 9.375e-5
-1.527, 9.419e-5
-1.528, 9.469e-5
-1.529, 9.522e-5
-1.530, 9.571e-5
-1.531, 9.621e-5
-1.532, 9.681e-5
-1.533, 9.745e-5
-1.534, 9.809e-5
-1.535, 9.876e-5
-1.536, 9.939e-5
-1.537, 1.000e-4
-1.538, 1.007e-4
-1.539, 1.014e-4
-1.540, 1.021e-4
-1.541, 1.028e-4
-1.542, 1.035e-4
-1.543, 1.042e-4
-1.544, 1.051e-4
-1.545, 1.059e-4
-1.546, 1.066e-4
-1.547, 1.074e-4
-1.548, 1.083e-4
-1.549, 1.092e-4
-1.550, 1.101e-4
-1.551, 1.110e-4
-1.552, 1.119e-4
-1.553, 1.132e-4
-1.554, 1.145e-4
-1.555, 1.156e-4
-1.556, 1.164e-4
-1.557, 1.173e-4
-1.558, 1.183e-4
-1.559, 1.193e-4
-1.560, 1.202e-4
-1.561, 1.212e-4
-1.562, 1.222e-4
-1.563, 1.233e-4
-1.564, 1.245e-4
-1.565, 1.256e-4
-1.566, 1.267e-4
-1.567, 1.278e-4
-1.568, 1.290e-4
-1.569, 1.302e-4
-1.570, 1.316e-4
-1.571, 1.329e-4
-1.572, 1.343e-4
-1.573, 1.356e-4
-1.574, 1.367e-4
-1.575, 1.380e-4
-1.576, 1.393e-4
-1.577, 1.407e-4
-1.578, 1.421e-4
-1.579, 1.435e-4
-1.580, 1.449e-4
-1.581, 1.463e-4
-1.582, 1.478e-4
-1.583, 1.492e-4
-1.584, 1.508e-4
-1.585, 1.523e-4
-1.586, 1.538e-4
-1.587, 1.553e-4
-1.588, 1.569e-4
-1.589, 1.585e-4
-1.590, 1.601e-4
-1.591, 1.618e-4
-1.592, 1.635e-4
-1.593, 1.652e-4
-1.594, 1.670e-4
-1.595, 1.688e-4
-1.596, 1.705e-4
-1.597, 1.722e-4
-1.598, 1.740e-4
-1.599, 1.757e-4
-1.600, 1.775e-4
-1.601, 1.794e-4
-1.602, 1.812e-4
-1.603, 1.830e-4
-1.604, 1.850e-4
-1.605, 1.869e-4
-1.606, 1.889e-4
-1.607, 1.909e-4
-1.608, 1.933e-4
-1.609, 1.955e-4
-1.610, 1.976e-4
-1.611, 1.997e-4
-1.612, 2.017e-4
-1.613, 2.044e-4
-1.614, 2.067e-4
-1.615, 2.088e-4
-1.616, 2.110e-4
-1.617, 2.130e-4
-1.618, 2.151e-4
-1.619, 2.173e-4
-1.620, 2.195e-4
-1.621, 2.219e-4
-1.622, 2.243e-4
-1.623, 2.266e-4
-1.624, 2.290e-4
-1.625, 2.314e-4
-1.626, 2.337e-4
-1.627, 2.363e-4
-1.628, 2.390e-4
-1.629, 2.415e-4
-1.630, 2.438e-4
-1.631, 2.463e-4
-1.632, 2.487e-4
-1.633, 2.512e-4
-1.634, 2.540e-4
-1.635, 2.567e-4
-1.636, 2.593e-4
-1.637, 2.620e-4
-1.638, 2.646e-4
-1.639, 2.674e-4
-1.640, 2.703e-4
-1.641, 2.732e-4
-1.642, 2.760e-4
-1.643, 2.789e-4
-1.644, 2.819e-4
-1.645, 2.848e-4
-1.646, 2.875e-4
-1.647, 2.903e-4
-1.648, 2.933e-4
-1.649, 2.962e-4
-1.650, 2.990e-4
-1.651, 3.022e-4
-1.652, 3.052e-4
-1.653, 3.084e-4
-1.654, 3.116e-4
-1.655, 3.148e-4
-1.656, 3.179e-4
-1.657, 3.209e-4
-1.658, 3.240e-4
-1.659, 3.274e-4
-1.660, 3.309e-4
-1.661, 3.343e-4
-1.662, 3.379e-4
-1.663, 3.416e-4
-1.664, 3.452e-4
-1.665, 3.487e-4
-1.666, 3.521e-4
-1.667, 3.557e-4
-1.668, 3.593e-4
-1.669, 3.627e-4
-1.670, 3.666e-4
-1.671, 3.700e-4
-1.672, 3.734e-4
-1.673, 3.770e-4
-1.674, 3.805e-4
-1.675, 3.841e-4
-1.676, 3.876e-4
-1.677, 3.908e-4
-1.678, 3.942e-4
-1.679, 3.977e-4
-1.680, 4.013e-4
-1.681, 4.050e-4
-1.682, 4.087e-4
-1.683, 4.128e-4
-1.684, 4.167e-4
-1.685, 4.202e-4
-1.686, 4.243e-4
-1.687, 4.278e-4
-1.688, 4.313e-4
-1.689, 4.350e-4
-1.690, 4.387e-4
-1.691, 4.424e-4
-1.692, 4.462e-4
-1.693, 4.500e-4
-1.694, 4.539e-4
-1.695, 4.579e-4
-1.696, 4.619e-4
-1.697, 4.658e-4
-1.698, 4.697e-4
-1.699, 4.737e-4
-1.700, 4.776e-4
-1.701, 4.817e-4
-1.702, 4.861e-4
-1.703, 4.905e-4
-1.704, 4.948e-4
-1.705, 4.992e-4
-1.706, 5.034e-4
-1.707, 5.077e-4
-1.708, 5.120e-4
-1.709, 5.165e-4
-1.710, 5.208e-4
-1.711, 5.252e-4
-1.712, 5.295e-4
-1.713, 5.341e-4
-1.714, 5.386e-4
-1.715, 5.429e-4
-1.716, 5.471e-4
-1.717, 5.516e-4
-1.718, 5.565e-4
-1.719, 5.611e-4
-1.720, 5.656e-4
-1.721, 5.701e-4
-1.722, 5.748e-4
-1.723, 5.795e-4
-1.724, 5.843e-4
-1.725, 5.893e-4
-1.726, 5.943e-4
-1.727, 5.990e-4
-1.728, 6.038e-4
-1.729, 6.086e-4
-1.730, 6.136e-4
-1.731, 6.186e-4
-1.732, 6.234e-4
-1.733, 6.283e-4
-1.734, 6.330e-4
-1.735, 6.379e-4
-1.736, 6.429e-4
-1.737, 6.480e-4
-1.738, 6.531e-4
-1.739, 6.581e-4
-1.740, 6.632e-4
-1.741, 6.683e-4
-1.742, 6.735e-4
-1.743, 6.787e-4
-1.744, 6.839e-4
-1.745, 6.891e-4
-1.746, 6.942e-4
-1.747, 6.992e-4
-1.748, 7.044e-4
-1.749, 7.097e-4
-1.750, 7.152e-4
-1.751, 7.206e-4
-1.752, 7.261e-4
-1.753, 7.316e-4
-1.754, 7.371e-4
-1.755, 7.428e-4
-1.756, 7.486e-4
-1.757, 7.543e-4
-1.758, 7.599e-4
-1.759, 7.657e-4
-1.760, 7.714e-4
-1.761, 7.772e-4
-1.762, 7.828e-4
-1.763, 7.886e-4
-1.764, 7.944e-4
-1.765, 8.002e-4
-1.766, 8.061e-4
-1.767, 8.124e-4
-1.768, 8.184e-4
-1.769, 8.244e-4
-1.770, 8.304e-4
-1.771, 8.365e-4
-1.772, 8.425e-4
-1.773, 8.487e-4
-1.774, 8.550e-4
-1.775, 8.614e-4
-1.776, 8.677e-4
-1.777, 8.739e-4
-1.778, 8.802e-4
-1.779, 8.864e-4
-1.780, 8.926e-4
-1.781, 8.991e-4
-1.782, 9.056e-4
-1.783, 9.119e-4
-1.784, 9.183e-4
-1.785, 9.248e-4
-1.786, 9.313e-4
-1.787, 9.379e-4
-1.788, 9.446e-4
-1.789, 9.511e-4
-1.790, 9.577e-4
-1.791, 9.642e-4
-1.792, 9.707e-4
-1.793, 9.773e-4
-1.794, 9.840e-4
-1.795, 9.908e-4
-1.796, 9.977e-4
-1.797, 1.005e-3
-1.798, 1.010e-3
-1.799, 1.011e-3
-1.800, 1.011e-3
-1.801, 1.011e-3
-1.802, 1.011e-3
-1.803, 1.011e-3
-1.804, 1.011e-3
-1.805, 1.011e-3
-1.806, 1.011e-3
-1.807, 1.011e-3
-1.808, 1.011e-3
-1.809, 1.011e-3
-1.810, 1.011e-3
-1.811, 1.011e-3
-1.812, 1.011e-3
-1.813, 1.011e-3
-1.814, 1.011e-3
-1.815, 1.011e-3
-1.816, 1.011e-3
-1.817, 1.011e-3
-1.818, 1.011e-3
-1.819, 1.011e-3
-1.820, 1.011e-3
-1.821, 1.011e-3
-1.822, 1.011e-3
-1.823, 1.011e-3
-1.824, 1.011e-3
-1.825, 1.011e-3
-1.826, 1.011e-3
-1.827, 1.011e-3
-1.828, 1.011e-3
-1.829, 1.011e-3
-1.830, 1.011e-3
-1.831, 1.011e-3
-1.832, 1.011e-3
-1.833, 1.011e-3
-1.834, 1.011e-3
-1.835, 1.011e-3
-1.836, 1.011e-3
-1.837, 1.011e-3
-1.838, 1.011e-3
-1.839, 1.011e-3
-1.840, 1.011e-3
-1.841, 1.011e-3
-1.842, 1.011e-3
-1.843, 1.011e-3
-1.844, 1.011e-3
-1.845, 1.011e-3
-1.846, 1.011e-3
-1.847, 1.011e-3
-1.848, 1.011e-3
-1.849, 1.011e-3
-1.850, 1.011e-3
-1.851, 1.011e-3
-1.852, 1.011e-3
-1.853, 1.011e-3
-1.854, 1.011e-3
-1.855, 1.011e-3
-1.856, 1.011e-3
-1.857, 1.011e-3
-1.858, 1.011e-3
-1.859, 1.011e-3
-1.860, 1.011e-3
-1.861, 1.011e-3
-1.862, 1.011e-3
-1.863, 1.011e-3
-1.864, 1.011e-3
-1.865, 1.011e-3
-1.866, 1.011e-3
-1.867, 1.011e-3
-1.868, 1.011e-3
-1.869, 1.011e-3
-1.870, 1.011e-3
-1.871, 1.011e-3
-1.872, 1.011e-3
-1.873, 1.011e-3
-1.874, 1.011e-3
-1.875, 1.011e-3
-1.876, 1.011e-3
-1.877, 1.011e-3
-1.878, 1.011e-3
-1.879, 1.011e-3
-1.880, 1.011e-3
-1.881, 1.011e-3
-1.882, 1.011e-3
-1.883, 1.011e-3
-1.884, 1.011e-3
-1.885, 1.011e-3
-1.886, 1.011e-3
-1.887, 1.011e-3
-1.888, 1.011e-3
-1.889, 1.011e-3
-1.890, 1.011e-3
-1.891, 1.011e-3
-1.892, 1.011e-3
-1.893, 1.011e-3
-1.894, 1.011e-3
-1.895, 1.011e-3
-1.896, 1.011e-3
-1.897, 1.011e-3
-1.898, 1.011e-3
-1.899, 1.011e-3
-1.900, 1.011e-3
-1.901, 1.011e-3
-1.902, 1.011e-3
-1.903, 1.011e-3
-1.904, 1.011e-3
-1.905, 1.011e-3
-1.906, 1.011e-3
-1.907, 1.011e-3
-1.908, 1.011e-3
-1.909, 1.011e-3
-1.910, 1.011e-3
-1.911, 1.011e-3
-1.912, 1.011e-3
-1.913, 1.011e-3
-1.914, 1.011e-3
-1.915, 1.011e-3
-1.916, 1.011e-3
-1.917, 1.011e-3
-1.918, 1.011e-3
-1.919, 1.011e-3
-1.920, 1.011e-3
-1.921, 1.011e-3
-1.922, 1.011e-3
-1.923, 1.011e-3
-1.924, 1.011e-3
-1.925, 1.011e-3
-1.926, 1.011e-3
-1.927, 1.011e-3
-1.928, 1.011e-3
-1.929, 1.011e-3
-1.930, 1.011e-3
-1.931, 1.011e-3
-1.932, 1.011e-3
-1.933, 1.011e-3
-1.934, 1.011e-3
-1.935, 1.011e-3
-1.936, 1.011e-3
-1.937, 1.011e-3
-1.938, 1.011e-3
-1.939, 1.011e-3
-1.940, 1.011e-3
-1.941, 1.011e-3
-1.942, 1.011e-3
-1.943, 1.011e-3
-1.944, 1.011e-3
-1.945, 1.011e-3
-1.946, 1.011e-3
-1.947, 1.011e-3
-1.948, 1.011e-3
-1.949, 1.011e-3
-1.950, 1.011e-3
-1.951, 1.011e-3
-1.952, 1.011e-3
-1.953, 1.011e-3
-1.954, 1.011e-3
-1.955, 1.011e-3
-1.956, 1.011e-3
-1.957, 1.011e-3
-1.958, 1.011e-3
-1.959, 1.011e-3
-1.960, 1.011e-3
-1.961, 1.011e-3
-1.962, 1.011e-3
-1.963, 1.011e-3
-1.964, 1.011e-3
-1.965, 1.011e-3
-1.966, 1.011e-3
-1.967, 1.011e-3
-1.968, 1.011e-3
-1.969, 1.011e-3
-1.970, 1.011e-3
-1.971, 1.011e-3
-1.972, 1.011e-3
-1.973, 1.011e-3
-1.974, 1.011e-3
-1.975, 1.011e-3
-1.976, 1.011e-3
-1.977, 1.011e-3
-1.978, 1.011e-3
-1.979, 1.011e-3
-1.980, 1.011e-3
-1.981, 1.011e-3
-1.982, 1.011e-3
-1.983, 1.011e-3
-1.984, 1.011e-3
-1.985, 1.011e-3
-1.986, 1.011e-3
-1.987, 1.011e-3
-1.988, 1.011e-3
-1.989, 1.011e-3
-1.990, 1.011e-3
-1.991, 1.011e-3
-1.992, 1.011e-3
-1.993, 1.011e-3
-1.994, 1.011e-3
-1.995, 1.011e-3
-1.996, 1.011e-3
-1.997, 1.011e-3
-1.998, 1.011e-3
-1.999, 1.011e-3
-2.000, 1.011e-3
-2.001, 1.011e-3
-2.002, 1.011e-3
-2.003, 1.011e-3
-2.004, 1.011e-3
-2.005, 1.011e-3
-2.006, 1.011e-3
-2.007, 1.011e-3
-2.008, 1.011e-3
-2.009, 1.011e-3
-2.010, 1.011e-3
-2.011, 1.011e-3
-2.012, 1.011e-3
-2.013, 1.011e-3
-2.014, 1.011e-3
-2.015, 1.011e-3
-2.016, 1.011e-3
-2.017, 1.011e-3
-2.018, 1.011e-3
-2.019, 1.011e-3
-2.020, 1.011e-3
-2.021, 1.011e-3
-2.022, 1.011e-3
-2.023, 1.011e-3
-2.024, 1.011e-3
-2.025, 1.011e-3
-2.026, 1.011e-3
-2.027, 1.011e-3
-2.028, 1.011e-3
-2.029, 1.011e-3
-2.030, 1.011e-3
-2.031, 1.011e-3
-2.032, 1.011e-3
-2.033, 1.011e-3
-2.034, 1.011e-3
-2.035, 1.011e-3
-2.036, 1.011e-3
-2.037, 1.011e-3
-2.038, 1.011e-3
-2.039, 1.011e-3
-2.040, 1.011e-3
-2.041, 1.011e-3
-2.042, 1.011e-3
-2.043, 1.011e-3
-2.044, 1.011e-3
-2.045, 1.011e-3
-2.046, 1.011e-3
-2.047, 1.011e-3
-2.048, 1.011e-3
-2.049, 1.011e-3
-2.050, 1.011e-3
-2.051, 1.011e-3
-2.052, 1.011e-3
-2.053, 1.011e-3
-2.054, 1.011e-3
-2.055, 1.011e-3
-2.056, 1.011e-3
-2.057, 1.011e-3
-2.058, 1.011e-3
-2.059, 1.011e-3
-2.060, 1.011e-3
-2.061, 1.011e-3
-2.062, 1.011e-3
-2.063, 1.011e-3
-2.064, 1.011e-3
-2.065, 1.011e-3
-2.066, 1.011e-3
-2.067, 1.011e-3
-2.068, 1.011e-3
-2.069, 1.011e-3
-2.070, 1.011e-3
-2.071, 1.011e-3
-2.072, 1.011e-3
-2.073, 1.011e-3
-2.074, 1.011e-3
-2.075, 1.011e-3
-2.076, 1.011e-3
-2.077, 1.011e-3
-2.078, 1.011e-3
-2.079, 1.011e-3
-2.080, 1.011e-3
-2.081, 1.011e-3
-2.082, 1.011e-3
-2.083, 1.011e-3
-2.084, 1.011e-3
-2.085, 1.011e-3
-2.086, 1.011e-3
-2.087, 1.011e-3
-2.088, 1.011e-3
-2.089, 1.011e-3
-2.090, 1.011e-3
-2.091, 1.011e-3
-2.092, 1.011e-3
-2.093, 1.011e-3
-2.094, 1.011e-3
-2.095, 1.011e-3
-2.096, 1.011e-3
-2.097, 1.011e-3
-2.098, 1.011e-3
-2.099, 1.011e-3
