Potential V vs RHE, Current mA cm-2
0.013299999999999867,-0.10174603668629344
0.012299999999999978,-0.11945822216060371
0.011299999999999866,-0.12688545648489513
0.010299999999999976,-0.13093153080250916
0.009299999999999864,-0.13579813767404486
0.008299999999999974,-0.13927832747171287
0.007299999999999862,-0.14175407224647668
0.006299999999999972,-0.1428858412863687
0.00529999999999986,-0.14444202371622025
0.0042999999999999705,-0.14769585970590982
0.0032999999999998586,-0.1503838111756534
0.0022999999999999687,-0.15151558021554543
0.0012999999999998568,-0.15236440699546444
0.00029999999999996696,-0.1540620605553025
-0.000700000000000145,-0.15646706976507307
-0.0017000000000000348,-0.1588720789748436
-0.0027000000000001467,-0.15972090575476264
-0.0037000000000000366,-0.16014531914472213
-0.0047000000000001485,-0.1615600304445872
-0.005700000000000038,-0.16382356852437122
-0.00670000000000015,-0.1658041643441823
-0.00770000000000004,-0.16721887564404736
-0.008700000000000152,-0.16820917355395287
-0.009700000000000042,-0.1689165292038854
-0.010700000000000154,-0.17160448067362896
-0.011700000000000044,-0.173302134233467
-0.012700000000000156,-0.17400948988339954
-0.013700000000000045,-0.17457537440334553
-0.014700000000000157,-0.17584861457322407
-0.015700000000000047,-0.1769803836131161
-0.01670000000000016,-0.17896097943292713
-0.01770000000000005,-0.18009274847281917
-0.01870000000000016,-0.17995127734283267
-0.01970000000000005,-0.18094157525273818
-0.020700000000000163,-0.18348805559249526
-0.021700000000000053,-0.1851857091523333
-0.022700000000000164,-0.18674189158218485
-0.023700000000000054,-0.18744924723211737
-0.024700000000000166,-0.18773218949209036
-0.025700000000000056,-0.1899957275718744
-0.026700000000000168,-0.1922592656516585
-0.027700000000000058,-0.1933910346915505
-0.02870000000000017,-0.1933910346915505
-0.02970000000000006,-0.19423986147146954
-0.03070000000000017,-0.1966448706812401
-0.03170000000000006,-0.19919135102099716
-0.03270000000000017,-0.19975723554094318
-0.03370000000000006,-0.2010304757108217
-0.034700000000000175,-0.2008890045808352
-0.035700000000000065,-0.2037184271805653
-0.03670000000000018,-0.20541608074040332
-0.03770000000000007,-0.20697226317025488
-0.03870000000000018,-0.2076796188201874
-0.03970000000000007,-0.20966021463999845
-0.04070000000000018,-0.2119237527197825
-0.04170000000000007,-0.21418729079956658
-0.04270000000000018,-0.21489464644949907
-0.04370000000000007,-0.21588494435940458
-0.044700000000000184,-0.21758259791924262
-0.045700000000000074,-0.2198461359990267
-0.046700000000000186,-0.22267555859875673
-0.047700000000000076,-0.22366585650866228
-0.04870000000000019,-0.22380732763864883
-0.04970000000000008,-0.22564645232847336
-0.05070000000000019,-0.22776851927827088
-0.05170000000000008,-0.23031499961802795
-0.05270000000000019,-0.23158823978790652
-0.05370000000000008,-0.232578537697812
-0.05470000000000019,-0.23413472012766354
-0.05570000000000008,-0.2368226715974071
-0.056700000000000195,-0.2392276808071777
-0.057700000000000085,-0.24078386323702924
-0.058700000000000196,-0.24177416114693479
-0.059700000000000086,-0.24347181470677282
-0.0607000000000002,-0.24658417956647588
-0.06170000000000009,-0.24955507329619245
-0.0627000000000002,-0.250545371206098
-0.06370000000000009,-0.251960082505963
-0.0647000000000002,-0.2532333226758416
-0.06570000000000009,-0.2567701009255041
-0.0667000000000002,-0.2588921678753017
-0.0677000000000001,-0.26129717708507233
-0.0687000000000002,-0.2625704172549508
-0.0697000000000001,-0.26426807081478887
-0.07070000000000021,-0.26780484906445146
-0.0717000000000001,-0.27148309844410057
-0.07270000000000021,-0.27303928087395213
-0.0737000000000001,-0.27473693443379016
-0.07470000000000021,-0.2767175302536012
-0.0757000000000001,-0.28025430850326377
-0.07670000000000021,-0.2842155001428859
-0.0777000000000001,-0.28633756709268343
-0.07870000000000021,-0.28775227839254847
-0.0797000000000001,-0.29044022986229207
-0.08070000000000022,-0.29425995037192765
-0.0817000000000001,-0.29807967088156323
-0.08270000000000022,-0.30034320896134725
-0.08370000000000011,-0.30260674704113133
-0.08470000000000022,-0.3055776407708479
-0.08570000000000011,-0.3096803035404565
-0.08670000000000022,-0.3130756106601326
-0.08770000000000011,-0.3156220909998897
-0.08870000000000022,-0.3184515135996197
-0.08970000000000011,-0.3214224073293363
-0.09070000000000022,-0.3259494834889044
-0.09170000000000011,-0.33047655964847256
-0.09270000000000023,-0.33373039563816215
-0.09370000000000012,-0.3362768759779193
-0.09470000000000023,-0.34009659648755486
-0.09570000000000012,-0.34391631699719044
-0.09670000000000023,-0.34787750863681255
-0.09770000000000012,-0.35141428688647514
-0.09870000000000023,-0.3543851806161917
-0.09970000000000012,-0.3583463722558138
-0.10070000000000023,-0.3640052174552739
-0.10170000000000012,-0.36839082248485555
-0.10270000000000024,-0.37263495638445066
-0.10370000000000013,-0.37659614802407276
-0.10470000000000024,-0.3802743974037219
-0.10570000000000013,-0.38508441582326297
-0.10670000000000024,-0.3898944342428041
-0.10770000000000013,-0.3939970970124127
-0.10870000000000024,-0.3978168175220483
-0.10970000000000013,-0.4020609514216434
-0.11070000000000024,-0.4071539121011576
-0.11170000000000013,-0.4130956995605908
-0.11270000000000002,-0.41804718911011834
-0.11370000000000013,-0.423564563179592
-0.11470000000000002,-0.42752575481921407
-0.11570000000000014,-0.4333260711486608
-0.11670000000000003,-0.4399752142580264
-0.11770000000000014,-0.443794934767662
-0.11870000000000003,-0.44931230883713563
-0.11970000000000014,-0.4536979138667173
-0.12070000000000003,-0.4604885281060694
-0.12170000000000014,-0.4672791423454216
-0.12270000000000003,-0.4723721030249357
-0.12370000000000014,-0.4776065348344364
-0.12470000000000003,-0.48340685116388304
-0.12570000000000014,-0.4901974654032352
-0.12670000000000003,-0.49741249303254687
-0.12770000000000015,-0.504203107271899
-0.12870000000000004,-0.5085887123014806
-0.12970000000000015,-0.5152378554108463
-0.13070000000000004,-0.5227358253001311
-0.13170000000000015,-0.5288190838895507
-0.13270000000000004,-0.5357511692588894
-0.13370000000000015,-0.5408441299384036
-0.13470000000000004,-0.5477762153077422
-0.13570000000000015,-0.5561230119769459
-0.13670000000000004,-0.5631965684762711
-0.13770000000000016,-0.5704115961055828
-0.13870000000000005,-0.5770607392149485
-0.13970000000000016,-0.5832854689343547
-0.14070000000000005,-0.5921981501235044
-0.14170000000000016,-0.599696120012789
-0.14270000000000005,-0.6064867342521413
-0.14370000000000016,-0.6137017618814529
-0.14470000000000005,-0.6224729719406161
-0.14570000000000016,-0.6309612397398063
-0.14670000000000005,-0.6401568631889291
-0.14770000000000016,-0.6470889485582677
-0.14870000000000005,-0.6540210339276065
-0.14970000000000017,-0.6623678305968101
-0.15070000000000006,-0.6714219829159465
-0.15170000000000017,-0.6804761352350827
-0.15270000000000006,-0.6878326339943809
-0.15370000000000017,-0.6961794306635846
-0.15470000000000006,-0.7035359294228828
-0.15570000000000017,-0.7138633219118975
-0.15670000000000006,-0.7233418876209933
-0.15770000000000017,-0.7321130976801564
-0.15870000000000006,-0.7394695964394546
-0.15970000000000018,-0.7485237487585908
-0.16070000000000007,-0.7581437855976731
-0.16170000000000018,-0.7681882358267149
-0.16270000000000007,-0.7780912149257702
-0.16370000000000018,-0.7878527228948389
-0.16470000000000007,-0.7983215865138401
-0.16570000000000018,-0.8078001522229359
-0.16670000000000007,-0.8179860735819643
-0.16770000000000018,-0.8267572836411275
-0.16870000000000007,-0.8348211380503582
-0.16970000000000018,-0.8441582326294674
-0.17070000000000007,-0.8557588652883606
-0.17170000000000019,-0.8660862577773755
-0.17270000000000008,-0.8749989389665251
-0.1737000000000002,-0.8832042645057423
-0.17470000000000008,-0.8940975415147032
-0.1757000000000002,-0.905273760783637
-0.17670000000000008,-0.9154596821426652
-0.1777000000000002,-0.9250797189817473
-0.17870000000000008,-0.9349826980808027
-0.1797000000000002,-0.9446027349198849
-0.18070000000000008,-0.9549301274088997
-0.1817000000000002,-0.9679454713676581
-0.18270000000000008,-0.9791216906365918
-0.1837000000000002,-0.9891661408656335
-0.1847000000000001,-0.9997764756146215
-0.1857000000000002,-1.010952694883555
-0.1867000000000001,-1.022128914152489
-0.1877000000000002,-1.0313245376016118
-0.1887000000000001,-1.042076343480586
-0.1897000000000002,-1.0524037359696008
-0.1907000000000001,-1.062872599588602
-0.1917000000000001,-1.075746472417374
-0.19269999999999998,-1.0873471050762673
-0.1937000000000001,-1.100503920165012
-0.19469999999999998,-1.1105483703940537
-0.1957000000000001,-1.124695483392704
-0.19669999999999999,-1.1372864139615029
-0.1977000000000001,-1.1477552775805042
-0.1987,-1.1582241411995053
-0.1997000000000001,-1.1678441780385878
-0.2007,-1.178313041657589
-0.2017000000000001,-1.1910454433563744
-0.2027,-1.2020801914953216
-0.2037000000000001,-1.212549055114323
-0.2047,-1.2272620526329192
-0.2057000000000001,-1.240135925461691
-0.2067,-1.2545659807203144
-0.2077000000000001,-1.2610736526996937
-0.2087,-1.2738060543984788
-0.2097000000000001,-1.2859725715773183
-0.2107,-1.3005440979659282
-0.2117000000000001,-1.3161059222644436
-0.2127,-1.3262918436234719
-0.2137000000000001,-1.3337898135127566
-0.2147,-1.3469466286015015
-0.2157000000000001,-1.3630743374199628
-0.2167,-1.3749579123388291
-0.21770000000000012,-1.385568247087817
-0.2187,-1.3961785818368047
-0.21970000000000012,-1.4099012814454956
-0.2207,-1.421784856364362
-0.22170000000000012,-1.4345172580631471
-0.2227,-1.4486643710617975
-0.22370000000000012,-1.461396772760583
-0.2247,-1.471299751859638
-0.22570000000000012,-1.4826174422585585
-0.2267,-1.4953498439573436
-0.22770000000000012,-1.5094969569559942
-0.22870000000000001,-1.5208146473549145
-0.22970000000000013,-1.5307176264539697
-0.23070000000000002,-1.540620605553025
-0.23170000000000013,-1.55052358465208
-0.23270000000000002,-1.5632559863508655
-0.23370000000000013,-1.5717442541500557
-0.23470000000000002,-1.584476655848841
-0.23570000000000013,-1.5957943462477613
-0.23670000000000002,-1.6071120366466816
-0.2376999999999999,-1.6226738609451972
-0.23870000000000002,-1.6297474174445223
-0.2396999999999999,-1.6424798191433077
-0.24070000000000003,-1.656626932141958
-0.24169999999999991,-1.6693593338407433
-0.24270000000000003,-1.6806770242396636
-0.24369999999999992,-1.690580003338719
-0.24470000000000003,-1.7061418276372344
-0.24569999999999992,-1.7188742293360195
-0.24670000000000003,-1.7316066310348048
-0.24769999999999992,-1.7443390327335901
-0.24870000000000003,-1.7570714344323757
-0.24969999999999992,-1.769803836131161
-0.25070000000000003,-1.781121526530081
-0.2516999999999999,-1.7966833508285964
-0.25270000000000004,-1.8051716186277869
-0.2536999999999999,-1.813659886426977
-0.25470000000000004,-1.8320511333252225
-0.2556999999999999,-1.8433688237241426
-0.25670000000000004,-1.8532718028231983
-0.25769999999999993,-1.8660042045219833
-0.25870000000000004,-1.8702483384215782
-0.25969999999999993,-1.882980740120364
-0.26070000000000004,-1.894298430519284
-0.26169999999999993,-1.9098602548177994
-0.26270000000000004,-1.92400736781645
-0.26369999999999993,-1.9296662130159101
-0.26470000000000005,-1.9367397695152353
-0.26569999999999994,-1.9466427486142908
-0.26670000000000005,-1.959375150313076
-0.26769999999999994,-1.9735222633117262
-0.26870000000000005,-1.9848399537106465
-0.26969999999999994,-1.9975723554094316
-0.27070000000000005,-2.008890045808352
-0.27169999999999994,-2.0216224475071374
-0.27270000000000005,-2.0301107153063276
-0.27369999999999994,-2.045672539604843
-0.27470000000000006,-2.052746096104168
-0.27569999999999995,-2.0683079204026833
-0.27670000000000006,-2.083869744701199
-0.27769999999999995,-2.0966021463999844
-0.27870000000000006,-2.1079198367989047
-0.27969999999999995,-2.116408104598095
-0.28070000000000006,-2.13196992889661
-0.28169999999999995,-2.1461170418952604
-0.28270000000000006,-2.158849443594046
-0.28369999999999995,-2.174411267892561
-0.28470000000000006,-2.1913878034909415
-0.28569999999999995,-2.2097790503891876
-0.28670000000000007,-2.229585008587298
-0.28769999999999996,-2.2465615441856785
-0.28870000000000007,-2.2621233684841937
-0.28969999999999996,-2.2776851927827093
-0.29070000000000007,-2.296076439680954
-0.29169999999999996,-2.318711820478795
-0.29270000000000007,-2.3427619125765005
-0.29369999999999996,-2.362567870774611
-0.2947000000000001,-2.383788540272587
-0.29569999999999996,-2.4064239210704272
-0.2967000000000001,-2.433303435767863
-0.29769999999999996,-2.460182950465299
-0.2987000000000001,-2.4828183312631396
-0.29969999999999997,-2.512527268560305
-0.3007000000000001,-2.542236205857471
-0.30169999999999997,-2.5747745657543666
-0.3027000000000001,-2.6030687917516673
-0.30369999999999997,-2.634192440348698
-0.3047000000000001,-2.666730800245594
-0.30569999999999997,-2.7049280053419507
-0.3067000000000001,-2.740295787838576
-0.3077,-2.775663570335202
-0.3087000000000001,-2.8152754867314234
-0.3097,-2.854887403127644
-0.3107000000000001,-2.8944993195238653
-0.3117,-2.938355369819681
-0.3127000000000001,-2.9850408427152275
-0.3137,-3.0260674704113137
-0.3147000000000001,-3.0713382320069944
-0.3157,-3.125097261401866
-0.3167000000000001,-3.1901739811956578
-0.3177,-3.2312006088917435
-0.3187000000000001,-3.27788608178729
-0.3197,-3.325986265982701
-0.3207000000000001,-3.3769158727778423
-0.3217,-3.426430768273119
-0.3227000000000001,-3.4773603750682605
-0.3237,-3.5297046931632665
-0.3247000000000001,-3.5820490112582726
-0.3257,-3.6358080406531443
-0.3267000000000001,-3.693811203947611
-0.3277,-3.7503996559422124
-0.3287000000000001,-3.8069881079368133
-0.3297,-3.8734795390304706
-0.3307000000000001,-3.935726836224532
-0.3317,-4.002218267318188
-0.3327000000000001,-4.067294987111981
-0.3337,-4.126712861706312
-0.3347000000000001,-4.186130736300643
-0.3357,-4.251207456094435
-0.3367000000000001,-4.321943021087687
-0.3377,-4.389849163481209
-0.3387000000000001,-4.456340594574866
-0.3397,-4.527076159568118
-0.3407000000000001,-4.600641147161099
-0.3417,-4.675620846053946
-0.3427000000000001,-4.753429967546523
-0.3437,-4.826994955139505
-0.3447000000000001,-4.904804076632082
-0.3457,-4.985442620724389
-0.3467000000000001,-5.067495876116562
-0.3477,-5.149549131508733
-0.3487000000000001,-5.228772964301175
-0.3497,-5.315070353592943
-0.3507000000000001,-5.40136774288471
-0.3517,-5.489079843476342
-0.3527000000000001,-5.57537723276811
-0.3537,-5.663089333359742
-0.3547000000000001,-5.752216145251239
-0.3557,-5.845587091042332
-0.35670000000000013,-5.938958036833425
-0.3577,-6.028084848724921
-0.35870000000000013,-6.1186263719162834
-0.3597,-6.211997317707376
-0.36070000000000013,-6.309612397398063
-0.3617,-6.4128863222882115
-0.3626999999999999,-6.514745535878494
-0.3637,-6.6109459042693155
-0.3646999999999999,-6.712805117859599
-0.3657,-6.818908465349477
-0.3666999999999999,-6.927841235439085
-0.3677,-7.035359294228828
-0.3686999999999999,-7.144292064318436
-0.36970000000000003,-7.256054257007774
-0.3706999999999999,-7.36781644969711
-0.37170000000000003,-7.483822776286043
-0.3726999999999999,-7.6012438141748415
-0.37370000000000003,-7.720079563363504
-0.3746999999999999,-7.840330023852035
-0.37570000000000003,-7.960580484340561
-0.3766999999999999,-8.08648979002855
-0.37770000000000004,-8.212399095716538
-0.3786999999999999,-8.34255253530412
-0.37970000000000004,-8.47129126359184
-0.3806999999999999,-8.605688837079018
-0.38170000000000004,-8.745745255765657
-0.38269999999999993,-8.882972251852566
-0.38370000000000004,-9.02161395923934
-0.38469999999999993,-9.164499800525707
-0.38570000000000004,-9.310215064411805
-0.38669999999999993,-9.245138344618015
-0.38570000000000004,-9.007466846240689
-0.38469999999999993,-8.781113038262282
-0.38370000000000004,-8.568906343282526
-0.38269999999999993,-8.365187916101961
-0.38170000000000004,-8.169957756720587
-0.3806999999999999,-7.970483463439617
-0.37970000000000004,-7.776668015358106
-0.3786999999999999,-7.591340835075788
-0.37770000000000004,-7.411672499992927
-0.3766999999999999,-7.237663010109527
-0.37570000000000003,-7.066482942825859
-0.3746999999999999,-6.896717586842053
-0.37370000000000003,-6.735440498657439
-0.3726999999999999,-6.578407544372421
-0.37170000000000003,-6.425618723986997
-0.3706999999999999,-6.2756593262013025
-0.36970000000000003,-6.125699928415609
-0.3686999999999999,-5.98281408712924
-0.3677,-5.847001802342197
-0.3666999999999999,-5.709774806255288
-0.3657,-5.57537723276811
-0.3646999999999999,-5.440979659280932
-0.3637,-5.312240930993213
-0.3626999999999999,-5.190575759204819
-0.3617,-5.071740010016156
-0.36070000000000013,-4.952904260827493
-0.3597,-4.835483222938696
-0.35870000000000013,-4.723721030249357
-0.3577,-4.61478826015975
-0.35670000000000013,-4.508684912669872
-0.3557,-4.402581565179994
-0.3547000000000001,-4.299307640289847
-0.3537,-4.200277849299294
-0.3527000000000001,-4.102662769608606
-0.3517,-4.01070653511738
-0.3507000000000001,-3.9173355893262864
-0.3497,-3.825379354835059
-0.3487000000000001,-3.7390819655432916
-0.3477,-3.6527845762515243
-0.3467000000000001,-3.5707313208593527
-0.3457,-3.4858486428674507
-0.3447000000000001,-3.403795387475278
-0.3437,-3.3245715546828363
-0.3427000000000001,-3.249591855789989
-0.3417,-3.1774415794968722
-0.3407000000000001,-3.1067060145036205
-0.3397,-3.034555738210504
-0.3387000000000001,-2.963820173217252
-0.3377,-2.8987434534234597
-0.3367000000000001,-2.833666733629668
-0.3357,-2.768590013835877
-0.3347000000000001,-2.7035132940420854
-0.3337,-2.641265996848024
-0.3327000000000001,-2.584677544853422
-0.3317,-2.5252596702590906
-0.3307000000000001,-2.467256506964624
-0.3297,-2.4092533436701573
-0.3287000000000001,-2.354079602975421
-0.3277,-2.30314999618028
-0.3267000000000001,-2.2522203893851382
-0.3257,-2.199876071290132
-0.3247000000000001,-2.1475317531951257
-0.3237,-2.0994315689997145
-0.3227000000000001,-2.054160807404033
-0.3217,-2.008890045808352
-0.3207000000000001,-1.963619284212671
-0.3197,-1.9197632339168547
-0.3187000000000001,-1.8744924723211736
-0.3177,-1.8348805559249526
-0.3167000000000001,-1.7966833508285964
-0.3157,-1.7556567231325106
-0.3147000000000001,-1.7146300954364246
-0.3137,-1.6764328903400685
-0.3127000000000001,-1.6396503965435776
-0.3117,-1.6042826140469515
-0.3107000000000001,-1.5675001202504606
-0.3097,-1.5307176264539697
-0.3087000000000001,-1.4967645552572086
-0.3077,-1.4656409066601779
-0.3067000000000001,-1.4345172580631471
-0.30569999999999997,-1.4018374270362648
-0.3047000000000001,-1.369299067139369
-0.30369999999999997,-1.3388827741922709
-0.3027000000000001,-1.3107300193249565
-0.30169999999999997,-1.2825772644576423
-0.3007000000000001,-1.2528683271604766
-0.29969999999999997,-1.2227349764733513
-0.2987000000000001,-1.1954310483859558
-0.29769999999999996,-1.1706736006383178
-0.2967000000000001,-1.1454917395007203
-0.29569999999999996,-1.1194610515832033
-0.2947000000000001,-1.0931474214057137
-0.29369999999999996,-1.0675411468781568
-0.29270000000000007,-1.0456131217302487
-0.29169999999999996,-1.0229777409324081
-0.29070000000000007,-0.9992105910946756
-0.28969999999999996,-0.9755849123869293
-0.28870000000000007,-0.9528080604591023
-0.28769999999999996,-0.9335679867809377
-0.28670000000000007,-0.9133376151928677
-0.28569999999999995,-0.8914095900449596
-0.28470000000000006,-0.8691986226370785
-0.28369999999999995,-0.849675606698941
-0.28270000000000006,-0.8332649556205066
-0.28169999999999995,-0.8152981221122206
-0.28070000000000006,-0.7953506927841236
-0.27969999999999995,-0.7765350324959186
-0.27870000000000006,-0.7572949588177541
-0.27769999999999995,-0.7415916633892523
-0.27670000000000006,-0.7258883679607504
-0.27569999999999995,-0.7069312365425588
-0.27470000000000006,-0.6899547009441784
-0.27369999999999994,-0.672978165345798
-0.27270000000000005,-0.658689581217161
