Apr. 24, 2025   06:18:06
Cyclic Voltammetry
File: c:/users/guazh/data/banditlqround7_x0exp590_r20/2025-04-16-exp1173\exp1173-2025-04-24t06_09_35-h2koh\exp1173_cv_50mvs_efin_-1500mv.bin
Data Source:  Experiment
Instrument Model:  CHI760E
Header: CV ran at 50 mVs
Note: 

Init E (V) = -1
High E (V) = -1
Low E (V) = -1.5
Final E (V) = -1
Init P/N = N
Scan Rate (V/s) = 0.05
Segment = 7
Sample Interval (V) = 0.001
Quiet Time (sec) = 60
Sensitivity (A/V) = 0.001
Comp R (ohm) = 1.5

Results:

Channel 1:
Segment 1:

Segment 2:

Segment 3:

Segment 4:

Segment 5:

Segment 6:

Segment 7:

Potential/V, Current/A

-1.000, 8.390e-6
-1.001, 9.862e-6
-1.002, 1.024e-5
-1.003, 1.036e-5
-1.004, 1.066e-5
-1.005, 1.094e-5
-1.006, 1.120e-5
-1.007, 1.119e-5
-1.008, 1.117e-5
-1.009, 1.130e-5
-1.010, 1.156e-5
-1.011, 1.170e-5
-1.012, 1.170e-5
-1.013, 1.163e-5
-1.014, 1.173e-5
-1.015, 1.196e-5
-1.016, 1.207e-5
-1.017, 1.205e-5
-1.018, 1.205e-5
-1.019, 1.214e-5
-1.020, 1.230e-5
-1.021, 1.241e-5
-1.022, 1.231e-5
-1.023, 1.228e-5
-1.024, 1.232e-5
-1.025, 1.250e-5
-1.026, 1.266e-5
-1.027, 1.254e-5
-1.028, 1.247e-5
-1.029, 1.251e-5
-1.030, 1.268e-5
-1.031, 1.284e-5
-1.032, 1.272e-5
-1.033, 1.268e-5
-1.034, 1.277e-5
-1.035, 1.293e-5
-1.036, 1.310e-5
-1.037, 1.299e-5
-1.038, 1.294e-5
-1.039, 1.305e-5
-1.040, 1.319e-5
-1.041, 1.330e-5
-1.042, 1.323e-5
-1.043, 1.315e-5
-1.044, 1.327e-5
-1.045, 1.344e-5
-1.046, 1.356e-5
-1.047, 1.352e-5
-1.048, 1.340e-5
-1.049, 1.357e-5
-1.050, 1.383e-5
-1.051, 1.399e-5
-1.052, 1.390e-5
-1.053, 1.380e-5
-1.054, 1.387e-5
-1.055, 1.406e-5
-1.056, 1.421e-5
-1.057, 1.409e-5
-1.058, 1.412e-5
-1.059, 1.425e-5
-1.060, 1.452e-5
-1.061, 1.459e-5
-1.062, 1.454e-5
-1.063, 1.453e-5
-1.064, 1.454e-5
-1.065, 1.472e-5
-1.066, 1.487e-5
-1.067, 1.473e-5
-1.068, 1.476e-5
-1.069, 1.484e-5
-1.070, 1.505e-5
-1.071, 1.520e-5
-1.072, 1.513e-5
-1.073, 1.517e-5
-1.074, 1.529e-5
-1.075, 1.552e-5
-1.076, 1.564e-5
-1.077, 1.554e-5
-1.078, 1.548e-5
-1.079, 1.559e-5
-1.080, 1.578e-5
-1.081, 1.594e-5
-1.082, 1.594e-5
-1.083, 1.593e-5
-1.084, 1.609e-5
-1.085, 1.631e-5
-1.086, 1.647e-5
-1.087, 1.656e-5
-1.088, 1.650e-5
-1.089, 1.670e-5
-1.090, 1.691e-5
-1.091, 1.700e-5
-1.092, 1.702e-5
-1.093, 1.703e-5
-1.094, 1.718e-5
-1.095, 1.744e-5
-1.096, 1.753e-5
-1.097, 1.755e-5
-1.098, 1.750e-5
-1.099, 1.763e-5
-1.100, 1.783e-5
-1.101, 1.793e-5
-1.102, 1.794e-5
-1.103, 1.801e-5
-1.104, 1.811e-5
-1.105, 1.843e-5
-1.106, 1.856e-5
-1.107, 1.851e-5
-1.108, 1.855e-5
-1.109, 1.874e-5
-1.110, 1.892e-5
-1.111, 1.914e-5
-1.112, 1.913e-5
-1.113, 1.916e-5
-1.114, 1.936e-5
-1.115, 1.957e-5
-1.116, 1.970e-5
-1.117, 1.966e-5
-1.118, 1.965e-5
-1.119, 1.985e-5
-1.120, 2.008e-5
-1.121, 2.022e-5
-1.122, 2.029e-5
-1.123, 2.031e-5
-1.124, 2.049e-5
-1.125, 2.074e-5
-1.126, 2.087e-5
-1.127, 2.087e-5
-1.128, 2.085e-5
-1.129, 2.099e-5
-1.130, 2.134e-5
-1.131, 2.143e-5
-1.132, 2.145e-5
-1.133, 2.149e-5
-1.134, 2.169e-5
-1.135, 2.198e-5
-1.136, 2.208e-5
-1.137, 2.211e-5
-1.138, 2.217e-5
-1.139, 2.232e-5
-1.140, 2.267e-5
-1.141, 2.280e-5
-1.142, 2.288e-5
-1.143, 2.299e-5
-1.144, 2.317e-5
-1.145, 2.346e-5
-1.146, 2.361e-5
-1.147, 2.363e-5
-1.148, 2.366e-5
-1.149, 2.387e-5
-1.150, 2.419e-5
-1.151, 2.432e-5
-1.152, 2.437e-5
-1.153, 2.445e-5
-1.154, 2.473e-5
-1.155, 2.494e-5
-1.156, 2.512e-5
-1.157, 2.518e-5
-1.158, 2.524e-5
-1.159, 2.550e-5
-1.160, 2.580e-5
-1.161, 2.596e-5
-1.162, 2.603e-5
-1.163, 2.604e-5
-1.164, 2.628e-5
-1.165, 2.656e-5
-1.166, 2.678e-5
-1.167, 2.685e-5
-1.168, 2.692e-5
-1.169, 2.706e-5
-1.170, 2.743e-5
-1.171, 2.756e-5
-1.172, 2.763e-5
-1.173, 2.769e-5
-1.174, 2.789e-5
-1.175, 2.828e-5
-1.176, 2.842e-5
-1.177, 2.850e-5
-1.178, 2.862e-5
-1.179, 2.888e-5
-1.180, 2.919e-5
-1.181, 2.938e-5
-1.182, 2.941e-5
-1.183, 2.950e-5
-1.184, 2.967e-5
-1.185, 2.996e-5
-1.186, 3.013e-5
-1.187, 3.012e-5
-1.188, 3.028e-5
-1.189, 3.053e-5
-1.190, 3.083e-5
-1.191, 3.108e-5
-1.192, 3.106e-5
-1.193, 3.116e-5
-1.194, 3.145e-5
-1.195, 3.168e-5
-1.196, 3.184e-5
-1.197, 3.193e-5
-1.198, 3.198e-5
-1.199, 3.221e-5
-1.200, 3.250e-5
-1.201, 3.266e-5
-1.202, 3.273e-5
-1.203, 3.281e-5
-1.204, 3.303e-5
-1.205, 3.332e-5
-1.206, 3.343e-5
-1.207, 3.352e-5
-1.208, 3.355e-5
-1.209, 3.381e-5
-1.210, 3.410e-5
-1.211, 3.428e-5
-1.212, 3.436e-5
-1.213, 3.443e-5
-1.214, 3.467e-5
-1.215, 3.501e-5
-1.216, 3.511e-5
-1.217, 3.513e-5
-1.218, 3.530e-5
-1.219, 3.549e-5
-1.220, 3.583e-5
-1.221, 3.601e-5
-1.222, 3.613e-5
-1.223, 3.631e-5
-1.224, 3.665e-5
-1.225, 3.702e-5
-1.226, 3.726e-5
-1.227, 3.727e-5
-1.228, 3.744e-5
-1.229, 3.779e-5
-1.230, 3.798e-5
-1.231, 3.819e-5
-1.232, 3.819e-5
-1.233, 3.838e-5
-1.234, 3.872e-5
-1.235, 3.907e-5
-1.236, 3.929e-5
-1.237, 3.938e-5
-1.238, 3.949e-5
-1.239, 3.988e-5
-1.240, 4.017e-5
-1.241, 4.042e-5
-1.242, 4.057e-5
-1.243, 4.074e-5
-1.244, 4.110e-5
-1.245, 4.149e-5
-1.246, 4.173e-5
-1.247, 4.181e-5
-1.248, 4.199e-5
-1.249, 4.240e-5
-1.250, 4.281e-5
-1.251, 4.298e-5
-1.252, 4.317e-5
-1.253, 4.343e-5
-1.254, 4.390e-5
-1.255, 4.438e-5
-1.256, 4.464e-5
-1.257, 4.477e-5
-1.258, 4.502e-5
-1.259, 4.548e-5
-1.260, 4.597e-5
-1.261, 4.622e-5
-1.262, 4.649e-5
-1.263, 4.685e-5
-1.264, 4.737e-5
-1.265, 4.794e-5
-1.266, 4.832e-5
-1.267, 4.849e-5
-1.268, 4.888e-5
-1.269, 4.941e-5
-1.270, 4.989e-5
-1.271, 5.034e-5
-1.272, 5.054e-5
-1.273, 5.102e-5
-1.274, 5.164e-5
-1.275, 5.218e-5
-1.276, 5.267e-5
-1.277, 5.301e-5
-1.278, 5.342e-5
-1.279, 5.408e-5
-1.280, 5.469e-5
-1.281, 5.518e-5
-1.282, 5.559e-5
-1.283, 5.605e-5
-1.284, 5.674e-5
-1.285, 5.744e-5
-1.286, 5.797e-5
-1.287, 5.845e-5
-1.288, 5.891e-5
-1.289, 5.968e-5
-1.290, 6.044e-5
-1.291, 6.097e-5
-1.292, 6.154e-5
-1.293, 6.221e-5
-1.294, 6.304e-5
-1.295, 6.393e-5
-1.296, 6.450e-5
-1.297, 6.514e-5
-1.298, 6.582e-5
-1.299, 6.668e-5
-1.300, 6.775e-5
-1.301, 6.851e-5
-1.302, 6.922e-5
-1.303, 7.009e-5
-1.304, 7.102e-5
-1.305, 7.189e-5
-1.306, 7.272e-5
-1.307, 7.334e-5
-1.308, 7.427e-5
-1.309, 7.527e-5
-1.310, 7.638e-5
-1.311, 7.740e-5
-1.312, 7.825e-5
-1.313, 7.923e-5
-1.314, 8.040e-5
-1.315, 8.147e-5
-1.316, 8.253e-5
-1.317, 8.345e-5
-1.318, 8.451e-5
-1.319, 8.580e-5
-1.320, 8.702e-5
-1.321, 8.817e-5
-1.322, 8.925e-5
-1.323, 9.040e-5
-1.324, 9.183e-5
-1.325, 9.322e-5
-1.326, 9.442e-5
-1.327, 9.562e-5
-1.328, 9.676e-5
-1.329, 9.832e-5
-1.330, 9.983e-5
-1.331, 1.012e-4
-1.332, 1.024e-4
-1.333, 1.038e-4
-1.334, 1.055e-4
-1.335, 1.072e-4
-1.336, 1.085e-4
-1.337, 1.099e-4
-1.338, 1.115e-4
-1.339, 1.133e-4
-1.340, 1.151e-4
-1.341, 1.168e-4
-1.342, 1.183e-4
-1.343, 1.201e-4
-1.344, 1.219e-4
-1.345, 1.238e-4
-1.346, 1.257e-4
-1.347, 1.274e-4
-1.348, 1.294e-4
-1.349, 1.315e-4
-1.350, 1.337e-4
-1.351, 1.357e-4
-1.352, 1.376e-4
-1.353, 1.396e-4
-1.354, 1.420e-4
-1.355, 1.444e-4
-1.356, 1.466e-4
-1.357, 1.490e-4
-1.358, 1.511e-4
-1.359, 1.537e-4
-1.360, 1.562e-4
-1.361, 1.586e-4
-1.362, 1.610e-4
-1.363, 1.636e-4
-1.364, 1.663e-4
-1.365, 1.691e-4
-1.366, 1.717e-4
-1.367, 1.743e-4
-1.368, 1.770e-4
-1.369, 1.799e-4
-1.370, 1.828e-4
-1.371, 1.857e-4
-1.372, 1.884e-4
-1.373, 1.913e-4
-1.374, 1.944e-4
-1.375, 1.976e-4
-1.376, 2.006e-4
-1.377, 2.037e-4
-1.378, 2.069e-4
-1.379, 2.102e-4
-1.380, 2.136e-4
-1.381, 2.168e-4
-1.382, 2.200e-4
-1.383, 2.235e-4
-1.384, 2.273e-4
-1.385, 2.308e-4
-1.386, 2.344e-4
-1.387, 2.378e-4
-1.388, 2.415e-4
-1.389, 2.452e-4
-1.390, 2.492e-4
-1.391, 2.532e-4
-1.392, 2.568e-4
-1.393, 2.608e-4
-1.394, 2.649e-4
-1.395, 2.691e-4
-1.396, 2.733e-4
-1.397, 2.772e-4
-1.398, 2.814e-4
-1.399, 2.858e-4
-1.400, 2.906e-4
-1.401, 2.953e-4
-1.402, 3.002e-4
-1.403, 3.042e-4
-1.404, 3.090e-4
-1.405, 3.137e-4
-1.406, 3.184e-4
-1.407, 3.231e-4
-1.408, 3.278e-4
-1.409, 3.328e-4
-1.410, 3.378e-4
-1.411, 3.429e-4
-1.412, 3.480e-4
-1.413, 3.531e-4
-1.414, 3.586e-4
-1.415, 3.641e-4
-1.416, 3.694e-4
-1.417, 3.748e-4
-1.418, 3.802e-4
-1.419, 3.860e-4
-1.420, 3.919e-4
-1.421, 3.975e-4
-1.422, 4.031e-4
-1.423, 4.092e-4
-1.424, 4.154e-4
-1.425, 4.217e-4
-1.426, 4.278e-4
-1.427, 4.335e-4
-1.428, 4.399e-4
-1.429, 4.464e-4
-1.430, 4.530e-4
-1.431, 4.603e-4
-1.432, 4.657e-4
-1.433, 4.718e-4
-1.434, 4.785e-4
-1.435, 4.868e-4
-1.436, 4.942e-4
-1.437, 5.011e-4
-1.438, 5.081e-4
-1.439, 5.157e-4
-1.440, 5.231e-4
-1.441, 5.304e-4
-1.442, 5.379e-4
-1.443, 5.457e-4
-1.444, 5.535e-4
-1.445, 5.615e-4
-1.446, 5.696e-4
-1.447, 5.775e-4
-1.448, 5.855e-4
-1.449, 5.941e-4
-1.450, 6.025e-4
-1.451, 6.110e-4
-1.452, 6.195e-4
-1.453, 6.281e-4
-1.454, 6.374e-4
-1.455, 6.471e-4
-1.456, 6.560e-4
-1.457, 6.650e-4
-1.458, 6.745e-4
-1.459, 6.840e-4
-1.460, 6.936e-4
-1.461, 7.031e-4
-1.462, 7.129e-4
-1.463, 7.225e-4
-1.464, 7.328e-4
-1.465, 7.433e-4
-1.466, 7.537e-4
-1.467, 7.639e-4
-1.468, 7.748e-4
-1.469, 7.859e-4
-1.470, 7.971e-4
-1.471, 8.079e-4
-1.472, 8.195e-4
-1.473, 8.307e-4
-1.474, 8.422e-4
-1.475, 8.540e-4
-1.476, 8.658e-4
-1.477, 8.780e-4
-1.478, 8.906e-4
-1.479, 9.031e-4
-1.480, 9.151e-4
-1.481, 9.276e-4
-1.482, 9.397e-4
-1.483, 9.528e-4
-1.484, 9.662e-4
-1.485, 9.798e-4
-1.486, 9.937e-4
-1.487, 1.007e-3
-1.488, 1.020e-3
-1.489, 1.034e-3
-1.490, 1.049e-3
-1.491, 1.064e-3
-1.492, 1.078e-3
-1.493, 1.093e-3
-1.494, 1.108e-3
-1.495, 1.122e-3
-1.496, 1.138e-3
-1.497, 1.154e-3
-1.498, 1.169e-3
-1.499, 1.185e-3
-1.500, 1.183e-3
-1.499, 1.165e-3
-1.498, 1.147e-3
-1.497, 1.130e-3
-1.496, 1.113e-3
-1.495, 1.096e-3
-1.494, 1.079e-3
-1.493, 1.063e-3
-1.492, 1.046e-3
-1.491, 1.030e-3
-1.490, 1.014e-3
-1.489, 9.992e-4
-1.488, 9.839e-4
-1.487, 9.680e-4
-1.486, 9.532e-4
-1.485, 9.392e-4
-1.484, 9.247e-4
-1.483, 9.086e-4
-1.482, 8.836e-4
-1.481, 8.713e-4
-1.480, 8.515e-4
-1.479, 8.398e-4
-1.478, 8.277e-4
-1.477, 8.153e-4
-1.476, 8.029e-4
-1.475, 7.916e-4
-1.474, 7.794e-4
-1.473, 7.671e-4
-1.472, 7.552e-4
-1.471, 7.438e-4
-1.470, 7.324e-4
-1.469, 7.208e-4
-1.468, 7.094e-4
-1.467, 6.985e-4
-1.466, 6.882e-4
-1.465, 6.778e-4
-1.464, 6.675e-4
-1.463, 6.570e-4
-1.462, 6.468e-4
-1.461, 6.368e-4
-1.460, 6.267e-4
-1.459, 6.168e-4
-1.458, 6.074e-4
-1.457, 5.981e-4
-1.456, 5.889e-4
-1.455, 5.798e-4
-1.454, 5.706e-4
-1.453, 5.614e-4
-1.452, 5.525e-4
-1.451, 5.441e-4
-1.450, 5.360e-4
-1.449, 5.274e-4
-1.448, 5.189e-4
-1.447, 5.106e-4
-1.446, 5.027e-4
-1.445, 4.949e-4
-1.444, 4.868e-4
-1.443, 4.789e-4
-1.442, 4.713e-4
-1.441, 4.638e-4
-1.440, 4.566e-4
-1.439, 4.491e-4
-1.438, 4.417e-4
-1.437, 4.347e-4
-1.436, 4.278e-4
-1.435, 4.212e-4
-1.434, 4.143e-4
-1.433, 4.072e-4
-1.432, 4.007e-4
-1.431, 3.943e-4
-1.430, 3.880e-4
-1.429, 3.817e-4
-1.428, 3.753e-4
-1.427, 3.691e-4
-1.426, 3.632e-4
-1.425, 3.572e-4
-1.424, 3.513e-4
-1.423, 3.454e-4
-1.422, 3.397e-4
-1.421, 3.343e-4
-1.420, 3.288e-4
-1.419, 3.233e-4
-1.418, 3.179e-4
-1.417, 3.122e-4
-1.416, 3.073e-4
-1.415, 3.024e-4
-1.414, 2.971e-4
-1.413, 2.922e-4
-1.412, 2.872e-4
-1.411, 2.825e-4
-1.410, 2.779e-4
-1.409, 2.731e-4
-1.408, 2.685e-4
-1.407, 2.640e-4
-1.406, 2.597e-4
-1.405, 2.555e-4
-1.404, 2.509e-4
-1.403, 2.466e-4
-1.402, 2.425e-4
-1.401, 2.385e-4
-1.400, 2.345e-4
-1.399, 2.303e-4
-1.398, 2.261e-4
-1.397, 2.223e-4
-1.396, 2.185e-4
-1.395, 2.148e-4
-1.394, 2.110e-4
-1.393, 2.073e-4
-1.392, 2.037e-4
-1.391, 2.003e-4
-1.390, 1.969e-4
-1.389, 1.933e-4
-1.388, 1.898e-4
-1.387, 1.865e-4
-1.386, 1.834e-4
-1.385, 1.801e-4
-1.384, 1.769e-4
-1.383, 1.737e-4
-1.382, 1.706e-4
-1.381, 1.677e-4
-1.380, 1.648e-4
-1.379, 1.617e-4
-1.378, 1.587e-4
-1.377, 1.559e-4
-1.376, 1.532e-4
-1.375, 1.505e-4
-1.374, 1.476e-4
-1.373, 1.448e-4
-1.372, 1.423e-4
-1.371, 1.398e-4
-1.370, 1.373e-4
-1.369, 1.346e-4
-1.368, 1.321e-4
-1.367, 1.297e-4
-1.366, 1.275e-4
-1.365, 1.252e-4
-1.364, 1.228e-4
-1.363, 1.204e-4
-1.362, 1.183e-4
-1.361, 1.163e-4
-1.360, 1.142e-4
-1.359, 1.120e-4
-1.358, 1.098e-4
-1.357, 1.078e-4
-1.356, 1.059e-4
-1.355, 1.040e-4
-1.354, 1.020e-4
-1.353, 9.993e-5
-1.352, 9.809e-5
-1.351, 9.638e-5
-1.350, 9.453e-5
-1.349, 9.262e-5
-1.348, 9.069e-5
-1.347, 8.899e-5
-1.346, 8.751e-5
-1.345, 8.581e-5
-1.344, 8.414e-5
-1.343, 8.233e-5
-1.342, 8.083e-5
-1.341, 7.957e-5
-1.340, 7.812e-5
-1.339, 7.657e-5
-1.338, 7.490e-5
-1.337, 7.338e-5
-1.336, 7.201e-5
-1.335, 7.053e-5
-1.334, 6.897e-5
-1.333, 6.748e-5
-1.332, 6.622e-5
-1.331, 6.499e-5
-1.330, 6.371e-5
-1.329, 6.234e-5
-1.328, 6.104e-5
-1.327, 5.987e-5
-1.326, 5.879e-5
-1.325, 5.760e-5
-1.324, 5.632e-5
-1.323, 5.509e-5
-1.322, 5.402e-5
-1.321, 5.313e-5
-1.320, 5.209e-5
-1.319, 5.091e-5
-1.318, 4.972e-5
-1.317, 4.881e-5
-1.316, 4.795e-5
-1.315, 4.696e-5
-1.314, 4.593e-5
-1.313, 4.495e-5
-1.312, 4.412e-5
-1.311, 4.335e-5
-1.310, 4.241e-5
-1.309, 4.150e-5
-1.308, 4.053e-5
-1.307, 3.974e-5
-1.306, 3.909e-5
-1.305, 3.830e-5
-1.304, 3.745e-5
-1.303, 3.655e-5
-1.302, 3.585e-5
-1.301, 3.538e-5
-1.300, 3.464e-5
-1.299, 3.380e-5
-1.298, 3.303e-5
-1.297, 3.252e-5
-1.296, 3.180e-5
-1.295, 3.116e-5
-1.294, 3.033e-5
-1.293, 2.969e-5
-1.292, 2.916e-5
-1.291, 2.869e-5
-1.290, 2.815e-5
-1.289, 2.742e-5
-1.288, 2.682e-5
-1.287, 2.628e-5
-1.286, 2.589e-5
-1.285, 2.535e-5
-1.284, 2.476e-5
-1.283, 2.421e-5
-1.282, 2.393e-5
-1.281, 2.364e-5
-1.280, 2.320e-5
-1.279, 2.267e-5
-1.278, 2.208e-5
-1.277, 2.171e-5
-1.276, 2.135e-5
-1.275, 2.090e-5
-1.274, 2.038e-5
-1.273, 1.975e-5
-1.272, 1.945e-5
-1.271, 1.915e-5
-1.270, 1.872e-5
-1.269, 1.825e-5
-1.268, 1.777e-5
-1.267, 1.746e-5
-1.266, 1.731e-5
-1.265, 1.695e-5
-1.264, 1.651e-5
-1.263, 1.606e-5
-1.262, 1.572e-5
-1.261, 1.565e-5
-1.260, 1.533e-5
-1.259, 1.491e-5
-1.258, 1.456e-5
-1.257, 1.429e-5
-1.256, 1.418e-5
-1.255, 1.393e-5
-1.254, 1.353e-5
-1.253, 1.318e-5
-1.252, 1.289e-5
-1.251, 1.275e-5
-1.250, 1.253e-5
-1.249, 1.215e-5
-1.248, 1.188e-5
-1.247, 1.168e-5
-1.246, 1.163e-5
-1.245, 1.145e-5
-1.244, 1.116e-5
-1.243, 1.091e-5
-1.242, 1.076e-5
-1.241, 1.066e-5
-1.240, 1.042e-5
-1.239, 1.006e-5
-1.238, 9.700e-6
-1.237, 9.692e-6
-1.236, 9.632e-6
-1.235, 9.439e-6
-1.234, 9.190e-6
-1.233, 8.852e-6
-1.232, 8.761e-6
-1.231, 8.753e-6
-1.230, 8.516e-6
-1.229, 8.241e-6
-1.228, 8.013e-6
-1.227, 7.907e-6
-1.226, 7.905e-6
-1.225, 7.740e-6
-1.224, 7.592e-6
-1.223, 7.316e-6
-1.222, 7.166e-6
-1.221, 7.272e-6
-1.220, 7.096e-6
-1.219, 6.733e-6
-1.218, 6.575e-6
-1.217, 6.575e-6
-1.216, 6.645e-6
-1.215, 6.461e-6
-1.214, 6.230e-6
-1.213, 6.087e-6
-1.212, 5.903e-6
-1.211, 5.944e-6
-1.210, 5.889e-6
-1.209, 5.744e-6
-1.208, 5.472e-6
-1.207, 5.318e-6
-1.206, 5.374e-6
-1.205, 5.307e-6
-1.204, 5.045e-6
-1.203, 4.811e-6
-1.202, 4.860e-6
-1.201, 4.912e-6
-1.200, 4.868e-6
-1.199, 4.640e-6
-1.198, 4.475e-6
-1.197, 4.483e-6
-1.196, 4.498e-6
-1.195, 4.399e-6
-1.194, 4.210e-6
-1.193, 4.007e-6
-1.192, 4.136e-6
-1.191, 4.212e-6
-1.190, 4.150e-6
-1.189, 3.984e-6
-1.188, 3.848e-6
-1.187, 3.836e-6
-1.186, 3.972e-6
-1.185, 3.788e-6
-1.184, 3.618e-6
-1.183, 3.456e-6
-1.182, 3.421e-6
-1.181, 3.587e-6
-1.180, 3.515e-6
-1.179, 3.365e-6
-1.178, 3.213e-6
-1.177, 3.162e-6
-1.176, 3.265e-6
-1.175, 3.250e-6
-1.174, 3.002e-6
-1.173, 2.931e-6
-1.172, 2.993e-6
-1.171, 3.045e-6
-1.170, 3.135e-6
-1.169, 2.977e-6
-1.168, 2.893e-6
-1.167, 2.966e-6
-1.166, 2.936e-6
-1.165, 2.919e-6
-1.164, 2.582e-6
-1.163, 2.354e-6
-1.162, 2.418e-6
-1.161, 2.549e-6
-1.160, 2.504e-6
-1.159, 2.207e-6
-1.158, 2.056e-6
-1.157, 2.193e-6
-1.156, 2.264e-6
-1.155, 2.135e-6
-1.154, 1.886e-6
-1.153, 1.715e-6
-1.152, 1.811e-6
-1.151, 1.898e-6
-1.150, 1.832e-6
-1.149, 1.584e-6
-1.148, 1.416e-6
-1.147, 1.437e-6
-1.146, 1.559e-6
-1.145, 1.462e-6
-1.144, 1.214e-6
-1.143, 1.080e-6
-1.142, 1.128e-6
-1.141, 1.256e-6
-1.140, 1.181e-6
-1.139, 9.558e-7
-1.138, 7.703e-7
-1.137, 7.891e-7
-1.136, 9.440e-7
-1.135, 7.980e-7
-1.134, 5.661e-7
-1.133, 3.658e-7
-1.132, 4.546e-7
-1.131, 5.296e-7
-1.130, 4.951e-7
-1.129, 1.873e-7
-1.128, 7.577e-8
-1.127, 1.212e-7
-1.126, 1.705e-7
-1.125, 1.981e-7
-1.124, -6.630e-8
-1.123, -2.774e-7
-1.122, -1.186e-7
-1.121, -7.617e-8
-1.120, -1.433e-7
-1.119, -4.017e-7
-1.118, -5.961e-7
-1.117, -5.053e-7
-1.116, -4.225e-7
-1.115, -5.616e-7
-1.114, -7.717e-7
-1.113, -8.723e-7
-1.112, -8.161e-7
-1.111, -7.609e-7
-1.110, -8.694e-7
-1.109, -1.063e-6
-1.108, -1.238e-6
-1.107, -1.254e-6
-1.106, -1.171e-6
-1.105, -1.293e-6
-1.104, -1.488e-6
-1.103, -1.606e-6
-1.102, -1.586e-6
-1.101, -1.470e-6
-1.100, -1.565e-6
-1.099, -1.828e-6
-1.098, -1.936e-6
-1.097, -1.884e-6
-1.096, -1.855e-6
-1.095, -1.962e-6
-1.094, -2.173e-6
-1.093, -2.246e-6
-1.092, -2.136e-6
-1.091, -2.120e-6
-1.090, -2.169e-6
-1.089, -2.472e-6
-1.088, -2.632e-6
-1.087, -2.612e-6
-1.086, -2.583e-6
-1.085, -2.642e-6
-1.084, -2.854e-6
-1.083, -2.987e-6
-1.082, -2.863e-6
-1.081, -2.875e-6
-1.080, -2.912e-6
-1.079, -3.181e-6
-1.078, -3.349e-6
-1.077, -3.266e-6
-1.076, -3.320e-6
-1.075, -3.437e-6
-1.074, -3.621e-6
-1.073, -3.774e-6
-1.072, -3.651e-6
-1.071, -3.604e-6
-1.070, -3.734e-6
-1.069, -3.916e-6
-1.068, -4.090e-6
-1.067, -4.084e-6
-1.066, -4.015e-6
-1.065, -4.164e-6
-1.064, -4.327e-6
-1.063, -4.489e-6
-1.062, -4.464e-6
-1.061, -4.354e-6
-1.060, -4.419e-6
-1.059, -4.699e-6
-1.058, -4.807e-6
-1.057, -4.788e-6
-1.056, -4.709e-6
-1.055, -4.816e-6
-1.054, -5.056e-6
-1.053, -5.139e-6
-1.052, -5.140e-6
-1.051, -5.076e-6
-1.050, -5.145e-6
-1.049, -5.425e-6
-1.048, -5.541e-6
-1.047, -5.521e-6
-1.046, -5.511e-6
-1.045, -5.565e-6
-1.044, -5.827e-6
-1.043, -6.029e-6
-1.042, -5.934e-6
-1.041, -5.943e-6
-1.040, -6.007e-6
-1.039, -6.182e-6
-1.038, -6.395e-6
-1.037, -6.238e-6
-1.036, -6.149e-6
-1.035, -6.247e-6
-1.034, -6.460e-6
-1.033, -6.673e-6
-1.032, -6.569e-6
-1.031, -6.546e-6
-1.030, -6.700e-6
-1.029, -6.852e-6
-1.028, -7.034e-6
-1.027, -6.943e-6
-1.026, -6.895e-6
-1.025, -7.064e-6
-1.024, -7.250e-6
-1.023, -7.367e-6
-1.022, -7.377e-6
-1.021, -7.224e-6
-1.020, -7.317e-6
-1.019, -7.533e-6
-1.018, -7.561e-6
-1.017, -7.535e-6
-1.016, -7.412e-6
-1.015, -7.505e-6
-1.014, -7.833e-6
-1.013, -7.905e-6
-1.012, -7.914e-6
-1.011, -7.890e-6
-1.010, -7.974e-6
-1.009, -8.191e-6
-1.008, -8.273e-6
-1.007, -8.181e-6
-1.006, -8.195e-6
-1.005, -8.276e-6
-1.004, -8.520e-6
-1.003, -8.696e-6
-1.002, -8.614e-6
-1.001, -8.605e-6
-1.000, -1.864e-6
-1.001, 1.540e-6
-1.002, 2.923e-6
-1.003, 3.981e-6
-1.004, 4.937e-6
-1.005, 5.530e-6
-1.006, 5.888e-6
-1.007, 6.357e-6
-1.008, 6.875e-6
-1.009, 7.397e-6
-1.010, 7.740e-6
-1.011, 7.893e-6
-1.012, 8.193e-6
-1.013, 8.632e-6
-1.014, 8.964e-6
-1.015, 9.201e-6
-1.016, 9.278e-6
-1.017, 9.454e-6
-1.018, 9.837e-6
-1.019, 1.007e-5
-1.020, 1.024e-5
-1.021, 1.031e-5
-1.022, 1.040e-5
-1.023, 1.076e-5
-1.024, 1.100e-5
-1.025, 1.109e-5
-1.026, 1.108e-5
-1.027, 1.114e-5
-1.028, 1.142e-5
-1.029, 1.169e-5
-1.030, 1.175e-5
-1.031, 1.172e-5
-1.032, 1.179e-5
-1.033, 1.209e-5
-1.034, 1.233e-5
-1.035, 1.231e-5
-1.036, 1.225e-5
-1.037, 1.230e-5
-1.038, 1.253e-5
-1.039, 1.272e-5
-1.040, 1.275e-5
-1.041, 1.274e-5
-1.042, 1.287e-5
-1.043, 1.308e-5
-1.044, 1.331e-5
-1.045, 1.330e-5
-1.046, 1.322e-5
-1.047, 1.329e-5
-1.048, 1.342e-5
-1.049, 1.354e-5
-1.050, 1.363e-5
-1.051, 1.350e-5
-1.052, 1.368e-5
-1.053, 1.389e-5
-1.054, 1.397e-5
-1.055, 1.397e-5
-1.056, 1.383e-5
-1.057, 1.389e-5
-1.058, 1.412e-5
-1.059, 1.445e-5
-1.060, 1.441e-5
-1.061, 1.424e-5
-1.062, 1.426e-5
-1.063, 1.443e-5
-1.064, 1.447e-5
-1.065, 1.445e-5
-1.066, 1.442e-5
-1.067, 1.443e-5
-1.068, 1.459e-5
-1.069, 1.473e-5
-1.070, 1.473e-5
-1.071, 1.463e-5
-1.072, 1.458e-5
-1.073, 1.470e-5
-1.074, 1.488e-5
-1.075, 1.490e-5
-1.076, 1.480e-5
-1.077, 1.482e-5
-1.078, 1.502e-5
-1.079, 1.520e-5
-1.080, 1.513e-5
-1.081, 1.498e-5
-1.082, 1.504e-5
-1.083, 1.513e-5
-1.084, 1.529e-5
-1.085, 1.524e-5
-1.086, 1.515e-5
-1.087, 1.522e-5
-1.088, 1.532e-5
-1.089, 1.556e-5
-1.090, 1.556e-5
-1.091, 1.534e-5
-1.092, 1.538e-5
-1.093, 1.549e-5
-1.094, 1.561e-5
-1.095, 1.581e-5
-1.096, 1.556e-5
-1.097, 1.559e-5
-1.098, 1.584e-5
-1.099, 1.595e-5
-1.100, 1.592e-5
-1.101, 1.584e-5
-1.102, 1.589e-5
-1.103, 1.607e-5
-1.104, 1.619e-5
-1.105, 1.611e-5
-1.106, 1.605e-5
-1.107, 1.602e-5
-1.108, 1.618e-5
-1.109, 1.633e-5
-1.110, 1.629e-5
-1.111, 1.617e-5
-1.112, 1.625e-5
-1.113, 1.639e-5
-1.114, 1.655e-5
-1.115, 1.643e-5
-1.116, 1.629e-5
-1.117, 1.625e-5
-1.118, 1.634e-5
-1.119, 1.650e-5
-1.120, 1.646e-5
-1.121, 1.640e-5
-1.122, 1.643e-5
-1.123, 1.648e-5
-1.124, 1.665e-5
-1.125, 1.657e-5
-1.126, 1.637e-5
-1.127, 1.645e-5
-1.128, 1.656e-5
-1.129, 1.670e-5
-1.130, 1.674e-5
-1.131, 1.656e-5
-1.132, 1.659e-5
-1.133, 1.670e-5
-1.134, 1.691e-5
-1.135, 1.691e-5
-1.136, 1.683e-5
-1.137, 1.683e-5
-1.138, 1.711e-5
-1.139, 1.720e-5
-1.140, 1.714e-5
-1.141, 1.698e-5
-1.142, 1.706e-5
-1.143, 1.721e-5
-1.144, 1.730e-5
-1.145, 1.725e-5
-1.146, 1.718e-5
-1.147, 1.719e-5
-1.148, 1.728e-5
-1.149, 1.745e-5
-1.150, 1.746e-5
-1.151, 1.737e-5
-1.152, 1.742e-5
-1.153, 1.762e-5
-1.154, 1.777e-5
-1.155, 1.764e-5
-1.156, 1.750e-5
-1.157, 1.751e-5
-1.158, 1.764e-5
-1.159, 1.779e-5
-1.160, 1.772e-5
-1.161, 1.766e-5
-1.162, 1.778e-5
-1.163, 1.790e-5
-1.164, 1.816e-5
-1.165, 1.814e-5
-1.166, 1.804e-5
-1.167, 1.810e-5
-1.168, 1.819e-5
-1.169, 1.832e-5
-1.170, 1.827e-5
-1.171, 1.810e-5
-1.172, 1.827e-5
-1.173, 1.842e-5
-1.174, 1.854e-5
-1.175, 1.849e-5
-1.176, 1.837e-5
-1.177, 1.856e-5
-1.178, 1.863e-5
-1.179, 1.874e-5
-1.180, 1.878e-5
-1.181, 1.865e-5
-1.182, 1.868e-5
-1.183, 1.884e-5
-1.184, 1.905e-5
-1.185, 1.904e-5
-1.186, 1.889e-5
-1.187, 1.900e-5
-1.188, 1.918e-5
-1.189, 1.935e-5
-1.190, 1.931e-5
-1.191, 1.932e-5
-1.192, 1.937e-5
-1.193, 1.951e-5
-1.194, 1.970e-5
-1.195, 1.968e-5
-1.196, 1.960e-5
-1.197, 1.970e-5
-1.198, 1.978e-5
-1.199, 1.997e-5
-1.200, 1.994e-5
-1.201, 1.992e-5
-1.202, 2.006e-5
-1.203, 2.019e-5
-1.204, 2.045e-5
-1.205, 2.039e-5
-1.206, 2.028e-5
-1.207, 2.030e-5
-1.208, 2.064e-5
-1.209, 2.081e-5
-1.210, 2.088e-5
-1.211, 2.079e-5
-1.212, 2.100e-5
-1.213, 2.121e-5
-1.214, 2.153e-5
-1.215, 2.151e-5
-1.216, 2.132e-5
-1.217, 2.141e-5
-1.218, 2.161e-5
-1.219, 2.180e-5
-1.220, 2.181e-5
-1.221, 2.174e-5
-1.222, 2.185e-5
-1.223, 2.218e-5
-1.224, 2.239e-5
-1.225, 2.241e-5
-1.226, 2.241e-5
-1.227, 2.248e-5
-1.228, 2.285e-5
-1.229, 2.310e-5
-1.230, 2.312e-5
-1.231, 2.301e-5
-1.232, 2.310e-5
-1.233, 2.341e-5
-1.234, 2.375e-5
-1.235, 2.373e-5
-1.236, 2.365e-5
-1.237, 2.378e-5
-1.238, 2.415e-5
-1.239, 2.446e-5
-1.240, 2.450e-5
-1.241, 2.455e-5
-1.242, 2.478e-5
-1.243, 2.508e-5
-1.244, 2.531e-5
-1.245, 2.540e-5
-1.246, 2.546e-5
-1.247, 2.571e-5
-1.248, 2.598e-5
-1.249, 2.634e-5
-1.250, 2.652e-5
-1.251, 2.658e-5
-1.252, 2.678e-5
-1.253, 2.717e-5
-1.254, 2.750e-5
-1.255, 2.778e-5
-1.256, 2.782e-5
-1.257, 2.810e-5
-1.258, 2.850e-5
-1.259, 2.883e-5
-1.260, 2.906e-5
-1.261, 2.917e-5
-1.262, 2.953e-5
-1.263, 3.007e-5
-1.264, 3.045e-5
-1.265, 3.075e-5
-1.266, 3.097e-5
-1.267, 3.121e-5
-1.268, 3.165e-5
-1.269, 3.209e-5
-1.270, 3.231e-5
-1.271, 3.251e-5
-1.272, 3.294e-5
-1.273, 3.348e-5
-1.274, 3.407e-5
-1.275, 3.434e-5
-1.276, 3.459e-5
-1.277, 3.499e-5
-1.278, 3.551e-5
-1.279, 3.608e-5
-1.280, 3.646e-5
-1.281, 3.677e-5
-1.282, 3.723e-5
-1.283, 3.788e-5
-1.284, 3.852e-5
-1.285, 3.895e-5
-1.286, 3.932e-5
-1.287, 3.983e-5
-1.288, 4.049e-5
-1.289, 4.133e-5
-1.290, 4.185e-5
-1.291, 4.224e-5
-1.292, 4.278e-5
-1.293, 4.350e-5
-1.294, 4.415e-5
-1.295, 4.468e-5
-1.296, 4.506e-5
-1.297, 4.569e-5
-1.298, 4.652e-5
-1.299, 4.732e-5
-1.300, 4.785e-5
-1.301, 4.847e-5
-1.302, 4.911e-5
-1.303, 5.005e-5
-1.304, 5.085e-5
-1.305, 5.150e-5
-1.306, 5.211e-5
-1.307, 5.288e-5
-1.308, 5.391e-5
-1.309, 5.474e-5
-1.310, 5.548e-5
-1.311, 5.622e-5
-1.312, 5.702e-5
-1.313, 5.816e-5
-1.314, 5.921e-5
-1.315, 5.991e-5
-1.316, 6.070e-5
-1.317, 6.165e-5
-1.318, 6.283e-5
-1.319, 6.398e-5
-1.320, 6.489e-5
-1.321, 6.574e-5
-1.322, 6.685e-5
-1.323, 6.805e-5
-1.324, 6.924e-5
-1.325, 7.020e-5
-1.326, 7.117e-5
-1.327, 7.233e-5
-1.328, 7.361e-5
-1.329, 7.493e-5
-1.330, 7.601e-5
-1.331, 7.712e-5
-1.332, 7.840e-5
-1.333, 7.975e-5
-1.334, 8.118e-5
-1.335, 8.242e-5
-1.336, 8.366e-5
-1.337, 8.503e-5
-1.338, 8.657e-5
-1.339, 8.809e-5
-1.340, 8.944e-5
-1.341, 9.077e-5
-1.342, 9.226e-5
-1.343, 9.395e-5
-1.344, 9.559e-5
-1.345, 9.705e-5
-1.346, 9.852e-5
-1.347, 1.001e-4
-1.348, 1.020e-4
-1.349, 1.037e-4
-1.350, 1.053e-4
-1.351, 1.070e-4
-1.352, 1.087e-4
-1.353, 1.106e-4
-1.354, 1.126e-4
-1.355, 1.144e-4
-1.356, 1.162e-4
-1.357, 1.181e-4
-1.358, 1.202e-4
-1.359, 1.222e-4
-1.360, 1.240e-4
-1.361, 1.259e-4
-1.362, 1.281e-4
-1.363, 1.303e-4
-1.364, 1.325e-4
-1.365, 1.346e-4
-1.366, 1.367e-4
-1.367, 1.390e-4
-1.368, 1.414e-4
-1.369, 1.439e-4
-1.370, 1.461e-4
-1.371, 1.483e-4
-1.372, 1.508e-4
-1.373, 1.534e-4
-1.374, 1.561e-4
-1.375, 1.586e-4
-1.376, 1.610e-4
-1.377, 1.636e-4
-1.378, 1.664e-4
-1.379, 1.691e-4
-1.380, 1.718e-4
-1.381, 1.744e-4
-1.382, 1.772e-4
-1.383, 1.803e-4
-1.384, 1.833e-4
-1.385, 1.861e-4
-1.386, 1.889e-4
-1.387, 1.919e-4
-1.388, 1.951e-4
-1.389, 1.982e-4
-1.390, 2.013e-4
-1.391, 2.044e-4
-1.392, 2.076e-4
-1.393, 2.110e-4
-1.394, 2.145e-4
-1.395, 2.177e-4
-1.396, 2.210e-4
-1.397, 2.245e-4
-1.398, 2.282e-4
-1.399, 2.319e-4
-1.400, 2.354e-4
-1.401, 2.389e-4
-1.402, 2.426e-4
-1.403, 2.466e-4
-1.404, 2.505e-4
-1.405, 2.543e-4
-1.406, 2.581e-4
-1.407, 2.622e-4
-1.408, 2.664e-4
-1.409, 2.705e-4
-1.410, 2.746e-4
-1.411, 2.786e-4
-1.412, 2.829e-4
-1.413, 2.873e-4
-1.414, 2.918e-4
-1.415, 2.962e-4
-1.416, 3.007e-4
-1.417, 3.053e-4
-1.418, 3.101e-4
-1.419, 3.150e-4
-1.420, 3.196e-4
-1.421, 3.244e-4
-1.422, 3.293e-4
-1.423, 3.345e-4
-1.424, 3.398e-4
-1.425, 3.450e-4
-1.426, 3.500e-4
-1.427, 3.551e-4
-1.428, 3.607e-4
-1.429, 3.667e-4
-1.430, 3.721e-4
-1.431, 3.775e-4
-1.432, 3.831e-4
-1.433, 3.889e-4
-1.434, 3.950e-4
-1.435, 4.009e-4
-1.436, 4.068e-4
-1.437, 4.129e-4
-1.438, 4.192e-4
-1.439, 4.256e-4
-1.440, 4.319e-4
-1.441, 4.384e-4
-1.442, 4.447e-4
-1.443, 4.514e-4
-1.444, 4.582e-4
-1.445, 4.649e-4
-1.446, 4.717e-4
-1.447, 4.789e-4
-1.448, 4.862e-4
-1.449, 4.936e-4
-1.450, 5.007e-4
-1.451, 5.080e-4
-1.452, 5.157e-4
-1.453, 5.234e-4
-1.454, 5.313e-4
-1.455, 5.390e-4
-1.456, 5.466e-4
-1.457, 5.550e-4
-1.458, 5.633e-4
-1.459, 5.718e-4
-1.460, 5.803e-4
-1.461, 5.888e-4
-1.462, 5.973e-4
-1.463, 6.063e-4
-1.464, 6.152e-4
-1.465, 6.241e-4
-1.466, 6.333e-4
-1.467, 6.428e-4
-1.468, 6.524e-4
-1.469, 6.622e-4
-1.470, 6.716e-4
-1.471, 6.814e-4
-1.472, 6.916e-4
-1.473, 7.021e-4
-1.474, 7.126e-4
-1.475, 7.225e-4
-1.476, 7.331e-4
-1.477, 7.442e-4
-1.478, 7.552e-4
-1.479, 7.664e-4
-1.480, 7.776e-4
-1.481, 7.887e-4
-1.482, 8.004e-4
-1.483, 8.128e-4
-1.484, 8.249e-4
-1.485, 8.368e-4
-1.486, 8.491e-4
-1.487, 8.619e-4
-1.488, 8.742e-4
-1.489, 8.873e-4
-1.490, 9.007e-4
-1.491, 9.136e-4
-1.492, 9.270e-4
-1.493, 9.409e-4
-1.494, 9.555e-4
-1.495, 9.693e-4
-1.496, 9.836e-4
-1.497, 9.987e-4
-1.498, 1.013e-3
-1.499, 1.028e-3
-1.500, 1.026e-3
-1.499, 1.009e-3
-1.498, 9.922e-4
-1.497, 9.771e-4
-1.496, 9.617e-4
-1.495, 9.457e-4
-1.494, 9.303e-4
-1.493, 9.161e-4
-1.492, 9.019e-4
-1.491, 8.877e-4
-1.490, 8.739e-4
-1.489, 8.596e-4
-1.488, 8.460e-4
-1.487, 8.327e-4
-1.486, 8.197e-4
-1.485, 8.065e-4
-1.484, 7.957e-4
-1.483, 7.813e-4
-1.482, 7.689e-4
-1.481, 7.569e-4
-1.480, 7.448e-4
-1.479, 7.326e-4
-1.478, 7.209e-4
-1.477, 7.098e-4
-1.476, 6.987e-4
-1.475, 6.877e-4
-1.474, 6.769e-4
-1.473, 6.660e-4
-1.472, 6.556e-4
-1.471, 6.450e-4
-1.470, 6.344e-4
-1.469, 6.240e-4
-1.468, 6.140e-4
-1.467, 6.045e-4
-1.466, 5.949e-4
-1.465, 5.853e-4
-1.464, 5.759e-4
-1.463, 5.666e-4
-1.462, 5.578e-4
-1.461, 5.489e-4
-1.460, 5.402e-4
-1.459, 5.312e-4
-1.458, 5.224e-4
-1.457, 5.142e-4
-1.456, 5.060e-4
-1.455, 4.976e-4
-1.454, 4.894e-4
-1.453, 4.817e-4
-1.452, 4.740e-4
-1.451, 4.661e-4
-1.450, 4.586e-4
-1.449, 4.510e-4
-1.448, 4.437e-4
-1.447, 4.368e-4
-1.446, 4.298e-4
-1.445, 4.227e-4
-1.444, 4.156e-4
-1.443, 4.088e-4
-1.442, 4.024e-4
-1.441, 3.959e-4
-1.440, 3.893e-4
-1.439, 3.827e-4
-1.438, 3.765e-4
-1.437, 3.705e-4
-1.436, 3.643e-4
-1.435, 3.582e-4
-1.434, 3.522e-4
-1.433, 3.464e-4
-1.432, 3.409e-4
-1.431, 3.353e-4
-1.430, 3.297e-4
-1.429, 3.240e-4
-1.428, 3.187e-4
-1.427, 3.135e-4
-1.426, 3.082e-4
-1.425, 3.029e-4
-1.424, 2.977e-4
-1.423, 2.928e-4
-1.422, 2.880e-4
-1.421, 2.832e-4
-1.420, 2.783e-4
-1.419, 2.735e-4
-1.418, 2.690e-4
-1.417, 2.646e-4
-1.416, 2.602e-4
-1.415, 2.557e-4
-1.414, 2.512e-4
-1.413, 2.470e-4
-1.412, 2.430e-4
-1.411, 2.388e-4
-1.410, 2.346e-4
-1.409, 2.303e-4
-1.408, 2.266e-4
-1.407, 2.227e-4
-1.406, 2.191e-4
-1.405, 2.152e-4
-1.404, 2.114e-4
-1.403, 2.078e-4
-1.402, 2.044e-4
-1.401, 2.008e-4
-1.400, 1.973e-4
-1.399, 1.937e-4
-1.398, 1.904e-4
-1.397, 1.873e-4
-1.396, 1.839e-4
-1.395, 1.806e-4
-1.394, 1.774e-4
-1.393, 1.744e-4
-1.392, 1.714e-4
-1.391, 1.684e-4
-1.390, 1.654e-4
-1.389, 1.623e-4
-1.388, 1.595e-4
-1.387, 1.568e-4
-1.386, 1.540e-4
-1.385, 1.511e-4
-1.384, 1.484e-4
-1.383, 1.458e-4
-1.382, 1.433e-4
-1.381, 1.408e-4
-1.380, 1.382e-4
-1.379, 1.356e-4
-1.378, 1.332e-4
-1.377, 1.309e-4
-1.376, 1.285e-4
-1.375, 1.261e-4
-1.374, 1.237e-4
-1.373, 1.217e-4
-1.372, 1.197e-4
-1.371, 1.175e-4
-1.370, 1.152e-4
-1.369, 1.130e-4
-1.368, 1.110e-4
-1.367, 1.092e-4
-1.366, 1.071e-4
-1.365, 1.051e-4
-1.364, 1.030e-4
-1.363, 1.011e-4
-1.362, 9.954e-5
-1.361, 9.763e-5
-1.360, 9.573e-5
-1.359, 9.389e-5
-1.358, 9.215e-5
-1.357, 9.068e-5
-1.356, 8.901e-5
-1.355, 8.715e-5
-1.354, 8.546e-5
-1.353, 8.393e-5
-1.352, 8.245e-5
-1.351, 8.091e-5
-1.350, 7.929e-5
-1.349, 7.780e-5
-1.348, 7.643e-5
-1.347, 7.504e-5
-1.346, 7.372e-5
-1.345, 7.210e-5
-1.344, 7.068e-5
-1.343, 6.940e-5
-1.342, 6.817e-5
-1.341, 6.691e-5
-1.340, 6.545e-5
-1.339, 6.408e-5
-1.338, 6.293e-5
-1.337, 6.183e-5
-1.336, 6.069e-5
-1.335, 5.929e-5
-1.334, 5.808e-5
-1.333, 5.707e-5
-1.332, 5.605e-5
-1.331, 5.490e-5
-1.330, 5.373e-5
-1.329, 5.255e-5
-1.328, 5.160e-5
-1.327, 5.068e-5
-1.326, 4.961e-5
-1.325, 4.857e-5
-1.324, 4.754e-5
-1.323, 4.667e-5
-1.322, 4.586e-5
-1.321, 4.482e-5
-1.320, 4.385e-5
-1.319, 4.280e-5
-1.318, 4.196e-5
-1.317, 4.127e-5
-1.316, 4.037e-5
-1.315, 3.936e-5
-1.314, 3.845e-5
-1.313, 3.770e-5
-1.312, 3.708e-5
-1.311, 3.632e-5
-1.310, 3.534e-5
-1.309, 3.457e-5
-1.308, 3.391e-5
-1.307, 3.327e-5
-1.306, 3.254e-5
-1.305, 3.164e-5
-1.304, 3.092e-5
-1.303, 3.035e-5
-1.302, 2.978e-5
-1.301, 2.917e-5
-1.300, 2.839e-5
-1.299, 2.761e-5
-1.298, 2.720e-5
-1.297, 2.673e-5
-1.296, 2.615e-5
-1.295, 2.546e-5
-1.294, 2.477e-5
-1.293, 2.445e-5
-1.292, 2.401e-5
-1.291, 2.341e-5
-1.290, 2.274e-5
-1.289, 2.212e-5
-1.288, 2.178e-5
-1.287, 2.145e-5
-1.286, 2.088e-5
-1.285, 2.031e-5
-1.284, 1.977e-5
-1.283, 1.940e-5
-1.282, 1.913e-5
-1.281, 1.859e-5
-1.280, 1.804e-5
-1.279, 1.759e-5
-1.278, 1.737e-5
-1.277, 1.720e-5
-1.276, 1.684e-5
-1.275, 1.631e-5
-1.274, 1.589e-5
-1.273, 1.560e-5
-1.272, 1.534e-5
-1.271, 1.493e-5
-1.270, 1.436e-5
-1.269, 1.402e-5
-1.268, 1.381e-5
-1.267, 1.356e-5
-1.266, 1.326e-5
-1.265, 1.276e-5
-1.264, 1.242e-5
-1.263, 1.230e-5
-1.262, 1.197e-5
-1.261, 1.168e-5
-1.260, 1.125e-5
-1.259, 1.086e-5
-1.258, 1.075e-5
-1.257, 1.057e-5
-1.256, 1.034e-5
-1.255, 9.896e-6
-1.254, 9.604e-6
-1.253, 9.590e-6
-1.252, 9.433e-6
-1.251, 9.088e-6
-1.250, 8.675e-6
-1.249, 8.351e-6
-1.248, 8.277e-6
-1.247, 8.187e-6
-1.246, 7.927e-6
-1.245, 7.639e-6
-1.244, 7.336e-6
-1.243, 7.240e-6
-1.242, 7.145e-6
-1.241, 6.828e-6
-1.240, 6.521e-6
-1.239, 6.259e-6
-1.238, 6.215e-6
-1.237, 6.160e-6
-1.236, 5.968e-6
-1.235, 5.636e-6
-1.234, 5.393e-6
-1.233, 5.365e-6
-1.232, 5.322e-6
-1.231, 5.148e-6
-1.230, 4.801e-6
-1.229, 4.475e-6
-1.228, 4.526e-6
-1.227, 4.483e-6
-1.226, 4.306e-6
-1.225, 4.018e-6
-1.224, 3.871e-6
-1.223, 3.809e-6
-1.222, 3.740e-6
-1.221, 3.598e-6
-1.220, 3.330e-6
-1.219, 3.124e-6
-1.218, 3.167e-6
-1.217, 3.176e-6
-1.216, 3.037e-6
-1.215, 2.709e-6
-1.214, 2.547e-6
-1.213, 2.594e-6
-1.212, 2.586e-6
-1.211, 2.363e-6
-1.210, 2.139e-6
-1.209, 1.965e-6
-1.208, 2.078e-6
-1.207, 2.032e-6
-1.206, 1.866e-6
-1.205, 1.643e-6
-1.204, 1.496e-6
-1.203, 1.529e-6
-1.202, 1.530e-6
-1.201, 1.397e-6
-1.200, 1.193e-6
-1.199, 1.070e-6
-1.198, 1.090e-6
-1.197, 1.132e-6
-1.196, 9.982e-7
-1.195, 7.476e-7
-1.194, 6.904e-7
-1.193, 6.825e-7
-1.192, 7.841e-7
-1.191, 6.233e-7
-1.190, 2.928e-7
-1.189, 2.287e-7
-1.188, 2.770e-7
-1.187, 3.056e-7
-1.186, 2.386e-7
-1.185, -2.289e-8
-1.184, -9.590e-8
-1.183, -6.137e-8
-1.182, -7.025e-8
-1.181, -9.886e-8
-1.180, -3.702e-7
-1.179, -4.165e-7
-1.178, -3.218e-7
-1.177, -2.478e-7
-1.176, -3.258e-7
-1.175, -5.191e-7
-1.174, -6.711e-7
-1.173, -5.783e-7
-1.172, -4.876e-7
-1.171, -6.168e-7
-1.170, -7.806e-7
-1.169, -8.635e-7
-1.168, -7.540e-7
-1.167, -7.076e-7
-1.166, -8.862e-7
-1.165, -1.074e-6
-1.164, -1.197e-6
-1.163, -1.142e-6
-1.162, -1.096e-6
-1.161, -1.222e-6
-1.160, -1.401e-6
-1.159, -1.531e-6
-1.158, -1.489e-6
-1.157, -1.435e-6
-1.156, -1.539e-6
-1.155, -1.803e-6
-1.154, -1.794e-6
-1.153, -1.803e-6
-1.152, -1.728e-6
-1.151, -1.854e-6
-1.150, -2.059e-6
-1.149, -2.077e-6
-1.148, -2.093e-6
-1.147, -2.030e-6
-1.146, -2.083e-6
-1.145, -2.307e-6
-1.144, -2.300e-6
-1.143, -2.114e-6
-1.142, -2.122e-6
-1.141, -2.190e-6
-1.140, -2.505e-6
-1.139, -2.558e-6
-1.138, -2.454e-6
-1.137, -2.391e-6
-1.136, -2.449e-6
-1.135, -2.583e-6
-1.134, -2.712e-6
-1.133, -2.592e-6
-1.132, -2.577e-6
-1.131, -2.723e-6
-1.130, -2.857e-6
-1.129, -2.998e-6
-1.128, -2.908e-6
-1.127, -2.853e-6
-1.126, -2.986e-6
-1.125, -3.150e-6
-1.124, -3.204e-6
-1.123, -3.179e-6
-1.122, -3.114e-6
-1.121, -3.281e-6
-1.120, -3.506e-6
-1.119, -3.519e-6
-1.118, -3.553e-6
-1.117, -3.419e-6
-1.116, -3.537e-6
-1.115, -3.781e-6
-1.114, -3.781e-6
-1.113, -3.807e-6
-1.112, -3.708e-6
-1.111, -3.865e-6
-1.110, -4.109e-6
-1.109, -4.126e-6
-1.108, -4.075e-6
-1.107, -3.865e-6
-1.106, -4.062e-6
-1.105, -4.292e-6
-1.104, -4.317e-6
-1.103, -4.316e-6
-1.102, -4.296e-6
-1.101, -4.420e-6
-1.100, -4.639e-6
-1.099, -4.738e-6
-1.098, -4.656e-6
-1.097, -4.634e-6
-1.096, -4.640e-6
-1.095, -4.773e-6
-1.094, -4.864e-6
-1.093, -4.720e-6
-1.092, -4.680e-6
-1.091, -4.922e-6
-1.090, -5.166e-6
-1.089, -5.259e-6
-1.088, -5.173e-6
-1.087, -5.080e-6
-1.086, -5.225e-6
-1.085, -5.400e-6
-1.084, -5.489e-6
-1.083, -5.424e-6
-1.082, -5.371e-6
-1.081, -5.553e-6
-1.080, -5.705e-6
-1.079, -5.720e-6
-1.078, -5.753e-6
-1.077, -5.626e-6
-1.076, -5.745e-6
-1.075, -5.966e-6
-1.074, -5.916e-6
-1.073, -5.935e-6
-1.072, -5.787e-6
-1.071, -5.930e-6
-1.070, -6.164e-6
-1.069, -6.193e-6
-1.068, -6.230e-6
-1.067, -6.171e-6
-1.066, -6.255e-6
-1.065, -6.571e-6
-1.064, -6.548e-6
-1.063, -6.507e-6
-1.062, -6.517e-6
-1.061, -6.632e-6
-1.060, -6.808e-6
-1.059, -6.822e-6
-1.058, -6.756e-6
-1.057, -6.743e-6
-1.056, -6.855e-6
-1.055, -7.150e-6
-1.054, -7.247e-6
-1.053, -7.143e-6
-1.052, -7.153e-6
-1.051, -7.295e-6
-1.050, -7.510e-6
-1.049, -7.600e-6
-1.048, -7.537e-6
-1.047, -7.421e-6
-1.046, -7.582e-6
-1.045, -7.815e-6
-1.044, -7.877e-6
-1.043, -7.890e-6
-1.042, -7.786e-6
-1.041, -7.908e-6
-1.040, -8.089e-6
-1.039, -8.173e-6
-1.038, -8.221e-6
-1.037, -8.106e-6
-1.036, -8.264e-6
-1.035, -8.563e-6
-1.034, -8.597e-6
-1.033, -8.612e-6
-1.032, -8.499e-6
-1.031, -8.604e-6
-1.030, -8.927e-6
-1.029, -8.905e-6
-1.028, -8.908e-6
-1.027, -8.919e-6
-1.026, -9.015e-6
-1.025, -9.282e-6
-1.024, -9.303e-6
-1.023, -9.205e-6
-1.022, -9.136e-6
-1.021, -9.266e-6
-1.020, -9.498e-6
-1.019, -9.625e-6
-1.018, -9.538e-6
-1.017, -9.541e-6
-1.016, -9.660e-6
-1.015, -9.907e-6
-1.014, -1.003e-5
-1.013, -9.923e-6
-1.012, -9.945e-6
-1.011, -1.011e-5
-1.010, -1.032e-5
-1.009, -1.045e-5
-1.008, -1.036e-5
-1.007, -1.029e-5
-1.006, -1.050e-5
-1.005, -1.069e-5
-1.004, -1.077e-5
-1.003, -1.078e-5
-1.002, -1.071e-5
-1.001, -1.083e-5
-1.000, -4.053e-6
-1.001, -3.682e-7
-1.002, 1.200e-6
-1.003, 2.284e-6
-1.004, 3.003e-6
-1.005, 3.515e-6
-1.006, 4.112e-6
-1.007, 4.817e-6
-1.008, 5.483e-6
-1.009, 5.907e-6
-1.010, 6.094e-6
-1.011, 6.378e-6
-1.012, 6.786e-6
-1.013, 7.134e-6
-1.014, 7.277e-6
-1.015, 7.429e-6
-1.016, 7.643e-6
-1.017, 8.035e-6
-1.018, 8.377e-6
-1.019, 8.463e-6
-1.020, 8.503e-6
-1.021, 8.651e-6
-1.022, 8.948e-6
-1.023, 9.230e-6
-1.024, 9.298e-6
-1.025, 9.287e-6
-1.026, 9.443e-6
-1.027, 9.661e-6
-1.028, 9.973e-6
-1.029, 1.001e-5
-1.030, 9.952e-6
-1.031, 1.014e-5
-1.032, 1.022e-5
-1.033, 1.046e-5
-1.034, 1.057e-5
-1.035, 1.042e-5
-1.036, 1.057e-5
-1.037, 1.078e-5
-1.038, 1.100e-5
-1.039, 1.103e-5
-1.040, 1.096e-5
-1.041, 1.101e-5
-1.042, 1.121e-5
-1.043, 1.135e-5
-1.044, 1.143e-5
-1.045, 1.134e-5
-1.046, 1.137e-5
-1.047, 1.157e-5
-1.048, 1.176e-5
-1.049, 1.177e-5
-1.050, 1.178e-5
-1.051, 1.186e-5
-1.052, 1.203e-5
-1.053, 1.211e-5
-1.054, 1.208e-5
-1.055, 1.199e-5
-1.056, 1.201e-5
-1.057, 1.223e-5
-1.058, 1.249e-5
-1.059, 1.240e-5
-1.060, 1.231e-5
-1.061, 1.233e-5
-1.062, 1.250e-5
-1.063, 1.266e-5
-1.064, 1.254e-5
-1.065, 1.242e-5
-1.066, 1.249e-5
-1.067, 1.264e-5
-1.068, 1.276e-5
-1.069, 1.278e-5
-1.070, 1.271e-5
-1.071, 1.273e-5
-1.072, 1.287e-5
-1.073, 1.299e-5
-1.074, 1.298e-5
-1.075, 1.284e-5
-1.076, 1.291e-5
-1.077, 1.305e-5
-1.078, 1.318e-5
-1.079, 1.319e-5
-1.080, 1.302e-5
-1.081, 1.307e-5
-1.082, 1.319e-5
-1.083, 1.336e-5
-1.084, 1.331e-5
-1.085, 1.317e-5
-1.086, 1.319e-5
-1.087, 1.334e-5
-1.088, 1.347e-5
-1.089, 1.341e-5
-1.090, 1.333e-5
-1.091, 1.332e-5
-1.092, 1.351e-5
-1.093, 1.365e-5
-1.094, 1.371e-5
-1.095, 1.355e-5
-1.096, 1.356e-5
-1.097, 1.372e-5
-1.098, 1.394e-5
-1.099, 1.386e-5
-1.100, 1.369e-5
-1.101, 1.373e-5
-1.102, 1.390e-5
-1.103, 1.413e-5
-1.104, 1.404e-5
-1.105, 1.388e-5
-1.106, 1.399e-5
-1.107, 1.404e-5
-1.108, 1.422e-5
-1.109, 1.414e-5
-1.110, 1.404e-5
-1.111, 1.419e-5
-1.112, 1.426e-5
-1.113, 1.440e-5
-1.114, 1.436e-5
-1.115, 1.419e-5
-1.116, 1.424e-5
-1.117, 1.439e-5
-1.118, 1.464e-5
-1.119, 1.460e-5
-1.120, 1.452e-5
-1.121, 1.450e-5
-1.122, 1.463e-5
-1.123, 1.479e-5
-1.124, 1.472e-5
-1.125, 1.467e-5
-1.126, 1.467e-5
-1.127, 1.483e-5
-1.128, 1.493e-5
-1.129, 1.488e-5
-1.130, 1.483e-5
-1.131, 1.496e-5
-1.132, 1.505e-5
-1.133, 1.526e-5
-1.134, 1.524e-5
-1.135, 1.519e-5
-1.136, 1.517e-5
-1.137, 1.529e-5
-1.138, 1.550e-5
-1.139, 1.544e-5
-1.140, 1.534e-5
-1.141, 1.542e-5
-1.142, 1.551e-5
-1.143, 1.566e-5
-1.144, 1.562e-5
-1.145, 1.549e-5
-1.146, 1.554e-5
-1.147, 1.564e-5
-1.148, 1.584e-5
-1.149, 1.575e-5
-1.150, 1.563e-5
-1.151, 1.574e-5
-1.152, 1.581e-5
-1.153, 1.597e-5
-1.154, 1.589e-5
-1.155, 1.583e-5
-1.156, 1.590e-5
-1.157, 1.608e-5
-1.158, 1.623e-5
-1.159, 1.621e-5
-1.160, 1.606e-5
-1.161, 1.602e-5
-1.162, 1.616e-5
-1.163, 1.625e-5
-1.164, 1.621e-5
-1.165, 1.617e-5
-1.166, 1.622e-5
-1.167, 1.638e-5
-1.168, 1.649e-5
-1.169, 1.643e-5
-1.170, 1.633e-5
-1.171, 1.635e-5
-1.172, 1.651e-5
-1.173, 1.667e-5
-1.174, 1.666e-5
-1.175, 1.655e-5
-1.176, 1.657e-5
-1.177, 1.677e-5
-1.178, 1.696e-5
-1.179, 1.694e-5
-1.180, 1.685e-5
-1.181, 1.688e-5
-1.182, 1.702e-5
-1.183, 1.719e-5
-1.184, 1.709e-5
-1.185, 1.702e-5
-1.186, 1.714e-5
-1.187, 1.728e-5
-1.188, 1.754e-5
-1.189, 1.750e-5
-1.190, 1.735e-5
-1.191, 1.742e-5
-1.192, 1.751e-5
-1.193, 1.772e-5
-1.194, 1.771e-5
-1.195, 1.762e-5
-1.196, 1.772e-5
-1.197, 1.786e-5
-1.198, 1.806e-5
-1.199, 1.805e-5
-1.200, 1.792e-5
-1.201, 1.798e-5
-1.202, 1.815e-5
-1.203, 1.831e-5
-1.204, 1.839e-5
-1.205, 1.826e-5
-1.206, 1.834e-5
-1.207, 1.861e-5
-1.208, 1.875e-5
-1.209, 1.877e-5
-1.210, 1.878e-5
-1.211, 1.879e-5
-1.212, 1.901e-5
-1.213, 1.918e-5
-1.214, 1.920e-5
-1.215, 1.922e-5
-1.216, 1.932e-5
-1.217, 1.955e-5
-1.218, 1.978e-5
-1.219, 1.978e-5
-1.220, 1.977e-5
-1.221, 1.984e-5
-1.222, 2.004e-5
-1.223, 2.027e-5
-1.224, 2.032e-5
-1.225, 2.025e-5
-1.226, 2.041e-5
-1.227, 2.053e-5
-1.228, 2.093e-5
-1.229, 2.099e-5
-1.230, 2.093e-5
-1.231, 2.104e-5
-1.232, 2.124e-5
-1.233, 2.154e-5
-1.234, 2.170e-5
-1.235, 2.170e-5
-1.236, 2.185e-5
-1.237, 2.210e-5
-1.238, 2.236e-5
-1.239, 2.251e-5
-1.240, 2.248e-5
-1.241, 2.259e-5
-1.242, 2.292e-5
-1.243, 2.323e-5
-1.244, 2.337e-5
-1.245, 2.344e-5
-1.246, 2.359e-5
-1.247, 2.394e-5
-1.248, 2.420e-5
-1.249, 2.435e-5
-1.250, 2.446e-5
-1.251, 2.464e-5
-1.252, 2.499e-5
-1.253, 2.537e-5
-1.254, 2.557e-5
-1.255, 2.568e-5
-1.256, 2.581e-5
-1.257, 2.625e-5
-1.258, 2.663e-5
-1.259, 2.684e-5
-1.260, 2.699e-5
-1.261, 2.725e-5
-1.262, 2.764e-5
-1.263, 2.807e-5
-1.264, 2.820e-5
-1.265, 2.837e-5
-1.266, 2.869e-5
-1.267, 2.914e-5
-1.268, 2.958e-5
-1.269, 2.987e-5
-1.270, 3.012e-5
-1.271, 3.040e-5
-1.272, 3.090e-5
-1.273, 3.134e-5
-1.274, 3.168e-5
-1.275, 3.190e-5
-1.276, 3.233e-5
-1.277, 3.286e-5
-1.278, 3.343e-5
-1.279, 3.392e-5
-1.280, 3.420e-5
-1.281, 3.461e-5
-1.282, 3.520e-5
-1.283, 3.570e-5
-1.284, 3.610e-5
-1.285, 3.639e-5
-1.286, 3.687e-5
-1.287, 3.753e-5
-1.288, 3.812e-5
-1.289, 3.860e-5
-1.290, 3.904e-5
-1.291, 3.948e-5
-1.292, 4.019e-5
-1.293, 4.085e-5
-1.294, 4.140e-5
-1.295, 4.187e-5
-1.296, 4.240e-5
-1.297, 4.310e-5
-1.298, 4.382e-5
-1.299, 4.439e-5
-1.300, 4.495e-5
-1.301, 4.554e-5
-1.302, 4.638e-5
-1.303, 4.729e-5
-1.304, 4.790e-5
-1.305, 4.845e-5
-1.306, 4.917e-5
-1.307, 5.001e-5
-1.308, 5.086e-5
-1.309, 5.176e-5
-1.310, 5.228e-5
-1.311, 5.306e-5
-1.312, 5.400e-5
-1.313, 5.496e-5
-1.314, 5.575e-5
-1.315, 5.646e-5
-1.316, 5.739e-5
-1.317, 5.835e-5
-1.318, 5.945e-5
-1.319, 6.046e-5
-1.320, 6.124e-5
-1.321, 6.221e-5
-1.322, 6.340e-5
-1.323, 6.448e-5
-1.324, 6.548e-5
-1.325, 6.632e-5
-1.326, 6.731e-5
-1.327, 6.854e-5
-1.328, 6.975e-5
-1.329, 7.091e-5
-1.330, 7.193e-5
-1.331, 7.307e-5
-1.332, 7.446e-5
-1.333, 7.577e-5
-1.334, 7.697e-5
-1.335, 7.811e-5
-1.336, 7.932e-5
-1.337, 8.080e-5
-1.338, 8.222e-5
-1.339, 8.346e-5
-1.340, 8.473e-5
-1.341, 8.604e-5
-1.342, 8.761e-5
-1.343, 8.918e-5
-1.344, 9.060e-5
-1.345, 9.204e-5
-1.346, 9.346e-5
-1.347, 9.510e-5
-1.348, 9.681e-5
-1.349, 9.840e-5
-1.350, 9.989e-5
-1.351, 1.015e-4
-1.352, 1.032e-4
-1.353, 1.050e-4
-1.354, 1.068e-4
-1.355, 1.084e-4
-1.356, 1.101e-4
-1.357, 1.121e-4
-1.358, 1.140e-4
-1.359, 1.159e-4
-1.360, 1.176e-4
-1.361, 1.194e-4
-1.362, 1.215e-4
-1.363, 1.237e-4
-1.364, 1.257e-4
-1.365, 1.276e-4
-1.366, 1.296e-4
-1.367, 1.319e-4
-1.368, 1.341e-4
-1.369, 1.362e-4
-1.370, 1.385e-4
-1.371, 1.406e-4
-1.372, 1.430e-4
-1.373, 1.455e-4
-1.374, 1.479e-4
-1.375, 1.501e-4
-1.376, 1.525e-4
-1.377, 1.550e-4
-1.378, 1.577e-4
-1.379, 1.603e-4
-1.380, 1.627e-4
-1.381, 1.653e-4
-1.382, 1.682e-4
-1.383, 1.710e-4
-1.384, 1.737e-4
-1.385, 1.763e-4
-1.386, 1.791e-4
-1.387, 1.820e-4
-1.388, 1.850e-4
-1.389, 1.880e-4
-1.390, 1.907e-4
-1.391, 1.937e-4
-1.392, 1.968e-4
-1.393, 2.001e-4
-1.394, 2.032e-4
-1.395, 2.063e-4
-1.396, 2.096e-4
-1.397, 2.130e-4
-1.398, 2.165e-4
-1.399, 2.199e-4
-1.400, 2.232e-4
-1.401, 2.264e-4
-1.402, 2.300e-4
-1.403, 2.337e-4
-1.404, 2.373e-4
-1.405, 2.408e-4
-1.406, 2.444e-4
-1.407, 2.484e-4
-1.408, 2.524e-4
-1.409, 2.564e-4
-1.410, 2.603e-4
-1.411, 2.640e-4
-1.412, 2.682e-4
-1.413, 2.724e-4
-1.414, 2.765e-4
-1.415, 2.806e-4
-1.416, 2.848e-4
-1.417, 2.893e-4
-1.418, 2.938e-4
-1.419, 2.983e-4
-1.420, 3.026e-4
-1.421, 3.071e-4
-1.422, 3.119e-4
-1.423, 3.167e-4
-1.424, 3.216e-4
-1.425, 3.262e-4
-1.426, 3.312e-4
-1.427, 3.363e-4
-1.428, 3.414e-4
-1.429, 3.465e-4
-1.430, 3.516e-4
-1.431, 3.567e-4
-1.432, 3.622e-4
-1.433, 3.678e-4
-1.434, 3.733e-4
-1.435, 3.787e-4
-1.436, 3.842e-4
-1.437, 3.901e-4
-1.438, 3.961e-4
-1.439, 4.023e-4
-1.440, 4.081e-4
-1.441, 4.141e-4
-1.442, 4.204e-4
-1.443, 4.269e-4
-1.444, 4.331e-4
-1.445, 4.392e-4
-1.446, 4.459e-4
-1.447, 4.524e-4
-1.448, 4.591e-4
-1.449, 4.662e-4
-1.450, 4.729e-4
-1.451, 4.797e-4
-1.452, 4.870e-4
-1.453, 4.944e-4
-1.454, 5.018e-4
-1.455, 5.090e-4
-1.456, 5.163e-4
-1.457, 5.240e-4
-1.458, 5.320e-4
-1.459, 5.400e-4
-1.460, 5.482e-4
-1.461, 5.559e-4
-1.462, 5.643e-4
-1.463, 5.729e-4
-1.464, 5.812e-4
-1.465, 5.894e-4
-1.466, 5.979e-4
-1.467, 6.069e-4
-1.468, 6.161e-4
-1.469, 6.253e-4
-1.470, 6.346e-4
-1.471, 6.442e-4
-1.472, 6.539e-4
-1.473, 6.636e-4
-1.474, 6.734e-4
-1.475, 6.832e-4
-1.476, 6.934e-4
-1.477, 7.039e-4
-1.478, 7.144e-4
-1.479, 7.255e-4
-1.480, 7.362e-4
-1.481, 7.471e-4
-1.482, 7.582e-4
-1.483, 7.697e-4
-1.484, 7.812e-4
-1.485, 7.930e-4
-1.486, 8.048e-4
-1.487, 8.169e-4
-1.488, 8.290e-4
-1.489, 8.414e-4
-1.490, 8.540e-4
-1.491, 8.666e-4
-1.492, 8.796e-4
-1.493, 8.931e-4
-1.494, 9.067e-4
-1.495, 9.203e-4
-1.496, 9.339e-4
-1.497, 9.487e-4
-1.498, 9.627e-4
-1.499, 9.766e-4
-1.500, 9.739e-4
-1.499, 9.568e-4
-1.498, 9.409e-4
-1.497, 9.255e-4
-1.496, 9.105e-4
-1.495, 8.952e-4
-1.494, 8.806e-4
-1.493, 8.661e-4
-1.492, 8.516e-4
-1.491, 8.382e-4
-1.490, 8.241e-4
-1.489, 8.105e-4
-1.488, 7.976e-4
-1.487, 7.845e-4
-1.486, 7.719e-4
-1.485, 7.593e-4
-1.484, 7.470e-4
-1.483, 7.350e-4
-1.482, 7.233e-4
-1.481, 7.117e-4
-1.480, 6.999e-4
-1.479, 6.882e-4
-1.478, 6.773e-4
-1.477, 6.665e-4
-1.476, 6.558e-4
-1.475, 6.451e-4
-1.474, 6.345e-4
-1.473, 6.243e-4
-1.472, 6.143e-4
-1.471, 6.046e-4
-1.470, 5.946e-4
-1.469, 5.847e-4
-1.468, 5.751e-4
-1.467, 5.661e-4
-1.466, 5.569e-4
-1.465, 5.476e-4
-1.464, 5.386e-4
-1.463, 5.299e-4
-1.462, 5.212e-4
-1.461, 5.128e-4
-1.460, 5.042e-4
-1.459, 4.960e-4
-1.458, 4.881e-4
-1.457, 4.802e-4
-1.456, 4.723e-4
-1.455, 4.645e-4
-1.454, 4.566e-4
-1.453, 4.490e-4
-1.452, 4.420e-4
-1.451, 4.345e-4
-1.450, 4.271e-4
-1.449, 4.198e-4
-1.448, 4.130e-4
-1.447, 4.063e-4
-1.446, 3.996e-4
-1.445, 3.929e-4
-1.444, 3.861e-4
-1.443, 3.798e-4
-1.442, 3.736e-4
-1.441, 3.673e-4
-1.440, 3.610e-4
-1.439, 3.549e-4
-1.438, 3.491e-4
-1.437, 3.434e-4
-1.436, 3.377e-4
-1.435, 3.319e-4
-1.434, 3.262e-4
-1.433, 3.207e-4
-1.432, 3.154e-4
-1.431, 3.101e-4
-1.430, 3.047e-4
-1.429, 2.996e-4
-1.428, 2.945e-4
-1.427, 2.896e-4
-1.426, 2.848e-4
-1.425, 2.798e-4
-1.424, 2.751e-4
-1.423, 2.705e-4
-1.422, 2.661e-4
-1.421, 2.616e-4
-1.420, 2.570e-4
-1.419, 2.525e-4
-1.418, 2.483e-4
-1.417, 2.442e-4
-1.416, 2.400e-4
-1.415, 2.358e-4
-1.414, 2.316e-4
-1.413, 2.278e-4
-1.412, 2.241e-4
-1.411, 2.202e-4
-1.410, 2.163e-4
-1.409, 2.124e-4
-1.408, 2.088e-4
-1.407, 2.054e-4
-1.406, 2.018e-4
-1.405, 1.982e-4
-1.404, 1.947e-4
-1.403, 1.913e-4
-1.402, 1.882e-4
-1.401, 1.849e-4
-1.400, 1.816e-4
-1.399, 1.783e-4
-1.398, 1.753e-4
-1.397, 1.724e-4
-1.396, 1.694e-4
-1.395, 1.663e-4
-1.394, 1.634e-4
-1.393, 1.605e-4
-1.392, 1.579e-4
-1.391, 1.550e-4
-1.390, 1.522e-4
-1.389, 1.494e-4
-1.388, 1.468e-4
-1.387, 1.443e-4
-1.386, 1.418e-4
-1.385, 1.391e-4
-1.384, 1.365e-4
-1.383, 1.341e-4
-1.382, 1.319e-4
-1.381, 1.297e-4
-1.380, 1.273e-4
-1.379, 1.249e-4
-1.378, 1.227e-4
-1.377, 1.206e-4
-1.376, 1.185e-4
-1.375, 1.163e-4
-1.374, 1.141e-4
-1.373, 1.122e-4
-1.372, 1.103e-4
-1.371, 1.083e-4
-1.370, 1.062e-4
-1.369, 1.042e-4
-1.368, 1.025e-4
-1.367, 1.008e-4
-1.366, 9.887e-5
-1.365, 9.696e-5
-1.364, 9.504e-5
-1.363, 9.330e-5
-1.362, 9.170e-5
-1.361, 9.000e-5
-1.360, 8.824e-5
-1.359, 8.654e-5
-1.358, 8.493e-5
-1.357, 8.360e-5
-1.356, 8.195e-5
-1.355, 8.026e-5
-1.354, 7.868e-5
-1.353, 7.719e-5
-1.352, 7.591e-5
-1.351, 7.449e-5
-1.350, 7.296e-5
-1.349, 7.155e-5
-1.348, 7.027e-5
-1.347, 6.905e-5
-1.346, 6.777e-5
-1.345, 6.632e-5
-1.344, 6.495e-5
-1.343, 6.377e-5
-1.342, 6.269e-5
-1.341, 6.153e-5
-1.340, 6.025e-5
-1.339, 5.899e-5
-1.338, 5.799e-5
-1.337, 5.702e-5
-1.336, 5.594e-5
-1.335, 5.479e-5
-1.334, 5.359e-5
-1.333, 5.270e-5
-1.332, 5.183e-5
-1.331, 5.074e-5
-1.330, 4.980e-5
-1.329, 4.874e-5
-1.328, 4.785e-5
-1.327, 4.710e-5
-1.326, 4.609e-5
-1.325, 4.511e-5
-1.324, 4.409e-5
-1.323, 4.324e-5
-1.322, 4.258e-5
-1.321, 4.165e-5
-1.320, 4.072e-5
-1.319, 3.988e-5
-1.318, 3.912e-5
-1.317, 3.856e-5
-1.316, 3.777e-5
-1.315, 3.688e-5
-1.314, 3.606e-5
-1.313, 3.543e-5
-1.312, 3.494e-5
-1.311, 3.418e-5
-1.310, 3.336e-5
-1.309, 3.262e-5
-1.308, 3.207e-5
-1.307, 3.154e-5
-1.306, 3.090e-5
-1.305, 3.016e-5
-1.304, 2.946e-5
-1.303, 2.892e-5
-1.302, 2.844e-5
-1.301, 2.787e-5
-1.300, 2.722e-5
-1.299, 2.650e-5
-1.298, 2.610e-5
-1.297, 2.565e-5
-1.296, 2.517e-5
-1.295, 2.454e-5
-1.294, 2.387e-5
-1.293, 2.344e-5
-1.292, 2.311e-5
-1.291, 2.261e-5
-1.290, 2.204e-5
-1.289, 2.144e-5
-1.288, 2.111e-5
-1.287, 2.083e-5
-1.286, 2.036e-5
-1.285, 1.990e-5
-1.284, 1.936e-5
-1.283, 1.898e-5
-1.282, 1.875e-5
-1.281, 1.841e-5
-1.280, 1.791e-5
-1.279, 1.756e-5
-1.278, 1.722e-5
-1.277, 1.707e-5
-1.276, 1.665e-5
-1.275, 1.620e-5
-1.274, 1.576e-5
-1.273, 1.544e-5
-1.272, 1.532e-5
-1.271, 1.502e-5
-1.270, 1.457e-5
-1.269, 1.419e-5
-1.268, 1.390e-5
-1.267, 1.374e-5
-1.266, 1.346e-5
-1.265, 1.304e-5
-1.264, 1.269e-5
-1.263, 1.247e-5
-1.262, 1.234e-5
-1.261, 1.218e-5
-1.260, 1.174e-5
-1.259, 1.139e-5
-1.258, 1.117e-5
-1.257, 1.097e-5
-1.256, 1.077e-5
-1.255, 1.041e-5
-1.254, 1.001e-5
-1.253, 9.888e-6
-1.252, 9.817e-6
-1.251, 9.568e-6
-1.250, 9.275e-6
-1.249, 8.937e-6
-1.248, 8.698e-6
-1.247, 8.639e-6
-1.246, 8.375e-6
-1.245, 8.118e-6
-1.244, 7.813e-6
-1.243, 7.621e-6
-1.242, 7.604e-6
-1.241, 7.445e-6
-1.240, 7.127e-6
-1.239, 6.900e-6
-1.238, 6.717e-6
-1.237, 6.648e-6
-1.236, 6.532e-6
-1.235, 6.179e-6
-1.234, 5.991e-6
-1.233, 5.811e-6
-1.232, 5.830e-6
-1.231, 5.740e-6
-1.230, 5.465e-6
-1.229, 5.198e-6
-1.228, 5.201e-6
-1.227, 5.237e-6
-1.226, 5.082e-6
-1.225, 4.675e-6
-1.224, 4.459e-6
-1.223, 4.280e-6
-1.222, 4.312e-6
-1.221, 4.251e-6
-1.220, 3.970e-6
-1.219, 3.728e-6
-1.218, 3.663e-6
-1.217, 3.721e-6
-1.216, 3.626e-6
-1.215, 3.295e-6
-1.214, 3.040e-6
-1.213, 3.024e-6
-1.212, 3.060e-6
-1.211, 2.927e-6
-1.210, 2.782e-6
-1.209, 2.548e-6
-1.208, 2.486e-6
-1.207, 2.522e-6
-1.206, 2.429e-6
-1.205, 2.230e-6
-1.204, 1.993e-6
-1.203, 1.903e-6
-1.202, 2.081e-6
-1.201, 1.989e-6
-1.200, 1.788e-6
-1.199, 1.606e-6
-1.198, 1.513e-6
-1.197, 1.569e-6
-1.196, 1.567e-6
-1.195, 1.324e-6
-1.194, 1.168e-6
-1.193, 1.087e-6
-1.192, 1.167e-6
-1.191, 1.121e-6
-1.190, 9.104e-7
-1.189, 7.417e-7
-1.188, 7.250e-7
-1.187, 7.693e-7
-1.186, 7.230e-7
-1.185, 4.961e-7
-1.184, 3.658e-7
-1.183, 3.106e-7
-1.182, 4.290e-7
-1.181, 5.000e-7
-1.180, 1.961e-7
-1.179, -9.077e-9
-1.178, -8.800e-8
-1.177, -4.953e-8
-1.176, -2.782e-8
-1.175, -2.547e-7
-1.174, -4.974e-7
-1.173, -4.116e-7
-1.172, -3.731e-7
-1.171, -4.225e-7
-1.170, -5.458e-7
-1.169, -7.668e-7
-1.168, -7.776e-7
-1.167, -6.918e-7
-1.166, -7.589e-7
-1.165, -9.631e-7
-1.164, -1.151e-6
-1.163, -1.145e-6
-1.162, -1.051e-6
-1.161, -1.138e-6
-1.160, -1.318e-6
-1.159, -1.479e-6
-1.158, -1.535e-6
-1.157, -1.450e-6
-1.156, -1.440e-6
-1.155, -1.621e-6
-1.154, -1.759e-6
-1.153, -1.784e-6
-1.152, -1.719e-6
-1.151, -1.717e-6
-1.150, -1.926e-6
-1.149, -2.042e-6
-1.148, -2.045e-6
-1.147, -2.019e-6
-1.146, -2.050e-6
-1.145, -2.242e-6
-1.144, -2.396e-6
-1.143, -2.333e-6
-1.142, -2.233e-6
-1.141, -2.182e-6
-1.140, -2.399e-6
-1.139, -2.589e-6
-1.138, -2.602e-6
-1.137, -2.508e-6
-1.136, -2.393e-6
-1.135, -2.536e-6
-1.134, -2.697e-6
-1.133, -2.692e-6
-1.132, -2.619e-6
-1.131, -2.746e-6
-1.130, -2.938e-6
-1.129, -3.141e-6
-1.128, -3.128e-6
-1.127, -3.074e-6
-1.126, -3.104e-6
-1.125, -3.247e-6
-1.124, -3.360e-6
-1.123, -3.412e-6
-1.122, -3.295e-6
-1.121, -3.352e-6
-1.120, -3.538e-6
-1.119, -3.691e-6
-1.118, -3.709e-6
-1.117, -3.576e-6
-1.116, -3.584e-6
-1.115, -3.752e-6
-1.114, -3.939e-6
-1.113, -3.987e-6
-1.112, -3.871e-6
-1.111, -3.887e-6
-1.110, -4.146e-6
-1.109, -4.264e-6
-1.108, -4.298e-6
-1.107, -4.227e-6
-1.106, -4.236e-6
-1.105, -4.369e-6
-1.104, -4.440e-6
-1.103, -4.462e-6
-1.102, -4.411e-6
-1.101, -4.382e-6
-1.100, -4.603e-6
-1.099, -4.803e-6
-1.098, -4.727e-6
-1.097, -4.697e-6
-1.096, -4.596e-6
-1.095, -4.804e-6
-1.094, -4.968e-6
-1.093, -4.978e-6
-1.092, -4.928e-6
-1.091, -4.977e-6
-1.090, -5.161e-6
-1.089, -5.399e-6
-1.088, -5.320e-6
-1.087, -5.238e-6
-1.086, -5.273e-6
-1.085, -5.351e-6
-1.084, -5.547e-6
-1.083, -5.519e-6
-1.082, -5.317e-6
-1.081, -5.420e-6
-1.080, -5.583e-6
-1.079, -5.747e-6
-1.078, -5.866e-6
-1.077, -5.750e-6
-1.076, -5.826e-6
-1.075, -6.031e-6
-1.074, -6.147e-6
-1.073, -6.161e-6
-1.072, -6.013e-6
-1.071, -6.074e-6
-1.070, -6.275e-6
-1.069, -6.355e-6
-1.068, -6.416e-6
-1.067, -6.357e-6
-1.066, -6.305e-6
-1.065, -6.316e-6
-1.064, -6.406e-6
-1.063, -6.515e-6
-1.062, -6.581e-6
-1.061, -6.567e-6
-1.060, -6.754e-6
-1.059, -7.010e-6
-1.058, -6.989e-6
-1.057, -6.952e-6
-1.056, -6.872e-6
-1.055, -7.061e-6
-1.054, -7.274e-6
-1.053, -7.296e-6
-1.052, -7.232e-6
-1.051, -7.305e-6
-1.050, -7.445e-6
-1.049, -7.711e-6
-1.048, -7.661e-6
-1.047, -7.566e-6
-1.046, -7.614e-6
-1.045, -7.691e-6
-1.044, -7.905e-6
-1.043, -7.929e-6
-1.042, -7.805e-6
-1.041, -7.865e-6
-1.040, -8.080e-6
-1.039, -8.223e-6
-1.038, -8.283e-6
-1.037, -8.176e-6
-1.036, -8.240e-6
-1.035, -8.460e-6
-1.034, -8.588e-6
-1.033, -8.663e-6
-1.032, -8.548e-6
-1.031, -8.572e-6
-1.030, -8.804e-6
-1.029, -8.924e-6
-1.028, -9.017e-6
-1.027, -8.971e-6
-1.026, -8.906e-6
-1.025, -9.172e-6
-1.024, -9.382e-6
-1.023, -9.366e-6
-1.022, -9.320e-6
-1.021, -9.326e-6
-1.020, -9.522e-6
-1.019, -9.736e-6
-1.018, -9.731e-6
-1.017, -9.673e-6
-1.016, -9.616e-6
-1.015, -9.795e-6
-1.014, -1.003e-5
-1.013, -9.936e-6
-1.012, -9.913e-6
-1.011, -9.961e-6
-1.010, -1.017e-5
-1.009, -1.037e-5
-1.008, -1.034e-5
-1.007, -1.021e-5
-1.006, -1.027e-5
-1.005, -1.050e-5
-1.004, -1.070e-5
-1.003, -1.082e-5
-1.002, -1.075e-5
-1.001, -1.084e-5
