Apr. 24, 2025   06:25:53
Cyclic Voltammetry
File: c:/users/guazh/data/banditlqround7_x0exp590_r20/2025-04-16-exp1173\exp1173-2025-04-24t06_09_35-h2koh\exp1173_cv_50mvs_efin_-1700mv.bin
Data Source:  Experiment
Instrument Model:  CHI760E
Header: CV ran at 50 mVs
Note: 

Init E (V) = -1
High E (V) = -1
Low E (V) = -1.7
Final E (V) = -1
Init P/N = N
Scan Rate (V/s) = 0.05
Segment = 7
Sample Interval (V) = 0.001
Quiet Time (sec) = 60
Sensitivity (A/V) = 0.001
Comp R (ohm) = 1.5

Results:

Channel 1:
Segment 1:

Segment 2:

Segment 3:

Segment 4:

Segment 5:

Segment 6:

Segment 7:

Potential/V, Current/A

-1.000, 7.826e-6
-1.001, 9.255e-6
-1.002, 9.826e-6
-1.003, 1.006e-5
-1.004, 1.022e-5
-1.005, 1.027e-5
-1.006, 1.047e-5
-1.007, 1.076e-5
-1.008, 1.084e-5
-1.009, 1.080e-5
-1.010, 1.082e-5
-1.011, 1.094e-5
-1.012, 1.117e-5
-1.013, 1.122e-5
-1.014, 1.114e-5
-1.015, 1.116e-5
-1.016, 1.126e-5
-1.017, 1.146e-5
-1.018, 1.154e-5
-1.019, 1.141e-5
-1.020, 1.144e-5
-1.021, 1.146e-5
-1.022, 1.163e-5
-1.023, 1.173e-5
-1.024, 1.164e-5
-1.025, 1.156e-5
-1.026, 1.172e-5
-1.027, 1.184e-5
-1.028, 1.188e-5
-1.029, 1.187e-5
-1.030, 1.176e-5
-1.031, 1.190e-5
-1.032, 1.207e-5
-1.033, 1.212e-5
-1.034, 1.207e-5
-1.035, 1.199e-5
-1.036, 1.209e-5
-1.037, 1.229e-5
-1.038, 1.233e-5
-1.039, 1.228e-5
-1.040, 1.217e-5
-1.041, 1.232e-5
-1.042, 1.253e-5
-1.043, 1.252e-5
-1.044, 1.246e-5
-1.045, 1.245e-5
-1.046, 1.251e-5
-1.047, 1.276e-5
-1.048, 1.275e-5
-1.049, 1.271e-5
-1.050, 1.269e-5
-1.051, 1.282e-5
-1.052, 1.305e-5
-1.053, 1.303e-5
-1.054, 1.299e-5
-1.055, 1.297e-5
-1.056, 1.318e-5
-1.057, 1.334e-5
-1.058, 1.342e-5
-1.059, 1.330e-5
-1.060, 1.330e-5
-1.061, 1.345e-5
-1.062, 1.358e-5
-1.063, 1.371e-5
-1.064, 1.357e-5
-1.065, 1.356e-5
-1.066, 1.371e-5
-1.067, 1.387e-5
-1.068, 1.393e-5
-1.069, 1.386e-5
-1.070, 1.380e-5
-1.071, 1.399e-5
-1.072, 1.418e-5
-1.073, 1.423e-5
-1.074, 1.420e-5
-1.075, 1.421e-5
-1.076, 1.431e-5
-1.077, 1.454e-5
-1.078, 1.458e-5
-1.079, 1.453e-5
-1.080, 1.451e-5
-1.081, 1.463e-5
-1.082, 1.488e-5
-1.083, 1.497e-5
-1.084, 1.489e-5
-1.085, 1.491e-5
-1.086, 1.502e-5
-1.087, 1.529e-5
-1.088, 1.530e-5
-1.089, 1.529e-5
-1.090, 1.531e-5
-1.091, 1.546e-5
-1.092, 1.571e-5
-1.093, 1.576e-5
-1.094, 1.568e-5
-1.095, 1.578e-5
-1.096, 1.593e-5
-1.097, 1.611e-5
-1.098, 1.624e-5
-1.099, 1.615e-5
-1.100, 1.620e-5
-1.101, 1.632e-5
-1.102, 1.655e-5
-1.103, 1.668e-5
-1.104, 1.655e-5
-1.105, 1.654e-5
-1.106, 1.676e-5
-1.107, 1.701e-5
-1.108, 1.711e-5
-1.109, 1.708e-5
-1.110, 1.711e-5
-1.111, 1.735e-5
-1.112, 1.752e-5
-1.113, 1.760e-5
-1.114, 1.758e-5
-1.115, 1.758e-5
-1.116, 1.776e-5
-1.117, 1.800e-5
-1.118, 1.805e-5
-1.119, 1.805e-5
-1.120, 1.807e-5
-1.121, 1.826e-5
-1.122, 1.852e-5
-1.123, 1.854e-5
-1.124, 1.856e-5
-1.125, 1.861e-5
-1.126, 1.881e-5
-1.127, 1.900e-5
-1.128, 1.910e-5
-1.129, 1.906e-5
-1.130, 1.917e-5
-1.131, 1.932e-5
-1.132, 1.959e-5
-1.133, 1.961e-5
-1.134, 1.963e-5
-1.135, 1.965e-5
-1.136, 1.991e-5
-1.137, 2.016e-5
-1.138, 2.030e-5
-1.139, 2.020e-5
-1.140, 2.027e-5
-1.141, 2.044e-5
-1.142, 2.068e-5
-1.143, 2.081e-5
-1.144, 2.073e-5
-1.145, 2.082e-5
-1.146, 2.102e-5
-1.147, 2.123e-5
-1.148, 2.136e-5
-1.149, 2.130e-5
-1.150, 2.137e-5
-1.151, 2.161e-5
-1.152, 2.183e-5
-1.153, 2.199e-5
-1.154, 2.201e-5
-1.155, 2.200e-5
-1.156, 2.220e-5
-1.157, 2.246e-5
-1.158, 2.259e-5
-1.159, 2.268e-5
-1.160, 2.275e-5
-1.161, 2.288e-5
-1.162, 2.318e-5
-1.163, 2.323e-5
-1.164, 2.326e-5
-1.165, 2.332e-5
-1.166, 2.357e-5
-1.167, 2.389e-5
-1.168, 2.398e-5
-1.169, 2.403e-5
-1.170, 2.414e-5
-1.171, 2.436e-5
-1.172, 2.466e-5
-1.173, 2.473e-5
-1.174, 2.473e-5
-1.175, 2.480e-5
-1.176, 2.496e-5
-1.177, 2.527e-5
-1.178, 2.542e-5
-1.179, 2.534e-5
-1.180, 2.541e-5
-1.181, 2.563e-5
-1.182, 2.586e-5
-1.183, 2.606e-5
-1.184, 2.604e-5
-1.185, 2.605e-5
-1.186, 2.634e-5
-1.187, 2.659e-5
-1.188, 2.670e-5
-1.189, 2.668e-5
-1.190, 2.670e-5
-1.191, 2.699e-5
-1.192, 2.724e-5
-1.193, 2.739e-5
-1.194, 2.735e-5
-1.195, 2.741e-5
-1.196, 2.766e-5
-1.197, 2.793e-5
-1.198, 2.808e-5
-1.199, 2.802e-5
-1.200, 2.808e-5
-1.201, 2.834e-5
-1.202, 2.859e-5
-1.203, 2.864e-5
-1.204, 2.867e-5
-1.205, 2.874e-5
-1.206, 2.899e-5
-1.207, 2.927e-5
-1.208, 2.938e-5
-1.209, 2.938e-5
-1.210, 2.942e-5
-1.211, 2.968e-5
-1.212, 2.991e-5
-1.213, 3.007e-5
-1.214, 3.001e-5
-1.215, 3.013e-5
-1.216, 3.036e-5
-1.217, 3.063e-5
-1.218, 3.079e-5
-1.219, 3.074e-5
-1.220, 3.083e-5
-1.221, 3.104e-5
-1.222, 3.132e-5
-1.223, 3.148e-5
-1.224, 3.146e-5
-1.225, 3.154e-5
-1.226, 3.186e-5
-1.227, 3.211e-5
-1.228, 3.232e-5
-1.229, 3.233e-5
-1.230, 3.236e-5
-1.231, 3.264e-5
-1.232, 3.288e-5
-1.233, 3.305e-5
-1.234, 3.306e-5
-1.235, 3.315e-5
-1.236, 3.351e-5
-1.237, 3.380e-5
-1.238, 3.398e-5
-1.239, 3.406e-5
-1.240, 3.406e-5
-1.241, 3.437e-5
-1.242, 3.470e-5
-1.243, 3.483e-5
-1.244, 3.493e-5
-1.245, 3.505e-5
-1.246, 3.535e-5
-1.247, 3.576e-5
-1.248, 3.587e-5
-1.249, 3.593e-5
-1.250, 3.608e-5
-1.251, 3.637e-5
-1.252, 3.672e-5
-1.253, 3.692e-5
-1.254, 3.703e-5
-1.255, 3.725e-5
-1.256, 3.751e-5
-1.257, 3.791e-5
-1.258, 3.817e-5
-1.259, 3.830e-5
-1.260, 3.844e-5
-1.261, 3.878e-5
-1.262, 3.917e-5
-1.263, 3.948e-5
-1.264, 3.959e-5
-1.265, 3.975e-5
-1.266, 4.017e-5
-1.267, 4.059e-5
-1.268, 4.089e-5
-1.269, 4.102e-5
-1.270, 4.127e-5
-1.271, 4.179e-5
-1.272, 4.229e-5
-1.273, 4.264e-5
-1.274, 4.289e-5
-1.275, 4.307e-5
-1.276, 4.352e-5
-1.277, 4.404e-5
-1.278, 4.438e-5
-1.279, 4.463e-5
-1.280, 4.498e-5
-1.281, 4.549e-5
-1.282, 4.597e-5
-1.283, 4.640e-5
-1.284, 4.666e-5
-1.285, 4.701e-5
-1.286, 4.753e-5
-1.287, 4.814e-5
-1.288, 4.851e-5
-1.289, 4.887e-5
-1.290, 4.932e-5
-1.291, 4.986e-5
-1.292, 5.047e-5
-1.293, 5.101e-5
-1.294, 5.137e-5
-1.295, 5.192e-5
-1.296, 5.253e-5
-1.297, 5.319e-5
-1.298, 5.378e-5
-1.299, 5.416e-5
-1.300, 5.472e-5
-1.301, 5.546e-5
-1.302, 5.620e-5
-1.303, 5.689e-5
-1.304, 5.740e-5
-1.305, 5.795e-5
-1.306, 5.866e-5
-1.307, 5.949e-5
-1.308, 6.023e-5
-1.309, 6.077e-5
-1.310, 6.135e-5
-1.311, 6.224e-5
-1.312, 6.306e-5
-1.313, 6.382e-5
-1.314, 6.447e-5
-1.315, 6.515e-5
-1.316, 6.615e-5
-1.317, 6.707e-5
-1.318, 6.785e-5
-1.319, 6.859e-5
-1.320, 6.938e-5
-1.321, 7.043e-5
-1.322, 7.150e-5
-1.323, 7.239e-5
-1.324, 7.319e-5
-1.325, 7.418e-5
-1.326, 7.522e-5
-1.327, 7.649e-5
-1.328, 7.747e-5
-1.329, 7.848e-5
-1.330, 7.950e-5
-1.331, 8.070e-5
-1.332, 8.203e-5
-1.333, 8.307e-5
-1.334, 8.412e-5
-1.335, 8.527e-5
-1.336, 8.659e-5
-1.337, 8.800e-5
-1.338, 8.927e-5
-1.339, 9.041e-5
-1.340, 9.169e-5
-1.341, 9.315e-5
-1.342, 9.484e-5
-1.343, 9.616e-5
-1.344, 9.740e-5
-1.345, 9.875e-5
-1.346, 1.004e-4
-1.347, 1.021e-4
-1.348, 1.036e-4
-1.349, 1.051e-4
-1.350, 1.068e-4
-1.351, 1.086e-4
-1.352, 1.102e-4
-1.353, 1.119e-4
-1.354, 1.135e-4
-1.355, 1.150e-4
-1.356, 1.169e-4
-1.357, 1.189e-4
-1.358, 1.207e-4
-1.359, 1.224e-4
-1.360, 1.242e-4
-1.361, 1.262e-4
-1.362, 1.282e-4
-1.363, 1.302e-4
-1.364, 1.321e-4
-1.365, 1.341e-4
-1.366, 1.363e-4
-1.367, 1.386e-4
-1.368, 1.408e-4
-1.369, 1.429e-4
-1.370, 1.450e-4
-1.371, 1.474e-4
-1.372, 1.499e-4
-1.373, 1.522e-4
-1.374, 1.545e-4
-1.375, 1.570e-4
-1.376, 1.598e-4
-1.377, 1.624e-4
-1.378, 1.650e-4
-1.379, 1.675e-4
-1.380, 1.702e-4
-1.381, 1.730e-4
-1.382, 1.760e-4
-1.383, 1.788e-4
-1.384, 1.815e-4
-1.385, 1.843e-4
-1.386, 1.875e-4
-1.387, 1.905e-4
-1.388, 1.936e-4
-1.389, 1.966e-4
-1.390, 1.996e-4
-1.391, 2.029e-4
-1.392, 2.063e-4
-1.393, 2.097e-4
-1.394, 2.129e-4
-1.395, 2.163e-4
-1.396, 2.199e-4
-1.397, 2.236e-4
-1.398, 2.273e-4
-1.399, 2.309e-4
-1.400, 2.345e-4
-1.401, 2.384e-4
-1.402, 2.426e-4
-1.403, 2.466e-4
-1.404, 2.504e-4
-1.405, 2.543e-4
-1.406, 2.584e-4
-1.407, 2.626e-4
-1.408, 2.666e-4
-1.409, 2.707e-4
-1.410, 2.750e-4
-1.411, 2.793e-4
-1.412, 2.838e-4
-1.413, 2.881e-4
-1.414, 2.924e-4
-1.415, 2.971e-4
-1.416, 3.018e-4
-1.417, 3.067e-4
-1.418, 3.114e-4
-1.419, 3.159e-4
-1.420, 3.207e-4
-1.421, 3.257e-4
-1.422, 3.307e-4
-1.423, 3.357e-4
-1.424, 3.406e-4
-1.425, 3.457e-4
-1.426, 3.510e-4
-1.427, 3.564e-4
-1.428, 3.616e-4
-1.429, 3.669e-4
-1.430, 3.724e-4
-1.431, 3.780e-4
-1.432, 3.838e-4
-1.433, 3.892e-4
-1.434, 3.949e-4
-1.435, 4.007e-4
-1.436, 4.068e-4
-1.437, 4.129e-4
-1.438, 4.189e-4
-1.439, 4.247e-4
-1.440, 4.307e-4
-1.441, 4.372e-4
-1.442, 4.436e-4
-1.443, 4.500e-4
-1.444, 4.564e-4
-1.445, 4.627e-4
-1.446, 4.698e-4
-1.447, 4.769e-4
-1.448, 4.839e-4
-1.449, 4.906e-4
-1.450, 4.973e-4
-1.451, 5.042e-4
-1.452, 5.114e-4
-1.453, 5.187e-4
-1.454, 5.260e-4
-1.455, 5.332e-4
-1.456, 5.405e-4
-1.457, 5.485e-4
-1.458, 5.565e-4
-1.459, 5.641e-4
-1.460, 5.720e-4
-1.461, 5.801e-4
-1.462, 5.881e-4
-1.463, 5.962e-4
-1.464, 6.044e-4
-1.465, 6.126e-4
-1.466, 6.214e-4
-1.467, 6.300e-4
-1.468, 6.387e-4
-1.469, 6.474e-4
-1.470, 6.562e-4
-1.471, 6.655e-4
-1.472, 6.748e-4
-1.473, 6.841e-4
-1.474, 6.932e-4
-1.475, 7.024e-4
-1.476, 7.121e-4
-1.477, 7.223e-4
-1.478, 7.328e-4
-1.479, 7.425e-4
-1.480, 7.519e-4
-1.481, 7.620e-4
-1.482, 7.726e-4
-1.483, 7.830e-4
-1.484, 7.937e-4
-1.485, 8.044e-4
-1.486, 8.155e-4
-1.487, 8.271e-4
-1.488, 8.383e-4
-1.489, 8.493e-4
-1.490, 8.601e-4
-1.491, 8.718e-4
-1.492, 8.839e-4
-1.493, 8.963e-4
-1.494, 9.082e-4
-1.495, 9.200e-4
-1.496, 9.324e-4
-1.497, 9.458e-4
-1.498, 9.587e-4
-1.499, 9.711e-4
-1.500, 9.836e-4
-1.501, 9.970e-4
-1.502, 1.011e-3
-1.503, 1.025e-3
-1.504, 1.038e-3
-1.505, 1.052e-3
-1.506, 1.066e-3
-1.507, 1.080e-3
-1.508, 1.094e-3
-1.509, 1.109e-3
-1.510, 1.123e-3
-1.511, 1.139e-3
-1.512, 1.154e-3
-1.513, 1.169e-3
-1.514, 1.185e-3
-1.515, 1.201e-3
-1.516, 1.217e-3
-1.517, 1.233e-3
-1.518, 1.249e-3
-1.519, 1.266e-3
-1.520, 1.283e-3
-1.521, 1.300e-3
-1.522, 1.318e-3
-1.523, 1.335e-3
-1.524, 1.353e-3
-1.525, 1.370e-3
-1.526, 1.389e-3
-1.527, 1.408e-3
-1.528, 1.427e-3
-1.529, 1.445e-3
-1.530, 1.464e-3
-1.531, 1.483e-3
-1.532, 1.504e-3
-1.533, 1.524e-3
-1.534, 1.544e-3
-1.535, 1.565e-3
-1.536, 1.585e-3
-1.537, 1.607e-3
-1.538, 1.627e-3
-1.539, 1.649e-3
-1.540, 1.672e-3
-1.541, 1.693e-3
-1.542, 1.717e-3
-1.543, 1.740e-3
-1.544, 1.763e-3
-1.545, 1.785e-3
-1.546, 1.809e-3
-1.547, 1.834e-3
-1.548, 1.860e-3
-1.549, 1.883e-3
-1.550, 1.908e-3
-1.551, 1.934e-3
-1.552, 1.961e-3
-1.553, 1.989e-3
-1.554, 2.016e-3
-1.555, 2.042e-3
-1.556, 2.066e-3
-1.557, 2.093e-3
-1.558, 2.122e-3
-1.559, 2.152e-3
-1.560, 2.179e-3
-1.561, 2.207e-3
-1.562, 2.236e-3
-1.563, 2.267e-3
-1.564, 2.297e-3
-1.565, 2.324e-3
-1.566, 2.353e-3
-1.567, 2.385e-3
-1.568, 2.416e-3
-1.569, 2.450e-3
-1.570, 2.483e-3
-1.571, 2.514e-3
-1.572, 2.545e-3
-1.573, 2.577e-3
-1.574, 2.611e-3
-1.575, 2.641e-3
-1.576, 2.673e-3
-1.577, 2.709e-3
-1.578, 2.743e-3
-1.579, 2.777e-3
-1.580, 2.813e-3
-1.581, 2.852e-3
-1.582, 2.890e-3
-1.583, 2.926e-3
-1.584, 2.960e-3
-1.585, 2.997e-3
-1.586, 3.034e-3
-1.587, 3.073e-3
-1.588, 3.116e-3
-1.589, 3.156e-3
-1.590, 3.188e-3
-1.591, 3.231e-3
-1.592, 3.274e-3
-1.593, 3.313e-3
-1.594, 3.349e-3
-1.595, 3.384e-3
-1.596, 3.425e-3
-1.597, 3.472e-3
-1.598, 3.519e-3
-1.599, 3.563e-3
-1.600, 3.609e-3
-1.601, 3.651e-3
-1.602, 3.699e-3
-1.603, 3.747e-3
-1.604, 3.791e-3
-1.605, 3.832e-3
-1.606, 3.878e-3
-1.607, 3.926e-3
-1.608, 3.973e-3
-1.609, 4.018e-3
-1.610, 4.071e-3
-1.611, 4.128e-3
-1.612, 4.174e-3
-1.613, 4.217e-3
-1.614, 4.274e-3
-1.615, 4.335e-3
-1.616, 4.392e-3
-1.617, 4.449e-3
-1.618, 4.506e-3
-1.619, 4.554e-3
-1.620, 4.607e-3
-1.621, 4.663e-3
-1.622, 4.715e-3
-1.623, 4.760e-3
-1.624, 4.810e-3
-1.625, 4.865e-3
-1.626, 4.907e-3
-1.627, 4.916e-3
-1.628, 4.967e-3
-1.629, 5.032e-3
-1.630, 5.092e-3
-1.631, 5.148e-3
-1.632, 5.207e-3
-1.633, 5.290e-3
-1.634, 5.359e-3
-1.635, 5.436e-3
-1.636, 5.495e-3
-1.637, 5.539e-3
-1.638, 5.602e-3
-1.639, 5.659e-3
-1.640, 5.723e-3
-1.641, 5.776e-3
-1.642, 5.821e-3
-1.643, 5.897e-3
-1.644, 5.975e-3
-1.645, 6.021e-3
-1.646, 6.086e-3
-1.647, 6.153e-3
-1.648, 6.219e-3
-1.649, 6.279e-3
-1.650, 6.342e-3
-1.651, 6.424e-3
-1.652, 6.496e-3
-1.653, 6.557e-3
-1.654, 6.628e-3
-1.655, 6.698e-3
-1.656, 6.780e-3
-1.657, 6.839e-3
-1.658, 6.893e-3
-1.659, 6.961e-3
-1.660, 7.014e-3
-1.661, 7.074e-3
-1.662, 7.140e-3
-1.663, 7.195e-3
-1.664, 7.265e-3
-1.665, 7.343e-3
-1.666, 7.415e-3
-1.667, 7.508e-3
-1.668, 7.571e-3
-1.669, 7.630e-3
-1.670, 7.700e-3
-1.671, 7.777e-3
-1.672, 7.847e-3
-1.673, 7.934e-3
-1.674, 8.006e-3
-1.675, 8.089e-3
-1.676, 8.183e-3
-1.677, 8.259e-3
-1.678, 8.315e-3
-1.679, 8.372e-3
-1.680, 8.446e-3
-1.681, 8.511e-3
-1.682, 8.591e-3
-1.683, 8.686e-3
-1.684, 8.731e-3
-1.685, 8.799e-3
-1.686, 8.864e-3
-1.687, 8.915e-3
-1.688, 9.002e-3
-1.689, 9.086e-3
-1.690, 9.166e-3
-1.691, 9.265e-3
-1.692, 9.295e-3
-1.693, 9.355e-3
-1.694, 9.421e-3
-1.695, 9.507e-3
-1.696, 9.636e-3
-1.697, 9.727e-3
-1.698, 9.825e-3
-1.699, 1.005e-2
-1.700, 1.011e-2
-1.699, 1.010e-2
-1.698, 1.002e-2
-1.697, 9.918e-3
-1.696, 9.818e-3
-1.695, 9.778e-3
-1.694, 9.689e-3
-1.693, 9.574e-3
-1.692, 9.495e-3
-1.691, 9.449e-3
-1.690, 9.465e-3
-1.689, 9.393e-3
-1.688, 9.311e-3
-1.687, 9.236e-3
-1.686, 9.150e-3
-1.685, 9.095e-3
-1.684, 9.036e-3
-1.683, 8.978e-3
-1.682, 8.953e-3
-1.681, 8.889e-3
-1.680, 8.799e-3
-1.679, 8.716e-3
-1.678, 8.650e-3
-1.677, 8.595e-3
-1.676, 8.544e-3
-1.675, 8.483e-3
-1.674, 8.412e-3
-1.673, 8.362e-3
-1.672, 8.324e-3
-1.671, 8.271e-3
-1.670, 8.196e-3
-1.669, 8.127e-3
-1.668, 8.066e-3
-1.667, 8.022e-3
-1.666, 7.960e-3
-1.665, 7.889e-3
-1.664, 7.822e-3
-1.663, 7.771e-3
-1.662, 7.712e-3
-1.661, 7.639e-3
-1.660, 7.597e-3
-1.659, 7.553e-3
-1.658, 7.474e-3
-1.657, 7.399e-3
-1.656, 7.337e-3
-1.655, 7.273e-3
-1.654, 7.202e-3
-1.653, 7.146e-3
-1.652, 7.109e-3
-1.651, 7.064e-3
-1.650, 7.009e-3
-1.649, 6.968e-3
-1.648, 6.906e-3
-1.647, 6.849e-3
-1.646, 6.810e-3
-1.645, 6.767e-3
-1.644, 6.688e-3
-1.643, 6.608e-3
-1.642, 6.536e-3
-1.641, 6.502e-3
-1.640, 6.466e-3
-1.639, 6.400e-3
-1.638, 6.338e-3
-1.637, 6.284e-3
-1.636, 6.229e-3
-1.635, 6.155e-3
-1.634, 6.090e-3
-1.633, 6.034e-3
-1.632, 5.979e-3
-1.631, 5.929e-3
-1.630, 5.869e-3
-1.629, 5.816e-3
-1.628, 5.772e-3
-1.627, 5.715e-3
-1.626, 5.655e-3
-1.625, 5.605e-3
-1.624, 5.555e-3
-1.623, 5.497e-3
-1.622, 5.452e-3
-1.621, 5.405e-3
-1.620, 5.355e-3
-1.619, 5.305e-3
-1.618, 5.250e-3
-1.617, 5.203e-3
-1.616, 5.150e-3
-1.615, 5.096e-3
-1.614, 5.042e-3
-1.613, 4.998e-3
-1.612, 4.952e-3
-1.611, 4.908e-3
-1.610, 4.863e-3
-1.609, 4.811e-3
-1.608, 4.761e-3
-1.607, 4.703e-3
-1.606, 4.649e-3
-1.605, 4.602e-3
-1.604, 4.571e-3
-1.603, 4.533e-3
-1.602, 4.501e-3
-1.601, 4.465e-3
-1.600, 4.418e-3
-1.599, 4.370e-3
-1.598, 4.319e-3
-1.597, 4.276e-3
-1.596, 4.232e-3
-1.595, 4.179e-3
-1.594, 4.130e-3
-1.593, 4.078e-3
-1.592, 4.034e-3
-1.591, 3.984e-3
-1.590, 3.941e-3
-1.589, 3.901e-3
-1.588, 3.861e-3
-1.587, 3.824e-3
-1.586, 3.789e-3
-1.585, 3.748e-3
-1.584, 3.703e-3
-1.583, 3.660e-3
-1.582, 3.616e-3
-1.581, 3.579e-3
-1.580, 3.544e-3
-1.579, 3.503e-3
-1.578, 3.462e-3
-1.577, 3.418e-3
-1.576, 3.374e-3
-1.575, 3.333e-3
-1.574, 3.292e-3
-1.573, 3.260e-3
-1.572, 3.225e-3
-1.571, 3.186e-3
-1.570, 3.147e-3
-1.569, 3.106e-3
-1.568, 3.064e-3
-1.567, 3.025e-3
-1.566, 2.991e-3
-1.565, 2.959e-3
-1.564, 2.924e-3
-1.563, 2.885e-3
-1.562, 2.853e-3
-1.561, 2.818e-3
-1.560, 2.781e-3
-1.559, 2.747e-3
-1.558, 2.713e-3
-1.557, 2.678e-3
-1.556, 2.643e-3
-1.555, 2.608e-3
-1.554, 2.573e-3
-1.553, 2.542e-3
-1.552, 2.506e-3
-1.551, 2.469e-3
-1.550, 2.436e-3
-1.549, 2.403e-3
-1.548, 2.370e-3
-1.547, 2.337e-3
-1.546, 2.305e-3
-1.545, 2.270e-3
-1.544, 2.239e-3
-1.543, 2.210e-3
-1.542, 2.180e-3
-1.541, 2.153e-3
-1.540, 2.125e-3
-1.539, 2.098e-3
-1.538, 2.068e-3
-1.537, 2.038e-3
-1.536, 2.008e-3
-1.535, 1.978e-3
-1.534, 1.950e-3
-1.533, 1.922e-3
-1.532, 1.897e-3
-1.531, 1.872e-3
-1.530, 1.845e-3
-1.529, 1.818e-3
-1.528, 1.792e-3
-1.527, 1.766e-3
-1.526, 1.739e-3
-1.525, 1.714e-3
-1.524, 1.688e-3
-1.523, 1.663e-3
-1.522, 1.639e-3
-1.521, 1.614e-3
-1.520, 1.591e-3
-1.519, 1.567e-3
-1.518, 1.544e-3
-1.517, 1.520e-3
-1.516, 1.496e-3
-1.515, 1.474e-3
-1.514, 1.451e-3
-1.513, 1.428e-3
-1.512, 1.406e-3
-1.511, 1.383e-3
-1.510, 1.361e-3
-1.509, 1.340e-3
-1.508, 1.320e-3
-1.507, 1.298e-3
-1.506, 1.277e-3
-1.505, 1.256e-3
-1.504, 1.236e-3
-1.503, 1.216e-3
-1.502, 1.197e-3
-1.501, 1.178e-3
-1.500, 1.157e-3
-1.499, 1.138e-3
-1.498, 1.120e-3
-1.497, 1.101e-3
-1.496, 1.082e-3
-1.495, 1.064e-3
-1.494, 1.046e-3
-1.493, 1.028e-3
-1.492, 1.011e-3
-1.491, 9.941e-4
-1.490, 9.769e-4
-1.489, 9.605e-4
-1.488, 9.441e-4
-1.487, 9.278e-4
-1.486, 9.117e-4
-1.485, 8.957e-4
-1.484, 8.799e-4
-1.483, 8.648e-4
-1.482, 8.501e-4
-1.481, 8.350e-4
-1.480, 8.201e-4
-1.479, 8.055e-4
-1.478, 7.917e-4
-1.477, 7.782e-4
-1.476, 7.639e-4
-1.475, 7.502e-4
-1.474, 7.368e-4
-1.473, 7.237e-4
-1.472, 7.109e-4
-1.471, 6.979e-4
-1.470, 6.851e-4
-1.469, 6.724e-4
-1.468, 6.602e-4
-1.467, 6.486e-4
-1.466, 6.366e-4
-1.465, 6.244e-4
-1.464, 6.130e-4
-1.463, 6.018e-4
-1.462, 5.910e-4
-1.461, 5.801e-4
-1.460, 5.692e-4
-1.459, 5.584e-4
-1.458, 5.480e-4
-1.457, 5.378e-4
-1.456, 5.278e-4
-1.455, 5.174e-4
-1.454, 5.079e-4
-1.453, 4.987e-4
-1.452, 4.896e-4
-1.451, 4.803e-4
-1.450, 4.710e-4
-1.449, 4.619e-4
-1.448, 4.532e-4
-1.447, 4.447e-4
-1.446, 4.362e-4
-1.445, 4.278e-4
-1.444, 4.197e-4
-1.443, 4.118e-4
-1.442, 4.040e-4
-1.441, 3.966e-4
-1.440, 3.888e-4
-1.439, 3.811e-4
-1.438, 3.739e-4
-1.437, 3.670e-4
-1.436, 3.596e-4
-1.435, 3.523e-4
-1.434, 3.454e-4
-1.433, 3.388e-4
-1.432, 3.323e-4
-1.431, 3.259e-4
-1.430, 3.192e-4
-1.429, 3.129e-4
-1.428, 3.069e-4
-1.427, 3.008e-4
-1.426, 2.948e-4
-1.425, 2.888e-4
-1.424, 2.831e-4
-1.423, 2.776e-4
-1.422, 2.722e-4
-1.421, 2.669e-4
-1.420, 2.615e-4
-1.419, 2.563e-4
-1.418, 2.513e-4
-1.417, 2.464e-4
-1.416, 2.414e-4
-1.415, 2.364e-4
-1.414, 2.316e-4
-1.413, 2.271e-4
-1.412, 2.226e-4
-1.411, 2.182e-4
-1.410, 2.137e-4
-1.409, 2.092e-4
-1.408, 2.053e-4
-1.407, 2.013e-4
-1.406, 1.970e-4
-1.405, 1.931e-4
-1.404, 1.892e-4
-1.403, 1.854e-4
-1.402, 1.819e-4
-1.401, 1.781e-4
-1.400, 1.743e-4
-1.399, 1.707e-4
-1.398, 1.674e-4
-1.397, 1.642e-4
-1.396, 1.607e-4
-1.395, 1.573e-4
-1.394, 1.542e-4
-1.393, 1.510e-4
-1.392, 1.482e-4
-1.391, 1.452e-4
-1.390, 1.421e-4
-1.389, 1.392e-4
-1.388, 1.364e-4
-1.387, 1.337e-4
-1.386, 1.310e-4
-1.385, 1.282e-4
-1.384, 1.257e-4
-1.383, 1.232e-4
-1.382, 1.208e-4
-1.381, 1.184e-4
-1.380, 1.160e-4
-1.379, 1.139e-4
-1.378, 1.119e-4
-1.377, 1.097e-4
-1.376, 1.075e-4
-1.375, 1.052e-4
-1.374, 1.030e-4
-1.373, 1.011e-4
-1.372, 9.924e-5
-1.371, 9.723e-5
-1.370, 9.521e-5
-1.369, 9.333e-5
-1.368, 9.155e-5
-1.367, 8.983e-5
-1.366, 8.788e-5
-1.365, 8.607e-5
-1.364, 8.425e-5
-1.363, 8.258e-5
-1.362, 8.111e-5
-1.361, 7.944e-5
-1.360, 7.760e-5
-1.359, 7.604e-5
-1.358, 7.463e-5
-1.357, 7.331e-5
-1.356, 7.177e-5
-1.355, 7.015e-5
-1.354, 6.863e-5
-1.353, 6.742e-5
-1.352, 6.623e-5
-1.351, 6.483e-5
-1.350, 6.335e-5
-1.349, 6.207e-5
-1.348, 6.094e-5
-1.347, 5.977e-5
-1.346, 5.865e-5
-1.345, 5.727e-5
-1.344, 5.611e-5
-1.343, 5.512e-5
-1.342, 5.408e-5
-1.341, 5.300e-5
-1.340, 5.187e-5
-1.339, 5.073e-5
-1.338, 4.992e-5
-1.337, 4.899e-5
-1.336, 4.800e-5
-1.335, 4.690e-5
-1.334, 4.586e-5
-1.333, 4.513e-5
-1.332, 4.427e-5
-1.331, 4.336e-5
-1.330, 4.252e-5
-1.329, 4.160e-5
-1.328, 4.099e-5
-1.327, 4.034e-5
-1.326, 3.948e-5
-1.325, 3.860e-5
-1.324, 3.781e-5
-1.323, 3.721e-5
-1.322, 3.657e-5
-1.321, 3.576e-5
-1.320, 3.499e-5
-1.319, 3.425e-5
-1.318, 3.359e-5
-1.317, 3.313e-5
-1.316, 3.248e-5
-1.315, 3.163e-5
-1.314, 3.100e-5
-1.313, 3.044e-5
-1.312, 3.007e-5
-1.311, 2.942e-5
-1.310, 2.865e-5
-1.309, 2.806e-5
-1.308, 2.762e-5
-1.307, 2.717e-5
-1.306, 2.670e-5
-1.305, 2.596e-5
-1.304, 2.543e-5
-1.303, 2.503e-5
-1.302, 2.464e-5
-1.301, 2.420e-5
-1.300, 2.360e-5
-1.299, 2.308e-5
-1.298, 2.275e-5
-1.297, 2.246e-5
-1.296, 2.203e-5
-1.295, 2.143e-5
-1.294, 2.091e-5
-1.293, 2.066e-5
-1.292, 2.042e-5
-1.291, 2.001e-5
-1.290, 1.953e-5
-1.289, 1.903e-5
-1.288, 1.884e-5
-1.287, 1.863e-5
-1.286, 1.829e-5
-1.285, 1.793e-5
-1.284, 1.748e-5
-1.283, 1.720e-5
-1.282, 1.709e-5
-1.281, 1.675e-5
-1.280, 1.628e-5
-1.279, 1.591e-5
-1.278, 1.568e-5
-1.277, 1.556e-5
-1.276, 1.525e-5
-1.275, 1.480e-5
-1.274, 1.443e-5
-1.273, 1.426e-5
-1.272, 1.415e-5
-1.271, 1.391e-5
-1.270, 1.347e-5
-1.269, 1.320e-5
-1.268, 1.299e-5
-1.267, 1.289e-5
-1.266, 1.263e-5
-1.265, 1.227e-5
-1.264, 1.194e-5
-1.263, 1.181e-5
-1.262, 1.169e-5
-1.261, 1.147e-5
-1.260, 1.114e-5
-1.259, 1.083e-5
-1.258, 1.071e-5
-1.257, 1.064e-5
-1.256, 1.045e-5
-1.255, 1.012e-5
-1.254, 9.805e-6
-1.253, 9.713e-6
-1.252, 9.690e-6
-1.251, 9.514e-6
-1.250, 9.233e-6
-1.249, 8.947e-6
-1.248, 8.880e-6
-1.247, 8.851e-6
-1.246, 8.628e-6
-1.245, 8.413e-6
-1.244, 8.130e-6
-1.243, 7.987e-6
-1.242, 7.977e-6
-1.241, 7.797e-6
-1.240, 7.527e-6
-1.239, 7.307e-6
-1.238, 7.173e-6
-1.237, 7.269e-6
-1.236, 7.072e-6
-1.235, 6.733e-6
-1.234, 6.521e-6
-1.233, 6.428e-6
-1.232, 6.489e-6
-1.231, 6.393e-6
-1.230, 6.155e-6
-1.229, 5.779e-6
-1.228, 5.815e-6
-1.227, 5.803e-6
-1.226, 5.655e-6
-1.225, 5.390e-6
-1.224, 5.190e-6
-1.223, 5.133e-6
-1.222, 5.133e-6
-1.221, 5.085e-6
-1.220, 4.827e-6
-1.219, 4.497e-6
-1.218, 4.491e-6
-1.217, 4.524e-6
-1.216, 4.407e-6
-1.215, 4.160e-6
-1.214, 3.882e-6
-1.213, 3.886e-6
-1.212, 3.926e-6
-1.211, 3.740e-6
-1.210, 3.599e-6
-1.209, 3.328e-6
-1.208, 3.307e-6
-1.207, 3.376e-6
-1.206, 3.200e-6
-1.205, 2.983e-6
-1.204, 2.811e-6
-1.203, 2.704e-6
-1.202, 2.775e-6
-1.201, 2.675e-6
-1.200, 2.511e-6
-1.199, 2.268e-6
-1.198, 2.213e-6
-1.197, 2.359e-6
-1.196, 2.264e-6
-1.195, 2.063e-6
-1.194, 1.778e-6
-1.193, 1.717e-6
-1.192, 1.867e-6
-1.191, 1.761e-6
-1.190, 1.480e-6
-1.189, 1.259e-6
-1.188, 1.270e-6
-1.187, 1.302e-6
-1.186, 1.282e-6
-1.185, 9.578e-7
-1.184, 7.920e-7
-1.183, 7.437e-7
-1.182, 7.881e-7
-1.181, 7.753e-7
-1.180, 4.842e-7
-1.179, 2.238e-7
-1.178, 1.784e-7
-1.177, 2.198e-7
-1.176, 2.553e-7
-1.175, -3.157e-9
-1.174, -2.202e-7
-1.173, -1.975e-7
-1.172, -1.344e-7
-1.171, -2.449e-7
-1.170, -4.856e-7
-1.169, -7.125e-7
-1.168, -7.707e-7
-1.167, -7.096e-7
-1.166, -7.944e-7
-1.165, -9.335e-7
-1.164, -1.182e-6
-1.163, -1.223e-6
-1.162, -1.136e-6
-1.161, -1.215e-6
-1.160, -1.492e-6
-1.159, -1.664e-6
-1.158, -1.768e-6
-1.157, -1.709e-6
-1.156, -1.696e-6
-1.155, -2.010e-6
-1.154, -2.163e-6
-1.153, -2.275e-6
-1.152, -2.176e-6
-1.151, -2.206e-6
-1.150, -2.530e-6
-1.149, -2.666e-6
-1.148, -2.735e-6
-1.147, -2.704e-6
-1.146, -2.704e-6
-1.145, -2.975e-6
-1.144, -3.073e-6
-1.143, -3.094e-6
-1.142, -3.102e-6
-1.141, -3.054e-6
-1.140, -3.311e-6
-1.139, -3.595e-6
-1.138, -3.601e-6
-1.137, -3.503e-6
-1.136, -3.496e-6
-1.135, -3.810e-6
-1.134, -4.079e-6
-1.133, -4.066e-6
-1.132, -4.010e-6
-1.131, -4.044e-6
-1.130, -4.320e-6
-1.129, -4.470e-6
-1.128, -4.538e-6
-1.127, -4.499e-6
-1.126, -4.542e-6
-1.125, -4.783e-6
-1.124, -5.056e-6
-1.123, -5.149e-6
-1.122, -5.043e-6
-1.121, -5.008e-6
-1.120, -5.266e-6
-1.119, -5.470e-6
-1.118, -5.595e-6
-1.117, -5.441e-6
-1.116, -5.464e-6
-1.115, -5.812e-6
-1.114, -5.974e-6
-1.113, -6.080e-6
-1.112, -5.996e-6
-1.111, -5.966e-6
-1.110, -6.290e-6
-1.109, -6.480e-6
-1.108, -6.508e-6
-1.107, -6.509e-6
-1.106, -6.474e-6
-1.105, -6.755e-6
-1.104, -6.956e-6
-1.103, -7.036e-6
-1.102, -7.032e-6
-1.101, -6.951e-6
-1.100, -7.218e-6
-1.099, -7.488e-6
-1.098, -7.505e-6
-1.097, -7.466e-6
-1.096, -7.433e-6
-1.095, -7.665e-6
-1.094, -7.863e-6
-1.093, -7.855e-6
-1.092, -7.684e-6
-1.091, -7.717e-6
-1.090, -7.957e-6
-1.089, -8.262e-6
-1.088, -8.287e-6
-1.087, -8.266e-6
-1.086, -8.278e-6
-1.085, -8.503e-6
-1.084, -8.711e-6
-1.083, -8.832e-6
-1.082, -8.719e-6
-1.081, -8.761e-6
-1.080, -8.910e-6
-1.079, -9.199e-6
-1.078, -9.271e-6
-1.077, -9.217e-6
-1.076, -9.278e-6
-1.075, -9.552e-6
-1.074, -9.742e-6
-1.073, -9.857e-6
-1.072, -9.687e-6
-1.071, -9.701e-6
-1.070, -9.988e-6
-1.069, -1.022e-5
-1.068, -1.031e-5
-1.067, -1.020e-5
-1.066, -1.012e-5
-1.065, -1.048e-5
-1.064, -1.065e-5
-1.063, -1.075e-5
-1.062, -1.071e-5
-1.061, -1.068e-5
-1.060, -1.081e-5
-1.059, -1.112e-5
-1.058, -1.109e-5
-1.057, -1.113e-5
-1.056, -1.105e-5
-1.055, -1.131e-5
-1.054, -1.165e-5
-1.053, -1.167e-5
-1.052, -1.156e-5
-1.051, -1.156e-5
-1.050, -1.179e-5
-1.049, -1.209e-5
-1.048, -1.217e-5
-1.047, -1.210e-5
-1.046, -1.213e-5
-1.045, -1.233e-5
-1.044, -1.255e-5
-1.043, -1.271e-5
-1.042, -1.256e-5
-1.041, -1.262e-5
-1.040, -1.279e-5
-1.039, -1.305e-5
-1.038, -1.319e-5
-1.037, -1.309e-5
-1.036, -1.311e-5
-1.035, -1.332e-5
-1.034, -1.358e-5
-1.033, -1.372e-5
-1.032, -1.354e-5
-1.031, -1.354e-5
-1.030, -1.381e-5
-1.029, -1.403e-5
-1.028, -1.413e-5
-1.027, -1.410e-5
-1.026, -1.395e-5
-1.025, -1.422e-5
-1.024, -1.448e-5
-1.023, -1.450e-5
-1.022, -1.447e-5
-1.021, -1.440e-5
-1.020, -1.463e-5
-1.019, -1.492e-5
-1.018, -1.498e-5
-1.017, -1.498e-5
-1.016, -1.490e-5
-1.015, -1.513e-5
-1.014, -1.542e-5
-1.013, -1.548e-5
-1.012, -1.540e-5
-1.011, -1.544e-5
-1.010, -1.561e-5
-1.009, -1.589e-5
-1.008, -1.596e-5
-1.007, -1.594e-5
-1.006, -1.589e-5
-1.005, -1.597e-5
-1.004, -1.617e-5
-1.003, -1.627e-5
-1.002, -1.616e-5
-1.001, -1.619e-5
-1.000, -7.472e-6
-1.001, -2.679e-6
-1.002, -6.296e-7
-1.003, 9.361e-7
-1.004, 2.262e-6
-1.005, 3.151e-6
-1.006, 3.758e-6
-1.007, 4.587e-6
-1.008, 5.364e-6
-1.009, 6.184e-6
-1.010, 6.666e-6
-1.011, 6.910e-6
-1.012, 7.431e-6
-1.013, 8.000e-6
-1.014, 8.620e-6
-1.015, 8.928e-6
-1.016, 9.063e-6
-1.017, 9.418e-6
-1.018, 9.923e-6
-1.019, 1.025e-5
-1.020, 1.053e-5
-1.021, 1.061e-5
-1.022, 1.088e-5
-1.023, 1.129e-5
-1.024, 1.171e-5
-1.025, 1.176e-5
-1.026, 1.180e-5
-1.027, 1.198e-5
-1.028, 1.233e-5
-1.029, 1.267e-5
-1.030, 1.276e-5
-1.031, 1.278e-5
-1.032, 1.289e-5
-1.033, 1.322e-5
-1.034, 1.352e-5
-1.035, 1.352e-5
-1.036, 1.347e-5
-1.037, 1.362e-5
-1.038, 1.388e-5
-1.039, 1.421e-5
-1.040, 1.413e-5
-1.041, 1.411e-5
-1.042, 1.424e-5
-1.043, 1.443e-5
-1.044, 1.470e-5
-1.045, 1.471e-5
-1.046, 1.461e-5
-1.047, 1.477e-5
-1.048, 1.495e-5
-1.049, 1.518e-5
-1.050, 1.524e-5
-1.051, 1.507e-5
-1.052, 1.513e-5
-1.053, 1.534e-5
-1.054, 1.553e-5
-1.055, 1.559e-5
-1.056, 1.547e-5
-1.057, 1.549e-5
-1.058, 1.579e-5
-1.059, 1.599e-5
-1.060, 1.591e-5
-1.061, 1.581e-5
-1.062, 1.588e-5
-1.063, 1.609e-5
-1.064, 1.629e-5
-1.065, 1.632e-5
-1.066, 1.615e-5
-1.067, 1.623e-5
-1.068, 1.643e-5
-1.069, 1.661e-5
-1.070, 1.654e-5
-1.071, 1.647e-5
-1.072, 1.647e-5
-1.073, 1.667e-5
-1.074, 1.687e-5
-1.075, 1.689e-5
-1.076, 1.680e-5
-1.077, 1.689e-5
-1.078, 1.704e-5
-1.079, 1.731e-5
-1.080, 1.722e-5
-1.081, 1.709e-5
-1.082, 1.713e-5
-1.083, 1.725e-5
-1.084, 1.747e-5
-1.085, 1.742e-5
-1.086, 1.731e-5
-1.087, 1.735e-5
-1.088, 1.758e-5
-1.089, 1.793e-5
-1.090, 1.793e-5
-1.091, 1.770e-5
-1.092, 1.777e-5
-1.093, 1.789e-5
-1.094, 1.802e-5
-1.095, 1.801e-5
-1.096, 1.780e-5
-1.097, 1.790e-5
-1.098, 1.809e-5
-1.099, 1.825e-5
-1.100, 1.817e-5
-1.101, 1.801e-5
-1.102, 1.803e-5
-1.103, 1.819e-5
-1.104, 1.832e-5
-1.105, 1.828e-5
-1.106, 1.820e-5
-1.107, 1.822e-5
-1.108, 1.842e-5
-1.109, 1.858e-5
-1.110, 1.853e-5
-1.111, 1.835e-5
-1.112, 1.836e-5
-1.113, 1.848e-5
-1.114, 1.868e-5
-1.115, 1.862e-5
-1.116, 1.846e-5
-1.117, 1.853e-5
-1.118, 1.870e-5
-1.119, 1.891e-5
-1.120, 1.882e-5
-1.121, 1.868e-5
-1.122, 1.875e-5
-1.123, 1.886e-5
-1.124, 1.901e-5
-1.125, 1.899e-5
-1.126, 1.884e-5
-1.127, 1.889e-5
-1.128, 1.898e-5
-1.129, 1.920e-5
-1.130, 1.918e-5
-1.131, 1.900e-5
-1.132, 1.907e-5
-1.133, 1.921e-5
-1.134, 1.933e-5
-1.135, 1.931e-5
-1.136, 1.914e-5
-1.137, 1.919e-5
-1.138, 1.937e-5
-1.139, 1.955e-5
-1.140, 1.954e-5
-1.141, 1.941e-5
-1.142, 1.942e-5
-1.143, 1.964e-5
-1.144, 1.975e-5
-1.145, 1.974e-5
-1.146, 1.961e-5
-1.147, 1.957e-5
-1.148, 1.975e-5
-1.149, 1.990e-5
-1.150, 1.990e-5
-1.151, 1.974e-5
-1.152, 1.976e-5
-1.153, 1.992e-5
-1.154, 2.017e-5
-1.155, 2.003e-5
-1.156, 1.996e-5
-1.157, 1.996e-5
-1.158, 2.016e-5
-1.159, 2.039e-5
-1.160, 2.027e-5
-1.161, 2.014e-5
-1.162, 2.015e-5
-1.163, 2.030e-5
-1.164, 2.048e-5
-1.165, 2.042e-5
-1.166, 2.028e-5
-1.167, 2.035e-5
-1.168, 2.045e-5
-1.169, 2.063e-5
-1.170, 2.060e-5
-1.171, 2.045e-5
-1.172, 2.048e-5
-1.173, 2.067e-5
-1.174, 2.081e-5
-1.175, 2.085e-5
-1.176, 2.061e-5
-1.177, 2.073e-5
-1.178, 2.088e-5
-1.179, 2.100e-5
-1.180, 2.092e-5
-1.181, 2.079e-5
-1.182, 2.086e-5
-1.183, 2.102e-5
-1.184, 2.114e-5
-1.185, 2.105e-5
-1.186, 2.094e-5
-1.187, 2.096e-5
-1.188, 2.112e-5
-1.189, 2.131e-5
-1.190, 2.126e-5
-1.191, 2.114e-5
-1.192, 2.105e-5
-1.193, 2.126e-5
-1.194, 2.148e-5
-1.195, 2.141e-5
-1.196, 2.134e-5
-1.197, 2.136e-5
-1.198, 2.152e-5
-1.199, 2.177e-5
-1.200, 2.162e-5
-1.201, 2.149e-5
-1.202, 2.155e-5
-1.203, 2.164e-5
-1.204, 2.187e-5
-1.205, 2.177e-5
-1.206, 2.165e-5
-1.207, 2.173e-5
-1.208, 2.186e-5
-1.209, 2.201e-5
-1.210, 2.195e-5
-1.211, 2.178e-5
-1.212, 2.186e-5
-1.213, 2.201e-5
-1.214, 2.218e-5
-1.215, 2.218e-5
-1.216, 2.205e-5
-1.217, 2.207e-5
-1.218, 2.232e-5
-1.219, 2.239e-5
-1.220, 2.244e-5
-1.221, 2.230e-5
-1.222, 2.235e-5
-1.223, 2.256e-5
-1.224, 2.265e-5
-1.225, 2.271e-5
-1.226, 2.265e-5
-1.227, 2.267e-5
-1.228, 2.299e-5
-1.229, 2.314e-5
-1.230, 2.308e-5
-1.231, 2.293e-5
-1.232, 2.295e-5
-1.233, 2.310e-5
-1.234, 2.336e-5
-1.235, 2.332e-5
-1.236, 2.322e-5
-1.237, 2.329e-5
-1.238, 2.347e-5
-1.239, 2.370e-5
-1.240, 2.372e-5
-1.241, 2.373e-5
-1.242, 2.384e-5
-1.243, 2.407e-5
-1.244, 2.436e-5
-1.245, 2.442e-5
-1.246, 2.436e-5
-1.247, 2.443e-5
-1.248, 2.469e-5
-1.249, 2.488e-5
-1.250, 2.491e-5
-1.251, 2.476e-5
-1.252, 2.491e-5
-1.253, 2.519e-5
-1.254, 2.534e-5
-1.255, 2.543e-5
-1.256, 2.539e-5
-1.257, 2.548e-5
-1.258, 2.575e-5
-1.259, 2.593e-5
-1.260, 2.600e-5
-1.261, 2.600e-5
-1.262, 2.604e-5
-1.263, 2.641e-5
-1.264, 2.659e-5
-1.265, 2.675e-5
-1.266, 2.670e-5
-1.267, 2.681e-5
-1.268, 2.714e-5
-1.269, 2.745e-5
-1.270, 2.754e-5
-1.271, 2.767e-5
-1.272, 2.782e-5
-1.273, 2.815e-5
-1.274, 2.847e-5
-1.275, 2.858e-5
-1.276, 2.859e-5
-1.277, 2.872e-5
-1.278, 2.910e-5
-1.279, 2.946e-5
-1.280, 2.964e-5
-1.281, 2.968e-5
-1.282, 2.988e-5
-1.283, 3.024e-5
-1.284, 3.064e-5
-1.285, 3.078e-5
-1.286, 3.095e-5
-1.287, 3.126e-5
-1.288, 3.164e-5
-1.289, 3.202e-5
-1.290, 3.220e-5
-1.291, 3.233e-5
-1.292, 3.257e-5
-1.293, 3.301e-5
-1.294, 3.346e-5
-1.295, 3.380e-5
-1.296, 3.391e-5
-1.297, 3.425e-5
-1.298, 3.475e-5
-1.299, 3.520e-5
-1.300, 3.556e-5
-1.301, 3.572e-5
-1.302, 3.600e-5
-1.303, 3.660e-5
-1.304, 3.710e-5
-1.305, 3.739e-5
-1.306, 3.774e-5
-1.307, 3.808e-5
-1.308, 3.873e-5
-1.309, 3.930e-5
-1.310, 3.969e-5
-1.311, 4.008e-5
-1.312, 4.052e-5
-1.313, 4.116e-5
-1.314, 4.187e-5
-1.315, 4.230e-5
-1.316, 4.275e-5
-1.317, 4.321e-5
-1.318, 4.392e-5
-1.319, 4.460e-5
-1.320, 4.518e-5
-1.321, 4.564e-5
-1.322, 4.615e-5
-1.323, 4.694e-5
-1.324, 4.777e-5
-1.325, 4.841e-5
-1.326, 4.894e-5
-1.327, 4.959e-5
-1.328, 5.040e-5
-1.329, 5.127e-5
-1.330, 5.201e-5
-1.331, 5.263e-5
-1.332, 5.334e-5
-1.333, 5.430e-5
-1.334, 5.529e-5
-1.335, 5.612e-5
-1.336, 5.676e-5
-1.337, 5.758e-5
-1.338, 5.871e-5
-1.339, 5.972e-5
-1.340, 6.063e-5
-1.341, 6.144e-5
-1.342, 6.242e-5
-1.343, 6.360e-5
-1.344, 6.475e-5
-1.345, 6.585e-5
-1.346, 6.686e-5
-1.347, 6.794e-5
-1.348, 6.928e-5
-1.349, 7.060e-5
-1.350, 7.172e-5
-1.351, 7.285e-5
-1.352, 7.402e-5
-1.353, 7.549e-5
-1.354, 7.696e-5
-1.355, 7.828e-5
-1.356, 7.959e-5
-1.357, 8.098e-5
-1.358, 8.258e-5
-1.359, 8.422e-5
-1.360, 8.574e-5
-1.361, 8.722e-5
-1.362, 8.875e-5
-1.363, 9.055e-5
-1.364, 9.245e-5
-1.365, 9.414e-5
-1.366, 9.578e-5
-1.367, 9.756e-5
-1.368, 9.958e-5
-1.369, 1.016e-4
-1.370, 1.037e-4
-1.371, 1.055e-4
-1.372, 1.075e-4
-1.373, 1.097e-4
-1.374, 1.120e-4
-1.375, 1.141e-4
-1.376, 1.162e-4
-1.377, 1.184e-4
-1.378, 1.209e-4
-1.379, 1.234e-4
-1.380, 1.258e-4
-1.381, 1.281e-4
-1.382, 1.306e-4
-1.383, 1.334e-4
-1.384, 1.362e-4
-1.385, 1.389e-4
-1.386, 1.415e-4
-1.387, 1.442e-4
-1.388, 1.472e-4
-1.389, 1.503e-4
-1.390, 1.533e-4
-1.391, 1.563e-4
-1.392, 1.593e-4
-1.393, 1.626e-4
-1.394, 1.661e-4
-1.395, 1.694e-4
-1.396, 1.727e-4
-1.397, 1.761e-4
-1.398, 1.796e-4
-1.399, 1.835e-4
-1.400, 1.871e-4
-1.401, 1.907e-4
-1.402, 1.945e-4
-1.403, 1.985e-4
-1.404, 2.027e-4
-1.405, 2.067e-4
-1.406, 2.107e-4
-1.407, 2.148e-4
-1.408, 2.192e-4
-1.409, 2.238e-4
-1.410, 2.283e-4
-1.411, 2.326e-4
-1.412, 2.372e-4
-1.413, 2.421e-4
-1.414, 2.471e-4
-1.415, 2.521e-4
-1.416, 2.569e-4
-1.417, 2.620e-4
-1.418, 2.673e-4
-1.419, 2.727e-4
-1.420, 2.782e-4
-1.421, 2.836e-4
-1.422, 2.892e-4
-1.423, 2.951e-4
-1.424, 3.011e-4
-1.425, 3.071e-4
-1.426, 3.132e-4
-1.427, 3.193e-4
-1.428, 3.258e-4
-1.429, 3.323e-4
-1.430, 3.388e-4
-1.431, 3.454e-4
-1.432, 3.520e-4
-1.433, 3.590e-4
-1.434, 3.663e-4
-1.435, 3.736e-4
-1.436, 3.808e-4
-1.437, 3.882e-4
-1.438, 3.958e-4
-1.439, 4.038e-4
-1.440, 4.116e-4
-1.441, 4.195e-4
-1.442, 4.276e-4
-1.443, 4.358e-4
-1.444, 4.444e-4
-1.445, 4.529e-4
-1.446, 4.617e-4
-1.447, 4.705e-4
-1.448, 4.796e-4
-1.449, 4.891e-4
-1.450, 4.984e-4
-1.451, 5.077e-4
-1.452, 5.173e-4
-1.453, 5.271e-4
-1.454, 5.374e-4
-1.455, 5.477e-4
-1.456, 5.581e-4
-1.457, 5.688e-4
-1.458, 5.795e-4
-1.459, 5.904e-4
-1.460, 6.012e-4
-1.461, 6.124e-4
-1.462, 6.239e-4
-1.463, 6.354e-4
-1.464, 6.473e-4
-1.465, 6.594e-4
-1.466, 6.714e-4
-1.467, 6.835e-4
-1.468, 6.960e-4
-1.469, 7.090e-4
-1.470, 7.221e-4
-1.471, 7.352e-4
-1.472, 7.479e-4
-1.473, 7.615e-4
-1.474, 7.760e-4
-1.475, 7.906e-4
-1.476, 8.040e-4
-1.477, 8.178e-4
-1.478, 8.323e-4
-1.479, 8.474e-4
-1.480, 8.625e-4
-1.481, 8.775e-4
-1.482, 8.925e-4
-1.483, 9.083e-4
-1.484, 9.245e-4
-1.485, 9.410e-4
-1.486, 9.579e-4
-1.487, 9.742e-4
-1.488, 9.904e-4
-1.489, 1.007e-3
-1.490, 1.025e-3
-1.491, 1.042e-3
-1.492, 1.059e-3
-1.493, 1.077e-3
-1.494, 1.095e-3
-1.495, 1.114e-3
-1.496, 1.132e-3
-1.497, 1.151e-3
-1.498, 1.171e-3
-1.499, 1.190e-3
-1.500, 1.210e-3
-1.501, 1.230e-3
-1.502, 1.249e-3
-1.503, 1.269e-3
-1.504, 1.290e-3
-1.505, 1.309e-3
-1.506, 1.329e-3
-1.507, 1.350e-3
-1.508, 1.372e-3
-1.509, 1.393e-3
-1.510, 1.415e-3
-1.511, 1.436e-3
-1.512, 1.458e-3
-1.513, 1.481e-3
-1.514, 1.504e-3
-1.515, 1.527e-3
-1.516, 1.550e-3
-1.517, 1.573e-3
-1.518, 1.595e-3
-1.519, 1.619e-3
-1.520, 1.643e-3
-1.521, 1.667e-3
-1.522, 1.692e-3
-1.523, 1.717e-3
-1.524, 1.743e-3
-1.525, 1.768e-3
-1.526, 1.794e-3
-1.527, 1.819e-3
-1.528, 1.849e-3
-1.529, 1.878e-3
-1.530, 1.905e-3
-1.531, 1.931e-3
-1.532, 1.957e-3
-1.533, 1.981e-3
-1.534, 2.006e-3
-1.535, 2.033e-3
-1.536, 2.061e-3
-1.537, 2.090e-3
-1.538, 2.119e-3
-1.539, 2.149e-3
-1.540, 2.178e-3
-1.541, 2.206e-3
-1.542, 2.235e-3
-1.543, 2.263e-3
-1.544, 2.292e-3
-1.545, 2.321e-3
-1.546, 2.352e-3
-1.547, 2.384e-3
-1.548, 2.417e-3
-1.549, 2.447e-3
-1.550, 2.476e-3
-1.551, 2.507e-3
-1.552, 2.538e-3
-1.553, 2.568e-3
-1.554, 2.599e-3
-1.555, 2.632e-3
-1.556, 2.664e-3
-1.557, 2.696e-3
-1.558, 2.727e-3
-1.559, 2.761e-3
-1.560, 2.794e-3
-1.561, 2.828e-3
-1.562, 2.861e-3
-1.563, 2.896e-3
-1.564, 2.933e-3
-1.565, 2.966e-3
-1.566, 2.998e-3
-1.567, 3.033e-3
-1.568, 3.069e-3
-1.569, 3.101e-3
-1.570, 3.136e-3
-1.571, 3.171e-3
-1.572, 3.206e-3
-1.573, 3.247e-3
-1.574, 3.291e-3
-1.575, 3.336e-3
-1.576, 3.376e-3
-1.577, 3.410e-3
-1.578, 3.441e-3
-1.579, 3.475e-3
-1.580, 3.509e-3
-1.581, 3.548e-3
-1.582, 3.589e-3
-1.583, 3.634e-3
-1.584, 3.675e-3
-1.585, 3.716e-3
-1.586, 3.757e-3
-1.587, 3.801e-3
-1.588, 3.843e-3
-1.589, 3.886e-3
-1.590, 3.932e-3
-1.591, 3.972e-3
-1.592, 4.008e-3
-1.593, 4.050e-3
-1.594, 4.093e-3
-1.595, 4.132e-3
-1.596, 4.187e-3
-1.597, 4.233e-3
-1.598, 4.275e-3
-1.599, 4.316e-3
-1.600, 4.354e-3
-1.601, 4.401e-3
-1.602, 4.444e-3
-1.603, 4.482e-3
-1.604, 4.526e-3
-1.605, 4.581e-3
-1.606, 4.635e-3
-1.607, 4.687e-3
-1.608, 4.732e-3
-1.609, 4.781e-3
-1.610, 4.826e-3
-1.611, 4.867e-3
-1.612, 4.905e-3
-1.613, 4.943e-3
-1.614, 4.996e-3
-1.615, 5.042e-3
-1.616, 5.084e-3
-1.617, 5.140e-3
-1.618, 5.192e-3
-1.619, 5.256e-3
-1.620, 5.313e-3
-1.621, 5.364e-3
-1.622, 5.408e-3
-1.623, 5.450e-3
-1.624, 5.488e-3
-1.625, 5.534e-3
-1.626, 5.604e-3
-1.627, 5.677e-3
-1.628, 5.732e-3
-1.629, 5.762e-3
-1.630, 5.821e-3
-1.631, 5.869e-3
-1.632, 5.913e-3
-1.633, 5.953e-3
-1.634, 6.008e-3
-1.635, 6.049e-3
-1.636, 6.102e-3
-1.637, 6.161e-3
-1.638, 6.221e-3
-1.639, 6.278e-3
-1.640, 6.341e-3
-1.641, 6.397e-3
-1.642, 6.433e-3
-1.643, 6.481e-3
-1.644, 6.534e-3
-1.645, 6.594e-3
-1.646, 6.659e-3
-1.647, 6.703e-3
-1.648, 6.751e-3
-1.649, 6.810e-3
-1.650, 6.891e-3
-1.651, 6.959e-3
-1.652, 7.040e-3
-1.653, 7.157e-3
-1.654, 7.216e-3
-1.655, 7.233e-3
-1.656, 7.268e-3
-1.657, 7.369e-3
-1.658, 7.452e-3
-1.659, 7.503e-3
-1.660, 7.551e-3
-1.661, 7.595e-3
-1.662, 7.652e-3
-1.663, 7.723e-3
-1.664, 7.795e-3
-1.665, 7.856e-3
-1.666, 7.907e-3
-1.667, 7.984e-3
-1.668, 8.045e-3
-1.669, 8.092e-3
-1.670, 8.156e-3
-1.671, 8.212e-3
-1.672, 8.285e-3
-1.673, 8.352e-3
-1.674, 8.415e-3
-1.675, 8.482e-3
-1.676, 8.554e-3
-1.677, 8.652e-3
-1.678, 8.721e-3
-1.679, 8.786e-3
-1.680, 8.871e-3
-1.681, 8.926e-3
-1.682, 8.978e-3
-1.683, 8.998e-3
-1.684, 9.024e-3
-1.685, 9.088e-3
-1.686, 9.162e-3
-1.687, 9.259e-3
-1.688, 9.343e-3
-1.689, 9.437e-3
-1.690, 9.518e-3
-1.691, 9.605e-3
-1.692, 9.663e-3
-1.693, 9.714e-3
-1.694, 9.788e-3
-1.695, 9.850e-3
-1.696, 9.912e-3
-1.697, 1.000e-2
-1.698, 1.010e-2
-1.699, 1.011e-2
-1.700, 1.011e-2
-1.699, 1.011e-2
-1.698, 1.011e-2
-1.697, 1.011e-2
-1.696, 1.010e-2
-1.695, 1.004e-2
-1.694, 9.928e-3
-1.693, 9.834e-3
-1.692, 9.772e-3
-1.691, 9.731e-3
-1.690, 9.693e-3
-1.689, 9.617e-3
-1.688, 9.556e-3
-1.687, 9.501e-3
-1.686, 9.429e-3
-1.685, 9.341e-3
-1.684, 9.240e-3
-1.683, 9.163e-3
-1.682, 9.093e-3
-1.681, 9.010e-3
-1.680, 8.910e-3
-1.679, 8.837e-3
-1.678, 8.808e-3
-1.677, 8.767e-3
-1.676, 8.697e-3
-1.675, 8.630e-3
-1.674, 8.549e-3
-1.673, 8.484e-3
-1.672, 8.421e-3
-1.671, 8.355e-3
-1.670, 8.289e-3
-1.669, 8.229e-3
-1.668, 8.202e-3
-1.667, 8.209e-3
-1.666, 8.146e-3
-1.665, 8.048e-3
-1.664, 7.968e-3
-1.663, 7.891e-3
-1.662, 7.833e-3
-1.661, 7.769e-3
-1.660, 7.710e-3
-1.659, 7.647e-3
-1.658, 7.591e-3
-1.657, 7.534e-3
-1.656, 7.467e-3
-1.655, 7.422e-3
-1.654, 7.365e-3
-1.653, 7.285e-3
-1.652, 7.234e-3
-1.651, 7.184e-3
-1.650, 7.115e-3
-1.649, 7.040e-3
-1.648, 6.990e-3
-1.647, 6.924e-3
-1.646, 6.857e-3
-1.645, 6.792e-3
-1.644, 6.731e-3
-1.643, 6.673e-3
-1.642, 6.617e-3
-1.641, 6.556e-3
-1.640, 6.497e-3
-1.639, 6.433e-3
-1.638, 6.370e-3
-1.637, 6.299e-3
-1.636, 6.275e-3
-1.635, 6.224e-3
-1.634, 6.180e-3
-1.633, 6.122e-3
-1.632, 6.062e-3
-1.631, 5.993e-3
-1.630, 5.926e-3
-1.629, 5.863e-3
-1.628, 5.814e-3
-1.627, 5.763e-3
-1.626, 5.718e-3
-1.625, 5.670e-3
-1.624, 5.625e-3
-1.623, 5.564e-3
-1.622, 5.505e-3
-1.621, 5.454e-3
-1.620, 5.400e-3
-1.619, 5.345e-3
-1.618, 5.303e-3
-1.617, 5.266e-3
-1.616, 5.236e-3
-1.615, 5.194e-3
-1.614, 5.151e-3
-1.613, 5.100e-3
-1.612, 5.039e-3
-1.611, 4.980e-3
-1.610, 4.924e-3
-1.609, 4.874e-3
-1.608, 4.821e-3
-1.607, 4.778e-3
-1.606, 4.724e-3
-1.605, 4.668e-3
-1.604, 4.626e-3
-1.603, 4.582e-3
-1.602, 4.525e-3
-1.601, 4.472e-3
-1.600, 4.427e-3
-1.599, 4.390e-3
-1.598, 4.337e-3
-1.597, 4.286e-3
-1.596, 4.242e-3
-1.595, 4.203e-3
-1.594, 4.151e-3
-1.593, 4.109e-3
-1.592, 4.063e-3
-1.591, 4.014e-3
-1.590, 3.968e-3
-1.589, 3.923e-3
-1.588, 3.872e-3
-1.587, 3.826e-3
-1.586, 3.787e-3
-1.585, 3.739e-3
-1.584, 3.694e-3
-1.583, 3.656e-3
-1.582, 3.615e-3
-1.581, 3.574e-3
-1.580, 3.543e-3
-1.579, 3.508e-3
-1.578, 3.462e-3
-1.577, 3.415e-3
-1.576, 3.373e-3
-1.575, 3.339e-3
-1.574, 3.295e-3
-1.573, 3.254e-3
-1.572, 3.217e-3
-1.571, 3.178e-3
-1.570, 3.137e-3
-1.569, 3.098e-3
-1.568, 3.060e-3
-1.567, 3.021e-3
-1.566, 2.980e-3
-1.565, 2.941e-3
-1.564, 2.901e-3
-1.563, 2.863e-3
-1.562, 2.828e-3
-1.561, 2.788e-3
-1.560, 2.752e-3
-1.559, 2.719e-3
-1.558, 2.689e-3
-1.557, 2.653e-3
-1.556, 2.619e-3
-1.555, 2.586e-3
-1.554, 2.549e-3
-1.553, 2.516e-3
-1.552, 2.481e-3
-1.551, 2.449e-3
-1.550, 2.418e-3
-1.549, 2.384e-3
-1.548, 2.350e-3
-1.547, 2.318e-3
-1.546, 2.286e-3
-1.545, 2.255e-3
-1.544, 2.227e-3
-1.543, 2.196e-3
-1.542, 2.165e-3
-1.541, 2.133e-3
-1.540, 2.103e-3
-1.539, 2.072e-3
-1.538, 2.040e-3
-1.537, 2.011e-3
-1.536, 1.983e-3
-1.535, 1.955e-3
-1.534, 1.927e-3
-1.533, 1.899e-3
-1.532, 1.871e-3
-1.531, 1.843e-3
-1.530, 1.817e-3
-1.529, 1.791e-3
-1.528, 1.764e-3
-1.527, 1.735e-3
-1.526, 1.708e-3
-1.525, 1.684e-3
-1.524, 1.658e-3
-1.523, 1.633e-3
-1.522, 1.608e-3
-1.521, 1.582e-3
-1.520, 1.558e-3
-1.519, 1.534e-3
-1.518, 1.510e-3
-1.517, 1.486e-3
-1.516, 1.463e-3
-1.515, 1.439e-3
-1.514, 1.416e-3
-1.513, 1.393e-3
-1.512, 1.370e-3
-1.511, 1.347e-3
-1.510, 1.324e-3
-1.509, 1.302e-3
-1.508, 1.280e-3
-1.507, 1.258e-3
-1.506, 1.237e-3
-1.505, 1.217e-3
-1.504, 1.197e-3
-1.503, 1.176e-3
-1.502, 1.156e-3
-1.501, 1.137e-3
-1.500, 1.118e-3
-1.499, 1.099e-3
-1.498, 1.080e-3
-1.497, 1.062e-3
-1.496, 1.043e-3
-1.495, 1.025e-3
-1.494, 1.008e-3
-1.493, 9.908e-4
-1.492, 9.741e-4
-1.491, 9.570e-4
-1.490, 9.408e-4
-1.489, 9.252e-4
-1.488, 9.088e-4
-1.487, 8.927e-4
-1.486, 8.764e-4
-1.485, 8.606e-4
-1.484, 8.453e-4
-1.483, 8.306e-4
-1.482, 8.160e-4
-1.481, 8.013e-4
-1.480, 7.870e-4
-1.479, 7.731e-4
-1.478, 7.590e-4
-1.477, 7.451e-4
-1.476, 7.312e-4
-1.475, 7.178e-4
-1.474, 7.050e-4
-1.473, 6.921e-4
-1.472, 6.791e-4
-1.471, 6.666e-4
-1.470, 6.540e-4
-1.469, 6.426e-4
-1.468, 6.307e-4
-1.467, 6.186e-4
-1.466, 6.069e-4
-1.465, 5.957e-4
-1.464, 5.846e-4
-1.463, 5.737e-4
-1.462, 5.627e-4
-1.461, 5.519e-4
-1.460, 5.416e-4
-1.459, 5.314e-4
-1.458, 5.211e-4
-1.457, 5.111e-4
-1.456, 5.014e-4
-1.455, 4.917e-4
-1.454, 4.822e-4
-1.453, 4.728e-4
-1.452, 4.635e-4
-1.451, 4.545e-4
-1.450, 4.459e-4
-1.449, 4.374e-4
-1.448, 4.289e-4
-1.447, 4.204e-4
-1.446, 4.122e-4
-1.445, 4.044e-4
-1.444, 3.965e-4
-1.443, 3.885e-4
-1.442, 3.808e-4
-1.441, 3.730e-4
-1.440, 3.661e-4
-1.439, 3.592e-4
-1.438, 3.520e-4
-1.437, 3.450e-4
-1.436, 3.383e-4
-1.435, 3.315e-4
-1.434, 3.249e-4
-1.433, 3.183e-4
-1.432, 3.119e-4
-1.431, 3.056e-4
-1.430, 2.997e-4
-1.429, 2.938e-4
-1.428, 2.877e-4
-1.427, 2.816e-4
-1.426, 2.767e-4
-1.425, 2.716e-4
-1.424, 2.666e-4
-1.423, 2.611e-4
-1.422, 2.557e-4
-1.421, 2.506e-4
-1.420, 2.457e-4
-1.419, 2.409e-4
-1.418, 2.358e-4
-1.417, 2.310e-4
-1.416, 2.264e-4
-1.415, 2.220e-4
-1.414, 2.176e-4
-1.413, 2.131e-4
-1.412, 2.087e-4
-1.411, 2.044e-4
-1.410, 2.005e-4
-1.409, 1.964e-4
-1.408, 1.924e-4
-1.407, 1.885e-4
-1.406, 1.848e-4
-1.405, 1.811e-4
-1.404, 1.774e-4
-1.403, 1.737e-4
-1.402, 1.700e-4
-1.401, 1.665e-4
-1.400, 1.633e-4
-1.399, 1.600e-4
-1.398, 1.566e-4
-1.397, 1.532e-4
-1.396, 1.502e-4
-1.395, 1.471e-4
-1.394, 1.443e-4
-1.393, 1.412e-4
-1.392, 1.382e-4
-1.391, 1.354e-4
-1.390, 1.327e-4
-1.389, 1.302e-4
-1.388, 1.273e-4
-1.387, 1.246e-4
-1.386, 1.221e-4
-1.385, 1.198e-4
-1.384, 1.174e-4
-1.383, 1.149e-4
-1.382, 1.124e-4
-1.381, 1.101e-4
-1.380, 1.081e-4
-1.379, 1.059e-4
-1.378, 1.036e-4
-1.377, 1.014e-4
-1.376, 9.928e-5
-1.375, 9.742e-5
-1.374, 9.549e-5
-1.373, 9.348e-5
-1.372, 9.144e-5
-1.371, 8.952e-5
-1.370, 8.779e-5
-1.369, 8.607e-5
-1.368, 8.419e-5
-1.367, 8.228e-5
-1.366, 8.060e-5
-1.365, 7.913e-5
-1.364, 7.760e-5
-1.363, 7.589e-5
-1.362, 7.420e-5
-1.361, 7.272e-5
-1.360, 7.149e-5
-1.359, 7.013e-5
-1.358, 6.862e-5
-1.357, 6.709e-5
-1.356, 6.568e-5
-1.355, 6.440e-5
-1.354, 6.317e-5
-1.353, 6.179e-5
-1.352, 6.037e-5
-1.351, 5.916e-5
-1.350, 5.798e-5
-1.349, 5.692e-5
-1.348, 5.571e-5
-1.347, 5.434e-5
-1.346, 5.322e-5
-1.345, 5.221e-5
-1.344, 5.128e-5
-1.343, 5.019e-5
-1.342, 4.894e-5
-1.341, 4.793e-5
-1.340, 4.707e-5
-1.339, 4.618e-5
-1.338, 4.521e-5
-1.337, 4.411e-5
-1.336, 4.325e-5
-1.335, 4.240e-5
-1.334, 4.161e-5
-1.333, 4.072e-5
-1.332, 3.977e-5
-1.331, 3.886e-5
-1.330, 3.820e-5
-1.329, 3.751e-5
-1.328, 3.670e-5
-1.327, 3.583e-5
-1.326, 3.502e-5
-1.325, 3.446e-5
-1.324, 3.381e-5
-1.323, 3.302e-5
-1.322, 3.220e-5
-1.321, 3.149e-5
-1.320, 3.101e-5
-1.319, 3.041e-5
-1.318, 2.966e-5
-1.317, 2.891e-5
-1.316, 2.834e-5
-1.315, 2.779e-5
-1.314, 2.736e-5
-1.313, 2.668e-5
-1.312, 2.602e-5
-1.311, 2.545e-5
-1.310, 2.500e-5
-1.309, 2.460e-5
-1.308, 2.398e-5
-1.307, 2.333e-5
-1.306, 2.283e-5
-1.305, 2.241e-5
-1.304, 2.210e-5
-1.303, 2.158e-5
-1.302, 2.088e-5
-1.301, 2.046e-5
-1.300, 2.015e-5
-1.299, 1.979e-5
-1.298, 1.932e-5
-1.297, 1.883e-5
-1.296, 1.847e-5
-1.295, 1.822e-5
-1.294, 1.789e-5
-1.293, 1.747e-5
-1.292, 1.691e-5
-1.291, 1.645e-5
-1.290, 1.626e-5
-1.289, 1.593e-5
-1.288, 1.555e-5
-1.287, 1.509e-5
-1.286, 1.463e-5
-1.285, 1.448e-5
-1.284, 1.420e-5
-1.283, 1.386e-5
-1.282, 1.341e-5
-1.281, 1.303e-5
-1.280, 1.283e-5
-1.279, 1.274e-5
-1.278, 1.234e-5
-1.277, 1.200e-5
-1.276, 1.163e-5
-1.275, 1.147e-5
-1.274, 1.141e-5
-1.273, 1.104e-5
-1.272, 1.065e-5
-1.271, 1.034e-5
-1.270, 1.026e-5
-1.269, 1.012e-5
-1.268, 9.922e-6
-1.267, 9.523e-6
-1.266, 9.260e-6
-1.265, 9.211e-6
-1.264, 9.082e-6
-1.263, 8.766e-6
-1.262, 8.412e-6
-1.261, 8.090e-6
-1.260, 7.996e-6
-1.259, 7.889e-6
-1.258, 7.760e-6
-1.257, 7.342e-6
-1.256, 7.023e-6
-1.255, 7.009e-6
-1.254, 6.872e-6
-1.253, 6.708e-6
-1.252, 6.356e-6
-1.251, 6.086e-6
-1.250, 6.044e-6
-1.249, 5.988e-6
-1.248, 5.802e-6
-1.247, 5.469e-6
-1.246, 5.242e-6
-1.245, 5.338e-6
-1.244, 5.275e-6
-1.243, 5.026e-6
-1.242, 4.719e-6
-1.241, 4.462e-6
-1.240, 4.465e-6
-1.239, 4.438e-6
-1.238, 4.227e-6
-1.237, 3.985e-6
-1.236, 3.754e-6
-1.235, 3.671e-6
-1.234, 3.721e-6
-1.233, 3.487e-6
-1.232, 3.250e-6
-1.231, 3.039e-6
-1.230, 2.996e-6
-1.229, 2.907e-6
-1.228, 2.797e-6
-1.227, 2.537e-6
-1.226, 2.341e-6
-1.225, 2.303e-6
-1.224, 2.410e-6
-1.223, 2.232e-6
-1.222, 1.873e-6
-1.221, 1.715e-6
-1.220, 1.703e-6
-1.219, 1.705e-6
-1.218, 1.613e-6
-1.217, 1.272e-6
-1.216, 1.128e-6
-1.215, 1.110e-6
-1.214, 1.080e-6
-1.213, 1.005e-6
-1.212, 7.368e-7
-1.211, 4.911e-7
-1.210, 4.961e-7
-1.209, 5.326e-7
-1.208, 4.517e-7
-1.207, 1.379e-7
-1.206, -1.492e-7
-1.205, -1.894e-8
-1.204, 3.236e-8
-1.203, -1.393e-7
-1.202, -3.573e-7
-1.201, -5.931e-7
-1.200, -5.961e-7
-1.199, -5.803e-7
-1.198, -7.293e-7
-1.197, -9.444e-7
-1.196, -1.195e-6
-1.195, -1.198e-6
-1.194, -1.090e-6
-1.193, -1.242e-6
-1.192, -1.475e-6
-1.191, -1.607e-6
-1.190, -1.719e-6
-1.189, -1.598e-6
-1.188, -1.755e-6
-1.187, -1.997e-6
-1.186, -2.189e-6
-1.185, -2.248e-6
-1.184, -2.115e-6
-1.183, -2.250e-6
-1.182, -2.540e-6
-1.181, -2.681e-6
-1.180, -2.716e-6
-1.179, -2.611e-6
-1.178, -2.699e-6
-1.177, -2.871e-6
-1.176, -3.056e-6
-1.175, -3.068e-6
-1.174, -3.065e-6
-1.173, -3.085e-6
-1.172, -3.357e-6
-1.171, -3.608e-6
-1.170, -3.627e-6
-1.169, -3.547e-6
-1.168, -3.649e-6
-1.167, -3.872e-6
-1.166, -4.176e-6
-1.165, -4.073e-6
-1.164, -4.034e-6
-1.163, -4.129e-6
-1.162, -4.337e-6
-1.161, -4.561e-6
-1.160, -4.559e-6
-1.159, -4.491e-6
-1.158, -4.643e-6
-1.157, -4.787e-6
-1.156, -5.013e-6
-1.155, -5.084e-6
-1.154, -4.959e-6
-1.153, -5.110e-6
-1.152, -5.295e-6
-1.151, -5.477e-6
-1.150, -5.585e-6
-1.149, -5.412e-6
-1.148, -5.498e-6
-1.147, -5.813e-6
-1.146, -5.932e-6
-1.145, -5.982e-6
-1.144, -5.842e-6
-1.143, -5.947e-6
-1.142, -6.229e-6
-1.141, -6.372e-6
-1.140, -6.416e-6
-1.139, -6.372e-6
-1.138, -6.437e-6
-1.137, -6.622e-6
-1.136, -6.842e-6
-1.135, -6.841e-6
-1.134, -6.787e-6
-1.133, -6.826e-6
-1.132, -7.098e-6
-1.131, -7.290e-6
-1.130, -7.289e-6
-1.129, -7.193e-6
-1.128, -7.172e-6
-1.127, -7.345e-6
-1.126, -7.661e-6
-1.125, -7.648e-6
-1.124, -7.553e-6
-1.123, -7.696e-6
-1.122, -7.882e-6
-1.121, -8.124e-6
-1.120, -8.076e-6
-1.119, -7.951e-6
-1.118, -7.987e-6
-1.117, -8.181e-6
-1.116, -8.473e-6
-1.115, -8.497e-6
-1.114, -8.375e-6
-1.113, -8.477e-6
-1.112, -8.697e-6
-1.111, -8.884e-6
-1.110, -8.961e-6
-1.109, -8.814e-6
-1.108, -8.871e-6
-1.107, -9.082e-6
-1.106, -9.309e-6
-1.105, -9.352e-6
-1.104, -9.244e-6
-1.103, -9.288e-6
-1.102, -9.532e-6
-1.101, -9.747e-6
-1.100, -9.804e-6
-1.099, -9.727e-6
-1.098, -9.713e-6
-1.097, -9.945e-6
-1.096, -1.011e-5
-1.095, -1.012e-5
-1.094, -1.016e-5
-1.093, -1.010e-5
-1.092, -1.040e-5
-1.091, -1.062e-5
-1.090, -1.065e-5
-1.089, -1.059e-5
-1.088, -1.056e-5
-1.087, -1.082e-5
-1.086, -1.105e-5
-1.085, -1.100e-5
-1.084, -1.092e-5
-1.083, -1.100e-5
-1.082, -1.120e-5
-1.081, -1.146e-5
-1.080, -1.145e-5
-1.079, -1.138e-5
-1.078, -1.143e-5
-1.077, -1.166e-5
-1.076, -1.187e-5
-1.075, -1.195e-5
-1.074, -1.178e-5
-1.073, -1.185e-5
-1.072, -1.203e-5
-1.071, -1.225e-5
-1.070, -1.238e-5
-1.069, -1.225e-5
-1.068, -1.220e-5
-1.067, -1.252e-5
-1.066, -1.271e-5
-1.065, -1.281e-5
-1.064, -1.263e-5
-1.063, -1.265e-5
-1.062, -1.295e-5
-1.061, -1.311e-5
-1.060, -1.318e-5
-1.059, -1.315e-5
-1.058, -1.307e-5
-1.057, -1.338e-5
-1.056, -1.359e-5
-1.055, -1.361e-5
-1.054, -1.367e-5
-1.053, -1.351e-5
-1.052, -1.376e-5
-1.051, -1.405e-5
-1.050, -1.404e-5
-1.049, -1.402e-5
-1.048, -1.396e-5
-1.047, -1.417e-5
-1.046, -1.449e-5
-1.045, -1.457e-5
-1.044, -1.446e-5
-1.043, -1.446e-5
-1.042, -1.467e-5
-1.041, -1.490e-5
-1.040, -1.480e-5
-1.039, -1.468e-5
-1.038, -1.467e-5
-1.037, -1.487e-5
-1.036, -1.520e-5
-1.035, -1.530e-5
-1.034, -1.518e-5
-1.033, -1.530e-5
-1.032, -1.545e-5
-1.031, -1.574e-5
-1.030, -1.581e-5
-1.029, -1.572e-5
-1.028, -1.569e-5
-1.027, -1.596e-5
-1.026, -1.622e-5
-1.025, -1.635e-5
-1.024, -1.629e-5
-1.023, -1.631e-5
-1.022, -1.652e-5
-1.021, -1.674e-5
-1.020, -1.681e-5
-1.019, -1.676e-5
-1.018, -1.667e-5
-1.017, -1.692e-5
-1.016, -1.716e-5
-1.015, -1.724e-5
-1.014, -1.721e-5
-1.013, -1.716e-5
-1.012, -1.740e-5
-1.011, -1.770e-5
-1.010, -1.782e-5
-1.009, -1.778e-5
-1.008, -1.767e-5
-1.007, -1.793e-5
-1.006, -1.820e-5
-1.005, -1.834e-5
-1.004, -1.828e-5
-1.003, -1.828e-5
-1.002, -1.842e-5
-1.001, -1.875e-5
-1.000, -9.693e-6
-1.001, -4.332e-6
-1.002, -2.060e-6
-1.003, -6.750e-7
-1.004, 3.639e-7
-1.005, 1.348e-6
-1.006, 2.417e-6
-1.007, 3.370e-6
-1.008, 3.921e-6
-1.009, 4.445e-6
-1.010, 5.101e-6
-1.011, 5.706e-6
-1.012, 6.403e-6
-1.013, 6.763e-6
-1.014, 7.057e-6
-1.015, 7.529e-6
-1.016, 8.049e-6
-1.017, 8.487e-6
-1.018, 8.768e-6
-1.019, 8.840e-6
-1.020, 9.138e-6
-1.021, 9.586e-6
-1.022, 9.964e-6
-1.023, 1.016e-5
-1.024, 1.021e-5
-1.025, 1.041e-5
-1.026, 1.083e-5
-1.027, 1.116e-5
-1.028, 1.125e-5
-1.029, 1.128e-5
-1.030, 1.145e-5
-1.031, 1.181e-5
-1.032, 1.209e-5
-1.033, 1.212e-5
-1.034, 1.217e-5
-1.035, 1.225e-5
-1.036, 1.256e-5
-1.037, 1.280e-5
-1.038, 1.284e-5
-1.039, 1.281e-5
-1.040, 1.289e-5
-1.041, 1.312e-5
-1.042, 1.344e-5
-1.043, 1.338e-5
-1.044, 1.334e-5
-1.045, 1.347e-5
-1.046, 1.366e-5
-1.047, 1.399e-5
-1.048, 1.400e-5
-1.049, 1.395e-5
-1.050, 1.413e-5
-1.051, 1.429e-5
-1.052, 1.452e-5
-1.053, 1.457e-5
-1.054, 1.446e-5
-1.055, 1.453e-5
-1.056, 1.466e-5
-1.057, 1.486e-5
-1.058, 1.486e-5
-1.059, 1.474e-5
-1.060, 1.482e-5
-1.061, 1.498e-5
-1.062, 1.523e-5
-1.063, 1.525e-5
-1.064, 1.504e-5
-1.065, 1.512e-5
-1.066, 1.532e-5
-1.067, 1.545e-5
-1.068, 1.545e-5
-1.069, 1.532e-5
-1.070, 1.537e-5
-1.071, 1.560e-5
-1.072, 1.573e-5
-1.073, 1.567e-5
-1.074, 1.561e-5
-1.075, 1.566e-5
-1.076, 1.583e-5
-1.077, 1.603e-5
-1.078, 1.601e-5
-1.079, 1.604e-5
-1.080, 1.600e-5
-1.081, 1.620e-5
-1.082, 1.639e-5
-1.083, 1.631e-5
-1.084, 1.626e-5
-1.085, 1.626e-5
-1.086, 1.638e-5
-1.087, 1.663e-5
-1.088, 1.655e-5
-1.089, 1.642e-5
-1.090, 1.653e-5
-1.091, 1.662e-5
-1.092, 1.682e-5
-1.093, 1.679e-5
-1.094, 1.659e-5
-1.095, 1.673e-5
-1.096, 1.685e-5
-1.097, 1.699e-5
-1.098, 1.699e-5
-1.099, 1.685e-5
-1.100, 1.684e-5
-1.101, 1.703e-5
-1.102, 1.726e-5
-1.103, 1.730e-5
-1.104, 1.714e-5
-1.105, 1.711e-5
-1.106, 1.735e-5
-1.107, 1.747e-5
-1.108, 1.744e-5
-1.109, 1.727e-5
-1.110, 1.727e-5
-1.111, 1.748e-5
-1.112, 1.765e-5
-1.113, 1.763e-5
-1.114, 1.753e-5
-1.115, 1.745e-5
-1.116, 1.769e-5
-1.117, 1.783e-5
-1.118, 1.779e-5
-1.119, 1.767e-5
-1.120, 1.762e-5
-1.121, 1.780e-5
-1.122, 1.803e-5
-1.123, 1.799e-5
-1.124, 1.786e-5
-1.125, 1.787e-5
-1.126, 1.798e-5
-1.127, 1.818e-5
-1.128, 1.810e-5
-1.129, 1.797e-5
-1.130, 1.803e-5
-1.131, 1.819e-5
-1.132, 1.839e-5
-1.133, 1.836e-5
-1.134, 1.819e-5
-1.135, 1.820e-5
-1.136, 1.837e-5
-1.137, 1.855e-5
-1.138, 1.858e-5
-1.139, 1.838e-5
-1.140, 1.839e-5
-1.141, 1.862e-5
-1.142, 1.871e-5
-1.143, 1.873e-5
-1.144, 1.857e-5
-1.145, 1.852e-5
-1.146, 1.882e-5
-1.147, 1.890e-5
-1.148, 1.889e-5
-1.149, 1.877e-5
-1.150, 1.874e-5
-1.151, 1.894e-5
-1.152, 1.912e-5
-1.153, 1.908e-5
-1.154, 1.892e-5
-1.155, 1.887e-5
-1.156, 1.916e-5
-1.157, 1.929e-5
-1.158, 1.931e-5
-1.159, 1.922e-5
-1.160, 1.913e-5
-1.161, 1.932e-5
-1.162, 1.947e-5
-1.163, 1.945e-5
-1.164, 1.931e-5
-1.165, 1.930e-5
-1.166, 1.941e-5
-1.167, 1.967e-5
-1.168, 1.962e-5
-1.169, 1.945e-5
-1.170, 1.946e-5
-1.171, 1.959e-5
-1.172, 1.978e-5
-1.173, 1.977e-5
-1.174, 1.959e-5
-1.175, 1.962e-5
-1.176, 1.975e-5
-1.177, 1.997e-5
-1.178, 1.997e-5
-1.179, 1.980e-5
-1.180, 1.985e-5
-1.181, 2.007e-5
-1.182, 2.024e-5
-1.183, 2.023e-5
-1.184, 2.008e-5
-1.185, 1.999e-5
-1.186, 2.019e-5
-1.187, 2.033e-5
-1.188, 2.039e-5
-1.189, 2.023e-5
-1.190, 2.028e-5
-1.191, 2.043e-5
-1.192, 2.051e-5
-1.193, 2.052e-5
-1.194, 2.044e-5
-1.195, 2.033e-5
-1.196, 2.052e-5
-1.197, 2.071e-5
-1.198, 2.069e-5
-1.199, 2.061e-5
-1.200, 2.053e-5
-1.201, 2.076e-5
-1.202, 2.094e-5
-1.203, 2.091e-5
-1.204, 2.086e-5
-1.205, 2.078e-5
-1.206, 2.102e-5
-1.207, 2.134e-5
-1.208, 2.131e-5
-1.209, 2.118e-5
-1.210, 2.116e-5
-1.211, 2.129e-5
-1.212, 2.148e-5
-1.213, 2.147e-5
-1.214, 2.133e-5
-1.215, 2.135e-5
-1.216, 2.151e-5
-1.217, 2.174e-5
-1.218, 2.178e-5
-1.219, 2.168e-5
-1.220, 2.159e-5
-1.221, 2.179e-5
-1.222, 2.196e-5
-1.223, 2.202e-5
-1.224, 2.184e-5
-1.225, 2.184e-5
-1.226, 2.205e-5
-1.227, 2.223e-5
-1.228, 2.238e-5
-1.229, 2.225e-5
-1.230, 2.220e-5
-1.231, 2.242e-5
-1.232, 2.251e-5
-1.233, 2.263e-5
-1.234, 2.253e-5
-1.235, 2.251e-5
-1.236, 2.279e-5
-1.237, 2.302e-5
-1.238, 2.312e-5
-1.239, 2.305e-5
-1.240, 2.302e-5
-1.241, 2.319e-5
-1.242, 2.345e-5
-1.243, 2.339e-5
-1.244, 2.334e-5
-1.245, 2.339e-5
-1.246, 2.355e-5
-1.247, 2.381e-5
-1.248, 2.390e-5
-1.249, 2.381e-5
-1.250, 2.386e-5
-1.251, 2.405e-5
-1.252, 2.431e-5
-1.253, 2.442e-5
-1.254, 2.436e-5
-1.255, 2.442e-5
-1.256, 2.460e-5
-1.257, 2.484e-5
-1.258, 2.504e-5
-1.259, 2.493e-5
-1.260, 2.502e-5
-1.261, 2.526e-5
-1.262, 2.554e-5
-1.263, 2.566e-5
-1.264, 2.562e-5
-1.265, 2.567e-5
-1.266, 2.598e-5
-1.267, 2.622e-5
-1.268, 2.644e-5
-1.269, 2.640e-5
-1.270, 2.645e-5
-1.271, 2.678e-5
-1.272, 2.710e-5
-1.273, 2.725e-5
-1.274, 2.733e-5
-1.275, 2.742e-5
-1.276, 2.778e-5
-1.277, 2.810e-5
-1.278, 2.831e-5
-1.279, 2.838e-5
-1.280, 2.864e-5
-1.281, 2.891e-5
-1.282, 2.931e-5
-1.283, 2.950e-5
-1.284, 2.961e-5
-1.285, 2.977e-5
-1.286, 3.008e-5
-1.287, 3.054e-5
-1.288, 3.076e-5
-1.289, 3.085e-5
-1.290, 3.105e-5
-1.291, 3.142e-5
-1.292, 3.189e-5
-1.293, 3.224e-5
-1.294, 3.245e-5
-1.295, 3.275e-5
-1.296, 3.310e-5
-1.297, 3.363e-5
-1.298, 3.392e-5
-1.299, 3.406e-5
-1.300, 3.434e-5
-1.301, 3.479e-5
-1.302, 3.533e-5
-1.303, 3.573e-5
-1.304, 3.589e-5
-1.305, 3.625e-5
-1.306, 3.680e-5
-1.307, 3.731e-5
-1.308, 3.775e-5
-1.309, 3.803e-5
-1.310, 3.838e-5
-1.311, 3.898e-5
-1.312, 3.959e-5
-1.313, 4.011e-5
-1.314, 4.048e-5
-1.315, 4.088e-5
-1.316, 4.146e-5
-1.317, 4.215e-5
-1.318, 4.271e-5
-1.319, 4.310e-5
-1.320, 4.358e-5
-1.321, 4.416e-5
-1.322, 4.509e-5
-1.323, 4.577e-5
-1.324, 4.626e-5
-1.325, 4.689e-5
-1.326, 4.761e-5
-1.327, 4.843e-5
-1.328, 4.907e-5
-1.329, 4.966e-5
-1.330, 5.036e-5
-1.331, 5.119e-5
-1.332, 5.214e-5
-1.333, 5.294e-5
-1.334, 5.359e-5
-1.335, 5.433e-5
-1.336, 5.526e-5
-1.337, 5.630e-5
-1.338, 5.716e-5
-1.339, 5.789e-5
-1.340, 5.871e-5
-1.341, 5.978e-5
-1.342, 6.093e-5
-1.343, 6.194e-5
-1.344, 6.280e-5
-1.345, 6.372e-5
-1.346, 6.491e-5
-1.347, 6.609e-5
-1.348, 6.720e-5
-1.349, 6.825e-5
-1.350, 6.936e-5
-1.351, 7.069e-5
-1.352, 7.203e-5
-1.353, 7.326e-5
-1.354, 7.450e-5
-1.355, 7.577e-5
-1.356, 7.728e-5
-1.357, 7.878e-5
-1.358, 8.023e-5
-1.359, 8.170e-5
-1.360, 8.305e-5
-1.361, 8.471e-5
-1.362, 8.642e-5
-1.363, 8.801e-5
-1.364, 8.958e-5
-1.365, 9.122e-5
-1.366, 9.298e-5
-1.367, 9.490e-5
-1.368, 9.665e-5
-1.369, 9.841e-5
-1.370, 1.002e-4
-1.371, 1.022e-4
-1.372, 1.044e-4
-1.373, 1.064e-4
-1.374, 1.083e-4
-1.375, 1.105e-4
-1.376, 1.126e-4
-1.377, 1.150e-4
-1.378, 1.172e-4
-1.379, 1.193e-4
-1.380, 1.216e-4
-1.381, 1.240e-4
-1.382, 1.267e-4
-1.383, 1.293e-4
-1.384, 1.317e-4
-1.385, 1.342e-4
-1.386, 1.370e-4
-1.387, 1.399e-4
-1.388, 1.427e-4
-1.389, 1.455e-4
-1.390, 1.482e-4
-1.391, 1.514e-4
-1.392, 1.545e-4
-1.393, 1.577e-4
-1.394, 1.610e-4
-1.395, 1.642e-4
-1.396, 1.675e-4
-1.397, 1.711e-4
-1.398, 1.744e-4
-1.399, 1.779e-4
-1.400, 1.813e-4
-1.401, 1.851e-4
-1.402, 1.889e-4
-1.403, 1.928e-4
-1.404, 1.967e-4
-1.405, 2.006e-4
-1.406, 2.047e-4
-1.407, 2.090e-4
-1.408, 2.132e-4
-1.409, 2.174e-4
-1.410, 2.218e-4
-1.411, 2.262e-4
-1.412, 2.310e-4
-1.413, 2.357e-4
-1.414, 2.404e-4
-1.415, 2.453e-4
-1.416, 2.503e-4
-1.417, 2.554e-4
-1.418, 2.607e-4
-1.419, 2.659e-4
-1.420, 2.712e-4
-1.421, 2.767e-4
-1.422, 2.823e-4
-1.423, 2.881e-4
-1.424, 2.938e-4
-1.425, 2.996e-4
-1.426, 3.058e-4
-1.427, 3.121e-4
-1.428, 3.185e-4
-1.429, 3.248e-4
-1.430, 3.312e-4
-1.431, 3.380e-4
-1.432, 3.448e-4
-1.433, 3.518e-4
-1.434, 3.589e-4
-1.435, 3.658e-4
-1.436, 3.731e-4
-1.437, 3.807e-4
-1.438, 3.884e-4
-1.439, 3.960e-4
-1.440, 4.038e-4
-1.441, 4.119e-4
-1.442, 4.203e-4
-1.443, 4.285e-4
-1.444, 4.369e-4
-1.445, 4.454e-4
-1.446, 4.542e-4
-1.447, 4.636e-4
-1.448, 4.727e-4
-1.449, 4.818e-4
-1.450, 4.912e-4
-1.451, 5.008e-4
-1.452, 5.106e-4
-1.453, 5.206e-4
-1.454, 5.309e-4
-1.455, 5.411e-4
-1.456, 5.515e-4
-1.457, 5.625e-4
-1.458, 5.733e-4
-1.459, 5.842e-4
-1.460, 5.953e-4
-1.461, 6.065e-4
-1.462, 6.182e-4
-1.463, 6.301e-4
-1.464, 6.421e-4
-1.465, 6.544e-4
-1.466, 6.669e-4
-1.467, 6.796e-4
-1.468, 6.923e-4
-1.469, 7.054e-4
-1.470, 7.187e-4
-1.471, 7.322e-4
-1.472, 7.457e-4
-1.473, 7.595e-4
-1.474, 7.738e-4
-1.475, 7.880e-4
-1.476, 8.025e-4
-1.477, 8.175e-4
-1.478, 8.328e-4
-1.479, 8.483e-4
-1.480, 8.638e-4
-1.481, 8.798e-4
-1.482, 8.959e-4
-1.483, 9.119e-4
-1.484, 9.286e-4
-1.485, 9.452e-4
-1.486, 9.623e-4
-1.487, 9.799e-4
-1.488, 9.973e-4
-1.489, 1.015e-3
-1.490, 1.033e-3
-1.491, 1.051e-3
-1.492, 1.071e-3
-1.493, 1.090e-3
-1.494, 1.108e-3
-1.495, 1.126e-3
-1.496, 1.146e-3
-1.497, 1.167e-3
-1.498, 1.187e-3
-1.499, 1.207e-3
-1.500, 1.227e-3
-1.501, 1.248e-3
-1.502, 1.270e-3
-1.503, 1.292e-3
-1.504, 1.313e-3
-1.505, 1.335e-3
-1.506, 1.357e-3
-1.507, 1.378e-3
-1.508, 1.400e-3
-1.509, 1.422e-3
-1.510, 1.446e-3
-1.511, 1.469e-3
-1.512, 1.492e-3
-1.513, 1.517e-3
-1.514, 1.540e-3
-1.515, 1.563e-3
-1.516, 1.589e-3
-1.517, 1.615e-3
-1.518, 1.638e-3
-1.519, 1.663e-3
-1.520, 1.689e-3
-1.521, 1.715e-3
-1.522, 1.741e-3
-1.523, 1.767e-3
-1.524, 1.796e-3
-1.525, 1.822e-3
-1.526, 1.849e-3
-1.527, 1.878e-3
-1.528, 1.910e-3
-1.529, 1.938e-3
-1.530, 1.962e-3
-1.531, 1.988e-3
-1.532, 2.016e-3
-1.533, 2.046e-3
-1.534, 2.075e-3
-1.535, 2.104e-3
-1.536, 2.137e-3
-1.537, 2.168e-3
-1.538, 2.197e-3
-1.539, 2.227e-3
-1.540, 2.255e-3
-1.541, 2.286e-3
-1.542, 2.316e-3
-1.543, 2.347e-3
-1.544, 2.377e-3
-1.545, 2.410e-3
-1.546, 2.442e-3
-1.547, 2.475e-3
-1.548, 2.509e-3
-1.549, 2.540e-3
-1.550, 2.569e-3
-1.551, 2.602e-3
-1.552, 2.637e-3
-1.553, 2.669e-3
-1.554, 2.701e-3
-1.555, 2.734e-3
-1.556, 2.769e-3
-1.557, 2.802e-3
-1.558, 2.835e-3
-1.559, 2.870e-3
-1.560, 2.907e-3
-1.561, 2.941e-3
-1.562, 2.974e-3
-1.563, 3.009e-3
-1.564, 3.045e-3
-1.565, 3.079e-3
-1.566, 3.116e-3
-1.567, 3.153e-3
-1.568, 3.193e-3
-1.569, 3.235e-3
-1.570, 3.276e-3
-1.571, 3.312e-3
-1.572, 3.352e-3
-1.573, 3.387e-3
-1.574, 3.417e-3
-1.575, 3.453e-3
-1.576, 3.494e-3
-1.577, 3.525e-3
-1.578, 3.561e-3
-1.579, 3.606e-3
-1.580, 3.644e-3
-1.581, 3.682e-3
-1.582, 3.723e-3
-1.583, 3.760e-3
-1.584, 3.798e-3
-1.585, 3.834e-3
-1.586, 3.874e-3
-1.587, 3.915e-3
-1.588, 3.958e-3
-1.589, 3.995e-3
-1.590, 4.032e-3
-1.591, 4.072e-3
-1.592, 4.112e-3
-1.593, 4.151e-3
-1.594, 4.190e-3
-1.595, 4.236e-3
-1.596, 4.278e-3
-1.597, 4.322e-3
-1.598, 4.369e-3
-1.599, 4.418e-3
-1.600, 4.458e-3
-1.601, 4.505e-3
-1.602, 4.550e-3
-1.603, 4.593e-3
-1.604, 4.630e-3
-1.605, 4.670e-3
-1.606, 4.718e-3
-1.607, 4.763e-3
-1.608, 4.824e-3
-1.609, 4.890e-3
-1.610, 4.968e-3
-1.611, 5.024e-3
-1.612, 5.063e-3
-1.613, 5.088e-3
-1.614, 5.115e-3
-1.615, 5.156e-3
-1.616, 5.203e-3
-1.617, 5.277e-3
-1.618, 5.340e-3
-1.619, 5.404e-3
-1.620, 5.461e-3
-1.621, 5.498e-3
-1.622, 5.539e-3
-1.623, 5.582e-3
-1.624, 5.631e-3
-1.625, 5.677e-3
-1.626, 5.720e-3
-1.627, 5.773e-3
-1.628, 5.851e-3
-1.629, 5.923e-3
-1.630, 5.981e-3
-1.631, 6.030e-3
-1.632, 6.064e-3
-1.633, 6.108e-3
-1.634, 6.157e-3
-1.635, 6.200e-3
-1.636, 6.248e-3
-1.637, 6.312e-3
-1.638, 6.376e-3
-1.639, 6.425e-3
-1.640, 6.474e-3
-1.641, 6.546e-3
-1.642, 6.603e-3
-1.643, 6.648e-3
-1.644, 6.695e-3
-1.645, 6.748e-3
-1.646, 6.795e-3
-1.647, 6.849e-3
-1.648, 6.918e-3
-1.649, 6.979e-3
-1.650, 7.059e-3
-1.651, 7.137e-3
-1.652, 7.171e-3
-1.653, 7.204e-3
-1.654, 7.249e-3
-1.655, 7.300e-3
-1.656, 7.361e-3
-1.657, 7.417e-3
-1.658, 7.481e-3
-1.659, 7.541e-3
-1.660, 7.607e-3
-1.661, 7.656e-3
-1.662, 7.706e-3
-1.663, 7.776e-3
-1.664, 7.821e-3
-1.665, 7.867e-3
-1.666, 7.915e-3
-1.667, 8.000e-3
-1.668, 8.061e-3
-1.669, 8.112e-3
-1.670, 8.190e-3
-1.671, 8.315e-3
-1.672, 8.375e-3
-1.673, 8.435e-3
-1.674, 8.484e-3
-1.675, 8.550e-3
-1.676, 8.615e-3
-1.677, 8.661e-3
-1.678, 8.790e-3
-1.679, 8.935e-3
-1.680, 9.037e-3
-1.681, 9.092e-3
-1.682, 9.148e-3
-1.683, 9.209e-3
-1.684, 9.263e-3
-1.685, 9.318e-3
-1.686, 9.384e-3
-1.687, 9.451e-3
-1.688, 9.516e-3
-1.689, 9.590e-3
-1.690, 9.659e-3
-1.691, 9.696e-3
-1.692, 9.759e-3
-1.693, 9.807e-3
-1.694, 9.863e-3
-1.695, 9.919e-3
-1.696, 9.937e-3
-1.697, 9.974e-3
-1.698, 1.003e-2
-1.699, 1.009e-2
-1.700, 1.010e-2
-1.699, 1.007e-2
-1.698, 1.003e-2
-1.697, 9.960e-3
-1.696, 9.899e-3
-1.695, 9.879e-3
-1.694, 9.822e-3
-1.693, 9.742e-3
-1.692, 9.680e-3
-1.691, 9.611e-3
-1.690, 9.531e-3
-1.689, 9.437e-3
-1.688, 9.376e-3
-1.687, 9.293e-3
-1.686, 9.227e-3
-1.685, 9.189e-3
-1.684, 9.174e-3
-1.683, 9.143e-3
-1.682, 9.072e-3
-1.681, 8.991e-3
-1.680, 8.926e-3
-1.679, 8.861e-3
-1.678, 8.785e-3
-1.677, 8.725e-3
-1.676, 8.657e-3
-1.675, 8.594e-3
-1.674, 8.494e-3
-1.673, 8.411e-3
-1.672, 8.366e-3
-1.671, 8.307e-3
-1.670, 8.259e-3
-1.669, 8.195e-3
-1.668, 8.162e-3
-1.667, 8.133e-3
-1.666, 8.133e-3
-1.665, 8.081e-3
-1.664, 8.052e-3
-1.663, 7.962e-3
-1.662, 7.884e-3
-1.661, 7.818e-3
-1.660, 7.734e-3
-1.659, 7.662e-3
-1.658, 7.588e-3
-1.657, 7.522e-3
-1.656, 7.481e-3
-1.655, 7.448e-3
-1.654, 7.379e-3
-1.653, 7.313e-3
-1.652, 7.250e-3
-1.651, 7.183e-3
-1.650, 7.101e-3
-1.649, 7.028e-3
-1.648, 6.981e-3
-1.647, 6.932e-3
-1.646, 6.872e-3
-1.645, 6.818e-3
-1.644, 6.761e-3
-1.643, 6.692e-3
-1.642, 6.621e-3
-1.641, 6.555e-3
-1.640, 6.505e-3
-1.639, 6.445e-3
-1.638, 6.382e-3
-1.637, 6.324e-3
-1.636, 6.255e-3
-1.635, 6.184e-3
-1.634, 6.125e-3
-1.633, 6.072e-3
-1.632, 6.010e-3
-1.631, 5.947e-3
-1.630, 5.894e-3
-1.629, 5.835e-3
-1.628, 5.776e-3
-1.627, 5.724e-3
-1.626, 5.670e-3
-1.625, 5.610e-3
-1.624, 5.556e-3
-1.623, 5.513e-3
-1.622, 5.472e-3
-1.621, 5.420e-3
-1.620, 5.372e-3
-1.619, 5.328e-3
-1.618, 5.276e-3
-1.617, 5.224e-3
-1.616, 5.186e-3
-1.615, 5.144e-3
-1.614, 5.095e-3
-1.613, 5.042e-3
-1.612, 4.993e-3
-1.611, 4.940e-3
-1.610, 4.885e-3
-1.609, 4.832e-3
-1.608, 4.782e-3
-1.607, 4.731e-3
-1.606, 4.672e-3
-1.605, 4.618e-3
-1.604, 4.571e-3
-1.603, 4.528e-3
-1.602, 4.484e-3
-1.601, 4.428e-3
-1.600, 4.378e-3
-1.599, 4.324e-3
-1.598, 4.282e-3
-1.597, 4.237e-3
-1.596, 4.186e-3
-1.595, 4.142e-3
-1.594, 4.110e-3
-1.593, 4.071e-3
-1.592, 4.021e-3
-1.591, 3.974e-3
-1.590, 3.925e-3
-1.589, 3.873e-3
-1.588, 3.825e-3
-1.587, 3.780e-3
-1.586, 3.744e-3
-1.585, 3.704e-3
-1.584, 3.662e-3
-1.583, 3.619e-3
-1.582, 3.577e-3
-1.581, 3.537e-3
-1.580, 3.495e-3
-1.579, 3.456e-3
-1.578, 3.418e-3
-1.577, 3.373e-3
-1.576, 3.331e-3
-1.575, 3.293e-3
-1.574, 3.257e-3
-1.573, 3.218e-3
-1.572, 3.178e-3
-1.571, 3.137e-3
-1.570, 3.096e-3
-1.569, 3.054e-3
-1.568, 3.017e-3
-1.567, 2.980e-3
-1.566, 2.946e-3
-1.565, 2.918e-3
-1.564, 2.881e-3
-1.563, 2.843e-3
-1.562, 2.807e-3
-1.561, 2.771e-3
-1.560, 2.733e-3
-1.559, 2.698e-3
-1.558, 2.663e-3
-1.557, 2.631e-3
-1.556, 2.597e-3
-1.555, 2.561e-3
-1.554, 2.524e-3
-1.553, 2.490e-3
-1.552, 2.457e-3
-1.551, 2.422e-3
-1.550, 2.387e-3
-1.549, 2.354e-3
-1.548, 2.320e-3
-1.547, 2.290e-3
-1.546, 2.257e-3
-1.545, 2.225e-3
-1.544, 2.193e-3
-1.543, 2.161e-3
-1.542, 2.130e-3
-1.541, 2.098e-3
-1.540, 2.066e-3
-1.539, 2.036e-3
-1.538, 2.007e-3
-1.537, 1.979e-3
-1.536, 1.951e-3
-1.535, 1.922e-3
-1.534, 1.893e-3
-1.533, 1.867e-3
-1.532, 1.840e-3
-1.531, 1.812e-3
-1.530, 1.785e-3
-1.529, 1.759e-3
-1.528, 1.731e-3
-1.527, 1.704e-3
-1.526, 1.675e-3
-1.525, 1.647e-3
-1.524, 1.621e-3
-1.523, 1.596e-3
-1.522, 1.572e-3
-1.521, 1.547e-3
-1.520, 1.522e-3
-1.519, 1.497e-3
-1.518, 1.473e-3
-1.517, 1.450e-3
-1.516, 1.427e-3
-1.515, 1.404e-3
-1.514, 1.382e-3
-1.513, 1.358e-3
-1.512, 1.336e-3
-1.511, 1.312e-3
-1.510, 1.294e-3
-1.509, 1.275e-3
-1.508, 1.254e-3
-1.507, 1.233e-3
-1.506, 1.210e-3
-1.505, 1.191e-3
-1.504, 1.171e-3
-1.503, 1.151e-3
-1.502, 1.132e-3
-1.501, 1.113e-3
-1.500, 1.094e-3
-1.499, 1.076e-3
-1.498, 1.057e-3
-1.497, 1.039e-3
-1.496, 1.021e-3
-1.495, 1.002e-3
-1.494, 9.849e-4
-1.493, 9.673e-4
-1.492, 9.503e-4
-1.491, 9.334e-4
-1.490, 9.167e-4
-1.489, 9.012e-4
-1.488, 8.855e-4
-1.487, 8.697e-4
-1.486, 8.541e-4
-1.485, 8.390e-4
-1.484, 8.237e-4
-1.483, 8.086e-4
-1.482, 7.929e-4
-1.481, 7.789e-4
-1.480, 7.646e-4
-1.479, 7.506e-4
-1.478, 7.372e-4
-1.477, 7.239e-4
-1.476, 7.105e-4
-1.475, 6.973e-4
-1.474, 6.853e-4
-1.473, 6.726e-4
-1.472, 6.600e-4
-1.471, 6.476e-4
-1.470, 6.355e-4
-1.469, 6.235e-4
-1.468, 6.117e-4
-1.467, 6.007e-4
-1.466, 5.895e-4
-1.465, 5.781e-4
-1.464, 5.672e-4
-1.463, 5.567e-4
-1.462, 5.459e-4
-1.461, 5.355e-4
-1.460, 5.250e-4
-1.459, 5.149e-4
-1.458, 5.053e-4
-1.457, 4.957e-4
-1.456, 4.861e-4
-1.455, 4.765e-4
-1.454, 4.672e-4
-1.453, 4.582e-4
-1.452, 4.499e-4
-1.451, 4.415e-4
-1.450, 4.319e-4
-1.449, 4.234e-4
-1.448, 4.158e-4
-1.447, 4.079e-4
-1.446, 3.997e-4
-1.445, 3.917e-4
-1.444, 3.839e-4
-1.443, 3.766e-4
-1.442, 3.693e-4
-1.441, 3.619e-4
-1.440, 3.546e-4
-1.439, 3.476e-4
-1.438, 3.408e-4
-1.437, 3.344e-4
-1.436, 3.276e-4
-1.435, 3.209e-4
-1.434, 3.145e-4
-1.433, 3.083e-4
-1.432, 3.024e-4
-1.431, 2.962e-4
-1.430, 2.901e-4
-1.429, 2.845e-4
-1.428, 2.790e-4
-1.427, 2.736e-4
-1.426, 2.680e-4
-1.425, 2.625e-4
-1.424, 2.573e-4
-1.423, 2.522e-4
-1.422, 2.473e-4
-1.421, 2.422e-4
-1.420, 2.372e-4
-1.419, 2.325e-4
-1.418, 2.281e-4
-1.417, 2.235e-4
-1.416, 2.189e-4
-1.415, 2.143e-4
-1.414, 2.099e-4
-1.413, 2.059e-4
-1.412, 2.018e-4
-1.411, 1.977e-4
-1.410, 1.936e-4
-1.409, 1.896e-4
-1.408, 1.860e-4
-1.407, 1.823e-4
-1.406, 1.785e-4
-1.405, 1.748e-4
-1.404, 1.712e-4
-1.403, 1.678e-4
-1.402, 1.645e-4
-1.401, 1.610e-4
-1.400, 1.576e-4
-1.399, 1.545e-4
-1.398, 1.514e-4
-1.397, 1.485e-4
-1.396, 1.453e-4
-1.395, 1.422e-4
-1.394, 1.393e-4
-1.393, 1.366e-4
-1.392, 1.340e-4
-1.391, 1.311e-4
-1.390, 1.283e-4
-1.389, 1.257e-4
-1.388, 1.233e-4
-1.387, 1.208e-4
-1.386, 1.182e-4
-1.385, 1.157e-4
-1.384, 1.133e-4
-1.383, 1.112e-4
-1.382, 1.091e-4
-1.381, 1.069e-4
-1.380, 1.046e-4
-1.379, 1.024e-4
-1.378, 1.005e-4
-1.377, 9.850e-5
-1.376, 9.633e-5
-1.375, 9.419e-5
-1.374, 9.227e-5
-1.373, 9.055e-5
-1.372, 8.878e-5
-1.371, 8.676e-5
-1.370, 8.486e-5
-1.369, 8.307e-5
-1.368, 8.151e-5
-1.367, 7.988e-5
-1.366, 7.806e-5
-1.365, 7.637e-5
-1.364, 7.475e-5
-1.363, 7.331e-5
-1.362, 7.193e-5
-1.361, 7.029e-5
-1.360, 6.870e-5
-1.359, 6.736e-5
-1.358, 6.606e-5
-1.357, 6.485e-5
-1.356, 6.335e-5
-1.355, 6.190e-5
-1.354, 6.066e-5
-1.353, 5.949e-5
-1.352, 5.842e-5
-1.351, 5.700e-5
-1.350, 5.563e-5
-1.349, 5.454e-5
-1.348, 5.355e-5
-1.347, 5.249e-5
-1.346, 5.125e-5
-1.345, 5.004e-5
-1.344, 4.909e-5
-1.343, 4.819e-5
-1.342, 4.724e-5
-1.341, 4.612e-5
-1.340, 4.508e-5
-1.339, 4.410e-5
-1.338, 4.334e-5
-1.337, 4.251e-5
-1.336, 4.150e-5
-1.335, 4.049e-5
-1.334, 3.964e-5
-1.333, 3.898e-5
-1.332, 3.821e-5
-1.331, 3.723e-5
-1.330, 3.631e-5
-1.329, 3.555e-5
-1.328, 3.494e-5
-1.327, 3.432e-5
-1.326, 3.348e-5
-1.325, 3.274e-5
-1.324, 3.214e-5
-1.323, 3.153e-5
-1.322, 3.104e-5
-1.321, 3.013e-5
-1.320, 2.944e-5
-1.319, 2.882e-5
-1.318, 2.826e-5
-1.317, 2.783e-5
-1.316, 2.704e-5
-1.315, 2.631e-5
-1.314, 2.582e-5
-1.313, 2.538e-5
-1.312, 2.496e-5
-1.311, 2.426e-5
-1.310, 2.356e-5
-1.309, 2.314e-5
-1.308, 2.278e-5
-1.307, 2.233e-5
-1.306, 2.173e-5
-1.305, 2.106e-5
-1.304, 2.066e-5
-1.303, 2.033e-5
-1.302, 1.993e-5
-1.301, 1.940e-5
-1.300, 1.882e-5
-1.299, 1.836e-5
-1.298, 1.822e-5
-1.297, 1.785e-5
-1.296, 1.739e-5
-1.295, 1.687e-5
-1.294, 1.648e-5
-1.293, 1.625e-5
-1.292, 1.599e-5
-1.291, 1.550e-5
-1.290, 1.499e-5
-1.289, 1.470e-5
-1.288, 1.453e-5
-1.287, 1.425e-5
-1.286, 1.375e-5
-1.285, 1.338e-5
-1.284, 1.313e-5
-1.283, 1.292e-5
-1.282, 1.271e-5
-1.281, 1.224e-5
-1.280, 1.178e-5
-1.279, 1.155e-5
-1.278, 1.135e-5
-1.277, 1.119e-5
-1.276, 1.074e-5
-1.275, 1.032e-5
-1.274, 1.015e-5
-1.273, 9.975e-6
-1.272, 9.865e-6
-1.271, 9.510e-6
-1.270, 9.072e-6
-1.269, 8.914e-6
-1.268, 8.780e-6
-1.267, 8.633e-6
-1.266, 8.317e-6
-1.265, 7.904e-6
-1.264, 7.808e-6
-1.263, 7.692e-6
-1.262, 7.536e-6
-1.261, 7.208e-6
-1.260, 6.932e-6
-1.259, 6.660e-6
-1.258, 6.634e-6
-1.257, 6.561e-6
-1.256, 6.263e-6
-1.255, 5.923e-6
-1.254, 5.715e-6
-1.253, 5.707e-6
-1.252, 5.613e-6
-1.251, 5.228e-6
-1.250, 4.931e-6
-1.249, 4.783e-6
-1.248, 4.866e-6
-1.247, 4.755e-6
-1.246, 4.397e-6
-1.245, 4.140e-6
-1.244, 3.998e-6
-1.243, 3.895e-6
-1.242, 3.869e-6
-1.241, 3.527e-6
-1.240, 3.289e-6
-1.239, 3.219e-6
-1.238, 3.196e-6
-1.237, 3.211e-6
-1.236, 2.951e-6
-1.235, 2.671e-6
-1.234, 2.597e-6
-1.233, 2.597e-6
-1.232, 2.553e-6
-1.231, 2.245e-6
-1.230, 1.948e-6
-1.229, 1.699e-6
-1.228, 1.849e-6
-1.227, 1.818e-6
-1.226, 1.540e-6
-1.225, 1.272e-6
-1.224, 1.206e-6
-1.223, 1.260e-6
-1.222, 1.150e-6
-1.221, 9.045e-7
-1.220, 6.174e-7
-1.219, 5.158e-7
-1.218, 6.263e-7
-1.217, 5.365e-7
-1.216, 3.185e-7
-1.215, 2.841e-8
-1.214, -1.006e-8
-1.213, 3.729e-8
-1.212, 1.320e-7
-1.211, -1.166e-7
-1.210, -2.863e-7
-1.209, -4.205e-7
-1.208, -3.643e-7
-1.207, -3.573e-7
-1.206, -6.632e-7
-1.205, -8.812e-7
-1.204, -1.009e-6
-1.203, -9.542e-7
-1.202, -9.384e-7
-1.201, -1.186e-6
-1.200, -1.383e-6
-1.199, -1.486e-6
-1.198, -1.454e-6
-1.197, -1.443e-6
-1.196, -1.678e-6
-1.195, -1.981e-6
-1.194, -2.040e-6
-1.193, -1.989e-6
-1.192, -1.930e-6
-1.191, -2.212e-6
-1.190, -2.528e-6
-1.189, -2.449e-6
-1.188, -2.336e-6
-1.187, -2.330e-6
-1.186, -2.513e-6
-1.185, -2.786e-6
-1.184, -2.816e-6
-1.183, -2.766e-6
-1.182, -2.815e-6
-1.181, -3.038e-6
-1.180, -3.265e-6
-1.179, -3.384e-6
-1.178, -3.333e-6
-1.177, -3.285e-6
-1.176, -3.524e-6
-1.175, -3.732e-6
-1.174, -3.872e-6
-1.173, -3.784e-6
-1.172, -3.766e-6
-1.171, -4.060e-6
-1.170, -4.229e-6
-1.169, -4.302e-6
-1.168, -4.236e-6
-1.167, -4.144e-6
-1.166, -4.482e-6
-1.165, -4.638e-6
-1.164, -4.737e-6
-1.163, -4.676e-6
-1.162, -4.654e-6
-1.161, -4.923e-6
-1.160, -5.123e-6
-1.159, -5.156e-6
-1.158, -5.085e-6
-1.157, -5.069e-6
-1.156, -5.284e-6
-1.155, -5.558e-6
-1.154, -5.573e-6
-1.153, -5.624e-6
-1.152, -5.479e-6
-1.151, -5.698e-6
-1.150, -5.973e-6
-1.149, -5.963e-6
-1.148, -5.952e-6
-1.147, -5.985e-6
-1.146, -6.114e-6
-1.145, -6.458e-6
-1.144, -6.447e-6
-1.143, -6.402e-6
-1.142, -6.377e-6
-1.141, -6.547e-6
-1.140, -6.788e-6
-1.139, -6.902e-6
-1.138, -6.805e-6
-1.137, -6.786e-6
-1.136, -7.042e-6
-1.135, -7.244e-6
-1.134, -7.344e-6
-1.133, -7.136e-6
-1.132, -7.037e-6
-1.131, -7.425e-6
-1.130, -7.570e-6
-1.129, -7.671e-6
-1.128, -7.586e-6
-1.127, -7.540e-6
-1.126, -7.849e-6
-1.125, -8.020e-6
-1.124, -8.099e-6
-1.123, -8.045e-6
-1.122, -7.994e-6
-1.121, -8.274e-6
-1.120, -8.432e-6
-1.119, -8.523e-6
-1.118, -8.479e-6
-1.117, -8.437e-6
-1.116, -8.665e-6
-1.115, -8.917e-6
-1.114, -8.969e-6
-1.113, -8.848e-6
-1.112, -8.807e-6
-1.111, -9.023e-6
-1.110, -9.293e-6
-1.109, -9.329e-6
-1.108, -9.218e-6
-1.107, -9.279e-6
-1.106, -9.448e-6
-1.105, -9.701e-6
-1.104, -9.687e-6
-1.103, -9.653e-6
-1.102, -9.645e-6
-1.101, -9.797e-6
-1.100, -1.007e-5
-1.099, -1.010e-5
-1.098, -9.917e-6
-1.097, -9.970e-6
-1.096, -1.019e-5
-1.095, -1.044e-5
-1.094, -1.057e-5
-1.093, -1.040e-5
-1.092, -1.040e-5
-1.091, -1.064e-5
-1.090, -1.085e-5
-1.089, -1.098e-5
-1.088, -1.081e-5
-1.087, -1.078e-5
-1.086, -1.108e-5
-1.085, -1.132e-5
-1.084, -1.139e-5
-1.083, -1.135e-5
-1.082, -1.129e-5
-1.081, -1.157e-5
-1.080, -1.174e-5
-1.079, -1.181e-5
-1.078, -1.178e-5
-1.077, -1.170e-5
-1.076, -1.202e-5
-1.075, -1.228e-5
-1.074, -1.224e-5
-1.073, -1.224e-5
-1.072, -1.211e-5
-1.071, -1.239e-5
-1.070, -1.265e-5
-1.069, -1.267e-5
-1.068, -1.258e-5
-1.067, -1.257e-5
-1.066, -1.275e-5
-1.065, -1.303e-5
-1.064, -1.306e-5
-1.063, -1.296e-5
-1.062, -1.296e-5
-1.061, -1.310e-5
-1.060, -1.341e-5
-1.059, -1.348e-5
-1.058, -1.340e-5
-1.057, -1.341e-5
-1.056, -1.361e-5
-1.055, -1.384e-5
-1.054, -1.400e-5
-1.053, -1.384e-5
-1.052, -1.380e-5
-1.051, -1.410e-5
-1.050, -1.429e-5
-1.049, -1.443e-5
-1.048, -1.428e-5
-1.047, -1.427e-5
-1.046, -1.458e-5
-1.045, -1.474e-5
-1.044, -1.485e-5
-1.043, -1.484e-5
-1.042, -1.476e-5
-1.041, -1.505e-5
-1.040, -1.515e-5
-1.039, -1.520e-5
-1.038, -1.505e-5
-1.037, -1.497e-5
-1.036, -1.526e-5
-1.035, -1.561e-5
-1.034, -1.563e-5
-1.033, -1.564e-5
-1.032, -1.556e-5
-1.031, -1.580e-5
-1.030, -1.615e-5
-1.029, -1.610e-5
-1.028, -1.605e-5
-1.027, -1.609e-5
-1.026, -1.632e-5
-1.025, -1.664e-5
-1.024, -1.672e-5
-1.023, -1.666e-5
-1.022, -1.665e-5
-1.021, -1.679e-5
-1.020, -1.711e-5
-1.019, -1.719e-5
-1.018, -1.710e-5
-1.017, -1.706e-5
-1.016, -1.732e-5
-1.015, -1.755e-5
-1.014, -1.771e-5
-1.013, -1.754e-5
-1.012, -1.755e-5
-1.011, -1.785e-5
-1.010, -1.812e-5
-1.009, -1.823e-5
-1.008, -1.811e-5
-1.007, -1.806e-5
-1.006, -1.838e-5
-1.005, -1.852e-5
-1.004, -1.865e-5
-1.003, -1.858e-5
-1.002, -1.851e-5
-1.001, -1.882e-5
