Apr. 22, 2025   05:03:19
Cyclic Voltammetry
File: c:/users/guazh/data/banditlqround7_x0exp590_r20/2025-04-16-exp1153\exp1153-2025-04-22t04_52_04-h2koh\exp1153_cv_sr_600mvs_efin_-1500mv.bin
Data Source:  Experiment
Instrument Model:  CHI760E
Header: CV ran at 600 mVs
Note: 

Init E (V) = -1
High E (V) = -1
Low E (V) = -1.5
Final E (V) = -1
Init P/N = N
Scan Rate (V/s) = 0.6
Segment = 3
Sample Interval (V) = 0.001
Quiet Time (sec) = 2
Sensitivity (A/V) = 0.01
Comp R (ohm) = 1.2

Results:

Channel 1:
Segment 1:

Segment 2:

Segment 3:

Potential/V, Current/A

-1.000, -1.175e-3
-1.001, -1.070e-3
-1.002, -9.834e-4
-1.003, -9.032e-4
-1.004, -8.169e-4
-1.005, -7.151e-4
-1.006, -6.041e-4
-1.007, -4.901e-4
-1.008, -3.791e-4
-1.009, -2.804e-4
-1.010, -2.033e-4
-1.011, -1.417e-4
-1.012, -9.234e-5
-1.013, -4.301e-5
-1.014, 1.249e-5
-1.015, 8.648e-5
-1.016, 1.666e-4
-1.017, 2.622e-4
-1.018, 3.516e-4
-1.019, 4.256e-4
-1.020, 4.873e-4
-1.021, 5.305e-4
-1.022, 5.613e-4
-1.023, 5.952e-4
-1.024, 6.384e-4
-1.025, 6.939e-4
-1.026, 7.648e-4
-1.027, 8.449e-4
-1.028, 9.251e-4
-1.029, 9.868e-4
-1.030, 1.036e-3
-1.031, 1.070e-3
-1.032, 1.088e-3
-1.033, 1.113e-3
-1.034, 1.144e-3
-1.035, 1.190e-3
-1.036, 1.255e-3
-1.037, 1.326e-3
-1.038, 1.394e-3
-1.039, 1.449e-3
-1.040, 1.489e-3
-1.041, 1.517e-3
-1.042, 1.526e-3
-1.043, 1.542e-3
-1.044, 1.566e-3
-1.045, 1.610e-3
-1.046, 1.665e-3
-1.047, 1.730e-3
-1.048, 1.791e-3
-1.049, 1.841e-3
-1.050, 1.875e-3
-1.051, 1.893e-3
-1.052, 1.896e-3
-1.053, 1.906e-3
-1.054, 1.924e-3
-1.055, 1.958e-3
-1.056, 2.007e-3
-1.057, 2.066e-3
-1.058, 2.121e-3
-1.059, 2.168e-3
-1.060, 2.195e-3
-1.061, 2.211e-3
-1.062, 2.214e-3
-1.063, 2.220e-3
-1.064, 2.238e-3
-1.065, 2.272e-3
-1.066, 2.316e-3
-1.067, 2.374e-3
-1.068, 2.430e-3
-1.069, 2.470e-3
-1.070, 2.491e-3
-1.071, 2.501e-3
-1.072, 2.497e-3
-1.073, 2.504e-3
-1.074, 2.519e-3
-1.075, 2.556e-3
-1.076, 2.608e-3
-1.077, 2.664e-3
-1.078, 2.719e-3
-1.079, 2.760e-3
-1.080, 2.781e-3
-1.081, 2.784e-3
-1.082, 2.778e-3
-1.083, 2.772e-3
-1.084, 2.781e-3
-1.085, 2.806e-3
-1.086, 2.846e-3
-1.087, 2.898e-3
-1.088, 2.954e-3
-1.089, 2.994e-3
-1.090, 3.019e-3
-1.091, 3.031e-3
-1.092, 3.028e-3
-1.093, 3.028e-3
-1.094, 3.037e-3
-1.095, 3.062e-3
-1.096, 3.099e-3
-1.097, 3.145e-3
-1.098, 3.188e-3
-1.099, 3.222e-3
-1.100, 3.237e-3
-1.101, 3.244e-3
-1.102, 3.241e-3
-1.103, 3.241e-3
-1.104, 3.253e-3
-1.105, 3.281e-3
-1.106, 3.324e-3
-1.107, 3.376e-3
-1.108, 3.425e-3
-1.109, 3.466e-3
-1.110, 3.493e-3
-1.111, 3.503e-3
-1.112, 3.503e-3
-1.113, 3.503e-3
-1.114, 3.512e-3
-1.115, 3.540e-3
-1.116, 3.583e-3
-1.117, 3.635e-3
-1.118, 3.688e-3
-1.119, 3.728e-3
-1.120, 3.752e-3
-1.121, 3.765e-3
-1.122, 3.768e-3
-1.123, 3.771e-3
-1.124, 3.786e-3
-1.125, 3.820e-3
-1.126, 3.863e-3
-1.127, 3.916e-3
-1.128, 3.965e-3
-1.129, 4.002e-3
-1.130, 4.024e-3
-1.131, 4.027e-3
-1.132, 4.024e-3
-1.133, 4.024e-3
-1.134, 4.036e-3
-1.135, 4.070e-3
-1.136, 4.116e-3
-1.137, 4.175e-3
-1.138, 4.227e-3
-1.139, 4.267e-3
-1.140, 4.289e-3
-1.141, 4.295e-3
-1.142, 4.292e-3
-1.143, 4.292e-3
-1.144, 4.304e-3
-1.145, 4.332e-3
-1.146, 4.375e-3
-1.147, 4.431e-3
-1.148, 4.483e-3
-1.149, 4.526e-3
-1.150, 4.554e-3
-1.151, 4.566e-3
-1.152, 4.572e-3
-1.153, 4.575e-3
-1.154, 4.594e-3
-1.155, 4.625e-3
-1.156, 4.674e-3
-1.157, 4.730e-3
-1.158, 4.785e-3
-1.159, 4.831e-3
-1.160, 4.859e-3
-1.161, 4.875e-3
-1.162, 4.878e-3
-1.163, 4.884e-3
-1.164, 4.902e-3
-1.165, 4.939e-3
-1.166, 4.989e-3
-1.167, 5.050e-3
-1.168, 5.103e-3
-1.169, 5.146e-3
-1.170, 5.174e-3
-1.171, 5.183e-3
-1.172, 5.189e-3
-1.173, 5.195e-3
-1.174, 5.214e-3
-1.175, 5.254e-3
-1.176, 5.303e-3
-1.177, 5.365e-3
-1.178, 5.420e-3
-1.179, 5.470e-3
-1.180, 5.500e-3
-1.181, 5.513e-3
-1.182, 5.519e-3
-1.183, 5.525e-3
-1.184, 5.544e-3
-1.185, 5.581e-3
-1.186, 5.630e-3
-1.187, 5.688e-3
-1.188, 5.747e-3
-1.189, 5.790e-3
-1.190, 5.821e-3
-1.191, 5.840e-3
-1.192, 5.849e-3
-1.193, 5.864e-3
-1.194, 5.889e-3
-1.195, 5.935e-3
-1.196, 5.988e-3
-1.197, 6.049e-3
-1.198, 6.105e-3
-1.199, 6.145e-3
-1.200, 6.169e-3
-1.201, 6.176e-3
-1.202, 6.173e-3
-1.203, 6.176e-3
-1.204, 6.194e-3
-1.205, 6.234e-3
-1.206, 6.293e-3
-1.207, 6.361e-3
-1.208, 6.428e-3
-1.209, 6.484e-3
-1.210, 6.521e-3
-1.211, 6.539e-3
-1.212, 6.546e-3
-1.213, 6.549e-3
-1.214, 6.567e-3
-1.215, 6.601e-3
-1.216, 6.650e-3
-1.217, 6.712e-3
-1.218, 6.777e-3
-1.219, 6.829e-3
-1.220, 6.869e-3
-1.221, 6.891e-3
-1.222, 6.900e-3
-1.223, 6.912e-3
-1.224, 6.934e-3
-1.225, 6.971e-3
-1.226, 7.020e-3
-1.227, 7.079e-3
-1.228, 7.134e-3
-1.229, 7.184e-3
-1.230, 7.212e-3
-1.231, 7.230e-3
-1.232, 7.239e-3
-1.233, 7.258e-3
-1.234, 7.286e-3
-1.235, 7.332e-3
-1.236, 7.390e-3
-1.237, 7.461e-3
-1.238, 7.523e-3
-1.239, 7.575e-3
-1.240, 7.606e-3
-1.241, 7.622e-3
-1.242, 7.628e-3
-1.243, 7.640e-3
-1.244, 7.668e-3
-1.245, 7.711e-3
-1.246, 7.773e-3
-1.247, 7.850e-3
-1.248, 7.921e-3
-1.249, 7.979e-3
-1.250, 8.016e-3
-1.251, 8.038e-3
-1.252, 8.047e-3
-1.253, 8.059e-3
-1.254, 8.081e-3
-1.255, 8.121e-3
-1.256, 8.180e-3
-1.257, 8.257e-3
-1.258, 8.328e-3
-1.259, 8.389e-3
-1.260, 8.436e-3
-1.261, 8.466e-3
-1.262, 8.485e-3
-1.263, 8.503e-3
-1.264, 8.531e-3
-1.265, 8.571e-3
-1.266, 8.627e-3
-1.267, 8.695e-3
-1.268, 8.762e-3
-1.269, 8.821e-3
-1.270, 8.870e-3
-1.271, 8.907e-3
-1.272, 8.932e-3
-1.273, 8.960e-3
-1.274, 8.994e-3
-1.275, 9.043e-3
-1.276, 9.105e-3
-1.277, 9.175e-3
-1.278, 9.240e-3
-1.279, 9.293e-3
-1.280, 9.330e-3
-1.281, 9.357e-3
-1.282, 9.379e-3
-1.283, 9.407e-3
-1.284, 9.447e-3
-1.285, 9.502e-3
-1.286, 9.576e-3
-1.287, 9.656e-3
-1.288, 9.734e-3
-1.289, 9.795e-3
-1.290, 9.838e-3
-1.291, 9.863e-3
-1.292, 9.882e-3
-1.293, 9.900e-3
-1.294, 9.937e-3
-1.295, 9.989e-3
-1.296, 1.006e-2
-1.297, 1.014e-2
-1.298, 1.023e-2
-1.299, 1.030e-2
-1.300, 1.036e-2
-1.301, 1.040e-2
-1.302, 1.043e-2
-1.303, 1.046e-2
-1.304, 1.050e-2
-1.305, 1.055e-2
-1.306, 1.062e-2
-1.307, 1.070e-2
-1.308, 1.078e-2
-1.309, 1.085e-2
-1.310, 1.090e-2
-1.311, 1.094e-2
-1.312, 1.097e-2
-1.313, 1.100e-2
-1.314, 1.105e-2
-1.315, 1.112e-2
-1.316, 1.120e-2
-1.317, 1.128e-2
-1.318, 1.137e-2
-1.319, 1.144e-2
-1.320, 1.150e-2
-1.321, 1.154e-2
-1.322, 1.156e-2
-1.323, 1.159e-2
-1.324, 1.163e-2
-1.325, 1.168e-2
-1.326, 1.176e-2
-1.327, 1.184e-2
-1.328, 1.192e-2
-1.329, 1.199e-2
-1.330, 1.205e-2
-1.331, 1.208e-2
-1.332, 1.211e-2
-1.333, 1.214e-2
-1.334, 1.219e-2
-1.335, 1.226e-2
-1.336, 1.234e-2
-1.337, 1.243e-2
-1.338, 1.251e-2
-1.339, 1.258e-2
-1.340, 1.264e-2
-1.341, 1.268e-2
-1.342, 1.272e-2
-1.343, 1.277e-2
-1.344, 1.282e-2
-1.345, 1.290e-2
-1.346, 1.300e-2
-1.347, 1.309e-2
-1.348, 1.319e-2
-1.349, 1.327e-2
-1.350, 1.333e-2
-1.351, 1.339e-2
-1.352, 1.342e-2
-1.353, 1.346e-2
-1.354, 1.352e-2
-1.355, 1.358e-2
-1.356, 1.366e-2
-1.357, 1.374e-2
-1.358, 1.383e-2
-1.359, 1.390e-2
-1.360, 1.396e-2
-1.361, 1.401e-2
-1.362, 1.405e-2
-1.363, 1.409e-2
-1.364, 1.415e-2
-1.365, 1.423e-2
-1.366, 1.432e-2
-1.367, 1.441e-2
-1.368, 1.449e-2
-1.369, 1.456e-2
-1.370, 1.461e-2
-1.371, 1.465e-2
-1.372, 1.468e-2
-1.373, 1.471e-2
-1.374, 1.477e-2
-1.375, 1.484e-2
-1.376, 1.493e-2
-1.377, 1.503e-2
-1.378, 1.514e-2
-1.379, 1.522e-2
-1.380, 1.530e-2
-1.381, 1.535e-2
-1.382, 1.539e-2
-1.383, 1.543e-2
-1.384, 1.549e-2
-1.385, 1.555e-2
-1.386, 1.563e-2
-1.387, 1.572e-2
-1.388, 1.581e-2
-1.389, 1.590e-2
-1.390, 1.597e-2
-1.391, 1.603e-2
-1.392, 1.608e-2
-1.393, 1.614e-2
-1.394, 1.620e-2
-1.395, 1.629e-2
-1.396, 1.637e-2
-1.397, 1.647e-2
-1.398, 1.655e-2
-1.399, 1.664e-2
-1.400, 1.670e-2
-1.401, 1.676e-2
-1.402, 1.680e-2
-1.403, 1.685e-2
-1.404, 1.691e-2
-1.405, 1.698e-2
-1.406, 1.707e-2
-1.407, 1.717e-2
-1.408, 1.726e-2
-1.409, 1.735e-2
-1.410, 1.741e-2
-1.411, 1.746e-2
-1.412, 1.750e-2
-1.413, 1.754e-2
-1.414, 1.760e-2
-1.415, 1.767e-2
-1.416, 1.776e-2
-1.417, 1.786e-2
-1.418, 1.796e-2
-1.419, 1.804e-2
-1.420, 1.812e-2
-1.421, 1.818e-2
-1.422, 1.822e-2
-1.423, 1.825e-2
-1.424, 1.829e-2
-1.425, 1.834e-2
-1.426, 1.843e-2
-1.427, 1.853e-2
-1.428, 1.863e-2
-1.429, 1.873e-2
-1.430, 1.880e-2
-1.431, 1.885e-2
-1.432, 1.889e-2
-1.433, 1.892e-2
-1.434, 1.897e-2
-1.435, 1.903e-2
-1.436, 1.910e-2
-1.437, 1.919e-2
-1.438, 1.928e-2
-1.439, 1.937e-2
-1.440, 1.945e-2
-1.441, 1.950e-2
-1.442, 1.954e-2
-1.443, 1.958e-2
-1.444, 1.964e-2
-1.445, 1.970e-2
-1.446, 1.979e-2
-1.447, 1.988e-2
-1.448, 1.997e-2
-1.449, 2.004e-2
-1.450, 2.009e-2
-1.451, 2.013e-2
-1.452, 2.016e-2
-1.453, 2.020e-2
-1.454, 2.025e-2
-1.455, 2.031e-2
-1.456, 2.039e-2
-1.457, 2.048e-2
-1.458, 2.056e-2
-1.459, 2.064e-2
-1.460, 2.069e-2
-1.461, 2.073e-2
-1.462, 2.076e-2
-1.463, 2.080e-2
-1.464, 2.085e-2
-1.465, 2.091e-2
-1.466, 2.098e-2
-1.467, 2.106e-2
-1.468, 2.113e-2
-1.469, 2.118e-2
-1.470, 2.122e-2
-1.471, 2.124e-2
-1.472, 2.126e-2
-1.473, 2.129e-2
-1.474, 2.134e-2
-1.475, 2.141e-2
-1.476, 2.149e-2
-1.477, 2.158e-2
-1.478, 2.166e-2
-1.479, 2.171e-2
-1.480, 2.175e-2
-1.481, 2.176e-2
-1.482, 2.176e-2
-1.483, 2.176e-2
-1.484, 2.179e-2
-1.485, 2.183e-2
-1.486, 2.189e-2
-1.487, 2.196e-2
-1.488, 2.204e-2
-1.489, 2.211e-2
-1.490, 2.215e-2
-1.491, 2.216e-2
-1.492, 2.215e-2
-1.493, 2.214e-2
-1.494, 2.214e-2
-1.495, 2.214e-2
-1.496, 2.216e-2
-1.497, 2.221e-2
-1.498, 2.225e-2
-1.499, 2.230e-2
-1.500, 2.225e-2
-1.499, 2.204e-2
-1.498, 2.183e-2
-1.497, 2.163e-2
-1.496, 2.144e-2
-1.495, 2.126e-2
-1.494, 2.109e-2
-1.493, 2.094e-2
-1.492, 2.077e-2
-1.491, 2.059e-2
-1.490, 2.038e-2
-1.489, 2.017e-2
-1.488, 1.996e-2
-1.487, 1.974e-2
-1.486, 1.953e-2
-1.485, 1.934e-2
-1.484, 1.916e-2
-1.483, 1.900e-2
-1.482, 1.882e-2
-1.481, 1.863e-2
-1.480, 1.843e-2
-1.479, 1.822e-2
-1.478, 1.799e-2
-1.477, 1.777e-2
-1.476, 1.756e-2
-1.475, 1.739e-2
-1.474, 1.723e-2
-1.473, 1.707e-2
-1.472, 1.690e-2
-1.471, 1.672e-2
-1.470, 1.650e-2
-1.469, 1.627e-2
-1.468, 1.603e-2
-1.467, 1.579e-2
-1.466, 1.559e-2
-1.465, 1.540e-2
-1.464, 1.524e-2
-1.463, 1.508e-2
-1.462, 1.493e-2
-1.461, 1.477e-2
-1.460, 1.459e-2
-1.459, 1.440e-2
-1.458, 1.420e-2
-1.457, 1.400e-2
-1.456, 1.382e-2
-1.455, 1.365e-2
-1.454, 1.349e-2
-1.453, 1.333e-2
-1.452, 1.318e-2
-1.451, 1.302e-2
-1.450, 1.283e-2
-1.449, 1.263e-2
-1.448, 1.241e-2
-1.447, 1.220e-2
-1.446, 1.201e-2
-1.445, 1.184e-2
-1.444, 1.168e-2
-1.443, 1.153e-2
-1.442, 1.138e-2
-1.441, 1.122e-2
-1.440, 1.104e-2
-1.439, 1.085e-2
-1.438, 1.065e-2
-1.437, 1.045e-2
-1.436, 1.026e-2
-1.435, 1.010e-2
-1.434, 9.959e-3
-1.433, 9.823e-3
-1.432, 9.684e-3
-1.431, 9.533e-3
-1.430, 9.360e-3
-1.429, 9.179e-3
-1.428, 8.997e-3
-1.427, 8.827e-3
-1.426, 8.654e-3
-1.425, 8.516e-3
-1.424, 8.380e-3
-1.423, 8.272e-3
-1.422, 8.161e-3
-1.421, 8.025e-3
-1.420, 7.874e-3
-1.419, 7.720e-3
-1.418, 7.548e-3
-1.417, 7.378e-3
-1.416, 7.227e-3
-1.415, 7.097e-3
-1.414, 6.986e-3
-1.413, 6.885e-3
-1.412, 6.777e-3
-1.411, 6.660e-3
-1.410, 6.524e-3
-1.409, 6.379e-3
-1.408, 6.225e-3
-1.407, 6.080e-3
-1.406, 5.954e-3
-1.405, 5.846e-3
-1.404, 5.753e-3
-1.403, 5.667e-3
-1.402, 5.574e-3
-1.401, 5.473e-3
-1.400, 5.359e-3
-1.399, 5.226e-3
-1.398, 5.090e-3
-1.397, 4.961e-3
-1.396, 4.853e-3
-1.395, 4.757e-3
-1.394, 4.671e-3
-1.393, 4.600e-3
-1.392, 4.529e-3
-1.391, 4.446e-3
-1.390, 4.347e-3
-1.389, 4.230e-3
-1.388, 4.107e-3
-1.387, 3.990e-3
-1.386, 3.885e-3
-1.385, 3.802e-3
-1.384, 3.734e-3
-1.383, 3.672e-3
-1.382, 3.607e-3
-1.381, 3.533e-3
-1.380, 3.441e-3
-1.379, 3.336e-3
-1.378, 3.225e-3
-1.377, 3.117e-3
-1.376, 3.028e-3
-1.375, 2.957e-3
-1.374, 2.901e-3
-1.373, 2.852e-3
-1.372, 2.800e-3
-1.371, 2.741e-3
-1.370, 2.661e-3
-1.369, 2.565e-3
-1.368, 2.467e-3
-1.367, 2.368e-3
-1.366, 2.288e-3
-1.365, 2.223e-3
-1.364, 2.174e-3
-1.363, 2.137e-3
-1.362, 2.094e-3
-1.361, 2.038e-3
-1.360, 1.970e-3
-1.359, 1.884e-3
-1.358, 1.791e-3
-1.357, 1.705e-3
-1.356, 1.631e-3
-1.355, 1.579e-3
-1.354, 1.536e-3
-1.353, 1.505e-3
-1.352, 1.471e-3
-1.351, 1.425e-3
-1.350, 1.360e-3
-1.349, 1.283e-3
-1.348, 1.196e-3
-1.347, 1.119e-3
-1.346, 1.051e-3
-1.345, 1.002e-3
-1.344, 9.713e-4
-1.343, 9.467e-4
-1.342, 9.189e-4
-1.341, 8.788e-4
-1.340, 8.203e-4
-1.339, 7.494e-4
-1.338, 6.723e-4
-1.337, 5.983e-4
-1.336, 5.397e-4
-1.335, 4.965e-4
-1.334, 4.719e-4
-1.333, 4.565e-4
-1.332, 4.349e-4
-1.331, 4.010e-4
-1.330, 3.485e-4
-1.329, 2.807e-4
-1.328, 2.098e-4
-1.327, 1.420e-4
-1.326, 8.957e-5
-1.325, 5.565e-5
-1.324, 3.407e-5
-1.323, 2.174e-5
-1.322, 6.322e-6
-1.321, -2.451e-5
-1.320, -6.767e-5
-1.319, -1.293e-4
-1.318, -1.972e-4
-1.317, -2.619e-4
-1.316, -3.112e-4
-1.315, -3.390e-4
-1.314, -3.544e-4
-1.313, -3.637e-4
-1.312, -3.729e-4
-1.311, -3.976e-4
-1.310, -4.376e-4
-1.309, -4.931e-4
-1.308, -5.548e-4
-1.307, -6.134e-4
-1.306, -6.565e-4
-1.305, -6.812e-4
-1.304, -6.935e-4
-1.303, -6.966e-4
-1.302, -7.028e-4
-1.301, -7.213e-4
-1.300, -7.583e-4
-1.299, -8.107e-4
-1.298, -8.693e-4
-1.297, -9.248e-4
-1.296, -9.618e-4
-1.295, -9.834e-4
-1.294, -9.895e-4
-1.293, -9.895e-4
-1.292, -9.926e-4
-1.291, -1.008e-3
-1.290, -1.042e-3
-1.289, -1.091e-3
-1.288, -1.144e-3
-1.287, -1.196e-3
-1.286, -1.233e-3
-1.285, -1.252e-3
-1.284, -1.255e-3
-1.283, -1.249e-3
-1.282, -1.245e-3
-1.281, -1.261e-3
-1.280, -1.292e-3
-1.279, -1.335e-3
-1.278, -1.387e-3
-1.277, -1.437e-3
-1.276, -1.470e-3
-1.275, -1.486e-3
-1.274, -1.486e-3
-1.273, -1.480e-3
-1.272, -1.477e-3
-1.271, -1.489e-3
-1.270, -1.517e-3
-1.269, -1.560e-3
-1.268, -1.609e-3
-1.267, -1.655e-3
-1.266, -1.686e-3
-1.265, -1.699e-3
-1.264, -1.696e-3
-1.263, -1.686e-3
-1.262, -1.683e-3
-1.261, -1.689e-3
-1.260, -1.717e-3
-1.259, -1.757e-3
-1.258, -1.807e-3
-1.257, -1.853e-3
-1.256, -1.881e-3
-1.255, -1.893e-3
-1.254, -1.890e-3
-1.253, -1.877e-3
-1.252, -1.871e-3
-1.251, -1.877e-3
-1.250, -1.905e-3
-1.249, -1.945e-3
-1.248, -1.992e-3
-1.247, -2.038e-3
-1.246, -2.066e-3
-1.245, -2.078e-3
-1.244, -2.075e-3
-1.243, -2.062e-3
-1.242, -2.053e-3
-1.241, -2.056e-3
-1.240, -2.078e-3
-1.239, -2.118e-3
-1.238, -2.161e-3
-1.237, -2.201e-3
-1.236, -2.229e-3
-1.235, -2.238e-3
-1.234, -2.232e-3
-1.233, -2.220e-3
-1.232, -2.210e-3
-1.231, -2.214e-3
-1.230, -2.238e-3
-1.229, -2.278e-3
-1.228, -2.325e-3
-1.227, -2.365e-3
-1.226, -2.389e-3
-1.225, -2.399e-3
-1.224, -2.392e-3
-1.223, -2.377e-3
-1.222, -2.368e-3
-1.221, -2.374e-3
-1.220, -2.399e-3
-1.219, -2.436e-3
-1.218, -2.482e-3
-1.217, -2.522e-3
-1.216, -2.550e-3
-1.215, -2.559e-3
-1.214, -2.553e-3
-1.213, -2.540e-3
-1.212, -2.534e-3
-1.211, -2.540e-3
-1.210, -2.562e-3
-1.209, -2.602e-3
-1.208, -2.648e-3
-1.207, -2.691e-3
-1.206, -2.716e-3
-1.205, -2.722e-3
-1.204, -2.716e-3
-1.203, -2.701e-3
-1.202, -2.691e-3
-1.201, -2.694e-3
-1.200, -2.716e-3
-1.199, -2.756e-3
-1.198, -2.799e-3
-1.197, -2.839e-3
-1.196, -2.867e-3
-1.195, -2.873e-3
-1.194, -2.867e-3
-1.193, -2.855e-3
-1.192, -2.846e-3
-1.191, -2.852e-3
-1.190, -2.873e-3
-1.189, -2.910e-3
-1.188, -2.957e-3
-1.187, -2.997e-3
-1.186, -3.027e-3
-1.185, -3.037e-3
-1.184, -3.031e-3
-1.183, -3.018e-3
-1.182, -3.009e-3
-1.181, -3.015e-3
-1.180, -3.040e-3
-1.179, -3.080e-3
-1.178, -3.126e-3
-1.177, -3.172e-3
-1.176, -3.200e-3
-1.175, -3.209e-3
-1.174, -3.206e-3
-1.173, -3.194e-3
-1.172, -3.188e-3
-1.171, -3.191e-3
-1.170, -3.216e-3
-1.169, -3.256e-3
-1.168, -3.299e-3
-1.167, -3.345e-3
-1.166, -3.373e-3
-1.165, -3.385e-3
-1.164, -3.382e-3
-1.163, -3.370e-3
-1.162, -3.360e-3
-1.161, -3.367e-3
-1.160, -3.394e-3
-1.159, -3.438e-3
-1.158, -3.487e-3
-1.157, -3.530e-3
-1.156, -3.561e-3
-1.155, -3.573e-3
-1.154, -3.570e-3
-1.153, -3.561e-3
-1.152, -3.555e-3
-1.151, -3.567e-3
-1.150, -3.595e-3
-1.149, -3.638e-3
-1.148, -3.690e-3
-1.147, -3.737e-3
-1.146, -3.770e-3
-1.145, -3.789e-3
-1.144, -3.789e-3
-1.143, -3.783e-3
-1.142, -3.777e-3
-1.141, -3.789e-3
-1.140, -3.820e-3
-1.139, -3.866e-3
-1.138, -3.922e-3
-1.137, -3.974e-3
-1.136, -4.008e-3
-1.135, -4.029e-3
-1.134, -4.033e-3
-1.133, -4.026e-3
-1.132, -4.026e-3
-1.131, -4.039e-3
-1.130, -4.073e-3
-1.129, -4.122e-3
-1.128, -4.177e-3
-1.127, -4.230e-3
-1.126, -4.273e-3
-1.125, -4.298e-3
-1.124, -4.307e-3
-1.123, -4.310e-3
-1.122, -4.316e-3
-1.121, -4.335e-3
-1.120, -4.369e-3
-1.119, -4.418e-3
-1.118, -4.473e-3
-1.117, -4.523e-3
-1.116, -4.563e-3
-1.115, -4.588e-3
-1.114, -4.603e-3
-1.113, -4.612e-3
-1.112, -4.625e-3
-1.111, -4.655e-3
-1.110, -4.699e-3
-1.109, -4.757e-3
-1.108, -4.822e-3
-1.107, -4.880e-3
-1.106, -4.927e-3
-1.105, -4.957e-3
-1.104, -4.976e-3
-1.103, -4.994e-3
-1.102, -5.013e-3
-1.101, -5.053e-3
-1.100, -5.115e-3
-1.099, -5.189e-3
-1.098, -5.272e-3
-1.097, -5.349e-3
-1.096, -5.411e-3
-1.095, -5.460e-3
-1.094, -5.500e-3
-1.093, -5.531e-3
-1.092, -5.571e-3
-1.091, -5.623e-3
-1.090, -5.697e-3
-1.089, -5.784e-3
-1.088, -5.879e-3
-1.087, -5.975e-3
-1.086, -6.058e-3
-1.085, -6.120e-3
-1.084, -6.163e-3
-1.083, -6.200e-3
-1.082, -6.240e-3
-1.081, -6.296e-3
-1.080, -6.370e-3
-1.079, -6.459e-3
-1.078, -6.558e-3
-1.077, -6.650e-3
-1.076, -6.733e-3
-1.075, -6.798e-3
-1.074, -6.847e-3
-1.073, -6.888e-3
-1.072, -6.925e-3
-1.071, -6.977e-3
-1.070, -7.045e-3
-1.069, -7.128e-3
-1.068, -7.217e-3
-1.067, -7.304e-3
-1.066, -7.381e-3
-1.065, -7.436e-3
-1.064, -7.479e-3
-1.063, -7.520e-3
-1.062, -7.560e-3
-1.061, -7.615e-3
-1.060, -7.686e-3
-1.059, -7.772e-3
-1.058, -7.862e-3
-1.057, -7.948e-3
-1.056, -8.019e-3
-1.055, -8.071e-3
-1.054, -8.112e-3
-1.053, -8.142e-3
-1.052, -8.179e-3
-1.051, -8.232e-3
-1.050, -8.303e-3
-1.049, -8.389e-3
-1.048, -8.475e-3
-1.047, -8.562e-3
-1.046, -8.629e-3
-1.045, -8.682e-3
-1.044, -8.719e-3
-1.043, -8.750e-3
-1.042, -8.790e-3
-1.041, -8.845e-3
-1.040, -8.916e-3
-1.039, -9.003e-3
-1.038, -9.092e-3
-1.037, -9.172e-3
-1.036, -9.237e-3
-1.035, -9.280e-3
-1.034, -9.308e-3
-1.033, -9.329e-3
-1.032, -9.357e-3
-1.031, -9.406e-3
-1.030, -9.471e-3
-1.029, -9.557e-3
-1.028, -9.650e-3
-1.027, -9.736e-3
-1.026, -9.810e-3
-1.025, -9.866e-3
-1.024, -9.903e-3
-1.023, -9.934e-3
-1.022, -9.968e-3
-1.021, -1.001e-2
-1.020, -1.008e-2
-1.019, -1.016e-2
-1.018, -1.025e-2
-1.017, -1.033e-2
-1.016, -1.040e-2
-1.015, -1.045e-2
-1.014, -1.049e-2
-1.013, -1.051e-2
-1.012, -1.055e-2
-1.011, -1.060e-2
-1.010, -1.066e-2
-1.009, -1.074e-2
-1.008, -1.083e-2
-1.007, -1.091e-2
-1.006, -1.098e-2
-1.005, -1.103e-2
-1.004, -1.105e-2
-1.003, -1.108e-2
-1.002, -1.111e-2
-1.001, -1.115e-2
