Potential V vs RHE, Current mA cm-2
0.013299999999999867,18.57515936722793
0.012299999999999978,16.622857773414182
0.011299999999999866,14.472496597619326
0.010299999999999976,12.68996035978938
0.009299999999999864,11.425208457710037
0.008299999999999974,10.683899736580756
0.007299999999999862,9.942591015451477
0.006299999999999972,8.80799255295972
0.00529999999999986,7.32537511070116
0.0042999999999999705,5.7111895175551535
0.0032999999999998586,4.534149716067443
0.0022999999999999687,3.7928409949381634
0.0012999999999998568,3.3995512535756833
0.00029999999999996696,2.8761080726256196
-0.000700000000000145,1.8730777610213083
-0.0017000000000000348,0.5211796428702795
-0.0027000000000001467,-0.7872868383748929
-0.0037000000000000366,-1.6594563547416883
-0.0047000000000001485,-2.008890045808352
-0.005700000000000038,-2.226755585987568
-0.00670000000000015,-2.7501987669376318
-0.00770000000000004,-3.7532290785419424
-0.008700000000000152,-5.017980980621284
-0.009700000000000042,-6.108723392817228
-0.010700000000000154,-6.6760226240631075
-0.011700000000000044,-6.806176063650692
-0.012700000000000156,-6.93774421453814
-0.013700000000000045,-7.5474847847799715
-0.014700000000000157,-8.594371146680096
-0.015700000000000047,-9.728969609171857
-0.01670000000000016,-10.514134380596953
-0.01770000000000005,-10.819712021367803
-0.01870000000000016,-10.819712021367803
-0.01970000000000005,-10.993721511251199
-0.020700000000000163,-11.647318131788847
-0.021700000000000053,-12.651763154693022
-0.022700000000000164,-13.654793466297335
-0.023700000000000054,-14.217848563643619
-0.024700000000000166,-14.30273124163552
-0.025700000000000056,-14.26028990263957
-0.026700000000000168,-14.529085049613924
-0.027700000000000058,-15.264734925543747
-0.02870000000000017,-16.311621287443874
-0.02970000000000006,-17.146300954364243
-0.03070000000000017,-17.4433903273359
-0.03170000000000006,-17.40094898833995
-0.03270000000000017,-17.40094898833995
-0.03370000000000006,-17.797068152302163
-0.034700000000000175,-18.674189158218486
-0.035700000000000065,-19.721075520118614
-0.03670000000000018,-20.371842718056527
-0.03770000000000007,-20.499166735044383
-0.03870000000000018,-20.329401379060574
-0.03970000000000007,-20.286960040064624
-0.04070000000000018,-20.76796188201874
-0.04170000000000007,-21.67337711393236
-0.04270000000000018,-22.550498119848687
-0.04370000000000007,-23.031499961802798
-0.044700000000000184,-22.946617283810895
-0.045700000000000074,-22.72026347583249
-0.046700000000000186,-22.861734605818995
-0.047700000000000076,-23.47006046476096
-0.04870000000000019,-24.389622809673234
-0.04970000000000008,-25.0828313466071
-0.05070000000000019,-25.295038041586857
-0.05170000000000008,-25.167714024599
-0.05270000000000019,-24.997948668615198
-0.05370000000000008,-25.295038041586857
-0.05470000000000019,-26.087276369511276
-0.05570000000000008,-26.907808923433
-0.056700000000000195,-27.487840556377662
-0.057700000000000085,-27.530281895373616
-0.058700000000000196,-27.303928087395207
-0.059700000000000086,-27.219045409403304
-0.0607000000000002,-27.700047251357418
-0.06170000000000009,-28.577168257273744
-0.0627000000000002,-29.35525947219951
-0.06370000000000009,-29.751378636161718
-0.0647000000000002,-29.66649595816982
-0.06570000000000009,-29.39770081119546
-0.0667000000000002,-29.440142150191413
-0.0677000000000001,-30.00602667013743
-0.0687000000000002,-30.8407063370578
-0.0697000000000001,-31.49147353499572
-0.07070000000000021,-31.618797551983565
-0.0717000000000001,-31.40659085700382
-0.07270000000000021,-31.19438416202406
-0.0737000000000001,-31.449032195999767
-0.07470000000000021,-32.14224073293363
-0.0757000000000001,-32.97692039985401
-0.07670000000000021,-33.54280491980002
-0.0777000000000001,-33.54280491980002
-0.07870000000000021,-33.330598224820264
-0.0797000000000001,-33.231568433829715
-0.08070000000000022,-33.670128936787876
-0.0817000000000001,-34.50480860370825
-0.08270000000000022,-35.282899818634014
-0.08370000000000011,-35.679018982596226
-0.08470000000000022,-35.594136304604326
-0.08570000000000011,-35.32534115762997
-0.08670000000000022,-35.38192960962457
-0.08770000000000011,-35.90537279057463
-0.08870000000000022,-36.768346683492304
-0.08970000000000011,-37.41911388143023
-0.09070000000000022,-37.60302635041268
-0.09170000000000011,-37.41911388143023
-0.09270000000000023,-37.249348525446415
-0.09370000000000012,-37.47570233342482
-0.09470000000000023,-38.211352209354644
-0.09570000000000012,-39.08847321527096
-0.09670000000000023,-39.61191639622103
-0.09770000000000012,-39.654357735216976
-0.09870000000000023,-39.42800392723857
-0.09970000000000012,-39.38556258824262
-0.10070000000000023,-39.78168175220483
-0.10170000000000012,-40.559772967130606
-0.10270000000000024,-41.352011295055014
-0.10370000000000013,-41.66324778102533
-0.10470000000000024,-41.52177665103883
-0.10570000000000013,-41.30956995605907
-0.10670000000000024,-41.39445263405098
-0.10770000000000013,-42.00277849299294
-0.10870000000000024,-42.87989949890926
-0.10970000000000013,-43.57310803584313
-0.11070000000000024,-43.84190318281749
-0.11170000000000013,-43.57310803584313
-0.11270000000000002,-43.40334267985933
-0.11370000000000013,-43.657990713835034
-0.11470000000000002,-44.4077877027635
-0.11570000000000014,-45.36979138667173
-0.11670000000000003,-45.97811724561369
-0.11770000000000014,-46.062999923605595
-0.11870000000000003,-45.89323456762179
-0.11970000000000014,-45.85079322862584
-0.12070000000000003,-46.27520661858535
-0.12170000000000014,-47.15232762450167
-0.12270000000000003,-47.987007291422046
-0.12370000000000014,-48.32653800338966
-0.12470000000000003,-48.24165532539775
-0.12570000000000014,-48.071889969413945
-0.12670000000000003,-48.24165532539775
-0.12770000000000015,-48.89242252333566
-0.12870000000000004,-49.85442620724389
-0.12970000000000015,-50.64666453516831
-0.13070000000000004,-50.85887123014807
-0.13170000000000015,-50.64666453516831
-0.13270000000000004,-50.50519340518181
-0.13370000000000015,-50.73154721316022
-0.13470000000000004,-51.509638428085985
-0.13570000000000015,-52.386759434002315
-0.13670000000000004,-52.995085292944275
-0.13770000000000016,-53.12240930993213
-0.13870000000000005,-52.91020261495237
-0.13970000000000016,-52.86776127595642
-0.14070000000000005,-53.348763117910536
-0.14170000000000016,-54.16929567183226
-0.14270000000000005,-55.046416677748574
-0.14370000000000016,-55.442535841710786
-0.14470000000000005,-55.442535841710786
-0.14570000000000016,-55.25862337272834
-0.14670000000000005,-55.484977180706736
-0.14770000000000016,-56.1781857176406
-0.14870000000000005,-57.182630740544774
-0.14970000000000017,-57.974869068469204
-0.15070000000000006,-58.27195844144086
-0.15170000000000017,-58.18707576344896
-0.15270000000000006,-58.10219308545706
-0.15370000000000017,-58.45587091042332
-0.15470000000000006,-59.23396212534908
-0.15570000000000017,-60.19596580925731
-0.15670000000000006,-60.80429166819927
-0.15770000000000017,-60.93161568518713
-0.15870000000000006,-60.761850329203334
-0.15970000000000018,-60.80429166819927
-0.16070000000000007,-61.327734849149344
-0.16170000000000018,-62.24729719406162
-0.16270000000000007,-63.15271242597524
-0.16370000000000018,-63.59127292893339
-0.16470000000000007,-63.5063902509415
-0.16570000000000018,-63.251742216965795
-0.16670000000000007,-63.37906623395363
-0.16770000000000018,-64.02983343189156
-0.16870000000000007,-65.03427845479574
-0.16970000000000018,-65.82651678272015
-0.17070000000000007,-66.12360615569182
-0.17170000000000019,-66.03872347769992
-0.17270000000000008,-65.86895812171612
-0.1737000000000002,-66.20848883368372
-0.17470000000000008,-67.00072716160814
-0.1757000000000002,-68.0051721845123
-0.17670000000000008,-68.69838072144618
-0.1777000000000002,-68.86814607742998
-0.17870000000000008,-68.74082206044213
-0.1797000000000002,-68.82570473843404
-0.18070000000000008,-69.30670658038814
-0.1817000000000002,-70.22626892530042
-0.18270000000000008,-71.1458312702127
-0.1837000000000002,-71.66927445116276
-0.1847000000000001,-71.75415712915466
-0.1857000000000002,-71.66927445116276
-0.1867000000000001,-71.83903980714656
-0.1877000000000002,-72.57468968307639
-0.1887000000000001,-73.57913470598055
-0.1897000000000002,-74.45625571189689
-0.1907000000000001,-74.76749219786718
-0.1917000000000001,-74.62602106788069
-0.19269999999999998,-74.54113838988879
-0.1937000000000001,-74.89481621485504
-0.19469999999999998,-75.6729074297808
-0.1957000000000001,-76.63491111368903
-0.19669999999999999,-77.28567831162695
-0.1977000000000001,-77.51203211960537
-0.1987,-77.42714944161345
-0.1997000000000001,-77.51203211960537
-0.2007,-78.12035797854733
-0.2017000000000001,-79.1248030014515
-0.2027,-80.12924802435568
-0.2037000000000001,-80.69513254430169
-0.2047,-80.73757388329766
-0.2057000000000001,-80.61024986630979
-0.2067,-80.86489790028548
-0.2077000000000001,-81.61469488921396
-0.2087,-82.6615812511141
-0.2097000000000001,-83.60943782202366
-0.2107,-84.04799832498183
-0.2117000000000001,-84.09043966397778
-0.2127,-84.09043966397778
-0.2137000000000001,-84.52900016693594
-0.2147,-85.44856251184822
-0.2157000000000001,-86.5378902127443
-0.2167,-87.18865741068221
-0.21770000000000012,-87.45745255765657
-0.2187,-87.41501121866061
-0.21970000000000012,-87.54233523564847
-0.2207,-88.19310243358639
-0.22170000000000012,-89.28243013448247
-0.2227,-90.24443381839069
-0.22370000000000012,-90.7254356603448
-0.2247,-90.7254356603448
-0.22570000000000012,-90.59811164335694
-0.2267,-90.81031833833671
-0.22770000000000012,-91.64499800525708
-0.22870000000000001,-92.86164972314101
-0.22970000000000013,-94.03586010202899
-0.23070000000000002,-94.7432157519615
-0.23170000000000013,-94.91298110794531
-0.23270000000000002,-95.04030512493317
-0.23370000000000013,-95.47886562789132
-0.23470000000000002,-96.35598663380765
-0.23570000000000013,-97.4877556736997
-0.23670000000000002,-98.3082882276214
-0.2376999999999999,-98.74684873057957
-0.23870000000000002,-98.88831986056607
-0.2396999999999999,-99.10052655554581
-0.24070000000000003,-99.83617643147564
-0.24169999999999991,-100.98209258436633
-0.24270000000000003,-102.02897894626645
-0.24369999999999992,-102.63730480520842
-0.24470000000000003,-102.76462882219626
-0.24569999999999992,-102.76462882219626
-0.24670000000000003,-103.07586530816658
-0.24769999999999992,-103.85395652309235
-0.24870000000000003,-104.94328422398843
-0.24969999999999992,-105.82040522990474
-0.25070000000000003,-106.30140707185885
-0.2516999999999999,-106.4287310888467
-0.25270000000000004,-106.64093778382647
-0.2536999999999999,-107.30585209476303
-0.25470000000000004,-108.48006247365102
-0.2556999999999999,-109.73915553053091
-0.25670000000000004,-110.6162765364472
-0.25769999999999993,-111.05483703940537
-0.25870000000000004,-111.22460239538917
-0.25969999999999993,-111.6207215593514
-0.26070000000000004,-112.39881277427718
-0.26169999999999993,-113.62961160515974
-0.26270000000000004,-114.88870466203963
-0.26369999999999993,-115.62435453796945
-0.26470000000000005,-115.85070834594785
-0.26569999999999994,-115.93559102393975
-0.26670000000000005,-116.28926884890602
-0.26769999999999994,-117.19468408081964
-0.26870000000000005,-118.42548291170223
-0.26969999999999994,-119.55725195159425
-0.27070000000000005,-120.16557781053622
-0.27169999999999994,-120.39193161851462
-0.27270000000000005,-120.60413831349437
-0.27369999999999994,-121.2549055114323
-0.27470000000000006,-122.38667455132433
-0.27569999999999995,-123.65991472120285
-0.27670000000000006,-124.57947706611512
-0.27769999999999995,-125.00389045607463
-0.27870000000000006,-125.04633179507057
-0.27969999999999995,-125.35756828104091
-0.28070000000000006,-126.19224794796128
-0.28169999999999995,-127.4088996658452
-0.28270000000000006,-128.71043406172103
-0.28369999999999995,-129.6299964066333
-0.28470000000000006,-130.06855690959148
-0.28569999999999995,-130.37979339556176
-0.28670000000000007,-130.98811925450374
-0.28769999999999996,-131.99256427740792
-0.28870000000000007,-133.2516573342878
-0.28969999999999996,-134.34098503518388
-0.29070000000000007,-134.9917522331218
-0.29169999999999996,-135.3029887190921
-0.29270000000000007,-135.5576367530678
-0.29369999999999996,-136.30743374199628
-0.2947000000000001,-137.52408545988024
-0.29569999999999996,-138.92464964674662
-0.2967000000000001,-139.97153600864672
-0.29769999999999996,-140.53742052859275
-0.2987000000000001,-140.79206856256846
-0.29969999999999997,-141.2306290655266
-0.3007000000000001,-142.17848563643616
-0.30169999999999997,-143.5931969363012
-0.3027000000000001,-145.00790823616626
-0.30369999999999997,-145.9982061460718
-0.3047000000000001,-146.28114840604482
-0.30569999999999997,-146.4226195360313
-0.3067000000000001,-146.8470329259908
-0.3077,-147.97880196588284
-0.3087000000000001,-149.53498439573437
-0.3097,-150.8082245656129
-0.3107000000000001,-151.5155802155454
-0.3117,-151.65705134553193
-0.3127000000000001,-151.93999360550492
-0.3137,-152.50587812545095
-0.3147000000000001,-153.920589425316
-0.3157,-155.47677185516753
-0.3167000000000001,-156.89148315503257
-0.3177,-157.59883880496508
-0.3187000000000001,-157.88178106493808
-0.3197,-158.3061944548976
-0.3207000000000001,-159.15502123481662
-0.3217,-160.42826140469515
-0.3227000000000001,-161.70150157457368
-0.3237,-162.5503283544927
-0.3247000000000001,-162.97474174445222
-0.3257,-163.54062626439824
-0.3267000000000001,-164.53092417430375
-0.3277,-166.0871066041553
-0.3287000000000001,-167.78476016399335
-0.3297,-169.0580003338719
-0.3307000000000001,-169.48241372383137
-0.3317,-169.3409425938449
-0.3327000000000001,-169.19947146385837
-0.3337,-169.48241372383137
-0.3347000000000001,-170.47271163373694
-0.3357,-171.88742293360195
-0.3367000000000001,-173.302134233467
-0.3377,-174.2924321433725
-0.3387000000000001,-174.85831666331853
-0.3397,-175.28273005327804
-0.3407000000000001,-176.4144990931701
-0.3417,-177.9706815230216
-0.3427000000000001,-179.38539282288664
-0.3437,-180.5171618627787
-0.3447000000000001,-181.2245175127112
-0.3457,-181.79040203265723
-0.3467000000000001,-182.63922881257625
-0.3477,-183.91246898245475
-0.3487000000000001,-185.6101225422928
-0.3497,-187.02483384215788
-0.3507000000000001,-188.01513175206335
-0.3517,-188.4395451420229
-0.3527000000000001,-188.8639585319824
-0.3537,-189.71278531190143
-0.3547000000000001,-190.98602548177996
-0.3557,-192.40073678164498
-0.35670000000000013,-193.3910346915505
-0.3577,-193.9569192114965
-0.35870000000000013,-194.38133260145605
-0.3597,-194.94721712140205
-0.36070000000000013,-196.0789861612941
-0.3617,-197.63516859114563
-0.3626999999999999,-199.33282215098367
-0.3637,-200.4645911908757
-0.3646999999999999,-200.88900458083523
-0.3657,-201.17194684080823
-0.3666999999999999,-201.73783136075423
-0.3677,-202.86960040064628
-0.3686999999999999,-204.42578283049778
-0.36970000000000003,-205.98196526034934
-0.3706999999999999,-206.83079204026836
-0.37170000000000003,-207.3966765602144
-0.3726999999999999,-207.8210899501739
-0.37370000000000003,-208.6699167300929
-0.3746999999999999,-209.94315689997146
-0.37570000000000003,-211.499339329823
-0.3766999999999999,-212.914050629688
-0.37770000000000004,-213.76287740960703
-0.3786999999999999,-214.18729079956654
-0.37970000000000004,-214.75317531951256
-0.3806999999999999,-215.88494435940459
-0.38170000000000004,-217.15818452928315
-0.38269999999999993,-218.28995356917517
-0.38370000000000004,-218.99730921910768
-0.38469999999999993,-219.13878034909416
-0.38570000000000004,-219.28025147908068
-0.38669999999999993,-219.7046648690402
-0.38770000000000004,-220.83643390893224
-0.38869999999999993,-222.10967407881074
-0.38970000000000005,-223.38291424868927
-0.39069999999999994,-223.9487987686353
-0.39170000000000005,-224.2317410286083
-0.39269999999999994,-224.37321215859478
-0.39370000000000005,-225.08056780852735
-0.39469999999999994,-226.35380797840588
-0.39570000000000005,-227.62704814828442
-0.39669999999999994,-228.90028831816295
-0.39770000000000005,-229.46617283810895
-0.39869999999999994,-229.89058622806846
-0.39970000000000006,-230.45647074801445
-0.40069999999999995,-231.3052975279335
-0.40170000000000006,-232.57853769781204
-0.40269999999999995,-233.85177786769057
-0.40370000000000006,-234.9835469075826
-0.40469999999999995,-235.40796029754208
-0.40570000000000006,-235.69090255751513
-0.40669999999999995,-236.1153159474746
-0.40770000000000006,-237.10561385738015
-0.40869999999999995,-238.2373828972722
-0.40970000000000006,-239.2276808071777
-0.41069999999999995,-239.7935653271237
-0.41170000000000007,-239.7935653271237
-0.41269999999999996,-239.93503645711021
-0.41370000000000007,-240.35944984706975
-0.41469999999999996,-241.34974775697523
-0.41570000000000007,-242.62298792685377
-0.41669999999999996,-243.6132858367593
-0.41770000000000007,-243.8962280967323
-0.41869999999999996,-243.8962280967323
-0.4197000000000001,-243.8962280967323
-0.42069999999999996,-244.46211261667833
-0.4217000000000001,-245.31093939659738
-0.42269999999999996,-246.15976617651637
-0.4237000000000001,-246.5841795664759
-0.42469999999999997,-246.7256506964624
-0.4257000000000001,-246.7256506964624
-0.42669999999999997,-247.0085929564354
-0.4277000000000001,-247.85741973635444
-0.42869999999999997,-249.13065990623298
-0.4297000000000001,-250.1209578161385
-0.43069999999999997,-250.545371206098
-0.4317000000000001,-250.1209578161385
-0.4327,-249.83801555616546
-0.4337000000000001,-250.1209578161385
-0.4347,-250.828313466071
-0.4357000000000001,-251.81861137597656
-0.4367,-252.52596702590907
-0.4377000000000001,-252.52596702590907
-0.4387,-252.10155363594956
-0.4397000000000001,-251.96008250596302
-0.4407,-252.10155363594956
-0.4417000000000001,-252.66743815589555
-0.4427,-253.23332267584152
-0.4437000000000001,-253.37479380582806
-0.4447,-252.95038041586852
-0.4457000000000001,-252.38449589592256
-0.4467,-252.10155363594956
-0.4477000000000001,-252.10155363594956
-0.4487,-252.38449589592256
-0.4497000000000001,-252.38449589592256
-0.4507,-251.67714024599002
-0.4517000000000001,-250.828313466071
-0.4527,-250.1209578161385
-0.4537000000000001,-249.69654442617897
-0.4547,-249.83801555616546
-0.4557000000000001,-249.979486686152
-0.4567,-249.69654442617897
-0.4577000000000001,-248.84771764625998
-0.4587,-247.57447747638145
-0.4597000000000001,-246.4427084364894
-0.4607,-245.87682391654337
-0.4617000000000001,-245.87682391654337
-0.4627,-245.87682391654337
-0.4637000000000001,-245.45241052658386
-0.4647,-244.46211261667833
-0.4657000000000001,-243.18887244679982
-0.4667,-242.05710340690777
-0.4677000000000001,-241.34974775697523
-0.4687,-240.92533436701575
-0.4697000000000001,-240.21797871708318
-0.4707,-239.2276808071777
-0.4717000000000001,-237.81296950731266
-0.4727,-236.25678707746113
-0.4737000000000001,-235.26648916755556
-0.4747,-234.4176623876366
-0.4757000000000001,-233.71030673770406
-0.4767,-232.57853769781204
-0.4777000000000001,-230.7394130079875
-0.4787,-228.61734605818995
-0.4797000000000001,-226.77822136836537
-0.4807,-225.36351006850035
-0.48170000000000013,-224.37321215859478
-0.4827,-223.52438537867582
-0.48370000000000013,-222.25114520879725
-0.4847,-220.2705493889862
-0.48570000000000013,-218.14848243918865
-0.4867,-215.03611757948556
-0.48570000000000013,-210.36757028993094
-0.4847,-206.40637865030885
-0.48370000000000013,-202.58665814067325
-0.4827,-198.62546650105114
-0.48170000000000013,-194.38133260145605
-0.4807,-189.99572757187443
-0.4797000000000001,-185.89306480226583
-0.4787,-182.21481542261674
-0.4777000000000001,-179.24392169290016
-0.4767,-176.27302796318358
-0.4757000000000001,-173.302134233467
-0.4747,-170.0482982437774
-0.4737000000000001,-167.21887564404733
-0.4727,-164.81386643427678
-0.4717000000000001,-162.6917994844792
-0.4707,-160.5697325346817
-0.4697000000000001,-157.7403099349516
-0.4687,-154.6279450752485
-0.4677000000000001,-151.37410908555893
-0.4667,-148.68615761581535
-0.4657000000000001,-146.7055617960043
-0.4647,-144.86643710617977
