Potential V vs RHE, Current mA cm-2
0.013299999999999867,-0.08943804837746762
0.012299999999999978,-0.6128529351015338
0.011299999999999866,-1.0054353208140816
0.010299999999999976,-1.3107300193249565
0.009299999999999864,-1.5293029151541047
0.008299999999999974,-1.7471684553333202
0.007299999999999862,-1.8773218949209036
0.006299999999999972,-2.008890045808352
0.00529999999999986,-2.095187435100119
0.0042999999999999705,-2.1828995356917518
0.0032999999999998586,-2.2706116362833835
0.0022999999999999687,-2.3144676865791998
0.0012999999999998568,-2.4007650758709675
0.00029999999999996696,-2.4446211261667834
-0.000700000000000145,-2.4884771764625997
-0.0017000000000000348,-2.576189277054232
-0.0027000000000001467,-2.662486666345999
-0.0037000000000000366,-2.7501987669376318
-0.0047000000000001485,-2.794054817233447
-0.005700000000000038,-2.8379108675292635
-0.00670000000000015,-2.8803522065252145
-0.00770000000000004,-2.8803522065252145
-0.008700000000000152,-2.924208256821031
-0.009700000000000042,-2.968064307116847
-0.010700000000000154,-3.055776407708479
-0.011700000000000044,-3.0996324580042955
-0.012700000000000156,-3.1420737970002466
-0.013700000000000045,-3.2297858975918787
-0.014700000000000157,-3.273641947887695
-0.015700000000000047,-3.317497998183511
-0.01670000000000016,-3.403795387475278
-0.01770000000000005,-3.447651437771094
-0.01870000000000016,-3.447651437771094
-0.01970000000000005,-3.5353635383627267
-0.020700000000000163,-3.5353635383627267
-0.021700000000000053,-3.623075638954359
-0.022700000000000164,-3.6655169779503103
-0.023700000000000054,-3.7093730282461257
-0.024700000000000166,-3.7970851288377587
-0.025700000000000056,-3.884797229429391
-0.026700000000000168,-3.927238568425342
-0.027700000000000058,-4.014950669016974
-0.02870000000000017,-4.0588067193127895
-0.02970000000000006,-4.102662769608606
-0.03070000000000017,-4.146518819904423
-0.03170000000000006,-4.23281620919619
-0.03270000000000017,-4.276672259492005
-0.03370000000000006,-4.3205283097878215
-0.034700000000000175,-4.364384360083638
-0.035700000000000065,-4.450681749375406
-0.03670000000000018,-4.538393849967037
-0.03770000000000007,-4.626105950558669
-0.03870000000000018,-4.712403339850438
-0.03970000000000007,-4.800115440442069
-0.04070000000000018,-4.843971490737885
-0.04170000000000007,-4.9302688800296535
-0.04270000000000018,-4.974124930325469
-0.04370000000000007,-5.017980980621284
-0.044700000000000184,-5.0618370309171015
-0.045700000000000074,-5.105693081212917
-0.046700000000000186,-5.235846520800501
-0.047700000000000076,-5.279702571096316
-0.04870000000000019,-5.367414671687949
-0.04970000000000008,-5.453712060979717
-0.05070000000000019,-5.5414241615713475
-0.05170000000000008,-5.629136262162981
-0.05270000000000019,-5.672992312458796
-0.05370000000000008,-5.759289701750564
-0.05470000000000019,-5.80314575204638
-0.05570000000000008,-5.890857852638012
-0.056700000000000195,-5.9347139029338285
-0.057700000000000085,-5.977155241929781
-0.058700000000000196,-6.064867342521412
-0.059700000000000086,-6.152579443113044
-0.0607000000000002,-6.238876832404812
-0.06170000000000009,-6.326588932996443
-0.0627000000000002,-6.414301033588076
-0.06370000000000009,-6.500598422879844
-0.0647000000000002,-6.54445447317566
-0.06570000000000009,-6.588310523471475
-0.0667000000000002,-6.6760226240631075
-0.0677000000000001,-6.719878674358924
-0.0687000000000002,-6.762320013354876
-0.0697000000000001,-6.850032113946507
-0.07070000000000021,-6.893888164242324
-0.0717000000000001,-6.981600264833956
-0.07270000000000021,-7.067897654125724
-0.0737000000000001,-7.155609754717355
-0.07470000000000021,-7.243321855308987
-0.0757000000000001,-7.329619244600755
-0.07670000000000021,-7.37347529489657
-0.0777000000000001,-7.4173313451923875
-0.07870000000000021,-7.461187395488204
-0.0797000000000001,-7.50504344578402
-0.08070000000000022,-7.591340835075788
-0.0817000000000001,-7.635196885371603
-0.08270000000000022,-7.722908985963235
-0.08370000000000011,-7.7653503249591855
-0.08470000000000022,-7.896918475846635
-0.08570000000000011,-7.940774526142452
-0.08670000000000022,-8.027071915434218
-0.08770000000000011,-8.070927965730034
-0.08870000000000022,-8.11478401602585
-0.08970000000000011,-8.202496116617484
-0.09070000000000022,-8.202496116617484
-0.09170000000000011,-8.246352166913299
-0.09270000000000023,-8.332649556205066
-0.09370000000000012,-8.376505606500881
-0.09470000000000023,-8.4203616567967
-0.09570000000000012,-8.55051509638428
-0.09670000000000023,-8.594371146680096
-0.09770000000000012,-8.68208324727173
-0.09870000000000023,-8.725939297567548
-0.09970000000000012,-8.769795347863363
-0.10070000000000023,-8.812236686859313
-0.10170000000000012,-8.899948787450944
-0.10270000000000024,-8.899948787450944
-0.10370000000000013,-8.987660888042578
-0.10470000000000024,-9.031516938338395
-0.10570000000000013,-9.073958277334345
-0.10670000000000024,-9.161670377925978
-0.10770000000000013,-9.24938247851761
-0.10870000000000024,-9.335679867809377
-0.10970000000000013,-9.379535918105192
-0.11070000000000024,-9.467248018696827
-0.11170000000000013,-9.511104068992642
-0.11270000000000002,-9.55496011928846
-0.11370000000000013,-9.59740145828441
-0.11470000000000002,-9.59740145828441
-0.11570000000000014,-9.685113558876042
-0.11670000000000003,-9.728969609171857
-0.11770000000000014,-9.81668170976349
-0.11870000000000003,-9.902979099055257
-0.11970000000000014,-9.99069119964689
-0.12070000000000003,-10.034547249942705
-0.12170000000000014,-10.120844639234473
-0.12270000000000003,-10.164700689530287
-0.12370000000000014,-10.25241279012192
-0.12470000000000003,-10.25241279012192
-0.12570000000000014,-10.340124890713554
-0.12670000000000003,-10.382566229709504
-0.12770000000000015,-10.42642228000532
-0.12870000000000004,-10.514134380596953
-0.12970000000000015,-10.557990430892769
-0.13070000000000004,-10.644287820184536
-0.13170000000000015,-10.731999920776168
-0.13270000000000004,-10.819712021367803
-0.13370000000000015,-10.906009410659568
-0.13470000000000004,-10.949865460955383
-0.13570000000000015,-10.993721511251199
-0.13670000000000004,-11.081433611842833
-0.13770000000000016,-11.081433611842833
-0.13870000000000005,-11.1677310011346
-0.13970000000000016,-11.211587051430415
-0.14070000000000005,-11.299299152022046
-0.14170000000000016,-11.385596541313816
-0.14270000000000005,-11.473308641905447
-0.14370000000000016,-11.56102074249708
-0.14470000000000005,-11.647318131788847
-0.14570000000000016,-11.73503023238048
-0.14670000000000005,-11.778886282676295
-0.14770000000000016,-11.86659838326793
-0.14870000000000005,-11.909039722263879
-0.14970000000000017,-11.952895772559694
-0.15070000000000006,-12.040607873151327
-0.15170000000000017,-12.12831997374296
-0.15270000000000006,-12.170761312738911
-0.15370000000000017,-12.302329463626359
-0.15470000000000006,-12.346185513922174
-0.15570000000000017,-12.432482903213943
-0.15670000000000006,-12.56405105410139
-0.15770000000000017,-12.607907104397206
-0.15870000000000006,-12.694204493688973
-0.15970000000000018,-12.73806054398479
-0.16070000000000007,-12.781916594280606
-0.16170000000000018,-12.869628694872238
-0.16270000000000007,-12.913484745168056
-0.16370000000000018,-12.99978213445982
-0.16470000000000007,-13.087494235051453
-0.16570000000000018,-13.175206335643086
-0.16670000000000007,-13.261503724934855
-0.16770000000000018,-13.349215825526485
-0.16870000000000007,-13.436927926118118
-0.16970000000000018,-13.523225315409885
-0.17070000000000007,-13.567081365705702
-0.17170000000000019,-13.654793466297335
-0.17270000000000008,-13.698649516593148
-0.1737000000000002,-13.741090855589102
-0.17470000000000008,-13.828802956180734
-0.1757000000000002,-13.916515056772363
-0.17670000000000008,-14.002812446064135
-0.1777000000000002,-14.046668496359947
-0.17870000000000008,-14.175407224647667
-0.1797000000000002,-14.26028990263957
-0.18070000000000008,-14.30273124163552
-0.1817000000000002,-14.401761032626075
-0.18270000000000008,-14.444202371622024
-0.1837000000000002,-14.486643710617974
-0.1847000000000001,-14.529085049613924
-0.1857000000000002,-14.57152638860988
-0.1867000000000001,-14.61396772760583
-0.1877000000000002,-14.69885040559773
-0.1887000000000001,-14.783733083589633
-0.1897000000000002,-14.868615761581536
-0.1907000000000001,-14.967645552572087
-0.1917000000000001,-15.01008689156804
-0.19269999999999998,-15.05252823056399
-0.1937000000000001,-15.137410908555893
-0.19469999999999998,-15.179852247551842
-0.1957000000000001,-15.222293586547794
-0.19669999999999999,-15.264734925543747
-0.1977000000000001,-15.264734925543747
-0.1987,-15.349617603535648
-0.1997000000000001,-15.3920589425316
-0.2007,-15.491088733522153
-0.2017000000000001,-15.575971411514052
-0.2027,-15.618412750510005
-0.2037000000000001,-15.660854089505953
-0.2047,-15.70329542850191
-0.2057000000000001,-15.74573676749786
-0.2067,-15.74573676749786
-0.2077000000000001,-15.78817810649381
-0.2087,-15.78817810649381
-0.2097000000000001,-15.830619445489761
-0.2107,-15.87306078448571
-0.2117000000000001,-15.91550212348166
-0.2127,-15.972090575476265
-0.2137000000000001,-16.014531914472215
-0.2147,-16.056973253468165
-0.2157000000000001,-16.099414592464115
-0.2167,-16.141855931460068
-0.21770000000000012,-16.141855931460068
-0.2187,-16.141855931460068
-0.21970000000000012,-16.141855931460068
-0.2207,-16.141855931460068
-0.22170000000000012,-16.184297270456018
-0.2227,-16.184297270456018
-0.22370000000000012,-16.22673860945197
-0.2247,-16.22673860945197
-0.22570000000000012,-16.269179948447924
-0.2267,-16.269179948447924
-0.22770000000000012,-16.269179948447924
-0.22870000000000001,-16.269179948447924
-0.22970000000000013,-16.22673860945197
-0.23070000000000002,-16.22673860945197
-0.23170000000000013,-16.22673860945197
-0.23270000000000002,-16.184297270456018
-0.23370000000000013,-16.184297270456018
-0.23470000000000002,-16.184297270456018
-0.23570000000000013,-16.184297270456018
-0.23670000000000002,-16.184297270456018
-0.2376999999999999,-16.184297270456018
-0.23870000000000002,-16.141855931460068
-0.2396999999999999,-16.141855931460068
-0.24070000000000003,-16.099414592464115
-0.24169999999999991,-16.056973253468165
-0.24270000000000003,-15.972090575476265
-0.24369999999999992,-15.91550212348166
-0.24470000000000003,-15.87306078448571
-0.24569999999999992,-15.830619445489761
-0.24670000000000003,-15.830619445489761
-0.24769999999999992,-15.78817810649381
-0.24870000000000003,-15.74573676749786
-0.24969999999999992,-15.70329542850191
-0.25070000000000003,-15.660854089505953
-0.2516999999999999,-15.575971411514052
-0.25270000000000004,-15.533530072518102
-0.2536999999999999,-15.3920589425316
-0.25470000000000004,-15.349617603535648
-0.2556999999999999,-15.264734925543747
-0.25670000000000004,-15.179852247551842
-0.25769999999999993,-15.137410908555893
-0.25870000000000004,-15.05252823056399
-0.25969999999999993,-15.01008689156804
-0.26070000000000004,-14.925204213576137
-0.26169999999999993,-14.868615761581536
-0.26270000000000004,-14.741291744593681
-0.26369999999999993,-14.65640906660178
-0.26470000000000005,-14.57152638860988
-0.26569999999999994,-14.444202371622024
-0.26670000000000005,-14.345172580631472
-0.26769999999999994,-14.217848563643619
-0.26870000000000005,-14.175407224647667
-0.26969999999999994,-14.046668496359947
-0.27070000000000005,-14.002812446064135
-0.27169999999999994,-13.872659006476551
-0.27270000000000005,-13.828802956180734
-0.27369999999999994,-13.698649516593148
-0.27470000000000006,-13.567081365705702
-0.27569999999999995,-13.47936926511407
-0.27670000000000006,-13.349215825526485
-0.27769999999999995,-13.217647674639037
-0.27870000000000006,-13.087494235051453
-0.27969999999999995,-12.955926084164007
-0.28070000000000006,-12.869628694872238
-0.28169999999999995,-12.781916594280606
-0.28270000000000006,-12.694204493688973
-0.28369999999999995,-12.607907104397206
-0.28470000000000006,-12.476338953509758
-0.28569999999999995,-12.390041564217992
-0.28670000000000007,-12.258473413330542
-0.28769999999999996,-12.12831997374296
-0.28870000000000007,-11.996751822855511
-0.28969999999999996,-11.86659838326793
-0.29070000000000007,-11.73503023238048
-0.29169999999999996,-11.647318131788847
-0.29270000000000007,-11.56102074249708
-0.29369999999999996,-11.473308641905447
-0.2947000000000001,-11.385596541313816
-0.29569999999999996,-11.299299152022046
-0.2967000000000001,-11.1677310011346
-0.29769999999999996,-11.081433611842833
-0.2987000000000001,-10.993721511251199
-0.29969999999999997,-10.863568071663616
-0.3007000000000001,-10.775855971071984
-0.30169999999999997,-10.644287820184536
-0.3027000000000001,-10.557990430892769
-0.30369999999999997,-10.470278330301136
-0.3047000000000001,-10.42642228000532
-0.30569999999999997,-10.340124890713554
-0.3067000000000001,-10.296268840417738
-0.3077,-10.208556739826104
-0.3087000000000001,-10.164700689530287
-0.3097,-10.078403300238522
-0.3107000000000001,-9.99069119964689
-0.3117,-9.902979099055257
-0.3127000000000001,-9.81668170976349
-0.3137,-9.728969609171857
-0.3147000000000001,-9.685113558876042
-0.3157,-9.59740145828441
-0.3167000000000001,-9.55496011928846
-0.3177,-9.55496011928846
-0.3187000000000001,-9.511104068992642
-0.3197,-9.467248018696827
-0.3207000000000001,-9.423391968401008
-0.3217,-9.379535918105192
-0.3227000000000001,-9.335679867809377
-0.3237,-9.293238528813426
-0.3247000000000001,-9.205526428221793
-0.3257,-9.161670377925978
-0.3267000000000001,-9.11781432763016
-0.3277,-9.11781432763016
-0.3287000000000001,-9.11781432763016
-0.3297,-9.11781432763016
-0.3307000000000001,-9.11781432763016
-0.3317,-9.11781432763016
-0.3327000000000001,-9.073958277334345
-0.3337,-9.031516938338395
-0.3347000000000001,-9.031516938338395
-0.3357,-8.987660888042578
-0.3367000000000001,-8.987660888042578
-0.3377,-8.943804837746763
-0.3387000000000001,-8.943804837746763
-0.3397,-8.943804837746763
-0.3407000000000001,-8.987660888042578
-0.3417,-8.987660888042578
-0.3427000000000001,-9.031516938338395
-0.3437,-9.031516938338395
-0.3447000000000001,-9.031516938338395
-0.3457,-9.031516938338395
-0.3467000000000001,-8.987660888042578
-0.3477,-8.987660888042578
-0.3487000000000001,-8.987660888042578
-0.3497,-8.987660888042578
-0.3507000000000001,-9.031516938338395
-0.3517,-9.073958277334345
-0.3527000000000001,-9.073958277334345
-0.3537,-9.161670377925978
-0.3547000000000001,-9.161670377925978
-0.3557,-9.205526428221793
-0.35670000000000013,-9.205526428221793
-0.3577,-9.205526428221793
-0.35870000000000013,-9.205526428221793
-0.3597,-9.24938247851761
-0.36070000000000013,-9.24938247851761
-0.3617,-9.293238528813426
-0.3626999999999999,-9.335679867809377
-0.3637,-9.379535918105192
-0.3646999999999999,-9.423391968401008
-0.3657,-9.467248018696827
-0.3666999999999999,-9.511104068992642
-0.3677,-9.55496011928846
-0.3686999999999999,-9.59740145828441
-0.36970000000000003,-9.59740145828441
-0.3706999999999999,-9.641257508580225
-0.37170000000000003,-9.685113558876042
-0.3726999999999999,-9.685113558876042
-0.37370000000000003,-9.728969609171857
-0.3746999999999999,-9.81668170976349
-0.37570000000000003,-9.85912304875944
-0.3766999999999999,-9.946835149351072
-0.37770000000000004,-9.946835149351072
-0.3786999999999999,-10.034547249942705
-0.37970000000000004,-10.078403300238522
-0.3806999999999999,-10.120844639234473
-0.38170000000000004,-10.120844639234473
-0.38269999999999993,-10.164700689530287
-0.38370000000000004,-10.208556739826104
-0.38469999999999993,-10.25241279012192
-0.38570000000000004,-10.296268840417738
-0.38669999999999993,-9.772825659467674
-0.38570000000000004,-8.638227196975913
-0.38469999999999993,-7.7653503249591855
-0.38370000000000004,-7.024041603829907
-0.38269999999999993,-6.414301033588076
-0.38170000000000004,-5.847001802342197
-0.3806999999999999,-5.367414671687949
-0.37970000000000004,-4.9302688800296535
-0.3786999999999999,-4.538393849967037
-0.37770000000000004,-4.1889601589003735
-0.3766999999999999,-3.884797229429391
-0.37570000000000003,-3.579219588658543
-0.3746999999999999,-3.361354048479327
-0.37370000000000003,-3.0996324580042955
-0.3726999999999999,-2.924208256821031
-0.37170000000000003,-2.706342716641815
-0.3706999999999999,-2.532333226758415
-0.36970000000000003,-2.3144676865791998
-0.3686999999999999,-2.095187435100119
-0.3677,-1.92117794521672
-0.3666999999999999,-1.7471684553333202
-0.3657,-1.5717442541500557
-0.3646999999999999,-1.4415908145624723
-0.3637,-1.3107300193249565
-0.3626999999999999,-1.1798692240874404
-0.3617,-1.0925815368857679
-0.36070000000000013,-0.9617207416482519
-0.3597,-0.8308599464107361
-0.35870000000000013,-0.7437137303390498
-0.3577,-0.6128529351015338
-0.35670000000000013,-0.4384190318281749
-0.3557,-0.30755823659065895
-0.3547000000000001,-0.2202705493889862
-0.3537,-0.08943804837746762
-0.3527000000000001,-0.002205534916489592
-0.3517,0.04140859974704963
-0.3507000000000001,0.12863969849672777
-0.3497,0.21588494435940458
-0.3487000000000001,0.2594580523952477
-0.3477,0.3467457395969205
-0.3467000000000001,0.4776065348344364
-0.3457,0.5647527509061226
-0.3447000000000001,0.6520404381077953
-0.3437,0.7393281253094681
-0.3427000000000001,0.8264743413811545
-0.3417,0.870188920546984
-0.3407000000000001,0.9573351366186703
-0.3397,1.0010497157844997
-0.3387000000000001,1.0446228238203432
-0.3377,1.0881959318561862
-0.3367000000000001,1.175483619057859
-0.3357,1.219056727093702
-0.3347000000000001,1.3063444142953748
-0.3337,1.3934906303670611
-0.3327000000000001,1.4373466806628774
-0.3317,1.5250587812545096
-0.3307000000000001,1.5675001202504606
-0.3297,1.6113561705462767
-0.3287000000000001,1.6990682711379093
-0.3277,1.6990682711379093
-0.3267000000000001,1.7429243214337253
-0.3257,1.7867803717295414
-0.3247000000000001,1.8292217107254924
-0.3237,1.8730777610213083
-0.3227000000000001,1.9169338113171246
-0.3217,2.004645911908757
-0.3207000000000001,2.048501962204573
-0.3197,2.1347993514963406
-0.3187000000000001,2.178655401792157
-0.3177,2.2225114520879723
-0.3167000000000001,2.2225114520879723
-0.3157,2.2663675023837886
-0.3147000000000001,2.2663675023837886
-0.3137,2.30880884137974
-0.3127000000000001,2.30880884137974
-0.3117,2.352664891675556
-0.3107000000000001,2.4403769922671885
-0.3097,2.4842330425630044
-0.3087000000000001,2.5280890928588207
-0.3077,2.5705304318547717
-0.3067000000000001,2.6143864821505876
-0.30569999999999997,2.6143864821505876
-0.3047000000000001,2.658242532446404
-0.30369999999999997,2.658242532446404
-0.3027000000000001,2.70209858274222
-0.30169999999999997,2.70209858274222
-0.3007000000000001,2.745954633038036
-0.29969999999999997,2.7898106833338523
-0.2987000000000001,2.8322520223298033
-0.29769999999999996,2.8761080726256196
-0.2967000000000001,2.919964122921436
-0.29569999999999996,2.963820173217252
-0.2947000000000001,3.0076762235130676
-0.29369999999999996,3.0076762235130676
-0.29270000000000007,3.0076762235130676
-0.29169999999999996,3.0076762235130676
-0.29070000000000007,3.0515322738088844
-0.28969999999999996,3.0515322738088844
-0.28870000000000007,3.0939736128048354
-0.28769999999999996,3.1378296631006513
-0.28670000000000007,3.1816857133964676
-0.28569999999999995,3.225541763692284
-0.28470000000000006,3.2693978139880997
-0.28369999999999995,3.313253864283916
-0.28270000000000006,3.313253864283916
-0.28169999999999995,3.313253864283916
-0.28070000000000006,3.313253864283916
-0.27969999999999995,3.313253864283916
-0.27870000000000006,3.355695203279867
-0.27769999999999995,3.355695203279867
-0.27670000000000006,3.3995512535756833
-0.27569999999999995,3.4434073038714996
-0.27470000000000006,3.4872633541673155
-0.27369999999999994,3.5311194044631313
-0.27270000000000005,3.5749754547589476
-0.27169999999999994,3.5749754547589476
-0.27070000000000005,3.6174167937548987
-0.26969999999999994,3.6174167937548987
-0.26870000000000005,3.6174167937548987
-0.26769999999999994,3.6174167937548987
-0.26670000000000005,3.661272844050715
-0.26569999999999994,3.661272844050715
