Potential V vs RHE, Current mA cm-2
0.013299999999999867,0.043021370628895765
0.012299999999999978,-0.05091545968214267
0.011299999999999866,-0.08803748419060124
0.010299999999999976,-0.10576381677791014
0.009299999999999864,-0.12237252743832566
0.008299999999999974,-0.13759482102487347
0.007299999999999862,-0.1622673860945197
0.006299999999999972,-0.17655597022315658
0.00529999999999986,-0.1849027668923603
0.0042999999999999705,-0.1922592656516585
0.0032999999999998586,-0.2035769560505788
0.0022999999999999687,-0.22140231842887825
0.0012999999999998568,-0.23413472012766354
0.00029999999999996696,-0.2385203251572452
-0.000700000000000145,-0.2437547569667458
-0.0017000000000000348,-0.252808909285882
-0.0027000000000001467,-0.2653998398546809
-0.0037000000000000366,-0.27827371268345275
-0.0047000000000001485,-0.2843569712728724
-0.005700000000000038,-0.2840740290128994
-0.00670000000000015,-0.29397700811195465
-0.00770000000000004,-0.30699235207071296
-0.008700000000000152,-0.3191588692495523
-0.009700000000000042,-0.3234030031491474
-0.010700000000000154,-0.3259494834889044
-0.011700000000000044,-0.3323156843382971
-0.012700000000000156,-0.3453310282970554
-0.013700000000000045,-0.3552340073961107
-0.014700000000000157,-0.35933667016571935
-0.015700000000000047,-0.3608928525955709
-0.01670000000000016,-0.3678249379649095
-0.01770000000000005,-0.38310382000345194
-0.01870000000000016,-0.38862119407292556
-0.01970000000000005,-0.39272385684253414
-0.020700000000000163,-0.3956947505722508
-0.021700000000000053,-0.39979741334185936
-0.022700000000000164,-0.4130956995605908
-0.023700000000000054,-0.42229132300971345
-0.024700000000000166,-0.4266769280392951
-0.025700000000000056,-0.42922340837905215
-0.026700000000000168,-0.4323357732387552
-0.027700000000000058,-0.44520964606752705
-0.02870000000000017,-0.4546882117766228
-0.02970000000000006,-0.45652733646644733
-0.03070000000000017,-0.4593567590661774
-0.03170000000000006,-0.46473266200566454
-0.03270000000000017,-0.4776065348344364
-0.03370000000000006,-0.4868021582835591
-0.034700000000000175,-0.48807539845343767
-0.035700000000000065,-0.48878275410337013
-0.03670000000000018,-0.4978369064225064
-0.03770000000000007,-0.5073154721316021
-0.03870000000000018,-0.5169355089706844
-0.03970000000000007,-0.518208749140563
-0.04070000000000018,-0.5194819893104415
-0.04170000000000007,-0.5251408345099016
-0.04270000000000018,-0.537307351688741
-0.04370000000000007,-0.5446638504480392
-0.044700000000000184,-0.5491909266076073
-0.045700000000000074,-0.5473518019177827
-0.046700000000000186,-0.5549912429370539
-0.047700000000000076,-0.5651771642960822
-0.04870000000000019,-0.5736654320952724
-0.04970000000000008,-0.5794657484247191
-0.05070000000000019,-0.5756460279150835
-0.05170000000000008,-0.5824366421544356
-0.05270000000000019,-0.5950275727232345
-0.05370000000000008,-0.601393773572627
-0.05470000000000019,-0.6063452631221548
-0.05570000000000008,-0.6040817250423707
-0.056700000000000195,-0.6104479258917633
-0.057700000000000085,-0.6236047409805081
-0.058700000000000196,-0.6309612397398063
-0.059700000000000086,-0.63364919120955
-0.0607000000000002,-0.6343565468594824
-0.06170000000000009,-0.6415715744887941
-0.0627000000000002,-0.6554357452274714
-0.06370000000000009,-0.6619434172068507
-0.0647000000000002,-0.6632166573767292
-0.06570000000000009,-0.6653387243265267
-0.0667000000000002,-0.6697243293561084
-0.0677000000000001,-0.6841543846147318
-0.0687000000000002,-0.6930670658038814
-0.0697000000000001,-0.694623248233733
-0.07070000000000021,-0.6970282574435036
-0.0717000000000001,-0.7029700449029368
-0.07270000000000021,-0.7149950909517896
-0.0737000000000001,-0.7258883679607504
-0.07470000000000021,-0.7290007328204534
-0.0757000000000001,-0.7309813286402644
-0.07670000000000021,-0.7393281253094681
-0.0777000000000001,-0.750504344578402
-0.07870000000000021,-0.7632367462771872
-0.0797000000000001,-0.7660661688769174
-0.08070000000000022,-0.7673394090467959
-0.0817000000000001,-0.7776668015358106
-0.08270000000000022,-0.7892674341947039
-0.08370000000000011,-0.7991704132937593
-0.08470000000000022,-0.8044048451032598
-0.08570000000000011,-0.8062439697930843
-0.08670000000000022,-0.8165713622820991
-0.08770000000000011,-0.8305770041507631
-0.08870000000000022,-0.8400555698598587
-0.08970000000000011,-0.8472705974891704
-0.09070000000000022,-0.848260895399076
-0.09170000000000011,-0.8577394611081718
-0.09270000000000023,-0.8708962761969166
-0.09370000000000012,-0.8839116201556749
-0.09470000000000023,-0.8907022343950269
-0.09570000000000012,-0.8909851766550001
-0.09670000000000023,-0.8998978578441498
-0.09770000000000012,-0.9161670377925977
-0.09870000000000023,-0.9255041323717068
-0.09970000000000012,-0.9324362177410456
-0.10070000000000023,-0.9371047650306003
-0.10170000000000012,-0.9447442060498714
-0.10270000000000024,-0.961154857128306
-0.10370000000000013,-0.9724725475272262
-0.10470000000000024,-0.9779899215966998
-0.10570000000000013,-0.982234055496295
-0.10670000000000024,-0.9887417274756741
-0.10770000000000013,-1.0041620806442029
-0.10870000000000024,-1.0171774246029612
-0.10970000000000013,-1.0217045007625294
-0.11070000000000024,-1.02693893257203
-0.11170000000000013,-1.0321733643815307
-0.11270000000000002,-1.0487254865899516
-0.11370000000000013,-1.0618823016786967
-0.11470000000000002,-1.066692320098238
-0.11570000000000014,-1.0682485025280892
-0.11670000000000003,-1.0761708858073333
-0.11770000000000014,-1.0904594699359704
-0.11870000000000003,-1.1031918716347555
-0.11970000000000014,-1.1071530632743778
-0.12070000000000003,-1.1094166013541618
-0.12170000000000014,-1.117621926893379
-0.12270000000000003,-1.1317690398920295
-0.12370000000000014,-1.142379374641017
-0.12470000000000003,-1.149452931140342
-0.12570000000000014,-1.1476138064505177
-0.12670000000000003,-1.157799727809546
-0.12770000000000015,-1.1686930048185067
-0.12870000000000004,-1.1798692240874404
-0.12970000000000015,-1.1846792425069816
-0.13070000000000004,-1.1838304157270627
-0.13170000000000015,-1.1904795588364285
-0.13270000000000004,-1.205192556355025
-0.13370000000000015,-1.2132564107642556
-0.13470000000000004,-1.2189152559637155
-0.13570000000000015,-1.216793189013918
-0.13670000000000004,-1.2223105630833917
-0.13770000000000016,-1.236174733822069
-0.13870000000000005,-1.2431068191914076
-0.13970000000000016,-1.2469265397010434
-0.14070000000000005,-1.24706801083103
-0.14170000000000016,-1.2491900777808274
-0.14270000000000005,-1.2624883639995588
-0.14370000000000016,-1.2687130937189648
-0.14470000000000005,-1.2728157564885734
-0.14570000000000016,-1.2708351606687625
-0.14670000000000005,-1.2728157564885734
-0.14770000000000016,-1.284416389147467
-0.14870000000000005,-1.290924061126846
-0.14970000000000017,-1.292055830166738
-0.15070000000000006,-1.2889434653070349
-0.15170000000000017,-1.291489945646792
-0.15270000000000006,-1.3026661649157256
-0.15370000000000017,-1.3081835389851995
-0.15470000000000006,-1.3087494235051453
-0.15570000000000017,-1.3036564628256313
-0.15670000000000006,-1.3046467607355368
-0.15770000000000017,-1.3134179707947
-0.15870000000000006,-1.319925642774079
-0.15970000000000018,-1.318227989214241
-0.16070000000000007,-1.3132764996647137
-0.16170000000000018,-1.3141253264446326
-0.16270000000000007,-1.3186524026042006
-0.16370000000000018,-1.3286968528332426
-0.16470000000000007,-1.3274236126633638
-0.16570000000000018,-1.3200671139040656
-0.16670000000000007,-1.3190768159941602
-0.16770000000000018,-1.3241697766736744
-0.16870000000000007,-1.3278480260533234
-0.16970000000000018,-1.327706554923337
-0.17070000000000007,-1.3165303356544031
-0.17170000000000019,-1.3166718067843897
-0.17270000000000008,-1.3209159406839848
-0.1737000000000002,-1.3220477097238768
-0.17470000000000008,-1.3200671139040656
-0.1757000000000002,-1.3088908946351319
-0.17670000000000008,-1.3086079523751588
-0.1777000000000002,-1.3139838553146461
-0.17870000000000008,-1.313135028534727
-0.1797000000000002,-1.3098811925450375
-0.18070000000000008,-1.3011099824858743
-0.1817000000000002,-1.295734079546387
-0.18270000000000008,-1.2984220310161307
-0.1837000000000002,-1.2996952711860092
-0.1847000000000001,-1.2941778971165354
-0.1857000000000002,-1.2830016778476019
-0.1867000000000001,-1.2770598903881687
-0.1877000000000002,-1.2793234284679527
-0.1887000000000001,-1.2813040242877636
-0.1897000000000002,-1.2725328142286005
-0.1907000000000001,-1.2622054217395857
-0.1917000000000001,-1.2559806920201795
-0.19269999999999998,-1.2573954033200445
-0.1937000000000001,-1.2585271723599365
-0.19469999999999998,-1.2460777129211242
-0.1957000000000001,-1.2356088493021231
-0.19669999999999999,-1.2293841195827169
-0.1977000000000001,-1.228818235062771
-0.1987,-1.2283938216728114
-0.1997000000000001,-1.2189152559637155
-0.2007,-1.2058999120049574
-0.2017000000000001,-1.1989678266356187
-0.2027,-1.1988263555056322
-0.2037000000000001,-1.198260470985686
-0.2047,-1.1894892609265229
-0.2057000000000001,-1.173503023238048
-0.2067,-1.1685515336885204
-0.2077000000000001,-1.1669953512586688
-0.2087,-1.1630341596190465
-0.2097000000000001,-1.157516785549573
-0.2107,-1.141813490121071
-0.2117000000000001,-1.1353058181416917
-0.2127,-1.136154644921611
-0.2137000000000001,-1.1320519821520023
-0.2147,-1.127241963732461
-0.2157000000000001,-1.1171975135034193
-0.2167,-1.106587178754432
-0.21770000000000012,-1.1068701210144047
-0.2187,-1.1009283335549715
-0.21970000000000012,-1.0924400657557813
-0.2207,-1.0814053176168341
-0.22170000000000012,-1.0737658765975628
-0.2227,-1.0756050012873875
-0.22370000000000012,-1.0727755786876572
-0.2247,-1.0632970129785617
-0.22570000000000012,-1.0536769761394795
-0.2267,-1.0436325259104375
-0.22770000000000012,-1.0470278330301137
-0.22870000000000001,-1.0467448907701407
-0.22970000000000013,-1.038398094100937
-0.23070000000000002,-1.0280707016119222
-0.23170000000000013,-1.021563029632543
-0.23270000000000002,-1.023260683192381
-0.23370000000000013,-1.025241279012192
-0.23470000000000002,-1.0164700689530288
-0.23570000000000013,-1.0076988588938656
-0.23670000000000002,-1.0035961961242568
-0.2376999999999999,-1.0041620806442029
-0.23870000000000002,-1.0071329743739197
-0.2396999999999999,-1.0011911869144865
-0.24070000000000003,-0.9931273325052556
-0.24169999999999991,-0.9904393810355122
-0.24270000000000003,-0.9934102747652287
-0.24369999999999992,-0.9960982262349724
-0.24470000000000003,-0.9912882078154313
-0.24569999999999992,-0.9827999400162409
-0.24670000000000003,-0.9818096421063355
-0.24769999999999992,-0.9853464203559981
-0.24870000000000003,-0.9887417274756741
-0.24969999999999992,-0.9883173140857145
-0.25070000000000003,-0.9782728638566729
-0.2516999999999999,-0.9771410948167809
-0.25270000000000004,-0.9844975935760791
-0.2536999999999999,-0.9891661408656335
-0.25470000000000004,-0.9890246697356472
-0.2556999999999999,-0.980536401936457
-0.25670000000000004,-0.9815266998463624
-0.25769999999999993,-0.9902979099055255
-0.25870000000000004,-0.9936932170252017
-0.25969999999999993,-0.9925614479853098
-0.26070000000000004,-0.9898734965155661
-0.26169999999999993,-0.9886002563456876
-0.26270000000000004,-0.9982202931847698
-0.26369999999999993,-1.004445022904176
-0.26470000000000005,-1.0026058982143515
-0.26569999999999994,-1.0011911869144865
-0.26670000000000005,-1.005293849684095
-0.26769999999999994,-1.0116600505334876
-0.26870000000000005,-1.019582433812732
-0.26969999999999994,-1.0190165492927858
-0.27070000000000005,-1.0183091936428532
-0.27169999999999994,-1.019299491552759
-0.27270000000000005,-1.0296268840417737
-0.27369999999999994,-1.040095747660775
-0.27470000000000006,-1.0376907384510043
-0.27569999999999995,-1.0367004405410989
-0.27670000000000006,-1.040378689920748
-0.27769999999999995,-1.0507060824097627
-0.27870000000000006,-1.0599017058588855
-0.27969999999999995,-1.063438484108548
-0.28070000000000006,-1.059760234728899
-0.28169999999999995,-1.065136137668386
-0.28270000000000006,-1.0765952991972931
-0.28369999999999995,-1.0852250381264696
-0.28470000000000006,-1.0879129895962132
-0.28569999999999995,-1.0889032875061186
-0.28670000000000007,-1.0931474214057137
-0.28769999999999996,-1.1048895251945938
-0.28870000000000007,-1.112811908473838
-0.28969999999999996,-1.1171975135034193
-0.29070000000000007,-1.1154998599435815
-0.29169999999999996,-1.1208757628830686
-0.29270000000000007,-1.1351643470117054
-0.29369999999999996,-1.1440770282008552
-0.2947000000000001,-1.1486041043604232
-0.29569999999999996,-1.1461990951506527
-0.2967000000000001,-1.1503017579202612
-0.29769999999999996,-1.1658635822187766
-0.2987000000000001,-1.174917734537913
-0.29969999999999997,-1.1781715705276026
-0.3007000000000001,-1.179161868437508
-0.30169999999999997,-1.1846792425069816
-0.3027000000000001,-1.197977528725713
-0.30369999999999997,-1.2070316810448494
-0.3047000000000001,-1.2104269881645253
-0.30569999999999997,-1.2126905262443095
-0.3067000000000001,-1.216510246753945
-0.3077,-1.2295255907127036
-0.3087000000000001,-1.240418867721664
-0.3097,-1.2432482903213944
-0.3107000000000001,-1.2443800593612864
-0.3117,-1.2494730200408002
-0.3127000000000001,-1.2623468928695722
-0.3137,-1.2743719389184252
-0.3147000000000001,-1.277201361518155
-0.3157,-1.277201361518155
-0.3167000000000001,-1.2842749180174802
-0.3177,-1.2979976176261712
-0.3187000000000001,-1.3094567791550777
-0.3197,-1.3111544327149158
-0.3207000000000001,-1.3122862017548078
-0.3217,-1.3189353448641736
-0.3227000000000001,-1.332233631082905
-0.3237,-1.3419951390519738
-0.3247000000000001,-1.347088099731488
-0.3257,-1.3475125131214474
-0.3267000000000001,-1.3543031273607997
-0.3277,-1.3668940579295987
-0.3287000000000001,-1.3790605751084377
-0.3297,-1.3861341316077629
-0.3307000000000001,-1.3854267759578305
-0.3317,-1.394622399406953
-0.3327000000000001,-1.409193925795563
-0.3337,-1.420370145064497
-0.3347000000000001,-1.4302731241635522
-0.3357,-1.4302731241635522
-0.3367000000000001,-1.4387613919627424
-0.3377,-1.4571526388609877
-0.3387000000000001,-1.4698850405597732
-0.3397,-1.4769585970590984
-0.3407000000000001,-1.4840321535584236
-0.3417,-1.4953498439573436
-0.3427000000000001,-1.5151558021554543
-0.3437,-1.5335470490536998
-0.3447000000000001,-1.54486473945262
-0.3457,-1.5575971411514054
-0.3467000000000001,-1.5717442541500557
-0.3477,-1.5986237688474914
-0.3487000000000001,-1.6212591496453321
-0.3497,-1.6396503965435776
-0.3507000000000001,-1.6594563547416883
-0.3517,-1.6820917355395286
-0.3527000000000001,-1.7174595180361545
-0.3537,-1.7556567231325106
-0.3547000000000001,-1.7853656604296764
-0.3557,-1.8193187316264372
-0.35670000000000013,-1.8645894932221183
-0.3577,-1.9197632339168547
-0.35870000000000013,-1.980595819811051
-0.3597,-2.0414284057052483
-0.36070000000000013,-2.1121639706984996
-0.3617,-2.197046648690402
-0.3626999999999999,-2.3045647074801447
-0.3637,-2.4290593018682682
-0.3646999999999999,-2.5691157205549064
-0.3657,-2.730392808739521
-0.3666999999999999,-2.935525947219951
-0.3677,-3.1816857133964676
-0.3686999999999999,-3.475945663768395
-0.36970000000000003,-3.825379354835059
-0.3706999999999999,-4.239889765695515
-0.37170000000000003,-4.742112277147603
-0.3726999999999999,-5.339120445690648
-0.37370000000000003,-5.9997906227276205
-0.3746999999999999,-6.72695223085825
-0.37570000000000003,-7.49938460058456
-0.3766999999999999,-8.29445235110871
-0.37770000000000004,-9.09234952423259
-0.3786999999999999,-9.880343718257414
-0.37970000000000004,-10.654190799283592
-0.3806999999999999,-11.428037880309766
-0.38170000000000004,-12.196226116136481
-0.38269999999999993,-12.953096661564276
-0.38370000000000004,-13.711381918291936
-0.38469999999999993,-14.458349484620674
-0.38570000000000004,-15.193999360550496
-0.38669999999999993,-15.547677185516752
-0.38570000000000004,-15.575971411514052
-0.38469999999999993,-15.575971411514052
-0.38370000000000004,-15.533530072518102
-0.38269999999999993,-15.462794507524851
-0.38170000000000004,-15.349617603535648
-0.3806999999999999,-15.236440699546446
-0.37970000000000004,-15.094969569559943
-0.3786999999999999,-14.925204213576137
-0.37770000000000004,-14.741291744593681
-0.3766999999999999,-14.557379275611227
-0.37570000000000003,-14.359319693630123
-0.3746999999999999,-14.161260111649016
-0.37370000000000003,-13.941979860169937
-0.3726999999999999,-13.718455474791261
-0.37170000000000003,-13.489272244213126
-0.3706999999999999,-13.268577281434178
-0.36970000000000003,-13.030905783056852
-0.3686999999999999,-12.786160728180201
-0.3677,-12.54141567330355
-0.3666999999999999,-12.2966706184269
-0.3657,-12.054754986149977
-0.3646999999999999,-11.815668776472787
-0.3637,-11.56950901029627
-0.3626999999999999,-11.326178666719484
-0.3617,-11.085677745742426
-0.36070000000000013,-10.843762113465505
-0.3597,-10.60326119248845
-0.35870000000000013,-10.35285729241234
-0.3577,-10.102453392336226
-0.35670000000000013,-9.866196605258766
-0.3557,-9.641257508580225
-0.3547000000000001,-9.414903700601819
-0.3537,-9.174402779624762
-0.3527000000000001,-8.933901858647706
-0.3517,-8.704718628069573
-0.3507000000000001,-8.47977953139103
-0.3497,-8.267572836411274
-0.3487000000000001,-8.051122007531923
-0.3477,-7.834671178652573
-0.3467000000000001,-7.625293906272548
-0.3457,-7.420160767792117
-0.3447000000000001,-7.213612918011822
-0.3437,-6.999991511732201
-0.3427000000000001,-6.792028950652041
-0.3417,-6.593969368670936
-0.3407000000000001,-6.405812765788886
-0.3397,-6.219070874206701
-0.3387000000000001,-6.037987827823977
-0.3377,-5.859734204040981
-0.3367000000000001,-5.677236446358393
-0.3357,-5.508885801674452
-0.3347000000000001,-5.339120445690648
-0.3337,-5.166525667107114
-0.3327000000000001,-4.998175022423175
-0.3317,-4.839727356838291
-0.3307000000000001,-4.688353247752731
-0.3297,-4.535564427367307
-0.3287000000000001,-4.377116761782423
-0.3277,-4.22715736399673
-0.3267000000000001,-4.080027388810766
-0.3257,-3.9484592379233177
-0.3247000000000001,-3.8098175305365434
-0.3237,-3.6527845762515243
-0.3227000000000001,-3.507069312365426
-0.3217,-3.386818851876898
-0.3207000000000001,-3.28354492698675
-0.3197,-3.178856290796737
-0.3187000000000001,-3.055776407708479
-0.3177,-2.9298671020204905
-0.3167000000000001,-2.8166901980312877
-0.3157,-2.7148309844410052
-0.3147000000000001,-2.6143864821505876
-0.3137,-2.5111125572604402
-0.3127000000000001,-2.407838632370292
-0.3117,-2.3130529752793345
-0.3107000000000001,-2.228170297287433
-0.3097,-2.1447023305953956
-0.3087000000000001,-2.052746096104168
-0.3077,-1.9551310164134805
-0.3067000000000001,-1.8674189158218486
-0.30569999999999997,-1.7952686395287314
-0.3047000000000001,-1.7188742293360195
-0.30369999999999997,-1.6453092417430377
-0.3027000000000001,-1.5675001202504606
-0.30169999999999997,-1.501008689156804
-0.3007000000000001,-1.4458349484620676
-0.29969999999999997,-1.3876903140376144
-0.2987000000000001,-1.3207744695539982
-0.29769999999999996,-1.2525853849005035
-0.2967000000000001,-1.1884989630166172
-0.29569999999999996,-1.136154644921611
-0.2947000000000001,-1.0832444423066585
-0.29369999999999996,-1.0280707016119222
-0.29270000000000007,-0.9767166814268213
-0.29169999999999996,-0.9264944302816125
-0.29070000000000007,-0.8880142829252835
-0.28969999999999996,-0.8464217707092515
-0.28870000000000007,-0.7997362978137053
-0.28769999999999996,-0.7500799311884424
-0.28670000000000007,-0.7039603428128423
-0.28569999999999995,-0.6714219829159465
-0.28470000000000006,-0.6394495075389965
-0.28369999999999995,-0.600262004532735
-0.28270000000000006,-0.5603671458765411
-0.28169999999999995,-0.5218869985202121
-0.28070000000000006,-0.4911877633131407
-0.27969999999999995,-0.46600590217554305
-0.27870000000000006,-0.4344578401885528
-0.27769999999999995,-0.3959776928322238
-0.27670000000000006,-0.36358080406531446
-0.27569999999999995,-0.3342962801581082
-0.27470000000000006,-0.30699235207071296
-0.27369999999999994,-0.2728978097439656
-0.27270000000000005,-0.23809591176728565
-0.27169999999999994,-0.22012907825899972
