Sept. 28, 2024   06:56:56
Cyclic Voltammetry
File: c:/users/guazh/data/20240922_batch_417_500/2024-09-22-exp470\exp470-2024-09-28t06_36_42-h2koh\exp470_cv_sr_500mvs_efin_-1800mv.bin
Data Source:  Experiment
Instrument Model:  CHI760E
Header: CV ran at 500 mVs
Note: 

Init E (V) = -1
High E (V) = -1
Low E (V) = -1.8
Final E (V) = -1
Init P/N = N
Scan Rate (V/s) = 0.5
Segment = 3
Sample Interval (V) = 0.001
Quiet Time (sec) = 2
Sensitivity (A/V) = 0.01
Comp R (ohm) = 2.2

Results:

Channel 1:
Segment 1:

Segment 2:

Segment 3:

Potential/V, Current/A

-1.000, 6.322e-6
-1.001, 9.405e-6
-1.002, 9.405e-6
-1.003, 9.405e-6
-1.004, 9.405e-6
-1.005, 9.405e-6
-1.006, 1.249e-5
-1.007, 1.249e-5
-1.008, 1.249e-5
-1.009, 1.249e-5
-1.010, 1.249e-5
-1.011, 1.249e-5
-1.012, 1.249e-5
-1.013, 1.249e-5
-1.014, 1.249e-5
-1.015, 1.249e-5
-1.016, 1.249e-5
-1.017, 1.249e-5
-1.018, 1.249e-5
-1.019, 1.249e-5
-1.020, 1.557e-5
-1.021, 1.557e-5
-1.022, 1.557e-5
-1.023, 1.557e-5
-1.024, 1.557e-5
-1.025, 1.249e-5
-1.026, 1.557e-5
-1.027, 1.557e-5
-1.028, 1.557e-5
-1.029, 1.557e-5
-1.030, 1.557e-5
-1.031, 1.557e-5
-1.032, 1.557e-5
-1.033, 1.557e-5
-1.034, 1.557e-5
-1.035, 1.557e-5
-1.036, 1.557e-5
-1.037, 1.557e-5
-1.038, 1.557e-5
-1.039, 1.557e-5
-1.040, 1.865e-5
-1.041, 1.557e-5
-1.042, 1.557e-5
-1.043, 1.557e-5
-1.044, 1.557e-5
-1.045, 1.865e-5
-1.046, 1.557e-5
-1.047, 1.557e-5
-1.048, 1.557e-5
-1.049, 1.865e-5
-1.050, 1.557e-5
-1.051, 1.865e-5
-1.052, 1.557e-5
-1.053, 1.557e-5
-1.054, 1.865e-5
-1.055, 1.865e-5
-1.056, 1.865e-5
-1.057, 1.557e-5
-1.058, 1.865e-5
-1.059, 1.557e-5
-1.060, 1.557e-5
-1.061, 1.865e-5
-1.062, 1.557e-5
-1.063, 1.865e-5
-1.064, 1.865e-5
-1.065, 1.865e-5
-1.066, 1.865e-5
-1.067, 1.557e-5
-1.068, 1.557e-5
-1.069, 1.865e-5
-1.070, 1.865e-5
-1.071, 1.865e-5
-1.072, 1.865e-5
-1.073, 1.865e-5
-1.074, 1.865e-5
-1.075, 1.865e-5
-1.076, 1.865e-5
-1.077, 1.865e-5
-1.078, 1.865e-5
-1.079, 1.865e-5
-1.080, 1.865e-5
-1.081, 1.865e-5
-1.082, 1.865e-5
-1.083, 1.865e-5
-1.084, 1.865e-5
-1.085, 1.865e-5
-1.086, 1.865e-5
-1.087, 1.865e-5
-1.088, 1.865e-5
-1.089, 1.865e-5
-1.090, 1.865e-5
-1.091, 1.865e-5
-1.092, 1.865e-5
-1.093, 1.865e-5
-1.094, 1.865e-5
-1.095, 1.865e-5
-1.096, 1.865e-5
-1.097, 1.865e-5
-1.098, 2.174e-5
-1.099, 1.865e-5
-1.100, 1.865e-5
-1.101, 1.865e-5
-1.102, 2.174e-5
-1.103, 1.865e-5
-1.104, 1.865e-5
-1.105, 1.865e-5
-1.106, 1.865e-5
-1.107, 1.865e-5
-1.108, 1.865e-5
-1.109, 1.865e-5
-1.110, 1.865e-5
-1.111, 1.865e-5
-1.112, 1.865e-5
-1.113, 1.865e-5
-1.114, 1.865e-5
-1.115, 1.865e-5
-1.116, 1.865e-5
-1.117, 1.865e-5
-1.118, 2.174e-5
-1.119, 1.865e-5
-1.120, 2.174e-5
-1.121, 2.174e-5
-1.122, 1.865e-5
-1.123, 2.174e-5
-1.124, 1.865e-5
-1.125, 1.865e-5
-1.126, 1.865e-5
-1.127, 2.174e-5
-1.128, 1.865e-5
-1.129, 2.174e-5
-1.130, 1.865e-5
-1.131, 2.174e-5
-1.132, 1.865e-5
-1.133, 2.174e-5
-1.134, 2.174e-5
-1.135, 1.865e-5
-1.136, 2.174e-5
-1.137, 2.174e-5
-1.138, 2.174e-5
-1.139, 2.174e-5
-1.140, 2.174e-5
-1.141, 2.174e-5
-1.142, 2.174e-5
-1.143, 2.174e-5
-1.144, 2.174e-5
-1.145, 2.174e-5
-1.146, 2.174e-5
-1.147, 2.174e-5
-1.148, 2.174e-5
-1.149, 2.174e-5
-1.150, 2.174e-5
-1.151, 1.865e-5
-1.152, 2.174e-5
-1.153, 2.174e-5
-1.154, 2.174e-5
-1.155, 1.865e-5
-1.156, 2.174e-5
-1.157, 2.174e-5
-1.158, 2.174e-5
-1.159, 2.174e-5
-1.160, 2.174e-5
-1.161, 2.174e-5
-1.162, 2.174e-5
-1.163, 2.174e-5
-1.164, 2.174e-5
-1.165, 2.174e-5
-1.166, 2.174e-5
-1.167, 2.174e-5
-1.168, 2.174e-5
-1.169, 2.174e-5
-1.170, 2.174e-5
-1.171, 2.174e-5
-1.172, 2.174e-5
-1.173, 2.174e-5
-1.174, 2.174e-5
-1.175, 2.174e-5
-1.176, 2.174e-5
-1.177, 2.174e-5
-1.178, 2.174e-5
-1.179, 2.174e-5
-1.180, 2.174e-5
-1.181, 2.482e-5
-1.182, 2.174e-5
-1.183, 2.174e-5
-1.184, 2.174e-5
-1.185, 2.174e-5
-1.186, 2.174e-5
-1.187, 2.174e-5
-1.188, 2.174e-5
-1.189, 2.174e-5
-1.190, 2.174e-5
-1.191, 2.174e-5
-1.192, 2.174e-5
-1.193, 2.174e-5
-1.194, 2.174e-5
-1.195, 2.174e-5
-1.196, 2.482e-5
-1.197, 2.174e-5
-1.198, 2.482e-5
-1.199, 2.174e-5
-1.200, 2.174e-5
-1.201, 2.174e-5
-1.202, 2.482e-5
-1.203, 2.482e-5
-1.204, 2.482e-5
-1.205, 2.482e-5
-1.206, 2.482e-5
-1.207, 2.174e-5
-1.208, 2.482e-5
-1.209, 2.482e-5
-1.210, 2.482e-5
-1.211, 2.482e-5
-1.212, 2.482e-5
-1.213, 2.482e-5
-1.214, 2.482e-5
-1.215, 2.482e-5
-1.216, 2.482e-5
-1.217, 2.482e-5
-1.218, 2.482e-5
-1.219, 2.482e-5
-1.220, 2.482e-5
-1.221, 2.482e-5
-1.222, 2.482e-5
-1.223, 2.482e-5
-1.224, 2.482e-5
-1.225, 2.482e-5
-1.226, 2.482e-5
-1.227, 2.482e-5
-1.228, 2.482e-5
-1.229, 2.482e-5
-1.230, 2.482e-5
-1.231, 2.482e-5
-1.232, 2.482e-5
-1.233, 2.482e-5
-1.234, 2.482e-5
-1.235, 2.482e-5
-1.236, 2.482e-5
-1.237, 2.482e-5
-1.238, 2.482e-5
-1.239, 2.482e-5
-1.240, 2.482e-5
-1.241, 2.790e-5
-1.242, 2.482e-5
-1.243, 2.482e-5
-1.244, 2.482e-5
-1.245, 2.482e-5
-1.246, 2.482e-5
-1.247, 2.790e-5
-1.248, 2.790e-5
-1.249, 2.482e-5
-1.250, 2.482e-5
-1.251, 2.482e-5
-1.252, 2.790e-5
-1.253, 2.482e-5
-1.254, 2.482e-5
-1.255, 2.482e-5
-1.256, 2.790e-5
-1.257, 2.482e-5
-1.258, 2.482e-5
-1.259, 2.790e-5
-1.260, 2.790e-5
-1.261, 2.790e-5
-1.262, 2.790e-5
-1.263, 2.790e-5
-1.264, 2.790e-5
-1.265, 2.790e-5
-1.266, 2.790e-5
-1.267, 2.790e-5
-1.268, 2.790e-5
-1.269, 2.790e-5
-1.270, 2.790e-5
-1.271, 2.790e-5
-1.272, 2.790e-5
-1.273, 2.790e-5
-1.274, 2.790e-5
-1.275, 2.790e-5
-1.276, 2.790e-5
-1.277, 2.790e-5
-1.278, 2.790e-5
-1.279, 2.790e-5
-1.280, 2.790e-5
-1.281, 3.099e-5
-1.282, 2.790e-5
-1.283, 2.790e-5
-1.284, 2.790e-5
-1.285, 2.790e-5
-1.286, 2.790e-5
-1.287, 2.790e-5
-1.288, 2.790e-5
-1.289, 2.790e-5
-1.290, 3.099e-5
-1.291, 3.099e-5
-1.292, 2.790e-5
-1.293, 3.099e-5
-1.294, 3.099e-5
-1.295, 3.099e-5
-1.296, 3.099e-5
-1.297, 3.099e-5
-1.298, 3.099e-5
-1.299, 3.099e-5
-1.300, 3.099e-5
-1.301, 3.099e-5
-1.302, 3.099e-5
-1.303, 3.099e-5
-1.304, 3.099e-5
-1.305, 3.099e-5
-1.306, 3.099e-5
-1.307, 3.099e-5
-1.308, 3.099e-5
-1.309, 3.099e-5
-1.310, 3.099e-5
-1.311, 3.099e-5
-1.312, 3.407e-5
-1.313, 3.099e-5
-1.314, 3.407e-5
-1.315, 3.099e-5
-1.316, 3.407e-5
-1.317, 3.407e-5
-1.318, 3.407e-5
-1.319, 3.407e-5
-1.320, 3.407e-5
-1.321, 3.407e-5
-1.322, 3.407e-5
-1.323, 3.407e-5
-1.324, 3.407e-5
-1.325, 3.407e-5
-1.326, 3.407e-5
-1.327, 3.407e-5
-1.328, 3.407e-5
-1.329, 3.407e-5
-1.330, 3.407e-5
-1.331, 3.407e-5
-1.332, 3.715e-5
-1.333, 3.407e-5
-1.334, 3.407e-5
-1.335, 3.715e-5
-1.336, 3.715e-5
-1.337, 3.715e-5
-1.338, 3.715e-5
-1.339, 3.715e-5
-1.340, 3.715e-5
-1.341, 3.715e-5
-1.342, 3.715e-5
-1.343, 3.715e-5
-1.344, 3.715e-5
-1.345, 3.715e-5
-1.346, 3.715e-5
-1.347, 3.715e-5
-1.348, 4.024e-5
-1.349, 3.715e-5
-1.350, 3.715e-5
-1.351, 3.715e-5
-1.352, 4.024e-5
-1.353, 4.024e-5
-1.354, 4.024e-5
-1.355, 4.024e-5
-1.356, 4.024e-5
-1.357, 4.024e-5
-1.358, 4.024e-5
-1.359, 4.024e-5
-1.360, 4.024e-5
-1.361, 4.332e-5
-1.362, 4.332e-5
-1.363, 4.332e-5
-1.364, 4.332e-5
-1.365, 4.332e-5
-1.366, 4.332e-5
-1.367, 4.332e-5
-1.368, 4.332e-5
-1.369, 4.332e-5
-1.370, 4.332e-5
-1.371, 4.332e-5
-1.372, 4.640e-5
-1.373, 4.640e-5
-1.374, 4.332e-5
-1.375, 4.332e-5
-1.376, 4.640e-5
-1.377, 4.640e-5
-1.378, 4.640e-5
-1.379, 4.640e-5
-1.380, 4.640e-5
-1.381, 4.949e-5
-1.382, 4.949e-5
-1.383, 4.949e-5
-1.384, 4.949e-5
-1.385, 4.949e-5
-1.386, 4.949e-5
-1.387, 4.949e-5
-1.388, 4.949e-5
-1.389, 4.949e-5
-1.390, 5.257e-5
-1.391, 5.257e-5
-1.392, 5.257e-5
-1.393, 5.257e-5
-1.394, 5.257e-5
-1.395, 5.257e-5
-1.396, 5.565e-5
-1.397, 5.257e-5
-1.398, 5.565e-5
-1.399, 5.565e-5
-1.400, 5.565e-5
-1.401, 5.565e-5
-1.402, 5.565e-5
-1.403, 5.565e-5
-1.404, 5.565e-5
-1.405, 5.873e-5
-1.406, 5.873e-5
-1.407, 5.873e-5
-1.408, 5.873e-5
-1.409, 5.873e-5
-1.410, 5.873e-5
-1.411, 5.873e-5
-1.412, 6.182e-5
-1.413, 6.182e-5
-1.414, 6.182e-5
-1.415, 6.182e-5
-1.416, 6.182e-5
-1.417, 6.182e-5
-1.418, 6.182e-5
-1.419, 6.490e-5
-1.420, 6.490e-5
-1.421, 6.490e-5
-1.422, 6.490e-5
-1.423, 6.798e-5
-1.424, 6.490e-5
-1.425, 6.490e-5
-1.426, 6.798e-5
-1.427, 6.798e-5
-1.428, 6.798e-5
-1.429, 6.798e-5
-1.430, 7.107e-5
-1.431, 7.107e-5
-1.432, 7.107e-5
-1.433, 7.107e-5
-1.434, 7.107e-5
-1.435, 7.107e-5
-1.436, 7.415e-5
-1.437, 7.415e-5
-1.438, 7.415e-5
-1.439, 7.723e-5
-1.440, 7.415e-5
-1.441, 7.723e-5
-1.442, 7.723e-5
-1.443, 7.723e-5
-1.444, 7.723e-5
-1.445, 7.723e-5
-1.446, 8.032e-5
-1.447, 8.032e-5
-1.448, 8.340e-5
-1.449, 8.032e-5
-1.450, 8.032e-5
-1.451, 8.340e-5
-1.452, 8.340e-5
-1.453, 8.340e-5
-1.454, 8.340e-5
-1.455, 8.340e-5
-1.456, 8.648e-5
-1.457, 8.648e-5
-1.458, 8.648e-5
-1.459, 8.648e-5
-1.460, 8.648e-5
-1.461, 8.957e-5
-1.462, 8.957e-5
-1.463, 8.957e-5
-1.464, 8.957e-5
-1.465, 8.957e-5
-1.466, 9.265e-5
-1.467, 9.265e-5
-1.468, 9.265e-5
-1.469, 9.265e-5
-1.470, 9.265e-5
-1.471, 9.573e-5
-1.472, 9.573e-5
-1.473, 9.882e-5
-1.474, 9.573e-5
-1.475, 9.882e-5
-1.476, 9.882e-5
-1.477, 1.019e-4
-1.478, 1.019e-4
-1.479, 1.019e-4
-1.480, 1.019e-4
-1.481, 1.050e-4
-1.482, 1.050e-4
-1.483, 1.050e-4
-1.484, 1.050e-4
-1.485, 1.081e-4
-1.486, 1.081e-4
-1.487, 1.081e-4
-1.488, 1.081e-4
-1.489, 1.111e-4
-1.490, 1.111e-4
-1.491, 1.111e-4
-1.492, 1.142e-4
-1.493, 1.142e-4
-1.494, 1.142e-4
-1.495, 1.142e-4
-1.496, 1.173e-4
-1.497, 1.173e-4
-1.498, 1.204e-4
-1.499, 1.204e-4
-1.500, 1.204e-4
-1.501, 1.204e-4
-1.502, 1.204e-4
-1.503, 1.235e-4
-1.504, 1.235e-4
-1.505, 1.235e-4
-1.506, 1.266e-4
-1.507, 1.266e-4
-1.508, 1.296e-4
-1.509, 1.296e-4
-1.510, 1.296e-4
-1.511, 1.327e-4
-1.512, 1.327e-4
-1.513, 1.327e-4
-1.514, 1.358e-4
-1.515, 1.358e-4
-1.516, 1.389e-4
-1.517, 1.389e-4
-1.518, 1.389e-4
-1.519, 1.420e-4
-1.520, 1.420e-4
-1.521, 1.420e-4
-1.522, 1.451e-4
-1.523, 1.481e-4
-1.524, 1.481e-4
-1.525, 1.481e-4
-1.526, 1.512e-4
-1.527, 1.512e-4
-1.528, 1.543e-4
-1.529, 1.543e-4
-1.530, 1.574e-4
-1.531, 1.574e-4
-1.532, 1.574e-4
-1.533, 1.605e-4
-1.534, 1.605e-4
-1.535, 1.636e-4
-1.536, 1.666e-4
-1.537, 1.666e-4
-1.538, 1.697e-4
-1.539, 1.697e-4
-1.540, 1.728e-4
-1.541, 1.728e-4
-1.542, 1.759e-4
-1.543, 1.759e-4
-1.544, 1.790e-4
-1.545, 1.790e-4
-1.546, 1.821e-4
-1.547, 1.851e-4
-1.548, 1.851e-4
-1.549, 1.882e-4
-1.550, 1.913e-4
-1.551, 1.913e-4
-1.552, 1.944e-4
-1.553, 1.975e-4
-1.554, 1.975e-4
-1.555, 2.006e-4
-1.556, 2.036e-4
-1.557, 2.036e-4
-1.558, 2.067e-4
-1.559, 2.098e-4
-1.560, 2.129e-4
-1.561, 2.129e-4
-1.562, 2.160e-4
-1.563, 2.191e-4
-1.564, 2.221e-4
-1.565, 2.252e-4
-1.566, 2.283e-4
-1.567, 2.283e-4
-1.568, 2.314e-4
-1.569, 2.345e-4
-1.570, 2.376e-4
-1.571, 2.406e-4
-1.572, 2.437e-4
-1.573, 2.468e-4
-1.574, 2.499e-4
-1.575, 2.530e-4
-1.576, 2.561e-4
-1.577, 2.591e-4
-1.578, 2.622e-4
-1.579, 2.653e-4
-1.580, 2.715e-4
-1.581, 2.715e-4
-1.582, 2.776e-4
-1.583, 2.807e-4
-1.584, 2.838e-4
-1.585, 2.869e-4
-1.586, 2.931e-4
-1.587, 2.961e-4
-1.588, 3.023e-4
-1.589, 3.054e-4
-1.590, 3.085e-4
-1.591, 3.146e-4
-1.592, 3.177e-4
-1.593, 3.208e-4
-1.594, 3.270e-4
-1.595, 3.331e-4
-1.596, 3.362e-4
-1.597, 3.424e-4
-1.598, 3.455e-4
-1.599, 3.516e-4
-1.600, 3.547e-4
-1.601, 3.609e-4
-1.602, 3.670e-4
-1.603, 3.732e-4
-1.604, 3.794e-4
-1.605, 3.855e-4
-1.606, 3.917e-4
-1.607, 3.948e-4
-1.608, 4.040e-4
-1.609, 4.071e-4
-1.610, 4.133e-4
-1.611, 4.225e-4
-1.612, 4.287e-4
-1.613, 4.349e-4
-1.614, 4.441e-4
-1.615, 4.503e-4
-1.616, 4.565e-4
-1.617, 4.626e-4
-1.618, 4.719e-4
-1.619, 4.811e-4
-1.620, 4.873e-4
-1.621, 4.965e-4
-1.622, 5.058e-4
-1.623, 5.120e-4
-1.624, 5.212e-4
-1.625, 5.305e-4
-1.626, 5.397e-4
-1.627, 5.489e-4
-1.628, 5.582e-4
-1.629, 5.674e-4
-1.630, 5.767e-4
-1.631, 5.890e-4
-1.632, 5.983e-4
-1.633, 6.075e-4
-1.634, 6.199e-4
-1.635, 6.291e-4
-1.636, 6.384e-4
-1.637, 6.507e-4
-1.638, 6.630e-4
-1.639, 6.754e-4
-1.640, 6.877e-4
-1.641, 6.969e-4
-1.642, 7.124e-4
-1.643, 7.247e-4
-1.644, 7.370e-4
-1.645, 7.494e-4
-1.646, 7.648e-4
-1.647, 7.771e-4
-1.648, 7.925e-4
-1.649, 8.048e-4
-1.650, 8.203e-4
-1.651, 8.357e-4
-1.652, 8.480e-4
-1.653, 8.665e-4
-1.654, 8.819e-4
-1.655, 8.973e-4
-1.656, 9.158e-4
-1.657, 9.282e-4
-1.658, 9.467e-4
-1.659, 9.621e-4
-1.660, 9.837e-4
-1.661, 9.991e-4
-1.662, 1.018e-3
-1.663, 1.036e-3
-1.664, 1.055e-3
-1.665, 1.073e-3
-1.666, 1.092e-3
-1.667, 1.110e-3
-1.668, 1.129e-3
-1.669, 1.150e-3
-1.670, 1.172e-3
-1.671, 1.193e-3
-1.672, 1.212e-3
-1.673, 1.233e-3
-1.674, 1.255e-3
-1.675, 1.277e-3
-1.676, 1.298e-3
-1.677, 1.320e-3
-1.678, 1.344e-3
-1.679, 1.366e-3
-1.680, 1.391e-3
-1.681, 1.412e-3
-1.682, 1.437e-3
-1.683, 1.462e-3
-1.684, 1.486e-3
-1.685, 1.511e-3
-1.686, 1.539e-3
-1.687, 1.563e-3
-1.688, 1.588e-3
-1.689, 1.619e-3
-1.690, 1.647e-3
-1.691, 1.674e-3
-1.692, 1.699e-3
-1.693, 1.727e-3
-1.694, 1.758e-3
-1.695, 1.782e-3
-1.696, 1.813e-3
-1.697, 1.844e-3
-1.698, 1.872e-3
-1.699, 1.902e-3
-1.700, 1.930e-3
-1.701, 1.961e-3
-1.702, 1.992e-3
-1.703, 2.023e-3
-1.704, 2.057e-3
-1.705, 2.087e-3
-1.706, 2.121e-3
-1.707, 2.152e-3
-1.708, 2.186e-3
-1.709, 2.217e-3
-1.710, 2.248e-3
-1.711, 2.282e-3
-1.712, 2.316e-3
-1.713, 2.349e-3
-1.714, 2.386e-3
-1.715, 2.423e-3
-1.716, 2.457e-3
-1.717, 2.491e-3
-1.718, 2.528e-3
-1.719, 2.562e-3
-1.720, 2.596e-3
-1.721, 2.633e-3
-1.722, 2.673e-3
-1.723, 2.710e-3
-1.724, 2.747e-3
-1.725, 2.781e-3
-1.726, 2.818e-3
-1.727, 2.858e-3
-1.728, 2.898e-3
-1.729, 2.938e-3
-1.730, 2.978e-3
-1.731, 3.019e-3
-1.732, 3.059e-3
-1.733, 3.099e-3
-1.734, 3.139e-3
-1.735, 3.179e-3
-1.736, 3.222e-3
-1.737, 3.262e-3
-1.738, 3.305e-3
-1.739, 3.345e-3
-1.740, 3.392e-3
-1.741, 3.441e-3
-1.742, 3.481e-3
-1.743, 3.515e-3
-1.744, 3.540e-3
-1.745, 3.570e-3
-1.746, 3.604e-3
-1.747, 3.654e-3
-1.748, 3.712e-3
-1.749, 3.771e-3
-1.750, 3.826e-3
-1.751, 3.879e-3
-1.752, 3.922e-3
-1.753, 3.965e-3
-1.754, 4.011e-3
-1.755, 4.058e-3
-1.756, 4.101e-3
-1.757, 4.138e-3
-1.758, 4.165e-3
-1.759, 4.190e-3
-1.760, 4.218e-3
-1.761, 4.255e-3
-1.762, 4.307e-3
-1.763, 4.366e-3
-1.764, 4.428e-3
-1.765, 4.486e-3
-1.766, 4.542e-3
-1.767, 4.591e-3
-1.768, 4.637e-3
-1.769, 4.680e-3
-1.770, 4.720e-3
-1.771, 4.760e-3
-1.772, 4.794e-3
-1.773, 4.831e-3
-1.774, 4.865e-3
-1.775, 4.912e-3
-1.776, 4.967e-3
-1.777, 5.035e-3
-1.778, 5.106e-3
-1.779, 5.174e-3
-1.780, 5.235e-3
-1.781, 5.291e-3
-1.782, 5.343e-3
-1.783, 5.386e-3
-1.784, 5.426e-3
-1.785, 5.463e-3
-1.786, 5.497e-3
-1.787, 5.528e-3
-1.788, 5.565e-3
-1.789, 5.618e-3
-1.790, 5.676e-3
-1.791, 5.744e-3
-1.792, 5.812e-3
-1.793, 5.877e-3
-1.794, 5.938e-3
-1.795, 5.994e-3
-1.796, 6.043e-3
-1.797, 6.089e-3
-1.798, 6.136e-3
-1.799, 6.173e-3
-1.800, 6.182e-3
-1.799, 6.142e-3
-1.798, 6.108e-3
-1.797, 6.077e-3
-1.796, 6.052e-3
-1.795, 6.034e-3
-1.794, 6.012e-3
-1.793, 5.988e-3
-1.792, 5.960e-3
-1.791, 5.926e-3
-1.790, 5.883e-3
-1.789, 5.840e-3
-1.788, 5.793e-3
-1.787, 5.753e-3
-1.786, 5.713e-3
-1.785, 5.673e-3
-1.784, 5.639e-3
-1.783, 5.608e-3
-1.782, 5.581e-3
-1.781, 5.556e-3
-1.780, 5.525e-3
-1.779, 5.497e-3
-1.778, 5.460e-3
-1.777, 5.417e-3
-1.776, 5.374e-3
-1.775, 5.331e-3
-1.774, 5.288e-3
-1.773, 5.245e-3
-1.772, 5.204e-3
-1.771, 5.167e-3
-1.770, 5.137e-3
-1.769, 5.109e-3
-1.768, 5.084e-3
-1.767, 5.053e-3
-1.766, 5.019e-3
-1.765, 4.986e-3
-1.764, 4.942e-3
-1.763, 4.899e-3
-1.762, 4.853e-3
-1.761, 4.810e-3
-1.760, 4.767e-3
-1.759, 4.723e-3
-1.758, 4.680e-3
-1.757, 4.643e-3
-1.756, 4.609e-3
-1.755, 4.575e-3
-1.754, 4.542e-3
-1.753, 4.511e-3
-1.752, 4.474e-3
-1.751, 4.437e-3
-1.750, 4.397e-3
-1.749, 4.357e-3
-1.748, 4.313e-3
-1.747, 4.276e-3
-1.746, 4.239e-3
-1.745, 4.206e-3
-1.744, 4.175e-3
-1.743, 4.138e-3
-1.742, 4.107e-3
-1.741, 4.070e-3
-1.740, 4.039e-3
-1.739, 4.005e-3
-1.738, 3.968e-3
-1.737, 3.931e-3
-1.736, 3.894e-3
-1.735, 3.857e-3
-1.734, 3.820e-3
-1.733, 3.783e-3
-1.732, 3.746e-3
-1.731, 3.712e-3
-1.730, 3.678e-3
-1.729, 3.647e-3
-1.728, 3.617e-3
-1.727, 3.583e-3
-1.726, 3.552e-3
-1.725, 3.515e-3
-1.724, 3.478e-3
-1.723, 3.441e-3
-1.722, 3.407e-3
-1.721, 3.373e-3
-1.720, 3.339e-3
-1.719, 3.308e-3
-1.718, 3.274e-3
-1.717, 3.244e-3
-1.716, 3.210e-3
-1.715, 3.176e-3
-1.714, 3.145e-3
-1.713, 3.114e-3
-1.712, 3.080e-3
-1.711, 3.049e-3
-1.710, 3.019e-3
-1.709, 2.985e-3
-1.708, 2.954e-3
-1.707, 2.920e-3
-1.706, 2.889e-3
-1.705, 2.858e-3
-1.704, 2.830e-3
-1.703, 2.800e-3
-1.702, 2.775e-3
-1.701, 2.744e-3
-1.700, 2.713e-3
-1.699, 2.686e-3
-1.698, 2.655e-3
-1.697, 2.624e-3
-1.696, 2.596e-3
-1.695, 2.568e-3
-1.694, 2.541e-3
-1.693, 2.513e-3
-1.692, 2.482e-3
-1.691, 2.454e-3
-1.690, 2.427e-3
-1.689, 2.399e-3
-1.688, 2.371e-3
-1.687, 2.343e-3
-1.686, 2.319e-3
-1.685, 2.291e-3
-1.684, 2.266e-3
-1.683, 2.238e-3
-1.682, 2.211e-3
-1.681, 2.186e-3
-1.680, 2.161e-3
-1.679, 2.140e-3
-1.678, 2.112e-3
-1.677, 2.084e-3
-1.676, 2.054e-3
-1.675, 2.026e-3
-1.674, 1.998e-3
-1.673, 1.973e-3
-1.672, 1.955e-3
-1.671, 1.936e-3
-1.670, 1.915e-3
-1.669, 1.893e-3
-1.668, 1.869e-3
-1.667, 1.844e-3
-1.666, 1.819e-3
-1.665, 1.798e-3
-1.664, 1.776e-3
-1.663, 1.748e-3
-1.662, 1.727e-3
-1.661, 1.702e-3
-1.660, 1.674e-3
-1.659, 1.653e-3
-1.658, 1.628e-3
-1.657, 1.610e-3
-1.656, 1.588e-3
-1.655, 1.569e-3
-1.654, 1.548e-3
-1.653, 1.532e-3
-1.652, 1.511e-3
-1.651, 1.489e-3
-1.650, 1.468e-3
-1.649, 1.449e-3
-1.648, 1.428e-3
-1.647, 1.406e-3
-1.646, 1.388e-3
-1.645, 1.369e-3
-1.644, 1.351e-3
-1.643, 1.335e-3
-1.642, 1.317e-3
-1.641, 1.298e-3
-1.640, 1.283e-3
-1.639, 1.264e-3
-1.638, 1.246e-3
-1.637, 1.227e-3
-1.636, 1.212e-3
-1.635, 1.196e-3
-1.634, 1.178e-3
-1.633, 1.162e-3
-1.632, 1.144e-3
-1.631, 1.125e-3
-1.630, 1.110e-3
-1.629, 1.098e-3
-1.628, 1.082e-3
-1.627, 1.067e-3
-1.626, 1.051e-3
-1.625, 1.036e-3
-1.624, 1.021e-3
-1.623, 1.005e-3
-1.622, 9.898e-4
-1.621, 9.775e-4
-1.620, 9.621e-4
-1.619, 9.498e-4
-1.618, 9.343e-4
-1.617, 9.189e-4
-1.616, 9.066e-4
-1.615, 8.943e-4
-1.614, 8.819e-4
-1.613, 8.665e-4
-1.612, 8.542e-4
-1.611, 8.418e-4
-1.610, 8.295e-4
-1.609, 8.172e-4
-1.608, 8.048e-4
-1.607, 7.925e-4
-1.606, 7.802e-4
-1.605, 7.679e-4
-1.604, 7.555e-4
-1.603, 7.432e-4
-1.602, 7.339e-4
-1.601, 7.216e-4
-1.600, 7.124e-4
-1.599, 7.000e-4
-1.598, 6.908e-4
-1.597, 6.784e-4
-1.596, 6.692e-4
-1.595, 6.599e-4
-1.594, 6.507e-4
-1.593, 6.384e-4
-1.592, 6.291e-4
-1.591, 6.199e-4
-1.590, 6.075e-4
-1.589, 5.983e-4
-1.588, 5.890e-4
-1.587, 5.798e-4
-1.586, 5.736e-4
-1.585, 5.644e-4
-1.584, 5.551e-4
-1.583, 5.428e-4
-1.582, 5.366e-4
-1.581, 5.274e-4
-1.580, 5.212e-4
-1.579, 5.120e-4
-1.578, 5.027e-4
-1.577, 4.965e-4
-1.576, 4.873e-4
-1.575, 4.780e-4
-1.574, 4.688e-4
-1.573, 4.626e-4
-1.572, 4.565e-4
-1.571, 4.503e-4
-1.570, 4.410e-4
-1.569, 4.349e-4
-1.568, 4.287e-4
-1.567, 4.195e-4
-1.566, 4.133e-4
-1.565, 4.071e-4
-1.564, 4.010e-4
-1.563, 3.917e-4
-1.562, 3.886e-4
-1.561, 3.825e-4
-1.560, 3.732e-4
-1.559, 3.701e-4
-1.558, 3.609e-4
-1.557, 3.547e-4
-1.556, 3.485e-4
-1.555, 3.455e-4
-1.554, 3.393e-4
-1.553, 3.331e-4
-1.552, 3.270e-4
-1.551, 3.208e-4
-1.550, 3.177e-4
-1.549, 3.115e-4
-1.548, 3.054e-4
-1.547, 2.992e-4
-1.546, 2.961e-4
-1.545, 2.900e-4
-1.544, 2.869e-4
-1.543, 2.807e-4
-1.542, 2.746e-4
-1.541, 2.715e-4
-1.540, 2.653e-4
-1.539, 2.622e-4
-1.538, 2.561e-4
-1.537, 2.530e-4
-1.536, 2.499e-4
-1.535, 2.437e-4
-1.534, 2.406e-4
-1.533, 2.345e-4
-1.532, 2.314e-4
-1.531, 2.283e-4
-1.530, 2.252e-4
-1.529, 2.191e-4
-1.528, 2.160e-4
-1.527, 2.098e-4
-1.526, 2.098e-4
-1.525, 2.036e-4
-1.524, 2.006e-4
-1.523, 1.975e-4
-1.522, 1.944e-4
-1.521, 1.913e-4
-1.520, 1.882e-4
-1.519, 1.851e-4
-1.518, 1.790e-4
-1.517, 1.759e-4
-1.516, 1.728e-4
-1.515, 1.697e-4
-1.514, 1.666e-4
-1.513, 1.636e-4
-1.512, 1.636e-4
-1.511, 1.605e-4
-1.510, 1.574e-4
-1.509, 1.512e-4
-1.508, 1.512e-4
-1.507, 1.481e-4
-1.506, 1.451e-4
-1.505, 1.420e-4
-1.504, 1.389e-4
-1.503, 1.358e-4
-1.502, 1.327e-4
-1.501, 1.327e-4
-1.500, 1.266e-4
-1.499, 1.266e-4
-1.498, 1.235e-4
-1.497, 1.204e-4
-1.496, 1.204e-4
-1.495, 1.173e-4
-1.494, 1.142e-4
-1.493, 1.111e-4
-1.492, 1.081e-4
-1.491, 1.081e-4
-1.490, 1.050e-4
-1.489, 1.050e-4
-1.488, 1.019e-4
-1.487, 9.882e-5
-1.486, 9.882e-5
-1.485, 9.573e-5
-1.484, 9.265e-5
-1.483, 9.265e-5
-1.482, 8.957e-5
-1.481, 8.957e-5
-1.480, 8.648e-5
-1.479, 8.340e-5
-1.478, 8.340e-5
-1.477, 8.032e-5
-1.476, 8.032e-5
-1.475, 7.723e-5
-1.474, 7.415e-5
-1.473, 7.415e-5
-1.472, 7.107e-5
-1.471, 7.107e-5
-1.470, 6.798e-5
-1.469, 6.798e-5
-1.468, 6.490e-5
-1.467, 6.490e-5
-1.466, 6.182e-5
-1.465, 6.182e-5
-1.464, 6.182e-5
-1.463, 5.873e-5
-1.462, 5.873e-5
-1.461, 5.873e-5
-1.460, 5.565e-5
-1.459, 5.257e-5
-1.458, 5.257e-5
-1.457, 4.949e-5
-1.456, 4.949e-5
-1.455, 4.949e-5
-1.454, 4.640e-5
-1.453, 4.640e-5
-1.452, 4.640e-5
-1.451, 4.332e-5
-1.450, 4.332e-5
-1.449, 4.332e-5
-1.448, 4.024e-5
-1.447, 3.715e-5
-1.446, 3.715e-5
-1.445, 3.715e-5
-1.444, 3.407e-5
-1.443, 3.407e-5
-1.442, 3.407e-5
-1.441, 3.099e-5
-1.440, 3.099e-5
-1.439, 3.099e-5
-1.438, 3.099e-5
-1.437, 3.099e-5
-1.436, 2.790e-5
-1.435, 2.790e-5
-1.434, 2.482e-5
-1.433, 2.482e-5
-1.432, 2.482e-5
-1.431, 2.482e-5
-1.430, 2.174e-5
-1.429, 2.174e-5
-1.428, 2.174e-5
-1.427, 2.174e-5
-1.426, 1.865e-5
-1.425, 1.865e-5
-1.424, 1.865e-5
-1.423, 1.865e-5
-1.422, 1.557e-5
-1.421, 1.557e-5
-1.420, 1.557e-5
-1.419, 1.557e-5
-1.418, 1.249e-5
-1.417, 1.249e-5
-1.416, 1.249e-5
-1.415, 1.249e-5
-1.414, 1.249e-5
-1.413, 1.249e-5
-1.412, 1.249e-5
-1.411, 9.405e-6
-1.410, 9.405e-6
-1.409, 6.322e-6
-1.408, 6.322e-6
-1.407, 6.322e-6
-1.406, 6.322e-6
-1.405, 6.322e-6
-1.404, 6.322e-6
-1.403, 6.322e-6
-1.402, 3.239e-6
-1.401, 3.239e-6
-1.400, 3.239e-6
-1.399, 3.239e-6
-1.398, 3.239e-6
-1.397, 3.239e-6
-1.396, 3.239e-6
-1.395, 3.239e-6
-1.394, 3.239e-6
-1.393, 1.559e-7
-1.392, 1.559e-7
-1.391, 1.559e-7
-1.390, 1.559e-7
-1.389, 1.559e-7
-1.388, 1.559e-7
-1.387, -2.927e-6
-1.386, -2.927e-6
-1.385, -2.927e-6
-1.384, -2.927e-6
-1.383, -2.927e-6
-1.382, -2.927e-6
-1.381, -2.927e-6
-1.380, -6.010e-6
-1.379, -6.010e-6
-1.378, -2.927e-6
-1.377, -6.010e-6
-1.376, -6.010e-6
-1.375, -6.010e-6
-1.374, -6.010e-6
-1.373, -6.010e-6
-1.372, -6.010e-6
-1.371, -6.010e-6
-1.370, -6.010e-6
-1.369, -6.010e-6
-1.368, -9.093e-6
-1.367, -9.093e-6
-1.366, -9.093e-6
-1.365, -9.093e-6
-1.364, -9.093e-6
-1.363, -9.093e-6
-1.362, -9.093e-6
-1.361, -9.093e-6
-1.360, -1.218e-5
-1.359, -1.218e-5
-1.358, -9.093e-6
-1.357, -9.093e-6
-1.356, -1.218e-5
-1.355, -1.218e-5
-1.354, -1.218e-5
-1.353, -1.218e-5
-1.352, -1.218e-5
-1.351, -1.218e-5
-1.350, -1.218e-5
-1.349, -1.218e-5
-1.348, -1.218e-5
-1.347, -1.218e-5
-1.346, -1.218e-5
-1.345, -1.218e-5
-1.344, -1.218e-5
-1.343, -1.218e-5
-1.342, -1.526e-5
-1.341, -1.526e-5
-1.340, -1.526e-5
-1.339, -1.526e-5
-1.338, -1.526e-5
-1.337, -1.526e-5
-1.336, -1.526e-5
-1.335, -1.526e-5
-1.334, -1.526e-5
-1.333, -1.526e-5
-1.332, -1.526e-5
-1.331, -1.526e-5
-1.330, -1.526e-5
-1.329, -1.526e-5
-1.328, -1.526e-5
-1.327, -1.526e-5
-1.326, -1.834e-5
-1.325, -1.834e-5
-1.324, -1.834e-5
-1.323, -1.834e-5
-1.322, -1.834e-5
-1.321, -1.526e-5
-1.320, -1.834e-5
-1.319, -1.834e-5
-1.318, -1.834e-5
-1.317, -1.834e-5
-1.316, -1.834e-5
-1.315, -1.834e-5
-1.314, -1.834e-5
-1.313, -1.834e-5
-1.312, -1.834e-5
-1.311, -1.834e-5
-1.310, -1.834e-5
-1.309, -1.834e-5
-1.308, -1.834e-5
-1.307, -1.834e-5
-1.306, -1.834e-5
-1.305, -1.834e-5
-1.304, -1.834e-5
-1.303, -1.834e-5
-1.302, -2.143e-5
-1.301, -1.834e-5
-1.300, -1.834e-5
-1.299, -2.143e-5
-1.298, -1.834e-5
-1.297, -2.143e-5
-1.296, -1.834e-5
-1.295, -2.143e-5
-1.294, -1.834e-5
-1.293, -1.834e-5
-1.292, -2.143e-5
-1.291, -2.143e-5
-1.290, -2.143e-5
-1.289, -2.143e-5
-1.288, -2.143e-5
-1.287, -2.143e-5
-1.286, -2.143e-5
-1.285, -2.143e-5
-1.284, -2.143e-5
-1.283, -2.143e-5
-1.282, -2.143e-5
-1.281, -2.143e-5
-1.280, -2.143e-5
-1.279, -2.143e-5
-1.278, -2.143e-5
-1.277, -2.143e-5
-1.276, -2.143e-5
-1.275, -2.451e-5
-1.274, -2.143e-5
-1.273, -2.143e-5
-1.272, -2.451e-5
-1.271, -2.143e-5
-1.270, -2.451e-5
-1.269, -2.143e-5
-1.268, -2.143e-5
-1.267, -2.143e-5
-1.266, -2.451e-5
-1.265, -2.143e-5
-1.264, -2.143e-5
-1.263, -2.143e-5
-1.262, -2.143e-5
-1.261, -2.143e-5
-1.260, -2.451e-5
-1.259, -2.451e-5
-1.258, -2.143e-5
-1.257, -2.451e-5
-1.256, -2.451e-5
-1.255, -2.451e-5
-1.254, -2.451e-5
-1.253, -2.451e-5
-1.252, -2.451e-5
-1.251, -2.451e-5
-1.250, -2.451e-5
-1.249, -2.451e-5
-1.248, -2.451e-5
-1.247, -2.451e-5
-1.246, -2.451e-5
-1.245, -2.451e-5
-1.244, -2.451e-5
-1.243, -2.451e-5
-1.242, -2.451e-5
-1.241, -2.451e-5
-1.240, -2.451e-5
-1.239, -2.451e-5
-1.238, -2.451e-5
-1.237, -2.451e-5
-1.236, -2.451e-5
-1.235, -2.451e-5
-1.234, -2.451e-5
-1.233, -2.451e-5
-1.232, -2.451e-5
-1.231, -2.451e-5
-1.230, -2.451e-5
-1.229, -2.451e-5
-1.228, -2.451e-5
-1.227, -2.451e-5
-1.226, -2.451e-5
-1.225, -2.451e-5
-1.224, -2.451e-5
-1.223, -2.451e-5
-1.222, -2.451e-5
-1.221, -2.451e-5
-1.220, -2.451e-5
-1.219, -2.759e-5
-1.218, -2.451e-5
-1.217, -2.759e-5
-1.216, -2.451e-5
-1.215, -2.759e-5
-1.214, -2.759e-5
-1.213, -2.451e-5
-1.212, -2.759e-5
-1.211, -2.451e-5
-1.210, -2.759e-5
-1.209, -2.759e-5
-1.208, -2.759e-5
-1.207, -2.759e-5
-1.206, -2.759e-5
-1.205, -2.759e-5
-1.204, -2.759e-5
-1.203, -2.759e-5
-1.202, -2.759e-5
-1.201, -2.759e-5
-1.200, -2.759e-5
-1.199, -2.759e-5
-1.198, -2.759e-5
-1.197, -2.759e-5
-1.196, -2.759e-5
-1.195, -2.759e-5
-1.194, -2.759e-5
-1.193, -2.759e-5
-1.192, -2.759e-5
-1.191, -2.759e-5
-1.190, -2.759e-5
-1.189, -2.759e-5
-1.188, -2.759e-5
-1.187, -2.759e-5
-1.186, -2.759e-5
-1.185, -2.759e-5
-1.184, -2.759e-5
-1.183, -2.759e-5
-1.182, -2.759e-5
-1.181, -2.759e-5
-1.180, -2.759e-5
-1.179, -2.759e-5
-1.178, -2.759e-5
-1.177, -2.759e-5
-1.176, -2.759e-5
-1.175, -2.759e-5
-1.174, -2.759e-5
-1.173, -2.759e-5
-1.172, -2.759e-5
-1.171, -2.759e-5
-1.170, -2.759e-5
-1.169, -2.759e-5
-1.168, -2.759e-5
-1.167, -3.068e-5
-1.166, -2.759e-5
-1.165, -2.759e-5
-1.164, -2.759e-5
-1.163, -2.759e-5
-1.162, -2.759e-5
-1.161, -2.759e-5
-1.160, -3.068e-5
-1.159, -3.068e-5
-1.158, -3.068e-5
-1.157, -2.759e-5
-1.156, -3.068e-5
-1.155, -2.759e-5
-1.154, -3.068e-5
-1.153, -2.759e-5
-1.152, -3.068e-5
-1.151, -3.068e-5
-1.150, -3.068e-5
-1.149, -3.068e-5
-1.148, -3.068e-5
-1.147, -3.068e-5
-1.146, -2.759e-5
-1.145, -3.068e-5
-1.144, -2.759e-5
-1.143, -2.759e-5
-1.142, -3.068e-5
-1.141, -3.068e-5
-1.140, -3.068e-5
-1.139, -3.068e-5
-1.138, -3.068e-5
-1.137, -3.068e-5
-1.136, -3.068e-5
-1.135, -3.068e-5
-1.134, -3.068e-5
-1.133, -3.068e-5
-1.132, -3.068e-5
-1.131, -3.068e-5
-1.130, -3.068e-5
-1.129, -3.068e-5
-1.128, -3.068e-5
-1.127, -3.068e-5
-1.126, -3.068e-5
-1.125, -3.068e-5
-1.124, -3.068e-5
-1.123, -3.068e-5
-1.122, -3.068e-5
-1.121, -3.068e-5
-1.120, -3.068e-5
-1.119, -3.068e-5
-1.118, -3.068e-5
-1.117, -3.068e-5
-1.116, -3.068e-5
-1.115, -3.068e-5
-1.114, -3.068e-5
-1.113, -3.068e-5
-1.112, -3.068e-5
-1.111, -3.068e-5
-1.110, -3.068e-5
-1.109, -3.068e-5
-1.108, -3.068e-5
-1.107, -3.068e-5
-1.106, -3.068e-5
-1.105, -3.068e-5
-1.104, -3.068e-5
-1.103, -3.068e-5
-1.102, -3.376e-5
-1.101, -3.068e-5
-1.100, -3.068e-5
-1.099, -3.068e-5
-1.098, -3.376e-5
-1.097, -3.376e-5
-1.096, -3.068e-5
-1.095, -3.068e-5
-1.094, -3.376e-5
-1.093, -3.068e-5
-1.092, -3.376e-5
-1.091, -3.068e-5
-1.090, -3.068e-5
-1.089, -3.376e-5
-1.088, -3.376e-5
-1.087, -3.376e-5
-1.086, -3.376e-5
-1.085, -3.376e-5
-1.084, -3.376e-5
-1.083, -3.376e-5
-1.082, -3.376e-5
-1.081, -3.376e-5
-1.080, -3.376e-5
-1.079, -3.376e-5
-1.078, -3.376e-5
-1.077, -3.376e-5
-1.076, -3.376e-5
-1.075, -3.376e-5
-1.074, -3.376e-5
-1.073, -3.376e-5
-1.072, -3.376e-5
-1.071, -3.376e-5
-1.070, -3.376e-5
-1.069, -3.684e-5
-1.068, -3.376e-5
-1.067, -3.684e-5
-1.066, -3.684e-5
-1.065, -3.684e-5
-1.064, -3.684e-5
-1.063, -3.684e-5
-1.062, -3.684e-5
-1.061, -3.684e-5
-1.060, -3.684e-5
-1.059, -3.684e-5
-1.058, -3.684e-5
-1.057, -3.684e-5
-1.056, -3.684e-5
-1.055, -3.684e-5
-1.054, -3.684e-5
-1.053, -3.684e-5
-1.052, -3.684e-5
-1.051, -3.992e-5
-1.050, -3.992e-5
-1.049, -3.992e-5
-1.048, -3.684e-5
-1.047, -3.992e-5
-1.046, -3.992e-5
-1.045, -3.992e-5
-1.044, -3.992e-5
-1.043, -3.992e-5
-1.042, -3.992e-5
-1.041, -3.992e-5
-1.040, -3.992e-5
-1.039, -3.992e-5
-1.038, -3.992e-5
-1.037, -3.992e-5
-1.036, -3.992e-5
-1.035, -3.992e-5
-1.034, -4.301e-5
-1.033, -4.301e-5
-1.032, -4.301e-5
-1.031, -4.301e-5
-1.030, -4.301e-5
-1.029, -4.301e-5
-1.028, -4.301e-5
-1.027, -4.301e-5
-1.026, -4.301e-5
-1.025, -4.301e-5
-1.024, -4.301e-5
-1.023, -4.609e-5
-1.022, -4.609e-5
-1.021, -4.301e-5
-1.020, -4.609e-5
-1.019, -4.609e-5
-1.018, -4.609e-5
-1.017, -4.609e-5
-1.016, -4.609e-5
-1.015, -4.609e-5
-1.014, -4.609e-5
-1.013, -4.609e-5
-1.012, -4.609e-5
-1.011, -4.609e-5
-1.010, -4.917e-5
-1.009, -4.917e-5
-1.008, -4.917e-5
-1.007, -4.917e-5
-1.006, -4.917e-5
-1.005, -4.917e-5
-1.004, -4.917e-5
-1.003, -4.917e-5
-1.002, -4.917e-5
-1.001, -5.226e-5
