Sept. 28, 2024   06:54:37
Cyclic Voltammetry
File: c:/users/guazh/data/20240922_batch_417_500/2024-09-22-exp470\exp470-2024-09-28t06_36_42-h2koh\exp470_cv_sr_50mvs_efin_-1800mv.bin
Data Source:  Experiment
Instrument Model:  CHI760E
Header: CV ran at 50 mVs
Note: 

Init E (V) = -1
High E (V) = -1
Low E (V) = -1.8
Final E (V) = -1
Init P/N = N
Scan Rate (V/s) = 0.05
Segment = 3
Sample Interval (V) = 0.001
Quiet Time (sec) = 2
Sensitivity (A/V) = 0.01
Comp R (ohm) = 2.2

Results:

Channel 1:
Segment 1:

Segment 2:

Segment 3:

Potential/V, Current/A

-1.000, -3.199e-6
-1.001, -2.478e-6
-1.002, -2.153e-6
-1.003, -1.906e-6
-1.004, -1.699e-6
-1.005, -1.363e-6
-1.006, -1.215e-6
-1.007, -9.096e-7
-1.008, -9.096e-7
-1.009, -7.123e-7
-1.010, -5.249e-7
-1.011, -2.684e-7
-1.012, -1.006e-7
-1.013, -7.103e-8
-1.014, 8.682e-8
-1.015, 2.545e-7
-1.016, 4.223e-7
-1.017, 4.420e-7
-1.018, 5.801e-7
-1.019, 7.380e-7
-1.020, 8.465e-7
-1.021, 8.860e-7
-1.022, 9.945e-7
-1.023, 9.748e-7
-1.024, 1.330e-6
-1.025, 1.330e-6
-1.026, 1.419e-6
-1.027, 1.429e-6
-1.028, 1.508e-6
-1.029, 1.734e-6
-1.030, 1.606e-6
-1.031, 1.813e-6
-1.032, 1.744e-6
-1.033, 1.813e-6
-1.034, 1.981e-6
-1.035, 1.951e-6
-1.036, 2.099e-6
-1.037, 2.277e-6
-1.038, 2.040e-6
-1.039, 2.257e-6
-1.040, 2.228e-6
-1.041, 2.336e-6
-1.042, 2.356e-6
-1.043, 2.336e-6
-1.044, 2.455e-6
-1.045, 2.435e-6
-1.046, 2.514e-6
-1.047, 2.504e-6
-1.048, 2.534e-6
-1.049, 2.691e-6
-1.050, 2.741e-6
-1.051, 2.820e-6
-1.052, 2.731e-6
-1.053, 2.760e-6
-1.054, 2.849e-6
-1.055, 2.889e-6
-1.056, 3.047e-6
-1.057, 2.908e-6
-1.058, 2.948e-6
-1.059, 3.086e-6
-1.060, 2.997e-6
-1.061, 3.126e-6
-1.062, 2.938e-6
-1.063, 3.135e-6
-1.064, 3.155e-6
-1.065, 3.214e-6
-1.066, 3.204e-6
-1.067, 3.037e-6
-1.068, 3.195e-6
-1.069, 3.234e-6
-1.070, 3.303e-6
-1.071, 3.343e-6
-1.072, 3.234e-6
-1.073, 3.126e-6
-1.074, 3.343e-6
-1.075, 3.343e-6
-1.076, 3.491e-6
-1.077, 3.362e-6
-1.078, 3.362e-6
-1.079, 3.343e-6
-1.080, 3.382e-6
-1.081, 3.510e-6
-1.082, 3.402e-6
-1.083, 3.362e-6
-1.084, 3.382e-6
-1.085, 3.451e-6
-1.086, 3.422e-6
-1.087, 3.293e-6
-1.088, 3.500e-6
-1.089, 3.392e-6
-1.090, 3.520e-6
-1.091, 3.540e-6
-1.092, 3.441e-6
-1.093, 3.500e-6
-1.094, 3.520e-6
-1.095, 3.481e-6
-1.096, 3.570e-6
-1.097, 3.422e-6
-1.098, 3.451e-6
-1.099, 3.392e-6
-1.100, 3.352e-6
-1.101, 3.609e-6
-1.102, 3.441e-6
-1.103, 3.520e-6
-1.104, 3.520e-6
-1.105, 3.461e-6
-1.106, 3.570e-6
-1.107, 3.500e-6
-1.108, 3.471e-6
-1.109, 3.530e-6
-1.110, 3.540e-6
-1.111, 3.579e-6
-1.112, 3.431e-6
-1.113, 3.471e-6
-1.114, 3.599e-6
-1.115, 3.481e-6
-1.116, 3.550e-6
-1.117, 3.481e-6
-1.118, 3.550e-6
-1.119, 3.579e-6
-1.120, 3.510e-6
-1.121, 3.540e-6
-1.122, 3.530e-6
-1.123, 3.431e-6
-1.124, 3.520e-6
-1.125, 3.599e-6
-1.126, 3.639e-6
-1.127, 3.589e-6
-1.128, 3.500e-6
-1.129, 3.609e-6
-1.130, 3.550e-6
-1.131, 3.619e-6
-1.132, 3.599e-6
-1.133, 3.579e-6
-1.134, 3.658e-6
-1.135, 3.639e-6
-1.136, 3.530e-6
-1.137, 3.510e-6
-1.138, 3.471e-6
-1.139, 3.658e-6
-1.140, 3.629e-6
-1.141, 3.648e-6
-1.142, 3.570e-6
-1.143, 3.560e-6
-1.144, 3.560e-6
-1.145, 3.579e-6
-1.146, 3.678e-6
-1.147, 3.540e-6
-1.148, 3.619e-6
-1.149, 3.599e-6
-1.150, 3.520e-6
-1.151, 3.619e-6
-1.152, 3.570e-6
-1.153, 3.619e-6
-1.154, 3.698e-6
-1.155, 3.609e-6
-1.156, 3.629e-6
-1.157, 3.530e-6
-1.158, 3.579e-6
-1.159, 3.560e-6
-1.160, 3.589e-6
-1.161, 3.629e-6
-1.162, 3.599e-6
-1.163, 3.609e-6
-1.164, 3.510e-6
-1.165, 3.619e-6
-1.166, 3.708e-6
-1.167, 3.609e-6
-1.168, 3.619e-6
-1.169, 3.560e-6
-1.170, 3.639e-6
-1.171, 3.658e-6
-1.172, 3.658e-6
-1.173, 3.639e-6
-1.174, 3.619e-6
-1.175, 3.806e-6
-1.176, 3.658e-6
-1.177, 3.550e-6
-1.178, 3.708e-6
-1.179, 3.787e-6
-1.180, 3.688e-6
-1.181, 3.737e-6
-1.182, 3.757e-6
-1.183, 3.737e-6
-1.184, 3.816e-6
-1.185, 3.787e-6
-1.186, 3.836e-6
-1.187, 3.757e-6
-1.188, 3.826e-6
-1.189, 3.767e-6
-1.190, 3.875e-6
-1.191, 3.846e-6
-1.192, 3.836e-6
-1.193, 3.865e-6
-1.194, 3.796e-6
-1.195, 3.895e-6
-1.196, 3.905e-6
-1.197, 3.875e-6
-1.198, 3.875e-6
-1.199, 3.954e-6
-1.200, 3.905e-6
-1.201, 3.935e-6
-1.202, 3.856e-6
-1.203, 3.915e-6
-1.204, 3.994e-6
-1.205, 4.053e-6
-1.206, 3.994e-6
-1.207, 4.004e-6
-1.208, 4.023e-6
-1.209, 4.132e-6
-1.210, 4.132e-6
-1.211, 4.013e-6
-1.212, 4.023e-6
-1.213, 4.102e-6
-1.214, 4.171e-6
-1.215, 4.122e-6
-1.216, 4.142e-6
-1.217, 4.122e-6
-1.218, 4.191e-6
-1.219, 4.073e-6
-1.220, 4.122e-6
-1.221, 4.211e-6
-1.222, 4.290e-6
-1.223, 4.181e-6
-1.224, 4.280e-6
-1.225, 4.329e-6
-1.226, 4.300e-6
-1.227, 4.240e-6
-1.228, 4.240e-6
-1.229, 4.467e-6
-1.230, 4.418e-6
-1.231, 4.448e-6
-1.232, 4.448e-6
-1.233, 4.467e-6
-1.234, 4.694e-6
-1.235, 4.556e-6
-1.236, 4.684e-6
-1.237, 4.605e-6
-1.238, 4.596e-6
-1.239, 4.793e-6
-1.240, 4.813e-6
-1.241, 4.744e-6
-1.242, 4.724e-6
-1.243, 4.931e-6
-1.244, 4.921e-6
-1.245, 4.901e-6
-1.246, 4.882e-6
-1.247, 4.892e-6
-1.248, 5.010e-6
-1.249, 5.079e-6
-1.250, 4.990e-6
-1.251, 5.059e-6
-1.252, 4.970e-6
-1.253, 5.138e-6
-1.254, 5.158e-6
-1.255, 5.247e-6
-1.256, 5.168e-6
-1.257, 5.336e-6
-1.258, 5.345e-6
-1.259, 5.336e-6
-1.260, 5.385e-6
-1.261, 5.454e-6
-1.262, 5.434e-6
-1.263, 5.493e-6
-1.264, 5.523e-6
-1.265, 5.562e-6
-1.266, 5.533e-6
-1.267, 5.533e-6
-1.268, 5.641e-6
-1.269, 5.661e-6
-1.270, 5.799e-6
-1.271, 5.710e-6
-1.272, 5.701e-6
-1.273, 5.839e-6
-1.274, 5.937e-6
-1.275, 5.888e-6
-1.276, 5.908e-6
-1.277, 5.957e-6
-1.278, 6.006e-6
-1.279, 6.085e-6
-1.280, 6.184e-6
-1.281, 6.204e-6
-1.282, 6.223e-6
-1.283, 6.332e-6
-1.284, 6.391e-6
-1.285, 6.500e-6
-1.286, 6.579e-6
-1.287, 6.490e-6
-1.288, 6.648e-6
-1.289, 6.658e-6
-1.290, 6.766e-6
-1.291, 6.815e-6
-1.292, 6.697e-6
-1.293, 6.884e-6
-1.294, 6.944e-6
-1.295, 7.062e-6
-1.296, 7.042e-6
-1.297, 7.023e-6
-1.298, 7.131e-6
-1.299, 7.250e-6
-1.300, 7.338e-6
-1.301, 7.467e-6
-1.302, 7.447e-6
-1.303, 7.526e-6
-1.304, 7.595e-6
-1.305, 7.624e-6
-1.306, 7.772e-6
-1.307, 7.792e-6
-1.308, 7.881e-6
-1.309, 7.989e-6
-1.310, 7.999e-6
-1.311, 8.039e-6
-1.312, 8.108e-6
-1.313, 8.216e-6
-1.314, 8.345e-6
-1.315, 8.414e-6
-1.316, 8.473e-6
-1.317, 8.374e-6
-1.318, 8.729e-6
-1.319, 8.680e-6
-1.320, 8.789e-6
-1.321, 8.818e-6
-1.322, 8.828e-6
-1.323, 8.986e-6
-1.324, 8.976e-6
-1.325, 9.163e-6
-1.326, 9.223e-6
-1.327, 9.193e-6
-1.328, 9.361e-6
-1.329, 9.479e-6
-1.330, 9.607e-6
-1.331, 9.598e-6
-1.332, 9.746e-6
-1.333, 9.953e-6
-1.334, 1.010e-5
-1.335, 1.025e-5
-1.336, 1.012e-5
-1.337, 1.027e-5
-1.338, 1.040e-5
-1.339, 1.050e-5
-1.340, 1.065e-5
-1.341, 1.067e-5
-1.342, 1.079e-5
-1.343, 1.099e-5
-1.344, 1.117e-5
-1.345, 1.130e-5
-1.346, 1.118e-5
-1.347, 1.147e-5
-1.348, 1.156e-5
-1.349, 1.169e-5
-1.350, 1.181e-5
-1.351, 1.186e-5
-1.352, 1.197e-5
-1.353, 1.214e-5
-1.354, 1.221e-5
-1.355, 1.242e-5
-1.356, 1.239e-5
-1.357, 1.273e-5
-1.358, 1.276e-5
-1.359, 1.286e-5
-1.360, 1.315e-5
-1.361, 1.310e-5
-1.362, 1.327e-5
-1.363, 1.340e-5
-1.364, 1.366e-5
-1.365, 1.378e-5
-1.366, 1.376e-5
-1.367, 1.394e-5
-1.368, 1.404e-5
-1.369, 1.418e-5
-1.370, 1.444e-5
-1.371, 1.437e-5
-1.372, 1.472e-5
-1.373, 1.484e-5
-1.374, 1.493e-5
-1.375, 1.514e-5
-1.376, 1.515e-5
-1.377, 1.534e-5
-1.378, 1.565e-5
-1.379, 1.563e-5
-1.380, 1.592e-5
-1.381, 1.597e-5
-1.382, 1.614e-5
-1.383, 1.640e-5
-1.384, 1.652e-5
-1.385, 1.665e-5
-1.386, 1.687e-5
-1.387, 1.697e-5
-1.388, 1.715e-5
-1.389, 1.738e-5
-1.390, 1.758e-5
-1.391, 1.768e-5
-1.392, 1.778e-5
-1.393, 1.807e-5
-1.394, 1.818e-5
-1.395, 1.845e-5
-1.396, 1.854e-5
-1.397, 1.869e-5
-1.398, 1.899e-5
-1.399, 1.909e-5
-1.400, 1.927e-5
-1.401, 1.942e-5
-1.402, 1.966e-5
-1.403, 1.982e-5
-1.404, 2.001e-5
-1.405, 2.015e-5
-1.406, 2.032e-5
-1.407, 2.048e-5
-1.408, 2.081e-5
-1.409, 2.106e-5
-1.410, 2.122e-5
-1.411, 2.141e-5
-1.412, 2.156e-5
-1.413, 2.174e-5
-1.414, 2.200e-5
-1.415, 2.226e-5
-1.416, 2.230e-5
-1.417, 2.252e-5
-1.418, 2.279e-5
-1.419, 2.297e-5
-1.420, 2.315e-5
-1.421, 2.339e-5
-1.422, 2.363e-5
-1.423, 2.375e-5
-1.424, 2.399e-5
-1.425, 2.432e-5
-1.426, 2.444e-5
-1.427, 2.471e-5
-1.428, 2.484e-5
-1.429, 2.524e-5
-1.430, 2.536e-5
-1.431, 2.558e-5
-1.432, 2.576e-5
-1.433, 2.608e-5
-1.434, 2.637e-5
-1.435, 2.664e-5
-1.436, 2.689e-5
-1.437, 2.715e-5
-1.438, 2.741e-5
-1.439, 2.765e-5
-1.440, 2.791e-5
-1.441, 2.809e-5
-1.442, 2.836e-5
-1.443, 2.869e-5
-1.444, 2.901e-5
-1.445, 2.918e-5
-1.446, 2.949e-5
-1.447, 2.975e-5
-1.448, 3.002e-5
-1.449, 3.032e-5
-1.450, 3.058e-5
-1.451, 3.087e-5
-1.452, 3.113e-5
-1.453, 3.148e-5
-1.454, 3.171e-5
-1.455, 3.211e-5
-1.456, 3.231e-5
-1.457, 3.257e-5
-1.458, 3.280e-5
-1.459, 3.328e-5
-1.460, 3.355e-5
-1.461, 3.394e-5
-1.462, 3.412e-5
-1.463, 3.452e-5
-1.464, 3.483e-5
-1.465, 3.525e-5
-1.466, 3.545e-5
-1.467, 3.584e-5
-1.468, 3.614e-5
-1.469, 3.651e-5
-1.470, 3.681e-5
-1.471, 3.720e-5
-1.472, 3.770e-5
-1.473, 3.799e-5
-1.474, 3.836e-5
-1.475, 3.868e-5
-1.476, 3.909e-5
-1.477, 3.945e-5
-1.478, 4.000e-5
-1.479, 4.038e-5
-1.480, 4.075e-5
-1.481, 4.117e-5
-1.482, 4.154e-5
-1.483, 4.199e-5
-1.484, 4.239e-5
-1.485, 4.303e-5
-1.486, 4.332e-5
-1.487, 4.388e-5
-1.488, 4.446e-5
-1.489, 4.483e-5
-1.490, 4.536e-5
-1.491, 4.579e-5
-1.492, 4.624e-5
-1.493, 4.690e-5
-1.494, 4.734e-5
-1.495, 4.795e-5
-1.496, 4.841e-5
-1.497, 4.898e-5
-1.498, 4.969e-5
-1.499, 5.011e-5
-1.500, 5.070e-5
-1.501, 5.121e-5
-1.502, 5.186e-5
-1.503, 5.257e-5
-1.504, 5.316e-5
-1.505, 5.378e-5
-1.506, 5.441e-5
-1.507, 5.505e-5
-1.508, 5.580e-5
-1.509, 5.639e-5
-1.510, 5.720e-5
-1.511, 5.791e-5
-1.512, 5.863e-5
-1.513, 5.930e-5
-1.514, 6.013e-5
-1.515, 6.085e-5
-1.516, 6.169e-5
-1.517, 6.249e-5
-1.518, 6.329e-5
-1.519, 6.408e-5
-1.520, 6.488e-5
-1.521, 6.577e-5
-1.522, 6.658e-5
-1.523, 6.748e-5
-1.524, 6.856e-5
-1.525, 6.942e-5
-1.526, 7.024e-5
-1.527, 7.134e-5
-1.528, 7.229e-5
-1.529, 7.333e-5
-1.530, 7.428e-5
-1.531, 7.535e-5
-1.532, 7.655e-5
-1.533, 7.755e-5
-1.534, 7.872e-5
-1.535, 7.993e-5
-1.536, 8.110e-5
-1.537, 8.239e-5
-1.538, 8.352e-5
-1.539, 8.488e-5
-1.540, 8.622e-5
-1.541, 8.756e-5
-1.542, 8.888e-5
-1.543, 9.035e-5
-1.544, 9.173e-5
-1.545, 9.315e-5
-1.546, 9.464e-5
-1.547, 9.627e-5
-1.548, 9.780e-5
-1.549, 9.948e-5
-1.550, 1.011e-4
-1.551, 1.027e-4
-1.552, 1.044e-4
-1.553, 1.062e-4
-1.554, 1.080e-4
-1.555, 1.099e-4
-1.556, 1.118e-4
-1.557, 1.138e-4
-1.558, 1.158e-4
-1.559, 1.179e-4
-1.560, 1.201e-4
-1.561, 1.220e-4
-1.562, 1.243e-4
-1.563, 1.266e-4
-1.564, 1.290e-4
-1.565, 1.314e-4
-1.566, 1.338e-4
-1.567, 1.363e-4
-1.568, 1.390e-4
-1.569, 1.415e-4
-1.570, 1.442e-4
-1.571, 1.470e-4
-1.572, 1.498e-4
-1.573, 1.528e-4
-1.574, 1.558e-4
-1.575, 1.588e-4
-1.576, 1.619e-4
-1.577, 1.652e-4
-1.578, 1.686e-4
-1.579, 1.720e-4
-1.580, 1.756e-4
-1.581, 1.790e-4
-1.582, 1.828e-4
-1.583, 1.865e-4
-1.584, 1.905e-4
-1.585, 1.942e-4
-1.586, 1.981e-4
-1.587, 2.025e-4
-1.588, 2.067e-4
-1.589, 2.112e-4
-1.590, 2.156e-4
-1.591, 2.201e-4
-1.592, 2.249e-4
-1.593, 2.299e-4
-1.594, 2.350e-4
-1.595, 2.399e-4
-1.596, 2.451e-4
-1.597, 2.506e-4
-1.598, 2.560e-4
-1.599, 2.617e-4
-1.600, 2.675e-4
-1.601, 2.735e-4
-1.602, 2.797e-4
-1.603, 2.861e-4
-1.604, 2.925e-4
-1.605, 2.990e-4
-1.606, 3.058e-4
-1.607, 3.129e-4
-1.608, 3.201e-4
-1.609, 3.274e-4
-1.610, 3.347e-4
-1.611, 3.421e-4
-1.612, 3.501e-4
-1.613, 3.581e-4
-1.614, 3.664e-4
-1.615, 3.749e-4
-1.616, 3.836e-4
-1.617, 3.924e-4
-1.618, 4.014e-4
-1.619, 4.109e-4
-1.620, 4.206e-4
-1.621, 4.304e-4
-1.622, 4.403e-4
-1.623, 4.505e-4
-1.624, 4.611e-4
-1.625, 4.719e-4
-1.626, 4.828e-4
-1.627, 4.937e-4
-1.628, 5.051e-4
-1.629, 5.171e-4
-1.630, 5.286e-4
-1.631, 5.409e-4
-1.632, 5.535e-4
-1.633, 5.665e-4
-1.634, 5.798e-4
-1.635, 5.931e-4
-1.636, 6.071e-4
-1.637, 6.208e-4
-1.638, 6.351e-4
-1.639, 6.495e-4
-1.640, 6.642e-4
-1.641, 6.799e-4
-1.642, 6.955e-4
-1.643, 7.112e-4
-1.644, 7.277e-4
-1.645, 7.449e-4
-1.646, 7.627e-4
-1.647, 7.801e-4
-1.648, 7.975e-4
-1.649, 8.154e-4
-1.650, 8.338e-4
-1.651, 8.529e-4
-1.652, 8.725e-4
-1.653, 8.912e-4
-1.654, 9.104e-4
-1.655, 9.296e-4
-1.656, 9.496e-4
-1.657, 9.709e-4
-1.658, 9.924e-4
-1.659, 1.013e-3
-1.660, 1.036e-3
-1.661, 1.058e-3
-1.662, 1.082e-3
-1.663, 1.106e-3
-1.664, 1.129e-3
-1.665, 1.153e-3
-1.666, 1.178e-3
-1.667, 1.201e-3
-1.668, 1.225e-3
-1.669, 1.250e-3
-1.670, 1.276e-3
-1.671, 1.303e-3
-1.672, 1.329e-3
-1.673, 1.354e-3
-1.674, 1.380e-3
-1.675, 1.408e-3
-1.676, 1.435e-3
-1.677, 1.464e-3
-1.678, 1.493e-3
-1.679, 1.523e-3
-1.680, 1.554e-3
-1.681, 1.587e-3
-1.682, 1.620e-3
-1.683, 1.652e-3
-1.684, 1.682e-3
-1.685, 1.712e-3
-1.686, 1.744e-3
-1.687, 1.778e-3
-1.688, 1.811e-3
-1.689, 1.845e-3
-1.690, 1.880e-3
-1.691, 1.915e-3
-1.692, 1.948e-3
-1.693, 1.983e-3
-1.694, 2.016e-3
-1.695, 2.051e-3
-1.696, 2.089e-3
-1.697, 2.126e-3
-1.698, 2.162e-3
-1.699, 2.200e-3
-1.700, 2.240e-3
-1.701, 2.273e-3
-1.702, 2.308e-3
-1.703, 2.343e-3
-1.704, 2.384e-3
-1.705, 2.423e-3
-1.706, 2.460e-3
-1.707, 2.502e-3
-1.708, 2.548e-3
-1.709, 2.593e-3
-1.710, 2.636e-3
-1.711, 2.674e-3
-1.712, 2.716e-3
-1.713, 2.758e-3
-1.714, 2.796e-3
-1.715, 2.839e-3
-1.716, 2.885e-3
-1.717, 2.931e-3
-1.718, 2.978e-3
-1.719, 3.020e-3
-1.720, 3.061e-3
-1.721, 3.106e-3
-1.722, 3.153e-3
-1.723, 3.200e-3
-1.724, 3.243e-3
-1.725, 3.288e-3
-1.726, 3.338e-3
-1.727, 3.391e-3
-1.728, 3.441e-3
-1.729, 3.487e-3
-1.730, 3.517e-3
-1.731, 3.561e-3
-1.732, 3.606e-3
-1.733, 3.659e-3
-1.734, 3.716e-3
-1.735, 3.761e-3
-1.736, 3.805e-3
-1.737, 3.860e-3
-1.738, 3.923e-3
-1.739, 3.976e-3
-1.740, 4.021e-3
-1.741, 4.071e-3
-1.742, 4.122e-3
-1.743, 4.175e-3
-1.744, 4.228e-3
-1.745, 4.283e-3
-1.746, 4.330e-3
-1.747, 4.381e-3
-1.748, 4.441e-3
-1.749, 4.498e-3
-1.750, 4.545e-3
-1.751, 4.594e-3
-1.752, 4.656e-3
-1.753, 4.728e-3
-1.754, 4.786e-3
-1.755, 4.837e-3
-1.756, 4.886e-3
-1.757, 4.949e-3
-1.758, 5.004e-3
-1.759, 5.054e-3
-1.760, 5.126e-3
-1.761, 5.136e-3
-1.762, 5.177e-3
-1.763, 5.234e-3
-1.764, 5.285e-3
-1.765, 5.345e-3
-1.766, 5.401e-3
-1.767, 5.461e-3
-1.768, 5.533e-3
-1.769, 5.595e-3
-1.770, 5.659e-3
-1.771, 5.716e-3
-1.772, 5.774e-3
-1.773, 5.830e-3
-1.774, 5.868e-3
-1.775, 5.916e-3
-1.776, 5.984e-3
-1.777, 6.059e-3
-1.778, 6.125e-3
-1.779, 6.173e-3
-1.780, 6.224e-3
-1.781, 6.287e-3
-1.782, 6.341e-3
-1.783, 6.399e-3
-1.784, 6.453e-3
-1.785, 6.504e-3
-1.786, 6.559e-3
-1.787, 6.618e-3
-1.788, 6.689e-3
-1.789, 6.760e-3
-1.790, 6.796e-3
-1.791, 6.837e-3
-1.792, 6.873e-3
-1.793, 6.933e-3
-1.794, 6.999e-3
-1.795, 7.056e-3
-1.796, 7.116e-3
-1.797, 7.183e-3
-1.798, 7.255e-3
-1.799, 7.319e-3
-1.800, 7.326e-3
-1.799, 7.294e-3
-1.798, 7.244e-3
-1.797, 7.193e-3
-1.796, 7.152e-3
-1.795, 7.103e-3
-1.794, 7.053e-3
-1.793, 6.994e-3
-1.792, 6.947e-3
-1.791, 6.868e-3
-1.790, 6.803e-3
-1.789, 6.763e-3
-1.788, 6.712e-3
-1.787, 6.665e-3
-1.786, 6.623e-3
-1.785, 6.585e-3
-1.784, 6.537e-3
-1.783, 6.484e-3
-1.782, 6.439e-3
-1.781, 6.382e-3
-1.780, 6.311e-3
-1.779, 6.259e-3
-1.778, 6.194e-3
-1.777, 6.148e-3
-1.776, 6.123e-3
-1.775, 6.086e-3
-1.774, 6.026e-3
-1.773, 5.985e-3
-1.772, 5.956e-3
-1.771, 5.912e-3
-1.770, 5.853e-3
-1.769, 5.811e-3
-1.768, 5.763e-3
-1.767, 5.718e-3
-1.766, 5.646e-3
-1.765, 5.589e-3
-1.764, 5.557e-3
-1.763, 5.527e-3
-1.762, 5.481e-3
-1.761, 5.436e-3
-1.760, 5.407e-3
-1.759, 5.366e-3
-1.758, 5.313e-3
-1.757, 5.259e-3
-1.756, 5.221e-3
-1.755, 5.180e-3
-1.754, 5.139e-3
-1.753, 5.089e-3
-1.752, 5.037e-3
-1.751, 4.994e-3
-1.750, 4.957e-3
-1.749, 4.913e-3
-1.748, 4.872e-3
-1.747, 4.826e-3
-1.746, 4.789e-3
-1.745, 4.763e-3
-1.744, 4.718e-3
-1.743, 4.671e-3
-1.742, 4.646e-3
-1.741, 4.614e-3
-1.740, 4.577e-3
-1.739, 4.533e-3
-1.738, 4.487e-3
-1.737, 4.427e-3
-1.736, 4.363e-3
-1.735, 4.332e-3
-1.734, 4.288e-3
-1.733, 4.255e-3
-1.732, 4.222e-3
-1.731, 4.178e-3
-1.730, 4.149e-3
-1.729, 4.105e-3
-1.728, 4.061e-3
-1.727, 4.005e-3
-1.726, 3.962e-3
-1.725, 3.924e-3
-1.724, 3.887e-3
-1.723, 3.849e-3
-1.722, 3.818e-3
-1.721, 3.782e-3
-1.720, 3.746e-3
-1.719, 3.709e-3
-1.718, 3.667e-3
-1.717, 3.638e-3
-1.716, 3.599e-3
-1.715, 3.559e-3
-1.714, 3.527e-3
-1.713, 3.490e-3
-1.712, 3.447e-3
-1.711, 3.428e-3
-1.710, 3.400e-3
-1.709, 3.364e-3
-1.708, 3.326e-3
-1.707, 3.290e-3
-1.706, 3.259e-3
-1.705, 3.221e-3
-1.704, 3.189e-3
-1.703, 3.149e-3
-1.702, 3.109e-3
-1.701, 3.075e-3
-1.700, 3.034e-3
-1.699, 2.999e-3
-1.698, 2.977e-3
-1.697, 2.946e-3
-1.696, 2.912e-3
-1.695, 2.879e-3
-1.694, 2.848e-3
-1.693, 2.812e-3
-1.692, 2.777e-3
-1.691, 2.745e-3
-1.690, 2.712e-3
-1.689, 2.682e-3
-1.688, 2.646e-3
-1.687, 2.611e-3
-1.686, 2.586e-3
-1.685, 2.558e-3
-1.684, 2.532e-3
-1.683, 2.501e-3
-1.682, 2.469e-3
-1.681, 2.438e-3
-1.680, 2.407e-3
-1.679, 2.378e-3
-1.678, 2.350e-3
-1.677, 2.318e-3
-1.676, 2.284e-3
-1.675, 2.257e-3
-1.674, 2.232e-3
-1.673, 2.218e-3
-1.672, 2.192e-3
-1.671, 2.160e-3
-1.670, 2.131e-3
-1.669, 2.102e-3
-1.668, 2.073e-3
-1.667, 2.046e-3
-1.666, 2.019e-3
-1.665, 1.993e-3
-1.664, 1.963e-3
-1.663, 1.937e-3
-1.662, 1.905e-3
-1.661, 1.878e-3
-1.660, 1.859e-3
-1.659, 1.836e-3
-1.658, 1.811e-3
-1.657, 1.786e-3
-1.656, 1.763e-3
-1.655, 1.738e-3
-1.654, 1.715e-3
-1.653, 1.690e-3
-1.652, 1.666e-3
-1.651, 1.643e-3
-1.650, 1.620e-3
-1.649, 1.599e-3
-1.648, 1.576e-3
-1.647, 1.552e-3
-1.646, 1.527e-3
-1.645, 1.508e-3
-1.644, 1.486e-3
-1.643, 1.465e-3
-1.642, 1.445e-3
-1.641, 1.425e-3
-1.640, 1.405e-3
-1.639, 1.384e-3
-1.638, 1.363e-3
-1.637, 1.343e-3
-1.636, 1.322e-3
-1.635, 1.303e-3
-1.634, 1.284e-3
-1.633, 1.266e-3
-1.632, 1.247e-3
-1.631, 1.228e-3
-1.630, 1.209e-3
-1.629, 1.191e-3
-1.628, 1.171e-3
-1.627, 1.151e-3
-1.626, 1.134e-3
-1.625, 1.115e-3
-1.624, 1.098e-3
-1.623, 1.082e-3
-1.622, 1.066e-3
-1.621, 1.050e-3
-1.620, 1.034e-3
-1.619, 1.017e-3
-1.618, 1.002e-3
-1.617, 9.858e-4
-1.616, 9.694e-4
-1.615, 9.543e-4
-1.614, 9.402e-4
-1.613, 9.252e-4
-1.612, 9.100e-4
-1.611, 8.954e-4
-1.610, 8.806e-4
-1.609, 8.661e-4
-1.608, 8.523e-4
-1.607, 8.392e-4
-1.606, 8.252e-4
-1.605, 8.119e-4
-1.604, 7.988e-4
-1.603, 7.855e-4
-1.602, 7.729e-4
-1.601, 7.605e-4
-1.600, 7.475e-4
-1.599, 7.352e-4
-1.598, 7.231e-4
-1.597, 7.107e-4
-1.596, 6.980e-4
-1.595, 6.863e-4
-1.594, 6.746e-4
-1.593, 6.637e-4
-1.592, 6.528e-4
-1.591, 6.415e-4
-1.590, 6.306e-4
-1.589, 6.203e-4
-1.588, 6.100e-4
-1.587, 5.998e-4
-1.586, 5.894e-4
-1.585, 5.792e-4
-1.584, 5.706e-4
-1.583, 5.610e-4
-1.582, 5.512e-4
-1.581, 5.417e-4
-1.580, 5.321e-4
-1.579, 5.249e-4
-1.578, 5.157e-4
-1.577, 5.069e-4
-1.576, 4.983e-4
-1.575, 4.896e-4
-1.574, 4.811e-4
-1.573, 4.731e-4
-1.572, 4.649e-4
-1.571, 4.568e-4
-1.570, 4.484e-4
-1.569, 4.409e-4
-1.568, 4.329e-4
-1.567, 4.254e-4
-1.566, 4.184e-4
-1.565, 4.114e-4
-1.564, 4.043e-4
-1.563, 3.975e-4
-1.562, 3.907e-4
-1.561, 3.838e-4
-1.560, 3.769e-4
-1.559, 3.702e-4
-1.558, 3.640e-4
-1.557, 3.574e-4
-1.556, 3.509e-4
-1.555, 3.446e-4
-1.554, 3.387e-4
-1.553, 3.327e-4
-1.552, 3.268e-4
-1.551, 3.209e-4
-1.550, 3.152e-4
-1.549, 3.096e-4
-1.548, 3.042e-4
-1.547, 2.990e-4
-1.546, 2.936e-4
-1.545, 2.883e-4
-1.544, 2.831e-4
-1.543, 2.781e-4
-1.542, 2.732e-4
-1.541, 2.683e-4
-1.540, 2.632e-4
-1.539, 2.585e-4
-1.538, 2.540e-4
-1.537, 2.495e-4
-1.536, 2.448e-4
-1.535, 2.405e-4
-1.534, 2.362e-4
-1.533, 2.320e-4
-1.532, 2.279e-4
-1.531, 2.240e-4
-1.530, 2.201e-4
-1.529, 2.163e-4
-1.528, 2.125e-4
-1.527, 2.087e-4
-1.526, 2.048e-4
-1.525, 2.013e-4
-1.524, 1.976e-4
-1.523, 1.940e-4
-1.522, 1.904e-4
-1.521, 1.870e-4
-1.520, 1.836e-4
-1.519, 1.802e-4
-1.518, 1.770e-4
-1.517, 1.738e-4
-1.516, 1.706e-4
-1.515, 1.675e-4
-1.514, 1.644e-4
-1.513, 1.614e-4
-1.512, 1.584e-4
-1.511, 1.555e-4
-1.510, 1.526e-4
-1.509, 1.498e-4
-1.508, 1.470e-4
-1.507, 1.443e-4
-1.506, 1.415e-4
-1.505, 1.389e-4
-1.504, 1.362e-4
-1.503, 1.337e-4
-1.502, 1.313e-4
-1.501, 1.288e-4
-1.500, 1.264e-4
-1.499, 1.242e-4
-1.498, 1.218e-4
-1.497, 1.194e-4
-1.496, 1.172e-4
-1.495, 1.150e-4
-1.494, 1.128e-4
-1.493, 1.109e-4
-1.492, 1.087e-4
-1.491, 1.065e-4
-1.490, 1.045e-4
-1.489, 1.026e-4
-1.488, 1.007e-4
-1.487, 9.871e-5
-1.486, 9.686e-5
-1.485, 9.485e-5
-1.484, 9.316e-5
-1.483, 9.140e-5
-1.482, 8.955e-5
-1.481, 8.778e-5
-1.480, 8.622e-5
-1.479, 8.459e-5
-1.478, 8.277e-5
-1.477, 8.119e-5
-1.476, 7.969e-5
-1.475, 7.803e-5
-1.474, 7.667e-5
-1.473, 7.511e-5
-1.472, 7.352e-5
-1.471, 7.218e-5
-1.470, 7.073e-5
-1.469, 6.937e-5
-1.468, 6.798e-5
-1.467, 6.669e-5
-1.466, 6.536e-5
-1.465, 6.401e-5
-1.464, 6.285e-5
-1.463, 6.154e-5
-1.462, 6.034e-5
-1.461, 5.906e-5
-1.460, 5.793e-5
-1.459, 5.674e-5
-1.458, 5.557e-5
-1.457, 5.446e-5
-1.456, 5.335e-5
-1.455, 5.225e-5
-1.454, 5.124e-5
-1.453, 5.012e-5
-1.452, 4.921e-5
-1.451, 4.809e-5
-1.450, 4.713e-5
-1.449, 4.614e-5
-1.448, 4.519e-5
-1.447, 4.437e-5
-1.446, 4.318e-5
-1.445, 4.250e-5
-1.444, 4.161e-5
-1.443, 4.069e-5
-1.442, 3.971e-5
-1.441, 3.892e-5
-1.440, 3.817e-5
-1.439, 3.740e-5
-1.438, 3.656e-5
-1.437, 3.568e-5
-1.436, 3.495e-5
-1.435, 3.420e-5
-1.434, 3.342e-5
-1.433, 3.254e-5
-1.432, 3.183e-5
-1.431, 3.123e-5
-1.430, 3.046e-5
-1.429, 2.977e-5
-1.428, 2.929e-5
-1.427, 2.850e-5
-1.426, 2.789e-5
-1.425, 2.730e-5
-1.424, 2.663e-5
-1.423, 2.605e-5
-1.422, 2.539e-5
-1.421, 2.482e-5
-1.420, 2.421e-5
-1.419, 2.374e-5
-1.418, 2.320e-5
-1.417, 2.259e-5
-1.416, 2.205e-5
-1.415, 2.163e-5
-1.414, 2.098e-5
-1.413, 2.066e-5
-1.412, 2.015e-5
-1.411, 1.960e-5
-1.410, 1.910e-5
-1.409, 1.868e-5
-1.408, 1.820e-5
-1.407, 1.780e-5
-1.406, 1.728e-5
-1.405, 1.696e-5
-1.404, 1.649e-5
-1.403, 1.614e-5
-1.402, 1.568e-5
-1.401, 1.523e-5
-1.400, 1.505e-5
-1.399, 1.456e-5
-1.398, 1.415e-5
-1.397, 1.378e-5
-1.396, 1.345e-5
-1.395, 1.309e-5
-1.394, 1.276e-5
-1.393, 1.245e-5
-1.392, 1.209e-5
-1.391, 1.180e-5
-1.390, 1.159e-5
-1.389, 1.128e-5
-1.388, 1.096e-5
-1.387, 1.061e-5
-1.386, 1.017e-5
-1.385, 1.005e-5
-1.384, 9.765e-6
-1.383, 9.519e-6
-1.382, 9.203e-6
-1.381, 8.907e-6
-1.380, 8.710e-6
-1.379, 8.483e-6
-1.378, 8.285e-6
-1.377, 7.980e-6
-1.376, 7.723e-6
-1.375, 7.457e-6
-1.374, 7.259e-6
-1.373, 7.062e-6
-1.372, 6.875e-6
-1.371, 6.677e-6
-1.370, 6.460e-6
-1.369, 6.233e-6
-1.368, 6.056e-6
-1.367, 5.898e-6
-1.366, 5.533e-6
-1.365, 5.483e-6
-1.364, 5.365e-6
-1.363, 5.089e-6
-1.362, 4.892e-6
-1.361, 4.763e-6
-1.360, 4.714e-6
-1.359, 4.507e-6
-1.358, 4.388e-6
-1.357, 4.181e-6
-1.356, 3.915e-6
-1.355, 3.806e-6
-1.354, 3.747e-6
-1.353, 3.530e-6
-1.352, 3.481e-6
-1.351, 3.214e-6
-1.350, 3.214e-6
-1.349, 3.027e-6
-1.348, 2.928e-6
-1.347, 2.682e-6
-1.346, 2.524e-6
-1.345, 2.514e-6
-1.344, 2.356e-6
-1.343, 2.366e-6
-1.342, 2.099e-6
-1.341, 1.932e-6
-1.340, 1.932e-6
-1.339, 1.912e-6
-1.338, 1.754e-6
-1.337, 1.567e-6
-1.336, 1.478e-6
-1.335, 1.379e-6
-1.334, 1.369e-6
-1.333, 1.340e-6
-1.332, 1.103e-6
-1.331, 9.649e-7
-1.330, 9.057e-7
-1.329, 8.761e-7
-1.328, 9.156e-7
-1.327, 6.985e-7
-1.326, 5.407e-7
-1.325, 5.505e-7
-1.324, 4.617e-7
-1.323, 5.012e-7
-1.322, 2.249e-7
-1.321, 2.940e-7
-1.320, 2.841e-7
-1.319, 1.657e-7
-1.318, 3.749e-8
-1.317, -5.130e-8
-1.316, -9.077e-8
-1.315, -7.103e-8
-1.314, -1.204e-7
-1.313, -8.090e-8
-1.312, -3.473e-7
-1.311, -4.558e-7
-1.310, -4.558e-7
-1.309, -4.459e-7
-1.308, -4.361e-7
-1.307, -6.630e-7
-1.306, -5.742e-7
-1.305, -6.827e-7
-1.304, -8.406e-7
-1.303, -8.110e-7
-1.302, -9.294e-7
-1.301, -9.688e-7
-1.300, -9.392e-7
-1.299, -1.077e-6
-1.298, -8.998e-7
-1.297, -1.176e-6
-1.296, -1.097e-6
-1.295, -1.176e-6
-1.294, -1.275e-6
-1.293, -1.196e-6
-1.292, -1.433e-6
-1.291, -1.294e-6
-1.290, -1.383e-6
-1.289, -1.452e-6
-1.288, -1.383e-6
-1.287, -1.650e-6
-1.286, -1.620e-6
-1.285, -1.571e-6
-1.284, -1.620e-6
-1.283, -1.620e-6
-1.282, -1.778e-6
-1.281, -1.758e-6
-1.280, -1.936e-6
-1.279, -1.867e-6
-1.278, -1.877e-6
-1.277, -2.064e-6
-1.276, -2.044e-6
-1.275, -2.074e-6
-1.274, -2.143e-6
-1.273, -2.212e-6
-1.272, -2.222e-6
-1.271, -2.261e-6
-1.270, -2.212e-6
-1.269, -2.222e-6
-1.268, -2.202e-6
-1.267, -2.439e-6
-1.266, -2.380e-6
-1.265, -2.449e-6
-1.264, -2.459e-6
-1.263, -2.399e-6
-1.262, -2.449e-6
-1.261, -2.528e-6
-1.260, -2.459e-6
-1.259, -2.557e-6
-1.258, -2.528e-6
-1.257, -2.626e-6
-1.256, -2.666e-6
-1.255, -2.646e-6
-1.254, -2.715e-6
-1.253, -2.656e-6
-1.252, -2.774e-6
-1.251, -2.853e-6
-1.250, -2.784e-6
-1.249, -2.814e-6
-1.248, -2.883e-6
-1.247, -2.962e-6
-1.246, -2.942e-6
-1.245, -2.863e-6
-1.244, -3.011e-6
-1.243, -2.952e-6
-1.242, -3.060e-6
-1.241, -3.179e-6
-1.240, -3.051e-6
-1.239, -3.080e-6
-1.238, -3.149e-6
-1.237, -3.139e-6
-1.236, -3.277e-6
-1.235, -3.277e-6
-1.234, -3.248e-6
-1.233, -3.268e-6
-1.232, -3.347e-6
-1.231, -3.277e-6
-1.230, -3.268e-6
-1.229, -3.406e-6
-1.228, -3.554e-6
-1.227, -3.534e-6
-1.226, -3.524e-6
-1.225, -3.564e-6
-1.224, -3.534e-6
-1.223, -3.573e-6
-1.222, -3.672e-6
-1.221, -3.554e-6
-1.220, -3.781e-6
-1.219, -3.633e-6
-1.218, -3.692e-6
-1.217, -3.810e-6
-1.216, -3.790e-6
-1.215, -3.820e-6
-1.214, -3.879e-6
-1.213, -3.800e-6
-1.212, -3.909e-6
-1.211, -3.860e-6
-1.210, -3.938e-6
-1.209, -3.938e-6
-1.208, -3.929e-6
-1.207, -3.988e-6
-1.206, -4.067e-6
-1.205, -4.017e-6
-1.204, -4.047e-6
-1.203, -4.096e-6
-1.202, -4.156e-6
-1.201, -4.136e-6
-1.200, -4.244e-6
-1.199, -4.195e-6
-1.198, -4.156e-6
-1.197, -4.294e-6
-1.196, -4.274e-6
-1.195, -4.215e-6
-1.194, -4.185e-6
-1.193, -4.274e-6
-1.192, -4.254e-6
-1.191, -4.373e-6
-1.190, -4.343e-6
-1.189, -4.333e-6
-1.188, -4.461e-6
-1.187, -4.501e-6
-1.186, -4.412e-6
-1.185, -4.392e-6
-1.184, -4.402e-6
-1.183, -4.521e-6
-1.182, -4.570e-6
-1.181, -4.511e-6
-1.180, -4.550e-6
-1.179, -4.629e-6
-1.178, -4.540e-6
-1.177, -4.708e-6
-1.176, -4.698e-6
-1.175, -4.698e-6
-1.174, -4.649e-6
-1.173, -4.649e-6
-1.172, -4.738e-6
-1.171, -4.807e-6
-1.170, -4.767e-6
-1.169, -4.757e-6
-1.168, -4.886e-6
-1.167, -4.797e-6
-1.166, -4.925e-6
-1.165, -4.895e-6
-1.164, -4.915e-6
-1.163, -4.895e-6
-1.162, -4.994e-6
-1.161, -4.935e-6
-1.160, -5.024e-6
-1.159, -4.994e-6
-1.158, -5.004e-6
-1.157, -5.152e-6
-1.156, -5.152e-6
-1.155, -5.162e-6
-1.154, -5.152e-6
-1.153, -5.142e-6
-1.152, -5.310e-6
-1.151, -5.339e-6
-1.150, -5.320e-6
-1.149, -5.310e-6
-1.148, -5.399e-6
-1.147, -5.418e-6
-1.146, -5.507e-6
-1.145, -5.418e-6
-1.144, -5.478e-6
-1.143, -5.458e-6
-1.142, -5.695e-6
-1.141, -5.537e-6
-1.140, -5.547e-6
-1.139, -5.655e-6
-1.138, -5.695e-6
-1.137, -5.714e-6
-1.136, -5.774e-6
-1.135, -5.774e-6
-1.134, -5.803e-6
-1.133, -5.902e-6
-1.132, -5.951e-6
-1.131, -5.991e-6
-1.130, -5.951e-6
-1.129, -5.991e-6
-1.128, -6.010e-6
-1.127, -6.148e-6
-1.126, -6.198e-6
-1.125, -6.070e-6
-1.124, -6.208e-6
-1.123, -6.247e-6
-1.122, -6.444e-6
-1.121, -6.444e-6
-1.120, -6.366e-6
-1.119, -6.494e-6
-1.118, -6.494e-6
-1.117, -6.504e-6
-1.116, -6.602e-6
-1.115, -6.573e-6
-1.114, -6.740e-6
-1.113, -6.780e-6
-1.112, -7.007e-6
-1.111, -6.928e-6
-1.110, -6.967e-6
-1.109, -7.046e-6
-1.108, -7.007e-6
-1.107, -7.204e-6
-1.106, -7.342e-6
-1.105, -7.194e-6
-1.104, -7.352e-6
-1.103, -7.401e-6
-1.102, -7.441e-6
-1.101, -7.589e-6
-1.100, -7.628e-6
-1.099, -7.658e-6
-1.098, -7.826e-6
-1.097, -7.855e-6
-1.096, -7.875e-6
-1.095, -7.984e-6
-1.094, -8.102e-6
-1.093, -8.112e-6
-1.092, -8.201e-6
-1.091, -8.319e-6
-1.090, -8.437e-6
-1.089, -8.408e-6
-1.088, -8.645e-6
-1.087, -8.684e-6
-1.086, -8.694e-6
-1.085, -8.832e-6
-1.084, -9.029e-6
-1.083, -9.079e-6
-1.082, -9.246e-6
-1.081, -9.306e-6
-1.080, -9.414e-6
-1.079, -9.404e-6
-1.078, -9.671e-6
-1.077, -9.641e-6
-1.076, -9.769e-6
-1.075, -1.001e-5
-1.074, -1.010e-5
-1.073, -1.017e-5
-1.072, -1.042e-5
-1.071, -1.037e-5
-1.070, -1.058e-5
-1.069, -1.058e-5
-1.068, -1.084e-5
-1.067, -1.096e-5
-1.066, -1.103e-5
-1.065, -1.122e-5
-1.064, -1.122e-5
-1.063, -1.145e-5
-1.062, -1.166e-5
-1.061, -1.177e-5
-1.060, -1.185e-5
-1.059, -1.202e-5
-1.058, -1.210e-5
-1.057, -1.239e-5
-1.056, -1.251e-5
-1.055, -1.261e-5
-1.054, -1.268e-5
-1.053, -1.291e-5
-1.052, -1.312e-5
-1.051, -1.322e-5
-1.050, -1.348e-5
-1.049, -1.356e-5
-1.048, -1.388e-5
-1.047, -1.395e-5
-1.046, -1.414e-5
-1.045, -1.429e-5
-1.044, -1.434e-5
-1.043, -1.457e-5
-1.042, -1.489e-5
-1.041, -1.496e-5
-1.040, -1.519e-5
-1.039, -1.529e-5
-1.038, -1.560e-5
-1.037, -1.584e-5
-1.036, -1.598e-5
-1.035, -1.616e-5
-1.034, -1.636e-5
-1.033, -1.651e-5
-1.032, -1.688e-5
-1.031, -1.696e-5
-1.030, -1.720e-5
-1.029, -1.735e-5
-1.028, -1.761e-5
-1.027, -1.790e-5
-1.026, -1.808e-5
-1.025, -1.828e-5
-1.024, -1.847e-5
-1.023, -1.880e-5
-1.022, -1.908e-5
-1.021, -1.920e-5
-1.020, -1.947e-5
-1.019, -1.965e-5
-1.018, -1.989e-5
-1.017, -2.022e-5
-1.016, -2.033e-5
-1.015, -2.057e-5
-1.014, -2.080e-5
-1.013, -2.106e-5
-1.012, -2.132e-5
-1.011, -2.160e-5
-1.010, -2.176e-5
-1.009, -2.189e-5
-1.008, -2.221e-5
-1.007, -2.248e-5
-1.006, -2.260e-5
-1.005, -2.286e-5
-1.004, -2.301e-5
-1.003, -2.326e-5
-1.002, -2.356e-5
-1.001, -2.370e-5
