Mar. 6, 2025   08:48:16
Cyclic Voltammetry
File: c:/users/guazh/data/banditlqround7_x0exp169_r20_3/2025-03-03-exp886\exp886-2025-03-06t08_42_21-h2koh\exp886_cv_sr_100mvs_efin_-1400mv.bin
Data Source:  Experiment
Instrument Model:  CHI760E
Header: CV ran at 100 mVs
Note: 

Init E (V) = -1
High E (V) = -1
Low E (V) = -1.4
Final E (V) = -1
Init P/N = N
Scan Rate (V/s) = 0.1
Segment = 3
Sample Interval (V) = 0.001
Quiet Time (sec) = 2
Sensitivity (A/V) = 0.01
Comp R (ohm) = 1.2

Results:

Channel 1:
Segment 1:

Segment 2:

Segment 3:

Potential/V, Current/A

-1.000, -5.214e-4
-1.001, -4.225e-4
-1.002, -3.394e-4
-1.003, -2.708e-4
-1.004, -2.054e-4
-1.005, -1.483e-4
-1.006, -9.800e-5
-1.007, -4.657e-5
-1.008, -4.205e-6
-1.009, 4.046e-5
-1.010, 8.090e-5
-1.011, 1.170e-4
-1.012, 1.560e-4
-1.013, 1.887e-4
-1.014, 2.234e-4
-1.015, 2.548e-4
-1.016, 2.830e-4
-1.017, 3.162e-4
-1.018, 3.433e-4
-1.019, 3.726e-4
-1.020, 3.999e-4
-1.021, 4.232e-4
-1.022, 4.517e-4
-1.023, 4.760e-4
-1.024, 5.021e-4
-1.025, 5.261e-4
-1.026, 5.471e-4
-1.027, 5.725e-4
-1.028, 5.945e-4
-1.029, 6.180e-4
-1.030, 6.389e-4
-1.031, 6.583e-4
-1.032, 6.814e-4
-1.033, 7.022e-4
-1.034, 7.247e-4
-1.035, 7.443e-4
-1.036, 7.621e-4
-1.037, 7.838e-4
-1.038, 8.028e-4
-1.039, 8.252e-4
-1.040, 8.430e-4
-1.041, 8.602e-4
-1.042, 8.816e-4
-1.043, 8.994e-4
-1.044, 9.206e-4
-1.045, 9.371e-4
-1.046, 9.536e-4
-1.047, 9.742e-4
-1.048, 9.927e-4
-1.049, 1.013e-3
-1.050, 1.029e-3
-1.051, 1.045e-3
-1.052, 1.066e-3
-1.053, 1.082e-3
-1.054, 1.100e-3
-1.055, 1.117e-3
-1.056, 1.132e-3
-1.057, 1.152e-3
-1.058, 1.170e-3
-1.059, 1.188e-3
-1.060, 1.203e-3
-1.061, 1.215e-3
-1.062, 1.234e-3
-1.063, 1.252e-3
-1.064, 1.270e-3
-1.065, 1.286e-3
-1.066, 1.300e-3
-1.067, 1.319e-3
-1.068, 1.336e-3
-1.069, 1.353e-3
-1.070, 1.367e-3
-1.071, 1.381e-3
-1.072, 1.399e-3
-1.073, 1.416e-3
-1.074, 1.434e-3
-1.075, 1.448e-3
-1.076, 1.462e-3
-1.077, 1.479e-3
-1.078, 1.495e-3
-1.079, 1.513e-3
-1.080, 1.527e-3
-1.081, 1.538e-3
-1.082, 1.556e-3
-1.083, 1.572e-3
-1.084, 1.590e-3
-1.085, 1.602e-3
-1.086, 1.614e-3
-1.087, 1.632e-3
-1.088, 1.648e-3
-1.089, 1.665e-3
-1.090, 1.677e-3
-1.091, 1.688e-3
-1.092, 1.705e-3
-1.093, 1.720e-3
-1.094, 1.736e-3
-1.095, 1.748e-3
-1.096, 1.759e-3
-1.097, 1.776e-3
-1.098, 1.791e-3
-1.099, 1.807e-3
-1.100, 1.817e-3
-1.101, 1.829e-3
-1.102, 1.843e-3
-1.103, 1.858e-3
-1.104, 1.877e-3
-1.105, 1.888e-3
-1.106, 1.897e-3
-1.107, 1.911e-3
-1.108, 1.925e-3
-1.109, 1.941e-3
-1.110, 1.951e-3
-1.111, 1.961e-3
-1.112, 1.976e-3
-1.113, 1.990e-3
-1.114, 2.006e-3
-1.115, 2.016e-3
-1.116, 2.024e-3
-1.117, 2.039e-3
-1.118, 2.052e-3
-1.119, 2.068e-3
-1.120, 2.078e-3
-1.121, 2.087e-3
-1.122, 2.101e-3
-1.123, 2.113e-3
-1.124, 2.131e-3
-1.125, 2.137e-3
-1.126, 2.146e-3
-1.127, 2.160e-3
-1.128, 2.173e-3
-1.129, 2.189e-3
-1.130, 2.197e-3
-1.131, 2.204e-3
-1.132, 2.219e-3
-1.133, 2.231e-3
-1.134, 2.248e-3
-1.135, 2.255e-3
-1.136, 2.263e-3
-1.137, 2.277e-3
-1.138, 2.289e-3
-1.139, 2.303e-3
-1.140, 2.312e-3
-1.141, 2.318e-3
-1.142, 2.332e-3
-1.143, 2.346e-3
-1.144, 2.358e-3
-1.145, 2.365e-3
-1.146, 2.373e-3
-1.147, 2.386e-3
-1.148, 2.400e-3
-1.149, 2.414e-3
-1.150, 2.422e-3
-1.151, 2.429e-3
-1.152, 2.442e-3
-1.153, 2.456e-3
-1.154, 2.469e-3
-1.155, 2.476e-3
-1.156, 2.484e-3
-1.157, 2.496e-3
-1.158, 2.508e-3
-1.159, 2.519e-3
-1.160, 2.528e-3
-1.161, 2.534e-3
-1.162, 2.547e-3
-1.163, 2.561e-3
-1.164, 2.574e-3
-1.165, 2.579e-3
-1.166, 2.585e-3
-1.167, 2.598e-3
-1.168, 2.609e-3
-1.169, 2.623e-3
-1.170, 2.628e-3
-1.171, 2.634e-3
-1.172, 2.650e-3
-1.173, 2.660e-3
-1.174, 2.671e-3
-1.175, 2.676e-3
-1.176, 2.680e-3
-1.177, 2.691e-3
-1.178, 2.706e-3
-1.179, 2.718e-3
-1.180, 2.723e-3
-1.181, 2.724e-3
-1.182, 2.738e-3
-1.183, 2.749e-3
-1.184, 2.759e-3
-1.185, 2.763e-3
-1.186, 2.769e-3
-1.187, 2.778e-3
-1.188, 2.798e-3
-1.189, 2.806e-3
-1.190, 2.809e-3
-1.191, 2.811e-3
-1.192, 2.820e-3
-1.193, 2.830e-3
-1.194, 2.841e-3
-1.195, 2.843e-3
-1.196, 2.846e-3
-1.197, 2.856e-3
-1.198, 2.867e-3
-1.199, 2.876e-3
-1.200, 2.875e-3
-1.201, 2.880e-3
-1.202, 2.888e-3
-1.203, 2.901e-3
-1.204, 2.909e-3
-1.205, 2.909e-3
-1.206, 2.910e-3
-1.207, 2.918e-3
-1.208, 2.926e-3
-1.209, 2.933e-3
-1.210, 2.933e-3
-1.211, 2.936e-3
-1.212, 2.944e-3
-1.213, 2.950e-3
-1.214, 2.957e-3
-1.215, 2.957e-3
-1.216, 2.958e-3
-1.217, 2.963e-3
-1.218, 2.968e-3
-1.219, 2.979e-3
-1.220, 2.977e-3
-1.221, 2.975e-3
-1.222, 2.980e-3
-1.223, 2.984e-3
-1.224, 2.995e-3
-1.225, 2.993e-3
-1.226, 2.989e-3
-1.227, 2.995e-3
-1.228, 2.999e-3
-1.229, 3.009e-3
-1.230, 3.007e-3
-1.231, 3.003e-3
-1.232, 3.007e-3
-1.233, 3.010e-3
-1.234, 3.022e-3
-1.235, 3.018e-3
-1.236, 3.013e-3
-1.237, 3.014e-3
-1.238, 3.015e-3
-1.239, 3.024e-3
-1.240, 3.024e-3
-1.241, 3.019e-3
-1.242, 3.023e-3
-1.243, 3.022e-3
-1.244, 3.033e-3
-1.245, 3.034e-3
-1.246, 3.028e-3
-1.247, 3.029e-3
-1.248, 3.025e-3
-1.249, 3.036e-3
-1.250, 3.034e-3
-1.251, 3.031e-3
-1.252, 3.032e-3
-1.253, 3.032e-3
-1.254, 3.039e-3
-1.255, 3.038e-3
-1.256, 3.033e-3
-1.257, 3.035e-3
-1.258, 3.033e-3
-1.259, 3.042e-3
-1.260, 3.045e-3
-1.261, 3.038e-3
-1.262, 3.041e-3
-1.263, 3.040e-3
-1.264, 3.050e-3
-1.265, 3.051e-3
-1.266, 3.047e-3
-1.267, 3.047e-3
-1.268, 3.047e-3
-1.269, 3.057e-3
-1.270, 3.062e-3
-1.271, 3.059e-3
-1.272, 3.063e-3
-1.273, 3.061e-3
-1.274, 3.068e-3
-1.275, 3.072e-3
-1.276, 3.070e-3
-1.277, 3.071e-3
-1.278, 3.075e-3
-1.279, 3.084e-3
-1.280, 3.092e-3
-1.281, 3.090e-3
-1.282, 3.093e-3
-1.283, 3.092e-3
-1.284, 3.106e-3
-1.285, 3.116e-3
-1.286, 3.113e-3
-1.287, 3.120e-3
-1.288, 3.123e-3
-1.289, 3.132e-3
-1.290, 3.139e-3
-1.291, 3.140e-3
-1.292, 3.148e-3
-1.293, 3.150e-3
-1.294, 3.164e-3
-1.295, 3.171e-3
-1.296, 3.174e-3
-1.297, 3.181e-3
-1.298, 3.187e-3
-1.299, 3.202e-3
-1.300, 3.215e-3
-1.301, 3.217e-3
-1.302, 3.224e-3
-1.303, 3.231e-3
-1.304, 3.248e-3
-1.305, 3.260e-3
-1.306, 3.262e-3
-1.307, 3.274e-3
-1.308, 3.281e-3
-1.309, 3.302e-3
-1.310, 3.315e-3
-1.311, 3.320e-3
-1.312, 3.330e-3
-1.313, 3.340e-3
-1.314, 3.361e-3
-1.315, 3.374e-3
-1.316, 3.379e-3
-1.317, 3.396e-3
-1.318, 3.404e-3
-1.319, 3.429e-3
-1.320, 3.446e-3
-1.321, 3.453e-3
-1.322, 3.466e-3
-1.323, 3.478e-3
-1.324, 3.500e-3
-1.325, 3.522e-3
-1.326, 3.529e-3
-1.327, 3.545e-3
-1.328, 3.557e-3
-1.329, 3.581e-3
-1.330, 3.602e-3
-1.331, 3.610e-3
-1.332, 3.629e-3
-1.333, 3.642e-3
-1.334, 3.670e-3
-1.335, 3.691e-3
-1.336, 3.704e-3
-1.337, 3.723e-3
-1.338, 3.739e-3
-1.339, 3.767e-3
-1.340, 3.786e-3
-1.341, 3.795e-3
-1.342, 3.819e-3
-1.343, 3.837e-3
-1.344, 3.867e-3
-1.345, 3.890e-3
-1.346, 3.902e-3
-1.347, 3.922e-3
-1.348, 3.940e-3
-1.349, 3.975e-3
-1.350, 3.997e-3
-1.351, 4.011e-3
-1.352, 4.033e-3
-1.353, 4.054e-3
-1.354, 4.087e-3
-1.355, 4.109e-3
-1.356, 4.125e-3
-1.357, 4.149e-3
-1.358, 4.169e-3
-1.359, 4.205e-3
-1.360, 4.230e-3
-1.361, 4.243e-3
-1.362, 4.268e-3
-1.363, 4.289e-3
-1.364, 4.327e-3
-1.365, 4.350e-3
-1.366, 4.368e-3
-1.367, 4.393e-3
-1.368, 4.414e-3
-1.369, 4.455e-3
-1.370, 4.477e-3
-1.371, 4.492e-3
-1.372, 4.523e-3
-1.373, 4.546e-3
-1.374, 4.585e-3
-1.375, 4.613e-3
-1.376, 4.627e-3
-1.377, 4.656e-3
-1.378, 4.680e-3
-1.379, 4.722e-3
-1.380, 4.752e-3
-1.381, 4.768e-3
-1.382, 4.796e-3
-1.383, 4.825e-3
-1.384, 4.865e-3
-1.385, 4.893e-3
-1.386, 4.912e-3
-1.387, 4.946e-3
-1.388, 4.971e-3
-1.389, 5.020e-3
-1.390, 5.050e-3
-1.391, 5.069e-3
-1.392, 5.100e-3
-1.393, 5.130e-3
-1.394, 5.175e-3
-1.395, 5.205e-3
-1.396, 5.234e-3
-1.397, 5.265e-3
-1.398, 5.301e-3
-1.399, 5.351e-3
-1.400, 5.276e-3
-1.399, 5.102e-3
-1.398, 4.981e-3
-1.397, 4.873e-3
-1.396, 4.793e-3
-1.395, 4.708e-3
-1.394, 4.617e-3
-1.393, 4.543e-3
-1.392, 4.472e-3
-1.391, 4.416e-3
-1.390, 4.345e-3
-1.389, 4.277e-3
-1.388, 4.216e-3
-1.387, 4.154e-3
-1.386, 4.106e-3
-1.385, 4.044e-3
-1.384, 3.976e-3
-1.383, 3.920e-3
-1.382, 3.863e-3
-1.381, 3.821e-3
-1.380, 3.766e-3
-1.379, 3.706e-3
-1.378, 3.653e-3
-1.377, 3.595e-3
-1.376, 3.559e-3
-1.375, 3.508e-3
-1.374, 3.448e-3
-1.373, 3.400e-3
-1.372, 3.347e-3
-1.371, 3.309e-3
-1.370, 3.259e-3
-1.369, 3.206e-3
-1.368, 3.159e-3
-1.367, 3.107e-3
-1.366, 3.071e-3
-1.365, 3.029e-3
-1.364, 2.976e-3
-1.363, 2.929e-3
-1.362, 2.879e-3
-1.361, 2.840e-3
-1.360, 2.800e-3
-1.359, 2.754e-3
-1.358, 2.712e-3
-1.357, 2.664e-3
-1.356, 2.628e-3
-1.355, 2.590e-3
-1.354, 2.544e-3
-1.353, 2.500e-3
-1.352, 2.454e-3
-1.351, 2.416e-3
-1.350, 2.379e-3
-1.349, 2.335e-3
-1.348, 2.296e-3
-1.347, 2.252e-3
-1.346, 2.217e-3
-1.345, 2.181e-3
-1.344, 2.137e-3
-1.343, 2.098e-3
-1.342, 2.058e-3
-1.341, 2.023e-3
-1.340, 1.991e-3
-1.339, 1.950e-3
-1.338, 1.912e-3
-1.337, 1.872e-3
-1.336, 1.840e-3
-1.335, 1.805e-3
-1.334, 1.765e-3
-1.333, 1.732e-3
-1.332, 1.692e-3
-1.331, 1.663e-3
-1.330, 1.631e-3
-1.329, 1.592e-3
-1.328, 1.559e-3
-1.327, 1.522e-3
-1.326, 1.491e-3
-1.325, 1.461e-3
-1.324, 1.424e-3
-1.323, 1.393e-3
-1.322, 1.358e-3
-1.321, 1.330e-3
-1.320, 1.301e-3
-1.319, 1.265e-3
-1.318, 1.236e-3
-1.317, 1.204e-3
-1.316, 1.178e-3
-1.315, 1.151e-3
-1.314, 1.118e-3
-1.313, 1.089e-3
-1.312, 1.058e-3
-1.311, 1.033e-3
-1.310, 1.006e-3
-1.309, 9.749e-4
-1.308, 9.500e-4
-1.307, 9.193e-4
-1.306, 8.957e-4
-1.305, 8.702e-4
-1.304, 8.411e-4
-1.303, 8.165e-4
-1.302, 7.883e-4
-1.301, 7.661e-4
-1.300, 7.419e-4
-1.299, 7.141e-4
-1.298, 6.917e-4
-1.297, 6.645e-4
-1.296, 6.440e-4
-1.295, 6.205e-4
-1.294, 5.944e-4
-1.293, 5.743e-4
-1.292, 5.481e-4
-1.291, 5.291e-4
-1.290, 5.066e-4
-1.289, 4.814e-4
-1.288, 4.625e-4
-1.287, 4.380e-4
-1.286, 4.196e-4
-1.285, 3.995e-4
-1.284, 3.754e-4
-1.283, 3.580e-4
-1.282, 3.347e-4
-1.281, 3.163e-4
-1.280, 2.962e-4
-1.279, 2.741e-4
-1.278, 2.575e-4
-1.277, 2.361e-4
-1.276, 2.191e-4
-1.275, 2.007e-4
-1.274, 1.801e-4
-1.273, 1.638e-4
-1.272, 1.434e-4
-1.271, 1.270e-4
-1.270, 1.092e-4
-1.269, 8.971e-5
-1.268, 7.487e-5
-1.267, 5.511e-5
-1.266, 3.972e-5
-1.265, 2.166e-5
-1.264, 3.402e-6
-1.263, -1.089e-5
-1.262, -3.000e-5
-1.261, -4.441e-5
-1.260, -6.092e-5
-1.259, -7.857e-5
-1.258, -9.178e-5
-1.257, -1.106e-4
-1.256, -1.240e-4
-1.255, -1.395e-4
-1.254, -1.567e-4
-1.253, -1.688e-4
-1.252, -1.864e-4
-1.251, -1.997e-4
-1.250, -2.146e-4
-1.249, -2.314e-4
-1.248, -2.426e-4
-1.247, -2.597e-4
-1.246, -2.732e-4
-1.245, -2.864e-4
-1.244, -3.024e-4
-1.243, -3.139e-4
-1.242, -3.303e-4
-1.241, -3.440e-4
-1.240, -3.575e-4
-1.239, -3.719e-4
-1.238, -3.814e-4
-1.237, -3.966e-4
-1.236, -4.093e-4
-1.235, -4.230e-4
-1.234, -4.373e-4
-1.233, -4.476e-4
-1.232, -4.623e-4
-1.231, -4.746e-4
-1.230, -4.884e-4
-1.229, -5.040e-4
-1.228, -5.138e-4
-1.227, -5.281e-4
-1.226, -5.393e-4
-1.225, -5.530e-4
-1.224, -5.656e-4
-1.223, -5.743e-4
-1.222, -5.888e-4
-1.221, -6.001e-4
-1.220, -6.127e-4
-1.219, -6.250e-4
-1.218, -6.336e-4
-1.217, -6.486e-4
-1.216, -6.591e-4
-1.215, -6.734e-4
-1.214, -6.858e-4
-1.213, -6.928e-4
-1.212, -7.072e-4
-1.211, -7.174e-4
-1.210, -7.306e-4
-1.209, -7.430e-4
-1.208, -7.499e-4
-1.207, -7.645e-4
-1.206, -7.755e-4
-1.205, -7.883e-4
-1.204, -7.998e-4
-1.203, -8.081e-4
-1.202, -8.208e-4
-1.201, -8.321e-4
-1.200, -8.439e-4
-1.199, -8.568e-4
-1.198, -8.639e-4
-1.197, -8.769e-4
-1.196, -8.879e-4
-1.195, -9.001e-4
-1.194, -9.112e-4
-1.193, -9.186e-4
-1.192, -9.307e-4
-1.191, -9.418e-4
-1.190, -9.550e-4
-1.189, -9.655e-4
-1.188, -9.736e-4
-1.187, -9.859e-4
-1.186, -9.966e-4
-1.185, -1.009e-3
-1.184, -1.020e-3
-1.183, -1.027e-3
-1.182, -1.040e-3
-1.181, -1.050e-3
-1.180, -1.063e-3
-1.179, -1.074e-3
-1.178, -1.081e-3
-1.177, -1.096e-3
-1.176, -1.106e-3
-1.175, -1.116e-3
-1.174, -1.128e-3
-1.173, -1.134e-3
-1.172, -1.148e-3
-1.171, -1.159e-3
-1.170, -1.171e-3
-1.169, -1.183e-3
-1.168, -1.188e-3
-1.167, -1.201e-3
-1.166, -1.213e-3
-1.165, -1.225e-3
-1.164, -1.236e-3
-1.163, -1.244e-3
-1.162, -1.259e-3
-1.161, -1.272e-3
-1.160, -1.282e-3
-1.159, -1.294e-3
-1.158, -1.301e-3
-1.157, -1.314e-3
-1.156, -1.326e-3
-1.155, -1.338e-3
-1.154, -1.350e-3
-1.153, -1.356e-3
-1.152, -1.371e-3
-1.151, -1.382e-3
-1.150, -1.394e-3
-1.149, -1.405e-3
-1.148, -1.415e-3
-1.147, -1.428e-3
-1.146, -1.441e-3
-1.145, -1.454e-3
-1.144, -1.464e-3
-1.143, -1.471e-3
-1.142, -1.484e-3
-1.141, -1.496e-3
-1.140, -1.512e-3
-1.139, -1.523e-3
-1.138, -1.531e-3
-1.137, -1.544e-3
-1.136, -1.556e-3
-1.135, -1.571e-3
-1.134, -1.586e-3
-1.133, -1.593e-3
-1.132, -1.606e-3
-1.131, -1.616e-3
-1.130, -1.632e-3
-1.129, -1.645e-3
-1.128, -1.654e-3
-1.127, -1.669e-3
-1.126, -1.679e-3
-1.125, -1.696e-3
-1.124, -1.710e-3
-1.123, -1.717e-3
-1.122, -1.731e-3
-1.121, -1.742e-3
-1.120, -1.759e-3
-1.119, -1.773e-3
-1.118, -1.780e-3
-1.117, -1.795e-3
-1.116, -1.807e-3
-1.115, -1.824e-3
-1.114, -1.837e-3
-1.113, -1.845e-3
-1.112, -1.861e-3
-1.111, -1.872e-3
-1.110, -1.889e-3
-1.109, -1.901e-3
-1.108, -1.910e-3
-1.107, -1.924e-3
-1.106, -1.935e-3
-1.105, -1.954e-3
-1.104, -1.969e-3
-1.103, -1.975e-3
-1.102, -1.992e-3
-1.101, -2.001e-3
-1.100, -2.021e-3
-1.099, -2.035e-3
-1.098, -2.041e-3
-1.097, -2.057e-3
-1.096, -2.068e-3
-1.095, -2.084e-3
-1.094, -2.100e-3
-1.093, -2.109e-3
-1.092, -2.123e-3
-1.091, -2.132e-3
-1.090, -2.153e-3
-1.089, -2.169e-3
-1.088, -2.174e-3
-1.087, -2.187e-3
-1.086, -2.198e-3
-1.085, -2.215e-3
-1.084, -2.232e-3
-1.083, -2.240e-3
-1.082, -2.254e-3
-1.081, -2.264e-3
-1.080, -2.283e-3
-1.079, -2.297e-3
-1.078, -2.306e-3
-1.077, -2.320e-3
-1.076, -2.331e-3
-1.075, -2.352e-3
-1.074, -2.365e-3
-1.073, -2.370e-3
-1.072, -2.384e-3
-1.071, -2.394e-3
-1.070, -2.412e-3
-1.069, -2.429e-3
-1.068, -2.441e-3
-1.067, -2.452e-3
-1.066, -2.459e-3
-1.065, -2.478e-3
-1.064, -2.496e-3
-1.063, -2.501e-3
-1.062, -2.514e-3
-1.061, -2.524e-3
-1.060, -2.539e-3
-1.059, -2.556e-3
-1.058, -2.564e-3
-1.057, -2.579e-3
-1.056, -2.586e-3
-1.055, -2.606e-3
-1.054, -2.622e-3
-1.053, -2.627e-3
-1.052, -2.641e-3
-1.051, -2.648e-3
-1.050, -2.665e-3
-1.049, -2.684e-3
-1.048, -2.702e-3
-1.047, -2.714e-3
-1.046, -2.722e-3
-1.045, -2.737e-3
-1.044, -2.754e-3
-1.043, -2.758e-3
-1.042, -2.767e-3
-1.041, -2.776e-3
-1.040, -2.792e-3
-1.039, -2.806e-3
-1.038, -2.814e-3
-1.037, -2.823e-3
-1.036, -2.833e-3
-1.035, -2.853e-3
-1.034, -2.865e-3
-1.033, -2.869e-3
-1.032, -2.883e-3
-1.031, -2.893e-3
-1.030, -2.918e-3
-1.029, -2.928e-3
-1.028, -2.933e-3
-1.027, -2.946e-3
-1.026, -2.949e-3
-1.025, -2.968e-3
-1.024, -2.986e-3
-1.023, -2.990e-3
-1.022, -2.999e-3
-1.021, -3.007e-3
-1.020, -3.023e-3
-1.019, -3.038e-3
-1.018, -3.042e-3
-1.017, -3.050e-3
-1.016, -3.057e-3
-1.015, -3.079e-3
-1.014, -3.111e-3
-1.013, -3.115e-3
-1.012, -3.124e-3
-1.011, -3.128e-3
-1.010, -3.143e-3
-1.009, -3.162e-3
-1.008, -3.161e-3
-1.007, -3.170e-3
-1.006, -3.177e-3
-1.005, -3.191e-3
-1.004, -3.209e-3
-1.003, -3.214e-3
-1.002, -3.221e-3
-1.001, -3.228e-3
