Potential V vs RHE, Current mA cm-2
0.013299999999999867,7.49938460058456
0.012299999999999978,5.8427576684426015
0.011299999999999866,4.360140226184043
0.010299999999999976,3.0076762235130676
0.009299999999999864,1.6990682711379093
0.008299999999999974,0.4776065348344364
0.007299999999999862,-0.7437137303390498
0.006299999999999972,-1.92117794521672
0.00529999999999986,-2.968064307116847
0.0042999999999999705,-3.971094618721158
0.0032999999999998586,-4.9302688800296535
0.0022999999999999687,-5.847001802342197
0.0012999999999998568,-6.850032113946507
0.00029999999999996696,-7.7653503249591855
-0.000700000000000145,-8.68208324727173
-0.0017000000000000348,-9.511104068992642
-0.0027000000000001467,-10.296268840417738
-0.0037000000000000366,-11.081433611842833
-0.0047000000000001485,-11.86659838326793
-0.005700000000000038,-12.651763154693022
-0.00670000000000015,-13.436927926118118
-0.00770000000000004,-14.13438059695158
-0.008700000000000152,-14.826174422585586
-0.009700000000000042,-15.491088733522153
-0.010700000000000154,-16.141855931460068
-0.011700000000000044,-16.835064468393938
-0.012700000000000156,-17.4433903273359
-0.013700000000000045,-18.15074597726842
-0.014700000000000157,-18.80151317520634
-0.015700000000000047,-19.367397695152352
-0.01670000000000016,-19.890840876102416
-0.01770000000000005,-20.499166735044383
-0.01870000000000016,-21.107492593986347
-0.01970000000000005,-21.814848243918867
-0.020700000000000163,-22.42317410286083
-0.021700000000000053,-23.031499961802798
-0.022700000000000164,-23.55494314275286
-0.023700000000000054,-24.078386323702922
-0.024700000000000166,-24.601829504652986
-0.025700000000000056,-25.12527268560305
-0.026700000000000168,-25.691157205549064
-0.027700000000000058,-26.257041725495082
-0.02870000000000017,-26.738043567449193
-0.02970000000000006,-27.261486748399253
-0.03070000000000017,-27.742488590353368
-0.03170000000000006,-28.22349043230748
-0.03270000000000017,-28.746933613257543
-0.03370000000000006,-29.27037679420761
-0.034700000000000175,-29.793819975157668
-0.035700000000000065,-30.274821817111786
-0.03670000000000018,-30.7558236590659
-0.03770000000000007,-31.23682550102001
-0.03870000000000018,-31.76026868197007
-0.03970000000000007,-32.368594540912035
-0.04070000000000018,-32.93447906085806
-0.04170000000000007,-33.45792224180811
-0.04270000000000018,-33.89648274476628
-0.04370000000000007,-34.41992592571634
-0.044700000000000184,-34.85848642867451
-0.045700000000000074,-35.32534115762997
-0.046700000000000186,-35.806342999584075
-0.047700000000000076,-36.28734484153819
-0.04870000000000019,-36.768346683492304
-0.04970000000000008,-37.206907186450465
-0.05070000000000019,-37.645467689408626
-0.05170000000000008,-38.16891087035869
-0.05270000000000019,-38.6499127123128
-0.05370000000000008,-39.130914554266916
-0.05470000000000019,-39.61191639622103
-0.05570000000000008,-39.99388844718459
-0.056700000000000195,-40.43244895014274
-0.057700000000000085,-40.91345079209687
-0.058700000000000196,-41.43689397304693
-0.059700000000000086,-42.00277849299294
-0.0607000000000002,-42.568663012938956
-0.06170000000000009,-43.09210619388902
-0.0627000000000002,-43.61554937483908
-0.06370000000000009,-44.054109877797245
-0.0647000000000002,-44.4926703807554
-0.06570000000000009,-44.93123088371356
-0.0667000000000002,-45.36979138667173
-0.0677000000000001,-45.85079322862584
-0.0687000000000002,-46.3176479575813
-0.0697000000000001,-46.75620846053947
-0.07070000000000021,-47.19476896349763
-0.0717000000000001,-47.67577080545174
-0.07270000000000021,-48.156772647405845
-0.0737000000000001,-48.59533315036401
-0.07470000000000021,-49.03389365332217
-0.0757000000000001,-49.50074838227763
-0.07670000000000021,-49.98175022423175
-0.0777000000000001,-50.46275206618586
-0.07870000000000021,-50.98619524713592
-0.0797000000000001,-51.509638428085985
-0.08070000000000022,-52.075522948032
-0.0817000000000001,-52.55652478998611
-0.08270000000000022,-53.03752663194023
-0.08370000000000011,-53.476087134898386
-0.08470000000000022,-53.872206298860604
-0.08570000000000011,-54.31076680181876
-0.08670000000000022,-54.834209982768826
-0.08770000000000011,-55.357653163718886
-0.08870000000000022,-55.7820665536784
-0.08970000000000011,-56.1781857176406
-0.09070000000000022,-56.61674622059877
-0.09170000000000011,-57.05530672355693
-0.09270000000000023,-57.53630856551105
-0.09370000000000012,-58.017310407465146
-0.09470000000000023,-58.498312249419264
-0.09570000000000012,-58.83784296138688
-0.09670000000000023,-59.19152078635314
-0.09770000000000012,-59.6300812893113
-0.09870000000000023,-60.15352447026136
-0.09970000000000012,-60.761850329203334
-0.10070000000000023,-61.37017618814529
-0.10170000000000012,-61.89361936909536
-0.10270000000000024,-62.37462121104946
-0.10370000000000013,-62.855623053003576
-0.10470000000000024,-63.251742216965795
-0.10570000000000013,-63.59127292893339
-0.10670000000000024,-63.98739209289561
-0.10770000000000013,-64.42595259585376
-0.10870000000000024,-64.82207175981598
-0.10970000000000013,-65.2464851497755
-0.11070000000000024,-65.7274869917296
-0.11170000000000013,-66.12360615569182
-0.11270000000000002,-66.56216665864997
-0.11370000000000013,-66.9582858226122
-0.11470000000000002,-67.2978165345798
-0.11570000000000014,-67.73637703753796
-0.11670000000000003,-68.17493754049613
-0.11770000000000014,-68.69838072144618
-0.11870000000000003,-69.1793825634003
-0.11970000000000014,-69.70282574435035
-0.12070000000000003,-70.22626892530042
-0.12170000000000014,-70.70727076725453
-0.12270000000000003,-71.1458312702127
-0.12370000000000014,-71.58439177317086
-0.12470000000000003,-71.92392248513846
-0.12570000000000014,-72.27760031010472
-0.12670000000000003,-72.71616081306288
-0.12770000000000015,-73.09813286402644
-0.12870000000000004,-73.53669336698461
-0.12970000000000015,-73.93281253094682
-0.13070000000000004,-74.32893169490903
-0.13170000000000015,-74.72505085887124
-0.13270000000000004,-75.1070229098348
-0.13370000000000015,-75.50314207379701
-0.13470000000000004,-75.8992612377592
-0.13570000000000015,-76.23879194972683
-0.13670000000000004,-76.5924697746931
-0.13770000000000016,-76.98858893865528
-0.13870000000000005,-77.42714944161345
-0.13970000000000016,-78.03547530055542
-0.14070000000000005,-78.64380115949739
-0.14170000000000016,-79.16724434044745
-0.14270000000000005,-79.52092216541372
-0.14370000000000016,-79.90289421637728
-0.14470000000000005,-80.17168936335163
-0.14570000000000016,-80.46877873632329
-0.14670000000000005,-80.86489790028548
-0.14770000000000016,-81.30345840324367
-0.14870000000000005,-81.74201890620182
-0.14970000000000017,-82.03910827917348
-0.15070000000000006,-82.35034476514379
-0.15170000000000017,-82.746463929106
-0.15270000000000006,-83.18502443206415
-0.15370000000000017,-83.56699648302772
-0.15470000000000006,-83.87823296899803
-0.15570000000000017,-84.18946945496833
-0.15670000000000006,-84.48655882793999
-0.15770000000000017,-84.92511933089816
-0.15870000000000006,-85.40612117285227
-0.15970000000000018,-85.88712301480638
-0.16070000000000007,-86.32568351776455
-0.16170000000000018,-86.7076555687281
-0.16270000000000007,-87.01889205469841
-0.16370000000000018,-87.41501121866061
-0.16470000000000007,-87.71210059163228
-0.16570000000000018,-88.02333707760259
-0.16670000000000007,-88.32042645057423
-0.16770000000000018,-88.63166293654454
-0.16870000000000007,-88.9853407615108
-0.16970000000000018,-89.23998879548651
-0.17070000000000007,-89.59366662045278
-0.17170000000000019,-89.94734444541903
-0.17270000000000008,-90.28687515738663
-0.1737000000000002,-90.6405529823529
-0.17470000000000008,-90.85275967733266
-0.1757000000000002,-91.16399616330297
-0.17670000000000008,-91.56011532726518
-0.1777000000000002,-91.94208737822873
-0.17870000000000008,-92.3806478811869
-0.1797000000000002,-92.90409106213696
-0.18070000000000008,-93.34265156509512
-0.1817000000000002,-93.69632939006138
-0.18270000000000008,-94.07830144102493
-0.1837000000000002,-94.34709658799929
-0.1847000000000001,-94.5168619439831
-0.1857000000000002,-94.7432157519615
-0.1867000000000001,-94.99786378593721
-0.1877000000000002,-95.26665893291157
-0.1887000000000001,-95.52130696688728
-0.1897000000000002,-95.87498479185354
-0.1907000000000001,-96.17207416482519
-0.1917000000000001,-96.4833106507955
-0.19269999999999998,-96.79454713676581
-0.1937000000000001,-97.04919517074151
-0.19469999999999998,-97.13407784873341
-0.1957000000000001,-97.31799031771587
-0.19669999999999999,-97.57263835169158
-0.1977000000000001,-97.88387483766188
-0.1987,-98.364876679616
-0.1997000000000001,-98.88831986056607
-0.2007,-99.31273325052557
-0.2017000000000001,-99.62396973649588
-0.2027,-99.97764756146215
-0.2037000000000001,-100.2747369344338
-0.2047,-100.45864940341626
-0.2057000000000001,-100.58597342040412
-0.2067,-100.79818011538387
-0.2077000000000001,-101.10941660135417
-0.2087,-101.3640646353299
-0.2097000000000001,-101.63285978230424
-0.2107,-101.80262513828804
-0.2117000000000001,-102.02897894626645
-0.2127,-102.19874430225026
-0.2137000000000001,-102.45339233622596
-0.2147,-102.72218748320032
-0.2157000000000001,-103.07586530816658
-0.2167,-103.24563066415038
-0.21770000000000012,-103.45783735913014
-0.2187,-103.81151518409638
-0.21970000000000012,-104.2076343480586
-0.2207,-104.5471650600262
-0.22170000000000012,-104.90084288499246
-0.2227,-105.11304957997223
-0.22370000000000012,-105.16963803196683
-0.2247,-105.29696204895468
-0.22570000000000012,-105.59405142192634
-0.2267,-105.90528790789664
-0.22770000000000012,-106.21652439386696
-0.22870000000000001,-106.34384841085482
-0.22970000000000013,-106.4287310888467
-0.23070000000000002,-106.51361376683862
-0.23170000000000013,-106.68337912282242
-0.23270000000000002,-106.99461560879273
-0.23370000000000013,-107.20682230377247
-0.23470000000000002,-107.4331761117509
-0.23570000000000013,-107.47561745074682
-0.23670000000000002,-107.51805878974278
-0.2376999999999999,-107.73026548472255
-0.23870000000000002,-108.1688259876807
-0.2396999999999999,-108.64982782963483
-0.24070000000000003,-109.08838833259297
-0.24169999999999991,-109.30059502757274
-0.24270000000000003,-109.39962481856328
-0.24369999999999992,-109.654272852539
-0.24470000000000003,-109.73915553053091
-0.24569999999999992,-109.8240382085228
-0.24670000000000003,-109.9655093385093
-0.24769999999999992,-110.17771603348905
-0.24870000000000003,-110.26259871148096
-0.24969999999999992,-110.34748138947285
-0.25070000000000003,-110.40406984146746
-0.2516999999999999,-110.6162765364472
-0.25270000000000004,-110.87092457042293
-0.2536999999999999,-111.09727837840134
-0.25470000000000004,-111.09727837840134
-0.2556999999999999,-111.09727837840134
-0.25670000000000004,-111.09727837840134
-0.25769999999999993,-111.22460239538917
-0.25870000000000004,-111.49339754236355
-0.25969999999999993,-111.91781093232305
-0.26070000000000004,-112.22904741829338
-0.26169999999999993,-112.39881277427718
-0.26270000000000004,-112.48369545226906
-0.26369999999999993,-112.48369545226906
-0.26470000000000005,-112.54028390426367
-0.26569999999999994,-112.71004926024747
-0.26670000000000005,-112.92225595522721
-0.26769999999999994,-113.00713863321914
-0.26870000000000005,-113.06372708521374
-0.26969999999999994,-113.06372708521374
-0.27070000000000005,-113.06372708521374
-0.27169999999999994,-113.19105110220158
-0.27270000000000005,-113.40325779718134
-0.27369999999999994,-113.53058181416918
-0.27470000000000006,-113.48814047517324
-0.27569999999999995,-113.40325779718134
-0.27670000000000006,-113.48814047517324
-0.27769999999999995,-113.71449428315165
-0.27870000000000006,-114.05402499511925
-0.27969999999999995,-114.3228201420936
-0.28070000000000006,-114.4925854980774
-0.28169999999999995,-114.63405662806393
-0.28270000000000006,-114.67649796705987
-0.28369999999999995,-114.67649796705987
-0.28470000000000006,-114.71893930605583
-0.28569999999999995,-114.71893930605583
-0.28670000000000007,-114.80382198404773
-0.28769999999999996,-114.88870466203963
-0.28870000000000007,-114.88870466203963
-0.28969999999999996,-114.84626332304367
-0.29070000000000007,-114.93114600103557
-0.29169999999999996,-115.01602867902749
-0.29270000000000007,-115.01602867902749
-0.29369999999999996,-115.05847001802343
-0.2947000000000001,-115.01602867902749
-0.29569999999999996,-114.93114600103557
-0.2967000000000001,-114.93114600103557
-0.29769999999999996,-115.01602867902749
-0.2987000000000001,-115.15749980901398
-0.29969999999999997,-115.45458918198564
-0.3007000000000001,-115.72338432896
-0.30169999999999997,-115.8931496849438
-0.3027000000000001,-116.02047370193165
-0.30369999999999997,-116.02047370193165
-0.3047000000000001,-115.97803236293572
-0.30569999999999997,-115.80826700695191
-0.3067000000000001,-115.76582566795594
-0.3077,-115.8931496849438
-0.3087000000000001,-115.97803236293572
-0.3097,-115.93559102393975
-0.3107000000000001,-115.85070834594785
-0.3117,-115.85070834594785
-0.3127000000000001,-115.93559102393975
-0.3137,-115.93559102393975
-0.3147000000000001,-116.02047370193165
-0.3157,-116.02047370193165
-0.3167000000000001,-115.93559102393975
-0.3177,-116.02047370193165
-0.3187000000000001,-116.14779771891952
-0.3197,-116.24682750991008
-0.3207000000000001,-116.50147554388576
-0.3217,-116.62879956087362
-0.3227000000000001,-116.58635822187767
-0.3237,-116.54391688288172
-0.3247000000000001,-116.50147554388576
-0.3257,-116.58635822187767
-0.3267000000000001,-116.62879956087362
-0.3277,-116.58635822187767
-0.3287000000000001,-116.45903420488982
-0.3297,-116.37415152689792
-0.3307000000000001,-116.33171018790196
-0.3317,-116.45903420488982
-0.3327000000000001,-116.54391688288172
-0.3337,-116.62879956087362
-0.3347000000000001,-116.58635822187767
-0.3357,-116.41659286589388
-0.3367000000000001,-116.37415152689792
-0.3377,-116.45903420488982
-0.3387000000000001,-116.62879956087362
-0.3397,-116.98247738583989
-0.3407000000000001,-117.29371387181018
-0.3417,-117.46347922779398
-0.3427000000000001,-117.50592056678994
-0.3437,-117.46347922779398
-0.3447000000000001,-117.46347922779398
-0.3457,-117.3785965498021
-0.3467000000000001,-117.33615521080614
-0.3477,-117.42103788879804
-0.3487000000000001,-117.54836190578591
-0.3497,-117.50592056678994
-0.3507000000000001,-117.50592056678994
-0.3517,-117.50592056678994
-0.3527000000000001,-117.59080324478184
-0.3537,-117.77471571376431
-0.3547000000000001,-117.85959839175621
-0.3557,-117.81715705276027
-0.35670000000000013,-117.77471571376431
-0.3577,-117.81715705276027
-0.35870000000000013,-117.94448106974811
-0.3597,-118.24157044271978
-0.36070000000000013,-118.63768960668197
-0.3617,-118.90648475365633
-0.3626999999999999,-119.03380877064419
-0.3637,-119.16113278763203
-0.3646999999999999,-119.16113278763203
-0.3657,-119.07625010964013
-0.3666999999999999,-119.1186914486361
-0.3677,-119.24601546562396
-0.3686999999999999,-119.38748659561045
-0.36970000000000003,-119.64213462958614
-0.3706999999999999,-119.86848843756455
-0.37170000000000003,-119.9109297765605
-0.3726999999999999,-119.95337111555646
-0.37370000000000003,-120.12313647154028
-0.3746999999999999,-120.39193161851462
-0.37570000000000003,-120.47681429650652
-0.3766999999999999,-120.56169697449842
-0.37770000000000004,-120.73146233048222
-0.3786999999999999,-120.9153747994647
-0.37970000000000004,-121.2549055114323
-0.3806999999999999,-121.69346601439047
-0.38170000000000004,-122.00470250036076
-0.38269999999999993,-122.1320265173486
-0.38370000000000004,-122.30179187333242
-0.38469999999999993,-122.42911589032028
-0.38570000000000004,-122.48570434231489
-0.38669999999999993,-121.38222952842017
-0.38570000000000004,-118.24157044271978
-0.38469999999999993,-115.4121478429897
-0.38370000000000004,-112.66760792125153
-0.38269999999999993,-109.92306799951335
-0.38170000000000004,-107.34829343375898
-0.3806999999999999,-104.90084288499246
-0.37970000000000004,-102.59486346621246
-0.3786999999999999,-100.40206095142165
-0.37770000000000004,-98.364876679616
-0.3766999999999999,-96.31354529481169
-0.37570000000000003,-94.26221391000739
-0.3746999999999999,-92.29576520319499
-0.37370000000000003,-90.51322896536506
-0.3726999999999999,-88.9004580835189
-0.37170000000000003,-87.33012854066871
-0.3706999999999999,-85.61832786783202
-0.36970000000000003,-83.92067430799398
-0.3686999999999999,-82.22302074815593
-0.3677,-80.46877873632329
-0.3666999999999999,-78.85600785447714
-0.3657,-77.34226676362155
-0.3646999999999999,-75.77193722077136
-0.3637,-74.20160767792116
-0.3626999999999999,-72.67371947406694
-0.3617,-71.2307139482046
-0.36070000000000013,-69.8301497613382
-0.3597,-68.44373268747047
-0.35870000000000013,-67.08560983960004
-0.3577,-65.7274869917296
-0.35670000000000013,-64.42595259585376
-0.3557,-63.11027108697928
-0.3547000000000001,-61.80873669110345
-0.3537,-60.59208497321952
-0.3527000000000001,-59.502757272323436
-0.3517,-58.31439978043681
-0.3507000000000001,-57.182630740544774
-0.3497,-56.05086170065276
-0.3487000000000001,-54.834209982768826
-0.3477,-53.68829382987814
-0.3467000000000001,-52.64140746797801
-0.3457,-51.509638428085985
-0.3447000000000001,-50.37786938819396
-0.3437,-49.20365900930597
-0.3427000000000001,-48.114331308409895
-0.3417,-47.067444946509774
-0.3407000000000001,-46.062999923605595
-0.3397,-45.143437578693316
-0.3387000000000001,-44.096551216793195
-0.3377,-43.007223515897124
-0.3367000000000001,-41.96033715399699
-0.3357,-40.99833347008877
-0.3347000000000001,-40.092918238175145
-0.3337,-39.258238571254765
-0.3327000000000001,-38.46600024333035
-0.3317,-37.56058501141672
-0.3307000000000001,-36.64102266650445
-0.3297,-35.763901660588125
-0.3287000000000001,-34.8018979766799
-0.3277,-33.89648274476628
-0.3267000000000001,-33.01936173884996
-0.3257,-32.184682071929586
-0.3247000000000001,-31.36414951800786
-0.3237,-30.529469851087494
-0.3227000000000001,-29.66649595816982
-0.3217,-28.831816291249446
-0.3207000000000001,-28.09616641531963
-0.3197,-27.34636942639116
-0.3187000000000001,-26.568278211465387
-0.3177,-25.73359854454502
-0.3167000000000001,-24.9130659906233
-0.3157,-24.16326900169483
-0.3147000000000001,-23.427619125765005
-0.3137,-22.776851927827092
-0.3127000000000001,-22.069496277894572
-0.3117,-21.376287740960702
-0.3107000000000001,-20.626490752032236
-0.3097,-19.93328221509837
-0.3087000000000001,-19.197632339168546
-0.3077,-18.53271802823198
-0.3067000000000001,-17.839509491298113
-0.30569999999999997,-17.188742293360193
-0.3047000000000001,-16.53797509542228
-0.30369999999999997,-15.830619445489761
-0.3027000000000001,-15.137410908555893
-0.30169999999999997,-14.486643710617974
-0.3007000000000001,-13.872659006476551
-0.29969999999999997,-13.261503724934855
-0.2987000000000001,-12.694204493688973
-0.29769999999999996,-12.040607873151327
-0.2967000000000001,-11.385596541313816
-0.29569999999999996,-10.731999920776168
-0.2947000000000001,-10.164700689530287
-0.29369999999999996,-9.59740145828441
-0.29270000000000007,-9.031516938338395
-0.29169999999999996,-8.464217707092514
-0.29070000000000007,-7.853062425550818
-0.28969999999999996,-7.243321855308987
-0.28870000000000007,-6.6760226240631075
-0.28769999999999996,-6.152579443113044
-0.28670000000000007,-5.629136262162981
-0.28569999999999995,-5.105693081212917
-0.28470000000000006,-4.494537799671222
-0.28369999999999995,-3.927238568425342
-0.28270000000000006,-3.403795387475278
-0.28169999999999995,-2.8803522065252145
-0.28070000000000006,-2.3569090255751513
-0.27969999999999995,-1.8773218949209036
-0.27870000000000006,-1.3980177065266295
-0.27769999999999995,-0.8745745255765657
-0.27670000000000006,-0.30755823659065895
-0.27569999999999995,0.21588494435940458
-0.27470000000000006,0.6520404381077953
-0.27369999999999994,1.1317690398920295
-0.27270000000000005,1.6113561705462767
-0.27169999999999994,2.0909433012005243
-0.27070000000000005,2.5705304318547717
-0.26969999999999994,3.0939736128048354
-0.26870000000000005,3.5311194044631313
-0.26769999999999994,3.9668504848215624
