Mar. 6, 2025   08:50:31
Cyclic Voltammetry
File: c:/users/guazh/data/banditlqround7_x0exp169_r20_3/2025-03-03-exp886\exp886-2025-03-06t08_42_21-h2koh\exp886_cv_sr_800mvs_efin_-1400mv.bin
Data Source:  Experiment
Instrument Model:  CHI760E
Header: CV ran at 800 mVs
Note: 

Init E (V) = -1
High E (V) = -1
Low E (V) = -1.4
Final E (V) = -1
Init P/N = N
Scan Rate (V/s) = 0.8
Segment = 3
Sample Interval (V) = 0.001
Quiet Time (sec) = 2
Sensitivity (A/V) = 0.01
Comp R (ohm) = 1.2

Results:

Channel 1:
Segment 1:

Segment 2:

Segment 3:

Potential/V, Current/A

-1.000, -4.500e-4
-1.001, -3.267e-4
-1.002, -2.095e-4
-1.003, -9.542e-5
-1.004, 1.249e-5
-1.005, 1.173e-4
-1.006, 2.191e-4
-1.007, 3.115e-4
-1.008, 4.071e-4
-1.009, 4.965e-4
-1.010, 5.829e-4
-1.011, 6.661e-4
-1.012, 7.494e-4
-1.013, 8.295e-4
-1.014, 9.097e-4
-1.015, 9.868e-4
-1.016, 1.061e-3
-1.017, 1.135e-3
-1.018, 1.206e-3
-1.019, 1.277e-3
-1.020, 1.347e-3
-1.021, 1.418e-3
-1.022, 1.483e-3
-1.023, 1.548e-3
-1.024, 1.616e-3
-1.025, 1.680e-3
-1.026, 1.745e-3
-1.027, 1.810e-3
-1.028, 1.872e-3
-1.029, 1.930e-3
-1.030, 1.992e-3
-1.031, 2.050e-3
-1.032, 2.106e-3
-1.033, 2.158e-3
-1.034, 2.214e-3
-1.035, 2.269e-3
-1.036, 2.322e-3
-1.037, 2.374e-3
-1.038, 2.430e-3
-1.039, 2.482e-3
-1.040, 2.538e-3
-1.041, 2.590e-3
-1.042, 2.645e-3
-1.043, 2.695e-3
-1.044, 2.747e-3
-1.045, 2.793e-3
-1.046, 2.843e-3
-1.047, 2.889e-3
-1.048, 2.938e-3
-1.049, 2.985e-3
-1.050, 3.031e-3
-1.051, 3.077e-3
-1.052, 3.126e-3
-1.053, 3.173e-3
-1.054, 3.219e-3
-1.055, 3.268e-3
-1.056, 3.314e-3
-1.057, 3.364e-3
-1.058, 3.410e-3
-1.059, 3.456e-3
-1.060, 3.503e-3
-1.061, 3.546e-3
-1.062, 3.589e-3
-1.063, 3.632e-3
-1.064, 3.672e-3
-1.065, 3.715e-3
-1.066, 3.758e-3
-1.067, 3.802e-3
-1.068, 3.845e-3
-1.069, 3.888e-3
-1.070, 3.934e-3
-1.071, 3.980e-3
-1.072, 4.027e-3
-1.073, 4.076e-3
-1.074, 4.119e-3
-1.075, 4.165e-3
-1.076, 4.212e-3
-1.077, 4.255e-3
-1.078, 4.295e-3
-1.079, 4.335e-3
-1.080, 4.375e-3
-1.081, 4.418e-3
-1.082, 4.464e-3
-1.083, 4.508e-3
-1.084, 4.557e-3
-1.085, 4.603e-3
-1.086, 4.653e-3
-1.087, 4.702e-3
-1.088, 4.751e-3
-1.089, 4.801e-3
-1.090, 4.844e-3
-1.091, 4.890e-3
-1.092, 4.933e-3
-1.093, 4.976e-3
-1.094, 5.023e-3
-1.095, 5.069e-3
-1.096, 5.115e-3
-1.097, 5.161e-3
-1.098, 5.208e-3
-1.099, 5.254e-3
-1.100, 5.303e-3
-1.101, 5.352e-3
-1.102, 5.399e-3
-1.103, 5.445e-3
-1.104, 5.488e-3
-1.105, 5.534e-3
-1.106, 5.578e-3
-1.107, 5.618e-3
-1.108, 5.661e-3
-1.109, 5.704e-3
-1.110, 5.744e-3
-1.111, 5.784e-3
-1.112, 5.824e-3
-1.113, 5.867e-3
-1.114, 5.910e-3
-1.115, 5.954e-3
-1.116, 5.997e-3
-1.117, 6.040e-3
-1.118, 6.083e-3
-1.119, 6.126e-3
-1.120, 6.169e-3
-1.121, 6.219e-3
-1.122, 6.262e-3
-1.123, 6.308e-3
-1.124, 6.351e-3
-1.125, 6.395e-3
-1.126, 6.438e-3
-1.127, 6.484e-3
-1.128, 6.527e-3
-1.129, 6.573e-3
-1.130, 6.623e-3
-1.131, 6.669e-3
-1.132, 6.718e-3
-1.133, 6.764e-3
-1.134, 6.808e-3
-1.135, 6.848e-3
-1.136, 6.882e-3
-1.137, 6.912e-3
-1.138, 6.940e-3
-1.139, 6.977e-3
-1.140, 7.014e-3
-1.141, 7.060e-3
-1.142, 7.110e-3
-1.143, 7.162e-3
-1.144, 7.215e-3
-1.145, 7.276e-3
-1.146, 7.332e-3
-1.147, 7.390e-3
-1.148, 7.443e-3
-1.149, 7.489e-3
-1.150, 7.532e-3
-1.151, 7.575e-3
-1.152, 7.615e-3
-1.153, 7.652e-3
-1.154, 7.680e-3
-1.155, 7.711e-3
-1.156, 7.742e-3
-1.157, 7.779e-3
-1.158, 7.822e-3
-1.159, 7.874e-3
-1.160, 7.927e-3
-1.161, 7.985e-3
-1.162, 8.038e-3
-1.163, 8.090e-3
-1.164, 8.140e-3
-1.165, 8.189e-3
-1.166, 8.232e-3
-1.167, 8.275e-3
-1.168, 8.315e-3
-1.169, 8.352e-3
-1.170, 8.386e-3
-1.171, 8.420e-3
-1.172, 8.457e-3
-1.173, 8.497e-3
-1.174, 8.537e-3
-1.175, 8.584e-3
-1.176, 8.633e-3
-1.177, 8.682e-3
-1.178, 8.732e-3
-1.179, 8.775e-3
-1.180, 8.812e-3
-1.181, 8.849e-3
-1.182, 8.883e-3
-1.183, 8.920e-3
-1.184, 8.954e-3
-1.185, 8.987e-3
-1.186, 9.021e-3
-1.187, 9.055e-3
-1.188, 9.092e-3
-1.189, 9.129e-3
-1.190, 9.169e-3
-1.191, 9.209e-3
-1.192, 9.246e-3
-1.193, 9.286e-3
-1.194, 9.330e-3
-1.195, 9.373e-3
-1.196, 9.419e-3
-1.197, 9.456e-3
-1.198, 9.493e-3
-1.199, 9.530e-3
-1.200, 9.567e-3
-1.201, 9.604e-3
-1.202, 9.644e-3
-1.203, 9.684e-3
-1.204, 9.724e-3
-1.205, 9.758e-3
-1.206, 9.798e-3
-1.207, 9.832e-3
-1.208, 9.872e-3
-1.209, 9.909e-3
-1.210, 9.943e-3
-1.211, 9.980e-3
-1.212, 1.002e-2
-1.213, 1.005e-2
-1.214, 1.009e-2
-1.215, 1.013e-2
-1.216, 1.016e-2
-1.217, 1.020e-2
-1.218, 1.024e-2
-1.219, 1.029e-2
-1.220, 1.032e-2
-1.221, 1.036e-2
-1.222, 1.039e-2
-1.223, 1.042e-2
-1.224, 1.045e-2
-1.225, 1.049e-2
-1.226, 1.052e-2
-1.227, 1.055e-2
-1.228, 1.058e-2
-1.229, 1.062e-2
-1.230, 1.066e-2
-1.231, 1.069e-2
-1.232, 1.073e-2
-1.233, 1.076e-2
-1.234, 1.080e-2
-1.235, 1.084e-2
-1.236, 1.088e-2
-1.237, 1.091e-2
-1.238, 1.094e-2
-1.239, 1.097e-2
-1.240, 1.100e-2
-1.241, 1.103e-2
-1.242, 1.106e-2
-1.243, 1.109e-2
-1.244, 1.112e-2
-1.245, 1.115e-2
-1.246, 1.120e-2
-1.247, 1.124e-2
-1.248, 1.128e-2
-1.249, 1.132e-2
-1.250, 1.136e-2
-1.251, 1.139e-2
-1.252, 1.142e-2
-1.253, 1.145e-2
-1.254, 1.148e-2
-1.255, 1.152e-2
-1.256, 1.155e-2
-1.257, 1.158e-2
-1.258, 1.160e-2
-1.259, 1.163e-2
-1.260, 1.167e-2
-1.261, 1.170e-2
-1.262, 1.174e-2
-1.263, 1.177e-2
-1.264, 1.180e-2
-1.265, 1.184e-2
-1.266, 1.187e-2
-1.267, 1.190e-2
-1.268, 1.193e-2
-1.269, 1.196e-2
-1.270, 1.199e-2
-1.271, 1.202e-2
-1.272, 1.205e-2
-1.273, 1.207e-2
-1.274, 1.210e-2
-1.275, 1.212e-2
-1.276, 1.214e-2
-1.277, 1.216e-2
-1.278, 1.218e-2
-1.279, 1.221e-2
-1.280, 1.223e-2
-1.281, 1.226e-2
-1.282, 1.229e-2
-1.283, 1.233e-2
-1.284, 1.236e-2
-1.285, 1.239e-2
-1.286, 1.243e-2
-1.287, 1.245e-2
-1.288, 1.248e-2
-1.289, 1.251e-2
-1.290, 1.253e-2
-1.291, 1.255e-2
-1.292, 1.257e-2
-1.293, 1.259e-2
-1.294, 1.261e-2
-1.295, 1.264e-2
-1.296, 1.267e-2
-1.297, 1.270e-2
-1.298, 1.272e-2
-1.299, 1.275e-2
-1.300, 1.277e-2
-1.301, 1.280e-2
-1.302, 1.282e-2
-1.303, 1.284e-2
-1.304, 1.286e-2
-1.305, 1.288e-2
-1.306, 1.289e-2
-1.307, 1.291e-2
-1.308, 1.294e-2
-1.309, 1.296e-2
-1.310, 1.300e-2
-1.311, 1.303e-2
-1.312, 1.305e-2
-1.313, 1.308e-2
-1.314, 1.310e-2
-1.315, 1.312e-2
-1.316, 1.314e-2
-1.317, 1.316e-2
-1.318, 1.318e-2
-1.319, 1.319e-2
-1.320, 1.321e-2
-1.321, 1.322e-2
-1.322, 1.323e-2
-1.323, 1.325e-2
-1.324, 1.326e-2
-1.325, 1.328e-2
-1.326, 1.330e-2
-1.327, 1.332e-2
-1.328, 1.334e-2
-1.329, 1.335e-2
-1.330, 1.337e-2
-1.331, 1.337e-2
-1.332, 1.338e-2
-1.333, 1.339e-2
-1.334, 1.340e-2
-1.335, 1.340e-2
-1.336, 1.341e-2
-1.337, 1.342e-2
-1.338, 1.345e-2
-1.339, 1.348e-2
-1.340, 1.351e-2
-1.341, 1.353e-2
-1.342, 1.356e-2
-1.343, 1.358e-2
-1.344, 1.359e-2
-1.345, 1.361e-2
-1.346, 1.362e-2
-1.347, 1.363e-2
-1.348, 1.364e-2
-1.349, 1.365e-2
-1.350, 1.366e-2
-1.351, 1.367e-2
-1.352, 1.369e-2
-1.353, 1.370e-2
-1.354, 1.373e-2
-1.355, 1.374e-2
-1.356, 1.376e-2
-1.357, 1.378e-2
-1.358, 1.379e-2
-1.359, 1.380e-2
-1.360, 1.382e-2
-1.361, 1.383e-2
-1.362, 1.384e-2
-1.363, 1.385e-2
-1.364, 1.386e-2
-1.365, 1.387e-2
-1.366, 1.388e-2
-1.367, 1.389e-2
-1.368, 1.390e-2
-1.369, 1.391e-2
-1.370, 1.393e-2
-1.371, 1.395e-2
-1.372, 1.396e-2
-1.373, 1.397e-2
-1.374, 1.398e-2
-1.375, 1.398e-2
-1.376, 1.399e-2
-1.377, 1.399e-2
-1.378, 1.399e-2
-1.379, 1.400e-2
-1.380, 1.401e-2
-1.381, 1.401e-2
-1.382, 1.402e-2
-1.383, 1.402e-2
-1.384, 1.403e-2
-1.385, 1.403e-2
-1.386, 1.403e-2
-1.387, 1.404e-2
-1.388, 1.405e-2
-1.389, 1.405e-2
-1.390, 1.406e-2
-1.391, 1.407e-2
-1.392, 1.407e-2
-1.393, 1.407e-2
-1.394, 1.408e-2
-1.395, 1.408e-2
-1.396, 1.409e-2
-1.397, 1.409e-2
-1.398, 1.409e-2
-1.399, 1.410e-2
-1.400, 1.400e-2
-1.399, 1.375e-2
-1.398, 1.351e-2
-1.397, 1.329e-2
-1.396, 1.307e-2
-1.395, 1.286e-2
-1.394, 1.265e-2
-1.393, 1.245e-2
-1.392, 1.225e-2
-1.391, 1.206e-2
-1.390, 1.187e-2
-1.389, 1.168e-2
-1.388, 1.149e-2
-1.387, 1.130e-2
-1.386, 1.111e-2
-1.385, 1.094e-2
-1.384, 1.077e-2
-1.383, 1.060e-2
-1.382, 1.043e-2
-1.381, 1.027e-2
-1.380, 1.011e-2
-1.379, 9.943e-3
-1.378, 9.780e-3
-1.377, 9.623e-3
-1.376, 9.465e-3
-1.375, 9.305e-3
-1.374, 9.151e-3
-1.373, 9.000e-3
-1.372, 8.849e-3
-1.371, 8.707e-3
-1.370, 8.565e-3
-1.369, 8.426e-3
-1.368, 8.288e-3
-1.367, 8.149e-3
-1.366, 8.010e-3
-1.365, 7.871e-3
-1.364, 7.736e-3
-1.363, 7.603e-3
-1.362, 7.474e-3
-1.361, 7.341e-3
-1.360, 7.212e-3
-1.359, 7.082e-3
-1.358, 6.956e-3
-1.357, 6.829e-3
-1.356, 6.700e-3
-1.355, 6.570e-3
-1.354, 6.441e-3
-1.353, 6.317e-3
-1.352, 6.194e-3
-1.351, 6.074e-3
-1.350, 5.957e-3
-1.349, 5.843e-3
-1.348, 5.725e-3
-1.347, 5.611e-3
-1.346, 5.497e-3
-1.345, 5.386e-3
-1.344, 5.282e-3
-1.343, 5.177e-3
-1.342, 5.072e-3
-1.341, 4.973e-3
-1.340, 4.875e-3
-1.339, 4.776e-3
-1.338, 4.674e-3
-1.337, 4.572e-3
-1.336, 4.468e-3
-1.335, 4.363e-3
-1.334, 4.261e-3
-1.333, 4.159e-3
-1.332, 4.061e-3
-1.331, 3.965e-3
-1.330, 3.873e-3
-1.329, 3.780e-3
-1.328, 3.694e-3
-1.327, 3.604e-3
-1.326, 3.515e-3
-1.325, 3.425e-3
-1.324, 3.333e-3
-1.323, 3.237e-3
-1.322, 3.145e-3
-1.321, 3.052e-3
-1.320, 2.963e-3
-1.319, 2.874e-3
-1.318, 2.787e-3
-1.317, 2.698e-3
-1.316, 2.612e-3
-1.315, 2.528e-3
-1.314, 2.451e-3
-1.313, 2.371e-3
-1.312, 2.294e-3
-1.311, 2.211e-3
-1.310, 2.134e-3
-1.309, 2.054e-3
-1.308, 1.973e-3
-1.307, 1.899e-3
-1.306, 1.822e-3
-1.305, 1.745e-3
-1.304, 1.671e-3
-1.303, 1.597e-3
-1.302, 1.523e-3
-1.301, 1.452e-3
-1.300, 1.381e-3
-1.299, 1.310e-3
-1.298, 1.240e-3
-1.297, 1.169e-3
-1.296, 1.101e-3
-1.295, 1.033e-3
-1.294, 9.621e-4
-1.293, 8.973e-4
-1.292, 8.295e-4
-1.291, 7.648e-4
-1.290, 7.000e-4
-1.289, 6.384e-4
-1.288, 5.736e-4
-1.287, 5.120e-4
-1.286, 4.503e-4
-1.285, 3.886e-4
-1.284, 3.270e-4
-1.283, 2.653e-4
-1.282, 2.036e-4
-1.281, 1.389e-4
-1.280, 7.723e-5
-1.279, 1.557e-5
-1.278, -4.301e-5
-1.277, -1.016e-4
-1.276, -1.571e-4
-1.275, -2.126e-4
-1.274, -2.681e-4
-1.273, -3.236e-4
-1.272, -3.760e-4
-1.271, -4.315e-4
-1.270, -4.901e-4
-1.269, -5.425e-4
-1.268, -5.980e-4
-1.267, -6.535e-4
-1.266, -7.059e-4
-1.265, -7.614e-4
-1.264, -8.138e-4
-1.263, -8.631e-4
-1.262, -9.155e-4
-1.261, -9.618e-4
-1.260, -1.011e-3
-1.259, -1.064e-3
-1.258, -1.113e-3
-1.257, -1.162e-3
-1.256, -1.212e-3
-1.255, -1.261e-3
-1.254, -1.310e-3
-1.253, -1.359e-3
-1.252, -1.409e-3
-1.251, -1.452e-3
-1.250, -1.498e-3
-1.249, -1.544e-3
-1.248, -1.588e-3
-1.247, -1.631e-3
-1.246, -1.674e-3
-1.245, -1.717e-3
-1.244, -1.760e-3
-1.243, -1.803e-3
-1.242, -1.847e-3
-1.241, -1.893e-3
-1.240, -1.933e-3
-1.239, -1.973e-3
-1.238, -2.016e-3
-1.237, -2.059e-3
-1.236, -2.096e-3
-1.235, -2.140e-3
-1.234, -2.177e-3
-1.233, -2.220e-3
-1.232, -2.260e-3
-1.231, -2.303e-3
-1.230, -2.346e-3
-1.229, -2.392e-3
-1.228, -2.439e-3
-1.227, -2.479e-3
-1.226, -2.519e-3
-1.225, -2.559e-3
-1.224, -2.596e-3
-1.223, -2.627e-3
-1.222, -2.664e-3
-1.221, -2.698e-3
-1.220, -2.735e-3
-1.219, -2.768e-3
-1.218, -2.809e-3
-1.217, -2.849e-3
-1.216, -2.886e-3
-1.215, -2.923e-3
-1.214, -2.957e-3
-1.213, -2.990e-3
-1.212, -3.024e-3
-1.211, -3.052e-3
-1.210, -3.083e-3
-1.209, -3.111e-3
-1.208, -3.135e-3
-1.207, -3.163e-3
-1.206, -3.194e-3
-1.205, -3.225e-3
-1.204, -3.256e-3
-1.203, -3.293e-3
-1.202, -3.323e-3
-1.201, -3.357e-3
-1.200, -3.388e-3
-1.199, -3.422e-3
-1.198, -3.456e-3
-1.197, -3.487e-3
-1.196, -3.515e-3
-1.195, -3.539e-3
-1.194, -3.561e-3
-1.193, -3.589e-3
-1.192, -3.616e-3
-1.191, -3.647e-3
-1.190, -3.678e-3
-1.189, -3.709e-3
-1.188, -3.740e-3
-1.187, -3.770e-3
-1.186, -3.804e-3
-1.185, -3.838e-3
-1.184, -3.869e-3
-1.183, -3.900e-3
-1.182, -3.928e-3
-1.181, -3.952e-3
-1.180, -3.980e-3
-1.179, -4.005e-3
-1.178, -4.033e-3
-1.177, -4.063e-3
-1.176, -4.088e-3
-1.175, -4.116e-3
-1.174, -4.147e-3
-1.173, -4.171e-3
-1.172, -4.199e-3
-1.171, -4.227e-3
-1.170, -4.258e-3
-1.169, -4.288e-3
-1.168, -4.319e-3
-1.167, -4.347e-3
-1.166, -4.378e-3
-1.165, -4.406e-3
-1.164, -4.433e-3
-1.163, -4.464e-3
-1.162, -4.489e-3
-1.161, -4.517e-3
-1.160, -4.544e-3
-1.159, -4.572e-3
-1.158, -4.600e-3
-1.157, -4.628e-3
-1.156, -4.655e-3
-1.155, -4.683e-3
-1.154, -4.711e-3
-1.153, -4.742e-3
-1.152, -4.772e-3
-1.151, -4.806e-3
-1.150, -4.837e-3
-1.149, -4.871e-3
-1.148, -4.902e-3
-1.147, -4.933e-3
-1.146, -4.964e-3
-1.145, -4.991e-3
-1.144, -5.016e-3
-1.143, -5.044e-3
-1.142, -5.068e-3
-1.141, -5.093e-3
-1.140, -5.118e-3
-1.139, -5.142e-3
-1.138, -5.173e-3
-1.137, -5.201e-3
-1.136, -5.232e-3
-1.135, -5.260e-3
-1.134, -5.287e-3
-1.133, -5.315e-3
-1.132, -5.346e-3
-1.131, -5.371e-3
-1.130, -5.401e-3
-1.129, -5.429e-3
-1.128, -5.454e-3
-1.127, -5.479e-3
-1.126, -5.500e-3
-1.125, -5.522e-3
-1.124, -5.543e-3
-1.123, -5.568e-3
-1.122, -5.596e-3
-1.121, -5.623e-3
-1.120, -5.651e-3
-1.119, -5.676e-3
-1.118, -5.707e-3
-1.117, -5.738e-3
-1.116, -5.765e-3
-1.115, -5.793e-3
-1.114, -5.818e-3
-1.113, -5.839e-3
-1.112, -5.864e-3
-1.111, -5.889e-3
-1.110, -5.910e-3
-1.109, -5.935e-3
-1.108, -5.959e-3
-1.107, -5.987e-3
-1.106, -6.015e-3
-1.105, -6.040e-3
-1.104, -6.061e-3
-1.103, -6.083e-3
-1.102, -6.104e-3
-1.101, -6.129e-3
-1.100, -6.154e-3
-1.099, -6.181e-3
-1.098, -6.212e-3
-1.097, -6.243e-3
-1.096, -6.274e-3
-1.095, -6.308e-3
-1.094, -6.339e-3
-1.093, -6.370e-3
-1.092, -6.400e-3
-1.091, -6.428e-3
-1.090, -6.453e-3
-1.089, -6.477e-3
-1.088, -6.505e-3
-1.087, -6.533e-3
-1.086, -6.561e-3
-1.085, -6.592e-3
-1.084, -6.619e-3
-1.083, -6.650e-3
-1.082, -6.675e-3
-1.081, -6.703e-3
-1.080, -6.730e-3
-1.079, -6.758e-3
-1.078, -6.786e-3
-1.077, -6.814e-3
-1.076, -6.841e-3
-1.075, -6.866e-3
-1.074, -6.888e-3
-1.073, -6.912e-3
-1.072, -6.934e-3
-1.071, -6.955e-3
-1.070, -6.983e-3
-1.069, -7.008e-3
-1.068, -7.036e-3
-1.067, -7.066e-3
-1.066, -7.094e-3
-1.065, -7.128e-3
-1.064, -7.156e-3
-1.063, -7.187e-3
-1.062, -7.217e-3
-1.061, -7.239e-3
-1.060, -7.264e-3
-1.059, -7.288e-3
-1.058, -7.313e-3
-1.057, -7.338e-3
-1.056, -7.362e-3
-1.055, -7.390e-3
-1.054, -7.415e-3
-1.053, -7.436e-3
-1.052, -7.461e-3
-1.051, -7.483e-3
-1.050, -7.507e-3
-1.049, -7.529e-3
-1.048, -7.557e-3
-1.047, -7.584e-3
-1.046, -7.612e-3
-1.045, -7.640e-3
-1.044, -7.674e-3
-1.043, -7.701e-3
-1.042, -7.729e-3
-1.041, -7.754e-3
-1.040, -7.779e-3
-1.039, -7.803e-3
-1.038, -7.825e-3
-1.037, -7.849e-3
-1.036, -7.877e-3
-1.035, -7.902e-3
-1.034, -7.930e-3
-1.033, -7.957e-3
-1.032, -7.988e-3
-1.031, -8.019e-3
-1.030, -8.053e-3
-1.029, -8.087e-3
-1.028, -8.118e-3
-1.027, -8.149e-3
-1.026, -8.173e-3
-1.025, -8.201e-3
-1.024, -8.229e-3
-1.023, -8.250e-3
-1.022, -8.275e-3
-1.021, -8.300e-3
-1.020, -8.324e-3
-1.019, -8.352e-3
-1.018, -8.380e-3
-1.017, -8.414e-3
-1.016, -8.441e-3
-1.015, -8.469e-3
-1.014, -8.497e-3
-1.013, -8.522e-3
-1.012, -8.543e-3
-1.011, -8.565e-3
-1.010, -8.586e-3
-1.009, -8.608e-3
-1.008, -8.633e-3
-1.007, -8.654e-3
-1.006, -8.682e-3
-1.005, -8.710e-3
-1.004, -8.744e-3
-1.003, -8.774e-3
-1.002, -8.805e-3
-1.001, -8.833e-3
