Mar. 8, 2025   21:14:51
Linear Sweep Voltammetry
File: c:/users/guazh/data/banditlqround7_x0exp169_r20_3/2025-03-03-exp912\pre-regen-2025-03-08t21_11_47-lsvinphos\pre-regen_lsv_50mvs_efin_-1900mv.bin
Data Source:  Experiment
Instrument Model:  CHI760E
Header: LSV ran at 50 mVs with Efin at -1900mV
Note: 

Init E (V) = -0.6
Final E (V) = -1.9
Scan Rate (V/s) = 0.05
Sample Interval (V) = 0.001
Quiet Time (sec) = 2
Sensitivity (A/V) = 1e-4
Comp R (ohm) = 9.1

Results:

Channel 1:
Ep = -1.341V
ip = 6.131e-4A
Ah = 9.266e-4C

Potential/V, Current/A

-0.600, 7.167e-5
-0.601, 7.445e-5
-0.602, 7.583e-5
-0.603, 7.632e-5
-0.604, 7.658e-5
-0.605, 7.675e-5
-0.606, 7.690e-5
-0.607, 7.700e-5
-0.608, 7.708e-5
-0.609, 7.715e-5
-0.610, 7.719e-5
-0.611, 7.725e-5
-0.612, 7.727e-5
-0.613, 7.729e-5
-0.614, 7.731e-5
-0.615, 7.734e-5
-0.616, 7.734e-5
-0.617, 7.732e-5
-0.618, 7.729e-5
-0.619, 7.728e-5
-0.620, 7.724e-5
-0.621, 7.722e-5
-0.622, 7.720e-5
-0.623, 7.715e-5
-0.624, 7.711e-5
-0.625, 7.704e-5
-0.626, 7.698e-5
-0.627, 7.694e-5
-0.628, 7.687e-5
-0.629, 7.680e-5
-0.630, 7.673e-5
-0.631, 7.664e-5
-0.632, 7.657e-5
-0.633, 7.649e-5
-0.634, 7.638e-5
-0.635, 7.631e-5
-0.636, 7.621e-5
-0.637, 7.612e-5
-0.638, 7.602e-5
-0.639, 7.590e-5
-0.640, 7.580e-5
-0.641, 7.570e-5
-0.642, 7.557e-5
-0.643, 7.547e-5
-0.644, 7.534e-5
-0.645, 7.522e-5
-0.646, 7.512e-5
-0.647, 7.500e-5
-0.648, 7.488e-5
-0.649, 7.475e-5
-0.650, 7.460e-5
-0.651, 7.449e-5
-0.652, 7.436e-5
-0.653, 7.423e-5
-0.654, 7.411e-5
-0.655, 7.396e-5
-0.656, 7.384e-5
-0.657, 7.371e-5
-0.658, 7.357e-5
-0.659, 7.344e-5
-0.660, 7.330e-5
-0.661, 7.318e-5
-0.662, 7.306e-5
-0.663, 7.290e-5
-0.664, 7.278e-5
-0.665, 7.266e-5
-0.666, 7.257e-5
-0.667, 7.244e-5
-0.668, 7.228e-5
-0.669, 7.215e-5
-0.670, 7.204e-5
-0.671, 7.191e-5
-0.672, 7.180e-5
-0.673, 7.169e-5
-0.674, 7.156e-5
-0.675, 7.146e-5
-0.676, 7.135e-5
-0.677, 7.124e-5
-0.678, 7.115e-5
-0.679, 7.103e-5
-0.680, 7.094e-5
-0.681, 7.085e-5
-0.682, 7.075e-5
-0.683, 7.069e-5
-0.684, 7.058e-5
-0.685, 7.050e-5
-0.686, 7.044e-5
-0.687, 7.037e-5
-0.688, 7.031e-5
-0.689, 7.024e-5
-0.690, 7.017e-5
-0.691, 7.013e-5
-0.692, 7.008e-5
-0.693, 7.002e-5
-0.694, 6.999e-5
-0.695, 6.993e-5
-0.696, 6.992e-5
-0.697, 6.991e-5
-0.698, 6.988e-5
-0.699, 6.986e-5
-0.700, 6.983e-5
-0.701, 6.982e-5
-0.702, 6.984e-5
-0.703, 6.983e-5
-0.704, 6.983e-5
-0.705, 6.984e-5
-0.706, 6.986e-5
-0.707, 6.989e-5
-0.708, 6.991e-5
-0.709, 6.993e-5
-0.710, 6.998e-5
-0.711, 7.000e-5
-0.712, 7.007e-5
-0.713, 7.012e-5
-0.714, 7.015e-5
-0.715, 7.023e-5
-0.716, 7.030e-5
-0.717, 7.038e-5
-0.718, 7.044e-5
-0.719, 7.051e-5
-0.720, 7.060e-5
-0.721, 7.068e-5
-0.722, 7.077e-5
-0.723, 7.087e-5
-0.724, 7.095e-5
-0.725, 7.105e-5
-0.726, 7.118e-5
-0.727, 7.128e-5
-0.728, 7.141e-5
-0.729, 7.153e-5
-0.730, 7.163e-5
-0.731, 7.177e-5
-0.732, 7.190e-5
-0.733, 7.202e-5
-0.734, 7.216e-5
-0.735, 7.228e-5
-0.736, 7.243e-5
-0.737, 7.258e-5
-0.738, 7.270e-5
-0.739, 7.285e-5
-0.740, 7.299e-5
-0.741, 7.315e-5
-0.742, 7.332e-5
-0.743, 7.345e-5
-0.744, 7.360e-5
-0.745, 7.375e-5
-0.746, 7.390e-5
-0.747, 7.408e-5
-0.748, 7.422e-5
-0.749, 7.437e-5
-0.750, 7.453e-5
-0.751, 7.468e-5
-0.752, 7.485e-5
-0.753, 7.501e-5
-0.754, 7.514e-5
-0.755, 7.529e-5
-0.756, 7.544e-5
-0.757, 7.560e-5
-0.758, 7.575e-5
-0.759, 7.588e-5
-0.760, 7.603e-5
-0.761, 7.619e-5
-0.762, 7.633e-5
-0.763, 7.650e-5
-0.764, 7.661e-5
-0.765, 7.675e-5
-0.766, 7.689e-5
-0.767, 7.703e-5
-0.768, 7.719e-5
-0.769, 7.731e-5
-0.770, 7.741e-5
-0.771, 7.754e-5
-0.772, 7.767e-5
-0.773, 7.777e-5
-0.774, 7.789e-5
-0.775, 7.798e-5
-0.776, 7.810e-5
-0.777, 7.822e-5
-0.778, 7.831e-5
-0.779, 7.840e-5
-0.780, 7.849e-5
-0.781, 7.858e-5
-0.782, 7.868e-5
-0.783, 7.875e-5
-0.784, 7.883e-5
-0.785, 7.890e-5
-0.786, 7.897e-5
-0.787, 7.905e-5
-0.788, 7.910e-5
-0.789, 7.915e-5
-0.790, 7.922e-5
-0.791, 7.927e-5
-0.792, 7.932e-5
-0.793, 7.937e-5
-0.794, 7.941e-5
-0.795, 7.945e-5
-0.796, 7.948e-5
-0.797, 7.951e-5
-0.798, 7.954e-5
-0.799, 7.955e-5
-0.800, 7.958e-5
-0.801, 7.960e-5
-0.802, 7.961e-5
-0.803, 7.963e-5
-0.804, 7.963e-5
-0.805, 7.963e-5
-0.806, 7.966e-5
-0.807, 7.965e-5
-0.808, 7.964e-5
-0.809, 7.963e-5
-0.810, 7.961e-5
-0.811, 7.962e-5
-0.812, 7.961e-5
-0.813, 7.958e-5
-0.814, 7.957e-5
-0.815, 7.954e-5
-0.816, 7.953e-5
-0.817, 7.951e-5
-0.818, 7.948e-5
-0.819, 7.949e-5
-0.820, 7.952e-5
-0.821, 7.944e-5
-0.822, 7.941e-5
-0.823, 7.936e-5
-0.824, 7.932e-5
-0.825, 7.927e-5
-0.826, 7.923e-5
-0.827, 7.921e-5
-0.828, 7.916e-5
-0.829, 7.911e-5
-0.830, 7.907e-5
-0.831, 7.902e-5
-0.832, 7.899e-5
-0.833, 7.895e-5
-0.834, 7.890e-5
-0.835, 7.886e-5
-0.836, 7.880e-5
-0.837, 7.877e-5
-0.838, 7.873e-5
-0.839, 7.866e-5
-0.840, 7.863e-5
-0.841, 7.859e-5
-0.842, 7.854e-5
-0.843, 7.850e-5
-0.844, 7.845e-5
-0.845, 7.840e-5
-0.846, 7.836e-5
-0.847, 7.832e-5
-0.848, 7.828e-5
-0.849, 7.824e-5
-0.850, 7.817e-5
-0.851, 7.814e-5
-0.852, 7.811e-5
-0.853, 7.806e-5
-0.854, 7.802e-5
-0.855, 7.797e-5
-0.856, 7.793e-5
-0.857, 7.791e-5
-0.858, 7.786e-5
-0.859, 7.782e-5
-0.860, 7.778e-5
-0.861, 7.775e-5
-0.862, 7.773e-5
-0.863, 7.767e-5
-0.864, 7.765e-5
-0.865, 7.762e-5
-0.866, 7.758e-5
-0.867, 7.757e-5
-0.868, 7.752e-5
-0.869, 7.749e-5
-0.870, 7.748e-5
-0.871, 7.748e-5
-0.872, 7.744e-5
-0.873, 7.741e-5
-0.874, 7.738e-5
-0.875, 7.736e-5
-0.876, 7.733e-5
-0.877, 7.733e-5
-0.878, 7.731e-5
-0.879, 7.728e-5
-0.880, 7.726e-5
-0.881, 7.727e-5
-0.882, 7.725e-5
-0.883, 7.725e-5
-0.884, 7.723e-5
-0.885, 7.721e-5
-0.886, 7.723e-5
-0.887, 7.722e-5
-0.888, 7.723e-5
-0.889, 7.723e-5
-0.890, 7.722e-5
-0.891, 7.724e-5
-0.892, 7.725e-5
-0.893, 7.725e-5
-0.894, 7.727e-5
-0.895, 7.728e-5
-0.896, 7.730e-5
-0.897, 7.734e-5
-0.898, 7.736e-5
-0.899, 7.739e-5
-0.900, 7.741e-5
-0.901, 7.745e-5
-0.902, 7.750e-5
-0.903, 7.753e-5
-0.904, 7.757e-5
-0.905, 7.763e-5
-0.906, 7.767e-5
-0.907, 7.774e-5
-0.908, 7.779e-5
-0.909, 7.785e-5
-0.910, 7.791e-5
-0.911, 7.797e-5
-0.912, 7.806e-5
-0.913, 7.812e-5
-0.914, 7.818e-5
-0.915, 7.826e-5
-0.916, 7.835e-5
-0.917, 7.844e-5
-0.918, 7.852e-5
-0.919, 7.859e-5
-0.920, 7.868e-5
-0.921, 7.878e-5
-0.922, 7.887e-5
-0.923, 7.897e-5
-0.924, 7.905e-5
-0.925, 7.913e-5
-0.926, 7.926e-5
-0.927, 7.936e-5
-0.928, 7.947e-5
-0.929, 7.956e-5
-0.930, 7.964e-5
-0.931, 7.978e-5
-0.932, 7.988e-5
-0.933, 8.000e-5
-0.934, 8.010e-5
-0.935, 8.021e-5
-0.936, 8.033e-5
-0.937, 8.046e-5
-0.938, 8.055e-5
-0.939, 8.069e-5
-0.940, 8.081e-5
-0.941, 8.093e-5
-0.942, 8.108e-5
-0.943, 8.119e-5
-0.944, 8.132e-5
-0.945, 8.146e-5
-0.946, 8.160e-5
-0.947, 8.176e-5
-0.948, 8.189e-5
-0.949, 8.202e-5
-0.950, 8.217e-5
-0.951, 8.234e-5
-0.952, 8.250e-5
-0.953, 8.266e-5
-0.954, 8.281e-5
-0.955, 8.298e-5
-0.956, 8.315e-5
-0.957, 8.332e-5
-0.958, 8.351e-5
-0.959, 8.366e-5
-0.960, 8.386e-5
-0.961, 8.407e-5
-0.962, 8.426e-5
-0.963, 8.445e-5
-0.964, 8.464e-5
-0.965, 8.486e-5
-0.966, 8.508e-5
-0.967, 8.529e-5
-0.968, 8.551e-5
-0.969, 8.573e-5
-0.970, 8.596e-5
-0.971, 8.622e-5
-0.972, 8.646e-5
-0.973, 8.674e-5
-0.974, 8.699e-5
-0.975, 8.723e-5
-0.976, 8.750e-5
-0.977, 8.778e-5
-0.978, 8.804e-5
-0.979, 8.833e-5
-0.980, 8.861e-5
-0.981, 8.891e-5
-0.982, 8.922e-5
-0.983, 8.951e-5
-0.984, 8.982e-5
-0.985, 9.014e-5
-0.986, 9.048e-5
-0.987, 9.081e-5
-0.988, 9.114e-5
-0.989, 9.147e-5
-0.990, 9.184e-5
-0.991, 9.220e-5
-0.992, 9.258e-5
-0.993, 9.295e-5
-0.994, 9.331e-5
-0.995, 9.371e-5
-0.996, 9.411e-5
-0.997, 9.453e-5
-0.998, 9.495e-5
-0.999, 9.535e-5
-1.000, 9.579e-5
-1.001, 9.623e-5
-1.002, 9.668e-5
-1.003, 9.712e-5
-1.004, 9.756e-5
-1.005, 9.804e-5
-1.006, 9.852e-5
-1.007, 9.900e-5
-1.008, 9.948e-5
-1.009, 9.997e-5
-1.010, 1.005e-4
-1.011, 1.010e-4
-1.012, 1.015e-4
-1.013, 1.020e-4
-1.014, 1.026e-4
-1.015, 1.031e-4
-1.016, 1.037e-4
-1.017, 1.042e-4
-1.018, 1.048e-4
-1.019, 1.054e-4
-1.020, 1.059e-4
-1.021, 1.065e-4
-1.022, 1.071e-4
-1.023, 1.077e-4
-1.024, 1.083e-4
-1.025, 1.089e-4
-1.026, 1.095e-4
-1.027, 1.102e-4
-1.028, 1.108e-4
-1.029, 1.114e-4
-1.030, 1.121e-4
-1.031, 1.127e-4
-1.032, 1.134e-4
-1.033, 1.140e-4
-1.034, 1.146e-4
-1.035, 1.153e-4
-1.036, 1.160e-4
-1.037, 1.167e-4
-1.038, 1.174e-4
-1.039, 1.180e-4
-1.040, 1.187e-4
-1.041, 1.194e-4
-1.042, 1.201e-4
-1.043, 1.208e-4
-1.044, 1.215e-4
-1.045, 1.222e-4
-1.046, 1.229e-4
-1.047, 1.236e-4
-1.048, 1.243e-4
-1.049, 1.250e-4
-1.050, 1.258e-4
-1.051, 1.265e-4
-1.052, 1.272e-4
-1.053, 1.279e-4
-1.054, 1.287e-4
-1.055, 1.294e-4
-1.056, 1.301e-4
-1.057, 1.309e-4
-1.058, 1.316e-4
-1.059, 1.323e-4
-1.060, 1.331e-4
-1.061, 1.338e-4
-1.062, 1.346e-4
-1.063, 1.353e-4
-1.064, 1.361e-4
-1.065, 1.368e-4
-1.066, 1.375e-4
-1.067, 1.383e-4
-1.068, 1.390e-4
-1.069, 1.398e-4
-1.070, 1.405e-4
-1.071, 1.413e-4
-1.072, 1.421e-4
-1.073, 1.428e-4
-1.074, 1.436e-4
-1.075, 1.444e-4
-1.076, 1.452e-4
-1.077, 1.459e-4
-1.078, 1.467e-4
-1.079, 1.475e-4
-1.080, 1.482e-4
-1.081, 1.490e-4
-1.082, 1.498e-4
-1.083, 1.506e-4
-1.084, 1.514e-4
-1.085, 1.522e-4
-1.086, 1.530e-4
-1.087, 1.538e-4
-1.088, 1.546e-4
-1.089, 1.554e-4
-1.090, 1.562e-4
-1.091, 1.570e-4
-1.092, 1.578e-4
-1.093, 1.586e-4
-1.094, 1.595e-4
-1.095, 1.603e-4
-1.096, 1.611e-4
-1.097, 1.620e-4
-1.098, 1.628e-4
-1.099, 1.637e-4
-1.100, 1.646e-4
-1.101, 1.654e-4
-1.102, 1.663e-4
-1.103, 1.672e-4
-1.104, 1.681e-4
-1.105, 1.690e-4
-1.106, 1.699e-4
-1.107, 1.708e-4
-1.108, 1.717e-4
-1.109, 1.726e-4
-1.110, 1.736e-4
-1.111, 1.746e-4
-1.112, 1.755e-4
-1.113, 1.765e-4
-1.114, 1.775e-4
-1.115, 1.785e-4
-1.116, 1.795e-4
-1.117, 1.806e-4
-1.118, 1.816e-4
-1.119, 1.826e-4
-1.120, 1.837e-4
-1.121, 1.848e-4
-1.122, 1.859e-4
-1.123, 1.871e-4
-1.124, 1.882e-4
-1.125, 1.894e-4
-1.126, 1.906e-4
-1.127, 1.918e-4
-1.128, 1.931e-4
-1.129, 1.943e-4
-1.130, 1.956e-4
-1.131, 1.969e-4
-1.132, 1.982e-4
-1.133, 1.996e-4
-1.134, 2.010e-4
-1.135, 2.024e-4
-1.136, 2.038e-4
-1.137, 2.053e-4
-1.138, 2.067e-4
-1.139, 2.083e-4
-1.140, 2.098e-4
-1.141, 2.113e-4
-1.142, 2.129e-4
-1.143, 2.145e-4
-1.144, 2.161e-4
-1.145, 2.177e-4
-1.146, 2.194e-4
-1.147, 2.211e-4
-1.148, 2.227e-4
-1.149, 2.244e-4
-1.150, 2.262e-4
-1.151, 2.279e-4
-1.152, 2.298e-4
-1.153, 2.316e-4
-1.154, 2.334e-4
-1.155, 2.352e-4
-1.156, 2.371e-4
-1.157, 2.390e-4
-1.158, 2.410e-4
-1.159, 2.429e-4
-1.160, 2.449e-4
-1.161, 2.469e-4
-1.162, 2.489e-4
-1.163, 2.510e-4
-1.164, 2.531e-4
-1.165, 2.552e-4
-1.166, 2.573e-4
-1.167, 2.594e-4
-1.168, 2.616e-4
-1.169, 2.638e-4
-1.170, 2.660e-4
-1.171, 2.683e-4
-1.172, 2.705e-4
-1.173, 2.728e-4
-1.174, 2.751e-4
-1.175, 2.775e-4
-1.176, 2.798e-4
-1.177, 2.822e-4
-1.178, 2.847e-4
-1.179, 2.872e-4
-1.180, 2.896e-4
-1.181, 2.921e-4
-1.182, 2.946e-4
-1.183, 2.972e-4
-1.184, 2.998e-4
-1.185, 3.024e-4
-1.186, 3.050e-4
-1.187, 3.077e-4
-1.188, 3.104e-4
-1.189, 3.131e-4
-1.190, 3.158e-4
-1.191, 3.186e-4
-1.192, 3.214e-4
-1.193, 3.242e-4
-1.194, 3.270e-4
-1.195, 3.298e-4
-1.196, 3.327e-4
-1.197, 3.356e-4
-1.198, 3.386e-4
-1.199, 3.415e-4
-1.200, 3.445e-4
-1.201, 3.475e-4
-1.202, 3.506e-4
-1.203, 3.537e-4
-1.204, 3.568e-4
-1.205, 3.600e-4
-1.206, 3.632e-4
-1.207, 3.664e-4
-1.208, 3.696e-4
-1.209, 3.729e-4
-1.210, 3.762e-4
-1.211, 3.795e-4
-1.212, 3.828e-4
-1.213, 3.862e-4
-1.214, 3.896e-4
-1.215, 3.930e-4
-1.216, 3.965e-4
-1.217, 3.999e-4
-1.218, 4.034e-4
-1.219, 4.069e-4
-1.220, 4.104e-4
-1.221, 4.140e-4
-1.222, 4.176e-4
-1.223, 4.212e-4
-1.224, 4.248e-4
-1.225, 4.284e-4
-1.226, 4.321e-4
-1.227, 4.358e-4
-1.228, 4.395e-4
-1.229, 4.434e-4
-1.230, 4.472e-4
-1.231, 4.510e-4
-1.232, 4.548e-4
-1.233, 4.586e-4
-1.234, 4.625e-4
-1.235, 4.664e-4
-1.236, 4.703e-4
-1.237, 4.742e-4
-1.238, 4.782e-4
-1.239, 4.821e-4
-1.240, 4.861e-4
-1.241, 4.901e-4
-1.242, 4.942e-4
-1.243, 4.983e-4
-1.244, 5.023e-4
-1.245, 5.064e-4
-1.246, 5.106e-4
-1.247, 5.148e-4
-1.248, 5.189e-4
-1.249, 5.231e-4
-1.250, 5.274e-4
-1.251, 5.317e-4
-1.252, 5.359e-4
-1.253, 5.402e-4
-1.254, 5.446e-4
-1.255, 5.489e-4
-1.256, 5.533e-4
-1.257, 5.577e-4
-1.258, 5.621e-4
-1.259, 5.665e-4
-1.260, 5.710e-4
-1.261, 5.755e-4
-1.262, 5.801e-4
-1.263, 5.846e-4
-1.264, 5.891e-4
-1.265, 5.937e-4
-1.266, 5.983e-4
-1.267, 6.030e-4
-1.268, 6.076e-4
-1.269, 6.123e-4
-1.270, 6.170e-4
-1.271, 6.217e-4
-1.272, 6.265e-4
-1.273, 6.313e-4
-1.274, 6.360e-4
-1.275, 6.409e-4
-1.276, 6.457e-4
-1.277, 6.506e-4
-1.278, 6.555e-4
-1.279, 6.604e-4
-1.280, 6.653e-4
-1.281, 6.704e-4
-1.282, 6.753e-4
-1.283, 6.803e-4
-1.284, 6.853e-4
-1.285, 6.904e-4
-1.286, 6.955e-4
-1.287, 7.006e-4
-1.288, 7.057e-4
-1.289, 7.109e-4
-1.290, 7.160e-4
-1.291, 7.213e-4
-1.292, 7.265e-4
-1.293, 7.317e-4
-1.294, 7.370e-4
-1.295, 7.423e-4
-1.296, 7.477e-4
-1.297, 7.530e-4
-1.298, 7.584e-4
-1.299, 7.638e-4
-1.300, 7.693e-4
-1.301, 7.747e-4
-1.302, 7.802e-4
-1.303, 7.857e-4
-1.304, 7.913e-4
-1.305, 7.968e-4
-1.306, 8.024e-4
-1.307, 8.080e-4
-1.308, 8.137e-4
-1.309, 8.193e-4
-1.310, 8.250e-4
-1.311, 8.307e-4
-1.312, 8.365e-4
-1.313, 8.422e-4
-1.314, 8.480e-4
-1.315, 8.539e-4
-1.316, 8.597e-4
-1.317, 8.656e-4
-1.318, 8.715e-4
-1.319, 8.774e-4
-1.320, 8.833e-4
-1.321, 8.893e-4
-1.322, 8.953e-4
-1.323, 9.013e-4
-1.324, 9.074e-4
-1.325, 9.135e-4
-1.326, 9.196e-4
-1.327, 9.257e-4
-1.328, 9.319e-4
-1.329, 9.381e-4
-1.330, 9.443e-4
-1.331, 9.506e-4
-1.332, 9.568e-4
-1.333, 9.631e-4
-1.334, 9.694e-4
-1.335, 9.757e-4
-1.336, 9.821e-4
-1.337, 9.885e-4
-1.338, 9.949e-4
-1.339, 1.001e-3
-1.340, 1.008e-3
-1.341, 1.011e-3
-1.342, 1.011e-3
-1.343, 1.011e-3
-1.344, 1.011e-3
-1.345, 1.011e-3
-1.346, 1.011e-3
-1.347, 1.011e-3
-1.348, 1.011e-3
-1.349, 1.011e-3
-1.350, 1.011e-3
-1.351, 1.011e-3
-1.352, 1.011e-3
-1.353, 1.011e-3
-1.354, 1.011e-3
-1.355, 1.011e-3
-1.356, 1.011e-3
-1.357, 1.011e-3
-1.358, 1.011e-3
-1.359, 1.011e-3
-1.360, 1.011e-3
-1.361, 1.011e-3
-1.362, 1.011e-3
-1.363, 1.011e-3
-1.364, 1.011e-3
-1.365, 1.011e-3
-1.366, 1.011e-3
-1.367, 1.011e-3
-1.368, 1.011e-3
-1.369, 1.011e-3
-1.370, 1.011e-3
-1.371, 1.011e-3
-1.372, 1.011e-3
-1.373, 1.011e-3
-1.374, 1.011e-3
-1.375, 1.011e-3
-1.376, 1.011e-3
-1.377, 1.011e-3
-1.378, 1.011e-3
-1.379, 1.011e-3
-1.380, 1.011e-3
-1.381, 1.011e-3
-1.382, 1.011e-3
-1.383, 1.011e-3
-1.384, 1.011e-3
-1.385, 1.011e-3
-1.386, 1.011e-3
-1.387, 1.011e-3
-1.388, 1.011e-3
-1.389, 1.011e-3
-1.390, 1.011e-3
-1.391, 1.011e-3
-1.392, 1.011e-3
-1.393, 1.011e-3
-1.394, 1.011e-3
-1.395, 1.011e-3
-1.396, 1.011e-3
-1.397, 1.011e-3
-1.398, 1.011e-3
-1.399, 1.011e-3
-1.400, 1.011e-3
-1.401, 1.011e-3
-1.402, 1.011e-3
-1.403, 1.011e-3
-1.404, 1.011e-3
-1.405, 1.011e-3
-1.406, 1.011e-3
-1.407, 1.011e-3
-1.408, 1.011e-3
-1.409, 1.011e-3
-1.410, 1.011e-3
-1.411, 1.011e-3
-1.412, 1.011e-3
-1.413, 1.011e-3
-1.414, 1.011e-3
-1.415, 1.011e-3
-1.416, 1.011e-3
-1.417, 1.011e-3
-1.418, 1.011e-3
-1.419, 1.011e-3
-1.420, 1.011e-3
-1.421, 1.011e-3
-1.422, 1.011e-3
-1.423, 1.011e-3
-1.424, 1.011e-3
-1.425, 1.011e-3
-1.426, 1.011e-3
-1.427, 1.011e-3
-1.428, 1.011e-3
-1.429, 1.011e-3
-1.430, 1.011e-3
-1.431, 1.011e-3
-1.432, 1.011e-3
-1.433, 1.011e-3
-1.434, 1.011e-3
-1.435, 1.011e-3
-1.436, 1.011e-3
-1.437, 1.011e-3
-1.438, 1.011e-3
-1.439, 1.011e-3
-1.440, 1.011e-3
-1.441, 1.011e-3
-1.442, 1.011e-3
-1.443, 1.011e-3
-1.444, 1.011e-3
-1.445, 1.011e-3
-1.446, 1.011e-3
-1.447, 1.011e-3
-1.448, 1.011e-3
-1.449, 1.011e-3
-1.450, 1.011e-3
-1.451, 1.011e-3
-1.452, 1.011e-3
-1.453, 1.011e-3
-1.454, 1.011e-3
-1.455, 1.011e-3
-1.456, 1.011e-3
-1.457, 1.011e-3
-1.458, 1.011e-3
-1.459, 1.011e-3
-1.460, 1.011e-3
-1.461, 1.011e-3
-1.462, 1.011e-3
-1.463, 1.011e-3
-1.464, 1.011e-3
-1.465, 1.011e-3
-1.466, 1.011e-3
-1.467, 1.011e-3
-1.468, 1.011e-3
-1.469, 1.011e-3
-1.470, 1.011e-3
-1.471, 1.011e-3
-1.472, 1.011e-3
-1.473, 1.011e-3
-1.474, 1.011e-3
-1.475, 1.011e-3
-1.476, 1.011e-3
-1.477, 1.011e-3
-1.478, 1.011e-3
-1.479, 1.011e-3
-1.480, 1.011e-3
-1.481, 1.011e-3
-1.482, 1.011e-3
-1.483, 1.011e-3
-1.484, 1.011e-3
-1.485, 1.011e-3
-1.486, 1.011e-3
-1.487, 1.011e-3
-1.488, 1.011e-3
-1.489, 1.011e-3
-1.490, 1.011e-3
-1.491, 1.011e-3
-1.492, 1.011e-3
-1.493, 1.011e-3
-1.494, 1.011e-3
-1.495, 1.011e-3
-1.496, 1.011e-3
-1.497, 1.011e-3
-1.498, 1.011e-3
-1.499, 1.011e-3
-1.500, 1.011e-3
-1.501, 1.011e-3
-1.502, 1.011e-3
-1.503, 1.011e-3
-1.504, 1.011e-3
-1.505, 1.011e-3
-1.506, 1.011e-3
-1.507, 1.011e-3
-1.508, 1.011e-3
-1.509, 1.011e-3
-1.510, 1.011e-3
-1.511, 1.011e-3
-1.512, 1.011e-3
-1.513, 1.011e-3
-1.514, 1.011e-3
-1.515, 1.011e-3
-1.516, 1.011e-3
-1.517, 1.011e-3
-1.518, 1.011e-3
-1.519, 1.011e-3
-1.520, 1.011e-3
-1.521, 1.011e-3
-1.522, 1.011e-3
-1.523, 1.011e-3
-1.524, 1.011e-3
-1.525, 1.011e-3
-1.526, 1.011e-3
-1.527, 1.011e-3
-1.528, 1.011e-3
-1.529, 1.011e-3
-1.530, 1.011e-3
-1.531, 1.011e-3
-1.532, 1.011e-3
-1.533, 1.011e-3
-1.534, 1.011e-3
-1.535, 1.011e-3
-1.536, 1.011e-3
-1.537, 1.011e-3
-1.538, 1.011e-3
-1.539, 1.011e-3
-1.540, 1.011e-3
-1.541, 1.011e-3
-1.542, 1.011e-3
-1.543, 1.011e-3
-1.544, 1.011e-3
-1.545, 1.011e-3
-1.546, 1.011e-3
-1.547, 1.011e-3
-1.548, 1.011e-3
-1.549, 1.011e-3
-1.550, 1.011e-3
-1.551, 1.011e-3
-1.552, 1.011e-3
-1.553, 1.011e-3
-1.554, 1.011e-3
-1.555, 1.011e-3
-1.556, 1.011e-3
-1.557, 1.011e-3
-1.558, 1.011e-3
-1.559, 1.011e-3
-1.560, 1.011e-3
-1.561, 1.011e-3
-1.562, 1.011e-3
-1.563, 1.011e-3
-1.564, 1.011e-3
-1.565, 1.011e-3
-1.566, 1.011e-3
-1.567, 1.011e-3
-1.568, 1.011e-3
-1.569, 1.011e-3
-1.570, 1.011e-3
-1.571, 1.011e-3
-1.572, 1.011e-3
-1.573, 1.011e-3
-1.574, 1.011e-3
-1.575, 1.011e-3
-1.576, 1.011e-3
-1.577, 1.011e-3
-1.578, 1.011e-3
-1.579, 1.011e-3
-1.580, 1.011e-3
-1.581, 1.011e-3
-1.582, 1.011e-3
-1.583, 1.011e-3
-1.584, 1.011e-3
-1.585, 1.011e-3
-1.586, 1.011e-3
-1.587, 1.011e-3
-1.588, 1.011e-3
-1.589, 1.011e-3
-1.590, 1.011e-3
-1.591, 1.011e-3
-1.592, 1.011e-3
-1.593, 1.011e-3
-1.594, 1.011e-3
-1.595, 1.011e-3
-1.596, 1.011e-3
-1.597, 1.011e-3
-1.598, 1.011e-3
-1.599, 1.011e-3
-1.600, 1.011e-3
-1.601, 1.011e-3
-1.602, 1.011e-3
-1.603, 1.011e-3
-1.604, 1.011e-3
-1.605, 1.011e-3
-1.606, 1.011e-3
-1.607, 1.011e-3
-1.608, 1.011e-3
-1.609, 1.011e-3
-1.610, 1.011e-3
-1.611, 1.011e-3
-1.612, 1.011e-3
-1.613, 1.011e-3
-1.614, 1.011e-3
-1.615, 1.011e-3
-1.616, 1.011e-3
-1.617, 1.011e-3
-1.618, 1.011e-3
-1.619, 1.011e-3
-1.620, 1.011e-3
-1.621, 1.011e-3
-1.622, 1.011e-3
-1.623, 1.011e-3
-1.624, 1.011e-3
-1.625, 1.011e-3
-1.626, 1.011e-3
-1.627, 1.011e-3
-1.628, 1.011e-3
-1.629, 1.011e-3
-1.630, 1.011e-3
-1.631, 1.011e-3
-1.632, 1.011e-3
-1.633, 1.011e-3
-1.634, 1.011e-3
-1.635, 1.011e-3
-1.636, 1.011e-3
-1.637, 1.011e-3
-1.638, 1.011e-3
-1.639, 1.011e-3
-1.640, 1.011e-3
-1.641, 1.011e-3
-1.642, 1.011e-3
-1.643, 1.011e-3
-1.644, 1.011e-3
-1.645, 1.011e-3
-1.646, 1.011e-3
-1.647, 1.011e-3
-1.648, 1.011e-3
-1.649, 1.011e-3
-1.650, 1.011e-3
-1.651, 1.011e-3
-1.652, 1.011e-3
-1.653, 1.011e-3
-1.654, 1.011e-3
-1.655, 1.011e-3
-1.656, 1.011e-3
-1.657, 1.011e-3
-1.658, 1.011e-3
-1.659, 1.011e-3
-1.660, 1.011e-3
-1.661, 1.011e-3
-1.662, 1.011e-3
-1.663, 1.011e-3
-1.664, 1.011e-3
-1.665, 1.011e-3
-1.666, 1.011e-3
-1.667, 1.011e-3
-1.668, 1.011e-3
-1.669, 1.011e-3
-1.670, 1.011e-3
-1.671, 1.011e-3
-1.672, 1.011e-3
-1.673, 1.011e-3
-1.674, 1.011e-3
-1.675, 1.011e-3
-1.676, 1.011e-3
-1.677, 1.011e-3
-1.678, 1.011e-3
-1.679, 1.011e-3
-1.680, 1.011e-3
-1.681, 1.011e-3
-1.682, 1.011e-3
-1.683, 1.011e-3
-1.684, 1.011e-3
-1.685, 1.011e-3
-1.686, 1.011e-3
-1.687, 1.011e-3
-1.688, 1.011e-3
-1.689, 1.011e-3
-1.690, 1.011e-3
-1.691, 1.011e-3
-1.692, 1.011e-3
-1.693, 1.011e-3
-1.694, 1.011e-3
-1.695, 1.011e-3
-1.696, 1.011e-3
-1.697, 1.011e-3
-1.698, 1.011e-3
-1.699, 1.011e-3
-1.700, 1.011e-3
-1.701, 1.011e-3
-1.702, 1.011e-3
-1.703, 1.011e-3
-1.704, 1.011e-3
-1.705, 1.011e-3
-1.706, 1.011e-3
-1.707, 1.011e-3
-1.708, 1.011e-3
-1.709, 1.011e-3
-1.710, 1.011e-3
-1.711, 1.011e-3
-1.712, 1.011e-3
-1.713, 1.011e-3
-1.714, 1.011e-3
-1.715, 1.011e-3
-1.716, 1.011e-3
-1.717, 1.011e-3
-1.718, 1.011e-3
-1.719, 1.011e-3
-1.720, 1.011e-3
-1.721, 1.011e-3
-1.722, 1.011e-3
-1.723, 1.011e-3
-1.724, 1.011e-3
-1.725, 1.011e-3
-1.726, 1.011e-3
-1.727, 1.011e-3
-1.728, 1.011e-3
-1.729, 1.011e-3
-1.730, 1.011e-3
-1.731, 1.011e-3
-1.732, 1.011e-3
-1.733, 1.011e-3
-1.734, 1.011e-3
-1.735, 1.011e-3
-1.736, 1.011e-3
-1.737, 1.011e-3
-1.738, 1.011e-3
-1.739, 1.011e-3
-1.740, 1.011e-3
-1.741, 1.011e-3
-1.742, 1.011e-3
-1.743, 1.011e-3
-1.744, 1.011e-3
-1.745, 1.011e-3
-1.746, 1.011e-3
-1.747, 1.011e-3
-1.748, 1.011e-3
-1.749, 1.011e-3
-1.750, 1.011e-3
-1.751, 1.011e-3
-1.752, 1.011e-3
-1.753, 1.011e-3
-1.754, 1.011e-3
-1.755, 1.011e-3
-1.756, 1.011e-3
-1.757, 1.011e-3
-1.758, 1.011e-3
-1.759, 1.011e-3
-1.760, 1.011e-3
-1.761, 1.011e-3
-1.762, 1.011e-3
-1.763, 1.011e-3
-1.764, 1.011e-3
-1.765, 1.011e-3
-1.766, 1.011e-3
-1.767, 1.011e-3
-1.768, 1.011e-3
-1.769, 1.011e-3
-1.770, 1.011e-3
-1.771, 1.011e-3
-1.772, 1.011e-3
-1.773, 1.011e-3
-1.774, 1.011e-3
-1.775, 1.011e-3
-1.776, 1.011e-3
-1.777, 1.011e-3
-1.778, 1.011e-3
-1.779, 1.011e-3
-1.780, 1.011e-3
-1.781, 1.011e-3
-1.782, 1.011e-3
-1.783, 1.011e-3
-1.784, 1.011e-3
-1.785, 1.011e-3
-1.786, 1.011e-3
-1.787, 1.011e-3
-1.788, 1.011e-3
-1.789, 1.011e-3
-1.790, 1.011e-3
-1.791, 1.011e-3
-1.792, 1.011e-3
-1.793, 1.011e-3
-1.794, 1.011e-3
-1.795, 1.011e-3
-1.796, 1.011e-3
-1.797, 1.011e-3
-1.798, 1.011e-3
-1.799, 1.011e-3
-1.800, 1.011e-3
-1.801, 1.011e-3
-1.802, 1.011e-3
-1.803, 1.011e-3
-1.804, 1.011e-3
-1.805, 1.011e-3
-1.806, 1.011e-3
-1.807, 1.011e-3
-1.808, 1.011e-3
-1.809, 1.011e-3
-1.810, 1.011e-3
-1.811, 1.011e-3
-1.812, 1.011e-3
-1.813, 1.011e-3
-1.814, 1.011e-3
-1.815, 1.011e-3
-1.816, 1.011e-3
-1.817, 1.011e-3
-1.818, 1.011e-3
-1.819, 1.011e-3
-1.820, 1.011e-3
-1.821, 1.011e-3
-1.822, 1.011e-3
-1.823, 1.011e-3
-1.824, 1.011e-3
-1.825, 1.011e-3
-1.826, 1.011e-3
-1.827, 1.011e-3
-1.828, 1.011e-3
-1.829, 1.011e-3
-1.830, 1.011e-3
-1.831, 1.011e-3
-1.832, 1.011e-3
-1.833, 1.011e-3
-1.834, 1.011e-3
-1.835, 1.011e-3
-1.836, 1.011e-3
-1.837, 1.011e-3
-1.838, 1.011e-3
-1.839, 1.011e-3
-1.840, 1.011e-3
-1.841, 1.011e-3
-1.842, 1.011e-3
-1.843, 1.011e-3
-1.844, 1.011e-3
-1.845, 1.011e-3
-1.846, 1.011e-3
-1.847, 1.011e-3
-1.848, 1.011e-3
-1.849, 1.011e-3
-1.850, 1.011e-3
-1.851, 1.011e-3
-1.852, 1.011e-3
-1.853, 1.011e-3
-1.854, 1.011e-3
-1.855, 1.011e-3
-1.856, 1.011e-3
-1.857, 1.011e-3
-1.858, 1.011e-3
-1.859, 1.011e-3
-1.860, 1.011e-3
-1.861, 1.011e-3
-1.862, 1.011e-3
-1.863, 1.011e-3
-1.864, 1.011e-3
-1.865, 1.011e-3
-1.866, 1.011e-3
-1.867, 1.011e-3
-1.868, 1.011e-3
-1.869, 1.011e-3
-1.870, 1.011e-3
-1.871, 1.011e-3
-1.872, 1.011e-3
-1.873, 1.011e-3
-1.874, 1.011e-3
-1.875, 1.011e-3
-1.876, 1.011e-3
-1.877, 1.011e-3
-1.878, 1.011e-3
-1.879, 1.011e-3
-1.880, 1.011e-3
-1.881, 1.011e-3
-1.882, 1.011e-3
-1.883, 1.011e-3
-1.884, 1.011e-3
-1.885, 1.011e-3
-1.886, 1.011e-3
-1.887, 1.011e-3
-1.888, 1.011e-3
-1.889, 1.011e-3
-1.890, 1.011e-3
-1.891, 1.011e-3
-1.892, 1.011e-3
-1.893, 1.011e-3
-1.894, 1.011e-3
-1.895, 1.011e-3
-1.896, 1.011e-3
-1.897, 1.011e-3
-1.898, 1.011e-3
-1.899, 1.011e-3
