Mar. 9, 2025   04:34:32
Cyclic Voltammetry
File: c:/users/guazh/data/banditlqround7_x0exp169_r20_3/2025-03-03-exp915\exp915-2025-03-09t04_29_38-h2koh\exp915_cv_50mvs_efin_-1400mv.bin
Data Source:  Experiment
Instrument Model:  CHI760E
Header: CV ran at 50 mVs
Note: 

Init E (V) = -1
High E (V) = -1
Low E (V) = -1.4
Final E (V) = -1
Init P/N = N
Scan Rate (V/s) = 0.05
Segment = 7
Sample Interval (V) = 0.001
Quiet Time (sec) = 60
Sensitivity (A/V) = 0.001
Comp R (ohm) = 1.4

Results:

Channel 1:
Segment 1:
Ep = -1.298V
ip = 3.019e-3A
Ah = 4.556e-3C

Segment 2:
Ep = -1.096V
ip = -1.854e-4A
Ah = -2.103e-4C

Segment 3:
Ep = -1.228V
ip = 4.925e-4A
Ah = 6.632e-4C

Segment 4:
Ep = -1.099V
ip = -9.087e-5A
Ah = -1.107e-4C

Segment 5:

Segment 6:

Segment 7:

Potential/V, Current/A

-1.000, 3.351e-5
-1.001, 5.424e-5
-1.002, 5.787e-5
-1.003, 5.909e-5
-1.004, 6.074e-5
-1.005, 6.214e-5
-1.006, 6.357e-5
-1.007, 6.427e-5
-1.008, 6.409e-5
-1.009, 6.530e-5
-1.010, 6.660e-5
-1.011, 6.695e-5
-1.012, 6.743e-5
-1.013, 6.707e-5
-1.014, 6.816e-5
-1.015, 6.957e-5
-1.016, 6.979e-5
-1.017, 6.975e-5
-1.018, 6.987e-5
-1.019, 7.064e-5
-1.020, 7.195e-5
-1.021, 7.233e-5
-1.022, 7.210e-5
-1.023, 7.204e-5
-1.024, 7.298e-5
-1.025, 7.393e-5
-1.026, 7.484e-5
-1.027, 7.432e-5
-1.028, 7.412e-5
-1.029, 7.498e-5
-1.030, 7.599e-5
-1.031, 7.677e-5
-1.032, 7.619e-5
-1.033, 7.625e-5
-1.034, 7.722e-5
-1.035, 7.792e-5
-1.036, 7.873e-5
-1.037, 7.852e-5
-1.038, 7.846e-5
-1.039, 7.970e-5
-1.040, 8.012e-5
-1.041, 8.071e-5
-1.042, 8.092e-5
-1.043, 8.058e-5
-1.044, 8.165e-5
-1.045, 8.253e-5
-1.046, 8.284e-5
-1.047, 8.340e-5
-1.048, 8.298e-5
-1.049, 8.386e-5
-1.050, 8.482e-5
-1.051, 8.513e-5
-1.052, 8.558e-5
-1.053, 8.543e-5
-1.054, 8.608e-5
-1.055, 8.739e-5
-1.056, 8.793e-5
-1.057, 8.800e-5
-1.058, 8.808e-5
-1.059, 8.868e-5
-1.060, 9.004e-5
-1.061, 9.070e-5
-1.062, 9.071e-5
-1.063, 9.077e-5
-1.064, 9.102e-5
-1.065, 9.278e-5
-1.066, 9.339e-5
-1.067, 9.335e-5
-1.068, 9.368e-5
-1.069, 9.421e-5
-1.070, 9.539e-5
-1.071, 9.641e-5
-1.072, 9.638e-5
-1.073, 9.660e-5
-1.074, 9.737e-5
-1.075, 9.914e-5
-1.076, 9.987e-5
-1.077, 9.939e-5
-1.078, 1.001e-4
-1.079, 1.009e-4
-1.080, 1.019e-4
-1.081, 1.028e-4
-1.082, 1.035e-4
-1.083, 1.034e-4
-1.084, 1.045e-4
-1.085, 1.060e-4
-1.086, 1.071e-4
-1.087, 1.078e-4
-1.088, 1.075e-4
-1.089, 1.089e-4
-1.090, 1.112e-4
-1.091, 1.117e-4
-1.092, 1.116e-4
-1.093, 1.125e-4
-1.094, 1.141e-4
-1.095, 1.157e-4
-1.096, 1.166e-4
-1.097, 1.174e-4
-1.098, 1.185e-4
-1.099, 1.197e-4
-1.100, 1.218e-4
-1.101, 1.231e-4
-1.102, 1.235e-4
-1.103, 1.248e-4
-1.104, 1.263e-4
-1.105, 1.286e-4
-1.106, 1.305e-4
-1.107, 1.313e-4
-1.108, 1.325e-4
-1.109, 1.347e-4
-1.110, 1.371e-4
-1.111, 1.395e-4
-1.112, 1.409e-4
-1.113, 1.429e-4
-1.114, 1.454e-4
-1.115, 1.479e-4
-1.116, 1.506e-4
-1.117, 1.520e-4
-1.118, 1.545e-4
-1.119, 1.579e-4
-1.120, 1.611e-4
-1.121, 1.639e-4
-1.122, 1.669e-4
-1.123, 1.690e-4
-1.124, 1.734e-4
-1.125, 1.772e-4
-1.126, 1.808e-4
-1.127, 1.840e-4
-1.128, 1.870e-4
-1.129, 1.914e-4
-1.130, 1.956e-4
-1.131, 1.992e-4
-1.132, 2.035e-4
-1.133, 2.068e-4
-1.134, 2.116e-4
-1.135, 2.177e-4
-1.136, 2.220e-4
-1.137, 2.267e-4
-1.138, 2.312e-4
-1.139, 2.365e-4
-1.140, 2.427e-4
-1.141, 2.482e-4
-1.142, 2.534e-4
-1.143, 2.586e-4
-1.144, 2.650e-4
-1.145, 2.717e-4
-1.146, 2.781e-4
-1.147, 2.840e-4
-1.148, 2.912e-4
-1.149, 2.985e-4
-1.150, 3.064e-4
-1.151, 3.133e-4
-1.152, 3.203e-4
-1.153, 3.281e-4
-1.154, 3.370e-4
-1.155, 3.460e-4
-1.156, 3.553e-4
-1.157, 3.632e-4
-1.158, 3.701e-4
-1.159, 3.794e-4
-1.160, 3.895e-4
-1.161, 4.003e-4
-1.162, 4.092e-4
-1.163, 4.176e-4
-1.164, 4.288e-4
-1.165, 4.381e-4
-1.166, 4.493e-4
-1.167, 4.607e-4
-1.168, 4.707e-4
-1.169, 4.826e-4
-1.170, 4.956e-4
-1.171, 5.080e-4
-1.172, 5.200e-4
-1.173, 5.318e-4
-1.174, 5.446e-4
-1.175, 5.583e-4
-1.176, 5.724e-4
-1.177, 5.870e-4
-1.178, 5.991e-4
-1.179, 6.166e-4
-1.180, 6.316e-4
-1.181, 6.459e-4
-1.182, 6.612e-4
-1.183, 6.762e-4
-1.184, 6.924e-4
-1.185, 7.089e-4
-1.186, 7.257e-4
-1.187, 7.422e-4
-1.188, 7.581e-4
-1.189, 7.740e-4
-1.190, 7.937e-4
-1.191, 8.142e-4
-1.192, 8.331e-4
-1.193, 8.514e-4
-1.194, 8.708e-4
-1.195, 8.919e-4
-1.196, 9.127e-4
-1.197, 9.309e-4
-1.198, 9.493e-4
-1.199, 9.712e-4
-1.200, 9.965e-4
-1.201, 1.018e-3
-1.202, 1.040e-3
-1.203, 1.062e-3
-1.204, 1.084e-3
-1.205, 1.107e-3
-1.206, 1.132e-3
-1.207, 1.151e-3
-1.208, 1.174e-3
-1.209, 1.202e-3
-1.210, 1.226e-3
-1.211, 1.246e-3
-1.212, 1.272e-3
-1.213, 1.298e-3
-1.214, 1.327e-3
-1.215, 1.356e-3
-1.216, 1.378e-3
-1.217, 1.405e-3
-1.218, 1.433e-3
-1.219, 1.461e-3
-1.220, 1.491e-3
-1.221, 1.517e-3
-1.222, 1.541e-3
-1.223, 1.567e-3
-1.224, 1.595e-3
-1.225, 1.620e-3
-1.226, 1.649e-3
-1.227, 1.679e-3
-1.228, 1.708e-3
-1.229, 1.739e-3
-1.230, 1.768e-3
-1.231, 1.797e-3
-1.232, 1.824e-3
-1.233, 1.848e-3
-1.234, 1.875e-3
-1.235, 1.907e-3
-1.236, 1.942e-3
-1.237, 1.975e-3
-1.238, 2.000e-3
-1.239, 2.025e-3
-1.240, 2.055e-3
-1.241, 2.091e-3
-1.242, 2.120e-3
-1.243, 2.143e-3
-1.244, 2.166e-3
-1.245, 2.188e-3
-1.246, 2.220e-3
-1.247, 2.257e-3
-1.248, 2.275e-3
-1.249, 2.298e-3
-1.250, 2.325e-3
-1.251, 2.349e-3
-1.252, 2.373e-3
-1.253, 2.395e-3
-1.254, 2.423e-3
-1.255, 2.450e-3
-1.256, 2.476e-3
-1.257, 2.502e-3
-1.258, 2.526e-3
-1.259, 2.551e-3
-1.260, 2.567e-3
-1.261, 2.581e-3
-1.262, 2.604e-3
-1.263, 2.631e-3
-1.264, 2.658e-3
-1.265, 2.682e-3
-1.266, 2.703e-3
-1.267, 2.722e-3
-1.268, 2.740e-3
-1.269, 2.762e-3
-1.270, 2.783e-3
-1.271, 2.800e-3
-1.272, 2.816e-3
-1.273, 2.833e-3
-1.274, 2.859e-3
-1.275, 2.880e-3
-1.276, 2.899e-3
-1.277, 2.914e-3
-1.278, 2.936e-3
-1.279, 2.958e-3
-1.280, 2.963e-3
-1.281, 2.983e-3
-1.282, 3.004e-3
-1.283, 3.008e-3
-1.284, 3.025e-3
-1.285, 3.046e-3
-1.286, 3.055e-3
-1.287, 3.071e-3
-1.288, 3.109e-3
-1.289, 3.132e-3
-1.290, 3.136e-3
-1.291, 3.141e-3
-1.292, 3.156e-3
-1.293, 3.175e-3
-1.294, 3.184e-3
-1.295, 3.198e-3
-1.296, 3.208e-3
-1.297, 3.216e-3
-1.298, 3.221e-3
-1.299, 3.220e-3
-1.300, 3.211e-3
-1.301, 3.216e-3
-1.302, 3.214e-3
-1.303, 3.198e-3
-1.304, 3.180e-3
-1.305, 3.173e-3
-1.306, 3.161e-3
-1.307, 3.142e-3
-1.308, 3.122e-3
-1.309, 3.103e-3
-1.310, 3.078e-3
-1.311, 3.053e-3
-1.312, 3.014e-3
-1.313, 2.976e-3
-1.314, 2.938e-3
-1.315, 2.900e-3
-1.316, 2.862e-3
-1.317, 2.834e-3
-1.318, 2.803e-3
-1.319, 2.774e-3
-1.320, 2.741e-3
-1.321, 2.712e-3
-1.322, 2.677e-3
-1.323, 2.639e-3
-1.324, 2.603e-3
-1.325, 2.575e-3
-1.326, 2.550e-3
-1.327, 2.515e-3
-1.328, 2.487e-3
-1.329, 2.474e-3
-1.330, 2.454e-3
-1.331, 2.432e-3
-1.332, 2.417e-3
-1.333, 2.402e-3
-1.334, 2.386e-3
-1.335, 2.372e-3
-1.336, 2.350e-3
-1.337, 2.348e-3
-1.338, 2.344e-3
-1.339, 2.325e-3
-1.340, 2.306e-3
-1.341, 2.305e-3
-1.342, 2.306e-3
-1.343, 2.300e-3
-1.344, 2.284e-3
-1.345, 2.265e-3
-1.346, 2.237e-3
-1.347, 2.226e-3
-1.348, 2.218e-3
-1.349, 2.204e-3
-1.350, 2.195e-3
-1.351, 2.195e-3
-1.352, 2.193e-3
-1.353, 2.181e-3
-1.354, 2.185e-3
-1.355, 2.174e-3
-1.356, 2.174e-3
-1.357, 2.200e-3
-1.358, 2.211e-3
-1.359, 2.221e-3
-1.360, 2.222e-3
-1.361, 2.236e-3
-1.362, 2.254e-3
-1.363, 2.243e-3
-1.364, 2.245e-3
-1.365, 2.260e-3
-1.366, 2.276e-3
-1.367, 2.277e-3
-1.368, 2.285e-3
-1.369, 2.323e-3
-1.370, 2.345e-3
-1.371, 2.361e-3
-1.372, 2.370e-3
-1.373, 2.395e-3
-1.374, 2.416e-3
-1.375, 2.434e-3
-1.376, 2.444e-3
-1.377, 2.466e-3
-1.378, 2.496e-3
-1.379, 2.526e-3
-1.380, 2.568e-3
-1.381, 2.579e-3
-1.382, 2.593e-3
-1.383, 2.608e-3
-1.384, 2.621e-3
-1.385, 2.649e-3
-1.386, 2.666e-3
-1.387, 2.693e-3
-1.388, 2.719e-3
-1.389, 2.743e-3
-1.390, 2.764e-3
-1.391, 2.795e-3
-1.392, 2.818e-3
-1.393, 2.838e-3
-1.394, 2.865e-3
-1.395, 2.901e-3
-1.396, 2.923e-3
-1.397, 2.953e-3
-1.398, 2.965e-3
-1.399, 2.995e-3
-1.400, 2.922e-3
-1.399, 2.838e-3
-1.398, 2.781e-3
-1.397, 2.711e-3
-1.396, 2.646e-3
-1.395, 2.587e-3
-1.394, 2.536e-3
-1.393, 2.463e-3
-1.392, 2.397e-3
-1.391, 2.339e-3
-1.390, 2.302e-3
-1.389, 2.277e-3
-1.388, 2.235e-3
-1.387, 2.189e-3
-1.386, 2.143e-3
-1.385, 2.083e-3
-1.384, 2.047e-3
-1.383, 2.012e-3
-1.382, 1.975e-3
-1.381, 1.942e-3
-1.380, 1.909e-3
-1.379, 1.864e-3
-1.378, 1.831e-3
-1.377, 1.795e-3
-1.376, 1.757e-3
-1.375, 1.724e-3
-1.374, 1.696e-3
-1.373, 1.673e-3
-1.372, 1.651e-3
-1.371, 1.639e-3
-1.370, 1.611e-3
-1.369, 1.577e-3
-1.368, 1.552e-3
-1.367, 1.526e-3
-1.366, 1.494e-3
-1.365, 1.468e-3
-1.364, 1.441e-3
-1.363, 1.416e-3
-1.362, 1.393e-3
-1.361, 1.366e-3
-1.360, 1.349e-3
-1.359, 1.326e-3
-1.358, 1.302e-3
-1.357, 1.277e-3
-1.356, 1.252e-3
-1.355, 1.230e-3
-1.354, 1.211e-3
-1.353, 1.185e-3
-1.352, 1.162e-3
-1.351, 1.141e-3
-1.350, 1.122e-3
-1.349, 1.102e-3
-1.348, 1.081e-3
-1.347, 1.062e-3
-1.346, 1.044e-3
-1.345, 1.028e-3
-1.344, 1.010e-3
-1.343, 9.915e-4
-1.342, 9.704e-4
-1.341, 9.526e-4
-1.340, 9.337e-4
-1.339, 9.171e-4
-1.338, 8.999e-4
-1.337, 8.824e-4
-1.336, 8.619e-4
-1.335, 8.448e-4
-1.334, 8.269e-4
-1.333, 8.103e-4
-1.332, 7.950e-4
-1.331, 7.788e-4
-1.330, 7.651e-4
-1.329, 7.516e-4
-1.328, 7.402e-4
-1.327, 7.269e-4
-1.326, 7.127e-4
-1.325, 6.974e-4
-1.324, 6.814e-4
-1.323, 6.663e-4
-1.322, 6.491e-4
-1.321, 6.349e-4
-1.320, 6.227e-4
-1.319, 6.086e-4
-1.318, 5.921e-4
-1.317, 5.788e-4
-1.316, 5.673e-4
-1.315, 5.547e-4
-1.314, 5.410e-4
-1.313, 5.264e-4
-1.312, 5.156e-4
-1.311, 5.016e-4
-1.310, 4.883e-4
-1.309, 4.768e-4
-1.308, 4.635e-4
-1.307, 4.527e-4
-1.306, 4.438e-4
-1.305, 4.328e-4
-1.304, 4.233e-4
-1.303, 4.104e-4
-1.302, 3.975e-4
-1.301, 3.879e-4
-1.300, 3.766e-4
-1.299, 3.652e-4
-1.298, 3.545e-4
-1.297, 3.437e-4
-1.296, 3.340e-4
-1.295, 3.237e-4
-1.294, 3.129e-4
-1.293, 3.027e-4
-1.292, 2.926e-4
-1.291, 2.828e-4
-1.290, 2.737e-4
-1.289, 2.649e-4
-1.288, 2.561e-4
-1.287, 2.455e-4
-1.286, 2.366e-4
-1.285, 2.293e-4
-1.284, 2.208e-4
-1.283, 2.117e-4
-1.282, 2.034e-4
-1.281, 1.949e-4
-1.280, 1.869e-4
-1.279, 1.795e-4
-1.278, 1.713e-4
-1.277, 1.629e-4
-1.276, 1.557e-4
-1.275, 1.489e-4
-1.274, 1.423e-4
-1.273, 1.340e-4
-1.272, 1.266e-4
-1.271, 1.195e-4
-1.270, 1.127e-4
-1.269, 1.066e-4
-1.268, 9.941e-5
-1.267, 9.272e-5
-1.266, 8.617e-5
-1.265, 8.040e-5
-1.264, 7.463e-5
-1.263, 6.776e-5
-1.262, 6.082e-5
-1.261, 5.543e-5
-1.260, 4.997e-5
-1.259, 4.427e-5
-1.258, 3.787e-5
-1.257, 3.128e-5
-1.256, 2.658e-5
-1.255, 2.158e-5
-1.254, 1.602e-5
-1.253, 1.020e-5
-1.252, 4.291e-6
-1.251, -5.813e-7
-1.250, -5.079e-6
-1.249, -1.067e-5
-1.248, -1.580e-5
-1.247, -2.126e-5
-1.246, -2.617e-5
-1.245, -2.990e-5
-1.244, -3.489e-5
-1.243, -4.014e-5
-1.242, -4.506e-5
-1.241, -5.004e-5
-1.240, -5.360e-5
-1.239, -5.816e-5
-1.238, -6.362e-5
-1.237, -6.841e-5
-1.236, -7.291e-5
-1.235, -7.672e-5
-1.234, -8.078e-5
-1.233, -8.594e-5
-1.232, -9.020e-5
-1.231, -9.388e-5
-1.230, -9.794e-5
-1.229, -1.036e-4
-1.228, -1.079e-4
-1.227, -1.126e-4
-1.226, -1.160e-4
-1.225, -1.199e-4
-1.224, -1.236e-4
-1.223, -1.279e-4
-1.222, -1.330e-4
-1.221, -1.364e-4
-1.220, -1.403e-4
-1.219, -1.442e-4
-1.218, -1.482e-4
-1.217, -1.531e-4
-1.216, -1.568e-4
-1.215, -1.601e-4
-1.214, -1.642e-4
-1.213, -1.684e-4
-1.212, -1.731e-4
-1.211, -1.772e-4
-1.210, -1.806e-4
-1.209, -1.850e-4
-1.208, -1.892e-4
-1.207, -1.935e-4
-1.206, -1.974e-4
-1.205, -2.009e-4
-1.204, -2.056e-4
-1.203, -2.112e-4
-1.202, -2.154e-4
-1.201, -2.196e-4
-1.200, -2.230e-4
-1.199, -2.269e-4
-1.198, -2.318e-4
-1.197, -2.374e-4
-1.196, -2.418e-4
-1.195, -2.464e-4
-1.194, -2.496e-4
-1.193, -2.549e-4
-1.192, -2.601e-4
-1.191, -2.661e-4
-1.190, -2.697e-4
-1.189, -2.744e-4
-1.188, -2.796e-4
-1.187, -2.851e-4
-1.186, -2.901e-4
-1.185, -2.945e-4
-1.184, -2.989e-4
-1.183, -3.049e-4
-1.182, -3.100e-4
-1.181, -3.153e-4
-1.180, -3.205e-4
-1.179, -3.267e-4
-1.178, -3.337e-4
-1.177, -3.401e-4
-1.176, -3.450e-4
-1.175, -3.508e-4
-1.174, -3.572e-4
-1.173, -3.627e-4
-1.172, -3.705e-4
-1.171, -3.750e-4
-1.170, -3.800e-4
-1.169, -3.868e-4
-1.168, -3.943e-4
-1.167, -4.017e-4
-1.166, -4.069e-4
-1.165, -4.120e-4
-1.164, -4.175e-4
-1.163, -4.262e-4
-1.162, -4.344e-4
-1.161, -4.410e-4
-1.160, -4.462e-4
-1.159, -4.530e-4
-1.158, -4.607e-4
-1.157, -4.668e-4
-1.156, -4.749e-4
-1.155, -4.818e-4
-1.154, -4.890e-4
-1.153, -4.966e-4
-1.152, -5.037e-4
-1.151, -5.108e-4
-1.150, -5.174e-4
-1.149, -5.243e-4
-1.148, -5.320e-4
-1.147, -5.394e-4
-1.146, -5.475e-4
-1.145, -5.554e-4
-1.144, -5.632e-4
-1.143, -5.701e-4
-1.142, -5.767e-4
-1.141, -5.834e-4
-1.140, -5.919e-4
-1.139, -5.998e-4
-1.138, -6.086e-4
-1.137, -6.166e-4
-1.136, -6.231e-4
-1.135, -6.298e-4
-1.134, -6.381e-4
-1.133, -6.473e-4
-1.132, -6.551e-4
-1.131, -6.629e-4
-1.130, -6.687e-4
-1.129, -6.748e-4
-1.128, -6.845e-4
-1.127, -6.924e-4
-1.126, -6.985e-4
-1.125, -7.049e-4
-1.124, -7.117e-4
-1.123, -7.191e-4
-1.122, -7.261e-4
-1.121, -7.349e-4
-1.120, -7.426e-4
-1.119, -7.473e-4
-1.118, -7.553e-4
-1.117, -7.632e-4
-1.116, -7.687e-4
-1.115, -7.747e-4
-1.114, -7.797e-4
-1.113, -7.858e-4
-1.112, -7.917e-4
-1.111, -7.984e-4
-1.110, -8.024e-4
-1.109, -8.041e-4
-1.108, -8.099e-4
-1.107, -8.148e-4
-1.106, -8.195e-4
-1.105, -8.251e-4
-1.104, -8.270e-4
-1.103, -8.296e-4
-1.102, -8.328e-4
-1.101, -8.340e-4
-1.100, -8.347e-4
-1.099, -8.365e-4
-1.098, -8.370e-4
-1.097, -8.398e-4
-1.096, -8.400e-4
-1.095, -8.393e-4
-1.094, -8.374e-4
-1.093, -8.338e-4
-1.092, -8.333e-4
-1.091, -8.325e-4
-1.090, -8.288e-4
-1.089, -8.238e-4
-1.088, -8.200e-4
-1.087, -8.163e-4
-1.086, -8.104e-4
-1.085, -8.041e-4
-1.084, -7.983e-4
-1.083, -7.907e-4
-1.082, -7.834e-4
-1.081, -7.749e-4
-1.080, -7.679e-4
-1.079, -7.640e-4
-1.078, -7.544e-4
-1.077, -7.450e-4
-1.076, -7.360e-4
-1.075, -7.258e-4
-1.074, -7.176e-4
-1.073, -7.090e-4
-1.072, -6.963e-4
-1.071, -6.852e-4
-1.070, -6.753e-4
-1.069, -6.640e-4
-1.068, -6.540e-4
-1.067, -6.452e-4
-1.066, -6.333e-4
-1.065, -6.219e-4
-1.064, -6.110e-4
-1.063, -6.024e-4
-1.062, -5.932e-4
-1.061, -5.836e-4
-1.060, -5.718e-4
-1.059, -5.628e-4
-1.058, -5.570e-4
-1.057, -5.492e-4
-1.056, -5.404e-4
-1.055, -5.330e-4
-1.054, -5.240e-4
-1.053, -5.165e-4
-1.052, -5.082e-4
-1.051, -5.004e-4
-1.050, -4.912e-4
-1.049, -4.832e-4
-1.048, -4.781e-4
-1.047, -4.717e-4
-1.046, -4.623e-4
-1.045, -4.524e-4
-1.044, -4.470e-4
-1.043, -4.422e-4
-1.042, -4.352e-4
-1.041, -4.274e-4
-1.040, -4.204e-4
-1.039, -4.149e-4
-1.038, -4.102e-4
-1.037, -4.044e-4
-1.036, -3.983e-4
-1.035, -3.913e-4
-1.034, -3.874e-4
-1.033, -3.833e-4
-1.032, -3.777e-4
-1.031, -3.725e-4
-1.030, -3.681e-4
-1.029, -3.629e-4
-1.028, -3.587e-4
-1.027, -3.542e-4
-1.026, -3.500e-4
-1.025, -3.436e-4
-1.024, -3.402e-4
-1.023, -3.366e-4
-1.022, -3.324e-4
-1.021, -3.273e-4
-1.020, -3.231e-4
-1.019, -3.202e-4
-1.018, -3.161e-4
-1.017, -3.129e-4
-1.016, -3.085e-4
-1.015, -3.051e-4
-1.014, -3.022e-4
-1.013, -2.993e-4
-1.012, -2.968e-4
-1.011, -2.934e-4
-1.010, -2.892e-4
-1.009, -2.877e-4
-1.008, -2.859e-4
-1.007, -2.833e-4
-1.006, -2.801e-4
-1.005, -2.772e-4
-1.004, -2.753e-4
-1.003, -2.744e-4
-1.002, -2.725e-4
-1.001, -2.706e-4
-1.000, -2.012e-4
-1.001, -1.496e-4
-1.002, -1.345e-4
-1.003, -1.250e-4
-1.004, -1.166e-4
-1.005, -1.091e-4
-1.006, -1.030e-4
-1.007, -9.771e-5
-1.008, -9.383e-5
-1.009, -8.858e-5
-1.010, -8.309e-5
-1.011, -7.923e-5
-1.012, -7.585e-5
-1.013, -7.272e-5
-1.014, -6.860e-5
-1.015, -6.436e-5
-1.016, -6.173e-5
-1.017, -5.935e-5
-1.018, -5.656e-5
-1.019, -5.353e-5
-1.020, -4.987e-5
-1.021, -4.757e-5
-1.022, -4.593e-5
-1.023, -4.362e-5
-1.024, -4.071e-5
-1.025, -3.841e-5
-1.026, -3.610e-5
-1.027, -3.504e-5
-1.028, -3.284e-5
-1.029, -3.058e-5
-1.030, -2.779e-5
-1.031, -2.565e-5
-1.032, -2.464e-5
-1.033, -2.254e-5
-1.034, -2.014e-5
-1.035, -1.774e-5
-1.036, -1.614e-5
-1.037, -1.533e-5
-1.038, -1.356e-5
-1.039, -1.119e-5
-1.040, -9.232e-6
-1.041, -7.196e-6
-1.042, -6.131e-6
-1.043, -4.566e-6
-1.044, -1.991e-6
-1.045, 4.716e-8
-1.046, 1.714e-6
-1.047, 3.030e-6
-1.048, 4.202e-6
-1.049, 6.584e-6
-1.050, 8.873e-6
-1.051, 9.967e-6
-1.052, 1.109e-5
-1.053, 1.223e-5
-1.054, 1.445e-5
-1.055, 1.686e-5
-1.056, 1.790e-5
-1.057, 1.893e-5
-1.058, 2.040e-5
-1.059, 2.221e-5
-1.060, 2.441e-5
-1.061, 2.543e-5
-1.062, 2.609e-5
-1.063, 2.750e-5
-1.064, 2.896e-5
-1.065, 3.133e-5
-1.066, 3.268e-5
-1.067, 3.363e-5
-1.068, 3.500e-5
-1.069, 3.697e-5
-1.070, 3.926e-5
-1.071, 4.094e-5
-1.072, 4.174e-5
-1.073, 4.331e-5
-1.074, 4.560e-5
-1.075, 4.798e-5
-1.076, 4.941e-5
-1.077, 5.005e-5
-1.078, 5.184e-5
-1.079, 5.449e-5
-1.080, 5.652e-5
-1.081, 5.847e-5
-1.082, 6.006e-5
-1.083, 6.162e-5
-1.084, 6.431e-5
-1.085, 6.674e-5
-1.086, 6.866e-5
-1.087, 7.018e-5
-1.088, 7.181e-5
-1.089, 7.496e-5
-1.090, 7.811e-5
-1.091, 8.013e-5
-1.092, 8.198e-5
-1.093, 8.403e-5
-1.094, 8.716e-5
-1.095, 9.070e-5
-1.096, 9.299e-5
-1.097, 9.513e-5
-1.098, 9.800e-5
-1.099, 1.012e-4
-1.100, 1.047e-4
-1.101, 1.075e-4
-1.102, 1.100e-4
-1.103, 1.133e-4
-1.104, 1.167e-4
-1.105, 1.209e-4
-1.106, 1.240e-4
-1.107, 1.267e-4
-1.108, 1.302e-4
-1.109, 1.342e-4
-1.110, 1.383e-4
-1.111, 1.415e-4
-1.112, 1.447e-4
-1.113, 1.491e-4
-1.114, 1.538e-4
-1.115, 1.583e-4
-1.116, 1.623e-4
-1.117, 1.656e-4
-1.118, 1.699e-4
-1.119, 1.746e-4
-1.120, 1.793e-4
-1.121, 1.837e-4
-1.122, 1.877e-4
-1.123, 1.919e-4
-1.124, 1.965e-4
-1.125, 2.015e-4
-1.126, 2.065e-4
-1.127, 2.117e-4
-1.128, 2.154e-4
-1.129, 2.208e-4
-1.130, 2.267e-4
-1.131, 2.312e-4
-1.132, 2.368e-4
-1.133, 2.415e-4
-1.134, 2.470e-4
-1.135, 2.530e-4
-1.136, 2.580e-4
-1.137, 2.631e-4
-1.138, 2.684e-4
-1.139, 2.732e-4
-1.140, 2.795e-4
-1.141, 2.855e-4
-1.142, 2.908e-4
-1.143, 2.966e-4
-1.144, 3.032e-4
-1.145, 3.102e-4
-1.146, 3.156e-4
-1.147, 3.198e-4
-1.148, 3.259e-4
-1.149, 3.335e-4
-1.150, 3.403e-4
-1.151, 3.454e-4
-1.152, 3.499e-4
-1.153, 3.560e-4
-1.154, 3.638e-4
-1.155, 3.699e-4
-1.156, 3.774e-4
-1.157, 3.843e-4
-1.158, 3.912e-4
-1.159, 3.980e-4
-1.160, 4.050e-4
-1.161, 4.118e-4
-1.162, 4.185e-4
-1.163, 4.248e-4
-1.164, 4.316e-4
-1.165, 4.378e-4
-1.166, 4.433e-4
-1.167, 4.509e-4
-1.168, 4.597e-4
-1.169, 4.675e-4
-1.170, 4.727e-4
-1.171, 4.805e-4
-1.172, 4.873e-4
-1.173, 4.936e-4
-1.174, 5.012e-4
-1.175, 5.092e-4
-1.176, 5.164e-4
-1.177, 5.237e-4
-1.178, 5.311e-4
-1.179, 5.390e-4
-1.180, 5.474e-4
-1.181, 5.551e-4
-1.182, 5.613e-4
-1.183, 5.683e-4
-1.184, 5.755e-4
-1.185, 5.841e-4
-1.186, 5.902e-4
-1.187, 5.959e-4
-1.188, 6.038e-4
-1.189, 6.132e-4
-1.190, 6.209e-4
-1.191, 6.267e-4
-1.192, 6.332e-4
-1.193, 6.401e-4
-1.194, 6.475e-4
-1.195, 6.545e-4
-1.196, 6.627e-4
-1.197, 6.679e-4
-1.198, 6.762e-4
-1.199, 6.824e-4
-1.200, 6.867e-4
-1.201, 6.920e-4
-1.202, 6.982e-4
-1.203, 7.029e-4
-1.204, 7.106e-4
-1.205, 7.138e-4
-1.206, 7.202e-4
-1.207, 7.253e-4
-1.208, 7.306e-4
-1.209, 7.364e-4
-1.210, 7.420e-4
-1.211, 7.454e-4
-1.212, 7.488e-4
-1.213, 7.519e-4
-1.214, 7.571e-4
-1.215, 7.617e-4
-1.216, 7.643e-4
-1.217, 7.666e-4
-1.218, 7.697e-4
-1.219, 7.700e-4
-1.220, 7.722e-4
-1.221, 7.755e-4
-1.222, 7.769e-4
-1.223, 7.766e-4
-1.224, 7.773e-4
-1.225, 7.793e-4
-1.226, 7.805e-4
-1.227, 7.807e-4
-1.228, 7.824e-4
-1.229, 7.821e-4
-1.230, 7.800e-4
-1.231, 7.801e-4
-1.232, 7.792e-4
-1.233, 7.779e-4
-1.234, 7.768e-4
-1.235, 7.759e-4
-1.236, 7.733e-4
-1.237, 7.702e-4
-1.238, 7.680e-4
-1.239, 7.661e-4
-1.240, 7.630e-4
-1.241, 7.607e-4
-1.242, 7.569e-4
-1.243, 7.539e-4
-1.244, 7.498e-4
-1.245, 7.470e-4
-1.246, 7.461e-4
-1.247, 7.437e-4
-1.248, 7.409e-4
-1.249, 7.381e-4
-1.250, 7.362e-4
-1.251, 7.343e-4
-1.252, 7.312e-4
-1.253, 7.273e-4
-1.254, 7.255e-4
-1.255, 7.239e-4
-1.256, 7.215e-4
-1.257, 7.194e-4
-1.258, 7.165e-4
-1.259, 7.145e-4
-1.260, 7.145e-4
-1.261, 7.127e-4
-1.262, 7.100e-4
-1.263, 7.095e-4
-1.264, 7.075e-4
-1.265, 7.072e-4
-1.266, 7.073e-4
-1.267, 7.067e-4
-1.268, 7.073e-4
-1.269, 7.058e-4
-1.270, 7.052e-4
-1.271, 7.058e-4
-1.272, 7.049e-4
-1.273, 7.050e-4
-1.274, 7.059e-4
-1.275, 7.075e-4
-1.276, 7.062e-4
-1.277, 7.039e-4
-1.278, 7.056e-4
-1.279, 7.076e-4
-1.280, 7.094e-4
-1.281, 7.084e-4
-1.282, 7.096e-4
-1.283, 7.113e-4
-1.284, 7.141e-4
-1.285, 7.156e-4
-1.286, 7.179e-4
-1.287, 7.178e-4
-1.288, 7.198e-4
-1.289, 7.208e-4
-1.290, 7.225e-4
-1.291, 7.212e-4
-1.292, 7.234e-4
-1.293, 7.293e-4
-1.294, 7.324e-4
-1.295, 7.367e-4
-1.296, 7.414e-4
-1.297, 7.462e-4
-1.298, 7.523e-4
-1.299, 7.560e-4
-1.300, 7.620e-4
-1.301, 7.660e-4
-1.302, 7.709e-4
-1.303, 7.769e-4
-1.304, 7.862e-4
-1.305, 7.913e-4
-1.306, 7.969e-4
-1.307, 8.058e-4
-1.308, 8.178e-4
-1.309, 8.233e-4
-1.310, 8.291e-4
-1.311, 8.418e-4
-1.312, 8.522e-4
-1.313, 8.612e-4
-1.314, 8.719e-4
-1.315, 8.839e-4
-1.316, 8.919e-4
-1.317, 9.017e-4
-1.318, 9.097e-4
-1.319, 9.210e-4
-1.320, 9.301e-4
-1.321, 9.431e-4
-1.322, 9.549e-4
-1.323, 9.651e-4
-1.324, 9.771e-4
-1.325, 9.854e-4
-1.326, 9.970e-4
-1.327, 1.007e-3
-1.328, 1.019e-3
-1.329, 1.033e-3
-1.330, 1.046e-3
-1.331, 1.061e-3
-1.332, 1.077e-3
-1.333, 1.091e-3
-1.334, 1.105e-3
-1.335, 1.116e-3
-1.336, 1.127e-3
-1.337, 1.142e-3
-1.338, 1.154e-3
-1.339, 1.163e-3
-1.340, 1.180e-3
-1.341, 1.197e-3
-1.342, 1.215e-3
-1.343, 1.230e-3
-1.344, 1.243e-3
-1.345, 1.258e-3
-1.346, 1.279e-3
-1.347, 1.292e-3
-1.348, 1.309e-3
-1.349, 1.330e-3
-1.350, 1.343e-3
-1.351, 1.359e-3
-1.352, 1.375e-3
-1.353, 1.394e-3
-1.354, 1.412e-3
-1.355, 1.429e-3
-1.356, 1.447e-3
-1.357, 1.466e-3
-1.358, 1.485e-3
-1.359, 1.505e-3
-1.360, 1.524e-3
-1.361, 1.541e-3
-1.362, 1.554e-3
-1.363, 1.578e-3
-1.364, 1.599e-3
-1.365, 1.614e-3
-1.366, 1.631e-3
-1.367, 1.654e-3
-1.368, 1.669e-3
-1.369, 1.696e-3
-1.370, 1.712e-3
-1.371, 1.720e-3
-1.372, 1.738e-3
-1.373, 1.756e-3
-1.374, 1.771e-3
-1.375, 1.791e-3
-1.376, 1.819e-3
-1.377, 1.837e-3
-1.378, 1.853e-3
-1.379, 1.874e-3
-1.380, 1.900e-3
-1.381, 1.920e-3
-1.382, 1.938e-3
-1.383, 1.966e-3
-1.384, 1.989e-3
-1.385, 2.008e-3
-1.386, 2.029e-3
-1.387, 2.046e-3
-1.388, 2.062e-3
-1.389, 2.093e-3
-1.390, 2.111e-3
-1.391, 2.143e-3
-1.392, 2.166e-3
-1.393, 2.194e-3
-1.394, 2.220e-3
-1.395, 2.251e-3
-1.396, 2.275e-3
-1.397, 2.311e-3
-1.398, 2.335e-3
-1.399, 2.356e-3
-1.400, 2.302e-3
-1.399, 2.226e-3
-1.398, 2.170e-3
-1.397, 2.125e-3
-1.396, 2.089e-3
-1.395, 2.040e-3
-1.394, 2.004e-3
-1.393, 1.973e-3
-1.392, 1.942e-3
-1.391, 1.901e-3
-1.390, 1.873e-3
-1.389, 1.839e-3
-1.388, 1.798e-3
-1.387, 1.774e-3
-1.386, 1.741e-3
-1.385, 1.712e-3
-1.384, 1.687e-3
-1.383, 1.659e-3
-1.382, 1.630e-3
-1.381, 1.598e-3
-1.380, 1.568e-3
-1.379, 1.542e-3
-1.378, 1.513e-3
-1.377, 1.490e-3
-1.376, 1.465e-3
-1.375, 1.428e-3
-1.374, 1.401e-3
-1.373, 1.378e-3
-1.372, 1.355e-3
-1.371, 1.322e-3
-1.370, 1.292e-3
-1.369, 1.275e-3
-1.368, 1.255e-3
-1.367, 1.233e-3
-1.366, 1.208e-3
-1.365, 1.186e-3
-1.364, 1.161e-3
-1.363, 1.134e-3
-1.362, 1.110e-3
-1.361, 1.087e-3
-1.360, 1.064e-3
-1.359, 1.036e-3
-1.358, 1.016e-3
-1.357, 9.940e-4
-1.356, 9.756e-4
-1.355, 9.565e-4
-1.354, 9.368e-4
-1.353, 9.138e-4
-1.352, 8.911e-4
-1.351, 8.726e-4
-1.350, 8.534e-4
-1.349, 8.364e-4
-1.348, 8.179e-4
-1.347, 8.030e-4
-1.346, 7.867e-4
-1.345, 7.664e-4
-1.344, 7.518e-4
-1.343, 7.334e-4
-1.342, 7.175e-4
-1.341, 7.002e-4
-1.340, 6.826e-4
-1.339, 6.670e-4
-1.338, 6.531e-4
-1.337, 6.350e-4
-1.336, 6.201e-4
-1.335, 6.080e-4
-1.334, 5.903e-4
-1.333, 5.721e-4
-1.332, 5.563e-4
-1.331, 5.435e-4
-1.330, 5.327e-4
-1.329, 5.204e-4
-1.328, 5.079e-4
-1.327, 4.933e-4
-1.326, 4.803e-4
-1.325, 4.687e-4
-1.324, 4.572e-4
-1.323, 4.447e-4
-1.322, 4.309e-4
-1.321, 4.195e-4
-1.320, 4.086e-4
-1.319, 3.976e-4
-1.318, 3.870e-4
-1.317, 3.743e-4
-1.316, 3.628e-4
-1.315, 3.527e-4
-1.314, 3.407e-4
-1.313, 3.282e-4
-1.312, 3.199e-4
-1.311, 3.090e-4
-1.310, 2.993e-4
-1.309, 2.902e-4
-1.308, 2.804e-4
-1.307, 2.698e-4
-1.306, 2.604e-4
-1.305, 2.510e-4
-1.304, 2.413e-4
-1.303, 2.316e-4
-1.302, 2.228e-4
-1.301, 2.146e-4
-1.300, 2.056e-4
-1.299, 1.961e-4
-1.298, 1.870e-4
-1.297, 1.790e-4
-1.296, 1.735e-4
-1.295, 1.676e-4
-1.294, 1.604e-4
-1.293, 1.529e-4
-1.292, 1.456e-4
-1.291, 1.385e-4
-1.290, 1.326e-4
-1.289, 1.272e-4
-1.288, 1.212e-4
-1.287, 1.145e-4
-1.286, 1.082e-4
-1.285, 1.025e-4
-1.284, 9.580e-5
-1.283, 8.940e-5
-1.282, 8.335e-5
-1.281, 7.772e-5
-1.280, 7.165e-5
-1.279, 6.585e-5
-1.278, 5.954e-5
-1.277, 5.437e-5
-1.276, 4.949e-5
-1.275, 4.606e-5
-1.274, 4.108e-5
-1.273, 3.503e-5
-1.272, 3.009e-5
-1.271, 2.577e-5
-1.270, 2.127e-5
-1.269, 1.634e-5
-1.268, 1.084e-5
-1.267, 6.354e-6
-1.266, 2.733e-6
-1.265, -1.271e-6
-1.264, -5.450e-6
-1.263, -9.978e-6
-1.262, -1.433e-5
-1.261, -1.730e-5
-1.260, -2.112e-5
-1.259, -2.547e-5
-1.258, -2.947e-5
-1.257, -3.347e-5
-1.256, -3.614e-5
-1.255, -3.887e-5
-1.254, -4.303e-5
-1.253, -4.637e-5
-1.252, -5.003e-5
-1.251, -5.286e-5
-1.250, -5.533e-5
-1.249, -5.953e-5
-1.248, -6.286e-5
-1.247, -6.594e-5
-1.246, -6.846e-5
-1.245, -7.064e-5
-1.244, -7.409e-5
-1.243, -7.769e-5
-1.242, -8.020e-5
-1.241, -8.261e-5
-1.240, -8.512e-5
-1.239, -8.818e-5
-1.238, -9.181e-5
-1.237, -9.375e-5
-1.236, -9.600e-5
-1.235, -9.853e-5
-1.234, -1.010e-4
-1.233, -1.048e-4
-1.232, -1.068e-4
-1.231, -1.085e-4
-1.230, -1.110e-4
-1.229, -1.151e-4
-1.228, -1.176e-4
-1.227, -1.198e-4
-1.226, -1.212e-4
-1.225, -1.232e-4
-1.224, -1.257e-4
-1.223, -1.290e-4
-1.222, -1.317e-4
-1.221, -1.334e-4
-1.220, -1.354e-4
-1.219, -1.386e-4
-1.218, -1.420e-4
-1.217, -1.442e-4
-1.216, -1.455e-4
-1.215, -1.477e-4
-1.214, -1.508e-4
-1.213, -1.534e-4
-1.212, -1.558e-4
-1.211, -1.580e-4
-1.210, -1.601e-4
-1.209, -1.635e-4
-1.208, -1.657e-4
-1.207, -1.685e-4
-1.206, -1.705e-4
-1.205, -1.722e-4
-1.204, -1.756e-4
-1.203, -1.788e-4
-1.202, -1.812e-4
-1.201, -1.837e-4
-1.200, -1.855e-4
-1.199, -1.881e-4
-1.198, -1.921e-4
-1.197, -1.950e-4
-1.196, -1.976e-4
-1.195, -2.002e-4
-1.194, -2.026e-4
-1.193, -2.062e-4
-1.192, -2.086e-4
-1.191, -2.108e-4
-1.190, -2.137e-4
-1.189, -2.166e-4
-1.188, -2.202e-4
-1.187, -2.234e-4
-1.186, -2.258e-4
-1.185, -2.284e-4
-1.184, -2.323e-4
-1.183, -2.358e-4
-1.182, -2.386e-4
-1.181, -2.414e-4
-1.180, -2.448e-4
-1.179, -2.479e-4
-1.178, -2.522e-4
-1.177, -2.559e-4
-1.176, -2.583e-4
-1.175, -2.614e-4
-1.174, -2.658e-4
-1.173, -2.701e-4
-1.172, -2.738e-4
-1.171, -2.768e-4
-1.170, -2.795e-4
-1.169, -2.837e-4
-1.168, -2.872e-4
-1.167, -2.917e-4
-1.166, -2.954e-4
-1.165, -2.985e-4
-1.164, -3.039e-4
-1.163, -3.092e-4
-1.162, -3.114e-4
-1.161, -3.153e-4
-1.160, -3.195e-4
-1.159, -3.250e-4
-1.158, -3.300e-4
-1.157, -3.318e-4
-1.156, -3.360e-4
-1.155, -3.403e-4
-1.154, -3.451e-4
-1.153, -3.498e-4
-1.152, -3.535e-4
-1.151, -3.582e-4
-1.150, -3.615e-4
-1.149, -3.651e-4
-1.148, -3.714e-4
-1.147, -3.771e-4
-1.146, -3.796e-4
-1.145, -3.829e-4
-1.144, -3.875e-4
-1.143, -3.935e-4
-1.142, -3.969e-4
-1.141, -4.002e-4
-1.140, -4.052e-4
-1.139, -4.101e-4
-1.138, -4.151e-4
-1.137, -4.183e-4
-1.136, -4.214e-4
-1.135, -4.257e-4
-1.134, -4.310e-4
-1.133, -4.338e-4
-1.132, -4.385e-4
-1.131, -4.435e-4
-1.130, -4.473e-4
-1.129, -4.506e-4
-1.128, -4.543e-4
-1.127, -4.593e-4
-1.126, -4.617e-4
-1.125, -4.649e-4
-1.124, -4.702e-4
-1.123, -4.751e-4
-1.122, -4.789e-4
-1.121, -4.811e-4
-1.120, -4.844e-4
-1.119, -4.900e-4
-1.118, -4.933e-4
-1.117, -4.959e-4
-1.116, -4.964e-4
-1.115, -4.990e-4
-1.114, -5.049e-4
-1.113, -5.077e-4
-1.112, -5.091e-4
-1.111, -5.104e-4
-1.110, -5.119e-4
-1.109, -5.155e-4
-1.108, -5.162e-4
-1.107, -5.187e-4
-1.106, -5.215e-4
-1.105, -5.227e-4
-1.104, -5.232e-4
-1.103, -5.245e-4
-1.102, -5.257e-4
-1.101, -5.247e-4
-1.100, -5.249e-4
-1.099, -5.260e-4
-1.098, -5.249e-4
-1.097, -5.244e-4
-1.096, -5.242e-4
-1.095, -5.225e-4
-1.094, -5.224e-4
-1.093, -5.212e-4
-1.092, -5.204e-4
-1.091, -5.164e-4
-1.090, -5.120e-4
-1.089, -5.097e-4
-1.088, -5.091e-4
-1.087, -5.068e-4
-1.086, -5.033e-4
-1.085, -4.977e-4
-1.084, -4.933e-4
-1.083, -4.882e-4
-1.082, -4.834e-4
-1.081, -4.776e-4
-1.080, -4.708e-4
-1.079, -4.656e-4
-1.078, -4.603e-4
-1.077, -4.540e-4
-1.076, -4.462e-4
-1.075, -4.384e-4
-1.074, -4.312e-4
-1.073, -4.267e-4
-1.072, -4.184e-4
-1.071, -4.106e-4
-1.070, -4.034e-4
-1.069, -3.958e-4
-1.068, -3.899e-4
-1.067, -3.825e-4
-1.066, -3.745e-4
-1.065, -3.682e-4
-1.064, -3.610e-4
-1.063, -3.544e-4
-1.062, -3.485e-4
-1.061, -3.418e-4
-1.060, -3.363e-4
-1.059, -3.330e-4
-1.058, -3.275e-4
-1.057, -3.224e-4
-1.056, -3.164e-4
-1.055, -3.105e-4
-1.054, -3.058e-4
-1.053, -3.023e-4
-1.052, -2.983e-4
-1.051, -2.923e-4
-1.050, -2.870e-4
-1.049, -2.838e-4
-1.048, -2.803e-4
-1.047, -2.755e-4
-1.046, -2.715e-4
-1.045, -2.676e-4
-1.044, -2.663e-4
-1.043, -2.637e-4
-1.042, -2.600e-4
-1.041, -2.569e-4
-1.040, -2.526e-4
-1.039, -2.493e-4
-1.038, -2.487e-4
-1.037, -2.462e-4
-1.036, -2.439e-4
-1.035, -2.417e-4
-1.034, -2.395e-4
-1.033, -2.382e-4
-1.032, -2.343e-4
-1.031, -2.315e-4
-1.030, -2.289e-4
-1.029, -2.261e-4
-1.028, -2.242e-4
-1.027, -2.220e-4
-1.026, -2.196e-4
-1.025, -2.172e-4
-1.024, -2.144e-4
-1.023, -2.124e-4
-1.022, -2.110e-4
-1.021, -2.084e-4
-1.020, -2.065e-4
-1.019, -2.059e-4
-1.018, -2.039e-4
-1.017, -2.022e-4
-1.016, -2.003e-4
-1.015, -1.983e-4
-1.014, -1.974e-4
-1.013, -1.967e-4
-1.012, -1.958e-4
-1.011, -1.938e-4
-1.010, -1.917e-4
-1.009, -1.916e-4
-1.008, -1.912e-4
-1.007, -1.899e-4
-1.006, -1.887e-4
-1.005, -1.871e-4
-1.004, -1.870e-4
-1.003, -1.874e-4
-1.002, -1.865e-4
-1.001, -1.851e-4
-1.000, -1.143e-4
-1.001, -5.917e-5
-1.002, -4.440e-5
-1.003, -3.652e-5
-1.004, -2.959e-5
-1.005, -2.501e-5
-1.006, -2.153e-5
-1.007, -1.826e-5
-1.008, -1.481e-5
-1.009, -1.146e-5
-1.010, -9.026e-6
-1.011, -7.459e-6
-1.012, -5.333e-6
-1.013, -2.661e-6
-1.014, 3.500e-7
-1.015, 2.858e-6
-1.016, 4.092e-6
-1.017, 5.492e-6
-1.018, 7.682e-6
-1.019, 9.767e-6
-1.020, 1.168e-5
-1.021, 1.252e-5
-1.022, 1.352e-5
-1.023, 1.536e-5
-1.024, 1.760e-5
-1.025, 1.840e-5
-1.026, 1.949e-5
-1.027, 1.972e-5
-1.028, 2.199e-5
-1.029, 2.325e-5
-1.030, 2.460e-5
-1.031, 2.537e-5
-1.032, 2.554e-5
-1.033, 2.705e-5
-1.034, 2.852e-5
-1.035, 2.948e-5
-1.036, 3.022e-5
-1.037, 3.039e-5
-1.038, 3.194e-5
-1.039, 3.381e-5
-1.040, 3.458e-5
-1.041, 3.487e-5
-1.042, 3.559e-5
-1.043, 3.640e-5
-1.044, 3.840e-5
-1.045, 3.922e-5
-1.046, 3.955e-5
-1.047, 4.020e-5
-1.048, 4.075e-5
-1.049, 4.257e-5
-1.050, 4.358e-5
-1.051, 4.359e-5
-1.052, 4.417e-5
-1.053, 4.492e-5
-1.054, 4.637e-5
-1.055, 4.732e-5
-1.056, 4.711e-5
-1.057, 4.787e-5
-1.058, 4.919e-5
-1.059, 5.047e-5
-1.060, 5.175e-5
-1.061, 5.165e-5
-1.062, 5.203e-5
-1.063, 5.285e-5
-1.064, 5.395e-5
-1.065, 5.546e-5
-1.066, 5.592e-5
-1.067, 5.583e-5
-1.068, 5.745e-5
-1.069, 5.881e-5
-1.070, 5.964e-5
-1.071, 6.048e-5
-1.072, 6.052e-5
-1.073, 6.181e-5
-1.074, 6.332e-5
-1.075, 6.485e-5
-1.076, 6.512e-5
-1.077, 6.558e-5
-1.078, 6.711e-5
-1.079, 6.899e-5
-1.080, 7.003e-5
-1.081, 7.050e-5
-1.082, 7.121e-5
-1.083, 7.256e-5
-1.084, 7.475e-5
-1.085, 7.594e-5
-1.086, 7.661e-5
-1.087, 7.777e-5
-1.088, 7.923e-5
-1.089, 8.142e-5
-1.090, 8.288e-5
-1.091, 8.309e-5
-1.092, 8.453e-5
-1.093, 8.632e-5
-1.094, 8.851e-5
-1.095, 9.073e-5
-1.096, 9.149e-5
-1.097, 9.285e-5
-1.098, 9.498e-5
-1.099, 9.720e-5
-1.100, 9.963e-5
-1.101, 1.005e-4
-1.102, 1.022e-4
-1.103, 1.047e-4
-1.104, 1.070e-4
-1.105, 1.096e-4
-1.106, 1.113e-4
-1.107, 1.129e-4
-1.108, 1.157e-4
-1.109, 1.182e-4
-1.110, 1.209e-4
-1.111, 1.229e-4
-1.112, 1.249e-4
-1.113, 1.277e-4
-1.114, 1.312e-4
-1.115, 1.336e-4
-1.116, 1.359e-4
-1.117, 1.377e-4
-1.118, 1.414e-4
-1.119, 1.452e-4
-1.120, 1.478e-4
-1.121, 1.502e-4
-1.122, 1.528e-4
-1.123, 1.561e-4
-1.124, 1.601e-4
-1.125, 1.632e-4
-1.126, 1.657e-4
-1.127, 1.687e-4
-1.128, 1.719e-4
-1.129, 1.760e-4
-1.130, 1.796e-4
-1.131, 1.824e-4
-1.132, 1.854e-4
-1.133, 1.888e-4
-1.134, 1.926e-4
-1.135, 1.961e-4
-1.136, 1.994e-4
-1.137, 2.031e-4
-1.138, 2.075e-4
-1.139, 2.119e-4
-1.140, 2.156e-4
-1.141, 2.178e-4
-1.142, 2.208e-4
-1.143, 2.247e-4
-1.144, 2.291e-4
-1.145, 2.332e-4
-1.146, 2.363e-4
-1.147, 2.395e-4
-1.148, 2.439e-4
-1.149, 2.484e-4
-1.150, 2.526e-4
-1.151, 2.564e-4
-1.152, 2.596e-4
-1.153, 2.640e-4
-1.154, 2.682e-4
-1.155, 2.722e-4
-1.156, 2.754e-4
-1.157, 2.786e-4
-1.158, 2.833e-4
-1.159, 2.882e-4
-1.160, 2.916e-4
-1.161, 2.950e-4
-1.162, 2.984e-4
-1.163, 3.027e-4
-1.164, 3.076e-4
-1.165, 3.109e-4
-1.166, 3.150e-4
-1.167, 3.194e-4
-1.168, 3.232e-4
-1.169, 3.275e-4
-1.170, 3.317e-4
-1.171, 3.346e-4
-1.172, 3.385e-4
-1.173, 3.428e-4
-1.174, 3.485e-4
-1.175, 3.522e-4
-1.176, 3.534e-4
-1.177, 3.569e-4
-1.178, 3.622e-4
-1.179, 3.667e-4
-1.180, 3.708e-4
-1.181, 3.739e-4
-1.182, 3.776e-4
-1.183, 3.817e-4
-1.184, 3.856e-4
-1.185, 3.899e-4
-1.186, 3.930e-4
-1.187, 3.958e-4
-1.188, 4.007e-4
-1.189, 4.052e-4
-1.190, 4.075e-4
-1.191, 4.099e-4
-1.192, 4.142e-4
-1.193, 4.186e-4
-1.194, 4.217e-4
-1.195, 4.248e-4
-1.196, 4.278e-4
-1.197, 4.300e-4
-1.198, 4.335e-4
-1.199, 4.365e-4
-1.200, 4.387e-4
-1.201, 4.418e-4
-1.202, 4.446e-4
-1.203, 4.464e-4
-1.204, 4.506e-4
-1.205, 4.530e-4
-1.206, 4.546e-4
-1.207, 4.564e-4
-1.208, 4.592e-4
-1.209, 4.625e-4
-1.210, 4.642e-4
-1.211, 4.654e-4
-1.212, 4.671e-4
-1.213, 4.678e-4
-1.214, 4.708e-4
-1.215, 4.743e-4
-1.216, 4.758e-4
-1.217, 4.754e-4
-1.218, 4.784e-4
-1.219, 4.796e-4
-1.220, 4.807e-4
-1.221, 4.810e-4
-1.222, 4.815e-4
-1.223, 4.829e-4
-1.224, 4.843e-4
-1.225, 4.847e-4
-1.226, 4.844e-4
-1.227, 4.844e-4
-1.228, 4.863e-4
-1.229, 4.889e-4
-1.230, 4.880e-4
-1.231, 4.871e-4
-1.232, 4.858e-4
-1.233, 4.863e-4
-1.234, 4.877e-4
-1.235, 4.873e-4
-1.236, 4.876e-4
-1.237, 4.873e-4
-1.238, 4.873e-4
-1.239, 4.866e-4
-1.240, 4.851e-4
-1.241, 4.841e-4
-1.242, 4.830e-4
-1.243, 4.826e-4
-1.244, 4.841e-4
-1.245, 4.829e-4
-1.246, 4.809e-4
-1.247, 4.800e-4
-1.248, 4.789e-4
-1.249, 4.792e-4
-1.250, 4.782e-4
-1.251, 4.776e-4
-1.252, 4.775e-4
-1.253, 4.759e-4
-1.254, 4.759e-4
-1.255, 4.760e-4
-1.256, 4.754e-4
-1.257, 4.741e-4
-1.258, 4.724e-4
-1.259, 4.719e-4
-1.260, 4.718e-4
-1.261, 4.718e-4
-1.262, 4.707e-4
-1.263, 4.719e-4
-1.264, 4.727e-4
-1.265, 4.730e-4
-1.266, 4.715e-4
-1.267, 4.718e-4
-1.268, 4.726e-4
-1.269, 4.734e-4
-1.270, 4.745e-4
-1.271, 4.742e-4
-1.272, 4.729e-4
-1.273, 4.753e-4
-1.274, 4.776e-4
-1.275, 4.788e-4
-1.276, 4.792e-4
-1.277, 4.808e-4
-1.278, 4.832e-4
-1.279, 4.853e-4
-1.280, 4.874e-4
-1.281, 4.875e-4
-1.282, 4.895e-4
-1.283, 4.914e-4
-1.284, 4.950e-4
-1.285, 4.977e-4
-1.286, 4.992e-4
-1.287, 5.021e-4
-1.288, 5.061e-4
-1.289, 5.103e-4
-1.290, 5.139e-4
-1.291, 5.158e-4
-1.292, 5.184e-4
-1.293, 5.226e-4
-1.294, 5.275e-4
-1.295, 5.316e-4
-1.296, 5.355e-4
-1.297, 5.417e-4
-1.298, 5.445e-4
-1.299, 5.510e-4
-1.300, 5.565e-4
-1.301, 5.599e-4
-1.302, 5.621e-4
-1.303, 5.709e-4
-1.304, 5.768e-4
-1.305, 5.849e-4
-1.306, 5.935e-4
-1.307, 6.020e-4
-1.308, 6.089e-4
-1.309, 6.154e-4
-1.310, 6.224e-4
-1.311, 6.312e-4
-1.312, 6.384e-4
-1.313, 6.466e-4
-1.314, 6.541e-4
-1.315, 6.600e-4
-1.316, 6.684e-4
-1.317, 6.789e-4
-1.318, 6.894e-4
-1.319, 6.997e-4
-1.320, 7.087e-4
-1.321, 7.177e-4
-1.322, 7.313e-4
-1.323, 7.437e-4
-1.324, 7.534e-4
-1.325, 7.626e-4
-1.326, 7.717e-4
-1.327, 7.801e-4
-1.328, 7.925e-4
-1.329, 8.039e-4
-1.330, 8.174e-4
-1.331, 8.275e-4
-1.332, 8.443e-4
-1.333, 8.561e-4
-1.334, 8.661e-4
-1.335, 8.774e-4
-1.336, 8.913e-4
-1.337, 9.045e-4
-1.338, 9.169e-4
-1.339, 9.298e-4
-1.340, 9.421e-4
-1.341, 9.527e-4
-1.342, 9.670e-4
-1.343, 9.788e-4
-1.344, 9.884e-4
-1.345, 9.965e-4
-1.346, 1.010e-3
-1.347, 1.019e-3
-1.348, 1.035e-3
-1.349, 1.046e-3
-1.350, 1.061e-3
-1.351, 1.073e-3
-1.352, 1.084e-3
-1.353, 1.098e-3
-1.354, 1.110e-3
-1.355, 1.123e-3
-1.356, 1.135e-3
-1.357, 1.151e-3
-1.358, 1.166e-3
-1.359, 1.189e-3
-1.360, 1.202e-3
-1.361, 1.222e-3
-1.362, 1.238e-3
-1.363, 1.254e-3
-1.364, 1.268e-3
-1.365, 1.277e-3
-1.366, 1.289e-3
-1.367, 1.304e-3
-1.368, 1.319e-3
-1.369, 1.334e-3
-1.370, 1.345e-3
-1.371, 1.355e-3
-1.372, 1.369e-3
-1.373, 1.389e-3
-1.374, 1.404e-3
-1.375, 1.417e-3
-1.376, 1.434e-3
-1.377, 1.446e-3
-1.378, 1.462e-3
-1.379, 1.488e-3
-1.380, 1.508e-3
-1.381, 1.526e-3
-1.382, 1.538e-3
-1.383, 1.553e-3
-1.384, 1.583e-3
-1.385, 1.608e-3
-1.386, 1.624e-3
-1.387, 1.640e-3
-1.388, 1.656e-3
-1.389, 1.675e-3
-1.390, 1.692e-3
-1.391, 1.707e-3
-1.392, 1.729e-3
-1.393, 1.748e-3
-1.394, 1.763e-3
-1.395, 1.778e-3
-1.396, 1.798e-3
-1.397, 1.814e-3
-1.398, 1.833e-3
-1.399, 1.857e-3
-1.400, 1.799e-3
-1.399, 1.723e-3
-1.398, 1.686e-3
-1.397, 1.654e-3
-1.396, 1.607e-3
-1.395, 1.559e-3
-1.394, 1.523e-3
-1.393, 1.489e-3
-1.392, 1.460e-3
-1.391, 1.427e-3
-1.390, 1.397e-3
-1.389, 1.369e-3
-1.388, 1.341e-3
-1.387, 1.309e-3
-1.386, 1.284e-3
-1.385, 1.263e-3
-1.384, 1.235e-3
-1.383, 1.204e-3
-1.382, 1.173e-3
-1.381, 1.149e-3
-1.380, 1.124e-3
-1.379, 1.100e-3
-1.378, 1.076e-3
-1.377, 1.054e-3
-1.376, 1.034e-3
-1.375, 1.007e-3
-1.374, 9.847e-4
-1.373, 9.607e-4
-1.372, 9.422e-4
-1.371, 9.264e-4
-1.370, 9.103e-4
-1.369, 8.870e-4
-1.368, 8.662e-4
-1.367, 8.475e-4
-1.366, 8.226e-4
-1.365, 8.036e-4
-1.364, 7.823e-4
-1.363, 7.665e-4
-1.362, 7.530e-4
-1.361, 7.425e-4
-1.360, 7.267e-4
-1.359, 7.073e-4
-1.358, 6.939e-4
-1.357, 6.798e-4
-1.356, 6.654e-4
-1.355, 6.476e-4
-1.354, 6.312e-4
-1.353, 6.142e-4
-1.352, 6.043e-4
-1.351, 5.920e-4
-1.350, 5.817e-4
-1.349, 5.689e-4
-1.348, 5.574e-4
-1.347, 5.447e-4
-1.346, 5.320e-4
-1.345, 5.170e-4
-1.344, 5.059e-4
-1.343, 4.928e-4
-1.342, 4.839e-4
-1.341, 4.739e-4
-1.340, 4.609e-4
-1.339, 4.476e-4
-1.338, 4.378e-4
-1.337, 4.259e-4
-1.336, 4.133e-4
-1.335, 4.032e-4
-1.334, 3.914e-4
-1.333, 3.816e-4
-1.332, 3.712e-4
-1.331, 3.611e-4
-1.330, 3.515e-4
-1.329, 3.405e-4
-1.328, 3.308e-4
-1.327, 3.224e-4
-1.326, 3.153e-4
-1.325, 3.070e-4
-1.324, 2.971e-4
-1.323, 2.875e-4
-1.322, 2.785e-4
-1.321, 2.700e-4
-1.320, 2.616e-4
-1.319, 2.532e-4
-1.318, 2.458e-4
-1.317, 2.391e-4
-1.316, 2.317e-4
-1.315, 2.248e-4
-1.314, 2.178e-4
-1.313, 2.098e-4
-1.312, 2.020e-4
-1.311, 1.950e-4
-1.310, 1.883e-4
-1.309, 1.817e-4
-1.308, 1.748e-4
-1.307, 1.678e-4
-1.306, 1.605e-4
-1.305, 1.529e-4
-1.304, 1.463e-4
-1.303, 1.403e-4
-1.302, 1.340e-4
-1.301, 1.304e-4
-1.300, 1.248e-4
-1.299, 1.180e-4
-1.298, 1.121e-4
-1.297, 1.067e-4
-1.296, 1.024e-4
-1.295, 9.663e-5
-1.294, 9.036e-5
-1.293, 8.579e-5
-1.292, 8.094e-5
-1.291, 7.656e-5
-1.290, 7.143e-5
-1.289, 6.533e-5
-1.288, 6.124e-5
-1.287, 5.692e-5
-1.286, 5.279e-5
-1.285, 4.829e-5
-1.284, 4.321e-5
-1.283, 3.877e-5
-1.282, 3.494e-5
-1.281, 3.097e-5
-1.280, 2.645e-5
-1.279, 2.221e-5
-1.278, 1.796e-5
-1.277, 1.516e-5
-1.276, 1.228e-5
-1.275, 8.300e-6
-1.274, 4.228e-6
-1.273, 3.510e-7
-1.272, -2.234e-6
-1.271, -5.262e-6
-1.270, -9.251e-6
-1.269, -1.262e-5
-1.268, -1.648e-5
-1.267, -1.913e-5
-1.266, -2.166e-5
-1.265, -2.559e-5
-1.264, -2.880e-5
-1.263, -3.211e-5
-1.262, -3.465e-5
-1.261, -3.674e-5
-1.260, -3.998e-5
-1.259, -4.339e-5
-1.258, -4.615e-5
-1.257, -4.877e-5
-1.256, -5.033e-5
-1.255, -5.362e-5
-1.254, -5.683e-5
-1.253, -5.913e-5
-1.252, -6.122e-5
-1.251, -6.327e-5
-1.250, -6.612e-5
-1.249, -6.923e-5
-1.248, -7.137e-5
-1.247, -7.316e-5
-1.246, -7.512e-5
-1.245, -7.755e-5
-1.244, -8.060e-5
-1.243, -8.309e-5
-1.242, -8.470e-5
-1.241, -8.667e-5
-1.240, -8.854e-5
-1.239, -9.114e-5
-1.238, -9.370e-5
-1.237, -9.489e-5
-1.236, -9.664e-5
-1.235, -9.873e-5
-1.234, -1.012e-4
-1.233, -1.038e-4
-1.232, -1.051e-4
-1.231, -1.066e-4
-1.230, -1.088e-4
-1.229, -1.123e-4
-1.228, -1.133e-4
-1.227, -1.144e-4
-1.226, -1.160e-4
-1.225, -1.182e-4
-1.224, -1.202e-4
-1.223, -1.221e-4
-1.222, -1.232e-4
-1.221, -1.243e-4
-1.220, -1.264e-4
-1.219, -1.287e-4
-1.218, -1.305e-4
-1.217, -1.319e-4
-1.216, -1.328e-4
-1.215, -1.350e-4
-1.214, -1.373e-4
-1.213, -1.390e-4
-1.212, -1.402e-4
-1.211, -1.416e-4
-1.210, -1.433e-4
-1.209, -1.460e-4
-1.208, -1.474e-4
-1.207, -1.487e-4
-1.206, -1.503e-4
-1.205, -1.521e-4
-1.204, -1.548e-4
-1.203, -1.566e-4
-1.202, -1.581e-4
-1.201, -1.596e-4
-1.200, -1.615e-4
-1.199, -1.637e-4
-1.198, -1.656e-4
-1.197, -1.665e-4
-1.196, -1.679e-4
-1.195, -1.701e-4
-1.194, -1.725e-4
-1.193, -1.745e-4
-1.192, -1.749e-4
-1.191, -1.764e-4
-1.190, -1.791e-4
-1.189, -1.815e-4
-1.188, -1.833e-4
-1.187, -1.847e-4
-1.186, -1.859e-4
-1.185, -1.879e-4
-1.184, -1.901e-4
-1.183, -1.928e-4
-1.182, -1.941e-4
-1.181, -1.952e-4
-1.180, -1.984e-4
-1.179, -2.012e-4
-1.178, -2.037e-4
-1.177, -2.053e-4
-1.176, -2.059e-4
-1.175, -2.084e-4
-1.174, -2.118e-4
-1.173, -2.134e-4
-1.172, -2.157e-4
-1.171, -2.177e-4
-1.170, -2.202e-4
-1.169, -2.230e-4
-1.168, -2.253e-4
-1.167, -2.269e-4
-1.166, -2.292e-4
-1.165, -2.320e-4
-1.164, -2.347e-4
-1.163, -2.372e-4
-1.162, -2.388e-4
-1.161, -2.412e-4
-1.160, -2.431e-4
-1.159, -2.465e-4
-1.158, -2.494e-4
-1.157, -2.511e-4
-1.156, -2.536e-4
-1.155, -2.566e-4
-1.154, -2.599e-4
-1.153, -2.631e-4
-1.152, -2.639e-4
-1.151, -2.659e-4
-1.150, -2.691e-4
-1.149, -2.715e-4
-1.148, -2.743e-4
-1.147, -2.764e-4
-1.146, -2.787e-4
-1.145, -2.818e-4
-1.144, -2.845e-4
-1.143, -2.865e-4
-1.142, -2.884e-4
-1.141, -2.905e-4
-1.140, -2.939e-4
-1.139, -2.975e-4
-1.138, -2.990e-4
-1.137, -3.011e-4
-1.136, -3.026e-4
-1.135, -3.055e-4
-1.134, -3.075e-4
-1.133, -3.091e-4
-1.132, -3.116e-4
-1.131, -3.137e-4
-1.130, -3.163e-4
-1.129, -3.186e-4
-1.128, -3.200e-4
-1.127, -3.214e-4
-1.126, -3.237e-4
-1.125, -3.256e-4
-1.124, -3.276e-4
-1.123, -3.291e-4
-1.122, -3.301e-4
-1.121, -3.315e-4
-1.120, -3.333e-4
-1.119, -3.354e-4
-1.118, -3.370e-4
-1.117, -3.374e-4
-1.116, -3.381e-4
-1.115, -3.394e-4
-1.114, -3.412e-4
-1.113, -3.425e-4
-1.112, -3.425e-4
-1.111, -3.427e-4
-1.110, -3.449e-4
-1.109, -3.451e-4
-1.108, -3.455e-4
-1.107, -3.459e-4
-1.106, -3.461e-4
-1.105, -3.484e-4
-1.104, -3.477e-4
-1.103, -3.465e-4
-1.102, -3.453e-4
-1.101, -3.441e-4
-1.100, -3.447e-4
-1.099, -3.445e-4
-1.098, -3.430e-4
-1.097, -3.413e-4
-1.096, -3.394e-4
-1.095, -3.384e-4
-1.094, -3.377e-4
-1.093, -3.353e-4
-1.092, -3.319e-4
-1.091, -3.289e-4
-1.090, -3.268e-4
-1.089, -3.258e-4
-1.088, -3.234e-4
-1.087, -3.195e-4
-1.086, -3.169e-4
-1.085, -3.140e-4
-1.084, -3.110e-4
-1.083, -3.072e-4
-1.082, -3.023e-4
-1.081, -2.973e-4
-1.080, -2.922e-4
-1.079, -2.887e-4
-1.078, -2.848e-4
-1.077, -2.798e-4
-1.076, -2.755e-4
-1.075, -2.715e-4
-1.074, -2.669e-4
-1.073, -2.626e-4
-1.072, -2.573e-4
-1.071, -2.521e-4
-1.070, -2.483e-4
-1.069, -2.442e-4
-1.068, -2.399e-4
-1.067, -2.348e-4
-1.066, -2.309e-4
-1.065, -2.285e-4
-1.064, -2.257e-4
-1.063, -2.221e-4
-1.062, -2.185e-4
-1.061, -2.139e-4
-1.060, -2.133e-4
-1.059, -2.114e-4
-1.058, -2.098e-4
-1.057, -2.077e-4
-1.056, -2.045e-4
-1.055, -2.022e-4
-1.054, -2.001e-4
-1.053, -1.974e-4
-1.052, -1.950e-4
-1.051, -1.934e-4
-1.050, -1.923e-4
-1.049, -1.920e-4
-1.048, -1.896e-4
-1.047, -1.870e-4
-1.046, -1.855e-4
-1.045, -1.838e-4
-1.044, -1.833e-4
-1.043, -1.824e-4
-1.042, -1.806e-4
-1.041, -1.794e-4
-1.040, -1.780e-4
-1.039, -1.769e-4
-1.038, -1.757e-4
-1.037, -1.738e-4
-1.036, -1.723e-4
-1.035, -1.720e-4
-1.034, -1.716e-4
-1.033, -1.707e-4
-1.032, -1.684e-4
-1.031, -1.677e-4
-1.030, -1.675e-4
-1.029, -1.666e-4
-1.028, -1.652e-4
-1.027, -1.633e-4
-1.026, -1.625e-4
-1.025, -1.623e-4
-1.024, -1.615e-4
-1.023, -1.610e-4
-1.022, -1.599e-4
-1.021, -1.581e-4
-1.020, -1.580e-4
-1.019, -1.583e-4
-1.018, -1.569e-4
-1.017, -1.556e-4
-1.016, -1.546e-4
-1.015, -1.550e-4
-1.014, -1.552e-4
-1.013, -1.544e-4
-1.012, -1.539e-4
-1.011, -1.527e-4
-1.010, -1.525e-4
-1.009, -1.534e-4
-1.008, -1.527e-4
-1.007, -1.518e-4
-1.006, -1.508e-4
-1.005, -1.507e-4
-1.004, -1.514e-4
-1.003, -1.510e-4
-1.002, -1.497e-4
-1.001, -1.499e-4
