Mar. 9, 2025   04:43:06
Cyclic Voltammetry
File: c:/users/guazh/data/banditlqround7_x0exp169_r20_3/2025-03-03-exp915\exp915-2025-03-09t04_29_38-h2koh\exp915_cv_sr_100mvs_efin_-1600mv.bin
Data Source:  Experiment
Instrument Model:  CHI760E
Header: CV ran at 100 mVs
Note: 

Init E (V) = -1
High E (V) = -1
Low E (V) = -1.6
Final E (V) = -1
Init P/N = N
Scan Rate (V/s) = 0.1
Segment = 3
Sample Interval (V) = 0.001
Quiet Time (sec) = 2
Sensitivity (A/V) = 0.01
Comp R (ohm) = 1.4

Results:

Channel 1:
Segment 1:

Segment 2:

Segment 3:

Potential/V, Current/A

-1.000, 2.706e-5
-1.001, 6.895e-5
-1.002, 8.083e-5
-1.003, 8.995e-5
-1.004, 9.335e-5
-1.005, 9.590e-5
-1.006, 9.999e-5
-1.007, 9.992e-5
-1.008, 1.035e-4
-1.009, 1.034e-4
-1.010, 1.043e-4
-1.011, 1.071e-4
-1.012, 1.055e-4
-1.013, 1.086e-4
-1.014, 1.083e-4
-1.015, 1.087e-4
-1.016, 1.111e-4
-1.017, 1.094e-4
-1.018, 1.126e-4
-1.019, 1.115e-4
-1.020, 1.119e-4
-1.021, 1.142e-4
-1.022, 1.120e-4
-1.023, 1.154e-4
-1.024, 1.140e-4
-1.025, 1.143e-4
-1.026, 1.164e-4
-1.027, 1.136e-4
-1.028, 1.171e-4
-1.029, 1.156e-4
-1.030, 1.160e-4
-1.031, 1.183e-4
-1.032, 1.157e-4
-1.033, 1.182e-4
-1.034, 1.176e-4
-1.035, 1.178e-4
-1.036, 1.201e-4
-1.037, 1.171e-4
-1.038, 1.202e-4
-1.039, 1.190e-4
-1.040, 1.185e-4
-1.041, 1.208e-4
-1.042, 1.182e-4
-1.043, 1.207e-4
-1.044, 1.202e-4
-1.045, 1.194e-4
-1.046, 1.211e-4
-1.047, 1.196e-4
-1.048, 1.221e-4
-1.049, 1.210e-4
-1.050, 1.206e-4
-1.051, 1.227e-4
-1.052, 1.208e-4
-1.053, 1.225e-4
-1.054, 1.215e-4
-1.055, 1.220e-4
-1.056, 1.236e-4
-1.057, 1.209e-4
-1.058, 1.236e-4
-1.059, 1.223e-4
-1.060, 1.222e-4
-1.061, 1.242e-4
-1.062, 1.220e-4
-1.063, 1.250e-4
-1.064, 1.230e-4
-1.065, 1.231e-4
-1.066, 1.248e-4
-1.067, 1.226e-4
-1.068, 1.254e-4
-1.069, 1.237e-4
-1.070, 1.237e-4
-1.071, 1.259e-4
-1.072, 1.232e-4
-1.073, 1.263e-4
-1.074, 1.246e-4
-1.075, 1.255e-4
-1.076, 1.266e-4
-1.077, 1.235e-4
-1.078, 1.267e-4
-1.079, 1.255e-4
-1.080, 1.248e-4
-1.081, 1.274e-4
-1.082, 1.246e-4
-1.083, 1.267e-4
-1.084, 1.261e-4
-1.085, 1.254e-4
-1.086, 1.273e-4
-1.087, 1.254e-4
-1.088, 1.276e-4
-1.089, 1.263e-4
-1.090, 1.262e-4
-1.091, 1.280e-4
-1.092, 1.259e-4
-1.093, 1.281e-4
-1.094, 1.272e-4
-1.095, 1.272e-4
-1.096, 1.287e-4
-1.097, 1.267e-4
-1.098, 1.289e-4
-1.099, 1.272e-4
-1.100, 1.276e-4
-1.101, 1.290e-4
-1.102, 1.269e-4
-1.103, 1.293e-4
-1.104, 1.283e-4
-1.105, 1.278e-4
-1.106, 1.301e-4
-1.107, 1.273e-4
-1.108, 1.300e-4
-1.109, 1.285e-4
-1.110, 1.284e-4
-1.111, 1.309e-4
-1.112, 1.277e-4
-1.113, 1.304e-4
-1.114, 1.295e-4
-1.115, 1.287e-4
-1.116, 1.312e-4
-1.117, 1.282e-4
-1.118, 1.306e-4
-1.119, 1.300e-4
-1.120, 1.294e-4
-1.121, 1.314e-4
-1.122, 1.289e-4
-1.123, 1.312e-4
-1.124, 1.306e-4
-1.125, 1.297e-4
-1.126, 1.318e-4
-1.127, 1.296e-4
-1.128, 1.312e-4
-1.129, 1.304e-4
-1.130, 1.301e-4
-1.131, 1.328e-4
-1.132, 1.299e-4
-1.133, 1.324e-4
-1.134, 1.313e-4
-1.135, 1.309e-4
-1.136, 1.329e-4
-1.137, 1.304e-4
-1.138, 1.323e-4
-1.139, 1.311e-4
-1.140, 1.310e-4
-1.141, 1.330e-4
-1.142, 1.309e-4
-1.143, 1.325e-4
-1.144, 1.313e-4
-1.145, 1.310e-4
-1.146, 1.331e-4
-1.147, 1.307e-4
-1.148, 1.332e-4
-1.149, 1.318e-4
-1.150, 1.316e-4
-1.151, 1.340e-4
-1.152, 1.305e-4
-1.153, 1.336e-4
-1.154, 1.323e-4
-1.155, 1.315e-4
-1.156, 1.341e-4
-1.157, 1.309e-4
-1.158, 1.334e-4
-1.159, 1.330e-4
-1.160, 1.322e-4
-1.161, 1.341e-4
-1.162, 1.313e-4
-1.163, 1.335e-4
-1.164, 1.331e-4
-1.165, 1.320e-4
-1.166, 1.338e-4
-1.167, 1.318e-4
-1.168, 1.335e-4
-1.169, 1.327e-4
-1.170, 1.318e-4
-1.171, 1.337e-4
-1.172, 1.314e-4
-1.173, 1.338e-4
-1.174, 1.329e-4
-1.175, 1.324e-4
-1.176, 1.342e-4
-1.177, 1.322e-4
-1.178, 1.343e-4
-1.179, 1.334e-4
-1.180, 1.327e-4
-1.181, 1.342e-4
-1.182, 1.317e-4
-1.183, 1.342e-4
-1.184, 1.331e-4
-1.185, 1.322e-4
-1.186, 1.348e-4
-1.187, 1.316e-4
-1.188, 1.340e-4
-1.189, 1.330e-4
-1.190, 1.326e-4
-1.191, 1.348e-4
-1.192, 1.321e-4
-1.193, 1.348e-4
-1.194, 1.335e-4
-1.195, 1.328e-4
-1.196, 1.353e-4
-1.197, 1.323e-4
-1.198, 1.346e-4
-1.199, 1.341e-4
-1.200, 1.330e-4
-1.201, 1.353e-4
-1.202, 1.331e-4
-1.203, 1.352e-4
-1.204, 1.348e-4
-1.205, 1.335e-4
-1.206, 1.360e-4
-1.207, 1.335e-4
-1.208, 1.355e-4
-1.209, 1.349e-4
-1.210, 1.346e-4
-1.211, 1.364e-4
-1.212, 1.340e-4
-1.213, 1.364e-4
-1.214, 1.359e-4
-1.215, 1.354e-4
-1.216, 1.374e-4
-1.217, 1.352e-4
-1.218, 1.374e-4
-1.219, 1.364e-4
-1.220, 1.362e-4
-1.221, 1.379e-4
-1.222, 1.359e-4
-1.223, 1.389e-4
-1.224, 1.376e-4
-1.225, 1.374e-4
-1.226, 1.399e-4
-1.227, 1.373e-4
-1.228, 1.405e-4
-1.229, 1.396e-4
-1.230, 1.392e-4
-1.231, 1.420e-4
-1.232, 1.392e-4
-1.233, 1.412e-4
-1.234, 1.410e-4
-1.235, 1.406e-4
-1.236, 1.431e-4
-1.237, 1.405e-4
-1.238, 1.429e-4
-1.239, 1.432e-4
-1.240, 1.424e-4
-1.241, 1.452e-4
-1.242, 1.430e-4
-1.243, 1.456e-4
-1.244, 1.457e-4
-1.245, 1.450e-4
-1.246, 1.481e-4
-1.247, 1.458e-4
-1.248, 1.477e-4
-1.249, 1.479e-4
-1.250, 1.475e-4
-1.251, 1.502e-4
-1.252, 1.483e-4
-1.253, 1.506e-4
-1.254, 1.507e-4
-1.255, 1.510e-4
-1.256, 1.532e-4
-1.257, 1.518e-4
-1.258, 1.546e-4
-1.259, 1.546e-4
-1.260, 1.542e-4
-1.261, 1.569e-4
-1.262, 1.552e-4
-1.263, 1.583e-4
-1.264, 1.581e-4
-1.265, 1.584e-4
-1.266, 1.613e-4
-1.267, 1.592e-4
-1.268, 1.630e-4
-1.269, 1.627e-4
-1.270, 1.628e-4
-1.271, 1.663e-4
-1.272, 1.643e-4
-1.273, 1.672e-4
-1.274, 1.668e-4
-1.275, 1.677e-4
-1.276, 1.711e-4
-1.277, 1.698e-4
-1.278, 1.732e-4
-1.279, 1.735e-4
-1.280, 1.740e-4
-1.281, 1.774e-4
-1.282, 1.758e-4
-1.283, 1.787e-4
-1.284, 1.795e-4
-1.285, 1.797e-4
-1.286, 1.836e-4
-1.287, 1.824e-4
-1.288, 1.858e-4
-1.289, 1.867e-4
-1.290, 1.869e-4
-1.291, 1.908e-4
-1.292, 1.899e-4
-1.293, 1.930e-4
-1.294, 1.946e-4
-1.295, 1.954e-4
-1.296, 1.986e-4
-1.297, 1.975e-4
-1.298, 2.018e-4
-1.299, 2.027e-4
-1.300, 2.043e-4
-1.301, 2.080e-4
-1.302, 2.073e-4
-1.303, 2.119e-4
-1.304, 2.127e-4
-1.305, 2.138e-4
-1.306, 2.184e-4
-1.307, 2.180e-4
-1.308, 2.226e-4
-1.309, 2.237e-4
-1.310, 2.247e-4
-1.311, 2.296e-4
-1.312, 2.294e-4
-1.313, 2.335e-4
-1.314, 2.352e-4
-1.315, 2.369e-4
-1.316, 2.428e-4
-1.317, 2.422e-4
-1.318, 2.457e-4
-1.319, 2.491e-4
-1.320, 2.512e-4
-1.321, 2.562e-4
-1.322, 2.566e-4
-1.323, 2.618e-4
-1.324, 2.642e-4
-1.325, 2.663e-4
-1.326, 2.727e-4
-1.327, 2.740e-4
-1.328, 2.792e-4
-1.329, 2.814e-4
-1.330, 2.837e-4
-1.331, 2.893e-4
-1.332, 2.900e-4
-1.333, 2.956e-4
-1.334, 2.994e-4
-1.335, 3.027e-4
-1.336, 3.086e-4
-1.337, 3.111e-4
-1.338, 3.168e-4
-1.339, 3.201e-4
-1.340, 3.239e-4
-1.341, 3.296e-4
-1.342, 3.323e-4
-1.343, 3.378e-4
-1.344, 3.409e-4
-1.345, 3.461e-4
-1.346, 3.531e-4
-1.347, 3.540e-4
-1.348, 3.622e-4
-1.349, 3.660e-4
-1.350, 3.700e-4
-1.351, 3.784e-4
-1.352, 3.810e-4
-1.353, 3.875e-4
-1.354, 3.919e-4
-1.355, 3.974e-4
-1.356, 4.055e-4
-1.357, 4.073e-4
-1.358, 4.147e-4
-1.359, 4.213e-4
-1.360, 4.261e-4
-1.361, 4.337e-4
-1.362, 4.372e-4
-1.363, 4.455e-4
-1.364, 4.499e-4
-1.365, 4.564e-4
-1.366, 4.636e-4
-1.367, 4.697e-4
-1.368, 4.768e-4
-1.369, 4.851e-4
-1.370, 4.917e-4
-1.371, 4.972e-4
-1.372, 5.035e-4
-1.373, 5.133e-4
-1.374, 5.197e-4
-1.375, 5.253e-4
-1.376, 5.346e-4
-1.377, 5.386e-4
-1.378, 5.483e-4
-1.379, 5.559e-4
-1.380, 5.626e-4
-1.381, 5.727e-4
-1.382, 5.794e-4
-1.383, 5.897e-4
-1.384, 5.948e-4
-1.385, 6.008e-4
-1.386, 6.121e-4
-1.387, 6.184e-4
-1.388, 6.282e-4
-1.389, 6.352e-4
-1.390, 6.421e-4
-1.391, 6.540e-4
-1.392, 6.605e-4
-1.393, 6.708e-4
-1.394, 6.793e-4
-1.395, 6.866e-4
-1.396, 6.988e-4
-1.397, 7.049e-4
-1.398, 7.136e-4
-1.399, 7.225e-4
-1.400, 7.316e-4
-1.401, 7.448e-4
-1.402, 7.511e-4
-1.403, 7.608e-4
-1.404, 7.693e-4
-1.405, 7.794e-4
-1.406, 7.917e-4
-1.407, 7.956e-4
-1.408, 8.095e-4
-1.409, 8.190e-4
-1.410, 8.295e-4
-1.411, 8.413e-4
-1.412, 8.490e-4
-1.413, 8.600e-4
-1.414, 8.705e-4
-1.415, 8.757e-4
-1.416, 8.969e-4
-1.417, 8.946e-4
-1.418, 9.098e-4
-1.419, 9.209e-4
-1.420, 9.319e-4
-1.421, 9.467e-4
-1.422, 9.561e-4
-1.423, 9.696e-4
-1.424, 9.777e-4
-1.425, 9.877e-4
-1.426, 1.003e-3
-1.427, 1.010e-3
-1.428, 1.021e-3
-1.429, 1.034e-3
-1.430, 1.044e-3
-1.431, 1.059e-3
-1.432, 1.071e-3
-1.433, 1.081e-3
-1.434, 1.091e-3
-1.435, 1.101e-3
-1.436, 1.115e-3
-1.437, 1.130e-3
-1.438, 1.141e-3
-1.439, 1.153e-3
-1.440, 1.166e-3
-1.441, 1.181e-3
-1.442, 1.191e-3
-1.443, 1.205e-3
-1.444, 1.215e-3
-1.445, 1.227e-3
-1.446, 1.244e-3
-1.447, 1.256e-3
-1.448, 1.271e-3
-1.449, 1.280e-3
-1.450, 1.295e-3
-1.451, 1.312e-3
-1.452, 1.324e-3
-1.453, 1.343e-3
-1.454, 1.357e-3
-1.455, 1.367e-3
-1.456, 1.380e-3
-1.457, 1.395e-3
-1.458, 1.412e-3
-1.459, 1.425e-3
-1.460, 1.437e-3
-1.461, 1.456e-3
-1.462, 1.466e-3
-1.463, 1.484e-3
-1.464, 1.500e-3
-1.465, 1.513e-3
-1.466, 1.530e-3
-1.467, 1.541e-3
-1.468, 1.564e-3
-1.469, 1.580e-3
-1.470, 1.593e-3
-1.471, 1.614e-3
-1.472, 1.627e-3
-1.473, 1.642e-3
-1.474, 1.661e-3
-1.475, 1.678e-3
-1.476, 1.700e-3
-1.477, 1.708e-3
-1.478, 1.726e-3
-1.479, 1.746e-3
-1.480, 1.757e-3
-1.481, 1.783e-3
-1.482, 1.802e-3
-1.483, 1.820e-3
-1.484, 1.832e-3
-1.485, 1.849e-3
-1.486, 1.877e-3
-1.487, 1.893e-3
-1.488, 1.908e-3
-1.489, 1.933e-3
-1.490, 1.958e-3
-1.491, 1.977e-3
-1.492, 1.990e-3
-1.493, 2.000e-3
-1.494, 2.028e-3
-1.495, 2.041e-3
-1.496, 2.065e-3
-1.497, 2.087e-3
-1.498, 2.109e-3
-1.499, 2.136e-3
-1.500, 2.152e-3
-1.501, 2.178e-3
-1.502, 2.197e-3
-1.503, 2.224e-3
-1.504, 2.239e-3
-1.505, 2.262e-3
-1.506, 2.287e-3
-1.507, 2.303e-3
-1.508, 2.331e-3
-1.509, 2.352e-3
-1.510, 2.377e-3
-1.511, 2.397e-3
-1.512, 2.422e-3
-1.513, 2.448e-3
-1.514, 2.470e-3
-1.515, 2.495e-3
-1.516, 2.529e-3
-1.517, 2.549e-3
-1.518, 2.576e-3
-1.519, 2.607e-3
-1.520, 2.627e-3
-1.521, 2.657e-3
-1.522, 2.683e-3
-1.523, 2.713e-3
-1.524, 2.738e-3
-1.525, 2.758e-3
-1.526, 2.786e-3
-1.527, 2.813e-3
-1.528, 2.846e-3
-1.529, 2.864e-3
-1.530, 2.894e-3
-1.531, 2.928e-3
-1.532, 2.955e-3
-1.533, 2.988e-3
-1.534, 3.013e-3
-1.535, 3.043e-3
-1.536, 3.097e-3
-1.537, 3.119e-3
-1.538, 3.142e-3
-1.539, 3.184e-3
-1.540, 3.208e-3
-1.541, 3.241e-3
-1.542, 3.270e-3
-1.543, 3.305e-3
-1.544, 3.342e-3
-1.545, 3.378e-3
-1.546, 3.408e-3
-1.547, 3.440e-3
-1.548, 3.477e-3
-1.549, 3.513e-3
-1.550, 3.545e-3
-1.551, 3.584e-3
-1.552, 3.626e-3
-1.553, 3.666e-3
-1.554, 3.701e-3
-1.555, 3.723e-3
-1.556, 3.760e-3
-1.557, 3.806e-3
-1.558, 3.836e-3
-1.559, 3.882e-3
-1.560, 3.922e-3
-1.561, 3.965e-3
-1.562, 3.999e-3
-1.563, 4.038e-3
-1.564, 4.085e-3
-1.565, 4.125e-3
-1.566, 4.176e-3
-1.567, 4.217e-3
-1.568, 4.261e-3
-1.569, 4.297e-3
-1.570, 4.332e-3
-1.571, 4.372e-3
-1.572, 4.407e-3
-1.573, 4.452e-3
-1.574, 4.498e-3
-1.575, 4.549e-3
-1.576, 4.599e-3
-1.577, 4.645e-3
-1.578, 4.696e-3
-1.579, 4.751e-3
-1.580, 4.809e-3
-1.581, 4.857e-3
-1.582, 4.920e-3
-1.583, 4.973e-3
-1.584, 4.997e-3
-1.585, 5.062e-3
-1.586, 5.131e-3
-1.587, 5.175e-3
-1.588, 5.227e-3
-1.589, 5.287e-3
-1.590, 5.361e-3
-1.591, 5.434e-3
-1.592, 5.484e-3
-1.593, 5.560e-3
-1.594, 5.597e-3
-1.595, 5.601e-3
-1.596, 5.673e-3
-1.597, 5.732e-3
-1.598, 5.802e-3
-1.599, 5.869e-3
-1.600, 5.854e-3
-1.599, 5.756e-3
-1.598, 5.668e-3
-1.597, 5.597e-3
-1.596, 5.541e-3
-1.595, 5.478e-3
-1.594, 5.419e-3
-1.593, 5.355e-3
-1.592, 5.296e-3
-1.591, 5.220e-3
-1.590, 5.154e-3
-1.589, 5.111e-3
-1.588, 5.047e-3
-1.587, 4.985e-3
-1.586, 4.933e-3
-1.585, 4.850e-3
-1.584, 4.799e-3
-1.583, 4.757e-3
-1.582, 4.701e-3
-1.581, 4.641e-3
-1.580, 4.591e-3
-1.579, 4.532e-3
-1.578, 4.473e-3
-1.577, 4.426e-3
-1.576, 4.361e-3
-1.575, 4.293e-3
-1.574, 4.247e-3
-1.573, 4.198e-3
-1.572, 4.142e-3
-1.571, 4.087e-3
-1.570, 4.048e-3
-1.569, 4.015e-3
-1.568, 3.963e-3
-1.567, 3.906e-3
-1.566, 3.858e-3
-1.565, 3.812e-3
-1.564, 3.765e-3
-1.563, 3.714e-3
-1.562, 3.666e-3
-1.561, 3.621e-3
-1.560, 3.575e-3
-1.559, 3.530e-3
-1.558, 3.478e-3
-1.557, 3.430e-3
-1.556, 3.384e-3
-1.555, 3.343e-3
-1.554, 3.300e-3
-1.553, 3.250e-3
-1.552, 3.215e-3
-1.551, 3.171e-3
-1.550, 3.127e-3
-1.549, 3.091e-3
-1.548, 3.049e-3
-1.547, 3.011e-3
-1.546, 2.974e-3
-1.545, 2.930e-3
-1.544, 2.897e-3
-1.543, 2.853e-3
-1.542, 2.808e-3
-1.541, 2.780e-3
-1.540, 2.748e-3
-1.539, 2.707e-3
-1.538, 2.668e-3
-1.537, 2.632e-3
-1.536, 2.597e-3
-1.535, 2.562e-3
-1.534, 2.533e-3
-1.533, 2.502e-3
-1.532, 2.471e-3
-1.531, 2.434e-3
-1.530, 2.401e-3
-1.529, 2.368e-3
-1.528, 2.330e-3
-1.527, 2.302e-3
-1.526, 2.274e-3
-1.525, 2.241e-3
-1.524, 2.214e-3
-1.523, 2.187e-3
-1.522, 2.156e-3
-1.521, 2.127e-3
-1.520, 2.099e-3
-1.519, 2.070e-3
-1.518, 2.042e-3
-1.517, 2.017e-3
-1.516, 1.984e-3
-1.515, 1.956e-3
-1.514, 1.937e-3
-1.513, 1.904e-3
-1.512, 1.882e-3
-1.511, 1.851e-3
-1.510, 1.821e-3
-1.509, 1.803e-3
-1.508, 1.782e-3
-1.507, 1.760e-3
-1.506, 1.734e-3
-1.505, 1.708e-3
-1.504, 1.691e-3
-1.503, 1.665e-3
-1.502, 1.641e-3
-1.501, 1.619e-3
-1.500, 1.591e-3
-1.499, 1.574e-3
-1.498, 1.552e-3
-1.497, 1.523e-3
-1.496, 1.505e-3
-1.495, 1.489e-3
-1.494, 1.470e-3
-1.493, 1.446e-3
-1.492, 1.429e-3
-1.491, 1.404e-3
-1.490, 1.384e-3
-1.489, 1.371e-3
-1.488, 1.349e-3
-1.487, 1.333e-3
-1.486, 1.314e-3
-1.485, 1.294e-3
-1.484, 1.274e-3
-1.483, 1.250e-3
-1.482, 1.237e-3
-1.481, 1.218e-3
-1.480, 1.200e-3
-1.479, 1.184e-3
-1.478, 1.165e-3
-1.477, 1.150e-3
-1.476, 1.132e-3
-1.475, 1.115e-3
-1.474, 1.104e-3
-1.473, 1.088e-3
-1.472, 1.073e-3
-1.471, 1.053e-3
-1.470, 1.035e-3
-1.469, 1.023e-3
-1.468, 1.005e-3
-1.467, 9.922e-4
-1.466, 9.769e-4
-1.465, 9.608e-4
-1.464, 9.479e-4
-1.463, 9.309e-4
-1.462, 9.171e-4
-1.461, 9.024e-4
-1.460, 8.866e-4
-1.459, 8.754e-4
-1.458, 8.608e-4
-1.457, 8.479e-4
-1.456, 8.341e-4
-1.455, 8.202e-4
-1.454, 8.112e-4
-1.453, 7.930e-4
-1.452, 7.800e-4
-1.451, 7.694e-4
-1.450, 7.549e-4
-1.449, 7.425e-4
-1.448, 7.285e-4
-1.447, 7.183e-4
-1.446, 7.052e-4
-1.445, 6.916e-4
-1.444, 6.836e-4
-1.443, 6.694e-4
-1.442, 6.563e-4
-1.441, 6.458e-4
-1.440, 6.357e-4
-1.439, 6.244e-4
-1.438, 6.112e-4
-1.437, 6.031e-4
-1.436, 5.917e-4
-1.435, 5.785e-4
-1.434, 5.701e-4
-1.433, 5.571e-4
-1.432, 5.466e-4
-1.431, 5.368e-4
-1.430, 5.254e-4
-1.429, 5.175e-4
-1.428, 5.039e-4
-1.427, 4.949e-4
-1.426, 4.858e-4
-1.425, 4.743e-4
-1.424, 4.667e-4
-1.423, 4.553e-4
-1.422, 4.487e-4
-1.421, 4.378e-4
-1.420, 4.266e-4
-1.419, 4.200e-4
-1.418, 4.091e-4
-1.417, 3.989e-4
-1.416, 3.907e-4
-1.415, 3.800e-4
-1.414, 3.729e-4
-1.413, 3.624e-4
-1.412, 3.556e-4
-1.411, 3.471e-4
-1.410, 3.359e-4
-1.409, 3.305e-4
-1.408, 3.196e-4
-1.407, 3.114e-4
-1.406, 3.036e-4
-1.405, 2.942e-4
-1.404, 2.886e-4
-1.403, 2.784e-4
-1.402, 2.716e-4
-1.401, 2.632e-4
-1.400, 2.546e-4
-1.399, 2.488e-4
-1.398, 2.388e-4
-1.397, 2.333e-4
-1.396, 2.263e-4
-1.395, 2.176e-4
-1.394, 2.129e-4
-1.393, 2.027e-4
-1.392, 1.979e-4
-1.391, 1.903e-4
-1.390, 1.815e-4
-1.389, 1.779e-4
-1.388, 1.683e-4
-1.387, 1.625e-4
-1.386, 1.568e-4
-1.385, 1.480e-4
-1.384, 1.440e-4
-1.383, 1.350e-4
-1.382, 1.292e-4
-1.381, 1.236e-4
-1.380, 1.156e-4
-1.379, 1.123e-4
-1.378, 1.042e-4
-1.377, 9.897e-5
-1.376, 9.389e-5
-1.375, 8.592e-5
-1.374, 8.225e-5
-1.373, 7.469e-5
-1.372, 6.974e-5
-1.371, 6.551e-5
-1.370, 5.802e-5
-1.369, 5.459e-5
-1.368, 4.776e-5
-1.367, 4.321e-5
-1.366, 3.854e-5
-1.365, 3.162e-5
-1.364, 2.885e-5
-1.363, 2.145e-5
-1.362, 1.746e-5
-1.361, 1.326e-5
-1.360, 6.727e-6
-1.359, 4.793e-6
-1.358, -2.251e-6
-1.357, -5.399e-6
-1.356, -9.710e-6
-1.355, -1.581e-5
-1.354, -1.744e-5
-1.353, -2.419e-5
-1.352, -2.643e-5
-1.351, -3.040e-5
-1.350, -3.658e-5
-1.349, -3.767e-5
-1.348, -4.374e-5
-1.347, -4.639e-5
-1.346, -4.972e-5
-1.345, -5.537e-5
-1.344, -5.619e-5
-1.343, -6.175e-5
-1.342, -6.411e-5
-1.341, -6.697e-5
-1.340, -7.194e-5
-1.339, -7.233e-5
-1.338, -7.755e-5
-1.337, -7.962e-5
-1.336, -8.180e-5
-1.335, -8.691e-5
-1.334, -8.767e-5
-1.333, -9.242e-5
-1.332, -9.429e-5
-1.331, -9.668e-5
-1.330, -1.007e-4
-1.329, -1.008e-4
-1.328, -1.051e-4
-1.327, -1.069e-4
-1.326, -1.084e-4
-1.325, -1.124e-4
-1.324, -1.122e-4
-1.323, -1.163e-4
-1.322, -1.170e-4
-1.321, -1.191e-4
-1.320, -1.229e-4
-1.319, -1.217e-4
-1.318, -1.258e-4
-1.317, -1.264e-4
-1.316, -1.278e-4
-1.315, -1.314e-4
-1.314, -1.299e-4
-1.313, -1.341e-4
-1.312, -1.341e-4
-1.311, -1.349e-4
-1.310, -1.384e-4
-1.309, -1.370e-4
-1.308, -1.404e-4
-1.307, -1.407e-4
-1.306, -1.410e-4
-1.305, -1.445e-4
-1.304, -1.426e-4
-1.303, -1.460e-4
-1.302, -1.463e-4
-1.301, -1.465e-4
-1.300, -1.498e-4
-1.299, -1.478e-4
-1.298, -1.507e-4
-1.297, -1.507e-4
-1.296, -1.504e-4
-1.295, -1.529e-4
-1.294, -1.510e-4
-1.293, -1.542e-4
-1.292, -1.540e-4
-1.291, -1.534e-4
-1.290, -1.564e-4
-1.289, -1.540e-4
-1.288, -1.563e-4
-1.287, -1.565e-4
-1.286, -1.568e-4
-1.285, -1.583e-4
-1.284, -1.563e-4
-1.283, -1.593e-4
-1.282, -1.583e-4
-1.281, -1.582e-4
-1.280, -1.606e-4
-1.279, -1.582e-4
-1.278, -1.609e-4
-1.277, -1.600e-4
-1.276, -1.598e-4
-1.275, -1.616e-4
-1.274, -1.596e-4
-1.273, -1.622e-4
-1.272, -1.611e-4
-1.271, -1.602e-4
-1.270, -1.635e-4
-1.269, -1.605e-4
-1.268, -1.628e-4
-1.267, -1.622e-4
-1.266, -1.613e-4
-1.265, -1.636e-4
-1.264, -1.611e-4
-1.263, -1.631e-4
-1.262, -1.619e-4
-1.261, -1.611e-4
-1.260, -1.639e-4
-1.259, -1.613e-4
-1.258, -1.628e-4
-1.257, -1.626e-4
-1.256, -1.616e-4
-1.255, -1.639e-4
-1.254, -1.615e-4
-1.253, -1.630e-4
-1.252, -1.629e-4
-1.251, -1.621e-4
-1.250, -1.632e-4
-1.249, -1.609e-4
-1.248, -1.625e-4
-1.247, -1.620e-4
-1.246, -1.612e-4
-1.245, -1.628e-4
-1.244, -1.608e-4
-1.243, -1.630e-4
-1.242, -1.619e-4
-1.241, -1.617e-4
-1.240, -1.630e-4
-1.239, -1.606e-4
-1.238, -1.626e-4
-1.237, -1.613e-4
-1.236, -1.610e-4
-1.235, -1.628e-4
-1.234, -1.602e-4
-1.233, -1.627e-4
-1.232, -1.614e-4
-1.231, -1.608e-4
-1.230, -1.634e-4
-1.229, -1.612e-4
-1.228, -1.632e-4
-1.227, -1.611e-4
-1.226, -1.598e-4
-1.225, -1.632e-4
-1.224, -1.601e-4
-1.223, -1.626e-4
-1.222, -1.620e-4
-1.221, -1.604e-4
-1.220, -1.629e-4
-1.219, -1.604e-4
-1.218, -1.625e-4
-1.217, -1.616e-4
-1.216, -1.596e-4
-1.215, -1.628e-4
-1.214, -1.601e-4
-1.213, -1.624e-4
-1.212, -1.619e-4
-1.211, -1.605e-4
-1.210, -1.625e-4
-1.209, -1.605e-4
-1.208, -1.628e-4
-1.207, -1.617e-4
-1.206, -1.613e-4
-1.205, -1.634e-4
-1.204, -1.608e-4
-1.203, -1.633e-4
-1.202, -1.625e-4
-1.201, -1.614e-4
-1.200, -1.637e-4
-1.199, -1.609e-4
-1.198, -1.634e-4
-1.197, -1.621e-4
-1.196, -1.614e-4
-1.195, -1.642e-4
-1.194, -1.621e-4
-1.193, -1.645e-4
-1.192, -1.640e-4
-1.191, -1.633e-4
-1.190, -1.656e-4
-1.189, -1.626e-4
-1.188, -1.643e-4
-1.187, -1.648e-4
-1.186, -1.640e-4
-1.185, -1.666e-4
-1.184, -1.640e-4
-1.183, -1.660e-4
-1.182, -1.658e-4
-1.181, -1.650e-4
-1.180, -1.674e-4
-1.179, -1.648e-4
-1.178, -1.674e-4
-1.177, -1.671e-4
-1.176, -1.664e-4
-1.175, -1.683e-4
-1.174, -1.669e-4
-1.173, -1.685e-4
-1.172, -1.684e-4
-1.171, -1.676e-4
-1.170, -1.693e-4
-1.169, -1.675e-4
-1.168, -1.693e-4
-1.167, -1.690e-4
-1.166, -1.680e-4
-1.165, -1.707e-4
-1.164, -1.688e-4
-1.163, -1.711e-4
-1.162, -1.704e-4
-1.161, -1.704e-4
-1.160, -1.724e-4
-1.159, -1.707e-4
-1.158, -1.735e-4
-1.157, -1.728e-4
-1.156, -1.722e-4
-1.155, -1.750e-4
-1.154, -1.727e-4
-1.153, -1.753e-4
-1.152, -1.744e-4
-1.151, -1.739e-4
-1.150, -1.765e-4
-1.149, -1.736e-4
-1.148, -1.764e-4
-1.147, -1.761e-4
-1.146, -1.756e-4
-1.145, -1.787e-4
-1.144, -1.753e-4
-1.143, -1.780e-4
-1.142, -1.786e-4
-1.141, -1.777e-4
-1.140, -1.803e-4
-1.139, -1.782e-4
-1.138, -1.811e-4
-1.137, -1.806e-4
-1.136, -1.794e-4
-1.135, -1.820e-4
-1.134, -1.803e-4
-1.133, -1.820e-4
-1.132, -1.817e-4
-1.131, -1.816e-4
-1.130, -1.836e-4
-1.129, -1.816e-4
-1.128, -1.840e-4
-1.127, -1.839e-4
-1.126, -1.838e-4
-1.125, -1.864e-4
-1.124, -1.841e-4
-1.123, -1.865e-4
-1.122, -1.864e-4
-1.121, -1.861e-4
-1.120, -1.883e-4
-1.119, -1.857e-4
-1.118, -1.884e-4
-1.117, -1.884e-4
-1.116, -1.881e-4
-1.115, -1.910e-4
-1.114, -1.889e-4
-1.113, -1.918e-4
-1.112, -1.906e-4
-1.111, -1.900e-4
-1.110, -1.928e-4
-1.109, -1.910e-4
-1.108, -1.922e-4
-1.107, -1.927e-4
-1.106, -1.925e-4
-1.105, -1.952e-4
-1.104, -1.929e-4
-1.103, -1.954e-4
-1.102, -1.955e-4
-1.101, -1.950e-4
-1.100, -1.980e-4
-1.099, -1.957e-4
-1.098, -1.992e-4
-1.097, -1.968e-4
-1.096, -1.967e-4
-1.095, -2.004e-4
-1.094, -1.983e-4
-1.093, -2.000e-4
-1.092, -2.000e-4
-1.091, -1.998e-4
-1.090, -2.020e-4
-1.089, -2.004e-4
-1.088, -2.024e-4
-1.087, -2.021e-4
-1.086, -2.019e-4
-1.085, -2.048e-4
-1.084, -2.024e-4
-1.083, -2.054e-4
-1.082, -2.049e-4
-1.081, -2.048e-4
-1.080, -2.070e-4
-1.079, -2.046e-4
-1.078, -2.077e-4
-1.077, -2.066e-4
-1.076, -2.062e-4
-1.075, -2.100e-4
-1.074, -2.066e-4
-1.073, -2.093e-4
-1.072, -2.091e-4
-1.071, -2.088e-4
-1.070, -2.121e-4
-1.069, -2.090e-4
-1.068, -2.120e-4
-1.067, -2.122e-4
-1.066, -2.110e-4
-1.065, -2.135e-4
-1.064, -2.112e-4
-1.063, -2.135e-4
-1.062, -2.138e-4
-1.061, -2.129e-4
-1.060, -2.157e-4
-1.059, -2.132e-4
-1.058, -2.156e-4
-1.057, -2.164e-4
-1.056, -2.153e-4
-1.055, -2.180e-4
-1.054, -2.161e-4
-1.053, -2.178e-4
-1.052, -2.181e-4
-1.051, -2.173e-4
-1.050, -2.197e-4
-1.049, -2.185e-4
-1.048, -2.201e-4
-1.047, -2.206e-4
-1.046, -2.201e-4
-1.045, -2.215e-4
-1.044, -2.199e-4
-1.043, -2.220e-4
-1.042, -2.226e-4
-1.041, -2.219e-4
-1.040, -2.243e-4
-1.039, -2.219e-4
-1.038, -2.246e-4
-1.037, -2.246e-4
-1.036, -2.241e-4
-1.035, -2.263e-4
-1.034, -2.247e-4
-1.033, -2.272e-4
-1.032, -2.265e-4
-1.031, -2.260e-4
-1.030, -2.276e-4
-1.029, -2.259e-4
-1.028, -2.293e-4
-1.027, -2.290e-4
-1.026, -2.289e-4
-1.025, -2.315e-4
-1.024, -2.294e-4
-1.023, -2.313e-4
-1.022, -2.317e-4
-1.021, -2.304e-4
-1.020, -2.332e-4
-1.019, -2.303e-4
-1.018, -2.331e-4
-1.017, -2.337e-4
-1.016, -2.325e-4
-1.015, -2.360e-4
-1.014, -2.343e-4
-1.013, -2.368e-4
-1.012, -2.366e-4
-1.011, -2.351e-4
-1.010, -2.374e-4
-1.009, -2.349e-4
-1.008, -2.373e-4
-1.007, -2.383e-4
-1.006, -2.378e-4
-1.005, -2.399e-4
-1.004, -2.383e-4
-1.003, -2.410e-4
-1.002, -2.402e-4
-1.001, -2.404e-4
