Sept. 8, 2024   14:52:50
Cyclic Voltammetry
File: c:/users/guazh/data/20240903_batch_252_500/2024-09-03-exp298\exp298-2024-09-08t14_33_47-arkoh\exp298_cv_sr_100mvs_efin_-1900mv.bin
Data Source:  Experiment
Instrument Model:  CHI760E
Header: CV ran at 100 mVs
Note: 

Init E (V) = -1
High E (V) = -1
Low E (V) = -1.9
Final E (V) = -1
Init P/N = N
Scan Rate (V/s) = 0.1
Segment = 3
Sample Interval (V) = 0.001
Quiet Time (sec) = 2
Sensitivity (A/V) = 0.01
Comp R (ohm) = 1.6

Results:

Channel 1:
Segment 1:

Segment 2:

Segment 3:

Potential/V, Current/A

-1.000, 4.736e-8
-1.001, 7.695e-8
-1.002, 1.953e-7
-1.003, 2.348e-7
-1.004, 3.137e-7
-1.005, 5.505e-7
-1.006, 5.407e-7
-1.007, 4.519e-7
-1.008, 6.393e-7
-1.009, 5.998e-7
-1.010, 6.788e-7
-1.011, 7.676e-7
-1.012, 7.380e-7
-1.013, 7.478e-7
-1.014, 9.846e-7
-1.015, 9.649e-7
-1.016, 8.958e-7
-1.017, 9.846e-7
-1.018, 1.004e-6
-1.019, 1.083e-6
-1.020, 1.152e-6
-1.021, 1.152e-6
-1.022, 1.093e-6
-1.023, 1.083e-6
-1.024, 1.261e-6
-1.025, 1.389e-6
-1.026, 1.271e-6
-1.027, 1.350e-6
-1.028, 1.438e-6
-1.029, 1.429e-6
-1.030, 1.468e-6
-1.031, 1.478e-6
-1.032, 1.537e-6
-1.033, 1.389e-6
-1.034, 1.577e-6
-1.035, 1.567e-6
-1.036, 1.458e-6
-1.037, 1.616e-6
-1.038, 1.656e-6
-1.039, 1.527e-6
-1.040, 1.715e-6
-1.041, 1.646e-6
-1.042, 1.725e-6
-1.043, 1.646e-6
-1.044, 1.665e-6
-1.045, 1.774e-6
-1.046, 1.626e-6
-1.047, 1.636e-6
-1.048, 1.833e-6
-1.049, 1.705e-6
-1.050, 1.902e-6
-1.051, 1.764e-6
-1.052, 1.873e-6
-1.053, 1.784e-6
-1.054, 1.764e-6
-1.055, 1.892e-6
-1.056, 1.784e-6
-1.057, 1.892e-6
-1.058, 1.794e-6
-1.059, 1.843e-6
-1.060, 2.021e-6
-1.061, 1.754e-6
-1.062, 1.981e-6
-1.063, 1.991e-6
-1.064, 1.942e-6
-1.065, 2.030e-6
-1.066, 1.981e-6
-1.067, 1.981e-6
-1.068, 1.971e-6
-1.069, 2.050e-6
-1.070, 2.040e-6
-1.071, 2.021e-6
-1.072, 1.922e-6
-1.073, 1.981e-6
-1.074, 2.011e-6
-1.075, 2.238e-6
-1.076, 2.188e-6
-1.077, 2.040e-6
-1.078, 2.070e-6
-1.079, 2.119e-6
-1.080, 2.109e-6
-1.081, 2.070e-6
-1.082, 2.099e-6
-1.083, 2.030e-6
-1.084, 2.070e-6
-1.085, 2.307e-6
-1.086, 2.129e-6
-1.087, 2.149e-6
-1.088, 2.099e-6
-1.089, 2.070e-6
-1.090, 2.238e-6
-1.091, 2.297e-6
-1.092, 2.129e-6
-1.093, 2.178e-6
-1.094, 2.198e-6
-1.095, 2.208e-6
-1.096, 2.336e-6
-1.097, 2.188e-6
-1.098, 2.149e-6
-1.099, 2.198e-6
-1.100, 2.297e-6
-1.101, 2.247e-6
-1.102, 2.297e-6
-1.103, 2.238e-6
-1.104, 2.277e-6
-1.105, 2.356e-6
-1.106, 2.287e-6
-1.107, 2.336e-6
-1.108, 2.218e-6
-1.109, 2.366e-6
-1.110, 2.336e-6
-1.111, 2.346e-6
-1.112, 2.238e-6
-1.113, 2.238e-6
-1.114, 2.326e-6
-1.115, 2.346e-6
-1.116, 2.435e-6
-1.117, 2.366e-6
-1.118, 2.277e-6
-1.119, 2.326e-6
-1.120, 2.465e-6
-1.121, 2.455e-6
-1.122, 2.267e-6
-1.123, 2.415e-6
-1.124, 2.257e-6
-1.125, 2.356e-6
-1.126, 2.455e-6
-1.127, 2.366e-6
-1.128, 2.425e-6
-1.129, 2.326e-6
-1.130, 2.445e-6
-1.131, 2.405e-6
-1.132, 2.474e-6
-1.133, 2.445e-6
-1.134, 2.326e-6
-1.135, 2.455e-6
-1.136, 2.415e-6
-1.137, 2.346e-6
-1.138, 2.484e-6
-1.139, 2.405e-6
-1.140, 2.425e-6
-1.141, 2.386e-6
-1.142, 2.465e-6
-1.143, 2.455e-6
-1.144, 2.415e-6
-1.145, 2.534e-6
-1.146, 2.573e-6
-1.147, 2.494e-6
-1.148, 2.395e-6
-1.149, 2.553e-6
-1.150, 2.455e-6
-1.151, 2.455e-6
-1.152, 2.553e-6
-1.153, 2.455e-6
-1.154, 2.465e-6
-1.155, 2.622e-6
-1.156, 2.593e-6
-1.157, 2.425e-6
-1.158, 2.583e-6
-1.159, 2.543e-6
-1.160, 2.593e-6
-1.161, 2.593e-6
-1.162, 2.632e-6
-1.163, 2.613e-6
-1.164, 2.543e-6
-1.165, 2.603e-6
-1.166, 2.632e-6
-1.167, 2.563e-6
-1.168, 2.573e-6
-1.169, 2.701e-6
-1.170, 2.701e-6
-1.171, 2.701e-6
-1.172, 2.583e-6
-1.173, 2.613e-6
-1.174, 2.553e-6
-1.175, 2.642e-6
-1.176, 2.524e-6
-1.177, 2.662e-6
-1.178, 2.672e-6
-1.179, 2.672e-6
-1.180, 2.839e-6
-1.181, 2.760e-6
-1.182, 2.701e-6
-1.183, 2.741e-6
-1.184, 2.622e-6
-1.185, 2.820e-6
-1.186, 2.682e-6
-1.187, 2.790e-6
-1.188, 2.652e-6
-1.189, 2.701e-6
-1.190, 2.770e-6
-1.191, 2.701e-6
-1.192, 2.770e-6
-1.193, 2.691e-6
-1.194, 2.563e-6
-1.195, 2.741e-6
-1.196, 2.780e-6
-1.197, 2.770e-6
-1.198, 2.830e-6
-1.199, 2.820e-6
-1.200, 2.790e-6
-1.201, 2.790e-6
-1.202, 2.869e-6
-1.203, 2.662e-6
-1.204, 2.928e-6
-1.205, 2.879e-6
-1.206, 2.948e-6
-1.207, 2.849e-6
-1.208, 2.889e-6
-1.209, 2.790e-6
-1.210, 2.978e-6
-1.211, 2.790e-6
-1.212, 2.830e-6
-1.213, 2.820e-6
-1.214, 2.780e-6
-1.215, 2.869e-6
-1.216, 2.869e-6
-1.217, 2.731e-6
-1.218, 2.908e-6
-1.219, 2.908e-6
-1.220, 3.027e-6
-1.221, 3.017e-6
-1.222, 2.899e-6
-1.223, 3.037e-6
-1.224, 2.889e-6
-1.225, 2.997e-6
-1.226, 3.017e-6
-1.227, 2.958e-6
-1.228, 2.928e-6
-1.229, 3.047e-6
-1.230, 3.204e-6
-1.231, 3.116e-6
-1.232, 3.116e-6
-1.233, 3.056e-6
-1.234, 3.135e-6
-1.235, 3.214e-6
-1.236, 3.135e-6
-1.237, 3.056e-6
-1.238, 3.135e-6
-1.239, 3.106e-6
-1.240, 3.234e-6
-1.241, 3.145e-6
-1.242, 3.155e-6
-1.243, 3.155e-6
-1.244, 3.224e-6
-1.245, 3.234e-6
-1.246, 3.204e-6
-1.247, 3.224e-6
-1.248, 3.126e-6
-1.249, 3.076e-6
-1.250, 3.382e-6
-1.251, 3.264e-6
-1.252, 3.293e-6
-1.253, 3.195e-6
-1.254, 3.204e-6
-1.255, 3.254e-6
-1.256, 3.274e-6
-1.257, 3.293e-6
-1.258, 3.303e-6
-1.259, 3.244e-6
-1.260, 3.412e-6
-1.261, 3.254e-6
-1.262, 3.224e-6
-1.263, 3.175e-6
-1.264, 3.352e-6
-1.265, 3.491e-6
-1.266, 3.352e-6
-1.267, 3.283e-6
-1.268, 3.510e-6
-1.269, 3.352e-6
-1.270, 3.500e-6
-1.271, 3.254e-6
-1.272, 3.352e-6
-1.273, 3.362e-6
-1.274, 3.431e-6
-1.275, 3.451e-6
-1.276, 3.412e-6
-1.277, 3.461e-6
-1.278, 3.550e-6
-1.279, 3.382e-6
-1.280, 3.471e-6
-1.281, 3.530e-6
-1.282, 3.550e-6
-1.283, 3.481e-6
-1.284, 3.520e-6
-1.285, 3.599e-6
-1.286, 3.550e-6
-1.287, 3.491e-6
-1.288, 3.510e-6
-1.289, 3.412e-6
-1.290, 3.530e-6
-1.291, 3.471e-6
-1.292, 3.510e-6
-1.293, 3.530e-6
-1.294, 3.599e-6
-1.295, 3.708e-6
-1.296, 3.609e-6
-1.297, 3.757e-6
-1.298, 3.560e-6
-1.299, 3.540e-6
-1.300, 3.570e-6
-1.301, 3.609e-6
-1.302, 3.717e-6
-1.303, 3.579e-6
-1.304, 3.579e-6
-1.305, 3.668e-6
-1.306, 3.698e-6
-1.307, 3.648e-6
-1.308, 3.619e-6
-1.309, 3.708e-6
-1.310, 3.767e-6
-1.311, 3.639e-6
-1.312, 3.629e-6
-1.313, 3.708e-6
-1.314, 3.599e-6
-1.315, 3.678e-6
-1.316, 3.777e-6
-1.317, 3.639e-6
-1.318, 3.727e-6
-1.319, 3.648e-6
-1.320, 3.836e-6
-1.321, 3.619e-6
-1.322, 3.757e-6
-1.323, 3.668e-6
-1.324, 3.678e-6
-1.325, 3.944e-6
-1.326, 3.777e-6
-1.327, 3.856e-6
-1.328, 3.678e-6
-1.329, 3.747e-6
-1.330, 3.757e-6
-1.331, 3.717e-6
-1.332, 3.846e-6
-1.333, 3.875e-6
-1.334, 3.796e-6
-1.335, 3.747e-6
-1.336, 3.885e-6
-1.337, 3.865e-6
-1.338, 3.796e-6
-1.339, 3.905e-6
-1.340, 3.757e-6
-1.341, 3.836e-6
-1.342, 3.836e-6
-1.343, 3.875e-6
-1.344, 3.885e-6
-1.345, 3.875e-6
-1.346, 3.905e-6
-1.347, 3.984e-6
-1.348, 3.796e-6
-1.349, 3.865e-6
-1.350, 3.954e-6
-1.351, 3.905e-6
-1.352, 3.915e-6
-1.353, 3.964e-6
-1.354, 3.895e-6
-1.355, 4.013e-6
-1.356, 3.895e-6
-1.357, 4.033e-6
-1.358, 4.004e-6
-1.359, 3.994e-6
-1.360, 4.161e-6
-1.361, 3.984e-6
-1.362, 4.023e-6
-1.363, 3.994e-6
-1.364, 3.974e-6
-1.365, 4.132e-6
-1.366, 3.944e-6
-1.367, 4.083e-6
-1.368, 3.935e-6
-1.369, 3.944e-6
-1.370, 4.092e-6
-1.371, 4.013e-6
-1.372, 3.994e-6
-1.373, 4.083e-6
-1.374, 4.063e-6
-1.375, 4.201e-6
-1.376, 4.092e-6
-1.377, 4.053e-6
-1.378, 4.053e-6
-1.379, 4.112e-6
-1.380, 4.161e-6
-1.381, 4.033e-6
-1.382, 4.161e-6
-1.383, 4.231e-6
-1.384, 4.280e-6
-1.385, 4.231e-6
-1.386, 4.201e-6
-1.387, 4.201e-6
-1.388, 4.270e-6
-1.389, 4.260e-6
-1.390, 4.388e-6
-1.391, 4.221e-6
-1.392, 4.181e-6
-1.393, 4.152e-6
-1.394, 4.132e-6
-1.395, 4.250e-6
-1.396, 4.349e-6
-1.397, 4.250e-6
-1.398, 4.319e-6
-1.399, 4.418e-6
-1.400, 4.418e-6
-1.401, 4.280e-6
-1.402, 4.309e-6
-1.403, 4.438e-6
-1.404, 4.240e-6
-1.405, 4.388e-6
-1.406, 4.379e-6
-1.407, 4.398e-6
-1.408, 4.428e-6
-1.409, 4.408e-6
-1.410, 4.665e-6
-1.411, 4.438e-6
-1.412, 4.576e-6
-1.413, 4.457e-6
-1.414, 4.408e-6
-1.415, 4.605e-6
-1.416, 4.448e-6
-1.417, 4.536e-6
-1.418, 4.586e-6
-1.419, 4.497e-6
-1.420, 4.526e-6
-1.421, 4.526e-6
-1.422, 4.684e-6
-1.423, 4.763e-6
-1.424, 4.763e-6
-1.425, 4.773e-6
-1.426, 4.556e-6
-1.427, 4.704e-6
-1.428, 4.684e-6
-1.429, 4.694e-6
-1.430, 4.951e-6
-1.431, 4.773e-6
-1.432, 4.803e-6
-1.433, 4.763e-6
-1.434, 5.020e-6
-1.435, 5.000e-6
-1.436, 4.892e-6
-1.437, 5.020e-6
-1.438, 4.961e-6
-1.439, 4.931e-6
-1.440, 5.059e-6
-1.441, 5.089e-6
-1.442, 5.040e-6
-1.443, 4.872e-6
-1.444, 5.020e-6
-1.445, 5.178e-6
-1.446, 5.069e-6
-1.447, 5.247e-6
-1.448, 5.207e-6
-1.449, 5.128e-6
-1.450, 5.188e-6
-1.451, 5.207e-6
-1.452, 5.237e-6
-1.453, 5.178e-6
-1.454, 5.188e-6
-1.455, 5.405e-6
-1.456, 5.336e-6
-1.457, 5.345e-6
-1.458, 5.345e-6
-1.459, 5.464e-6
-1.460, 5.543e-6
-1.461, 5.424e-6
-1.462, 5.414e-6
-1.463, 5.503e-6
-1.464, 5.395e-6
-1.465, 5.553e-6
-1.466, 5.651e-6
-1.467, 5.592e-6
-1.468, 5.691e-6
-1.469, 5.710e-6
-1.470, 5.671e-6
-1.471, 5.701e-6
-1.472, 5.710e-6
-1.473, 5.799e-6
-1.474, 5.710e-6
-1.475, 5.740e-6
-1.476, 5.809e-6
-1.477, 5.908e-6
-1.478, 5.947e-6
-1.479, 5.967e-6
-1.480, 5.997e-6
-1.481, 5.937e-6
-1.482, 6.105e-6
-1.483, 6.056e-6
-1.484, 6.095e-6
-1.485, 6.204e-6
-1.486, 6.243e-6
-1.487, 6.184e-6
-1.488, 6.095e-6
-1.489, 6.253e-6
-1.490, 6.391e-6
-1.491, 6.283e-6
-1.492, 6.500e-6
-1.493, 6.381e-6
-1.494, 6.490e-6
-1.495, 6.628e-6
-1.496, 6.500e-6
-1.497, 6.569e-6
-1.498, 6.658e-6
-1.499, 6.618e-6
-1.500, 6.786e-6
-1.501, 6.786e-6
-1.502, 6.766e-6
-1.503, 6.766e-6
-1.504, 6.934e-6
-1.505, 7.072e-6
-1.506, 6.944e-6
-1.507, 7.052e-6
-1.508, 7.072e-6
-1.509, 7.121e-6
-1.510, 7.161e-6
-1.511, 7.230e-6
-1.512, 7.259e-6
-1.513, 7.161e-6
-1.514, 7.309e-6
-1.515, 7.476e-6
-1.516, 7.496e-6
-1.517, 7.447e-6
-1.518, 7.476e-6
-1.519, 7.417e-6
-1.520, 7.703e-6
-1.521, 7.536e-6
-1.522, 7.684e-6
-1.523, 7.684e-6
-1.524, 7.782e-6
-1.525, 7.960e-6
-1.526, 8.009e-6
-1.527, 7.980e-6
-1.528, 7.999e-6
-1.529, 7.999e-6
-1.530, 8.206e-6
-1.531, 8.088e-6
-1.532, 8.137e-6
-1.533, 8.216e-6
-1.534, 8.305e-6
-1.535, 8.453e-6
-1.536, 8.473e-6
-1.537, 8.611e-6
-1.538, 8.680e-6
-1.539, 8.670e-6
-1.540, 8.917e-6
-1.541, 8.729e-6
-1.542, 8.887e-6
-1.543, 9.065e-6
-1.544, 8.937e-6
-1.545, 9.262e-6
-1.546, 9.154e-6
-1.547, 9.233e-6
-1.548, 9.311e-6
-1.549, 9.341e-6
-1.550, 9.667e-6
-1.551, 9.598e-6
-1.552, 9.548e-6
-1.553, 9.696e-6
-1.554, 9.815e-6
-1.555, 9.933e-6
-1.556, 9.992e-6
-1.557, 1.012e-5
-1.558, 1.011e-5
-1.559, 1.019e-5
-1.560, 1.032e-5
-1.561, 1.038e-5
-1.562, 1.056e-5
-1.563, 1.054e-5
-1.564, 1.063e-5
-1.565, 1.091e-5
-1.566, 1.088e-5
-1.567, 1.096e-5
-1.568, 1.099e-5
-1.569, 1.114e-5
-1.570, 1.131e-5
-1.571, 1.137e-5
-1.572, 1.143e-5
-1.573, 1.157e-5
-1.574, 1.170e-5
-1.575, 1.197e-5
-1.576, 1.192e-5
-1.577, 1.200e-5
-1.578, 1.213e-5
-1.579, 1.226e-5
-1.580, 1.247e-5
-1.581, 1.259e-5
-1.582, 1.264e-5
-1.583, 1.279e-5
-1.584, 1.287e-5
-1.585, 1.310e-5
-1.586, 1.311e-5
-1.587, 1.326e-5
-1.588, 1.351e-5
-1.589, 1.365e-5
-1.590, 1.392e-5
-1.591, 1.395e-5
-1.592, 1.405e-5
-1.593, 1.429e-5
-1.594, 1.435e-5
-1.595, 1.460e-5
-1.596, 1.463e-5
-1.597, 1.485e-5
-1.598, 1.510e-5
-1.599, 1.521e-5
-1.600, 1.566e-5
-1.601, 1.569e-5
-1.602, 1.591e-5
-1.603, 1.613e-5
-1.604, 1.618e-5
-1.605, 1.642e-5
-1.606, 1.674e-5
-1.607, 1.689e-5
-1.608, 1.714e-5
-1.609, 1.735e-5
-1.610, 1.744e-5
-1.611, 1.772e-5
-1.612, 1.800e-5
-1.613, 1.811e-5
-1.614, 1.845e-5
-1.615, 1.885e-5
-1.616, 1.897e-5
-1.617, 1.933e-5
-1.618, 1.937e-5
-1.619, 1.973e-5
-1.620, 2.019e-5
-1.621, 2.029e-5
-1.622, 2.062e-5
-1.623, 2.090e-5
-1.624, 2.126e-5
-1.625, 2.159e-5
-1.626, 2.189e-5
-1.627, 2.230e-5
-1.628, 2.252e-5
-1.629, 2.286e-5
-1.630, 2.328e-5
-1.631, 2.358e-5
-1.632, 2.405e-5
-1.633, 2.442e-5
-1.634, 2.471e-5
-1.635, 2.536e-5
-1.636, 2.559e-5
-1.637, 2.603e-5
-1.638, 2.647e-5
-1.639, 2.706e-5
-1.640, 2.759e-5
-1.641, 2.807e-5
-1.642, 2.848e-5
-1.643, 2.887e-5
-1.644, 2.933e-5
-1.645, 3.004e-5
-1.646, 3.047e-5
-1.647, 3.091e-5
-1.648, 3.147e-5
-1.649, 3.202e-5
-1.650, 3.277e-5
-1.651, 3.339e-5
-1.652, 3.408e-5
-1.653, 3.460e-5
-1.654, 3.527e-5
-1.655, 3.599e-5
-1.656, 3.647e-5
-1.657, 3.737e-5
-1.658, 3.795e-5
-1.659, 3.872e-5
-1.660, 3.954e-5
-1.661, 4.041e-5
-1.662, 4.120e-5
-1.663, 4.207e-5
-1.664, 4.292e-5
-1.665, 4.389e-5
-1.666, 4.469e-5
-1.667, 4.571e-5
-1.668, 4.665e-5
-1.669, 4.759e-5
-1.670, 4.868e-5
-1.671, 4.961e-5
-1.672, 5.067e-5
-1.673, 5.178e-5
-1.674, 5.297e-5
-1.675, 5.418e-5
-1.676, 5.516e-5
-1.677, 5.655e-5
-1.678, 5.776e-5
-1.679, 5.908e-5
-1.680, 6.049e-5
-1.681, 6.178e-5
-1.682, 6.333e-5
-1.683, 6.468e-5
-1.684, 6.640e-5
-1.685, 6.792e-5
-1.686, 6.936e-5
-1.687, 7.107e-5
-1.688, 7.279e-5
-1.689, 7.453e-5
-1.690, 7.643e-5
-1.691, 7.832e-5
-1.692, 8.020e-5
-1.693, 8.221e-5
-1.694, 8.438e-5
-1.695, 8.654e-5
-1.696, 8.854e-5
-1.697, 9.091e-5
-1.698, 9.326e-5
-1.699, 9.575e-5
-1.700, 9.834e-5
-1.701, 1.007e-4
-1.702, 1.033e-4
-1.703, 1.060e-4
-1.704, 1.087e-4
-1.705, 1.117e-4
-1.706, 1.145e-4
-1.707, 1.177e-4
-1.708, 1.208e-4
-1.709, 1.242e-4
-1.710, 1.278e-4
-1.711, 1.309e-4
-1.712, 1.349e-4
-1.713, 1.386e-4
-1.714, 1.425e-4
-1.715, 1.466e-4
-1.716, 1.507e-4
-1.717, 1.550e-4
-1.718, 1.595e-4
-1.719, 1.641e-4
-1.720, 1.688e-4
-1.721, 1.736e-4
-1.722, 1.788e-4
-1.723, 1.839e-4
-1.724, 1.894e-4
-1.725, 1.952e-4
-1.726, 2.008e-4
-1.727, 2.068e-4
-1.728, 2.129e-4
-1.729, 2.190e-4
-1.730, 2.254e-4
-1.731, 2.319e-4
-1.732, 2.388e-4
-1.733, 2.459e-4
-1.734, 2.533e-4
-1.735, 2.611e-4
-1.736, 2.692e-4
-1.737, 2.776e-4
-1.738, 2.860e-4
-1.739, 2.948e-4
-1.740, 3.040e-4
-1.741, 3.134e-4
-1.742, 3.234e-4
-1.743, 3.335e-4
-1.744, 3.439e-4
-1.745, 3.547e-4
-1.746, 3.658e-4
-1.747, 3.773e-4
-1.748, 3.892e-4
-1.749, 4.013e-4
-1.750, 4.140e-4
-1.751, 4.271e-4
-1.752, 4.408e-4
-1.753, 4.548e-4
-1.754, 4.694e-4
-1.755, 4.841e-4
-1.756, 4.988e-4
-1.757, 5.132e-4
-1.758, 5.278e-4
-1.759, 5.442e-4
-1.760, 5.616e-4
-1.761, 5.792e-4
-1.762, 5.972e-4
-1.763, 6.152e-4
-1.764, 6.346e-4
-1.765, 6.559e-4
-1.766, 6.772e-4
-1.767, 6.988e-4
-1.768, 7.209e-4
-1.769, 7.435e-4
-1.770, 7.671e-4
-1.771, 7.911e-4
-1.772, 8.160e-4
-1.773, 8.415e-4
-1.774, 8.684e-4
-1.775, 8.966e-4
-1.776, 9.246e-4
-1.777, 9.527e-4
-1.778, 9.814e-4
-1.779, 1.013e-3
-1.780, 1.044e-3
-1.781, 1.079e-3
-1.782, 1.113e-3
-1.783, 1.145e-3
-1.784, 1.176e-3
-1.785, 1.207e-3
-1.786, 1.231e-3
-1.787, 1.260e-3
-1.788, 1.296e-3
-1.789, 1.335e-3
-1.790, 1.374e-3
-1.791, 1.412e-3
-1.792, 1.450e-3
-1.793, 1.494e-3
-1.794, 1.542e-3
-1.795, 1.587e-3
-1.796, 1.633e-3
-1.797, 1.679e-3
-1.798, 1.725e-3
-1.799, 1.773e-3
-1.800, 1.822e-3
-1.801, 1.871e-3
-1.802, 1.923e-3
-1.803, 1.976e-3
-1.804, 2.028e-3
-1.805, 2.079e-3
-1.806, 2.130e-3
-1.807, 2.187e-3
-1.808, 2.247e-3
-1.809, 2.310e-3
-1.810, 2.370e-3
-1.811, 2.428e-3
-1.812, 2.480e-3
-1.813, 2.530e-3
-1.814, 2.566e-3
-1.815, 2.608e-3
-1.816, 2.666e-3
-1.817, 2.726e-3
-1.818, 2.784e-3
-1.819, 2.845e-3
-1.820, 2.915e-3
-1.821, 3.001e-3
-1.822, 3.073e-3
-1.823, 3.140e-3
-1.824, 3.209e-3
-1.825, 3.287e-3
-1.826, 3.356e-3
-1.827, 3.425e-3
-1.828, 3.498e-3
-1.829, 3.583e-3
-1.830, 3.672e-3
-1.831, 3.752e-3
-1.832, 3.842e-3
-1.833, 3.927e-3
-1.834, 3.995e-3
-1.835, 4.065e-3
-1.836, 4.137e-3
-1.837, 4.243e-3
-1.838, 4.347e-3
-1.839, 4.409e-3
-1.840, 4.464e-3
-1.841, 4.509e-3
-1.842, 4.501e-3
-1.843, 4.537e-3
-1.844, 4.620e-3
-1.845, 4.705e-3
-1.846, 4.777e-3
-1.847, 4.869e-3
-1.848, 5.008e-3
-1.849, 5.117e-3
-1.850, 5.191e-3
-1.851, 5.264e-3
-1.852, 5.352e-3
-1.853, 5.429e-3
-1.854, 5.526e-3
-1.855, 5.630e-3
-1.856, 5.732e-3
-1.857, 5.832e-3
-1.858, 5.921e-3
-1.859, 5.994e-3
-1.860, 6.099e-3
-1.861, 6.202e-3
-1.862, 6.284e-3
-1.863, 6.397e-3
-1.864, 6.531e-3
-1.865, 6.682e-3
-1.866, 6.834e-3
-1.867, 6.951e-3
-1.868, 7.028e-3
-1.869, 7.074e-3
-1.870, 7.058e-3
-1.871, 6.947e-3
-1.872, 6.923e-3
-1.873, 6.984e-3
-1.874, 7.093e-3
-1.875, 7.245e-3
-1.876, 7.333e-3
-1.877, 7.459e-3
-1.878, 7.619e-3
-1.879, 7.738e-3
-1.880, 7.845e-3
-1.881, 7.956e-3
-1.882, 8.068e-3
-1.883, 8.170e-3
-1.884, 8.277e-3
-1.885, 8.391e-3
-1.886, 8.509e-3
-1.887, 8.622e-3
-1.888, 8.735e-3
-1.889, 8.853e-3
-1.890, 8.950e-3
-1.891, 9.055e-3
-1.892, 9.174e-3
-1.893, 9.352e-3
-1.894, 9.554e-3
-1.895, 9.688e-3
-1.896, 9.771e-3
-1.897, 9.804e-3
-1.898, 9.798e-3
-1.899, 9.640e-3
-1.900, 9.398e-3
-1.899, 9.283e-3
-1.898, 9.243e-3
-1.897, 9.271e-3
-1.896, 9.273e-3
-1.895, 9.195e-3
-1.894, 9.082e-3
-1.893, 9.111e-3
-1.892, 9.146e-3
-1.891, 9.114e-3
-1.890, 9.063e-3
-1.889, 8.991e-3
-1.888, 8.922e-3
-1.887, 8.894e-3
-1.886, 8.836e-3
-1.885, 8.745e-3
-1.884, 8.709e-3
-1.883, 8.659e-3
-1.882, 8.590e-3
-1.881, 8.539e-3
-1.880, 8.478e-3
-1.879, 8.389e-3
-1.878, 8.298e-3
-1.877, 8.203e-3
-1.876, 8.122e-3
-1.875, 8.047e-3
-1.874, 7.985e-3
-1.873, 7.903e-3
-1.872, 7.825e-3
-1.871, 7.740e-3
-1.870, 7.638e-3
-1.869, 7.559e-3
-1.868, 7.523e-3
-1.867, 7.475e-3
-1.866, 7.425e-3
-1.865, 7.379e-3
-1.864, 7.327e-3
-1.863, 7.278e-3
-1.862, 7.233e-3
-1.861, 7.196e-3
-1.860, 7.152e-3
-1.859, 7.097e-3
-1.858, 7.041e-3
-1.857, 6.955e-3
-1.856, 6.855e-3
-1.855, 6.774e-3
-1.854, 6.704e-3
-1.853, 6.640e-3
-1.852, 6.577e-3
-1.851, 6.485e-3
-1.850, 6.373e-3
-1.849, 6.249e-3
-1.848, 6.089e-3
-1.847, 5.999e-3
-1.846, 5.957e-3
-1.845, 5.918e-3
-1.844, 5.881e-3
-1.843, 5.815e-3
-1.842, 5.798e-3
-1.841, 5.770e-3
-1.840, 5.721e-3
-1.839, 5.667e-3
-1.838, 5.602e-3
-1.837, 5.536e-3
-1.836, 5.479e-3
-1.835, 5.417e-3
-1.834, 5.372e-3
-1.833, 5.331e-3
-1.832, 5.291e-3
-1.831, 5.251e-3
-1.830, 5.192e-3
-1.829, 5.128e-3
-1.828, 5.072e-3
-1.827, 5.027e-3
-1.826, 4.980e-3
-1.825, 4.939e-3
-1.824, 4.861e-3
-1.823, 4.737e-3
-1.822, 4.617e-3
-1.821, 4.528e-3
-1.820, 4.470e-3
-1.819, 4.414e-3
-1.818, 4.352e-3
-1.817, 4.289e-3
-1.816, 4.258e-3
-1.815, 4.235e-3
-1.814, 4.187e-3
-1.813, 4.139e-3
-1.812, 4.087e-3
-1.811, 4.038e-3
-1.810, 3.990e-3
-1.809, 3.942e-3
-1.808, 3.895e-3
-1.807, 3.850e-3
-1.806, 3.801e-3
-1.805, 3.755e-3
-1.804, 3.707e-3
-1.803, 3.653e-3
-1.802, 3.597e-3
-1.801, 3.553e-3
-1.800, 3.514e-3
-1.799, 3.478e-3
-1.798, 3.431e-3
-1.797, 3.376e-3
-1.796, 3.310e-3
-1.795, 3.216e-3
-1.794, 3.133e-3
-1.793, 3.090e-3
-1.792, 3.047e-3
-1.791, 3.009e-3
-1.790, 2.978e-3
-1.789, 2.934e-3
-1.788, 2.885e-3
-1.787, 2.851e-3
-1.786, 2.827e-3
-1.785, 2.790e-3
-1.784, 2.753e-3
-1.783, 2.714e-3
-1.782, 2.671e-3
-1.781, 2.633e-3
-1.780, 2.595e-3
-1.779, 2.557e-3
-1.778, 2.521e-3
-1.777, 2.484e-3
-1.776, 2.447e-3
-1.775, 2.411e-3
-1.774, 2.369e-3
-1.773, 2.332e-3
-1.772, 2.297e-3
-1.771, 2.262e-3
-1.770, 2.228e-3
-1.769, 2.193e-3
-1.768, 2.155e-3
-1.767, 2.113e-3
-1.766, 2.069e-3
-1.765, 2.020e-3
-1.764, 1.982e-3
-1.763, 1.949e-3
-1.762, 1.916e-3
-1.761, 1.883e-3
-1.760, 1.850e-3
-1.759, 1.818e-3
-1.758, 1.783e-3
-1.757, 1.752e-3
-1.756, 1.726e-3
-1.755, 1.702e-3
-1.754, 1.675e-3
-1.753, 1.649e-3
-1.752, 1.623e-3
-1.751, 1.595e-3
-1.750, 1.565e-3
-1.749, 1.539e-3
-1.748, 1.511e-3
-1.747, 1.486e-3
-1.746, 1.464e-3
-1.745, 1.441e-3
-1.744, 1.416e-3
-1.743, 1.392e-3
-1.742, 1.366e-3
-1.741, 1.340e-3
-1.740, 1.319e-3
-1.739, 1.298e-3
-1.738, 1.274e-3
-1.737, 1.249e-3
-1.736, 1.224e-3
-1.735, 1.201e-3
-1.734, 1.177e-3
-1.733, 1.148e-3
-1.732, 1.119e-3
-1.731, 1.095e-3
-1.730, 1.077e-3
-1.729, 1.058e-3
-1.728, 1.038e-3
-1.727, 1.019e-3
-1.726, 1.002e-3
-1.725, 9.831e-4
-1.724, 9.641e-4
-1.723, 9.455e-4
-1.722, 9.273e-4
-1.721, 9.092e-4
-1.720, 8.919e-4
-1.719, 8.746e-4
-1.718, 8.578e-4
-1.717, 8.411e-4
-1.716, 8.246e-4
-1.715, 8.083e-4
-1.714, 7.924e-4
-1.713, 7.763e-4
-1.712, 7.609e-4
-1.711, 7.461e-4
-1.710, 7.322e-4
-1.709, 7.177e-4
-1.708, 7.032e-4
-1.707, 6.886e-4
-1.706, 6.739e-4
-1.705, 6.582e-4
-1.704, 6.427e-4
-1.703, 6.293e-4
-1.702, 6.171e-4
-1.701, 6.048e-4
-1.700, 5.923e-4
-1.699, 5.800e-4
-1.698, 5.686e-4
-1.697, 5.578e-4
-1.696, 5.467e-4
-1.695, 5.357e-4
-1.694, 5.245e-4
-1.693, 5.137e-4
-1.692, 5.029e-4
-1.691, 4.927e-4
-1.690, 4.823e-4
-1.689, 4.723e-4
-1.688, 4.627e-4
-1.687, 4.527e-4
-1.686, 4.432e-4
-1.685, 4.338e-4
-1.684, 4.249e-4
-1.683, 4.163e-4
-1.682, 4.078e-4
-1.681, 3.996e-4
-1.680, 3.912e-4
-1.679, 3.826e-4
-1.678, 3.740e-4
-1.677, 3.657e-4
-1.676, 3.578e-4
-1.675, 3.500e-4
-1.674, 3.422e-4
-1.673, 3.349e-4
-1.672, 3.282e-4
-1.671, 3.212e-4
-1.670, 3.143e-4
-1.669, 3.076e-4
-1.668, 3.009e-4
-1.667, 2.943e-4
-1.666, 2.882e-4
-1.665, 2.822e-4
-1.664, 2.759e-4
-1.663, 2.702e-4
-1.662, 2.643e-4
-1.661, 2.587e-4
-1.660, 2.534e-4
-1.659, 2.476e-4
-1.658, 2.423e-4
-1.657, 2.371e-4
-1.656, 2.322e-4
-1.655, 2.274e-4
-1.654, 2.226e-4
-1.653, 2.177e-4
-1.652, 2.128e-4
-1.651, 2.083e-4
-1.650, 2.036e-4
-1.649, 1.992e-4
-1.648, 1.949e-4
-1.647, 1.906e-4
-1.646, 1.866e-4
-1.645, 1.827e-4
-1.644, 1.786e-4
-1.643, 1.748e-4
-1.642, 1.711e-4
-1.641, 1.672e-4
-1.640, 1.637e-4
-1.639, 1.601e-4
-1.638, 1.564e-4
-1.637, 1.531e-4
-1.636, 1.498e-4
-1.635, 1.466e-4
-1.634, 1.434e-4
-1.633, 1.403e-4
-1.632, 1.372e-4
-1.631, 1.343e-4
-1.630, 1.314e-4
-1.629, 1.285e-4
-1.628, 1.258e-4
-1.627, 1.232e-4
-1.626, 1.204e-4
-1.625, 1.178e-4
-1.624, 1.152e-4
-1.623, 1.126e-4
-1.622, 1.102e-4
-1.621, 1.079e-4
-1.620, 1.055e-4
-1.619, 1.032e-4
-1.618, 1.010e-4
-1.617, 9.879e-5
-1.616, 9.673e-5
-1.615, 9.457e-5
-1.614, 9.265e-5
-1.613, 9.058e-5
-1.612, 8.856e-5
-1.611, 8.666e-5
-1.610, 8.492e-5
-1.609, 8.306e-5
-1.608, 8.124e-5
-1.607, 7.954e-5
-1.606, 7.777e-5
-1.605, 7.618e-5
-1.604, 7.438e-5
-1.603, 7.296e-5
-1.602, 7.125e-5
-1.601, 6.979e-5
-1.600, 6.821e-5
-1.599, 6.673e-5
-1.598, 6.543e-5
-1.597, 6.394e-5
-1.596, 6.260e-5
-1.595, 6.130e-5
-1.594, 5.988e-5
-1.593, 5.859e-5
-1.592, 5.737e-5
-1.591, 5.619e-5
-1.590, 5.492e-5
-1.589, 5.360e-5
-1.588, 5.249e-5
-1.587, 5.138e-5
-1.586, 5.025e-5
-1.585, 4.917e-5
-1.584, 4.819e-5
-1.583, 4.713e-5
-1.582, 4.603e-5
-1.581, 4.509e-5
-1.580, 4.408e-5
-1.579, 4.301e-5
-1.578, 4.210e-5
-1.577, 4.126e-5
-1.576, 4.047e-5
-1.575, 3.951e-5
-1.574, 3.849e-5
-1.573, 3.776e-5
-1.572, 3.690e-5
-1.571, 3.604e-5
-1.570, 3.546e-5
-1.569, 3.457e-5
-1.568, 3.388e-5
-1.567, 3.301e-5
-1.566, 3.236e-5
-1.565, 3.180e-5
-1.564, 3.093e-5
-1.563, 3.036e-5
-1.562, 2.962e-5
-1.561, 2.899e-5
-1.560, 2.843e-5
-1.559, 2.764e-5
-1.558, 2.710e-5
-1.557, 2.660e-5
-1.556, 2.594e-5
-1.555, 2.530e-5
-1.554, 2.469e-5
-1.553, 2.414e-5
-1.552, 2.353e-5
-1.551, 2.312e-5
-1.550, 2.268e-5
-1.549, 2.204e-5
-1.548, 2.152e-5
-1.547, 2.117e-5
-1.546, 2.071e-5
-1.545, 2.023e-5
-1.544, 1.988e-5
-1.543, 1.931e-5
-1.542, 1.890e-5
-1.541, 1.845e-5
-1.540, 1.790e-5
-1.539, 1.761e-5
-1.538, 1.713e-5
-1.537, 1.680e-5
-1.536, 1.636e-5
-1.535, 1.601e-5
-1.534, 1.549e-5
-1.533, 1.509e-5
-1.532, 1.493e-5
-1.531, 1.472e-5
-1.530, 1.424e-5
-1.529, 1.376e-5
-1.528, 1.357e-5
-1.527, 1.321e-5
-1.526, 1.301e-5
-1.525, 1.281e-5
-1.524, 1.229e-5
-1.523, 1.198e-5
-1.522, 1.166e-5
-1.521, 1.158e-5
-1.520, 1.130e-5
-1.519, 1.098e-5
-1.518, 1.068e-5
-1.517, 1.049e-5
-1.516, 1.018e-5
-1.515, 1.005e-5
-1.514, 9.736e-6
-1.513, 9.420e-6
-1.512, 9.390e-6
-1.511, 9.075e-6
-1.510, 8.759e-6
-1.509, 8.443e-6
-1.508, 8.226e-6
-1.507, 8.078e-6
-1.506, 7.891e-6
-1.505, 7.940e-6
-1.504, 7.486e-6
-1.503, 7.328e-6
-1.502, 7.092e-6
-1.501, 7.072e-6
-1.500, 6.884e-6
-1.499, 6.736e-6
-1.498, 6.391e-6
-1.497, 6.164e-6
-1.496, 6.135e-6
-1.495, 5.987e-6
-1.494, 5.710e-6
-1.493, 5.553e-6
-1.492, 5.414e-6
-1.491, 5.306e-6
-1.490, 5.227e-6
-1.489, 5.069e-6
-1.488, 4.911e-6
-1.487, 4.783e-6
-1.486, 4.605e-6
-1.485, 4.526e-6
-1.484, 4.388e-6
-1.483, 4.231e-6
-1.482, 3.984e-6
-1.481, 3.994e-6
-1.480, 3.895e-6
-1.479, 3.717e-6
-1.478, 3.668e-6
-1.477, 3.500e-6
-1.476, 3.422e-6
-1.475, 3.352e-6
-1.474, 3.145e-6
-1.473, 3.106e-6
-1.472, 2.968e-6
-1.471, 2.978e-6
-1.470, 2.790e-6
-1.469, 2.642e-6
-1.468, 2.642e-6
-1.467, 2.553e-6
-1.466, 2.514e-6
-1.465, 2.366e-6
-1.464, 2.238e-6
-1.463, 2.208e-6
-1.462, 1.971e-6
-1.461, 1.991e-6
-1.460, 1.902e-6
-1.459, 1.725e-6
-1.458, 1.715e-6
-1.457, 1.685e-6
-1.456, 1.577e-6
-1.455, 1.458e-6
-1.454, 1.468e-6
-1.453, 1.350e-6
-1.452, 1.261e-6
-1.451, 1.300e-6
-1.450, 1.231e-6
-1.449, 1.152e-6
-1.448, 1.054e-6
-1.447, 9.254e-7
-1.446, 8.268e-7
-1.445, 8.662e-7
-1.444, 8.958e-7
-1.443, 6.492e-7
-1.442, 6.492e-7
-1.441, 6.985e-7
-1.440, 6.985e-7
-1.439, 5.209e-7
-1.438, 3.433e-7
-1.437, 4.223e-7
-1.436, 4.321e-7
-1.435, 4.124e-7
-1.434, 7.695e-8
-1.433, -2.171e-8
-1.432, 1.164e-7
-1.431, 1.756e-7
-1.430, -7.103e-8
-1.429, -6.117e-8
-1.428, -1.500e-7
-1.427, -2.289e-7
-1.426, -1.993e-7
-1.425, -1.697e-7
-1.424, -1.993e-7
-1.423, -2.684e-7
-1.422, -2.585e-7
-1.421, -2.684e-7
-1.420, -2.684e-7
-1.419, -3.966e-7
-1.418, -4.657e-7
-1.417, -5.249e-7
-1.416, -4.459e-7
-1.415, -4.854e-7
-1.414, -5.841e-7
-1.413, -7.025e-7
-1.412, -6.334e-7
-1.411, -6.827e-7
-1.410, -6.926e-7
-1.409, -7.123e-7
-1.408, -7.025e-7
-1.407, -7.814e-7
-1.406, -8.899e-7
-1.405, -8.208e-7
-1.404, -8.702e-7
-1.403, -9.392e-7
-1.402, -8.603e-7
-1.401, -9.392e-7
-1.400, -1.018e-6
-1.399, -1.018e-6
-1.398, -9.294e-7
-1.397, -1.117e-6
-1.396, -1.038e-6
-1.395, -1.097e-6
-1.394, -1.156e-6
-1.393, -1.048e-6
-1.392, -1.146e-6
-1.391, -1.225e-6
-1.390, -1.206e-6
-1.389, -1.245e-6
-1.388, -1.235e-6
-1.387, -1.225e-6
-1.386, -1.166e-6
-1.385, -1.255e-6
-1.384, -1.245e-6
-1.383, -1.433e-6
-1.382, -1.363e-6
-1.381, -1.344e-6
-1.380, -1.304e-6
-1.379, -1.285e-6
-1.378, -1.442e-6
-1.377, -1.363e-6
-1.376, -1.393e-6
-1.375, -1.433e-6
-1.374, -1.472e-6
-1.373, -1.482e-6
-1.372, -1.511e-6
-1.371, -1.502e-6
-1.370, -1.452e-6
-1.369, -1.581e-6
-1.368, -1.531e-6
-1.367, -1.640e-6
-1.366, -1.561e-6
-1.365, -1.571e-6
-1.364, -1.729e-6
-1.363, -1.590e-6
-1.362, -1.600e-6
-1.361, -1.659e-6
-1.360, -1.600e-6
-1.359, -1.590e-6
-1.358, -1.650e-6
-1.357, -1.659e-6
-1.356, -1.571e-6
-1.355, -1.729e-6
-1.354, -1.857e-6
-1.353, -1.778e-6
-1.352, -1.817e-6
-1.351, -1.807e-6
-1.350, -1.669e-6
-1.349, -1.798e-6
-1.348, -1.679e-6
-1.347, -1.857e-6
-1.346, -1.758e-6
-1.345, -1.778e-6
-1.344, -1.847e-6
-1.343, -1.778e-6
-1.342, -1.758e-6
-1.341, -1.807e-6
-1.340, -1.867e-6
-1.339, -1.857e-6
-1.338, -1.906e-6
-1.337, -1.827e-6
-1.336, -1.837e-6
-1.335, -1.867e-6
-1.334, -1.778e-6
-1.333, -1.906e-6
-1.332, -1.936e-6
-1.331, -1.936e-6
-1.330, -1.906e-6
-1.329, -1.926e-6
-1.328, -1.955e-6
-1.327, -2.034e-6
-1.326, -1.807e-6
-1.325, -1.896e-6
-1.324, -1.926e-6
-1.323, -2.084e-6
-1.322, -1.936e-6
-1.321, -2.005e-6
-1.320, -2.024e-6
-1.319, -1.886e-6
-1.318, -1.995e-6
-1.317, -1.975e-6
-1.316, -1.975e-6
-1.315, -1.995e-6
-1.314, -2.123e-6
-1.313, -2.034e-6
-1.312, -2.054e-6
-1.311, -2.034e-6
-1.310, -1.867e-6
-1.309, -2.015e-6
-1.308, -2.064e-6
-1.307, -1.955e-6
-1.306, -2.024e-6
-1.305, -1.995e-6
-1.304, -2.123e-6
-1.303, -2.222e-6
-1.302, -2.064e-6
-1.301, -2.074e-6
-1.300, -2.163e-6
-1.299, -2.113e-6
-1.298, -2.172e-6
-1.297, -2.044e-6
-1.296, -2.074e-6
-1.295, -2.242e-6
-1.294, -2.103e-6
-1.293, -2.153e-6
-1.292, -2.172e-6
-1.291, -2.153e-6
-1.290, -2.242e-6
-1.289, -2.084e-6
-1.288, -2.192e-6
-1.287, -2.192e-6
-1.286, -2.251e-6
-1.285, -2.133e-6
-1.284, -2.113e-6
-1.283, -2.242e-6
-1.282, -2.212e-6
-1.281, -2.192e-6
-1.280, -2.212e-6
-1.279, -2.212e-6
-1.278, -2.242e-6
-1.277, -2.212e-6
-1.276, -2.232e-6
-1.275, -2.182e-6
-1.274, -2.320e-6
-1.273, -2.271e-6
-1.272, -2.242e-6
-1.271, -2.281e-6
-1.270, -2.271e-6
-1.269, -2.301e-6
-1.268, -2.251e-6
-1.267, -2.271e-6
-1.266, -2.311e-6
-1.265, -2.242e-6
-1.264, -2.212e-6
-1.263, -2.340e-6
-1.262, -2.340e-6
-1.261, -2.242e-6
-1.260, -2.251e-6
-1.259, -2.222e-6
-1.258, -2.261e-6
-1.257, -2.251e-6
-1.256, -2.261e-6
-1.255, -2.340e-6
-1.254, -2.399e-6
-1.253, -2.360e-6
-1.252, -2.291e-6
-1.251, -2.281e-6
-1.250, -2.320e-6
-1.249, -2.320e-6
-1.248, -2.390e-6
-1.247, -2.360e-6
-1.246, -2.271e-6
-1.245, -2.311e-6
-1.244, -2.390e-6
-1.243, -2.380e-6
-1.242, -2.380e-6
-1.241, -2.360e-6
-1.240, -2.390e-6
-1.239, -2.468e-6
-1.238, -2.498e-6
-1.237, -2.409e-6
-1.236, -2.409e-6
-1.235, -2.439e-6
-1.234, -2.498e-6
-1.233, -2.488e-6
-1.232, -2.478e-6
-1.231, -2.399e-6
-1.230, -2.508e-6
-1.229, -2.488e-6
-1.228, -2.616e-6
-1.227, -2.577e-6
-1.226, -2.508e-6
-1.225, -2.518e-6
-1.224, -2.567e-6
-1.223, -2.656e-6
-1.222, -2.705e-6
-1.221, -2.587e-6
-1.220, -2.557e-6
-1.219, -2.557e-6
-1.218, -2.616e-6
-1.217, -2.587e-6
-1.216, -2.616e-6
-1.215, -2.607e-6
-1.214, -2.695e-6
-1.213, -2.616e-6
-1.212, -2.656e-6
-1.211, -2.557e-6
-1.210, -2.567e-6
-1.209, -2.715e-6
-1.208, -2.636e-6
-1.207, -2.636e-6
-1.206, -2.567e-6
-1.205, -2.656e-6
-1.204, -2.607e-6
-1.203, -2.755e-6
-1.202, -2.636e-6
-1.201, -2.666e-6
-1.200, -2.794e-6
-1.199, -2.834e-6
-1.198, -2.636e-6
-1.197, -2.774e-6
-1.196, -2.686e-6
-1.195, -2.843e-6
-1.194, -2.646e-6
-1.193, -2.863e-6
-1.192, -2.774e-6
-1.191, -2.725e-6
-1.190, -2.991e-6
-1.189, -2.784e-6
-1.188, -2.863e-6
-1.187, -2.883e-6
-1.186, -2.774e-6
-1.185, -2.873e-6
-1.184, -2.843e-6
-1.183, -2.972e-6
-1.182, -2.764e-6
-1.181, -2.863e-6
-1.180, -2.794e-6
-1.179, -2.903e-6
-1.178, -2.794e-6
-1.177, -3.001e-6
-1.176, -2.922e-6
-1.175, -2.922e-6
-1.174, -2.972e-6
-1.173, -3.031e-6
-1.172, -2.824e-6
-1.171, -3.001e-6
-1.170, -3.051e-6
-1.169, -2.853e-6
-1.168, -3.011e-6
-1.167, -2.853e-6
-1.166, -2.922e-6
-1.165, -3.110e-6
-1.164, -3.031e-6
-1.163, -3.238e-6
-1.162, -2.893e-6
-1.161, -3.031e-6
-1.160, -3.139e-6
-1.159, -3.070e-6
-1.158, -3.179e-6
-1.157, -3.129e-6
-1.156, -3.169e-6
-1.155, -3.179e-6
-1.154, -3.110e-6
-1.153, -3.268e-6
-1.152, -3.179e-6
-1.151, -3.189e-6
-1.150, -3.228e-6
-1.149, -3.169e-6
-1.148, -3.317e-6
-1.147, -3.228e-6
-1.146, -3.327e-6
-1.145, -3.317e-6
-1.144, -3.277e-6
-1.143, -3.268e-6
-1.142, -3.238e-6
-1.141, -3.258e-6
-1.140, -3.317e-6
-1.139, -3.347e-6
-1.138, -3.376e-6
-1.137, -3.307e-6
-1.136, -3.425e-6
-1.135, -3.287e-6
-1.134, -3.445e-6
-1.133, -3.504e-6
-1.132, -3.495e-6
-1.131, -3.524e-6
-1.130, -3.534e-6
-1.129, -3.534e-6
-1.128, -3.475e-6
-1.127, -3.445e-6
-1.126, -3.593e-6
-1.125, -3.672e-6
-1.124, -3.564e-6
-1.123, -3.573e-6
-1.122, -3.564e-6
-1.121, -3.603e-6
-1.120, -3.603e-6
-1.119, -3.741e-6
-1.118, -3.741e-6
-1.117, -3.534e-6
-1.116, -3.623e-6
-1.115, -3.830e-6
-1.114, -3.790e-6
-1.113, -3.662e-6
-1.112, -3.830e-6
-1.111, -3.840e-6
-1.110, -3.800e-6
-1.109, -3.771e-6
-1.108, -3.830e-6
-1.107, -3.879e-6
-1.106, -3.869e-6
-1.105, -3.879e-6
-1.104, -3.830e-6
-1.103, -3.889e-6
-1.102, -3.919e-6
-1.101, -3.830e-6
-1.100, -3.958e-6
-1.099, -4.017e-6
-1.098, -4.047e-6
-1.097, -4.017e-6
-1.096, -4.106e-6
-1.095, -4.205e-6
-1.094, -4.116e-6
-1.093, -4.146e-6
-1.092, -4.175e-6
-1.091, -4.077e-6
-1.090, -4.156e-6
-1.089, -4.175e-6
-1.088, -4.254e-6
-1.087, -4.234e-6
-1.086, -4.353e-6
-1.085, -4.304e-6
-1.084, -4.392e-6
-1.083, -4.363e-6
-1.082, -4.363e-6
-1.081, -4.412e-6
-1.080, -4.491e-6
-1.079, -4.501e-6
-1.078, -4.619e-6
-1.077, -4.402e-6
-1.076, -4.609e-6
-1.075, -4.688e-6
-1.074, -4.718e-6
-1.073, -4.708e-6
-1.072, -4.600e-6
-1.071, -4.659e-6
-1.070, -4.619e-6
-1.069, -4.826e-6
-1.068, -4.757e-6
-1.067, -4.688e-6
-1.066, -4.836e-6
-1.065, -4.757e-6
-1.064, -4.925e-6
-1.063, -4.935e-6
-1.062, -4.955e-6
-1.061, -5.024e-6
-1.060, -4.925e-6
-1.059, -5.043e-6
-1.058, -5.113e-6
-1.057, -4.984e-6
-1.056, -5.162e-6
-1.055, -5.211e-6
-1.054, -5.241e-6
-1.053, -5.261e-6
-1.052, -5.142e-6
-1.051, -5.251e-6
-1.050, -5.290e-6
-1.049, -5.389e-6
-1.048, -5.517e-6
-1.047, -5.379e-6
-1.046, -5.458e-6
-1.045, -5.537e-6
-1.044, -5.537e-6
-1.043, -5.655e-6
-1.042, -5.557e-6
-1.041, -5.704e-6
-1.040, -5.704e-6
-1.039, -5.704e-6
-1.038, -5.783e-6
-1.037, -5.774e-6
-1.036, -5.971e-6
-1.035, -5.803e-6
-1.034, -6.020e-6
-1.033, -6.079e-6
-1.032, -5.912e-6
-1.031, -6.000e-6
-1.030, -6.188e-6
-1.029, -6.257e-6
-1.028, -6.257e-6
-1.027, -6.257e-6
-1.026, -6.208e-6
-1.025, -6.366e-6
-1.024, -6.474e-6
-1.023, -6.602e-6
-1.022, -6.514e-6
-1.021, -6.553e-6
-1.020, -6.740e-6
-1.019, -6.800e-6
-1.018, -6.800e-6
-1.017, -6.800e-6
-1.016, -6.888e-6
-1.015, -6.859e-6
-1.014, -6.948e-6
-1.013, -7.125e-6
-1.012, -6.957e-6
-1.011, -7.263e-6
-1.010, -7.194e-6
-1.009, -7.283e-6
-1.008, -7.411e-6
-1.007, -7.313e-6
-1.006, -7.421e-6
-1.005, -7.510e-6
-1.004, -7.727e-6
-1.003, -7.757e-6
-1.002, -7.668e-6
-1.001, -7.727e-6
