Sept. 8, 2024   14:54:15
Cyclic Voltammetry
File: c:/users/guazh/data/20240903_batch_252_500/2024-09-03-exp298\exp298-2024-09-08t14_33_47-arkoh\exp298_cv_sr_400mvs_efin_-1900mv.bin
Data Source:  Experiment
Instrument Model:  CHI760E
Header: CV ran at 400 mVs
Note: 

Init E (V) = -1
High E (V) = -1
Low E (V) = -1.9
Final E (V) = -1
Init P/N = N
Scan Rate (V/s) = 0.4
Segment = 3
Sample Interval (V) = 0.001
Quiet Time (sec) = 2
Sensitivity (A/V) = 0.01
Comp R (ohm) = 1.6

Results:

Channel 1:
Segment 1:

Segment 2:

Segment 3:

Potential/V, Current/A

-1.000, 3.239e-6
-1.001, 3.239e-6
-1.002, 3.239e-6
-1.003, 3.239e-6
-1.004, 3.239e-6
-1.005, 3.239e-6
-1.006, 3.239e-6
-1.007, 3.239e-6
-1.008, 3.239e-6
-1.009, 3.239e-6
-1.010, 3.239e-6
-1.011, 3.239e-6
-1.012, 3.239e-6
-1.013, 3.239e-6
-1.014, 3.239e-6
-1.015, 3.239e-6
-1.016, 3.239e-6
-1.017, 3.239e-6
-1.018, 3.239e-6
-1.019, 3.239e-6
-1.020, 3.239e-6
-1.021, 3.239e-6
-1.022, 3.239e-6
-1.023, 6.322e-6
-1.024, 3.239e-6
-1.025, 3.239e-6
-1.026, 6.322e-6
-1.027, 3.239e-6
-1.028, 6.322e-6
-1.029, 3.239e-6
-1.030, 3.239e-6
-1.031, 3.239e-6
-1.032, 3.239e-6
-1.033, 6.322e-6
-1.034, 6.322e-6
-1.035, 6.322e-6
-1.036, 3.239e-6
-1.037, 6.322e-6
-1.038, 6.322e-6
-1.039, 3.239e-6
-1.040, 6.322e-6
-1.041, 6.322e-6
-1.042, 3.239e-6
-1.043, 6.322e-6
-1.044, 6.322e-6
-1.045, 6.322e-6
-1.046, 6.322e-6
-1.047, 6.322e-6
-1.048, 6.322e-6
-1.049, 6.322e-6
-1.050, 6.322e-6
-1.051, 6.322e-6
-1.052, 6.322e-6
-1.053, 6.322e-6
-1.054, 6.322e-6
-1.055, 6.322e-6
-1.056, 6.322e-6
-1.057, 6.322e-6
-1.058, 6.322e-6
-1.059, 6.322e-6
-1.060, 6.322e-6
-1.061, 6.322e-6
-1.062, 6.322e-6
-1.063, 6.322e-6
-1.064, 6.322e-6
-1.065, 6.322e-6
-1.066, 6.322e-6
-1.067, 6.322e-6
-1.068, 6.322e-6
-1.069, 6.322e-6
-1.070, 6.322e-6
-1.071, 6.322e-6
-1.072, 6.322e-6
-1.073, 6.322e-6
-1.074, 6.322e-6
-1.075, 6.322e-6
-1.076, 6.322e-6
-1.077, 6.322e-6
-1.078, 6.322e-6
-1.079, 6.322e-6
-1.080, 6.322e-6
-1.081, 6.322e-6
-1.082, 6.322e-6
-1.083, 6.322e-6
-1.084, 6.322e-6
-1.085, 6.322e-6
-1.086, 6.322e-6
-1.087, 6.322e-6
-1.088, 6.322e-6
-1.089, 6.322e-6
-1.090, 6.322e-6
-1.091, 6.322e-6
-1.092, 6.322e-6
-1.093, 6.322e-6
-1.094, 6.322e-6
-1.095, 6.322e-6
-1.096, 6.322e-6
-1.097, 6.322e-6
-1.098, 6.322e-6
-1.099, 6.322e-6
-1.100, 6.322e-6
-1.101, 6.322e-6
-1.102, 6.322e-6
-1.103, 9.405e-6
-1.104, 6.322e-6
-1.105, 6.322e-6
-1.106, 6.322e-6
-1.107, 6.322e-6
-1.108, 6.322e-6
-1.109, 6.322e-6
-1.110, 6.322e-6
-1.111, 6.322e-6
-1.112, 6.322e-6
-1.113, 6.322e-6
-1.114, 6.322e-6
-1.115, 6.322e-6
-1.116, 6.322e-6
-1.117, 6.322e-6
-1.118, 6.322e-6
-1.119, 6.322e-6
-1.120, 9.405e-6
-1.121, 6.322e-6
-1.122, 6.322e-6
-1.123, 9.405e-6
-1.124, 6.322e-6
-1.125, 6.322e-6
-1.126, 6.322e-6
-1.127, 6.322e-6
-1.128, 6.322e-6
-1.129, 9.405e-6
-1.130, 9.405e-6
-1.131, 6.322e-6
-1.132, 6.322e-6
-1.133, 6.322e-6
-1.134, 9.405e-6
-1.135, 9.405e-6
-1.136, 6.322e-6
-1.137, 6.322e-6
-1.138, 6.322e-6
-1.139, 6.322e-6
-1.140, 9.405e-6
-1.141, 6.322e-6
-1.142, 6.322e-6
-1.143, 6.322e-6
-1.144, 6.322e-6
-1.145, 6.322e-6
-1.146, 9.405e-6
-1.147, 6.322e-6
-1.148, 6.322e-6
-1.149, 9.405e-6
-1.150, 9.405e-6
-1.151, 6.322e-6
-1.152, 9.405e-6
-1.153, 9.405e-6
-1.154, 9.405e-6
-1.155, 6.322e-6
-1.156, 9.405e-6
-1.157, 6.322e-6
-1.158, 9.405e-6
-1.159, 9.405e-6
-1.160, 9.405e-6
-1.161, 9.405e-6
-1.162, 6.322e-6
-1.163, 9.405e-6
-1.164, 9.405e-6
-1.165, 9.405e-6
-1.166, 9.405e-6
-1.167, 9.405e-6
-1.168, 9.405e-6
-1.169, 9.405e-6
-1.170, 9.405e-6
-1.171, 9.405e-6
-1.172, 9.405e-6
-1.173, 9.405e-6
-1.174, 9.405e-6
-1.175, 9.405e-6
-1.176, 9.405e-6
-1.177, 9.405e-6
-1.178, 9.405e-6
-1.179, 9.405e-6
-1.180, 9.405e-6
-1.181, 9.405e-6
-1.182, 9.405e-6
-1.183, 9.405e-6
-1.184, 9.405e-6
-1.185, 9.405e-6
-1.186, 9.405e-6
-1.187, 9.405e-6
-1.188, 9.405e-6
-1.189, 9.405e-6
-1.190, 9.405e-6
-1.191, 9.405e-6
-1.192, 9.405e-6
-1.193, 9.405e-6
-1.194, 9.405e-6
-1.195, 9.405e-6
-1.196, 9.405e-6
-1.197, 9.405e-6
-1.198, 9.405e-6
-1.199, 9.405e-6
-1.200, 9.405e-6
-1.201, 9.405e-6
-1.202, 9.405e-6
-1.203, 9.405e-6
-1.204, 9.405e-6
-1.205, 9.405e-6
-1.206, 9.405e-6
-1.207, 9.405e-6
-1.208, 9.405e-6
-1.209, 9.405e-6
-1.210, 9.405e-6
-1.211, 9.405e-6
-1.212, 9.405e-6
-1.213, 9.405e-6
-1.214, 9.405e-6
-1.215, 9.405e-6
-1.216, 9.405e-6
-1.217, 9.405e-6
-1.218, 9.405e-6
-1.219, 9.405e-6
-1.220, 9.405e-6
-1.221, 9.405e-6
-1.222, 9.405e-6
-1.223, 9.405e-6
-1.224, 9.405e-6
-1.225, 9.405e-6
-1.226, 9.405e-6
-1.227, 9.405e-6
-1.228, 9.405e-6
-1.229, 9.405e-6
-1.230, 9.405e-6
-1.231, 9.405e-6
-1.232, 9.405e-6
-1.233, 9.405e-6
-1.234, 9.405e-6
-1.235, 9.405e-6
-1.236, 9.405e-6
-1.237, 9.405e-6
-1.238, 9.405e-6
-1.239, 9.405e-6
-1.240, 9.405e-6
-1.241, 9.405e-6
-1.242, 9.405e-6
-1.243, 9.405e-6
-1.244, 9.405e-6
-1.245, 9.405e-6
-1.246, 9.405e-6
-1.247, 9.405e-6
-1.248, 9.405e-6
-1.249, 9.405e-6
-1.250, 9.405e-6
-1.251, 9.405e-6
-1.252, 9.405e-6
-1.253, 9.405e-6
-1.254, 9.405e-6
-1.255, 9.405e-6
-1.256, 9.405e-6
-1.257, 9.405e-6
-1.258, 9.405e-6
-1.259, 9.405e-6
-1.260, 9.405e-6
-1.261, 9.405e-6
-1.262, 9.405e-6
-1.263, 9.405e-6
-1.264, 9.405e-6
-1.265, 9.405e-6
-1.266, 9.405e-6
-1.267, 9.405e-6
-1.268, 9.405e-6
-1.269, 9.405e-6
-1.270, 1.249e-5
-1.271, 9.405e-6
-1.272, 1.249e-5
-1.273, 1.249e-5
-1.274, 9.405e-6
-1.275, 9.405e-6
-1.276, 9.405e-6
-1.277, 1.249e-5
-1.278, 9.405e-6
-1.279, 1.249e-5
-1.280, 1.249e-5
-1.281, 1.249e-5
-1.282, 1.249e-5
-1.283, 1.249e-5
-1.284, 9.405e-6
-1.285, 9.405e-6
-1.286, 1.249e-5
-1.287, 1.249e-5
-1.288, 9.405e-6
-1.289, 1.249e-5
-1.290, 1.249e-5
-1.291, 1.249e-5
-1.292, 1.249e-5
-1.293, 1.249e-5
-1.294, 9.405e-6
-1.295, 1.249e-5
-1.296, 1.249e-5
-1.297, 9.405e-6
-1.298, 1.249e-5
-1.299, 1.249e-5
-1.300, 1.249e-5
-1.301, 1.249e-5
-1.302, 1.249e-5
-1.303, 1.249e-5
-1.304, 1.249e-5
-1.305, 1.249e-5
-1.306, 1.249e-5
-1.307, 1.249e-5
-1.308, 1.249e-5
-1.309, 1.249e-5
-1.310, 1.249e-5
-1.311, 9.405e-6
-1.312, 1.249e-5
-1.313, 1.249e-5
-1.314, 1.249e-5
-1.315, 1.249e-5
-1.316, 1.249e-5
-1.317, 1.249e-5
-1.318, 1.249e-5
-1.319, 1.249e-5
-1.320, 1.249e-5
-1.321, 1.249e-5
-1.322, 1.249e-5
-1.323, 1.249e-5
-1.324, 1.249e-5
-1.325, 1.249e-5
-1.326, 1.249e-5
-1.327, 1.249e-5
-1.328, 1.249e-5
-1.329, 1.249e-5
-1.330, 1.249e-5
-1.331, 1.249e-5
-1.332, 1.249e-5
-1.333, 1.249e-5
-1.334, 1.249e-5
-1.335, 1.249e-5
-1.336, 1.249e-5
-1.337, 1.249e-5
-1.338, 1.249e-5
-1.339, 1.249e-5
-1.340, 1.249e-5
-1.341, 1.249e-5
-1.342, 1.249e-5
-1.343, 1.249e-5
-1.344, 1.249e-5
-1.345, 1.249e-5
-1.346, 1.249e-5
-1.347, 1.249e-5
-1.348, 1.249e-5
-1.349, 1.249e-5
-1.350, 1.249e-5
-1.351, 1.249e-5
-1.352, 1.249e-5
-1.353, 1.249e-5
-1.354, 1.249e-5
-1.355, 1.249e-5
-1.356, 1.249e-5
-1.357, 1.249e-5
-1.358, 1.249e-5
-1.359, 1.249e-5
-1.360, 1.249e-5
-1.361, 1.249e-5
-1.362, 1.249e-5
-1.363, 1.249e-5
-1.364, 1.249e-5
-1.365, 1.249e-5
-1.366, 1.249e-5
-1.367, 1.249e-5
-1.368, 1.249e-5
-1.369, 1.249e-5
-1.370, 1.249e-5
-1.371, 1.249e-5
-1.372, 1.249e-5
-1.373, 1.249e-5
-1.374, 1.249e-5
-1.375, 1.249e-5
-1.376, 1.249e-5
-1.377, 1.249e-5
-1.378, 1.249e-5
-1.379, 1.249e-5
-1.380, 1.557e-5
-1.381, 1.249e-5
-1.382, 1.249e-5
-1.383, 1.249e-5
-1.384, 1.249e-5
-1.385, 1.249e-5
-1.386, 1.249e-5
-1.387, 1.249e-5
-1.388, 1.249e-5
-1.389, 1.249e-5
-1.390, 1.249e-5
-1.391, 1.249e-5
-1.392, 1.249e-5
-1.393, 1.249e-5
-1.394, 1.249e-5
-1.395, 1.249e-5
-1.396, 1.249e-5
-1.397, 1.249e-5
-1.398, 1.249e-5
-1.399, 1.249e-5
-1.400, 1.249e-5
-1.401, 1.249e-5
-1.402, 1.249e-5
-1.403, 1.249e-5
-1.404, 1.249e-5
-1.405, 1.249e-5
-1.406, 1.249e-5
-1.407, 1.249e-5
-1.408, 1.249e-5
-1.409, 1.249e-5
-1.410, 1.557e-5
-1.411, 1.249e-5
-1.412, 1.249e-5
-1.413, 1.557e-5
-1.414, 1.249e-5
-1.415, 1.249e-5
-1.416, 1.557e-5
-1.417, 1.249e-5
-1.418, 1.249e-5
-1.419, 1.249e-5
-1.420, 1.249e-5
-1.421, 1.249e-5
-1.422, 1.249e-5
-1.423, 1.249e-5
-1.424, 1.249e-5
-1.425, 1.249e-5
-1.426, 1.249e-5
-1.427, 1.249e-5
-1.428, 1.249e-5
-1.429, 1.249e-5
-1.430, 1.249e-5
-1.431, 1.249e-5
-1.432, 1.557e-5
-1.433, 1.557e-5
-1.434, 1.249e-5
-1.435, 1.557e-5
-1.436, 1.557e-5
-1.437, 1.557e-5
-1.438, 1.557e-5
-1.439, 1.557e-5
-1.440, 1.249e-5
-1.441, 1.557e-5
-1.442, 1.557e-5
-1.443, 1.557e-5
-1.444, 1.557e-5
-1.445, 1.557e-5
-1.446, 1.249e-5
-1.447, 1.557e-5
-1.448, 1.557e-5
-1.449, 1.557e-5
-1.450, 1.557e-5
-1.451, 1.557e-5
-1.452, 1.557e-5
-1.453, 1.557e-5
-1.454, 1.557e-5
-1.455, 1.557e-5
-1.456, 1.557e-5
-1.457, 1.557e-5
-1.458, 1.557e-5
-1.459, 1.557e-5
-1.460, 1.557e-5
-1.461, 1.557e-5
-1.462, 1.557e-5
-1.463, 1.557e-5
-1.464, 1.557e-5
-1.465, 1.557e-5
-1.466, 1.557e-5
-1.467, 1.557e-5
-1.468, 1.557e-5
-1.469, 1.557e-5
-1.470, 1.557e-5
-1.471, 1.557e-5
-1.472, 1.557e-5
-1.473, 1.557e-5
-1.474, 1.557e-5
-1.475, 1.557e-5
-1.476, 1.557e-5
-1.477, 1.557e-5
-1.478, 1.557e-5
-1.479, 1.557e-5
-1.480, 1.557e-5
-1.481, 1.557e-5
-1.482, 1.557e-5
-1.483, 1.557e-5
-1.484, 1.557e-5
-1.485, 1.557e-5
-1.486, 1.557e-5
-1.487, 1.557e-5
-1.488, 1.557e-5
-1.489, 1.557e-5
-1.490, 1.557e-5
-1.491, 1.557e-5
-1.492, 1.557e-5
-1.493, 1.557e-5
-1.494, 1.557e-5
-1.495, 1.557e-5
-1.496, 1.557e-5
-1.497, 1.865e-5
-1.498, 1.557e-5
-1.499, 1.557e-5
-1.500, 1.865e-5
-1.501, 1.557e-5
-1.502, 1.865e-5
-1.503, 1.865e-5
-1.504, 1.557e-5
-1.505, 1.557e-5
-1.506, 1.557e-5
-1.507, 1.865e-5
-1.508, 1.865e-5
-1.509, 1.865e-5
-1.510, 1.865e-5
-1.511, 1.865e-5
-1.512, 1.865e-5
-1.513, 1.865e-5
-1.514, 1.865e-5
-1.515, 1.865e-5
-1.516, 1.865e-5
-1.517, 1.865e-5
-1.518, 1.865e-5
-1.519, 1.865e-5
-1.520, 1.865e-5
-1.521, 1.865e-5
-1.522, 1.865e-5
-1.523, 1.865e-5
-1.524, 1.865e-5
-1.525, 1.865e-5
-1.526, 1.865e-5
-1.527, 1.865e-5
-1.528, 1.865e-5
-1.529, 1.865e-5
-1.530, 1.865e-5
-1.531, 1.865e-5
-1.532, 1.865e-5
-1.533, 1.865e-5
-1.534, 1.865e-5
-1.535, 1.865e-5
-1.536, 1.865e-5
-1.537, 1.865e-5
-1.538, 1.865e-5
-1.539, 1.865e-5
-1.540, 1.865e-5
-1.541, 2.174e-5
-1.542, 2.174e-5
-1.543, 2.174e-5
-1.544, 2.174e-5
-1.545, 2.174e-5
-1.546, 2.174e-5
-1.547, 2.174e-5
-1.548, 2.174e-5
-1.549, 2.174e-5
-1.550, 2.174e-5
-1.551, 2.174e-5
-1.552, 2.174e-5
-1.553, 2.174e-5
-1.554, 2.174e-5
-1.555, 2.174e-5
-1.556, 2.174e-5
-1.557, 2.174e-5
-1.558, 2.174e-5
-1.559, 2.174e-5
-1.560, 2.174e-5
-1.561, 2.174e-5
-1.562, 2.174e-5
-1.563, 2.174e-5
-1.564, 2.174e-5
-1.565, 2.174e-5
-1.566, 2.482e-5
-1.567, 2.174e-5
-1.568, 2.174e-5
-1.569, 2.482e-5
-1.570, 2.482e-5
-1.571, 2.174e-5
-1.572, 2.482e-5
-1.573, 2.482e-5
-1.574, 2.482e-5
-1.575, 2.174e-5
-1.576, 2.482e-5
-1.577, 2.482e-5
-1.578, 2.482e-5
-1.579, 2.482e-5
-1.580, 2.482e-5
-1.581, 2.482e-5
-1.582, 2.482e-5
-1.583, 2.482e-5
-1.584, 2.482e-5
-1.585, 2.482e-5
-1.586, 2.482e-5
-1.587, 2.482e-5
-1.588, 2.482e-5
-1.589, 2.790e-5
-1.590, 2.790e-5
-1.591, 2.790e-5
-1.592, 2.790e-5
-1.593, 2.790e-5
-1.594, 2.790e-5
-1.595, 2.790e-5
-1.596, 2.790e-5
-1.597, 2.790e-5
-1.598, 2.790e-5
-1.599, 2.790e-5
-1.600, 2.790e-5
-1.601, 2.790e-5
-1.602, 2.790e-5
-1.603, 3.099e-5
-1.604, 3.099e-5
-1.605, 2.790e-5
-1.606, 3.099e-5
-1.607, 3.099e-5
-1.608, 2.790e-5
-1.609, 3.099e-5
-1.610, 3.099e-5
-1.611, 3.099e-5
-1.612, 3.099e-5
-1.613, 3.099e-5
-1.614, 3.099e-5
-1.615, 3.099e-5
-1.616, 3.099e-5
-1.617, 3.099e-5
-1.618, 3.099e-5
-1.619, 3.407e-5
-1.620, 3.407e-5
-1.621, 3.407e-5
-1.622, 3.407e-5
-1.623, 3.407e-5
-1.624, 3.407e-5
-1.625, 3.407e-5
-1.626, 3.715e-5
-1.627, 3.715e-5
-1.628, 3.715e-5
-1.629, 3.715e-5
-1.630, 3.715e-5
-1.631, 3.715e-5
-1.632, 3.715e-5
-1.633, 4.024e-5
-1.634, 3.715e-5
-1.635, 4.024e-5
-1.636, 4.024e-5
-1.637, 4.024e-5
-1.638, 4.024e-5
-1.639, 4.024e-5
-1.640, 4.024e-5
-1.641, 4.332e-5
-1.642, 4.332e-5
-1.643, 4.332e-5
-1.644, 4.332e-5
-1.645, 4.332e-5
-1.646, 4.332e-5
-1.647, 4.640e-5
-1.648, 4.640e-5
-1.649, 4.640e-5
-1.650, 4.640e-5
-1.651, 4.640e-5
-1.652, 4.949e-5
-1.653, 4.949e-5
-1.654, 4.949e-5
-1.655, 4.949e-5
-1.656, 5.257e-5
-1.657, 5.257e-5
-1.658, 5.257e-5
-1.659, 5.257e-5
-1.660, 5.565e-5
-1.661, 5.565e-5
-1.662, 5.565e-5
-1.663, 5.873e-5
-1.664, 5.873e-5
-1.665, 5.873e-5
-1.666, 5.873e-5
-1.667, 6.182e-5
-1.668, 6.182e-5
-1.669, 6.182e-5
-1.670, 6.490e-5
-1.671, 6.490e-5
-1.672, 6.490e-5
-1.673, 6.798e-5
-1.674, 6.798e-5
-1.675, 7.107e-5
-1.676, 7.107e-5
-1.677, 7.107e-5
-1.678, 7.107e-5
-1.679, 7.415e-5
-1.680, 7.723e-5
-1.681, 7.723e-5
-1.682, 7.723e-5
-1.683, 8.032e-5
-1.684, 8.032e-5
-1.685, 8.340e-5
-1.686, 8.340e-5
-1.687, 8.648e-5
-1.688, 8.648e-5
-1.689, 8.957e-5
-1.690, 8.957e-5
-1.691, 9.265e-5
-1.692, 9.573e-5
-1.693, 9.573e-5
-1.694, 9.882e-5
-1.695, 1.019e-4
-1.696, 1.019e-4
-1.697, 1.050e-4
-1.698, 1.050e-4
-1.699, 1.081e-4
-1.700, 1.111e-4
-1.701, 1.142e-4
-1.702, 1.173e-4
-1.703, 1.204e-4
-1.704, 1.204e-4
-1.705, 1.235e-4
-1.706, 1.266e-4
-1.707, 1.296e-4
-1.708, 1.327e-4
-1.709, 1.358e-4
-1.710, 1.389e-4
-1.711, 1.420e-4
-1.712, 1.451e-4
-1.713, 1.481e-4
-1.714, 1.512e-4
-1.715, 1.543e-4
-1.716, 1.605e-4
-1.717, 1.636e-4
-1.718, 1.666e-4
-1.719, 1.697e-4
-1.720, 1.759e-4
-1.721, 1.790e-4
-1.722, 1.851e-4
-1.723, 1.882e-4
-1.724, 1.944e-4
-1.725, 1.975e-4
-1.726, 2.036e-4
-1.727, 2.098e-4
-1.728, 2.129e-4
-1.729, 2.191e-4
-1.730, 2.252e-4
-1.731, 2.314e-4
-1.732, 2.376e-4
-1.733, 2.437e-4
-1.734, 2.499e-4
-1.735, 2.561e-4
-1.736, 2.622e-4
-1.737, 2.684e-4
-1.738, 2.746e-4
-1.739, 2.838e-4
-1.740, 2.900e-4
-1.741, 2.992e-4
-1.742, 3.085e-4
-1.743, 3.146e-4
-1.744, 3.239e-4
-1.745, 3.331e-4
-1.746, 3.424e-4
-1.747, 3.516e-4
-1.748, 3.609e-4
-1.749, 3.701e-4
-1.750, 3.825e-4
-1.751, 3.917e-4
-1.752, 4.040e-4
-1.753, 4.133e-4
-1.754, 4.256e-4
-1.755, 4.380e-4
-1.756, 4.503e-4
-1.757, 4.626e-4
-1.758, 4.750e-4
-1.759, 4.873e-4
-1.760, 5.027e-4
-1.761, 5.150e-4
-1.762, 5.305e-4
-1.763, 5.459e-4
-1.764, 5.613e-4
-1.765, 5.767e-4
-1.766, 5.921e-4
-1.767, 6.075e-4
-1.768, 6.260e-4
-1.769, 6.414e-4
-1.770, 6.599e-4
-1.771, 6.784e-4
-1.772, 6.939e-4
-1.773, 7.154e-4
-1.774, 7.339e-4
-1.775, 7.524e-4
-1.776, 7.709e-4
-1.777, 7.925e-4
-1.778, 8.141e-4
-1.779, 8.357e-4
-1.780, 8.573e-4
-1.781, 8.819e-4
-1.782, 9.066e-4
-1.783, 9.313e-4
-1.784, 9.559e-4
-1.785, 9.806e-4
-1.786, 1.005e-3
-1.787, 1.033e-3
-1.788, 1.064e-3
-1.789, 1.092e-3
-1.790, 1.122e-3
-1.791, 1.153e-3
-1.792, 1.184e-3
-1.793, 1.215e-3
-1.794, 1.246e-3
-1.795, 1.280e-3
-1.796, 1.310e-3
-1.797, 1.344e-3
-1.798, 1.384e-3
-1.799, 1.418e-3
-1.800, 1.458e-3
-1.801, 1.495e-3
-1.802, 1.536e-3
-1.803, 1.576e-3
-1.804, 1.619e-3
-1.805, 1.662e-3
-1.806, 1.702e-3
-1.807, 1.745e-3
-1.808, 1.788e-3
-1.809, 1.832e-3
-1.810, 1.875e-3
-1.811, 1.921e-3
-1.812, 1.967e-3
-1.813, 2.013e-3
-1.814, 2.063e-3
-1.815, 2.109e-3
-1.816, 2.161e-3
-1.817, 2.211e-3
-1.818, 2.263e-3
-1.819, 2.312e-3
-1.820, 2.365e-3
-1.821, 2.420e-3
-1.822, 2.476e-3
-1.823, 2.531e-3
-1.824, 2.584e-3
-1.825, 2.639e-3
-1.826, 2.698e-3
-1.827, 2.756e-3
-1.828, 2.815e-3
-1.829, 2.877e-3
-1.830, 2.938e-3
-1.831, 3.000e-3
-1.832, 3.065e-3
-1.833, 3.133e-3
-1.834, 3.197e-3
-1.835, 3.262e-3
-1.836, 3.327e-3
-1.837, 3.392e-3
-1.838, 3.456e-3
-1.839, 3.524e-3
-1.840, 3.592e-3
-1.841, 3.666e-3
-1.842, 3.734e-3
-1.843, 3.805e-3
-1.844, 3.879e-3
-1.845, 3.959e-3
-1.846, 4.036e-3
-1.847, 4.110e-3
-1.848, 4.181e-3
-1.849, 4.255e-3
-1.850, 4.329e-3
-1.851, 4.400e-3
-1.852, 4.471e-3
-1.853, 4.538e-3
-1.854, 4.612e-3
-1.855, 4.690e-3
-1.856, 4.764e-3
-1.857, 4.847e-3
-1.858, 4.933e-3
-1.859, 5.016e-3
-1.860, 5.100e-3
-1.861, 5.186e-3
-1.862, 5.282e-3
-1.863, 5.371e-3
-1.864, 5.457e-3
-1.865, 5.544e-3
-1.866, 5.639e-3
-1.867, 5.729e-3
-1.868, 5.821e-3
-1.869, 5.914e-3
-1.870, 6.003e-3
-1.871, 6.086e-3
-1.872, 6.166e-3
-1.873, 6.259e-3
-1.874, 6.348e-3
-1.875, 6.425e-3
-1.876, 6.490e-3
-1.877, 6.561e-3
-1.878, 6.632e-3
-1.879, 6.694e-3
-1.880, 6.758e-3
-1.881, 6.842e-3
-1.882, 6.919e-3
-1.883, 6.971e-3
-1.884, 7.036e-3
-1.885, 7.091e-3
-1.886, 7.128e-3
-1.887, 7.175e-3
-1.888, 7.230e-3
-1.889, 7.295e-3
-1.890, 7.372e-3
-1.891, 7.452e-3
-1.892, 7.526e-3
-1.893, 7.609e-3
-1.894, 7.711e-3
-1.895, 7.800e-3
-1.896, 7.896e-3
-1.897, 8.004e-3
-1.898, 8.099e-3
-1.899, 8.186e-3
-1.900, 8.244e-3
-1.899, 8.214e-3
-1.898, 8.161e-3
-1.897, 8.112e-3
-1.896, 8.075e-3
-1.895, 8.016e-3
-1.894, 7.930e-3
-1.893, 7.853e-3
-1.892, 7.797e-3
-1.891, 7.748e-3
-1.890, 7.708e-3
-1.889, 7.671e-3
-1.888, 7.637e-3
-1.887, 7.606e-3
-1.886, 7.582e-3
-1.885, 7.554e-3
-1.884, 7.520e-3
-1.883, 7.477e-3
-1.882, 7.430e-3
-1.881, 7.378e-3
-1.880, 7.326e-3
-1.879, 7.270e-3
-1.878, 7.221e-3
-1.877, 7.165e-3
-1.876, 7.110e-3
-1.875, 7.054e-3
-1.874, 7.002e-3
-1.873, 6.949e-3
-1.872, 6.897e-3
-1.871, 6.845e-3
-1.870, 6.786e-3
-1.869, 6.724e-3
-1.868, 6.663e-3
-1.867, 6.604e-3
-1.866, 6.549e-3
-1.865, 6.490e-3
-1.864, 6.428e-3
-1.863, 6.367e-3
-1.862, 6.314e-3
-1.861, 6.268e-3
-1.860, 6.210e-3
-1.859, 6.154e-3
-1.858, 6.099e-3
-1.857, 6.043e-3
-1.856, 5.988e-3
-1.855, 5.932e-3
-1.854, 5.877e-3
-1.853, 5.815e-3
-1.852, 5.756e-3
-1.851, 5.704e-3
-1.850, 5.648e-3
-1.849, 5.590e-3
-1.848, 5.528e-3
-1.847, 5.470e-3
-1.846, 5.411e-3
-1.845, 5.352e-3
-1.844, 5.300e-3
-1.843, 5.245e-3
-1.842, 5.183e-3
-1.841, 5.124e-3
-1.840, 5.066e-3
-1.839, 5.004e-3
-1.838, 4.945e-3
-1.837, 4.899e-3
-1.836, 4.850e-3
-1.835, 4.797e-3
-1.834, 4.751e-3
-1.833, 4.714e-3
-1.832, 4.677e-3
-1.831, 4.634e-3
-1.830, 4.594e-3
-1.829, 4.554e-3
-1.828, 4.511e-3
-1.827, 4.468e-3
-1.826, 4.421e-3
-1.825, 4.369e-3
-1.824, 4.317e-3
-1.823, 4.264e-3
-1.822, 4.209e-3
-1.821, 4.150e-3
-1.820, 4.095e-3
-1.819, 4.045e-3
-1.818, 4.002e-3
-1.817, 3.962e-3
-1.816, 3.922e-3
-1.815, 3.882e-3
-1.814, 3.842e-3
-1.813, 3.795e-3
-1.812, 3.746e-3
-1.811, 3.697e-3
-1.810, 3.647e-3
-1.809, 3.592e-3
-1.808, 3.536e-3
-1.807, 3.481e-3
-1.806, 3.432e-3
-1.805, 3.385e-3
-1.804, 3.339e-3
-1.803, 3.296e-3
-1.802, 3.256e-3
-1.801, 3.210e-3
-1.800, 3.167e-3
-1.799, 3.120e-3
-1.798, 3.074e-3
-1.797, 3.025e-3
-1.796, 2.975e-3
-1.795, 2.926e-3
-1.794, 2.871e-3
-1.793, 2.815e-3
-1.792, 2.760e-3
-1.791, 2.707e-3
-1.790, 2.658e-3
-1.789, 2.618e-3
-1.788, 2.581e-3
-1.787, 2.544e-3
-1.786, 2.507e-3
-1.785, 2.467e-3
-1.784, 2.433e-3
-1.783, 2.393e-3
-1.782, 2.356e-3
-1.781, 2.316e-3
-1.780, 2.279e-3
-1.779, 2.238e-3
-1.778, 2.205e-3
-1.777, 2.174e-3
-1.776, 2.140e-3
-1.775, 2.106e-3
-1.774, 2.075e-3
-1.773, 2.047e-3
-1.772, 2.020e-3
-1.771, 1.992e-3
-1.770, 1.961e-3
-1.769, 1.930e-3
-1.768, 1.896e-3
-1.767, 1.865e-3
-1.766, 1.832e-3
-1.765, 1.801e-3
-1.764, 1.773e-3
-1.763, 1.742e-3
-1.762, 1.714e-3
-1.761, 1.690e-3
-1.760, 1.662e-3
-1.759, 1.634e-3
-1.758, 1.610e-3
-1.757, 1.582e-3
-1.756, 1.554e-3
-1.755, 1.526e-3
-1.754, 1.499e-3
-1.753, 1.471e-3
-1.752, 1.443e-3
-1.751, 1.418e-3
-1.750, 1.394e-3
-1.749, 1.369e-3
-1.748, 1.344e-3
-1.747, 1.323e-3
-1.746, 1.298e-3
-1.745, 1.277e-3
-1.744, 1.255e-3
-1.743, 1.233e-3
-1.742, 1.212e-3
-1.741, 1.190e-3
-1.740, 1.169e-3
-1.739, 1.144e-3
-1.738, 1.125e-3
-1.737, 1.104e-3
-1.736, 1.082e-3
-1.735, 1.064e-3
-1.734, 1.045e-3
-1.733, 1.027e-3
-1.732, 1.008e-3
-1.731, 9.898e-4
-1.730, 9.713e-4
-1.729, 9.498e-4
-1.728, 9.343e-4
-1.727, 9.158e-4
-1.726, 8.973e-4
-1.725, 8.788e-4
-1.724, 8.634e-4
-1.723, 8.480e-4
-1.722, 8.295e-4
-1.721, 8.141e-4
-1.720, 7.987e-4
-1.719, 7.802e-4
-1.718, 7.679e-4
-1.717, 7.524e-4
-1.716, 7.370e-4
-1.715, 7.216e-4
-1.714, 7.062e-4
-1.713, 6.939e-4
-1.712, 6.784e-4
-1.711, 6.661e-4
-1.710, 6.538e-4
-1.709, 6.384e-4
-1.708, 6.260e-4
-1.707, 6.137e-4
-1.706, 6.014e-4
-1.705, 5.890e-4
-1.704, 5.798e-4
-1.703, 5.674e-4
-1.702, 5.551e-4
-1.701, 5.428e-4
-1.700, 5.335e-4
-1.699, 5.212e-4
-1.698, 5.120e-4
-1.697, 4.996e-4
-1.696, 4.904e-4
-1.695, 4.780e-4
-1.694, 4.688e-4
-1.693, 4.595e-4
-1.692, 4.503e-4
-1.691, 4.410e-4
-1.690, 4.318e-4
-1.689, 4.225e-4
-1.688, 4.133e-4
-1.687, 4.040e-4
-1.686, 3.948e-4
-1.685, 3.886e-4
-1.684, 3.794e-4
-1.683, 3.701e-4
-1.682, 3.640e-4
-1.681, 3.547e-4
-1.680, 3.485e-4
-1.679, 3.393e-4
-1.678, 3.331e-4
-1.677, 3.270e-4
-1.676, 3.177e-4
-1.675, 3.115e-4
-1.674, 3.054e-4
-1.673, 2.992e-4
-1.672, 2.931e-4
-1.671, 2.869e-4
-1.670, 2.807e-4
-1.669, 2.746e-4
-1.668, 2.684e-4
-1.667, 2.622e-4
-1.666, 2.561e-4
-1.665, 2.499e-4
-1.664, 2.468e-4
-1.663, 2.406e-4
-1.662, 2.345e-4
-1.661, 2.283e-4
-1.660, 2.252e-4
-1.659, 2.191e-4
-1.658, 2.160e-4
-1.657, 2.098e-4
-1.656, 2.067e-4
-1.655, 2.006e-4
-1.654, 1.975e-4
-1.653, 1.944e-4
-1.652, 1.882e-4
-1.651, 1.851e-4
-1.650, 1.821e-4
-1.649, 1.759e-4
-1.648, 1.728e-4
-1.647, 1.697e-4
-1.646, 1.666e-4
-1.645, 1.636e-4
-1.644, 1.605e-4
-1.643, 1.543e-4
-1.642, 1.512e-4
-1.641, 1.481e-4
-1.640, 1.451e-4
-1.639, 1.420e-4
-1.638, 1.389e-4
-1.637, 1.358e-4
-1.636, 1.327e-4
-1.635, 1.296e-4
-1.634, 1.266e-4
-1.633, 1.235e-4
-1.632, 1.204e-4
-1.631, 1.173e-4
-1.630, 1.173e-4
-1.629, 1.142e-4
-1.628, 1.111e-4
-1.627, 1.081e-4
-1.626, 1.050e-4
-1.625, 1.050e-4
-1.624, 1.019e-4
-1.623, 9.882e-5
-1.622, 9.573e-5
-1.621, 9.573e-5
-1.620, 9.265e-5
-1.619, 8.957e-5
-1.618, 8.957e-5
-1.617, 8.648e-5
-1.616, 8.340e-5
-1.615, 8.340e-5
-1.614, 8.032e-5
-1.613, 8.032e-5
-1.612, 7.723e-5
-1.611, 7.723e-5
-1.610, 7.415e-5
-1.609, 7.107e-5
-1.608, 7.107e-5
-1.607, 6.798e-5
-1.606, 6.798e-5
-1.605, 6.490e-5
-1.604, 6.490e-5
-1.603, 6.182e-5
-1.602, 6.182e-5
-1.601, 6.182e-5
-1.600, 5.873e-5
-1.599, 5.565e-5
-1.598, 5.873e-5
-1.597, 5.565e-5
-1.596, 5.257e-5
-1.595, 5.257e-5
-1.594, 5.257e-5
-1.593, 4.949e-5
-1.592, 4.949e-5
-1.591, 4.949e-5
-1.590, 4.640e-5
-1.589, 4.640e-5
-1.588, 4.640e-5
-1.587, 4.332e-5
-1.586, 4.332e-5
-1.585, 4.332e-5
-1.584, 4.024e-5
-1.583, 4.024e-5
-1.582, 4.024e-5
-1.581, 3.715e-5
-1.580, 3.715e-5
-1.579, 3.715e-5
-1.578, 3.715e-5
-1.577, 3.407e-5
-1.576, 3.407e-5
-1.575, 3.407e-5
-1.574, 3.099e-5
-1.573, 3.099e-5
-1.572, 3.099e-5
-1.571, 3.099e-5
-1.570, 3.099e-5
-1.569, 2.790e-5
-1.568, 2.790e-5
-1.567, 2.790e-5
-1.566, 2.790e-5
-1.565, 2.482e-5
-1.564, 2.482e-5
-1.563, 2.482e-5
-1.562, 2.482e-5
-1.561, 2.482e-5
-1.560, 2.174e-5
-1.559, 2.174e-5
-1.558, 2.174e-5
-1.557, 2.174e-5
-1.556, 2.174e-5
-1.555, 2.174e-5
-1.554, 2.174e-5
-1.553, 2.174e-5
-1.552, 1.865e-5
-1.551, 1.865e-5
-1.550, 1.865e-5
-1.549, 1.865e-5
-1.548, 1.865e-5
-1.547, 1.557e-5
-1.546, 1.557e-5
-1.545, 1.557e-5
-1.544, 1.557e-5
-1.543, 1.557e-5
-1.542, 1.557e-5
-1.541, 1.249e-5
-1.540, 1.557e-5
-1.539, 1.557e-5
-1.538, 1.249e-5
-1.537, 1.249e-5
-1.536, 1.249e-5
-1.535, 1.249e-5
-1.534, 1.249e-5
-1.533, 1.249e-5
-1.532, 9.405e-6
-1.531, 1.249e-5
-1.530, 9.405e-6
-1.529, 9.405e-6
-1.528, 9.405e-6
-1.527, 9.405e-6
-1.526, 9.405e-6
-1.525, 9.405e-6
-1.524, 9.405e-6
-1.523, 9.405e-6
-1.522, 6.322e-6
-1.521, 9.405e-6
-1.520, 9.405e-6
-1.519, 9.405e-6
-1.518, 6.322e-6
-1.517, 9.405e-6
-1.516, 6.322e-6
-1.515, 6.322e-6
-1.514, 6.322e-6
-1.513, 6.322e-6
-1.512, 6.322e-6
-1.511, 6.322e-6
-1.510, 6.322e-6
-1.509, 6.322e-6
-1.508, 6.322e-6
-1.507, 6.322e-6
-1.506, 6.322e-6
-1.505, 3.239e-6
-1.504, 3.239e-6
-1.503, 3.239e-6
-1.502, 3.239e-6
-1.501, 3.239e-6
-1.500, 3.239e-6
-1.499, 3.239e-6
-1.498, 3.239e-6
-1.497, 3.239e-6
-1.496, 3.239e-6
-1.495, 3.239e-6
-1.494, 3.239e-6
-1.493, 3.239e-6
-1.492, 3.239e-6
-1.491, 3.239e-6
-1.490, 3.239e-6
-1.489, 3.239e-6
-1.488, 3.239e-6
-1.487, 3.239e-6
-1.486, 1.559e-7
-1.485, 3.239e-6
-1.484, 3.239e-6
-1.483, 3.239e-6
-1.482, 1.559e-7
-1.481, 1.559e-7
-1.480, 1.559e-7
-1.479, 3.239e-6
-1.478, 1.559e-7
-1.477, 3.239e-6
-1.476, 1.559e-7
-1.475, 1.559e-7
-1.474, 1.559e-7
-1.473, 1.559e-7
-1.472, 1.559e-7
-1.471, 1.559e-7
-1.470, 1.559e-7
-1.469, 1.559e-7
-1.468, 1.559e-7
-1.467, 1.559e-7
-1.466, 1.559e-7
-1.465, 1.559e-7
-1.464, 1.559e-7
-1.463, 1.559e-7
-1.462, 1.559e-7
-1.461, 1.559e-7
-1.460, 1.559e-7
-1.459, 1.559e-7
-1.458, 1.559e-7
-1.457, -2.927e-6
-1.456, 1.559e-7
-1.455, 1.559e-7
-1.454, 1.559e-7
-1.453, 1.559e-7
-1.452, -2.927e-6
-1.451, 1.559e-7
-1.450, 1.559e-7
-1.449, -2.927e-6
-1.448, 1.559e-7
-1.447, 1.559e-7
-1.446, 1.559e-7
-1.445, -2.927e-6
-1.444, 1.559e-7
-1.443, -2.927e-6
-1.442, -2.927e-6
-1.441, -2.927e-6
-1.440, 1.559e-7
-1.439, -2.927e-6
-1.438, -2.927e-6
-1.437, 1.559e-7
-1.436, -2.927e-6
-1.435, -2.927e-6
-1.434, -2.927e-6
-1.433, -2.927e-6
-1.432, -2.927e-6
-1.431, -2.927e-6
-1.430, -2.927e-6
-1.429, -2.927e-6
-1.428, -2.927e-6
-1.427, -2.927e-6
-1.426, -2.927e-6
-1.425, -2.927e-6
-1.424, -2.927e-6
-1.423, -2.927e-6
-1.422, -2.927e-6
-1.421, -2.927e-6
-1.420, -2.927e-6
-1.419, -2.927e-6
-1.418, -2.927e-6
-1.417, -2.927e-6
-1.416, -2.927e-6
-1.415, -2.927e-6
-1.414, -2.927e-6
-1.413, -2.927e-6
-1.412, -2.927e-6
-1.411, -2.927e-6
-1.410, -2.927e-6
-1.409, -2.927e-6
-1.408, -2.927e-6
-1.407, -2.927e-6
-1.406, -2.927e-6
-1.405, -2.927e-6
-1.404, -2.927e-6
-1.403, -2.927e-6
-1.402, -2.927e-6
-1.401, -2.927e-6
-1.400, -2.927e-6
-1.399, -2.927e-6
-1.398, -2.927e-6
-1.397, -2.927e-6
-1.396, -2.927e-6
-1.395, -2.927e-6
-1.394, -2.927e-6
-1.393, -2.927e-6
-1.392, -2.927e-6
-1.391, -2.927e-6
-1.390, -2.927e-6
-1.389, -2.927e-6
-1.388, -2.927e-6
-1.387, -2.927e-6
-1.386, -2.927e-6
-1.385, -2.927e-6
-1.384, -2.927e-6
-1.383, -2.927e-6
-1.382, -2.927e-6
-1.381, -2.927e-6
-1.380, -2.927e-6
-1.379, -2.927e-6
-1.378, -2.927e-6
-1.377, -2.927e-6
-1.376, -2.927e-6
-1.375, -2.927e-6
-1.374, -2.927e-6
-1.373, -2.927e-6
-1.372, -2.927e-6
-1.371, -2.927e-6
-1.370, -2.927e-6
-1.369, -2.927e-6
-1.368, -2.927e-6
-1.367, -2.927e-6
-1.366, -2.927e-6
-1.365, -2.927e-6
-1.364, -2.927e-6
-1.363, -2.927e-6
-1.362, -2.927e-6
-1.361, -2.927e-6
-1.360, -2.927e-6
-1.359, -2.927e-6
-1.358, -2.927e-6
-1.357, -2.927e-6
-1.356, -2.927e-6
-1.355, -2.927e-6
-1.354, -6.010e-6
-1.353, -2.927e-6
-1.352, -2.927e-6
-1.351, -2.927e-6
-1.350, -2.927e-6
-1.349, -6.010e-6
-1.348, -2.927e-6
-1.347, -6.010e-6
-1.346, -2.927e-6
-1.345, -2.927e-6
-1.344, -2.927e-6
-1.343, -6.010e-6
-1.342, -2.927e-6
-1.341, -2.927e-6
-1.340, -2.927e-6
-1.339, -2.927e-6
-1.338, -6.010e-6
-1.337, -2.927e-6
-1.336, -6.010e-6
-1.335, -2.927e-6
-1.334, -2.927e-6
-1.333, -2.927e-6
-1.332, -2.927e-6
-1.331, -6.010e-6
-1.330, -6.010e-6
-1.329, -6.010e-6
-1.328, -2.927e-6
-1.327, -2.927e-6
-1.326, -2.927e-6
-1.325, -2.927e-6
-1.324, -2.927e-6
-1.323, -2.927e-6
-1.322, -6.010e-6
-1.321, -2.927e-6
-1.320, -2.927e-6
-1.319, -6.010e-6
-1.318, -6.010e-6
-1.317, -2.927e-6
-1.316, -2.927e-6
-1.315, -6.010e-6
-1.314, -2.927e-6
-1.313, -2.927e-6
-1.312, -6.010e-6
-1.311, -2.927e-6
-1.310, -2.927e-6
-1.309, -2.927e-6
-1.308, -6.010e-6
-1.307, -2.927e-6
-1.306, -2.927e-6
-1.305, -6.010e-6
-1.304, -6.010e-6
-1.303, -2.927e-6
-1.302, -6.010e-6
-1.301, -6.010e-6
-1.300, -2.927e-6
-1.299, -2.927e-6
-1.298, -6.010e-6
-1.297, -2.927e-6
-1.296, -6.010e-6
-1.295, -6.010e-6
-1.294, -2.927e-6
-1.293, -6.010e-6
-1.292, -6.010e-6
-1.291, -6.010e-6
-1.290, -6.010e-6
-1.289, -6.010e-6
-1.288, -2.927e-6
-1.287, -2.927e-6
-1.286, -6.010e-6
-1.285, -6.010e-6
-1.284, -6.010e-6
-1.283, -2.927e-6
-1.282, -6.010e-6
-1.281, -6.010e-6
-1.280, -2.927e-6
-1.279, -6.010e-6
-1.278, -6.010e-6
-1.277, -2.927e-6
-1.276, -6.010e-6
-1.275, -6.010e-6
-1.274, -6.010e-6
-1.273, -2.927e-6
-1.272, -6.010e-6
-1.271, -2.927e-6
-1.270, -2.927e-6
-1.269, -6.010e-6
-1.268, -6.010e-6
-1.267, -2.927e-6
-1.266, -6.010e-6
-1.265, -2.927e-6
-1.264, -6.010e-6
-1.263, -2.927e-6
-1.262, -6.010e-6
-1.261, -6.010e-6
-1.260, -6.010e-6
-1.259, -6.010e-6
-1.258, -2.927e-6
-1.257, -2.927e-6
-1.256, -2.927e-6
-1.255, -2.927e-6
-1.254, -2.927e-6
-1.253, -6.010e-6
-1.252, -6.010e-6
-1.251, -6.010e-6
-1.250, -2.927e-6
-1.249, -6.010e-6
-1.248, -2.927e-6
-1.247, -6.010e-6
-1.246, -6.010e-6
-1.245, -2.927e-6
-1.244, -6.010e-6
-1.243, -6.010e-6
-1.242, -6.010e-6
-1.241, -6.010e-6
-1.240, -2.927e-6
-1.239, -6.010e-6
-1.238, -6.010e-6
-1.237, -6.010e-6
-1.236, -2.927e-6
-1.235, -6.010e-6
-1.234, -6.010e-6
-1.233, -6.010e-6
-1.232, -6.010e-6
-1.231, -6.010e-6
-1.230, -6.010e-6
-1.229, -6.010e-6
-1.228, -6.010e-6
-1.227, -6.010e-6
-1.226, -6.010e-6
-1.225, -6.010e-6
-1.224, -6.010e-6
-1.223, -6.010e-6
-1.222, -6.010e-6
-1.221, -6.010e-6
-1.220, -6.010e-6
-1.219, -6.010e-6
-1.218, -6.010e-6
-1.217, -6.010e-6
-1.216, -6.010e-6
-1.215, -6.010e-6
-1.214, -6.010e-6
-1.213, -6.010e-6
-1.212, -6.010e-6
-1.211, -6.010e-6
-1.210, -6.010e-6
-1.209, -6.010e-6
-1.208, -6.010e-6
-1.207, -6.010e-6
-1.206, -6.010e-6
-1.205, -6.010e-6
-1.204, -6.010e-6
-1.203, -6.010e-6
-1.202, -6.010e-6
-1.201, -6.010e-6
-1.200, -6.010e-6
-1.199, -6.010e-6
-1.198, -6.010e-6
-1.197, -6.010e-6
-1.196, -6.010e-6
-1.195, -6.010e-6
-1.194, -6.010e-6
-1.193, -6.010e-6
-1.192, -6.010e-6
-1.191, -6.010e-6
-1.190, -6.010e-6
-1.189, -6.010e-6
-1.188, -6.010e-6
-1.187, -6.010e-6
-1.186, -6.010e-6
-1.185, -6.010e-6
-1.184, -6.010e-6
-1.183, -6.010e-6
-1.182, -6.010e-6
-1.181, -6.010e-6
-1.180, -6.010e-6
-1.179, -6.010e-6
-1.178, -6.010e-6
-1.177, -6.010e-6
-1.176, -6.010e-6
-1.175, -6.010e-6
-1.174, -6.010e-6
-1.173, -6.010e-6
-1.172, -6.010e-6
-1.171, -6.010e-6
-1.170, -6.010e-6
-1.169, -6.010e-6
-1.168, -6.010e-6
-1.167, -6.010e-6
-1.166, -6.010e-6
-1.165, -6.010e-6
-1.164, -6.010e-6
-1.163, -6.010e-6
-1.162, -6.010e-6
-1.161, -6.010e-6
-1.160, -6.010e-6
-1.159, -6.010e-6
-1.158, -6.010e-6
-1.157, -6.010e-6
-1.156, -6.010e-6
-1.155, -6.010e-6
-1.154, -6.010e-6
-1.153, -6.010e-6
-1.152, -6.010e-6
-1.151, -6.010e-6
-1.150, -6.010e-6
-1.149, -6.010e-6
-1.148, -6.010e-6
-1.147, -6.010e-6
-1.146, -6.010e-6
-1.145, -6.010e-6
-1.144, -6.010e-6
-1.143, -6.010e-6
-1.142, -6.010e-6
-1.141, -6.010e-6
-1.140, -6.010e-6
-1.139, -6.010e-6
-1.138, -6.010e-6
-1.137, -6.010e-6
-1.136, -6.010e-6
-1.135, -6.010e-6
-1.134, -6.010e-6
-1.133, -6.010e-6
-1.132, -6.010e-6
-1.131, -6.010e-6
-1.130, -6.010e-6
-1.129, -6.010e-6
-1.128, -6.010e-6
-1.127, -6.010e-6
-1.126, -6.010e-6
-1.125, -9.093e-6
-1.124, -6.010e-6
-1.123, -6.010e-6
-1.122, -6.010e-6
-1.121, -6.010e-6
-1.120, -6.010e-6
-1.119, -6.010e-6
-1.118, -6.010e-6
-1.117, -6.010e-6
-1.116, -6.010e-6
-1.115, -6.010e-6
-1.114, -6.010e-6
-1.113, -6.010e-6
-1.112, -6.010e-6
-1.111, -6.010e-6
-1.110, -6.010e-6
-1.109, -6.010e-6
-1.108, -9.093e-6
-1.107, -6.010e-6
-1.106, -6.010e-6
-1.105, -6.010e-6
-1.104, -6.010e-6
-1.103, -6.010e-6
-1.102, -6.010e-6
-1.101, -6.010e-6
-1.100, -6.010e-6
-1.099, -9.093e-6
-1.098, -6.010e-6
-1.097, -9.093e-6
-1.096, -6.010e-6
-1.095, -9.093e-6
-1.094, -6.010e-6
-1.093, -6.010e-6
-1.092, -9.093e-6
-1.091, -9.093e-6
-1.090, -6.010e-6
-1.089, -9.093e-6
-1.088, -9.093e-6
-1.087, -6.010e-6
-1.086, -6.010e-6
-1.085, -6.010e-6
-1.084, -9.093e-6
-1.083, -9.093e-6
-1.082, -9.093e-6
-1.081, -9.093e-6
-1.080, -6.010e-6
-1.079, -9.093e-6
-1.078, -9.093e-6
-1.077, -9.093e-6
-1.076, -9.093e-6
-1.075, -9.093e-6
-1.074, -9.093e-6
-1.073, -9.093e-6
-1.072, -9.093e-6
-1.071, -9.093e-6
-1.070, -9.093e-6
-1.069, -9.093e-6
-1.068, -9.093e-6
-1.067, -6.010e-6
-1.066, -9.093e-6
-1.065, -9.093e-6
-1.064, -9.093e-6
-1.063, -9.093e-6
-1.062, -9.093e-6
-1.061, -9.093e-6
-1.060, -9.093e-6
-1.059, -9.093e-6
-1.058, -9.093e-6
-1.057, -9.093e-6
-1.056, -9.093e-6
-1.055, -9.093e-6
-1.054, -9.093e-6
-1.053, -9.093e-6
-1.052, -9.093e-6
-1.051, -9.093e-6
-1.050, -9.093e-6
-1.049, -9.093e-6
-1.048, -9.093e-6
-1.047, -9.093e-6
-1.046, -9.093e-6
-1.045, -9.093e-6
-1.044, -9.093e-6
-1.043, -9.093e-6
-1.042, -9.093e-6
-1.041, -9.093e-6
-1.040, -9.093e-6
-1.039, -9.093e-6
-1.038, -9.093e-6
-1.037, -9.093e-6
-1.036, -9.093e-6
-1.035, -9.093e-6
-1.034, -9.093e-6
-1.033, -9.093e-6
-1.032, -9.093e-6
-1.031, -1.218e-5
-1.030, -9.093e-6
-1.029, -1.218e-5
-1.028, -1.218e-5
-1.027, -9.093e-6
-1.026, -1.218e-5
-1.025, -9.093e-6
-1.024, -9.093e-6
-1.023, -1.218e-5
-1.022, -1.218e-5
-1.021, -1.218e-5
-1.020, -1.218e-5
-1.019, -1.218e-5
-1.018, -1.218e-5
-1.017, -1.218e-5
-1.016, -1.218e-5
-1.015, -1.218e-5
-1.014, -1.218e-5
-1.013, -1.218e-5
-1.012, -1.218e-5
-1.011, -1.218e-5
-1.010, -1.218e-5
-1.009, -1.218e-5
-1.008, -1.218e-5
-1.007, -1.218e-5
-1.006, -1.218e-5
-1.005, -1.218e-5
-1.004, -1.218e-5
-1.003, -1.218e-5
-1.002, -1.218e-5
-1.001, -1.218e-5
