Sept. 1, 2024   01:30:15
Cyclic Voltammetry
File: c:/users/guazh/data/20240829_batch_215_500/2024-08-29-exp234\exp234-2024-09-01t01_08_46-arkoh\exp234_cv_sr_600mvs_efin_-1900mv.bin
Data Source:  Experiment
Instrument Model:  CHI760E
Header: CV ran at 600 mVs
Note: 

Init E (V) = -1
High E (V) = -1
Low E (V) = -1.9
Final E (V) = -1
Init P/N = N
Scan Rate (V/s) = 0.6
Segment = 3
Sample Interval (V) = 0.001
Quiet Time (sec) = 2
Sensitivity (A/V) = 0.01
Comp R (ohm) = 2.0

Results:

Channel 1:
Segment 1:

Segment 2:

Segment 3:

Potential/V, Current/A

-1.000, 3.239e-6
-1.001, 3.239e-6
-1.002, 3.239e-6
-1.003, 3.239e-6
-1.004, 3.239e-6
-1.005, 3.239e-6
-1.006, 3.239e-6
-1.007, 3.239e-6
-1.008, 3.239e-6
-1.009, 3.239e-6
-1.010, 3.239e-6
-1.011, 3.239e-6
-1.012, 3.239e-6
-1.013, 3.239e-6
-1.014, 3.239e-6
-1.015, 3.239e-6
-1.016, 3.239e-6
-1.017, 3.239e-6
-1.018, 3.239e-6
-1.019, 3.239e-6
-1.020, 3.239e-6
-1.021, 3.239e-6
-1.022, 3.239e-6
-1.023, 3.239e-6
-1.024, 3.239e-6
-1.025, 3.239e-6
-1.026, 3.239e-6
-1.027, 3.239e-6
-1.028, 3.239e-6
-1.029, 3.239e-6
-1.030, 6.322e-6
-1.031, 3.239e-6
-1.032, 3.239e-6
-1.033, 3.239e-6
-1.034, 3.239e-6
-1.035, 3.239e-6
-1.036, 6.322e-6
-1.037, 3.239e-6
-1.038, 3.239e-6
-1.039, 3.239e-6
-1.040, 3.239e-6
-1.041, 6.322e-6
-1.042, 6.322e-6
-1.043, 3.239e-6
-1.044, 3.239e-6
-1.045, 6.322e-6
-1.046, 6.322e-6
-1.047, 6.322e-6
-1.048, 3.239e-6
-1.049, 3.239e-6
-1.050, 6.322e-6
-1.051, 6.322e-6
-1.052, 6.322e-6
-1.053, 3.239e-6
-1.054, 6.322e-6
-1.055, 3.239e-6
-1.056, 6.322e-6
-1.057, 6.322e-6
-1.058, 6.322e-6
-1.059, 6.322e-6
-1.060, 3.239e-6
-1.061, 6.322e-6
-1.062, 6.322e-6
-1.063, 6.322e-6
-1.064, 6.322e-6
-1.065, 6.322e-6
-1.066, 6.322e-6
-1.067, 6.322e-6
-1.068, 6.322e-6
-1.069, 6.322e-6
-1.070, 6.322e-6
-1.071, 6.322e-6
-1.072, 6.322e-6
-1.073, 6.322e-6
-1.074, 6.322e-6
-1.075, 6.322e-6
-1.076, 6.322e-6
-1.077, 6.322e-6
-1.078, 3.239e-6
-1.079, 6.322e-6
-1.080, 6.322e-6
-1.081, 6.322e-6
-1.082, 6.322e-6
-1.083, 6.322e-6
-1.084, 6.322e-6
-1.085, 6.322e-6
-1.086, 6.322e-6
-1.087, 6.322e-6
-1.088, 6.322e-6
-1.089, 6.322e-6
-1.090, 6.322e-6
-1.091, 6.322e-6
-1.092, 6.322e-6
-1.093, 6.322e-6
-1.094, 6.322e-6
-1.095, 6.322e-6
-1.096, 6.322e-6
-1.097, 6.322e-6
-1.098, 6.322e-6
-1.099, 6.322e-6
-1.100, 6.322e-6
-1.101, 6.322e-6
-1.102, 6.322e-6
-1.103, 6.322e-6
-1.104, 6.322e-6
-1.105, 6.322e-6
-1.106, 6.322e-6
-1.107, 6.322e-6
-1.108, 6.322e-6
-1.109, 6.322e-6
-1.110, 6.322e-6
-1.111, 6.322e-6
-1.112, 6.322e-6
-1.113, 6.322e-6
-1.114, 6.322e-6
-1.115, 6.322e-6
-1.116, 6.322e-6
-1.117, 6.322e-6
-1.118, 6.322e-6
-1.119, 6.322e-6
-1.120, 6.322e-6
-1.121, 6.322e-6
-1.122, 6.322e-6
-1.123, 6.322e-6
-1.124, 6.322e-6
-1.125, 6.322e-6
-1.126, 6.322e-6
-1.127, 6.322e-6
-1.128, 6.322e-6
-1.129, 6.322e-6
-1.130, 6.322e-6
-1.131, 6.322e-6
-1.132, 6.322e-6
-1.133, 6.322e-6
-1.134, 9.405e-6
-1.135, 6.322e-6
-1.136, 6.322e-6
-1.137, 6.322e-6
-1.138, 6.322e-6
-1.139, 6.322e-6
-1.140, 9.405e-6
-1.141, 6.322e-6
-1.142, 6.322e-6
-1.143, 6.322e-6
-1.144, 6.322e-6
-1.145, 6.322e-6
-1.146, 9.405e-6
-1.147, 6.322e-6
-1.148, 9.405e-6
-1.149, 6.322e-6
-1.150, 6.322e-6
-1.151, 6.322e-6
-1.152, 6.322e-6
-1.153, 6.322e-6
-1.154, 6.322e-6
-1.155, 9.405e-6
-1.156, 6.322e-6
-1.157, 6.322e-6
-1.158, 9.405e-6
-1.159, 6.322e-6
-1.160, 9.405e-6
-1.161, 6.322e-6
-1.162, 6.322e-6
-1.163, 6.322e-6
-1.164, 6.322e-6
-1.165, 6.322e-6
-1.166, 9.405e-6
-1.167, 9.405e-6
-1.168, 9.405e-6
-1.169, 6.322e-6
-1.170, 6.322e-6
-1.171, 9.405e-6
-1.172, 9.405e-6
-1.173, 9.405e-6
-1.174, 9.405e-6
-1.175, 9.405e-6
-1.176, 9.405e-6
-1.177, 9.405e-6
-1.178, 9.405e-6
-1.179, 9.405e-6
-1.180, 9.405e-6
-1.181, 9.405e-6
-1.182, 9.405e-6
-1.183, 9.405e-6
-1.184, 9.405e-6
-1.185, 9.405e-6
-1.186, 9.405e-6
-1.187, 9.405e-6
-1.188, 9.405e-6
-1.189, 9.405e-6
-1.190, 9.405e-6
-1.191, 9.405e-6
-1.192, 9.405e-6
-1.193, 9.405e-6
-1.194, 9.405e-6
-1.195, 9.405e-6
-1.196, 9.405e-6
-1.197, 9.405e-6
-1.198, 9.405e-6
-1.199, 9.405e-6
-1.200, 9.405e-6
-1.201, 9.405e-6
-1.202, 9.405e-6
-1.203, 9.405e-6
-1.204, 9.405e-6
-1.205, 9.405e-6
-1.206, 9.405e-6
-1.207, 9.405e-6
-1.208, 9.405e-6
-1.209, 9.405e-6
-1.210, 9.405e-6
-1.211, 9.405e-6
-1.212, 9.405e-6
-1.213, 9.405e-6
-1.214, 9.405e-6
-1.215, 9.405e-6
-1.216, 9.405e-6
-1.217, 9.405e-6
-1.218, 9.405e-6
-1.219, 9.405e-6
-1.220, 9.405e-6
-1.221, 9.405e-6
-1.222, 9.405e-6
-1.223, 9.405e-6
-1.224, 9.405e-6
-1.225, 9.405e-6
-1.226, 9.405e-6
-1.227, 9.405e-6
-1.228, 9.405e-6
-1.229, 9.405e-6
-1.230, 9.405e-6
-1.231, 9.405e-6
-1.232, 1.249e-5
-1.233, 9.405e-6
-1.234, 9.405e-6
-1.235, 9.405e-6
-1.236, 9.405e-6
-1.237, 9.405e-6
-1.238, 9.405e-6
-1.239, 9.405e-6
-1.240, 9.405e-6
-1.241, 9.405e-6
-1.242, 9.405e-6
-1.243, 9.405e-6
-1.244, 9.405e-6
-1.245, 9.405e-6
-1.246, 1.249e-5
-1.247, 9.405e-6
-1.248, 9.405e-6
-1.249, 9.405e-6
-1.250, 9.405e-6
-1.251, 9.405e-6
-1.252, 9.405e-6
-1.253, 9.405e-6
-1.254, 9.405e-6
-1.255, 9.405e-6
-1.256, 9.405e-6
-1.257, 1.249e-5
-1.258, 9.405e-6
-1.259, 9.405e-6
-1.260, 9.405e-6
-1.261, 1.249e-5
-1.262, 1.249e-5
-1.263, 9.405e-6
-1.264, 9.405e-6
-1.265, 1.249e-5
-1.266, 9.405e-6
-1.267, 9.405e-6
-1.268, 9.405e-6
-1.269, 9.405e-6
-1.270, 9.405e-6
-1.271, 1.249e-5
-1.272, 9.405e-6
-1.273, 9.405e-6
-1.274, 9.405e-6
-1.275, 9.405e-6
-1.276, 1.249e-5
-1.277, 9.405e-6
-1.278, 9.405e-6
-1.279, 9.405e-6
-1.280, 9.405e-6
-1.281, 1.249e-5
-1.282, 1.249e-5
-1.283, 9.405e-6
-1.284, 9.405e-6
-1.285, 9.405e-6
-1.286, 9.405e-6
-1.287, 9.405e-6
-1.288, 1.249e-5
-1.289, 9.405e-6
-1.290, 9.405e-6
-1.291, 1.249e-5
-1.292, 9.405e-6
-1.293, 9.405e-6
-1.294, 1.249e-5
-1.295, 9.405e-6
-1.296, 1.249e-5
-1.297, 1.249e-5
-1.298, 9.405e-6
-1.299, 1.249e-5
-1.300, 1.249e-5
-1.301, 1.249e-5
-1.302, 1.249e-5
-1.303, 9.405e-6
-1.304, 9.405e-6
-1.305, 1.249e-5
-1.306, 1.249e-5
-1.307, 1.249e-5
-1.308, 1.249e-5
-1.309, 1.249e-5
-1.310, 1.249e-5
-1.311, 1.249e-5
-1.312, 1.249e-5
-1.313, 1.249e-5
-1.314, 9.405e-6
-1.315, 1.249e-5
-1.316, 1.249e-5
-1.317, 1.249e-5
-1.318, 1.249e-5
-1.319, 1.249e-5
-1.320, 1.249e-5
-1.321, 1.249e-5
-1.322, 1.249e-5
-1.323, 1.249e-5
-1.324, 1.249e-5
-1.325, 1.249e-5
-1.326, 1.249e-5
-1.327, 1.249e-5
-1.328, 1.249e-5
-1.329, 1.249e-5
-1.330, 1.249e-5
-1.331, 1.249e-5
-1.332, 1.249e-5
-1.333, 1.249e-5
-1.334, 1.249e-5
-1.335, 1.249e-5
-1.336, 1.249e-5
-1.337, 1.249e-5
-1.338, 1.249e-5
-1.339, 1.249e-5
-1.340, 1.249e-5
-1.341, 1.249e-5
-1.342, 1.249e-5
-1.343, 1.249e-5
-1.344, 1.249e-5
-1.345, 1.249e-5
-1.346, 1.249e-5
-1.347, 1.249e-5
-1.348, 1.249e-5
-1.349, 1.249e-5
-1.350, 1.249e-5
-1.351, 1.249e-5
-1.352, 1.249e-5
-1.353, 1.249e-5
-1.354, 1.249e-5
-1.355, 1.249e-5
-1.356, 1.249e-5
-1.357, 1.557e-5
-1.358, 1.249e-5
-1.359, 1.249e-5
-1.360, 1.249e-5
-1.361, 1.249e-5
-1.362, 1.249e-5
-1.363, 1.249e-5
-1.364, 1.249e-5
-1.365, 1.249e-5
-1.366, 1.249e-5
-1.367, 1.249e-5
-1.368, 1.249e-5
-1.369, 1.249e-5
-1.370, 1.249e-5
-1.371, 1.249e-5
-1.372, 1.249e-5
-1.373, 1.249e-5
-1.374, 1.249e-5
-1.375, 1.249e-5
-1.376, 1.557e-5
-1.377, 1.557e-5
-1.378, 1.249e-5
-1.379, 1.249e-5
-1.380, 1.249e-5
-1.381, 1.249e-5
-1.382, 1.557e-5
-1.383, 1.249e-5
-1.384, 1.249e-5
-1.385, 1.249e-5
-1.386, 1.557e-5
-1.387, 1.249e-5
-1.388, 1.249e-5
-1.389, 1.557e-5
-1.390, 1.557e-5
-1.391, 1.557e-5
-1.392, 1.557e-5
-1.393, 1.557e-5
-1.394, 1.249e-5
-1.395, 1.557e-5
-1.396, 1.557e-5
-1.397, 1.249e-5
-1.398, 1.557e-5
-1.399, 1.557e-5
-1.400, 1.557e-5
-1.401, 1.557e-5
-1.402, 1.557e-5
-1.403, 1.249e-5
-1.404, 1.557e-5
-1.405, 1.557e-5
-1.406, 1.557e-5
-1.407, 1.557e-5
-1.408, 1.249e-5
-1.409, 1.557e-5
-1.410, 1.557e-5
-1.411, 1.557e-5
-1.412, 1.557e-5
-1.413, 1.557e-5
-1.414, 1.557e-5
-1.415, 1.557e-5
-1.416, 1.557e-5
-1.417, 1.557e-5
-1.418, 1.557e-5
-1.419, 1.249e-5
-1.420, 1.557e-5
-1.421, 1.557e-5
-1.422, 1.557e-5
-1.423, 1.557e-5
-1.424, 1.557e-5
-1.425, 1.557e-5
-1.426, 1.557e-5
-1.427, 1.557e-5
-1.428, 1.557e-5
-1.429, 1.557e-5
-1.430, 1.557e-5
-1.431, 1.557e-5
-1.432, 1.557e-5
-1.433, 1.557e-5
-1.434, 1.557e-5
-1.435, 1.557e-5
-1.436, 1.557e-5
-1.437, 1.557e-5
-1.438, 1.557e-5
-1.439, 1.557e-5
-1.440, 1.557e-5
-1.441, 1.557e-5
-1.442, 1.557e-5
-1.443, 1.557e-5
-1.444, 1.557e-5
-1.445, 1.557e-5
-1.446, 1.557e-5
-1.447, 1.557e-5
-1.448, 1.557e-5
-1.449, 1.557e-5
-1.450, 1.557e-5
-1.451, 1.557e-5
-1.452, 1.557e-5
-1.453, 1.557e-5
-1.454, 1.557e-5
-1.455, 1.557e-5
-1.456, 1.557e-5
-1.457, 1.557e-5
-1.458, 1.557e-5
-1.459, 1.557e-5
-1.460, 1.557e-5
-1.461, 1.557e-5
-1.462, 1.557e-5
-1.463, 1.557e-5
-1.464, 1.557e-5
-1.465, 1.557e-5
-1.466, 1.557e-5
-1.467, 1.557e-5
-1.468, 1.557e-5
-1.469, 1.557e-5
-1.470, 1.557e-5
-1.471, 1.557e-5
-1.472, 1.557e-5
-1.473, 1.557e-5
-1.474, 1.557e-5
-1.475, 1.557e-5
-1.476, 1.557e-5
-1.477, 1.557e-5
-1.478, 1.557e-5
-1.479, 1.557e-5
-1.480, 1.557e-5
-1.481, 1.865e-5
-1.482, 1.865e-5
-1.483, 1.557e-5
-1.484, 1.557e-5
-1.485, 1.557e-5
-1.486, 1.557e-5
-1.487, 1.557e-5
-1.488, 1.557e-5
-1.489, 1.557e-5
-1.490, 1.557e-5
-1.491, 1.557e-5
-1.492, 1.557e-5
-1.493, 1.557e-5
-1.494, 1.557e-5
-1.495, 1.557e-5
-1.496, 1.865e-5
-1.497, 1.865e-5
-1.498, 1.865e-5
-1.499, 1.865e-5
-1.500, 1.557e-5
-1.501, 1.557e-5
-1.502, 1.865e-5
-1.503, 1.865e-5
-1.504, 1.557e-5
-1.505, 1.865e-5
-1.506, 1.865e-5
-1.507, 1.557e-5
-1.508, 1.865e-5
-1.509, 1.557e-5
-1.510, 1.557e-5
-1.511, 1.865e-5
-1.512, 1.865e-5
-1.513, 1.557e-5
-1.514, 1.865e-5
-1.515, 1.865e-5
-1.516, 1.865e-5
-1.517, 1.865e-5
-1.518, 1.865e-5
-1.519, 1.865e-5
-1.520, 1.865e-5
-1.521, 1.865e-5
-1.522, 1.865e-5
-1.523, 1.865e-5
-1.524, 1.865e-5
-1.525, 1.865e-5
-1.526, 1.865e-5
-1.527, 1.865e-5
-1.528, 1.865e-5
-1.529, 1.865e-5
-1.530, 1.557e-5
-1.531, 1.865e-5
-1.532, 1.865e-5
-1.533, 1.865e-5
-1.534, 1.865e-5
-1.535, 1.865e-5
-1.536, 1.865e-5
-1.537, 1.865e-5
-1.538, 1.865e-5
-1.539, 1.865e-5
-1.540, 1.865e-5
-1.541, 1.865e-5
-1.542, 1.865e-5
-1.543, 1.865e-5
-1.544, 1.865e-5
-1.545, 1.865e-5
-1.546, 1.865e-5
-1.547, 1.865e-5
-1.548, 1.865e-5
-1.549, 1.865e-5
-1.550, 1.865e-5
-1.551, 1.865e-5
-1.552, 1.865e-5
-1.553, 1.865e-5
-1.554, 1.865e-5
-1.555, 1.865e-5
-1.556, 1.865e-5
-1.557, 1.865e-5
-1.558, 1.865e-5
-1.559, 1.865e-5
-1.560, 1.865e-5
-1.561, 1.865e-5
-1.562, 1.865e-5
-1.563, 1.865e-5
-1.564, 1.865e-5
-1.565, 1.865e-5
-1.566, 2.174e-5
-1.567, 1.865e-5
-1.568, 1.865e-5
-1.569, 2.174e-5
-1.570, 1.865e-5
-1.571, 2.174e-5
-1.572, 2.174e-5
-1.573, 1.865e-5
-1.574, 2.174e-5
-1.575, 2.174e-5
-1.576, 2.174e-5
-1.577, 2.174e-5
-1.578, 2.174e-5
-1.579, 2.174e-5
-1.580, 2.174e-5
-1.581, 2.174e-5
-1.582, 2.174e-5
-1.583, 2.174e-5
-1.584, 2.174e-5
-1.585, 2.174e-5
-1.586, 2.174e-5
-1.587, 2.174e-5
-1.588, 2.174e-5
-1.589, 2.174e-5
-1.590, 2.174e-5
-1.591, 2.174e-5
-1.592, 2.174e-5
-1.593, 2.174e-5
-1.594, 2.174e-5
-1.595, 2.174e-5
-1.596, 2.174e-5
-1.597, 2.174e-5
-1.598, 2.174e-5
-1.599, 2.174e-5
-1.600, 2.174e-5
-1.601, 2.174e-5
-1.602, 2.174e-5
-1.603, 2.174e-5
-1.604, 2.482e-5
-1.605, 2.174e-5
-1.606, 2.482e-5
-1.607, 2.482e-5
-1.608, 2.482e-5
-1.609, 2.482e-5
-1.610, 2.482e-5
-1.611, 2.482e-5
-1.612, 2.482e-5
-1.613, 2.482e-5
-1.614, 2.482e-5
-1.615, 2.482e-5
-1.616, 2.482e-5
-1.617, 2.482e-5
-1.618, 2.482e-5
-1.619, 2.482e-5
-1.620, 2.482e-5
-1.621, 2.482e-5
-1.622, 2.482e-5
-1.623, 2.482e-5
-1.624, 2.482e-5
-1.625, 2.482e-5
-1.626, 2.790e-5
-1.627, 2.482e-5
-1.628, 2.482e-5
-1.629, 2.790e-5
-1.630, 2.790e-5
-1.631, 2.790e-5
-1.632, 2.790e-5
-1.633, 2.790e-5
-1.634, 2.790e-5
-1.635, 2.790e-5
-1.636, 2.790e-5
-1.637, 2.790e-5
-1.638, 2.790e-5
-1.639, 2.790e-5
-1.640, 2.790e-5
-1.641, 3.099e-5
-1.642, 2.790e-5
-1.643, 3.099e-5
-1.644, 3.099e-5
-1.645, 3.099e-5
-1.646, 3.099e-5
-1.647, 3.099e-5
-1.648, 3.099e-5
-1.649, 3.099e-5
-1.650, 3.099e-5
-1.651, 3.099e-5
-1.652, 3.099e-5
-1.653, 3.407e-5
-1.654, 3.407e-5
-1.655, 3.407e-5
-1.656, 3.407e-5
-1.657, 3.407e-5
-1.658, 3.715e-5
-1.659, 3.715e-5
-1.660, 3.407e-5
-1.661, 3.715e-5
-1.662, 3.407e-5
-1.663, 3.715e-5
-1.664, 3.715e-5
-1.665, 3.715e-5
-1.666, 3.715e-5
-1.667, 3.715e-5
-1.668, 4.024e-5
-1.669, 4.024e-5
-1.670, 4.024e-5
-1.671, 4.024e-5
-1.672, 4.024e-5
-1.673, 4.024e-5
-1.674, 4.024e-5
-1.675, 4.332e-5
-1.676, 4.332e-5
-1.677, 4.332e-5
-1.678, 4.640e-5
-1.679, 4.640e-5
-1.680, 4.640e-5
-1.681, 4.640e-5
-1.682, 4.949e-5
-1.683, 4.640e-5
-1.684, 4.949e-5
-1.685, 4.949e-5
-1.686, 4.949e-5
-1.687, 5.257e-5
-1.688, 5.257e-5
-1.689, 5.257e-5
-1.690, 5.565e-5
-1.691, 5.565e-5
-1.692, 5.565e-5
-1.693, 5.873e-5
-1.694, 5.873e-5
-1.695, 5.873e-5
-1.696, 6.182e-5
-1.697, 6.182e-5
-1.698, 6.182e-5
-1.699, 6.490e-5
-1.700, 6.490e-5
-1.701, 6.798e-5
-1.702, 6.798e-5
-1.703, 6.798e-5
-1.704, 7.107e-5
-1.705, 7.107e-5
-1.706, 7.415e-5
-1.707, 7.415e-5
-1.708, 7.415e-5
-1.709, 7.723e-5
-1.710, 8.032e-5
-1.711, 8.032e-5
-1.712, 8.032e-5
-1.713, 8.340e-5
-1.714, 8.648e-5
-1.715, 8.648e-5
-1.716, 8.957e-5
-1.717, 9.265e-5
-1.718, 9.265e-5
-1.719, 9.573e-5
-1.720, 9.882e-5
-1.721, 1.019e-4
-1.722, 1.019e-4
-1.723, 1.050e-4
-1.724, 1.050e-4
-1.725, 1.081e-4
-1.726, 1.111e-4
-1.727, 1.142e-4
-1.728, 1.173e-4
-1.729, 1.204e-4
-1.730, 1.235e-4
-1.731, 1.266e-4
-1.732, 1.296e-4
-1.733, 1.327e-4
-1.734, 1.358e-4
-1.735, 1.389e-4
-1.736, 1.420e-4
-1.737, 1.481e-4
-1.738, 1.481e-4
-1.739, 1.512e-4
-1.740, 1.574e-4
-1.741, 1.605e-4
-1.742, 1.666e-4
-1.743, 1.697e-4
-1.744, 1.728e-4
-1.745, 1.790e-4
-1.746, 1.821e-4
-1.747, 1.882e-4
-1.748, 1.944e-4
-1.749, 1.975e-4
-1.750, 2.036e-4
-1.751, 2.098e-4
-1.752, 2.160e-4
-1.753, 2.191e-4
-1.754, 2.283e-4
-1.755, 2.345e-4
-1.756, 2.376e-4
-1.757, 2.468e-4
-1.758, 2.530e-4
-1.759, 2.591e-4
-1.760, 2.653e-4
-1.761, 2.746e-4
-1.762, 2.807e-4
-1.763, 2.900e-4
-1.764, 2.961e-4
-1.765, 3.054e-4
-1.766, 3.146e-4
-1.767, 3.239e-4
-1.768, 3.331e-4
-1.769, 3.424e-4
-1.770, 3.516e-4
-1.771, 3.609e-4
-1.772, 3.732e-4
-1.773, 3.825e-4
-1.774, 3.917e-4
-1.775, 4.040e-4
-1.776, 4.164e-4
-1.777, 4.287e-4
-1.778, 4.380e-4
-1.779, 4.503e-4
-1.780, 4.657e-4
-1.781, 4.780e-4
-1.782, 4.904e-4
-1.783, 5.058e-4
-1.784, 5.181e-4
-1.785, 5.335e-4
-1.786, 5.520e-4
-1.787, 5.644e-4
-1.788, 5.798e-4
-1.789, 5.983e-4
-1.790, 6.137e-4
-1.791, 6.291e-4
-1.792, 6.476e-4
-1.793, 6.661e-4
-1.794, 6.846e-4
-1.795, 7.031e-4
-1.796, 7.216e-4
-1.797, 7.432e-4
-1.798, 7.648e-4
-1.799, 7.833e-4
-1.800, 8.048e-4
-1.801, 8.295e-4
-1.802, 8.511e-4
-1.803, 8.727e-4
-1.804, 8.973e-4
-1.805, 9.189e-4
-1.806, 9.467e-4
-1.807, 9.713e-4
-1.808, 9.960e-4
-1.809, 1.021e-3
-1.810, 1.048e-3
-1.811, 1.076e-3
-1.812, 1.104e-3
-1.813, 1.132e-3
-1.814, 1.159e-3
-1.815, 1.190e-3
-1.816, 1.218e-3
-1.817, 1.249e-3
-1.818, 1.280e-3
-1.819, 1.314e-3
-1.820, 1.344e-3
-1.821, 1.378e-3
-1.822, 1.412e-3
-1.823, 1.446e-3
-1.824, 1.480e-3
-1.825, 1.517e-3
-1.826, 1.554e-3
-1.827, 1.591e-3
-1.828, 1.628e-3
-1.829, 1.668e-3
-1.830, 1.708e-3
-1.831, 1.745e-3
-1.832, 1.785e-3
-1.833, 1.825e-3
-1.834, 1.869e-3
-1.835, 1.912e-3
-1.836, 1.955e-3
-1.837, 1.995e-3
-1.838, 2.038e-3
-1.839, 2.081e-3
-1.840, 2.128e-3
-1.841, 2.174e-3
-1.842, 2.220e-3
-1.843, 2.266e-3
-1.844, 2.312e-3
-1.845, 2.362e-3
-1.846, 2.414e-3
-1.847, 2.464e-3
-1.848, 2.516e-3
-1.849, 2.565e-3
-1.850, 2.615e-3
-1.851, 2.667e-3
-1.852, 2.719e-3
-1.853, 2.772e-3
-1.854, 2.821e-3
-1.855, 2.874e-3
-1.856, 2.926e-3
-1.857, 2.982e-3
-1.858, 3.037e-3
-1.859, 3.093e-3
-1.860, 3.148e-3
-1.861, 3.207e-3
-1.862, 3.265e-3
-1.863, 3.327e-3
-1.864, 3.385e-3
-1.865, 3.447e-3
-1.866, 3.506e-3
-1.867, 3.564e-3
-1.868, 3.623e-3
-1.869, 3.684e-3
-1.870, 3.746e-3
-1.871, 3.811e-3
-1.872, 3.876e-3
-1.873, 3.937e-3
-1.874, 4.002e-3
-1.875, 4.067e-3
-1.876, 4.138e-3
-1.877, 4.202e-3
-1.878, 4.270e-3
-1.879, 4.338e-3
-1.880, 4.403e-3
-1.881, 4.471e-3
-1.882, 4.538e-3
-1.883, 4.606e-3
-1.884, 4.674e-3
-1.885, 4.742e-3
-1.886, 4.810e-3
-1.887, 4.875e-3
-1.888, 4.942e-3
-1.889, 5.010e-3
-1.890, 5.084e-3
-1.891, 5.155e-3
-1.892, 5.226e-3
-1.893, 5.300e-3
-1.894, 5.368e-3
-1.895, 5.442e-3
-1.896, 5.513e-3
-1.897, 5.584e-3
-1.898, 5.658e-3
-1.899, 5.732e-3
-1.900, 5.772e-3
-1.899, 5.753e-3
-1.898, 5.729e-3
-1.897, 5.701e-3
-1.896, 5.676e-3
-1.895, 5.651e-3
-1.894, 5.627e-3
-1.893, 5.599e-3
-1.892, 5.571e-3
-1.891, 5.541e-3
-1.890, 5.510e-3
-1.889, 5.482e-3
-1.888, 5.448e-3
-1.887, 5.414e-3
-1.886, 5.380e-3
-1.885, 5.343e-3
-1.884, 5.306e-3
-1.883, 5.269e-3
-1.882, 5.235e-3
-1.881, 5.198e-3
-1.880, 5.164e-3
-1.879, 5.130e-3
-1.878, 5.090e-3
-1.877, 5.050e-3
-1.876, 5.010e-3
-1.875, 4.973e-3
-1.874, 4.939e-3
-1.873, 4.905e-3
-1.872, 4.865e-3
-1.871, 4.825e-3
-1.870, 4.785e-3
-1.869, 4.745e-3
-1.868, 4.705e-3
-1.867, 4.668e-3
-1.866, 4.628e-3
-1.865, 4.585e-3
-1.864, 4.548e-3
-1.863, 4.508e-3
-1.862, 4.468e-3
-1.861, 4.431e-3
-1.860, 4.387e-3
-1.859, 4.347e-3
-1.858, 4.307e-3
-1.857, 4.267e-3
-1.856, 4.227e-3
-1.855, 4.187e-3
-1.854, 4.144e-3
-1.853, 4.104e-3
-1.852, 4.061e-3
-1.851, 4.021e-3
-1.850, 3.980e-3
-1.849, 3.937e-3
-1.848, 3.897e-3
-1.847, 3.857e-3
-1.846, 3.820e-3
-1.845, 3.780e-3
-1.844, 3.743e-3
-1.843, 3.703e-3
-1.842, 3.663e-3
-1.841, 3.623e-3
-1.840, 3.583e-3
-1.839, 3.543e-3
-1.838, 3.503e-3
-1.837, 3.466e-3
-1.836, 3.429e-3
-1.835, 3.388e-3
-1.834, 3.348e-3
-1.833, 3.308e-3
-1.832, 3.271e-3
-1.831, 3.237e-3
-1.830, 3.200e-3
-1.829, 3.160e-3
-1.828, 3.123e-3
-1.827, 3.089e-3
-1.826, 3.052e-3
-1.825, 3.019e-3
-1.824, 2.982e-3
-1.823, 2.945e-3
-1.822, 2.904e-3
-1.821, 2.871e-3
-1.820, 2.834e-3
-1.819, 2.800e-3
-1.818, 2.766e-3
-1.817, 2.735e-3
-1.816, 2.701e-3
-1.815, 2.667e-3
-1.814, 2.636e-3
-1.813, 2.605e-3
-1.812, 2.571e-3
-1.811, 2.541e-3
-1.810, 2.510e-3
-1.809, 2.479e-3
-1.808, 2.448e-3
-1.807, 2.417e-3
-1.806, 2.386e-3
-1.805, 2.356e-3
-1.804, 2.328e-3
-1.803, 2.297e-3
-1.802, 2.269e-3
-1.801, 2.238e-3
-1.800, 2.211e-3
-1.799, 2.180e-3
-1.798, 2.152e-3
-1.797, 2.121e-3
-1.796, 2.091e-3
-1.795, 2.063e-3
-1.794, 2.035e-3
-1.793, 2.007e-3
-1.792, 1.980e-3
-1.791, 1.955e-3
-1.790, 1.927e-3
-1.789, 1.899e-3
-1.788, 1.875e-3
-1.787, 1.847e-3
-1.786, 1.822e-3
-1.785, 1.798e-3
-1.784, 1.773e-3
-1.783, 1.745e-3
-1.782, 1.721e-3
-1.781, 1.696e-3
-1.780, 1.671e-3
-1.779, 1.647e-3
-1.778, 1.622e-3
-1.777, 1.597e-3
-1.776, 1.576e-3
-1.775, 1.551e-3
-1.774, 1.529e-3
-1.773, 1.505e-3
-1.772, 1.483e-3
-1.771, 1.462e-3
-1.770, 1.437e-3
-1.769, 1.415e-3
-1.768, 1.394e-3
-1.767, 1.372e-3
-1.766, 1.351e-3
-1.765, 1.329e-3
-1.764, 1.310e-3
-1.763, 1.289e-3
-1.762, 1.267e-3
-1.761, 1.249e-3
-1.760, 1.227e-3
-1.759, 1.209e-3
-1.758, 1.190e-3
-1.757, 1.172e-3
-1.756, 1.153e-3
-1.755, 1.132e-3
-1.754, 1.116e-3
-1.753, 1.098e-3
-1.752, 1.079e-3
-1.751, 1.061e-3
-1.750, 1.042e-3
-1.749, 1.024e-3
-1.748, 1.008e-3
-1.747, 9.929e-4
-1.746, 9.744e-4
-1.745, 9.590e-4
-1.744, 9.436e-4
-1.743, 9.251e-4
-1.742, 9.097e-4
-1.741, 8.943e-4
-1.740, 8.788e-4
-1.739, 8.634e-4
-1.738, 8.480e-4
-1.737, 8.326e-4
-1.736, 8.172e-4
-1.735, 8.018e-4
-1.734, 7.894e-4
-1.733, 7.740e-4
-1.732, 7.586e-4
-1.731, 7.463e-4
-1.730, 7.339e-4
-1.729, 7.185e-4
-1.728, 7.062e-4
-1.727, 6.939e-4
-1.726, 6.815e-4
-1.725, 6.692e-4
-1.724, 6.569e-4
-1.723, 6.445e-4
-1.722, 6.322e-4
-1.721, 6.199e-4
-1.720, 6.075e-4
-1.719, 5.983e-4
-1.718, 5.859e-4
-1.717, 5.736e-4
-1.716, 5.644e-4
-1.715, 5.520e-4
-1.714, 5.428e-4
-1.713, 5.305e-4
-1.712, 5.212e-4
-1.711, 5.120e-4
-1.710, 4.996e-4
-1.709, 4.904e-4
-1.708, 4.811e-4
-1.707, 4.719e-4
-1.706, 4.626e-4
-1.705, 4.534e-4
-1.704, 4.441e-4
-1.703, 4.349e-4
-1.702, 4.256e-4
-1.701, 4.164e-4
-1.700, 4.102e-4
-1.699, 4.010e-4
-1.698, 3.948e-4
-1.697, 3.855e-4
-1.696, 3.763e-4
-1.695, 3.701e-4
-1.694, 3.609e-4
-1.693, 3.547e-4
-1.692, 3.455e-4
-1.691, 3.393e-4
-1.690, 3.331e-4
-1.689, 3.270e-4
-1.688, 3.177e-4
-1.687, 3.115e-4
-1.686, 3.054e-4
-1.685, 2.961e-4
-1.684, 2.931e-4
-1.683, 2.869e-4
-1.682, 2.776e-4
-1.681, 2.746e-4
-1.680, 2.684e-4
-1.679, 2.622e-4
-1.678, 2.561e-4
-1.677, 2.499e-4
-1.676, 2.437e-4
-1.675, 2.406e-4
-1.674, 2.345e-4
-1.673, 2.283e-4
-1.672, 2.252e-4
-1.671, 2.191e-4
-1.670, 2.129e-4
-1.669, 2.098e-4
-1.668, 2.036e-4
-1.667, 1.975e-4
-1.666, 1.944e-4
-1.665, 1.913e-4
-1.664, 1.882e-4
-1.663, 1.821e-4
-1.662, 1.759e-4
-1.661, 1.728e-4
-1.660, 1.697e-4
-1.659, 1.666e-4
-1.658, 1.636e-4
-1.657, 1.574e-4
-1.656, 1.543e-4
-1.655, 1.512e-4
-1.654, 1.481e-4
-1.653, 1.420e-4
-1.652, 1.420e-4
-1.651, 1.358e-4
-1.650, 1.327e-4
-1.649, 1.296e-4
-1.648, 1.266e-4
-1.647, 1.235e-4
-1.646, 1.204e-4
-1.645, 1.173e-4
-1.644, 1.142e-4
-1.643, 1.111e-4
-1.642, 1.111e-4
-1.641, 1.050e-4
-1.640, 1.050e-4
-1.639, 1.019e-4
-1.638, 9.882e-5
-1.637, 9.573e-5
-1.636, 9.265e-5
-1.635, 9.265e-5
-1.634, 8.957e-5
-1.633, 8.648e-5
-1.632, 8.648e-5
-1.631, 8.340e-5
-1.630, 8.032e-5
-1.629, 7.723e-5
-1.628, 7.723e-5
-1.627, 7.415e-5
-1.626, 7.107e-5
-1.625, 7.107e-5
-1.624, 6.798e-5
-1.623, 6.490e-5
-1.622, 6.490e-5
-1.621, 6.182e-5
-1.620, 6.182e-5
-1.619, 5.873e-5
-1.618, 5.873e-5
-1.617, 5.873e-5
-1.616, 5.565e-5
-1.615, 5.257e-5
-1.614, 5.257e-5
-1.613, 4.949e-5
-1.612, 4.949e-5
-1.611, 4.640e-5
-1.610, 4.640e-5
-1.609, 4.332e-5
-1.608, 4.332e-5
-1.607, 4.024e-5
-1.606, 4.024e-5
-1.605, 4.024e-5
-1.604, 3.715e-5
-1.603, 3.715e-5
-1.602, 3.715e-5
-1.601, 3.407e-5
-1.600, 3.407e-5
-1.599, 3.407e-5
-1.598, 3.099e-5
-1.597, 3.099e-5
-1.596, 2.790e-5
-1.595, 2.790e-5
-1.594, 2.790e-5
-1.593, 2.482e-5
-1.592, 2.482e-5
-1.591, 2.482e-5
-1.590, 2.482e-5
-1.589, 2.482e-5
-1.588, 2.174e-5
-1.587, 2.174e-5
-1.586, 2.174e-5
-1.585, 2.174e-5
-1.584, 1.865e-5
-1.583, 1.865e-5
-1.582, 1.865e-5
-1.581, 1.865e-5
-1.580, 1.865e-5
-1.579, 1.557e-5
-1.578, 1.557e-5
-1.577, 1.557e-5
-1.576, 1.557e-5
-1.575, 1.249e-5
-1.574, 1.249e-5
-1.573, 1.249e-5
-1.572, 1.249e-5
-1.571, 1.249e-5
-1.570, 1.249e-5
-1.569, 1.249e-5
-1.568, 9.405e-6
-1.567, 9.405e-6
-1.566, 9.405e-6
-1.565, 9.405e-6
-1.564, 9.405e-6
-1.563, 9.405e-6
-1.562, 9.405e-6
-1.561, 6.322e-6
-1.560, 6.322e-6
-1.559, 6.322e-6
-1.558, 6.322e-6
-1.557, 6.322e-6
-1.556, 6.322e-6
-1.555, 6.322e-6
-1.554, 3.239e-6
-1.553, 3.239e-6
-1.552, 3.239e-6
-1.551, 3.239e-6
-1.550, 3.239e-6
-1.549, 3.239e-6
-1.548, 3.239e-6
-1.547, 3.239e-6
-1.546, 3.239e-6
-1.545, 3.239e-6
-1.544, 3.239e-6
-1.543, 1.559e-7
-1.542, 1.559e-7
-1.541, 1.559e-7
-1.540, 1.559e-7
-1.539, 1.559e-7
-1.538, 1.559e-7
-1.537, 1.559e-7
-1.536, 1.559e-7
-1.535, 1.559e-7
-1.534, 1.559e-7
-1.533, 1.559e-7
-1.532, 1.559e-7
-1.531, -2.927e-6
-1.530, 1.559e-7
-1.529, 1.559e-7
-1.528, 1.559e-7
-1.527, 1.559e-7
-1.526, -2.927e-6
-1.525, -2.927e-6
-1.524, 1.559e-7
-1.523, -2.927e-6
-1.522, -2.927e-6
-1.521, -2.927e-6
-1.520, -2.927e-6
-1.519, -2.927e-6
-1.518, -2.927e-6
-1.517, -2.927e-6
-1.516, -2.927e-6
-1.515, -2.927e-6
-1.514, -2.927e-6
-1.513, -2.927e-6
-1.512, -2.927e-6
-1.511, -2.927e-6
-1.510, -2.927e-6
-1.509, -2.927e-6
-1.508, -6.010e-6
-1.507, -6.010e-6
-1.506, -6.010e-6
-1.505, -6.010e-6
-1.504, -6.010e-6
-1.503, -6.010e-6
-1.502, -6.010e-6
-1.501, -6.010e-6
-1.500, -6.010e-6
-1.499, -6.010e-6
-1.498, -6.010e-6
-1.497, -6.010e-6
-1.496, -6.010e-6
-1.495, -6.010e-6
-1.494, -6.010e-6
-1.493, -6.010e-6
-1.492, -6.010e-6
-1.491, -6.010e-6
-1.490, -6.010e-6
-1.489, -6.010e-6
-1.488, -6.010e-6
-1.487, -6.010e-6
-1.486, -6.010e-6
-1.485, -6.010e-6
-1.484, -6.010e-6
-1.483, -6.010e-6
-1.482, -6.010e-6
-1.481, -6.010e-6
-1.480, -6.010e-6
-1.479, -6.010e-6
-1.478, -6.010e-6
-1.477, -6.010e-6
-1.476, -6.010e-6
-1.475, -6.010e-6
-1.474, -6.010e-6
-1.473, -6.010e-6
-1.472, -6.010e-6
-1.471, -6.010e-6
-1.470, -6.010e-6
-1.469, -6.010e-6
-1.468, -6.010e-6
-1.467, -6.010e-6
-1.466, -6.010e-6
-1.465, -6.010e-6
-1.464, -6.010e-6
-1.463, -6.010e-6
-1.462, -6.010e-6
-1.461, -6.010e-6
-1.460, -6.010e-6
-1.459, -6.010e-6
-1.458, -6.010e-6
-1.457, -6.010e-6
-1.456, -6.010e-6
-1.455, -6.010e-6
-1.454, -6.010e-6
-1.453, -9.093e-6
-1.452, -6.010e-6
-1.451, -9.093e-6
-1.450, -9.093e-6
-1.449, -6.010e-6
-1.448, -6.010e-6
-1.447, -6.010e-6
-1.446, -6.010e-6
-1.445, -6.010e-6
-1.444, -9.093e-6
-1.443, -6.010e-6
-1.442, -6.010e-6
-1.441, -6.010e-6
-1.440, -6.010e-6
-1.439, -9.093e-6
-1.438, -9.093e-6
-1.437, -6.010e-6
-1.436, -9.093e-6
-1.435, -6.010e-6
-1.434, -6.010e-6
-1.433, -9.093e-6
-1.432, -9.093e-6
-1.431, -9.093e-6
-1.430, -9.093e-6
-1.429, -9.093e-6
-1.428, -6.010e-6
-1.427, -9.093e-6
-1.426, -6.010e-6
-1.425, -6.010e-6
-1.424, -9.093e-6
-1.423, -6.010e-6
-1.422, -9.093e-6
-1.421, -9.093e-6
-1.420, -6.010e-6
-1.419, -9.093e-6
-1.418, -6.010e-6
-1.417, -6.010e-6
-1.416, -9.093e-6
-1.415, -6.010e-6
-1.414, -6.010e-6
-1.413, -6.010e-6
-1.412, -9.093e-6
-1.411, -6.010e-6
-1.410, -9.093e-6
-1.409, -6.010e-6
-1.408, -9.093e-6
-1.407, -9.093e-6
-1.406, -6.010e-6
-1.405, -9.093e-6
-1.404, -9.093e-6
-1.403, -6.010e-6
-1.402, -9.093e-6
-1.401, -9.093e-6
-1.400, -6.010e-6
-1.399, -9.093e-6
-1.398, -9.093e-6
-1.397, -9.093e-6
-1.396, -9.093e-6
-1.395, -9.093e-6
-1.394, -6.010e-6
-1.393, -9.093e-6
-1.392, -9.093e-6
-1.391, -6.010e-6
-1.390, -9.093e-6
-1.389, -9.093e-6
-1.388, -6.010e-6
-1.387, -6.010e-6
-1.386, -9.093e-6
-1.385, -6.010e-6
-1.384, -9.093e-6
-1.383, -9.093e-6
-1.382, -9.093e-6
-1.381, -9.093e-6
-1.380, -9.093e-6
-1.379, -6.010e-6
-1.378, -9.093e-6
-1.377, -9.093e-6
-1.376, -9.093e-6
-1.375, -9.093e-6
-1.374, -9.093e-6
-1.373, -6.010e-6
-1.372, -9.093e-6
-1.371, -9.093e-6
-1.370, -9.093e-6
-1.369, -9.093e-6
-1.368, -6.010e-6
-1.367, -9.093e-6
-1.366, -9.093e-6
-1.365, -9.093e-6
-1.364, -9.093e-6
-1.363, -9.093e-6
-1.362, -9.093e-6
-1.361, -9.093e-6
-1.360, -9.093e-6
-1.359, -6.010e-6
-1.358, -9.093e-6
-1.357, -9.093e-6
-1.356, -6.010e-6
-1.355, -9.093e-6
-1.354, -9.093e-6
-1.353, -6.010e-6
-1.352, -9.093e-6
-1.351, -9.093e-6
-1.350, -6.010e-6
-1.349, -9.093e-6
-1.348, -9.093e-6
-1.347, -9.093e-6
-1.346, -9.093e-6
-1.345, -9.093e-6
-1.344, -9.093e-6
-1.343, -9.093e-6
-1.342, -9.093e-6
-1.341, -9.093e-6
-1.340, -9.093e-6
-1.339, -6.010e-6
-1.338, -9.093e-6
-1.337, -9.093e-6
-1.336, -6.010e-6
-1.335, -9.093e-6
-1.334, -9.093e-6
-1.333, -6.010e-6
-1.332, -9.093e-6
-1.331, -9.093e-6
-1.330, -6.010e-6
-1.329, -9.093e-6
-1.328, -9.093e-6
-1.327, -9.093e-6
-1.326, -9.093e-6
-1.325, -9.093e-6
-1.324, -9.093e-6
-1.323, -9.093e-6
-1.322, -9.093e-6
-1.321, -9.093e-6
-1.320, -9.093e-6
-1.319, -9.093e-6
-1.318, -6.010e-6
-1.317, -9.093e-6
-1.316, -9.093e-6
-1.315, -9.093e-6
-1.314, -9.093e-6
-1.313, -6.010e-6
-1.312, -6.010e-6
-1.311, -9.093e-6
-1.310, -6.010e-6
-1.309, -6.010e-6
-1.308, -9.093e-6
-1.307, -9.093e-6
-1.306, -9.093e-6
-1.305, -9.093e-6
-1.304, -9.093e-6
-1.303, -9.093e-6
-1.302, -9.093e-6
-1.301, -9.093e-6
-1.300, -9.093e-6
-1.299, -9.093e-6
-1.298, -6.010e-6
-1.297, -9.093e-6
-1.296, -9.093e-6
-1.295, -9.093e-6
-1.294, -9.093e-6
-1.293, -6.010e-6
-1.292, -6.010e-6
-1.291, -9.093e-6
-1.290, -9.093e-6
-1.289, -9.093e-6
-1.288, -9.093e-6
-1.287, -9.093e-6
-1.286, -9.093e-6
-1.285, -9.093e-6
-1.284, -6.010e-6
-1.283, -9.093e-6
-1.282, -9.093e-6
-1.281, -9.093e-6
-1.280, -9.093e-6
-1.279, -9.093e-6
-1.278, -6.010e-6
-1.277, -9.093e-6
-1.276, -9.093e-6
-1.275, -9.093e-6
-1.274, -9.093e-6
-1.273, -9.093e-6
-1.272, -6.010e-6
-1.271, -9.093e-6
-1.270, -9.093e-6
-1.269, -9.093e-6
-1.268, -9.093e-6
-1.267, -9.093e-6
-1.266, -9.093e-6
-1.265, -9.093e-6
-1.264, -6.010e-6
-1.263, -9.093e-6
-1.262, -9.093e-6
-1.261, -9.093e-6
-1.260, -9.093e-6
-1.259, -6.010e-6
-1.258, -6.010e-6
-1.257, -6.010e-6
-1.256, -9.093e-6
-1.255, -9.093e-6
-1.254, -9.093e-6
-1.253, -9.093e-6
-1.252, -9.093e-6
-1.251, -9.093e-6
-1.250, -9.093e-6
-1.249, -9.093e-6
-1.248, -9.093e-6
-1.247, -9.093e-6
-1.246, -9.093e-6
-1.245, -9.093e-6
-1.244, -9.093e-6
-1.243, -6.010e-6
-1.242, -9.093e-6
-1.241, -9.093e-6
-1.240, -9.093e-6
-1.239, -9.093e-6
-1.238, -9.093e-6
-1.237, -9.093e-6
-1.236, -9.093e-6
-1.235, -9.093e-6
-1.234, -9.093e-6
-1.233, -9.093e-6
-1.232, -9.093e-6
-1.231, -9.093e-6
-1.230, -9.093e-6
-1.229, -6.010e-6
-1.228, -6.010e-6
-1.227, -9.093e-6
-1.226, -9.093e-6
-1.225, -6.010e-6
-1.224, -6.010e-6
-1.223, -6.010e-6
-1.222, -9.093e-6
-1.221, -9.093e-6
-1.220, -9.093e-6
-1.219, -9.093e-6
-1.218, -9.093e-6
-1.217, -9.093e-6
-1.216, -9.093e-6
-1.215, -9.093e-6
-1.214, -6.010e-6
-1.213, -9.093e-6
-1.212, -9.093e-6
-1.211, -9.093e-6
-1.210, -9.093e-6
-1.209, -6.010e-6
-1.208, -9.093e-6
-1.207, -9.093e-6
-1.206, -9.093e-6
-1.205, -9.093e-6
-1.204, -9.093e-6
-1.203, -9.093e-6
-1.202, -9.093e-6
-1.201, -9.093e-6
-1.200, -9.093e-6
-1.199, -9.093e-6
-1.198, -9.093e-6
-1.197, -9.093e-6
-1.196, -6.010e-6
-1.195, -9.093e-6
-1.194, -6.010e-6
-1.193, -9.093e-6
-1.192, -9.093e-6
-1.191, -6.010e-6
-1.190, -9.093e-6
-1.189, -9.093e-6
-1.188, -9.093e-6
-1.187, -6.010e-6
-1.186, -9.093e-6
-1.185, -9.093e-6
-1.184, -9.093e-6
-1.183, -9.093e-6
-1.182, -9.093e-6
-1.181, -9.093e-6
-1.180, -9.093e-6
-1.179, -6.010e-6
-1.178, -9.093e-6
-1.177, -9.093e-6
-1.176, -6.010e-6
-1.175, -9.093e-6
-1.174, -9.093e-6
-1.173, -6.010e-6
-1.172, -9.093e-6
-1.171, -9.093e-6
-1.170, -9.093e-6
-1.169, -9.093e-6
-1.168, -6.010e-6
-1.167, -9.093e-6
-1.166, -9.093e-6
-1.165, -9.093e-6
-1.164, -9.093e-6
-1.163, -9.093e-6
-1.162, -6.010e-6
-1.161, -9.093e-6
-1.160, -9.093e-6
-1.159, -6.010e-6
-1.158, -9.093e-6
-1.157, -9.093e-6
-1.156, -9.093e-6
-1.155, -9.093e-6
-1.154, -6.010e-6
-1.153, -6.010e-6
-1.152, -9.093e-6
-1.151, -9.093e-6
-1.150, -9.093e-6
-1.149, -9.093e-6
-1.148, -9.093e-6
-1.147, -9.093e-6
-1.146, -9.093e-6
-1.145, -9.093e-6
-1.144, -9.093e-6
-1.143, -9.093e-6
-1.142, -9.093e-6
-1.141, -9.093e-6
-1.140, -9.093e-6
-1.139, -9.093e-6
-1.138, -9.093e-6
-1.137, -9.093e-6
-1.136, -9.093e-6
-1.135, -6.010e-6
-1.134, -9.093e-6
-1.133, -9.093e-6
-1.132, -9.093e-6
-1.131, -6.010e-6
-1.130, -9.093e-6
-1.129, -9.093e-6
-1.128, -9.093e-6
-1.127, -9.093e-6
-1.126, -9.093e-6
-1.125, -9.093e-6
-1.124, -6.010e-6
-1.123, -9.093e-6
-1.122, -9.093e-6
-1.121, -9.093e-6
-1.120, -9.093e-6
-1.119, -9.093e-6
-1.118, -6.010e-6
-1.117, -9.093e-6
-1.116, -9.093e-6
-1.115, -9.093e-6
-1.114, -9.093e-6
-1.113, -9.093e-6
-1.112, -9.093e-6
-1.111, -9.093e-6
-1.110, -9.093e-6
-1.109, -9.093e-6
-1.108, -9.093e-6
-1.107, -9.093e-6
-1.106, -9.093e-6
-1.105, -9.093e-6
-1.104, -6.010e-6
-1.103, -9.093e-6
-1.102, -9.093e-6
-1.101, -9.093e-6
-1.100, -9.093e-6
-1.099, -9.093e-6
-1.098, -9.093e-6
-1.097, -9.093e-6
-1.096, -9.093e-6
-1.095, -9.093e-6
-1.094, -9.093e-6
-1.093, -9.093e-6
-1.092, -9.093e-6
-1.091, -9.093e-6
-1.090, -9.093e-6
-1.089, -9.093e-6
-1.088, -9.093e-6
-1.087, -9.093e-6
-1.086, -6.010e-6
-1.085, -9.093e-6
-1.084, -6.010e-6
-1.083, -6.010e-6
-1.082, -9.093e-6
-1.081, -9.093e-6
-1.080, -9.093e-6
-1.079, -9.093e-6
-1.078, -9.093e-6
-1.077, -9.093e-6
-1.076, -9.093e-6
-1.075, -9.093e-6
-1.074, -9.093e-6
-1.073, -9.093e-6
-1.072, -9.093e-6
-1.071, -9.093e-6
-1.070, -9.093e-6
-1.069, -9.093e-6
-1.068, -9.093e-6
-1.067, -9.093e-6
-1.066, -6.010e-6
-1.065, -9.093e-6
-1.064, -6.010e-6
-1.063, -6.010e-6
-1.062, -9.093e-6
-1.061, -9.093e-6
-1.060, -9.093e-6
-1.059, -9.093e-6
-1.058, -9.093e-6
-1.057, -9.093e-6
-1.056, -9.093e-6
-1.055, -9.093e-6
-1.054, -9.093e-6
-1.053, -9.093e-6
-1.052, -9.093e-6
-1.051, -6.010e-6
-1.050, -9.093e-6
-1.049, -9.093e-6
-1.048, -9.093e-6
-1.047, -6.010e-6
-1.046, -9.093e-6
-1.045, -9.093e-6
-1.044, -9.093e-6
-1.043, -9.093e-6
-1.042, -9.093e-6
-1.041, -9.093e-6
-1.040, -9.093e-6
-1.039, -9.093e-6
-1.038, -9.093e-6
-1.037, -9.093e-6
-1.036, -9.093e-6
-1.035, -9.093e-6
-1.034, -9.093e-6
-1.033, -9.093e-6
-1.032, -6.010e-6
-1.031, -6.010e-6
-1.030, -9.093e-6
-1.029, -6.010e-6
-1.028, -9.093e-6
-1.027, -9.093e-6
-1.026, -9.093e-6
-1.025, -9.093e-6
-1.024, -9.093e-6
-1.023, -9.093e-6
-1.022, -9.093e-6
-1.021, -9.093e-6
-1.020, -9.093e-6
-1.019, -9.093e-6
-1.018, -9.093e-6
-1.017, -9.093e-6
-1.016, -9.093e-6
-1.015, -9.093e-6
-1.014, -6.010e-6
-1.013, -9.093e-6
-1.012, -9.093e-6
-1.011, -9.093e-6
-1.010, -9.093e-6
-1.009, -9.093e-6
-1.008, -9.093e-6
-1.007, -9.093e-6
-1.006, -9.093e-6
-1.005, -9.093e-6
-1.004, -9.093e-6
-1.003, -9.093e-6
-1.002, -9.093e-6
-1.001, -9.093e-6
