Apr. 5, 2025   19:04:27
Cyclic Voltammetry
File: c:/users/guazh/data/banditlqround7_x0exp994_r5/2025-03-28-exp992\exp992-2025-04-05t18_45_34-arkoh\exp992_cv_sr_400mvs_efin_-1700mv.bin
Data Source:  Experiment
Instrument Model:  CHI760E
Header: CV ran at 400 mVs
Note: 

Init E (V) = -1
High E (V) = -1
Low E (V) = -1.7
Final E (V) = -1
Init P/N = N
Scan Rate (V/s) = 0.4
Segment = 3
Sample Interval (V) = 0.001
Quiet Time (sec) = 2
Sensitivity (A/V) = 0.01
Comp R (ohm) = 1.6

Results:

Channel 1:
Segment 1:

Segment 2:

Segment 3:

Potential/V, Current/A

-1.000, -5.226e-5
-1.001, 1.559e-7
-1.002, 3.715e-5
-1.003, 7.107e-5
-1.004, 9.573e-5
-1.005, 1.173e-4
-1.006, 1.327e-4
-1.007, 1.481e-4
-1.008, 1.605e-4
-1.009, 1.697e-4
-1.010, 1.821e-4
-1.011, 1.944e-4
-1.012, 2.006e-4
-1.013, 2.098e-4
-1.014, 2.160e-4
-1.015, 2.221e-4
-1.016, 2.283e-4
-1.017, 2.345e-4
-1.018, 2.406e-4
-1.019, 2.437e-4
-1.020, 2.468e-4
-1.021, 2.499e-4
-1.022, 2.561e-4
-1.023, 2.653e-4
-1.024, 2.746e-4
-1.025, 2.807e-4
-1.026, 2.807e-4
-1.027, 2.838e-4
-1.028, 2.869e-4
-1.029, 2.900e-4
-1.030, 2.961e-4
-1.031, 2.992e-4
-1.032, 2.992e-4
-1.033, 3.023e-4
-1.034, 3.054e-4
-1.035, 3.054e-4
-1.036, 3.115e-4
-1.037, 3.146e-4
-1.038, 3.177e-4
-1.039, 3.208e-4
-1.040, 3.208e-4
-1.041, 3.239e-4
-1.042, 3.270e-4
-1.043, 3.331e-4
-1.044, 3.393e-4
-1.045, 3.424e-4
-1.046, 3.424e-4
-1.047, 3.424e-4
-1.048, 3.424e-4
-1.049, 3.455e-4
-1.050, 3.485e-4
-1.051, 3.547e-4
-1.052, 3.547e-4
-1.053, 3.578e-4
-1.054, 3.578e-4
-1.055, 3.609e-4
-1.056, 3.640e-4
-1.057, 3.670e-4
-1.058, 3.701e-4
-1.059, 3.732e-4
-1.060, 3.732e-4
-1.061, 3.763e-4
-1.062, 3.794e-4
-1.063, 3.825e-4
-1.064, 3.886e-4
-1.065, 3.917e-4
-1.066, 3.917e-4
-1.067, 3.917e-4
-1.068, 3.948e-4
-1.069, 3.979e-4
-1.070, 4.010e-4
-1.071, 4.040e-4
-1.072, 4.040e-4
-1.073, 4.040e-4
-1.074, 4.040e-4
-1.075, 4.071e-4
-1.076, 4.133e-4
-1.077, 4.133e-4
-1.078, 4.164e-4
-1.079, 4.164e-4
-1.080, 4.164e-4
-1.081, 4.164e-4
-1.082, 4.195e-4
-1.083, 4.256e-4
-1.084, 4.318e-4
-1.085, 4.349e-4
-1.086, 4.380e-4
-1.087, 4.380e-4
-1.088, 4.380e-4
-1.089, 4.380e-4
-1.090, 4.410e-4
-1.091, 4.441e-4
-1.092, 4.441e-4
-1.093, 4.441e-4
-1.094, 4.472e-4
-1.095, 4.503e-4
-1.096, 4.534e-4
-1.097, 4.565e-4
-1.098, 4.595e-4
-1.099, 4.595e-4
-1.100, 4.626e-4
-1.101, 4.626e-4
-1.102, 4.657e-4
-1.103, 4.688e-4
-1.104, 4.719e-4
-1.105, 4.719e-4
-1.106, 4.750e-4
-1.107, 4.719e-4
-1.108, 4.750e-4
-1.109, 4.780e-4
-1.110, 4.811e-4
-1.111, 4.873e-4
-1.112, 4.873e-4
-1.113, 4.904e-4
-1.114, 4.904e-4
-1.115, 4.904e-4
-1.116, 4.965e-4
-1.117, 4.996e-4
-1.118, 4.996e-4
-1.119, 4.996e-4
-1.120, 4.996e-4
-1.121, 5.027e-4
-1.122, 5.058e-4
-1.123, 5.120e-4
-1.124, 5.181e-4
-1.125, 5.212e-4
-1.126, 5.212e-4
-1.127, 5.212e-4
-1.128, 5.212e-4
-1.129, 5.243e-4
-1.130, 5.305e-4
-1.131, 5.335e-4
-1.132, 5.366e-4
-1.133, 5.366e-4
-1.134, 5.397e-4
-1.135, 5.397e-4
-1.136, 5.428e-4
-1.137, 5.489e-4
-1.138, 5.551e-4
-1.139, 5.644e-4
-1.140, 5.674e-4
-1.141, 5.644e-4
-1.142, 5.551e-4
-1.143, 5.489e-4
-1.144, 5.520e-4
-1.145, 5.582e-4
-1.146, 5.644e-4
-1.147, 5.705e-4
-1.148, 5.798e-4
-1.149, 5.829e-4
-1.150, 5.859e-4
-1.151, 5.798e-4
-1.152, 5.736e-4
-1.153, 5.705e-4
-1.154, 5.674e-4
-1.155, 5.736e-4
-1.156, 5.798e-4
-1.157, 5.890e-4
-1.158, 5.983e-4
-1.159, 6.044e-4
-1.160, 6.044e-4
-1.161, 6.044e-4
-1.162, 6.075e-4
-1.163, 6.075e-4
-1.164, 6.075e-4
-1.165, 6.075e-4
-1.166, 6.106e-4
-1.167, 6.137e-4
-1.168, 6.168e-4
-1.169, 6.229e-4
-1.170, 6.291e-4
-1.171, 6.322e-4
-1.172, 6.384e-4
-1.173, 6.384e-4
-1.174, 6.384e-4
-1.175, 6.384e-4
-1.176, 6.384e-4
-1.177, 6.445e-4
-1.178, 6.445e-4
-1.179, 6.445e-4
-1.180, 6.476e-4
-1.181, 6.538e-4
-1.182, 6.599e-4
-1.183, 6.661e-4
-1.184, 6.692e-4
-1.185, 6.723e-4
-1.186, 6.723e-4
-1.187, 6.723e-4
-1.188, 6.723e-4
-1.189, 6.723e-4
-1.190, 6.754e-4
-1.191, 6.754e-4
-1.192, 6.784e-4
-1.193, 6.784e-4
-1.194, 6.815e-4
-1.195, 6.877e-4
-1.196, 6.939e-4
-1.197, 7.000e-4
-1.198, 7.031e-4
-1.199, 7.031e-4
-1.200, 7.062e-4
-1.201, 7.062e-4
-1.202, 7.124e-4
-1.203, 7.154e-4
-1.204, 7.216e-4
-1.205, 7.247e-4
-1.206, 7.247e-4
-1.207, 7.247e-4
-1.208, 7.278e-4
-1.209, 7.278e-4
-1.210, 7.247e-4
-1.211, 7.278e-4
-1.212, 7.309e-4
-1.213, 7.339e-4
-1.214, 7.370e-4
-1.215, 7.463e-4
-1.216, 7.494e-4
-1.217, 7.555e-4
-1.218, 7.586e-4
-1.219, 7.617e-4
-1.220, 7.617e-4
-1.221, 7.586e-4
-1.222, 7.617e-4
-1.223, 7.679e-4
-1.224, 7.709e-4
-1.225, 7.740e-4
-1.226, 7.771e-4
-1.227, 7.771e-4
-1.228, 7.771e-4
-1.229, 7.833e-4
-1.230, 7.863e-4
-1.231, 7.863e-4
-1.232, 7.833e-4
-1.233, 7.863e-4
-1.234, 7.863e-4
-1.235, 7.894e-4
-1.236, 7.925e-4
-1.237, 7.987e-4
-1.238, 8.018e-4
-1.239, 8.048e-4
-1.240, 8.018e-4
-1.241, 8.018e-4
-1.242, 8.018e-4
-1.243, 8.048e-4
-1.244, 8.048e-4
-1.245, 8.048e-4
-1.246, 8.048e-4
-1.247, 8.048e-4
-1.248, 8.079e-4
-1.249, 8.110e-4
-1.250, 8.141e-4
-1.251, 8.141e-4
-1.252, 8.141e-4
-1.253, 8.141e-4
-1.254, 8.172e-4
-1.255, 8.172e-4
-1.256, 8.203e-4
-1.257, 8.203e-4
-1.258, 8.233e-4
-1.259, 8.264e-4
-1.260, 8.233e-4
-1.261, 8.203e-4
-1.262, 8.172e-4
-1.263, 8.172e-4
-1.264, 8.203e-4
-1.265, 8.203e-4
-1.266, 8.203e-4
-1.267, 8.203e-4
-1.268, 8.233e-4
-1.269, 8.295e-4
-1.270, 8.295e-4
-1.271, 8.295e-4
-1.272, 8.264e-4
-1.273, 8.233e-4
-1.274, 8.203e-4
-1.275, 8.203e-4
-1.276, 8.203e-4
-1.277, 8.203e-4
-1.278, 8.233e-4
-1.279, 8.233e-4
-1.280, 8.233e-4
-1.281, 8.233e-4
-1.282, 8.264e-4
-1.283, 8.264e-4
-1.284, 8.264e-4
-1.285, 8.264e-4
-1.286, 8.233e-4
-1.287, 8.203e-4
-1.288, 8.141e-4
-1.289, 8.172e-4
-1.290, 8.203e-4
-1.291, 8.203e-4
-1.292, 8.172e-4
-1.293, 8.203e-4
-1.294, 8.203e-4
-1.295, 8.172e-4
-1.296, 8.172e-4
-1.297, 8.172e-4
-1.298, 8.172e-4
-1.299, 8.141e-4
-1.300, 8.110e-4
-1.301, 8.079e-4
-1.302, 8.048e-4
-1.303, 8.048e-4
-1.304, 8.048e-4
-1.305, 8.018e-4
-1.306, 8.018e-4
-1.307, 8.018e-4
-1.308, 7.987e-4
-1.309, 8.018e-4
-1.310, 8.079e-4
-1.311, 8.110e-4
-1.312, 8.079e-4
-1.313, 8.018e-4
-1.314, 7.987e-4
-1.315, 7.956e-4
-1.316, 7.925e-4
-1.317, 7.925e-4
-1.318, 7.894e-4
-1.319, 7.863e-4
-1.320, 7.925e-4
-1.321, 7.987e-4
-1.322, 7.956e-4
-1.323, 7.987e-4
-1.324, 7.987e-4
-1.325, 7.987e-4
-1.326, 7.987e-4
-1.327, 7.987e-4
-1.328, 7.956e-4
-1.329, 7.956e-4
-1.330, 7.956e-4
-1.331, 7.956e-4
-1.332, 7.925e-4
-1.333, 7.863e-4
-1.334, 7.863e-4
-1.335, 7.863e-4
-1.336, 7.894e-4
-1.337, 7.956e-4
-1.338, 7.956e-4
-1.339, 7.956e-4
-1.340, 7.925e-4
-1.341, 7.925e-4
-1.342, 7.925e-4
-1.343, 7.925e-4
-1.344, 7.956e-4
-1.345, 7.956e-4
-1.346, 7.925e-4
-1.347, 7.925e-4
-1.348, 7.925e-4
-1.349, 7.956e-4
-1.350, 8.018e-4
-1.351, 8.018e-4
-1.352, 8.018e-4
-1.353, 7.987e-4
-1.354, 7.956e-4
-1.355, 7.925e-4
-1.356, 7.925e-4
-1.357, 7.956e-4
-1.358, 7.987e-4
-1.359, 8.018e-4
-1.360, 8.048e-4
-1.361, 8.079e-4
-1.362, 8.110e-4
-1.363, 8.141e-4
-1.364, 8.141e-4
-1.365, 8.110e-4
-1.366, 8.048e-4
-1.367, 8.048e-4
-1.368, 8.048e-4
-1.369, 8.110e-4
-1.370, 8.172e-4
-1.371, 8.203e-4
-1.372, 8.233e-4
-1.373, 8.233e-4
-1.374, 8.233e-4
-1.375, 8.233e-4
-1.376, 8.233e-4
-1.377, 8.295e-4
-1.378, 8.326e-4
-1.379, 8.326e-4
-1.380, 8.357e-4
-1.381, 8.326e-4
-1.382, 8.357e-4
-1.383, 8.388e-4
-1.384, 8.418e-4
-1.385, 8.449e-4
-1.386, 8.480e-4
-1.387, 8.511e-4
-1.388, 8.511e-4
-1.389, 8.542e-4
-1.390, 8.542e-4
-1.391, 8.573e-4
-1.392, 8.665e-4
-1.393, 8.912e-4
-1.394, 9.035e-4
-1.395, 9.035e-4
-1.396, 9.004e-4
-1.397, 8.912e-4
-1.398, 8.727e-4
-1.399, 8.603e-4
-1.400, 8.449e-4
-1.401, 8.418e-4
-1.402, 8.665e-4
-1.403, 8.973e-4
-1.404, 9.251e-4
-1.405, 9.374e-4
-1.406, 9.405e-4
-1.407, 9.343e-4
-1.408, 9.251e-4
-1.409, 9.158e-4
-1.410, 9.097e-4
-1.411, 9.097e-4
-1.412, 9.128e-4
-1.413, 9.220e-4
-1.414, 9.374e-4
-1.415, 9.498e-4
-1.416, 9.590e-4
-1.417, 9.652e-4
-1.418, 9.683e-4
-1.419, 9.652e-4
-1.420, 9.652e-4
-1.421, 9.621e-4
-1.422, 9.683e-4
-1.423, 9.744e-4
-1.424, 9.806e-4
-1.425, 9.898e-4
-1.426, 9.960e-4
-1.427, 1.002e-3
-1.428, 1.008e-3
-1.429, 1.011e-3
-1.430, 1.018e-3
-1.431, 1.027e-3
-1.432, 1.030e-3
-1.433, 1.033e-3
-1.434, 1.036e-3
-1.435, 1.042e-3
-1.436, 1.051e-3
-1.437, 1.061e-3
-1.438, 1.067e-3
-1.439, 1.073e-3
-1.440, 1.076e-3
-1.441, 1.082e-3
-1.442, 1.092e-3
-1.443, 1.104e-3
-1.444, 1.110e-3
-1.445, 1.116e-3
-1.446, 1.119e-3
-1.447, 1.129e-3
-1.448, 1.141e-3
-1.449, 1.150e-3
-1.450, 1.159e-3
-1.451, 1.166e-3
-1.452, 1.172e-3
-1.453, 1.181e-3
-1.454, 1.190e-3
-1.455, 1.203e-3
-1.456, 1.212e-3
-1.457, 1.224e-3
-1.458, 1.236e-3
-1.459, 1.243e-3
-1.460, 1.243e-3
-1.461, 1.246e-3
-1.462, 1.255e-3
-1.463, 1.270e-3
-1.464, 1.286e-3
-1.465, 1.298e-3
-1.466, 1.310e-3
-1.467, 1.326e-3
-1.468, 1.341e-3
-1.469, 1.354e-3
-1.470, 1.360e-3
-1.471, 1.366e-3
-1.472, 1.378e-3
-1.473, 1.394e-3
-1.474, 1.406e-3
-1.475, 1.421e-3
-1.476, 1.437e-3
-1.477, 1.449e-3
-1.478, 1.471e-3
-1.479, 1.480e-3
-1.480, 1.486e-3
-1.481, 1.495e-3
-1.482, 1.508e-3
-1.483, 1.526e-3
-1.484, 1.551e-3
-1.485, 1.573e-3
-1.486, 1.588e-3
-1.487, 1.597e-3
-1.488, 1.616e-3
-1.489, 1.634e-3
-1.490, 1.647e-3
-1.491, 1.656e-3
-1.492, 1.662e-3
-1.493, 1.671e-3
-1.494, 1.696e-3
-1.495, 1.724e-3
-1.496, 1.748e-3
-1.497, 1.767e-3
-1.498, 1.785e-3
-1.499, 1.804e-3
-1.500, 1.822e-3
-1.501, 1.835e-3
-1.502, 1.850e-3
-1.503, 1.869e-3
-1.504, 1.890e-3
-1.505, 1.918e-3
-1.506, 1.939e-3
-1.507, 1.958e-3
-1.508, 1.976e-3
-1.509, 2.004e-3
-1.510, 2.029e-3
-1.511, 2.050e-3
-1.512, 2.063e-3
-1.513, 2.081e-3
-1.514, 2.103e-3
-1.515, 2.121e-3
-1.516, 2.149e-3
-1.517, 2.171e-3
-1.518, 2.192e-3
-1.519, 2.214e-3
-1.520, 2.238e-3
-1.521, 2.257e-3
-1.522, 2.272e-3
-1.523, 2.297e-3
-1.524, 2.325e-3
-1.525, 2.353e-3
-1.526, 2.383e-3
-1.527, 2.411e-3
-1.528, 2.436e-3
-1.529, 2.464e-3
-1.530, 2.491e-3
-1.531, 2.510e-3
-1.532, 2.531e-3
-1.533, 2.550e-3
-1.534, 2.571e-3
-1.535, 2.599e-3
-1.536, 2.630e-3
-1.537, 2.664e-3
-1.538, 2.695e-3
-1.539, 2.716e-3
-1.540, 2.738e-3
-1.541, 2.763e-3
-1.542, 2.787e-3
-1.543, 2.809e-3
-1.544, 2.837e-3
-1.545, 2.864e-3
-1.546, 2.895e-3
-1.547, 2.932e-3
-1.548, 2.966e-3
-1.549, 2.994e-3
-1.550, 3.022e-3
-1.551, 3.046e-3
-1.552, 3.068e-3
-1.553, 3.093e-3
-1.554, 3.120e-3
-1.555, 3.145e-3
-1.556, 3.182e-3
-1.557, 3.222e-3
-1.558, 3.262e-3
-1.559, 3.287e-3
-1.560, 3.314e-3
-1.561, 3.348e-3
-1.562, 3.376e-3
-1.563, 3.404e-3
-1.564, 3.435e-3
-1.565, 3.466e-3
-1.566, 3.493e-3
-1.567, 3.521e-3
-1.568, 3.552e-3
-1.569, 3.583e-3
-1.570, 3.620e-3
-1.571, 3.654e-3
-1.572, 3.684e-3
-1.573, 3.715e-3
-1.574, 3.743e-3
-1.575, 3.768e-3
-1.576, 3.795e-3
-1.577, 3.832e-3
-1.578, 3.866e-3
-1.579, 3.897e-3
-1.580, 3.928e-3
-1.581, 3.965e-3
-1.582, 4.005e-3
-1.583, 4.042e-3
-1.584, 4.070e-3
-1.585, 4.091e-3
-1.586, 4.110e-3
-1.587, 4.135e-3
-1.588, 4.169e-3
-1.589, 4.202e-3
-1.590, 4.236e-3
-1.591, 4.270e-3
-1.592, 4.310e-3
-1.593, 4.350e-3
-1.594, 4.387e-3
-1.595, 4.421e-3
-1.596, 4.443e-3
-1.597, 4.461e-3
-1.598, 4.486e-3
-1.599, 4.517e-3
-1.600, 4.548e-3
-1.601, 4.579e-3
-1.602, 4.612e-3
-1.603, 4.649e-3
-1.604, 4.686e-3
-1.605, 4.714e-3
-1.606, 4.733e-3
-1.607, 4.742e-3
-1.608, 4.757e-3
-1.609, 4.782e-3
-1.610, 4.819e-3
-1.611, 4.868e-3
-1.612, 4.927e-3
-1.613, 4.973e-3
-1.614, 5.016e-3
-1.615, 5.047e-3
-1.616, 5.066e-3
-1.617, 5.063e-3
-1.618, 5.066e-3
-1.619, 5.087e-3
-1.620, 5.130e-3
-1.621, 5.186e-3
-1.622, 5.251e-3
-1.623, 5.312e-3
-1.624, 5.356e-3
-1.625, 5.374e-3
-1.626, 5.356e-3
-1.627, 5.340e-3
-1.628, 5.359e-3
-1.629, 5.402e-3
-1.630, 5.454e-3
-1.631, 5.507e-3
-1.632, 5.562e-3
-1.633, 5.608e-3
-1.634, 5.642e-3
-1.635, 5.667e-3
-1.636, 5.679e-3
-1.637, 5.682e-3
-1.638, 5.695e-3
-1.639, 5.716e-3
-1.640, 5.756e-3
-1.641, 5.799e-3
-1.642, 5.849e-3
-1.643, 5.892e-3
-1.644, 5.929e-3
-1.645, 5.966e-3
-1.646, 6.003e-3
-1.647, 6.018e-3
-1.648, 6.031e-3
-1.649, 6.040e-3
-1.650, 6.062e-3
-1.651, 6.086e-3
-1.652, 6.105e-3
-1.653, 6.142e-3
-1.654, 6.194e-3
-1.655, 6.247e-3
-1.656, 6.296e-3
-1.657, 6.321e-3
-1.658, 6.330e-3
-1.659, 6.351e-3
-1.660, 6.398e-3
-1.661, 6.432e-3
-1.662, 6.456e-3
-1.663, 6.493e-3
-1.664, 6.536e-3
-1.665, 6.564e-3
-1.666, 6.583e-3
-1.667, 6.598e-3
-1.668, 6.620e-3
-1.669, 6.617e-3
-1.670, 6.626e-3
-1.671, 6.644e-3
-1.672, 6.706e-3
-1.673, 6.758e-3
-1.674, 6.811e-3
-1.675, 6.860e-3
-1.676, 6.909e-3
-1.677, 6.937e-3
-1.678, 6.965e-3
-1.679, 6.983e-3
-1.680, 6.999e-3
-1.681, 7.014e-3
-1.682, 7.020e-3
-1.683, 7.020e-3
-1.684, 7.042e-3
-1.685, 7.091e-3
-1.686, 7.165e-3
-1.687, 7.236e-3
-1.688, 7.282e-3
-1.689, 7.332e-3
-1.690, 7.375e-3
-1.691, 7.409e-3
-1.692, 7.421e-3
-1.693, 7.464e-3
-1.694, 7.455e-3
-1.695, 7.461e-3
-1.696, 7.477e-3
-1.697, 7.504e-3
-1.698, 7.538e-3
-1.699, 7.569e-3
-1.700, 7.563e-3
-1.699, 7.495e-3
-1.698, 7.446e-3
-1.697, 7.390e-3
-1.696, 7.329e-3
-1.695, 7.258e-3
-1.694, 7.208e-3
-1.693, 7.221e-3
-1.692, 7.171e-3
-1.691, 7.094e-3
-1.690, 7.054e-3
-1.689, 7.039e-3
-1.688, 7.039e-3
-1.687, 7.027e-3
-1.686, 7.005e-3
-1.685, 6.949e-3
-1.684, 6.860e-3
-1.683, 6.746e-3
-1.682, 6.610e-3
-1.681, 6.493e-3
-1.680, 6.422e-3
-1.679, 6.373e-3
-1.678, 6.317e-3
-1.677, 6.311e-3
-1.676, 6.293e-3
-1.675, 6.271e-3
-1.674, 6.222e-3
-1.673, 6.160e-3
-1.672, 6.092e-3
-1.671, 6.006e-3
-1.670, 5.935e-3
-1.669, 5.873e-3
-1.668, 5.827e-3
-1.667, 5.781e-3
-1.666, 5.722e-3
-1.665, 5.688e-3
-1.664, 5.658e-3
-1.663, 5.614e-3
-1.662, 5.544e-3
-1.661, 5.454e-3
-1.660, 5.386e-3
-1.659, 5.362e-3
-1.658, 5.359e-3
-1.657, 5.319e-3
-1.656, 5.275e-3
-1.655, 5.235e-3
-1.654, 5.186e-3
-1.653, 5.146e-3
-1.652, 5.106e-3
-1.651, 5.053e-3
-1.650, 4.995e-3
-1.649, 4.955e-3
-1.648, 4.912e-3
-1.647, 4.881e-3
-1.646, 4.838e-3
-1.645, 4.791e-3
-1.644, 4.748e-3
-1.643, 4.699e-3
-1.642, 4.674e-3
-1.641, 4.625e-3
-1.640, 4.569e-3
-1.639, 4.517e-3
-1.638, 4.474e-3
-1.637, 4.440e-3
-1.636, 4.400e-3
-1.635, 4.366e-3
-1.634, 4.332e-3
-1.633, 4.283e-3
-1.632, 4.236e-3
-1.631, 4.196e-3
-1.630, 4.153e-3
-1.629, 4.107e-3
-1.628, 4.076e-3
-1.627, 4.039e-3
-1.626, 4.002e-3
-1.625, 3.968e-3
-1.624, 3.931e-3
-1.623, 3.894e-3
-1.622, 3.873e-3
-1.621, 3.836e-3
-1.620, 3.792e-3
-1.619, 3.755e-3
-1.618, 3.712e-3
-1.617, 3.675e-3
-1.616, 3.638e-3
-1.615, 3.595e-3
-1.614, 3.555e-3
-1.613, 3.506e-3
-1.612, 3.469e-3
-1.611, 3.438e-3
-1.610, 3.410e-3
-1.609, 3.373e-3
-1.608, 3.336e-3
-1.607, 3.299e-3
-1.606, 3.265e-3
-1.605, 3.237e-3
-1.604, 3.213e-3
-1.603, 3.197e-3
-1.602, 3.154e-3
-1.601, 3.139e-3
-1.600, 3.099e-3
-1.599, 3.068e-3
-1.598, 3.037e-3
-1.597, 3.003e-3
-1.596, 2.975e-3
-1.595, 2.941e-3
-1.594, 2.904e-3
-1.593, 2.874e-3
-1.592, 2.843e-3
-1.591, 2.815e-3
-1.590, 2.790e-3
-1.589, 2.763e-3
-1.588, 2.744e-3
-1.587, 2.710e-3
-1.586, 2.667e-3
-1.585, 2.630e-3
-1.584, 2.599e-3
-1.583, 2.571e-3
-1.582, 2.541e-3
-1.581, 2.516e-3
-1.580, 2.494e-3
-1.579, 2.470e-3
-1.578, 2.448e-3
-1.577, 2.420e-3
-1.576, 2.390e-3
-1.575, 2.359e-3
-1.574, 2.337e-3
-1.573, 2.303e-3
-1.572, 2.269e-3
-1.571, 2.232e-3
-1.570, 2.220e-3
-1.569, 2.198e-3
-1.568, 2.180e-3
-1.567, 2.155e-3
-1.566, 2.146e-3
-1.565, 2.121e-3
-1.564, 2.091e-3
-1.563, 2.063e-3
-1.562, 2.029e-3
-1.561, 1.998e-3
-1.560, 1.967e-3
-1.559, 1.946e-3
-1.558, 1.927e-3
-1.557, 1.915e-3
-1.556, 1.896e-3
-1.555, 1.878e-3
-1.554, 1.859e-3
-1.553, 1.835e-3
-1.552, 1.807e-3
-1.551, 1.779e-3
-1.550, 1.767e-3
-1.549, 1.758e-3
-1.548, 1.733e-3
-1.547, 1.708e-3
-1.546, 1.677e-3
-1.545, 1.659e-3
-1.544, 1.637e-3
-1.543, 1.619e-3
-1.542, 1.594e-3
-1.541, 1.569e-3
-1.540, 1.542e-3
-1.539, 1.523e-3
-1.538, 1.495e-3
-1.537, 1.471e-3
-1.536, 1.458e-3
-1.535, 1.443e-3
-1.534, 1.421e-3
-1.533, 1.403e-3
-1.532, 1.381e-3
-1.531, 1.363e-3
-1.530, 1.341e-3
-1.529, 1.326e-3
-1.528, 1.304e-3
-1.527, 1.283e-3
-1.526, 1.261e-3
-1.525, 1.249e-3
-1.524, 1.233e-3
-1.523, 1.215e-3
-1.522, 1.206e-3
-1.521, 1.193e-3
-1.520, 1.178e-3
-1.519, 1.166e-3
-1.518, 1.150e-3
-1.517, 1.129e-3
-1.516, 1.098e-3
-1.515, 1.067e-3
-1.514, 1.045e-3
-1.513, 1.027e-3
-1.512, 1.018e-3
-1.511, 1.014e-3
-1.510, 1.011e-3
-1.509, 1.002e-3
-1.508, 9.929e-4
-1.507, 9.775e-4
-1.506, 9.590e-4
-1.505, 9.374e-4
-1.504, 9.158e-4
-1.503, 8.973e-4
-1.502, 8.819e-4
-1.501, 8.727e-4
-1.500, 8.573e-4
-1.499, 8.418e-4
-1.498, 8.295e-4
-1.497, 8.203e-4
-1.496, 8.079e-4
-1.495, 7.925e-4
-1.494, 7.771e-4
-1.493, 7.648e-4
-1.492, 7.524e-4
-1.491, 7.432e-4
-1.490, 7.339e-4
-1.489, 7.247e-4
-1.488, 7.124e-4
-1.487, 7.000e-4
-1.486, 6.846e-4
-1.485, 6.723e-4
-1.484, 6.569e-4
-1.483, 6.476e-4
-1.482, 6.384e-4
-1.481, 6.291e-4
-1.480, 6.168e-4
-1.479, 6.044e-4
-1.478, 5.921e-4
-1.477, 5.859e-4
-1.476, 5.767e-4
-1.475, 5.644e-4
-1.474, 5.489e-4
-1.473, 5.366e-4
-1.472, 5.243e-4
-1.471, 5.181e-4
-1.470, 5.120e-4
-1.469, 5.027e-4
-1.468, 4.935e-4
-1.467, 4.873e-4
-1.466, 4.780e-4
-1.465, 4.688e-4
-1.464, 4.595e-4
-1.463, 4.472e-4
-1.462, 4.318e-4
-1.461, 4.225e-4
-1.460, 4.133e-4
-1.459, 4.040e-4
-1.458, 3.979e-4
-1.457, 3.917e-4
-1.456, 3.855e-4
-1.455, 3.794e-4
-1.454, 3.670e-4
-1.453, 3.578e-4
-1.452, 3.485e-4
-1.451, 3.424e-4
-1.450, 3.362e-4
-1.449, 3.331e-4
-1.448, 3.270e-4
-1.447, 3.177e-4
-1.446, 3.085e-4
-1.445, 3.023e-4
-1.444, 2.931e-4
-1.443, 2.869e-4
-1.442, 2.776e-4
-1.441, 2.684e-4
-1.440, 2.622e-4
-1.439, 2.561e-4
-1.438, 2.530e-4
-1.437, 2.468e-4
-1.436, 2.437e-4
-1.435, 2.376e-4
-1.434, 2.283e-4
-1.433, 2.221e-4
-1.432, 2.160e-4
-1.431, 2.129e-4
-1.430, 2.067e-4
-1.429, 2.036e-4
-1.428, 1.975e-4
-1.427, 1.882e-4
-1.426, 1.821e-4
-1.425, 1.759e-4
-1.424, 1.728e-4
-1.423, 1.666e-4
-1.422, 1.636e-4
-1.421, 1.574e-4
-1.420, 1.512e-4
-1.419, 1.451e-4
-1.418, 1.420e-4
-1.417, 1.389e-4
-1.416, 1.327e-4
-1.415, 1.296e-4
-1.414, 1.235e-4
-1.413, 1.173e-4
-1.412, 1.111e-4
-1.411, 1.111e-4
-1.410, 1.081e-4
-1.409, 1.019e-4
-1.408, 9.882e-5
-1.407, 9.265e-5
-1.406, 8.957e-5
-1.405, 8.340e-5
-1.404, 8.032e-5
-1.403, 8.032e-5
-1.402, 7.415e-5
-1.401, 6.798e-5
-1.400, 6.490e-5
-1.399, 5.873e-5
-1.398, 5.873e-5
-1.397, 5.565e-5
-1.396, 5.257e-5
-1.395, 4.949e-5
-1.394, 4.640e-5
-1.393, 4.024e-5
-1.392, 3.715e-5
-1.391, 3.407e-5
-1.390, 3.099e-5
-1.389, 2.790e-5
-1.388, 2.482e-5
-1.387, 2.174e-5
-1.386, 1.557e-5
-1.385, 1.557e-5
-1.384, 9.405e-6
-1.383, 9.405e-6
-1.382, 9.405e-6
-1.381, 3.239e-6
-1.380, 1.559e-7
-1.379, -6.010e-6
-1.378, -6.010e-6
-1.377, -6.010e-6
-1.376, -9.093e-6
-1.375, -1.218e-5
-1.374, -1.526e-5
-1.373, -1.834e-5
-1.372, -2.143e-5
-1.371, -2.451e-5
-1.370, -2.451e-5
-1.369, -2.759e-5
-1.368, -2.759e-5
-1.367, -3.376e-5
-1.366, -3.684e-5
-1.365, -3.684e-5
-1.364, -3.992e-5
-1.363, -3.992e-5
-1.362, -4.301e-5
-1.361, -4.609e-5
-1.360, -4.917e-5
-1.359, -5.226e-5
-1.358, -5.226e-5
-1.357, -5.534e-5
-1.356, -5.534e-5
-1.355, -5.842e-5
-1.354, -6.151e-5
-1.353, -6.459e-5
-1.352, -6.459e-5
-1.351, -6.767e-5
-1.350, -6.767e-5
-1.349, -6.767e-5
-1.348, -7.076e-5
-1.347, -7.384e-5
-1.346, -7.692e-5
-1.345, -8.000e-5
-1.344, -8.000e-5
-1.343, -8.000e-5
-1.342, -8.000e-5
-1.341, -8.309e-5
-1.340, -8.617e-5
-1.339, -8.925e-5
-1.338, -8.925e-5
-1.337, -8.925e-5
-1.336, -8.925e-5
-1.335, -9.234e-5
-1.334, -9.542e-5
-1.333, -9.850e-5
-1.332, -1.016e-4
-1.331, -1.016e-4
-1.330, -1.016e-4
-1.329, -1.016e-4
-1.328, -1.047e-4
-1.327, -1.047e-4
-1.326, -1.078e-4
-1.325, -1.108e-4
-1.324, -1.108e-4
-1.323, -1.108e-4
-1.322, -1.108e-4
-1.321, -1.139e-4
-1.320, -1.170e-4
-1.319, -1.201e-4
-1.318, -1.201e-4
-1.317, -1.201e-4
-1.316, -1.201e-4
-1.315, -1.201e-4
-1.314, -1.232e-4
-1.313, -1.263e-4
-1.312, -1.263e-4
-1.311, -1.293e-4
-1.310, -1.293e-4
-1.309, -1.263e-4
-1.308, -1.293e-4
-1.307, -1.324e-4
-1.306, -1.355e-4
-1.305, -1.355e-4
-1.304, -1.355e-4
-1.303, -1.355e-4
-1.302, -1.355e-4
-1.301, -1.386e-4
-1.300, -1.417e-4
-1.299, -1.448e-4
-1.298, -1.448e-4
-1.297, -1.448e-4
-1.296, -1.448e-4
-1.295, -1.448e-4
-1.294, -1.478e-4
-1.293, -1.478e-4
-1.292, -1.509e-4
-1.291, -1.509e-4
-1.290, -1.509e-4
-1.289, -1.540e-4
-1.288, -1.540e-4
-1.287, -1.602e-4
-1.286, -1.602e-4
-1.285, -1.602e-4
-1.284, -1.602e-4
-1.283, -1.602e-4
-1.282, -1.602e-4
-1.281, -1.632e-4
-1.280, -1.663e-4
-1.279, -1.694e-4
-1.278, -1.694e-4
-1.277, -1.694e-4
-1.276, -1.694e-4
-1.275, -1.694e-4
-1.274, -1.725e-4
-1.273, -1.725e-4
-1.272, -1.756e-4
-1.271, -1.756e-4
-1.270, -1.756e-4
-1.269, -1.756e-4
-1.268, -1.787e-4
-1.267, -1.817e-4
-1.266, -1.848e-4
-1.265, -1.848e-4
-1.264, -1.848e-4
-1.263, -1.848e-4
-1.262, -1.879e-4
-1.261, -1.879e-4
-1.260, -1.910e-4
-1.259, -1.941e-4
-1.258, -1.941e-4
-1.257, -1.941e-4
-1.256, -1.941e-4
-1.255, -1.941e-4
-1.254, -1.972e-4
-1.253, -2.002e-4
-1.252, -2.033e-4
-1.251, -2.033e-4
-1.250, -2.033e-4
-1.249, -2.033e-4
-1.248, -2.064e-4
-1.247, -2.095e-4
-1.246, -2.126e-4
-1.245, -2.126e-4
-1.244, -2.126e-4
-1.243, -2.126e-4
-1.242, -2.126e-4
-1.241, -2.187e-4
-1.240, -2.218e-4
-1.239, -2.249e-4
-1.238, -2.249e-4
-1.237, -2.249e-4
-1.236, -2.249e-4
-1.235, -2.249e-4
-1.234, -2.280e-4
-1.233, -2.311e-4
-1.232, -2.311e-4
-1.231, -2.342e-4
-1.230, -2.342e-4
-1.229, -2.372e-4
-1.228, -2.403e-4
-1.227, -2.434e-4
-1.226, -2.465e-4
-1.225, -2.465e-4
-1.224, -2.434e-4
-1.223, -2.465e-4
-1.222, -2.465e-4
-1.221, -2.496e-4
-1.220, -2.557e-4
-1.219, -2.588e-4
-1.218, -2.619e-4
-1.217, -2.619e-4
-1.216, -2.619e-4
-1.215, -2.650e-4
-1.214, -2.650e-4
-1.213, -2.681e-4
-1.212, -2.712e-4
-1.211, -2.742e-4
-1.210, -2.742e-4
-1.209, -2.742e-4
-1.208, -2.804e-4
-1.207, -2.804e-4
-1.206, -2.866e-4
-1.205, -2.866e-4
-1.204, -2.897e-4
-1.203, -2.866e-4
-1.202, -2.897e-4
-1.201, -2.958e-4
-1.200, -2.989e-4
-1.199, -3.020e-4
-1.198, -3.051e-4
-1.197, -3.082e-4
-1.196, -3.082e-4
-1.195, -3.112e-4
-1.194, -3.143e-4
-1.193, -3.205e-4
-1.192, -3.236e-4
-1.191, -3.236e-4
-1.190, -3.236e-4
-1.189, -3.267e-4
-1.188, -3.297e-4
-1.187, -3.359e-4
-1.186, -3.390e-4
-1.185, -3.421e-4
-1.184, -3.452e-4
-1.183, -3.452e-4
-1.182, -3.482e-4
-1.181, -3.513e-4
-1.180, -3.544e-4
-1.179, -3.606e-4
-1.178, -3.637e-4
-1.177, -3.637e-4
-1.176, -3.667e-4
-1.175, -3.698e-4
-1.174, -3.760e-4
-1.173, -3.791e-4
-1.172, -3.821e-4
-1.171, -3.852e-4
-1.170, -3.852e-4
-1.169, -3.883e-4
-1.168, -3.945e-4
-1.167, -3.976e-4
-1.166, -4.037e-4
-1.165, -4.037e-4
-1.164, -4.068e-4
-1.163, -4.068e-4
-1.162, -4.099e-4
-1.161, -4.161e-4
-1.160, -4.253e-4
-1.159, -4.284e-4
-1.158, -4.346e-4
-1.157, -4.346e-4
-1.156, -4.407e-4
-1.155, -4.407e-4
-1.154, -4.469e-4
-1.153, -4.531e-4
-1.152, -4.592e-4
-1.151, -4.654e-4
-1.150, -4.685e-4
-1.149, -4.746e-4
-1.148, -4.777e-4
-1.147, -4.839e-4
-1.146, -4.870e-4
-1.145, -4.901e-4
-1.144, -4.931e-4
-1.143, -4.962e-4
-1.142, -4.993e-4
-1.141, -5.055e-4
-1.140, -5.147e-4
-1.139, -5.209e-4
-1.138, -5.240e-4
-1.137, -5.301e-4
-1.136, -5.301e-4
-1.135, -5.363e-4
-1.134, -5.425e-4
-1.133, -5.486e-4
-1.132, -5.548e-4
-1.131, -5.579e-4
-1.130, -5.641e-4
-1.129, -5.671e-4
-1.128, -5.733e-4
-1.127, -5.826e-4
-1.126, -5.887e-4
-1.125, -5.949e-4
-1.124, -5.980e-4
-1.123, -6.041e-4
-1.122, -6.072e-4
-1.121, -6.165e-4
-1.120, -6.226e-4
-1.119, -6.319e-4
-1.118, -6.411e-4
-1.117, -6.473e-4
-1.116, -6.535e-4
-1.115, -6.596e-4
-1.114, -6.689e-4
-1.113, -6.750e-4
-1.112, -6.781e-4
-1.111, -6.843e-4
-1.110, -6.874e-4
-1.109, -6.935e-4
-1.108, -7.028e-4
-1.107, -7.120e-4
-1.106, -7.213e-4
-1.105, -7.336e-4
-1.104, -7.460e-4
-1.103, -7.614e-4
-1.102, -7.737e-4
-1.101, -7.891e-4
-1.100, -7.953e-4
-1.099, -8.015e-4
-1.098, -7.984e-4
-1.097, -7.953e-4
-1.096, -7.891e-4
-1.095, -7.860e-4
-1.094, -7.830e-4
-1.093, -7.830e-4
-1.092, -7.984e-4
-1.091, -8.169e-4
-1.090, -8.385e-4
-1.089, -8.569e-4
-1.088, -8.693e-4
-1.087, -8.785e-4
-1.086, -8.847e-4
-1.085, -8.847e-4
-1.084, -8.816e-4
-1.083, -8.754e-4
-1.082, -8.785e-4
-1.081, -8.847e-4
-1.080, -8.909e-4
-1.079, -9.032e-4
-1.078, -9.155e-4
-1.077, -9.248e-4
-1.076, -9.340e-4
-1.075, -9.433e-4
-1.074, -9.525e-4
-1.073, -9.618e-4
-1.072, -9.710e-4
-1.071, -9.803e-4
-1.070, -9.926e-4
-1.069, -1.005e-3
-1.068, -1.017e-3
-1.067, -1.023e-3
-1.066, -1.036e-3
-1.065, -1.042e-3
-1.064, -1.045e-3
-1.063, -1.048e-3
-1.062, -1.057e-3
-1.061, -1.067e-3
-1.060, -1.073e-3
-1.059, -1.079e-3
-1.058, -1.085e-3
-1.057, -1.088e-3
-1.056, -1.091e-3
-1.055, -1.101e-3
-1.054, -1.116e-3
-1.053, -1.125e-3
-1.052, -1.131e-3
-1.051, -1.141e-3
-1.050, -1.150e-3
-1.049, -1.156e-3
-1.048, -1.162e-3
-1.047, -1.168e-3
-1.046, -1.175e-3
-1.045, -1.184e-3
-1.044, -1.187e-3
-1.043, -1.193e-3
-1.042, -1.199e-3
-1.041, -1.212e-3
-1.040, -1.221e-3
-1.039, -1.230e-3
-1.038, -1.233e-3
-1.037, -1.239e-3
-1.036, -1.245e-3
-1.035, -1.252e-3
-1.034, -1.261e-3
-1.033, -1.270e-3
-1.032, -1.279e-3
-1.031, -1.289e-3
-1.030, -1.298e-3
-1.029, -1.304e-3
-1.028, -1.313e-3
-1.027, -1.322e-3
-1.026, -1.332e-3
-1.025, -1.341e-3
-1.024, -1.344e-3
-1.023, -1.347e-3
-1.022, -1.353e-3
-1.021, -1.363e-3
-1.020, -1.372e-3
-1.019, -1.381e-3
-1.018, -1.387e-3
-1.017, -1.393e-3
-1.016, -1.403e-3
-1.015, -1.409e-3
-1.014, -1.415e-3
-1.013, -1.421e-3
-1.012, -1.430e-3
-1.011, -1.440e-3
-1.010, -1.446e-3
-1.009, -1.452e-3
-1.008, -1.455e-3
-1.007, -1.464e-3
-1.006, -1.470e-3
-1.005, -1.477e-3
-1.004, -1.483e-3
-1.003, -1.489e-3
-1.002, -1.498e-3
-1.001, -1.511e-3
