Potential V vs RHE, Current mA cm-2
0.013299999999999867,0.8264743413811545
0.012299999999999978,0.08502414912188871
0.011299999999999866,-0.3947044526623452
0.010299999999999976,-0.7437137303390498
0.009299999999999864,-1.0054353208140816
0.008299999999999974,-1.2234423321232837
0.007299999999999862,-1.4415908145624723
0.006299999999999972,-1.6594563547416883
0.00529999999999986,-1.7910245056291363
0.0042999999999999705,-1.8773218949209036
0.0032999999999998586,-1.9650339955125358
0.0022999999999999687,-2.095187435100119
0.0012999999999998568,-2.226755585987568
0.00029999999999996696,-2.3144676865791998
-0.000700000000000145,-2.3569090255751513
-0.0017000000000000348,-2.4446211261667834
-0.0027000000000001467,-2.532333226758415
-0.0037000000000000366,-2.618630616050183
-0.0047000000000001485,-2.662486666345999
-0.005700000000000038,-2.706342716641815
-0.00670000000000015,-2.7501987669376318
-0.00770000000000004,-2.8379108675292635
-0.008700000000000152,-2.924208256821031
-0.009700000000000042,-2.968064307116847
-0.010700000000000154,-2.968064307116847
-0.011700000000000044,-3.0119203574126634
-0.012700000000000156,-3.0996324580042955
-0.013700000000000045,-3.1859298472960624
-0.014700000000000157,-3.1859298472960624
-0.015700000000000047,-3.1859298472960624
-0.01670000000000016,-3.2297858975918787
-0.01770000000000005,-3.273641947887695
-0.01870000000000016,-3.361354048479327
-0.01970000000000005,-3.403795387475278
-0.020700000000000163,-3.403795387475278
-0.021700000000000053,-3.403795387475278
-0.022700000000000164,-3.447651437771094
-0.023700000000000054,-3.4915074880669104
-0.024700000000000166,-3.5353635383627267
-0.025700000000000056,-3.5353635383627267
-0.026700000000000168,-3.5353635383627267
-0.027700000000000058,-3.623075638954359
-0.02870000000000017,-3.6655169779503103
-0.02970000000000006,-3.7532290785419424
-0.03070000000000017,-3.7532290785419424
-0.03170000000000006,-3.7532290785419424
-0.03270000000000017,-3.7970851288377587
-0.03370000000000006,-3.840941179133574
-0.034700000000000175,-3.840941179133574
-0.035700000000000065,-3.840941179133574
-0.03670000000000018,-3.884797229429391
-0.03770000000000007,-3.927238568425342
-0.03870000000000018,-3.971094618721158
-0.03970000000000007,-4.0588067193127895
-0.04070000000000018,-4.0588067193127895
-0.04170000000000007,-4.0588067193127895
-0.04270000000000018,-4.102662769608606
-0.04370000000000007,-4.146518819904423
-0.044700000000000184,-4.146518819904423
-0.045700000000000074,-4.146518819904423
-0.046700000000000186,-4.146518819904423
-0.047700000000000076,-4.1889601589003735
-0.04870000000000019,-4.276672259492005
-0.04970000000000008,-4.276672259492005
-0.05070000000000019,-4.3205283097878215
-0.05170000000000008,-4.3205283097878215
-0.05270000000000019,-4.406825699079589
-0.05370000000000008,-4.450681749375406
-0.05470000000000019,-4.450681749375406
-0.05570000000000008,-4.450681749375406
-0.056700000000000195,-4.406825699079589
-0.057700000000000085,-4.494537799671222
-0.058700000000000196,-4.538393849967037
-0.059700000000000086,-4.582249900262854
-0.0607000000000002,-4.582249900262854
-0.06170000000000009,-4.626105950558669
-0.0627000000000002,-4.668547289554621
-0.06370000000000009,-4.712403339850438
-0.0647000000000002,-4.712403339850438
-0.06570000000000009,-4.712403339850438
-0.0667000000000002,-4.712403339850438
-0.0677000000000001,-4.756259390146253
-0.0687000000000002,-4.800115440442069
-0.0697000000000001,-4.800115440442069
-0.07070000000000021,-4.756259390146253
-0.0717000000000001,-4.756259390146253
-0.07270000000000021,-4.843971490737885
-0.0737000000000001,-4.9302688800296535
-0.07470000000000021,-4.974124930325469
-0.0757000000000001,-4.974124930325469
-0.07670000000000021,-4.974124930325469
-0.0777000000000001,-4.974124930325469
-0.07870000000000021,-5.017980980621284
-0.0797000000000001,-5.017980980621284
-0.08070000000000022,-4.974124930325469
-0.0817000000000001,-4.974124930325469
-0.08270000000000022,-5.0618370309171015
-0.08370000000000011,-5.191990470504685
-0.08470000000000022,-5.279702571096316
-0.08570000000000011,-5.279702571096316
-0.08670000000000022,-5.279702571096316
-0.08770000000000011,-5.323558621392133
-0.08870000000000022,-5.279702571096316
-0.08970000000000011,-5.279702571096316
-0.09070000000000022,-5.279702571096316
-0.09170000000000011,-5.323558621392133
-0.09270000000000023,-5.367414671687949
-0.09370000000000012,-5.453712060979717
-0.09470000000000023,-5.453712060979717
-0.09570000000000012,-5.411270721983764
-0.09670000000000023,-5.411270721983764
-0.09770000000000012,-5.453712060979717
-0.09870000000000023,-5.5414241615713475
-0.09970000000000012,-5.585280211867165
-0.10070000000000023,-5.585280211867165
-0.10170000000000012,-5.629136262162981
-0.10270000000000024,-5.672992312458796
-0.10370000000000013,-5.672992312458796
-0.10470000000000024,-5.715433651454749
-0.10570000000000013,-5.672992312458796
-0.10670000000000024,-5.629136262162981
-0.10770000000000013,-5.715433651454749
-0.10870000000000024,-5.847001802342197
-0.10970000000000013,-5.890857852638012
-0.11070000000000024,-5.890857852638012
-0.11170000000000013,-5.890857852638012
-0.11270000000000002,-5.890857852638012
-0.11370000000000013,-5.890857852638012
-0.11470000000000002,-5.847001802342197
-0.11570000000000014,-5.847001802342197
-0.11670000000000003,-5.890857852638012
-0.11770000000000014,-6.021011292225596
-0.11870000000000003,-6.152579443113044
-0.11970000000000014,-6.238876832404812
-0.12070000000000003,-6.238876832404812
-0.12170000000000014,-6.196435493408861
-0.12270000000000003,-6.196435493408861
-0.12370000000000014,-6.196435493408861
-0.12470000000000003,-6.238876832404812
-0.12570000000000014,-6.238876832404812
-0.12670000000000003,-6.282732882700628
-0.12770000000000015,-6.37044498329226
-0.12870000000000004,-6.37044498329226
-0.12970000000000015,-6.37044498329226
-0.13070000000000004,-6.326588932996443
-0.13170000000000015,-6.326588932996443
-0.13270000000000004,-6.37044498329226
-0.13370000000000015,-6.458157083883892
-0.13470000000000004,-6.500598422879844
-0.13570000000000015,-6.54445447317566
-0.13670000000000004,-6.588310523471475
-0.13770000000000016,-6.632166573767292
-0.13870000000000005,-6.6760226240631075
-0.13970000000000016,-6.719878674358924
-0.14070000000000005,-6.719878674358924
-0.14170000000000016,-6.762320013354876
-0.14270000000000005,-6.806176063650692
-0.14370000000000016,-6.850032113946507
-0.14470000000000005,-6.850032113946507
-0.14570000000000016,-6.893888164242324
-0.14670000000000005,-6.893888164242324
-0.14770000000000016,-6.93774421453814
-0.14870000000000005,-6.93774421453814
-0.14970000000000017,-6.93774421453814
-0.15070000000000006,-6.93774421453814
-0.15170000000000017,-6.93774421453814
-0.15270000000000006,-7.024041603829907
-0.15370000000000017,-7.155609754717355
-0.15470000000000006,-7.199465805013171
-0.15570000000000017,-7.199465805013171
-0.15670000000000006,-7.199465805013171
-0.15770000000000017,-7.199465805013171
-0.15870000000000006,-7.243321855308987
-0.15970000000000018,-7.28576319430494
-0.16070000000000007,-7.28576319430494
-0.16170000000000018,-7.329619244600755
-0.16270000000000007,-7.461187395488204
-0.16370000000000018,-7.5474847847799715
-0.16470000000000007,-7.50504344578402
-0.16570000000000018,-7.4173313451923875
-0.16670000000000007,-7.4173313451923875
-0.16770000000000018,-7.50504344578402
-0.16870000000000007,-7.591340835075788
-0.16970000000000018,-7.679052935667419
-0.17070000000000007,-7.679052935667419
-0.17170000000000019,-7.722908985963235
-0.17270000000000008,-7.722908985963235
-0.1737000000000002,-7.7653503249591855
-0.17470000000000008,-7.809206375255003
-0.1757000000000002,-7.809206375255003
-0.17670000000000008,-7.853062425550818
-0.1777000000000002,-7.896918475846635
-0.17870000000000008,-7.984630576438266
-0.1797000000000002,-7.984630576438266
-0.18070000000000008,-7.940774526142452
-0.1817000000000002,-7.940774526142452
-0.18270000000000008,-8.027071915434218
-0.1837000000000002,-8.202496116617484
-0.1847000000000001,-8.288793505909249
-0.1857000000000002,-8.332649556205066
-0.1867000000000001,-8.332649556205066
-0.1877000000000002,-8.288793505909249
-0.1887000000000001,-8.202496116617484
-0.1897000000000002,-8.158640066321666
-0.1907000000000001,-8.158640066321666
-0.1917000000000001,-8.246352166913299
-0.19269999999999998,-8.376505606500881
-0.1937000000000001,-8.508073757388331
-0.19469999999999998,-8.594371146680096
-0.1957000000000001,-8.508073757388331
-0.19669999999999999,-8.4203616567967
-0.1977000000000001,-8.376505606500881
-0.1987,-8.464217707092514
-0.1997000000000001,-8.508073757388331
-0.2007,-8.594371146680096
-0.2017000000000001,-8.68208324727173
-0.2027,-8.769795347863363
-0.2037000000000001,-8.769795347863363
-0.2047,-8.725939297567548
-0.2057000000000001,-8.68208324727173
-0.2067,-8.68208324727173
-0.2077000000000001,-8.725939297567548
-0.2087,-8.85609273715513
-0.2097000000000001,-8.899948787450944
-0.2107,-8.899948787450944
-0.2117000000000001,-8.899948787450944
-0.2127,-8.899948787450944
-0.2137000000000001,-8.987660888042578
-0.2147,-9.073958277334345
-0.2157000000000001,-9.073958277334345
-0.2167,-9.073958277334345
-0.21770000000000012,-9.073958277334345
-0.2187,-9.031516938338395
-0.21970000000000012,-8.987660888042578
-0.2207,-8.943804837746763
-0.22170000000000012,-9.031516938338395
-0.2227,-9.11781432763016
-0.22370000000000012,-9.205526428221793
-0.2247,-9.24938247851761
-0.22570000000000012,-9.293238528813426
-0.2267,-9.205526428221793
-0.22770000000000012,-9.205526428221793
-0.22870000000000001,-9.205526428221793
-0.22970000000000013,-9.205526428221793
-0.23070000000000002,-9.11781432763016
-0.23170000000000013,-9.161670377925978
-0.23270000000000002,-9.24938247851761
-0.23370000000000013,-9.335679867809377
-0.23470000000000002,-9.293238528813426
-0.23570000000000013,-9.24938247851761
-0.23670000000000002,-9.24938247851761
-0.2376999999999999,-9.24938247851761
-0.23870000000000002,-9.293238528813426
-0.2396999999999999,-9.293238528813426
-0.24070000000000003,-9.379535918105192
-0.24169999999999991,-9.423391968401008
-0.24270000000000003,-9.423391968401008
-0.24369999999999992,-9.335679867809377
-0.24470000000000003,-9.293238528813426
-0.24569999999999992,-9.205526428221793
-0.24670000000000003,-9.161670377925978
-0.24769999999999992,-9.205526428221793
-0.24870000000000003,-9.293238528813426
-0.24969999999999992,-9.335679867809377
-0.25070000000000003,-9.335679867809377
-0.2516999999999999,-9.335679867809377
-0.25270000000000004,-9.335679867809377
-0.2536999999999999,-9.335679867809377
-0.25470000000000004,-9.335679867809377
-0.2556999999999999,-9.335679867809377
-0.25670000000000004,-9.335679867809377
-0.25769999999999993,-9.335679867809377
-0.25870000000000004,-9.335679867809377
-0.25969999999999993,-9.24938247851761
-0.26070000000000004,-9.161670377925978
-0.26169999999999993,-9.161670377925978
-0.26270000000000004,-9.293238528813426
-0.26369999999999993,-9.379535918105192
-0.26470000000000005,-9.423391968401008
-0.26569999999999994,-9.423391968401008
-0.26670000000000005,-9.379535918105192
-0.26769999999999994,-9.293238528813426
-0.26870000000000005,-9.205526428221793
-0.26969999999999994,-9.11781432763016
-0.27070000000000005,-9.073958277334345
-0.27169999999999994,-9.11781432763016
-0.27270000000000005,-9.24938247851761
-0.27369999999999994,-9.379535918105192
-0.27470000000000006,-9.379535918105192
-0.27569999999999995,-9.335679867809377
-0.27670000000000006,-9.24938247851761
-0.27769999999999995,-9.205526428221793
-0.27870000000000006,-9.161670377925978
-0.27969999999999995,-9.11781432763016
-0.28070000000000006,-9.073958277334345
-0.28169999999999995,-9.11781432763016
-0.28270000000000006,-9.205526428221793
-0.28369999999999995,-9.24938247851761
-0.28470000000000006,-9.24938247851761
-0.28569999999999995,-9.24938247851761
-0.28670000000000007,-9.205526428221793
-0.28769999999999996,-9.161670377925978
-0.28870000000000007,-9.205526428221793
-0.28969999999999996,-9.161670377925978
-0.29070000000000007,-9.11781432763016
-0.29169999999999996,-9.11781432763016
-0.29270000000000007,-9.161670377925978
-0.29369999999999996,-9.205526428221793
-0.2947000000000001,-9.161670377925978
-0.29569999999999996,-9.11781432763016
-0.2967000000000001,-9.11781432763016
-0.29769999999999996,-9.11781432763016
-0.2987000000000001,-9.161670377925978
-0.29969999999999997,-9.161670377925978
-0.3007000000000001,-9.073958277334345
-0.30169999999999997,-9.031516938338395
-0.3027000000000001,-9.073958277334345
-0.30369999999999997,-9.11781432763016
-0.3047000000000001,-9.073958277334345
-0.30569999999999997,-9.073958277334345
-0.3067000000000001,-9.073958277334345
-0.3077,-9.11781432763016
-0.3087000000000001,-9.11781432763016
-0.3097,-9.11781432763016
-0.3107000000000001,-9.073958277334345
-0.3117,-9.073958277334345
-0.3127000000000001,-9.073958277334345
-0.3137,-9.11781432763016
-0.3147000000000001,-9.161670377925978
-0.3157,-9.161670377925978
-0.3167000000000001,-9.161670377925978
-0.3177,-9.161670377925978
-0.3187000000000001,-9.161670377925978
-0.3197,-9.161670377925978
-0.3207000000000001,-9.161670377925978
-0.3217,-9.11781432763016
-0.3227000000000001,-9.161670377925978
-0.3237,-9.205526428221793
-0.3247000000000001,-9.205526428221793
-0.3257,-9.205526428221793
-0.3267000000000001,-9.205526428221793
-0.3277,-9.161670377925978
-0.3287000000000001,-9.161670377925978
-0.3297,-9.11781432763016
-0.3307000000000001,-9.161670377925978
-0.3317,-9.24938247851761
-0.3327000000000001,-9.335679867809377
-0.3337,-9.335679867809377
-0.3347000000000001,-9.293238528813426
-0.3357,-9.24938247851761
-0.3367000000000001,-9.293238528813426
-0.3377,-9.335679867809377
-0.3387000000000001,-9.379535918105192
-0.3397,-9.379535918105192
-0.3407000000000001,-9.293238528813426
-0.3417,-9.335679867809377
-0.3427000000000001,-9.379535918105192
-0.3437,-9.423391968401008
-0.3447000000000001,-9.423391968401008
-0.3457,-9.423391968401008
-0.3467000000000001,-9.511104068992642
-0.3477,-9.55496011928846
-0.3487000000000001,-9.641257508580225
-0.3497,-9.685113558876042
-0.3507000000000001,-9.55496011928846
-0.3517,-9.467248018696827
-0.3527000000000001,-9.59740145828441
-0.3537,-9.81668170976349
-0.3547000000000001,-9.85912304875944
-0.3557,-9.772825659467674
-0.35670000000000013,-9.685113558876042
-0.3577,-9.641257508580225
-0.35870000000000013,-9.55496011928846
-0.3597,-9.511104068992642
-0.36070000000000013,-9.641257508580225
-0.3617,-9.772825659467674
-0.3626999999999999,-9.946835149351072
-0.3637,-9.946835149351072
-0.3646999999999999,-9.81668170976349
-0.3657,-9.772825659467674
-0.3666999999999999,-9.81668170976349
-0.3677,-9.902979099055257
-0.3686999999999999,-9.99069119964689
-0.36970000000000003,-10.078403300238522
-0.3706999999999999,-10.25241279012192
-0.37170000000000003,-10.42642228000532
-0.3726999999999999,-10.514134380596953
-0.37370000000000003,-10.382566229709504
-0.3746999999999999,-10.164700689530287
-0.37570000000000003,-10.078403300238522
-0.3766999999999999,-10.078403300238522
-0.37770000000000004,-10.208556739826104
-0.3786999999999999,-10.296268840417738
-0.37970000000000004,-10.42642228000532
-0.3806999999999999,-10.470278330301136
-0.38170000000000004,-10.514134380596953
-0.38269999999999993,-10.557990430892769
-0.38370000000000004,-10.601846481188586
-0.38469999999999993,-10.644287820184536
-0.38570000000000004,-10.688143870480351
-0.38669999999999993,-10.731999920776168
-0.38770000000000004,-10.731999920776168
-0.38869999999999993,-10.819712021367803
-0.38970000000000005,-10.819712021367803
-0.39069999999999994,-10.819712021367803
-0.39170000000000005,-10.906009410659568
-0.39269999999999994,-11.037577561547016
-0.39370000000000005,-11.123874950838783
-0.39469999999999994,-11.1677310011346
-0.39570000000000005,-11.1677310011346
-0.39669999999999994,-11.211587051430415
-0.39770000000000005,-11.299299152022046
-0.39869999999999994,-11.385596541313816
-0.39970000000000006,-11.473308641905447
-0.40069999999999995,-11.56102074249708
-0.40170000000000006,-11.604876792792895
-0.40269999999999995,-11.647318131788847
-0.40370000000000006,-11.691174182084664
-0.40469999999999995,-11.73503023238048
-0.40570000000000006,-11.691174182084664
-0.40669999999999995,-11.778886282676295
-0.40770000000000006,-11.86659838326793
-0.40869999999999995,-11.952895772559694
-0.40970000000000006,-12.040607873151327
-0.41069999999999995,-12.084463923447142
-0.41170000000000007,-12.170761312738911
-0.41269999999999996,-12.258473413330542
-0.41370000000000007,-12.346185513922174
-0.41469999999999996,-12.476338953509758
-0.41570000000000007,-12.476338953509758
-0.41669999999999996,-12.520195003805576
-0.41770000000000007,-12.694204493688973
-0.41869999999999996,-12.825772644576423
-0.4197000000000001,-12.955926084164007
-0.42069999999999996,-13.087494235051453
-0.4217000000000001,-13.13135028534727
-0.42269999999999996,-13.13135028534727
-0.4237000000000001,-13.087494235051453
-0.42469999999999997,-13.217647674639037
-0.4257000000000001,-13.349215825526485
-0.42669999999999997,-13.523225315409885
-0.4277000000000001,-13.828802956180734
-0.42869999999999997,-14.002812446064135
-0.4297000000000001,-14.090524546655764
-0.43069999999999997,-14.090524546655764
-0.4317000000000001,-14.13438059695158
-0.4327,-14.26028990263957
-0.4337000000000001,-14.486643710617974
-0.4347,-14.65640906660178
-0.4357000000000001,-14.741291744593681
-0.4367,-14.783733083589633
-0.4377000000000001,-14.826174422585586
-0.4387,-14.967645552572087
-0.4397000000000001,-15.05252823056399
-0.4407,-15.179852247551842
-0.4417000000000001,-15.3920589425316
-0.4427,-15.660854089505953
-0.4437000000000001,-15.830619445489761
-0.4447,-15.972090575476265
-0.4457000000000001,-16.014531914472215
-0.4467,-16.141855931460068
-0.4477000000000001,-16.22673860945197
-0.4487,-16.354062626439823
-0.4497000000000001,-16.53797509542228
-0.4507,-16.70774045140608
-0.4517000000000001,-16.962388485381787
-0.4527,-17.146300954364243
-0.4537000000000001,-17.316066310348052
-0.4547,-17.4433903273359
-0.4557000000000001,-17.627302796318357
-0.4567,-17.71218547431026
-0.4577000000000001,-17.881950830294063
-0.4587,-18.10830463827247
-0.4597000000000001,-18.19318731626437
-0.4607,-18.362952672248177
-0.4617000000000001,-18.53271802823198
-0.4627,-18.759071836210385
-0.4637000000000001,-18.97127853119014
-0.4647,-19.197632339168546
-0.4657000000000001,-19.409839034148305
-0.4667,-19.537163051136158
-0.4677000000000001,-19.763516859114564
-0.4687,-20.01816489309027
-0.4697000000000001,-20.329401379060574
-0.4707,-20.499166735044383
-0.4717000000000001,-20.683079204026836
-0.4727,-20.85284456001064
-0.4737000000000001,-21.149933932982297
-0.4747,-21.376287740960702
-0.4757000000000001,-21.54605309694451
-0.4767,-21.772406904922917
-0.4777000000000001,-22.027054938898623
-0.4787,-22.253408746877028
-0.4797000000000001,-22.42317410286083
-0.4807,-22.63538079784059
-0.48170000000000013,-22.946617283810895
-0.4827,-23.2012653177866
-0.48370000000000013,-23.55494314275286
-0.4847,-23.908620967719123
-0.48570000000000013,-24.20571034069078
-0.4867,-24.389622809673234
-0.4876999999999999,-24.601829504652986
-0.4887,-24.870624651627345
-0.4896999999999999,-25.12527268560305
-0.4907,-25.39406783257741
-0.4916999999999999,-25.648715866553115
-0.4927,-25.959952352523427
-0.4936999999999999,-26.257041725495082
-0.49470000000000003,-26.61071955046134
-0.4956999999999999,-26.907808923433
-0.49670000000000003,-27.176604070407354
-0.4976999999999999,-27.487840556377662
-0.49870000000000003,-27.827371268345274
-0.4996999999999999,-28.22349043230748
-0.5007,-28.53472691827779
-0.5016999999999999,-28.831816291249446
-0.5027,-29.14305277721976
-0.5036999999999999,-29.35525947219951
-0.5047,-29.62405461917387
-0.5056999999999999,-29.96358533114148
-0.5067,-30.274821817111786
-0.5076999999999999,-30.71338232006995
-0.5087,-31.095354371033505
-0.5096999999999999,-31.40659085700382
-0.5107,-31.57635621298762
-0.5116999999999999,-31.887592698957924
