Sept. 14, 2024   20:44:49
Linear Sweep Voltammetry
File: c:/users/guazh/data/20240903_batch_252_500/2024-09-03-exp354\post-regen1-2024-09-14t20_41_38-lsvinphos\post-regen1_lsv_50mvs_efin_-2300mv.bin
Data Source:  Experiment
Instrument Model:  CHI760E
Header: LSV ran at 50 mVs with Efin at -2300mV
Note: 

Init E (V) = -0.6
Final E (V) = -2.3
Scan Rate (V/s) = 0.05
Sample Interval (V) = 0.001
Quiet Time (sec) = 2
Sensitivity (A/V) = 1e-4
Comp R (ohm) = 12.8

Results:

Channel 1:
Ep = -1.780V
ip = 7.556e-4A
Ah = 9.044e-4C

Potential/V, Current/A

-0.600, 9.475e-6
-0.601, 9.598e-6
-0.602, 9.643e-6
-0.603, 9.673e-6
-0.604, 9.699e-6
-0.605, 9.721e-6
-0.606, 9.743e-6
-0.607, 9.761e-6
-0.608, 9.783e-6
-0.609, 9.800e-6
-0.610, 9.812e-6
-0.611, 9.826e-6
-0.612, 9.839e-6
-0.613, 9.850e-6
-0.614, 9.863e-6
-0.615, 9.875e-6
-0.616, 9.888e-6
-0.617, 9.901e-6
-0.618, 9.910e-6
-0.619, 9.922e-6
-0.620, 9.931e-6
-0.621, 9.943e-6
-0.622, 9.953e-6
-0.623, 9.965e-6
-0.624, 9.973e-6
-0.625, 9.981e-6
-0.626, 9.993e-6
-0.627, 1.000e-5
-0.628, 1.001e-5
-0.629, 1.001e-5
-0.630, 1.002e-5
-0.631, 1.002e-5
-0.632, 1.003e-5
-0.633, 1.003e-5
-0.634, 1.004e-5
-0.635, 1.004e-5
-0.636, 1.004e-5
-0.637, 1.004e-5
-0.638, 1.005e-5
-0.639, 1.005e-5
-0.640, 1.006e-5
-0.641, 1.006e-5
-0.642, 1.006e-5
-0.643, 1.006e-5
-0.644, 1.006e-5
-0.645, 1.006e-5
-0.646, 1.006e-5
-0.647, 1.006e-5
-0.648, 1.006e-5
-0.649, 1.007e-5
-0.650, 1.007e-5
-0.651, 1.007e-5
-0.652, 1.007e-5
-0.653, 1.007e-5
-0.654, 1.007e-5
-0.655, 1.007e-5
-0.656, 1.007e-5
-0.657, 1.007e-5
-0.658, 1.007e-5
-0.659, 1.007e-5
-0.660, 1.007e-5
-0.661, 1.007e-5
-0.662, 1.007e-5
-0.663, 1.007e-5
-0.664, 1.007e-5
-0.665, 1.007e-5
-0.666, 1.007e-5
-0.667, 1.007e-5
-0.668, 1.007e-5
-0.669, 1.007e-5
-0.670, 1.006e-5
-0.671, 1.006e-5
-0.672, 1.006e-5
-0.673, 1.006e-5
-0.674, 1.006e-5
-0.675, 1.006e-5
-0.676, 1.006e-5
-0.677, 1.005e-5
-0.678, 1.005e-5
-0.679, 1.005e-5
-0.680, 1.005e-5
-0.681, 1.005e-5
-0.682, 1.004e-5
-0.683, 1.004e-5
-0.684, 1.004e-5
-0.685, 1.004e-5
-0.686, 1.004e-5
-0.687, 1.004e-5
-0.688, 1.003e-5
-0.689, 1.003e-5
-0.690, 1.003e-5
-0.691, 1.003e-5
-0.692, 1.002e-5
-0.693, 1.002e-5
-0.694, 1.002e-5
-0.695, 1.001e-5
-0.696, 1.001e-5
-0.697, 1.001e-5
-0.698, 1.001e-5
-0.699, 1.000e-5
-0.700, 1.000e-5
-0.701, 9.996e-6
-0.702, 9.993e-6
-0.703, 9.985e-6
-0.704, 9.984e-6
-0.705, 9.979e-6
-0.706, 9.973e-6
-0.707, 9.970e-6
-0.708, 9.965e-6
-0.709, 9.966e-6
-0.710, 9.963e-6
-0.711, 9.960e-6
-0.712, 9.957e-6
-0.713, 9.952e-6
-0.714, 9.946e-6
-0.715, 9.942e-6
-0.716, 9.937e-6
-0.717, 9.934e-6
-0.718, 9.932e-6
-0.719, 9.929e-6
-0.720, 9.928e-6
-0.721, 9.927e-6
-0.722, 9.919e-6
-0.723, 9.917e-6
-0.724, 9.915e-6
-0.725, 9.913e-6
-0.726, 9.913e-6
-0.727, 9.909e-6
-0.728, 9.904e-6
-0.729, 9.900e-6
-0.730, 9.898e-6
-0.731, 9.897e-6
-0.732, 9.893e-6
-0.733, 9.891e-6
-0.734, 9.890e-6
-0.735, 9.888e-6
-0.736, 9.889e-6
-0.737, 9.885e-6
-0.738, 9.886e-6
-0.739, 9.885e-6
-0.740, 9.884e-6
-0.741, 9.884e-6
-0.742, 9.884e-6
-0.743, 9.886e-6
-0.744, 9.886e-6
-0.745, 9.887e-6
-0.746, 9.884e-6
-0.747, 9.880e-6
-0.748, 9.880e-6
-0.749, 9.880e-6
-0.750, 9.882e-6
-0.751, 9.881e-6
-0.752, 9.881e-6
-0.753, 9.884e-6
-0.754, 9.883e-6
-0.755, 9.884e-6
-0.756, 9.882e-6
-0.757, 9.881e-6
-0.758, 9.883e-6
-0.759, 9.886e-6
-0.760, 9.887e-6
-0.761, 9.889e-6
-0.762, 9.889e-6
-0.763, 9.891e-6
-0.764, 9.892e-6
-0.765, 9.896e-6
-0.766, 9.897e-6
-0.767, 9.896e-6
-0.768, 9.903e-6
-0.769, 9.907e-6
-0.770, 9.906e-6
-0.771, 9.913e-6
-0.772, 9.912e-6
-0.773, 9.914e-6
-0.774, 9.916e-6
-0.775, 9.920e-6
-0.776, 9.922e-6
-0.777, 9.925e-6
-0.778, 9.927e-6
-0.779, 9.931e-6
-0.780, 9.936e-6
-0.781, 9.942e-6
-0.782, 9.944e-6
-0.783, 9.949e-6
-0.784, 9.950e-6
-0.785, 9.956e-6
-0.786, 9.959e-6
-0.787, 9.967e-6
-0.788, 9.973e-6
-0.789, 9.975e-6
-0.790, 9.983e-6
-0.791, 9.989e-6
-0.792, 9.993e-6
-0.793, 9.997e-6
-0.794, 1.000e-5
-0.795, 1.000e-5
-0.796, 1.001e-5
-0.797, 1.001e-5
-0.798, 1.002e-5
-0.799, 1.002e-5
-0.800, 1.003e-5
-0.801, 1.003e-5
-0.802, 1.003e-5
-0.803, 1.004e-5
-0.804, 1.005e-5
-0.805, 1.005e-5
-0.806, 1.005e-5
-0.807, 1.005e-5
-0.808, 1.006e-5
-0.809, 1.007e-5
-0.810, 1.007e-5
-0.811, 1.007e-5
-0.812, 1.008e-5
-0.813, 1.008e-5
-0.814, 1.009e-5
-0.815, 1.009e-5
-0.816, 1.010e-5
-0.817, 1.010e-5
-0.818, 1.010e-5
-0.819, 1.011e-5
-0.820, 1.012e-5
-0.821, 1.012e-5
-0.822, 1.012e-5
-0.823, 1.013e-5
-0.824, 1.013e-5
-0.825, 1.013e-5
-0.826, 1.014e-5
-0.827, 1.014e-5
-0.828, 1.015e-5
-0.829, 1.015e-5
-0.830, 1.016e-5
-0.831, 1.016e-5
-0.832, 1.016e-5
-0.833, 1.017e-5
-0.834, 1.017e-5
-0.835, 1.017e-5
-0.836, 1.017e-5
-0.837, 1.018e-5
-0.838, 1.018e-5
-0.839, 1.018e-5
-0.840, 1.019e-5
-0.841, 1.019e-5
-0.842, 1.019e-5
-0.843, 1.020e-5
-0.844, 1.020e-5
-0.845, 1.021e-5
-0.846, 1.021e-5
-0.847, 1.021e-5
-0.848, 1.022e-5
-0.849, 1.022e-5
-0.850, 1.022e-5
-0.851, 1.023e-5
-0.852, 1.023e-5
-0.853, 1.024e-5
-0.854, 1.024e-5
-0.855, 1.025e-5
-0.856, 1.025e-5
-0.857, 1.026e-5
-0.858, 1.026e-5
-0.859, 1.027e-5
-0.860, 1.027e-5
-0.861, 1.028e-5
-0.862, 1.029e-5
-0.863, 1.029e-5
-0.864, 1.029e-5
-0.865, 1.030e-5
-0.866, 1.031e-5
-0.867, 1.031e-5
-0.868, 1.031e-5
-0.869, 1.031e-5
-0.870, 1.032e-5
-0.871, 1.033e-5
-0.872, 1.033e-5
-0.873, 1.033e-5
-0.874, 1.034e-5
-0.875, 1.034e-5
-0.876, 1.035e-5
-0.877, 1.035e-5
-0.878, 1.036e-5
-0.879, 1.036e-5
-0.880, 1.036e-5
-0.881, 1.037e-5
-0.882, 1.038e-5
-0.883, 1.038e-5
-0.884, 1.039e-5
-0.885, 1.039e-5
-0.886, 1.040e-5
-0.887, 1.040e-5
-0.888, 1.041e-5
-0.889, 1.042e-5
-0.890, 1.042e-5
-0.891, 1.043e-5
-0.892, 1.044e-5
-0.893, 1.044e-5
-0.894, 1.045e-5
-0.895, 1.046e-5
-0.896, 1.047e-5
-0.897, 1.048e-5
-0.898, 1.048e-5
-0.899, 1.049e-5
-0.900, 1.050e-5
-0.901, 1.051e-5
-0.902, 1.052e-5
-0.903, 1.052e-5
-0.904, 1.053e-5
-0.905, 1.054e-5
-0.906, 1.055e-5
-0.907, 1.056e-5
-0.908, 1.058e-5
-0.909, 1.059e-5
-0.910, 1.059e-5
-0.911, 1.060e-5
-0.912, 1.061e-5
-0.913, 1.063e-5
-0.914, 1.064e-5
-0.915, 1.065e-5
-0.916, 1.066e-5
-0.917, 1.068e-5
-0.918, 1.069e-5
-0.919, 1.070e-5
-0.920, 1.072e-5
-0.921, 1.073e-5
-0.922, 1.075e-5
-0.923, 1.077e-5
-0.924, 1.078e-5
-0.925, 1.079e-5
-0.926, 1.081e-5
-0.927, 1.083e-5
-0.928, 1.084e-5
-0.929, 1.086e-5
-0.930, 1.088e-5
-0.931, 1.089e-5
-0.932, 1.091e-5
-0.933, 1.093e-5
-0.934, 1.096e-5
-0.935, 1.103e-5
-0.936, 1.104e-5
-0.937, 1.104e-5
-0.938, 1.105e-5
-0.939, 1.107e-5
-0.940, 1.109e-5
-0.941, 1.111e-5
-0.942, 1.112e-5
-0.943, 1.114e-5
-0.944, 1.117e-5
-0.945, 1.119e-5
-0.946, 1.121e-5
-0.947, 1.123e-5
-0.948, 1.124e-5
-0.949, 1.127e-5
-0.950, 1.129e-5
-0.951, 1.131e-5
-0.952, 1.134e-5
-0.953, 1.137e-5
-0.954, 1.139e-5
-0.955, 1.142e-5
-0.956, 1.144e-5
-0.957, 1.147e-5
-0.958, 1.151e-5
-0.959, 1.153e-5
-0.960, 1.156e-5
-0.961, 1.159e-5
-0.962, 1.162e-5
-0.963, 1.165e-5
-0.964, 1.168e-5
-0.965, 1.171e-5
-0.966, 1.174e-5
-0.967, 1.177e-5
-0.968, 1.180e-5
-0.969, 1.183e-5
-0.970, 1.186e-5
-0.971, 1.189e-5
-0.972, 1.193e-5
-0.973, 1.197e-5
-0.974, 1.199e-5
-0.975, 1.202e-5
-0.976, 1.206e-5
-0.977, 1.208e-5
-0.978, 1.211e-5
-0.979, 1.215e-5
-0.980, 1.219e-5
-0.981, 1.222e-5
-0.982, 1.226e-5
-0.983, 1.230e-5
-0.984, 1.233e-5
-0.985, 1.237e-5
-0.986, 1.240e-5
-0.987, 1.244e-5
-0.988, 1.248e-5
-0.989, 1.252e-5
-0.990, 1.256e-5
-0.991, 1.261e-5
-0.992, 1.265e-5
-0.993, 1.271e-5
-0.994, 1.275e-5
-0.995, 1.278e-5
-0.996, 1.282e-5
-0.997, 1.286e-5
-0.998, 1.290e-5
-0.999, 1.293e-5
-1.000, 1.297e-5
-1.001, 1.301e-5
-1.002, 1.306e-5
-1.003, 1.310e-5
-1.004, 1.313e-5
-1.005, 1.317e-5
-1.006, 1.322e-5
-1.007, 1.326e-5
-1.008, 1.330e-5
-1.009, 1.334e-5
-1.010, 1.338e-5
-1.011, 1.342e-5
-1.012, 1.346e-5
-1.013, 1.351e-5
-1.014, 1.355e-5
-1.015, 1.358e-5
-1.016, 1.363e-5
-1.017, 1.367e-5
-1.018, 1.369e-5
-1.019, 1.373e-5
-1.020, 1.377e-5
-1.021, 1.381e-5
-1.022, 1.384e-5
-1.023, 1.388e-5
-1.024, 1.392e-5
-1.025, 1.395e-5
-1.026, 1.397e-5
-1.027, 1.400e-5
-1.028, 1.404e-5
-1.029, 1.408e-5
-1.030, 1.412e-5
-1.031, 1.415e-5
-1.032, 1.419e-5
-1.033, 1.423e-5
-1.034, 1.425e-5
-1.035, 1.429e-5
-1.036, 1.434e-5
-1.037, 1.438e-5
-1.038, 1.442e-5
-1.039, 1.447e-5
-1.040, 1.450e-5
-1.041, 1.452e-5
-1.042, 1.456e-5
-1.043, 1.460e-5
-1.044, 1.463e-5
-1.045, 1.468e-5
-1.046, 1.471e-5
-1.047, 1.473e-5
-1.048, 1.476e-5
-1.049, 1.478e-5
-1.050, 1.480e-5
-1.051, 1.483e-5
-1.052, 1.486e-5
-1.053, 1.492e-5
-1.054, 1.496e-5
-1.055, 1.498e-5
-1.056, 1.499e-5
-1.057, 1.502e-5
-1.058, 1.506e-5
-1.059, 1.509e-5
-1.060, 1.512e-5
-1.061, 1.515e-5
-1.062, 1.517e-5
-1.063, 1.521e-5
-1.064, 1.526e-5
-1.065, 1.528e-5
-1.066, 1.534e-5
-1.067, 1.537e-5
-1.068, 1.536e-5
-1.069, 1.540e-5
-1.070, 1.544e-5
-1.071, 1.548e-5
-1.072, 1.552e-5
-1.073, 1.557e-5
-1.074, 1.559e-5
-1.075, 1.560e-5
-1.076, 1.564e-5
-1.077, 1.569e-5
-1.078, 1.572e-5
-1.079, 1.575e-5
-1.080, 1.577e-5
-1.081, 1.579e-5
-1.082, 1.581e-5
-1.083, 1.585e-5
-1.084, 1.587e-5
-1.085, 1.593e-5
-1.086, 1.596e-5
-1.087, 1.600e-5
-1.088, 1.603e-5
-1.089, 1.609e-5
-1.090, 1.617e-5
-1.091, 1.617e-5
-1.092, 1.615e-5
-1.093, 1.616e-5
-1.094, 1.619e-5
-1.095, 1.622e-5
-1.096, 1.626e-5
-1.097, 1.631e-5
-1.098, 1.634e-5
-1.099, 1.638e-5
-1.100, 1.641e-5
-1.101, 1.643e-5
-1.102, 1.647e-5
-1.103, 1.652e-5
-1.104, 1.656e-5
-1.105, 1.658e-5
-1.106, 1.660e-5
-1.107, 1.662e-5
-1.108, 1.667e-5
-1.109, 1.671e-5
-1.110, 1.673e-5
-1.111, 1.677e-5
-1.112, 1.681e-5
-1.113, 1.686e-5
-1.114, 1.690e-5
-1.115, 1.694e-5
-1.116, 1.698e-5
-1.117, 1.703e-5
-1.118, 1.707e-5
-1.119, 1.711e-5
-1.120, 1.715e-5
-1.121, 1.720e-5
-1.122, 1.724e-5
-1.123, 1.728e-5
-1.124, 1.733e-5
-1.125, 1.737e-5
-1.126, 1.739e-5
-1.127, 1.744e-5
-1.128, 1.747e-5
-1.129, 1.752e-5
-1.130, 1.758e-5
-1.131, 1.764e-5
-1.132, 1.768e-5
-1.133, 1.771e-5
-1.134, 1.775e-5
-1.135, 1.779e-5
-1.136, 1.784e-5
-1.137, 1.790e-5
-1.138, 1.796e-5
-1.139, 1.801e-5
-1.140, 1.808e-5
-1.141, 1.814e-5
-1.142, 1.818e-5
-1.143, 1.823e-5
-1.144, 1.828e-5
-1.145, 1.833e-5
-1.146, 1.841e-5
-1.147, 1.853e-5
-1.148, 1.858e-5
-1.149, 1.857e-5
-1.150, 1.860e-5
-1.151, 1.866e-5
-1.152, 1.869e-5
-1.153, 1.873e-5
-1.154, 1.880e-5
-1.155, 1.886e-5
-1.156, 1.893e-5
-1.157, 1.903e-5
-1.158, 1.913e-5
-1.159, 1.914e-5
-1.160, 1.916e-5
-1.161, 1.920e-5
-1.162, 1.922e-5
-1.163, 1.928e-5
-1.164, 1.935e-5
-1.165, 1.943e-5
-1.166, 1.949e-5
-1.167, 1.956e-5
-1.168, 1.962e-5
-1.169, 1.970e-5
-1.170, 1.977e-5
-1.171, 1.987e-5
-1.172, 1.999e-5
-1.173, 2.001e-5
-1.174, 2.004e-5
-1.175, 2.008e-5
-1.176, 2.014e-5
-1.177, 2.024e-5
-1.178, 2.032e-5
-1.179, 2.039e-5
-1.180, 2.047e-5
-1.181, 2.055e-5
-1.182, 2.060e-5
-1.183, 2.065e-5
-1.184, 2.071e-5
-1.185, 2.085e-5
-1.186, 2.091e-5
-1.187, 2.096e-5
-1.188, 2.103e-5
-1.189, 2.115e-5
-1.190, 2.122e-5
-1.191, 2.134e-5
-1.192, 2.139e-5
-1.193, 2.148e-5
-1.194, 2.151e-5
-1.195, 2.154e-5
-1.196, 2.160e-5
-1.197, 2.168e-5
-1.198, 2.177e-5
-1.199, 2.187e-5
-1.200, 2.197e-5
-1.201, 2.205e-5
-1.202, 2.211e-5
-1.203, 2.218e-5
-1.204, 2.227e-5
-1.205, 2.238e-5
-1.206, 2.249e-5
-1.207, 2.256e-5
-1.208, 2.264e-5
-1.209, 2.274e-5
-1.210, 2.284e-5
-1.211, 2.289e-5
-1.212, 2.298e-5
-1.213, 2.309e-5
-1.214, 2.317e-5
-1.215, 2.326e-5
-1.216, 2.333e-5
-1.217, 2.343e-5
-1.218, 2.355e-5
-1.219, 2.362e-5
-1.220, 2.371e-5
-1.221, 2.378e-5
-1.222, 2.383e-5
-1.223, 2.391e-5
-1.224, 2.400e-5
-1.225, 2.407e-5
-1.226, 2.414e-5
-1.227, 2.423e-5
-1.228, 2.431e-5
-1.229, 2.443e-5
-1.230, 2.452e-5
-1.231, 2.460e-5
-1.232, 2.469e-5
-1.233, 2.476e-5
-1.234, 2.485e-5
-1.235, 2.490e-5
-1.236, 2.499e-5
-1.237, 2.506e-5
-1.238, 2.516e-5
-1.239, 2.526e-5
-1.240, 2.536e-5
-1.241, 2.541e-5
-1.242, 2.549e-5
-1.243, 2.558e-5
-1.244, 2.566e-5
-1.245, 2.576e-5
-1.246, 2.587e-5
-1.247, 2.591e-5
-1.248, 2.596e-5
-1.249, 2.606e-5
-1.250, 2.611e-5
-1.251, 2.615e-5
-1.252, 2.620e-5
-1.253, 2.627e-5
-1.254, 2.635e-5
-1.255, 2.641e-5
-1.256, 2.648e-5
-1.257, 2.652e-5
-1.258, 2.655e-5
-1.259, 2.659e-5
-1.260, 2.665e-5
-1.261, 2.670e-5
-1.262, 2.674e-5
-1.263, 2.680e-5
-1.264, 2.682e-5
-1.265, 2.684e-5
-1.266, 2.688e-5
-1.267, 2.693e-5
-1.268, 2.695e-5
-1.269, 2.696e-5
-1.270, 2.698e-5
-1.271, 2.700e-5
-1.272, 2.701e-5
-1.273, 2.702e-5
-1.274, 2.703e-5
-1.275, 2.706e-5
-1.276, 2.707e-5
-1.277, 2.709e-5
-1.278, 2.708e-5
-1.279, 2.706e-5
-1.280, 2.704e-5
-1.281, 2.704e-5
-1.282, 2.707e-5
-1.283, 2.706e-5
-1.284, 2.704e-5
-1.285, 2.704e-5
-1.286, 2.703e-5
-1.287, 2.701e-5
-1.288, 2.703e-5
-1.289, 2.704e-5
-1.290, 2.702e-5
-1.291, 2.698e-5
-1.292, 2.698e-5
-1.293, 2.699e-5
-1.294, 2.698e-5
-1.295, 2.697e-5
-1.296, 2.699e-5
-1.297, 2.703e-5
-1.298, 2.704e-5
-1.299, 2.704e-5
-1.300, 2.709e-5
-1.301, 2.713e-5
-1.302, 2.718e-5
-1.303, 2.720e-5
-1.304, 2.718e-5
-1.305, 2.722e-5
-1.306, 2.726e-5
-1.307, 2.730e-5
-1.308, 2.732e-5
-1.309, 2.731e-5
-1.310, 2.730e-5
-1.311, 2.734e-5
-1.312, 2.742e-5
-1.313, 2.748e-5
-1.314, 2.752e-5
-1.315, 2.761e-5
-1.316, 2.765e-5
-1.317, 2.763e-5
-1.318, 2.764e-5
-1.319, 2.768e-5
-1.320, 2.774e-5
-1.321, 2.783e-5
-1.322, 2.790e-5
-1.323, 2.798e-5
-1.324, 2.806e-5
-1.325, 2.809e-5
-1.326, 2.814e-5
-1.327, 2.819e-5
-1.328, 2.828e-5
-1.329, 2.832e-5
-1.330, 2.839e-5
-1.331, 2.846e-5
-1.332, 2.857e-5
-1.333, 2.868e-5
-1.334, 2.876e-5
-1.335, 2.876e-5
-1.336, 2.881e-5
-1.337, 2.888e-5
-1.338, 2.893e-5
-1.339, 2.899e-5
-1.340, 2.908e-5
-1.341, 2.913e-5
-1.342, 2.915e-5
-1.343, 2.922e-5
-1.344, 2.929e-5
-1.345, 2.934e-5
-1.346, 2.941e-5
-1.347, 2.952e-5
-1.348, 2.961e-5
-1.349, 2.970e-5
-1.350, 2.977e-5
-1.351, 2.982e-5
-1.352, 2.997e-5
-1.353, 3.010e-5
-1.354, 3.014e-5
-1.355, 3.013e-5
-1.356, 3.015e-5
-1.357, 3.019e-5
-1.358, 3.026e-5
-1.359, 3.030e-5
-1.360, 3.041e-5
-1.361, 3.047e-5
-1.362, 3.052e-5
-1.363, 3.055e-5
-1.364, 3.064e-5
-1.365, 3.077e-5
-1.366, 3.085e-5
-1.367, 3.090e-5
-1.368, 3.098e-5
-1.369, 3.105e-5
-1.370, 3.113e-5
-1.371, 3.119e-5
-1.372, 3.128e-5
-1.373, 3.139e-5
-1.374, 3.148e-5
-1.375, 3.158e-5
-1.376, 3.163e-5
-1.377, 3.167e-5
-1.378, 3.173e-5
-1.379, 3.179e-5
-1.380, 3.184e-5
-1.381, 3.189e-5
-1.382, 3.196e-5
-1.383, 3.205e-5
-1.384, 3.211e-5
-1.385, 3.223e-5
-1.386, 3.235e-5
-1.387, 3.239e-5
-1.388, 3.250e-5
-1.389, 3.259e-5
-1.390, 3.265e-5
-1.391, 3.276e-5
-1.392, 3.286e-5
-1.393, 3.292e-5
-1.394, 3.298e-5
-1.395, 3.305e-5
-1.396, 3.316e-5
-1.397, 3.330e-5
-1.398, 3.342e-5
-1.399, 3.355e-5
-1.400, 3.364e-5
-1.401, 3.374e-5
-1.402, 3.383e-5
-1.403, 3.397e-5
-1.404, 3.411e-5
-1.405, 3.423e-5
-1.406, 3.436e-5
-1.407, 3.449e-5
-1.408, 3.462e-5
-1.409, 3.471e-5
-1.410, 3.489e-5
-1.411, 3.503e-5
-1.412, 3.517e-5
-1.413, 3.534e-5
-1.414, 3.544e-5
-1.415, 3.553e-5
-1.416, 3.571e-5
-1.417, 3.587e-5
-1.418, 3.596e-5
-1.419, 3.608e-5
-1.420, 3.620e-5
-1.421, 3.634e-5
-1.422, 3.649e-5
-1.423, 3.665e-5
-1.424, 3.685e-5
-1.425, 3.710e-5
-1.426, 3.736e-5
-1.427, 3.753e-5
-1.428, 3.766e-5
-1.429, 3.778e-5
-1.430, 3.798e-5
-1.431, 3.817e-5
-1.432, 3.828e-5
-1.433, 3.849e-5
-1.434, 3.868e-5
-1.435, 3.880e-5
-1.436, 3.896e-5
-1.437, 3.911e-5
-1.438, 3.927e-5
-1.439, 3.948e-5
-1.440, 3.971e-5
-1.441, 3.987e-5
-1.442, 4.016e-5
-1.443, 4.063e-5
-1.444, 4.094e-5
-1.445, 4.105e-5
-1.446, 4.106e-5
-1.447, 4.115e-5
-1.448, 4.125e-5
-1.449, 4.138e-5
-1.450, 4.158e-5
-1.451, 4.172e-5
-1.452, 4.185e-5
-1.453, 4.205e-5
-1.454, 4.232e-5
-1.455, 4.249e-5
-1.456, 4.266e-5
-1.457, 4.279e-5
-1.458, 4.297e-5
-1.459, 4.325e-5
-1.460, 4.355e-5
-1.461, 4.383e-5
-1.462, 4.409e-5
-1.463, 4.438e-5
-1.464, 4.465e-5
-1.465, 4.502e-5
-1.466, 4.533e-5
-1.467, 4.558e-5
-1.468, 4.587e-5
-1.469, 4.600e-5
-1.470, 4.613e-5
-1.471, 4.634e-5
-1.472, 4.667e-5
-1.473, 4.702e-5
-1.474, 4.722e-5
-1.475, 4.736e-5
-1.476, 4.763e-5
-1.477, 4.800e-5
-1.478, 4.831e-5
-1.479, 4.856e-5
-1.480, 4.883e-5
-1.481, 4.919e-5
-1.482, 4.949e-5
-1.483, 4.982e-5
-1.484, 5.014e-5
-1.485, 5.052e-5
-1.486, 5.089e-5
-1.487, 5.123e-5
-1.488, 5.155e-5
-1.489, 5.197e-5
-1.490, 5.230e-5
-1.491, 5.257e-5
-1.492, 5.288e-5
-1.493, 5.323e-5
-1.494, 5.357e-5
-1.495, 5.393e-5
-1.496, 5.430e-5
-1.497, 5.469e-5
-1.498, 5.503e-5
-1.499, 5.531e-5
-1.500, 5.569e-5
-1.501, 5.609e-5
-1.502, 5.638e-5
-1.503, 5.670e-5
-1.504, 5.707e-5
-1.505, 5.736e-5
-1.506, 5.770e-5
-1.507, 5.809e-5
-1.508, 5.846e-5
-1.509, 5.888e-5
-1.510, 5.936e-5
-1.511, 5.985e-5
-1.512, 6.035e-5
-1.513, 6.086e-5
-1.514, 6.134e-5
-1.515, 6.185e-5
-1.516, 6.230e-5
-1.517, 6.276e-5
-1.518, 6.318e-5
-1.519, 6.368e-5
-1.520, 6.423e-5
-1.521, 6.470e-5
-1.522, 6.524e-5
-1.523, 6.585e-5
-1.524, 6.645e-5
-1.525, 6.697e-5
-1.526, 6.746e-5
-1.527, 6.803e-5
-1.528, 6.866e-5
-1.529, 6.921e-5
-1.530, 6.971e-5
-1.531, 7.027e-5
-1.532, 7.084e-5
-1.533, 7.135e-5
-1.534, 7.197e-5
-1.535, 7.258e-5
-1.536, 7.321e-5
-1.537, 7.388e-5
-1.538, 7.451e-5
-1.539, 7.510e-5
-1.540, 7.576e-5
-1.541, 7.649e-5
-1.542, 7.723e-5
-1.543, 7.796e-5
-1.544, 7.866e-5
-1.545, 7.938e-5
-1.546, 8.004e-5
-1.547, 8.073e-5
-1.548, 8.143e-5
-1.549, 8.219e-5
-1.550, 8.296e-5
-1.551, 8.373e-5
-1.552, 8.446e-5
-1.553, 8.524e-5
-1.554, 8.606e-5
-1.555, 8.682e-5
-1.556, 8.761e-5
-1.557, 8.842e-5
-1.558, 8.926e-5
-1.559, 9.008e-5
-1.560, 9.088e-5
-1.561, 9.176e-5
-1.562, 9.273e-5
-1.563, 9.355e-5
-1.564, 9.435e-5
-1.565, 9.519e-5
-1.566, 9.628e-5
-1.567, 9.738e-5
-1.568, 9.846e-5
-1.569, 9.943e-5
-1.570, 1.004e-4
-1.571, 1.014e-4
-1.572, 1.025e-4
-1.573, 1.038e-4
-1.574, 1.053e-4
-1.575, 1.067e-4
-1.576, 1.081e-4
-1.577, 1.096e-4
-1.578, 1.116e-4
-1.579, 1.132e-4
-1.580, 1.147e-4
-1.581, 1.161e-4
-1.582, 1.176e-4
-1.583, 1.190e-4
-1.584, 1.203e-4
-1.585, 1.213e-4
-1.586, 1.224e-4
-1.587, 1.234e-4
-1.588, 1.244e-4
-1.589, 1.255e-4
-1.590, 1.265e-4
-1.591, 1.276e-4
-1.592, 1.287e-4
-1.593, 1.298e-4
-1.594, 1.309e-4
-1.595, 1.320e-4
-1.596, 1.332e-4
-1.597, 1.344e-4
-1.598, 1.356e-4
-1.599, 1.368e-4
-1.600, 1.379e-4
-1.601, 1.389e-4
-1.602, 1.401e-4
-1.603, 1.412e-4
-1.604, 1.422e-4
-1.605, 1.434e-4
-1.606, 1.445e-4
-1.607, 1.456e-4
-1.608, 1.468e-4
-1.609, 1.478e-4
-1.610, 1.487e-4
-1.611, 1.497e-4
-1.612, 1.506e-4
-1.613, 1.516e-4
-1.614, 1.526e-4
-1.615, 1.539e-4
-1.616, 1.551e-4
-1.617, 1.564e-4
-1.618, 1.576e-4
-1.619, 1.588e-4
-1.620, 1.600e-4
-1.621, 1.612e-4
-1.622, 1.624e-4
-1.623, 1.637e-4
-1.624, 1.648e-4
-1.625, 1.659e-4
-1.626, 1.669e-4
-1.627, 1.678e-4
-1.628, 1.688e-4
-1.629, 1.701e-4
-1.630, 1.712e-4
-1.631, 1.723e-4
-1.632, 1.735e-4
-1.633, 1.746e-4
-1.634, 1.758e-4
-1.635, 1.771e-4
-1.636, 1.785e-4
-1.637, 1.799e-4
-1.638, 1.814e-4
-1.639, 1.830e-4
-1.640, 1.847e-4
-1.641, 1.864e-4
-1.642, 1.882e-4
-1.643, 1.902e-4
-1.644, 1.921e-4
-1.645, 1.941e-4
-1.646, 1.962e-4
-1.647, 1.983e-4
-1.648, 2.005e-4
-1.649, 2.027e-4
-1.650, 2.050e-4
-1.651, 2.073e-4
-1.652, 2.097e-4
-1.653, 2.122e-4
-1.654, 2.147e-4
-1.655, 2.173e-4
-1.656, 2.199e-4
-1.657, 2.226e-4
-1.658, 2.253e-4
-1.659, 2.281e-4
-1.660, 2.310e-4
-1.661, 2.341e-4
-1.662, 2.371e-4
-1.663, 2.402e-4
-1.664, 2.434e-4
-1.665, 2.467e-4
-1.666, 2.500e-4
-1.667, 2.534e-4
-1.668, 2.570e-4
-1.669, 2.606e-4
-1.670, 2.644e-4
-1.671, 2.683e-4
-1.672, 2.720e-4
-1.673, 2.758e-4
-1.674, 2.798e-4
-1.675, 2.840e-4
-1.676, 2.885e-4
-1.677, 2.929e-4
-1.678, 2.974e-4
-1.679, 3.020e-4
-1.680, 3.062e-4
-1.681, 3.104e-4
-1.682, 3.148e-4
-1.683, 3.194e-4
-1.684, 3.241e-4
-1.685, 3.287e-4
-1.686, 3.335e-4
-1.687, 3.383e-4
-1.688, 3.435e-4
-1.689, 3.487e-4
-1.690, 3.541e-4
-1.691, 3.596e-4
-1.692, 3.651e-4
-1.693, 3.707e-4
-1.694, 3.762e-4
-1.695, 3.816e-4
-1.696, 3.870e-4
-1.697, 3.923e-4
-1.698, 3.976e-4
-1.699, 4.031e-4
-1.700, 4.088e-4
-1.701, 4.145e-4
-1.702, 4.203e-4
-1.703, 4.261e-4
-1.704, 4.319e-4
-1.705, 4.377e-4
-1.706, 4.434e-4
-1.707, 4.493e-4
-1.708, 4.553e-4
-1.709, 4.615e-4
-1.710, 4.677e-4
-1.711, 4.739e-4
-1.712, 4.803e-4
-1.713, 4.866e-4
-1.714, 4.929e-4
-1.715, 4.995e-4
-1.716, 5.063e-4
-1.717, 5.130e-4
-1.718, 5.197e-4
-1.719, 5.265e-4
-1.720, 5.334e-4
-1.721, 5.403e-4
-1.722, 5.473e-4
-1.723, 5.543e-4
-1.724, 5.613e-4
-1.725, 5.687e-4
-1.726, 5.764e-4
-1.727, 5.839e-4
-1.728, 5.914e-4
-1.729, 5.988e-4
-1.730, 6.062e-4
-1.731, 6.136e-4
-1.732, 6.210e-4
-1.733, 6.284e-4
-1.734, 6.359e-4
-1.735, 6.434e-4
-1.736, 6.509e-4
-1.737, 6.584e-4
-1.738, 6.660e-4
-1.739, 6.737e-4
-1.740, 6.814e-4
-1.741, 6.891e-4
-1.742, 6.968e-4
-1.743, 7.046e-4
-1.744, 7.124e-4
-1.745, 7.203e-4
-1.746, 7.282e-4
-1.747, 7.361e-4
-1.748, 7.441e-4
-1.749, 7.522e-4
-1.750, 7.605e-4
-1.751, 7.688e-4
-1.752, 7.772e-4
-1.753, 7.856e-4
-1.754, 7.941e-4
-1.755, 8.024e-4
-1.756, 8.109e-4
-1.757, 8.194e-4
-1.758, 8.279e-4
-1.759, 8.363e-4
-1.760, 8.448e-4
-1.761, 8.533e-4
-1.762, 8.619e-4
-1.763, 8.704e-4
-1.764, 8.789e-4
-1.765, 8.875e-4
-1.766, 8.962e-4
-1.767, 9.048e-4
-1.768, 9.135e-4
-1.769, 9.222e-4
-1.770, 9.309e-4
-1.771, 9.397e-4
-1.772, 9.485e-4
-1.773, 9.572e-4
-1.774, 9.660e-4
-1.775, 9.749e-4
-1.776, 9.838e-4
-1.777, 9.927e-4
-1.778, 1.002e-3
-1.779, 1.010e-3
-1.780, 1.011e-3
-1.781, 1.011e-3
-1.782, 1.011e-3
-1.783, 1.011e-3
-1.784, 1.011e-3
-1.785, 1.011e-3
-1.786, 1.011e-3
-1.787, 1.011e-3
-1.788, 1.011e-3
-1.789, 1.011e-3
-1.790, 1.011e-3
-1.791, 1.011e-3
-1.792, 1.011e-3
-1.793, 1.011e-3
-1.794, 1.011e-3
-1.795, 1.011e-3
-1.796, 1.011e-3
-1.797, 1.011e-3
-1.798, 1.011e-3
-1.799, 1.011e-3
-1.800, 1.011e-3
-1.801, 1.011e-3
-1.802, 1.011e-3
-1.803, 1.011e-3
-1.804, 1.011e-3
-1.805, 1.011e-3
-1.806, 1.011e-3
-1.807, 1.011e-3
-1.808, 1.011e-3
-1.809, 1.011e-3
-1.810, 1.011e-3
-1.811, 1.011e-3
-1.812, 1.011e-3
-1.813, 1.011e-3
-1.814, 1.011e-3
-1.815, 1.011e-3
-1.816, 1.011e-3
-1.817, 1.011e-3
-1.818, 1.011e-3
-1.819, 1.011e-3
-1.820, 1.011e-3
-1.821, 1.011e-3
-1.822, 1.011e-3
-1.823, 1.011e-3
-1.824, 1.011e-3
-1.825, 1.011e-3
-1.826, 1.011e-3
-1.827, 1.011e-3
-1.828, 1.011e-3
-1.829, 1.011e-3
-1.830, 1.011e-3
-1.831, 1.011e-3
-1.832, 1.011e-3
-1.833, 1.011e-3
-1.834, 1.011e-3
-1.835, 1.011e-3
-1.836, 1.011e-3
-1.837, 1.011e-3
-1.838, 1.011e-3
-1.839, 1.011e-3
-1.840, 1.011e-3
-1.841, 1.011e-3
-1.842, 1.011e-3
-1.843, 1.011e-3
-1.844, 1.011e-3
-1.845, 1.011e-3
-1.846, 1.011e-3
-1.847, 1.011e-3
-1.848, 1.011e-3
-1.849, 1.011e-3
-1.850, 1.011e-3
-1.851, 1.011e-3
-1.852, 1.011e-3
-1.853, 1.011e-3
-1.854, 1.011e-3
-1.855, 1.011e-3
-1.856, 1.011e-3
-1.857, 1.011e-3
-1.858, 1.011e-3
-1.859, 1.011e-3
-1.860, 1.011e-3
-1.861, 1.011e-3
-1.862, 1.011e-3
-1.863, 1.011e-3
-1.864, 1.011e-3
-1.865, 1.011e-3
-1.866, 1.011e-3
-1.867, 1.011e-3
-1.868, 1.011e-3
-1.869, 1.011e-3
-1.870, 1.011e-3
-1.871, 1.011e-3
-1.872, 1.011e-3
-1.873, 1.011e-3
-1.874, 1.011e-3
-1.875, 1.011e-3
-1.876, 1.011e-3
-1.877, 1.011e-3
-1.878, 1.011e-3
-1.879, 1.011e-3
-1.880, 1.011e-3
-1.881, 1.011e-3
-1.882, 1.011e-3
-1.883, 1.011e-3
-1.884, 1.011e-3
-1.885, 1.011e-3
-1.886, 1.011e-3
-1.887, 1.011e-3
-1.888, 1.011e-3
-1.889, 1.011e-3
-1.890, 1.011e-3
-1.891, 1.011e-3
-1.892, 1.011e-3
-1.893, 1.011e-3
-1.894, 1.011e-3
-1.895, 1.011e-3
-1.896, 1.011e-3
-1.897, 1.011e-3
-1.898, 1.011e-3
-1.899, 1.011e-3
-1.900, 1.011e-3
-1.901, 1.011e-3
-1.902, 1.011e-3
-1.903, 1.011e-3
-1.904, 1.011e-3
-1.905, 1.011e-3
-1.906, 1.011e-3
-1.907, 1.011e-3
-1.908, 1.011e-3
-1.909, 1.011e-3
-1.910, 1.011e-3
-1.911, 1.011e-3
-1.912, 1.011e-3
-1.913, 1.011e-3
-1.914, 1.011e-3
-1.915, 1.011e-3
-1.916, 1.011e-3
-1.917, 1.011e-3
-1.918, 1.011e-3
-1.919, 1.011e-3
-1.920, 1.011e-3
-1.921, 1.011e-3
-1.922, 1.011e-3
-1.923, 1.011e-3
-1.924, 1.011e-3
-1.925, 1.011e-3
-1.926, 1.011e-3
-1.927, 1.011e-3
-1.928, 1.011e-3
-1.929, 1.011e-3
-1.930, 1.011e-3
-1.931, 1.011e-3
-1.932, 1.011e-3
-1.933, 1.011e-3
-1.934, 1.011e-3
-1.935, 1.011e-3
-1.936, 1.011e-3
-1.937, 1.011e-3
-1.938, 1.011e-3
-1.939, 1.011e-3
-1.940, 1.011e-3
-1.941, 1.011e-3
-1.942, 1.011e-3
-1.943, 1.011e-3
-1.944, 1.011e-3
-1.945, 1.011e-3
-1.946, 1.011e-3
-1.947, 1.011e-3
-1.948, 1.011e-3
-1.949, 1.011e-3
-1.950, 1.011e-3
-1.951, 1.011e-3
-1.952, 1.011e-3
-1.953, 1.011e-3
-1.954, 1.011e-3
-1.955, 1.011e-3
-1.956, 1.011e-3
-1.957, 1.011e-3
-1.958, 1.011e-3
-1.959, 1.011e-3
-1.960, 1.011e-3
-1.961, 1.011e-3
-1.962, 1.011e-3
-1.963, 1.011e-3
-1.964, 1.011e-3
-1.965, 1.011e-3
-1.966, 1.011e-3
-1.967, 1.011e-3
-1.968, 1.011e-3
-1.969, 1.011e-3
-1.970, 1.011e-3
-1.971, 1.011e-3
-1.972, 1.011e-3
-1.973, 1.011e-3
-1.974, 1.011e-3
-1.975, 1.011e-3
-1.976, 1.011e-3
-1.977, 1.011e-3
-1.978, 1.011e-3
-1.979, 1.011e-3
-1.980, 1.011e-3
-1.981, 1.011e-3
-1.982, 1.011e-3
-1.983, 1.011e-3
-1.984, 1.011e-3
-1.985, 1.011e-3
-1.986, 1.011e-3
-1.987, 1.011e-3
-1.988, 1.011e-3
-1.989, 1.011e-3
-1.990, 1.011e-3
-1.991, 1.011e-3
-1.992, 1.011e-3
-1.993, 1.011e-3
-1.994, 1.011e-3
-1.995, 1.011e-3
-1.996, 1.011e-3
-1.997, 1.011e-3
-1.998, 1.011e-3
-1.999, 1.011e-3
-2.000, 1.011e-3
-2.001, 1.011e-3
-2.002, 1.011e-3
-2.003, 1.011e-3
-2.004, 1.011e-3
-2.005, 1.011e-3
-2.006, 1.011e-3
-2.007, 1.011e-3
-2.008, 1.011e-3
-2.009, 1.011e-3
-2.010, 1.011e-3
-2.011, 1.011e-3
-2.012, 1.011e-3
-2.013, 1.011e-3
-2.014, 1.011e-3
-2.015, 1.011e-3
-2.016, 1.011e-3
-2.017, 1.011e-3
-2.018, 1.011e-3
-2.019, 1.011e-3
-2.020, 1.011e-3
-2.021, 1.011e-3
-2.022, 1.011e-3
-2.023, 1.011e-3
-2.024, 1.011e-3
-2.025, 1.011e-3
-2.026, 1.011e-3
-2.027, 1.011e-3
-2.028, 1.011e-3
-2.029, 1.011e-3
-2.030, 1.011e-3
-2.031, 1.011e-3
-2.032, 1.011e-3
-2.033, 1.011e-3
-2.034, 1.011e-3
-2.035, 1.011e-3
-2.036, 1.011e-3
-2.037, 1.011e-3
-2.038, 1.011e-3
-2.039, 1.011e-3
-2.040, 1.011e-3
-2.041, 1.011e-3
-2.042, 1.011e-3
-2.043, 1.011e-3
-2.044, 1.011e-3
-2.045, 1.011e-3
-2.046, 1.011e-3
-2.047, 1.011e-3
-2.048, 1.011e-3
-2.049, 1.011e-3
-2.050, 1.011e-3
-2.051, 1.011e-3
-2.052, 1.011e-3
-2.053, 1.011e-3
-2.054, 1.011e-3
-2.055, 1.011e-3
-2.056, 1.011e-3
-2.057, 1.011e-3
-2.058, 1.011e-3
-2.059, 1.011e-3
-2.060, 1.011e-3
-2.061, 1.011e-3
-2.062, 1.011e-3
-2.063, 1.011e-3
-2.064, 1.011e-3
-2.065, 1.011e-3
-2.066, 1.011e-3
-2.067, 1.011e-3
-2.068, 1.011e-3
-2.069, 1.011e-3
-2.070, 1.011e-3
-2.071, 1.011e-3
-2.072, 1.011e-3
-2.073, 1.011e-3
-2.074, 1.011e-3
-2.075, 1.011e-3
-2.076, 1.011e-3
-2.077, 1.011e-3
-2.078, 1.011e-3
-2.079, 1.011e-3
-2.080, 1.011e-3
-2.081, 1.011e-3
-2.082, 1.011e-3
-2.083, 1.011e-3
-2.084, 1.011e-3
-2.085, 1.011e-3
-2.086, 1.011e-3
-2.087, 1.011e-3
-2.088, 1.011e-3
-2.089, 1.011e-3
-2.090, 1.011e-3
-2.091, 1.011e-3
-2.092, 1.011e-3
-2.093, 1.011e-3
-2.094, 1.011e-3
-2.095, 1.011e-3
-2.096, 1.011e-3
-2.097, 1.011e-3
-2.098, 1.011e-3
-2.099, 1.011e-3
-2.100, 1.011e-3
-2.101, 1.011e-3
-2.102, 1.011e-3
-2.103, 1.011e-3
-2.104, 1.011e-3
-2.105, 1.011e-3
-2.106, 1.011e-3
-2.107, 1.011e-3
-2.108, 1.011e-3
-2.109, 1.011e-3
-2.110, 1.011e-3
-2.111, 1.011e-3
-2.112, 1.011e-3
-2.113, 1.011e-3
-2.114, 1.011e-3
-2.115, 1.011e-3
-2.116, 1.011e-3
-2.117, 1.011e-3
-2.118, 1.011e-3
-2.119, 1.011e-3
-2.120, 1.011e-3
-2.121, 1.011e-3
-2.122, 1.011e-3
-2.123, 1.011e-3
-2.124, 1.011e-3
-2.125, 1.011e-3
-2.126, 1.011e-3
-2.127, 1.011e-3
-2.128, 1.011e-3
-2.129, 1.011e-3
-2.130, 1.011e-3
-2.131, 1.011e-3
-2.132, 1.011e-3
-2.133, 1.011e-3
-2.134, 1.011e-3
-2.135, 1.011e-3
-2.136, 1.011e-3
-2.137, 1.011e-3
-2.138, 1.011e-3
-2.139, 1.011e-3
-2.140, 1.011e-3
-2.141, 1.011e-3
-2.142, 1.011e-3
-2.143, 1.011e-3
-2.144, 1.011e-3
-2.145, 1.011e-3
-2.146, 1.011e-3
-2.147, 1.011e-3
-2.148, 1.011e-3
-2.149, 1.011e-3
-2.150, 1.011e-3
-2.151, 1.011e-3
-2.152, 1.011e-3
-2.153, 1.011e-3
-2.154, 1.011e-3
-2.155, 1.011e-3
-2.156, 1.011e-3
-2.157, 1.011e-3
-2.158, 1.011e-3
-2.159, 1.011e-3
-2.160, 1.011e-3
-2.161, 1.011e-3
-2.162, 1.011e-3
-2.163, 1.011e-3
-2.164, 1.011e-3
-2.165, 1.011e-3
-2.166, 1.011e-3
-2.167, 1.011e-3
-2.168, 1.011e-3
-2.169, 1.011e-3
-2.170, 1.011e-3
-2.171, 1.011e-3
-2.172, 1.011e-3
-2.173, 1.011e-3
-2.174, 1.011e-3
-2.175, 1.011e-3
-2.176, 1.011e-3
-2.177, 1.011e-3
-2.178, 1.011e-3
-2.179, 1.011e-3
-2.180, 1.011e-3
-2.181, 1.011e-3
-2.182, 1.011e-3
-2.183, 1.011e-3
-2.184, 1.011e-3
-2.185, 1.011e-3
-2.186, 1.011e-3
-2.187, 1.011e-3
-2.188, 1.011e-3
-2.189, 1.011e-3
-2.190, 1.011e-3
-2.191, 1.011e-3
-2.192, 1.011e-3
-2.193, 1.011e-3
-2.194, 1.011e-3
-2.195, 1.011e-3
-2.196, 1.011e-3
-2.197, 1.011e-3
-2.198, 1.011e-3
-2.199, 1.011e-3
-2.200, 1.011e-3
-2.201, 1.011e-3
-2.202, 1.011e-3
-2.203, 1.011e-3
-2.204, 1.011e-3
-2.205, 1.011e-3
-2.206, 1.011e-3
-2.207, 1.011e-3
-2.208, 1.011e-3
-2.209, 1.011e-3
-2.210, 1.011e-3
-2.211, 1.011e-3
-2.212, 1.011e-3
-2.213, 1.011e-3
-2.214, 1.011e-3
-2.215, 1.011e-3
-2.216, 1.011e-3
-2.217, 1.011e-3
-2.218, 1.011e-3
-2.219, 1.011e-3
-2.220, 1.011e-3
-2.221, 1.011e-3
-2.222, 1.011e-3
-2.223, 1.011e-3
-2.224, 1.011e-3
-2.225, 1.011e-3
-2.226, 1.011e-3
-2.227, 1.011e-3
-2.228, 1.011e-3
-2.229, 1.011e-3
-2.230, 1.011e-3
-2.231, 1.011e-3
-2.232, 1.011e-3
-2.233, 1.011e-3
-2.234, 1.011e-3
-2.235, 1.011e-3
-2.236, 1.011e-3
-2.237, 1.011e-3
-2.238, 1.011e-3
-2.239, 1.011e-3
-2.240, 1.011e-3
-2.241, 1.011e-3
-2.242, 1.011e-3
-2.243, 1.011e-3
-2.244, 1.011e-3
-2.245, 1.011e-3
-2.246, 1.011e-3
-2.247, 1.011e-3
-2.248, 1.011e-3
-2.249, 1.011e-3
-2.250, 1.011e-3
-2.251, 1.011e-3
-2.252, 1.011e-3
-2.253, 1.011e-3
-2.254, 1.011e-3
-2.255, 1.011e-3
-2.256, 1.011e-3
-2.257, 1.011e-3
-2.258, 1.011e-3
-2.259, 1.011e-3
-2.260, 1.011e-3
-2.261, 1.011e-3
-2.262, 1.011e-3
-2.263, 1.011e-3
-2.264, 1.011e-3
-2.265, 1.011e-3
-2.266, 1.011e-3
-2.267, 1.011e-3
-2.268, 1.011e-3
-2.269, 1.011e-3
-2.270, 1.011e-3
-2.271, 1.011e-3
-2.272, 1.011e-3
-2.273, 1.011e-3
-2.274, 1.011e-3
-2.275, 1.011e-3
-2.276, 1.011e-3
-2.277, 1.011e-3
-2.278, 1.011e-3
-2.279, 1.011e-3
-2.280, 1.011e-3
-2.281, 1.011e-3
-2.282, 1.011e-3
-2.283, 1.011e-3
-2.284, 1.011e-3
-2.285, 1.011e-3
-2.286, 1.011e-3
-2.287, 1.011e-3
-2.288, 1.011e-3
-2.289, 1.011e-3
-2.290, 1.011e-3
-2.291, 1.011e-3
-2.292, 1.011e-3
-2.293, 1.011e-3
-2.294, 1.011e-3
-2.295, 1.011e-3
-2.296, 1.011e-3
-2.297, 1.011e-3
-2.298, 1.011e-3
-2.299, 1.011e-3
