Oct. 27, 2024   17:41:55
Cyclic Voltammetry
File: c:/users/guazh/data/banditlqv2round1/2024-10-24-exp600\exp600-2024-10-27t17_13_23-h2koh\exp600_cv_sr_50mvs_efin_-2200mv.bin
Data Source:  Experiment
Instrument Model:  CHI760E
Header: CV ran at 50 mVs
Note: 

Init E (V) = -1
High E (V) = -1
Low E (V) = -2.2
Final E (V) = -1
Init P/N = N
Scan Rate (V/s) = 0.05
Segment = 3
Sample Interval (V) = 0.001
Quiet Time (sec) = 2
Sensitivity (A/V) = 0.01
Comp R (ohm) = 0.9

Results:

Channel 1:
Segment 1:

Segment 2:

Segment 3:

Potential/V, Current/A

-1.000, -8.504e-7
-1.001, -8.998e-7
-1.002, -8.702e-7
-1.003, -9.195e-7
-1.004, -8.406e-7
-1.005, -8.800e-7
-1.006, -8.110e-7
-1.007, -8.011e-7
-1.008, -6.827e-7
-1.009, -7.222e-7
-1.010, -7.518e-7
-1.011, -6.630e-7
-1.012, -6.038e-7
-1.013, -7.123e-7
-1.014, -6.630e-7
-1.015, -7.123e-7
-1.016, -6.433e-7
-1.017, -6.038e-7
-1.018, -5.939e-7
-1.019, -6.137e-7
-1.020, -6.038e-7
-1.021, -5.841e-7
-1.022, -5.939e-7
-1.023, -6.137e-7
-1.024, -4.953e-7
-1.025, -4.657e-7
-1.026, -4.953e-7
-1.027, -4.262e-7
-1.028, -4.558e-7
-1.029, -4.558e-7
-1.030, -5.150e-7
-1.031, -4.065e-7
-1.032, -4.065e-7
-1.033, -4.361e-7
-1.034, -3.966e-7
-1.035, -4.755e-7
-1.036, -4.558e-7
-1.037, -4.558e-7
-1.038, -3.571e-7
-1.039, -4.361e-7
-1.040, -2.980e-7
-1.041, -3.670e-7
-1.042, -3.374e-7
-1.043, -3.867e-7
-1.044, -3.078e-7
-1.045, -3.177e-7
-1.046, -2.881e-7
-1.047, -3.275e-7
-1.048, -3.275e-7
-1.049, -2.388e-7
-1.050, -2.585e-7
-1.051, -2.289e-7
-1.052, -1.796e-7
-1.053, -2.092e-7
-1.054, -1.894e-7
-1.055, -2.388e-7
-1.056, -1.796e-7
-1.057, -2.190e-7
-1.058, -2.289e-7
-1.059, -2.092e-7
-1.060, -1.894e-7
-1.061, -1.894e-7
-1.062, -1.006e-7
-1.063, -1.894e-7
-1.064, -1.598e-7
-1.065, -2.092e-7
-1.066, -1.697e-7
-1.067, -1.204e-7
-1.068, -7.103e-8
-1.069, -3.157e-8
-1.070, -9.077e-8
-1.071, 5.722e-8
-1.072, -1.401e-7
-1.073, -4.144e-8
-1.074, -8.090e-8
-1.075, -4.144e-8
-1.076, -1.973e-9
-1.077, 7.695e-8
-1.078, -5.130e-8
-1.079, 6.709e-8
-1.080, -8.090e-8
-1.081, 1.776e-8
-1.082, -2.171e-8
-1.083, -1.973e-9
-1.084, 7.893e-9
-1.085, 3.749e-8
-1.086, 9.669e-8
-1.087, 3.749e-8
-1.088, 1.776e-8
-1.089, 9.669e-8
-1.090, 6.709e-8
-1.091, 1.164e-7
-1.092, 1.066e-7
-1.093, 1.776e-8
-1.094, 1.953e-7
-1.095, 5.722e-8
-1.096, 2.762e-8
-1.097, 1.460e-7
-1.098, 5.722e-8
-1.099, 7.695e-8
-1.100, 1.362e-7
-1.101, 2.545e-7
-1.102, 3.749e-8
-1.103, 1.953e-7
-1.104, 2.052e-7
-1.105, 1.460e-7
-1.106, 1.657e-7
-1.107, 2.743e-7
-1.108, 2.052e-7
-1.109, 1.855e-7
-1.110, 1.066e-7
-1.111, 3.137e-7
-1.112, 7.695e-8
-1.113, 1.953e-7
-1.114, 2.644e-7
-1.115, 2.151e-7
-1.116, 2.348e-7
-1.117, 3.236e-7
-1.118, 2.249e-7
-1.119, 2.743e-7
-1.120, 2.644e-7
-1.121, 3.137e-7
-1.122, 3.236e-7
-1.123, 2.644e-7
-1.124, 3.828e-7
-1.125, 3.039e-7
-1.126, 2.841e-7
-1.127, 4.124e-7
-1.128, 2.348e-7
-1.129, 4.025e-7
-1.130, 3.335e-7
-1.131, 3.927e-7
-1.132, 3.236e-7
-1.133, 4.716e-7
-1.134, 3.532e-7
-1.135, 3.729e-7
-1.136, 4.321e-7
-1.137, 4.025e-7
-1.138, 3.433e-7
-1.139, 4.223e-7
-1.140, 4.223e-7
-1.141, 4.321e-7
-1.142, 4.321e-7
-1.143, 4.321e-7
-1.144, 3.927e-7
-1.145, 4.223e-7
-1.146, 4.815e-7
-1.147, 5.209e-7
-1.148, 3.532e-7
-1.149, 3.828e-7
-1.150, 3.631e-7
-1.151, 4.223e-7
-1.152, 4.913e-7
-1.153, 4.420e-7
-1.154, 4.815e-7
-1.155, 4.519e-7
-1.156, 4.617e-7
-1.157, 4.913e-7
-1.158, 5.604e-7
-1.159, 5.604e-7
-1.160, 4.321e-7
-1.161, 5.407e-7
-1.162, 5.111e-7
-1.163, 4.519e-7
-1.164, 4.913e-7
-1.165, 5.900e-7
-1.166, 6.689e-7
-1.167, 5.801e-7
-1.168, 5.209e-7
-1.169, 5.209e-7
-1.170, 4.519e-7
-1.171, 6.097e-7
-1.172, 5.505e-7
-1.173, 5.407e-7
-1.174, 5.407e-7
-1.175, 5.308e-7
-1.176, 5.801e-7
-1.177, 5.209e-7
-1.178, 5.012e-7
-1.179, 5.801e-7
-1.180, 5.900e-7
-1.181, 5.703e-7
-1.182, 5.998e-7
-1.183, 5.703e-7
-1.184, 6.788e-7
-1.185, 5.209e-7
-1.186, 6.393e-7
-1.187, 6.294e-7
-1.188, 6.097e-7
-1.189, 6.492e-7
-1.190, 6.788e-7
-1.191, 6.985e-7
-1.192, 6.689e-7
-1.193, 6.294e-7
-1.194, 7.084e-7
-1.195, 5.900e-7
-1.196, 7.380e-7
-1.197, 7.084e-7
-1.198, 6.985e-7
-1.199, 6.689e-7
-1.200, 6.689e-7
-1.201, 6.886e-7
-1.202, 6.689e-7
-1.203, 6.788e-7
-1.204, 7.182e-7
-1.205, 6.985e-7
-1.206, 7.380e-7
-1.207, 7.478e-7
-1.208, 6.985e-7
-1.209, 7.676e-7
-1.210, 7.478e-7
-1.211, 7.182e-7
-1.212, 7.577e-7
-1.213, 8.169e-7
-1.214, 7.084e-7
-1.215, 7.478e-7
-1.216, 7.676e-7
-1.217, 7.873e-7
-1.218, 6.886e-7
-1.219, 7.182e-7
-1.220, 6.788e-7
-1.221, 7.577e-7
-1.222, 6.788e-7
-1.223, 7.972e-7
-1.224, 7.676e-7
-1.225, 8.169e-7
-1.226, 7.774e-7
-1.227, 7.380e-7
-1.228, 7.478e-7
-1.229, 8.564e-7
-1.230, 8.070e-7
-1.231, 9.353e-7
-1.232, 8.662e-7
-1.233, 9.452e-7
-1.234, 9.057e-7
-1.235, 9.057e-7
-1.236, 9.748e-7
-1.237, 8.169e-7
-1.238, 8.958e-7
-1.239, 8.761e-7
-1.240, 8.465e-7
-1.241, 9.748e-7
-1.242, 9.550e-7
-1.243, 9.254e-7
-1.244, 9.945e-7
-1.245, 8.564e-7
-1.246, 9.550e-7
-1.247, 8.860e-7
-1.248, 8.860e-7
-1.249, 9.748e-7
-1.250, 9.156e-7
-1.251, 9.550e-7
-1.252, 8.564e-7
-1.253, 9.452e-7
-1.254, 9.550e-7
-1.255, 9.452e-7
-1.256, 1.034e-6
-1.257, 9.846e-7
-1.258, 1.024e-6
-1.259, 1.034e-6
-1.260, 9.353e-7
-1.261, 1.044e-6
-1.262, 9.748e-7
-1.263, 9.945e-7
-1.264, 9.945e-7
-1.265, 8.860e-7
-1.266, 1.004e-6
-1.267, 9.353e-7
-1.268, 9.550e-7
-1.269, 9.748e-7
-1.270, 1.014e-6
-1.271, 1.004e-6
-1.272, 9.846e-7
-1.273, 1.004e-6
-1.274, 1.103e-6
-1.275, 9.353e-7
-1.276, 1.064e-6
-1.277, 1.054e-6
-1.278, 1.054e-6
-1.279, 1.034e-6
-1.280, 1.034e-6
-1.281, 1.073e-6
-1.282, 1.093e-6
-1.283, 1.083e-6
-1.284, 1.093e-6
-1.285, 1.054e-6
-1.286, 1.083e-6
-1.287, 1.064e-6
-1.288, 1.054e-6
-1.289, 1.103e-6
-1.290, 1.054e-6
-1.291, 1.073e-6
-1.292, 1.064e-6
-1.293, 1.093e-6
-1.294, 1.093e-6
-1.295, 1.054e-6
-1.296, 1.133e-6
-1.297, 1.142e-6
-1.298, 1.073e-6
-1.299, 1.103e-6
-1.300, 1.152e-6
-1.301, 1.192e-6
-1.302, 1.172e-6
-1.303, 1.152e-6
-1.304, 1.162e-6
-1.305, 1.034e-6
-1.306, 1.231e-6
-1.307, 1.152e-6
-1.308, 1.241e-6
-1.309, 1.251e-6
-1.310, 1.261e-6
-1.311, 1.241e-6
-1.312, 1.212e-6
-1.313, 1.172e-6
-1.314, 1.212e-6
-1.315, 1.162e-6
-1.316, 1.221e-6
-1.317, 1.133e-6
-1.318, 1.162e-6
-1.319, 1.241e-6
-1.320, 1.202e-6
-1.321, 1.320e-6
-1.322, 1.212e-6
-1.323, 1.261e-6
-1.324, 1.212e-6
-1.325, 1.271e-6
-1.326, 1.281e-6
-1.327, 1.202e-6
-1.328, 1.330e-6
-1.329, 1.192e-6
-1.330, 1.261e-6
-1.331, 1.281e-6
-1.332, 1.290e-6
-1.333, 1.281e-6
-1.334, 1.212e-6
-1.335, 1.290e-6
-1.336, 1.320e-6
-1.337, 1.281e-6
-1.338, 1.379e-6
-1.339, 1.310e-6
-1.340, 1.310e-6
-1.341, 1.271e-6
-1.342, 1.330e-6
-1.343, 1.281e-6
-1.344, 1.300e-6
-1.345, 1.330e-6
-1.346, 1.360e-6
-1.347, 1.330e-6
-1.348, 1.360e-6
-1.349, 1.389e-6
-1.350, 1.261e-6
-1.351, 1.320e-6
-1.352, 1.261e-6
-1.353, 1.399e-6
-1.354, 1.320e-6
-1.355, 1.310e-6
-1.356, 1.290e-6
-1.357, 1.330e-6
-1.358, 1.369e-6
-1.359, 1.281e-6
-1.360, 1.360e-6
-1.361, 1.429e-6
-1.362, 1.369e-6
-1.363, 1.389e-6
-1.364, 1.409e-6
-1.365, 1.360e-6
-1.366, 1.458e-6
-1.367, 1.409e-6
-1.368, 1.448e-6
-1.369, 1.419e-6
-1.370, 1.478e-6
-1.371, 1.468e-6
-1.372, 1.438e-6
-1.373, 1.389e-6
-1.374, 1.478e-6
-1.375, 1.369e-6
-1.376, 1.567e-6
-1.377, 1.478e-6
-1.378, 1.458e-6
-1.379, 1.438e-6
-1.380, 1.478e-6
-1.381, 1.458e-6
-1.382, 1.508e-6
-1.383, 1.577e-6
-1.384, 1.478e-6
-1.385, 1.577e-6
-1.386, 1.577e-6
-1.387, 1.488e-6
-1.388, 1.517e-6
-1.389, 1.547e-6
-1.390, 1.547e-6
-1.391, 1.577e-6
-1.392, 1.567e-6
-1.393, 1.527e-6
-1.394, 1.478e-6
-1.395, 1.547e-6
-1.396, 1.646e-6
-1.397, 1.498e-6
-1.398, 1.586e-6
-1.399, 1.537e-6
-1.400, 1.626e-6
-1.401, 1.577e-6
-1.402, 1.646e-6
-1.403, 1.586e-6
-1.404, 1.557e-6
-1.405, 1.537e-6
-1.406, 1.557e-6
-1.407, 1.537e-6
-1.408, 1.636e-6
-1.409, 1.596e-6
-1.410, 1.665e-6
-1.411, 1.636e-6
-1.412, 1.606e-6
-1.413, 1.636e-6
-1.414, 1.596e-6
-1.415, 1.656e-6
-1.416, 1.596e-6
-1.417, 1.537e-6
-1.418, 1.665e-6
-1.419, 1.616e-6
-1.420, 1.646e-6
-1.421, 1.734e-6
-1.422, 1.616e-6
-1.423, 1.616e-6
-1.424, 1.695e-6
-1.425, 1.665e-6
-1.426, 1.695e-6
-1.427, 1.695e-6
-1.428, 1.685e-6
-1.429, 1.656e-6
-1.430, 1.646e-6
-1.431, 1.715e-6
-1.432, 1.646e-6
-1.433, 1.784e-6
-1.434, 1.794e-6
-1.435, 1.794e-6
-1.436, 1.803e-6
-1.437, 1.715e-6
-1.438, 1.803e-6
-1.439, 1.843e-6
-1.440, 1.803e-6
-1.441, 1.902e-6
-1.442, 1.833e-6
-1.443, 1.764e-6
-1.444, 1.794e-6
-1.445, 1.794e-6
-1.446, 1.823e-6
-1.447, 1.843e-6
-1.448, 1.902e-6
-1.449, 1.803e-6
-1.450, 1.853e-6
-1.451, 1.882e-6
-1.452, 1.853e-6
-1.453, 1.843e-6
-1.454, 1.833e-6
-1.455, 1.912e-6
-1.456, 1.902e-6
-1.457, 1.892e-6
-1.458, 1.873e-6
-1.459, 1.902e-6
-1.460, 1.942e-6
-1.461, 1.932e-6
-1.462, 1.882e-6
-1.463, 1.951e-6
-1.464, 1.892e-6
-1.465, 1.932e-6
-1.466, 1.961e-6
-1.467, 1.892e-6
-1.468, 2.001e-6
-1.469, 2.060e-6
-1.470, 2.021e-6
-1.471, 2.030e-6
-1.472, 2.001e-6
-1.473, 2.060e-6
-1.474, 1.951e-6
-1.475, 2.050e-6
-1.476, 2.011e-6
-1.477, 1.932e-6
-1.478, 1.971e-6
-1.479, 1.951e-6
-1.480, 2.070e-6
-1.481, 2.030e-6
-1.482, 1.981e-6
-1.483, 1.991e-6
-1.484, 2.040e-6
-1.485, 2.139e-6
-1.486, 2.109e-6
-1.487, 2.119e-6
-1.488, 2.198e-6
-1.489, 2.149e-6
-1.490, 2.139e-6
-1.491, 2.178e-6
-1.492, 2.099e-6
-1.493, 2.238e-6
-1.494, 2.198e-6
-1.495, 2.267e-6
-1.496, 2.090e-6
-1.497, 2.090e-6
-1.498, 2.228e-6
-1.499, 2.247e-6
-1.500, 2.297e-6
-1.501, 2.297e-6
-1.502, 2.149e-6
-1.503, 2.208e-6
-1.504, 2.247e-6
-1.505, 2.317e-6
-1.506, 2.297e-6
-1.507, 2.287e-6
-1.508, 2.366e-6
-1.509, 2.287e-6
-1.510, 2.386e-6
-1.511, 2.366e-6
-1.512, 2.376e-6
-1.513, 2.326e-6
-1.514, 2.376e-6
-1.515, 2.376e-6
-1.516, 2.376e-6
-1.517, 2.455e-6
-1.518, 2.534e-6
-1.519, 2.405e-6
-1.520, 2.514e-6
-1.521, 2.445e-6
-1.522, 2.425e-6
-1.523, 2.474e-6
-1.524, 2.504e-6
-1.525, 2.573e-6
-1.526, 2.534e-6
-1.527, 2.494e-6
-1.528, 2.672e-6
-1.529, 2.435e-6
-1.530, 2.652e-6
-1.531, 2.613e-6
-1.532, 2.603e-6
-1.533, 2.573e-6
-1.534, 2.514e-6
-1.535, 2.613e-6
-1.536, 2.682e-6
-1.537, 2.731e-6
-1.538, 2.672e-6
-1.539, 2.691e-6
-1.540, 2.770e-6
-1.541, 2.701e-6
-1.542, 2.711e-6
-1.543, 2.751e-6
-1.544, 2.682e-6
-1.545, 2.760e-6
-1.546, 2.721e-6
-1.547, 2.770e-6
-1.548, 2.731e-6
-1.549, 2.780e-6
-1.550, 2.928e-6
-1.551, 2.899e-6
-1.552, 2.830e-6
-1.553, 2.879e-6
-1.554, 2.889e-6
-1.555, 2.948e-6
-1.556, 2.978e-6
-1.557, 2.928e-6
-1.558, 3.066e-6
-1.559, 2.938e-6
-1.560, 3.116e-6
-1.561, 3.017e-6
-1.562, 3.007e-6
-1.563, 3.086e-6
-1.564, 3.086e-6
-1.565, 3.155e-6
-1.566, 3.175e-6
-1.567, 3.076e-6
-1.568, 3.165e-6
-1.569, 3.155e-6
-1.570, 3.274e-6
-1.571, 3.264e-6
-1.572, 3.214e-6
-1.573, 3.303e-6
-1.574, 3.293e-6
-1.575, 3.303e-6
-1.576, 3.323e-6
-1.577, 3.402e-6
-1.578, 3.412e-6
-1.579, 3.352e-6
-1.580, 3.471e-6
-1.581, 3.441e-6
-1.582, 3.481e-6
-1.583, 3.451e-6
-1.584, 3.510e-6
-1.585, 3.570e-6
-1.586, 3.570e-6
-1.587, 3.599e-6
-1.588, 3.639e-6
-1.589, 3.698e-6
-1.590, 3.796e-6
-1.591, 3.688e-6
-1.592, 3.639e-6
-1.593, 3.698e-6
-1.594, 3.737e-6
-1.595, 3.954e-6
-1.596, 3.846e-6
-1.597, 3.925e-6
-1.598, 3.915e-6
-1.599, 3.885e-6
-1.600, 3.984e-6
-1.601, 4.033e-6
-1.602, 4.092e-6
-1.603, 4.152e-6
-1.604, 4.004e-6
-1.605, 4.171e-6
-1.606, 4.142e-6
-1.607, 4.152e-6
-1.608, 4.250e-6
-1.609, 4.191e-6
-1.610, 4.319e-6
-1.611, 4.329e-6
-1.612, 4.329e-6
-1.613, 4.418e-6
-1.614, 4.448e-6
-1.615, 4.467e-6
-1.616, 4.477e-6
-1.617, 4.576e-6
-1.618, 4.625e-6
-1.619, 4.605e-6
-1.620, 4.763e-6
-1.621, 4.635e-6
-1.622, 4.724e-6
-1.623, 4.753e-6
-1.624, 4.822e-6
-1.625, 4.961e-6
-1.626, 4.980e-6
-1.627, 5.049e-6
-1.628, 5.059e-6
-1.629, 5.079e-6
-1.630, 5.168e-6
-1.631, 5.059e-6
-1.632, 5.266e-6
-1.633, 5.247e-6
-1.634, 5.257e-6
-1.635, 5.345e-6
-1.636, 5.414e-6
-1.637, 5.434e-6
-1.638, 5.612e-6
-1.639, 5.631e-6
-1.640, 5.839e-6
-1.641, 5.750e-6
-1.642, 5.839e-6
-1.643, 5.947e-6
-1.644, 5.937e-6
-1.645, 6.095e-6
-1.646, 6.066e-6
-1.647, 6.105e-6
-1.648, 6.223e-6
-1.649, 6.233e-6
-1.650, 6.381e-6
-1.651, 6.381e-6
-1.652, 6.529e-6
-1.653, 6.490e-6
-1.654, 6.648e-6
-1.655, 6.786e-6
-1.656, 6.736e-6
-1.657, 6.825e-6
-1.658, 6.855e-6
-1.659, 6.894e-6
-1.660, 7.082e-6
-1.661, 7.111e-6
-1.662, 7.190e-6
-1.663, 7.210e-6
-1.664, 7.486e-6
-1.665, 7.585e-6
-1.666, 7.644e-6
-1.667, 7.693e-6
-1.668, 7.772e-6
-1.669, 7.891e-6
-1.670, 7.960e-6
-1.671, 8.039e-6
-1.672, 8.108e-6
-1.673, 8.226e-6
-1.674, 8.295e-6
-1.675, 8.483e-6
-1.676, 8.512e-6
-1.677, 8.611e-6
-1.678, 8.700e-6
-1.679, 8.759e-6
-1.680, 9.016e-6
-1.681, 9.025e-6
-1.682, 9.183e-6
-1.683, 9.302e-6
-1.684, 9.341e-6
-1.685, 9.529e-6
-1.686, 9.617e-6
-1.687, 9.696e-6
-1.688, 9.825e-6
-1.689, 9.992e-6
-1.690, 1.022e-5
-1.691, 1.030e-5
-1.692, 1.042e-5
-1.693, 1.055e-5
-1.694, 1.073e-5
-1.695, 1.092e-5
-1.696, 1.098e-5
-1.697, 1.120e-5
-1.698, 1.128e-5
-1.699, 1.140e-5
-1.700, 1.167e-5
-1.701, 1.173e-5
-1.702, 1.189e-5
-1.703, 1.213e-5
-1.704, 1.222e-5
-1.705, 1.246e-5
-1.706, 1.258e-5
-1.707, 1.271e-5
-1.708, 1.297e-5
-1.709, 1.309e-5
-1.710, 1.335e-5
-1.711, 1.355e-5
-1.712, 1.374e-5
-1.713, 1.386e-5
-1.714, 1.403e-5
-1.715, 1.430e-5
-1.716, 1.458e-5
-1.717, 1.476e-5
-1.718, 1.494e-5
-1.719, 1.522e-5
-1.720, 1.550e-5
-1.721, 1.567e-5
-1.722, 1.599e-5
-1.723, 1.612e-5
-1.724, 1.644e-5
-1.725, 1.678e-5
-1.726, 1.693e-5
-1.727, 1.718e-5
-1.728, 1.753e-5
-1.729, 1.771e-5
-1.730, 1.807e-5
-1.731, 1.836e-5
-1.732, 1.868e-5
-1.733, 1.893e-5
-1.734, 1.925e-5
-1.735, 1.966e-5
-1.736, 1.991e-5
-1.737, 2.021e-5
-1.738, 2.059e-5
-1.739, 2.094e-5
-1.740, 2.126e-5
-1.741, 2.171e-5
-1.742, 2.215e-5
-1.743, 2.240e-5
-1.744, 2.284e-5
-1.745, 2.316e-5
-1.746, 2.354e-5
-1.747, 2.398e-5
-1.748, 2.439e-5
-1.749, 2.477e-5
-1.750, 2.529e-5
-1.751, 2.573e-5
-1.752, 2.627e-5
-1.753, 2.662e-5
-1.754, 2.716e-5
-1.755, 2.768e-5
-1.756, 2.814e-5
-1.757, 2.869e-5
-1.758, 2.906e-5
-1.759, 2.963e-5
-1.760, 3.025e-5
-1.761, 3.081e-5
-1.762, 3.142e-5
-1.763, 3.193e-5
-1.764, 3.262e-5
-1.765, 3.315e-5
-1.766, 3.376e-5
-1.767, 3.463e-5
-1.768, 3.500e-5
-1.769, 3.579e-5
-1.770, 3.655e-5
-1.771, 3.716e-5
-1.772, 3.791e-5
-1.773, 3.864e-5
-1.774, 3.943e-5
-1.775, 4.014e-5
-1.776, 4.093e-5
-1.777, 4.164e-5
-1.778, 4.243e-5
-1.779, 4.347e-5
-1.780, 4.424e-5
-1.781, 4.504e-5
-1.782, 4.601e-5
-1.783, 4.682e-5
-1.784, 4.774e-5
-1.785, 4.879e-5
-1.786, 4.972e-5
-1.787, 5.074e-5
-1.788, 5.174e-5
-1.789, 5.268e-5
-1.790, 5.373e-5
-1.791, 5.476e-5
-1.792, 5.591e-5
-1.793, 5.706e-5
-1.794, 5.828e-5
-1.795, 5.956e-5
-1.796, 6.062e-5
-1.797, 6.185e-5
-1.798, 6.303e-5
-1.799, 6.436e-5
-1.800, 6.558e-5
-1.801, 6.692e-5
-1.802, 6.829e-5
-1.803, 6.967e-5
-1.804, 7.115e-5
-1.805, 7.265e-5
-1.806, 7.407e-5
-1.807, 7.560e-5
-1.808, 7.710e-5
-1.809, 7.865e-5
-1.810, 8.031e-5
-1.811, 8.194e-5
-1.812, 8.365e-5
-1.813, 8.525e-5
-1.814, 8.714e-5
-1.815, 8.895e-5
-1.816, 9.072e-5
-1.817, 9.251e-5
-1.818, 9.450e-5
-1.819, 9.652e-5
-1.820, 9.851e-5
-1.821, 1.005e-4
-1.822, 1.026e-4
-1.823, 1.045e-4
-1.824, 1.068e-4
-1.825, 1.089e-4
-1.826, 1.111e-4
-1.827, 1.134e-4
-1.828, 1.157e-4
-1.829, 1.181e-4
-1.830, 1.206e-4
-1.831, 1.231e-4
-1.832, 1.255e-4
-1.833, 1.280e-4
-1.834, 1.306e-4
-1.835, 1.333e-4
-1.836, 1.361e-4
-1.837, 1.388e-4
-1.838, 1.417e-4
-1.839, 1.446e-4
-1.840, 1.476e-4
-1.841, 1.504e-4
-1.842, 1.534e-4
-1.843, 1.566e-4
-1.844, 1.598e-4
-1.845, 1.630e-4
-1.846, 1.662e-4
-1.847, 1.696e-4
-1.848, 1.729e-4
-1.849, 1.763e-4
-1.850, 1.800e-4
-1.851, 1.835e-4
-1.852, 1.871e-4
-1.853, 1.907e-4
-1.854, 1.946e-4
-1.855, 1.983e-4
-1.856, 2.023e-4
-1.857, 2.063e-4
-1.858, 2.102e-4
-1.859, 2.143e-4
-1.860, 2.186e-4
-1.861, 2.226e-4
-1.862, 2.268e-4
-1.863, 2.312e-4
-1.864, 2.356e-4
-1.865, 2.401e-4
-1.866, 2.447e-4
-1.867, 2.492e-4
-1.868, 2.539e-4
-1.869, 2.590e-4
-1.870, 2.639e-4
-1.871, 2.690e-4
-1.872, 2.739e-4
-1.873, 2.790e-4
-1.874, 2.843e-4
-1.875, 2.896e-4
-1.876, 2.951e-4
-1.877, 3.004e-4
-1.878, 3.059e-4
-1.879, 3.116e-4
-1.880, 3.174e-4
-1.881, 3.233e-4
-1.882, 3.291e-4
-1.883, 3.350e-4
-1.884, 3.411e-4
-1.885, 3.473e-4
-1.886, 3.536e-4
-1.887, 3.599e-4
-1.888, 3.663e-4
-1.889, 3.730e-4
-1.890, 3.798e-4
-1.891, 3.865e-4
-1.892, 3.932e-4
-1.893, 3.999e-4
-1.894, 4.071e-4
-1.895, 4.143e-4
-1.896, 4.215e-4
-1.897, 4.286e-4
-1.898, 4.358e-4
-1.899, 4.435e-4
-1.900, 4.513e-4
-1.901, 4.589e-4
-1.902, 4.666e-4
-1.903, 4.746e-4
-1.904, 4.827e-4
-1.905, 4.909e-4
-1.906, 4.991e-4
-1.907, 5.074e-4
-1.908, 5.159e-4
-1.909, 5.245e-4
-1.910, 5.333e-4
-1.911, 5.421e-4
-1.912, 5.510e-4
-1.913, 5.599e-4
-1.914, 5.693e-4
-1.915, 5.786e-4
-1.916, 5.879e-4
-1.917, 5.972e-4
-1.918, 6.068e-4
-1.919, 6.167e-4
-1.920, 6.266e-4
-1.921, 6.366e-4
-1.922, 6.467e-4
-1.923, 6.569e-4
-1.924, 6.678e-4
-1.925, 6.782e-4
-1.926, 6.888e-4
-1.927, 6.995e-4
-1.928, 7.102e-4
-1.929, 7.216e-4
-1.930, 7.329e-4
-1.931, 7.442e-4
-1.932, 7.555e-4
-1.933, 7.669e-4
-1.934, 7.790e-4
-1.935, 7.910e-4
-1.936, 8.030e-4
-1.937, 8.154e-4
-1.938, 8.278e-4
-1.939, 8.406e-4
-1.940, 8.534e-4
-1.941, 8.656e-4
-1.942, 8.785e-4
-1.943, 8.915e-4
-1.944, 9.048e-4
-1.945, 9.184e-4
-1.946, 9.321e-4
-1.947, 9.455e-4
-1.948, 9.593e-4
-1.949, 9.731e-4
-1.950, 9.873e-4
-1.951, 1.002e-3
-1.952, 1.015e-3
-1.953, 1.030e-3
-1.954, 1.045e-3
-1.955, 1.060e-3
-1.956, 1.075e-3
-1.957, 1.089e-3
-1.958, 1.105e-3
-1.959, 1.121e-3
-1.960, 1.136e-3
-1.961, 1.152e-3
-1.962, 1.168e-3
-1.963, 1.184e-3
-1.964, 1.201e-3
-1.965, 1.216e-3
-1.966, 1.232e-3
-1.967, 1.249e-3
-1.968, 1.265e-3
-1.969, 1.283e-3
-1.970, 1.301e-3
-1.971, 1.319e-3
-1.972, 1.336e-3
-1.973, 1.353e-3
-1.974, 1.372e-3
-1.975, 1.390e-3
-1.976, 1.408e-3
-1.977, 1.427e-3
-1.978, 1.445e-3
-1.979, 1.465e-3
-1.980, 1.484e-3
-1.981, 1.504e-3
-1.982, 1.523e-3
-1.983, 1.543e-3
-1.984, 1.563e-3
-1.985, 1.584e-3
-1.986, 1.605e-3
-1.987, 1.626e-3
-1.988, 1.646e-3
-1.989, 1.668e-3
-1.990, 1.688e-3
-1.991, 1.710e-3
-1.992, 1.731e-3
-1.993, 1.753e-3
-1.994, 1.776e-3
-1.995, 1.798e-3
-1.996, 1.820e-3
-1.997, 1.841e-3
-1.998, 1.863e-3
-1.999, 1.887e-3
-2.000, 1.910e-3
-2.001, 1.933e-3
-2.002, 1.956e-3
-2.003, 1.981e-3
-2.004, 2.005e-3
-2.005, 2.029e-3
-2.006, 2.052e-3
-2.007, 2.076e-3
-2.008, 2.101e-3
-2.009, 2.126e-3
-2.010, 2.152e-3
-2.011, 2.177e-3
-2.012, 2.202e-3
-2.013, 2.229e-3
-2.014, 2.256e-3
-2.015, 2.285e-3
-2.016, 2.312e-3
-2.017, 2.339e-3
-2.018, 2.366e-3
-2.019, 2.396e-3
-2.020, 2.423e-3
-2.021, 2.451e-3
-2.022, 2.480e-3
-2.023, 2.509e-3
-2.024, 2.540e-3
-2.025, 2.571e-3
-2.026, 2.600e-3
-2.027, 2.629e-3
-2.028, 2.658e-3
-2.029, 2.687e-3
-2.030, 2.715e-3
-2.031, 2.745e-3
-2.032, 2.773e-3
-2.033, 2.802e-3
-2.034, 2.833e-3
-2.035, 2.864e-3
-2.036, 2.893e-3
-2.037, 2.921e-3
-2.038, 2.949e-3
-2.039, 2.981e-3
-2.040, 3.011e-3
-2.041, 3.041e-3
-2.042, 3.072e-3
-2.043, 3.103e-3
-2.044, 3.135e-3
-2.045, 3.166e-3
-2.046, 3.195e-3
-2.047, 3.227e-3
-2.048, 3.260e-3
-2.049, 3.292e-3
-2.050, 3.325e-3
-2.051, 3.360e-3
-2.052, 3.392e-3
-2.053, 3.425e-3
-2.054, 3.458e-3
-2.055, 3.492e-3
-2.056, 3.526e-3
-2.057, 3.558e-3
-2.058, 3.593e-3
-2.059, 3.629e-3
-2.060, 3.663e-3
-2.061, 3.698e-3
-2.062, 3.730e-3
-2.063, 3.765e-3
-2.064, 3.800e-3
-2.065, 3.836e-3
-2.066, 3.873e-3
-2.067, 3.911e-3
-2.068, 3.947e-3
-2.069, 3.986e-3
-2.070, 4.024e-3
-2.071, 4.060e-3
-2.072, 4.097e-3
-2.073, 4.132e-3
-2.074, 4.170e-3
-2.075, 4.206e-3
-2.076, 4.242e-3
-2.077, 4.279e-3
-2.078, 4.318e-3
-2.079, 4.355e-3
-2.080, 4.392e-3
-2.081, 4.427e-3
-2.082, 4.463e-3
-2.083, 4.500e-3
-2.084, 4.543e-3
-2.085, 4.583e-3
-2.086, 4.622e-3
-2.087, 4.657e-3
-2.088, 4.694e-3
-2.089, 4.734e-3
-2.090, 4.772e-3
-2.091, 4.810e-3
-2.092, 4.850e-3
-2.093, 4.890e-3
-2.094, 4.930e-3
-2.095, 4.966e-3
-2.096, 4.999e-3
-2.097, 5.039e-3
-2.098, 5.076e-3
-2.099, 5.118e-3
-2.100, 5.161e-3
-2.101, 5.200e-3
-2.102, 5.239e-3
-2.103, 5.277e-3
-2.104, 5.314e-3
-2.105, 5.355e-3
-2.106, 5.394e-3
-2.107, 5.434e-3
-2.108, 5.475e-3
-2.109, 5.517e-3
-2.110, 5.557e-3
-2.111, 5.596e-3
-2.112, 5.631e-3
-2.113, 5.672e-3
-2.114, 5.716e-3
-2.115, 5.758e-3
-2.116, 5.800e-3
-2.117, 5.840e-3
-2.118, 5.881e-3
-2.119, 5.921e-3
-2.120, 5.955e-3
-2.121, 5.996e-3
-2.122, 6.036e-3
-2.123, 6.076e-3
-2.124, 6.120e-3
-2.125, 6.162e-3
-2.126, 6.200e-3
-2.127, 6.240e-3
-2.128, 6.272e-3
-2.129, 6.315e-3
-2.130, 6.353e-3
-2.131, 6.391e-3
-2.132, 6.432e-3
-2.133, 6.474e-3
-2.134, 6.518e-3
-2.135, 6.557e-3
-2.136, 6.588e-3
-2.137, 6.629e-3
-2.138, 6.670e-3
-2.139, 6.712e-3
-2.140, 6.761e-3
-2.141, 6.801e-3
-2.142, 6.840e-3
-2.143, 6.879e-3
-2.144, 6.912e-3
-2.145, 6.949e-3
-2.146, 6.995e-3
-2.147, 7.032e-3
-2.148, 7.085e-3
-2.149, 7.138e-3
-2.150, 7.184e-3
-2.151, 7.243e-3
-2.152, 7.292e-3
-2.153, 7.368e-3
-2.154, 7.403e-3
-2.155, 7.445e-3
-2.156, 7.495e-3
-2.157, 7.553e-3
-2.158, 7.615e-3
-2.159, 7.679e-3
-2.160, 7.740e-3
-2.161, 7.787e-3
-2.162, 7.833e-3
-2.163, 7.875e-3
-2.164, 7.923e-3
-2.165, 7.982e-3
-2.166, 8.024e-3
-2.167, 8.069e-3
-2.168, 8.110e-3
-2.169, 8.159e-3
-2.170, 8.209e-3
-2.171, 8.254e-3
-2.172, 8.302e-3
-2.173, 8.351e-3
-2.174, 8.389e-3
-2.175, 8.437e-3
-2.176, 8.477e-3
-2.177, 8.515e-3
-2.178, 8.559e-3
-2.179, 8.602e-3
-2.180, 8.648e-3
-2.181, 8.696e-3
-2.182, 8.743e-3
-2.183, 8.792e-3
-2.184, 8.841e-3
-2.185, 8.905e-3
-2.186, 8.946e-3
-2.187, 8.984e-3
-2.188, 9.035e-3
-2.189, 9.080e-3
-2.190, 9.132e-3
-2.191, 9.167e-3
-2.192, 9.198e-3
-2.193, 9.234e-3
-2.194, 9.271e-3
-2.195, 9.313e-3
-2.196, 9.380e-3
-2.197, 9.435e-3
-2.198, 9.475e-3
-2.199, 9.523e-3
-2.200, 9.520e-3
-2.199, 9.452e-3
-2.198, 9.381e-3
-2.197, 9.305e-3
-2.196, 9.242e-3
-2.195, 9.187e-3
-2.194, 9.135e-3
-2.193, 9.077e-3
-2.192, 9.013e-3
-2.191, 8.948e-3
-2.190, 8.893e-3
-2.189, 8.836e-3
-2.188, 8.773e-3
-2.187, 8.709e-3
-2.186, 8.644e-3
-2.185, 8.598e-3
-2.184, 8.547e-3
-2.183, 8.472e-3
-2.182, 8.404e-3
-2.181, 8.339e-3
-2.180, 8.278e-3
-2.179, 8.206e-3
-2.178, 8.140e-3
-2.177, 8.091e-3
-2.176, 8.028e-3
-2.175, 7.970e-3
-2.174, 7.926e-3
-2.173, 7.880e-3
-2.172, 7.836e-3
-2.171, 7.788e-3
-2.170, 7.719e-3
-2.169, 7.661e-3
-2.168, 7.605e-3
-2.167, 7.554e-3
-2.166, 7.496e-3
-2.165, 7.436e-3
-2.164, 7.374e-3
-2.163, 7.318e-3
-2.162, 7.265e-3
-2.161, 7.212e-3
-2.160, 7.157e-3
-2.159, 7.113e-3
-2.158, 7.060e-3
-2.157, 7.003e-3
-2.156, 6.945e-3
-2.155, 6.894e-3
-2.154, 6.859e-3
-2.153, 6.806e-3
-2.152, 6.750e-3
-2.151, 6.704e-3
-2.150, 6.652e-3
-2.149, 6.597e-3
-2.148, 6.546e-3
-2.147, 6.497e-3
-2.146, 6.457e-3
-2.145, 6.409e-3
-2.144, 6.357e-3
-2.143, 6.305e-3
-2.142, 6.247e-3
-2.141, 6.196e-3
-2.140, 6.143e-3
-2.139, 6.092e-3
-2.138, 6.037e-3
-2.137, 5.981e-3
-2.136, 5.929e-3
-2.135, 5.878e-3
-2.134, 5.828e-3
-2.133, 5.783e-3
-2.132, 5.732e-3
-2.131, 5.685e-3
-2.130, 5.635e-3
-2.129, 5.584e-3
-2.128, 5.531e-3
-2.127, 5.478e-3
-2.126, 5.429e-3
-2.125, 5.379e-3
-2.124, 5.331e-3
-2.123, 5.284e-3
-2.122, 5.237e-3
-2.121, 5.188e-3
-2.120, 5.142e-3
-2.119, 5.097e-3
-2.118, 5.056e-3
-2.117, 5.009e-3
-2.116, 4.969e-3
-2.115, 4.924e-3
-2.114, 4.882e-3
-2.113, 4.838e-3
-2.112, 4.800e-3
-2.111, 4.758e-3
-2.110, 4.717e-3
-2.109, 4.680e-3
-2.108, 4.640e-3
-2.107, 4.597e-3
-2.106, 4.554e-3
-2.105, 4.514e-3
-2.104, 4.472e-3
-2.103, 4.428e-3
-2.102, 4.384e-3
-2.101, 4.342e-3
-2.100, 4.300e-3
-2.099, 4.260e-3
-2.098, 4.219e-3
-2.097, 4.180e-3
-2.096, 4.139e-3
-2.095, 4.102e-3
-2.094, 4.060e-3
-2.093, 4.020e-3
-2.092, 3.980e-3
-2.091, 3.944e-3
-2.090, 3.903e-3
-2.089, 3.863e-3
-2.088, 3.821e-3
-2.087, 3.781e-3
-2.086, 3.743e-3
-2.085, 3.705e-3
-2.084, 3.666e-3
-2.083, 3.633e-3
-2.082, 3.597e-3
-2.081, 3.560e-3
-2.080, 3.523e-3
-2.079, 3.485e-3
-2.078, 3.449e-3
-2.077, 3.417e-3
-2.076, 3.385e-3
-2.075, 3.355e-3
-2.074, 3.322e-3
-2.073, 3.287e-3
-2.072, 3.256e-3
-2.071, 3.222e-3
-2.070, 3.189e-3
-2.069, 3.156e-3
-2.068, 3.125e-3
-2.067, 3.092e-3
-2.066, 3.061e-3
-2.065, 3.028e-3
-2.064, 2.996e-3
-2.063, 2.962e-3
-2.062, 2.932e-3
-2.061, 2.901e-3
-2.060, 2.869e-3
-2.059, 2.838e-3
-2.058, 2.809e-3
-2.057, 2.777e-3
-2.056, 2.748e-3
-2.055, 2.717e-3
-2.054, 2.685e-3
-2.053, 2.656e-3
-2.052, 2.628e-3
-2.051, 2.598e-3
-2.050, 2.569e-3
-2.049, 2.539e-3
-2.048, 2.509e-3
-2.047, 2.481e-3
-2.046, 2.454e-3
-2.045, 2.426e-3
-2.044, 2.399e-3
-2.043, 2.371e-3
-2.042, 2.345e-3
-2.041, 2.319e-3
-2.040, 2.293e-3
-2.039, 2.266e-3
-2.038, 2.241e-3
-2.037, 2.217e-3
-2.036, 2.192e-3
-2.035, 2.169e-3
-2.034, 2.146e-3
-2.033, 2.122e-3
-2.032, 2.098e-3
-2.031, 2.075e-3
-2.030, 2.052e-3
-2.029, 2.028e-3
-2.028, 2.005e-3
-2.027, 1.983e-3
-2.026, 1.961e-3
-2.025, 1.939e-3
-2.024, 1.917e-3
-2.023, 1.895e-3
-2.022, 1.872e-3
-2.021, 1.851e-3
-2.020, 1.829e-3
-2.019, 1.809e-3
-2.018, 1.788e-3
-2.017, 1.769e-3
-2.016, 1.749e-3
-2.015, 1.728e-3
-2.014, 1.708e-3
-2.013, 1.689e-3
-2.012, 1.671e-3
-2.011, 1.651e-3
-2.010, 1.632e-3
-2.009, 1.613e-3
-2.008, 1.593e-3
-2.007, 1.574e-3
-2.006, 1.556e-3
-2.005, 1.537e-3
-2.004, 1.519e-3
-2.003, 1.501e-3
-2.002, 1.483e-3
-2.001, 1.465e-3
-2.000, 1.448e-3
-1.999, 1.431e-3
-1.998, 1.414e-3
-1.997, 1.397e-3
-1.996, 1.380e-3
-1.995, 1.363e-3
-1.994, 1.347e-3
-1.993, 1.330e-3
-1.992, 1.315e-3
-1.991, 1.300e-3
-1.990, 1.283e-3
-1.989, 1.268e-3
-1.988, 1.252e-3
-1.987, 1.237e-3
-1.986, 1.222e-3
-1.985, 1.208e-3
-1.984, 1.193e-3
-1.983, 1.179e-3
-1.982, 1.164e-3
-1.981, 1.150e-3
-1.980, 1.136e-3
-1.979, 1.121e-3
-1.978, 1.107e-3
-1.977, 1.094e-3
-1.976, 1.080e-3
-1.975, 1.066e-3
-1.974, 1.053e-3
-1.973, 1.040e-3
-1.972, 1.027e-3
-1.971, 1.014e-3
-1.970, 1.002e-3
-1.969, 9.884e-4
-1.968, 9.764e-4
-1.967, 9.637e-4
-1.966, 9.515e-4
-1.965, 9.395e-4
-1.964, 9.279e-4
-1.963, 9.164e-4
-1.962, 9.053e-4
-1.961, 8.938e-4
-1.960, 8.825e-4
-1.959, 8.710e-4
-1.958, 8.601e-4
-1.957, 8.494e-4
-1.956, 8.386e-4
-1.955, 8.278e-4
-1.954, 8.171e-4
-1.953, 8.069e-4
-1.952, 7.971e-4
-1.951, 7.869e-4
-1.950, 7.767e-4
-1.949, 7.672e-4
-1.948, 7.573e-4
-1.947, 7.477e-4
-1.946, 7.380e-4
-1.945, 7.284e-4
-1.944, 7.191e-4
-1.943, 7.102e-4
-1.942, 7.011e-4
-1.941, 6.921e-4
-1.940, 6.829e-4
-1.939, 6.741e-4
-1.938, 6.653e-4
-1.937, 6.565e-4
-1.936, 6.478e-4
-1.935, 6.393e-4
-1.934, 6.310e-4
-1.933, 6.228e-4
-1.932, 6.149e-4
-1.931, 6.070e-4
-1.930, 5.989e-4
-1.929, 5.910e-4
-1.928, 5.835e-4
-1.927, 5.757e-4
-1.926, 5.679e-4
-1.925, 5.606e-4
-1.924, 5.533e-4
-1.923, 5.461e-4
-1.922, 5.388e-4
-1.921, 5.314e-4
-1.920, 5.242e-4
-1.919, 5.172e-4
-1.918, 5.107e-4
-1.917, 5.041e-4
-1.916, 4.974e-4
-1.915, 4.911e-4
-1.914, 4.845e-4
-1.913, 4.783e-4
-1.912, 4.719e-4
-1.911, 4.655e-4
-1.910, 4.591e-4
-1.909, 4.531e-4
-1.908, 4.471e-4
-1.907, 4.410e-4
-1.906, 4.352e-4
-1.905, 4.290e-4
-1.904, 4.234e-4
-1.903, 4.179e-4
-1.902, 4.123e-4
-1.901, 4.069e-4
-1.900, 4.014e-4
-1.899, 3.959e-4
-1.898, 3.904e-4
-1.897, 3.850e-4
-1.896, 3.799e-4
-1.895, 3.745e-4
-1.894, 3.691e-4
-1.893, 3.640e-4
-1.892, 3.591e-4
-1.891, 3.542e-4
-1.890, 3.491e-4
-1.889, 3.440e-4
-1.888, 3.394e-4
-1.887, 3.348e-4
-1.886, 3.300e-4
-1.885, 3.254e-4
-1.884, 3.208e-4
-1.883, 3.164e-4
-1.882, 3.119e-4
-1.881, 3.074e-4
-1.880, 3.032e-4
-1.879, 2.988e-4
-1.878, 2.947e-4
-1.877, 2.904e-4
-1.876, 2.863e-4
-1.875, 2.822e-4
-1.874, 2.781e-4
-1.873, 2.742e-4
-1.872, 2.703e-4
-1.871, 2.665e-4
-1.870, 2.626e-4
-1.869, 2.587e-4
-1.868, 2.550e-4
-1.867, 2.514e-4
-1.866, 2.478e-4
-1.865, 2.442e-4
-1.864, 2.407e-4
-1.863, 2.372e-4
-1.862, 2.337e-4
-1.861, 2.304e-4
-1.860, 2.271e-4
-1.859, 2.237e-4
-1.858, 2.208e-4
-1.857, 2.174e-4
-1.856, 2.142e-4
-1.855, 2.110e-4
-1.854, 2.079e-4
-1.853, 2.050e-4
-1.852, 2.019e-4
-1.851, 1.987e-4
-1.850, 1.960e-4
-1.849, 1.931e-4
-1.848, 1.903e-4
-1.847, 1.874e-4
-1.846, 1.847e-4
-1.845, 1.818e-4
-1.844, 1.791e-4
-1.843, 1.762e-4
-1.842, 1.737e-4
-1.841, 1.711e-4
-1.840, 1.685e-4
-1.839, 1.659e-4
-1.838, 1.634e-4
-1.837, 1.609e-4
-1.836, 1.585e-4
-1.835, 1.561e-4
-1.834, 1.536e-4
-1.833, 1.514e-4
-1.832, 1.491e-4
-1.831, 1.467e-4
-1.830, 1.444e-4
-1.829, 1.420e-4
-1.828, 1.399e-4
-1.827, 1.378e-4
-1.826, 1.358e-4
-1.825, 1.335e-4
-1.824, 1.315e-4
-1.823, 1.295e-4
-1.822, 1.276e-4
-1.821, 1.254e-4
-1.820, 1.235e-4
-1.819, 1.215e-4
-1.818, 1.196e-4
-1.817, 1.176e-4
-1.816, 1.158e-4
-1.815, 1.140e-4
-1.814, 1.122e-4
-1.813, 1.106e-4
-1.812, 1.089e-4
-1.811, 1.071e-4
-1.810, 1.053e-4
-1.809, 1.037e-4
-1.808, 1.021e-4
-1.807, 1.004e-4
-1.806, 9.887e-5
-1.805, 9.719e-5
-1.804, 9.563e-5
-1.803, 9.423e-5
-1.802, 9.267e-5
-1.801, 9.109e-5
-1.800, 8.967e-5
-1.799, 8.827e-5
-1.798, 8.702e-5
-1.797, 8.541e-5
-1.796, 8.413e-5
-1.795, 8.281e-5
-1.794, 8.148e-5
-1.793, 8.020e-5
-1.792, 7.877e-5
-1.791, 7.746e-5
-1.790, 7.615e-5
-1.789, 7.496e-5
-1.788, 7.385e-5
-1.787, 7.258e-5
-1.786, 7.136e-5
-1.785, 7.012e-5
-1.784, 6.901e-5
-1.783, 6.789e-5
-1.782, 6.680e-5
-1.781, 6.568e-5
-1.780, 6.466e-5
-1.779, 6.359e-5
-1.778, 6.261e-5
-1.777, 6.159e-5
-1.776, 6.055e-5
-1.775, 5.956e-5
-1.774, 5.851e-5
-1.773, 5.763e-5
-1.772, 5.659e-5
-1.771, 5.564e-5
-1.770, 5.472e-5
-1.769, 5.386e-5
-1.768, 5.296e-5
-1.767, 5.206e-5
-1.766, 5.113e-5
-1.765, 5.031e-5
-1.764, 4.945e-5
-1.763, 4.868e-5
-1.762, 4.788e-5
-1.761, 4.711e-5
-1.760, 4.619e-5
-1.759, 4.549e-5
-1.758, 4.476e-5
-1.757, 4.392e-5
-1.756, 4.316e-5
-1.755, 4.247e-5
-1.754, 4.170e-5
-1.753, 4.106e-5
-1.752, 4.029e-5
-1.751, 3.966e-5
-1.750, 3.894e-5
-1.749, 3.842e-5
-1.748, 3.769e-5
-1.747, 3.702e-5
-1.746, 3.639e-5
-1.745, 3.577e-5
-1.744, 3.502e-5
-1.743, 3.459e-5
-1.742, 3.395e-5
-1.741, 3.339e-5
-1.740, 3.270e-5
-1.739, 3.217e-5
-1.738, 3.162e-5
-1.737, 3.106e-5
-1.736, 3.060e-5
-1.735, 3.004e-5
-1.734, 2.943e-5
-1.733, 2.902e-5
-1.732, 2.845e-5
-1.731, 2.795e-5
-1.730, 2.745e-5
-1.729, 2.705e-5
-1.728, 2.652e-5
-1.727, 2.602e-5
-1.726, 2.565e-5
-1.725, 2.514e-5
-1.724, 2.469e-5
-1.723, 2.437e-5
-1.722, 2.387e-5
-1.721, 2.344e-5
-1.720, 2.310e-5
-1.719, 2.265e-5
-1.718, 2.237e-5
-1.717, 2.190e-5
-1.716, 2.156e-5
-1.715, 2.106e-5
-1.714, 2.070e-5
-1.713, 2.036e-5
-1.712, 1.999e-5
-1.711, 1.977e-5
-1.710, 1.930e-5
-1.709, 1.899e-5
-1.708, 1.869e-5
-1.707, 1.836e-5
-1.706, 1.801e-5
-1.705, 1.770e-5
-1.704, 1.745e-5
-1.703, 1.713e-5
-1.702, 1.671e-5
-1.701, 1.645e-5
-1.700, 1.620e-5
-1.699, 1.590e-5
-1.698, 1.563e-5
-1.697, 1.533e-5
-1.696, 1.509e-5
-1.695, 1.486e-5
-1.694, 1.464e-5
-1.693, 1.436e-5
-1.692, 1.407e-5
-1.691, 1.390e-5
-1.690, 1.350e-5
-1.689, 1.330e-5
-1.688, 1.311e-5
-1.687, 1.289e-5
-1.686, 1.274e-5
-1.685, 1.244e-5
-1.684, 1.225e-5
-1.683, 1.201e-5
-1.682, 1.178e-5
-1.681, 1.165e-5
-1.680, 1.134e-5
-1.679, 1.120e-5
-1.678, 1.106e-5
-1.677, 1.081e-5
-1.676, 1.059e-5
-1.675, 1.035e-5
-1.674, 1.020e-5
-1.673, 1.014e-5
-1.672, 9.933e-6
-1.671, 9.736e-6
-1.670, 9.578e-6
-1.669, 9.489e-6
-1.668, 9.302e-6
-1.667, 9.094e-6
-1.666, 8.996e-6
-1.665, 8.759e-6
-1.664, 8.641e-6
-1.663, 8.443e-6
-1.662, 8.315e-6
-1.661, 8.197e-6
-1.660, 7.940e-6
-1.659, 7.881e-6
-1.658, 7.782e-6
-1.657, 7.536e-6
-1.656, 7.486e-6
-1.655, 7.289e-6
-1.654, 7.289e-6
-1.653, 7.180e-6
-1.652, 6.944e-6
-1.651, 6.855e-6
-1.650, 6.658e-6
-1.649, 6.648e-6
-1.648, 6.431e-6
-1.647, 6.362e-6
-1.646, 6.233e-6
-1.645, 6.075e-6
-1.644, 6.115e-6
-1.643, 5.987e-6
-1.642, 5.829e-6
-1.641, 5.779e-6
-1.640, 5.641e-6
-1.639, 5.533e-6
-1.638, 5.276e-6
-1.637, 5.197e-6
-1.636, 5.128e-6
-1.635, 5.059e-6
-1.634, 5.010e-6
-1.633, 4.921e-6
-1.632, 4.724e-6
-1.631, 4.744e-6
-1.630, 4.596e-6
-1.629, 4.546e-6
-1.628, 4.487e-6
-1.627, 4.359e-6
-1.626, 4.240e-6
-1.625, 4.211e-6
-1.624, 4.211e-6
-1.623, 4.092e-6
-1.622, 3.895e-6
-1.621, 3.935e-6
-1.620, 3.787e-6
-1.619, 3.796e-6
-1.618, 3.747e-6
-1.617, 3.560e-6
-1.616, 3.609e-6
-1.615, 3.520e-6
-1.614, 3.471e-6
-1.613, 3.264e-6
-1.612, 3.224e-6
-1.611, 3.224e-6
-1.610, 3.224e-6
-1.609, 3.224e-6
-1.608, 3.126e-6
-1.607, 2.958e-6
-1.606, 2.968e-6
-1.605, 2.830e-6
-1.604, 2.830e-6
-1.603, 2.682e-6
-1.602, 2.701e-6
-1.601, 2.731e-6
-1.600, 2.642e-6
-1.599, 2.563e-6
-1.598, 2.504e-6
-1.597, 2.395e-6
-1.596, 2.415e-6
-1.595, 2.425e-6
-1.594, 2.356e-6
-1.593, 2.247e-6
-1.592, 2.169e-6
-1.591, 2.198e-6
-1.590, 2.060e-6
-1.589, 2.159e-6
-1.588, 2.080e-6
-1.587, 1.922e-6
-1.586, 1.951e-6
-1.585, 1.951e-6
-1.584, 1.892e-6
-1.583, 1.813e-6
-1.582, 1.774e-6
-1.581, 1.764e-6
-1.580, 1.665e-6
-1.579, 1.774e-6
-1.578, 1.646e-6
-1.577, 1.547e-6
-1.576, 1.636e-6
-1.575, 1.527e-6
-1.574, 1.488e-6
-1.573, 1.458e-6
-1.572, 1.389e-6
-1.571, 1.409e-6
-1.570, 1.399e-6
-1.569, 1.438e-6
-1.568, 1.350e-6
-1.567, 1.320e-6
-1.566, 1.320e-6
-1.565, 1.202e-6
-1.564, 1.202e-6
-1.563, 1.192e-6
-1.562, 1.202e-6
-1.561, 1.152e-6
-1.560, 1.064e-6
-1.559, 1.083e-6
-1.558, 1.083e-6
-1.557, 1.034e-6
-1.556, 9.452e-7
-1.555, 9.452e-7
-1.554, 9.452e-7
-1.553, 9.452e-7
-1.552, 9.452e-7
-1.551, 8.761e-7
-1.550, 8.465e-7
-1.549, 8.860e-7
-1.548, 7.676e-7
-1.547, 8.465e-7
-1.546, 7.676e-7
-1.545, 7.577e-7
-1.544, 7.774e-7
-1.543, 6.689e-7
-1.542, 6.985e-7
-1.541, 7.084e-7
-1.540, 6.590e-7
-1.539, 6.590e-7
-1.538, 5.604e-7
-1.537, 5.998e-7
-1.536, 5.505e-7
-1.535, 4.519e-7
-1.534, 5.998e-7
-1.533, 4.617e-7
-1.532, 4.124e-7
-1.531, 4.913e-7
-1.530, 3.729e-7
-1.529, 4.716e-7
-1.528, 3.137e-7
-1.527, 3.631e-7
-1.526, 3.927e-7
-1.525, 4.124e-7
-1.524, 3.729e-7
-1.523, 2.743e-7
-1.522, 2.644e-7
-1.521, 2.841e-7
-1.520, 2.940e-7
-1.519, 2.940e-7
-1.518, 3.236e-7
-1.517, 1.362e-7
-1.516, 1.460e-7
-1.515, 1.855e-7
-1.514, 3.039e-7
-1.513, 1.953e-7
-1.512, 2.052e-7
-1.511, 2.151e-7
-1.510, 1.164e-7
-1.509, 1.460e-7
-1.508, 1.460e-7
-1.507, 1.164e-7
-1.506, 9.669e-8
-1.505, 9.669e-8
-1.504, 5.722e-8
-1.503, 1.776e-8
-1.502, 9.669e-8
-1.501, 1.066e-7
-1.500, -1.184e-8
-1.499, 1.362e-7
-1.498, 1.776e-8
-1.497, -1.973e-9
-1.496, -6.117e-8
-1.495, -7.103e-8
-1.494, -7.103e-8
-1.493, -1.184e-8
-1.492, 4.736e-8
-1.491, 3.749e-8
-1.490, -5.130e-8
-1.489, -2.171e-8
-1.488, -9.077e-8
-1.487, -1.105e-7
-1.486, -6.117e-8
-1.485, -1.598e-7
-1.484, -1.105e-7
-1.483, -1.993e-7
-1.482, -7.103e-8
-1.481, -1.894e-7
-1.480, -1.598e-7
-1.479, -1.796e-7
-1.478, -2.190e-7
-1.477, -1.598e-7
-1.476, -1.894e-7
-1.475, -2.388e-7
-1.474, -1.401e-7
-1.473, -1.993e-7
-1.472, -2.289e-7
-1.471, -2.190e-7
-1.470, -2.980e-7
-1.469, -1.894e-7
-1.468, -1.993e-7
-1.467, -2.388e-7
-1.466, -2.782e-7
-1.465, -3.275e-7
-1.464, -2.684e-7
-1.463, -3.670e-7
-1.462, -3.177e-7
-1.461, -3.571e-7
-1.460, -3.177e-7
-1.459, -3.177e-7
-1.458, -3.473e-7
-1.457, -2.980e-7
-1.456, -3.374e-7
-1.455, -3.867e-7
-1.454, -2.585e-7
-1.453, -3.670e-7
-1.452, -3.571e-7
-1.451, -2.980e-7
-1.450, -3.867e-7
-1.449, -3.275e-7
-1.448, -3.966e-7
-1.447, -3.078e-7
-1.446, -4.657e-7
-1.445, -3.571e-7
-1.444, -2.980e-7
-1.443, -4.953e-7
-1.442, -3.867e-7
-1.441, -4.558e-7
-1.440, -4.262e-7
-1.439, -4.262e-7
-1.438, -4.065e-7
-1.437, -4.163e-7
-1.436, -3.374e-7
-1.435, -3.966e-7
-1.434, -3.966e-7
-1.433, -5.051e-7
-1.432, -4.953e-7
-1.431, -5.347e-7
-1.430, -5.249e-7
-1.429, -4.854e-7
-1.428, -4.558e-7
-1.427, -4.854e-7
-1.426, -5.347e-7
-1.425, -5.643e-7
-1.424, -5.150e-7
-1.423, -5.249e-7
-1.422, -4.953e-7
-1.421, -6.137e-7
-1.420, -5.150e-7
-1.419, -4.953e-7
-1.418, -6.235e-7
-1.417, -6.235e-7
-1.416, -6.334e-7
-1.415, -5.347e-7
-1.414, -6.038e-7
-1.413, -6.235e-7
-1.412, -5.841e-7
-1.411, -5.841e-7
-1.410, -6.433e-7
-1.409, -5.446e-7
-1.408, -7.025e-7
-1.407, -5.347e-7
-1.406, -6.926e-7
-1.405, -6.433e-7
-1.404, -6.038e-7
-1.403, -6.531e-7
-1.402, -6.531e-7
-1.401, -6.630e-7
-1.400, -6.433e-7
-1.399, -6.235e-7
-1.398, -5.841e-7
-1.397, -6.334e-7
-1.396, -6.630e-7
-1.395, -7.321e-7
-1.394, -6.827e-7
-1.393, -5.939e-7
-1.392, -7.025e-7
-1.391, -7.321e-7
-1.390, -7.025e-7
-1.389, -7.025e-7
-1.388, -7.518e-7
-1.387, -5.347e-7
-1.386, -6.926e-7
-1.385, -7.025e-7
-1.384, -7.222e-7
-1.383, -8.208e-7
-1.382, -7.518e-7
-1.381, -7.715e-7
-1.380, -7.419e-7
-1.379, -6.827e-7
-1.378, -7.715e-7
-1.377, -6.729e-7
-1.376, -7.715e-7
-1.375, -6.926e-7
-1.374, -7.814e-7
-1.373, -7.321e-7
-1.372, -7.419e-7
-1.371, -7.025e-7
-1.370, -7.321e-7
-1.369, -7.222e-7
-1.368, -6.827e-7
-1.367, -7.321e-7
-1.366, -8.011e-7
-1.365, -7.814e-7
-1.364, -7.419e-7
-1.363, -7.912e-7
-1.362, -7.715e-7
-1.361, -8.011e-7
-1.360, -6.827e-7
-1.359, -8.110e-7
-1.358, -8.307e-7
-1.357, -8.504e-7
-1.356, -8.603e-7
-1.355, -8.406e-7
-1.354, -7.814e-7
-1.353, -8.603e-7
-1.352, -7.814e-7
-1.351, -8.011e-7
-1.350, -8.208e-7
-1.349, -8.307e-7
-1.348, -8.110e-7
-1.347, -8.307e-7
-1.346, -8.110e-7
-1.345, -8.110e-7
-1.344, -8.110e-7
-1.343, -8.504e-7
-1.342, -8.504e-7
-1.341, -8.504e-7
-1.340, -8.208e-7
-1.339, -9.294e-7
-1.338, -8.800e-7
-1.337, -8.406e-7
-1.336, -8.011e-7
-1.335, -8.504e-7
-1.334, -8.998e-7
-1.333, -8.603e-7
-1.332, -7.814e-7
-1.331, -9.491e-7
-1.330, -8.702e-7
-1.329, -9.195e-7
-1.328, -8.702e-7
-1.327, -8.504e-7
-1.326, -8.307e-7
-1.325, -9.096e-7
-1.324, -8.504e-7
-1.323, -9.491e-7
-1.322, -8.208e-7
-1.321, -9.590e-7
-1.320, -8.307e-7
-1.319, -9.491e-7
-1.318, -9.096e-7
-1.317, -8.603e-7
-1.316, -9.294e-7
-1.315, -9.195e-7
-1.314, -8.504e-7
-1.313, -9.392e-7
-1.312, -9.096e-7
-1.311, -9.294e-7
-1.310, -8.208e-7
-1.309, -8.504e-7
-1.308, -9.195e-7
-1.307, -8.603e-7
-1.306, -9.984e-7
-1.305, -8.800e-7
-1.304, -9.392e-7
-1.303, -9.392e-7
-1.302, -8.899e-7
-1.301, -9.590e-7
-1.300, -8.800e-7
-1.299, -9.787e-7
-1.298, -1.008e-6
-1.297, -9.195e-7
-1.296, -9.096e-7
-1.295, -8.702e-7
-1.294, -9.688e-7
-1.293, -8.899e-7
-1.292, -9.294e-7
-1.291, -1.048e-6
-1.290, -9.392e-7
-1.289, -9.096e-7
-1.288, -8.899e-7
-1.287, -9.294e-7
-1.286, -1.008e-6
-1.285, -8.899e-7
-1.284, -1.018e-6
-1.283, -9.491e-7
-1.282, -9.590e-7
-1.281, -1.018e-6
-1.280, -9.886e-7
-1.279, -1.107e-6
-1.278, -1.008e-6
-1.277, -1.087e-6
-1.276, -9.787e-7
-1.275, -1.018e-6
-1.274, -1.038e-6
-1.273, -9.886e-7
-1.272, -9.590e-7
-1.271, -1.048e-6
-1.270, -9.688e-7
-1.269, -1.028e-6
-1.268, -1.028e-6
-1.267, -1.028e-6
-1.266, -1.097e-6
-1.265, -9.886e-7
-1.264, -1.107e-6
-1.263, -1.048e-6
-1.262, -1.048e-6
-1.261, -9.590e-7
-1.260, -1.097e-6
-1.259, -1.038e-6
-1.258, -1.077e-6
-1.257, -9.688e-7
-1.256, -1.008e-6
-1.255, -9.787e-7
-1.254, -1.097e-6
-1.253, -1.097e-6
-1.252, -1.028e-6
-1.251, -1.117e-6
-1.250, -1.038e-6
-1.249, -1.018e-6
-1.248, -1.077e-6
-1.247, -1.087e-6
-1.246, -1.097e-6
-1.245, -1.028e-6
-1.244, -1.087e-6
-1.243, -1.067e-6
-1.242, -1.107e-6
-1.241, -1.137e-6
-1.240, -9.392e-7
-1.239, -1.107e-6
-1.238, -1.008e-6
-1.237, -1.087e-6
-1.236, -1.077e-6
-1.235, -1.038e-6
-1.234, -1.107e-6
-1.233, -1.107e-6
-1.232, -1.077e-6
-1.231, -1.038e-6
-1.230, -1.018e-6
-1.229, -1.087e-6
-1.228, -1.285e-6
-1.227, -1.127e-6
-1.226, -1.156e-6
-1.225, -1.087e-6
-1.224, -1.186e-6
-1.223, -1.166e-6
-1.222, -1.156e-6
-1.221, -1.117e-6
-1.220, -1.127e-6
-1.219, -1.127e-6
-1.218, -1.156e-6
-1.217, -1.048e-6
-1.216, -1.245e-6
-1.215, -1.186e-6
-1.214, -1.235e-6
-1.213, -1.225e-6
-1.212, -1.196e-6
-1.211, -1.137e-6
-1.210, -1.087e-6
-1.209, -1.235e-6
-1.208, -1.156e-6
-1.207, -1.137e-6
-1.206, -1.137e-6
-1.205, -1.186e-6
-1.204, -1.186e-6
-1.203, -1.206e-6
-1.202, -1.265e-6
-1.201, -1.176e-6
-1.200, -1.176e-6
-1.199, -1.245e-6
-1.198, -1.137e-6
-1.197, -1.215e-6
-1.196, -1.215e-6
-1.195, -1.067e-6
-1.194, -1.166e-6
-1.193, -1.215e-6
-1.192, -1.176e-6
-1.191, -1.265e-6
-1.190, -1.176e-6
-1.189, -1.215e-6
-1.188, -1.206e-6
-1.187, -1.215e-6
-1.186, -1.275e-6
-1.185, -1.117e-6
-1.184, -1.275e-6
-1.183, -1.176e-6
-1.182, -1.225e-6
-1.181, -1.294e-6
-1.180, -1.146e-6
-1.179, -1.117e-6
-1.178, -1.265e-6
-1.177, -1.285e-6
-1.176, -1.235e-6
-1.175, -1.285e-6
-1.174, -1.304e-6
-1.173, -1.265e-6
-1.172, -1.225e-6
-1.171, -1.334e-6
-1.170, -1.117e-6
-1.169, -1.265e-6
-1.168, -1.215e-6
-1.167, -1.294e-6
-1.166, -1.235e-6
-1.165, -1.225e-6
-1.164, -1.235e-6
-1.163, -1.324e-6
-1.162, -1.215e-6
-1.161, -1.334e-6
-1.160, -1.245e-6
-1.159, -1.255e-6
-1.158, -1.294e-6
-1.157, -1.294e-6
-1.156, -1.215e-6
-1.155, -1.225e-6
-1.154, -1.225e-6
-1.153, -1.245e-6
-1.152, -1.314e-6
-1.151, -1.324e-6
-1.150, -1.235e-6
-1.149, -1.294e-6
-1.148, -1.265e-6
-1.147, -1.245e-6
-1.146, -1.334e-6
-1.145, -1.215e-6
-1.144, -1.383e-6
-1.143, -1.265e-6
-1.142, -1.344e-6
-1.141, -1.275e-6
-1.140, -1.235e-6
-1.139, -1.442e-6
-1.138, -1.294e-6
-1.137, -1.314e-6
-1.136, -1.314e-6
-1.135, -1.196e-6
-1.134, -1.354e-6
-1.133, -1.354e-6
-1.132, -1.294e-6
-1.131, -1.304e-6
-1.130, -1.225e-6
-1.129, -1.314e-6
-1.128, -1.285e-6
-1.127, -1.304e-6
-1.126, -1.344e-6
-1.125, -1.275e-6
-1.124, -1.275e-6
-1.123, -1.354e-6
-1.122, -1.383e-6
-1.121, -1.324e-6
-1.120, -1.363e-6
-1.119, -1.344e-6
-1.118, -1.314e-6
-1.117, -1.314e-6
-1.116, -1.354e-6
-1.115, -1.314e-6
-1.114, -1.363e-6
-1.113, -1.363e-6
-1.112, -1.373e-6
-1.111, -1.354e-6
-1.110, -1.294e-6
-1.109, -1.363e-6
-1.108, -1.393e-6
-1.107, -1.354e-6
-1.106, -1.294e-6
-1.105, -1.294e-6
-1.104, -1.344e-6
-1.103, -1.275e-6
-1.102, -1.393e-6
-1.101, -1.442e-6
-1.100, -1.354e-6
-1.099, -1.393e-6
-1.098, -1.363e-6
-1.097, -1.482e-6
-1.096, -1.413e-6
-1.095, -1.304e-6
-1.094, -1.334e-6
-1.093, -1.452e-6
-1.092, -1.383e-6
-1.091, -1.393e-6
-1.090, -1.344e-6
-1.089, -1.344e-6
-1.088, -1.442e-6
-1.087, -1.433e-6
-1.086, -1.403e-6
-1.085, -1.393e-6
-1.084, -1.363e-6
-1.083, -1.285e-6
-1.082, -1.304e-6
-1.081, -1.482e-6
-1.080, -1.354e-6
-1.079, -1.482e-6
-1.078, -1.334e-6
-1.077, -1.433e-6
-1.076, -1.413e-6
-1.075, -1.423e-6
-1.074, -1.393e-6
-1.073, -1.393e-6
-1.072, -1.433e-6
-1.071, -1.452e-6
-1.070, -1.344e-6
-1.069, -1.462e-6
-1.068, -1.452e-6
-1.067, -1.452e-6
-1.066, -1.383e-6
-1.065, -1.373e-6
-1.064, -1.423e-6
-1.063, -1.373e-6
-1.062, -1.492e-6
-1.061, -1.472e-6
-1.060, -1.433e-6
-1.059, -1.423e-6
-1.058, -1.413e-6
-1.057, -1.413e-6
-1.056, -1.363e-6
-1.055, -1.482e-6
-1.054, -1.403e-6
-1.053, -1.433e-6
-1.052, -1.413e-6
-1.051, -1.354e-6
-1.050, -1.393e-6
-1.049, -1.571e-6
-1.048, -1.433e-6
-1.047, -1.511e-6
-1.046, -1.511e-6
-1.045, -1.383e-6
-1.044, -1.452e-6
-1.043, -1.502e-6
-1.042, -1.462e-6
-1.041, -1.403e-6
-1.040, -1.363e-6
-1.039, -1.551e-6
-1.038, -1.472e-6
-1.037, -1.531e-6
-1.036, -1.502e-6
-1.035, -1.383e-6
-1.034, -1.531e-6
-1.033, -1.482e-6
-1.032, -1.581e-6
-1.031, -1.541e-6
-1.030, -1.423e-6
-1.029, -1.482e-6
-1.028, -1.462e-6
-1.027, -1.462e-6
-1.026, -1.393e-6
-1.025, -1.403e-6
-1.024, -1.561e-6
-1.023, -1.581e-6
-1.022, -1.590e-6
-1.021, -1.551e-6
-1.020, -1.551e-6
-1.019, -1.442e-6
-1.018, -1.472e-6
-1.017, -1.561e-6
-1.016, -1.482e-6
-1.015, -1.541e-6
-1.014, -1.551e-6
-1.013, -1.551e-6
-1.012, -1.551e-6
-1.011, -1.590e-6
-1.010, -1.531e-6
-1.009, -1.600e-6
-1.008, -1.600e-6
-1.007, -1.511e-6
-1.006, -1.531e-6
-1.005, -1.561e-6
-1.004, -1.620e-6
-1.003, -1.571e-6
-1.002, -1.551e-6
-1.001, -1.610e-6
