Oct. 27, 2024   17:43:38
Cyclic Voltammetry
File: c:/users/guazh/data/banditlqv2round1/2024-10-24-exp600\exp600-2024-10-27t17_13_23-h2koh\exp600_cv_sr_300mvs_efin_-2200mv.bin
Data Source:  Experiment
Instrument Model:  CHI760E
Header: CV ran at 300 mVs
Note: 

Init E (V) = -1
High E (V) = -1
Low E (V) = -2.2
Final E (V) = -1
Init P/N = N
Scan Rate (V/s) = 0.3
Segment = 3
Sample Interval (V) = 0.001
Quiet Time (sec) = 2
Sensitivity (A/V) = 0.01
Comp R (ohm) = 0.9

Results:

Channel 1:
Segment 1:

Segment 2:

Segment 3:

Potential/V, Current/A

-1.000, 3.239e-6
-1.001, 3.239e-6
-1.002, 1.559e-7
-1.003, 1.559e-7
-1.004, 1.559e-7
-1.005, 3.239e-6
-1.006, 1.559e-7
-1.007, 1.559e-7
-1.008, 1.559e-7
-1.009, 3.239e-6
-1.010, 1.559e-7
-1.011, 1.559e-7
-1.012, 1.559e-7
-1.013, 3.239e-6
-1.014, 3.239e-6
-1.015, 3.239e-6
-1.016, 1.559e-7
-1.017, 3.239e-6
-1.018, 1.559e-7
-1.019, 1.559e-7
-1.020, 3.239e-6
-1.021, 3.239e-6
-1.022, 3.239e-6
-1.023, 1.559e-7
-1.024, 1.559e-7
-1.025, 3.239e-6
-1.026, 1.559e-7
-1.027, 3.239e-6
-1.028, 3.239e-6
-1.029, 1.559e-7
-1.030, 1.559e-7
-1.031, 1.559e-7
-1.032, 3.239e-6
-1.033, 3.239e-6
-1.034, 1.559e-7
-1.035, 3.239e-6
-1.036, 1.559e-7
-1.037, 1.559e-7
-1.038, 3.239e-6
-1.039, 1.559e-7
-1.040, 3.239e-6
-1.041, 3.239e-6
-1.042, 3.239e-6
-1.043, 1.559e-7
-1.044, 3.239e-6
-1.045, 3.239e-6
-1.046, 1.559e-7
-1.047, 3.239e-6
-1.048, 1.559e-7
-1.049, 3.239e-6
-1.050, 3.239e-6
-1.051, 1.559e-7
-1.052, 3.239e-6
-1.053, 3.239e-6
-1.054, 1.559e-7
-1.055, 3.239e-6
-1.056, 3.239e-6
-1.057, 3.239e-6
-1.058, 3.239e-6
-1.059, 3.239e-6
-1.060, 3.239e-6
-1.061, 1.559e-7
-1.062, 3.239e-6
-1.063, 3.239e-6
-1.064, 3.239e-6
-1.065, 3.239e-6
-1.066, 3.239e-6
-1.067, 3.239e-6
-1.068, 3.239e-6
-1.069, 3.239e-6
-1.070, 3.239e-6
-1.071, 3.239e-6
-1.072, 3.239e-6
-1.073, 3.239e-6
-1.074, 3.239e-6
-1.075, 3.239e-6
-1.076, 3.239e-6
-1.077, 3.239e-6
-1.078, 3.239e-6
-1.079, 3.239e-6
-1.080, 3.239e-6
-1.081, 3.239e-6
-1.082, 3.239e-6
-1.083, 3.239e-6
-1.084, 3.239e-6
-1.085, 3.239e-6
-1.086, 3.239e-6
-1.087, 3.239e-6
-1.088, 3.239e-6
-1.089, 3.239e-6
-1.090, 3.239e-6
-1.091, 3.239e-6
-1.092, 3.239e-6
-1.093, 3.239e-6
-1.094, 3.239e-6
-1.095, 3.239e-6
-1.096, 3.239e-6
-1.097, 3.239e-6
-1.098, 3.239e-6
-1.099, 3.239e-6
-1.100, 3.239e-6
-1.101, 3.239e-6
-1.102, 3.239e-6
-1.103, 3.239e-6
-1.104, 3.239e-6
-1.105, 3.239e-6
-1.106, 3.239e-6
-1.107, 3.239e-6
-1.108, 3.239e-6
-1.109, 3.239e-6
-1.110, 3.239e-6
-1.111, 3.239e-6
-1.112, 3.239e-6
-1.113, 3.239e-6
-1.114, 3.239e-6
-1.115, 3.239e-6
-1.116, 3.239e-6
-1.117, 3.239e-6
-1.118, 3.239e-6
-1.119, 3.239e-6
-1.120, 3.239e-6
-1.121, 3.239e-6
-1.122, 3.239e-6
-1.123, 3.239e-6
-1.124, 3.239e-6
-1.125, 3.239e-6
-1.126, 3.239e-6
-1.127, 3.239e-6
-1.128, 3.239e-6
-1.129, 3.239e-6
-1.130, 3.239e-6
-1.131, 3.239e-6
-1.132, 3.239e-6
-1.133, 3.239e-6
-1.134, 3.239e-6
-1.135, 3.239e-6
-1.136, 3.239e-6
-1.137, 3.239e-6
-1.138, 3.239e-6
-1.139, 3.239e-6
-1.140, 3.239e-6
-1.141, 3.239e-6
-1.142, 3.239e-6
-1.143, 3.239e-6
-1.144, 3.239e-6
-1.145, 3.239e-6
-1.146, 3.239e-6
-1.147, 3.239e-6
-1.148, 3.239e-6
-1.149, 3.239e-6
-1.150, 3.239e-6
-1.151, 3.239e-6
-1.152, 3.239e-6
-1.153, 3.239e-6
-1.154, 3.239e-6
-1.155, 3.239e-6
-1.156, 3.239e-6
-1.157, 3.239e-6
-1.158, 3.239e-6
-1.159, 3.239e-6
-1.160, 3.239e-6
-1.161, 3.239e-6
-1.162, 3.239e-6
-1.163, 3.239e-6
-1.164, 3.239e-6
-1.165, 3.239e-6
-1.166, 3.239e-6
-1.167, 3.239e-6
-1.168, 3.239e-6
-1.169, 3.239e-6
-1.170, 3.239e-6
-1.171, 3.239e-6
-1.172, 3.239e-6
-1.173, 3.239e-6
-1.174, 3.239e-6
-1.175, 3.239e-6
-1.176, 3.239e-6
-1.177, 3.239e-6
-1.178, 3.239e-6
-1.179, 3.239e-6
-1.180, 3.239e-6
-1.181, 3.239e-6
-1.182, 3.239e-6
-1.183, 3.239e-6
-1.184, 3.239e-6
-1.185, 3.239e-6
-1.186, 3.239e-6
-1.187, 3.239e-6
-1.188, 3.239e-6
-1.189, 3.239e-6
-1.190, 3.239e-6
-1.191, 3.239e-6
-1.192, 3.239e-6
-1.193, 3.239e-6
-1.194, 3.239e-6
-1.195, 3.239e-6
-1.196, 3.239e-6
-1.197, 3.239e-6
-1.198, 3.239e-6
-1.199, 3.239e-6
-1.200, 3.239e-6
-1.201, 3.239e-6
-1.202, 3.239e-6
-1.203, 3.239e-6
-1.204, 3.239e-6
-1.205, 3.239e-6
-1.206, 3.239e-6
-1.207, 3.239e-6
-1.208, 3.239e-6
-1.209, 3.239e-6
-1.210, 3.239e-6
-1.211, 3.239e-6
-1.212, 3.239e-6
-1.213, 3.239e-6
-1.214, 3.239e-6
-1.215, 3.239e-6
-1.216, 3.239e-6
-1.217, 3.239e-6
-1.218, 3.239e-6
-1.219, 3.239e-6
-1.220, 3.239e-6
-1.221, 3.239e-6
-1.222, 3.239e-6
-1.223, 3.239e-6
-1.224, 3.239e-6
-1.225, 3.239e-6
-1.226, 3.239e-6
-1.227, 3.239e-6
-1.228, 3.239e-6
-1.229, 3.239e-6
-1.230, 3.239e-6
-1.231, 3.239e-6
-1.232, 6.322e-6
-1.233, 3.239e-6
-1.234, 3.239e-6
-1.235, 3.239e-6
-1.236, 3.239e-6
-1.237, 6.322e-6
-1.238, 3.239e-6
-1.239, 3.239e-6
-1.240, 3.239e-6
-1.241, 3.239e-6
-1.242, 3.239e-6
-1.243, 3.239e-6
-1.244, 3.239e-6
-1.245, 3.239e-6
-1.246, 3.239e-6
-1.247, 3.239e-6
-1.248, 3.239e-6
-1.249, 3.239e-6
-1.250, 3.239e-6
-1.251, 6.322e-6
-1.252, 6.322e-6
-1.253, 3.239e-6
-1.254, 3.239e-6
-1.255, 3.239e-6
-1.256, 3.239e-6
-1.257, 3.239e-6
-1.258, 3.239e-6
-1.259, 3.239e-6
-1.260, 3.239e-6
-1.261, 3.239e-6
-1.262, 3.239e-6
-1.263, 3.239e-6
-1.264, 3.239e-6
-1.265, 3.239e-6
-1.266, 3.239e-6
-1.267, 6.322e-6
-1.268, 3.239e-6
-1.269, 3.239e-6
-1.270, 6.322e-6
-1.271, 3.239e-6
-1.272, 3.239e-6
-1.273, 3.239e-6
-1.274, 3.239e-6
-1.275, 3.239e-6
-1.276, 6.322e-6
-1.277, 6.322e-6
-1.278, 6.322e-6
-1.279, 3.239e-6
-1.280, 3.239e-6
-1.281, 3.239e-6
-1.282, 3.239e-6
-1.283, 3.239e-6
-1.284, 3.239e-6
-1.285, 3.239e-6
-1.286, 3.239e-6
-1.287, 6.322e-6
-1.288, 3.239e-6
-1.289, 3.239e-6
-1.290, 6.322e-6
-1.291, 3.239e-6
-1.292, 6.322e-6
-1.293, 6.322e-6
-1.294, 6.322e-6
-1.295, 6.322e-6
-1.296, 3.239e-6
-1.297, 6.322e-6
-1.298, 3.239e-6
-1.299, 3.239e-6
-1.300, 3.239e-6
-1.301, 3.239e-6
-1.302, 6.322e-6
-1.303, 3.239e-6
-1.304, 3.239e-6
-1.305, 3.239e-6
-1.306, 3.239e-6
-1.307, 6.322e-6
-1.308, 3.239e-6
-1.309, 6.322e-6
-1.310, 3.239e-6
-1.311, 3.239e-6
-1.312, 6.322e-6
-1.313, 3.239e-6
-1.314, 3.239e-6
-1.315, 6.322e-6
-1.316, 3.239e-6
-1.317, 3.239e-6
-1.318, 6.322e-6
-1.319, 3.239e-6
-1.320, 3.239e-6
-1.321, 3.239e-6
-1.322, 3.239e-6
-1.323, 3.239e-6
-1.324, 3.239e-6
-1.325, 3.239e-6
-1.326, 3.239e-6
-1.327, 6.322e-6
-1.328, 3.239e-6
-1.329, 3.239e-6
-1.330, 6.322e-6
-1.331, 3.239e-6
-1.332, 6.322e-6
-1.333, 3.239e-6
-1.334, 6.322e-6
-1.335, 6.322e-6
-1.336, 6.322e-6
-1.337, 6.322e-6
-1.338, 3.239e-6
-1.339, 3.239e-6
-1.340, 3.239e-6
-1.341, 6.322e-6
-1.342, 6.322e-6
-1.343, 6.322e-6
-1.344, 6.322e-6
-1.345, 3.239e-6
-1.346, 3.239e-6
-1.347, 6.322e-6
-1.348, 6.322e-6
-1.349, 6.322e-6
-1.350, 6.322e-6
-1.351, 6.322e-6
-1.352, 6.322e-6
-1.353, 6.322e-6
-1.354, 6.322e-6
-1.355, 6.322e-6
-1.356, 3.239e-6
-1.357, 6.322e-6
-1.358, 6.322e-6
-1.359, 6.322e-6
-1.360, 6.322e-6
-1.361, 6.322e-6
-1.362, 6.322e-6
-1.363, 6.322e-6
-1.364, 6.322e-6
-1.365, 6.322e-6
-1.366, 6.322e-6
-1.367, 6.322e-6
-1.368, 3.239e-6
-1.369, 6.322e-6
-1.370, 6.322e-6
-1.371, 3.239e-6
-1.372, 6.322e-6
-1.373, 6.322e-6
-1.374, 6.322e-6
-1.375, 6.322e-6
-1.376, 6.322e-6
-1.377, 6.322e-6
-1.378, 6.322e-6
-1.379, 6.322e-6
-1.380, 3.239e-6
-1.381, 6.322e-6
-1.382, 6.322e-6
-1.383, 6.322e-6
-1.384, 6.322e-6
-1.385, 6.322e-6
-1.386, 6.322e-6
-1.387, 6.322e-6
-1.388, 6.322e-6
-1.389, 6.322e-6
-1.390, 6.322e-6
-1.391, 6.322e-6
-1.392, 6.322e-6
-1.393, 6.322e-6
-1.394, 6.322e-6
-1.395, 6.322e-6
-1.396, 6.322e-6
-1.397, 6.322e-6
-1.398, 6.322e-6
-1.399, 6.322e-6
-1.400, 6.322e-6
-1.401, 6.322e-6
-1.402, 6.322e-6
-1.403, 6.322e-6
-1.404, 6.322e-6
-1.405, 6.322e-6
-1.406, 6.322e-6
-1.407, 6.322e-6
-1.408, 6.322e-6
-1.409, 6.322e-6
-1.410, 6.322e-6
-1.411, 6.322e-6
-1.412, 6.322e-6
-1.413, 6.322e-6
-1.414, 6.322e-6
-1.415, 6.322e-6
-1.416, 6.322e-6
-1.417, 6.322e-6
-1.418, 6.322e-6
-1.419, 6.322e-6
-1.420, 6.322e-6
-1.421, 6.322e-6
-1.422, 6.322e-6
-1.423, 6.322e-6
-1.424, 6.322e-6
-1.425, 6.322e-6
-1.426, 6.322e-6
-1.427, 6.322e-6
-1.428, 6.322e-6
-1.429, 6.322e-6
-1.430, 6.322e-6
-1.431, 6.322e-6
-1.432, 6.322e-6
-1.433, 6.322e-6
-1.434, 6.322e-6
-1.435, 6.322e-6
-1.436, 6.322e-6
-1.437, 6.322e-6
-1.438, 6.322e-6
-1.439, 6.322e-6
-1.440, 6.322e-6
-1.441, 6.322e-6
-1.442, 6.322e-6
-1.443, 6.322e-6
-1.444, 6.322e-6
-1.445, 6.322e-6
-1.446, 6.322e-6
-1.447, 6.322e-6
-1.448, 6.322e-6
-1.449, 6.322e-6
-1.450, 6.322e-6
-1.451, 6.322e-6
-1.452, 6.322e-6
-1.453, 6.322e-6
-1.454, 6.322e-6
-1.455, 6.322e-6
-1.456, 6.322e-6
-1.457, 6.322e-6
-1.458, 6.322e-6
-1.459, 6.322e-6
-1.460, 6.322e-6
-1.461, 6.322e-6
-1.462, 6.322e-6
-1.463, 6.322e-6
-1.464, 6.322e-6
-1.465, 6.322e-6
-1.466, 6.322e-6
-1.467, 6.322e-6
-1.468, 6.322e-6
-1.469, 6.322e-6
-1.470, 6.322e-6
-1.471, 6.322e-6
-1.472, 6.322e-6
-1.473, 6.322e-6
-1.474, 6.322e-6
-1.475, 6.322e-6
-1.476, 6.322e-6
-1.477, 6.322e-6
-1.478, 6.322e-6
-1.479, 6.322e-6
-1.480, 6.322e-6
-1.481, 6.322e-6
-1.482, 6.322e-6
-1.483, 6.322e-6
-1.484, 6.322e-6
-1.485, 6.322e-6
-1.486, 6.322e-6
-1.487, 6.322e-6
-1.488, 6.322e-6
-1.489, 6.322e-6
-1.490, 6.322e-6
-1.491, 6.322e-6
-1.492, 6.322e-6
-1.493, 6.322e-6
-1.494, 6.322e-6
-1.495, 6.322e-6
-1.496, 6.322e-6
-1.497, 6.322e-6
-1.498, 6.322e-6
-1.499, 6.322e-6
-1.500, 6.322e-6
-1.501, 6.322e-6
-1.502, 6.322e-6
-1.503, 6.322e-6
-1.504, 6.322e-6
-1.505, 6.322e-6
-1.506, 6.322e-6
-1.507, 6.322e-6
-1.508, 6.322e-6
-1.509, 6.322e-6
-1.510, 6.322e-6
-1.511, 6.322e-6
-1.512, 6.322e-6
-1.513, 6.322e-6
-1.514, 6.322e-6
-1.515, 6.322e-6
-1.516, 6.322e-6
-1.517, 6.322e-6
-1.518, 6.322e-6
-1.519, 6.322e-6
-1.520, 6.322e-6
-1.521, 6.322e-6
-1.522, 6.322e-6
-1.523, 6.322e-6
-1.524, 9.405e-6
-1.525, 6.322e-6
-1.526, 6.322e-6
-1.527, 9.405e-6
-1.528, 9.405e-6
-1.529, 6.322e-6
-1.530, 6.322e-6
-1.531, 6.322e-6
-1.532, 6.322e-6
-1.533, 9.405e-6
-1.534, 6.322e-6
-1.535, 6.322e-6
-1.536, 6.322e-6
-1.537, 9.405e-6
-1.538, 6.322e-6
-1.539, 6.322e-6
-1.540, 9.405e-6
-1.541, 6.322e-6
-1.542, 9.405e-6
-1.543, 6.322e-6
-1.544, 6.322e-6
-1.545, 6.322e-6
-1.546, 6.322e-6
-1.547, 6.322e-6
-1.548, 6.322e-6
-1.549, 9.405e-6
-1.550, 6.322e-6
-1.551, 9.405e-6
-1.552, 9.405e-6
-1.553, 6.322e-6
-1.554, 6.322e-6
-1.555, 9.405e-6
-1.556, 9.405e-6
-1.557, 9.405e-6
-1.558, 9.405e-6
-1.559, 9.405e-6
-1.560, 6.322e-6
-1.561, 6.322e-6
-1.562, 9.405e-6
-1.563, 9.405e-6
-1.564, 9.405e-6
-1.565, 9.405e-6
-1.566, 9.405e-6
-1.567, 9.405e-6
-1.568, 9.405e-6
-1.569, 9.405e-6
-1.570, 9.405e-6
-1.571, 9.405e-6
-1.572, 9.405e-6
-1.573, 9.405e-6
-1.574, 9.405e-6
-1.575, 9.405e-6
-1.576, 9.405e-6
-1.577, 9.405e-6
-1.578, 9.405e-6
-1.579, 9.405e-6
-1.580, 9.405e-6
-1.581, 9.405e-6
-1.582, 9.405e-6
-1.583, 9.405e-6
-1.584, 9.405e-6
-1.585, 9.405e-6
-1.586, 9.405e-6
-1.587, 9.405e-6
-1.588, 9.405e-6
-1.589, 9.405e-6
-1.590, 9.405e-6
-1.591, 9.405e-6
-1.592, 9.405e-6
-1.593, 9.405e-6
-1.594, 9.405e-6
-1.595, 9.405e-6
-1.596, 9.405e-6
-1.597, 9.405e-6
-1.598, 9.405e-6
-1.599, 9.405e-6
-1.600, 9.405e-6
-1.601, 9.405e-6
-1.602, 9.405e-6
-1.603, 9.405e-6
-1.604, 9.405e-6
-1.605, 9.405e-6
-1.606, 9.405e-6
-1.607, 9.405e-6
-1.608, 9.405e-6
-1.609, 9.405e-6
-1.610, 9.405e-6
-1.611, 9.405e-6
-1.612, 9.405e-6
-1.613, 9.405e-6
-1.614, 9.405e-6
-1.615, 9.405e-6
-1.616, 9.405e-6
-1.617, 9.405e-6
-1.618, 9.405e-6
-1.619, 9.405e-6
-1.620, 9.405e-6
-1.621, 9.405e-6
-1.622, 1.249e-5
-1.623, 1.249e-5
-1.624, 9.405e-6
-1.625, 9.405e-6
-1.626, 9.405e-6
-1.627, 9.405e-6
-1.628, 9.405e-6
-1.629, 9.405e-6
-1.630, 9.405e-6
-1.631, 9.405e-6
-1.632, 9.405e-6
-1.633, 9.405e-6
-1.634, 9.405e-6
-1.635, 9.405e-6
-1.636, 9.405e-6
-1.637, 9.405e-6
-1.638, 1.249e-5
-1.639, 1.249e-5
-1.640, 1.249e-5
-1.641, 1.249e-5
-1.642, 1.249e-5
-1.643, 1.249e-5
-1.644, 1.249e-5
-1.645, 1.249e-5
-1.646, 1.249e-5
-1.647, 1.249e-5
-1.648, 1.249e-5
-1.649, 1.249e-5
-1.650, 1.249e-5
-1.651, 1.249e-5
-1.652, 1.249e-5
-1.653, 1.249e-5
-1.654, 1.249e-5
-1.655, 1.249e-5
-1.656, 1.249e-5
-1.657, 1.249e-5
-1.658, 1.249e-5
-1.659, 1.249e-5
-1.660, 1.249e-5
-1.661, 1.249e-5
-1.662, 1.249e-5
-1.663, 1.249e-5
-1.664, 1.249e-5
-1.665, 1.249e-5
-1.666, 1.249e-5
-1.667, 1.249e-5
-1.668, 1.249e-5
-1.669, 1.249e-5
-1.670, 1.249e-5
-1.671, 1.249e-5
-1.672, 1.557e-5
-1.673, 1.249e-5
-1.674, 1.557e-5
-1.675, 1.249e-5
-1.676, 1.249e-5
-1.677, 1.557e-5
-1.678, 1.557e-5
-1.679, 1.249e-5
-1.680, 1.557e-5
-1.681, 1.557e-5
-1.682, 1.557e-5
-1.683, 1.557e-5
-1.684, 1.557e-5
-1.685, 1.557e-5
-1.686, 1.557e-5
-1.687, 1.557e-5
-1.688, 1.557e-5
-1.689, 1.557e-5
-1.690, 1.557e-5
-1.691, 1.557e-5
-1.692, 1.557e-5
-1.693, 1.557e-5
-1.694, 1.557e-5
-1.695, 1.557e-5
-1.696, 1.557e-5
-1.697, 1.865e-5
-1.698, 1.865e-5
-1.699, 1.865e-5
-1.700, 1.865e-5
-1.701, 1.865e-5
-1.702, 1.865e-5
-1.703, 1.865e-5
-1.704, 1.865e-5
-1.705, 1.865e-5
-1.706, 1.865e-5
-1.707, 1.865e-5
-1.708, 1.865e-5
-1.709, 1.865e-5
-1.710, 1.865e-5
-1.711, 1.865e-5
-1.712, 1.865e-5
-1.713, 1.865e-5
-1.714, 1.865e-5
-1.715, 1.865e-5
-1.716, 1.865e-5
-1.717, 2.174e-5
-1.718, 2.174e-5
-1.719, 2.174e-5
-1.720, 2.174e-5
-1.721, 2.174e-5
-1.722, 2.174e-5
-1.723, 2.174e-5
-1.724, 2.174e-5
-1.725, 2.174e-5
-1.726, 2.174e-5
-1.727, 2.174e-5
-1.728, 2.174e-5
-1.729, 2.174e-5
-1.730, 2.482e-5
-1.731, 2.482e-5
-1.732, 2.482e-5
-1.733, 2.482e-5
-1.734, 2.482e-5
-1.735, 2.482e-5
-1.736, 2.482e-5
-1.737, 2.482e-5
-1.738, 2.482e-5
-1.739, 2.482e-5
-1.740, 2.790e-5
-1.741, 2.790e-5
-1.742, 2.790e-5
-1.743, 2.790e-5
-1.744, 2.790e-5
-1.745, 2.790e-5
-1.746, 2.790e-5
-1.747, 2.790e-5
-1.748, 2.790e-5
-1.749, 2.790e-5
-1.750, 3.099e-5
-1.751, 3.099e-5
-1.752, 3.099e-5
-1.753, 3.099e-5
-1.754, 3.099e-5
-1.755, 3.099e-5
-1.756, 3.099e-5
-1.757, 3.407e-5
-1.758, 3.407e-5
-1.759, 3.407e-5
-1.760, 3.407e-5
-1.761, 3.407e-5
-1.762, 3.407e-5
-1.763, 3.715e-5
-1.764, 3.715e-5
-1.765, 3.715e-5
-1.766, 3.715e-5
-1.767, 3.715e-5
-1.768, 3.715e-5
-1.769, 4.024e-5
-1.770, 4.024e-5
-1.771, 4.024e-5
-1.772, 4.024e-5
-1.773, 4.024e-5
-1.774, 4.332e-5
-1.775, 4.332e-5
-1.776, 4.332e-5
-1.777, 4.332e-5
-1.778, 4.640e-5
-1.779, 4.640e-5
-1.780, 4.640e-5
-1.781, 4.640e-5
-1.782, 4.640e-5
-1.783, 4.949e-5
-1.784, 4.949e-5
-1.785, 4.949e-5
-1.786, 4.949e-5
-1.787, 5.257e-5
-1.788, 5.257e-5
-1.789, 5.257e-5
-1.790, 5.257e-5
-1.791, 5.565e-5
-1.792, 5.565e-5
-1.793, 5.565e-5
-1.794, 5.565e-5
-1.795, 5.873e-5
-1.796, 5.873e-5
-1.797, 5.873e-5
-1.798, 5.873e-5
-1.799, 6.182e-5
-1.800, 6.182e-5
-1.801, 6.490e-5
-1.802, 6.490e-5
-1.803, 6.490e-5
-1.804, 6.798e-5
-1.805, 6.798e-5
-1.806, 6.798e-5
-1.807, 7.107e-5
-1.808, 7.107e-5
-1.809, 7.107e-5
-1.810, 7.415e-5
-1.811, 7.415e-5
-1.812, 7.723e-5
-1.813, 7.723e-5
-1.814, 8.032e-5
-1.815, 8.032e-5
-1.816, 8.032e-5
-1.817, 8.340e-5
-1.818, 8.340e-5
-1.819, 8.648e-5
-1.820, 8.648e-5
-1.821, 8.957e-5
-1.822, 9.265e-5
-1.823, 9.265e-5
-1.824, 9.265e-5
-1.825, 9.573e-5
-1.826, 9.573e-5
-1.827, 9.882e-5
-1.828, 9.882e-5
-1.829, 1.019e-4
-1.830, 1.050e-4
-1.831, 1.050e-4
-1.832, 1.081e-4
-1.833, 1.081e-4
-1.834, 1.111e-4
-1.835, 1.142e-4
-1.836, 1.142e-4
-1.837, 1.173e-4
-1.838, 1.204e-4
-1.839, 1.204e-4
-1.840, 1.235e-4
-1.841, 1.266e-4
-1.842, 1.296e-4
-1.843, 1.296e-4
-1.844, 1.327e-4
-1.845, 1.358e-4
-1.846, 1.389e-4
-1.847, 1.420e-4
-1.848, 1.420e-4
-1.849, 1.451e-4
-1.850, 1.481e-4
-1.851, 1.512e-4
-1.852, 1.543e-4
-1.853, 1.543e-4
-1.854, 1.605e-4
-1.855, 1.605e-4
-1.856, 1.636e-4
-1.857, 1.697e-4
-1.858, 1.697e-4
-1.859, 1.728e-4
-1.860, 1.759e-4
-1.861, 1.790e-4
-1.862, 1.821e-4
-1.863, 1.851e-4
-1.864, 1.882e-4
-1.865, 1.913e-4
-1.866, 1.975e-4
-1.867, 2.006e-4
-1.868, 2.036e-4
-1.869, 2.067e-4
-1.870, 2.098e-4
-1.871, 2.160e-4
-1.872, 2.191e-4
-1.873, 2.221e-4
-1.874, 2.283e-4
-1.875, 2.314e-4
-1.876, 2.345e-4
-1.877, 2.376e-4
-1.878, 2.437e-4
-1.879, 2.468e-4
-1.880, 2.530e-4
-1.881, 2.561e-4
-1.882, 2.622e-4
-1.883, 2.653e-4
-1.884, 2.715e-4
-1.885, 2.746e-4
-1.886, 2.807e-4
-1.887, 2.869e-4
-1.888, 2.900e-4
-1.889, 2.961e-4
-1.890, 2.992e-4
-1.891, 3.054e-4
-1.892, 3.115e-4
-1.893, 3.177e-4
-1.894, 3.239e-4
-1.895, 3.270e-4
-1.896, 3.331e-4
-1.897, 3.393e-4
-1.898, 3.485e-4
-1.899, 3.516e-4
-1.900, 3.578e-4
-1.901, 3.640e-4
-1.902, 3.701e-4
-1.903, 3.794e-4
-1.904, 3.855e-4
-1.905, 3.917e-4
-1.906, 3.979e-4
-1.907, 4.040e-4
-1.908, 4.102e-4
-1.909, 4.195e-4
-1.910, 4.256e-4
-1.911, 4.318e-4
-1.912, 4.410e-4
-1.913, 4.472e-4
-1.914, 4.565e-4
-1.915, 4.626e-4
-1.916, 4.688e-4
-1.917, 4.780e-4
-1.918, 4.873e-4
-1.919, 4.935e-4
-1.920, 5.027e-4
-1.921, 5.089e-4
-1.922, 5.212e-4
-1.923, 5.274e-4
-1.924, 5.366e-4
-1.925, 5.459e-4
-1.926, 5.551e-4
-1.927, 5.644e-4
-1.928, 5.736e-4
-1.929, 5.829e-4
-1.930, 5.921e-4
-1.931, 6.014e-4
-1.932, 6.137e-4
-1.933, 6.229e-4
-1.934, 6.353e-4
-1.935, 6.414e-4
-1.936, 6.538e-4
-1.937, 6.661e-4
-1.938, 6.754e-4
-1.939, 6.877e-4
-1.940, 6.969e-4
-1.941, 7.093e-4
-1.942, 7.216e-4
-1.943, 7.339e-4
-1.944, 7.432e-4
-1.945, 7.555e-4
-1.946, 7.648e-4
-1.947, 7.802e-4
-1.948, 7.925e-4
-1.949, 8.048e-4
-1.950, 8.172e-4
-1.951, 8.295e-4
-1.952, 8.449e-4
-1.953, 8.573e-4
-1.954, 8.696e-4
-1.955, 8.819e-4
-1.956, 8.943e-4
-1.957, 9.097e-4
-1.958, 9.251e-4
-1.959, 9.374e-4
-1.960, 9.528e-4
-1.961, 9.652e-4
-1.962, 9.806e-4
-1.963, 9.991e-4
-1.964, 1.011e-3
-1.965, 1.027e-3
-1.966, 1.039e-3
-1.967, 1.058e-3
-1.968, 1.073e-3
-1.969, 1.088e-3
-1.970, 1.104e-3
-1.971, 1.122e-3
-1.972, 1.138e-3
-1.973, 1.156e-3
-1.974, 1.172e-3
-1.975, 1.187e-3
-1.976, 1.203e-3
-1.977, 1.221e-3
-1.978, 1.240e-3
-1.979, 1.258e-3
-1.980, 1.273e-3
-1.981, 1.292e-3
-1.982, 1.314e-3
-1.983, 1.332e-3
-1.984, 1.351e-3
-1.985, 1.369e-3
-1.986, 1.388e-3
-1.987, 1.409e-3
-1.988, 1.428e-3
-1.989, 1.446e-3
-1.990, 1.465e-3
-1.991, 1.486e-3
-1.992, 1.508e-3
-1.993, 1.529e-3
-1.994, 1.551e-3
-1.995, 1.569e-3
-1.996, 1.591e-3
-1.997, 1.616e-3
-1.998, 1.637e-3
-1.999, 1.662e-3
-2.000, 1.680e-3
-2.001, 1.702e-3
-2.002, 1.727e-3
-2.003, 1.751e-3
-2.004, 1.773e-3
-2.005, 1.795e-3
-2.006, 1.816e-3
-2.007, 1.841e-3
-2.008, 1.865e-3
-2.009, 1.890e-3
-2.010, 1.912e-3
-2.011, 1.936e-3
-2.012, 1.961e-3
-2.013, 1.989e-3
-2.014, 2.013e-3
-2.015, 2.035e-3
-2.016, 2.060e-3
-2.017, 2.091e-3
-2.018, 2.118e-3
-2.019, 2.143e-3
-2.020, 2.168e-3
-2.021, 2.192e-3
-2.022, 2.220e-3
-2.023, 2.251e-3
-2.024, 2.275e-3
-2.025, 2.300e-3
-2.026, 2.328e-3
-2.027, 2.362e-3
-2.028, 2.390e-3
-2.029, 2.417e-3
-2.030, 2.442e-3
-2.031, 2.473e-3
-2.032, 2.504e-3
-2.033, 2.538e-3
-2.034, 2.565e-3
-2.035, 2.590e-3
-2.036, 2.621e-3
-2.037, 2.655e-3
-2.038, 2.686e-3
-2.039, 2.716e-3
-2.040, 2.744e-3
-2.041, 2.775e-3
-2.042, 2.809e-3
-2.043, 2.843e-3
-2.044, 2.871e-3
-2.045, 2.898e-3
-2.046, 2.929e-3
-2.047, 2.969e-3
-2.048, 3.006e-3
-2.049, 3.034e-3
-2.050, 3.065e-3
-2.051, 3.096e-3
-2.052, 3.136e-3
-2.053, 3.170e-3
-2.054, 3.200e-3
-2.055, 3.231e-3
-2.056, 3.262e-3
-2.057, 3.302e-3
-2.058, 3.339e-3
-2.059, 3.373e-3
-2.060, 3.404e-3
-2.061, 3.438e-3
-2.062, 3.481e-3
-2.063, 3.518e-3
-2.064, 3.552e-3
-2.065, 3.583e-3
-2.066, 3.620e-3
-2.067, 3.660e-3
-2.068, 3.700e-3
-2.069, 3.734e-3
-2.070, 3.768e-3
-2.071, 3.802e-3
-2.072, 3.842e-3
-2.073, 3.882e-3
-2.074, 3.919e-3
-2.075, 3.959e-3
-2.076, 3.996e-3
-2.077, 4.036e-3
-2.078, 4.076e-3
-2.079, 4.116e-3
-2.080, 4.150e-3
-2.081, 4.193e-3
-2.082, 4.233e-3
-2.083, 4.276e-3
-2.084, 4.317e-3
-2.085, 4.354e-3
-2.086, 4.391e-3
-2.087, 4.437e-3
-2.088, 4.480e-3
-2.089, 4.520e-3
-2.090, 4.554e-3
-2.091, 4.597e-3
-2.092, 4.643e-3
-2.093, 4.683e-3
-2.094, 4.720e-3
-2.095, 4.764e-3
-2.096, 4.810e-3
-2.097, 4.856e-3
-2.098, 4.896e-3
-2.099, 4.936e-3
-2.100, 4.976e-3
-2.101, 5.019e-3
-2.102, 5.069e-3
-2.103, 5.112e-3
-2.104, 5.149e-3
-2.105, 5.189e-3
-2.106, 5.232e-3
-2.107, 5.282e-3
-2.108, 5.328e-3
-2.109, 5.368e-3
-2.110, 5.414e-3
-2.111, 5.463e-3
-2.112, 5.510e-3
-2.113, 5.559e-3
-2.114, 5.602e-3
-2.115, 5.642e-3
-2.116, 5.692e-3
-2.117, 5.741e-3
-2.118, 5.787e-3
-2.119, 5.830e-3
-2.120, 5.873e-3
-2.121, 5.920e-3
-2.122, 5.966e-3
-2.123, 6.018e-3
-2.124, 6.068e-3
-2.125, 6.108e-3
-2.126, 6.154e-3
-2.127, 6.206e-3
-2.128, 6.256e-3
-2.129, 6.305e-3
-2.130, 6.348e-3
-2.131, 6.398e-3
-2.132, 6.450e-3
-2.133, 6.502e-3
-2.134, 6.549e-3
-2.135, 6.595e-3
-2.136, 6.644e-3
-2.137, 6.700e-3
-2.138, 6.749e-3
-2.139, 6.795e-3
-2.140, 6.845e-3
-2.141, 6.894e-3
-2.142, 6.943e-3
-2.143, 6.993e-3
-2.144, 7.051e-3
-2.145, 7.104e-3
-2.146, 7.147e-3
-2.147, 7.199e-3
-2.148, 7.249e-3
-2.149, 7.301e-3
-2.150, 7.347e-3
-2.151, 7.397e-3
-2.152, 7.446e-3
-2.153, 7.498e-3
-2.154, 7.545e-3
-2.155, 7.591e-3
-2.156, 7.643e-3
-2.157, 7.699e-3
-2.158, 7.757e-3
-2.159, 7.813e-3
-2.160, 7.862e-3
-2.161, 7.911e-3
-2.162, 7.967e-3
-2.163, 8.025e-3
-2.164, 8.078e-3
-2.165, 8.127e-3
-2.166, 8.177e-3
-2.167, 8.232e-3
-2.168, 8.291e-3
-2.169, 8.343e-3
-2.170, 8.389e-3
-2.171, 8.445e-3
-2.172, 8.510e-3
-2.173, 8.571e-3
-2.174, 8.621e-3
-2.175, 8.667e-3
-2.176, 8.722e-3
-2.177, 8.784e-3
-2.178, 8.843e-3
-2.179, 8.895e-3
-2.180, 8.950e-3
-2.181, 9.006e-3
-2.182, 9.064e-3
-2.183, 9.120e-3
-2.184, 9.179e-3
-2.185, 9.234e-3
-2.186, 9.286e-3
-2.187, 9.345e-3
-2.188, 9.410e-3
-2.189, 9.475e-3
-2.190, 9.518e-3
-2.191, 9.567e-3
-2.192, 9.632e-3
-2.193, 9.709e-3
-2.194, 9.761e-3
-2.195, 9.804e-3
-2.196, 9.854e-3
-2.197, 9.919e-3
-2.198, 9.980e-3
-2.199, 1.004e-2
-2.200, 1.004e-2
-2.199, 9.974e-3
-2.198, 9.928e-3
-2.197, 9.878e-3
-2.196, 9.811e-3
-2.195, 9.743e-3
-2.194, 9.684e-3
-2.193, 9.644e-3
-2.192, 9.604e-3
-2.191, 9.536e-3
-2.190, 9.465e-3
-2.189, 9.407e-3
-2.188, 9.354e-3
-2.187, 9.299e-3
-2.186, 9.237e-3
-2.185, 9.169e-3
-2.184, 9.111e-3
-2.183, 9.061e-3
-2.182, 9.006e-3
-2.181, 8.941e-3
-2.180, 8.880e-3
-2.179, 8.833e-3
-2.178, 8.781e-3
-2.177, 8.722e-3
-2.176, 8.664e-3
-2.175, 8.602e-3
-2.174, 8.550e-3
-2.173, 8.513e-3
-2.172, 8.460e-3
-2.171, 8.399e-3
-2.170, 8.337e-3
-2.169, 8.278e-3
-2.168, 8.229e-3
-2.167, 8.180e-3
-2.166, 8.124e-3
-2.165, 8.066e-3
-2.164, 8.004e-3
-2.163, 7.958e-3
-2.162, 7.905e-3
-2.161, 7.841e-3
-2.160, 7.776e-3
-2.159, 7.733e-3
-2.158, 7.699e-3
-2.157, 7.637e-3
-2.156, 7.575e-3
-2.155, 7.517e-3
-2.154, 7.467e-3
-2.153, 7.421e-3
-2.152, 7.372e-3
-2.151, 7.310e-3
-2.150, 7.252e-3
-2.149, 7.196e-3
-2.148, 7.147e-3
-2.147, 7.097e-3
-2.146, 7.042e-3
-2.145, 6.986e-3
-2.144, 6.940e-3
-2.143, 6.897e-3
-2.142, 6.845e-3
-2.141, 6.789e-3
-2.140, 6.734e-3
-2.139, 6.684e-3
-2.138, 6.641e-3
-2.137, 6.589e-3
-2.136, 6.536e-3
-2.135, 6.478e-3
-2.134, 6.425e-3
-2.133, 6.382e-3
-2.132, 6.333e-3
-2.131, 6.287e-3
-2.130, 6.237e-3
-2.129, 6.182e-3
-2.128, 6.139e-3
-2.127, 6.092e-3
-2.126, 6.043e-3
-2.125, 5.994e-3
-2.124, 5.947e-3
-2.123, 5.904e-3
-2.122, 5.855e-3
-2.121, 5.806e-3
-2.120, 5.756e-3
-2.119, 5.710e-3
-2.118, 5.670e-3
-2.117, 5.624e-3
-2.116, 5.571e-3
-2.115, 5.522e-3
-2.114, 5.476e-3
-2.113, 5.430e-3
-2.112, 5.383e-3
-2.111, 5.334e-3
-2.110, 5.291e-3
-2.109, 5.248e-3
-2.108, 5.201e-3
-2.107, 5.158e-3
-2.106, 5.109e-3
-2.105, 5.066e-3
-2.104, 5.023e-3
-2.103, 4.979e-3
-2.102, 4.933e-3
-2.101, 4.887e-3
-2.100, 4.841e-3
-2.099, 4.797e-3
-2.098, 4.757e-3
-2.097, 4.717e-3
-2.096, 4.671e-3
-2.095, 4.631e-3
-2.094, 4.585e-3
-2.093, 4.545e-3
-2.092, 4.505e-3
-2.091, 4.461e-3
-2.090, 4.418e-3
-2.089, 4.378e-3
-2.088, 4.341e-3
-2.087, 4.301e-3
-2.086, 4.258e-3
-2.085, 4.215e-3
-2.084, 4.175e-3
-2.083, 4.138e-3
-2.082, 4.101e-3
-2.081, 4.058e-3
-2.080, 4.014e-3
-2.079, 3.977e-3
-2.078, 3.953e-3
-2.077, 3.913e-3
-2.076, 3.873e-3
-2.075, 3.832e-3
-2.074, 3.795e-3
-2.073, 3.762e-3
-2.072, 3.728e-3
-2.071, 3.691e-3
-2.070, 3.651e-3
-2.069, 3.614e-3
-2.068, 3.580e-3
-2.067, 3.543e-3
-2.066, 3.506e-3
-2.065, 3.469e-3
-2.064, 3.429e-3
-2.063, 3.395e-3
-2.062, 3.364e-3
-2.061, 3.330e-3
-2.060, 3.290e-3
-2.059, 3.253e-3
-2.058, 3.222e-3
-2.057, 3.191e-3
-2.056, 3.157e-3
-2.055, 3.120e-3
-2.054, 3.086e-3
-2.053, 3.052e-3
-2.052, 3.022e-3
-2.051, 2.991e-3
-2.050, 2.954e-3
-2.049, 2.923e-3
-2.048, 2.892e-3
-2.047, 2.864e-3
-2.046, 2.830e-3
-2.045, 2.797e-3
-2.044, 2.766e-3
-2.043, 2.738e-3
-2.042, 2.707e-3
-2.041, 2.676e-3
-2.040, 2.645e-3
-2.039, 2.615e-3
-2.038, 2.587e-3
-2.037, 2.559e-3
-2.036, 2.528e-3
-2.035, 2.497e-3
-2.034, 2.470e-3
-2.033, 2.445e-3
-2.032, 2.417e-3
-2.031, 2.386e-3
-2.030, 2.359e-3
-2.029, 2.331e-3
-2.028, 2.306e-3
-2.027, 2.282e-3
-2.026, 2.254e-3
-2.025, 2.223e-3
-2.024, 2.198e-3
-2.023, 2.174e-3
-2.022, 2.149e-3
-2.021, 2.124e-3
-2.020, 2.097e-3
-2.019, 2.072e-3
-2.018, 2.050e-3
-2.017, 2.026e-3
-2.016, 2.001e-3
-2.015, 1.973e-3
-2.014, 1.949e-3
-2.013, 1.930e-3
-2.012, 1.909e-3
-2.011, 1.884e-3
-2.010, 1.856e-3
-2.009, 1.835e-3
-2.008, 1.816e-3
-2.007, 1.795e-3
-2.006, 1.770e-3
-2.005, 1.748e-3
-2.004, 1.727e-3
-2.003, 1.708e-3
-2.002, 1.687e-3
-2.001, 1.665e-3
-2.000, 1.643e-3
-1.999, 1.622e-3
-1.998, 1.603e-3
-1.997, 1.585e-3
-1.996, 1.563e-3
-1.995, 1.542e-3
-1.994, 1.523e-3
-1.993, 1.505e-3
-1.992, 1.486e-3
-1.991, 1.468e-3
-1.990, 1.446e-3
-1.989, 1.431e-3
-1.988, 1.412e-3
-1.987, 1.394e-3
-1.986, 1.378e-3
-1.985, 1.357e-3
-1.984, 1.341e-3
-1.983, 1.326e-3
-1.982, 1.310e-3
-1.981, 1.292e-3
-1.980, 1.273e-3
-1.979, 1.255e-3
-1.978, 1.243e-3
-1.977, 1.227e-3
-1.976, 1.212e-3
-1.975, 1.196e-3
-1.974, 1.181e-3
-1.973, 1.166e-3
-1.972, 1.153e-3
-1.971, 1.135e-3
-1.970, 1.119e-3
-1.969, 1.104e-3
-1.968, 1.092e-3
-1.967, 1.079e-3
-1.966, 1.064e-3
-1.965, 1.048e-3
-1.964, 1.033e-3
-1.963, 1.024e-3
-1.962, 1.011e-3
-1.961, 9.960e-4
-1.960, 9.837e-4
-1.959, 9.683e-4
-1.958, 9.590e-4
-1.957, 9.467e-4
-1.956, 9.313e-4
-1.955, 9.189e-4
-1.954, 9.066e-4
-1.953, 8.943e-4
-1.952, 8.850e-4
-1.951, 8.727e-4
-1.950, 8.603e-4
-1.949, 8.480e-4
-1.948, 8.388e-4
-1.947, 8.264e-4
-1.946, 8.141e-4
-1.945, 8.018e-4
-1.944, 7.925e-4
-1.943, 7.833e-4
-1.942, 7.709e-4
-1.941, 7.617e-4
-1.940, 7.494e-4
-1.939, 7.401e-4
-1.938, 7.309e-4
-1.937, 7.216e-4
-1.936, 7.124e-4
-1.935, 7.000e-4
-1.934, 6.908e-4
-1.933, 6.815e-4
-1.932, 6.723e-4
-1.931, 6.630e-4
-1.930, 6.538e-4
-1.929, 6.445e-4
-1.928, 6.353e-4
-1.927, 6.260e-4
-1.926, 6.168e-4
-1.925, 6.075e-4
-1.924, 6.014e-4
-1.923, 5.921e-4
-1.922, 5.859e-4
-1.921, 5.767e-4
-1.920, 5.674e-4
-1.919, 5.582e-4
-1.918, 5.520e-4
-1.917, 5.459e-4
-1.916, 5.366e-4
-1.915, 5.305e-4
-1.914, 5.212e-4
-1.913, 5.150e-4
-1.912, 5.058e-4
-1.911, 4.996e-4
-1.910, 4.904e-4
-1.909, 4.842e-4
-1.908, 4.780e-4
-1.907, 4.719e-4
-1.906, 4.657e-4
-1.905, 4.595e-4
-1.904, 4.503e-4
-1.903, 4.472e-4
-1.902, 4.380e-4
-1.901, 4.349e-4
-1.900, 4.256e-4
-1.899, 4.195e-4
-1.898, 4.164e-4
-1.897, 4.102e-4
-1.896, 4.040e-4
-1.895, 3.979e-4
-1.894, 3.917e-4
-1.893, 3.855e-4
-1.892, 3.794e-4
-1.891, 3.732e-4
-1.890, 3.670e-4
-1.889, 3.640e-4
-1.888, 3.578e-4
-1.887, 3.516e-4
-1.886, 3.455e-4
-1.885, 3.393e-4
-1.884, 3.362e-4
-1.883, 3.331e-4
-1.882, 3.270e-4
-1.881, 3.208e-4
-1.880, 3.177e-4
-1.879, 3.115e-4
-1.878, 3.085e-4
-1.877, 3.023e-4
-1.876, 2.992e-4
-1.875, 2.931e-4
-1.874, 2.900e-4
-1.873, 2.838e-4
-1.872, 2.807e-4
-1.871, 2.776e-4
-1.870, 2.715e-4
-1.869, 2.684e-4
-1.868, 2.653e-4
-1.867, 2.591e-4
-1.866, 2.561e-4
-1.865, 2.499e-4
-1.864, 2.468e-4
-1.863, 2.437e-4
-1.862, 2.406e-4
-1.861, 2.376e-4
-1.860, 2.314e-4
-1.859, 2.283e-4
-1.858, 2.252e-4
-1.857, 2.221e-4
-1.856, 2.191e-4
-1.855, 2.160e-4
-1.854, 2.129e-4
-1.853, 2.098e-4
-1.852, 2.067e-4
-1.851, 2.036e-4
-1.850, 1.975e-4
-1.849, 1.975e-4
-1.848, 1.944e-4
-1.847, 1.913e-4
-1.846, 1.882e-4
-1.845, 1.851e-4
-1.844, 1.821e-4
-1.843, 1.790e-4
-1.842, 1.759e-4
-1.841, 1.728e-4
-1.840, 1.697e-4
-1.839, 1.666e-4
-1.838, 1.636e-4
-1.837, 1.605e-4
-1.836, 1.605e-4
-1.835, 1.574e-4
-1.834, 1.543e-4
-1.833, 1.512e-4
-1.832, 1.512e-4
-1.831, 1.481e-4
-1.830, 1.451e-4
-1.829, 1.420e-4
-1.828, 1.389e-4
-1.827, 1.389e-4
-1.826, 1.358e-4
-1.825, 1.327e-4
-1.824, 1.296e-4
-1.823, 1.296e-4
-1.822, 1.266e-4
-1.821, 1.235e-4
-1.820, 1.204e-4
-1.819, 1.204e-4
-1.818, 1.173e-4
-1.817, 1.173e-4
-1.816, 1.142e-4
-1.815, 1.111e-4
-1.814, 1.111e-4
-1.813, 1.081e-4
-1.812, 1.081e-4
-1.811, 1.050e-4
-1.810, 1.019e-4
-1.809, 1.019e-4
-1.808, 9.882e-5
-1.807, 9.882e-5
-1.806, 9.573e-5
-1.805, 9.573e-5
-1.804, 9.265e-5
-1.803, 9.265e-5
-1.802, 8.957e-5
-1.801, 8.957e-5
-1.800, 8.648e-5
-1.799, 8.648e-5
-1.798, 8.340e-5
-1.797, 8.340e-5
-1.796, 8.340e-5
-1.795, 8.032e-5
-1.794, 8.032e-5
-1.793, 7.723e-5
-1.792, 7.415e-5
-1.791, 7.415e-5
-1.790, 7.415e-5
-1.789, 7.107e-5
-1.788, 7.107e-5
-1.787, 7.107e-5
-1.786, 6.798e-5
-1.785, 6.798e-5
-1.784, 6.798e-5
-1.783, 6.490e-5
-1.782, 6.490e-5
-1.781, 6.182e-5
-1.780, 6.182e-5
-1.779, 6.182e-5
-1.778, 5.873e-5
-1.777, 5.873e-5
-1.776, 5.873e-5
-1.775, 5.565e-5
-1.774, 5.565e-5
-1.773, 5.565e-5
-1.772, 5.257e-5
-1.771, 5.257e-5
-1.770, 5.257e-5
-1.769, 5.257e-5
-1.768, 5.257e-5
-1.767, 4.949e-5
-1.766, 4.949e-5
-1.765, 4.640e-5
-1.764, 4.640e-5
-1.763, 4.640e-5
-1.762, 4.640e-5
-1.761, 4.640e-5
-1.760, 4.332e-5
-1.759, 4.332e-5
-1.758, 4.332e-5
-1.757, 4.024e-5
-1.756, 4.024e-5
-1.755, 4.024e-5
-1.754, 4.024e-5
-1.753, 3.715e-5
-1.752, 3.715e-5
-1.751, 3.715e-5
-1.750, 3.715e-5
-1.749, 3.715e-5
-1.748, 3.715e-5
-1.747, 3.407e-5
-1.746, 3.407e-5
-1.745, 3.407e-5
-1.744, 3.099e-5
-1.743, 3.407e-5
-1.742, 3.099e-5
-1.741, 3.099e-5
-1.740, 3.099e-5
-1.739, 3.099e-5
-1.738, 3.099e-5
-1.737, 2.790e-5
-1.736, 2.790e-5
-1.735, 2.790e-5
-1.734, 2.790e-5
-1.733, 2.790e-5
-1.732, 2.482e-5
-1.731, 2.482e-5
-1.730, 2.482e-5
-1.729, 2.482e-5
-1.728, 2.482e-5
-1.727, 2.482e-5
-1.726, 2.174e-5
-1.725, 2.174e-5
-1.724, 2.174e-5
-1.723, 2.174e-5
-1.722, 2.174e-5
-1.721, 2.174e-5
-1.720, 2.174e-5
-1.719, 2.174e-5
-1.718, 2.174e-5
-1.717, 2.174e-5
-1.716, 2.174e-5
-1.715, 1.865e-5
-1.714, 1.865e-5
-1.713, 1.865e-5
-1.712, 1.865e-5
-1.711, 1.865e-5
-1.710, 1.865e-5
-1.709, 1.865e-5
-1.708, 1.865e-5
-1.707, 1.865e-5
-1.706, 1.865e-5
-1.705, 1.557e-5
-1.704, 1.557e-5
-1.703, 1.557e-5
-1.702, 1.557e-5
-1.701, 1.557e-5
-1.700, 1.557e-5
-1.699, 1.557e-5
-1.698, 1.557e-5
-1.697, 1.249e-5
-1.696, 1.249e-5
-1.695, 1.249e-5
-1.694, 1.249e-5
-1.693, 1.557e-5
-1.692, 1.249e-5
-1.691, 1.249e-5
-1.690, 1.249e-5
-1.689, 1.249e-5
-1.688, 1.249e-5
-1.687, 1.249e-5
-1.686, 1.249e-5
-1.685, 1.249e-5
-1.684, 9.405e-6
-1.683, 1.249e-5
-1.682, 1.249e-5
-1.681, 9.405e-6
-1.680, 1.249e-5
-1.679, 9.405e-6
-1.678, 9.405e-6
-1.677, 9.405e-6
-1.676, 9.405e-6
-1.675, 9.405e-6
-1.674, 9.405e-6
-1.673, 9.405e-6
-1.672, 9.405e-6
-1.671, 9.405e-6
-1.670, 9.405e-6
-1.669, 9.405e-6
-1.668, 9.405e-6
-1.667, 9.405e-6
-1.666, 9.405e-6
-1.665, 9.405e-6
-1.664, 9.405e-6
-1.663, 9.405e-6
-1.662, 6.322e-6
-1.661, 6.322e-6
-1.660, 6.322e-6
-1.659, 6.322e-6
-1.658, 6.322e-6
-1.657, 6.322e-6
-1.656, 6.322e-6
-1.655, 6.322e-6
-1.654, 6.322e-6
-1.653, 6.322e-6
-1.652, 6.322e-6
-1.651, 6.322e-6
-1.650, 6.322e-6
-1.649, 6.322e-6
-1.648, 6.322e-6
-1.647, 6.322e-6
-1.646, 6.322e-6
-1.645, 6.322e-6
-1.644, 6.322e-6
-1.643, 6.322e-6
-1.642, 6.322e-6
-1.641, 6.322e-6
-1.640, 6.322e-6
-1.639, 6.322e-6
-1.638, 6.322e-6
-1.637, 6.322e-6
-1.636, 3.239e-6
-1.635, 3.239e-6
-1.634, 6.322e-6
-1.633, 6.322e-6
-1.632, 3.239e-6
-1.631, 6.322e-6
-1.630, 3.239e-6
-1.629, 3.239e-6
-1.628, 3.239e-6
-1.627, 3.239e-6
-1.626, 3.239e-6
-1.625, 3.239e-6
-1.624, 3.239e-6
-1.623, 3.239e-6
-1.622, 3.239e-6
-1.621, 3.239e-6
-1.620, 3.239e-6
-1.619, 3.239e-6
-1.618, 3.239e-6
-1.617, 3.239e-6
-1.616, 3.239e-6
-1.615, 3.239e-6
-1.614, 3.239e-6
-1.613, 3.239e-6
-1.612, 3.239e-6
-1.611, 3.239e-6
-1.610, 3.239e-6
-1.609, 3.239e-6
-1.608, 3.239e-6
-1.607, 3.239e-6
-1.606, 3.239e-6
-1.605, 3.239e-6
-1.604, 3.239e-6
-1.603, 3.239e-6
-1.602, 3.239e-6
-1.601, 3.239e-6
-1.600, 3.239e-6
-1.599, 3.239e-6
-1.598, 3.239e-6
-1.597, 3.239e-6
-1.596, 3.239e-6
-1.595, 3.239e-6
-1.594, 3.239e-6
-1.593, 3.239e-6
-1.592, 3.239e-6
-1.591, 3.239e-6
-1.590, 3.239e-6
-1.589, 3.239e-6
-1.588, 3.239e-6
-1.587, 3.239e-6
-1.586, 3.239e-6
-1.585, 3.239e-6
-1.584, 3.239e-6
-1.583, 3.239e-6
-1.582, 1.559e-7
-1.581, 3.239e-6
-1.580, 3.239e-6
-1.579, 1.559e-7
-1.578, 3.239e-6
-1.577, 3.239e-6
-1.576, 1.559e-7
-1.575, 1.559e-7
-1.574, 1.559e-7
-1.573, 3.239e-6
-1.572, 3.239e-6
-1.571, 1.559e-7
-1.570, 1.559e-7
-1.569, 1.559e-7
-1.568, 1.559e-7
-1.567, 1.559e-7
-1.566, 1.559e-7
-1.565, 1.559e-7
-1.564, 1.559e-7
-1.563, 1.559e-7
-1.562, 1.559e-7
-1.561, 1.559e-7
-1.560, 1.559e-7
-1.559, 1.559e-7
-1.558, 1.559e-7
-1.557, 1.559e-7
-1.556, 1.559e-7
-1.555, 1.559e-7
-1.554, 1.559e-7
-1.553, 1.559e-7
-1.552, 1.559e-7
-1.551, 1.559e-7
-1.550, 1.559e-7
-1.549, 1.559e-7
-1.548, 1.559e-7
-1.547, 1.559e-7
-1.546, 1.559e-7
-1.545, 1.559e-7
-1.544, 1.559e-7
-1.543, 1.559e-7
-1.542, 1.559e-7
-1.541, 1.559e-7
-1.540, 1.559e-7
-1.539, 1.559e-7
-1.538, 1.559e-7
-1.537, 1.559e-7
-1.536, 1.559e-7
-1.535, 1.559e-7
-1.534, 1.559e-7
-1.533, 1.559e-7
-1.532, 1.559e-7
-1.531, 1.559e-7
-1.530, 1.559e-7
-1.529, 1.559e-7
-1.528, 1.559e-7
-1.527, 1.559e-7
-1.526, 1.559e-7
-1.525, 1.559e-7
-1.524, 1.559e-7
-1.523, 1.559e-7
-1.522, 1.559e-7
-1.521, 1.559e-7
-1.520, 1.559e-7
-1.519, 1.559e-7
-1.518, 1.559e-7
-1.517, 1.559e-7
-1.516, 1.559e-7
-1.515, 1.559e-7
-1.514, 1.559e-7
-1.513, 1.559e-7
-1.512, 1.559e-7
-1.511, 1.559e-7
-1.510, 1.559e-7
-1.509, 1.559e-7
-1.508, 1.559e-7
-1.507, 1.559e-7
-1.506, 1.559e-7
-1.505, 1.559e-7
-1.504, 1.559e-7
-1.503, 1.559e-7
-1.502, 1.559e-7
-1.501, 1.559e-7
-1.500, 1.559e-7
-1.499, 1.559e-7
-1.498, 1.559e-7
-1.497, 1.559e-7
-1.496, 1.559e-7
-1.495, 1.559e-7
-1.494, 1.559e-7
-1.493, 1.559e-7
-1.492, 1.559e-7
-1.491, 1.559e-7
-1.490, 1.559e-7
-1.489, 1.559e-7
-1.488, 1.559e-7
-1.487, 1.559e-7
-1.486, 1.559e-7
-1.485, 1.559e-7
-1.484, 1.559e-7
-1.483, 1.559e-7
-1.482, 1.559e-7
-1.481, 1.559e-7
-1.480, 1.559e-7
-1.479, 1.559e-7
-1.478, 1.559e-7
-1.477, 1.559e-7
-1.476, 1.559e-7
-1.475, 1.559e-7
-1.474, 1.559e-7
-1.473, 1.559e-7
-1.472, 1.559e-7
-1.471, 1.559e-7
-1.470, 1.559e-7
-1.469, 1.559e-7
-1.468, 1.559e-7
-1.467, 1.559e-7
-1.466, 1.559e-7
-1.465, 1.559e-7
-1.464, 1.559e-7
-1.463, 1.559e-7
-1.462, 1.559e-7
-1.461, 1.559e-7
-1.460, 1.559e-7
-1.459, 1.559e-7
-1.458, 1.559e-7
-1.457, 1.559e-7
-1.456, 1.559e-7
-1.455, 1.559e-7
-1.454, 1.559e-7
-1.453, 1.559e-7
-1.452, 1.559e-7
-1.451, 1.559e-7
-1.450, 1.559e-7
-1.449, -2.927e-6
-1.448, 1.559e-7
-1.447, -2.927e-6
-1.446, 1.559e-7
-1.445, 1.559e-7
-1.444, 1.559e-7
-1.443, 1.559e-7
-1.442, 1.559e-7
-1.441, 1.559e-7
-1.440, 1.559e-7
-1.439, 1.559e-7
-1.438, 1.559e-7
-1.437, 1.559e-7
-1.436, 1.559e-7
-1.435, 1.559e-7
-1.434, 1.559e-7
-1.433, 1.559e-7
-1.432, 1.559e-7
-1.431, 1.559e-7
-1.430, 1.559e-7
-1.429, 1.559e-7
-1.428, 1.559e-7
-1.427, 1.559e-7
-1.426, 1.559e-7
-1.425, 1.559e-7
-1.424, 1.559e-7
-1.423, 1.559e-7
-1.422, 1.559e-7
-1.421, 1.559e-7
-1.420, 1.559e-7
-1.419, 1.559e-7
-1.418, 1.559e-7
-1.417, 1.559e-7
-1.416, 1.559e-7
-1.415, 1.559e-7
-1.414, 1.559e-7
-1.413, 1.559e-7
-1.412, 1.559e-7
-1.411, 1.559e-7
-1.410, 1.559e-7
-1.409, 1.559e-7
-1.408, 1.559e-7
-1.407, 1.559e-7
-1.406, 1.559e-7
-1.405, 1.559e-7
-1.404, 1.559e-7
-1.403, 1.559e-7
-1.402, 1.559e-7
-1.401, 1.559e-7
-1.400, 1.559e-7
-1.399, 1.559e-7
-1.398, 1.559e-7
-1.397, 1.559e-7
-1.396, 1.559e-7
-1.395, 1.559e-7
-1.394, -2.927e-6
-1.393, 1.559e-7
-1.392, 1.559e-7
-1.391, 1.559e-7
-1.390, 1.559e-7
-1.389, 1.559e-7
-1.388, 1.559e-7
-1.387, 1.559e-7
-1.386, 1.559e-7
-1.385, 1.559e-7
-1.384, 1.559e-7
-1.383, 1.559e-7
-1.382, -2.927e-6
-1.381, 1.559e-7
-1.380, -2.927e-6
-1.379, 1.559e-7
-1.378, 1.559e-7
-1.377, 1.559e-7
-1.376, 1.559e-7
-1.375, 1.559e-7
-1.374, -2.927e-6
-1.373, 1.559e-7
-1.372, 1.559e-7
-1.371, 1.559e-7
-1.370, 1.559e-7
-1.369, 1.559e-7
-1.368, 1.559e-7
-1.367, 1.559e-7
-1.366, 1.559e-7
-1.365, -2.927e-6
-1.364, 1.559e-7
-1.363, 1.559e-7
-1.362, 1.559e-7
-1.361, 1.559e-7
-1.360, 1.559e-7
-1.359, 1.559e-7
-1.358, 1.559e-7
-1.357, 1.559e-7
-1.356, 1.559e-7
-1.355, 1.559e-7
-1.354, 1.559e-7
-1.353, 1.559e-7
-1.352, 1.559e-7
-1.351, 1.559e-7
-1.350, 1.559e-7
-1.349, -2.927e-6
-1.348, 1.559e-7
-1.347, 1.559e-7
-1.346, 1.559e-7
-1.345, 1.559e-7
-1.344, 1.559e-7
-1.343, 1.559e-7
-1.342, 1.559e-7
-1.341, 1.559e-7
-1.340, -2.927e-6
-1.339, 1.559e-7
-1.338, 1.559e-7
-1.337, 1.559e-7
-1.336, 1.559e-7
-1.335, 1.559e-7
-1.334, 1.559e-7
-1.333, 1.559e-7
-1.332, -2.927e-6
-1.331, 1.559e-7
-1.330, -2.927e-6
-1.329, 1.559e-7
-1.328, 1.559e-7
-1.327, -2.927e-6
-1.326, 1.559e-7
-1.325, 1.559e-7
-1.324, -2.927e-6
-1.323, 1.559e-7
-1.322, 1.559e-7
-1.321, 1.559e-7
-1.320, 1.559e-7
-1.319, -2.927e-6
-1.318, 1.559e-7
-1.317, -2.927e-6
-1.316, 1.559e-7
-1.315, 1.559e-7
-1.314, 1.559e-7
-1.313, 1.559e-7
-1.312, 1.559e-7
-1.311, 1.559e-7
-1.310, -2.927e-6
-1.309, 1.559e-7
-1.308, 1.559e-7
-1.307, 1.559e-7
-1.306, 1.559e-7
-1.305, -2.927e-6
-1.304, 1.559e-7
-1.303, 1.559e-7
-1.302, 1.559e-7
-1.301, 1.559e-7
-1.300, 1.559e-7
-1.299, -2.927e-6
-1.298, -2.927e-6
-1.297, 1.559e-7
-1.296, 1.559e-7
-1.295, -2.927e-6
-1.294, 1.559e-7
-1.293, 1.559e-7
-1.292, -2.927e-6
-1.291, 1.559e-7
-1.290, -2.927e-6
-1.289, -2.927e-6
-1.288, 1.559e-7
-1.287, 1.559e-7
-1.286, 1.559e-7
-1.285, -2.927e-6
-1.284, -2.927e-6
-1.283, 1.559e-7
-1.282, -2.927e-6
-1.281, 1.559e-7
-1.280, 1.559e-7
-1.279, -2.927e-6
-1.278, 1.559e-7
-1.277, -2.927e-6
-1.276, 1.559e-7
-1.275, -2.927e-6
-1.274, -2.927e-6
-1.273, -2.927e-6
-1.272, -2.927e-6
-1.271, -2.927e-6
-1.270, 1.559e-7
-1.269, 1.559e-7
-1.268, 1.559e-7
-1.267, 1.559e-7
-1.266, -2.927e-6
-1.265, -2.927e-6
-1.264, -2.927e-6
-1.263, -2.927e-6
-1.262, 1.559e-7
-1.261, -2.927e-6
-1.260, -2.927e-6
-1.259, -2.927e-6
-1.258, 1.559e-7
-1.257, 1.559e-7
-1.256, -2.927e-6
-1.255, -2.927e-6
-1.254, -2.927e-6
-1.253, -2.927e-6
-1.252, 1.559e-7
-1.251, -2.927e-6
-1.250, 1.559e-7
-1.249, -2.927e-6
-1.248, 1.559e-7
-1.247, -2.927e-6
-1.246, 1.559e-7
-1.245, 1.559e-7
-1.244, 1.559e-7
-1.243, 1.559e-7
-1.242, -2.927e-6
-1.241, -2.927e-6
-1.240, 1.559e-7
-1.239, 1.559e-7
-1.238, -2.927e-6
-1.237, 1.559e-7
-1.236, 1.559e-7
-1.235, -2.927e-6
-1.234, 1.559e-7
-1.233, -2.927e-6
-1.232, 1.559e-7
-1.231, -2.927e-6
-1.230, -2.927e-6
-1.229, -2.927e-6
-1.228, -2.927e-6
-1.227, -2.927e-6
-1.226, 1.559e-7
-1.225, -2.927e-6
-1.224, -2.927e-6
-1.223, 1.559e-7
-1.222, 1.559e-7
-1.221, -2.927e-6
-1.220, -2.927e-6
-1.219, -2.927e-6
-1.218, -2.927e-6
-1.217, -2.927e-6
-1.216, -2.927e-6
-1.215, -2.927e-6
-1.214, -2.927e-6
-1.213, -2.927e-6
-1.212, -2.927e-6
-1.211, 1.559e-7
-1.210, 1.559e-7
-1.209, -2.927e-6
-1.208, -2.927e-6
-1.207, -2.927e-6
-1.206, -2.927e-6
-1.205, -2.927e-6
-1.204, -2.927e-6
-1.203, 1.559e-7
-1.202, 1.559e-7
-1.201, 1.559e-7
-1.200, -2.927e-6
-1.199, -2.927e-6
-1.198, -2.927e-6
-1.197, 1.559e-7
-1.196, -2.927e-6
-1.195, -2.927e-6
-1.194, 1.559e-7
-1.193, -2.927e-6
-1.192, -2.927e-6
-1.191, -2.927e-6
-1.190, -2.927e-6
-1.189, 1.559e-7
-1.188, -2.927e-6
-1.187, -2.927e-6
-1.186, -2.927e-6
-1.185, 1.559e-7
-1.184, -2.927e-6
-1.183, -2.927e-6
-1.182, -2.927e-6
-1.181, -2.927e-6
-1.180, -2.927e-6
-1.179, 1.559e-7
-1.178, -2.927e-6
-1.177, -2.927e-6
-1.176, 1.559e-7
-1.175, -2.927e-6
-1.174, -2.927e-6
-1.173, -2.927e-6
-1.172, -2.927e-6
-1.171, -2.927e-6
-1.170, 1.559e-7
-1.169, 1.559e-7
-1.168, 1.559e-7
-1.167, -2.927e-6
-1.166, -2.927e-6
-1.165, -2.927e-6
-1.164, -2.927e-6
-1.163, -2.927e-6
-1.162, -2.927e-6
-1.161, -2.927e-6
-1.160, -2.927e-6
-1.159, -2.927e-6
-1.158, -2.927e-6
-1.157, -2.927e-6
-1.156, -2.927e-6
-1.155, -2.927e-6
-1.154, -2.927e-6
-1.153, -2.927e-6
-1.152, -2.927e-6
-1.151, -2.927e-6
-1.150, -2.927e-6
-1.149, -2.927e-6
-1.148, 1.559e-7
-1.147, -2.927e-6
-1.146, 1.559e-7
-1.145, -2.927e-6
-1.144, -2.927e-6
-1.143, -2.927e-6
-1.142, -2.927e-6
-1.141, -2.927e-6
-1.140, -2.927e-6
-1.139, -2.927e-6
-1.138, 1.559e-7
-1.137, 1.559e-7
-1.136, -2.927e-6
-1.135, -2.927e-6
-1.134, -2.927e-6
-1.133, 1.559e-7
-1.132, -2.927e-6
-1.131, -2.927e-6
-1.130, -2.927e-6
-1.129, -2.927e-6
-1.128, -2.927e-6
-1.127, -2.927e-6
-1.126, -2.927e-6
-1.125, -2.927e-6
-1.124, -2.927e-6
-1.123, -2.927e-6
-1.122, -2.927e-6
-1.121, 1.559e-7
-1.120, -2.927e-6
-1.119, -2.927e-6
-1.118, -2.927e-6
-1.117, -2.927e-6
-1.116, -2.927e-6
-1.115, -2.927e-6
-1.114, -2.927e-6
-1.113, -2.927e-6
-1.112, -2.927e-6
-1.111, -2.927e-6
-1.110, -2.927e-6
-1.109, -2.927e-6
-1.108, -2.927e-6
-1.107, -2.927e-6
-1.106, -2.927e-6
-1.105, -2.927e-6
-1.104, -2.927e-6
-1.103, -2.927e-6
-1.102, -2.927e-6
-1.101, -2.927e-6
-1.100, -2.927e-6
-1.099, -2.927e-6
-1.098, -2.927e-6
-1.097, -2.927e-6
-1.096, -2.927e-6
-1.095, -2.927e-6
-1.094, -2.927e-6
-1.093, -2.927e-6
-1.092, -2.927e-6
-1.091, -2.927e-6
-1.090, -2.927e-6
-1.089, -2.927e-6
-1.088, -2.927e-6
-1.087, -2.927e-6
-1.086, -2.927e-6
-1.085, -2.927e-6
-1.084, -2.927e-6
-1.083, -2.927e-6
-1.082, -2.927e-6
-1.081, -2.927e-6
-1.080, -2.927e-6
-1.079, -2.927e-6
-1.078, -2.927e-6
-1.077, -2.927e-6
-1.076, -2.927e-6
-1.075, -2.927e-6
-1.074, -2.927e-6
-1.073, -2.927e-6
-1.072, -2.927e-6
-1.071, -2.927e-6
-1.070, -2.927e-6
-1.069, -2.927e-6
-1.068, -2.927e-6
-1.067, -2.927e-6
-1.066, -2.927e-6
-1.065, -2.927e-6
-1.064, -2.927e-6
-1.063, -2.927e-6
-1.062, -2.927e-6
-1.061, -2.927e-6
-1.060, -2.927e-6
-1.059, -2.927e-6
-1.058, -2.927e-6
-1.057, -2.927e-6
-1.056, -2.927e-6
-1.055, -2.927e-6
-1.054, -2.927e-6
-1.053, -2.927e-6
-1.052, -2.927e-6
-1.051, -2.927e-6
-1.050, -2.927e-6
-1.049, -2.927e-6
-1.048, -2.927e-6
-1.047, -2.927e-6
-1.046, -2.927e-6
-1.045, -2.927e-6
-1.044, -2.927e-6
-1.043, -2.927e-6
-1.042, -2.927e-6
-1.041, -2.927e-6
-1.040, -2.927e-6
-1.039, -2.927e-6
-1.038, -2.927e-6
-1.037, -2.927e-6
-1.036, -2.927e-6
-1.035, -2.927e-6
-1.034, -2.927e-6
-1.033, -2.927e-6
-1.032, -2.927e-6
-1.031, -2.927e-6
-1.030, -2.927e-6
-1.029, -2.927e-6
-1.028, -2.927e-6
-1.027, -2.927e-6
-1.026, -2.927e-6
-1.025, -2.927e-6
-1.024, -2.927e-6
-1.023, -2.927e-6
-1.022, -2.927e-6
-1.021, -2.927e-6
-1.020, -2.927e-6
-1.019, -2.927e-6
-1.018, -2.927e-6
-1.017, -2.927e-6
-1.016, -2.927e-6
-1.015, -2.927e-6
-1.014, -2.927e-6
-1.013, -2.927e-6
-1.012, -2.927e-6
-1.011, -2.927e-6
-1.010, -2.927e-6
-1.009, -2.927e-6
-1.008, -2.927e-6
-1.007, -2.927e-6
-1.006, -2.927e-6
-1.005, -2.927e-6
-1.004, -2.927e-6
-1.003, -2.927e-6
-1.002, -2.927e-6
-1.001, -2.927e-6
