Potential V vs RHE, Current mA cm-2
0.013299999999999867,13.736846721689506
0.012299999999999978,11.862354249368334
0.011299999999999866,10.03030311604311
0.010299999999999976,8.372261472601286
0.009299999999999864,6.75807587945528
0.008299999999999974,5.231602386900906
0.007299999999999862,3.748984944642347
0.006299999999999972,2.30880884137974
0.00529999999999986,0.870188920546984
0.0042999999999999705,-0.6128529351015338
0.0032999999999998586,-2.052746096104168
0.0022999999999999687,-3.4915074880669104
0.0012999999999998568,-4.887827541033701
0.00029999999999996696,-6.282732882700628
-0.000700000000000145,-7.591340835075788
-0.0017000000000000348,-8.85609273715513
-0.0027000000000001467,-10.120844639234473
-0.0037000000000000366,-11.299299152022046
-0.0047000000000001485,-12.432482903213943
-0.005700000000000038,-13.654793466297335
-0.00670000000000015,-14.826174422585586
-0.00770000000000004,-16.014531914472215
-0.008700000000000152,-17.188742293360193
-0.009700000000000042,-18.362952672248177
-0.010700000000000154,-19.537163051136158
-0.011700000000000044,-20.683079204026836
-0.012700000000000156,-21.772406904922917
-0.013700000000000045,-22.861734605818995
-0.014700000000000157,-23.908620967719123
-0.015700000000000047,-24.9130659906233
-0.01670000000000016,-25.91751101352747
-0.01770000000000005,-26.907808923433
-0.01870000000000016,-27.912253946337174
-0.01970000000000005,-28.959140308237306
-0.020700000000000163,-30.00602667013743
-0.021700000000000053,-31.052913032037555
-0.022700000000000164,-32.05735805494172
-0.023700000000000054,-33.06180307784591
-0.024700000000000166,-34.02380676175414
-0.025700000000000056,-34.94336910666641
-0.026700000000000168,-35.806342999584075
-0.027700000000000058,-36.6834640055004
-0.02870000000000017,-37.56058501141672
-0.02970000000000006,-38.42355890433439
-0.03070000000000017,-39.38556258824262
-0.03170000000000006,-40.26268359415894
-0.03270000000000017,-41.22468727806717
-0.03370000000000006,-42.186690961975394
-0.034700000000000175,-43.04966485489307
-0.035700000000000065,-44.011668538801295
-0.03670000000000018,-44.84634820572166
-0.03770000000000007,-45.70932209863933
-0.03870000000000018,-46.501560426563756
-0.03970000000000007,-47.27965164148953
-0.04070000000000018,-48.114331308409895
-0.04170000000000007,-48.93486386233162
-0.04270000000000018,-49.76954352925199
-0.04370000000000007,-50.64666453516831
-0.044700000000000184,-51.509638428085985
-0.045700000000000074,-52.386759434002315
-0.046700000000000186,-53.26388043991864
-0.047700000000000076,-54.08441299384035
-0.04870000000000019,-54.919092660760725
-0.04970000000000008,-55.65474253669055
-0.05070000000000019,-56.44698086461496
-0.05170000000000008,-57.182630740544774
-0.05270000000000019,-57.974869068469204
-0.05370000000000008,-58.75296028339497
-0.05470000000000019,-59.587639950315335
-0.05570000000000008,-60.40817250423707
-0.056700000000000195,-61.28529351015339
-0.057700000000000085,-62.11997317707376
-0.058700000000000196,-62.94050573099548
-0.059700000000000086,-63.732744058919906
-0.0607000000000002,-64.51083527384567
-0.06170000000000009,-65.3030736017701
-0.0627000000000002,-66.03872347769992
-0.06370000000000009,-66.77437335362974
-0.0647000000000002,-67.56661168155415
-0.06570000000000009,-68.34470289647993
-0.0667000000000002,-69.1793825634003
-0.0677000000000001,-70.05650356931662
-0.0687000000000002,-70.87703612323833
-0.0697000000000001,-71.7117157901587
-0.07070000000000021,-72.53224834408043
-0.0717000000000001,-73.32448667200485
-0.07270000000000021,-74.06013654793468
-0.0737000000000001,-74.80993353686314
-0.07470000000000021,-75.50314207379701
-0.0757000000000001,-76.29538040172143
-0.07670000000000021,-77.03103027765125
-0.0777000000000001,-77.80912149257702
-0.07870000000000021,-78.64380115949739
-0.0797000000000001,-79.47848082641775
-0.08070000000000022,-80.38389605833139
-0.0817000000000001,-81.21857572525175
-0.08270000000000022,-82.03910827917348
-0.08370000000000011,-82.87378794609386
-0.08470000000000022,-83.60943782202366
-0.08570000000000011,-84.35923481095215
-0.08670000000000022,-85.09488468688197
-0.08770000000000011,-85.84468167581042
-0.08870000000000022,-86.66521422973216
-0.08970000000000011,-87.45745255765657
-0.09070000000000022,-88.32042645057423
-0.09170000000000011,-89.19754745649055
-0.09270000000000023,-90.03222712341093
-0.09370000000000012,-90.93764235532454
-0.09470000000000023,-91.77232202224494
-0.09570000000000012,-92.56456035016936
-0.09670000000000023,-93.34265156509512
-0.09770000000000012,-94.13488989301955
-0.09870000000000023,-94.87053976894937
-0.09970000000000012,-95.69107232287108
-0.10070000000000023,-96.52575198979144
-0.10170000000000012,-97.36043165671182
-0.10270000000000024,-98.2234055496295
-0.10370000000000013,-99.10052655554581
-0.10470000000000024,-99.97764756146215
-0.10570000000000013,-100.84062145437981
-0.10670000000000024,-101.6753011213002
-0.10770000000000013,-102.4958336752219
-0.10870000000000024,-103.28807200314633
-0.10970000000000013,-104.02372187907615
-0.11070000000000024,-104.85840154599651
-0.11170000000000013,-105.69308121291688
-0.11270000000000002,-106.55605510583456
-0.11370000000000013,-107.47561745074682
-0.11470000000000002,-108.35273845666316
-0.11570000000000014,-109.25815368857677
-0.11670000000000003,-110.1352746944931
-0.11770000000000014,-111.01239570040943
-0.11870000000000003,-111.83292825433115
-0.11970000000000014,-112.54028390426367
-0.12070000000000003,-113.36081645818538
-0.12170000000000014,-114.1530547861098
-0.12270000000000003,-114.93114600103557
-0.12370000000000014,-115.76582566795594
-0.12470000000000003,-116.62879956087362
-0.12570000000000014,-117.50592056678994
-0.12670000000000003,-118.38304157270628
-0.12770000000000015,-119.2884568046199
-0.12870000000000004,-120.16557781053622
-0.12970000000000015,-120.95781613846064
-0.13070000000000004,-121.77834869238235
-0.13170000000000015,-122.61302835930273
-0.13270000000000004,-123.39111957422851
-0.13370000000000015,-124.18335790215292
-0.13470000000000004,-125.00389045607463
-0.13570000000000015,-125.83857012299501
-0.13670000000000004,-126.71569112891132
-0.13770000000000016,-127.57866502182902
-0.13870000000000005,-128.54066870573723
-0.13970000000000016,-129.41778971165354
-0.14070000000000005,-130.28076360457123
-0.14170000000000016,-131.1154432714916
-0.14270000000000005,-131.89353448641737
-0.14370000000000016,-132.6857728143418
-0.14470000000000005,-133.52045248126214
-0.14570000000000016,-134.29854369618792
-0.14670000000000005,-135.17566470210423
-0.14770000000000016,-135.99619725602597
-0.14870000000000005,-136.91575960093826
-0.14970000000000017,-137.79288060685457
-0.15070000000000006,-138.7548842907628
-0.15170000000000017,-139.6602995226764
-0.15270000000000006,-140.53742052859275
-0.15370000000000017,-141.456982873505
-0.15470000000000006,-142.31995676642268
-0.15570000000000017,-143.16878354634173
-0.15670000000000006,-143.87613919627424
-0.15770000000000017,-144.72496597619326
-0.15870000000000006,-145.57379275611228
-0.15970000000000018,-146.5640906660178
-0.16070000000000007,-147.4129174459368
-0.16170000000000018,-148.40321535584232
-0.16270000000000007,-149.25204213576137
-0.16370000000000018,-150.24234004566688
-0.16470000000000007,-150.94969569559944
-0.16570000000000018,-151.7985224755184
-0.16670000000000007,-152.64734925543743
-0.16770000000000018,-153.49617603535648
-0.16870000000000007,-154.3450028152755
-0.16970000000000018,-155.19382959519453
-0.17070000000000007,-156.04265637511355
-0.17170000000000019,-157.03295428501906
-0.17270000000000008,-158.02325219492457
-0.1737000000000002,-159.01355010483013
-0.17470000000000008,-159.86237688474912
-0.1757000000000002,-160.71120366466818
-0.17670000000000008,-161.70150157457368
-0.1777000000000002,-162.40885722450622
-0.17870000000000008,-163.39915513441173
-0.1797000000000002,-164.24798191433075
-0.18070000000000008,-165.09680869424977
-0.1817000000000002,-165.94563547416882
-0.18270000000000008,-166.93593338407433
-0.1837000000000002,-167.78476016399335
-0.1847000000000001,-168.63358694391238
-0.1857000000000002,-169.48241372383137
-0.1867000000000001,-170.47271163373694
-0.1877000000000002,-171.32153841365593
-0.1887000000000001,-172.31183632356147
-0.1897000000000002,-173.01919197349397
-0.1907000000000001,-174.0094898833995
-0.1917000000000001,-174.85831666331853
-0.19269999999999998,-175.70714344323756
-0.1937000000000001,-176.55597022315658
-0.19469999999999998,-177.54626813306209
-0.1957000000000001,-178.3950949129811
-0.19669999999999999,-179.24392169290016
-0.1977000000000001,-180.23421960280567
-0.1987,-181.2245175127112
-0.1997000000000001,-182.07334429263022
-0.2007,-182.92217107254925
-0.2017000000000001,-183.91246898245475
-0.2027,-184.7612957623738
-0.2037000000000001,-185.6101225422928
-0.2047,-186.45894932221185
-0.2057000000000001,-187.44924723211736
-0.2067,-188.29807401203638
-0.2077000000000001,-189.2883719219419
-0.2087,-190.27866983184742
-0.2097000000000001,-191.12749661176645
-0.2107,-192.11779452167198
-0.2117000000000001,-193.10809243157752
-0.2127,-193.81544808151003
-0.2137000000000001,-194.80574599141553
-0.2147,-195.51310164134807
-0.2157000000000001,-196.50339955125358
-0.2167,-197.35222633117263
-0.21770000000000012,-198.3425242410781
-0.2187,-199.19135102099716
-0.21970000000000012,-200.18164893090267
-0.2207,-201.03047571082172
-0.22170000000000012,-202.16224475071377
-0.2227,-203.15254266061928
-0.22370000000000012,-204.0013694405383
-0.2247,-204.8501962204573
-0.22570000000000012,-205.69902300037634
-0.2267,-206.54784978029537
-0.22770000000000012,-207.5381476902009
-0.22870000000000001,-208.52844560010638
-0.22970000000000013,-209.51874351001192
-0.23070000000000002,-210.36757028993094
-0.23170000000000013,-211.35786819983647
-0.23270000000000002,-212.48963723972852
-0.23370000000000013,-213.47993514963403
-0.23470000000000002,-214.32876192955305
-0.23570000000000013,-215.31905983945856
-0.23670000000000002,-216.0264154893911
-0.2376999999999999,-216.87524226931012
-0.23870000000000002,-217.86554017921566
-0.2396999999999999,-218.71436695913465
-0.24070000000000003,-219.5631937390537
-0.24169999999999991,-220.5534916489592
-0.24270000000000003,-221.54378955886475
-0.24369999999999992,-222.53408746877028
-0.24470000000000003,-223.52438537867582
-0.24569999999999992,-224.37321215859478
-0.24670000000000003,-225.36351006850035
-0.24769999999999992,-226.21233684841937
-0.24870000000000003,-227.06116362833836
-0.24969999999999992,-227.9099904082574
-0.25070000000000003,-228.75881718817644
-0.2516999999999999,-229.74911509808197
-0.25270000000000004,-230.59794187800094
-0.2536999999999999,-231.5882397879065
-0.25470000000000004,-232.57853769781204
-0.2556999999999999,-233.56883560771757
-0.25670000000000004,-234.55913351762308
-0.25769999999999993,-235.54943142752862
-0.25870000000000004,-236.53972933743412
-0.25969999999999993,-237.38855611735315
-0.26070000000000004,-238.2373828972722
-0.26169999999999993,-239.0862096771912
-0.26270000000000004,-240.0765075870967
-0.26369999999999993,-240.92533436701575
-0.26470000000000005,-242.05710340690777
-0.26569999999999994,-242.90593018682682
-0.26670000000000005,-243.8962280967323
-0.26769999999999994,-244.8865260066378
-0.26870000000000005,-245.87682391654337
-0.26969999999999994,-246.8671218264489
-0.27070000000000005,-247.71594860636796
-0.27169999999999994,-248.70624651627344
-0.27270000000000005,-249.5550732961925
-0.27369999999999994,-250.4039000761115
-0.27470000000000006,-251.25272685603056
-0.27569999999999995,-252.243024765936
-0.27670000000000006,-253.09185154585506
-0.27769999999999995,-254.2236205857471
-0.27870000000000006,-255.21391849565262
-0.27969999999999995,-256.0627452755717
-0.28070000000000006,-257.1945143154637
-0.28169999999999995,-258.0433410953827
-0.28270000000000006,-259.0336390052882
-0.28369999999999995,-259.8824657852072
-0.28470000000000006,-260.8727636951128
-0.28569999999999995,-261.7215904750318
-0.28670000000000007,-262.57041725495077
-0.28769999999999996,-263.56071516485633
-0.28870000000000007,-264.55101307476184
-0.28969999999999996,-265.5413109846674
-0.29070000000000007,-266.5316088945729
-0.29169999999999996,-267.5219068044785
-0.29270000000000007,-268.512204714384
-0.29369999999999996,-269.5025026242895
-0.2947000000000001,-270.35132940420846
-0.29569999999999996,-271.20015618412754
-0.2967000000000001,-272.1904540940331
-0.29769999999999996,-273.1807520039386
-0.2987000000000001,-274.0295787838576
-0.29969999999999997,-275.1613478237496
-0.3007000000000001,-276.01017460366864
-0.30169999999999997,-277.0004725135742
-0.3027000000000001,-278.1322415534662
-0.30369999999999997,-279.1225394633717
-0.3047000000000001,-280.11283737327733
-0.30569999999999997,-280.9616641531963
-0.3067000000000001,-281.9519620631018
-0.3077,-282.9422599730073
-0.3087000000000001,-283.9325578829129
-0.3097,-284.7813846628319
-0.3107000000000001,-285.7716825727374
-0.3117,-286.76198048264297
-0.3127000000000001,-287.7522783925485
-0.3137,-288.742576302454
-0.3147000000000001,-289.73287421235955
-0.3157,-290.86464325225154
-0.3167000000000001,-291.71347003217056
-0.3177,-292.56229681208964
-0.3187000000000001,-293.55259472199515
-0.3197,-294.4014215019141
-0.3207000000000001,-295.3917194118196
-0.3217,-296.2405461917387
-0.3227000000000001,-297.23084410164427
-0.3237,-298.2211420115498
-0.3247000000000001,-299.2114399214552
-0.3257,-300.3432089613473
-0.3267000000000001,-301.33350687125284
-0.3277,-302.32380478115834
-0.3287000000000001,-303.31410269106385
-0.3297,-304.3044006009694
-0.3307000000000001,-305.29469851087487
-0.3317,-306.1435252907939
-0.3327000000000001,-307.1338232006995
-0.3337,-308.124121110605
-0.3347000000000001,-309.1144190205105
-0.3357,-310.2461880604026
-0.3367000000000001,-311.2364859703081
-0.3377,-312.36825501020013
-0.3387000000000001,-313.35855292010564
-0.3397,-314.34885083001114
-0.3407000000000001,-315.19767760993017
-0.3417,-316.1879755198357
-0.3427000000000001,-317.1782734297412
-0.3437,-318.02710020966026
-0.3447000000000001,-319.01739811956577
-0.3457,-320.00769602947133
-0.3467000000000001,-320.9979939393768
-0.3477,-322.12976297926883
-0.3487000000000001,-323.2615320191609
-0.3497,-324.25182992906645
-0.3507000000000001,-325.3835989689584
-0.3517,-326.23242574887746
-0.3527000000000001,-327.222723658783
-0.3537,-328.2130215686885
-0.3547000000000001,-329.20331947859404
-0.3557,-330.19361738849955
-0.35670000000000013,-331.3253864283916
-0.3577,-332.3156843382971
-0.35870000000000013,-333.44745337818915
-0.3597,-334.43775128809466
-0.36070000000000013,-335.5695203279867
-0.3617,-336.5598182378922
-0.3626999999999999,-337.69158727778427
-0.3637,-338.6818851876898
-0.3646999999999999,-339.6721830975953
-0.3657,-340.66248100750084
-0.3666999999999999,-341.51130778741987
-0.3677,-342.5016056973254
-0.3686999999999999,-343.63337473721737
-0.36970000000000003,-344.62367264712293
-0.3706999999999999,-345.47249942704195
-0.37170000000000003,-346.604268466934
-0.3726999999999999,-347.73603750682605
-0.37370000000000003,-348.72633541673156
-0.3746999999999999,-349.71663332663707
-0.37570000000000003,-350.7069312365426
-0.3766999999999999,-351.69722914644814
-0.37770000000000004,-352.68752705635364
-0.3786999999999999,-353.6778249662592
-0.37970000000000004,-354.66812287616466
-0.3806999999999999,-355.65842078607017
-0.38170000000000004,-356.7901898259622
-0.38269999999999993,-357.7804877358678
-0.38370000000000004,-358.91225677575983
-0.38469999999999993,-359.90255468566534
-0.38570000000000004,-361.0343237255574
-0.38669999999999993,-360.6099103355978
-0.38570000000000004,-357.7804877358678
-0.38469999999999993,-355.09253626612417
-0.38370000000000004,-352.4045847963807
-0.38269999999999993,-349.71663332663707
-0.38170000000000004,-347.17015298688
-0.3806999999999999,-344.62367264712293
-0.37970000000000004,-342.07719230736586
-0.3786999999999999,-339.6721830975953
-0.37770000000000004,-337.26717388782475
-0.3766999999999999,-334.7206935480677
-0.37570000000000003,-332.1742132083106
-0.3746999999999999,-329.76920399854004
-0.37370000000000003,-327.222723658783
-0.3726999999999999,-324.67624331902596
-0.37170000000000003,-322.2712341092554
-0.3706999999999999,-319.72475376949825
-0.36970000000000003,-317.3197445597277
-0.3686999999999999,-314.77326421997066
-0.3677,-312.36825501020013
-0.3666999999999999,-310.10471693041603
-0.3657,-307.69970772064545
-0.3646999999999999,-305.43616964086146
-0.3637,-303.0311604310908
-0.3626999999999999,-300.76762235130684
-0.3617,-298.2211420115498
-0.36070000000000013,-295.8161328017792
-0.3597,-293.4111235920086
-0.35870000000000013,-291.14758551222457
-0.3577,-288.742576302454
-0.35670000000000013,-286.47903822266994
-0.3557,-284.2155001428859
-0.3547000000000001,-282.09343319308834
-0.3537,-279.6884239833177
-0.3527000000000001,-277.4248859035337
-0.3517,-275.1613478237496
-0.3507000000000001,-272.8978097439656
-0.3497,-270.49280053419506
-0.3487000000000001,-268.22926245441096
-0.3477,-265.9657243746269
-0.3467000000000001,-263.7021862948428
-0.3457,-261.58011934504526
-0.3447000000000001,-259.4580523952477
-0.3437,-257.1945143154637
-0.3427000000000001,-255.07244736566614
-0.3417,-252.95038041586852
-0.3407000000000001,-250.6868423360845
-0.3397,-248.42330425630044
-0.3387000000000001,-246.30123730650286
-0.3377,-244.03769922671884
-0.3367000000000001,-241.77416114693477
-0.3357,-239.5106230671507
-0.3347000000000001,-237.38855611735315
-0.3337,-235.26648916755556
-0.3327000000000001,-233.1444222177581
-0.3317,-231.0223552679605
-0.3307000000000001,-228.90028831816295
-0.3297,-226.91969249835188
-0.3287000000000001,-224.65615441856778
-0.3277,-222.53408746877028
-0.3267000000000001,-220.41202051897272
-0.3257,-218.14848243918865
-0.3247000000000001,-215.88494435940459
-0.3237,-213.76287740960703
-0.3227000000000001,-211.782281589796
-0.3217,-209.66021463999843
-0.3207000000000001,-207.67961882018741
-0.3197,-205.69902300037634
-0.3187000000000001,-203.71842718056527
-0.3177,-201.59636023076774
-0.3167000000000001,-199.61576441095667
-0.3157,-197.63516859114563
-0.3147000000000001,-195.51310164134807
-0.3137,-193.3910346915505
-0.3127000000000001,-191.41043887173947
-0.3117,-189.2883719219419
-0.3107000000000001,-187.30777610213087
-0.3097,-185.3271802823198
-0.3087000000000001,-183.34658446250873
-0.3077,-181.5074597726842
-0.3067000000000001,-179.52686395287316
-0.30569999999999997,-177.54626813306209
-0.3047000000000001,-175.56567231325104
-0.30369999999999997,-173.58507649344
-0.3027000000000001,-171.46300954364247
-0.30169999999999997,-169.48241372383137
-0.3007000000000001,-167.50181790402033
-0.29969999999999997,-165.5212220842093
-0.2987000000000001,-163.68209739438475
-0.29769999999999996,-161.70150157457368
-0.2967000000000001,-159.86237688474912
-0.29569999999999996,-158.02325219492457
-0.2947000000000001,-156.18412750510007
-0.29369999999999996,-154.203531685289
-0.29270000000000007,-152.36440699546444
-0.29169999999999996,-150.38381117565342
-0.29070000000000007,-148.40321535584232
-0.28969999999999996,-146.4226195360313
-0.28870000000000007,-144.44202371622026
-0.28769999999999996,-142.6028990263957
-0.28670000000000007,-140.79206856256846
-0.28569999999999995,-138.96709098574257
-0.28470000000000006,-137.1845547479126
-0.28369999999999995,-135.387871397084
-0.28270000000000006,-133.5628938202581
-0.28169999999999995,-131.68132779143764
-0.28070000000000006,-129.8563502146117
-0.27969999999999995,-127.97478418579122
-0.27870000000000006,-126.09321815697072
-0.27769999999999995,-124.26824058014482
-0.27670000000000006,-122.42911589032028
-0.27569999999999995,-120.64657965249035
-0.27470000000000006,-118.94892609265229
-0.27369999999999994,-117.19468408081964
-0.27270000000000005,-115.4970305209816
-0.27169999999999994,-113.75693562214758
-0.27070000000000005,-112.01684072331359
-0.26969999999999994,-110.26259871148096
-0.26870000000000005,-108.43762113465506
