Dec. 12, 2024   11:20:17
Cyclic Voltammetry
File: c:/users/guazh/data/banditlqround7_x0exp59_r20/2024-12-09-exp637\exp637-2024-12-12t11_14_47-h2koh\exp637_cv_sr_50mvs_efin_-1400mv.bin
Data Source:  Experiment
Instrument Model:  CHI760E
Header: CV ran at 50 mVs
Note: 

Init E (V) = -1
High E (V) = -1
Low E (V) = -1.4
Final E (V) = -1
Init P/N = N
Scan Rate (V/s) = 0.05
Segment = 3
Sample Interval (V) = 0.001
Quiet Time (sec) = 2
Sensitivity (A/V) = 0.01
Comp R (ohm) = 1.4

Results:

Channel 1:
Segment 1:
Ep = -1.287V
ip = 1.048e-3A
Ah = 1.939e-3C

Segment 2:

Segment 3:

Potential/V, Current/A

-1.000, -1.242e-3
-1.001, -1.137e-3
-1.002, -1.049e-3
-1.003, -9.725e-4
-1.004, -9.012e-4
-1.005, -8.359e-4
-1.006, -7.745e-4
-1.007, -7.171e-4
-1.008, -6.648e-4
-1.009, -6.135e-4
-1.010, -5.627e-4
-1.011, -5.140e-4
-1.012, -4.682e-4
-1.013, -4.261e-4
-1.014, -3.848e-4
-1.015, -3.436e-4
-1.016, -3.036e-4
-1.017, -2.650e-4
-1.018, -2.294e-4
-1.019, -1.937e-4
-1.020, -1.574e-4
-1.021, -1.225e-4
-1.022, -8.958e-5
-1.023, -5.892e-5
-1.024, -2.779e-5
-1.025, 3.846e-6
-1.026, 3.473e-5
-1.027, 6.337e-5
-1.028, 9.061e-5
-1.029, 1.171e-4
-1.030, 1.456e-4
-1.031, 1.731e-4
-1.032, 1.980e-4
-1.033, 2.217e-4
-1.034, 2.451e-4
-1.035, 2.704e-4
-1.036, 2.961e-4
-1.037, 3.193e-4
-1.038, 3.415e-4
-1.039, 3.641e-4
-1.040, 3.868e-4
-1.041, 4.098e-4
-1.042, 4.308e-4
-1.043, 4.502e-4
-1.044, 4.713e-4
-1.045, 4.929e-4
-1.046, 5.151e-4
-1.047, 5.358e-4
-1.048, 5.542e-4
-1.049, 5.729e-4
-1.050, 5.941e-4
-1.051, 6.141e-4
-1.052, 6.327e-4
-1.053, 6.497e-4
-1.054, 6.687e-4
-1.055, 6.892e-4
-1.056, 7.089e-4
-1.057, 7.274e-4
-1.058, 7.445e-4
-1.059, 7.621e-4
-1.060, 7.813e-4
-1.061, 8.004e-4
-1.062, 8.193e-4
-1.063, 8.370e-4
-1.064, 8.537e-4
-1.065, 8.723e-4
-1.066, 8.911e-4
-1.067, 9.087e-4
-1.068, 9.255e-4
-1.069, 9.421e-4
-1.070, 9.606e-4
-1.071, 9.797e-4
-1.072, 9.970e-4
-1.073, 1.013e-3
-1.074, 1.029e-3
-1.075, 1.048e-3
-1.076, 1.067e-3
-1.077, 1.084e-3
-1.078, 1.101e-3
-1.079, 1.117e-3
-1.080, 1.136e-3
-1.081, 1.155e-3
-1.082, 1.172e-3
-1.083, 1.187e-3
-1.084, 1.203e-3
-1.085, 1.220e-3
-1.086, 1.238e-3
-1.087, 1.255e-3
-1.088, 1.271e-3
-1.089, 1.287e-3
-1.090, 1.306e-3
-1.091, 1.325e-3
-1.092, 1.342e-3
-1.093, 1.358e-3
-1.094, 1.374e-3
-1.095, 1.392e-3
-1.096, 1.411e-3
-1.097, 1.430e-3
-1.098, 1.446e-3
-1.099, 1.463e-3
-1.100, 1.482e-3
-1.101, 1.500e-3
-1.102, 1.517e-3
-1.103, 1.533e-3
-1.104, 1.549e-3
-1.105, 1.569e-3
-1.106, 1.588e-3
-1.107, 1.606e-3
-1.108, 1.622e-3
-1.109, 1.639e-3
-1.110, 1.657e-3
-1.111, 1.673e-3
-1.112, 1.690e-3
-1.113, 1.706e-3
-1.114, 1.723e-3
-1.115, 1.746e-3
-1.116, 1.766e-3
-1.117, 1.784e-3
-1.118, 1.801e-3
-1.119, 1.818e-3
-1.120, 1.836e-3
-1.121, 1.854e-3
-1.122, 1.872e-3
-1.123, 1.888e-3
-1.124, 1.905e-3
-1.125, 1.926e-3
-1.126, 1.948e-3
-1.127, 1.967e-3
-1.128, 1.984e-3
-1.129, 2.000e-3
-1.130, 2.017e-3
-1.131, 2.037e-3
-1.132, 2.061e-3
-1.133, 2.079e-3
-1.134, 2.098e-3
-1.135, 2.120e-3
-1.136, 2.143e-3
-1.137, 2.162e-3
-1.138, 2.179e-3
-1.139, 2.195e-3
-1.140, 2.217e-3
-1.141, 2.239e-3
-1.142, 2.259e-3
-1.143, 2.279e-3
-1.144, 2.298e-3
-1.145, 2.320e-3
-1.146, 2.340e-3
-1.147, 2.359e-3
-1.148, 2.379e-3
-1.149, 2.397e-3
-1.150, 2.421e-3
-1.151, 2.446e-3
-1.152, 2.471e-3
-1.153, 2.490e-3
-1.154, 2.509e-3
-1.155, 2.532e-3
-1.156, 2.555e-3
-1.157, 2.578e-3
-1.158, 2.599e-3
-1.159, 2.621e-3
-1.160, 2.640e-3
-1.161, 2.659e-3
-1.162, 2.679e-3
-1.163, 2.704e-3
-1.164, 2.727e-3
-1.165, 2.753e-3
-1.166, 2.781e-3
-1.167, 2.807e-3
-1.168, 2.828e-3
-1.169, 2.849e-3
-1.170, 2.874e-3
-1.171, 2.904e-3
-1.172, 2.928e-3
-1.173, 2.948e-3
-1.174, 2.974e-3
-1.175, 3.001e-3
-1.176, 3.028e-3
-1.177, 3.056e-3
-1.178, 3.083e-3
-1.179, 3.112e-3
-1.180, 3.138e-3
-1.181, 3.167e-3
-1.182, 3.198e-3
-1.183, 3.221e-3
-1.184, 3.246e-3
-1.185, 3.275e-3
-1.186, 3.301e-3
-1.187, 3.330e-3
-1.188, 3.354e-3
-1.189, 3.380e-3
-1.190, 3.412e-3
-1.191, 3.445e-3
-1.192, 3.473e-3
-1.193, 3.499e-3
-1.194, 3.529e-3
-1.195, 3.560e-3
-1.196, 3.592e-3
-1.197, 3.620e-3
-1.198, 3.644e-3
-1.199, 3.670e-3
-1.200, 3.701e-3
-1.201, 3.735e-3
-1.202, 3.764e-3
-1.203, 3.796e-3
-1.204, 3.826e-3
-1.205, 3.855e-3
-1.206, 3.885e-3
-1.207, 3.913e-3
-1.208, 3.939e-3
-1.209, 3.972e-3
-1.210, 4.006e-3
-1.211, 4.040e-3
-1.212, 4.071e-3
-1.213, 4.095e-3
-1.214, 4.124e-3
-1.215, 4.151e-3
-1.216, 4.175e-3
-1.217, 4.213e-3
-1.218, 4.244e-3
-1.219, 4.277e-3
-1.220, 4.313e-3
-1.221, 4.331e-3
-1.222, 4.363e-3
-1.223, 4.386e-3
-1.224, 4.416e-3
-1.225, 4.451e-3
-1.226, 4.490e-3
-1.227, 4.522e-3
-1.228, 4.553e-3
-1.229, 4.583e-3
-1.230, 4.615e-3
-1.231, 4.646e-3
-1.232, 4.674e-3
-1.233, 4.704e-3
-1.234, 4.733e-3
-1.235, 4.762e-3
-1.236, 4.792e-3
-1.237, 4.816e-3
-1.238, 4.845e-3
-1.239, 4.875e-3
-1.240, 4.909e-3
-1.241, 4.941e-3
-1.242, 4.967e-3
-1.243, 4.997e-3
-1.244, 5.018e-3
-1.245, 5.043e-3
-1.246, 5.069e-3
-1.247, 5.099e-3
-1.248, 5.125e-3
-1.249, 5.152e-3
-1.250, 5.177e-3
-1.251, 5.200e-3
-1.252, 5.230e-3
-1.253, 5.253e-3
-1.254, 5.269e-3
-1.255, 5.293e-3
-1.256, 5.321e-3
-1.257, 5.345e-3
-1.258, 5.370e-3
-1.259, 5.394e-3
-1.260, 5.420e-3
-1.261, 5.439e-3
-1.262, 5.459e-3
-1.263, 5.473e-3
-1.264, 5.489e-3
-1.265, 5.511e-3
-1.266, 5.535e-3
-1.267, 5.562e-3
-1.268, 5.578e-3
-1.269, 5.594e-3
-1.270, 5.608e-3
-1.271, 5.626e-3
-1.272, 5.638e-3
-1.273, 5.649e-3
-1.274, 5.662e-3
-1.275, 5.676e-3
-1.276, 5.689e-3
-1.277, 5.700e-3
-1.278, 5.708e-3
-1.279, 5.712e-3
-1.280, 5.726e-3
-1.281, 5.726e-3
-1.282, 5.737e-3
-1.283, 5.741e-3
-1.284, 5.745e-3
-1.285, 5.753e-3
-1.286, 5.760e-3
-1.287, 5.765e-3
-1.288, 5.759e-3
-1.289, 5.762e-3
-1.290, 5.761e-3
-1.291, 5.763e-3
-1.292, 5.763e-3
-1.293, 5.764e-3
-1.294, 5.763e-3
-1.295, 5.765e-3
-1.296, 5.760e-3
-1.297, 5.759e-3
-1.298, 5.754e-3
-1.299, 5.750e-3
-1.300, 5.748e-3
-1.301, 5.743e-3
-1.302, 5.735e-3
-1.303, 5.725e-3
-1.304, 5.713e-3
-1.305, 5.706e-3
-1.306, 5.698e-3
-1.307, 5.692e-3
-1.308, 5.680e-3
-1.309, 5.665e-3
-1.310, 5.652e-3
-1.311, 5.642e-3
-1.312, 5.636e-3
-1.313, 5.635e-3
-1.314, 5.630e-3
-1.315, 5.616e-3
-1.316, 5.601e-3
-1.317, 5.587e-3
-1.318, 5.571e-3
-1.319, 5.556e-3
-1.320, 5.544e-3
-1.321, 5.538e-3
-1.322, 5.530e-3
-1.323, 5.515e-3
-1.324, 5.501e-3
-1.325, 5.488e-3
-1.326, 5.480e-3
-1.327, 5.468e-3
-1.328, 5.445e-3
-1.329, 5.433e-3
-1.330, 5.421e-3
-1.331, 5.425e-3
-1.332, 5.428e-3
-1.333, 5.424e-3
-1.334, 5.421e-3
-1.335, 5.418e-3
-1.336, 5.418e-3
-1.337, 5.415e-3
-1.338, 5.409e-3
-1.339, 5.405e-3
-1.340, 5.406e-3
-1.341, 5.407e-3
-1.342, 5.414e-3
-1.343, 5.419e-3
-1.344, 5.425e-3
-1.345, 5.434e-3
-1.346, 5.436e-3
-1.347, 5.440e-3
-1.348, 5.446e-3
-1.349, 5.454e-3
-1.350, 5.457e-3
-1.351, 5.465e-3
-1.352, 5.477e-3
-1.353, 5.493e-3
-1.354, 5.511e-3
-1.355, 5.523e-3
-1.356, 5.532e-3
-1.357, 5.553e-3
-1.358, 5.563e-3
-1.359, 5.575e-3
-1.360, 5.609e-3
-1.361, 5.614e-3
-1.362, 5.625e-3
-1.363, 5.659e-3
-1.364, 5.681e-3
-1.365, 5.699e-3
-1.366, 5.717e-3
-1.367, 5.740e-3
-1.368, 5.758e-3
-1.369, 5.775e-3
-1.370, 5.793e-3
-1.371, 5.816e-3
-1.372, 5.841e-3
-1.373, 5.857e-3
-1.374, 5.877e-3
-1.375, 5.898e-3
-1.376, 5.920e-3
-1.377, 5.941e-3
-1.378, 5.957e-3
-1.379, 5.982e-3
-1.380, 6.002e-3
-1.381, 6.015e-3
-1.382, 6.031e-3
-1.383, 6.045e-3
-1.384, 6.065e-3
-1.385, 6.086e-3
-1.386, 6.105e-3
-1.387, 6.123e-3
-1.388, 6.137e-3
-1.389, 6.147e-3
-1.390, 6.162e-3
-1.391, 6.175e-3
-1.392, 6.189e-3
-1.393, 6.200e-3
-1.394, 6.216e-3
-1.395, 6.236e-3
-1.396, 6.249e-3
-1.397, 6.258e-3
-1.398, 6.267e-3
-1.399, 6.277e-3
-1.400, 6.169e-3
-1.399, 5.960e-3
-1.398, 5.771e-3
-1.397, 5.601e-3
-1.396, 5.440e-3
-1.395, 5.291e-3
-1.394, 5.161e-3
-1.393, 5.040e-3
-1.392, 4.910e-3
-1.391, 4.785e-3
-1.390, 4.663e-3
-1.389, 4.556e-3
-1.388, 4.452e-3
-1.387, 4.341e-3
-1.386, 4.236e-3
-1.385, 4.133e-3
-1.384, 4.036e-3
-1.383, 3.940e-3
-1.382, 3.842e-3
-1.381, 3.749e-3
-1.380, 3.661e-3
-1.379, 3.575e-3
-1.378, 3.491e-3
-1.377, 3.406e-3
-1.376, 3.323e-3
-1.375, 3.241e-3
-1.374, 3.163e-3
-1.373, 3.090e-3
-1.372, 3.018e-3
-1.371, 2.939e-3
-1.370, 2.863e-3
-1.369, 2.795e-3
-1.368, 2.735e-3
-1.367, 2.668e-3
-1.366, 2.604e-3
-1.365, 2.542e-3
-1.364, 2.477e-3
-1.363, 2.414e-3
-1.362, 2.349e-3
-1.361, 2.289e-3
-1.360, 2.240e-3
-1.359, 2.194e-3
-1.358, 2.143e-3
-1.357, 2.090e-3
-1.356, 2.037e-3
-1.355, 1.986e-3
-1.354, 1.937e-3
-1.353, 1.888e-3
-1.352, 1.842e-3
-1.351, 1.794e-3
-1.350, 1.750e-3
-1.349, 1.707e-3
-1.348, 1.665e-3
-1.347, 1.621e-3
-1.346, 1.578e-3
-1.345, 1.536e-3
-1.344, 1.498e-3
-1.343, 1.459e-3
-1.342, 1.419e-3
-1.341, 1.380e-3
-1.340, 1.343e-3
-1.339, 1.308e-3
-1.338, 1.271e-3
-1.337, 1.234e-3
-1.336, 1.199e-3
-1.335, 1.164e-3
-1.334, 1.129e-3
-1.333, 1.097e-3
-1.332, 1.061e-3
-1.331, 1.026e-3
-1.330, 9.929e-4
-1.329, 9.604e-4
-1.328, 9.287e-4
-1.327, 8.954e-4
-1.326, 8.619e-4
-1.325, 8.297e-4
-1.324, 7.996e-4
-1.323, 7.698e-4
-1.322, 7.371e-4
-1.321, 7.035e-4
-1.320, 6.730e-4
-1.319, 6.420e-4
-1.318, 6.117e-4
-1.317, 5.813e-4
-1.316, 5.489e-4
-1.315, 5.189e-4
-1.314, 4.909e-4
-1.313, 4.618e-4
-1.312, 4.321e-4
-1.311, 4.016e-4
-1.310, 3.719e-4
-1.309, 3.442e-4
-1.308, 3.161e-4
-1.307, 2.867e-4
-1.306, 2.569e-4
-1.305, 2.285e-4
-1.304, 2.026e-4
-1.303, 1.756e-4
-1.302, 1.470e-4
-1.301, 1.182e-4
-1.300, 9.002e-5
-1.299, 6.411e-5
-1.298, 3.828e-5
-1.297, 1.088e-5
-1.296, -1.571e-5
-1.295, -4.183e-5
-1.294, -6.658e-5
-1.293, -9.069e-5
-1.292, -1.172e-4
-1.291, -1.442e-4
-1.290, -1.690e-4
-1.289, -1.923e-4
-1.288, -2.153e-4
-1.287, -2.401e-4
-1.286, -2.656e-4
-1.285, -2.893e-4
-1.284, -3.125e-4
-1.283, -3.351e-4
-1.282, -3.587e-4
-1.281, -3.830e-4
-1.280, -4.057e-4
-1.279, -4.264e-4
-1.278, -4.473e-4
-1.277, -4.695e-4
-1.276, -4.934e-4
-1.275, -5.153e-4
-1.274, -5.357e-4
-1.273, -5.563e-4
-1.272, -5.772e-4
-1.271, -5.993e-4
-1.270, -6.206e-4
-1.269, -6.401e-4
-1.268, -6.588e-4
-1.267, -6.806e-4
-1.266, -7.033e-4
-1.265, -7.253e-4
-1.264, -7.446e-4
-1.263, -7.648e-4
-1.262, -7.843e-4
-1.261, -8.053e-4
-1.260, -8.252e-4
-1.259, -8.447e-4
-1.258, -8.651e-4
-1.257, -8.860e-4
-1.256, -9.043e-4
-1.255, -9.223e-4
-1.254, -9.398e-4
-1.253, -9.570e-4
-1.252, -9.768e-4
-1.251, -9.974e-4
-1.250, -1.017e-3
-1.249, -1.034e-3
-1.248, -1.051e-3
-1.247, -1.069e-3
-1.246, -1.089e-3
-1.245, -1.109e-3
-1.244, -1.127e-3
-1.243, -1.143e-3
-1.242, -1.162e-3
-1.241, -1.182e-3
-1.240, -1.201e-3
-1.239, -1.220e-3
-1.238, -1.236e-3
-1.237, -1.256e-3
-1.236, -1.276e-3
-1.235, -1.296e-3
-1.234, -1.313e-3
-1.233, -1.330e-3
-1.232, -1.348e-3
-1.231, -1.369e-3
-1.230, -1.389e-3
-1.229, -1.410e-3
-1.228, -1.427e-3
-1.227, -1.445e-3
-1.226, -1.465e-3
-1.225, -1.484e-3
-1.224, -1.501e-3
-1.223, -1.519e-3
-1.222, -1.540e-3
-1.221, -1.560e-3
-1.220, -1.582e-3
-1.219, -1.599e-3
-1.218, -1.617e-3
-1.217, -1.637e-3
-1.216, -1.658e-3
-1.215, -1.679e-3
-1.214, -1.699e-3
-1.213, -1.717e-3
-1.212, -1.738e-3
-1.211, -1.760e-3
-1.210, -1.782e-3
-1.209, -1.802e-3
-1.208, -1.822e-3
-1.207, -1.842e-3
-1.206, -1.865e-3
-1.205, -1.887e-3
-1.204, -1.908e-3
-1.203, -1.928e-3
-1.202, -1.947e-3
-1.201, -1.968e-3
-1.200, -1.990e-3
-1.199, -2.014e-3
-1.198, -2.036e-3
-1.197, -2.061e-3
-1.196, -2.090e-3
-1.195, -2.113e-3
-1.194, -2.135e-3
-1.193, -2.155e-3
-1.192, -2.176e-3
-1.191, -2.199e-3
-1.190, -2.223e-3
-1.189, -2.246e-3
-1.188, -2.272e-3
-1.187, -2.300e-3
-1.186, -2.326e-3
-1.185, -2.354e-3
-1.184, -2.379e-3
-1.183, -2.400e-3
-1.182, -2.427e-3
-1.181, -2.455e-3
-1.180, -2.484e-3
-1.179, -2.510e-3
-1.178, -2.545e-3
-1.177, -2.578e-3
-1.176, -2.604e-3
-1.175, -2.626e-3
-1.174, -2.646e-3
-1.173, -2.668e-3
-1.172, -2.699e-3
-1.171, -2.729e-3
-1.170, -2.761e-3
-1.169, -2.802e-3
-1.168, -2.806e-3
-1.167, -2.740e-3
-1.166, -2.772e-3
-1.165, -2.800e-3
-1.164, -2.825e-3
-1.163, -2.850e-3
-1.162, -2.881e-3
-1.161, -2.911e-3
-1.160, -2.941e-3
-1.159, -2.969e-3
-1.158, -3.005e-3
-1.157, -3.035e-3
-1.156, -3.068e-3
-1.155, -3.111e-3
-1.154, -3.139e-3
-1.153, -3.163e-3
-1.152, -3.184e-3
-1.151, -3.210e-3
-1.150, -3.243e-3
-1.149, -3.273e-3
-1.148, -3.304e-3
-1.147, -3.338e-3
-1.146, -3.369e-3
-1.145, -3.400e-3
-1.144, -3.433e-3
-1.143, -3.470e-3
-1.142, -3.499e-3
-1.141, -3.523e-3
-1.140, -3.551e-3
-1.139, -3.579e-3
-1.138, -3.606e-3
-1.137, -3.634e-3
-1.136, -3.666e-3
-1.135, -3.702e-3
-1.134, -3.729e-3
-1.133, -3.752e-3
-1.132, -3.775e-3
-1.131, -3.805e-3
-1.130, -3.857e-3
-1.129, -3.875e-3
-1.128, -3.883e-3
-1.127, -3.907e-3
-1.126, -3.933e-3
-1.125, -3.953e-3
-1.124, -3.979e-3
-1.123, -4.002e-3
-1.122, -4.016e-3
-1.121, -4.047e-3
-1.120, -4.075e-3
-1.119, -4.098e-3
-1.118, -4.119e-3
-1.117, -4.139e-3
-1.116, -4.162e-3
-1.115, -4.182e-3
-1.114, -4.197e-3
-1.113, -4.212e-3
-1.112, -4.225e-3
-1.111, -4.255e-3
-1.110, -4.277e-3
-1.109, -4.291e-3
-1.108, -4.305e-3
-1.107, -4.322e-3
-1.106, -4.344e-3
-1.105, -4.365e-3
-1.104, -4.379e-3
-1.103, -4.393e-3
-1.102, -4.410e-3
-1.101, -4.424e-3
-1.100, -4.442e-3
-1.099, -4.456e-3
-1.098, -4.470e-3
-1.097, -4.483e-3
-1.096, -4.490e-3
-1.095, -4.501e-3
-1.094, -4.514e-3
-1.093, -4.527e-3
-1.092, -4.544e-3
-1.091, -4.565e-3
-1.090, -4.577e-3
-1.089, -4.591e-3
-1.088, -4.601e-3
-1.087, -4.616e-3
-1.086, -4.628e-3
-1.085, -4.641e-3
-1.084, -4.652e-3
-1.083, -4.663e-3
-1.082, -4.675e-3
-1.081, -4.687e-3
-1.080, -4.695e-3
-1.079, -4.702e-3
-1.078, -4.713e-3
-1.077, -4.727e-3
-1.076, -4.733e-3
-1.075, -4.747e-3
-1.074, -4.756e-3
-1.073, -4.766e-3
-1.072, -4.775e-3
-1.071, -4.782e-3
-1.070, -4.791e-3
-1.069, -4.799e-3
-1.068, -4.808e-3
-1.067, -4.813e-3
-1.066, -4.818e-3
-1.065, -4.830e-3
-1.064, -4.839e-3
-1.063, -4.841e-3
-1.062, -4.840e-3
-1.061, -4.845e-3
-1.060, -4.859e-3
-1.059, -4.865e-3
-1.058, -4.862e-3
-1.057, -4.874e-3
-1.056, -4.886e-3
-1.055, -4.886e-3
-1.054, -4.885e-3
-1.053, -4.890e-3
-1.052, -4.890e-3
-1.051, -4.894e-3
-1.050, -4.902e-3
-1.049, -4.915e-3
-1.048, -4.926e-3
-1.047, -4.935e-3
-1.046, -4.939e-3
-1.045, -4.943e-3
-1.044, -4.942e-3
-1.043, -4.939e-3
-1.042, -4.937e-3
-1.041, -4.938e-3
-1.040, -4.936e-3
-1.039, -4.940e-3
-1.038, -4.940e-3
-1.037, -4.943e-3
-1.036, -4.950e-3
-1.035, -4.950e-3
-1.034, -4.946e-3
-1.033, -4.948e-3
-1.032, -4.955e-3
-1.031, -4.959e-3
-1.030, -4.958e-3
-1.029, -4.958e-3
-1.028, -4.960e-3
-1.027, -4.954e-3
-1.026, -4.958e-3
-1.025, -4.969e-3
-1.024, -4.969e-3
-1.023, -4.969e-3
-1.022, -4.973e-3
-1.021, -4.980e-3
-1.020, -4.983e-3
-1.019, -4.976e-3
-1.018, -4.965e-3
-1.017, -4.976e-3
-1.016, -4.976e-3
-1.015, -4.980e-3
-1.014, -4.978e-3
-1.013, -4.975e-3
-1.012, -4.974e-3
-1.011, -4.974e-3
-1.010, -4.974e-3
-1.009, -4.970e-3
-1.008, -4.968e-3
-1.007, -4.966e-3
-1.006, -4.961e-3
-1.005, -4.953e-3
-1.004, -4.950e-3
-1.003, -4.944e-3
-1.002, -4.945e-3
-1.001, -4.946e-3
