Aug. 20, 2024   13:47:37
Cyclic Voltammetry
File: c:/users/guazh/data/20240813_batch_94_500/2024-08-15-exp141\exp141-2024-08-20t13_39_05-arkoh\exp141_cv_50mvs_efin_-1500mv.bin
Data Source:  Experiment
Instrument Model:  CHI760E
Header: CV ran at 50 mVs
Note: 

Init E (V) = -1
High E (V) = -1
Low E (V) = -1.5
Final E (V) = -1
Init P/N = N
Scan Rate (V/s) = 0.05
Segment = 7
Sample Interval (V) = 0.001
Quiet Time (sec) = 60
Sensitivity (A/V) = 0.001
Comp R (ohm) = 1.6

Results:

Channel 1:
Segment 1:

Segment 2:

Segment 3:

Segment 4:

Segment 5:

Segment 6:

Segment 7:

Potential/V, Current/A

-1.000, 1.409e-6
-1.001, 3.443e-6
-1.002, 4.592e-6
-1.003, 5.402e-6
-1.004, 5.994e-6
-1.005, 6.602e-6
-1.006, 6.964e-6
-1.007, 7.469e-6
-1.008, 7.905e-6
-1.009, 8.271e-6
-1.010, 8.667e-6
-1.011, 8.843e-6
-1.012, 9.245e-6
-1.013, 9.607e-6
-1.014, 9.807e-6
-1.015, 1.014e-5
-1.016, 1.034e-5
-1.017, 1.058e-5
-1.018, 1.095e-5
-1.019, 1.107e-5
-1.020, 1.132e-5
-1.021, 1.150e-5
-1.022, 1.177e-5
-1.023, 1.206e-5
-1.024, 1.225e-5
-1.025, 1.246e-5
-1.026, 1.264e-5
-1.027, 1.283e-5
-1.028, 1.311e-5
-1.029, 1.322e-5
-1.030, 1.346e-5
-1.031, 1.359e-5
-1.032, 1.374e-5
-1.033, 1.404e-5
-1.034, 1.418e-5
-1.035, 1.439e-5
-1.036, 1.449e-5
-1.037, 1.464e-5
-1.038, 1.493e-5
-1.039, 1.506e-5
-1.040, 1.520e-5
-1.041, 1.536e-5
-1.042, 1.553e-5
-1.043, 1.574e-5
-1.044, 1.590e-5
-1.045, 1.603e-5
-1.046, 1.615e-5
-1.047, 1.631e-5
-1.048, 1.651e-5
-1.049, 1.666e-5
-1.050, 1.680e-5
-1.051, 1.692e-5
-1.052, 1.711e-5
-1.053, 1.728e-5
-1.054, 1.741e-5
-1.055, 1.758e-5
-1.056, 1.765e-5
-1.057, 1.778e-5
-1.058, 1.801e-5
-1.059, 1.811e-5
-1.060, 1.827e-5
-1.061, 1.832e-5
-1.062, 1.847e-5
-1.063, 1.870e-5
-1.064, 1.875e-5
-1.065, 1.890e-5
-1.066, 1.894e-5
-1.067, 1.906e-5
-1.068, 1.927e-5
-1.069, 1.939e-5
-1.070, 1.951e-5
-1.071, 1.960e-5
-1.072, 1.970e-5
-1.073, 1.987e-5
-1.074, 1.998e-5
-1.075, 2.015e-5
-1.076, 2.016e-5
-1.077, 2.026e-5
-1.078, 2.042e-5
-1.079, 2.055e-5
-1.080, 2.058e-5
-1.081, 2.062e-5
-1.082, 2.074e-5
-1.083, 2.088e-5
-1.084, 2.096e-5
-1.085, 2.103e-5
-1.086, 2.105e-5
-1.087, 2.110e-5
-1.088, 2.128e-5
-1.089, 2.131e-5
-1.090, 2.145e-5
-1.091, 2.141e-5
-1.092, 2.148e-5
-1.093, 2.162e-5
-1.094, 2.163e-5
-1.095, 2.174e-5
-1.096, 2.170e-5
-1.097, 2.173e-5
-1.098, 2.182e-5
-1.099, 2.182e-5
-1.100, 2.190e-5
-1.101, 2.192e-5
-1.102, 2.196e-5
-1.103, 2.206e-5
-1.104, 2.202e-5
-1.105, 2.203e-5
-1.106, 2.208e-5
-1.107, 2.209e-5
-1.108, 2.218e-5
-1.109, 2.215e-5
-1.110, 2.217e-5
-1.111, 2.215e-5
-1.112, 2.209e-5
-1.113, 2.221e-5
-1.114, 2.223e-5
-1.115, 2.218e-5
-1.116, 2.212e-5
-1.117, 2.208e-5
-1.118, 2.220e-5
-1.119, 2.221e-5
-1.120, 2.215e-5
-1.121, 2.206e-5
-1.122, 2.204e-5
-1.123, 2.214e-5
-1.124, 2.204e-5
-1.125, 2.206e-5
-1.126, 2.199e-5
-1.127, 2.195e-5
-1.128, 2.200e-5
-1.129, 2.192e-5
-1.130, 2.190e-5
-1.131, 2.181e-5
-1.132, 2.177e-5
-1.133, 2.186e-5
-1.134, 2.180e-5
-1.135, 2.177e-5
-1.136, 2.169e-5
-1.137, 2.163e-5
-1.138, 2.166e-5
-1.139, 2.159e-5
-1.140, 2.158e-5
-1.141, 2.147e-5
-1.142, 2.144e-5
-1.143, 2.143e-5
-1.144, 2.138e-5
-1.145, 2.137e-5
-1.146, 2.128e-5
-1.147, 2.118e-5
-1.148, 2.124e-5
-1.149, 2.116e-5
-1.150, 2.117e-5
-1.151, 2.106e-5
-1.152, 2.104e-5
-1.153, 2.105e-5
-1.154, 2.098e-5
-1.155, 2.097e-5
-1.156, 2.093e-5
-1.157, 2.084e-5
-1.158, 2.088e-5
-1.159, 2.082e-5
-1.160, 2.079e-5
-1.161, 2.073e-5
-1.162, 2.071e-5
-1.163, 2.073e-5
-1.164, 2.068e-5
-1.165, 2.069e-5
-1.166, 2.058e-5
-1.167, 2.058e-5
-1.168, 2.060e-5
-1.169, 2.057e-5
-1.170, 2.056e-5
-1.171, 2.047e-5
-1.172, 2.051e-5
-1.173, 2.056e-5
-1.174, 2.050e-5
-1.175, 2.051e-5
-1.176, 2.041e-5
-1.177, 2.042e-5
-1.178, 2.049e-5
-1.179, 2.042e-5
-1.180, 2.044e-5
-1.181, 2.036e-5
-1.182, 2.042e-5
-1.183, 2.043e-5
-1.184, 2.037e-5
-1.185, 2.047e-5
-1.186, 2.040e-5
-1.187, 2.042e-5
-1.188, 2.045e-5
-1.189, 2.045e-5
-1.190, 2.046e-5
-1.191, 2.045e-5
-1.192, 2.050e-5
-1.193, 2.053e-5
-1.194, 2.053e-5
-1.195, 2.058e-5
-1.196, 2.052e-5
-1.197, 2.059e-5
-1.198, 2.067e-5
-1.199, 2.069e-5
-1.200, 2.071e-5
-1.201, 2.058e-5
-1.202, 2.070e-5
-1.203, 2.080e-5
-1.204, 2.080e-5
-1.205, 2.086e-5
-1.206, 2.075e-5
-1.207, 2.089e-5
-1.208, 2.096e-5
-1.209, 2.093e-5
-1.210, 2.099e-5
-1.211, 2.097e-5
-1.212, 2.108e-5
-1.213, 2.114e-5
-1.214, 2.117e-5
-1.215, 2.126e-5
-1.216, 2.118e-5
-1.217, 2.128e-5
-1.218, 2.135e-5
-1.219, 2.139e-5
-1.220, 2.147e-5
-1.221, 2.148e-5
-1.222, 2.152e-5
-1.223, 2.166e-5
-1.224, 2.162e-5
-1.225, 2.175e-5
-1.226, 2.180e-5
-1.227, 2.185e-5
-1.228, 2.196e-5
-1.229, 2.204e-5
-1.230, 2.205e-5
-1.231, 2.211e-5
-1.232, 2.221e-5
-1.233, 2.227e-5
-1.234, 2.240e-5
-1.235, 2.240e-5
-1.236, 2.243e-5
-1.237, 2.256e-5
-1.238, 2.258e-5
-1.239, 2.269e-5
-1.240, 2.273e-5
-1.241, 2.277e-5
-1.242, 2.296e-5
-1.243, 2.296e-5
-1.244, 2.313e-5
-1.245, 2.319e-5
-1.246, 2.322e-5
-1.247, 2.336e-5
-1.248, 2.339e-5
-1.249, 2.353e-5
-1.250, 2.364e-5
-1.251, 2.364e-5
-1.252, 2.379e-5
-1.253, 2.383e-5
-1.254, 2.399e-5
-1.255, 2.411e-5
-1.256, 2.412e-5
-1.257, 2.440e-5
-1.258, 2.442e-5
-1.259, 2.453e-5
-1.260, 2.464e-5
-1.261, 2.471e-5
-1.262, 2.492e-5
-1.263, 2.499e-5
-1.264, 2.516e-5
-1.265, 2.526e-5
-1.266, 2.533e-5
-1.267, 2.556e-5
-1.268, 2.563e-5
-1.269, 2.585e-5
-1.270, 2.595e-5
-1.271, 2.601e-5
-1.272, 2.625e-5
-1.273, 2.631e-5
-1.274, 2.652e-5
-1.275, 2.657e-5
-1.276, 2.673e-5
-1.277, 2.695e-5
-1.278, 2.704e-5
-1.279, 2.723e-5
-1.280, 2.736e-5
-1.281, 2.746e-5
-1.282, 2.776e-5
-1.283, 2.785e-5
-1.284, 2.810e-5
-1.285, 2.822e-5
-1.286, 2.834e-5
-1.287, 2.861e-5
-1.288, 2.870e-5
-1.289, 2.893e-5
-1.290, 2.913e-5
-1.291, 2.924e-5
-1.292, 2.949e-5
-1.293, 2.965e-5
-1.294, 3.001e-5
-1.295, 3.018e-5
-1.296, 3.029e-5
-1.297, 3.056e-5
-1.298, 3.069e-5
-1.299, 3.103e-5
-1.300, 3.117e-5
-1.301, 3.134e-5
-1.302, 3.165e-5
-1.303, 3.187e-5
-1.304, 3.219e-5
-1.305, 3.241e-5
-1.306, 3.261e-5
-1.307, 3.291e-5
-1.308, 3.313e-5
-1.309, 3.352e-5
-1.310, 3.369e-5
-1.311, 3.394e-5
-1.312, 3.425e-5
-1.313, 3.451e-5
-1.314, 3.491e-5
-1.315, 3.510e-5
-1.316, 3.535e-5
-1.317, 3.573e-5
-1.318, 3.599e-5
-1.319, 3.643e-5
-1.320, 3.660e-5
-1.321, 3.690e-5
-1.322, 3.728e-5
-1.323, 3.756e-5
-1.324, 3.796e-5
-1.325, 3.829e-5
-1.326, 3.858e-5
-1.327, 3.898e-5
-1.328, 3.934e-5
-1.329, 3.981e-5
-1.330, 4.017e-5
-1.331, 4.052e-5
-1.332, 4.097e-5
-1.333, 4.124e-5
-1.334, 4.173e-5
-1.335, 4.204e-5
-1.336, 4.241e-5
-1.337, 4.323e-5
-1.338, 4.381e-5
-1.339, 4.424e-5
-1.340, 4.460e-5
-1.341, 4.517e-5
-1.342, 4.569e-5
-1.343, 4.611e-5
-1.344, 4.652e-5
-1.345, 4.695e-5
-1.346, 4.737e-5
-1.347, 4.770e-5
-1.348, 4.821e-5
-1.349, 4.878e-5
-1.350, 4.919e-5
-1.351, 4.966e-5
-1.352, 5.014e-5
-1.353, 5.061e-5
-1.354, 5.124e-5
-1.355, 5.165e-5
-1.356, 5.225e-5
-1.357, 5.280e-5
-1.358, 5.333e-5
-1.359, 5.403e-5
-1.360, 5.455e-5
-1.361, 5.514e-5
-1.362, 5.577e-5
-1.363, 5.625e-5
-1.364, 5.693e-5
-1.365, 5.755e-5
-1.366, 5.808e-5
-1.367, 5.876e-5
-1.368, 5.936e-5
-1.369, 6.006e-5
-1.370, 6.072e-5
-1.371, 6.138e-5
-1.372, 6.208e-5
-1.373, 6.279e-5
-1.374, 6.352e-5
-1.375, 6.423e-5
-1.376, 6.495e-5
-1.377, 6.568e-5
-1.378, 6.642e-5
-1.379, 6.716e-5
-1.380, 6.791e-5
-1.381, 6.884e-5
-1.382, 6.964e-5
-1.383, 7.047e-5
-1.384, 7.131e-5
-1.385, 7.202e-5
-1.386, 7.293e-5
-1.387, 7.372e-5
-1.388, 7.447e-5
-1.389, 7.541e-5
-1.390, 7.626e-5
-1.391, 7.740e-5
-1.392, 7.842e-5
-1.393, 7.926e-5
-1.394, 8.012e-5
-1.395, 8.104e-5
-1.396, 8.207e-5
-1.397, 8.300e-5
-1.398, 8.396e-5
-1.399, 8.496e-5
-1.400, 8.594e-5
-1.401, 8.690e-5
-1.402, 8.794e-5
-1.403, 8.894e-5
-1.404, 9.003e-5
-1.405, 9.107e-5
-1.406, 9.214e-5
-1.407, 9.324e-5
-1.408, 9.431e-5
-1.409, 9.540e-5
-1.410, 9.650e-5
-1.411, 9.701e-5
-1.412, 9.795e-5
-1.413, 9.915e-5
-1.414, 1.003e-4
-1.415, 1.014e-4
-1.416, 1.027e-4
-1.417, 1.039e-4
-1.418, 1.052e-4
-1.419, 1.063e-4
-1.420, 1.076e-4
-1.421, 1.089e-4
-1.422, 1.101e-4
-1.423, 1.114e-4
-1.424, 1.129e-4
-1.425, 1.143e-4
-1.426, 1.157e-4
-1.427, 1.171e-4
-1.428, 1.185e-4
-1.429, 1.199e-4
-1.430, 1.214e-4
-1.431, 1.223e-4
-1.432, 1.237e-4
-1.433, 1.252e-4
-1.434, 1.266e-4
-1.435, 1.278e-4
-1.436, 1.294e-4
-1.437, 1.309e-4
-1.438, 1.324e-4
-1.439, 1.339e-4
-1.440, 1.353e-4
-1.441, 1.368e-4
-1.442, 1.383e-4
-1.443, 1.398e-4
-1.444, 1.415e-4
-1.445, 1.434e-4
-1.446, 1.448e-4
-1.447, 1.462e-4
-1.448, 1.472e-4
-1.449, 1.490e-4
-1.450, 1.509e-4
-1.451, 1.529e-4
-1.452, 1.546e-4
-1.453, 1.566e-4
-1.454, 1.583e-4
-1.455, 1.601e-4
-1.456, 1.623e-4
-1.457, 1.643e-4
-1.458, 1.663e-4
-1.459, 1.683e-4
-1.460, 1.707e-4
-1.461, 1.729e-4
-1.462, 1.745e-4
-1.463, 1.763e-4
-1.464, 1.784e-4
-1.465, 1.806e-4
-1.466, 1.828e-4
-1.467, 1.851e-4
-1.468, 1.873e-4
-1.469, 1.894e-4
-1.470, 1.917e-4
-1.471, 1.943e-4
-1.472, 1.967e-4
-1.473, 1.995e-4
-1.474, 2.018e-4
-1.475, 2.043e-4
-1.476, 2.070e-4
-1.477, 2.097e-4
-1.478, 2.127e-4
-1.479, 2.150e-4
-1.480, 2.180e-4
-1.481, 2.209e-4
-1.482, 2.238e-4
-1.483, 2.265e-4
-1.484, 2.297e-4
-1.485, 2.327e-4
-1.486, 2.354e-4
-1.487, 2.388e-4
-1.488, 2.418e-4
-1.489, 2.449e-4
-1.490, 2.480e-4
-1.491, 2.510e-4
-1.492, 2.543e-4
-1.493, 2.579e-4
-1.494, 2.613e-4
-1.495, 2.655e-4
-1.496, 2.689e-4
-1.497, 2.726e-4
-1.498, 2.767e-4
-1.499, 2.802e-4
-1.500, 2.776e-4
-1.499, 2.722e-4
-1.498, 2.672e-4
-1.497, 2.623e-4
-1.496, 2.577e-4
-1.495, 2.533e-4
-1.494, 2.490e-4
-1.493, 2.450e-4
-1.492, 2.411e-4
-1.491, 2.371e-4
-1.490, 2.332e-4
-1.489, 2.294e-4
-1.488, 2.258e-4
-1.487, 2.224e-4
-1.486, 2.187e-4
-1.485, 2.153e-4
-1.484, 2.117e-4
-1.483, 2.085e-4
-1.482, 2.053e-4
-1.481, 2.021e-4
-1.480, 1.991e-4
-1.479, 1.959e-4
-1.478, 1.928e-4
-1.477, 1.899e-4
-1.476, 1.870e-4
-1.475, 1.841e-4
-1.474, 1.814e-4
-1.473, 1.786e-4
-1.472, 1.759e-4
-1.471, 1.732e-4
-1.470, 1.707e-4
-1.469, 1.679e-4
-1.468, 1.654e-4
-1.467, 1.630e-4
-1.466, 1.608e-4
-1.465, 1.585e-4
-1.464, 1.562e-4
-1.463, 1.538e-4
-1.462, 1.516e-4
-1.461, 1.494e-4
-1.460, 1.473e-4
-1.459, 1.451e-4
-1.458, 1.429e-4
-1.457, 1.408e-4
-1.456, 1.387e-4
-1.455, 1.367e-4
-1.454, 1.347e-4
-1.453, 1.328e-4
-1.452, 1.308e-4
-1.451, 1.289e-4
-1.450, 1.272e-4
-1.449, 1.253e-4
-1.448, 1.234e-4
-1.447, 1.217e-4
-1.446, 1.201e-4
-1.445, 1.184e-4
-1.444, 1.168e-4
-1.443, 1.152e-4
-1.442, 1.136e-4
-1.441, 1.118e-4
-1.440, 1.103e-4
-1.439, 1.088e-4
-1.438, 1.072e-4
-1.437, 1.057e-4
-1.436, 1.042e-4
-1.435, 1.028e-4
-1.434, 1.011e-4
-1.433, 9.977e-5
-1.432, 9.852e-5
-1.431, 9.711e-5
-1.430, 9.567e-5
-1.429, 9.427e-5
-1.428, 9.290e-5
-1.427, 9.178e-5
-1.426, 9.048e-5
-1.425, 8.933e-5
-1.424, 8.814e-5
-1.423, 8.680e-5
-1.422, 8.563e-5
-1.421, 8.445e-5
-1.420, 8.326e-5
-1.419, 8.221e-5
-1.418, 8.104e-5
-1.417, 8.002e-5
-1.416, 7.882e-5
-1.415, 7.779e-5
-1.414, 7.695e-5
-1.413, 7.594e-5
-1.412, 7.480e-5
-1.411, 7.373e-5
-1.410, 7.341e-5
-1.409, 7.269e-5
-1.408, 7.147e-5
-1.407, 7.042e-5
-1.406, 6.922e-5
-1.405, 6.831e-5
-1.404, 6.725e-5
-1.403, 6.624e-5
-1.402, 6.528e-5
-1.401, 6.424e-5
-1.400, 6.334e-5
-1.399, 6.242e-5
-1.398, 6.141e-5
-1.397, 6.065e-5
-1.396, 5.978e-5
-1.395, 5.898e-5
-1.394, 5.817e-5
-1.393, 5.726e-5
-1.392, 5.664e-5
-1.391, 5.574e-5
-1.390, 5.493e-5
-1.389, 5.420e-5
-1.388, 5.334e-5
-1.387, 5.269e-5
-1.386, 5.184e-5
-1.385, 5.118e-5
-1.384, 5.044e-5
-1.383, 4.968e-5
-1.382, 4.905e-5
-1.381, 4.817e-5
-1.380, 4.752e-5
-1.379, 4.687e-5
-1.378, 4.615e-5
-1.377, 4.557e-5
-1.376, 4.487e-5
-1.375, 4.431e-5
-1.374, 4.358e-5
-1.373, 4.295e-5
-1.372, 4.242e-5
-1.371, 4.174e-5
-1.370, 4.111e-5
-1.369, 4.045e-5
-1.368, 3.976e-5
-1.367, 3.932e-5
-1.366, 3.866e-5
-1.365, 3.810e-5
-1.364, 3.758e-5
-1.363, 3.691e-5
-1.362, 3.648e-5
-1.361, 3.589e-5
-1.360, 3.538e-5
-1.359, 3.482e-5
-1.358, 3.425e-5
-1.357, 3.382e-5
-1.356, 3.324e-5
-1.355, 3.270e-5
-1.354, 3.219e-5
-1.353, 3.165e-5
-1.352, 3.129e-5
-1.351, 3.072e-5
-1.350, 3.027e-5
-1.349, 2.982e-5
-1.348, 2.933e-5
-1.347, 2.892e-5
-1.346, 2.844e-5
-1.345, 2.793e-5
-1.344, 2.750e-5
-1.343, 2.703e-5
-1.342, 2.669e-5
-1.341, 2.619e-5
-1.340, 2.581e-5
-1.339, 2.530e-5
-1.338, 2.493e-5
-1.337, 2.463e-5
-1.336, 2.415e-5
-1.335, 2.371e-5
-1.334, 2.333e-5
-1.333, 2.293e-5
-1.332, 2.259e-5
-1.331, 2.216e-5
-1.330, 2.172e-5
-1.329, 2.142e-5
-1.328, 2.101e-5
-1.327, 2.078e-5
-1.326, 2.034e-5
-1.325, 1.998e-5
-1.324, 1.957e-5
-1.323, 1.922e-5
-1.322, 1.906e-5
-1.321, 1.865e-5
-1.320, 1.831e-5
-1.319, 1.795e-5
-1.318, 1.751e-5
-1.317, 1.731e-5
-1.316, 1.699e-5
-1.315, 1.663e-5
-1.314, 1.633e-5
-1.313, 1.601e-5
-1.312, 1.580e-5
-1.311, 1.539e-5
-1.310, 1.506e-5
-1.309, 1.477e-5
-1.308, 1.449e-5
-1.307, 1.432e-5
-1.306, 1.399e-5
-1.305, 1.363e-5
-1.304, 1.338e-5
-1.303, 1.313e-5
-1.302, 1.291e-5
-1.301, 1.267e-5
-1.300, 1.235e-5
-1.299, 1.203e-5
-1.298, 1.176e-5
-1.297, 1.161e-5
-1.296, 1.140e-5
-1.295, 1.108e-5
-1.294, 1.081e-5
-1.293, 1.058e-5
-1.292, 1.044e-5
-1.291, 1.014e-5
-1.290, 9.904e-6
-1.289, 9.623e-6
-1.288, 9.429e-6
-1.287, 9.280e-6
-1.286, 9.003e-6
-1.285, 8.747e-6
-1.284, 8.504e-6
-1.283, 8.291e-6
-1.282, 8.216e-6
-1.281, 7.943e-6
-1.280, 7.743e-6
-1.279, 7.457e-6
-1.278, 7.201e-6
-1.277, 7.126e-6
-1.276, 6.967e-6
-1.275, 6.727e-6
-1.274, 6.499e-6
-1.273, 6.290e-6
-1.272, 6.206e-6
-1.271, 6.000e-6
-1.270, 5.734e-6
-1.269, 5.576e-6
-1.268, 5.399e-6
-1.267, 5.224e-6
-1.266, 5.112e-6
-1.265, 4.881e-6
-1.264, 4.660e-6
-1.263, 4.556e-6
-1.262, 4.344e-6
-1.261, 4.211e-6
-1.260, 4.095e-6
-1.259, 3.807e-6
-1.258, 3.676e-6
-1.257, 3.555e-6
-1.256, 3.390e-6
-1.255, 3.213e-6
-1.254, 3.037e-6
-1.253, 2.887e-6
-1.252, 2.806e-6
-1.251, 2.647e-6
-1.250, 2.492e-6
-1.249, 2.304e-6
-1.248, 2.176e-6
-1.247, 2.083e-6
-1.246, 1.939e-6
-1.245, 1.803e-6
-1.244, 1.601e-6
-1.243, 1.436e-6
-1.242, 1.365e-6
-1.241, 1.235e-6
-1.240, 1.087e-6
-1.239, 8.917e-7
-1.238, 8.078e-7
-1.237, 7.220e-7
-1.236, 5.740e-7
-1.235, 4.349e-7
-1.234, 2.839e-7
-1.233, 1.606e-7
-1.232, 4.913e-8
-1.231, -2.585e-8
-1.230, -2.498e-7
-1.229, -3.948e-7
-1.228, -4.590e-7
-1.227, -5.991e-7
-1.226, -6.099e-7
-1.225, -8.062e-7
-1.224, -9.848e-7
-1.223, -1.041e-6
-1.222, -1.149e-6
-1.221, -1.226e-6
-1.220, -1.318e-6
-1.219, -1.520e-6
-1.218, -1.588e-6
-1.217, -1.733e-6
-1.216, -1.783e-6
-1.215, -1.935e-6
-1.214, -2.050e-6
-1.213, -2.160e-6
-1.212, -2.245e-6
-1.211, -2.317e-6
-1.210, -2.452e-6
-1.209, -2.627e-6
-1.208, -2.646e-6
-1.207, -2.805e-6
-1.206, -2.803e-6
-1.205, -2.944e-6
-1.204, -3.072e-6
-1.203, -3.187e-6
-1.202, -3.273e-6
-1.201, -3.393e-6
-1.200, -3.514e-6
-1.199, -3.615e-6
-1.198, -3.649e-6
-1.197, -3.782e-6
-1.196, -3.825e-6
-1.195, -3.997e-6
-1.194, -4.120e-6
-1.193, -4.173e-6
-1.192, -4.261e-6
-1.191, -4.309e-6
-1.190, -4.496e-6
-1.189, -4.616e-6
-1.188, -4.676e-6
-1.187, -4.828e-6
-1.186, -4.824e-6
-1.185, -4.948e-6
-1.184, -5.102e-6
-1.183, -5.170e-6
-1.182, -5.295e-6
-1.181, -5.328e-6
-1.180, -5.474e-6
-1.179, -5.628e-6
-1.178, -5.674e-6
-1.177, -5.792e-6
-1.176, -5.871e-6
-1.175, -6.002e-6
-1.174, -6.139e-6
-1.173, -6.212e-6
-1.172, -6.298e-6
-1.171, -6.406e-6
-1.170, -6.456e-6
-1.169, -6.664e-6
-1.168, -6.744e-6
-1.167, -6.808e-6
-1.166, -6.889e-6
-1.165, -7.036e-6
-1.164, -7.164e-6
-1.163, -7.270e-6
-1.162, -7.356e-6
-1.161, -7.444e-6
-1.160, -7.557e-6
-1.159, -7.724e-6
-1.158, -7.811e-6
-1.157, -7.875e-6
-1.156, -7.977e-6
-1.155, -8.126e-6
-1.154, -8.307e-6
-1.153, -8.370e-6
-1.152, -8.446e-6
-1.151, -8.573e-6
-1.150, -8.734e-6
-1.149, -8.848e-6
-1.148, -8.938e-6
-1.147, -9.057e-6
-1.146, -9.134e-6
-1.145, -9.297e-6
-1.144, -9.453e-6
-1.143, -9.545e-6
-1.142, -9.680e-6
-1.141, -9.727e-6
-1.140, -9.857e-6
-1.139, -1.009e-5
-1.138, -1.014e-5
-1.137, -1.027e-5
-1.136, -1.036e-5
-1.135, -1.045e-5
-1.134, -1.072e-5
-1.133, -1.079e-5
-1.132, -1.093e-5
-1.131, -1.104e-5
-1.130, -1.114e-5
-1.129, -1.134e-5
-1.128, -1.146e-5
-1.127, -1.162e-5
-1.126, -1.175e-5
-1.125, -1.188e-5
-1.124, -1.203e-5
-1.123, -1.219e-5
-1.122, -1.234e-5
-1.121, -1.245e-5
-1.120, -1.259e-5
-1.119, -1.281e-5
-1.118, -1.295e-5
-1.117, -1.309e-5
-1.116, -1.319e-5
-1.115, -1.336e-5
-1.114, -1.356e-5
-1.113, -1.376e-5
-1.112, -1.387e-5
-1.111, -1.397e-5
-1.110, -1.415e-5
-1.109, -1.443e-5
-1.108, -1.450e-5
-1.107, -1.471e-5
-1.106, -1.483e-5
-1.105, -1.500e-5
-1.104, -1.520e-5
-1.103, -1.541e-5
-1.102, -1.560e-5
-1.101, -1.570e-5
-1.100, -1.593e-5
-1.099, -1.617e-5
-1.098, -1.631e-5
-1.097, -1.656e-5
-1.096, -1.662e-5
-1.095, -1.689e-5
-1.094, -1.716e-5
-1.093, -1.727e-5
-1.092, -1.749e-5
-1.091, -1.763e-5
-1.090, -1.787e-5
-1.089, -1.812e-5
-1.088, -1.835e-5
-1.087, -1.853e-5
-1.086, -1.867e-5
-1.085, -1.891e-5
-1.084, -1.913e-5
-1.083, -1.939e-5
-1.082, -1.953e-5
-1.081, -1.973e-5
-1.080, -1.999e-5
-1.079, -2.021e-5
-1.078, -2.049e-5
-1.077, -2.068e-5
-1.076, -2.086e-5
-1.075, -2.118e-5
-1.074, -2.139e-5
-1.073, -2.164e-5
-1.072, -2.185e-5
-1.071, -2.200e-5
-1.070, -2.231e-5
-1.069, -2.252e-5
-1.068, -2.282e-5
-1.067, -2.303e-5
-1.066, -2.316e-5
-1.065, -2.351e-5
-1.064, -2.370e-5
-1.063, -2.402e-5
-1.062, -2.428e-5
-1.061, -2.437e-5
-1.060, -2.474e-5
-1.059, -2.497e-5
-1.058, -2.531e-5
-1.057, -2.555e-5
-1.056, -2.564e-5
-1.055, -2.605e-5
-1.054, -2.627e-5
-1.053, -2.650e-5
-1.052, -2.671e-5
-1.051, -2.694e-5
-1.050, -2.724e-5
-1.049, -2.752e-5
-1.048, -2.785e-5
-1.047, -2.802e-5
-1.046, -2.824e-5
-1.045, -2.851e-5
-1.044, -2.874e-5
-1.043, -2.914e-5
-1.042, -2.929e-5
-1.041, -2.948e-5
-1.040, -2.978e-5
-1.039, -3.001e-5
-1.038, -3.039e-5
-1.037, -3.055e-5
-1.036, -3.079e-5
-1.035, -3.107e-5
-1.034, -3.129e-5
-1.033, -3.176e-5
-1.032, -3.185e-5
-1.031, -3.209e-5
-1.030, -3.241e-5
-1.029, -3.262e-5
-1.028, -3.299e-5
-1.027, -3.317e-5
-1.026, -3.332e-5
-1.025, -3.362e-5
-1.024, -3.385e-5
-1.023, -3.424e-5
-1.022, -3.442e-5
-1.021, -3.457e-5
-1.020, -3.488e-5
-1.019, -3.512e-5
-1.018, -3.540e-5
-1.017, -3.562e-5
-1.016, -3.585e-5
-1.015, -3.606e-5
-1.014, -3.634e-5
-1.013, -3.666e-5
-1.012, -3.683e-5
-1.011, -3.714e-5
-1.010, -3.739e-5
-1.009, -3.754e-5
-1.008, -3.781e-5
-1.007, -3.809e-5
-1.006, -3.837e-5
-1.005, -3.855e-5
-1.004, -3.874e-5
-1.003, -3.908e-5
-1.002, -3.918e-5
-1.001, -3.949e-5
-1.000, -3.264e-5
-1.001, -2.721e-5
-1.002, -2.413e-5
-1.003, -2.175e-5
-1.004, -1.976e-5
-1.005, -1.792e-5
-1.006, -1.638e-5
-1.007, -1.492e-5
-1.008, -1.367e-5
-1.009, -1.248e-5
-1.010, -1.131e-5
-1.011, -1.041e-5
-1.012, -9.396e-6
-1.013, -8.513e-6
-1.014, -7.647e-6
-1.015, -6.815e-6
-1.016, -6.069e-6
-1.017, -5.339e-6
-1.018, -4.618e-6
-1.019, -3.996e-6
-1.020, -3.330e-6
-1.021, -2.788e-6
-1.022, -2.169e-6
-1.023, -1.597e-6
-1.024, -1.034e-6
-1.025, -5.241e-7
-1.026, -5.249e-8
-1.027, 4.369e-7
-1.028, 9.292e-7
-1.029, 1.347e-6
-1.030, 1.810e-6
-1.031, 2.218e-6
-1.032, 2.582e-6
-1.033, 3.031e-6
-1.034, 3.430e-6
-1.035, 3.802e-6
-1.036, 4.103e-6
-1.037, 4.430e-6
-1.038, 4.752e-6
-1.039, 5.140e-6
-1.040, 5.463e-6
-1.041, 5.663e-6
-1.042, 6.071e-6
-1.043, 6.305e-6
-1.044, 6.569e-6
-1.045, 6.933e-6
-1.046, 7.069e-6
-1.047, 7.400e-6
-1.048, 7.602e-6
-1.049, 7.850e-6
-1.050, 8.208e-6
-1.051, 8.301e-6
-1.052, 8.543e-6
-1.053, 8.761e-6
-1.054, 9.021e-6
-1.055, 9.286e-6
-1.056, 9.353e-6
-1.057, 9.625e-6
-1.058, 9.781e-6
-1.059, 9.988e-6
-1.060, 1.024e-5
-1.061, 1.029e-5
-1.062, 1.053e-5
-1.063, 1.070e-5
-1.064, 1.086e-5
-1.065, 1.104e-5
-1.066, 1.112e-5
-1.067, 1.128e-5
-1.068, 1.141e-5
-1.069, 1.152e-5
-1.070, 1.175e-5
-1.071, 1.181e-5
-1.072, 1.196e-5
-1.073, 1.203e-5
-1.074, 1.220e-5
-1.075, 1.238e-5
-1.076, 1.235e-5
-1.077, 1.249e-5
-1.078, 1.259e-5
-1.079, 1.271e-5
-1.080, 1.280e-5
-1.081, 1.278e-5
-1.082, 1.295e-5
-1.083, 1.300e-5
-1.084, 1.310e-5
-1.085, 1.321e-5
-1.086, 1.315e-5
-1.087, 1.328e-5
-1.088, 1.333e-5
-1.089, 1.339e-5
-1.090, 1.352e-5
-1.091, 1.345e-5
-1.092, 1.356e-5
-1.093, 1.360e-5
-1.094, 1.360e-5
-1.095, 1.374e-5
-1.096, 1.364e-5
-1.097, 1.375e-5
-1.098, 1.377e-5
-1.099, 1.380e-5
-1.100, 1.384e-5
-1.101, 1.377e-5
-1.102, 1.387e-5
-1.103, 1.393e-5
-1.104, 1.390e-5
-1.105, 1.396e-5
-1.106, 1.386e-5
-1.107, 1.390e-5
-1.108, 1.393e-5
-1.109, 1.400e-5
-1.110, 1.395e-5
-1.111, 1.388e-5
-1.112, 1.389e-5
-1.113, 1.392e-5
-1.114, 1.395e-5
-1.115, 1.398e-5
-1.116, 1.386e-5
-1.117, 1.388e-5
-1.118, 1.390e-5
-1.119, 1.393e-5
-1.120, 1.386e-5
-1.121, 1.382e-5
-1.122, 1.379e-5
-1.123, 1.383e-5
-1.124, 1.384e-5
-1.125, 1.375e-5
-1.126, 1.368e-5
-1.127, 1.374e-5
-1.128, 1.370e-5
-1.129, 1.372e-5
-1.130, 1.370e-5
-1.131, 1.361e-5
-1.132, 1.359e-5
-1.133, 1.362e-5
-1.134, 1.357e-5
-1.135, 1.359e-5
-1.136, 1.348e-5
-1.137, 1.343e-5
-1.138, 1.348e-5
-1.139, 1.345e-5
-1.140, 1.349e-5
-1.141, 1.339e-5
-1.142, 1.334e-5
-1.143, 1.337e-5
-1.144, 1.336e-5
-1.145, 1.334e-5
-1.146, 1.333e-5
-1.147, 1.324e-5
-1.148, 1.324e-5
-1.149, 1.323e-5
-1.150, 1.323e-5
-1.151, 1.322e-5
-1.152, 1.313e-5
-1.153, 1.314e-5
-1.154, 1.317e-5
-1.155, 1.315e-5
-1.156, 1.308e-5
-1.157, 1.308e-5
-1.158, 1.303e-5
-1.159, 1.311e-5
-1.160, 1.304e-5
-1.161, 1.302e-5
-1.162, 1.295e-5
-1.163, 1.301e-5
-1.164, 1.304e-5
-1.165, 1.298e-5
-1.166, 1.297e-5
-1.167, 1.294e-5
-1.168, 1.297e-5
-1.169, 1.300e-5
-1.170, 1.297e-5
-1.171, 1.296e-5
-1.172, 1.293e-5
-1.173, 1.298e-5
-1.174, 1.301e-5
-1.175, 1.299e-5
-1.176, 1.302e-5
-1.177, 1.295e-5
-1.178, 1.302e-5
-1.179, 1.306e-5
-1.180, 1.303e-5
-1.181, 1.305e-5
-1.182, 1.298e-5
-1.183, 1.306e-5
-1.184, 1.310e-5
-1.185, 1.305e-5
-1.186, 1.313e-5
-1.187, 1.305e-5
-1.188, 1.311e-5
-1.189, 1.314e-5
-1.190, 1.310e-5
-1.191, 1.317e-5
-1.192, 1.308e-5
-1.193, 1.316e-5
-1.194, 1.327e-5
-1.195, 1.320e-5
-1.196, 1.326e-5
-1.197, 1.323e-5
-1.198, 1.327e-5
-1.199, 1.336e-5
-1.200, 1.332e-5
-1.201, 1.336e-5
-1.202, 1.334e-5
-1.203, 1.338e-5
-1.204, 1.347e-5
-1.205, 1.349e-5
-1.206, 1.349e-5
-1.207, 1.354e-5
-1.208, 1.349e-5
-1.209, 1.359e-5
-1.210, 1.359e-5
-1.211, 1.365e-5
-1.212, 1.362e-5
-1.213, 1.366e-5
-1.214, 1.379e-5
-1.215, 1.384e-5
-1.216, 1.378e-5
-1.217, 1.383e-5
-1.218, 1.382e-5
-1.219, 1.397e-5
-1.220, 1.398e-5
-1.221, 1.401e-5
-1.222, 1.400e-5
-1.223, 1.406e-5
-1.224, 1.412e-5
-1.225, 1.417e-5
-1.226, 1.427e-5
-1.227, 1.426e-5
-1.228, 1.430e-5
-1.229, 1.444e-5
-1.230, 1.443e-5
-1.231, 1.451e-5
-1.232, 1.447e-5
-1.233, 1.451e-5
-1.234, 1.468e-5
-1.235, 1.463e-5
-1.236, 1.476e-5
-1.237, 1.470e-5
-1.238, 1.477e-5
-1.239, 1.491e-5
-1.240, 1.494e-5
-1.241, 1.501e-5
-1.242, 1.499e-5
-1.243, 1.512e-5
-1.244, 1.521e-5
-1.245, 1.529e-5
-1.246, 1.535e-5
-1.247, 1.538e-5
-1.248, 1.545e-5
-1.249, 1.557e-5
-1.250, 1.559e-5
-1.251, 1.568e-5
-1.252, 1.572e-5
-1.253, 1.582e-5
-1.254, 1.593e-5
-1.255, 1.604e-5
-1.256, 1.611e-5
-1.257, 1.610e-5
-1.258, 1.626e-5
-1.259, 1.631e-5
-1.260, 1.638e-5
-1.261, 1.646e-5
-1.262, 1.652e-5
-1.263, 1.660e-5
-1.264, 1.674e-5
-1.265, 1.684e-5
-1.266, 1.691e-5
-1.267, 1.697e-5
-1.268, 1.714e-5
-1.269, 1.722e-5
-1.270, 1.734e-5
-1.271, 1.746e-5
-1.272, 1.750e-5
-1.273, 1.770e-5
-1.274, 1.776e-5
-1.275, 1.789e-5
-1.276, 1.799e-5
-1.277, 1.804e-5
-1.278, 1.822e-5
-1.279, 1.829e-5
-1.280, 1.850e-5
-1.281, 1.860e-5
-1.282, 1.863e-5
-1.283, 1.886e-5
-1.284, 1.890e-5
-1.285, 1.918e-5
-1.286, 1.925e-5
-1.287, 1.937e-5
-1.288, 1.958e-5
-1.289, 1.965e-5
-1.290, 1.991e-5
-1.291, 2.001e-5
-1.292, 2.016e-5
-1.293, 2.049e-5
-1.294, 2.051e-5
-1.295, 2.077e-5
-1.296, 2.090e-5
-1.297, 2.102e-5
-1.298, 2.127e-5
-1.299, 2.141e-5
-1.300, 2.175e-5
-1.301, 2.199e-5
-1.302, 2.219e-5
-1.303, 2.228e-5
-1.304, 2.243e-5
-1.305, 2.273e-5
-1.306, 2.290e-5
-1.307, 2.307e-5
-1.308, 2.336e-5
-1.309, 2.351e-5
-1.310, 2.382e-5
-1.311, 2.401e-5
-1.312, 2.417e-5
-1.313, 2.442e-5
-1.314, 2.473e-5
-1.315, 2.505e-5
-1.316, 2.523e-5
-1.317, 2.543e-5
-1.318, 2.572e-5
-1.319, 2.597e-5
-1.320, 2.631e-5
-1.321, 2.651e-5
-1.322, 2.683e-5
-1.323, 2.704e-5
-1.324, 2.740e-5
-1.325, 2.771e-5
-1.326, 2.796e-5
-1.327, 2.830e-5
-1.328, 2.864e-5
-1.329, 2.889e-5
-1.330, 2.927e-5
-1.331, 2.953e-5
-1.332, 2.988e-5
-1.333, 3.021e-5
-1.334, 3.056e-5
-1.335, 3.091e-5
-1.336, 3.128e-5
-1.337, 3.165e-5
-1.338, 3.204e-5
-1.339, 3.236e-5
-1.340, 3.279e-5
-1.341, 3.318e-5
-1.342, 3.357e-5
-1.343, 3.392e-5
-1.344, 3.430e-5
-1.345, 3.470e-5
-1.346, 3.516e-5
-1.347, 3.557e-5
-1.348, 3.603e-5
-1.349, 3.646e-5
-1.350, 3.685e-5
-1.351, 3.733e-5
-1.352, 3.786e-5
-1.353, 3.820e-5
-1.354, 3.868e-5
-1.355, 3.912e-5
-1.356, 3.958e-5
-1.357, 4.005e-5
-1.358, 4.051e-5
-1.359, 4.108e-5
-1.360, 4.155e-5
-1.361, 4.201e-5
-1.362, 4.256e-5
-1.363, 4.302e-5
-1.364, 4.361e-5
-1.365, 4.410e-5
-1.366, 4.464e-5
-1.367, 4.524e-5
-1.368, 4.579e-5
-1.369, 4.640e-5
-1.370, 4.697e-5
-1.371, 4.753e-5
-1.372, 4.810e-5
-1.373, 4.871e-5
-1.374, 4.935e-5
-1.375, 4.991e-5
-1.376, 5.056e-5
-1.377, 5.126e-5
-1.378, 5.184e-5
-1.379, 5.262e-5
-1.380, 5.316e-5
-1.381, 5.385e-5
-1.382, 5.454e-5
-1.383, 5.524e-5
-1.384, 5.595e-5
-1.385, 5.663e-5
-1.386, 5.738e-5
-1.387, 5.805e-5
-1.388, 5.869e-5
-1.389, 5.956e-5
-1.390, 6.022e-5
-1.391, 6.096e-5
-1.392, 6.176e-5
-1.393, 6.253e-5
-1.394, 6.335e-5
-1.395, 6.408e-5
-1.396, 6.521e-5
-1.397, 6.586e-5
-1.398, 6.658e-5
-1.399, 6.749e-5
-1.400, 6.816e-5
-1.401, 6.908e-5
-1.402, 6.986e-5
-1.403, 7.068e-5
-1.404, 7.161e-5
-1.405, 7.243e-5
-1.406, 7.343e-5
-1.407, 7.430e-5
-1.408, 7.517e-5
-1.409, 7.631e-5
-1.410, 7.725e-5
-1.411, 7.812e-5
-1.412, 7.920e-5
-1.413, 8.015e-5
-1.414, 8.118e-5
-1.415, 8.233e-5
-1.416, 8.324e-5
-1.417, 8.431e-5
-1.418, 8.534e-5
-1.419, 8.645e-5
-1.420, 8.746e-5
-1.421, 8.865e-5
-1.422, 9.007e-5
-1.423, 9.130e-5
-1.424, 9.236e-5
-1.425, 9.333e-5
-1.426, 9.429e-5
-1.427, 9.545e-5
-1.428, 9.658e-5
-1.429, 9.791e-5
-1.430, 9.910e-5
-1.431, 1.007e-4
-1.432, 1.017e-4
-1.433, 1.029e-4
-1.434, 1.044e-4
-1.435, 1.057e-4
-1.436, 1.070e-4
-1.437, 1.086e-4
-1.438, 1.099e-4
-1.439, 1.111e-4
-1.440, 1.125e-4
-1.441, 1.139e-4
-1.442, 1.153e-4
-1.443, 1.168e-4
-1.444, 1.184e-4
-1.445, 1.200e-4
-1.446, 1.214e-4
-1.447, 1.230e-4
-1.448, 1.246e-4
-1.449, 1.263e-4
-1.450, 1.279e-4
-1.451, 1.294e-4
-1.452, 1.312e-4
-1.453, 1.327e-4
-1.454, 1.343e-4
-1.455, 1.359e-4
-1.456, 1.377e-4
-1.457, 1.393e-4
-1.458, 1.412e-4
-1.459, 1.436e-4
-1.460, 1.452e-4
-1.461, 1.468e-4
-1.462, 1.487e-4
-1.463, 1.506e-4
-1.464, 1.527e-4
-1.465, 1.547e-4
-1.466, 1.568e-4
-1.467, 1.588e-4
-1.468, 1.610e-4
-1.469, 1.632e-4
-1.470, 1.654e-4
-1.471, 1.676e-4
-1.472, 1.691e-4
-1.473, 1.713e-4
-1.474, 1.738e-4
-1.475, 1.763e-4
-1.476, 1.786e-4
-1.477, 1.812e-4
-1.478, 1.837e-4
-1.479, 1.864e-4
-1.480, 1.889e-4
-1.481, 1.922e-4
-1.482, 1.953e-4
-1.483, 1.974e-4
-1.484, 2.005e-4
-1.485, 2.031e-4
-1.486, 2.057e-4
-1.487, 2.081e-4
-1.488, 2.110e-4
-1.489, 2.142e-4
-1.490, 2.178e-4
-1.491, 2.204e-4
-1.492, 2.233e-4
-1.493, 2.268e-4
-1.494, 2.300e-4
-1.495, 2.332e-4
-1.496, 2.369e-4
-1.497, 2.406e-4
-1.498, 2.439e-4
-1.499, 2.472e-4
-1.500, 2.447e-4
-1.499, 2.397e-4
-1.498, 2.355e-4
-1.497, 2.313e-4
-1.496, 2.273e-4
-1.495, 2.234e-4
-1.494, 2.194e-4
-1.493, 2.158e-4
-1.492, 2.120e-4
-1.491, 2.087e-4
-1.490, 2.054e-4
-1.489, 2.019e-4
-1.488, 1.986e-4
-1.487, 1.953e-4
-1.486, 1.922e-4
-1.485, 1.891e-4
-1.484, 1.860e-4
-1.483, 1.829e-4
-1.482, 1.801e-4
-1.481, 1.774e-4
-1.480, 1.746e-4
-1.479, 1.715e-4
-1.478, 1.688e-4
-1.477, 1.656e-4
-1.476, 1.629e-4
-1.475, 1.607e-4
-1.474, 1.582e-4
-1.473, 1.557e-4
-1.472, 1.534e-4
-1.471, 1.508e-4
-1.470, 1.487e-4
-1.469, 1.464e-4
-1.468, 1.440e-4
-1.467, 1.417e-4
-1.466, 1.397e-4
-1.465, 1.376e-4
-1.464, 1.357e-4
-1.463, 1.337e-4
-1.462, 1.314e-4
-1.461, 1.298e-4
-1.460, 1.276e-4
-1.459, 1.255e-4
-1.458, 1.237e-4
-1.457, 1.220e-4
-1.456, 1.203e-4
-1.455, 1.184e-4
-1.454, 1.166e-4
-1.453, 1.149e-4
-1.452, 1.132e-4
-1.451, 1.113e-4
-1.450, 1.100e-4
-1.449, 1.084e-4
-1.448, 1.067e-4
-1.447, 1.054e-4
-1.446, 1.035e-4
-1.445, 1.021e-4
-1.444, 1.006e-4
-1.443, 9.900e-5
-1.442, 9.773e-5
-1.441, 9.628e-5
-1.440, 9.500e-5
-1.439, 9.336e-5
-1.438, 9.195e-5
-1.437, 9.081e-5
-1.436, 8.988e-5
-1.435, 8.859e-5
-1.434, 8.737e-5
-1.433, 8.606e-5
-1.432, 8.498e-5
-1.431, 8.382e-5
-1.430, 8.252e-5
-1.429, 8.134e-5
-1.428, 8.015e-5
-1.427, 7.892e-5
-1.426, 7.779e-5
-1.425, 7.655e-5
-1.424, 7.566e-5
-1.423, 7.492e-5
-1.422, 7.379e-5
-1.421, 7.253e-5
-1.420, 7.167e-5
-1.419, 7.077e-5
-1.418, 6.953e-5
-1.417, 6.828e-5
-1.416, 6.732e-5
-1.415, 6.640e-5
-1.414, 6.558e-5
-1.413, 6.435e-5
-1.412, 6.354e-5
-1.411, 6.244e-5
-1.410, 6.204e-5
-1.409, 6.102e-5
-1.408, 6.007e-5
-1.407, 5.926e-5
-1.406, 5.833e-5
-1.405, 5.761e-5
-1.404, 5.670e-5
-1.403, 5.586e-5
-1.402, 5.510e-5
-1.401, 5.389e-5
-1.400, 5.322e-5
-1.399, 5.242e-5
-1.398, 5.157e-5
-1.397, 5.071e-5
-1.396, 5.005e-5
-1.395, 4.950e-5
-1.394, 4.876e-5
-1.393, 4.785e-5
-1.392, 4.728e-5
-1.391, 4.656e-5
-1.390, 4.596e-5
-1.389, 4.523e-5
-1.388, 4.451e-5
-1.387, 4.389e-5
-1.386, 4.328e-5
-1.385, 4.260e-5
-1.384, 4.191e-5
-1.383, 4.135e-5
-1.382, 4.076e-5
-1.381, 4.017e-5
-1.380, 3.961e-5
-1.379, 3.908e-5
-1.378, 3.839e-5
-1.377, 3.775e-5
-1.376, 3.720e-5
-1.375, 3.666e-5
-1.374, 3.605e-5
-1.373, 3.554e-5
-1.372, 3.496e-5
-1.371, 3.446e-5
-1.370, 3.392e-5
-1.369, 3.339e-5
-1.368, 3.286e-5
-1.367, 3.231e-5
-1.366, 3.175e-5
-1.365, 3.139e-5
-1.364, 3.085e-5
-1.363, 3.028e-5
-1.362, 2.994e-5
-1.361, 2.936e-5
-1.360, 2.902e-5
-1.359, 2.846e-5
-1.358, 2.802e-5
-1.357, 2.769e-5
-1.356, 2.716e-5
-1.355, 2.669e-5
-1.354, 2.621e-5
-1.353, 2.584e-5
-1.352, 2.529e-5
-1.351, 2.493e-5
-1.350, 2.461e-5
-1.349, 2.422e-5
-1.348, 2.380e-5
-1.347, 2.340e-5
-1.346, 2.307e-5
-1.345, 2.265e-5
-1.344, 2.221e-5
-1.343, 2.190e-5
-1.342, 2.150e-5
-1.341, 2.116e-5
-1.340, 2.081e-5
-1.339, 2.039e-5
-1.338, 2.009e-5
-1.337, 1.962e-5
-1.336, 1.936e-5
-1.335, 1.911e-5
-1.334, 1.863e-5
-1.333, 1.838e-5
-1.332, 1.802e-5
-1.331, 1.770e-5
-1.330, 1.749e-5
-1.329, 1.709e-5
-1.328, 1.682e-5
-1.327, 1.644e-5
-1.326, 1.613e-5
-1.325, 1.597e-5
-1.324, 1.549e-5
-1.323, 1.530e-5
-1.322, 1.492e-5
-1.321, 1.466e-5
-1.320, 1.452e-5
-1.319, 1.407e-5
-1.318, 1.392e-5
-1.317, 1.349e-5
-1.316, 1.333e-5
-1.315, 1.313e-5
-1.314, 1.276e-5
-1.313, 1.257e-5
-1.312, 1.224e-5
-1.311, 1.200e-5
-1.310, 1.180e-5
-1.309, 1.154e-5
-1.308, 1.132e-5
-1.307, 1.096e-5
-1.306, 1.083e-5
-1.305, 1.063e-5
-1.304, 1.032e-5
-1.303, 1.021e-5
-1.302, 9.843e-6
-1.301, 9.702e-6
-1.300, 9.539e-6
-1.299, 9.233e-6
-1.298, 9.073e-6
-1.297, 8.757e-6
-1.296, 8.644e-6
-1.295, 8.493e-6
-1.294, 8.203e-6
-1.293, 8.058e-6
-1.292, 7.766e-6
-1.291, 7.615e-6
-1.290, 7.502e-6
-1.289, 7.200e-6
-1.288, 7.086e-6
-1.287, 6.847e-6
-1.286, 6.668e-6
-1.285, 6.528e-6
-1.284, 6.353e-6
-1.283, 6.155e-6
-1.282, 5.915e-6
-1.281, 5.761e-6
-1.280, 5.626e-6
-1.279, 5.439e-6
-1.278, 5.286e-6
-1.277, 5.000e-6
-1.276, 4.946e-6
-1.275, 4.747e-6
-1.274, 4.634e-6
-1.273, 4.455e-6
-1.272, 4.251e-6
-1.271, 4.177e-6
-1.270, 3.962e-6
-1.269, 3.786e-6
-1.268, 3.679e-6
-1.267, 3.418e-6
-1.266, 3.393e-6
-1.265, 3.243e-6
-1.264, 3.046e-6
-1.263, 2.944e-6
-1.262, 2.707e-6
-1.261, 2.676e-6
-1.260, 2.517e-6
-1.259, 2.343e-6
-1.258, 2.292e-6
-1.257, 2.085e-6
-1.256, 1.995e-6
-1.255, 1.821e-6
-1.254, 1.670e-6
-1.253, 1.631e-6
-1.252, 1.543e-6
-1.251, 1.445e-6
-1.250, 1.239e-6
-1.249, 1.132e-6
-1.248, 1.061e-6
-1.247, 8.315e-7
-1.246, 7.802e-7
-1.245, 6.243e-7
-1.244, 5.355e-7
-1.243, 4.073e-7
-1.242, 2.928e-7
-1.241, 1.389e-7
-1.240, 4.519e-8
-1.239, -4.755e-8
-1.238, -1.817e-7
-1.237, -2.705e-7
-1.236, -3.425e-7
-1.235, -5.251e-7
-1.234, -5.823e-7
-1.233, -7.066e-7
-1.232, -7.766e-7
-1.231, -8.891e-7
-1.230, -1.027e-6
-1.229, -1.108e-6
-1.228, -1.233e-6
-1.227, -1.356e-6
-1.226, -1.392e-6
-1.225, -1.542e-6
-1.224, -1.591e-6
-1.223, -1.700e-6
-1.222, -1.812e-6
-1.221, -1.846e-6
-1.220, -1.994e-6
-1.219, -2.111e-6
-1.218, -2.189e-6
-1.217, -2.285e-6
-1.216, -2.316e-6
-1.215, -2.446e-6
-1.214, -2.556e-6
-1.213, -2.642e-6
-1.212, -2.709e-6
-1.211, -2.840e-6
-1.210, -2.858e-6
-1.209, -2.945e-6
-1.208, -3.071e-6
-1.207, -3.123e-6
-1.206, -3.229e-6
-1.205, -3.300e-6
-1.204, -3.401e-6
-1.203, -3.511e-6
-1.202, -3.540e-6
-1.201, -3.627e-6
-1.200, -3.698e-6
-1.199, -3.777e-6
-1.198, -3.962e-6
-1.197, -3.996e-6
-1.196, -4.063e-6
-1.195, -4.163e-6
-1.194, -4.176e-6
-1.193, -4.377e-6
-1.192, -4.389e-6
-1.191, -4.459e-6
-1.190, -4.595e-6
-1.189, -4.605e-6
-1.188, -4.755e-6
-1.187, -4.809e-6
-1.186, -4.910e-6
-1.185, -5.005e-6
-1.184, -5.014e-6
-1.183, -5.173e-6
-1.182, -5.256e-6
-1.181, -5.325e-6
-1.180, -5.366e-6
-1.179, -5.459e-6
-1.178, -5.595e-6
-1.177, -5.684e-6
-1.176, -5.774e-6
-1.175, -5.808e-6
-1.174, -5.878e-6
-1.173, -6.021e-6
-1.172, -6.071e-6
-1.171, -6.196e-6
-1.170, -6.248e-6
-1.169, -6.309e-6
-1.168, -6.543e-6
-1.167, -6.500e-6
-1.166, -6.614e-6
-1.165, -6.705e-6
-1.164, -6.749e-6
-1.163, -6.976e-6
-1.162, -6.995e-6
-1.161, -7.069e-6
-1.160, -7.135e-6
-1.159, -7.196e-6
-1.158, -7.428e-6
-1.157, -7.447e-6
-1.156, -7.589e-6
-1.155, -7.629e-6
-1.154, -7.718e-6
-1.153, -7.888e-6
-1.152, -7.892e-6
-1.151, -8.000e-6
-1.150, -8.112e-6
-1.149, -8.155e-6
-1.148, -8.348e-6
-1.147, -8.359e-6
-1.146, -8.530e-6
-1.145, -8.660e-6
-1.144, -8.710e-6
-1.143, -8.874e-6
-1.142, -8.977e-6
-1.141, -9.055e-6
-1.140, -9.159e-6
-1.139, -9.196e-6
-1.138, -9.428e-6
-1.137, -9.482e-6
-1.136, -9.618e-6
-1.135, -9.748e-6
-1.134, -9.791e-6
-1.133, -1.002e-5
-1.132, -1.007e-5
-1.131, -1.024e-5
-1.130, -1.035e-5
-1.129, -1.041e-5
-1.128, -1.061e-5
-1.127, -1.071e-5
-1.126, -1.086e-5
-1.125, -1.100e-5
-1.124, -1.105e-5
-1.123, -1.134e-5
-1.122, -1.138e-5
-1.121, -1.156e-5
-1.120, -1.165e-5
-1.119, -1.177e-5
-1.118, -1.199e-5
-1.117, -1.205e-5
-1.116, -1.219e-5
-1.115, -1.239e-5
-1.114, -1.248e-5
-1.113, -1.271e-5
-1.112, -1.278e-5
-1.111, -1.302e-5
-1.110, -1.318e-5
-1.109, -1.327e-5
-1.108, -1.350e-5
-1.107, -1.360e-5
-1.106, -1.379e-5
-1.105, -1.397e-5
-1.104, -1.409e-5
-1.103, -1.434e-5
-1.102, -1.449e-5
-1.101, -1.465e-5
-1.100, -1.488e-5
-1.099, -1.496e-5
-1.098, -1.526e-5
-1.097, -1.538e-5
-1.096, -1.560e-5
-1.095, -1.580e-5
-1.094, -1.593e-5
-1.093, -1.625e-5
-1.092, -1.635e-5
-1.091, -1.656e-5
-1.090, -1.675e-5
-1.089, -1.693e-5
-1.088, -1.720e-5
-1.087, -1.741e-5
-1.086, -1.757e-5
-1.085, -1.776e-5
-1.084, -1.794e-5
-1.083, -1.826e-5
-1.082, -1.840e-5
-1.081, -1.864e-5
-1.080, -1.881e-5
-1.079, -1.901e-5
-1.078, -1.936e-5
-1.077, -1.951e-5
-1.076, -1.975e-5
-1.075, -2.000e-5
-1.074, -2.016e-5
-1.073, -2.057e-5
-1.072, -2.067e-5
-1.071, -2.092e-5
-1.070, -2.113e-5
-1.069, -2.132e-5
-1.068, -2.168e-5
-1.067, -2.189e-5
-1.066, -2.207e-5
-1.065, -2.233e-5
-1.064, -2.252e-5
-1.063, -2.289e-5
-1.062, -2.312e-5
-1.061, -2.330e-5
-1.060, -2.356e-5
-1.059, -2.380e-5
-1.058, -2.412e-5
-1.057, -2.435e-5
-1.056, -2.452e-5
-1.055, -2.482e-5
-1.054, -2.503e-5
-1.053, -2.539e-5
-1.052, -2.558e-5
-1.051, -2.582e-5
-1.050, -2.609e-5
-1.049, -2.638e-5
-1.048, -2.669e-5
-1.047, -2.701e-5
-1.046, -2.723e-5
-1.045, -2.741e-5
-1.044, -2.772e-5
-1.043, -2.805e-5
-1.042, -2.825e-5
-1.041, -2.851e-5
-1.040, -2.871e-5
-1.039, -2.897e-5
-1.038, -2.935e-5
-1.037, -2.957e-5
-1.036, -2.982e-5
-1.035, -3.005e-5
-1.034, -3.023e-5
-1.033, -3.065e-5
-1.032, -3.088e-5
-1.031, -3.111e-5
-1.030, -3.139e-5
-1.029, -3.163e-5
-1.028, -3.202e-5
-1.027, -3.224e-5
-1.026, -3.246e-5
-1.025, -3.273e-5
-1.024, -3.298e-5
-1.023, -3.338e-5
-1.022, -3.358e-5
-1.021, -3.379e-5
-1.020, -3.404e-5
-1.019, -3.432e-5
-1.018, -3.468e-5
-1.017, -3.494e-5
-1.016, -3.510e-5
-1.015, -3.535e-5
-1.014, -3.566e-5
-1.013, -3.596e-5
-1.012, -3.625e-5
-1.011, -3.647e-5
-1.010, -3.666e-5
-1.009, -3.697e-5
-1.008, -3.729e-5
-1.007, -3.753e-5
-1.006, -3.781e-5
-1.005, -3.802e-5
-1.004, -3.829e-5
-1.003, -3.869e-5
-1.002, -3.893e-5
-1.001, -3.919e-5
-1.000, -3.220e-5
-1.001, -2.673e-5
-1.002, -2.368e-5
-1.003, -2.132e-5
-1.004, -1.925e-5
-1.005, -1.751e-5
-1.006, -1.597e-5
-1.007, -1.460e-5
-1.008, -1.336e-5
-1.009, -1.217e-5
-1.010, -1.100e-5
-1.011, -9.982e-6
-1.012, -9.075e-6
-1.013, -8.267e-6
-1.014, -7.352e-6
-1.015, -6.465e-6
-1.016, -5.784e-6
-1.017, -5.071e-6
-1.018, -4.414e-6
-1.019, -3.710e-6
-1.020, -3.034e-6
-1.021, -2.431e-6
-1.022, -1.940e-6
-1.023, -1.356e-6
-1.024, -8.378e-7
-1.025, -2.764e-7
-1.026, 2.613e-7
-1.027, 6.283e-7
-1.028, 1.031e-6
-1.029, 1.538e-6
-1.030, 2.028e-6
-1.031, 2.446e-6
-1.032, 2.792e-6
-1.033, 3.174e-6
-1.034, 3.574e-6
-1.035, 3.965e-6
-1.036, 4.308e-6
-1.037, 4.584e-6
-1.038, 4.880e-6
-1.039, 5.178e-6
-1.040, 5.507e-6
-1.041, 5.818e-6
-1.042, 6.114e-6
-1.043, 6.274e-6
-1.044, 6.640e-6
-1.045, 6.914e-6
-1.046, 7.227e-6
-1.047, 7.418e-6
-1.048, 7.637e-6
-1.049, 7.910e-6
-1.050, 8.204e-6
-1.051, 8.373e-6
-1.052, 8.611e-6
-1.053, 8.764e-6
-1.054, 8.989e-6
-1.055, 9.271e-6
-1.056, 9.450e-6
-1.057, 9.613e-6
-1.058, 9.710e-6
-1.059, 9.927e-6
-1.060, 1.016e-5
-1.061, 1.027e-5
-1.062, 1.044e-5
-1.063, 1.059e-5
-1.064, 1.068e-5
-1.065, 1.089e-5
-1.066, 1.107e-5
-1.067, 1.116e-5
-1.068, 1.121e-5
-1.069, 1.139e-5
-1.070, 1.150e-5
-1.071, 1.164e-5
-1.072, 1.170e-5
-1.073, 1.180e-5
-1.074, 1.194e-5
-1.075, 1.208e-5
-1.076, 1.216e-5
-1.077, 1.223e-5
-1.078, 1.224e-5
-1.079, 1.238e-5
-1.080, 1.243e-5
-1.081, 1.253e-5
-1.082, 1.264e-5
-1.083, 1.259e-5
-1.084, 1.269e-5
-1.085, 1.280e-5
-1.086, 1.284e-5
-1.087, 1.294e-5
-1.088, 1.289e-5
-1.089, 1.300e-5
-1.090, 1.305e-5
-1.091, 1.306e-5
-1.092, 1.315e-5
-1.093, 1.307e-5
-1.094, 1.318e-5
-1.095, 1.324e-5
-1.096, 1.322e-5
-1.097, 1.322e-5
-1.098, 1.322e-5
-1.099, 1.321e-5
-1.100, 1.331e-5
-1.101, 1.333e-5
-1.102, 1.333e-5
-1.103, 1.330e-5
-1.104, 1.326e-5
-1.105, 1.332e-5
-1.106, 1.331e-5
-1.107, 1.334e-5
-1.108, 1.328e-5
-1.109, 1.328e-5
-1.110, 1.330e-5
-1.111, 1.328e-5
-1.112, 1.329e-5
-1.113, 1.318e-5
-1.114, 1.322e-5
-1.115, 1.325e-5
-1.116, 1.320e-5
-1.117, 1.321e-5
-1.118, 1.313e-5
-1.119, 1.311e-5
-1.120, 1.312e-5
-1.121, 1.309e-5
-1.122, 1.309e-5
-1.123, 1.301e-5
-1.124, 1.304e-5
-1.125, 1.304e-5
-1.126, 1.294e-5
-1.127, 1.300e-5
-1.128, 1.289e-5
-1.129, 1.287e-5
-1.130, 1.293e-5
-1.131, 1.282e-5
-1.132, 1.279e-5
-1.133, 1.272e-5
-1.134, 1.276e-5
-1.135, 1.273e-5
-1.136, 1.264e-5
-1.137, 1.266e-5
-1.138, 1.258e-5
-1.139, 1.263e-5
-1.140, 1.257e-5
-1.141, 1.257e-5
-1.142, 1.253e-5
-1.143, 1.245e-5
-1.144, 1.245e-5
-1.145, 1.243e-5
-1.146, 1.242e-5
-1.147, 1.236e-5
-1.148, 1.228e-5
-1.149, 1.234e-5
-1.150, 1.227e-5
-1.151, 1.228e-5
-1.152, 1.222e-5
-1.153, 1.218e-5
-1.154, 1.222e-5
-1.155, 1.220e-5
-1.156, 1.219e-5
-1.157, 1.216e-5
-1.158, 1.208e-5
-1.159, 1.209e-5
-1.160, 1.209e-5
-1.161, 1.207e-5
-1.162, 1.207e-5
-1.163, 1.201e-5
-1.164, 1.204e-5
-1.165, 1.198e-5
-1.166, 1.200e-5
-1.167, 1.200e-5
-1.168, 1.191e-5
-1.169, 1.193e-5
-1.170, 1.203e-5
-1.171, 1.195e-5
-1.172, 1.198e-5
-1.173, 1.191e-5
-1.174, 1.192e-5
-1.175, 1.193e-5
-1.176, 1.189e-5
-1.177, 1.194e-5
-1.178, 1.194e-5
-1.179, 1.190e-5
-1.180, 1.191e-5
-1.181, 1.192e-5
-1.182, 1.192e-5
-1.183, 1.188e-5
-1.184, 1.191e-5
-1.185, 1.193e-5
-1.186, 1.193e-5
-1.187, 1.193e-5
-1.188, 1.188e-5
-1.189, 1.192e-5
-1.190, 1.195e-5
-1.191, 1.193e-5
-1.192, 1.201e-5
-1.193, 1.196e-5
-1.194, 1.201e-5
-1.195, 1.203e-5
-1.196, 1.198e-5
-1.197, 1.203e-5
-1.198, 1.197e-5
-1.199, 1.205e-5
-1.200, 1.213e-5
-1.201, 1.208e-5
-1.202, 1.213e-5
-1.203, 1.205e-5
-1.204, 1.211e-5
-1.205, 1.221e-5
-1.206, 1.216e-5
-1.207, 1.226e-5
-1.208, 1.220e-5
-1.209, 1.221e-5
-1.210, 1.232e-5
-1.211, 1.232e-5
-1.212, 1.235e-5
-1.213, 1.232e-5
-1.214, 1.236e-5
-1.215, 1.251e-5
-1.216, 1.241e-5
-1.217, 1.248e-5
-1.218, 1.245e-5
-1.219, 1.249e-5
-1.220, 1.262e-5
-1.221, 1.257e-5
-1.222, 1.267e-5
-1.223, 1.265e-5
-1.224, 1.274e-5
-1.225, 1.276e-5
-1.226, 1.278e-5
-1.227, 1.285e-5
-1.228, 1.287e-5
-1.229, 1.294e-5
-1.230, 1.297e-5
-1.231, 1.298e-5
-1.232, 1.306e-5
-1.233, 1.305e-5
-1.234, 1.319e-5
-1.235, 1.320e-5
-1.236, 1.322e-5
-1.237, 1.328e-5
-1.238, 1.329e-5
-1.239, 1.336e-5
-1.240, 1.346e-5
-1.241, 1.347e-5
-1.242, 1.360e-5
-1.243, 1.352e-5
-1.244, 1.361e-5
-1.245, 1.376e-5
-1.246, 1.373e-5
-1.247, 1.383e-5
-1.248, 1.385e-5
-1.249, 1.392e-5
-1.250, 1.402e-5
-1.251, 1.408e-5
-1.252, 1.413e-5
-1.253, 1.418e-5
-1.254, 1.427e-5
-1.255, 1.436e-5
-1.256, 1.440e-5
-1.257, 1.454e-5
-1.258, 1.450e-5
-1.259, 1.461e-5
-1.260, 1.474e-5
-1.261, 1.479e-5
-1.262, 1.489e-5
-1.263, 1.494e-5
-1.264, 1.499e-5
-1.265, 1.514e-5
-1.266, 1.517e-5
-1.267, 1.527e-5
-1.268, 1.531e-5
-1.269, 1.543e-5
-1.270, 1.558e-5
-1.271, 1.560e-5
-1.272, 1.571e-5
-1.273, 1.577e-5
-1.274, 1.597e-5
-1.275, 1.606e-5
-1.276, 1.616e-5
-1.277, 1.631e-5
-1.278, 1.637e-5
-1.279, 1.646e-5
-1.280, 1.663e-5
-1.281, 1.667e-5
-1.282, 1.682e-5
-1.283, 1.690e-5
-1.284, 1.704e-5
-1.285, 1.721e-5
-1.286, 1.731e-5
-1.287, 1.745e-5
-1.288, 1.758e-5
-1.289, 1.773e-5
-1.290, 1.793e-5
-1.291, 1.797e-5
-1.292, 1.815e-5
-1.293, 1.828e-5
-1.294, 1.849e-5
-1.295, 1.869e-5
-1.296, 1.879e-5
-1.297, 1.901e-5
-1.298, 1.913e-5
-1.299, 1.933e-5
-1.300, 1.951e-5
-1.301, 1.970e-5
-1.302, 1.989e-5
-1.303, 2.005e-5
-1.304, 2.031e-5
-1.305, 2.047e-5
-1.306, 2.062e-5
-1.307, 2.084e-5
-1.308, 2.103e-5
-1.309, 2.128e-5
-1.310, 2.150e-5
-1.311, 2.171e-5
-1.312, 2.190e-5
-1.313, 2.207e-5
-1.314, 2.236e-5
-1.315, 2.258e-5
-1.316, 2.279e-5
-1.317, 2.303e-5
-1.318, 2.325e-5
-1.319, 2.354e-5
-1.320, 2.380e-5
-1.321, 2.403e-5
-1.322, 2.426e-5
-1.323, 2.452e-5
-1.324, 2.480e-5
-1.325, 2.507e-5
-1.326, 2.538e-5
-1.327, 2.568e-5
-1.328, 2.584e-5
-1.329, 2.621e-5
-1.330, 2.647e-5
-1.331, 2.676e-5
-1.332, 2.714e-5
-1.333, 2.735e-5
-1.334, 2.774e-5
-1.335, 2.805e-5
-1.336, 2.832e-5
-1.337, 2.870e-5
-1.338, 2.899e-5
-1.339, 2.932e-5
-1.340, 2.974e-5
-1.341, 3.007e-5
-1.342, 3.046e-5
-1.343, 3.074e-5
-1.344, 3.118e-5
-1.345, 3.153e-5
-1.346, 3.187e-5
-1.347, 3.225e-5
-1.348, 3.269e-5
-1.349, 3.305e-5
-1.350, 3.351e-5
-1.351, 3.388e-5
-1.352, 3.427e-5
-1.353, 3.463e-5
-1.354, 3.515e-5
-1.355, 3.565e-5
-1.356, 3.603e-5
-1.357, 3.651e-5
-1.358, 3.686e-5
-1.359, 3.742e-5
-1.360, 3.790e-5
-1.361, 3.837e-5
-1.362, 3.880e-5
-1.363, 3.930e-5
-1.364, 3.983e-5
-1.365, 4.032e-5
-1.366, 4.079e-5
-1.367, 4.136e-5
-1.368, 4.191e-5
-1.369, 4.246e-5
-1.370, 4.303e-5
-1.371, 4.350e-5
-1.372, 4.412e-5
-1.373, 4.460e-5
-1.374, 4.518e-5
-1.375, 4.585e-5
-1.376, 4.635e-5
-1.377, 4.698e-5
-1.378, 4.760e-5
-1.379, 4.818e-5
-1.380, 4.888e-5
-1.381, 4.945e-5
-1.382, 5.014e-5
-1.383, 5.071e-5
-1.384, 5.139e-5
-1.385, 5.209e-5
-1.386, 5.269e-5
-1.387, 5.348e-5
-1.388, 5.408e-5
-1.389, 5.480e-5
-1.390, 5.559e-5
-1.391, 5.625e-5
-1.392, 5.704e-5
-1.393, 5.778e-5
-1.394, 5.854e-5
-1.395, 5.928e-5
-1.396, 5.999e-5
-1.397, 6.070e-5
-1.398, 6.145e-5
-1.399, 6.229e-5
-1.400, 6.316e-5
-1.401, 6.391e-5
-1.402, 6.478e-5
-1.403, 6.555e-5
-1.404, 6.649e-5
-1.405, 6.734e-5
-1.406, 6.829e-5
-1.407, 6.912e-5
-1.408, 6.997e-5
-1.409, 7.085e-5
-1.410, 7.188e-5
-1.411, 7.278e-5
-1.412, 7.366e-5
-1.413, 7.454e-5
-1.414, 7.563e-5
-1.415, 7.648e-5
-1.416, 7.753e-5
-1.417, 7.852e-5
-1.418, 7.952e-5
-1.419, 8.050e-5
-1.420, 8.170e-5
-1.421, 8.275e-5
-1.422, 8.390e-5
-1.423, 8.486e-5
-1.424, 8.606e-5
-1.425, 8.720e-5
-1.426, 8.827e-5
-1.427, 8.939e-5
-1.428, 9.053e-5
-1.429, 9.188e-5
-1.430, 9.325e-5
-1.431, 9.441e-5
-1.432, 9.552e-5
-1.433, 9.678e-5
-1.434, 9.802e-5
-1.435, 9.922e-5
-1.436, 1.006e-4
-1.437, 1.021e-4
-1.438, 1.035e-4
-1.439, 1.046e-4
-1.440, 1.061e-4
-1.441, 1.073e-4
-1.442, 1.088e-4
-1.443, 1.102e-4
-1.444, 1.116e-4
-1.445, 1.131e-4
-1.446, 1.147e-4
-1.447, 1.162e-4
-1.448, 1.176e-4
-1.449, 1.191e-4
-1.450, 1.208e-4
-1.451, 1.223e-4
-1.452, 1.242e-4
-1.453, 1.257e-4
-1.454, 1.275e-4
-1.455, 1.292e-4
-1.456, 1.309e-4
-1.457, 1.328e-4
-1.458, 1.344e-4
-1.459, 1.362e-4
-1.460, 1.381e-4
-1.461, 1.399e-4
-1.462, 1.421e-4
-1.463, 1.436e-4
-1.464, 1.457e-4
-1.465, 1.477e-4
-1.466, 1.499e-4
-1.467, 1.517e-4
-1.468, 1.540e-4
-1.469, 1.561e-4
-1.470, 1.582e-4
-1.471, 1.605e-4
-1.472, 1.626e-4
-1.473, 1.647e-4
-1.474, 1.673e-4
-1.475, 1.697e-4
-1.476, 1.719e-4
-1.477, 1.745e-4
-1.478, 1.772e-4
-1.479, 1.796e-4
-1.480, 1.820e-4
-1.481, 1.846e-4
-1.482, 1.877e-4
-1.483, 1.898e-4
-1.484, 1.927e-4
-1.485, 1.953e-4
-1.486, 1.980e-4
-1.487, 2.010e-4
-1.488, 2.038e-4
-1.489, 2.066e-4
-1.490, 2.100e-4
-1.491, 2.128e-4
-1.492, 2.164e-4
-1.493, 2.191e-4
-1.494, 2.223e-4
-1.495, 2.256e-4
-1.496, 2.286e-4
-1.497, 2.317e-4
-1.498, 2.352e-4
-1.499, 2.388e-4
-1.500, 2.363e-4
-1.499, 2.316e-4
-1.498, 2.274e-4
-1.497, 2.234e-4
-1.496, 2.197e-4
-1.495, 2.159e-4
-1.494, 2.121e-4
-1.493, 2.086e-4
-1.492, 2.051e-4
-1.491, 2.017e-4
-1.490, 1.983e-4
-1.489, 1.949e-4
-1.488, 1.918e-4
-1.487, 1.884e-4
-1.486, 1.853e-4
-1.485, 1.823e-4
-1.484, 1.793e-4
-1.483, 1.764e-4
-1.482, 1.735e-4
-1.481, 1.703e-4
-1.480, 1.679e-4
-1.479, 1.649e-4
-1.478, 1.620e-4
-1.477, 1.590e-4
-1.476, 1.565e-4
-1.475, 1.540e-4
-1.474, 1.515e-4
-1.473, 1.491e-4
-1.472, 1.466e-4
-1.471, 1.443e-4
-1.470, 1.423e-4
-1.469, 1.400e-4
-1.468, 1.377e-4
-1.467, 1.355e-4
-1.466, 1.335e-4
-1.465, 1.317e-4
-1.464, 1.296e-4
-1.463, 1.275e-4
-1.462, 1.256e-4
-1.461, 1.237e-4
-1.460, 1.220e-4
-1.459, 1.200e-4
-1.458, 1.183e-4
-1.457, 1.165e-4
-1.456, 1.146e-4
-1.455, 1.129e-4
-1.454, 1.110e-4
-1.453, 1.094e-4
-1.452, 1.076e-4
-1.451, 1.059e-4
-1.450, 1.044e-4
-1.449, 1.026e-4
-1.448, 1.012e-4
-1.447, 9.967e-5
-1.446, 9.824e-5
-1.445, 9.675e-5
-1.444, 9.536e-5
-1.443, 9.388e-5
-1.442, 9.250e-5
-1.441, 9.123e-5
-1.440, 8.996e-5
-1.439, 8.860e-5
-1.438, 8.739e-5
-1.437, 8.606e-5
-1.436, 8.476e-5
-1.435, 8.351e-5
-1.434, 8.222e-5
-1.433, 8.099e-5
-1.432, 7.974e-5
-1.431, 7.866e-5
-1.430, 7.762e-5
-1.429, 7.644e-5
-1.428, 7.539e-5
-1.427, 7.432e-5
-1.426, 7.335e-5
-1.425, 7.221e-5
-1.424, 7.106e-5
-1.423, 7.006e-5
-1.422, 6.895e-5
-1.421, 6.795e-5
-1.420, 6.697e-5
-1.419, 6.592e-5
-1.418, 6.493e-5
-1.417, 6.390e-5
-1.416, 6.248e-5
-1.415, 6.129e-5
-1.414, 6.034e-5
-1.413, 5.944e-5
-1.412, 5.848e-5
-1.411, 5.759e-5
-1.410, 5.683e-5
-1.409, 5.594e-5
-1.408, 5.507e-5
-1.407, 5.422e-5
-1.406, 5.346e-5
-1.405, 5.268e-5
-1.404, 5.189e-5
-1.403, 5.114e-5
-1.402, 5.033e-5
-1.401, 4.967e-5
-1.400, 4.889e-5
-1.399, 4.812e-5
-1.398, 4.741e-5
-1.397, 4.665e-5
-1.396, 4.601e-5
-1.395, 4.525e-5
-1.394, 4.458e-5
-1.393, 4.389e-5
-1.392, 4.320e-5
-1.391, 4.256e-5
-1.390, 4.189e-5
-1.389, 4.123e-5
-1.388, 4.060e-5
-1.387, 3.991e-5
-1.386, 3.936e-5
-1.385, 3.873e-5
-1.384, 3.822e-5
-1.383, 3.754e-5
-1.382, 3.681e-5
-1.381, 3.622e-5
-1.380, 3.570e-5
-1.379, 3.501e-5
-1.378, 3.458e-5
-1.377, 3.399e-5
-1.376, 3.351e-5
-1.375, 3.302e-5
-1.374, 3.250e-5
-1.373, 3.194e-5
-1.372, 3.137e-5
-1.371, 3.089e-5
-1.370, 3.048e-5
-1.369, 2.996e-5
-1.368, 2.948e-5
-1.367, 2.897e-5
-1.366, 2.849e-5
-1.365, 2.809e-5
-1.364, 2.767e-5
-1.363, 2.720e-5
-1.362, 2.678e-5
-1.361, 2.635e-5
-1.360, 2.589e-5
-1.359, 2.549e-5
-1.358, 2.501e-5
-1.357, 2.456e-5
-1.356, 2.419e-5
-1.355, 2.381e-5
-1.354, 2.340e-5
-1.353, 2.295e-5
-1.352, 2.255e-5
-1.351, 2.216e-5
-1.350, 2.180e-5
-1.349, 2.144e-5
-1.348, 2.105e-5
-1.347, 2.063e-5
-1.346, 2.031e-5
-1.345, 1.999e-5
-1.344, 1.968e-5
-1.343, 1.928e-5
-1.342, 1.890e-5
-1.341, 1.860e-5
-1.340, 1.835e-5
-1.339, 1.799e-5
-1.338, 1.761e-5
-1.337, 1.728e-5
-1.336, 1.701e-5
-1.335, 1.670e-5
-1.334, 1.642e-5
-1.333, 1.606e-5
-1.332, 1.573e-5
-1.331, 1.547e-5
-1.330, 1.522e-5
-1.329, 1.493e-5
-1.328, 1.461e-5
-1.327, 1.430e-5
-1.326, 1.406e-5
-1.325, 1.387e-5
-1.324, 1.358e-5
-1.323, 1.323e-5
-1.322, 1.303e-5
-1.321, 1.281e-5
-1.320, 1.250e-5
-1.319, 1.230e-5
-1.318, 1.194e-5
-1.317, 1.172e-5
-1.316, 1.153e-5
-1.315, 1.135e-5
-1.314, 1.109e-5
-1.313, 1.081e-5
-1.312, 1.054e-5
-1.311, 1.033e-5
-1.310, 1.016e-5
-1.309, 9.932e-6
-1.308, 9.704e-6
-1.307, 9.431e-6
-1.306, 9.247e-6
-1.305, 9.111e-6
-1.304, 8.894e-6
-1.303, 8.595e-6
-1.302, 8.406e-6
-1.301, 8.272e-6
-1.300, 8.064e-6
-1.299, 7.859e-6
-1.298, 7.616e-6
-1.297, 7.432e-6
-1.296, 7.288e-6
-1.295, 7.134e-6
-1.294, 6.939e-6
-1.293, 6.737e-6
-1.292, 6.507e-6
-1.291, 6.352e-6
-1.290, 6.217e-6
-1.289, 6.038e-6
-1.288, 5.832e-6
-1.287, 5.692e-6
-1.286, 5.542e-6
-1.285, 5.406e-6
-1.284, 5.231e-6
-1.283, 5.019e-6
-1.282, 4.887e-6
-1.281, 4.778e-6
-1.280, 4.571e-6
-1.279, 4.471e-6
-1.278, 4.262e-6
-1.277, 4.121e-6
-1.276, 4.032e-6
-1.275, 3.900e-6
-1.274, 3.738e-6
-1.273, 3.496e-6
-1.272, 3.379e-6
-1.271, 3.299e-6
-1.270, 3.185e-6
-1.269, 3.050e-6
-1.268, 2.885e-6
-1.267, 2.707e-6
-1.266, 2.631e-6
-1.265, 2.542e-6
-1.264, 2.413e-6
-1.263, 2.232e-6
-1.262, 2.139e-6
-1.261, 2.017e-6
-1.260, 1.932e-6
-1.259, 1.781e-6
-1.258, 1.603e-6
-1.257, 1.510e-6
-1.256, 1.439e-6
-1.255, 1.331e-6
-1.254, 1.222e-6
-1.253, 1.012e-6
-1.252, 9.529e-7
-1.251, 8.483e-7
-1.250, 8.078e-7
-1.249, 6.934e-7
-1.248, 4.813e-7
-1.247, 4.240e-7
-1.246, 3.096e-7
-1.245, 2.830e-7
-1.244, 1.764e-7
-1.243, -2.684e-8
-1.242, -7.518e-8
-1.241, -1.768e-7
-1.240, -2.459e-7
-1.239, -3.317e-7
-1.238, -5.478e-7
-1.237, -5.339e-7
-1.236, -6.208e-7
-1.235, -7.470e-7
-1.234, -8.013e-7
-1.233, -9.927e-7
-1.232, -1.042e-6
-1.231, -1.047e-6
-1.230, -1.148e-6
-1.229, -1.297e-6
-1.228, -1.452e-6
-1.227, -1.516e-6
-1.226, -1.561e-6
-1.225, -1.634e-6
-1.224, -1.643e-6
-1.223, -1.850e-6
-1.222, -1.925e-6
-1.221, -1.953e-6
-1.220, -2.011e-6
-1.219, -2.106e-6
-1.218, -2.280e-6
-1.217, -2.309e-6
-1.216, -2.355e-6
-1.215, -2.422e-6
-1.214, -2.532e-6
-1.213, -2.696e-6
-1.212, -2.709e-6
-1.211, -2.795e-6
-1.210, -2.798e-6
-1.209, -2.860e-6
-1.208, -3.027e-6
-1.207, -3.113e-6
-1.206, -3.136e-6
-1.205, -3.181e-6
-1.204, -3.258e-6
-1.203, -3.468e-6
-1.202, -3.432e-6
-1.201, -3.508e-6
-1.200, -3.569e-6
-1.199, -3.646e-6
-1.198, -3.875e-6
-1.197, -3.822e-6
-1.196, -3.879e-6
-1.195, -3.934e-6
-1.194, -4.016e-6
-1.193, -4.189e-6
-1.192, -4.168e-6
-1.191, -4.272e-6
-1.190, -4.329e-6
-1.189, -4.407e-6
-1.188, -4.554e-6
-1.187, -4.590e-6
-1.186, -4.605e-6
-1.185, -4.712e-6
-1.184, -4.760e-6
-1.183, -4.912e-6
-1.182, -4.943e-6
-1.181, -4.980e-6
-1.180, -5.061e-6
-1.179, -5.112e-6
-1.178, -5.312e-6
-1.177, -5.316e-6
-1.176, -5.375e-6
-1.175, -5.479e-6
-1.174, -5.503e-6
-1.173, -5.704e-6
-1.172, -5.696e-6
-1.171, -5.759e-6
-1.170, -5.858e-6
-1.169, -5.961e-6
-1.168, -6.107e-6
-1.167, -6.110e-6
-1.166, -6.217e-6
-1.165, -6.247e-6
-1.164, -6.281e-6
-1.163, -6.527e-6
-1.162, -6.565e-6
-1.161, -6.617e-6
-1.160, -6.664e-6
-1.159, -6.713e-6
-1.158, -6.907e-6
-1.157, -6.947e-6
-1.156, -7.018e-6
-1.155, -7.121e-6
-1.154, -7.228e-6
-1.153, -7.438e-6
-1.152, -7.424e-6
-1.151, -7.485e-6
-1.150, -7.594e-6
-1.149, -7.668e-6
-1.148, -7.849e-6
-1.147, -7.897e-6
-1.146, -7.944e-6
-1.145, -8.065e-6
-1.144, -8.182e-6
-1.143, -8.322e-6
-1.142, -8.390e-6
-1.141, -8.457e-6
-1.140, -8.564e-6
-1.139, -8.679e-6
-1.138, -8.875e-6
-1.137, -8.952e-6
-1.136, -9.034e-6
-1.135, -9.152e-6
-1.134, -9.270e-6
-1.133, -9.429e-6
-1.132, -9.464e-6
-1.131, -9.579e-6
-1.130, -9.658e-6
-1.129, -9.812e-6
-1.128, -1.002e-5
-1.127, -1.006e-5
-1.126, -1.017e-5
-1.125, -1.028e-5
-1.124, -1.041e-5
-1.123, -1.064e-5
-1.122, -1.072e-5
-1.121, -1.082e-5
-1.120, -1.091e-5
-1.119, -1.107e-5
-1.118, -1.134e-5
-1.117, -1.133e-5
-1.116, -1.152e-5
-1.115, -1.169e-5
-1.114, -1.176e-5
-1.113, -1.206e-5
-1.112, -1.212e-5
-1.111, -1.224e-5
-1.110, -1.242e-5
-1.109, -1.253e-5
-1.108, -1.278e-5
-1.107, -1.292e-5
-1.106, -1.302e-5
-1.105, -1.318e-5
-1.104, -1.332e-5
-1.103, -1.360e-5
-1.102, -1.373e-5
-1.101, -1.390e-5
-1.100, -1.406e-5
-1.099, -1.417e-5
-1.098, -1.443e-5
-1.097, -1.456e-5
-1.096, -1.468e-5
-1.095, -1.490e-5
-1.094, -1.507e-5
-1.093, -1.535e-5
-1.092, -1.545e-5
-1.091, -1.563e-5
-1.090, -1.583e-5
-1.089, -1.605e-5
-1.088, -1.627e-5
-1.087, -1.645e-5
-1.086, -1.663e-5
-1.085, -1.683e-5
-1.084, -1.701e-5
-1.083, -1.735e-5
-1.082, -1.750e-5
-1.081, -1.771e-5
-1.080, -1.790e-5
-1.079, -1.812e-5
-1.078, -1.842e-5
-1.077, -1.855e-5
-1.076, -1.880e-5
-1.075, -1.907e-5
-1.074, -1.920e-5
-1.073, -1.952e-5
-1.072, -1.965e-5
-1.071, -1.987e-5
-1.070, -2.013e-5
-1.069, -2.031e-5
-1.068, -2.062e-5
-1.067, -2.084e-5
-1.066, -2.104e-5
-1.065, -2.135e-5
-1.064, -2.147e-5
-1.063, -2.186e-5
-1.062, -2.206e-5
-1.061, -2.222e-5
-1.060, -2.252e-5
-1.059, -2.273e-5
-1.058, -2.308e-5
-1.057, -2.330e-5
-1.056, -2.347e-5
-1.055, -2.373e-5
-1.054, -2.396e-5
-1.053, -2.430e-5
-1.052, -2.449e-5
-1.051, -2.477e-5
-1.050, -2.497e-5
-1.049, -2.520e-5
-1.048, -2.556e-5
-1.047, -2.576e-5
-1.046, -2.606e-5
-1.045, -2.628e-5
-1.044, -2.650e-5
-1.043, -2.691e-5
-1.042, -2.708e-5
-1.041, -2.732e-5
-1.040, -2.753e-5
-1.039, -2.780e-5
-1.038, -2.821e-5
-1.037, -2.833e-5
-1.036, -2.858e-5
-1.035, -2.887e-5
-1.034, -2.909e-5
-1.033, -2.946e-5
-1.032, -2.969e-5
-1.031, -2.995e-5
-1.030, -3.024e-5
-1.029, -3.042e-5
-1.028, -3.077e-5
-1.027, -3.106e-5
-1.026, -3.126e-5
-1.025, -3.157e-5
-1.024, -3.181e-5
-1.023, -3.215e-5
-1.022, -3.242e-5
-1.021, -3.259e-5
-1.020, -3.289e-5
-1.019, -3.315e-5
-1.018, -3.351e-5
-1.017, -3.375e-5
-1.016, -3.397e-5
-1.015, -3.422e-5
-1.014, -3.453e-5
-1.013, -3.485e-5
-1.012, -3.508e-5
-1.011, -3.537e-5
-1.010, -3.558e-5
-1.009, -3.584e-5
-1.008, -3.618e-5
-1.007, -3.636e-5
-1.006, -3.665e-5
-1.005, -3.686e-5
-1.004, -3.713e-5
-1.003, -3.758e-5
-1.002, -3.774e-5
-1.001, -3.804e-5
