Potential V vs RHE, Current mA cm-2
0.013299999999999867,-0.019070308322180696
0.012299999999999978,-0.022253408746877028
0.011299999999999866,-0.02345591335176231
0.010299999999999976,-0.02474330063463949
0.009299999999999864,-0.025662862979551764
0.008299999999999974,-0.026483395533473487
0.007299999999999862,-0.026992691601424906
0.006299999999999972,-0.028166901980312884
0.00529999999999986,-0.028421550014288588
0.0042999999999999705,-0.02902987587323055
0.0032999999999998586,-0.029652348845171168
0.0022999999999999687,-0.030090909348129333
0.0012999999999998568,-0.030699235207071292
0.00029999999999996696,-0.030982177467044306
-0.000700000000000145,-0.03163294466498222
-0.0017000000000000348,-0.03198662248994848
-0.0027000000000001467,-0.03258080123589179
-0.0037000000000000366,-0.032976920399854
-0.0047000000000001485,-0.03316083286883646
-0.005700000000000038,-0.03383989429277168
-0.00670000000000015,-0.03415113077874199
-0.00770000000000004,-0.034745309524685304
-0.008700000000000152,-0.03521216425364076
-0.009700000000000042,-0.035594136304604326
-0.010700000000000154,-0.036202462163546285
-0.011700000000000044,-0.03655613998851255
-0.012700000000000156,-0.03703714183046666
-0.013700000000000045,-0.037433260994428876
-0.014700000000000157,-0.03791426283638299
-0.015700000000000047,-0.038154763757360044
-0.01670000000000016,-0.0384518531303317
-0.01770000000000005,-0.03911676744126827
-0.01870000000000016,-0.03971094618721158
-0.01970000000000005,-0.039894858656194035
-0.020700000000000163,-0.04040415472414544
-0.021700000000000053,-0.041012480583087416
-0.022700000000000164,-0.041366158408053674
-0.023700000000000054,-0.04193204292799969
-0.024700000000000166,-0.04224327941396999
-0.025700000000000056,-0.04296478217690116
-0.026700000000000168,-0.04343163690585663
-0.027700000000000058,-0.04372872627882829
-0.02870000000000017,-0.04425216945977835
-0.02970000000000006,-0.04493123088371357
-0.03070000000000017,-0.04535564427367308
-0.03170000000000006,-0.046147882601597495
-0.03270000000000017,-0.04621861816659075
-0.03370000000000006,-0.04712403339850437
-0.034700000000000175,-0.04750600544946793
-0.035700000000000065,-0.04835483222938696
-0.03670000000000018,-0.04886412829733837
-0.03770000000000007,-0.04941586570428573
-0.03870000000000018,-0.04995345599823445
-0.03970000000000007,-0.05077398855215617
-0.04070000000000018,-0.05107107792512782
-0.04170000000000007,-0.05197649315704145
-0.04270000000000018,-0.05248578922499286
-0.04370000000000007,-0.05319314487492538
-0.044700000000000184,-0.053858059185861944
-0.045700000000000074,-0.054367355253813365
-0.046700000000000186,-0.05524447625972968
-0.047700000000000076,-0.05573962521468245
-0.04870000000000019,-0.05633380396062577
-0.04970000000000008,-0.057394837435524544
-0.05070000000000019,-0.058031457520463806
-0.05170000000000008,-0.058554900701413864
-0.05270000000000019,-0.05938958036833424
-0.05370000000000008,-0.0599979062272762
-0.05470000000000019,-0.060478908069230314
-0.05570000000000008,-0.06129944062315204
-0.056700000000000195,-0.06197850204708726
-0.057700000000000085,-0.06294050573099548
-0.058700000000000196,-0.06343565468594824
-0.059700000000000086,-0.06421374590087402
-0.0607000000000002,-0.06487866021181057
-0.06170000000000009,-0.06606701770369722
-0.0627000000000002,-0.0669865800486095
-0.06370000000000009,-0.06734025787357575
-0.0647000000000002,-0.06859935093045562
-0.06570000000000009,-0.06892473452942459
-0.0667000000000002,-0.07004235645631796
-0.0677000000000001,-0.07076385921924913
-0.0687000000000002,-0.07168342156416141
-0.0697000000000001,-0.07202295227612901
-0.07070000000000021,-0.07326789822001026
-0.0717000000000001,-0.07420160767792117
-0.07270000000000021,-0.0749089633278537
-0.0737000000000001,-0.07608317370674167
-0.07470000000000021,-0.07660661688769173
-0.0757000000000001,-0.07771009170158645
-0.07670000000000021,-0.07877112517648524
-0.0777000000000001,-0.07953506927841236
-0.07870000000000021,-0.08027071915434218
-0.0797000000000001,-0.08130345840324366
-0.08070000000000022,-0.08205325539217213
-0.0817000000000001,-0.08341137824004256
-0.08270000000000022,-0.08409043966397778
-0.08370000000000011,-0.08516562025187521
-0.08470000000000022,-0.08617006527477938
-0.08570000000000011,-0.08730183431467141
-0.08670000000000022,-0.08834872067657155
-0.08770000000000011,-0.0890985176655
-0.08870000000000022,-0.08980587331543252
-0.08970000000000011,-0.09103667214631511
-0.09070000000000022,-0.09184305758723818
-0.09170000000000011,-0.0928050612711464
-0.09270000000000023,-0.0940641543280263
-0.09370000000000012,-0.09506859935093047
-0.09470000000000023,-0.09610133859983194
-0.09570000000000012,-0.09730384320471722
-0.09670000000000023,-0.09809608153264164
-0.09770000000000012,-0.09919955634653636
-0.09870000000000023,-0.09996350044846349
-0.09970000000000012,-0.10089720990637441
-0.10070000000000023,-0.1020714202852624
-0.10170000000000012,-0.10313245376016117
-0.10270000000000024,-0.1039812805400802
-0.10370000000000013,-0.10516963803196683
-0.10470000000000024,-0.10579211100390745
-0.10570000000000013,-0.10703705694778867
-0.10670000000000024,-0.10750391167674413
-0.10770000000000013,-0.10845176824765372
-0.10870000000000024,-0.10915912389758622
-0.10970000000000013,-0.11002209779050391
-0.11070000000000024,-0.11108313126540269
-0.11170000000000013,-0.11171975135034196
-0.11270000000000002,-0.11266760792125154
-0.11370000000000013,-0.1133891106841827
-0.11470000000000002,-0.11412476056011249
-0.11570000000000014,-0.11464820374106259
-0.11670000000000003,-0.11517164692201265
-0.11770000000000014,-0.11566679587696539
-0.11870000000000003,-0.11641659286589387
-0.11970000000000014,-0.11624682750991006
-0.12070000000000003,-0.11705321295083315
-0.12170000000000014,-0.11740689077579938
-0.12270000000000003,-0.11777471571376431
-0.12370000000000014,-0.11776056860076566
-0.12470000000000003,-0.1178030099397616
-0.12570000000000014,-0.1181142464257319
-0.12670000000000003,-0.11802936374774001
-0.12770000000000015,-0.11790203973075215
-0.12870000000000004,-0.11807180508673595
-0.12970000000000015,-0.11801521663474136
-0.13070000000000004,-0.1179727752957454
-0.13170000000000015,-0.11753421479278725
-0.13270000000000004,-0.11740689077579938
-0.13370000000000015,-0.11712394851582639
-0.13470000000000004,-0.11681271202985609
-0.13570000000000015,-0.11614779771891949
-0.13670000000000004,-0.11594973813693843
-0.13770000000000016,-0.11538385361699238
-0.13870000000000005,-0.11487455754904098
-0.13970000000000016,-0.11418134901210711
-0.14070000000000005,-0.1137852298481449
-0.14170000000000016,-0.11271004926024747
-0.14270000000000005,-0.1119319580453217
-0.14370000000000016,-0.11156413310735679
-0.14470000000000005,-0.11067286498844181
-0.14570000000000016,-0.10995136222551065
-0.14670000000000005,-0.10904594699359701
-0.14770000000000016,-0.1081405317616834
-0.14870000000000005,-0.10739073477275493
-0.14970000000000017,-0.10655605510583457
-0.15070000000000006,-0.10573552255191283
-0.15170000000000017,-0.10490084288499248
-0.15270000000000006,-0.10391054497508695
-0.15370000000000017,-0.10325977777714902
-0.15470000000000006,-0.10222703852824755
-0.15570000000000017,-0.10161871266930558
-0.15670000000000006,-0.1005859734204041
-0.15770000000000017,-0.09966641107549183
-0.15870000000000006,-0.09898734965155662
-0.15970000000000018,-0.098081934419643
-0.16070000000000007,-0.09731799031771587
-0.16170000000000018,-0.09635598663380765
-0.16270000000000007,-0.09579010211386164
-0.16370000000000018,-0.09506859935093047
-0.16470000000000007,-0.09458759750897636
-0.16570000000000018,-0.09386609474604518
-0.16670000000000007,-0.09322947466110591
-0.16770000000000018,-0.09284750261014235
-0.16870000000000007,-0.09195623449122738
-0.16970000000000018,-0.09117814327630162
-0.17070000000000007,-0.09056981741735964
-0.17170000000000019,-0.09027272804438799
-0.17270000000000008,-0.09004637423640958
-0.1737000000000002,-0.08926828302148382
-0.17470000000000008,-0.08926828302148382
-0.1757000000000002,-0.08829213222457694
-0.17670000000000008,-0.08809407264259583
-0.1777000000000002,-0.08778283615662552
-0.17870000000000008,-0.0874433054446579
-0.1797000000000002,-0.08680668535971865
-0.18070000000000008,-0.08704718628069572
-0.1817000000000002,-0.08645300753475238
-0.18270000000000008,-0.08624080083977263
-0.1837000000000002,-0.08574565188481988
-0.1847000000000001,-0.08559003364183472
-0.1857000000000002,-0.08560418075483338
-0.1867000000000001,-0.08515147313887655
-0.1877000000000002,-0.08509488468688196
-0.1887000000000001,-0.0848543837659049
-0.1897000000000002,-0.08475535397491435
-0.1907000000000001,-0.08465632418392378
-0.1917000000000001,-0.0844582646019427
-0.19269999999999998,-0.08438752903694943
-0.1937000000000001,-0.08431679347195618
-0.19469999999999998,-0.08410458677697644
-0.1957000000000001,-0.08409043966397778
-0.19669999999999999,-0.08413288100297373
-0.1977000000000001,-0.08383579163000207
-0.1987,-0.08372261472601288
-0.1997000000000001,-0.08338308401404526
-0.2007,-0.08375090895201018
-0.2017000000000001,-0.08345381957903851
-0.2027,-0.08359529070902501
-0.2037000000000001,-0.08342552535304121
-0.2047,-0.08329820133605337
-0.2057000000000001,-0.08343967246603987
-0.2067,-0.08325575999705741
-0.2077000000000001,-0.08322746577106012
-0.2087,-0.08341137824004256
-0.2097000000000001,-0.08348211380503581
-0.2107,-0.0832840542230547
-0.2117000000000001,-0.08346796669203715
-0.2127,-0.08349626091803447
-0.2137000000000001,-0.08383579163000207
-0.2147,-0.08341137824004256
-0.2157000000000001,-0.08400555698598587
-0.2167,-0.08349626091803447
-0.21770000000000012,-0.08375090895201018
-0.2187,-0.08406214543798048
-0.21970000000000012,-0.08394896853399128
-0.2207,-0.08397726275998857
-0.22170000000000012,-0.08375090895201018
-0.2227,-0.08434508769795349
-0.22370000000000012,-0.08406214543798048
-0.2247,-0.08420361656796697
-0.22570000000000012,-0.08444411748894404
-0.2267,-0.08421776368096563
-0.22770000000000012,-0.08450070594093864
-0.22870000000000001,-0.0847412068619157
-0.22970000000000013,-0.0845714415059319
-0.23070000000000002,-0.08467047129692246
-0.23170000000000013,-0.08459973573192921
-0.23270000000000002,-0.08481194242690895
-0.23370000000000013,-0.08502414912188871
-0.23470000000000002,-0.08481194242690895
-0.23570000000000013,-0.0849392664438968
-0.23670000000000002,-0.08478364820091165
-0.2376999999999999,-0.08515147313887655
-0.23870000000000002,-0.08527879715586441
-0.2396999999999999,-0.08520806159087116
-0.24070000000000003,-0.08580224033681448
-0.24169999999999991,-0.08605688837079019
-0.24270000000000003,-0.08577394611081718
-0.24369999999999992,-0.08607103548378882
-0.24470000000000003,-0.08590127012780503
-0.24569999999999992,-0.08619835950077669
-0.24670000000000003,-0.08611347682278478
-0.24769999999999992,-0.08625494795277128
-0.24870000000000003,-0.08653789021274429
-0.24969999999999992,-0.08631153640476588
-0.25070000000000003,-0.0867642440207227
-0.2516999999999999,-0.0867359497947254
-0.25270000000000004,-0.08696230360270381
-0.2536999999999999,-0.08691986226370785
-0.25470000000000004,-0.08704718628069572
-0.2556999999999999,-0.08733012854066871
-0.25670000000000004,-0.08759892368764308
-0.25769999999999993,-0.08778283615662552
-0.25870000000000004,-0.08791016017361337
-0.25969999999999993,-0.08782527749562147
-0.26070000000000004,-0.08815066109459044
-0.26169999999999993,-0.08819310243358638
-0.26270000000000004,-0.08789601306061473
-0.26369999999999993,-0.08851848603255535
-0.26470000000000005,-0.08816480820758908
-0.26569999999999994,-0.08871654561453644
-0.26670000000000005,-0.0887023985015378
-0.26769999999999994,-0.0887589869535324
-0.26870000000000005,-0.08916925323049325
-0.26969999999999994,-0.0889570465355135
-0.27070000000000005,-0.08907022343950272
-0.27169999999999994,-0.08948048971646357
-0.27270000000000005,-0.08955122528145683
-0.27369999999999994,-0.08979172620243389
-0.27470000000000006,-0.08960781373345142
-0.27569999999999995,-0.08979172620243389
-0.27670000000000006,-0.09001808001041228
-0.27769999999999995,-0.09025858093138935
-0.27870000000000006,-0.09018784536639608
-0.27969999999999995,-0.09061225875635559
-0.28070000000000006,-0.09045664051337043
-0.28169999999999995,-0.09071128854734616
-0.28270000000000006,-0.09068299432134884
-0.28369999999999995,-0.09106496637231241
-0.28470000000000006,-0.09117814327630162
-0.28569999999999995,-0.09137620285828273
-0.28670000000000007,-0.09164499800525706
-0.28769999999999996,-0.09158840955326249
-0.28870000000000007,-0.09180061624824223
-0.28969999999999996,-0.09189964603923279
-0.29070000000000007,-0.09199867583022334
-0.29169999999999996,-0.09233820654219095
-0.29270000000000007,-0.0927484728191518
-0.29369999999999996,-0.09257870746316801
-0.2947000000000001,-0.09317288620911131
-0.29569999999999996,-0.09288994394913831
-0.2967000000000001,-0.09334265156509512
-0.29769999999999996,-0.09355485826007487
-0.2987000000000001,-0.09358315248607219
-0.29969999999999997,-0.09371047650306003
-0.3007000000000001,-0.0939226831980398
-0.30169999999999997,-0.09407830144102494
-0.3027000000000001,-0.09464418596097096
-0.30369999999999997,-0.09427636102300604
-0.3047000000000001,-0.09494127533394262
-0.30569999999999997,-0.09488468688194801
-0.3067000000000001,-0.09564863098387513
-0.3077,-0.09601645592184005
-0.3087000000000001,-0.09542227717589671
-0.3097,-0.09593157324384814
-0.3107000000000001,-0.09588913190485218
-0.3117,-0.09637013374680631
-0.3127000000000001,-0.09644086931179956
-0.3137,-0.09658234044178605
-0.3147000000000001,-0.09703504805774286
-0.3157,-0.09719066630072802
-0.3167000000000001,-0.09706334228374017
-0.3177,-0.09762922680368619
-0.3187000000000001,-0.09760093257768888
-0.3197,-0.09796875751565379
-0.3207000000000001,-0.09801119885464975
-0.3217,-0.09826584688862545
-0.3227000000000001,-0.0986761131655863
-0.3237,-0.0986761131655863
-0.3247000000000001,-0.09908637944254717
-0.3257,-0.09935517458952153
-0.3267000000000001,-0.09925614479853098
-0.3277,-0.09977958797948104
-0.3287000000000001,-0.09989276488347024
-0.3297,-0.09989276488347024
-0.3307000000000001,-0.1002747369344338
-0.3317,-0.10030303116043109
-0.3327000000000001,-0.10076988588938657
-0.3337,-0.1002464427084365
-0.3347000000000001,-0.10102453392336228
-0.3357,-0.10086891568037712
-0.3367000000000001,-0.10115185794035012
-0.3377,-0.10164700689530289
-0.3387000000000001,-0.10122259350534336
-0.3397,-0.10149138865231773
-0.3407000000000001,-0.10188750781627993
-0.3417,-0.10214215585025564
-0.3427000000000001,-0.10211386162425835
-0.3437,-0.10256656924021516
-0.3447000000000001,-0.1023260683192381
-0.3457,-0.10300512974317333
-0.3467000000000001,-0.10299098263017467
-0.3477,-0.10342954313313284
-0.3487000000000001,-0.10328807200314633
-0.3497,-0.10309001242116521
-0.3507000000000001,-0.10352857292412339
-0.3517,-0.10334466045514094
-0.3527000000000001,-0.10400957476607749
-0.3537,-0.10378322095809908
-0.3547000000000001,-0.10367004405410989
-0.3557,-0.10385395652309233
-0.35670000000000013,-0.10444813526903567
-0.3577,-0.10454716506002622
-0.35870000000000013,-0.10461790062501947
-0.3597,-0.10457545928602352
-0.36070000000000013,-0.1048866957719938
-0.3617,-0.10502816690198033
-0.3626999999999999,-0.10526866782295738
-0.3637,-0.10521207937096277
-0.3646999999999999,-0.10524037359696008
-0.3657,-0.10550916874393444
-0.3666999999999999,-0.10546672740493848
-0.3677,-0.10574966966491149
-0.3686999999999999,-0.10627311284586156
-0.36970000000000003,-0.10610334748987776
-0.3706999999999999,-0.10647117242784265
-0.37170000000000003,-0.1064287310888467
-0.3726999999999999,-0.10729170498176437
-0.37370000000000003,-0.10739073477275493
-0.3746999999999999,-0.10756050012873873
-0.37570000000000003,-0.10815467887468207
-0.3766999999999999,-0.10867812205563213
-0.37770000000000004,-0.10911668255859029
-0.3786999999999999,-0.10954109594854979
-0.37970000000000004,-0.10949865460955385
-0.3806999999999999,-0.1097391555305309
-0.38170000000000004,-0.109937215112512
-0.38269999999999993,-0.1101352746944931
-0.38370000000000004,-0.11048895251945937
-0.38469999999999993,-0.11055968808445263
-0.38570000000000004,-0.11119630816939187
-0.38669999999999993,-0.11123874950838784
-0.38770000000000004,-0.11232807720928391
-0.38869999999999993,-0.11237051854827985
-0.38970000000000005,-0.11254028390426365
-0.39069999999999994,-0.11265346080825286
-0.39170000000000005,-0.11306372708521374
-0.39269999999999994,-0.1131627568762043
-0.39370000000000005,-0.11348814047517325
-0.39469999999999994,-0.11320519821520024
-0.39570000000000005,-0.1142379374641017
-0.39669999999999994,-0.11440770282008553
-0.39770000000000005,-0.11518579403501128
-0.39869999999999994,-0.11503017579202615
-0.39970000000000006,-0.11517164692201265
-0.40069999999999995,-0.11524238248700588
-0.40170000000000006,-0.11600632658893299
-0.40269999999999995,-0.11570923721596137
-0.40370000000000006,-0.11603462081493031
-0.40469999999999995,-0.11626097462290871
-0.40570000000000006,-0.11688344759484932
-0.40669999999999995,-0.11710980140282773
-0.40770000000000006,-0.11742103788879804
-0.40869999999999995,-0.117463479227794
-0.40970000000000006,-0.11790203973075215
-0.41069999999999995,-0.11821327621672245
-0.41170000000000007,-0.11836889445970761
-0.41269999999999996,-0.11928845680461989
-0.41370000000000007,-0.11935919236961315
-0.41469999999999996,-0.11985434132456589
-0.41570000000000007,-0.12036363739251733
-0.41669999999999996,-0.12057584408749707
-0.41770000000000007,-0.1211700228334404
-0.41869999999999996,-0.12087293346046873
-0.4197000000000001,-0.12204714383935672
-0.42069999999999996,-0.12302329463626359
-0.4217000000000001,-0.12261302835930274
-0.42269999999999996,-0.1234194138002258
-0.4237000000000001,-0.12356088493021229
-0.42469999999999997,-0.12465021263110838
-0.4257000000000001,-0.12479168376109491
-0.42669999999999997,-0.12514536158606115
-0.4277000000000001,-0.1255839220890193
-0.42869999999999997,-0.12671569112891135
-0.4297000000000001,-0.12685716225889784
-0.43069999999999997,-0.12747963523083847
-0.4317000000000001,-0.1280879610897804
-0.4327,-0.12869628694872237
-0.4337000000000001,-0.12886605230470619
-0.4347,-0.12950267238964547
-0.4357000000000001,-0.13032320494356717
-0.4367,-0.1312852086274754
-0.4377000000000001,-0.13155400377444976
-0.4387,-0.13223306519838499
-0.4397000000000001,-0.13193597582541333
-0.4407,-0.13253015457135664
-0.4417000000000001,-0.1328555381703256
-0.4427,-0.13357704093325676
-0.4437000000000001,-0.13422780813119467
-0.4447,-0.13460978018215825
-0.4457000000000001,-0.135104929137111
-0.4467,-0.1356425194310597
-0.4477000000000001,-0.1365903760019693
-0.4487,-0.13707137784392343
-0.4497000000000001,-0.1373260258778991
-0.4507,-0.13816070554481946
-0.4517000000000001,-0.1388114727427574
-0.4527,-0.13949053416669263
-0.4537000000000001,-0.1394622399406953
-0.4547,-0.14012715425163189
-0.4557000000000001,-0.14117404061353203
-0.4567,-0.1421784856364362
-0.4577000000000001,-0.1426028990263957
-0.4587,-0.1428858412863687
-0.4597000000000001,-0.1434517258063147
-0.4607,-0.14430055258623375
-0.4617000000000001,-0.14472496597619325
-0.4627,-0.14571526388609876
-0.4637000000000001,-0.1458567350160853
-0.4647,-0.14727144631595032
-0.4657000000000001,-0.14783733083589634
-0.4667,-0.14812027309586934
-0.4677000000000001,-0.14911057100577488
-0.4687,-0.14953498439573437
-0.4697000000000001,-0.1503838111756534
-0.4707,-0.15151558021554543
-0.4717000000000001,-0.15264734925543746
-0.4727,-0.15321323377538346
-0.4737000000000001,-0.1540620605553025
-0.4747,-0.154203531685289
-0.4757000000000001,-0.155335300725181
-0.4767,-0.15590118524512703
-0.4777000000000001,-0.15646706976507307
-0.4787,-0.1574573676749786
-0.4797000000000001,-0.1584476655848841
-0.4807,-0.15915502123481662
-0.48170000000000013,-0.16042826140469515
-0.4827,-0.16127708818461417
-0.48370000000000013,-0.1618429727045602
-0.4847,-0.1628332706144657
-0.48570000000000013,-0.16354062626439822
-0.4867,-0.16509680869424978
