Potential V vs RHE, Current mA cm-2
0.013299999999999867,0.3467457395969205
0.012299999999999978,-0.7001406223032067
0.011299999999999866,-1.4415908145624723
0.010299999999999976,-2.008890045808352
0.009299999999999864,-2.4884771764625997
0.008299999999999974,-2.924208256821031
0.007299999999999862,-3.361354048479327
0.006299999999999972,-3.7532290785419424
0.00529999999999986,-4.102662769608606
0.0042999999999999705,-4.450681749375406
0.0032999999999998586,-4.668547289554621
0.0022999999999999687,-4.843971490737885
0.0012999999999998568,-5.0618370309171015
0.00029999999999996696,-5.235846520800501
-0.000700000000000145,-5.497568111275533
-0.0017000000000000348,-5.759289701750564
-0.0027000000000001467,-6.021011292225596
-0.0037000000000000366,-6.238876832404812
-0.0047000000000001485,-6.414301033588076
-0.005700000000000038,-6.54445447317566
-0.00670000000000015,-6.6760226240631075
-0.00770000000000004,-6.806176063650692
-0.008700000000000152,-6.981600264833956
-0.009700000000000042,-7.155609754717355
-0.010700000000000154,-7.37347529489657
-0.011700000000000044,-7.591340835075788
-0.012700000000000156,-7.722908985963235
-0.013700000000000045,-7.853062425550818
-0.014700000000000157,-7.940774526142452
-0.015700000000000047,-8.027071915434218
-0.01670000000000016,-8.202496116617484
-0.01770000000000005,-8.376505606500881
-0.01870000000000016,-8.55051509638428
-0.01970000000000005,-8.769795347863363
-0.020700000000000163,-8.943804837746763
-0.021700000000000053,-9.073958277334345
-0.022700000000000164,-9.161670377925978
-0.023700000000000054,-9.24938247851761
-0.024700000000000166,-9.379535918105192
-0.025700000000000056,-9.55496011928846
-0.026700000000000168,-9.728969609171857
-0.027700000000000058,-9.946835149351072
-0.02870000000000017,-10.120844639234473
-0.02970000000000006,-10.25241279012192
-0.03070000000000017,-10.382566229709504
-0.03170000000000006,-10.470278330301136
-0.03270000000000017,-10.601846481188586
-0.03370000000000006,-10.775855971071984
-0.034700000000000175,-10.906009410659568
-0.035700000000000065,-11.123874950838783
-0.03670000000000018,-11.343155202317865
-0.03770000000000007,-11.473308641905447
-0.03870000000000018,-11.604876792792895
-0.03970000000000007,-11.73503023238048
-0.04070000000000018,-11.86659838326793
-0.04170000000000007,-11.996751822855511
-0.04270000000000018,-12.214617363034726
-0.04370000000000007,-12.432482903213943
-0.044700000000000184,-12.651763154693022
-0.045700000000000074,-12.825772644576423
-0.046700000000000186,-12.99978213445982
-0.047700000000000076,-13.087494235051453
-0.04870000000000019,-13.175206335643086
-0.04970000000000008,-13.30535977523067
-0.05070000000000019,-13.47936926511407
-0.05170000000000008,-13.698649516593148
-0.05270000000000019,-13.916515056772363
-0.05370000000000008,-14.090524546655764
-0.05470000000000019,-14.26028990263957
-0.05570000000000008,-14.401761032626075
-0.056700000000000195,-14.486643710617974
-0.057700000000000085,-14.61396772760583
-0.058700000000000196,-14.741291744593681
-0.059700000000000086,-14.967645552572087
-0.0607000000000002,-15.222293586547794
-0.06170000000000009,-15.448647394526201
-0.0627000000000002,-15.618412750510005
-0.06370000000000009,-15.74573676749786
-0.0647000000000002,-15.87306078448571
-0.06570000000000009,-15.972090575476265
-0.0667000000000002,-16.099414592464115
-0.0677000000000001,-16.311621287443874
-0.0687000000000002,-16.53797509542228
-0.0697000000000001,-16.750181790402035
-0.07070000000000021,-16.877505807389888
-0.0717000000000001,-17.018976937376394
-0.07270000000000021,-17.103859615368293
-0.0737000000000001,-17.188742293360193
-0.07470000000000021,-17.2736249713521
-0.0757000000000001,-17.40094898833995
-0.07670000000000021,-17.627302796318357
-0.0777000000000001,-17.75462681330621
-0.07870000000000021,-17.966833508285966
-0.0797000000000001,-18.06586329927652
-0.08070000000000022,-18.19318731626437
-0.0817000000000001,-18.27806999425627
-0.08270000000000022,-18.362952672248177
-0.08370000000000011,-18.49027668923603
-0.08470000000000022,-18.631747819222536
-0.08570000000000011,-18.843954514202288
-0.08670000000000022,-19.01371987018609
-0.08770000000000011,-19.112749661176647
-0.08870000000000022,-19.155191000172596
-0.08970000000000011,-19.197632339168546
-0.09070000000000022,-19.197632339168546
-0.09170000000000011,-19.28251501716045
-0.09270000000000023,-19.409839034148305
-0.09370000000000012,-19.579604390132108
-0.09470000000000023,-19.763516859114564
-0.09570000000000012,-19.890840876102416
-0.09670000000000023,-19.93328221509837
-0.09770000000000012,-20.01816489309027
-0.09870000000000023,-20.01816489309027
-0.09970000000000012,-20.10304757108217
-0.10070000000000023,-20.244518701068674
-0.10170000000000012,-20.329401379060574
-0.10270000000000024,-20.499166735044383
-0.10370000000000013,-20.541608074040333
-0.10470000000000024,-20.584049413036283
-0.10570000000000013,-20.626490752032236
-0.10670000000000024,-20.584049413036283
-0.10770000000000013,-20.626490752032236
-0.10870000000000024,-20.683079204026836
-0.10970000000000013,-20.810403221014692
-0.11070000000000024,-20.89528589900659
-0.11170000000000013,-20.93772723800254
-0.11270000000000002,-21.022609915994444
-0.11370000000000013,-21.022609915994444
-0.11470000000000002,-21.022609915994444
-0.11570000000000014,-21.022609915994444
-0.11670000000000003,-21.022609915994444
-0.11770000000000014,-21.022609915994444
-0.11870000000000003,-21.107492593986347
-0.11970000000000014,-21.2065223849769
-0.12070000000000003,-21.2065223849769
-0.12170000000000014,-21.2065223849769
-0.12270000000000003,-21.149933932982297
-0.12370000000000014,-21.149933932982297
-0.12470000000000003,-21.107492593986347
-0.12570000000000014,-21.149933932982297
-0.12670000000000003,-21.248963723972853
-0.12770000000000015,-21.291405062968803
-0.12870000000000004,-21.333846401964752
-0.12970000000000015,-21.333846401964752
-0.13070000000000004,-21.291405062968803
-0.13170000000000015,-21.2065223849769
-0.13270000000000004,-21.107492593986347
-0.13370000000000015,-21.065051254990397
-0.13470000000000004,-21.065051254990397
-0.13570000000000015,-21.107492593986347
-0.13670000000000004,-21.107492593986347
-0.13770000000000016,-21.065051254990397
-0.13870000000000005,-20.980168576998494
-0.13970000000000016,-20.93772723800254
-0.14070000000000005,-20.85284456001064
-0.14170000000000016,-20.810403221014692
-0.14270000000000005,-20.85284456001064
-0.14370000000000016,-20.93772723800254
-0.14470000000000005,-20.980168576998494
-0.14570000000000016,-20.980168576998494
-0.14670000000000005,-20.89528589900659
-0.14770000000000016,-20.85284456001064
-0.14870000000000005,-20.683079204026836
-0.14970000000000017,-20.626490752032236
-0.15070000000000006,-20.584049413036283
-0.15170000000000017,-20.541608074040333
-0.15270000000000006,-20.541608074040333
-0.15370000000000017,-20.456725396048434
-0.15470000000000006,-20.371842718056527
-0.15570000000000017,-20.286960040064624
-0.15670000000000006,-20.159636023076775
-0.15770000000000017,-20.06060623208622
-0.15870000000000006,-19.97572355409432
-0.15970000000000018,-19.97572355409432
-0.16070000000000007,-20.01816489309027
-0.16170000000000018,-20.01816489309027
-0.16270000000000007,-19.97572355409432
-0.16370000000000018,-19.890840876102416
-0.16470000000000007,-19.763516859114564
-0.16570000000000018,-19.636192842126707
-0.16670000000000007,-19.537163051136158
-0.16770000000000018,-19.452280373144255
-0.16870000000000007,-19.409839034148305
-0.16970000000000018,-19.409839034148305
-0.17070000000000007,-19.3249563561564
-0.17170000000000019,-19.197632339168546
-0.17270000000000008,-19.056161209182044
-0.1737000000000002,-18.88639585319824
-0.17470000000000008,-18.843954514202288
-0.1757000000000002,-18.80151317520634
-0.17670000000000008,-18.80151317520634
-0.1777000000000002,-18.80151317520634
-0.17870000000000008,-18.759071836210385
-0.1797000000000002,-18.674189158218486
-0.18070000000000008,-18.589306480226583
-0.1817000000000002,-18.40539401124413
-0.18270000000000008,-18.27806999425627
-0.1837000000000002,-18.19318731626437
-0.1847000000000001,-18.10830463827247
-0.1857000000000002,-18.06586329927652
-0.1867000000000001,-18.009274847281915
-0.1877000000000002,-17.924392169290012
-0.1887000000000001,-17.797068152302163
-0.1897000000000002,-17.669744135314307
-0.1907000000000001,-17.542420118326454
-0.1917000000000001,-17.4433903273359
-0.19269999999999998,-17.40094898833995
-0.1937000000000001,-17.4433903273359
-0.19469999999999998,-17.4433903273359
-0.1957000000000001,-17.40094898833995
-0.19669999999999999,-17.358507649344002
-0.1977000000000001,-17.231183632356142
-0.1987,-17.103859615368293
-0.1997000000000001,-16.962388485381787
-0.2007,-16.919947146385837
-0.2017000000000001,-16.877505807389888
-0.2027,-16.835064468393938
-0.2037000000000001,-16.792623129397985
-0.2047,-16.70774045140608
-0.2057000000000001,-16.53797509542228
-0.2067,-16.396503965435777
-0.2077000000000001,-16.311621287443874
-0.2087,-16.269179948447924
-0.2097000000000001,-16.269179948447924
-0.2107,-16.269179948447924
-0.2117000000000001,-16.269179948447924
-0.2127,-16.184297270456018
-0.2137000000000001,-16.099414592464115
-0.2147,-16.014531914472215
-0.2157000000000001,-15.91550212348166
-0.2167,-15.830619445489761
-0.21770000000000012,-15.78817810649381
-0.2187,-15.74573676749786
-0.21970000000000012,-15.74573676749786
-0.2207,-15.660854089505953
-0.22170000000000012,-15.575971411514052
-0.2227,-15.448647394526201
-0.22370000000000012,-15.307176264539699
-0.2247,-15.222293586547794
-0.22570000000000012,-15.179852247551842
-0.2267,-15.179852247551842
-0.22770000000000012,-15.179852247551842
-0.22870000000000001,-15.179852247551842
-0.22970000000000013,-15.094969569559943
-0.23070000000000002,-15.01008689156804
-0.23170000000000013,-14.868615761581536
-0.23270000000000002,-14.783733083589633
-0.23370000000000013,-14.741291744593681
-0.23470000000000002,-14.69885040559773
-0.23570000000000013,-14.741291744593681
-0.23670000000000002,-14.69885040559773
-0.2376999999999999,-14.65640906660178
-0.23870000000000002,-14.57152638860988
-0.2396999999999999,-14.444202371622024
-0.24070000000000003,-14.345172580631472
-0.24169999999999991,-14.30273124163552
-0.24270000000000003,-14.26028990263957
-0.24369999999999992,-14.26028990263957
-0.24470000000000003,-14.30273124163552
-0.24569999999999992,-14.26028990263957
-0.24670000000000003,-14.217848563643619
-0.24769999999999992,-14.090524546655764
-0.24870000000000003,-13.960371107068182
-0.24969999999999992,-13.916515056772363
-0.25070000000000003,-13.872659006476551
-0.2516999999999999,-13.916515056772363
-0.25270000000000004,-13.916515056772363
-0.2536999999999999,-13.916515056772363
-0.25470000000000004,-13.828802956180734
-0.2556999999999999,-13.741090855589102
-0.25670000000000004,-13.654793466297335
-0.25769999999999993,-13.567081365705702
-0.25870000000000004,-13.523225315409885
-0.25969999999999993,-13.567081365705702
-0.26070000000000004,-13.523225315409885
-0.26169999999999993,-13.567081365705702
-0.26270000000000004,-13.523225315409885
-0.26369999999999993,-13.436927926118118
-0.26470000000000005,-13.3930718758223
-0.26569999999999994,-13.261503724934855
-0.26670000000000005,-13.261503724934855
-0.26769999999999994,-13.261503724934855
-0.26870000000000005,-13.30535977523067
-0.26969999999999994,-13.30535977523067
-0.27070000000000005,-13.30535977523067
-0.27169999999999994,-13.261503724934855
-0.27270000000000005,-13.13135028534727
-0.27369999999999994,-13.043638184755638
-0.27470000000000006,-12.99978213445982
-0.27569999999999995,-13.043638184755638
-0.27670000000000006,-13.043638184755638
-0.27769999999999995,-13.087494235051453
-0.27870000000000006,-13.087494235051453
-0.27969999999999995,-12.99978213445982
-0.28070000000000006,-12.955926084164007
-0.28169999999999995,-12.869628694872238
-0.28270000000000006,-12.825772644576423
-0.28369999999999995,-12.825772644576423
-0.28470000000000006,-12.825772644576423
-0.28569999999999995,-12.869628694872238
-0.28670000000000007,-12.869628694872238
-0.28769999999999996,-12.869628694872238
-0.28870000000000007,-12.825772644576423
-0.28969999999999996,-12.781916594280606
-0.29070000000000007,-12.694204493688973
-0.29169999999999996,-12.694204493688973
-0.29270000000000007,-12.694204493688973
-0.29369999999999996,-12.73806054398479
-0.2947000000000001,-12.825772644576423
-0.29569999999999996,-12.825772644576423
-0.2967000000000001,-12.781916594280606
-0.29769999999999996,-12.73806054398479
-0.2987000000000001,-12.651763154693022
-0.29969999999999997,-12.651763154693022
-0.3007000000000001,-12.694204493688973
-0.30169999999999997,-12.73806054398479
-0.3027000000000001,-12.825772644576423
-0.30369999999999997,-12.869628694872238
-0.3047000000000001,-12.869628694872238
-0.30569999999999997,-12.825772644576423
-0.3067000000000001,-12.781916594280606
-0.3077,-12.781916594280606
-0.3087000000000001,-12.781916594280606
-0.3097,-12.869628694872238
-0.3107000000000001,-12.955926084164007
-0.3117,-12.99978213445982
-0.3127000000000001,-13.043638184755638
-0.3137,-13.043638184755638
-0.3147000000000001,-12.99978213445982
-0.3157,-12.99978213445982
-0.3167000000000001,-13.043638184755638
-0.3177,-13.13135028534727
-0.3187000000000001,-13.217647674639037
-0.3197,-13.30535977523067
-0.3207000000000001,-13.3930718758223
-0.3217,-13.3930718758223
-0.3227000000000001,-13.3930718758223
-0.3237,-13.436927926118118
-0.3247000000000001,-13.436927926118118
-0.3257,-13.567081365705702
-0.3267000000000001,-13.698649516593148
-0.3277,-13.872659006476551
-0.3287000000000001,-13.960371107068182
-0.3297,-14.046668496359947
-0.3307000000000001,-14.090524546655764
-0.3317,-14.13438059695158
-0.3327000000000001,-14.175407224647667
-0.3337,-14.30273124163552
-0.3347000000000001,-14.486643710617974
-0.3357,-14.65640906660178
-0.3367000000000001,-14.783733083589633
-0.3377,-14.925204213576137
-0.3387000000000001,-15.05252823056399
-0.3397,-15.137410908555893
-0.3407000000000001,-15.264734925543747
-0.3417,-15.448647394526201
-0.3427000000000001,-15.660854089505953
-0.3437,-15.87306078448571
-0.3447000000000001,-16.184297270456018
-0.3457,-16.396503965435777
-0.3467000000000001,-16.580416434418233
-0.3477,-16.792623129397985
-0.3487000000000001,-16.962388485381787
-0.3497,-17.231183632356142
-0.3507000000000001,-17.542420118326454
-0.3517,-17.881950830294063
-0.3527000000000001,-18.23562865526032
-0.3537,-18.589306480226583
-0.3547000000000001,-18.88639585319824
-0.3557,-19.197632339168546
-0.35670000000000013,-19.49472171214021
-0.3577,-19.848399537106463
-0.35870000000000013,-20.286960040064624
-0.3597,-20.76796188201874
-0.36070000000000013,-21.333846401964752
-0.3617,-21.857289582914817
-0.3626999999999999,-22.38073276386488
-0.3637,-22.946617283810895
-0.3646999999999999,-23.51250180375691
-0.3657,-24.078386323702922
-0.3666999999999999,-24.729153521640843
-0.3677,-25.478950510569312
-0.3686999999999999,-26.21460038649913
-0.36970000000000003,-27.00683871442355
-0.3706999999999999,-27.742488590353368
-0.37170000000000003,-28.53472691827779
-0.3726999999999999,-29.27037679420761
-0.37370000000000003,-30.04846800913338
-0.3746999999999999,-30.925589015049702
-0.37570000000000003,-31.887592698957924
-0.3766999999999999,-32.892037721862096
-0.37770000000000004,-34.02380676175414
-0.3786999999999999,-35.11313446265021
-0.37970000000000004,-36.244903502542236
-0.3806999999999999,-37.376672542434264
-0.38170000000000004,-38.5650300343209
-0.38269999999999993,-39.78168175220483
-0.38370000000000004,-41.04077480908471
-0.38469999999999993,-42.4413389959511
-0.38570000000000004,-43.79946184382153
-0.38669999999999993,-44.181433894785094
-0.38570000000000004,-43.36090134086337
-0.38469999999999993,-42.79501682091736
-0.38370000000000004,-42.4413389959511
-0.38269999999999993,-42.087661170984845
-0.38170000000000004,-41.83301313700913
-0.3806999999999999,-41.66324778102533
-0.37970000000000004,-41.52177665103883
-0.3786999999999999,-41.39445263405098
-0.37770000000000004,-41.267128617063115
-0.3766999999999999,-41.083216148080666
-0.37570000000000003,-40.87100945310091
-0.3746999999999999,-40.51733162813464
-0.37370000000000003,-40.220242255162994
-0.3726999999999999,-39.90900576919269
-0.37170000000000003,-39.61191639622103
-0.3706999999999999,-39.34312124924667
-0.36970000000000003,-38.94700208528445
-0.3686999999999999,-38.46600024333035
-0.3677,-37.99914551437489
-0.3666999999999999,-37.47570233342482
-0.3657,-36.99470049147071
-0.3646999999999999,-36.5985813275085
-0.3637,-36.244903502542236
-0.3626999999999999,-35.94781412957058
-0.3617,-35.594136304604326
-0.36070000000000013,-35.198017140642115
-0.3597,-34.75945663768395
-0.35870000000000013,-34.33504324772444
-0.3577,-33.93892408376223
-0.35670000000000013,-33.50036358080407
-0.3557,-33.06180307784591
-0.3547000000000001,-32.62324257488775
-0.3537,-32.184682071929586
-0.3527000000000001,-31.717827342974125
-0.3517,-31.137795710029454
-0.3507000000000001,-30.614352529079397
-0.3497,-30.04846800913338
-0.3487000000000001,-29.525024828183312
-0.3477,-29.001581647233255
-0.3467000000000001,-28.577168257273744
-0.3457,-28.18104909331153
-0.3447000000000001,-27.742488590353368
-0.3437,-27.303928087395207
-0.3427000000000001,-26.738043567449193
-0.3417,-26.21460038649913
-0.3407000000000001,-25.691157205549064
-0.3397,-25.210155363594954
-0.3387000000000001,-24.771594860636792
-0.3377,-24.34718147067728
-0.3367000000000001,-23.86617962872317
-0.3357,-23.385177786769056
-0.3347000000000001,-22.819293266823045
-0.3337,-22.295850085872978
-0.3327000000000001,-21.772406904922917
-0.3317,-21.291405062968803
-0.3307000000000001,-20.89528589900659
-0.3297,-20.456725396048434
-0.3287000000000001,-20.01816489309027
-0.3277,-19.537163051136158
-0.3267000000000001,-19.056161209182044
-0.3257,-18.53271802823198
-0.3247000000000001,-18.06586329927652
-0.3237,-17.584861457322408
-0.3227000000000001,-17.146300954364243
-0.3217,-16.750181790402035
-0.3207000000000001,-16.354062626439823
-0.3197,-15.972090575476265
-0.3187000000000001,-15.533530072518102
-0.3177,-15.094969569559943
-0.3167000000000001,-14.61396772760583
-0.3157,-14.175407224647667
-0.3147000000000001,-13.784946905884919
-0.3137,-13.436927926118118
-0.3127000000000001,-13.087494235051453
-0.3117,-12.73806054398479
-0.3107000000000001,-12.302329463626359
-0.3097,-11.909039722263879
-0.3087000000000001,-11.42945259160963
-0.3077,-11.037577561547016
-0.3067000000000001,-10.601846481188586
-0.30569999999999997,-10.296268840417738
-0.3047000000000001,-9.99069119964689
-0.30369999999999997,-9.641257508580225
-0.3027000000000001,-9.293238528813426
-0.30169999999999997,-8.943804837746763
-0.3007000000000001,-8.55051509638428
-0.29969999999999997,-8.202496116617484
-0.2987000000000001,-7.853062425550818
-0.29769999999999996,-7.591340835075788
-0.2967000000000001,-7.28576319430494
-0.29569999999999996,-7.067897654125724
-0.2947000000000001,-6.762320013354876
-0.29369999999999996,-6.458157083883892
-0.29270000000000007,-6.108723392817228
-0.29169999999999996,-5.715433651454749
-0.29070000000000007,-5.411270721983764
-0.28969999999999996,-5.149549131508733
-0.28870000000000007,-4.9302688800296535
-0.28769999999999996,-4.712403339850438
-0.28670000000000007,-4.450681749375406
-0.28569999999999995,-4.1889601589003735
-0.28470000000000006,-3.927238568425342
-0.28369999999999995,-3.623075638954359
-0.28270000000000006,-3.317497998183511
-0.28169999999999995,-3.0996324580042955
-0.28070000000000006,-2.8803522065252145
-0.27969999999999995,-2.706342716641815
-0.27870000000000006,-2.532333226758415
-0.27769999999999995,-2.3144676865791998
-0.27670000000000006,-2.095187435100119
-0.27569999999999995,-1.7910245056291363
-0.27470000000000006,-1.5717442541500557
-0.27369999999999994,-1.3543031273607997
-0.27270000000000005,-1.1798692240874404
-0.27169999999999994,-1.0490084288499246
-0.27070000000000005,-0.8745745255765657
-0.26969999999999994,-0.7437137303390498
-0.26870000000000005,-0.5255652478998613
