Potential V vs RHE, Current mA cm-2
0.05339999999999995,-0.04304966485489307
0.05239999999999995,-0.044124845442790495
0.051399999999999946,-0.044733171301732454
0.050399999999999945,-0.045242467369683875
0.049399999999999944,-0.045709322098639336
0.04839999999999994,-0.04619032394059345
0.04739999999999994,-0.04662888444355161
0.04639999999999994,-0.04703915072051247
0.04539999999999994,-0.04749185833646928
0.04439999999999994,-0.04793041883942745
0.04339999999999994,-0.0483972735683829
0.04239999999999994,-0.04883583407134107
0.04139999999999994,-0.04921780612230463
0.040399999999999936,-0.04964221951226414
0.039399999999999935,-0.050094927128220945
0.038399999999999934,-0.05056178185717641
0.03739999999999993,-0.05098619524713593
0.03639999999999993,-0.05142475575009409
0.03539999999999993,-0.05182087491405629
0.03439999999999993,-0.05227358253001311
0.03339999999999993,-0.05274043725896857
0.03239999999999993,-0.05317899776192673
0.03139999999999993,-0.05360341115188624
0.030399999999999927,-0.05401367742884709
0.029399999999999926,-0.05449467927080121
0.028399999999999925,-0.054975681112755324
0.027399999999999924,-0.05540009450271484
0.026399999999999924,-0.055838655005673
0.025399999999999923,-0.05627721550863116
0.024399999999999922,-0.056729923124587966
0.02339999999999992,-0.05722507207954074
0.02239999999999992,-0.05767777969549755
0.02139999999999992,-0.05811634019845571
0.020399999999999918,-0.058554900701413864
0.019399999999999917,-0.05900760831737068
0.018399999999999916,-0.059502757272323445
0.017399999999999916,-0.059955464888280255
0.016399999999999915,-0.06039402539123842
0.015399999999999914,-0.060846733007195224
0.014399999999999913,-0.0613135877361507
0.013399999999999912,-0.06186532514309807
0.012399999999999911,-0.06234632698505217
0.01139999999999991,-0.06278488748801032
0.01039999999999991,-0.0632800364429631
0.009399999999999908,-0.0637610382849172
0.008399999999999908,-0.06429862857886592
0.007399999999999907,-0.06480792464681732
0.006399999999999906,-0.06526063226277413
0.005399999999999905,-0.06574163410472825
0.004399999999999904,-0.06625093017267966
0.003399999999999903,-0.06677437335362973
0.002399999999999902,-0.0672978165345798
0.0013999999999999013,-0.06776467126353526
0.00039999999999990044,-0.06825982021848803
-0.0006000000000001005,-0.06878326339943809
-0.0016000000000001013,-0.06930670658038814
-0.0026000000000001022,-0.06981600264833956
-0.003600000000000103,-0.07031115160329232
-0.004600000000000104,-0.07082044767124374
-0.005600000000000105,-0.0713438908521938
-0.006600000000000106,-0.07190977537213981
-0.007600000000000107,-0.07243321855308989
-0.008600000000000108,-0.07292836750804264
-0.009600000000000108,-0.07342351646299541
-0.01060000000000011,-0.07396110675694412
-0.01160000000000011,-0.07452699127689014
-0.012600000000000111,-0.07509287579683614
-0.013600000000000112,-0.07558802475178891
-0.014600000000000113,-0.07609732081974033
-0.015600000000000114,-0.0766207640006904
-0.016600000000000115,-0.0771866485206364
-0.017600000000000116,-0.07772423881458512
-0.018600000000000116,-0.07824768199553518
-0.019600000000000117,-0.0787852722894839
-0.020600000000000118,-0.07930871547043396
-0.02160000000000012,-0.07990289421637728
-0.02260000000000012,-0.08042633739732732
-0.02360000000000012,-0.08094978057827738
-0.024600000000000122,-0.0814873708722261
-0.025600000000000123,-0.08202496116617483
-0.026600000000000124,-0.08263328702511678
-0.027600000000000124,-0.0831708773190655
-0.028600000000000125,-0.08365187916101963
-0.029600000000000126,-0.08414702811597238
-0.030600000000000127,-0.08469876552291973
-0.03160000000000013,-0.08527879715586441
-0.03260000000000013,-0.08585882878880907
-0.03360000000000013,-0.08635397774376184
-0.03460000000000002,-0.08689156803771056
-0.03560000000000002,-0.08740086410566196
-0.03660000000000002,-0.08795260151260934
-0.03760000000000002,-0.0885043389195567
-0.03860000000000002,-0.08902778210050676
-0.039600000000000024,-0.08953707816845817
-0.040600000000000025,-0.09008881557540553
-0.041600000000000026,-0.09066884720835021
-0.04260000000000003,-0.09122058461529756
-0.04360000000000003,-0.09172988068324898
-0.04460000000000003,-0.0922674709771977
-0.04560000000000003,-0.0928050612711464
-0.04660000000000003,-0.09338509290409107
-0.04760000000000003,-0.0939226831980398
-0.04860000000000003,-0.09443197926599119
-0.04960000000000003,-0.09494127533394262
-0.050600000000000034,-0.09546471851489266
-0.051600000000000035,-0.096058897260836
-0.052600000000000036,-0.09658234044178605
-0.053600000000000037,-0.09707748939673881
-0.05460000000000004,-0.09757263835169158
-0.05560000000000004,-0.098081934419643
-0.05660000000000004,-0.09866196605258765
-0.05760000000000004,-0.09917126212053906
-0.05860000000000004,-0.09965226396249319
-0.05960000000000004,-0.10014741291744596
-0.06060000000000004,-0.10065670898539736
-0.061600000000000044,-0.10120844639234472
-0.06260000000000004,-0.10173188957329479
-0.06360000000000005,-0.10219874430225025
-0.06460000000000005,-0.10266559903120571
-0.06560000000000005,-0.10313245376016117
-0.06660000000000005,-0.10367004405410989
-0.06760000000000005,-0.10416519300906264
-0.06860000000000005,-0.10460375351202081
-0.06960000000000005,-0.10505646112797762
-0.07060000000000005,-0.10553746296993173
-0.07160000000000005,-0.10604675903788315
-0.07260000000000005,-0.10652776087983726
-0.07360000000000005,-0.10696632138279542
-0.07460000000000006,-0.10740488188575359
-0.07560000000000006,-0.1078858837277077
-0.07660000000000006,-0.1083668855696618
-0.07760000000000006,-0.10884788741161593
-0.07860000000000006,-0.10924400657557813
-0.07960000000000006,-0.10966841996553764
-0.08060000000000006,-0.1101069804684958
-0.08160000000000006,-0.11057383519745125
-0.08260000000000006,-0.11102654281340808
-0.08360000000000006,-0.11142266197737029
-0.08460000000000006,-0.1118187811413325
-0.08560000000000006,-0.1122149003052947
-0.08660000000000007,-0.11266760792125154
-0.08760000000000007,-0.11307787419821237
-0.08860000000000007,-0.1134456991361773
-0.08960000000000007,-0.1138135240741422
-0.09060000000000007,-0.11420964323810441
-0.09160000000000007,-0.11463405662806392
-0.09260000000000007,-0.11501602867902748
-0.09360000000000007,-0.1153555593909951
-0.09460000000000007,-0.11570923721596137
-0.09560000000000007,-0.11610535637992356
-0.09660000000000007,-0.11651562265688443
-0.09760000000000008,-0.11688344759484932
-0.09860000000000008,-0.11720883119381828
-0.09960000000000008,-0.11753421479278725
-0.10060000000000008,-0.11785959839175622
-0.10160000000000008,-0.11822742332972111
-0.10260000000000008,-0.11856695404168872
-0.10360000000000008,-0.11883574918866308
-0.10460000000000008,-0.11913283856163473
-0.10560000000000008,-0.11942992793460638
-0.10660000000000008,-0.11976945864657401
-0.10760000000000008,-0.12010898935854163
-0.10860000000000009,-0.12036363739251733
-0.10960000000000009,-0.12063243253949167
-0.11060000000000009,-0.12091537479946468
-0.11160000000000009,-0.121226611285435
-0.11260000000000009,-0.12149540643240934
-0.11360000000000009,-0.12172176024038774
-0.11460000000000009,-0.12197640827436346
-0.11560000000000009,-0.1222169091953405
-0.11660000000000009,-0.12247155722931624
-0.1176000000000001,-0.12272620526329193
-0.1186000000000001,-0.12295255907127035
-0.1196000000000001,-0.12317891287924874
-0.1206000000000001,-0.12340526668722714
-0.1216000000000001,-0.12365991472120287
-0.1226000000000001,-0.12391456275517856
-0.1236000000000001,-0.12411262233715968
-0.1246000000000001,-0.1243106819191408
-0.1256000000000001,-0.12452288861412053
-0.1266000000000001,-0.12474924242209892
-0.1276000000000001,-0.1249614491170787
-0.1286000000000001,-0.12514536158606115
-0.1296000000000001,-0.12528683271604765
-0.1306000000000001,-0.12545659807203147
-0.1316000000000001,-0.1256688047670112
-0.1326000000000001,-0.1258668643489923
-0.1336000000000001,-0.12602248259197746
-0.1346000000000001,-0.12614980660896533
-0.1356000000000001,-0.12630542485195048
-0.1366000000000001,-0.12648933732093293
-0.1376000000000001,-0.12668739690291403
-0.1386000000000001,-0.12681472091990187
-0.1396000000000001,-0.12694204493688974
-0.1406000000000001,-0.1270976631798749
-0.14160000000000011,-0.1272674285358587
-0.14260000000000012,-0.12743719389184252
-0.14360000000000012,-0.1275503707958317
-0.14460000000000012,-0.1276635476998209
-0.14560000000000012,-0.1277625774908115
-0.14660000000000012,-0.12793234284679525
-0.14760000000000012,-0.12810210820277906
-0.14860000000000012,-0.12817284376777233
-0.14960000000000012,-0.1283001677847602
-0.15060000000000012,-0.12838505046275206
-0.15160000000000012,-0.12854066870573724
-0.15260000000000012,-0.1287245811747197
-0.15360000000000013,-0.12882361096571027
-0.15460000000000013,-0.1288943465307035
-0.15560000000000013,-0.12895093498269808
-0.15660000000000013,-0.12910655322568326
-0.15760000000000013,-0.1292338772426711
-0.15860000000000013,-0.1292904656946657
-0.15960000000000002,-0.1293470541466603
-0.16060000000000002,-0.12944608393765086
-0.16160000000000002,-0.12955926084164004
-0.16260000000000002,-0.12965829063263062
-0.16360000000000002,-0.12972902619762386
-0.16460000000000002,-0.12979976176261712
-0.16560000000000002,-0.1299129386666063
-0.16660000000000003,-0.13008270402259012
-0.16760000000000003,-0.13016758670058204
-0.16860000000000003,-0.13022417515257662
-0.16960000000000003,-0.13028076360457122
-0.17060000000000003,-0.13033735205656583
-0.17160000000000003,-0.13045052896055503
-0.17260000000000003,-0.13054955875154559
-0.17360000000000003,-0.1306061472035402
-0.17460000000000003,-0.1306627356555348
-0.17560000000000003,-0.1307193241075294
-0.17660000000000003,-0.13083250101151858
-0.17760000000000004,-0.13091738368951047
-0.17860000000000004,-0.1309739721415051
-0.17960000000000004,-0.13104470770649834
-0.18060000000000004,-0.13108714904549432
-0.18160000000000004,-0.1311720317234862
-0.18260000000000004,-0.13127106151447676
-0.18360000000000004,-0.13132764996647137
-0.18460000000000004,-0.13138423841846594
-0.18560000000000004,-0.13142667975746194
-0.18660000000000004,-0.13152570954845244
-0.18760000000000004,-0.13163888645244168
-0.18860000000000005,-0.1316813277914376
-0.18960000000000005,-0.13172376913043357
-0.19060000000000005,-0.13178035758242818
-0.19160000000000005,-0.13187938737341873
-0.19260000000000005,-0.13196427005141062
-0.19360000000000005,-0.13200671139040657
-0.19460000000000005,-0.1320491527294025
-0.19560000000000005,-0.1320915940683985
-0.19660000000000005,-0.13217647674639038
-0.19760000000000005,-0.13227550653738093
-0.19860000000000005,-0.13231794787637688
-0.19960000000000006,-0.13236038921537283
-0.20060000000000006,-0.13241697766736746
-0.20160000000000006,-0.1324877132323607
-0.20260000000000006,-0.13258674302335122
-0.20360000000000006,-0.1326291843623472
-0.20460000000000006,-0.13265747858834448
-0.20560000000000006,-0.13269991992734045
-0.20660000000000006,-0.132798949718331
-0.20760000000000006,-0.13286968528332424
-0.20860000000000006,-0.1329404208483175
-0.20960000000000006,-0.1329970093003121
-0.21060000000000006,-0.13306774486530534
-0.21160000000000007,-0.1331384804302986
-0.21260000000000007,-0.1332233631082905
-0.21360000000000007,-0.1332799515602851
-0.21460000000000007,-0.13329409867328376
-0.21560000000000007,-0.13335068712527834
-0.21660000000000007,-0.13346386402926755
-0.21760000000000007,-0.13357704093325676
-0.21860000000000007,-0.1335911880462554
-0.21960000000000007,-0.13361948227225273
-0.22060000000000007,-0.13369021783724597
-0.22160000000000007,-0.13378924762823652
-0.22260000000000008,-0.13385998319322978
-0.22360000000000008,-0.13390242453222573
-0.22460000000000008,-0.1339590129842203
-0.22560000000000008,-0.13401560143621494
-0.22660000000000008,-0.1341146312272055
-0.22760000000000008,-0.13419951390519738
-0.22860000000000008,-0.13425610235719201
-0.22960000000000008,-0.13431269080918656
-0.23060000000000008,-0.13435513214818254
-0.23160000000000008,-0.1344541619391731
-0.23260000000000008,-0.13458148595616093
-0.23360000000000009,-0.13460978018215825
-0.2346000000000001,-0.13466636863415282
-0.2356000000000001,-0.1347088099731488
-0.2366000000000001,-0.134821986877138
-0.2376000000000001,-0.13493516378112722
-0.2386000000000001,-0.13497760512012316
-0.2396000000000001,-0.13503419357211774
-0.2406000000000001,-0.135104929137111
-0.2416000000000001,-0.13520395892810155
-0.2426000000000001,-0.1353029887190921
-0.2436000000000001,-0.13538787139708403
-0.2446000000000001,-0.1354444598490786
-0.2456000000000001,-0.1355010483010732
-0.2466000000000001,-0.13560007809206379
-0.2476000000000001,-0.13574154922205028
-0.2486000000000001,-0.13578399056104623
-0.2496000000000001,-0.13585472612603947
-0.2506000000000001,-0.13591131457803407
-0.2516000000000001,-0.13603863859502194
-0.2526000000000001,-0.13612352127301383
-0.2536000000000001,-0.13619425683800707
-0.2546000000000001,-0.13625084529000167
-0.2556000000000001,-0.13633572796799356
-0.2566000000000001,-0.1364489048719828
-0.2576000000000001,-0.13654793466297335
-0.2586000000000001,-0.1366186702279666
-0.2596000000000001,-0.13666111156696256
-0.2606000000000001,-0.1367318471319558
-0.2616000000000001,-0.1369016124879396
-0.2626000000000001,-0.13707137784392343
-0.2636000000000001,-0.13714211340891666
-0.2646000000000001,-0.13722699608690858
-0.2656000000000001,-0.13734017299089774
-0.2666000000000001,-0.1374674970078856
-0.2676000000000001,-0.1375806739118748
-0.2686000000000001,-0.13762311525087076
-0.2696000000000001,-0.13770799792886268
-0.2706000000000001,-0.13777873349385591
-0.2716000000000001,-0.1379626459628384
-0.2726000000000001,-0.13808996997982623
-0.2736000000000001,-0.13817485265781812
-0.2746000000000001,-0.138302176674806
-0.2756000000000001,-0.13842950069179386
-0.2766000000000001,-0.1385568247087817
-0.2776000000000001,-0.13868414872576956
-0.2786000000000001,-0.13874073717776414
-0.2796000000000001,-0.13879732562975874
-0.2806000000000001,-0.13891050253374798
-0.28160000000000013,-0.1390378265507358
-0.28260000000000013,-0.13913685634172637
-0.28360000000000013,-0.13925003324571555
-0.2846,-0.13930662169771016
-0.2856,-0.13939150437570205
-0.2866,-0.13951882839268992
-0.2876,-0.13961785818368047
-0.2886,-0.13970274086167236
-0.2896,-0.13978762353966429
-0.2906,-0.13985835910465752
-0.2916,-0.14002812446064133
-0.2926,-0.14015544847762917
-0.2936,-0.1402686253816184
-0.29460000000000003,-0.14033936094661165
-0.29560000000000003,-0.14042424362460354
-0.29660000000000003,-0.14056571475459004
-0.29760000000000003,-0.14070718588457654
-0.29860000000000003,-0.1408062156755671
-0.29960000000000003,-0.14089109835355904
-0.30060000000000003,-0.14099012814454956
-0.30160000000000003,-0.14115989350053335
-0.30260000000000004,-0.14130136463051984
-0.30360000000000004,-0.14141454153450908
-0.30460000000000004,-0.14161260111649018
-0.30560000000000004,-0.14175407224647668
-0.30660000000000004,-0.14189554337646318
-0.30760000000000004,-0.1420370145064497
-0.30860000000000004,-0.1421784856364362
-0.30960000000000004,-0.1423199567664227
-0.31060000000000004,-0.1423199567664227
-0.31160000000000004,-0.1424614278964092
-0.31260000000000004,-0.1426028990263957
-0.31360000000000005,-0.1427443701563822
-0.31460000000000005,-0.1428858412863687
-0.31560000000000005,-0.14302731241635522
-0.31660000000000005,-0.14316878354634172
-0.31760000000000005,-0.1433102546763282
-0.31860000000000005,-0.1434517258063147
-0.31960000000000005,-0.1435931969363012
-0.32060000000000005,-0.1435931969363012
-0.32160000000000005,-0.14387613919627423
-0.32260000000000005,-0.14401761032626076
-0.32360000000000005,-0.14401761032626076
-0.32460000000000006,-0.14415908145624726
-0.32560000000000006,-0.14430055258623375
-0.32660000000000006,-0.14444202371622025
-0.32760000000000006,-0.14472496597619325
-0.32860000000000006,-0.14486643710617977
-0.32960000000000006,-0.14486643710617977
-0.33060000000000006,-0.14500790823616627
-0.33160000000000006,-0.14529085049613927
-0.33260000000000006,-0.14543232162612577
-0.33360000000000006,-0.14557379275611226
-0.33460000000000006,-0.14571526388609876
-0.33560000000000006,-0.1458567350160853
-0.33660000000000007,-0.14599820614607179
-0.33760000000000007,-0.14613967727605828
-0.33860000000000007,-0.14628114840604478
-0.33960000000000007,-0.14642261953603128
-0.34060000000000007,-0.1465640906660178
-0.34160000000000007,-0.14684703292599083
-0.34260000000000007,-0.14712997518596382
-0.34360000000000007,-0.14727144631595032
-0.3446000000000001,-0.14741291744593682
-0.3456000000000001,-0.14755438857592332
-0.3466000000000001,-0.14769585970590982
-0.34759999999999996,-0.14783733083589634
-0.3486000000000001,-0.14797880196588284
-0.34959999999999997,-0.14826174422585583
-0.3506000000000001,-0.14840321535584233
-0.35159999999999997,-0.14854468648582883
-0.3526000000000001,-0.14868615761581536
-0.35359999999999997,-0.14882762874580185
-0.3546000000000001,-0.14896909987578838
-0.35559999999999997,-0.14911057100577488
-0.3566000000000001,-0.14939351326574787
-0.3576,-0.14953498439573437
-0.3586000000000001,-0.1496764555257209
-0.3596,-0.1498179266557074
-0.3606000000000001,-0.1501008689156804
-0.3616,-0.1502423400456669
-0.3626000000000001,-0.1503838111756534
-0.3636,-0.15052528230563988
-0.3646000000000001,-0.1508082245656129
-0.3656,-0.1509496956955994
-0.3666000000000001,-0.1510911668255859
-0.3676,-0.1513741090855589
-0.3686000000000001,-0.15151558021554543
-0.3696,-0.15165705134553195
-0.3706000000000001,-0.15193999360550495
-0.3716,-0.15208146473549145
-0.3726000000000001,-0.15236440699546444
-0.3736,-0.15250587812545094
-0.3746000000000001,-0.15264734925543746
-0.3756,-0.15278882038542396
-0.3766000000000001,-0.15307176264539696
-0.3776,-0.15335470490536995
-0.3786000000000001,-0.15349617603535648
-0.3796,-0.15363764716534298
-0.3806000000000001,-0.15377911829532948
-0.3816,-0.1540620605553025
-0.3826000000000001,-0.1543450028152755
-0.3836,-0.15448647394526202
-0.3846000000000001,-0.15462794507524852
-0.3856,-0.15491088733522151
-0.3866000000000001,-0.155052358465208
-0.3876,-0.155335300725181
-0.3886000000000001,-0.15561824298515403
-0.3896,-0.15575971411514053
-0.3906000000000001,-0.15590118524512703
-0.3916,-0.15618412750510002
-0.3926000000000001,-0.15646706976507307
-0.3936,-0.15660854089505957
-0.3946000000000001,-0.15689148315503257
-0.3956,-0.15717442541500556
-0.3966000000000001,-0.1574573676749786
-0.3976,-0.15774030993495158
-0.3986000000000001,-0.15788178106493808
-0.3996,-0.15816472332491108
-0.4006000000000001,-0.1583061944548976
-0.4016,-0.1585891367148706
-0.4026000000000001,-0.1588720789748436
-0.4036,-0.15915502123481662
-0.4046000000000001,-0.15929649236480314
-0.4056,-0.15957943462477614
-0.40660000000000013,-0.15986237688474914
-0.4076,-0.16014531914472213
-0.40860000000000013,-0.16042826140469515
-0.4096,-0.16071120366466815
-0.41060000000000013,-0.16085267479465465
-0.4116,-0.16113561705462764
-0.41260000000000013,-0.1615600304445872
-0.4136,-0.1617015015745737
-0.41460000000000014,-0.1619844438345467
-0.4156,-0.1622673860945197
-0.41660000000000014,-0.1625503283544927
-0.4176,-0.1628332706144657
-0.41860000000000014,-0.16311621287443873
-0.41960000000000003,-0.16339915513441172
-0.42060000000000014,-0.16368209739438472
-0.42160000000000003,-0.16396503965435774
-0.42260000000000014,-0.16438945304431726
-0.42360000000000003,-0.16467239530429026
-0.42460000000000014,-0.16495533756426325
-0.42560000000000003,-0.16523827982423628
-0.42660000000000015,-0.1655212220842093
-0.42760000000000004,-0.1659456354741688
-0.42860000000000015,-0.16622857773414182
-0.42960000000000004,-0.16651151999411481
-0.43060000000000015,-0.1669359333840743
-0.43160000000000004,-0.16721887564404736
-0.43260000000000015,-0.16764328903400685
-0.43360000000000004,-0.16792623129397988
-0.43460000000000015,-0.16820917355395287
-0.43560000000000004,-0.16849211581392587
-0.43660000000000015,-0.1689165292038854
-0.43760000000000004,-0.16919947146385841
