Apr. 24, 2025   23:33:00
Cyclic Voltammetry
File: c:/users/guazh/data/banditlqround7_x0exp590_r20/2025-04-16-exp1180\exp1180-2025-04-24t23_16_46-h2koh\exp1180_cv_50mvs_efin_-1700mv.bin
Data Source:  Experiment
Instrument Model:  CHI760E
Header: CV ran at 50 mVs
Note: 

Init E (V) = -1
High E (V) = -1
Low E (V) = -1.7
Final E (V) = -1
Init P/N = N
Scan Rate (V/s) = 0.05
Segment = 7
Sample Interval (V) = 0.001
Quiet Time (sec) = 60
Sensitivity (A/V) = 0.001
Comp R (ohm) = 1.5

Results:

Channel 1:
Segment 1:
Ep = -1.212V
ip = 2.285e-5A
Ah = 2.514e-5C

Segment 2:

Segment 3:

Segment 4:

Segment 5:

Segment 6:

Segment 7:

Potential/V, Current/A

-1.000, 6.871e-6
-1.001, 9.534e-6
-1.002, 1.040e-5
-1.003, 1.050e-5
-1.004, 1.054e-5
-1.005, 1.062e-5
-1.006, 1.107e-5
-1.007, 1.153e-5
-1.008, 1.143e-5
-1.009, 1.127e-5
-1.010, 1.143e-5
-1.011, 1.170e-5
-1.012, 1.204e-5
-1.013, 1.204e-5
-1.014, 1.180e-5
-1.015, 1.191e-5
-1.016, 1.218e-5
-1.017, 1.243e-5
-1.018, 1.250e-5
-1.019, 1.225e-5
-1.020, 1.227e-5
-1.021, 1.257e-5
-1.022, 1.282e-5
-1.023, 1.287e-5
-1.024, 1.266e-5
-1.025, 1.266e-5
-1.026, 1.295e-5
-1.027, 1.319e-5
-1.028, 1.319e-5
-1.029, 1.293e-5
-1.030, 1.294e-5
-1.031, 1.328e-5
-1.032, 1.352e-5
-1.033, 1.347e-5
-1.034, 1.330e-5
-1.035, 1.324e-5
-1.036, 1.360e-5
-1.037, 1.385e-5
-1.038, 1.382e-5
-1.039, 1.363e-5
-1.040, 1.356e-5
-1.041, 1.385e-5
-1.042, 1.423e-5
-1.043, 1.407e-5
-1.044, 1.393e-5
-1.045, 1.397e-5
-1.046, 1.421e-5
-1.047, 1.455e-5
-1.048, 1.445e-5
-1.049, 1.421e-5
-1.050, 1.435e-5
-1.051, 1.453e-5
-1.052, 1.485e-5
-1.053, 1.481e-5
-1.054, 1.455e-5
-1.055, 1.465e-5
-1.056, 1.487e-5
-1.057, 1.522e-5
-1.058, 1.522e-5
-1.059, 1.493e-5
-1.060, 1.502e-5
-1.061, 1.529e-5
-1.062, 1.559e-5
-1.063, 1.562e-5
-1.064, 1.535e-5
-1.065, 1.541e-5
-1.066, 1.575e-5
-1.067, 1.599e-5
-1.068, 1.601e-5
-1.069, 1.580e-5
-1.070, 1.588e-5
-1.071, 1.619e-5
-1.072, 1.640e-5
-1.073, 1.644e-5
-1.074, 1.632e-5
-1.075, 1.642e-5
-1.076, 1.666e-5
-1.077, 1.695e-5
-1.078, 1.693e-5
-1.079, 1.681e-5
-1.080, 1.684e-5
-1.081, 1.714e-5
-1.082, 1.747e-5
-1.083, 1.742e-5
-1.084, 1.731e-5
-1.085, 1.737e-5
-1.086, 1.769e-5
-1.087, 1.800e-5
-1.088, 1.799e-5
-1.089, 1.785e-5
-1.090, 1.798e-5
-1.091, 1.823e-5
-1.092, 1.858e-5
-1.093, 1.860e-5
-1.094, 1.840e-5
-1.095, 1.857e-5
-1.096, 1.885e-5
-1.097, 1.916e-5
-1.098, 1.921e-5
-1.099, 1.906e-5
-1.100, 1.916e-5
-1.101, 1.948e-5
-1.102, 1.980e-5
-1.103, 1.990e-5
-1.104, 1.964e-5
-1.105, 1.982e-5
-1.106, 2.018e-5
-1.107, 2.045e-5
-1.108, 2.052e-5
-1.109, 2.042e-5
-1.110, 2.049e-5
-1.111, 2.094e-5
-1.112, 2.117e-5
-1.113, 2.120e-5
-1.114, 2.115e-5
-1.115, 2.126e-5
-1.116, 2.161e-5
-1.117, 2.197e-5
-1.118, 2.200e-5
-1.119, 2.198e-5
-1.120, 2.207e-5
-1.121, 2.241e-5
-1.122, 2.277e-5
-1.123, 2.285e-5
-1.124, 2.282e-5
-1.125, 2.290e-5
-1.126, 2.328e-5
-1.127, 2.370e-5
-1.128, 2.372e-5
-1.129, 2.362e-5
-1.130, 2.390e-5
-1.131, 2.424e-5
-1.132, 2.458e-5
-1.133, 2.472e-5
-1.134, 2.463e-5
-1.135, 2.489e-5
-1.136, 2.521e-5
-1.137, 2.563e-5
-1.138, 2.575e-5
-1.139, 2.573e-5
-1.140, 2.596e-5
-1.141, 2.638e-5
-1.142, 2.672e-5
-1.143, 2.695e-5
-1.144, 2.688e-5
-1.145, 2.713e-5
-1.146, 2.765e-5
-1.147, 2.799e-5
-1.148, 2.820e-5
-1.149, 2.821e-5
-1.150, 2.845e-5
-1.151, 2.892e-5
-1.152, 2.937e-5
-1.153, 2.957e-5
-1.154, 2.968e-5
-1.155, 2.988e-5
-1.156, 3.045e-5
-1.157, 3.092e-5
-1.158, 3.114e-5
-1.159, 3.131e-5
-1.160, 3.145e-5
-1.161, 3.204e-5
-1.162, 3.263e-5
-1.163, 3.289e-5
-1.164, 3.304e-5
-1.165, 3.335e-5
-1.166, 3.388e-5
-1.167, 3.450e-5
-1.168, 3.473e-5
-1.169, 3.489e-5
-1.170, 3.527e-5
-1.171, 3.581e-5
-1.172, 3.648e-5
-1.173, 3.678e-5
-1.174, 3.692e-5
-1.175, 3.734e-5
-1.176, 3.790e-5
-1.177, 3.856e-5
-1.178, 3.890e-5
-1.179, 3.904e-5
-1.180, 3.944e-5
-1.181, 4.004e-5
-1.182, 4.067e-5
-1.183, 4.103e-5
-1.184, 4.109e-5
-1.185, 4.152e-5
-1.186, 4.208e-5
-1.187, 4.263e-5
-1.188, 4.295e-5
-1.189, 4.303e-5
-1.190, 4.337e-5
-1.191, 4.392e-5
-1.192, 4.437e-5
-1.193, 4.462e-5
-1.194, 4.471e-5
-1.195, 4.488e-5
-1.196, 4.540e-5
-1.197, 4.585e-5
-1.198, 4.597e-5
-1.199, 4.606e-5
-1.200, 4.613e-5
-1.201, 4.652e-5
-1.202, 4.699e-5
-1.203, 4.696e-5
-1.204, 4.690e-5
-1.205, 4.698e-5
-1.206, 4.721e-5
-1.207, 4.760e-5
-1.208, 4.750e-5
-1.209, 4.736e-5
-1.210, 4.741e-5
-1.211, 4.755e-5
-1.212, 4.788e-5
-1.213, 4.777e-5
-1.214, 4.749e-5
-1.215, 4.748e-5
-1.216, 4.757e-5
-1.217, 4.776e-5
-1.218, 4.767e-5
-1.219, 4.724e-5
-1.220, 4.714e-5
-1.221, 4.721e-5
-1.222, 4.722e-5
-1.223, 4.708e-5
-1.224, 4.664e-5
-1.225, 4.639e-5
-1.226, 4.648e-5
-1.227, 4.651e-5
-1.228, 4.632e-5
-1.229, 4.589e-5
-1.230, 4.553e-5
-1.231, 4.557e-5
-1.232, 4.547e-5
-1.233, 4.508e-5
-1.234, 4.463e-5
-1.235, 4.431e-5
-1.236, 4.426e-5
-1.237, 4.422e-5
-1.238, 4.382e-5
-1.239, 4.338e-5
-1.240, 4.300e-5
-1.241, 4.296e-5
-1.242, 4.288e-5
-1.243, 4.259e-5
-1.244, 4.202e-5
-1.245, 4.166e-5
-1.246, 4.162e-5
-1.247, 4.159e-5
-1.248, 4.121e-5
-1.249, 4.071e-5
-1.250, 4.053e-5
-1.251, 4.040e-5
-1.252, 4.047e-5
-1.253, 4.017e-5
-1.254, 3.972e-5
-1.255, 3.954e-5
-1.256, 3.951e-5
-1.257, 3.953e-5
-1.258, 3.932e-5
-1.259, 3.883e-5
-1.260, 3.870e-5
-1.261, 3.875e-5
-1.262, 3.879e-5
-1.263, 3.869e-5
-1.264, 3.825e-5
-1.265, 3.813e-5
-1.266, 3.829e-5
-1.267, 3.834e-5
-1.268, 3.824e-5
-1.269, 3.791e-5
-1.270, 3.778e-5
-1.271, 3.801e-5
-1.272, 3.811e-5
-1.273, 3.796e-5
-1.274, 3.780e-5
-1.275, 3.766e-5
-1.276, 3.792e-5
-1.277, 3.806e-5
-1.278, 3.800e-5
-1.279, 3.778e-5
-1.280, 3.784e-5
-1.281, 3.797e-5
-1.282, 3.820e-5
-1.283, 3.815e-5
-1.284, 3.793e-5
-1.285, 3.789e-5
-1.286, 3.817e-5
-1.287, 3.857e-5
-1.288, 3.846e-5
-1.289, 3.828e-5
-1.290, 3.834e-5
-1.291, 3.852e-5
-1.292, 3.884e-5
-1.293, 3.879e-5
-1.294, 3.861e-5
-1.295, 3.863e-5
-1.296, 3.886e-5
-1.297, 3.922e-5
-1.298, 3.938e-5
-1.299, 3.912e-5
-1.300, 3.915e-5
-1.301, 3.937e-5
-1.302, 3.965e-5
-1.303, 3.971e-5
-1.304, 3.950e-5
-1.305, 3.951e-5
-1.306, 3.988e-5
-1.307, 4.013e-5
-1.308, 4.025e-5
-1.309, 4.007e-5
-1.310, 4.016e-5
-1.311, 4.053e-5
-1.312, 4.076e-5
-1.313, 4.080e-5
-1.314, 4.076e-5
-1.315, 4.077e-5
-1.316, 4.121e-5
-1.317, 4.147e-5
-1.318, 4.156e-5
-1.319, 4.151e-5
-1.320, 4.158e-5
-1.321, 4.195e-5
-1.322, 4.234e-5
-1.323, 4.238e-5
-1.324, 4.230e-5
-1.325, 4.242e-5
-1.326, 4.271e-5
-1.327, 4.318e-5
-1.328, 4.315e-5
-1.329, 4.313e-5
-1.330, 4.333e-5
-1.331, 4.363e-5
-1.332, 4.415e-5
-1.333, 4.418e-5
-1.334, 4.405e-5
-1.335, 4.425e-5
-1.336, 4.456e-5
-1.337, 4.491e-5
-1.338, 4.510e-5
-1.339, 4.493e-5
-1.340, 4.515e-5
-1.341, 4.549e-5
-1.342, 4.587e-5
-1.343, 4.603e-5
-1.344, 4.596e-5
-1.345, 4.604e-5
-1.346, 4.648e-5
-1.347, 4.684e-5
-1.348, 4.697e-5
-1.349, 4.689e-5
-1.350, 4.698e-5
-1.351, 4.747e-5
-1.352, 4.781e-5
-1.353, 4.792e-5
-1.354, 4.791e-5
-1.355, 4.808e-5
-1.356, 4.848e-5
-1.357, 4.886e-5
-1.358, 4.900e-5
-1.359, 4.900e-5
-1.360, 4.906e-5
-1.361, 4.956e-5
-1.362, 5.005e-5
-1.363, 5.012e-5
-1.364, 5.018e-5
-1.365, 5.035e-5
-1.366, 5.077e-5
-1.367, 5.139e-5
-1.368, 5.145e-5
-1.369, 5.149e-5
-1.370, 5.179e-5
-1.371, 5.225e-5
-1.372, 5.281e-5
-1.373, 5.303e-5
-1.374, 5.346e-5
-1.375, 5.375e-5
-1.376, 5.414e-5
-1.377, 5.472e-5
-1.378, 5.508e-5
-1.379, 5.517e-5
-1.380, 5.559e-5
-1.381, 5.627e-5
-1.382, 5.705e-5
-1.383, 5.745e-5
-1.384, 5.765e-5
-1.385, 5.824e-5
-1.386, 5.904e-5
-1.387, 5.979e-5
-1.388, 6.032e-5
-1.389, 6.069e-5
-1.390, 6.132e-5
-1.391, 6.224e-5
-1.392, 6.315e-5
-1.393, 6.386e-5
-1.394, 6.447e-5
-1.395, 6.526e-5
-1.396, 6.641e-5
-1.397, 6.749e-5
-1.398, 6.832e-5
-1.399, 6.911e-5
-1.400, 7.006e-5
-1.401, 7.139e-5
-1.402, 7.270e-5
-1.403, 7.371e-5
-1.404, 7.475e-5
-1.405, 7.600e-5
-1.406, 7.749e-5
-1.407, 7.913e-5
-1.408, 8.038e-5
-1.409, 8.152e-5
-1.410, 8.308e-5
-1.411, 8.489e-5
-1.412, 8.679e-5
-1.413, 8.841e-5
-1.414, 8.981e-5
-1.415, 9.165e-5
-1.416, 9.382e-5
-1.417, 9.604e-5
-1.418, 9.796e-5
-1.419, 9.968e-5
-1.420, 1.019e-4
-1.421, 1.044e-4
-1.422, 1.070e-4
-1.423, 1.094e-4
-1.424, 1.116e-4
-1.425, 1.143e-4
-1.426, 1.172e-4
-1.427, 1.201e-4
-1.428, 1.230e-4
-1.429, 1.258e-4
-1.430, 1.290e-4
-1.431, 1.325e-4
-1.432, 1.360e-4
-1.433, 1.396e-4
-1.434, 1.431e-4
-1.435, 1.468e-4
-1.436, 1.509e-4
-1.437, 1.552e-4
-1.438, 1.594e-4
-1.439, 1.636e-4
-1.440, 1.681e-4
-1.441, 1.730e-4
-1.442, 1.780e-4
-1.443, 1.829e-4
-1.444, 1.879e-4
-1.445, 1.932e-4
-1.446, 1.989e-4
-1.447, 2.048e-4
-1.448, 2.106e-4
-1.449, 2.165e-4
-1.450, 2.228e-4
-1.451, 2.294e-4
-1.452, 2.362e-4
-1.453, 2.432e-4
-1.454, 2.502e-4
-1.455, 2.576e-4
-1.456, 2.652e-4
-1.457, 2.732e-4
-1.458, 2.812e-4
-1.459, 2.893e-4
-1.460, 2.978e-4
-1.461, 3.066e-4
-1.462, 3.158e-4
-1.463, 3.251e-4
-1.464, 3.344e-4
-1.465, 3.444e-4
-1.466, 3.547e-4
-1.467, 3.652e-4
-1.468, 3.757e-4
-1.469, 3.865e-4
-1.470, 3.979e-4
-1.471, 4.096e-4
-1.472, 4.214e-4
-1.473, 4.336e-4
-1.474, 4.458e-4
-1.475, 4.583e-4
-1.476, 4.716e-4
-1.477, 4.852e-4
-1.478, 4.987e-4
-1.479, 5.125e-4
-1.480, 5.266e-4
-1.481, 5.415e-4
-1.482, 5.564e-4
-1.483, 5.714e-4
-1.484, 5.870e-4
-1.485, 6.031e-4
-1.486, 6.192e-4
-1.487, 6.357e-4
-1.488, 6.526e-4
-1.489, 6.693e-4
-1.490, 6.866e-4
-1.491, 7.043e-4
-1.492, 7.226e-4
-1.493, 7.411e-4
-1.494, 7.594e-4
-1.495, 7.782e-4
-1.496, 7.969e-4
-1.497, 8.170e-4
-1.498, 8.377e-4
-1.499, 8.584e-4
-1.500, 8.788e-4
-1.501, 8.978e-4
-1.502, 9.186e-4
-1.503, 9.399e-4
-1.504, 9.611e-4
-1.505, 9.830e-4
-1.506, 1.006e-3
-1.507, 1.028e-3
-1.508, 1.052e-3
-1.509, 1.074e-3
-1.510, 1.098e-3
-1.511, 1.122e-3
-1.512, 1.146e-3
-1.513, 1.170e-3
-1.514, 1.194e-3
-1.515, 1.219e-3
-1.516, 1.244e-3
-1.517, 1.270e-3
-1.518, 1.296e-3
-1.519, 1.323e-3
-1.520, 1.347e-3
-1.521, 1.373e-3
-1.522, 1.400e-3
-1.523, 1.428e-3
-1.524, 1.455e-3
-1.525, 1.481e-3
-1.526, 1.509e-3
-1.527, 1.538e-3
-1.528, 1.566e-3
-1.529, 1.595e-3
-1.530, 1.623e-3
-1.531, 1.651e-3
-1.532, 1.679e-3
-1.533, 1.709e-3
-1.534, 1.739e-3
-1.535, 1.767e-3
-1.536, 1.797e-3
-1.537, 1.827e-3
-1.538, 1.859e-3
-1.539, 1.890e-3
-1.540, 1.918e-3
-1.541, 1.948e-3
-1.542, 1.979e-3
-1.543, 2.011e-3
-1.544, 2.041e-3
-1.545, 2.073e-3
-1.546, 2.105e-3
-1.547, 2.137e-3
-1.548, 2.169e-3
-1.549, 2.200e-3
-1.550, 2.230e-3
-1.551, 2.263e-3
-1.552, 2.296e-3
-1.553, 2.329e-3
-1.554, 2.362e-3
-1.555, 2.394e-3
-1.556, 2.425e-3
-1.557, 2.457e-3
-1.558, 2.490e-3
-1.559, 2.524e-3
-1.560, 2.561e-3
-1.561, 2.595e-3
-1.562, 2.627e-3
-1.563, 2.661e-3
-1.564, 2.696e-3
-1.565, 2.730e-3
-1.566, 2.756e-3
-1.567, 2.788e-3
-1.568, 2.825e-3
-1.569, 2.860e-3
-1.570, 2.892e-3
-1.571, 2.923e-3
-1.572, 2.960e-3
-1.573, 2.992e-3
-1.574, 3.023e-3
-1.575, 3.060e-3
-1.576, 3.095e-3
-1.577, 3.129e-3
-1.578, 3.161e-3
-1.579, 3.194e-3
-1.580, 3.228e-3
-1.581, 3.265e-3
-1.582, 3.302e-3
-1.583, 3.356e-3
-1.584, 3.389e-3
-1.585, 3.423e-3
-1.586, 3.461e-3
-1.587, 3.493e-3
-1.588, 3.521e-3
-1.589, 3.544e-3
-1.590, 3.575e-3
-1.591, 3.607e-3
-1.592, 3.655e-3
-1.593, 3.691e-3
-1.594, 3.717e-3
-1.595, 3.743e-3
-1.596, 3.773e-3
-1.597, 3.804e-3
-1.598, 3.846e-3
-1.599, 3.867e-3
-1.600, 3.898e-3
-1.601, 3.923e-3
-1.602, 3.946e-3
-1.603, 3.974e-3
-1.604, 4.003e-3
-1.605, 4.027e-3
-1.606, 4.063e-3
-1.607, 4.089e-3
-1.608, 4.134e-3
-1.609, 4.162e-3
-1.610, 4.191e-3
-1.611, 4.217e-3
-1.612, 4.247e-3
-1.613, 4.275e-3
-1.614, 4.305e-3
-1.615, 4.333e-3
-1.616, 4.354e-3
-1.617, 4.385e-3
-1.618, 4.409e-3
-1.619, 4.433e-3
-1.620, 4.462e-3
-1.621, 4.475e-3
-1.622, 4.510e-3
-1.623, 4.544e-3
-1.624, 4.561e-3
-1.625, 4.579e-3
-1.626, 4.594e-3
-1.627, 4.624e-3
-1.628, 4.668e-3
-1.629, 4.701e-3
-1.630, 4.731e-3
-1.631, 4.758e-3
-1.632, 4.785e-3
-1.633, 4.811e-3
-1.634, 4.833e-3
-1.635, 4.866e-3
-1.636, 4.897e-3
-1.637, 4.928e-3
-1.638, 4.978e-3
-1.639, 4.993e-3
-1.640, 5.012e-3
-1.641, 5.041e-3
-1.642, 5.074e-3
-1.643, 5.081e-3
-1.644, 5.102e-3
-1.645, 5.123e-3
-1.646, 5.146e-3
-1.647, 5.188e-3
-1.648, 5.213e-3
-1.649, 5.236e-3
-1.650, 5.276e-3
-1.651, 5.299e-3
-1.652, 5.308e-3
-1.653, 5.336e-3
-1.654, 5.359e-3
-1.655, 5.372e-3
-1.656, 5.401e-3
-1.657, 5.442e-3
-1.658, 5.483e-3
-1.659, 5.573e-3
-1.660, 5.637e-3
-1.661, 5.683e-3
-1.662, 5.717e-3
-1.663, 5.745e-3
-1.664, 5.763e-3
-1.665, 5.808e-3
-1.666, 5.827e-3
-1.667, 5.834e-3
-1.668, 5.848e-3
-1.669, 5.865e-3
-1.670, 5.888e-3
-1.671, 5.932e-3
-1.672, 5.969e-3
-1.673, 6.059e-3
-1.674, 6.101e-3
-1.675, 6.106e-3
-1.676, 6.114e-3
-1.677, 6.124e-3
-1.678, 6.175e-3
-1.679, 6.187e-3
-1.680, 6.203e-3
-1.681, 6.201e-3
-1.682, 6.208e-3
-1.683, 6.234e-3
-1.684, 6.246e-3
-1.685, 6.262e-3
-1.686, 6.289e-3
-1.687, 6.322e-3
-1.688, 6.327e-3
-1.689, 6.333e-3
-1.690, 6.368e-3
-1.691, 6.366e-3
-1.692, 6.371e-3
-1.693, 6.372e-3
-1.694, 6.380e-3
-1.695, 6.403e-3
-1.696, 6.417e-3
-1.697, 6.413e-3
-1.698, 6.518e-3
-1.699, 6.520e-3
-1.700, 6.497e-3
-1.699, 6.443e-3
-1.698, 6.395e-3
-1.697, 6.348e-3
-1.696, 6.320e-3
-1.695, 6.255e-3
-1.694, 6.221e-3
-1.693, 6.181e-3
-1.692, 6.150e-3
-1.691, 6.110e-3
-1.690, 6.081e-3
-1.689, 6.094e-3
-1.688, 6.060e-3
-1.687, 6.003e-3
-1.686, 5.940e-3
-1.685, 5.889e-3
-1.684, 5.840e-3
-1.683, 5.788e-3
-1.682, 5.739e-3
-1.681, 5.694e-3
-1.680, 5.663e-3
-1.679, 5.616e-3
-1.678, 5.557e-3
-1.677, 5.535e-3
-1.676, 5.552e-3
-1.675, 5.540e-3
-1.674, 5.524e-3
-1.673, 5.518e-3
-1.672, 5.506e-3
-1.671, 5.459e-3
-1.670, 5.406e-3
-1.669, 5.358e-3
-1.668, 5.315e-3
-1.667, 5.262e-3
-1.666, 5.202e-3
-1.665, 5.162e-3
-1.664, 5.109e-3
-1.663, 5.074e-3
-1.662, 5.029e-3
-1.661, 4.984e-3
-1.660, 4.924e-3
-1.659, 4.875e-3
-1.658, 4.831e-3
-1.657, 4.771e-3
-1.656, 4.758e-3
-1.655, 4.710e-3
-1.654, 4.675e-3
-1.653, 4.623e-3
-1.652, 4.579e-3
-1.651, 4.546e-3
-1.650, 4.522e-3
-1.649, 4.483e-3
-1.648, 4.445e-3
-1.647, 4.404e-3
-1.646, 4.370e-3
-1.645, 4.325e-3
-1.644, 4.270e-3
-1.643, 4.230e-3
-1.642, 4.187e-3
-1.641, 4.143e-3
-1.640, 4.096e-3
-1.639, 4.049e-3
-1.638, 4.006e-3
-1.637, 3.961e-3
-1.636, 3.917e-3
-1.635, 3.938e-3
-1.634, 3.928e-3
-1.633, 3.903e-3
-1.632, 3.870e-3
-1.631, 3.843e-3
-1.630, 3.810e-3
-1.629, 3.785e-3
-1.628, 3.761e-3
-1.627, 3.756e-3
-1.626, 3.718e-3
-1.625, 3.673e-3
-1.624, 3.635e-3
-1.623, 3.611e-3
-1.622, 3.582e-3
-1.621, 3.540e-3
-1.620, 3.502e-3
-1.619, 3.464e-3
-1.618, 3.445e-3
-1.617, 3.419e-3
-1.616, 3.382e-3
-1.615, 3.344e-3
-1.614, 3.309e-3
-1.613, 3.273e-3
-1.612, 3.233e-3
-1.611, 3.193e-3
-1.610, 3.159e-3
-1.609, 3.130e-3
-1.608, 3.109e-3
-1.607, 3.077e-3
-1.606, 3.044e-3
-1.605, 3.008e-3
-1.604, 2.979e-3
-1.603, 2.948e-3
-1.602, 2.919e-3
-1.601, 2.894e-3
-1.600, 2.865e-3
-1.599, 2.829e-3
-1.598, 2.798e-3
-1.597, 2.764e-3
-1.596, 2.733e-3
-1.595, 2.714e-3
-1.594, 2.681e-3
-1.593, 2.664e-3
-1.592, 2.634e-3
-1.591, 2.612e-3
-1.590, 2.581e-3
-1.589, 2.547e-3
-1.588, 2.519e-3
-1.587, 2.500e-3
-1.586, 2.472e-3
-1.585, 2.439e-3
-1.584, 2.408e-3
-1.583, 2.382e-3
-1.582, 2.349e-3
-1.581, 2.321e-3
-1.580, 2.291e-3
-1.579, 2.263e-3
-1.578, 2.233e-3
-1.577, 2.205e-3
-1.576, 2.171e-3
-1.575, 2.141e-3
-1.574, 2.115e-3
-1.573, 2.087e-3
-1.572, 2.056e-3
-1.571, 2.026e-3
-1.570, 1.998e-3
-1.569, 1.974e-3
-1.568, 1.946e-3
-1.567, 1.917e-3
-1.566, 1.889e-3
-1.565, 1.872e-3
-1.564, 1.844e-3
-1.563, 1.815e-3
-1.562, 1.789e-3
-1.561, 1.764e-3
-1.560, 1.741e-3
-1.559, 1.715e-3
-1.558, 1.693e-3
-1.557, 1.671e-3
-1.556, 1.645e-3
-1.555, 1.620e-3
-1.554, 1.596e-3
-1.553, 1.570e-3
-1.552, 1.545e-3
-1.551, 1.520e-3
-1.550, 1.496e-3
-1.549, 1.472e-3
-1.548, 1.448e-3
-1.547, 1.427e-3
-1.546, 1.403e-3
-1.545, 1.379e-3
-1.544, 1.356e-3
-1.543, 1.334e-3
-1.542, 1.311e-3
-1.541, 1.289e-3
-1.540, 1.268e-3
-1.539, 1.246e-3
-1.538, 1.228e-3
-1.537, 1.207e-3
-1.536, 1.191e-3
-1.535, 1.174e-3
-1.534, 1.155e-3
-1.533, 1.140e-3
-1.532, 1.124e-3
-1.531, 1.104e-3
-1.530, 1.086e-3
-1.529, 1.066e-3
-1.528, 1.049e-3
-1.527, 1.030e-3
-1.526, 1.013e-3
-1.525, 9.954e-4
-1.524, 9.776e-4
-1.523, 9.600e-4
-1.522, 9.432e-4
-1.521, 9.267e-4
-1.520, 9.099e-4
-1.519, 8.934e-4
-1.518, 8.762e-4
-1.517, 8.593e-4
-1.516, 8.431e-4
-1.515, 8.263e-4
-1.514, 8.100e-4
-1.513, 7.938e-4
-1.512, 7.783e-4
-1.511, 7.631e-4
-1.510, 7.475e-4
-1.509, 7.317e-4
-1.508, 7.173e-4
-1.507, 7.031e-4
-1.506, 6.881e-4
-1.505, 6.732e-4
-1.504, 6.585e-4
-1.503, 6.450e-4
-1.502, 6.314e-4
-1.501, 6.180e-4
-1.500, 6.045e-4
-1.499, 5.918e-4
-1.498, 5.787e-4
-1.497, 5.662e-4
-1.496, 5.531e-4
-1.495, 5.412e-4
-1.494, 5.290e-4
-1.493, 5.175e-4
-1.492, 5.059e-4
-1.491, 4.948e-4
-1.490, 4.842e-4
-1.489, 4.734e-4
-1.488, 4.627e-4
-1.487, 4.523e-4
-1.486, 4.417e-4
-1.485, 4.311e-4
-1.484, 4.215e-4
-1.483, 4.119e-4
-1.482, 4.024e-4
-1.481, 3.928e-4
-1.480, 3.836e-4
-1.479, 3.746e-4
-1.478, 3.659e-4
-1.477, 3.575e-4
-1.476, 3.485e-4
-1.475, 3.400e-4
-1.474, 3.323e-4
-1.473, 3.245e-4
-1.472, 3.167e-4
-1.471, 3.087e-4
-1.470, 3.012e-4
-1.469, 2.942e-4
-1.468, 2.872e-4
-1.467, 2.802e-4
-1.466, 2.733e-4
-1.465, 2.664e-4
-1.464, 2.601e-4
-1.463, 2.541e-4
-1.462, 2.478e-4
-1.461, 2.414e-4
-1.460, 2.355e-4
-1.459, 2.297e-4
-1.458, 2.242e-4
-1.457, 2.185e-4
-1.456, 2.130e-4
-1.455, 2.076e-4
-1.454, 2.026e-4
-1.453, 1.978e-4
-1.452, 1.928e-4
-1.451, 1.878e-4
-1.450, 1.831e-4
-1.449, 1.787e-4
-1.448, 1.744e-4
-1.447, 1.699e-4
-1.446, 1.655e-4
-1.445, 1.613e-4
-1.444, 1.576e-4
-1.443, 1.537e-4
-1.442, 1.497e-4
-1.441, 1.458e-4
-1.440, 1.421e-4
-1.439, 1.388e-4
-1.438, 1.354e-4
-1.437, 1.319e-4
-1.436, 1.284e-4
-1.435, 1.251e-4
-1.434, 1.222e-4
-1.433, 1.193e-4
-1.432, 1.163e-4
-1.431, 1.132e-4
-1.430, 1.104e-4
-1.429, 1.079e-4
-1.428, 1.053e-4
-1.427, 1.025e-4
-1.426, 9.978e-5
-1.425, 9.722e-5
-1.424, 9.508e-5
-1.423, 9.279e-5
-1.422, 9.032e-5
-1.421, 8.792e-5
-1.420, 8.569e-5
-1.419, 8.373e-5
-1.418, 8.180e-5
-1.417, 7.955e-5
-1.416, 7.744e-5
-1.415, 7.549e-5
-1.414, 7.372e-5
-1.413, 7.193e-5
-1.412, 7.013e-5
-1.411, 6.818e-5
-1.410, 6.643e-5
-1.409, 6.490e-5
-1.408, 6.347e-5
-1.407, 6.173e-5
-1.406, 5.998e-5
-1.405, 5.855e-5
-1.404, 5.719e-5
-1.403, 5.583e-5
-1.402, 5.431e-5
-1.401, 5.278e-5
-1.400, 5.147e-5
-1.399, 5.033e-5
-1.398, 4.908e-5
-1.397, 4.777e-5
-1.396, 4.639e-5
-1.395, 4.522e-5
-1.394, 4.419e-5
-1.393, 4.314e-5
-1.392, 4.194e-5
-1.391, 4.071e-5
-1.390, 3.961e-5
-1.389, 3.880e-5
-1.388, 3.785e-5
-1.387, 3.672e-5
-1.386, 3.566e-5
-1.385, 3.466e-5
-1.384, 3.391e-5
-1.383, 3.304e-5
-1.382, 3.204e-5
-1.381, 3.107e-5
-1.380, 3.021e-5
-1.379, 2.949e-5
-1.378, 2.886e-5
-1.377, 2.791e-5
-1.376, 2.699e-5
-1.375, 2.627e-5
-1.374, 2.560e-5
-1.373, 2.504e-5
-1.372, 2.417e-5
-1.371, 2.326e-5
-1.370, 2.264e-5
-1.369, 2.208e-5
-1.368, 2.154e-5
-1.367, 2.077e-5
-1.366, 1.997e-5
-1.365, 1.942e-5
-1.364, 1.891e-5
-1.363, 1.841e-5
-1.362, 1.773e-5
-1.361, 1.693e-5
-1.360, 1.641e-5
-1.359, 1.602e-5
-1.358, 1.553e-5
-1.357, 1.492e-5
-1.356, 1.418e-5
-1.355, 1.368e-5
-1.354, 1.339e-5
-1.353, 1.294e-5
-1.352, 1.237e-5
-1.351, 1.171e-5
-1.350, 1.121e-5
-1.349, 1.094e-5
-1.348, 1.058e-5
-1.347, 9.960e-6
-1.346, 9.410e-6
-1.345, 8.958e-6
-1.344, 8.709e-6
-1.343, 8.404e-6
-1.342, 7.818e-6
-1.341, 7.303e-6
-1.340, 6.889e-6
-1.339, 6.620e-6
-1.338, 6.358e-6
-1.337, 5.807e-6
-1.336, 5.286e-6
-1.335, 4.934e-6
-1.334, 4.689e-6
-1.333, 4.458e-6
-1.332, 3.953e-6
-1.331, 3.388e-6
-1.330, 3.076e-6
-1.329, 2.799e-6
-1.328, 2.660e-6
-1.327, 2.153e-6
-1.326, 1.593e-6
-1.325, 1.270e-6
-1.324, 1.125e-6
-1.323, 8.522e-7
-1.322, 4.290e-7
-1.321, -1.334e-7
-1.320, -3.682e-7
-1.319, -5.941e-7
-1.318, -8.141e-7
-1.317, -1.222e-6
-1.316, -1.725e-6
-1.315, -2.044e-6
-1.314, -2.171e-6
-1.313, -2.414e-6
-1.312, -2.798e-6
-1.311, -3.313e-6
-1.310, -3.630e-6
-1.309, -3.704e-6
-1.308, -3.894e-6
-1.307, -4.383e-6
-1.306, -4.821e-6
-1.305, -5.099e-6
-1.304, -5.204e-6
-1.303, -5.318e-6
-1.302, -5.822e-6
-1.301, -6.160e-6
-1.300, -6.492e-6
-1.299, -6.653e-6
-1.298, -6.802e-6
-1.297, -7.224e-6
-1.296, -7.651e-6
-1.295, -7.959e-6
-1.294, -8.061e-6
-1.293, -8.187e-6
-1.292, -8.585e-6
-1.291, -9.047e-6
-1.290, -9.255e-6
-1.289, -9.400e-6
-1.288, -9.453e-6
-1.287, -9.922e-6
-1.286, -1.045e-5
-1.285, -1.058e-5
-1.284, -1.069e-5
-1.283, -1.087e-5
-1.282, -1.122e-5
-1.281, -1.169e-5
-1.280, -1.197e-5
-1.279, -1.201e-5
-1.278, -1.222e-5
-1.277, -1.254e-5
-1.276, -1.290e-5
-1.275, -1.333e-5
-1.274, -1.325e-5
-1.273, -1.353e-5
-1.272, -1.374e-5
-1.271, -1.412e-5
-1.270, -1.341e-5
-1.269, -1.361e-5
-1.268, -1.394e-5
-1.267, -1.452e-5
-1.266, -1.502e-5
-1.265, -1.531e-5
-1.264, -1.534e-5
-1.263, -1.553e-5
-1.262, -1.606e-5
-1.261, -1.636e-5
-1.260, -1.655e-5
-1.259, -1.665e-5
-1.258, -1.674e-5
-1.257, -1.707e-5
-1.256, -1.743e-5
-1.255, -1.770e-5
-1.254, -1.773e-5
-1.253, -1.780e-5
-1.252, -1.814e-5
-1.251, -1.858e-5
-1.250, -1.872e-5
-1.249, -1.875e-5
-1.248, -1.881e-5
-1.247, -1.911e-5
-1.246, -1.953e-5
-1.245, -1.957e-5
-1.244, -1.959e-5
-1.243, -1.972e-5
-1.242, -1.997e-5
-1.241, -2.034e-5
-1.240, -2.045e-5
-1.239, -2.044e-5
-1.238, -2.041e-5
-1.237, -2.073e-5
-1.236, -2.112e-5
-1.235, -2.125e-5
-1.234, -2.104e-5
-1.233, -2.105e-5
-1.232, -2.135e-5
-1.231, -2.175e-5
-1.230, -2.185e-5
-1.229, -2.179e-5
-1.228, -2.170e-5
-1.227, -2.207e-5
-1.226, -2.235e-5
-1.225, -2.245e-5
-1.224, -2.221e-5
-1.223, -2.214e-5
-1.222, -2.254e-5
-1.221, -2.284e-5
-1.220, -2.277e-5
-1.219, -2.269e-5
-1.218, -2.260e-5
-1.217, -2.292e-5
-1.216, -2.317e-5
-1.215, -2.318e-5
-1.214, -2.310e-5
-1.213, -2.303e-5
-1.212, -2.324e-5
-1.211, -2.356e-5
-1.210, -2.356e-5
-1.209, -2.339e-5
-1.208, -2.336e-5
-1.207, -2.354e-5
-1.206, -2.387e-5
-1.205, -2.378e-5
-1.204, -2.371e-5
-1.203, -2.367e-5
-1.202, -2.387e-5
-1.201, -2.414e-5
-1.200, -2.411e-5
-1.199, -2.393e-5
-1.198, -2.395e-5
-1.197, -2.411e-5
-1.196, -2.442e-5
-1.195, -2.441e-5
-1.194, -2.415e-5
-1.193, -2.425e-5
-1.192, -2.439e-5
-1.191, -2.459e-5
-1.190, -2.467e-5
-1.189, -2.442e-5
-1.188, -2.442e-5
-1.187, -2.468e-5
-1.186, -2.490e-5
-1.185, -2.488e-5
-1.184, -2.464e-5
-1.183, -2.461e-5
-1.182, -2.495e-5
-1.181, -2.511e-5
-1.180, -2.501e-5
-1.179, -2.492e-5
-1.178, -2.492e-5
-1.177, -2.513e-5
-1.176, -2.529e-5
-1.175, -2.527e-5
-1.174, -2.512e-5
-1.173, -2.509e-5
-1.172, -2.528e-5
-1.171, -2.545e-5
-1.170, -2.544e-5
-1.169, -2.532e-5
-1.168, -2.521e-5
-1.167, -2.544e-5
-1.166, -2.573e-5
-1.165, -2.557e-5
-1.164, -2.540e-5
-1.163, -2.546e-5
-1.162, -2.559e-5
-1.161, -2.582e-5
-1.160, -2.573e-5
-1.159, -2.558e-5
-1.158, -2.557e-5
-1.157, -2.569e-5
-1.156, -2.596e-5
-1.155, -2.593e-5
-1.154, -2.567e-5
-1.153, -2.573e-5
-1.152, -2.586e-5
-1.151, -2.604e-5
-1.150, -2.611e-5
-1.149, -2.582e-5
-1.148, -2.581e-5
-1.147, -2.606e-5
-1.146, -2.624e-5
-1.145, -2.620e-5
-1.144, -2.590e-5
-1.143, -2.588e-5
-1.142, -2.622e-5
-1.141, -2.636e-5
-1.140, -2.621e-5
-1.139, -2.614e-5
-1.138, -2.605e-5
-1.137, -2.636e-5
-1.136, -2.642e-5
-1.135, -2.643e-5
-1.134, -2.622e-5
-1.133, -2.620e-5
-1.132, -2.637e-5
-1.131, -2.662e-5
-1.130, -2.648e-5
-1.129, -2.636e-5
-1.128, -2.626e-5
-1.127, -2.648e-5
-1.126, -2.673e-5
-1.125, -2.660e-5
-1.124, -2.639e-5
-1.123, -2.643e-5
-1.122, -2.658e-5
-1.121, -2.681e-5
-1.120, -2.668e-5
-1.119, -2.649e-5
-1.118, -2.653e-5
-1.117, -2.666e-5
-1.116, -2.681e-5
-1.115, -2.677e-5
-1.114, -2.660e-5
-1.113, -2.659e-5
-1.112, -2.669e-5
-1.111, -2.690e-5
-1.110, -2.686e-5
-1.109, -2.660e-5
-1.108, -2.663e-5
-1.107, -2.680e-5
-1.106, -2.693e-5
-1.105, -2.692e-5
-1.104, -2.670e-5
-1.103, -2.667e-5
-1.102, -2.689e-5
-1.101, -2.703e-5
-1.100, -2.697e-5
-1.099, -2.680e-5
-1.098, -2.669e-5
-1.097, -2.697e-5
-1.096, -2.708e-5
-1.095, -2.705e-5
-1.094, -2.682e-5
-1.093, -2.679e-5
-1.092, -2.701e-5
-1.091, -2.717e-5
-1.090, -2.710e-5
-1.089, -2.695e-5
-1.088, -2.689e-5
-1.087, -2.707e-5
-1.086, -2.733e-5
-1.085, -2.712e-5
-1.084, -2.692e-5
-1.083, -2.694e-5
-1.082, -2.709e-5
-1.081, -2.731e-5
-1.080, -2.711e-5
-1.079, -2.697e-5
-1.078, -2.696e-5
-1.077, -2.703e-5
-1.076, -2.729e-5
-1.075, -2.722e-5
-1.074, -2.691e-5
-1.073, -2.694e-5
-1.072, -2.699e-5
-1.071, -2.718e-5
-1.070, -2.713e-5
-1.069, -2.672e-5
-1.068, -2.678e-5
-1.067, -2.699e-5
-1.066, -2.704e-5
-1.065, -2.695e-5
-1.064, -2.668e-5
-1.063, -2.660e-5
-1.062, -2.684e-5
-1.061, -2.691e-5
-1.060, -2.681e-5
-1.059, -2.658e-5
-1.058, -2.650e-5
-1.057, -2.674e-5
-1.056, -2.679e-5
-1.055, -2.667e-5
-1.054, -2.649e-5
-1.053, -2.635e-5
-1.052, -2.653e-5
-1.051, -2.667e-5
-1.050, -2.653e-5
-1.049, -2.635e-5
-1.048, -2.621e-5
-1.047, -2.645e-5
-1.046, -2.658e-5
-1.045, -2.636e-5
-1.044, -2.617e-5
-1.043, -2.613e-5
-1.042, -2.625e-5
-1.041, -2.638e-5
-1.040, -2.628e-5
-1.039, -2.599e-5
-1.038, -2.601e-5
-1.037, -2.608e-5
-1.036, -2.630e-5
-1.035, -2.618e-5
-1.034, -2.584e-5
-1.033, -2.581e-5
-1.032, -2.598e-5
-1.031, -2.615e-5
-1.030, -2.606e-5
-1.029, -2.573e-5
-1.028, -2.568e-5
-1.027, -2.593e-5
-1.026, -2.600e-5
-1.025, -2.590e-5
-1.024, -2.571e-5
-1.023, -2.558e-5
-1.022, -2.581e-5
-1.021, -2.589e-5
-1.020, -2.580e-5
-1.019, -2.553e-5
-1.018, -2.543e-5
-1.017, -2.574e-5
-1.016, -2.577e-5
-1.015, -2.567e-5
-1.014, -2.546e-5
-1.013, -2.533e-5
-1.012, -2.556e-5
-1.011, -2.580e-5
-1.010, -2.556e-5
-1.009, -2.543e-5
-1.008, -2.526e-5
-1.007, -2.549e-5
-1.006, -2.572e-5
-1.005, -2.547e-5
-1.004, -2.523e-5
-1.003, -2.526e-5
-1.002, -2.541e-5
-1.001, -2.560e-5
-1.000, -1.337e-5
-1.001, -6.145e-6
-1.002, -3.603e-6
-1.003, -2.245e-6
-1.004, -1.065e-6
-1.005, 1.182e-7
-1.006, 1.246e-6
-1.007, 2.115e-6
-1.008, 2.532e-6
-1.009, 3.003e-6
-1.010, 3.769e-6
-1.011, 4.490e-6
-1.012, 5.036e-6
-1.013, 5.259e-6
-1.014, 5.479e-6
-1.015, 6.060e-6
-1.016, 6.605e-6
-1.017, 6.990e-6
-1.018, 7.108e-6
-1.019, 7.196e-6
-1.020, 7.643e-6
-1.021, 8.099e-6
-1.022, 8.408e-6
-1.023, 8.432e-6
-1.024, 8.492e-6
-1.025, 8.839e-6
-1.026, 9.305e-6
-1.027, 9.440e-6
-1.028, 9.460e-6
-1.029, 9.439e-6
-1.030, 9.789e-6
-1.031, 1.021e-5
-1.032, 1.026e-5
-1.033, 1.024e-5
-1.034, 1.030e-5
-1.035, 1.046e-5
-1.036, 1.086e-5
-1.037, 1.099e-5
-1.038, 1.084e-5
-1.039, 1.088e-5
-1.040, 1.105e-5
-1.041, 1.141e-5
-1.042, 1.153e-5
-1.043, 1.139e-5
-1.044, 1.137e-5
-1.045, 1.155e-5
-1.046, 1.189e-5
-1.047, 1.200e-5
-1.048, 1.182e-5
-1.049, 1.179e-5
-1.050, 1.198e-5
-1.051, 1.227e-5
-1.052, 1.237e-5
-1.053, 1.216e-5
-1.054, 1.210e-5
-1.055, 1.239e-5
-1.056, 1.259e-5
-1.057, 1.270e-5
-1.058, 1.253e-5
-1.059, 1.242e-5
-1.060, 1.264e-5
-1.061, 1.291e-5
-1.062, 1.298e-5
-1.063, 1.284e-5
-1.064, 1.271e-5
-1.065, 1.292e-5
-1.066, 1.325e-5
-1.067, 1.319e-5
-1.068, 1.310e-5
-1.069, 1.299e-5
-1.070, 1.322e-5
-1.071, 1.345e-5
-1.072, 1.348e-5
-1.073, 1.328e-5
-1.074, 1.330e-5
-1.075, 1.353e-5
-1.076, 1.372e-5
-1.077, 1.375e-5
-1.078, 1.358e-5
-1.079, 1.357e-5
-1.080, 1.364e-5
-1.081, 1.399e-5
-1.082, 1.404e-5
-1.083, 1.383e-5
-1.084, 1.374e-5
-1.085, 1.401e-5
-1.086, 1.422e-5
-1.087, 1.430e-5
-1.088, 1.408e-5
-1.089, 1.405e-5
-1.090, 1.429e-5
-1.091, 1.447e-5
-1.092, 1.456e-5
-1.093, 1.437e-5
-1.094, 1.432e-5
-1.095, 1.454e-5
-1.096, 1.476e-5
-1.097, 1.478e-5
-1.098, 1.472e-5
-1.099, 1.456e-5
-1.100, 1.484e-5
-1.101, 1.509e-5
-1.102, 1.510e-5
-1.103, 1.499e-5
-1.104, 1.490e-5
-1.105, 1.513e-5
-1.106, 1.541e-5
-1.107, 1.540e-5
-1.108, 1.533e-5
-1.109, 1.522e-5
-1.110, 1.546e-5
-1.111, 1.581e-5
-1.112, 1.575e-5
-1.113, 1.561e-5
-1.114, 1.567e-5
-1.115, 1.582e-5
-1.116, 1.613e-5
-1.117, 1.621e-5
-1.118, 1.603e-5
-1.119, 1.603e-5
-1.120, 1.627e-5
-1.121, 1.656e-5
-1.122, 1.659e-5
-1.123, 1.642e-5
-1.124, 1.651e-5
-1.125, 1.671e-5
-1.126, 1.693e-5
-1.127, 1.704e-5
-1.128, 1.687e-5
-1.129, 1.684e-5
-1.130, 1.715e-5
-1.131, 1.735e-5
-1.132, 1.745e-5
-1.133, 1.735e-5
-1.134, 1.729e-5
-1.135, 1.758e-5
-1.136, 1.781e-5
-1.137, 1.790e-5
-1.138, 1.781e-5
-1.139, 1.778e-5
-1.140, 1.805e-5
-1.141, 1.831e-5
-1.142, 1.839e-5
-1.143, 1.831e-5
-1.144, 1.828e-5
-1.145, 1.852e-5
-1.146, 1.887e-5
-1.147, 1.889e-5
-1.148, 1.882e-5
-1.149, 1.882e-5
-1.150, 1.908e-5
-1.151, 1.940e-5
-1.152, 1.944e-5
-1.153, 1.936e-5
-1.154, 1.942e-5
-1.155, 1.965e-5
-1.156, 1.996e-5
-1.157, 2.001e-5
-1.158, 1.999e-5
-1.159, 1.998e-5
-1.160, 2.024e-5
-1.161, 2.056e-5
-1.162, 2.064e-5
-1.163, 2.053e-5
-1.164, 2.060e-5
-1.165, 2.086e-5
-1.166, 2.118e-5
-1.167, 2.133e-5
-1.168, 2.116e-5
-1.169, 2.114e-5
-1.170, 2.150e-5
-1.171, 2.185e-5
-1.172, 2.194e-5
-1.173, 2.178e-5
-1.174, 2.177e-5
-1.175, 2.216e-5
-1.176, 2.243e-5
-1.177, 2.258e-5
-1.178, 2.245e-5
-1.179, 2.236e-5
-1.180, 2.277e-5
-1.181, 2.301e-5
-1.182, 2.303e-5
-1.183, 2.298e-5
-1.184, 2.295e-5
-1.185, 2.322e-5
-1.186, 2.351e-5
-1.187, 2.353e-5
-1.188, 2.344e-5
-1.189, 2.340e-5
-1.190, 2.366e-5
-1.191, 2.399e-5
-1.192, 2.396e-5
-1.193, 2.379e-5
-1.194, 2.386e-5
-1.195, 2.402e-5
-1.196, 2.433e-5
-1.197, 2.430e-5
-1.198, 2.414e-5
-1.199, 2.416e-5
-1.200, 2.431e-5
-1.201, 2.454e-5
-1.202, 2.460e-5
-1.203, 2.444e-5
-1.204, 2.439e-5
-1.205, 2.460e-5
-1.206, 2.480e-5
-1.207, 2.483e-5
-1.208, 2.463e-5
-1.209, 2.462e-5
-1.210, 2.477e-5
-1.211, 2.500e-5
-1.212, 2.502e-5
-1.213, 2.480e-5
-1.214, 2.471e-5
-1.215, 2.501e-5
-1.216, 2.511e-5
-1.217, 2.513e-5
-1.218, 2.496e-5
-1.219, 2.483e-5
-1.220, 2.506e-5
-1.221, 2.521e-5
-1.222, 2.519e-5
-1.223, 2.504e-5
-1.224, 2.492e-5
-1.225, 2.508e-5
-1.226, 2.530e-5
-1.227, 2.523e-5
-1.228, 2.511e-5
-1.229, 2.507e-5
-1.230, 2.513e-5
-1.231, 2.538e-5
-1.232, 2.528e-5
-1.233, 2.504e-5
-1.234, 2.501e-5
-1.235, 2.512e-5
-1.236, 2.535e-5
-1.237, 2.530e-5
-1.238, 2.507e-5
-1.239, 2.502e-5
-1.240, 2.516e-5
-1.241, 2.533e-5
-1.242, 2.535e-5
-1.243, 2.507e-5
-1.244, 2.507e-5
-1.245, 2.520e-5
-1.246, 2.537e-5
-1.247, 2.541e-5
-1.248, 2.515e-5
-1.249, 2.514e-5
-1.250, 2.528e-5
-1.251, 2.547e-5
-1.252, 2.548e-5
-1.253, 2.530e-5
-1.254, 2.524e-5
-1.255, 2.548e-5
-1.256, 2.560e-5
-1.257, 2.563e-5
-1.258, 2.547e-5
-1.259, 2.537e-5
-1.260, 2.566e-5
-1.261, 2.582e-5
-1.262, 2.576e-5
-1.263, 2.574e-5
-1.264, 2.560e-5
-1.265, 2.586e-5
-1.266, 2.608e-5
-1.267, 2.605e-5
-1.268, 2.597e-5
-1.269, 2.591e-5
-1.270, 2.610e-5
-1.271, 2.642e-5
-1.272, 2.635e-5
-1.273, 2.625e-5
-1.274, 2.627e-5
-1.275, 2.646e-5
-1.276, 2.677e-5
-1.277, 2.677e-5
-1.278, 2.660e-5
-1.279, 2.669e-5
-1.280, 2.697e-5
-1.281, 2.712e-5
-1.282, 2.720e-5
-1.283, 2.711e-5
-1.284, 2.710e-5
-1.285, 2.733e-5
-1.286, 2.760e-5
-1.287, 2.771e-5
-1.288, 2.749e-5
-1.289, 2.757e-5
-1.290, 2.787e-5
-1.291, 2.807e-5
-1.292, 2.818e-5
-1.293, 2.807e-5
-1.294, 2.810e-5
-1.295, 2.841e-5
-1.296, 2.868e-5
-1.297, 2.872e-5
-1.298, 2.867e-5
-1.299, 2.874e-5
-1.300, 2.906e-5
-1.301, 2.933e-5
-1.302, 2.943e-5
-1.303, 2.941e-5
-1.304, 2.944e-5
-1.305, 2.975e-5
-1.306, 3.013e-5
-1.307, 3.013e-5
-1.308, 3.013e-5
-1.309, 3.020e-5
-1.310, 3.049e-5
-1.311, 3.087e-5
-1.312, 3.094e-5
-1.313, 3.089e-5
-1.314, 3.097e-5
-1.315, 3.133e-5
-1.316, 3.160e-5
-1.317, 3.175e-5
-1.318, 3.164e-5
-1.319, 3.180e-5
-1.320, 3.210e-5
-1.321, 3.246e-5
-1.322, 3.256e-5
-1.323, 3.250e-5
-1.324, 3.263e-5
-1.325, 3.296e-5
-1.326, 3.332e-5
-1.327, 3.341e-5
-1.328, 3.335e-5
-1.329, 3.345e-5
-1.330, 3.385e-5
-1.331, 3.415e-5
-1.332, 3.429e-5
-1.333, 3.424e-5
-1.334, 3.429e-5
-1.335, 3.471e-5
-1.336, 3.498e-5
-1.337, 3.510e-5
-1.338, 3.506e-5
-1.339, 3.511e-5
-1.340, 3.553e-5
-1.341, 3.579e-5
-1.342, 3.590e-5
-1.343, 3.591e-5
-1.344, 3.590e-5
-1.345, 3.627e-5
-1.346, 3.664e-5
-1.347, 3.670e-5
-1.348, 3.659e-5
-1.349, 3.664e-5
-1.350, 3.708e-5
-1.351, 3.751e-5
-1.352, 3.746e-5
-1.353, 3.739e-5
-1.354, 3.754e-5
-1.355, 3.784e-5
-1.356, 3.822e-5
-1.357, 3.826e-5
-1.358, 3.818e-5
-1.359, 3.835e-5
-1.360, 3.862e-5
-1.361, 3.905e-5
-1.362, 3.917e-5
-1.363, 3.906e-5
-1.364, 3.926e-5
-1.365, 3.966e-5
-1.366, 3.999e-5
-1.367, 4.018e-5
-1.368, 4.020e-5
-1.369, 4.039e-5
-1.370, 4.086e-5
-1.371, 4.122e-5
-1.372, 4.149e-5
-1.373, 4.160e-5
-1.374, 4.190e-5
-1.375, 4.243e-5
-1.376, 4.288e-5
-1.377, 4.321e-5
-1.378, 4.347e-5
-1.379, 4.379e-5
-1.380, 4.440e-5
-1.381, 4.500e-5
-1.382, 4.546e-5
-1.383, 4.576e-5
-1.384, 4.621e-5
-1.385, 4.691e-5
-1.386, 4.769e-5
-1.387, 4.815e-5
-1.388, 4.857e-5
-1.389, 4.925e-5
-1.390, 5.005e-5
-1.391, 5.097e-5
-1.392, 5.151e-5
-1.393, 5.218e-5
-1.394, 5.296e-5
-1.395, 5.391e-5
-1.396, 5.501e-5
-1.397, 5.580e-5
-1.398, 5.650e-5
-1.399, 5.744e-5
-1.400, 5.865e-5
-1.401, 5.984e-5
-1.402, 6.081e-5
-1.403, 6.181e-5
-1.404, 6.297e-5
-1.405, 6.428e-5
-1.406, 6.567e-5
-1.407, 6.694e-5
-1.408, 6.812e-5
-1.409, 6.945e-5
-1.410, 7.106e-5
-1.411, 7.274e-5
-1.412, 7.424e-5
-1.413, 7.560e-5
-1.414, 7.729e-5
-1.415, 7.921e-5
-1.416, 8.121e-5
-1.417, 8.297e-5
-1.418, 8.469e-5
-1.419, 8.671e-5
-1.420, 8.897e-5
-1.421, 9.128e-5
-1.422, 9.341e-5
-1.423, 9.551e-5
-1.424, 9.792e-5
-1.425, 1.005e-4
-1.426, 1.033e-4
-1.427, 1.058e-4
-1.428, 1.084e-4
-1.429, 1.113e-4
-1.430, 1.143e-4
-1.431, 1.175e-4
-1.432, 1.205e-4
-1.433, 1.236e-4
-1.434, 1.270e-4
-1.435, 1.305e-4
-1.436, 1.343e-4
-1.437, 1.380e-4
-1.438, 1.416e-4
-1.439, 1.456e-4
-1.440, 1.498e-4
-1.441, 1.543e-4
-1.442, 1.585e-4
-1.443, 1.628e-4
-1.444, 1.675e-4
-1.445, 1.724e-4
-1.446, 1.775e-4
-1.447, 1.825e-4
-1.448, 1.874e-4
-1.449, 1.928e-4
-1.450, 1.986e-4
-1.451, 2.042e-4
-1.452, 2.102e-4
-1.453, 2.160e-4
-1.454, 2.223e-4
-1.455, 2.286e-4
-1.456, 2.353e-4
-1.457, 2.420e-4
-1.458, 2.490e-4
-1.459, 2.561e-4
-1.460, 2.635e-4
-1.461, 2.709e-4
-1.462, 2.787e-4
-1.463, 2.861e-4
-1.464, 2.944e-4
-1.465, 3.027e-4
-1.466, 3.116e-4
-1.467, 3.201e-4
-1.468, 3.289e-4
-1.469, 3.382e-4
-1.470, 3.476e-4
-1.471, 3.573e-4
-1.472, 3.672e-4
-1.473, 3.770e-4
-1.474, 3.872e-4
-1.475, 3.977e-4
-1.476, 4.086e-4
-1.477, 4.192e-4
-1.478, 4.304e-4
-1.479, 4.417e-4
-1.480, 4.534e-4
-1.481, 4.650e-4
-1.482, 4.771e-4
-1.483, 4.895e-4
-1.484, 5.022e-4
-1.485, 5.149e-4
-1.486, 5.276e-4
-1.487, 5.416e-4
-1.488, 5.545e-4
-1.489, 5.682e-4
-1.490, 5.831e-4
-1.491, 5.979e-4
-1.492, 6.120e-4
-1.493, 6.264e-4
-1.494, 6.421e-4
-1.495, 6.572e-4
-1.496, 6.729e-4
-1.497, 6.863e-4
-1.498, 7.031e-4
-1.499, 7.194e-4
-1.500, 7.367e-4
-1.501, 7.536e-4
-1.502, 7.690e-4
-1.503, 7.864e-4
-1.504, 8.051e-4
-1.505, 8.217e-4
-1.506, 8.382e-4
-1.507, 8.573e-4
-1.508, 8.765e-4
-1.509, 8.943e-4
-1.510, 9.113e-4
-1.511, 9.318e-4
-1.512, 9.514e-4
-1.513, 9.693e-4
-1.514, 9.898e-4
-1.515, 1.009e-3
-1.516, 1.030e-3
-1.517, 1.049e-3
-1.518, 1.071e-3
-1.519, 1.090e-3
-1.520, 1.112e-3
-1.521, 1.132e-3
-1.522, 1.154e-3
-1.523, 1.176e-3
-1.524, 1.203e-3
-1.525, 1.224e-3
-1.526, 1.247e-3
-1.527, 1.269e-3
-1.528, 1.292e-3
-1.529, 1.316e-3
-1.530, 1.338e-3
-1.531, 1.360e-3
-1.532, 1.384e-3
-1.533, 1.406e-3
-1.534, 1.430e-3
-1.535, 1.449e-3
-1.536, 1.475e-3
-1.537, 1.501e-3
-1.538, 1.524e-3
-1.539, 1.546e-3
-1.540, 1.572e-3
-1.541, 1.599e-3
-1.542, 1.620e-3
-1.543, 1.645e-3
-1.544, 1.669e-3
-1.545, 1.695e-3
-1.546, 1.717e-3
-1.547, 1.745e-3
-1.548, 1.771e-3
-1.549, 1.798e-3
-1.550, 1.821e-3
-1.551, 1.844e-3
-1.552, 1.872e-3
-1.553, 1.896e-3
-1.554, 1.920e-3
-1.555, 1.948e-3
-1.556, 1.975e-3
-1.557, 2.002e-3
-1.558, 2.026e-3
-1.559, 2.048e-3
-1.560, 2.076e-3
-1.561, 2.104e-3
-1.562, 2.127e-3
-1.563, 2.151e-3
-1.564, 2.181e-3
-1.565, 2.211e-3
-1.566, 2.239e-3
-1.567, 2.272e-3
-1.568, 2.294e-3
-1.569, 2.319e-3
-1.570, 2.346e-3
-1.571, 2.368e-3
-1.572, 2.398e-3
-1.573, 2.428e-3
-1.574, 2.450e-3
-1.575, 2.475e-3
-1.576, 2.506e-3
-1.577, 2.529e-3
-1.578, 2.562e-3
-1.579, 2.589e-3
-1.580, 2.616e-3
-1.581, 2.641e-3
-1.582, 2.667e-3
-1.583, 2.694e-3
-1.584, 2.718e-3
-1.585, 2.748e-3
-1.586, 2.779e-3
-1.587, 2.806e-3
-1.588, 2.838e-3
-1.589, 2.859e-3
-1.590, 2.880e-3
-1.591, 2.905e-3
-1.592, 2.934e-3
-1.593, 2.960e-3
-1.594, 2.981e-3
-1.595, 3.008e-3
-1.596, 3.103e-3
-1.597, 3.140e-3
-1.598, 3.162e-3
-1.599, 3.185e-3
-1.600, 3.225e-3
-1.601, 3.254e-3
-1.602, 3.282e-3
-1.603, 3.305e-3
-1.604, 3.336e-3
-1.605, 3.365e-3
-1.606, 3.386e-3
-1.607, 3.436e-3
-1.608, 3.466e-3
-1.609, 3.485e-3
-1.610, 3.507e-3
-1.611, 3.531e-3
-1.612, 3.553e-3
-1.613, 3.579e-3
-1.614, 3.589e-3
-1.615, 3.621e-3
-1.616, 3.646e-3
-1.617, 3.664e-3
-1.618, 3.684e-3
-1.619, 3.711e-3
-1.620, 3.734e-3
-1.621, 3.754e-3
-1.622, 3.769e-3
-1.623, 3.797e-3
-1.624, 3.826e-3
-1.625, 3.856e-3
-1.626, 3.882e-3
-1.627, 3.881e-3
-1.628, 3.900e-3
-1.629, 3.942e-3
-1.630, 3.967e-3
-1.631, 3.985e-3
-1.632, 4.017e-3
-1.633, 4.048e-3
-1.634, 4.067e-3
-1.635, 4.099e-3
-1.636, 4.134e-3
-1.637, 4.164e-3
-1.638, 4.183e-3
-1.639, 4.220e-3
-1.640, 4.247e-3
-1.641, 4.259e-3
-1.642, 4.285e-3
-1.643, 4.300e-3
-1.644, 4.319e-3
-1.645, 4.345e-3
-1.646, 4.376e-3
-1.647, 4.401e-3
-1.648, 4.413e-3
-1.649, 4.445e-3
-1.650, 4.523e-3
-1.651, 4.577e-3
-1.652, 4.576e-3
-1.653, 4.583e-3
-1.654, 4.598e-3
-1.655, 4.614e-3
-1.656, 4.633e-3
-1.657, 4.666e-3
-1.658, 4.674e-3
-1.659, 4.703e-3
-1.660, 4.743e-3
-1.661, 4.760e-3
-1.662, 4.771e-3
-1.663, 4.782e-3
-1.664, 4.787e-3
-1.665, 4.846e-3
-1.666, 4.918e-3
-1.667, 4.952e-3
-1.668, 4.973e-3
-1.669, 4.983e-3
-1.670, 5.009e-3
-1.671, 4.988e-3
-1.672, 5.013e-3
-1.673, 5.044e-3
-1.674, 5.062e-3
-1.675, 5.080e-3
-1.676, 5.095e-3
-1.677, 5.136e-3
-1.678, 5.159e-3
-1.679, 5.169e-3
-1.680, 5.219e-3
-1.681, 5.217e-3
-1.682, 5.253e-3
-1.683, 5.284e-3
-1.684, 5.289e-3
-1.685, 5.351e-3
-1.686, 5.356e-3
-1.687, 5.361e-3
-1.688, 5.385e-3
-1.689, 5.418e-3
-1.690, 5.424e-3
-1.691, 5.441e-3
-1.692, 5.455e-3
-1.693, 5.487e-3
-1.694, 5.492e-3
-1.695, 5.495e-3
-1.696, 5.522e-3
-1.697, 5.546e-3
-1.698, 5.546e-3
-1.699, 5.588e-3
-1.700, 5.604e-3
-1.699, 5.608e-3
-1.698, 5.666e-3
-1.697, 5.648e-3
-1.696, 5.634e-3
-1.695, 5.582e-3
-1.694, 5.522e-3
-1.693, 5.506e-3
-1.692, 5.516e-3
-1.691, 5.507e-3
-1.690, 5.465e-3
-1.689, 5.409e-3
-1.688, 5.385e-3
-1.687, 5.345e-3
-1.686, 5.310e-3
-1.685, 5.252e-3
-1.684, 5.206e-3
-1.683, 5.169e-3
-1.682, 5.143e-3
-1.681, 5.079e-3
-1.680, 5.027e-3
-1.679, 4.998e-3
-1.678, 4.959e-3
-1.677, 4.894e-3
-1.676, 4.876e-3
-1.675, 4.820e-3
-1.674, 4.785e-3
-1.673, 4.751e-3
-1.672, 4.708e-3
-1.671, 4.670e-3
-1.670, 4.613e-3
-1.669, 4.574e-3
-1.668, 4.536e-3
-1.667, 4.487e-3
-1.666, 4.427e-3
-1.665, 4.386e-3
-1.664, 4.355e-3
-1.663, 4.327e-3
-1.662, 4.290e-3
-1.661, 4.246e-3
-1.660, 4.212e-3
-1.659, 4.176e-3
-1.658, 4.165e-3
-1.657, 4.120e-3
-1.656, 4.073e-3
-1.655, 4.059e-3
-1.654, 4.027e-3
-1.653, 3.997e-3
-1.652, 3.997e-3
-1.651, 3.981e-3
-1.650, 3.961e-3
-1.649, 3.928e-3
-1.648, 3.897e-3
-1.647, 3.855e-3
-1.646, 3.822e-3
-1.645, 3.790e-3
-1.644, 3.765e-3
-1.643, 3.740e-3
-1.642, 3.680e-3
-1.641, 3.656e-3
-1.640, 3.609e-3
-1.639, 3.582e-3
-1.638, 3.550e-3
-1.637, 3.517e-3
-1.636, 3.493e-3
-1.635, 3.457e-3
-1.634, 3.421e-3
-1.633, 3.381e-3
-1.632, 3.348e-3
-1.631, 3.318e-3
-1.630, 3.296e-3
-1.629, 3.264e-3
-1.628, 3.230e-3
-1.627, 3.201e-3
-1.626, 3.175e-3
-1.625, 3.147e-3
-1.624, 3.106e-3
-1.623, 3.074e-3
-1.622, 3.050e-3
-1.621, 3.006e-3
-1.620, 2.977e-3
-1.619, 2.960e-3
-1.618, 2.916e-3
-1.617, 2.885e-3
-1.616, 2.856e-3
-1.615, 2.827e-3
-1.614, 2.788e-3
-1.613, 2.755e-3
-1.612, 2.709e-3
-1.611, 2.695e-3
-1.610, 2.662e-3
-1.609, 2.635e-3
-1.608, 2.622e-3
-1.607, 2.608e-3
-1.606, 2.589e-3
-1.605, 2.566e-3
-1.604, 2.539e-3
-1.603, 2.508e-3
-1.602, 2.489e-3
-1.601, 2.466e-3
-1.600, 2.434e-3
-1.599, 2.411e-3
-1.598, 2.385e-3
-1.597, 2.360e-3
-1.596, 2.338e-3
-1.595, 2.312e-3
-1.594, 2.285e-3
-1.593, 2.262e-3
-1.592, 2.241e-3
-1.591, 2.210e-3
-1.590, 2.194e-3
-1.589, 2.176e-3
-1.588, 2.147e-3
-1.587, 2.122e-3
-1.586, 2.139e-3
-1.585, 2.125e-3
-1.584, 2.102e-3
-1.583, 2.069e-3
-1.582, 2.051e-3
-1.581, 2.029e-3
-1.580, 2.009e-3
-1.579, 1.977e-3
-1.578, 1.953e-3
-1.577, 1.928e-3
-1.576, 1.906e-3
-1.575, 1.883e-3
-1.574, 1.860e-3
-1.573, 1.833e-3
-1.572, 1.808e-3
-1.571, 1.778e-3
-1.570, 1.757e-3
-1.569, 1.732e-3
-1.568, 1.706e-3
-1.567, 1.682e-3
-1.566, 1.663e-3
-1.565, 1.639e-3
-1.564, 1.619e-3
-1.563, 1.587e-3
-1.562, 1.572e-3
-1.561, 1.549e-3
-1.560, 1.526e-3
-1.559, 1.501e-3
-1.558, 1.478e-3
-1.557, 1.464e-3
-1.556, 1.439e-3
-1.555, 1.415e-3
-1.554, 1.396e-3
-1.553, 1.373e-3
-1.552, 1.353e-3
-1.551, 1.330e-3
-1.550, 1.307e-3
-1.549, 1.290e-3
-1.548, 1.270e-3
-1.547, 1.250e-3
-1.546, 1.229e-3
-1.545, 1.212e-3
-1.544, 1.191e-3
-1.543, 1.169e-3
-1.542, 1.154e-3
-1.541, 1.130e-3
-1.540, 1.113e-3
-1.539, 1.095e-3
-1.538, 1.079e-3
-1.537, 1.063e-3
-1.536, 1.042e-3
-1.535, 1.024e-3
-1.534, 1.007e-3
-1.533, 9.922e-4
-1.532, 9.749e-4
-1.531, 9.525e-4
-1.530, 9.390e-4
-1.529, 9.236e-4
-1.528, 9.046e-4
-1.527, 8.893e-4
-1.526, 8.728e-4
-1.525, 8.564e-4
-1.524, 8.425e-4
-1.523, 8.268e-4
-1.522, 8.091e-4
-1.521, 7.942e-4
-1.520, 7.816e-4
-1.519, 7.655e-4
-1.518, 7.485e-4
-1.517, 7.364e-4
-1.516, 7.219e-4
-1.515, 7.086e-4
-1.514, 6.936e-4
-1.513, 6.808e-4
-1.512, 6.670e-4
-1.511, 6.610e-4
-1.510, 6.465e-4
-1.509, 6.328e-4
-1.508, 6.210e-4
-1.507, 6.073e-4
-1.506, 5.938e-4
-1.505, 5.830e-4
-1.504, 5.719e-4
-1.503, 5.592e-4
-1.502, 5.464e-4
-1.501, 5.351e-4
-1.500, 5.240e-4
-1.499, 5.128e-4
-1.498, 5.011e-4
-1.497, 4.902e-4
-1.496, 4.792e-4
-1.495, 4.689e-4
-1.494, 4.588e-4
-1.493, 4.483e-4
-1.492, 4.385e-4
-1.491, 4.283e-4
-1.490, 4.205e-4
-1.489, 4.113e-4
-1.488, 4.012e-4
-1.487, 3.926e-4
-1.486, 3.832e-4
-1.485, 3.736e-4
-1.484, 3.666e-4
-1.483, 3.575e-4
-1.482, 3.487e-4
-1.481, 3.404e-4
-1.480, 3.329e-4
-1.479, 3.243e-4
-1.478, 3.164e-4
-1.477, 3.090e-4
-1.476, 3.017e-4
-1.475, 2.944e-4
-1.474, 2.873e-4
-1.473, 2.805e-4
-1.472, 2.738e-4
-1.471, 2.678e-4
-1.470, 2.611e-4
-1.469, 2.546e-4
-1.468, 2.484e-4
-1.467, 2.422e-4
-1.466, 2.360e-4
-1.465, 2.304e-4
-1.464, 2.249e-4
-1.463, 2.193e-4
-1.462, 2.136e-4
-1.461, 2.083e-4
-1.460, 2.032e-4
-1.459, 1.980e-4
-1.458, 1.932e-4
-1.457, 1.881e-4
-1.456, 1.834e-4
-1.455, 1.791e-4
-1.454, 1.746e-4
-1.453, 1.702e-4
-1.452, 1.655e-4
-1.451, 1.616e-4
-1.450, 1.575e-4
-1.449, 1.534e-4
-1.448, 1.494e-4
-1.447, 1.455e-4
-1.446, 1.419e-4
-1.445, 1.383e-4
-1.444, 1.349e-4
-1.443, 1.313e-4
-1.442, 1.278e-4
-1.441, 1.245e-4
-1.440, 1.218e-4
-1.439, 1.187e-4
-1.438, 1.156e-4
-1.437, 1.126e-4
-1.436, 1.097e-4
-1.435, 1.070e-4
-1.434, 1.043e-4
-1.433, 1.016e-4
-1.432, 9.883e-5
-1.431, 9.638e-5
-1.430, 9.397e-5
-1.429, 9.166e-5
-1.428, 8.918e-5
-1.427, 8.682e-5
-1.426, 8.462e-5
-1.425, 8.249e-5
-1.424, 8.050e-5
-1.423, 7.833e-5
-1.422, 7.609e-5
-1.421, 7.414e-5
-1.420, 7.244e-5
-1.419, 7.069e-5
-1.418, 6.869e-5
-1.417, 6.676e-5
-1.416, 6.512e-5
-1.415, 6.366e-5
-1.414, 6.203e-5
-1.413, 6.032e-5
-1.412, 5.868e-5
-1.411, 5.713e-5
-1.410, 5.585e-5
-1.409, 5.452e-5
-1.408, 5.294e-5
-1.407, 5.146e-5
-1.406, 5.014e-5
-1.405, 4.900e-5
-1.404, 4.778e-5
-1.403, 4.642e-5
-1.402, 4.510e-5
-1.401, 4.395e-5
-1.400, 4.292e-5
-1.399, 4.194e-5
-1.398, 4.063e-5
-1.397, 3.954e-5
-1.396, 3.851e-5
-1.395, 3.759e-5
-1.394, 3.672e-5
-1.393, 3.558e-5
-1.392, 3.457e-5
-1.391, 3.365e-5
-1.390, 3.286e-5
-1.389, 3.208e-5
-1.388, 3.109e-5
-1.387, 3.011e-5
-1.386, 2.936e-5
-1.385, 2.864e-5
-1.384, 2.794e-5
-1.383, 2.705e-5
-1.382, 2.618e-5
-1.381, 2.550e-5
-1.380, 2.492e-5
-1.379, 2.426e-5
-1.378, 2.346e-5
-1.377, 2.265e-5
-1.376, 2.208e-5
-1.375, 2.154e-5
-1.374, 2.094e-5
-1.373, 2.028e-5
-1.372, 1.956e-5
-1.371, 1.895e-5
-1.370, 1.855e-5
-1.369, 1.802e-5
-1.368, 1.738e-5
-1.367, 1.669e-5
-1.366, 1.614e-5
-1.365, 1.582e-5
-1.364, 1.541e-5
-1.363, 1.473e-5
-1.362, 1.408e-5
-1.361, 1.360e-5
-1.360, 1.328e-5
-1.359, 1.296e-5
-1.358, 1.231e-5
-1.357, 1.176e-5
-1.356, 1.135e-5
-1.355, 1.105e-5
-1.354, 1.073e-5
-1.353, 1.015e-5
-1.352, 9.622e-6
-1.351, 9.230e-6
-1.350, 8.976e-6
-1.349, 8.845e-6
-1.348, 8.262e-6
-1.347, 7.662e-6
-1.346, 7.313e-6
-1.345, 7.114e-6
-1.344, 6.866e-6
-1.343, 6.332e-6
-1.342, 5.774e-6
-1.341, 5.486e-6
-1.340, 5.334e-6
-1.339, 5.064e-6
-1.338, 4.619e-6
-1.337, 4.036e-6
-1.336, 3.795e-6
-1.335, 3.691e-6
-1.334, 3.424e-6
-1.333, 2.959e-6
-1.332, 2.453e-6
-1.331, 2.160e-6
-1.330, 2.069e-6
-1.329, 1.807e-6
-1.328, 1.394e-6
-1.327, 8.966e-7
-1.326, 5.878e-7
-1.325, 6.529e-7
-1.324, 2.958e-7
-1.323, -1.354e-7
-1.322, -5.103e-7
-1.321, -8.003e-7
-1.320, -9.000e-7
-1.319, -1.073e-6
-1.318, -1.533e-6
-1.317, -1.864e-6
-1.316, -2.160e-6
-1.315, -2.336e-6
-1.314, -2.449e-6
-1.313, -2.919e-6
-1.312, -3.258e-6
-1.311, -3.500e-6
-1.310, -3.704e-6
-1.309, -3.761e-6
-1.308, -4.189e-6
-1.307, -4.617e-6
-1.306, -4.835e-6
-1.305, -4.976e-6
-1.304, -5.081e-6
-1.303, -5.492e-6
-1.302, -5.940e-6
-1.301, -6.104e-6
-1.300, -6.251e-6
-1.299, -6.428e-6
-1.298, -6.795e-6
-1.297, -7.213e-6
-1.296, -7.403e-6
-1.295, -7.465e-6
-1.294, -7.608e-6
-1.293, -7.955e-6
-1.292, -8.357e-6
-1.291, -8.626e-6
-1.290, -8.632e-6
-1.289, -8.773e-6
-1.288, -9.157e-6
-1.287, -9.541e-6
-1.286, -9.794e-6
-1.285, -9.797e-6
-1.284, -9.937e-6
-1.283, -1.031e-5
-1.282, -1.067e-5
-1.281, -1.092e-5
-1.280, -1.104e-5
-1.279, -1.109e-5
-1.278, -1.147e-5
-1.277, -1.180e-5
-1.276, -1.199e-5
-1.275, -1.209e-5
-1.274, -1.217e-5
-1.273, -1.258e-5
-1.272, -1.289e-5
-1.271, -1.307e-5
-1.270, -1.316e-5
-1.269, -1.322e-5
-1.268, -1.361e-5
-1.267, -1.396e-5
-1.266, -1.414e-5
-1.265, -1.419e-5
-1.264, -1.425e-5
-1.263, -1.453e-5
-1.262, -1.491e-5
-1.261, -1.504e-5
-1.260, -1.510e-5
-1.259, -1.514e-5
-1.258, -1.549e-5
-1.257, -1.589e-5
-1.256, -1.598e-5
-1.255, -1.594e-5
-1.254, -1.609e-5
-1.253, -1.642e-5
-1.252, -1.662e-5
-1.251, -1.684e-5
-1.250, -1.679e-5
-1.249, -1.689e-5
-1.248, -1.711e-5
-1.247, -1.745e-5
-1.246, -1.759e-5
-1.245, -1.750e-5
-1.244, -1.759e-5
-1.243, -1.787e-5
-1.242, -1.816e-5
-1.241, -1.832e-5
-1.240, -1.827e-5
-1.239, -1.829e-5
-1.238, -1.857e-5
-1.237, -1.883e-5
-1.236, -1.888e-5
-1.235, -1.887e-5
-1.234, -1.890e-5
-1.233, -1.915e-5
-1.232, -1.937e-5
-1.231, -1.950e-5
-1.230, -1.940e-5
-1.229, -1.955e-5
-1.228, -1.973e-5
-1.227, -1.995e-5
-1.226, -2.006e-5
-1.225, -1.995e-5
-1.224, -1.989e-5
-1.223, -2.016e-5
-1.222, -2.041e-5
-1.221, -2.040e-5
-1.220, -2.032e-5
-1.219, -2.033e-5
-1.218, -2.053e-5
-1.217, -2.078e-5
-1.216, -2.076e-5
-1.215, -2.069e-5
-1.214, -2.070e-5
-1.213, -2.084e-5
-1.212, -2.107e-5
-1.211, -2.111e-5
-1.210, -2.095e-5
-1.209, -2.099e-5
-1.208, -2.111e-5
-1.207, -2.133e-5
-1.206, -2.137e-5
-1.205, -2.125e-5
-1.204, -2.120e-5
-1.203, -2.141e-5
-1.202, -2.155e-5
-1.201, -2.167e-5
-1.200, -2.149e-5
-1.199, -2.141e-5
-1.198, -2.166e-5
-1.197, -2.179e-5
-1.196, -2.185e-5
-1.195, -2.169e-5
-1.194, -2.166e-5
-1.193, -2.184e-5
-1.192, -2.198e-5
-1.191, -2.204e-5
-1.190, -2.192e-5
-1.189, -2.186e-5
-1.188, -2.199e-5
-1.187, -2.220e-5
-1.186, -2.221e-5
-1.185, -2.210e-5
-1.184, -2.197e-5
-1.183, -2.221e-5
-1.182, -2.243e-5
-1.181, -2.231e-5
-1.180, -2.223e-5
-1.179, -2.218e-5
-1.178, -2.242e-5
-1.177, -2.257e-5
-1.176, -2.254e-5
-1.175, -2.239e-5
-1.174, -2.238e-5
-1.173, -2.247e-5
-1.172, -2.267e-5
-1.171, -2.271e-5
-1.170, -2.252e-5
-1.169, -2.247e-5
-1.168, -2.260e-5
-1.167, -2.283e-5
-1.166, -2.284e-5
-1.165, -2.263e-5
-1.164, -2.264e-5
-1.163, -2.277e-5
-1.162, -2.290e-5
-1.161, -2.298e-5
-1.160, -2.276e-5
-1.159, -2.269e-5
-1.158, -2.290e-5
-1.157, -2.301e-5
-1.156, -2.302e-5
-1.155, -2.288e-5
-1.154, -2.279e-5
-1.153, -2.294e-5
-1.152, -2.314e-5
-1.151, -2.309e-5
-1.150, -2.298e-5
-1.149, -2.288e-5
-1.148, -2.299e-5
-1.147, -2.320e-5
-1.146, -2.316e-5
-1.145, -2.306e-5
-1.144, -2.289e-5
-1.143, -2.305e-5
-1.142, -2.329e-5
-1.141, -2.295e-5
-1.140, -2.300e-5
-1.139, -2.306e-5
-1.138, -2.311e-5
-1.137, -2.336e-5
-1.136, -2.326e-5
-1.135, -2.307e-5
-1.134, -2.303e-5
-1.133, -2.316e-5
-1.132, -2.329e-5
-1.131, -2.328e-5
-1.130, -2.311e-5
-1.129, -2.304e-5
-1.128, -2.310e-5
-1.127, -2.330e-5
-1.126, -2.328e-5
-1.125, -2.313e-5
-1.124, -2.300e-5
-1.123, -2.314e-5
-1.122, -2.329e-5
-1.121, -2.326e-5
-1.120, -2.306e-5
-1.119, -2.297e-5
-1.118, -2.315e-5
-1.117, -2.324e-5
-1.116, -2.320e-5
-1.115, -2.304e-5
-1.114, -2.289e-5
-1.113, -2.309e-5
-1.112, -2.319e-5
-1.111, -2.315e-5
-1.110, -2.306e-5
-1.109, -2.290e-5
-1.108, -2.303e-5
-1.107, -2.322e-5
-1.106, -2.314e-5
-1.105, -2.301e-5
-1.104, -2.286e-5
-1.103, -2.301e-5
-1.102, -2.322e-5
-1.101, -2.315e-5
-1.100, -2.301e-5
-1.099, -2.292e-5
-1.098, -2.304e-5
-1.097, -2.321e-5
-1.096, -2.309e-5
-1.095, -2.299e-5
-1.094, -2.297e-5
-1.093, -2.301e-5
-1.092, -2.321e-5
-1.091, -2.324e-5
-1.090, -2.302e-5
-1.089, -2.301e-5
-1.088, -2.307e-5
-1.087, -2.325e-5
-1.086, -2.329e-5
-1.085, -2.301e-5
-1.084, -2.299e-5
-1.083, -2.320e-5
-1.082, -2.327e-5
-1.081, -2.335e-5
-1.080, -2.312e-5
-1.079, -2.304e-5
-1.078, -2.327e-5
-1.077, -2.332e-5
-1.076, -2.337e-5
-1.075, -2.324e-5
-1.074, -2.311e-5
-1.073, -2.331e-5
-1.072, -2.342e-5
-1.071, -2.340e-5
-1.070, -2.329e-5
-1.069, -2.310e-5
-1.068, -2.324e-5
-1.067, -2.350e-5
-1.066, -2.342e-5
-1.065, -2.329e-5
-1.064, -2.316e-5
-1.063, -2.333e-5
-1.062, -2.353e-5
-1.061, -2.341e-5
-1.060, -2.332e-5
-1.059, -2.327e-5
-1.058, -2.330e-5
-1.057, -2.358e-5
-1.056, -2.347e-5
-1.055, -2.334e-5
-1.054, -2.329e-5
-1.053, -2.337e-5
-1.052, -2.359e-5
-1.051, -2.354e-5
-1.050, -2.339e-5
-1.049, -2.330e-5
-1.048, -2.342e-5
-1.047, -2.368e-5
-1.046, -2.363e-5
-1.045, -2.338e-5
-1.044, -2.335e-5
-1.043, -2.352e-5
-1.042, -2.370e-5
-1.041, -2.372e-5
-1.040, -2.344e-5
-1.039, -2.337e-5
-1.038, -2.357e-5
-1.037, -2.374e-5
-1.036, -2.376e-5
-1.035, -2.357e-5
-1.034, -2.342e-5
-1.033, -2.365e-5
-1.032, -2.375e-5
-1.031, -2.381e-5
-1.030, -2.366e-5
-1.029, -2.350e-5
-1.028, -2.365e-5
-1.027, -2.387e-5
-1.026, -2.383e-5
-1.025, -2.369e-5
-1.024, -2.366e-5
-1.023, -2.373e-5
-1.022, -2.399e-5
-1.021, -2.392e-5
-1.020, -2.375e-5
-1.019, -2.371e-5
-1.018, -2.372e-5
-1.017, -2.408e-5
-1.016, -2.395e-5
-1.015, -2.379e-5
-1.014, -2.377e-5
-1.013, -2.380e-5
-1.012, -2.404e-5
-1.011, -2.409e-5
-1.010, -2.384e-5
-1.009, -2.380e-5
-1.008, -2.392e-5
-1.007, -2.411e-5
-1.006, -2.417e-5
-1.005, -2.389e-5
-1.004, -2.385e-5
-1.003, -2.403e-5
-1.002, -2.416e-5
-1.001, -2.427e-5
-1.000, -1.306e-5
-1.001, -5.950e-6
-1.002, -3.600e-6
-1.003, -2.241e-6
-1.004, -9.118e-7
-1.005, 2.849e-7
-1.006, 1.223e-6
-1.007, 1.898e-6
-1.008, 2.335e-6
-1.009, 3.002e-6
-1.010, 3.749e-6
-1.011, 4.316e-6
-1.012, 4.710e-6
-1.013, 4.914e-6
-1.014, 5.356e-6
-1.015, 5.933e-6
-1.016, 6.352e-6
-1.017, 6.542e-6
-1.018, 6.685e-6
-1.019, 6.956e-6
-1.020, 7.484e-6
-1.021, 7.790e-6
-1.022, 7.875e-6
-1.023, 7.979e-6
-1.024, 8.181e-6
-1.025, 8.662e-6
-1.026, 8.913e-6
-1.027, 8.903e-6
-1.028, 8.967e-6
-1.029, 9.134e-6
-1.030, 9.470e-6
-1.031, 9.804e-6
-1.032, 9.699e-6
-1.033, 9.707e-6
-1.034, 9.895e-6
-1.035, 1.018e-5
-1.036, 1.048e-5
-1.037, 1.039e-5
-1.038, 1.029e-5
-1.039, 1.053e-5
-1.040, 1.074e-5
-1.041, 1.096e-5
-1.042, 1.095e-5
-1.043, 1.081e-5
-1.044, 1.101e-5
-1.045, 1.125e-5
-1.046, 1.139e-5
-1.047, 1.139e-5
-1.048, 1.127e-5
-1.049, 1.138e-5
-1.050, 1.170e-5
-1.051, 1.180e-5
-1.052, 1.177e-5
-1.053, 1.163e-5
-1.054, 1.176e-5
-1.055, 1.201e-5
-1.056, 1.210e-5
-1.057, 1.209e-5
-1.058, 1.197e-5
-1.059, 1.204e-5
-1.060, 1.232e-5
-1.061, 1.244e-5
-1.062, 1.236e-5
-1.063, 1.229e-5
-1.064, 1.232e-5
-1.065, 1.258e-5
-1.066, 1.271e-5
-1.067, 1.260e-5
-1.068, 1.252e-5
-1.069, 1.261e-5
-1.070, 1.283e-5
-1.071, 1.300e-5
-1.072, 1.282e-5
-1.073, 1.276e-5
-1.074, 1.286e-5
-1.075, 1.312e-5
-1.076, 1.325e-5
-1.077, 1.307e-5
-1.078, 1.299e-5
-1.079, 1.313e-5
-1.080, 1.328e-5
-1.081, 1.343e-5
-1.082, 1.336e-5
-1.083, 1.324e-5
-1.084, 1.333e-5
-1.085, 1.354e-5
-1.086, 1.362e-5
-1.087, 1.359e-5
-1.088, 1.345e-5
-1.089, 1.354e-5
-1.090, 1.381e-5
-1.091, 1.385e-5
-1.092, 1.379e-5
-1.093, 1.370e-5
-1.094, 1.378e-5
-1.095, 1.411e-5
-1.096, 1.411e-5
-1.097, 1.406e-5
-1.098, 1.394e-5
-1.099, 1.404e-5
-1.100, 1.433e-5
-1.101, 1.441e-5
-1.102, 1.431e-5
-1.103, 1.424e-5
-1.104, 1.430e-5
-1.105, 1.457e-5
-1.106, 1.472e-5
-1.107, 1.456e-5
-1.108, 1.453e-5
-1.109, 1.462e-5
-1.110, 1.483e-5
-1.111, 1.502e-5
-1.112, 1.489e-5
-1.113, 1.479e-5
-1.114, 1.496e-5
-1.115, 1.515e-5
-1.116, 1.531e-5
-1.117, 1.520e-5
-1.118, 1.509e-5
-1.119, 1.527e-5
-1.120, 1.546e-5
-1.121, 1.560e-5
-1.122, 1.556e-5
-1.123, 1.542e-5
-1.124, 1.556e-5
-1.125, 1.583e-5
-1.126, 1.591e-5
-1.127, 1.594e-5
-1.128, 1.579e-5
-1.129, 1.592e-5
-1.130, 1.620e-5
-1.131, 1.627e-5
-1.132, 1.626e-5
-1.133, 1.616e-5
-1.134, 1.628e-5
-1.135, 1.658e-5
-1.136, 1.665e-5
-1.137, 1.662e-5
-1.138, 1.657e-5
-1.139, 1.669e-5
-1.140, 1.700e-5
-1.141, 1.706e-5
-1.142, 1.698e-5
-1.143, 1.699e-5
-1.144, 1.710e-5
-1.145, 1.735e-5
-1.146, 1.754e-5
-1.147, 1.741e-5
-1.148, 1.738e-5
-1.149, 1.749e-5
-1.150, 1.779e-5
-1.151, 1.794e-5
-1.152, 1.782e-5
-1.153, 1.781e-5
-1.154, 1.797e-5
-1.155, 1.821e-5
-1.156, 1.837e-5
-1.157, 1.829e-5
-1.158, 1.823e-5
-1.159, 1.841e-5
-1.160, 1.863e-5
-1.161, 1.877e-5
-1.162, 1.880e-5
-1.163, 1.867e-5
-1.164, 1.883e-5
-1.165, 1.909e-5
-1.166, 1.927e-5
-1.167, 1.923e-5
-1.168, 1.915e-5
-1.169, 1.931e-5
-1.170, 1.959e-5
-1.171, 1.972e-5
-1.172, 1.969e-5
-1.173, 1.964e-5
-1.174, 1.972e-5
-1.175, 2.008e-5
-1.176, 2.017e-5
-1.177, 2.014e-5
-1.178, 2.014e-5
-1.179, 2.020e-5
-1.180, 2.050e-5
-1.181, 2.058e-5
-1.182, 2.053e-5
-1.183, 2.051e-5
-1.184, 2.060e-5
-1.185, 2.090e-5
-1.186, 2.100e-5
-1.187, 2.087e-5
-1.188, 2.081e-5
-1.189, 2.099e-5
-1.190, 2.122e-5
-1.191, 2.135e-5
-1.192, 2.123e-5
-1.193, 2.119e-5
-1.194, 2.127e-5
-1.195, 2.151e-5
-1.196, 2.167e-5
-1.197, 2.153e-5
-1.198, 2.142e-5
-1.199, 2.167e-5
-1.200, 2.182e-5
-1.201, 2.199e-5
-1.202, 2.187e-5
-1.203, 2.176e-5
-1.204, 2.191e-5
-1.205, 2.211e-5
-1.206, 2.216e-5
-1.207, 2.210e-5
-1.208, 2.197e-5
-1.209, 2.209e-5
-1.210, 2.232e-5
-1.211, 2.239e-5
-1.212, 2.229e-5
-1.213, 2.217e-5
-1.214, 2.226e-5
-1.215, 2.249e-5
-1.216, 2.252e-5
-1.217, 2.242e-5
-1.218, 2.236e-5
-1.219, 2.236e-5
-1.220, 2.264e-5
-1.221, 2.266e-5
-1.222, 2.253e-5
-1.223, 2.242e-5
-1.224, 2.254e-5
-1.225, 2.271e-5
-1.226, 2.279e-5
-1.227, 2.258e-5
-1.228, 2.259e-5
-1.229, 2.274e-5
-1.230, 2.285e-5
-1.231, 2.289e-5
-1.232, 2.269e-5
-1.233, 2.258e-5
-1.234, 2.272e-5
-1.235, 2.289e-5
-1.236, 2.295e-5
-1.237, 2.280e-5
-1.238, 2.266e-5
-1.239, 2.282e-5
-1.240, 2.294e-5
-1.241, 2.305e-5
-1.242, 2.290e-5
-1.243, 2.276e-5
-1.244, 2.289e-5
-1.245, 2.306e-5
-1.246, 2.320e-5
-1.247, 2.306e-5
-1.248, 2.290e-5
-1.249, 2.301e-5
-1.250, 2.325e-5
-1.251, 2.329e-5
-1.252, 2.321e-5
-1.253, 2.308e-5
-1.254, 2.319e-5
-1.255, 2.347e-5
-1.256, 2.346e-5
-1.257, 2.334e-5
-1.258, 2.331e-5
-1.259, 2.338e-5
-1.260, 2.366e-5
-1.261, 2.371e-5
-1.262, 2.358e-5
-1.263, 2.352e-5
-1.264, 2.365e-5
-1.265, 2.388e-5
-1.266, 2.398e-5
-1.267, 2.387e-5
-1.268, 2.380e-5
-1.269, 2.394e-5
-1.270, 2.418e-5
-1.271, 2.429e-5
-1.272, 2.414e-5
-1.273, 2.406e-5
-1.274, 2.429e-5
-1.275, 2.449e-5
-1.276, 2.458e-5
-1.277, 2.449e-5
-1.278, 2.446e-5
-1.279, 2.469e-5
-1.280, 2.498e-5
-1.281, 2.499e-5
-1.282, 2.491e-5
-1.283, 2.484e-5
-1.284, 2.511e-5
-1.285, 2.532e-5
-1.286, 2.543e-5
-1.287, 2.541e-5
-1.288, 2.532e-5
-1.289, 2.555e-5
-1.290, 2.582e-5
-1.291, 2.592e-5
-1.292, 2.590e-5
-1.293, 2.587e-5
-1.294, 2.603e-5
-1.295, 2.635e-5
-1.296, 2.646e-5
-1.297, 2.641e-5
-1.298, 2.640e-5
-1.299, 2.662e-5
-1.300, 2.696e-5
-1.301, 2.703e-5
-1.302, 2.699e-5
-1.303, 2.702e-5
-1.304, 2.720e-5
-1.305, 2.752e-5
-1.306, 2.764e-5
-1.307, 2.756e-5
-1.308, 2.763e-5
-1.309, 2.783e-5
-1.310, 2.817e-5
-1.311, 2.831e-5
-1.312, 2.828e-5
-1.313, 2.828e-5
-1.314, 2.855e-5
-1.315, 2.884e-5
-1.316, 2.899e-5
-1.317, 2.896e-5
-1.318, 2.894e-5
-1.319, 2.929e-5
-1.320, 2.954e-5
-1.321, 2.968e-5
-1.322, 2.970e-5
-1.323, 2.972e-5
-1.324, 2.998e-5
-1.325, 3.027e-5
-1.326, 3.041e-5
-1.327, 3.046e-5
-1.328, 3.042e-5
-1.329, 3.071e-5
-1.330, 3.107e-5
-1.331, 3.120e-5
-1.332, 3.113e-5
-1.333, 3.119e-5
-1.334, 3.144e-5
-1.335, 3.179e-5
-1.336, 3.182e-5
-1.337, 3.184e-5
-1.338, 3.191e-5
-1.339, 3.212e-5
-1.340, 3.246e-5
-1.341, 3.253e-5
-1.342, 3.251e-5
-1.343, 3.263e-5
-1.344, 3.278e-5
-1.345, 3.311e-5
-1.346, 3.325e-5
-1.347, 3.317e-5
-1.348, 3.322e-5
-1.349, 3.349e-5
-1.350, 3.371e-5
-1.351, 3.388e-5
-1.352, 3.380e-5
-1.353, 3.387e-5
-1.354, 3.412e-5
-1.355, 3.439e-5
-1.356, 3.455e-5
-1.357, 3.452e-5
-1.358, 3.456e-5
-1.359, 3.485e-5
-1.360, 3.521e-5
-1.361, 3.534e-5
-1.362, 3.539e-5
-1.363, 3.549e-5
-1.364, 3.584e-5
-1.365, 3.624e-5
-1.366, 3.639e-5
-1.367, 3.649e-5
-1.368, 3.655e-5
-1.369, 3.705e-5
-1.370, 3.754e-5
-1.371, 3.767e-5
-1.372, 3.782e-5
-1.373, 3.803e-5
-1.374, 3.843e-5
-1.375, 3.896e-5
-1.376, 3.921e-5
-1.377, 3.943e-5
-1.378, 3.975e-5
-1.379, 4.023e-5
-1.380, 4.083e-5
-1.381, 4.117e-5
-1.382, 4.156e-5
-1.383, 4.193e-5
-1.384, 4.251e-5
-1.385, 4.321e-5
-1.386, 4.377e-5
-1.387, 4.414e-5
-1.388, 4.470e-5
-1.389, 4.547e-5
-1.390, 4.623e-5
-1.391, 4.692e-5
-1.392, 4.737e-5
-1.393, 4.820e-5
-1.394, 4.902e-5
-1.395, 4.996e-5
-1.396, 5.079e-5
-1.397, 5.146e-5
-1.398, 5.225e-5
-1.399, 5.339e-5
-1.400, 5.447e-5
-1.401, 5.539e-5
-1.402, 5.635e-5
-1.403, 5.734e-5
-1.404, 5.857e-5
-1.405, 5.981e-5
-1.406, 6.093e-5
-1.407, 6.218e-5
-1.408, 6.329e-5
-1.409, 6.472e-5
-1.410, 6.625e-5
-1.411, 6.758e-5
-1.412, 6.890e-5
-1.413, 7.035e-5
-1.414, 7.208e-5
-1.415, 7.379e-5
-1.416, 7.548e-5
-1.417, 7.702e-5
-1.418, 7.887e-5
-1.419, 8.076e-5
-1.420, 8.288e-5
-1.421, 8.486e-5
-1.422, 8.679e-5
-1.423, 8.887e-5
-1.424, 9.120e-5
-1.425, 9.361e-5
-1.426, 9.589e-5
-1.427, 9.817e-5
-1.428, 1.007e-4
-1.429, 1.033e-4
-1.430, 1.062e-4
-1.431, 1.090e-4
-1.432, 1.117e-4
-1.433, 1.146e-4
-1.434, 1.178e-4
-1.435, 1.209e-4
-1.436, 1.241e-4
-1.437, 1.272e-4
-1.438, 1.307e-4
-1.439, 1.345e-4
-1.440, 1.381e-4
-1.441, 1.419e-4
-1.442, 1.456e-4
-1.443, 1.496e-4
-1.444, 1.538e-4
-1.445, 1.582e-4
-1.446, 1.625e-4
-1.447, 1.670e-4
-1.448, 1.715e-4
-1.449, 1.762e-4
-1.450, 1.815e-4
-1.451, 1.864e-4
-1.452, 1.912e-4
-1.453, 1.965e-4
-1.454, 2.021e-4
-1.455, 2.077e-4
-1.456, 2.132e-4
-1.457, 2.186e-4
-1.458, 2.251e-4
-1.459, 2.311e-4
-1.460, 2.376e-4
-1.461, 2.441e-4
-1.462, 2.514e-4
-1.463, 2.575e-4
-1.464, 2.642e-4
-1.465, 2.715e-4
-1.466, 2.784e-4
-1.467, 2.854e-4
-1.468, 2.928e-4
-1.469, 3.008e-4
-1.470, 3.090e-4
-1.471, 3.169e-4
-1.472, 3.250e-4
-1.473, 3.335e-4
-1.474, 3.419e-4
-1.475, 3.506e-4
-1.476, 3.597e-4
-1.477, 3.677e-4
-1.478, 3.777e-4
-1.479, 3.866e-4
-1.480, 3.968e-4
-1.481, 4.065e-4
-1.482, 4.164e-4
-1.483, 4.260e-4
-1.484, 4.367e-4
-1.485, 4.461e-4
-1.486, 4.579e-4
-1.487, 4.685e-4
-1.488, 4.784e-4
-1.489, 4.909e-4
-1.490, 5.019e-4
-1.491, 5.141e-4
-1.492, 5.255e-4
-1.493, 5.359e-4
-1.494, 5.495e-4
-1.495, 5.620e-4
-1.496, 5.727e-4
-1.497, 5.852e-4
-1.498, 5.988e-4
-1.499, 6.115e-4
-1.500, 6.247e-4
-1.501, 6.389e-4
-1.502, 6.528e-4
-1.503, 6.653e-4
-1.504, 6.783e-4
-1.505, 6.935e-4
-1.506, 7.075e-4
-1.507, 7.222e-4
-1.508, 7.343e-4
-1.509, 7.517e-4
-1.510, 7.665e-4
-1.511, 7.787e-4
-1.512, 7.974e-4
-1.513, 8.125e-4
-1.514, 8.260e-4
-1.515, 8.421e-4
-1.516, 8.570e-4
-1.517, 8.737e-4
-1.518, 8.917e-4
-1.519, 9.039e-4
-1.520, 9.206e-4
-1.521, 9.377e-4
-1.522, 9.554e-4
-1.523, 9.741e-4
-1.524, 9.877e-4
-1.525, 1.006e-3
-1.526, 1.023e-3
-1.527, 1.039e-3
-1.528, 1.057e-3
-1.529, 1.075e-3
-1.530, 1.092e-3
-1.531, 1.108e-3
-1.532, 1.129e-3
-1.533, 1.147e-3
-1.534, 1.165e-3
-1.535, 1.182e-3
-1.536, 1.199e-3
-1.537, 1.223e-3
-1.538, 1.241e-3
-1.539, 1.258e-3
-1.540, 1.273e-3
-1.541, 1.301e-3
-1.542, 1.322e-3
-1.543, 1.339e-3
-1.544, 1.358e-3
-1.545, 1.382e-3
-1.546, 1.396e-3
-1.547, 1.420e-3
-1.548, 1.441e-3
-1.549, 1.460e-3
-1.550, 1.476e-3
-1.551, 1.498e-3
-1.552, 1.521e-3
-1.553, 1.545e-3
-1.554, 1.562e-3
-1.555, 1.581e-3
-1.556, 1.606e-3
-1.557, 1.627e-3
-1.558, 1.648e-3
-1.559, 1.665e-3
-1.560, 1.691e-3
-1.561, 1.708e-3
-1.562, 1.730e-3
-1.563, 1.747e-3
-1.564, 1.771e-3
-1.565, 1.795e-3
-1.566, 1.815e-3
-1.567, 1.833e-3
-1.568, 1.857e-3
-1.569, 1.880e-3
-1.570, 1.895e-3
-1.571, 1.925e-3
-1.572, 1.946e-3
-1.573, 1.964e-3
-1.574, 1.980e-3
-1.575, 1.999e-3
-1.576, 2.027e-3
-1.577, 2.045e-3
-1.578, 2.059e-3
-1.579, 2.088e-3
-1.580, 2.110e-3
-1.581, 2.124e-3
-1.582, 2.146e-3
-1.583, 2.175e-3
-1.584, 2.201e-3
-1.585, 2.219e-3
-1.586, 2.226e-3
-1.587, 2.252e-3
-1.588, 2.283e-3
-1.589, 2.301e-3
-1.590, 2.323e-3
-1.591, 2.355e-3
-1.592, 2.396e-3
-1.593, 2.417e-3
-1.594, 2.437e-3
-1.595, 2.460e-3
-1.596, 2.488e-3
-1.597, 2.512e-3
-1.598, 2.524e-3
-1.599, 2.551e-3
-1.600, 2.572e-3
-1.601, 2.597e-3
-1.602, 2.619e-3
-1.603, 2.631e-3
-1.604, 2.654e-3
-1.605, 2.674e-3
-1.606, 2.692e-3
-1.607, 2.708e-3
-1.608, 2.738e-3
-1.609, 2.772e-3
-1.610, 2.808e-3
-1.611, 2.837e-3
-1.612, 2.877e-3
-1.613, 2.894e-3
-1.614, 2.919e-3
-1.615, 2.935e-3
-1.616, 2.957e-3
-1.617, 2.975e-3
-1.618, 3.013e-3
-1.619, 3.037e-3
-1.620, 3.063e-3
-1.621, 3.076e-3
-1.622, 3.096e-3
-1.623, 3.119e-3
-1.624, 3.140e-3
-1.625, 3.170e-3
-1.626, 3.182e-3
-1.627, 3.204e-3
-1.628, 3.229e-3
-1.629, 3.246e-3
-1.630, 3.272e-3
-1.631, 3.279e-3
-1.632, 3.297e-3
-1.633, 3.317e-3
-1.634, 3.338e-3
-1.635, 3.357e-3
-1.636, 3.363e-3
-1.637, 3.380e-3
-1.638, 3.394e-3
-1.639, 3.411e-3
-1.640, 3.430e-3
-1.641, 3.444e-3
-1.642, 3.460e-3
-1.643, 3.474e-3
-1.644, 3.484e-3
-1.645, 3.509e-3
-1.646, 3.541e-3
-1.647, 3.573e-3
-1.648, 3.590e-3
-1.649, 3.612e-3
-1.650, 3.626e-3
-1.651, 3.659e-3
-1.652, 3.674e-3
-1.653, 3.700e-3
-1.654, 3.730e-3
-1.655, 3.757e-3
-1.656, 3.784e-3
-1.657, 3.798e-3
-1.658, 3.809e-3
-1.659, 3.829e-3
-1.660, 3.908e-3
-1.661, 3.947e-3
-1.662, 3.976e-3
-1.663, 4.001e-3
-1.664, 4.013e-3
-1.665, 4.044e-3
-1.666, 4.073e-3
-1.667, 4.084e-3
-1.668, 4.108e-3
-1.669, 4.134e-3
-1.670, 4.158e-3
-1.671, 4.221e-3
-1.672, 4.239e-3
-1.673, 4.313e-3
-1.674, 4.303e-3
-1.675, 4.354e-3
-1.676, 4.362e-3
-1.677, 4.380e-3
-1.678, 4.411e-3
-1.679, 4.434e-3
-1.680, 4.452e-3
-1.681, 4.471e-3
-1.682, 4.455e-3
-1.683, 4.501e-3
-1.684, 4.532e-3
-1.685, 4.526e-3
-1.686, 4.548e-3
-1.687, 4.565e-3
-1.688, 4.551e-3
-1.689, 4.607e-3
-1.690, 4.659e-3
-1.691, 4.650e-3
-1.692, 4.657e-3
-1.693, 4.676e-3
-1.694, 4.687e-3
-1.695, 4.684e-3
-1.696, 4.689e-3
-1.697, 4.757e-3
-1.698, 4.794e-3
-1.699, 4.809e-3
-1.700, 4.833e-3
-1.699, 4.828e-3
-1.698, 4.790e-3
-1.697, 4.747e-3
-1.696, 4.728e-3
-1.695, 4.682e-3
-1.694, 4.664e-3
-1.693, 4.597e-3
-1.692, 4.557e-3
-1.691, 4.530e-3
-1.690, 4.518e-3
-1.689, 4.489e-3
-1.688, 4.433e-3
-1.687, 4.421e-3
-1.686, 4.354e-3
-1.685, 4.327e-3
-1.684, 4.299e-3
-1.683, 4.244e-3
-1.682, 4.215e-3
-1.681, 4.188e-3
-1.680, 4.189e-3
-1.679, 4.174e-3
-1.678, 4.127e-3
-1.677, 4.108e-3
-1.676, 4.068e-3
-1.675, 4.034e-3
-1.674, 3.987e-3
-1.673, 3.960e-3
-1.672, 3.922e-3
-1.671, 3.913e-3
-1.670, 3.860e-3
-1.669, 3.840e-3
-1.668, 3.811e-3
-1.667, 3.786e-3
-1.666, 3.797e-3
-1.665, 3.778e-3
-1.664, 3.758e-3
-1.663, 3.741e-3
-1.662, 3.720e-3
-1.661, 3.687e-3
-1.660, 3.645e-3
-1.659, 3.619e-3
-1.658, 3.599e-3
-1.657, 3.575e-3
-1.656, 3.534e-3
-1.655, 3.518e-3
-1.654, 3.502e-3
-1.653, 3.467e-3
-1.652, 3.437e-3
-1.651, 3.427e-3
-1.650, 3.416e-3
-1.649, 3.401e-3
-1.648, 3.370e-3
-1.647, 3.330e-3
-1.646, 3.306e-3
-1.645, 3.267e-3
-1.644, 3.229e-3
-1.643, 3.268e-3
-1.642, 3.224e-3
-1.641, 3.228e-3
-1.640, 3.195e-3
-1.639, 3.189e-3
-1.638, 3.169e-3
-1.637, 3.133e-3
-1.636, 3.108e-3
-1.635, 3.078e-3
-1.634, 3.046e-3
-1.633, 2.989e-3
-1.632, 2.995e-3
-1.631, 2.964e-3
-1.630, 2.935e-3
-1.629, 2.908e-3
-1.628, 2.879e-3
-1.627, 2.862e-3
-1.626, 2.829e-3
-1.625, 2.807e-3
-1.624, 2.778e-3
-1.623, 2.733e-3
-1.622, 2.715e-3
-1.621, 2.698e-3
-1.620, 2.664e-3
-1.619, 2.633e-3
-1.618, 2.610e-3
-1.617, 2.581e-3
-1.616, 2.555e-3
-1.615, 2.555e-3
-1.614, 2.516e-3
-1.613, 2.512e-3
-1.612, 2.487e-3
-1.611, 2.456e-3
-1.610, 2.425e-3
-1.609, 2.416e-3
-1.608, 2.381e-3
-1.607, 2.357e-3
-1.606, 2.332e-3
-1.605, 2.308e-3
-1.604, 2.275e-3
-1.603, 2.261e-3
-1.602, 2.250e-3
-1.601, 2.221e-3
-1.600, 2.199e-3
-1.599, 2.177e-3
-1.598, 2.156e-3
-1.597, 2.130e-3
-1.596, 2.113e-3
-1.595, 2.089e-3
-1.594, 2.061e-3
-1.593, 2.036e-3
-1.592, 2.036e-3
-1.591, 2.008e-3
-1.590, 1.981e-3
-1.589, 1.965e-3
-1.588, 1.922e-3
-1.587, 1.911e-3
-1.586, 1.887e-3
-1.585, 1.866e-3
-1.584, 1.848e-3
-1.583, 1.828e-3
-1.582, 1.804e-3
-1.581, 1.772e-3
-1.580, 1.759e-3
-1.579, 1.729e-3
-1.578, 1.724e-3
-1.577, 1.695e-3
-1.576, 1.672e-3
-1.575, 1.654e-3
-1.574, 1.632e-3
-1.573, 1.612e-3
-1.572, 1.585e-3
-1.571, 1.562e-3
-1.570, 1.545e-3
-1.569, 1.521e-3
-1.568, 1.503e-3
-1.567, 1.519e-3
-1.566, 1.490e-3
-1.565, 1.480e-3
-1.564, 1.457e-3
-1.563, 1.427e-3
-1.562, 1.409e-3
-1.561, 1.420e-3
-1.560, 1.389e-3
-1.559, 1.368e-3
-1.558, 1.350e-3
-1.557, 1.325e-3
-1.556, 1.304e-3
-1.555, 1.285e-3
-1.554, 1.269e-3
-1.553, 1.249e-3
-1.552, 1.230e-3
-1.551, 1.207e-3
-1.550, 1.191e-3
-1.549, 1.173e-3
-1.548, 1.160e-3
-1.547, 1.138e-3
-1.546, 1.117e-3
-1.545, 1.100e-3
-1.544, 1.088e-3
-1.543, 1.067e-3
-1.542, 1.057e-3
-1.541, 1.034e-3
-1.540, 1.020e-3
-1.539, 1.009e-3
-1.538, 9.824e-4
-1.537, 9.721e-4
-1.536, 9.557e-4
-1.535, 9.412e-4
-1.534, 9.216e-4
-1.533, 9.118e-4
-1.532, 8.933e-4
-1.531, 8.777e-4
-1.530, 8.666e-4
-1.529, 8.492e-4
-1.528, 8.344e-4
-1.527, 8.212e-4
-1.526, 8.075e-4
-1.525, 7.947e-4
-1.524, 7.795e-4
-1.523, 7.660e-4
-1.522, 7.519e-4
-1.521, 7.392e-4
-1.520, 7.264e-4
-1.519, 7.100e-4
-1.518, 6.999e-4
-1.517, 6.823e-4
-1.516, 6.709e-4
-1.515, 6.584e-4
-1.514, 6.448e-4
-1.513, 6.323e-4
-1.512, 6.183e-4
-1.511, 6.080e-4
-1.510, 5.955e-4
-1.509, 5.862e-4
-1.508, 5.724e-4
-1.507, 5.597e-4
-1.506, 5.482e-4
-1.505, 5.361e-4
-1.504, 5.254e-4
-1.503, 5.154e-4
-1.502, 5.044e-4
-1.501, 4.926e-4
-1.500, 4.838e-4
-1.499, 4.716e-4
-1.498, 4.615e-4
-1.497, 4.516e-4
-1.496, 4.431e-4
-1.495, 4.324e-4
-1.494, 4.206e-4
-1.493, 4.129e-4
-1.492, 4.046e-4
-1.491, 3.966e-4
-1.490, 3.879e-4
-1.489, 3.794e-4
-1.488, 3.709e-4
-1.487, 3.617e-4
-1.486, 3.539e-4
-1.485, 3.459e-4
-1.484, 3.375e-4
-1.483, 3.281e-4
-1.482, 3.231e-4
-1.481, 3.158e-4
-1.480, 3.074e-4
-1.479, 3.003e-4
-1.478, 2.932e-4
-1.477, 2.861e-4
-1.476, 2.794e-4
-1.475, 2.728e-4
-1.474, 2.659e-4
-1.473, 2.599e-4
-1.472, 2.537e-4
-1.471, 2.475e-4
-1.470, 2.413e-4
-1.469, 2.364e-4
-1.468, 2.304e-4
-1.467, 2.246e-4
-1.466, 2.189e-4
-1.465, 2.137e-4
-1.464, 2.086e-4
-1.463, 2.031e-4
-1.462, 1.988e-4
-1.461, 1.935e-4
-1.460, 1.889e-4
-1.459, 1.842e-4
-1.458, 1.791e-4
-1.457, 1.750e-4
-1.456, 1.707e-4
-1.455, 1.665e-4
-1.454, 1.616e-4
-1.453, 1.579e-4
-1.452, 1.536e-4
-1.451, 1.499e-4
-1.450, 1.460e-4
-1.449, 1.424e-4
-1.448, 1.386e-4
-1.447, 1.351e-4
-1.446, 1.317e-4
-1.445, 1.289e-4
-1.444, 1.250e-4
-1.443, 1.218e-4
-1.442, 1.187e-4
-1.441, 1.160e-4
-1.440, 1.131e-4
-1.439, 1.101e-4
-1.438, 1.070e-4
-1.437, 1.042e-4
-1.436, 1.020e-4
-1.435, 9.898e-5
-1.434, 9.644e-5
-1.433, 9.419e-5
-1.432, 9.161e-5
-1.431, 8.946e-5
-1.430, 8.707e-5
-1.429, 8.478e-5
-1.428, 8.255e-5
-1.427, 8.035e-5
-1.426, 7.829e-5
-1.425, 7.646e-5
-1.424, 7.449e-5
-1.423, 7.257e-5
-1.422, 7.043e-5
-1.421, 6.877e-5
-1.420, 6.715e-5
-1.419, 6.530e-5
-1.418, 6.343e-5
-1.417, 6.181e-5
-1.416, 6.050e-5
-1.415, 5.897e-5
-1.414, 5.727e-5
-1.413, 5.576e-5
-1.412, 5.439e-5
-1.411, 5.275e-5
-1.410, 5.183e-5
-1.409, 5.027e-5
-1.408, 4.874e-5
-1.407, 4.750e-5
-1.406, 4.653e-5
-1.405, 4.528e-5
-1.404, 4.402e-5
-1.403, 4.272e-5
-1.402, 4.167e-5
-1.401, 4.063e-5
-1.400, 3.973e-5
-1.399, 3.858e-5
-1.398, 3.734e-5
-1.397, 3.654e-5
-1.396, 3.556e-5
-1.395, 3.470e-5
-1.394, 3.370e-5
-1.393, 3.266e-5
-1.392, 3.183e-5
-1.391, 3.113e-5
-1.390, 3.023e-5
-1.389, 2.943e-5
-1.388, 2.853e-5
-1.387, 2.770e-5
-1.386, 2.714e-5
-1.385, 2.642e-5
-1.384, 2.561e-5
-1.383, 2.469e-5
-1.382, 2.404e-5
-1.381, 2.361e-5
-1.380, 2.294e-5
-1.379, 2.217e-5
-1.378, 2.150e-5
-1.377, 2.086e-5
-1.376, 2.043e-5
-1.375, 1.981e-5
-1.374, 1.920e-5
-1.373, 1.849e-5
-1.372, 1.793e-5
-1.371, 1.752e-5
-1.370, 1.712e-5
-1.369, 1.643e-5
-1.368, 1.581e-5
-1.367, 1.531e-5
-1.366, 1.497e-5
-1.365, 1.457e-5
-1.364, 1.395e-5
-1.363, 1.335e-5
-1.362, 1.297e-5
-1.361, 1.262e-5
-1.360, 1.225e-5
-1.359, 1.171e-5
-1.358, 1.113e-5
-1.357, 1.077e-5
-1.356, 1.050e-5
-1.355, 1.013e-5
-1.354, 9.668e-6
-1.353, 9.145e-6
-1.352, 8.843e-6
-1.351, 8.560e-6
-1.350, 8.217e-6
-1.349, 7.820e-6
-1.348, 7.330e-6
-1.347, 6.984e-6
-1.346, 6.784e-6
-1.345, 6.462e-6
-1.344, 6.036e-6
-1.343, 5.578e-6
-1.342, 5.265e-6
-1.341, 5.094e-6
-1.340, 4.806e-6
-1.339, 4.374e-6
-1.338, 3.961e-6
-1.337, 3.647e-6
-1.336, 3.511e-6
-1.335, 3.271e-6
-1.334, 2.826e-6
-1.333, 2.460e-6
-1.332, 2.182e-6
-1.331, 2.004e-6
-1.330, 1.800e-6
-1.329, 1.405e-6
-1.328, 1.031e-6
-1.327, 7.397e-7
-1.326, 5.750e-7
-1.325, 4.171e-7
-1.324, 1.362e-8
-1.323, -4.077e-7
-1.322, -6.346e-7
-1.321, -7.589e-7
-1.320, -9.434e-7
-1.319, -1.345e-6
-1.318, -1.752e-6
-1.317, -1.939e-6
-1.316, -2.057e-6
-1.315, -2.283e-6
-1.314, -2.608e-6
-1.313, -2.977e-6
-1.312, -3.158e-6
-1.311, -3.295e-6
-1.310, -3.517e-6
-1.309, -3.846e-6
-1.308, -4.176e-6
-1.307, -4.427e-6
-1.306, -4.515e-6
-1.305, -4.710e-6
-1.304, -5.048e-6
-1.303, -5.400e-6
-1.302, -5.660e-6
-1.301, -5.725e-6
-1.300, -5.918e-6
-1.299, -6.279e-6
-1.298, -6.613e-6
-1.297, -6.831e-6
-1.296, -6.910e-6
-1.295, -7.056e-6
-1.294, -7.435e-6
-1.293, -7.753e-6
-1.292, -7.949e-6
-1.291, -8.070e-6
-1.290, -8.170e-6
-1.289, -8.505e-6
-1.288, -8.824e-6
-1.287, -9.039e-6
-1.286, -9.155e-6
-1.285, -9.234e-6
-1.284, -9.546e-6
-1.283, -9.944e-6
-1.282, -1.010e-5
-1.281, -1.019e-5
-1.280, -1.036e-5
-1.279, -1.057e-5
-1.278, -1.095e-5
-1.277, -1.112e-5
-1.276, -1.108e-5
-1.275, -1.126e-5
-1.274, -1.155e-5
-1.273, -1.187e-5
-1.272, -1.200e-5
-1.271, -1.207e-5
-1.270, -1.221e-5
-1.269, -1.250e-5
-1.268, -1.287e-5
-1.267, -1.304e-5
-1.266, -1.307e-5
-1.265, -1.314e-5
-1.264, -1.344e-5
-1.263, -1.375e-5
-1.262, -1.389e-5
-1.261, -1.389e-5
-1.260, -1.400e-5
-1.259, -1.434e-5
-1.258, -1.456e-5
-1.257, -1.481e-5
-1.256, -1.476e-5
-1.255, -1.484e-5
-1.254, -1.514e-5
-1.253, -1.538e-5
-1.252, -1.550e-5
-1.251, -1.550e-5
-1.250, -1.559e-5
-1.249, -1.591e-5
-1.248, -1.613e-5
-1.247, -1.629e-5
-1.246, -1.629e-5
-1.245, -1.634e-5
-1.244, -1.655e-5
-1.243, -1.683e-5
-1.242, -1.696e-5
-1.241, -1.698e-5
-1.240, -1.693e-5
-1.239, -1.718e-5
-1.238, -1.749e-5
-1.237, -1.758e-5
-1.236, -1.750e-5
-1.235, -1.761e-5
-1.234, -1.778e-5
-1.233, -1.801e-5
-1.232, -1.806e-5
-1.231, -1.805e-5
-1.230, -1.811e-5
-1.229, -1.841e-5
-1.228, -1.859e-5
-1.227, -1.866e-5
-1.226, -1.853e-5
-1.225, -1.863e-5
-1.224, -1.875e-5
-1.223, -1.904e-5
-1.222, -1.904e-5
-1.221, -1.891e-5
-1.220, -1.900e-5
-1.219, -1.915e-5
-1.218, -1.939e-5
-1.217, -1.942e-5
-1.216, -1.927e-5
-1.215, -1.926e-5
-1.214, -1.953e-5
-1.213, -1.969e-5
-1.212, -1.972e-5
-1.211, -1.966e-5
-1.210, -1.955e-5
-1.209, -1.985e-5
-1.208, -1.992e-5
-1.207, -1.999e-5
-1.206, -1.989e-5
-1.205, -1.985e-5
-1.204, -1.998e-5
-1.203, -2.024e-5
-1.202, -2.023e-5
-1.201, -2.011e-5
-1.200, -2.010e-5
-1.199, -2.025e-5
-1.198, -2.041e-5
-1.197, -2.038e-5
-1.196, -2.035e-5
-1.195, -2.030e-5
-1.194, -2.039e-5
-1.193, -2.067e-5
-1.192, -2.058e-5
-1.191, -2.054e-5
-1.190, -2.046e-5
-1.189, -2.059e-5
-1.188, -2.083e-5
-1.187, -2.077e-5
-1.186, -2.064e-5
-1.185, -2.064e-5
-1.184, -2.079e-5
-1.183, -2.094e-5
-1.182, -2.096e-5
-1.181, -2.080e-5
-1.180, -2.080e-5
-1.179, -2.096e-5
-1.178, -2.114e-5
-1.177, -2.113e-5
-1.176, -2.104e-5
-1.175, -2.091e-5
-1.174, -2.101e-5
-1.173, -2.125e-5
-1.172, -2.131e-5
-1.171, -2.110e-5
-1.170, -2.102e-5
-1.169, -2.119e-5
-1.168, -2.140e-5
-1.167, -2.134e-5
-1.166, -2.117e-5
-1.165, -2.105e-5
-1.164, -2.128e-5
-1.163, -2.151e-5
-1.162, -2.140e-5
-1.161, -2.130e-5
-1.160, -2.118e-5
-1.159, -2.140e-5
-1.158, -2.152e-5
-1.157, -2.151e-5
-1.156, -2.138e-5
-1.155, -2.127e-5
-1.154, -2.139e-5
-1.153, -2.164e-5
-1.152, -2.156e-5
-1.151, -2.136e-5
-1.150, -2.139e-5
-1.149, -2.145e-5
-1.148, -2.167e-5
-1.147, -2.169e-5
-1.146, -2.132e-5
-1.145, -2.136e-5
-1.144, -2.151e-5
-1.143, -2.167e-5
-1.142, -2.167e-5
-1.141, -2.136e-5
-1.140, -2.132e-5
-1.139, -2.156e-5
-1.138, -2.161e-5
-1.137, -2.163e-5
-1.136, -2.147e-5
-1.135, -2.136e-5
-1.134, -2.152e-5
-1.133, -2.168e-5
-1.132, -2.157e-5
-1.131, -2.142e-5
-1.130, -2.126e-5
-1.129, -2.144e-5
-1.128, -2.167e-5
-1.127, -2.155e-5
-1.126, -2.143e-5
-1.125, -2.125e-5
-1.124, -2.145e-5
-1.123, -2.156e-5
-1.122, -2.148e-5
-1.121, -2.143e-5
-1.120, -2.116e-5
-1.119, -2.129e-5
-1.118, -2.145e-5
-1.117, -2.147e-5
-1.116, -2.122e-5
-1.115, -2.117e-5
-1.114, -2.126e-5
-1.113, -2.145e-5
-1.112, -2.136e-5
-1.111, -2.117e-5
-1.110, -2.106e-5
-1.109, -2.118e-5
-1.108, -2.139e-5
-1.107, -2.128e-5
-1.106, -2.119e-5
-1.105, -2.108e-5
-1.104, -2.116e-5
-1.103, -2.129e-5
-1.102, -2.141e-5
-1.101, -2.114e-5
-1.100, -2.103e-5
-1.099, -2.129e-5
-1.098, -2.135e-5
-1.097, -2.135e-5
-1.096, -2.115e-5
-1.095, -2.112e-5
-1.094, -2.128e-5
-1.093, -2.140e-5
-1.092, -2.142e-5
-1.091, -2.116e-5
-1.090, -2.112e-5
-1.089, -2.136e-5
-1.088, -2.147e-5
-1.087, -2.131e-5
-1.086, -2.127e-5
-1.085, -2.121e-5
-1.084, -2.136e-5
-1.083, -2.153e-5
-1.082, -2.148e-5
-1.081, -2.140e-5
-1.080, -2.129e-5
-1.079, -2.133e-5
-1.078, -2.160e-5
-1.077, -2.153e-5
-1.076, -2.149e-5
-1.075, -2.139e-5
-1.074, -2.146e-5
-1.073, -2.176e-5
-1.072, -2.158e-5
-1.071, -2.150e-5
-1.070, -2.143e-5
-1.069, -2.159e-5
-1.068, -2.176e-5
-1.067, -2.175e-5
-1.066, -2.153e-5
-1.065, -2.158e-5
-1.064, -2.156e-5
-1.063, -2.180e-5
-1.062, -2.181e-5
-1.061, -2.162e-5
-1.060, -2.154e-5
-1.059, -2.175e-5
-1.058, -2.194e-5
-1.057, -2.188e-5
-1.056, -2.164e-5
-1.055, -2.171e-5
-1.054, -2.188e-5
-1.053, -2.194e-5
-1.052, -2.197e-5
-1.051, -2.179e-5
-1.050, -2.172e-5
-1.049, -2.197e-5
-1.048, -2.208e-5
-1.047, -2.205e-5
-1.046, -2.190e-5
-1.045, -2.188e-5
-1.044, -2.203e-5
-1.043, -2.222e-5
-1.042, -2.218e-5
-1.041, -2.201e-5
-1.040, -2.198e-5
-1.039, -2.209e-5
-1.038, -2.241e-5
-1.037, -2.236e-5
-1.036, -2.217e-5
-1.035, -2.203e-5
-1.034, -2.227e-5
-1.033, -2.252e-5
-1.032, -2.237e-5
-1.031, -2.225e-5
-1.030, -2.219e-5
-1.029, -2.231e-5
-1.028, -2.257e-5
-1.027, -2.260e-5
-1.026, -2.235e-5
-1.025, -2.239e-5
-1.024, -2.254e-5
-1.023, -2.269e-5
-1.022, -2.275e-5
-1.021, -2.251e-5
-1.020, -2.249e-5
-1.019, -2.275e-5
-1.018, -2.280e-5
-1.017, -2.283e-5
-1.016, -2.265e-5
-1.015, -2.258e-5
-1.014, -2.279e-5
-1.013, -2.293e-5
-1.012, -2.294e-5
-1.011, -2.279e-5
-1.010, -2.274e-5
-1.009, -2.291e-5
-1.008, -2.304e-5
-1.007, -2.310e-5
-1.006, -2.286e-5
-1.005, -2.287e-5
-1.004, -2.304e-5
-1.003, -2.327e-5
-1.002, -2.320e-5
-1.001, -2.305e-5
