Apr. 24, 2025   23:41:06
Cyclic Voltammetry
File: c:/users/guazh/data/banditlqround7_x0exp590_r20/2025-04-16-exp1180\exp1180-2025-04-24t23_16_46-h2koh\exp1180_cv_sr_700mvs_efin_-1800mv.bin
Data Source:  Experiment
Instrument Model:  CHI760E
Header: CV ran at 700 mVs
Note: 

Init E (V) = -1
High E (V) = -1
Low E (V) = -1.8
Final E (V) = -1
Init P/N = N
Scan Rate (V/s) = 0.7
Segment = 3
Sample Interval (V) = 0.001
Quiet Time (sec) = 2
Sensitivity (A/V) = 0.01
Comp R (ohm) = 1.5

Results:

Channel 1:
Segment 1:
Ep = -1.218V
ip = 5.766e-5A
Ah = 2.686e-6C

Segment 2:
Ep = -1.177V
ip = -3.372e-5A
Ah = -2.973e-6C

Segment 3:

Potential/V, Current/A

-1.000, 1.865e-5
-1.001, 2.790e-5
-1.002, 3.099e-5
-1.003, 3.407e-5
-1.004, 3.715e-5
-1.005, 3.715e-5
-1.006, 4.024e-5
-1.007, 4.024e-5
-1.008, 4.024e-5
-1.009, 4.332e-5
-1.010, 4.332e-5
-1.011, 4.332e-5
-1.012, 4.332e-5
-1.013, 4.332e-5
-1.014, 4.332e-5
-1.015, 4.640e-5
-1.016, 4.640e-5
-1.017, 4.640e-5
-1.018, 4.640e-5
-1.019, 4.640e-5
-1.020, 4.640e-5
-1.021, 4.640e-5
-1.022, 4.640e-5
-1.023, 4.640e-5
-1.024, 4.949e-5
-1.025, 4.949e-5
-1.026, 4.640e-5
-1.027, 4.640e-5
-1.028, 4.949e-5
-1.029, 4.949e-5
-1.030, 4.949e-5
-1.031, 4.949e-5
-1.032, 4.949e-5
-1.033, 4.949e-5
-1.034, 4.949e-5
-1.035, 4.949e-5
-1.036, 4.949e-5
-1.037, 4.949e-5
-1.038, 4.949e-5
-1.039, 5.257e-5
-1.040, 5.257e-5
-1.041, 5.257e-5
-1.042, 5.257e-5
-1.043, 5.257e-5
-1.044, 5.257e-5
-1.045, 5.257e-5
-1.046, 5.257e-5
-1.047, 5.257e-5
-1.048, 5.257e-5
-1.049, 5.257e-5
-1.050, 5.257e-5
-1.051, 5.257e-5
-1.052, 5.257e-5
-1.053, 5.565e-5
-1.054, 5.257e-5
-1.055, 5.257e-5
-1.056, 5.257e-5
-1.057, 5.257e-5
-1.058, 5.257e-5
-1.059, 5.565e-5
-1.060, 5.565e-5
-1.061, 5.565e-5
-1.062, 5.565e-5
-1.063, 5.565e-5
-1.064, 5.565e-5
-1.065, 5.565e-5
-1.066, 5.565e-5
-1.067, 5.565e-5
-1.068, 5.565e-5
-1.069, 5.565e-5
-1.070, 5.565e-5
-1.071, 5.565e-5
-1.072, 5.565e-5
-1.073, 5.565e-5
-1.074, 5.565e-5
-1.075, 5.565e-5
-1.076, 5.873e-5
-1.077, 5.873e-5
-1.078, 5.873e-5
-1.079, 5.873e-5
-1.080, 5.873e-5
-1.081, 5.873e-5
-1.082, 5.873e-5
-1.083, 5.873e-5
-1.084, 5.873e-5
-1.085, 5.873e-5
-1.086, 5.873e-5
-1.087, 5.873e-5
-1.088, 5.873e-5
-1.089, 5.873e-5
-1.090, 5.873e-5
-1.091, 5.873e-5
-1.092, 5.873e-5
-1.093, 5.873e-5
-1.094, 5.873e-5
-1.095, 5.873e-5
-1.096, 5.873e-5
-1.097, 5.873e-5
-1.098, 6.182e-5
-1.099, 6.182e-5
-1.100, 6.182e-5
-1.101, 6.182e-5
-1.102, 6.182e-5
-1.103, 6.182e-5
-1.104, 6.182e-5
-1.105, 6.182e-5
-1.106, 6.182e-5
-1.107, 6.182e-5
-1.108, 6.182e-5
-1.109, 6.182e-5
-1.110, 6.182e-5
-1.111, 6.182e-5
-1.112, 6.490e-5
-1.113, 6.182e-5
-1.114, 6.490e-5
-1.115, 6.182e-5
-1.116, 6.490e-5
-1.117, 6.490e-5
-1.118, 6.182e-5
-1.119, 6.490e-5
-1.120, 6.490e-5
-1.121, 6.490e-5
-1.122, 6.490e-5
-1.123, 6.490e-5
-1.124, 6.490e-5
-1.125, 6.490e-5
-1.126, 6.490e-5
-1.127, 6.490e-5
-1.128, 6.490e-5
-1.129, 6.798e-5
-1.130, 6.798e-5
-1.131, 6.490e-5
-1.132, 6.798e-5
-1.133, 6.798e-5
-1.134, 6.798e-5
-1.135, 6.798e-5
-1.136, 6.798e-5
-1.137, 6.798e-5
-1.138, 6.798e-5
-1.139, 6.798e-5
-1.140, 6.798e-5
-1.141, 6.798e-5
-1.142, 6.798e-5
-1.143, 7.107e-5
-1.144, 7.107e-5
-1.145, 7.107e-5
-1.146, 7.107e-5
-1.147, 7.107e-5
-1.148, 7.107e-5
-1.149, 7.107e-5
-1.150, 7.107e-5
-1.151, 7.107e-5
-1.152, 7.107e-5
-1.153, 7.415e-5
-1.154, 7.415e-5
-1.155, 7.415e-5
-1.156, 7.415e-5
-1.157, 7.415e-5
-1.158, 7.415e-5
-1.159, 7.723e-5
-1.160, 7.723e-5
-1.161, 7.723e-5
-1.162, 7.723e-5
-1.163, 7.723e-5
-1.164, 7.723e-5
-1.165, 7.723e-5
-1.166, 7.723e-5
-1.167, 8.032e-5
-1.168, 8.032e-5
-1.169, 8.032e-5
-1.170, 8.340e-5
-1.171, 8.340e-5
-1.172, 8.340e-5
-1.173, 8.340e-5
-1.174, 8.340e-5
-1.175, 8.648e-5
-1.176, 8.648e-5
-1.177, 8.648e-5
-1.178, 8.648e-5
-1.179, 8.957e-5
-1.180, 8.957e-5
-1.181, 9.265e-5
-1.182, 9.265e-5
-1.183, 9.265e-5
-1.184, 9.265e-5
-1.185, 9.573e-5
-1.186, 9.573e-5
-1.187, 9.573e-5
-1.188, 9.882e-5
-1.189, 9.882e-5
-1.190, 9.882e-5
-1.191, 1.019e-4
-1.192, 1.019e-4
-1.193, 1.050e-4
-1.194, 1.050e-4
-1.195, 1.081e-4
-1.196, 1.081e-4
-1.197, 1.081e-4
-1.198, 1.111e-4
-1.199, 1.111e-4
-1.200, 1.111e-4
-1.201, 1.142e-4
-1.202, 1.142e-4
-1.203, 1.142e-4
-1.204, 1.173e-4
-1.205, 1.204e-4
-1.206, 1.204e-4
-1.207, 1.235e-4
-1.208, 1.235e-4
-1.209, 1.235e-4
-1.210, 1.235e-4
-1.211, 1.235e-4
-1.212, 1.266e-4
-1.213, 1.266e-4
-1.214, 1.266e-4
-1.215, 1.296e-4
-1.216, 1.296e-4
-1.217, 1.296e-4
-1.218, 1.327e-4
-1.219, 1.296e-4
-1.220, 1.327e-4
-1.221, 1.327e-4
-1.222, 1.327e-4
-1.223, 1.327e-4
-1.224, 1.327e-4
-1.225, 1.327e-4
-1.226, 1.327e-4
-1.227, 1.327e-4
-1.228, 1.327e-4
-1.229, 1.327e-4
-1.230, 1.327e-4
-1.231, 1.327e-4
-1.232, 1.327e-4
-1.233, 1.327e-4
-1.234, 1.296e-4
-1.235, 1.296e-4
-1.236, 1.296e-4
-1.237, 1.296e-4
-1.238, 1.296e-4
-1.239, 1.296e-4
-1.240, 1.296e-4
-1.241, 1.266e-4
-1.242, 1.266e-4
-1.243, 1.266e-4
-1.244, 1.235e-4
-1.245, 1.235e-4
-1.246, 1.235e-4
-1.247, 1.235e-4
-1.248, 1.204e-4
-1.249, 1.204e-4
-1.250, 1.204e-4
-1.251, 1.204e-4
-1.252, 1.204e-4
-1.253, 1.173e-4
-1.254, 1.173e-4
-1.255, 1.173e-4
-1.256, 1.173e-4
-1.257, 1.173e-4
-1.258, 1.142e-4
-1.259, 1.142e-4
-1.260, 1.142e-4
-1.261, 1.142e-4
-1.262, 1.142e-4
-1.263, 1.142e-4
-1.264, 1.111e-4
-1.265, 1.111e-4
-1.266, 1.111e-4
-1.267, 1.111e-4
-1.268, 1.111e-4
-1.269, 1.081e-4
-1.270, 1.081e-4
-1.271, 1.081e-4
-1.272, 1.081e-4
-1.273, 1.081e-4
-1.274, 1.081e-4
-1.275, 1.081e-4
-1.276, 1.081e-4
-1.277, 1.081e-4
-1.278, 1.081e-4
-1.279, 1.081e-4
-1.280, 1.081e-4
-1.281, 1.081e-4
-1.282, 1.050e-4
-1.283, 1.081e-4
-1.284, 1.050e-4
-1.285, 1.081e-4
-1.286, 1.081e-4
-1.287, 1.081e-4
-1.288, 1.050e-4
-1.289, 1.081e-4
-1.290, 1.081e-4
-1.291, 1.050e-4
-1.292, 1.081e-4
-1.293, 1.050e-4
-1.294, 1.050e-4
-1.295, 1.081e-4
-1.296, 1.050e-4
-1.297, 1.081e-4
-1.298, 1.081e-4
-1.299, 1.081e-4
-1.300, 1.081e-4
-1.301, 1.081e-4
-1.302, 1.081e-4
-1.303, 1.081e-4
-1.304, 1.081e-4
-1.305, 1.081e-4
-1.306, 1.081e-4
-1.307, 1.081e-4
-1.308, 1.081e-4
-1.309, 1.081e-4
-1.310, 1.111e-4
-1.311, 1.111e-4
-1.312, 1.111e-4
-1.313, 1.081e-4
-1.314, 1.081e-4
-1.315, 1.111e-4
-1.316, 1.081e-4
-1.317, 1.111e-4
-1.318, 1.081e-4
-1.319, 1.111e-4
-1.320, 1.111e-4
-1.321, 1.111e-4
-1.322, 1.111e-4
-1.323, 1.111e-4
-1.324, 1.111e-4
-1.325, 1.111e-4
-1.326, 1.111e-4
-1.327, 1.111e-4
-1.328, 1.111e-4
-1.329, 1.111e-4
-1.330, 1.142e-4
-1.331, 1.142e-4
-1.332, 1.142e-4
-1.333, 1.142e-4
-1.334, 1.142e-4
-1.335, 1.142e-4
-1.336, 1.142e-4
-1.337, 1.142e-4
-1.338, 1.142e-4
-1.339, 1.142e-4
-1.340, 1.142e-4
-1.341, 1.142e-4
-1.342, 1.173e-4
-1.343, 1.142e-4
-1.344, 1.173e-4
-1.345, 1.173e-4
-1.346, 1.173e-4
-1.347, 1.173e-4
-1.348, 1.173e-4
-1.349, 1.173e-4
-1.350, 1.173e-4
-1.351, 1.173e-4
-1.352, 1.173e-4
-1.353, 1.173e-4
-1.354, 1.173e-4
-1.355, 1.173e-4
-1.356, 1.173e-4
-1.357, 1.173e-4
-1.358, 1.173e-4
-1.359, 1.173e-4
-1.360, 1.204e-4
-1.361, 1.173e-4
-1.362, 1.173e-4
-1.363, 1.173e-4
-1.364, 1.173e-4
-1.365, 1.173e-4
-1.366, 1.173e-4
-1.367, 1.204e-4
-1.368, 1.173e-4
-1.369, 1.204e-4
-1.370, 1.204e-4
-1.371, 1.173e-4
-1.372, 1.173e-4
-1.373, 1.173e-4
-1.374, 1.173e-4
-1.375, 1.204e-4
-1.376, 1.173e-4
-1.377, 1.173e-4
-1.378, 1.204e-4
-1.379, 1.173e-4
-1.380, 1.204e-4
-1.381, 1.204e-4
-1.382, 1.204e-4
-1.383, 1.204e-4
-1.384, 1.173e-4
-1.385, 1.204e-4
-1.386, 1.204e-4
-1.387, 1.204e-4
-1.388, 1.204e-4
-1.389, 1.204e-4
-1.390, 1.204e-4
-1.391, 1.204e-4
-1.392, 1.204e-4
-1.393, 1.204e-4
-1.394, 1.204e-4
-1.395, 1.204e-4
-1.396, 1.204e-4
-1.397, 1.204e-4
-1.398, 1.204e-4
-1.399, 1.204e-4
-1.400, 1.204e-4
-1.401, 1.204e-4
-1.402, 1.204e-4
-1.403, 1.235e-4
-1.404, 1.204e-4
-1.405, 1.204e-4
-1.406, 1.204e-4
-1.407, 1.204e-4
-1.408, 1.204e-4
-1.409, 1.204e-4
-1.410, 1.204e-4
-1.411, 1.204e-4
-1.412, 1.235e-4
-1.413, 1.204e-4
-1.414, 1.235e-4
-1.415, 1.235e-4
-1.416, 1.235e-4
-1.417, 1.235e-4
-1.418, 1.204e-4
-1.419, 1.204e-4
-1.420, 1.204e-4
-1.421, 1.204e-4
-1.422, 1.204e-4
-1.423, 1.204e-4
-1.424, 1.204e-4
-1.425, 1.235e-4
-1.426, 1.235e-4
-1.427, 1.235e-4
-1.428, 1.235e-4
-1.429, 1.204e-4
-1.430, 1.204e-4
-1.431, 1.204e-4
-1.432, 1.204e-4
-1.433, 1.204e-4
-1.434, 1.204e-4
-1.435, 1.204e-4
-1.436, 1.204e-4
-1.437, 1.204e-4
-1.438, 1.204e-4
-1.439, 1.235e-4
-1.440, 1.204e-4
-1.441, 1.204e-4
-1.442, 1.204e-4
-1.443, 1.204e-4
-1.444, 1.204e-4
-1.445, 1.204e-4
-1.446, 1.204e-4
-1.447, 1.204e-4
-1.448, 1.204e-4
-1.449, 1.235e-4
-1.450, 1.235e-4
-1.451, 1.204e-4
-1.452, 1.235e-4
-1.453, 1.235e-4
-1.454, 1.235e-4
-1.455, 1.235e-4
-1.456, 1.235e-4
-1.457, 1.235e-4
-1.458, 1.235e-4
-1.459, 1.235e-4
-1.460, 1.235e-4
-1.461, 1.266e-4
-1.462, 1.266e-4
-1.463, 1.266e-4
-1.464, 1.266e-4
-1.465, 1.266e-4
-1.466, 1.296e-4
-1.467, 1.296e-4
-1.468, 1.296e-4
-1.469, 1.296e-4
-1.470, 1.327e-4
-1.471, 1.327e-4
-1.472, 1.327e-4
-1.473, 1.358e-4
-1.474, 1.358e-4
-1.475, 1.389e-4
-1.476, 1.389e-4
-1.477, 1.389e-4
-1.478, 1.420e-4
-1.479, 1.420e-4
-1.480, 1.451e-4
-1.481, 1.451e-4
-1.482, 1.481e-4
-1.483, 1.512e-4
-1.484, 1.543e-4
-1.485, 1.543e-4
-1.486, 1.574e-4
-1.487, 1.605e-4
-1.488, 1.636e-4
-1.489, 1.636e-4
-1.490, 1.666e-4
-1.491, 1.697e-4
-1.492, 1.728e-4
-1.493, 1.759e-4
-1.494, 1.790e-4
-1.495, 1.851e-4
-1.496, 1.882e-4
-1.497, 1.944e-4
-1.498, 1.975e-4
-1.499, 2.006e-4
-1.500, 2.067e-4
-1.501, 2.098e-4
-1.502, 2.160e-4
-1.503, 2.221e-4
-1.504, 2.252e-4
-1.505, 2.314e-4
-1.506, 2.376e-4
-1.507, 2.468e-4
-1.508, 2.530e-4
-1.509, 2.591e-4
-1.510, 2.684e-4
-1.511, 2.776e-4
-1.512, 2.838e-4
-1.513, 2.931e-4
-1.514, 3.023e-4
-1.515, 3.115e-4
-1.516, 3.239e-4
-1.517, 3.331e-4
-1.518, 3.455e-4
-1.519, 3.578e-4
-1.520, 3.732e-4
-1.521, 3.825e-4
-1.522, 3.979e-4
-1.523, 4.133e-4
-1.524, 4.287e-4
-1.525, 4.441e-4
-1.526, 4.595e-4
-1.527, 4.750e-4
-1.528, 4.935e-4
-1.529, 5.120e-4
-1.530, 5.305e-4
-1.531, 5.489e-4
-1.532, 5.705e-4
-1.533, 5.921e-4
-1.534, 6.106e-4
-1.535, 6.322e-4
-1.536, 6.538e-4
-1.537, 6.754e-4
-1.538, 7.000e-4
-1.539, 7.216e-4
-1.540, 7.463e-4
-1.541, 7.679e-4
-1.542, 7.925e-4
-1.543, 8.172e-4
-1.544, 8.449e-4
-1.545, 8.665e-4
-1.546, 8.943e-4
-1.547, 9.189e-4
-1.548, 9.436e-4
-1.549, 9.713e-4
-1.550, 9.960e-4
-1.551, 1.024e-3
-1.552, 1.048e-3
-1.553, 1.076e-3
-1.554, 1.101e-3
-1.555, 1.129e-3
-1.556, 1.156e-3
-1.557, 1.184e-3
-1.558, 1.209e-3
-1.559, 1.236e-3
-1.560, 1.264e-3
-1.561, 1.292e-3
-1.562, 1.320e-3
-1.563, 1.347e-3
-1.564, 1.375e-3
-1.565, 1.406e-3
-1.566, 1.434e-3
-1.567, 1.465e-3
-1.568, 1.492e-3
-1.569, 1.520e-3
-1.570, 1.551e-3
-1.571, 1.579e-3
-1.572, 1.606e-3
-1.573, 1.637e-3
-1.574, 1.668e-3
-1.575, 1.696e-3
-1.576, 1.727e-3
-1.577, 1.758e-3
-1.578, 1.788e-3
-1.579, 1.819e-3
-1.580, 1.847e-3
-1.581, 1.878e-3
-1.582, 1.909e-3
-1.583, 1.939e-3
-1.584, 1.970e-3
-1.585, 2.001e-3
-1.586, 2.029e-3
-1.587, 2.063e-3
-1.588, 2.094e-3
-1.589, 2.124e-3
-1.590, 2.155e-3
-1.591, 2.189e-3
-1.592, 2.220e-3
-1.593, 2.251e-3
-1.594, 2.282e-3
-1.595, 2.312e-3
-1.596, 2.346e-3
-1.597, 2.374e-3
-1.598, 2.408e-3
-1.599, 2.439e-3
-1.600, 2.473e-3
-1.601, 2.507e-3
-1.602, 2.538e-3
-1.603, 2.568e-3
-1.604, 2.602e-3
-1.605, 2.633e-3
-1.606, 2.664e-3
-1.607, 2.698e-3
-1.608, 2.729e-3
-1.609, 2.763e-3
-1.610, 2.793e-3
-1.611, 2.827e-3
-1.612, 2.861e-3
-1.613, 2.898e-3
-1.614, 2.932e-3
-1.615, 2.966e-3
-1.616, 3.000e-3
-1.617, 3.034e-3
-1.618, 3.065e-3
-1.619, 3.099e-3
-1.620, 3.133e-3
-1.621, 3.167e-3
-1.622, 3.200e-3
-1.623, 3.237e-3
-1.624, 3.271e-3
-1.625, 3.305e-3
-1.626, 3.342e-3
-1.627, 3.376e-3
-1.628, 3.410e-3
-1.629, 3.444e-3
-1.630, 3.481e-3
-1.631, 3.515e-3
-1.632, 3.549e-3
-1.633, 3.583e-3
-1.634, 3.620e-3
-1.635, 3.654e-3
-1.636, 3.691e-3
-1.637, 3.728e-3
-1.638, 3.762e-3
-1.639, 3.802e-3
-1.640, 3.836e-3
-1.641, 3.873e-3
-1.642, 3.906e-3
-1.643, 3.943e-3
-1.644, 3.977e-3
-1.645, 4.014e-3
-1.646, 4.051e-3
-1.647, 4.088e-3
-1.648, 4.125e-3
-1.649, 4.159e-3
-1.650, 4.196e-3
-1.651, 4.233e-3
-1.652, 4.270e-3
-1.653, 4.304e-3
-1.654, 4.341e-3
-1.655, 4.375e-3
-1.656, 4.409e-3
-1.657, 4.446e-3
-1.658, 4.483e-3
-1.659, 4.526e-3
-1.660, 4.563e-3
-1.661, 4.600e-3
-1.662, 4.637e-3
-1.663, 4.674e-3
-1.664, 4.711e-3
-1.665, 4.748e-3
-1.666, 4.782e-3
-1.667, 4.813e-3
-1.668, 4.850e-3
-1.669, 4.890e-3
-1.670, 4.924e-3
-1.671, 4.964e-3
-1.672, 4.998e-3
-1.673, 5.035e-3
-1.674, 5.072e-3
-1.675, 5.109e-3
-1.676, 5.146e-3
-1.677, 5.183e-3
-1.678, 5.217e-3
-1.679, 5.254e-3
-1.680, 5.291e-3
-1.681, 5.331e-3
-1.682, 5.371e-3
-1.683, 5.408e-3
-1.684, 5.451e-3
-1.685, 5.488e-3
-1.686, 5.528e-3
-1.687, 5.565e-3
-1.688, 5.605e-3
-1.689, 5.642e-3
-1.690, 5.682e-3
-1.691, 5.719e-3
-1.692, 5.759e-3
-1.693, 5.799e-3
-1.694, 5.840e-3
-1.695, 5.877e-3
-1.696, 5.917e-3
-1.697, 5.957e-3
-1.698, 5.997e-3
-1.699, 6.034e-3
-1.700, 6.071e-3
-1.701, 6.111e-3
-1.702, 6.148e-3
-1.703, 6.185e-3
-1.704, 6.225e-3
-1.705, 6.265e-3
-1.706, 6.302e-3
-1.707, 6.342e-3
-1.708, 6.382e-3
-1.709, 6.422e-3
-1.710, 6.465e-3
-1.711, 6.502e-3
-1.712, 6.539e-3
-1.713, 6.580e-3
-1.714, 6.620e-3
-1.715, 6.660e-3
-1.716, 6.700e-3
-1.717, 6.740e-3
-1.718, 6.783e-3
-1.719, 6.823e-3
-1.720, 6.863e-3
-1.721, 6.906e-3
-1.722, 6.949e-3
-1.723, 6.990e-3
-1.724, 7.027e-3
-1.725, 7.067e-3
-1.726, 7.107e-3
-1.727, 7.150e-3
-1.728, 7.187e-3
-1.729, 7.227e-3
-1.730, 7.267e-3
-1.731, 7.310e-3
-1.732, 7.350e-3
-1.733, 7.387e-3
-1.734, 7.430e-3
-1.735, 7.471e-3
-1.736, 7.511e-3
-1.737, 7.551e-3
-1.738, 7.591e-3
-1.739, 7.634e-3
-1.740, 7.683e-3
-1.741, 7.730e-3
-1.742, 7.776e-3
-1.743, 7.825e-3
-1.744, 7.871e-3
-1.745, 7.921e-3
-1.746, 7.967e-3
-1.747, 8.010e-3
-1.748, 8.056e-3
-1.749, 8.099e-3
-1.750, 8.143e-3
-1.751, 8.183e-3
-1.752, 8.229e-3
-1.753, 8.275e-3
-1.754, 8.318e-3
-1.755, 8.362e-3
-1.756, 8.411e-3
-1.757, 8.451e-3
-1.758, 8.497e-3
-1.759, 8.540e-3
-1.760, 8.587e-3
-1.761, 8.630e-3
-1.762, 8.676e-3
-1.763, 8.728e-3
-1.764, 8.775e-3
-1.765, 8.824e-3
-1.766, 8.876e-3
-1.767, 8.929e-3
-1.768, 8.981e-3
-1.769, 9.024e-3
-1.770, 9.061e-3
-1.771, 9.111e-3
-1.772, 9.160e-3
-1.773, 9.206e-3
-1.774, 9.256e-3
-1.775, 9.305e-3
-1.776, 9.357e-3
-1.777, 9.404e-3
-1.778, 9.456e-3
-1.779, 9.502e-3
-1.780, 9.555e-3
-1.781, 9.607e-3
-1.782, 9.660e-3
-1.783, 9.709e-3
-1.784, 9.758e-3
-1.785, 9.811e-3
-1.786, 9.863e-3
-1.787, 9.919e-3
-1.788, 9.977e-3
-1.789, 1.004e-2
-1.790, 1.010e-2
-1.791, 1.016e-2
-1.792, 1.023e-2
-1.793, 1.029e-2
-1.794, 1.035e-2
-1.795, 1.041e-2
-1.796, 1.046e-2
-1.797, 1.051e-2
-1.798, 1.057e-2
-1.799, 1.062e-2
-1.800, 1.063e-2
-1.799, 1.056e-2
-1.798, 1.048e-2
-1.797, 1.041e-2
-1.796, 1.034e-2
-1.795, 1.027e-2
-1.794, 1.019e-2
-1.793, 1.012e-2
-1.792, 1.006e-2
-1.791, 9.986e-3
-1.790, 9.919e-3
-1.789, 9.845e-3
-1.788, 9.771e-3
-1.787, 9.706e-3
-1.786, 9.638e-3
-1.785, 9.564e-3
-1.784, 9.502e-3
-1.783, 9.428e-3
-1.782, 9.360e-3
-1.781, 9.296e-3
-1.780, 9.222e-3
-1.779, 9.163e-3
-1.778, 9.098e-3
-1.777, 9.040e-3
-1.776, 8.991e-3
-1.775, 8.920e-3
-1.774, 8.861e-3
-1.773, 8.799e-3
-1.772, 8.744e-3
-1.771, 8.679e-3
-1.770, 8.617e-3
-1.769, 8.562e-3
-1.768, 8.503e-3
-1.767, 8.442e-3
-1.766, 8.383e-3
-1.765, 8.325e-3
-1.764, 8.272e-3
-1.763, 8.214e-3
-1.762, 8.149e-3
-1.761, 8.099e-3
-1.760, 8.041e-3
-1.759, 7.979e-3
-1.758, 7.921e-3
-1.757, 7.856e-3
-1.756, 7.813e-3
-1.755, 7.757e-3
-1.754, 7.702e-3
-1.753, 7.643e-3
-1.752, 7.578e-3
-1.751, 7.520e-3
-1.750, 7.464e-3
-1.749, 7.403e-3
-1.748, 7.341e-3
-1.747, 7.286e-3
-1.746, 7.227e-3
-1.745, 7.168e-3
-1.744, 7.113e-3
-1.743, 7.057e-3
-1.742, 7.005e-3
-1.741, 6.959e-3
-1.740, 6.906e-3
-1.739, 6.854e-3
-1.738, 6.805e-3
-1.737, 6.749e-3
-1.736, 6.700e-3
-1.735, 6.644e-3
-1.734, 6.586e-3
-1.733, 6.533e-3
-1.732, 6.481e-3
-1.731, 6.428e-3
-1.730, 6.379e-3
-1.729, 6.327e-3
-1.728, 6.280e-3
-1.727, 6.234e-3
-1.726, 6.188e-3
-1.725, 6.136e-3
-1.724, 6.089e-3
-1.723, 6.037e-3
-1.722, 5.988e-3
-1.721, 5.941e-3
-1.720, 5.898e-3
-1.719, 5.849e-3
-1.718, 5.806e-3
-1.717, 5.756e-3
-1.716, 5.710e-3
-1.715, 5.661e-3
-1.714, 5.614e-3
-1.713, 5.565e-3
-1.712, 5.513e-3
-1.711, 5.470e-3
-1.710, 5.423e-3
-1.709, 5.380e-3
-1.708, 5.337e-3
-1.707, 5.291e-3
-1.706, 5.248e-3
-1.705, 5.204e-3
-1.704, 5.167e-3
-1.703, 5.124e-3
-1.702, 5.078e-3
-1.701, 5.035e-3
-1.700, 4.995e-3
-1.699, 4.949e-3
-1.698, 4.905e-3
-1.697, 4.865e-3
-1.696, 4.825e-3
-1.695, 4.785e-3
-1.694, 4.742e-3
-1.693, 4.699e-3
-1.692, 4.659e-3
-1.691, 4.619e-3
-1.690, 4.579e-3
-1.689, 4.538e-3
-1.688, 4.495e-3
-1.687, 4.455e-3
-1.686, 4.424e-3
-1.685, 4.384e-3
-1.684, 4.344e-3
-1.683, 4.307e-3
-1.682, 4.267e-3
-1.681, 4.227e-3
-1.680, 4.187e-3
-1.679, 4.150e-3
-1.678, 4.110e-3
-1.677, 4.070e-3
-1.676, 4.033e-3
-1.675, 3.996e-3
-1.674, 3.956e-3
-1.673, 3.922e-3
-1.672, 3.888e-3
-1.671, 3.851e-3
-1.670, 3.817e-3
-1.669, 3.780e-3
-1.668, 3.743e-3
-1.667, 3.706e-3
-1.666, 3.672e-3
-1.665, 3.632e-3
-1.664, 3.598e-3
-1.663, 3.564e-3
-1.662, 3.533e-3
-1.661, 3.499e-3
-1.660, 3.466e-3
-1.659, 3.432e-3
-1.658, 3.398e-3
-1.657, 3.367e-3
-1.656, 3.333e-3
-1.655, 3.296e-3
-1.654, 3.262e-3
-1.653, 3.228e-3
-1.652, 3.194e-3
-1.651, 3.160e-3
-1.650, 3.130e-3
-1.649, 3.096e-3
-1.648, 3.065e-3
-1.647, 3.031e-3
-1.646, 3.000e-3
-1.645, 2.966e-3
-1.644, 2.935e-3
-1.643, 2.904e-3
-1.642, 2.871e-3
-1.641, 2.840e-3
-1.640, 2.806e-3
-1.639, 2.775e-3
-1.638, 2.744e-3
-1.637, 2.716e-3
-1.636, 2.686e-3
-1.635, 2.655e-3
-1.634, 2.630e-3
-1.633, 2.599e-3
-1.632, 2.571e-3
-1.631, 2.541e-3
-1.630, 2.513e-3
-1.629, 2.482e-3
-1.628, 2.454e-3
-1.627, 2.427e-3
-1.626, 2.396e-3
-1.625, 2.371e-3
-1.624, 2.343e-3
-1.623, 2.316e-3
-1.622, 2.288e-3
-1.621, 2.263e-3
-1.620, 2.235e-3
-1.619, 2.208e-3
-1.618, 2.183e-3
-1.617, 2.155e-3
-1.616, 2.131e-3
-1.615, 2.103e-3
-1.614, 2.078e-3
-1.613, 2.054e-3
-1.612, 2.026e-3
-1.611, 2.001e-3
-1.610, 1.976e-3
-1.609, 1.952e-3
-1.608, 1.927e-3
-1.607, 1.902e-3
-1.606, 1.875e-3
-1.605, 1.850e-3
-1.604, 1.825e-3
-1.603, 1.804e-3
-1.602, 1.779e-3
-1.601, 1.754e-3
-1.600, 1.733e-3
-1.599, 1.708e-3
-1.598, 1.687e-3
-1.597, 1.662e-3
-1.596, 1.637e-3
-1.595, 1.616e-3
-1.594, 1.591e-3
-1.593, 1.569e-3
-1.592, 1.548e-3
-1.591, 1.526e-3
-1.590, 1.502e-3
-1.589, 1.480e-3
-1.588, 1.458e-3
-1.587, 1.437e-3
-1.586, 1.415e-3
-1.585, 1.394e-3
-1.584, 1.372e-3
-1.583, 1.351e-3
-1.582, 1.329e-3
-1.581, 1.310e-3
-1.580, 1.289e-3
-1.579, 1.270e-3
-1.578, 1.249e-3
-1.577, 1.230e-3
-1.576, 1.212e-3
-1.575, 1.193e-3
-1.574, 1.175e-3
-1.573, 1.156e-3
-1.572, 1.135e-3
-1.571, 1.116e-3
-1.570, 1.098e-3
-1.569, 1.079e-3
-1.568, 1.061e-3
-1.567, 1.042e-3
-1.566, 1.027e-3
-1.565, 1.008e-3
-1.564, 9.929e-4
-1.563, 9.744e-4
-1.562, 9.559e-4
-1.561, 9.405e-4
-1.560, 9.220e-4
-1.559, 9.066e-4
-1.558, 8.881e-4
-1.557, 8.727e-4
-1.556, 8.573e-4
-1.555, 8.418e-4
-1.554, 8.264e-4
-1.553, 8.110e-4
-1.552, 7.956e-4
-1.551, 7.802e-4
-1.550, 7.648e-4
-1.549, 7.494e-4
-1.548, 7.339e-4
-1.547, 7.185e-4
-1.546, 7.062e-4
-1.545, 6.908e-4
-1.544, 6.784e-4
-1.543, 6.661e-4
-1.542, 6.507e-4
-1.541, 6.384e-4
-1.540, 6.260e-4
-1.539, 6.137e-4
-1.538, 6.014e-4
-1.537, 5.859e-4
-1.536, 5.736e-4
-1.535, 5.613e-4
-1.534, 5.489e-4
-1.533, 5.397e-4
-1.532, 5.274e-4
-1.531, 5.150e-4
-1.530, 5.058e-4
-1.529, 4.935e-4
-1.528, 4.842e-4
-1.527, 4.719e-4
-1.526, 4.626e-4
-1.525, 4.503e-4
-1.524, 4.410e-4
-1.523, 4.318e-4
-1.522, 4.225e-4
-1.521, 4.133e-4
-1.520, 4.040e-4
-1.519, 3.948e-4
-1.518, 3.855e-4
-1.517, 3.763e-4
-1.516, 3.670e-4
-1.515, 3.578e-4
-1.514, 3.485e-4
-1.513, 3.393e-4
-1.512, 3.331e-4
-1.511, 3.239e-4
-1.510, 3.177e-4
-1.509, 3.085e-4
-1.508, 3.023e-4
-1.507, 2.931e-4
-1.506, 2.869e-4
-1.505, 2.807e-4
-1.504, 2.715e-4
-1.503, 2.653e-4
-1.502, 2.591e-4
-1.501, 2.530e-4
-1.500, 2.468e-4
-1.499, 2.406e-4
-1.498, 2.345e-4
-1.497, 2.283e-4
-1.496, 2.221e-4
-1.495, 2.160e-4
-1.494, 2.098e-4
-1.493, 2.036e-4
-1.492, 2.006e-4
-1.491, 1.944e-4
-1.490, 1.882e-4
-1.489, 1.851e-4
-1.488, 1.790e-4
-1.487, 1.759e-4
-1.486, 1.697e-4
-1.485, 1.666e-4
-1.484, 1.605e-4
-1.483, 1.574e-4
-1.482, 1.512e-4
-1.481, 1.481e-4
-1.480, 1.420e-4
-1.479, 1.389e-4
-1.478, 1.358e-4
-1.477, 1.327e-4
-1.476, 1.296e-4
-1.475, 1.235e-4
-1.474, 1.204e-4
-1.473, 1.173e-4
-1.472, 1.142e-4
-1.471, 1.111e-4
-1.470, 1.081e-4
-1.469, 1.050e-4
-1.468, 1.019e-4
-1.467, 9.882e-5
-1.466, 9.573e-5
-1.465, 9.265e-5
-1.464, 8.957e-5
-1.463, 8.648e-5
-1.462, 8.648e-5
-1.461, 8.340e-5
-1.460, 8.032e-5
-1.459, 7.723e-5
-1.458, 7.415e-5
-1.457, 7.107e-5
-1.456, 7.107e-5
-1.455, 6.798e-5
-1.454, 6.490e-5
-1.453, 6.490e-5
-1.452, 6.182e-5
-1.451, 6.182e-5
-1.450, 5.873e-5
-1.449, 5.565e-5
-1.448, 5.257e-5
-1.447, 5.257e-5
-1.446, 4.949e-5
-1.445, 4.949e-5
-1.444, 4.640e-5
-1.443, 4.640e-5
-1.442, 4.332e-5
-1.441, 4.332e-5
-1.440, 4.024e-5
-1.439, 4.024e-5
-1.438, 3.715e-5
-1.437, 3.715e-5
-1.436, 3.407e-5
-1.435, 3.407e-5
-1.434, 3.099e-5
-1.433, 3.099e-5
-1.432, 2.790e-5
-1.431, 2.790e-5
-1.430, 2.482e-5
-1.429, 2.482e-5
-1.428, 2.174e-5
-1.427, 2.174e-5
-1.426, 2.174e-5
-1.425, 1.865e-5
-1.424, 1.865e-5
-1.423, 1.865e-5
-1.422, 1.557e-5
-1.421, 1.557e-5
-1.420, 1.557e-5
-1.419, 1.249e-5
-1.418, 1.249e-5
-1.417, 1.249e-5
-1.416, 1.249e-5
-1.415, 1.249e-5
-1.414, 9.405e-6
-1.413, 9.405e-6
-1.412, 9.405e-6
-1.411, 6.322e-6
-1.410, 6.322e-6
-1.409, 6.322e-6
-1.408, 6.322e-6
-1.407, 3.239e-6
-1.406, 3.239e-6
-1.405, 3.239e-6
-1.404, 3.239e-6
-1.403, 1.559e-7
-1.402, 1.559e-7
-1.401, 1.559e-7
-1.400, 1.559e-7
-1.399, 1.559e-7
-1.398, -2.927e-6
-1.397, -2.927e-6
-1.396, -2.927e-6
-1.395, -2.927e-6
-1.394, -2.927e-6
-1.393, -2.927e-6
-1.392, -2.927e-6
-1.391, -6.010e-6
-1.390, -6.010e-6
-1.389, -6.010e-6
-1.388, -6.010e-6
-1.387, -9.093e-6
-1.386, -9.093e-6
-1.385, -9.093e-6
-1.384, -9.093e-6
-1.383, -9.093e-6
-1.382, -9.093e-6
-1.381, -9.093e-6
-1.380, -9.093e-6
-1.379, -1.218e-5
-1.378, -9.093e-6
-1.377, -1.218e-5
-1.376, -1.218e-5
-1.375, -1.218e-5
-1.374, -1.218e-5
-1.373, -1.218e-5
-1.372, -1.218e-5
-1.371, -1.218e-5
-1.370, -1.218e-5
-1.369, -1.526e-5
-1.368, -1.526e-5
-1.367, -1.526e-5
-1.366, -1.526e-5
-1.365, -1.526e-5
-1.364, -1.526e-5
-1.363, -1.834e-5
-1.362, -1.834e-5
-1.361, -1.834e-5
-1.360, -1.834e-5
-1.359, -1.834e-5
-1.358, -1.834e-5
-1.357, -1.834e-5
-1.356, -1.834e-5
-1.355, -1.834e-5
-1.354, -1.834e-5
-1.353, -1.834e-5
-1.352, -1.834e-5
-1.351, -2.143e-5
-1.350, -2.143e-5
-1.349, -2.143e-5
-1.348, -2.143e-5
-1.347, -2.143e-5
-1.346, -2.143e-5
-1.345, -2.143e-5
-1.344, -2.143e-5
-1.343, -2.143e-5
-1.342, -2.143e-5
-1.341, -2.143e-5
-1.340, -2.451e-5
-1.339, -2.451e-5
-1.338, -2.451e-5
-1.337, -2.451e-5
-1.336, -2.451e-5
-1.335, -2.451e-5
-1.334, -2.451e-5
-1.333, -2.451e-5
-1.332, -2.451e-5
-1.331, -2.451e-5
-1.330, -2.451e-5
-1.329, -2.451e-5
-1.328, -2.759e-5
-1.327, -2.759e-5
-1.326, -2.759e-5
-1.325, -2.759e-5
-1.324, -2.759e-5
-1.323, -2.759e-5
-1.322, -2.759e-5
-1.321, -2.759e-5
-1.320, -2.759e-5
-1.319, -2.759e-5
-1.318, -2.759e-5
-1.317, -3.068e-5
-1.316, -3.068e-5
-1.315, -3.068e-5
-1.314, -3.068e-5
-1.313, -3.068e-5
-1.312, -3.068e-5
-1.311, -3.068e-5
-1.310, -3.068e-5
-1.309, -3.068e-5
-1.308, -3.376e-5
-1.307, -3.376e-5
-1.306, -3.376e-5
-1.305, -3.376e-5
-1.304, -3.376e-5
-1.303, -3.376e-5
-1.302, -3.376e-5
-1.301, -3.376e-5
-1.300, -3.376e-5
-1.299, -3.376e-5
-1.298, -3.376e-5
-1.297, -3.684e-5
-1.296, -3.684e-5
-1.295, -3.684e-5
-1.294, -3.684e-5
-1.293, -3.684e-5
-1.292, -3.992e-5
-1.291, -3.684e-5
-1.290, -3.684e-5
-1.289, -3.992e-5
-1.288, -3.992e-5
-1.287, -3.684e-5
-1.286, -3.992e-5
-1.285, -3.992e-5
-1.284, -3.992e-5
-1.283, -3.992e-5
-1.282, -3.992e-5
-1.281, -4.301e-5
-1.280, -4.301e-5
-1.279, -4.301e-5
-1.278, -4.301e-5
-1.277, -4.301e-5
-1.276, -4.301e-5
-1.275, -4.301e-5
-1.274, -4.609e-5
-1.273, -4.609e-5
-1.272, -4.609e-5
-1.271, -4.609e-5
-1.270, -4.609e-5
-1.269, -4.609e-5
-1.268, -4.917e-5
-1.267, -4.917e-5
-1.266, -4.917e-5
-1.265, -4.917e-5
-1.264, -4.917e-5
-1.263, -4.917e-5
-1.262, -4.917e-5
-1.261, -5.226e-5
-1.260, -5.226e-5
-1.259, -5.226e-5
-1.258, -5.226e-5
-1.257, -5.534e-5
-1.256, -5.534e-5
-1.255, -5.534e-5
-1.254, -5.534e-5
-1.253, -5.534e-5
-1.252, -5.534e-5
-1.251, -5.534e-5
-1.250, -5.842e-5
-1.249, -5.842e-5
-1.248, -5.842e-5
-1.247, -5.842e-5
-1.246, -6.151e-5
-1.245, -6.151e-5
-1.244, -6.151e-5
-1.243, -6.151e-5
-1.242, -6.151e-5
-1.241, -6.459e-5
-1.240, -6.459e-5
-1.239, -6.151e-5
-1.238, -6.459e-5
-1.237, -6.459e-5
-1.236, -6.767e-5
-1.235, -6.767e-5
-1.234, -6.767e-5
-1.233, -6.767e-5
-1.232, -7.076e-5
-1.231, -7.076e-5
-1.230, -7.076e-5
-1.229, -7.076e-5
-1.228, -7.076e-5
-1.227, -7.076e-5
-1.226, -7.076e-5
-1.225, -7.384e-5
-1.224, -7.384e-5
-1.223, -7.384e-5
-1.222, -7.384e-5
-1.221, -7.692e-5
-1.220, -7.692e-5
-1.219, -7.692e-5
-1.218, -7.692e-5
-1.217, -7.692e-5
-1.216, -7.692e-5
-1.215, -8.000e-5
-1.214, -8.000e-5
-1.213, -8.000e-5
-1.212, -8.309e-5
-1.211, -8.309e-5
-1.210, -8.309e-5
-1.209, -8.309e-5
-1.208, -8.309e-5
-1.207, -8.309e-5
-1.206, -8.309e-5
-1.205, -8.309e-5
-1.204, -8.617e-5
-1.203, -8.617e-5
-1.202, -8.617e-5
-1.201, -8.617e-5
-1.200, -8.617e-5
-1.199, -8.925e-5
-1.198, -8.925e-5
-1.197, -8.925e-5
-1.196, -8.925e-5
-1.195, -8.925e-5
-1.194, -8.925e-5
-1.193, -8.925e-5
-1.192, -9.234e-5
-1.191, -9.234e-5
-1.190, -9.234e-5
-1.189, -9.234e-5
-1.188, -9.234e-5
-1.187, -9.234e-5
-1.186, -9.542e-5
-1.185, -9.542e-5
-1.184, -9.542e-5
-1.183, -9.542e-5
-1.182, -9.542e-5
-1.181, -9.542e-5
-1.180, -9.542e-5
-1.179, -9.542e-5
-1.178, -9.542e-5
-1.177, -9.850e-5
-1.176, -9.542e-5
-1.175, -9.542e-5
-1.174, -9.850e-5
-1.173, -9.542e-5
-1.172, -9.850e-5
-1.171, -9.850e-5
-1.170, -9.542e-5
-1.169, -9.542e-5
-1.168, -9.850e-5
-1.167, -9.850e-5
-1.166, -9.850e-5
-1.165, -9.850e-5
-1.164, -9.850e-5
-1.163, -9.850e-5
-1.162, -9.850e-5
-1.161, -9.850e-5
-1.160, -9.850e-5
-1.159, -9.850e-5
-1.158, -9.850e-5
-1.157, -9.850e-5
-1.156, -9.850e-5
-1.155, -9.850e-5
-1.154, -9.850e-5
-1.153, -9.850e-5
-1.152, -9.850e-5
-1.151, -9.850e-5
-1.150, -9.850e-5
-1.149, -9.850e-5
-1.148, -9.850e-5
-1.147, -9.850e-5
-1.146, -9.850e-5
-1.145, -9.850e-5
-1.144, -9.850e-5
-1.143, -9.542e-5
-1.142, -9.850e-5
-1.141, -9.850e-5
-1.140, -9.850e-5
-1.139, -9.850e-5
-1.138, -9.850e-5
-1.137, -9.850e-5
-1.136, -9.542e-5
-1.135, -9.542e-5
-1.134, -9.542e-5
-1.133, -9.542e-5
-1.132, -9.542e-5
-1.131, -9.542e-5
-1.130, -9.850e-5
-1.129, -9.542e-5
-1.128, -9.542e-5
-1.127, -9.542e-5
-1.126, -9.542e-5
-1.125, -9.542e-5
-1.124, -9.542e-5
-1.123, -9.542e-5
-1.122, -9.542e-5
-1.121, -9.542e-5
-1.120, -9.542e-5
-1.119, -9.542e-5
-1.118, -9.542e-5
-1.117, -9.542e-5
-1.116, -9.542e-5
-1.115, -9.542e-5
-1.114, -9.542e-5
-1.113, -9.542e-5
-1.112, -9.542e-5
-1.111, -9.234e-5
-1.110, -9.542e-5
-1.109, -9.542e-5
-1.108, -9.542e-5
-1.107, -9.542e-5
-1.106, -9.542e-5
-1.105, -9.542e-5
-1.104, -9.542e-5
-1.103, -9.542e-5
-1.102, -9.542e-5
-1.101, -9.234e-5
-1.100, -9.234e-5
-1.099, -9.234e-5
-1.098, -9.542e-5
-1.097, -9.542e-5
-1.096, -9.542e-5
-1.095, -9.542e-5
-1.094, -9.542e-5
-1.093, -9.542e-5
-1.092, -9.542e-5
-1.091, -9.542e-5
-1.090, -9.542e-5
-1.089, -9.542e-5
-1.088, -9.542e-5
-1.087, -9.542e-5
-1.086, -9.542e-5
-1.085, -9.542e-5
-1.084, -9.542e-5
-1.083, -9.542e-5
-1.082, -9.542e-5
-1.081, -9.542e-5
-1.080, -9.542e-5
-1.079, -9.542e-5
-1.078, -9.542e-5
-1.077, -9.542e-5
-1.076, -9.542e-5
-1.075, -9.542e-5
-1.074, -9.542e-5
-1.073, -9.542e-5
-1.072, -9.542e-5
-1.071, -9.542e-5
-1.070, -9.542e-5
-1.069, -9.542e-5
-1.068, -9.542e-5
-1.067, -9.542e-5
-1.066, -9.542e-5
-1.065, -9.542e-5
-1.064, -9.542e-5
-1.063, -9.542e-5
-1.062, -9.542e-5
-1.061, -9.542e-5
-1.060, -9.542e-5
-1.059, -9.542e-5
-1.058, -9.542e-5
-1.057, -9.542e-5
-1.056, -9.234e-5
-1.055, -9.234e-5
-1.054, -9.234e-5
-1.053, -9.234e-5
-1.052, -9.234e-5
-1.051, -9.542e-5
-1.050, -9.234e-5
-1.049, -9.542e-5
-1.048, -9.234e-5
-1.047, -9.234e-5
-1.046, -9.542e-5
-1.045, -9.234e-5
-1.044, -9.234e-5
-1.043, -9.234e-5
-1.042, -9.234e-5
-1.041, -9.234e-5
-1.040, -9.234e-5
-1.039, -9.234e-5
-1.038, -9.234e-5
-1.037, -9.234e-5
-1.036, -9.234e-5
-1.035, -9.234e-5
-1.034, -9.234e-5
-1.033, -9.234e-5
-1.032, -9.234e-5
-1.031, -9.234e-5
-1.030, -9.234e-5
-1.029, -9.234e-5
-1.028, -9.234e-5
-1.027, -9.234e-5
-1.026, -9.234e-5
-1.025, -9.234e-5
-1.024, -9.234e-5
-1.023, -9.234e-5
-1.022, -9.234e-5
-1.021, -9.234e-5
-1.020, -9.234e-5
-1.019, -9.234e-5
-1.018, -8.925e-5
-1.017, -9.234e-5
-1.016, -8.925e-5
-1.015, -9.234e-5
-1.014, -9.234e-5
-1.013, -9.234e-5
-1.012, -9.234e-5
-1.011, -9.234e-5
-1.010, -9.234e-5
-1.009, -8.925e-5
-1.008, -9.234e-5
-1.007, -8.925e-5
-1.006, -8.925e-5
-1.005, -8.925e-5
-1.004, -8.925e-5
-1.003, -8.925e-5
-1.002, -8.925e-5
-1.001, -8.925e-5
