Potential V vs RHE, Current mA cm-2
0.013299999999999867,-0.010632970129785617
0.012299999999999978,-0.014967645552572089
0.011299999999999866,-0.016863358694391237
0.010299999999999976,-0.018221481542261674
0.009299999999999864,-0.01970692840711996
0.008299999999999974,-0.021149933932982302
0.007299999999999862,-0.02279099904082574
0.006299999999999972,-0.023682267159740714
0.00529999999999986,-0.02447450548766513
0.0042999999999999705,-0.025280890928588207
0.0032999999999998586,-0.02628533595149238
0.0022999999999999687,-0.02738881076538711
0.0012999999999998568,-0.02811031352831828
0.00029999999999996696,-0.028379108675292634
-0.000700000000000145,-0.028845963404248096
-0.0017000000000000348,-0.029779672862159025
-0.0027000000000001467,-0.0308690005630551
-0.0037000000000000366,-0.030939736128048352
-0.0047000000000001485,-0.03159050332598627
-0.005700000000000038,-0.03170368022997547
-0.00670000000000015,-0.03259494834889044
-0.00770000000000004,-0.03330230399882296
-0.008700000000000152,-0.03375501161477978
-0.009700000000000042,-0.033896482744766275
-0.010700000000000154,-0.03425016056973254
-0.011700000000000044,-0.0348301922026772
-0.012700000000000156,-0.03576390166058813
-0.013700000000000045,-0.03562243053060162
-0.014700000000000157,-0.035679018982596226
-0.015700000000000047,-0.03606099103355979
-0.01670000000000016,-0.036768346683492305
-0.01770000000000005,-0.03733423120343832
-0.01870000000000016,-0.03733423120343832
-0.01970000000000005,-0.037291789864442364
-0.020700000000000163,-0.03809817530536544
-0.021700000000000053,-0.038055733966369486
-0.022700000000000164,-0.03883382518129525
-0.023700000000000054,-0.03898944342428041
-0.024700000000000166,-0.03893285497228581
-0.025700000000000056,-0.039060178989273664
-0.026700000000000168,-0.03958362217022373
-0.027700000000000058,-0.04019194802916569
-0.02870000000000017,-0.04006462401217784
-0.02970000000000006,-0.04002218267318189
-0.03070000000000017,-0.040630508532123855
-0.03170000000000006,-0.040885156566099555
-0.03270000000000017,-0.041535923764037475
-0.03370000000000006,-0.04129542284306042
-0.034700000000000175,-0.04115395171307392
-0.035700000000000065,-0.04169154200702263
-0.03670000000000018,-0.042214985187972696
-0.03770000000000007,-0.042809163933916004
-0.03870000000000018,-0.04232816209196189
-0.03970000000000007,-0.04290819372490656
-0.04070000000000018,-0.042780869707918716
-0.04170000000000007,-0.043459931131853924
-0.04270000000000018,-0.04361554937483908
-0.04370000000000007,-0.04368628493983233
-0.044700000000000184,-0.04392678586080939
-0.045700000000000074,-0.043870197408814794
-0.046700000000000186,-0.044421934815762155
-0.047700000000000076,-0.04484634820572166
-0.04870000000000019,-0.04508684912669872
-0.04970000000000008,-0.045072702013700075
-0.05070000000000019,-0.04491708377071492
-0.05170000000000008,-0.04549711540365958
-0.05270000000000019,-0.045963970132615044
-0.05370000000000008,-0.04602055858460964
-0.05470000000000019,-0.0461195883756002
-0.05570000000000008,-0.04638838352257455
-0.056700000000000195,-0.04684109113853137
-0.057700000000000085,-0.04739282854547873
-0.058700000000000196,-0.047166474737500325
-0.059700000000000086,-0.046968415155519215
-0.0607000000000002,-0.047166474737500325
-0.06170000000000009,-0.047619182353457135
-0.0627000000000002,-0.048185066873403154
-0.06370000000000009,-0.04794456595242609
-0.0647000000000002,-0.04793041883942745
-0.06570000000000009,-0.04829824377739235
-0.0667000000000002,-0.0485104504723721
-0.0677000000000001,-0.048920716749332974
-0.0687000000000002,-0.04872265716735186
-0.0697000000000001,-0.048439714907378854
-0.07070000000000021,-0.048750951393349166
-0.0717000000000001,-0.04933098302629382
-0.07270000000000021,-0.04968466085126009
-0.0737000000000001,-0.04961392528626684
-0.07470000000000021,-0.04975539641625334
-0.0757000000000001,-0.04965636662526278
-0.07670000000000021,-0.05026469248420476
-0.0777000000000001,-0.05034957516219666
-0.07870000000000021,-0.050476899179184506
-0.0797000000000001,-0.050377869388193955
-0.08070000000000022,-0.05056178185717641
-0.0817000000000001,-0.05081642989115212
-0.08270000000000022,-0.051481344202088684
-0.08370000000000011,-0.05132572595910353
-0.08470000000000022,-0.051042783699130526
-0.08570000000000011,-0.05150963842808598
-0.08670000000000022,-0.05183502202705494
-0.08770000000000011,-0.052245288304015806
-0.08870000000000022,-0.05203308160903605
-0.08970000000000011,-0.05179258068805899
-0.09070000000000022,-0.0521604056260239
-0.09170000000000011,-0.05240090654700096
-0.09270000000000023,-0.05288190838895507
-0.09370000000000012,-0.05291020261495238
-0.09470000000000023,-0.05309411508393482
-0.09570000000000012,-0.053037526631940224
-0.09670000000000023,-0.053419498682903785
-0.09770000000000012,-0.05353267558689299
-0.09870000000000023,-0.053589264038887585
-0.09970000000000012,-0.05356096981289029
-0.10070000000000023,-0.05377317650787005
-0.10170000000000012,-0.05412685433283631
-0.10270000000000024,-0.05440979659280931
-0.10370000000000013,-0.05431076680181876
-0.10470000000000024,-0.05440979659280931
-0.10570000000000013,-0.05412685433283631
-0.10670000000000024,-0.054975681112755324
-0.10770000000000013,-0.05513129935574049
-0.10870000000000024,-0.05517374069473643
-0.10970000000000013,-0.054820062869770175
-0.11070000000000024,-0.05513129935574049
-0.11170000000000013,-0.05561230119769459
-0.11270000000000002,-0.055796213666677044
-0.11370000000000013,-0.05573962521468245
-0.11470000000000002,-0.055640595423691895
-0.11570000000000014,-0.0557537723276811
-0.11670000000000003,-0.056164038604641954
-0.11770000000000014,-0.05607915592665005
-0.11870000000000003,-0.056178185717640605
-0.11970000000000014,-0.0560650088136514
-0.12070000000000003,-0.05596597902266085
-0.12170000000000014,-0.05648942220361091
-0.12270000000000003,-0.056899688480571774
-0.12370000000000014,-0.056630893333597415
-0.12470000000000003,-0.05650356931660957
-0.12570000000000014,-0.05650356931660957
-0.12670000000000003,-0.057394837435524544
-0.12770000000000015,-0.05730995475753263
-0.12870000000000004,-0.05709774806255288
-0.12970000000000015,-0.057069453836555574
-0.13070000000000004,-0.056998718271562325
-0.13170000000000015,-0.05786169216448
-0.13270000000000004,-0.057875839277478656
-0.13370000000000015,-0.057649485469500245
-0.13470000000000004,-0.05781925082548405
-0.13570000000000015,-0.05763533835650159
-0.13670000000000004,-0.05827195844144086
-0.13770000000000016,-0.05835684111943277
-0.13870000000000005,-0.05851245936241791
-0.13970000000000016,-0.05825781132844222
-0.14070000000000005,-0.05835684111943277
-0.14170000000000016,-0.05912078522135989
-0.14270000000000005,-0.05893687275237742
-0.14370000000000016,-0.05893687275237742
-0.14470000000000005,-0.05869637183140037
-0.14570000000000016,-0.05879540162239092
-0.14670000000000005,-0.059304697690342335
-0.14770000000000016,-0.05934713902933829
-0.14870000000000005,-0.059219815012350435
-0.14970000000000017,-0.05906419676936528
-0.15070000000000006,-0.05916322656035583
-0.15170000000000017,-0.05967252262830725
-0.15270000000000006,-0.06018181869625867
-0.15370000000000017,-0.05996961200127891
-0.15470000000000006,-0.05931884480334099
-0.15570000000000017,-0.05981399375829375
-0.15670000000000006,-0.06032328982624517
-0.15770000000000017,-0.06039402539123842
-0.15870000000000006,-0.06036573116524111
-0.15970000000000018,-0.0599979062272762
-0.16070000000000007,-0.05996961200127891
-0.16170000000000018,-0.06076185032920333
-0.16270000000000007,-0.060846733007195224
-0.16370000000000018,-0.060903321459189835
-0.16470000000000007,-0.060903321459189835
-0.16570000000000018,-0.06111552815416958
-0.16670000000000007,-0.0615965299961237
-0.16770000000000018,-0.06163897133511965
-0.16870000000000007,-0.06122870505815879
-0.16970000000000018,-0.06124285217115744
-0.17070000000000007,-0.06094576279818578
-0.17170000000000019,-0.06183703091710076
-0.17270000000000008,-0.06214826740307107
-0.1737000000000002,-0.0616531184481183
-0.17470000000000008,-0.06153994154412909
-0.1757000000000002,-0.06176629535210751
-0.17670000000000008,-0.06257268079303058
-0.1777000000000002,-0.06271415192301708
-0.17870000000000008,-0.06221900296806432
-0.1797000000000002,-0.062190708742067016
-0.18070000000000008,-0.062247297194061614
-0.1817000000000002,-0.06274244614901436
-0.18270000000000008,-0.06315271242597524
-0.1837000000000002,-0.06268585769701977
-0.1847000000000001,-0.06268585769701977
-0.1857000000000002,-0.06272829903601573
-0.1867000000000001,-0.0632800364429631
-0.1877000000000002,-0.06349224313794286
-0.1887000000000001,-0.06339321334695229
-0.1897000000000002,-0.06322344799096849
-0.1907000000000001,-0.06349224313794286
-0.1917000000000001,-0.06410056899688482
-0.19269999999999998,-0.06448254104784838
-0.1937000000000001,-0.06414301033588077
-0.19469999999999998,-0.06417130456187807
-0.1957000000000001,-0.06412886322288211
-0.19669999999999999,-0.06499183711579978
-0.1977000000000001,-0.06517574958478224
-0.1987,-0.06497769000280114
-0.1997000000000001,-0.06473718908182408
-0.2007,-0.06502013134179709
-0.2017000000000001,-0.06527477937577279
-0.2027,-0.06545869184475524
-0.2037000000000001,-0.06538795627976199
-0.2047,-0.06523233803677685
-0.2057000000000001,-0.06543039761875795
-0.2067,-0.06589725234771342
-0.2077000000000001,-0.06619434172068506
-0.2087,-0.06578407544372422
-0.2097000000000001,-0.0657274869917296
-0.2107,-0.065670898539735
-0.2117000000000001,-0.06610945904269316
-0.2127,-0.06622263594668236
-0.2137000000000001,-0.06608116481669586
-0.2147,-0.06619434172068506
-0.2157000000000001,-0.06650557820665538
-0.2167,-0.06692999159661489
-0.21770000000000012,-0.06695828582261219
-0.2187,-0.06667534356263917
-0.21970000000000012,-0.06649143109365672
-0.2207,-0.06659046088464728
-0.22170000000000012,-0.06721293385658789
-0.2227,-0.06721293385658789
-0.22370000000000012,-0.06708560983960003
-0.2247,-0.06711390406559734
-0.22570000000000012,-0.06731196364757845
-0.2267,-0.06767978858554335
-0.22770000000000012,-0.06789199528052312
-0.22870000000000001,-0.0677222299245393
-0.22970000000000013,-0.06787784816752446
-0.23070000000000002,-0.06787784816752446
-0.23170000000000013,-0.06851446825246373
-0.23270000000000002,-0.06850032113946508
-0.23370000000000013,-0.06852861536546237
-0.23470000000000002,-0.06845787980046912
-0.23570000000000013,-0.06857105670445833
-0.23670000000000002,-0.0690662056594111
-0.2376999999999999,-0.06899547009441785
-0.23870000000000002,-0.06871252783444483
-0.2396999999999999,-0.06882570473843404
-0.24070000000000003,-0.06913694122440435
-0.24169999999999991,-0.0696603844053544
-0.24270000000000003,-0.06978770842234226
-0.24369999999999992,-0.06973111997034764
-0.24470000000000003,-0.0696886786313517
-0.24569999999999992,-0.06958964884036115
-0.24670000000000003,-0.07016968047330582
-0.24769999999999992,-0.07032529871629098
-0.24870000000000003,-0.07005650356931663
-0.24969999999999992,-0.07026871026429637
-0.25070000000000003,-0.07083459478424238
-0.2516999999999999,-0.07113168415721405
-0.25270000000000004,-0.0712024197222073
-0.2536999999999999,-0.07077800633224779
-0.25470000000000004,-0.07083459478424238
-0.2556999999999999,-0.07099021302722754
-0.25670000000000004,-0.07147121486918166
-0.25769999999999993,-0.07182489269414791
-0.25870000000000004,-0.07186733403314385
-0.25969999999999993,-0.0717965984681506
-0.26070000000000004,-0.07234833587509798
-0.26169999999999993,-0.07253224834408044
-0.26270000000000004,-0.07257468968307638
-0.26369999999999993,-0.07222101185811013
-0.26470000000000005,-0.07232004164910069
-0.26569999999999994,-0.07241907144009123
-0.26670000000000005,-0.0730839857510278
-0.26769999999999994,-0.07372060583596705
-0.26870000000000005,-0.07321130976801564
-0.26969999999999994,-0.07298495596003725
-0.27070000000000005,-0.0733386337850035
-0.27169999999999994,-0.07413087211292792
-0.27270000000000005,-0.07408843077393197
-0.27369999999999994,-0.07366401738397246
-0.27470000000000006,-0.07363572315797516
-0.27569999999999995,-0.07391866541794817
-0.27670000000000006,-0.07466846240687663
-0.27769999999999995,-0.07476749219786719
-0.27870000000000006,-0.07449869705089282
-0.27969999999999995,-0.07476749219786719
-0.28070000000000006,-0.07499384600584559
-0.28169999999999995,-0.0754182593958051
-0.28270000000000006,-0.0754182593958051
-0.28369999999999995,-0.07553143629979431
-0.28470000000000006,-0.07554558341279295
-0.28569999999999995,-0.07571534876877677
-0.28670000000000007,-0.07635196885371603
-0.28769999999999996,-0.07656417554869578
-0.28870000000000007,-0.07667735245268498
-0.28969999999999996,-0.07649343998370253
-0.29070000000000007,-0.0768754120346661
-0.29169999999999996,-0.07772423881458512
-0.29270000000000007,-0.07792229839656621
-0.29369999999999996,-0.07785156283157296
-0.2947000000000001,-0.07786570994457162
-0.29569999999999996,-0.07796473973556219
-0.2967000000000001,-0.07847403580351359
-0.29769999999999996,-0.07879941940248254
-0.2987000000000001,-0.07868624249849335
-0.29969999999999997,-0.07867209538549469
-0.3007000000000001,-0.07906821454945691
-0.30169999999999997,-0.07967654040839886
-0.3027000000000001,-0.08017168936335163
-0.30369999999999997,-0.08005851245936244
-0.3047000000000001,-0.07994533555537323
-0.30569999999999997,-0.08045463162332463
-0.3067000000000001,-0.08109125170826391
-0.3077,-0.081006369030272
-0.3087000000000001,-0.08083660367428819
-0.3097,-0.08082245656128956
-0.3107000000000001,-0.08151566509822342
-0.3117,-0.08194007848818292
-0.3127000000000001,-0.08223716786115459
-0.3137,-0.08237863899114109
-0.3147000000000001,-0.08226546208715188
-0.3157,-0.08250596300812894
-0.3167000000000001,-0.08341137824004256
-0.3177,-0.08348211380503581
-0.3187000000000001,-0.08345381957903851
-0.3197,-0.08359529070902501
-0.3207000000000001,-0.08421776368096563
-0.3217,-0.08495341355689547
-0.3227000000000001,-0.08512317891287925
-0.3237,-0.085052443347886
-0.3247000000000001,-0.08567491631982663
-0.3257,-0.08605688837079019
-0.3267000000000001,-0.08675009690772406
-0.3277,-0.08653789021274429
-0.3287000000000001,-0.08680668535971865
-0.3297,-0.08749989389665253
-0.3307000000000001,-0.08781113038262284
-0.3317,-0.08846189758056075
-0.3327000000000001,-0.0886741042755405
-0.3337,-0.08871654561453644
-0.3347000000000001,-0.08868825138853914
-0.3357,-0.08962196084645008
-0.3367000000000001,-0.09059811164335696
-0.3377,-0.09056981741735964
-0.3387000000000001,-0.09116399616330297
-0.3397,-0.09116399616330297
-0.3407000000000001,-0.09185720470023684
-0.3417,-0.09269188436715721
-0.3427000000000001,-0.0929182381751356
-0.3437,-0.09276261993215046
-0.3447000000000001,-0.09307385641812077
-0.3457,-0.09361144671206949
-0.3467000000000001,-0.09429050813600469
-0.3477,-0.0946300388479723
-0.3487000000000001,-0.0951110406899264
-0.3497,-0.09553545407988592
-0.3507000000000001,-0.096624781780782
-0.3517,-0.09726140186572127
-0.3527000000000001,-0.09734628454371318
-0.3537,-0.09779899215966999
-0.3547000000000001,-0.09743116722170508
-0.3557,-0.0983082882276214
-0.35670000000000013,-0.09929858613752693
-0.3577,-0.09919955634653636
-0.35870000000000013,-0.09941176304151612
-0.3597,-0.09987861777047159
-0.36070000000000013,-0.10067085609839602
-0.3617,-0.10109526948835552
-0.3626999999999999,-0.10130747618333527
-0.3637,-0.10156212421731098
-0.3646999999999999,-0.10142065308732448
-0.3657,-0.10235436254523542
-0.3666999999999999,-0.10324563066415038
-0.3677,-0.10347198447212877
-0.3686999999999999,-0.10344369024613147
-0.36970000000000003,-0.10416519300906264
-0.3706999999999999,-0.10499987267598301
-0.37170000000000003,-0.10525452070995873
-0.3726999999999999,-0.10580625811690608
-0.37370000000000003,-0.1064004368628494
-0.3746999999999999,-0.10645702531484401
-0.37570000000000003,-0.10707949828678462
-0.3766999999999999,-0.10823956155267396
-0.37770000000000004,-0.10852250381264696
-0.3786999999999999,-0.10867812205563213
-0.37970000000000004,-0.10897521142860378
-0.3806999999999999,-0.1095976844005444
-0.38170000000000004,-0.11041821695446612
-0.38269999999999993,-0.11089921879642024
-0.38370000000000004,-0.11139436775137299
-0.38469999999999993,-0.11153583888135948
-0.38570000000000004,-0.11237051854827985
-0.38669999999999993,-0.1131910511022016
-0.38770000000000004,-0.11354472892716785
-0.38869999999999993,-0.1138135240741422
-0.38970000000000005,-0.11408231922111656
-0.39069999999999994,-0.11504432290502477
-0.39170000000000005,-0.11657221110887903
-0.39269999999999994,-0.11692588893384527
-0.39370000000000005,-0.11744933211479533
-0.39469999999999994,-0.11759080324478184
-0.39570000000000005,-0.11855280692869007
-0.39669999999999994,-0.11945822216060371
-0.39770000000000005,-0.11985434132456589
-0.39869999999999994,-0.12017972492353488
-0.39970000000000006,-0.12036363739251733
-0.40069999999999995,-0.12132564107642556
-0.40170000000000006,-0.12255643990730813
-0.40269999999999995,-0.12310817731425551
-0.40370000000000006,-0.1234194138002258
-0.40469999999999995,-0.12416921078915429
-0.40570000000000006,-0.12517365581205844
-0.40669999999999995,-0.12634786619094643
-0.40770000000000006,-0.1273523112138506
-0.40869999999999995,-0.1276069592478263
-0.40970000000000006,-0.12831431489775882
-0.41069999999999995,-0.12920558301667381
-0.41170000000000007,-0.1302666164915726
-0.41269999999999996,-0.13107300193249566
-0.41370000000000007,-0.1314832682094565
-0.41469999999999996,-0.13213403540739443
-0.41570000000000007,-0.1332233631082905
-0.41669999999999996,-0.1348502811031353
-0.41770000000000007,-0.13561422520506242
-0.41869999999999996,-0.13643475775898414
-0.4197000000000001,-0.1369016124879396
-0.42069999999999996,-0.13837291223979925
-0.4217000000000001,-0.13953297550568855
-0.42269999999999996,-0.14060815609358598
-0.4237000000000001,-0.14108915793554008
-0.42469999999999997,-0.1421784856364362
-0.4257000000000001,-0.1435931969363012
-0.42669999999999997,-0.14514937936615277
-0.4277000000000001,-0.14628114840604478
-0.42869999999999997,-0.14727144631595032
-0.4297000000000001,-0.14826174422585583
-0.43069999999999997,-0.14953498439573437
-0.4317000000000001,-0.15151558021554543
-0.4327,-0.15264734925543746
-0.4337000000000001,-0.15377911829532948
-0.4347,-0.15561824298515403
-0.4357000000000001,-0.15703295428501907
-0.4367,-0.1587306078448571
-0.4377000000000001,-0.15986237688474914
-0.4387,-0.16071120366466815
-0.4397000000000001,-0.16212591496453319
-0.4407,-0.16354062626439822
-0.4417000000000001,-0.16495533756426325
-0.4427,-0.16622857773414182
-0.4437000000000001,-0.16750181790402036
-0.4447,-0.1689165292038854
-0.4457000000000001,-0.17061418276372342
-0.4467,-0.1728777208435075
-0.4477000000000001,-0.17415096101338604
-0.4487,-0.17514125892329155
-0.4497000000000001,-0.1771218547431026
-0.4507,-0.1783950949129811
-0.4517000000000001,-0.1808001041227517
-0.4527,-0.18193187316264373
-0.4537000000000001,-0.18377099785246825
-0.4547,-0.18532718028231981
-0.4557000000000001,-0.18773218949209036
-0.4567,-0.18971278531190142
-0.4577000000000001,-0.19141043887173945
-0.4587,-0.1933910346915505
-0.4597000000000001,-0.19523015938137506
-0.4607,-0.1972107552011861
-0.4617000000000001,-0.19989870667092968
-0.4627,-0.20145488910078121
-0.4637000000000001,-0.20343548492059227
-0.4647,-0.20541608074040332
-0.4657000000000001,-0.2078210899501739
-0.4667,-0.21050904141991747
-0.4677000000000001,-0.21248963723972852
-0.4687,-0.21475317531951257
-0.4697000000000001,-0.21701671339929662
-0.4707,-0.2195631937390537
-0.4717000000000001,-0.22253408746877026
-0.4727,-0.22550498119848683
-0.4737000000000001,-0.22776851927827088
-0.4747,-0.23017352848804143
-0.4757000000000001,-0.23286147995778506
-0.4767,-0.2354079602975421
-0.4777000000000001,-0.23767149837732615
-0.4787,-0.24021797871708325
-0.4797000000000001,-0.24248151679686727
-0.4807,-0.24559388165657034
-0.48170000000000013,-0.2485647753862869
-0.4827,-0.25139419798601703
-0.48370000000000013,-0.2537992071957876
-0.4847,-0.2567701009255041
