Sept. 3, 2024   15:01:21
Cyclic Voltammetry
File: c:/users/guazh/data/20240903_batch_252_500/2024-09-03-exp253\exp253-2024-09-03t14_40_26-h2koh\exp253_cv_sr_700mvs_efin_-1800mv.bin
Data Source:  Experiment
Instrument Model:  CHI760E
Header: CV ran at 700 mVs
Note: 

Init E (V) = -1
High E (V) = -1
Low E (V) = -1.8
Final E (V) = -1
Init P/N = N
Scan Rate (V/s) = 0.7
Segment = 3
Sample Interval (V) = 0.001
Quiet Time (sec) = 2
Sensitivity (A/V) = 0.01
Comp R (ohm) = 2.1

Results:

Channel 1:
Segment 1:

Segment 2:

Segment 3:

Potential/V, Current/A

-1.000, 1.557e-5
-1.001, 2.174e-5
-1.002, 2.482e-5
-1.003, 2.482e-5
-1.004, 2.482e-5
-1.005, 2.482e-5
-1.006, 2.790e-5
-1.007, 2.790e-5
-1.008, 2.790e-5
-1.009, 3.099e-5
-1.010, 3.099e-5
-1.011, 3.099e-5
-1.012, 3.099e-5
-1.013, 3.099e-5
-1.014, 3.099e-5
-1.015, 3.099e-5
-1.016, 3.099e-5
-1.017, 3.099e-5
-1.018, 3.407e-5
-1.019, 3.099e-5
-1.020, 3.407e-5
-1.021, 3.407e-5
-1.022, 3.407e-5
-1.023, 3.407e-5
-1.024, 3.407e-5
-1.025, 3.407e-5
-1.026, 3.407e-5
-1.027, 3.407e-5
-1.028, 3.407e-5
-1.029, 3.407e-5
-1.030, 3.407e-5
-1.031, 3.407e-5
-1.032, 3.407e-5
-1.033, 3.407e-5
-1.034, 3.407e-5
-1.035, 3.407e-5
-1.036, 3.715e-5
-1.037, 3.715e-5
-1.038, 3.407e-5
-1.039, 3.407e-5
-1.040, 3.407e-5
-1.041, 3.715e-5
-1.042, 3.715e-5
-1.043, 3.715e-5
-1.044, 3.715e-5
-1.045, 3.715e-5
-1.046, 3.715e-5
-1.047, 3.715e-5
-1.048, 3.715e-5
-1.049, 3.715e-5
-1.050, 3.715e-5
-1.051, 3.715e-5
-1.052, 3.715e-5
-1.053, 3.715e-5
-1.054, 3.715e-5
-1.055, 3.715e-5
-1.056, 3.715e-5
-1.057, 3.715e-5
-1.058, 3.715e-5
-1.059, 3.715e-5
-1.060, 3.715e-5
-1.061, 3.715e-5
-1.062, 3.715e-5
-1.063, 3.715e-5
-1.064, 3.715e-5
-1.065, 3.715e-5
-1.066, 3.715e-5
-1.067, 3.715e-5
-1.068, 3.715e-5
-1.069, 3.715e-5
-1.070, 3.715e-5
-1.071, 3.715e-5
-1.072, 3.715e-5
-1.073, 3.715e-5
-1.074, 3.715e-5
-1.075, 3.715e-5
-1.076, 3.715e-5
-1.077, 3.715e-5
-1.078, 3.715e-5
-1.079, 3.715e-5
-1.080, 3.715e-5
-1.081, 3.715e-5
-1.082, 4.024e-5
-1.083, 3.715e-5
-1.084, 3.715e-5
-1.085, 3.715e-5
-1.086, 3.715e-5
-1.087, 3.715e-5
-1.088, 3.715e-5
-1.089, 3.715e-5
-1.090, 3.715e-5
-1.091, 3.715e-5
-1.092, 3.715e-5
-1.093, 3.715e-5
-1.094, 3.715e-5
-1.095, 3.715e-5
-1.096, 3.715e-5
-1.097, 3.715e-5
-1.098, 3.715e-5
-1.099, 4.024e-5
-1.100, 4.024e-5
-1.101, 3.715e-5
-1.102, 3.715e-5
-1.103, 3.715e-5
-1.104, 3.715e-5
-1.105, 4.024e-5
-1.106, 3.715e-5
-1.107, 4.024e-5
-1.108, 3.715e-5
-1.109, 3.715e-5
-1.110, 3.715e-5
-1.111, 4.024e-5
-1.112, 4.024e-5
-1.113, 4.024e-5
-1.114, 4.024e-5
-1.115, 3.715e-5
-1.116, 4.024e-5
-1.117, 3.715e-5
-1.118, 4.024e-5
-1.119, 4.024e-5
-1.120, 3.715e-5
-1.121, 4.024e-5
-1.122, 3.715e-5
-1.123, 3.715e-5
-1.124, 4.024e-5
-1.125, 4.024e-5
-1.126, 4.024e-5
-1.127, 4.024e-5
-1.128, 4.024e-5
-1.129, 4.024e-5
-1.130, 4.024e-5
-1.131, 4.024e-5
-1.132, 4.024e-5
-1.133, 4.024e-5
-1.134, 4.024e-5
-1.135, 4.024e-5
-1.136, 4.024e-5
-1.137, 4.024e-5
-1.138, 4.024e-5
-1.139, 4.024e-5
-1.140, 4.024e-5
-1.141, 4.024e-5
-1.142, 4.024e-5
-1.143, 4.024e-5
-1.144, 4.024e-5
-1.145, 4.024e-5
-1.146, 4.024e-5
-1.147, 4.024e-5
-1.148, 4.024e-5
-1.149, 4.024e-5
-1.150, 4.024e-5
-1.151, 4.024e-5
-1.152, 4.024e-5
-1.153, 4.024e-5
-1.154, 4.024e-5
-1.155, 4.024e-5
-1.156, 4.024e-5
-1.157, 4.024e-5
-1.158, 4.024e-5
-1.159, 4.024e-5
-1.160, 4.024e-5
-1.161, 4.024e-5
-1.162, 4.024e-5
-1.163, 4.024e-5
-1.164, 4.332e-5
-1.165, 4.024e-5
-1.166, 4.024e-5
-1.167, 4.024e-5
-1.168, 4.024e-5
-1.169, 4.024e-5
-1.170, 4.024e-5
-1.171, 4.024e-5
-1.172, 4.024e-5
-1.173, 4.024e-5
-1.174, 4.024e-5
-1.175, 4.332e-5
-1.176, 4.332e-5
-1.177, 4.024e-5
-1.178, 4.332e-5
-1.179, 4.332e-5
-1.180, 4.332e-5
-1.181, 4.332e-5
-1.182, 4.332e-5
-1.183, 4.332e-5
-1.184, 4.332e-5
-1.185, 4.332e-5
-1.186, 4.332e-5
-1.187, 4.332e-5
-1.188, 4.332e-5
-1.189, 4.332e-5
-1.190, 4.332e-5
-1.191, 4.332e-5
-1.192, 4.332e-5
-1.193, 4.332e-5
-1.194, 4.332e-5
-1.195, 4.332e-5
-1.196, 4.332e-5
-1.197, 4.332e-5
-1.198, 4.332e-5
-1.199, 4.332e-5
-1.200, 4.332e-5
-1.201, 4.332e-5
-1.202, 4.332e-5
-1.203, 4.332e-5
-1.204, 4.332e-5
-1.205, 4.332e-5
-1.206, 4.332e-5
-1.207, 4.332e-5
-1.208, 4.332e-5
-1.209, 4.332e-5
-1.210, 4.640e-5
-1.211, 4.332e-5
-1.212, 4.332e-5
-1.213, 4.332e-5
-1.214, 4.332e-5
-1.215, 4.332e-5
-1.216, 4.640e-5
-1.217, 4.640e-5
-1.218, 4.640e-5
-1.219, 4.640e-5
-1.220, 4.332e-5
-1.221, 4.640e-5
-1.222, 4.640e-5
-1.223, 4.640e-5
-1.224, 4.640e-5
-1.225, 4.640e-5
-1.226, 4.640e-5
-1.227, 4.640e-5
-1.228, 4.640e-5
-1.229, 4.640e-5
-1.230, 4.640e-5
-1.231, 4.640e-5
-1.232, 4.640e-5
-1.233, 4.640e-5
-1.234, 4.640e-5
-1.235, 4.640e-5
-1.236, 4.640e-5
-1.237, 4.949e-5
-1.238, 4.640e-5
-1.239, 4.640e-5
-1.240, 4.640e-5
-1.241, 4.640e-5
-1.242, 4.640e-5
-1.243, 4.640e-5
-1.244, 4.640e-5
-1.245, 4.640e-5
-1.246, 4.640e-5
-1.247, 4.949e-5
-1.248, 4.949e-5
-1.249, 4.949e-5
-1.250, 4.949e-5
-1.251, 4.949e-5
-1.252, 4.949e-5
-1.253, 4.949e-5
-1.254, 4.949e-5
-1.255, 4.949e-5
-1.256, 4.949e-5
-1.257, 4.949e-5
-1.258, 4.949e-5
-1.259, 4.949e-5
-1.260, 4.949e-5
-1.261, 4.949e-5
-1.262, 4.949e-5
-1.263, 4.949e-5
-1.264, 4.949e-5
-1.265, 4.949e-5
-1.266, 5.257e-5
-1.267, 5.257e-5
-1.268, 5.257e-5
-1.269, 5.257e-5
-1.270, 4.949e-5
-1.271, 5.257e-5
-1.272, 5.257e-5
-1.273, 5.257e-5
-1.274, 5.257e-5
-1.275, 5.257e-5
-1.276, 5.257e-5
-1.277, 5.257e-5
-1.278, 5.565e-5
-1.279, 5.257e-5
-1.280, 5.565e-5
-1.281, 5.565e-5
-1.282, 5.257e-5
-1.283, 5.257e-5
-1.284, 5.565e-5
-1.285, 5.565e-5
-1.286, 5.565e-5
-1.287, 5.565e-5
-1.288, 5.565e-5
-1.289, 5.565e-5
-1.290, 5.565e-5
-1.291, 5.565e-5
-1.292, 5.873e-5
-1.293, 5.565e-5
-1.294, 5.565e-5
-1.295, 5.565e-5
-1.296, 5.565e-5
-1.297, 5.873e-5
-1.298, 5.873e-5
-1.299, 5.873e-5
-1.300, 5.873e-5
-1.301, 5.873e-5
-1.302, 5.873e-5
-1.303, 6.182e-5
-1.304, 5.873e-5
-1.305, 6.182e-5
-1.306, 6.182e-5
-1.307, 6.182e-5
-1.308, 6.182e-5
-1.309, 6.182e-5
-1.310, 6.182e-5
-1.311, 6.182e-5
-1.312, 6.182e-5
-1.313, 6.182e-5
-1.314, 6.490e-5
-1.315, 6.490e-5
-1.316, 6.490e-5
-1.317, 6.490e-5
-1.318, 6.490e-5
-1.319, 6.490e-5
-1.320, 6.490e-5
-1.321, 6.490e-5
-1.322, 6.798e-5
-1.323, 6.798e-5
-1.324, 6.798e-5
-1.325, 6.798e-5
-1.326, 6.798e-5
-1.327, 7.107e-5
-1.328, 6.798e-5
-1.329, 7.107e-5
-1.330, 7.107e-5
-1.331, 7.107e-5
-1.332, 7.107e-5
-1.333, 7.415e-5
-1.334, 7.415e-5
-1.335, 7.415e-5
-1.336, 7.415e-5
-1.337, 7.415e-5
-1.338, 7.415e-5
-1.339, 7.723e-5
-1.340, 7.723e-5
-1.341, 7.723e-5
-1.342, 7.723e-5
-1.343, 7.723e-5
-1.344, 8.032e-5
-1.345, 8.032e-5
-1.346, 8.032e-5
-1.347, 8.032e-5
-1.348, 8.032e-5
-1.349, 8.340e-5
-1.350, 8.340e-5
-1.351, 8.340e-5
-1.352, 8.340e-5
-1.353, 8.648e-5
-1.354, 8.340e-5
-1.355, 8.648e-5
-1.356, 8.648e-5
-1.357, 8.957e-5
-1.358, 8.957e-5
-1.359, 8.957e-5
-1.360, 8.957e-5
-1.361, 9.265e-5
-1.362, 9.265e-5
-1.363, 9.265e-5
-1.364, 9.573e-5
-1.365, 9.573e-5
-1.366, 9.573e-5
-1.367, 9.882e-5
-1.368, 9.573e-5
-1.369, 9.882e-5
-1.370, 9.882e-5
-1.371, 9.882e-5
-1.372, 1.019e-4
-1.373, 1.019e-4
-1.374, 1.050e-4
-1.375, 1.050e-4
-1.376, 1.050e-4
-1.377, 1.050e-4
-1.378, 1.081e-4
-1.379, 1.081e-4
-1.380, 1.081e-4
-1.381, 1.111e-4
-1.382, 1.111e-4
-1.383, 1.142e-4
-1.384, 1.142e-4
-1.385, 1.142e-4
-1.386, 1.173e-4
-1.387, 1.173e-4
-1.388, 1.204e-4
-1.389, 1.204e-4
-1.390, 1.204e-4
-1.391, 1.204e-4
-1.392, 1.235e-4
-1.393, 1.266e-4
-1.394, 1.266e-4
-1.395, 1.266e-4
-1.396, 1.296e-4
-1.397, 1.296e-4
-1.398, 1.296e-4
-1.399, 1.327e-4
-1.400, 1.327e-4
-1.401, 1.358e-4
-1.402, 1.358e-4
-1.403, 1.389e-4
-1.404, 1.389e-4
-1.405, 1.389e-4
-1.406, 1.420e-4
-1.407, 1.420e-4
-1.408, 1.451e-4
-1.409, 1.481e-4
-1.410, 1.481e-4
-1.411, 1.481e-4
-1.412, 1.512e-4
-1.413, 1.543e-4
-1.414, 1.543e-4
-1.415, 1.574e-4
-1.416, 1.574e-4
-1.417, 1.605e-4
-1.418, 1.605e-4
-1.419, 1.605e-4
-1.420, 1.636e-4
-1.421, 1.666e-4
-1.422, 1.666e-4
-1.423, 1.697e-4
-1.424, 1.697e-4
-1.425, 1.728e-4
-1.426, 1.728e-4
-1.427, 1.759e-4
-1.428, 1.759e-4
-1.429, 1.790e-4
-1.430, 1.821e-4
-1.431, 1.821e-4
-1.432, 1.851e-4
-1.433, 1.851e-4
-1.434, 1.882e-4
-1.435, 1.882e-4
-1.436, 1.913e-4
-1.437, 1.913e-4
-1.438, 1.944e-4
-1.439, 1.975e-4
-1.440, 2.006e-4
-1.441, 2.006e-4
-1.442, 2.036e-4
-1.443, 2.036e-4
-1.444, 2.067e-4
-1.445, 2.098e-4
-1.446, 2.098e-4
-1.447, 2.129e-4
-1.448, 2.129e-4
-1.449, 2.160e-4
-1.450, 2.191e-4
-1.451, 2.191e-4
-1.452, 2.221e-4
-1.453, 2.252e-4
-1.454, 2.252e-4
-1.455, 2.283e-4
-1.456, 2.283e-4
-1.457, 2.314e-4
-1.458, 2.345e-4
-1.459, 2.345e-4
-1.460, 2.376e-4
-1.461, 2.406e-4
-1.462, 2.406e-4
-1.463, 2.437e-4
-1.464, 2.468e-4
-1.465, 2.499e-4
-1.466, 2.499e-4
-1.467, 2.530e-4
-1.468, 2.561e-4
-1.469, 2.561e-4
-1.470, 2.591e-4
-1.471, 2.622e-4
-1.472, 2.653e-4
-1.473, 2.653e-4
-1.474, 2.684e-4
-1.475, 2.684e-4
-1.476, 2.746e-4
-1.477, 2.746e-4
-1.478, 2.776e-4
-1.479, 2.807e-4
-1.480, 2.807e-4
-1.481, 2.838e-4
-1.482, 2.869e-4
-1.483, 2.900e-4
-1.484, 2.931e-4
-1.485, 2.931e-4
-1.486, 2.961e-4
-1.487, 2.992e-4
-1.488, 3.023e-4
-1.489, 3.023e-4
-1.490, 3.085e-4
-1.491, 3.085e-4
-1.492, 3.115e-4
-1.493, 3.146e-4
-1.494, 3.146e-4
-1.495, 3.208e-4
-1.496, 3.208e-4
-1.497, 3.239e-4
-1.498, 3.270e-4
-1.499, 3.300e-4
-1.500, 3.331e-4
-1.501, 3.362e-4
-1.502, 3.393e-4
-1.503, 3.393e-4
-1.504, 3.424e-4
-1.505, 3.455e-4
-1.506, 3.485e-4
-1.507, 3.516e-4
-1.508, 3.547e-4
-1.509, 3.547e-4
-1.510, 3.578e-4
-1.511, 3.640e-4
-1.512, 3.640e-4
-1.513, 3.701e-4
-1.514, 3.701e-4
-1.515, 3.732e-4
-1.516, 3.794e-4
-1.517, 3.794e-4
-1.518, 3.825e-4
-1.519, 3.855e-4
-1.520, 3.917e-4
-1.521, 3.917e-4
-1.522, 3.948e-4
-1.523, 3.979e-4
-1.524, 4.010e-4
-1.525, 4.071e-4
-1.526, 4.071e-4
-1.527, 4.133e-4
-1.528, 4.133e-4
-1.529, 4.195e-4
-1.530, 4.195e-4
-1.531, 4.256e-4
-1.532, 4.287e-4
-1.533, 4.318e-4
-1.534, 4.349e-4
-1.535, 4.380e-4
-1.536, 4.410e-4
-1.537, 4.472e-4
-1.538, 4.503e-4
-1.539, 4.534e-4
-1.540, 4.565e-4
-1.541, 4.595e-4
-1.542, 4.657e-4
-1.543, 4.688e-4
-1.544, 4.719e-4
-1.545, 4.780e-4
-1.546, 4.811e-4
-1.547, 4.842e-4
-1.548, 4.873e-4
-1.549, 4.935e-4
-1.550, 4.965e-4
-1.551, 4.996e-4
-1.552, 5.058e-4
-1.553, 5.089e-4
-1.554, 5.150e-4
-1.555, 5.181e-4
-1.556, 5.212e-4
-1.557, 5.274e-4
-1.558, 5.305e-4
-1.559, 5.366e-4
-1.560, 5.397e-4
-1.561, 5.459e-4
-1.562, 5.520e-4
-1.563, 5.551e-4
-1.564, 5.582e-4
-1.565, 5.644e-4
-1.566, 5.705e-4
-1.567, 5.767e-4
-1.568, 5.798e-4
-1.569, 5.859e-4
-1.570, 5.890e-4
-1.571, 5.952e-4
-1.572, 6.014e-4
-1.573, 6.075e-4
-1.574, 6.106e-4
-1.575, 6.168e-4
-1.576, 6.229e-4
-1.577, 6.260e-4
-1.578, 6.322e-4
-1.579, 6.384e-4
-1.580, 6.445e-4
-1.581, 6.507e-4
-1.582, 6.569e-4
-1.583, 6.630e-4
-1.584, 6.692e-4
-1.585, 6.723e-4
-1.586, 6.815e-4
-1.587, 6.877e-4
-1.588, 6.939e-4
-1.589, 7.000e-4
-1.590, 7.062e-4
-1.591, 7.154e-4
-1.592, 7.216e-4
-1.593, 7.278e-4
-1.594, 7.339e-4
-1.595, 7.432e-4
-1.596, 7.494e-4
-1.597, 7.555e-4
-1.598, 7.648e-4
-1.599, 7.709e-4
-1.600, 7.802e-4
-1.601, 7.863e-4
-1.602, 7.956e-4
-1.603, 8.048e-4
-1.604, 8.110e-4
-1.605, 8.203e-4
-1.606, 8.295e-4
-1.607, 8.388e-4
-1.608, 8.449e-4
-1.609, 8.542e-4
-1.610, 8.634e-4
-1.611, 8.727e-4
-1.612, 8.819e-4
-1.613, 8.912e-4
-1.614, 9.004e-4
-1.615, 9.097e-4
-1.616, 9.189e-4
-1.617, 9.282e-4
-1.618, 9.405e-4
-1.619, 9.498e-4
-1.620, 9.590e-4
-1.621, 9.683e-4
-1.622, 9.806e-4
-1.623, 9.898e-4
-1.624, 1.002e-3
-1.625, 1.014e-3
-1.626, 1.024e-3
-1.627, 1.036e-3
-1.628, 1.048e-3
-1.629, 1.061e-3
-1.630, 1.073e-3
-1.631, 1.082e-3
-1.632, 1.098e-3
-1.633, 1.107e-3
-1.634, 1.119e-3
-1.635, 1.132e-3
-1.636, 1.147e-3
-1.637, 1.159e-3
-1.638, 1.175e-3
-1.639, 1.187e-3
-1.640, 1.199e-3
-1.641, 1.215e-3
-1.642, 1.227e-3
-1.643, 1.243e-3
-1.644, 1.258e-3
-1.645, 1.273e-3
-1.646, 1.286e-3
-1.647, 1.301e-3
-1.648, 1.320e-3
-1.649, 1.332e-3
-1.650, 1.351e-3
-1.651, 1.369e-3
-1.652, 1.384e-3
-1.653, 1.400e-3
-1.654, 1.418e-3
-1.655, 1.434e-3
-1.656, 1.452e-3
-1.657, 1.471e-3
-1.658, 1.489e-3
-1.659, 1.508e-3
-1.660, 1.526e-3
-1.661, 1.542e-3
-1.662, 1.560e-3
-1.663, 1.579e-3
-1.664, 1.597e-3
-1.665, 1.616e-3
-1.666, 1.637e-3
-1.667, 1.656e-3
-1.668, 1.677e-3
-1.669, 1.696e-3
-1.670, 1.717e-3
-1.671, 1.742e-3
-1.672, 1.761e-3
-1.673, 1.785e-3
-1.674, 1.807e-3
-1.675, 1.828e-3
-1.676, 1.850e-3
-1.677, 1.875e-3
-1.678, 1.896e-3
-1.679, 1.921e-3
-1.680, 1.943e-3
-1.681, 1.964e-3
-1.682, 1.992e-3
-1.683, 2.020e-3
-1.684, 2.041e-3
-1.685, 2.066e-3
-1.686, 2.091e-3
-1.687, 2.118e-3
-1.688, 2.143e-3
-1.689, 2.174e-3
-1.690, 2.198e-3
-1.691, 2.226e-3
-1.692, 2.254e-3
-1.693, 2.285e-3
-1.694, 2.316e-3
-1.695, 2.346e-3
-1.696, 2.374e-3
-1.697, 2.405e-3
-1.698, 2.439e-3
-1.699, 2.470e-3
-1.700, 2.504e-3
-1.701, 2.538e-3
-1.702, 2.571e-3
-1.703, 2.612e-3
-1.704, 2.649e-3
-1.705, 2.686e-3
-1.706, 2.723e-3
-1.707, 2.763e-3
-1.708, 2.803e-3
-1.709, 2.843e-3
-1.710, 2.883e-3
-1.711, 2.920e-3
-1.712, 2.960e-3
-1.713, 3.003e-3
-1.714, 3.043e-3
-1.715, 3.083e-3
-1.716, 3.123e-3
-1.717, 3.163e-3
-1.718, 3.210e-3
-1.719, 3.250e-3
-1.720, 3.290e-3
-1.721, 3.333e-3
-1.722, 3.376e-3
-1.723, 3.419e-3
-1.724, 3.466e-3
-1.725, 3.512e-3
-1.726, 3.561e-3
-1.727, 3.607e-3
-1.728, 3.657e-3
-1.729, 3.703e-3
-1.730, 3.752e-3
-1.731, 3.799e-3
-1.732, 3.848e-3
-1.733, 3.897e-3
-1.734, 3.950e-3
-1.735, 4.002e-3
-1.736, 4.051e-3
-1.737, 4.104e-3
-1.738, 4.156e-3
-1.739, 4.209e-3
-1.740, 4.264e-3
-1.741, 4.320e-3
-1.742, 4.375e-3
-1.743, 4.431e-3
-1.744, 4.486e-3
-1.745, 4.542e-3
-1.746, 4.597e-3
-1.747, 4.656e-3
-1.748, 4.714e-3
-1.749, 4.773e-3
-1.750, 4.831e-3
-1.751, 4.890e-3
-1.752, 4.949e-3
-1.753, 5.010e-3
-1.754, 5.072e-3
-1.755, 5.134e-3
-1.756, 5.195e-3
-1.757, 5.260e-3
-1.758, 5.322e-3
-1.759, 5.383e-3
-1.760, 5.445e-3
-1.761, 5.507e-3
-1.762, 5.568e-3
-1.763, 5.633e-3
-1.764, 5.695e-3
-1.765, 5.756e-3
-1.766, 5.821e-3
-1.767, 5.886e-3
-1.768, 5.951e-3
-1.769, 6.012e-3
-1.770, 6.077e-3
-1.771, 6.142e-3
-1.772, 6.206e-3
-1.773, 6.274e-3
-1.774, 6.342e-3
-1.775, 6.413e-3
-1.776, 6.484e-3
-1.777, 6.555e-3
-1.778, 6.623e-3
-1.779, 6.691e-3
-1.780, 6.758e-3
-1.781, 6.829e-3
-1.782, 6.900e-3
-1.783, 6.968e-3
-1.784, 7.039e-3
-1.785, 7.110e-3
-1.786, 7.181e-3
-1.787, 7.252e-3
-1.788, 7.326e-3
-1.789, 7.403e-3
-1.790, 7.480e-3
-1.791, 7.557e-3
-1.792, 7.634e-3
-1.793, 7.711e-3
-1.794, 7.785e-3
-1.795, 7.865e-3
-1.796, 7.948e-3
-1.797, 8.035e-3
-1.798, 8.115e-3
-1.799, 8.198e-3
-1.800, 8.232e-3
-1.799, 8.183e-3
-1.798, 8.133e-3
-1.797, 8.081e-3
-1.796, 8.029e-3
-1.795, 7.976e-3
-1.794, 7.921e-3
-1.793, 7.865e-3
-1.792, 7.810e-3
-1.791, 7.754e-3
-1.790, 7.696e-3
-1.789, 7.634e-3
-1.788, 7.551e-3
-1.787, 7.461e-3
-1.786, 7.369e-3
-1.785, 7.279e-3
-1.784, 7.196e-3
-1.783, 7.110e-3
-1.782, 7.023e-3
-1.781, 6.940e-3
-1.780, 6.860e-3
-1.779, 6.786e-3
-1.778, 6.712e-3
-1.777, 6.650e-3
-1.776, 6.586e-3
-1.775, 6.521e-3
-1.774, 6.462e-3
-1.773, 6.398e-3
-1.772, 6.327e-3
-1.771, 6.265e-3
-1.770, 6.219e-3
-1.769, 6.169e-3
-1.768, 6.114e-3
-1.767, 6.052e-3
-1.766, 5.997e-3
-1.765, 5.944e-3
-1.764, 5.907e-3
-1.763, 5.849e-3
-1.762, 5.784e-3
-1.761, 5.722e-3
-1.760, 5.673e-3
-1.759, 5.624e-3
-1.758, 5.565e-3
-1.757, 5.504e-3
-1.756, 5.448e-3
-1.755, 5.399e-3
-1.754, 5.356e-3
-1.753, 5.309e-3
-1.752, 5.263e-3
-1.751, 5.211e-3
-1.750, 5.152e-3
-1.749, 5.097e-3
-1.748, 5.038e-3
-1.747, 4.982e-3
-1.746, 4.933e-3
-1.745, 4.881e-3
-1.744, 4.828e-3
-1.743, 4.779e-3
-1.742, 4.723e-3
-1.741, 4.671e-3
-1.740, 4.619e-3
-1.739, 4.569e-3
-1.738, 4.523e-3
-1.737, 4.474e-3
-1.736, 4.428e-3
-1.735, 4.381e-3
-1.734, 4.338e-3
-1.733, 4.292e-3
-1.732, 4.246e-3
-1.731, 4.199e-3
-1.730, 4.156e-3
-1.729, 4.110e-3
-1.728, 4.064e-3
-1.727, 4.017e-3
-1.726, 3.971e-3
-1.725, 3.922e-3
-1.724, 3.876e-3
-1.723, 3.832e-3
-1.722, 3.786e-3
-1.721, 3.743e-3
-1.720, 3.700e-3
-1.719, 3.657e-3
-1.718, 3.614e-3
-1.717, 3.573e-3
-1.716, 3.530e-3
-1.715, 3.487e-3
-1.714, 3.447e-3
-1.713, 3.407e-3
-1.712, 3.367e-3
-1.711, 3.327e-3
-1.710, 3.287e-3
-1.709, 3.244e-3
-1.708, 3.204e-3
-1.707, 3.163e-3
-1.706, 3.123e-3
-1.705, 3.086e-3
-1.704, 3.046e-3
-1.703, 3.009e-3
-1.702, 2.972e-3
-1.701, 2.932e-3
-1.700, 2.895e-3
-1.699, 2.861e-3
-1.698, 2.824e-3
-1.697, 2.793e-3
-1.696, 2.760e-3
-1.695, 2.723e-3
-1.694, 2.689e-3
-1.693, 2.655e-3
-1.692, 2.621e-3
-1.691, 2.587e-3
-1.690, 2.553e-3
-1.689, 2.522e-3
-1.688, 2.488e-3
-1.687, 2.454e-3
-1.686, 2.423e-3
-1.685, 2.390e-3
-1.684, 2.359e-3
-1.683, 2.328e-3
-1.682, 2.297e-3
-1.681, 2.266e-3
-1.680, 2.238e-3
-1.679, 2.208e-3
-1.678, 2.180e-3
-1.677, 2.149e-3
-1.676, 2.121e-3
-1.675, 2.094e-3
-1.674, 2.066e-3
-1.673, 2.038e-3
-1.672, 2.010e-3
-1.671, 1.983e-3
-1.670, 1.952e-3
-1.669, 1.921e-3
-1.668, 1.893e-3
-1.667, 1.865e-3
-1.666, 1.838e-3
-1.665, 1.810e-3
-1.664, 1.785e-3
-1.663, 1.758e-3
-1.662, 1.736e-3
-1.661, 1.714e-3
-1.660, 1.690e-3
-1.659, 1.668e-3
-1.658, 1.643e-3
-1.657, 1.622e-3
-1.656, 1.597e-3
-1.655, 1.576e-3
-1.654, 1.554e-3
-1.653, 1.532e-3
-1.652, 1.511e-3
-1.651, 1.489e-3
-1.650, 1.468e-3
-1.649, 1.446e-3
-1.648, 1.428e-3
-1.647, 1.406e-3
-1.646, 1.388e-3
-1.645, 1.366e-3
-1.644, 1.351e-3
-1.643, 1.329e-3
-1.642, 1.310e-3
-1.641, 1.295e-3
-1.640, 1.277e-3
-1.639, 1.258e-3
-1.638, 1.243e-3
-1.637, 1.224e-3
-1.636, 1.209e-3
-1.635, 1.190e-3
-1.634, 1.175e-3
-1.633, 1.159e-3
-1.632, 1.141e-3
-1.631, 1.125e-3
-1.630, 1.110e-3
-1.629, 1.095e-3
-1.628, 1.082e-3
-1.627, 1.064e-3
-1.626, 1.051e-3
-1.625, 1.036e-3
-1.624, 1.024e-3
-1.623, 1.011e-3
-1.622, 9.960e-4
-1.621, 9.806e-4
-1.620, 9.683e-4
-1.619, 9.559e-4
-1.618, 9.436e-4
-1.617, 9.282e-4
-1.616, 9.158e-4
-1.615, 9.035e-4
-1.614, 8.943e-4
-1.613, 8.819e-4
-1.612, 8.665e-4
-1.611, 8.573e-4
-1.610, 8.449e-4
-1.609, 8.357e-4
-1.608, 8.233e-4
-1.607, 8.110e-4
-1.606, 8.018e-4
-1.605, 7.894e-4
-1.604, 7.802e-4
-1.603, 7.679e-4
-1.602, 7.586e-4
-1.601, 7.494e-4
-1.600, 7.370e-4
-1.599, 7.278e-4
-1.598, 7.154e-4
-1.597, 7.062e-4
-1.596, 6.969e-4
-1.595, 6.877e-4
-1.594, 6.784e-4
-1.593, 6.692e-4
-1.592, 6.599e-4
-1.591, 6.507e-4
-1.590, 6.414e-4
-1.589, 6.322e-4
-1.588, 6.229e-4
-1.587, 6.168e-4
-1.586, 6.075e-4
-1.585, 5.983e-4
-1.584, 5.921e-4
-1.583, 5.829e-4
-1.582, 5.736e-4
-1.581, 5.644e-4
-1.580, 5.582e-4
-1.579, 5.520e-4
-1.578, 5.428e-4
-1.577, 5.366e-4
-1.576, 5.274e-4
-1.575, 5.212e-4
-1.574, 5.120e-4
-1.573, 5.089e-4
-1.572, 4.996e-4
-1.571, 4.935e-4
-1.570, 4.842e-4
-1.569, 4.780e-4
-1.568, 4.719e-4
-1.567, 4.657e-4
-1.566, 4.595e-4
-1.565, 4.534e-4
-1.564, 4.472e-4
-1.563, 4.410e-4
-1.562, 4.349e-4
-1.561, 4.287e-4
-1.560, 4.225e-4
-1.559, 4.164e-4
-1.558, 4.102e-4
-1.557, 4.040e-4
-1.556, 3.979e-4
-1.555, 3.948e-4
-1.554, 3.886e-4
-1.553, 3.825e-4
-1.552, 3.794e-4
-1.551, 3.701e-4
-1.550, 3.670e-4
-1.549, 3.609e-4
-1.548, 3.547e-4
-1.547, 3.485e-4
-1.546, 3.455e-4
-1.545, 3.424e-4
-1.544, 3.362e-4
-1.543, 3.331e-4
-1.542, 3.270e-4
-1.541, 3.208e-4
-1.540, 3.146e-4
-1.539, 3.115e-4
-1.538, 3.085e-4
-1.537, 3.023e-4
-1.536, 2.992e-4
-1.535, 2.931e-4
-1.534, 2.900e-4
-1.533, 2.869e-4
-1.532, 2.807e-4
-1.531, 2.776e-4
-1.530, 2.746e-4
-1.529, 2.684e-4
-1.528, 2.653e-4
-1.527, 2.622e-4
-1.526, 2.561e-4
-1.525, 2.530e-4
-1.524, 2.499e-4
-1.523, 2.468e-4
-1.522, 2.406e-4
-1.521, 2.376e-4
-1.520, 2.345e-4
-1.519, 2.314e-4
-1.518, 2.283e-4
-1.517, 2.252e-4
-1.516, 2.191e-4
-1.515, 2.191e-4
-1.514, 2.129e-4
-1.513, 2.098e-4
-1.512, 2.067e-4
-1.511, 2.036e-4
-1.510, 2.006e-4
-1.509, 1.975e-4
-1.508, 1.944e-4
-1.507, 1.913e-4
-1.506, 1.882e-4
-1.505, 1.851e-4
-1.504, 1.821e-4
-1.503, 1.790e-4
-1.502, 1.759e-4
-1.501, 1.728e-4
-1.500, 1.697e-4
-1.499, 1.666e-4
-1.498, 1.636e-4
-1.497, 1.605e-4
-1.496, 1.574e-4
-1.495, 1.574e-4
-1.494, 1.543e-4
-1.493, 1.512e-4
-1.492, 1.481e-4
-1.491, 1.451e-4
-1.490, 1.420e-4
-1.489, 1.420e-4
-1.488, 1.389e-4
-1.487, 1.358e-4
-1.486, 1.358e-4
-1.485, 1.327e-4
-1.484, 1.296e-4
-1.483, 1.266e-4
-1.482, 1.235e-4
-1.481, 1.204e-4
-1.480, 1.204e-4
-1.479, 1.173e-4
-1.478, 1.142e-4
-1.477, 1.111e-4
-1.476, 1.081e-4
-1.475, 1.081e-4
-1.474, 1.050e-4
-1.473, 1.050e-4
-1.472, 1.019e-4
-1.471, 9.882e-5
-1.470, 9.573e-5
-1.469, 9.573e-5
-1.468, 9.265e-5
-1.467, 8.957e-5
-1.466, 8.957e-5
-1.465, 8.648e-5
-1.464, 8.340e-5
-1.463, 8.340e-5
-1.462, 8.032e-5
-1.461, 8.032e-5
-1.460, 7.723e-5
-1.459, 7.415e-5
-1.458, 7.415e-5
-1.457, 7.107e-5
-1.456, 7.107e-5
-1.455, 6.798e-5
-1.454, 6.490e-5
-1.453, 6.490e-5
-1.452, 6.182e-5
-1.451, 6.182e-5
-1.450, 5.873e-5
-1.449, 5.873e-5
-1.448, 5.565e-5
-1.447, 5.565e-5
-1.446, 5.257e-5
-1.445, 5.257e-5
-1.444, 4.949e-5
-1.443, 4.640e-5
-1.442, 4.640e-5
-1.441, 4.640e-5
-1.440, 4.332e-5
-1.439, 4.332e-5
-1.438, 4.024e-5
-1.437, 4.024e-5
-1.436, 4.024e-5
-1.435, 3.715e-5
-1.434, 3.407e-5
-1.433, 3.407e-5
-1.432, 3.099e-5
-1.431, 3.099e-5
-1.430, 3.099e-5
-1.429, 2.790e-5
-1.428, 2.790e-5
-1.427, 2.482e-5
-1.426, 2.482e-5
-1.425, 2.482e-5
-1.424, 2.174e-5
-1.423, 2.174e-5
-1.422, 1.865e-5
-1.421, 1.865e-5
-1.420, 1.557e-5
-1.419, 1.557e-5
-1.418, 1.557e-5
-1.417, 1.557e-5
-1.416, 1.249e-5
-1.415, 9.405e-6
-1.414, 9.405e-6
-1.413, 9.405e-6
-1.412, 6.322e-6
-1.411, 6.322e-6
-1.410, 6.322e-6
-1.409, 3.239e-6
-1.408, 3.239e-6
-1.407, 1.559e-7
-1.406, 3.239e-6
-1.405, 1.559e-7
-1.404, 1.559e-7
-1.403, 1.559e-7
-1.402, -2.927e-6
-1.401, -2.927e-6
-1.400, -2.927e-6
-1.399, -2.927e-6
-1.398, -6.010e-6
-1.397, -6.010e-6
-1.396, -9.093e-6
-1.395, -9.093e-6
-1.394, -9.093e-6
-1.393, -1.218e-5
-1.392, -1.218e-5
-1.391, -1.218e-5
-1.390, -1.218e-5
-1.389, -1.218e-5
-1.388, -1.526e-5
-1.387, -1.526e-5
-1.386, -1.526e-5
-1.385, -1.526e-5
-1.384, -1.834e-5
-1.383, -1.834e-5
-1.382, -1.834e-5
-1.381, -1.834e-5
-1.380, -1.834e-5
-1.379, -2.143e-5
-1.378, -2.143e-5
-1.377, -2.143e-5
-1.376, -2.451e-5
-1.375, -2.451e-5
-1.374, -2.451e-5
-1.373, -2.451e-5
-1.372, -2.451e-5
-1.371, -2.759e-5
-1.370, -2.759e-5
-1.369, -2.759e-5
-1.368, -2.759e-5
-1.367, -2.759e-5
-1.366, -3.068e-5
-1.365, -3.068e-5
-1.364, -3.068e-5
-1.363, -3.068e-5
-1.362, -3.068e-5
-1.361, -3.068e-5
-1.360, -3.376e-5
-1.359, -3.376e-5
-1.358, -3.376e-5
-1.357, -3.376e-5
-1.356, -3.376e-5
-1.355, -3.684e-5
-1.354, -3.376e-5
-1.353, -3.684e-5
-1.352, -3.684e-5
-1.351, -3.684e-5
-1.350, -3.684e-5
-1.349, -3.684e-5
-1.348, -3.684e-5
-1.347, -3.684e-5
-1.346, -3.684e-5
-1.345, -3.992e-5
-1.344, -3.992e-5
-1.343, -3.992e-5
-1.342, -3.992e-5
-1.341, -3.992e-5
-1.340, -3.992e-5
-1.339, -3.992e-5
-1.338, -3.992e-5
-1.337, -4.301e-5
-1.336, -4.301e-5
-1.335, -4.301e-5
-1.334, -4.301e-5
-1.333, -4.301e-5
-1.332, -4.301e-5
-1.331, -4.609e-5
-1.330, -4.301e-5
-1.329, -4.609e-5
-1.328, -4.301e-5
-1.327, -4.609e-5
-1.326, -4.609e-5
-1.325, -4.609e-5
-1.324, -4.609e-5
-1.323, -4.609e-5
-1.322, -4.609e-5
-1.321, -4.609e-5
-1.320, -4.609e-5
-1.319, -4.917e-5
-1.318, -4.917e-5
-1.317, -4.917e-5
-1.316, -4.917e-5
-1.315, -4.917e-5
-1.314, -4.917e-5
-1.313, -4.917e-5
-1.312, -4.917e-5
-1.311, -4.917e-5
-1.310, -4.917e-5
-1.309, -4.917e-5
-1.308, -4.917e-5
-1.307, -4.917e-5
-1.306, -5.226e-5
-1.305, -5.226e-5
-1.304, -5.226e-5
-1.303, -5.226e-5
-1.302, -5.226e-5
-1.301, -5.226e-5
-1.300, -5.226e-5
-1.299, -5.226e-5
-1.298, -5.226e-5
-1.297, -5.226e-5
-1.296, -5.226e-5
-1.295, -5.226e-5
-1.294, -5.226e-5
-1.293, -5.534e-5
-1.292, -5.226e-5
-1.291, -5.226e-5
-1.290, -5.534e-5
-1.289, -5.534e-5
-1.288, -5.534e-5
-1.287, -5.534e-5
-1.286, -5.534e-5
-1.285, -5.534e-5
-1.284, -5.534e-5
-1.283, -5.534e-5
-1.282, -5.534e-5
-1.281, -5.534e-5
-1.280, -5.534e-5
-1.279, -5.534e-5
-1.278, -5.534e-5
-1.277, -5.534e-5
-1.276, -5.534e-5
-1.275, -5.534e-5
-1.274, -5.534e-5
-1.273, -5.534e-5
-1.272, -5.842e-5
-1.271, -5.534e-5
-1.270, -5.842e-5
-1.269, -5.534e-5
-1.268, -5.842e-5
-1.267, -5.842e-5
-1.266, -5.842e-5
-1.265, -5.842e-5
-1.264, -5.842e-5
-1.263, -5.842e-5
-1.262, -5.842e-5
-1.261, -5.842e-5
-1.260, -5.842e-5
-1.259, -5.842e-5
-1.258, -5.842e-5
-1.257, -5.842e-5
-1.256, -5.842e-5
-1.255, -5.842e-5
-1.254, -6.151e-5
-1.253, -5.842e-5
-1.252, -5.842e-5
-1.251, -5.534e-5
-1.250, -5.842e-5
-1.249, -6.151e-5
-1.248, -6.151e-5
-1.247, -6.151e-5
-1.246, -6.151e-5
-1.245, -6.151e-5
-1.244, -6.151e-5
-1.243, -6.151e-5
-1.242, -6.151e-5
-1.241, -6.151e-5
-1.240, -6.151e-5
-1.239, -6.151e-5
-1.238, -6.151e-5
-1.237, -6.151e-5
-1.236, -6.151e-5
-1.235, -6.151e-5
-1.234, -6.151e-5
-1.233, -6.151e-5
-1.232, -6.151e-5
-1.231, -6.151e-5
-1.230, -6.151e-5
-1.229, -6.459e-5
-1.228, -6.151e-5
-1.227, -6.459e-5
-1.226, -6.151e-5
-1.225, -6.151e-5
-1.224, -6.459e-5
-1.223, -6.151e-5
-1.222, -6.459e-5
-1.221, -6.151e-5
-1.220, -6.459e-5
-1.219, -6.459e-5
-1.218, -6.459e-5
-1.217, -6.459e-5
-1.216, -6.459e-5
-1.215, -6.459e-5
-1.214, -6.459e-5
-1.213, -6.459e-5
-1.212, -6.459e-5
-1.211, -6.459e-5
-1.210, -6.459e-5
-1.209, -6.459e-5
-1.208, -6.459e-5
-1.207, -6.459e-5
-1.206, -6.459e-5
-1.205, -6.459e-5
-1.204, -6.767e-5
-1.203, -6.459e-5
-1.202, -6.459e-5
-1.201, -6.767e-5
-1.200, -6.459e-5
-1.199, -6.459e-5
-1.198, -6.459e-5
-1.197, -6.767e-5
-1.196, -6.767e-5
-1.195, -6.767e-5
-1.194, -6.459e-5
-1.193, -6.459e-5
-1.192, -6.767e-5
-1.191, -6.767e-5
-1.190, -6.767e-5
-1.189, -6.767e-5
-1.188, -6.767e-5
-1.187, -6.767e-5
-1.186, -6.767e-5
-1.185, -6.767e-5
-1.184, -6.767e-5
-1.183, -6.767e-5
-1.182, -6.767e-5
-1.181, -6.767e-5
-1.180, -6.767e-5
-1.179, -6.767e-5
-1.178, -6.767e-5
-1.177, -6.767e-5
-1.176, -6.767e-5
-1.175, -6.767e-5
-1.174, -6.767e-5
-1.173, -6.767e-5
-1.172, -6.767e-5
-1.171, -6.767e-5
-1.170, -6.767e-5
-1.169, -7.076e-5
-1.168, -6.767e-5
-1.167, -6.767e-5
-1.166, -6.767e-5
-1.165, -7.076e-5
-1.164, -6.767e-5
-1.163, -7.076e-5
-1.162, -6.767e-5
-1.161, -6.767e-5
-1.160, -7.076e-5
-1.159, -7.076e-5
-1.158, -7.076e-5
-1.157, -7.076e-5
-1.156, -7.076e-5
-1.155, -7.076e-5
-1.154, -7.076e-5
-1.153, -7.076e-5
-1.152, -7.076e-5
-1.151, -7.076e-5
-1.150, -7.076e-5
-1.149, -7.076e-5
-1.148, -7.076e-5
-1.147, -7.076e-5
-1.146, -7.076e-5
-1.145, -7.076e-5
-1.144, -7.076e-5
-1.143, -7.076e-5
-1.142, -7.076e-5
-1.141, -7.076e-5
-1.140, -7.076e-5
-1.139, -7.076e-5
-1.138, -7.076e-5
-1.137, -7.076e-5
-1.136, -7.076e-5
-1.135, -7.076e-5
-1.134, -7.384e-5
-1.133, -7.384e-5
-1.132, -7.384e-5
-1.131, -7.384e-5
-1.130, -7.076e-5
-1.129, -7.384e-5
-1.128, -7.384e-5
-1.127, -7.384e-5
-1.126, -7.384e-5
-1.125, -7.384e-5
-1.124, -7.384e-5
-1.123, -7.384e-5
-1.122, -7.384e-5
-1.121, -7.692e-5
-1.120, -7.384e-5
-1.119, -7.384e-5
-1.118, -7.384e-5
-1.117, -7.384e-5
-1.116, -7.384e-5
-1.115, -7.384e-5
-1.114, -7.384e-5
-1.113, -7.692e-5
-1.112, -7.384e-5
-1.111, -7.384e-5
-1.110, -7.692e-5
-1.109, -7.692e-5
-1.108, -7.692e-5
-1.107, -7.692e-5
-1.106, -7.692e-5
-1.105, -7.692e-5
-1.104, -7.692e-5
-1.103, -7.692e-5
-1.102, -7.692e-5
-1.101, -7.692e-5
-1.100, -7.692e-5
-1.099, -7.692e-5
-1.098, -7.692e-5
-1.097, -7.692e-5
-1.096, -8.000e-5
-1.095, -7.692e-5
-1.094, -7.692e-5
-1.093, -7.692e-5
-1.092, -8.000e-5
-1.091, -8.000e-5
-1.090, -8.000e-5
-1.089, -8.000e-5
-1.088, -8.000e-5
-1.087, -8.000e-5
-1.086, -8.000e-5
-1.085, -8.000e-5
-1.084, -8.000e-5
-1.083, -8.000e-5
-1.082, -8.000e-5
-1.081, -8.000e-5
-1.080, -8.000e-5
-1.079, -8.309e-5
-1.078, -8.309e-5
-1.077, -8.309e-5
-1.076, -8.309e-5
-1.075, -8.309e-5
-1.074, -8.309e-5
-1.073, -8.309e-5
-1.072, -8.309e-5
-1.071, -8.309e-5
-1.070, -8.309e-5
-1.069, -8.309e-5
-1.068, -8.309e-5
-1.067, -8.617e-5
-1.066, -8.309e-5
-1.065, -8.309e-5
-1.064, -8.617e-5
-1.063, -8.617e-5
-1.062, -8.617e-5
-1.061, -8.617e-5
-1.060, -8.617e-5
-1.059, -8.617e-5
-1.058, -8.617e-5
-1.057, -8.617e-5
-1.056, -8.617e-5
-1.055, -8.617e-5
-1.054, -8.925e-5
-1.053, -8.925e-5
-1.052, -8.925e-5
-1.051, -8.925e-5
-1.050, -8.925e-5
-1.049, -8.925e-5
-1.048, -8.925e-5
-1.047, -8.925e-5
-1.046, -9.234e-5
-1.045, -8.925e-5
-1.044, -9.234e-5
-1.043, -9.234e-5
-1.042, -9.234e-5
-1.041, -9.234e-5
-1.040, -9.234e-5
-1.039, -9.234e-5
-1.038, -9.234e-5
-1.037, -9.542e-5
-1.036, -9.542e-5
-1.035, -9.542e-5
-1.034, -9.542e-5
-1.033, -9.542e-5
-1.032, -9.542e-5
-1.031, -9.542e-5
-1.030, -9.850e-5
-1.029, -9.542e-5
-1.028, -9.850e-5
-1.027, -9.850e-5
-1.026, -9.850e-5
-1.025, -9.850e-5
-1.024, -1.016e-4
-1.023, -1.016e-4
-1.022, -1.016e-4
-1.021, -1.016e-4
-1.020, -1.016e-4
-1.019, -1.016e-4
-1.018, -1.016e-4
-1.017, -1.047e-4
-1.016, -1.047e-4
-1.015, -1.047e-4
-1.014, -1.047e-4
-1.013, -1.047e-4
-1.012, -1.078e-4
-1.011, -1.078e-4
-1.010, -1.078e-4
-1.009, -1.078e-4
-1.008, -1.078e-4
-1.007, -1.078e-4
-1.006, -1.078e-4
-1.005, -1.108e-4
-1.004, -1.108e-4
-1.003, -1.108e-4
-1.002, -1.108e-4
-1.001, -1.108e-4
