Mar. 30, 2025   10:40:12
Linear Sweep Voltammetry
File: c:/users/guazh/data/banditlqround7_x0exp518_r20/2025-03-28-exp988\regeneratedgce-2025-03-30t10_35_39-lsvinkoh\regeneratedgce_lsv_50mvs_efin_-1900mv.bin
Data Source:  Experiment
Instrument Model:  CHI760E
Header: LSV ran at 50 mVs with Efin at -1900mV
Note: 

Init E (V) = -0.6
Final E (V) = -1.9
Scan Rate (V/s) = 0.05
Sample Interval (V) = 0.001
Quiet Time (sec) = 2
Sensitivity (A/V) = 1e-4
Comp R (ohm) = 3.6

Results:

Channel 1:

Potential/V, Current/A

-0.600, 8.552e-8
-0.601, 2.161e-7
-0.602, 2.509e-7
-0.603, 2.674e-7
-0.604, 2.810e-7
-0.605, 2.935e-7
-0.606, 3.046e-7
-0.607, 3.128e-7
-0.608, 3.215e-7
-0.609, 3.298e-7
-0.610, 3.357e-7
-0.611, 3.441e-7
-0.612, 3.519e-7
-0.613, 3.565e-7
-0.614, 3.637e-7
-0.615, 3.711e-7
-0.616, 3.774e-7
-0.617, 3.837e-7
-0.618, 3.877e-7
-0.619, 3.936e-7
-0.620, 3.984e-7
-0.621, 4.041e-7
-0.622, 4.090e-7
-0.623, 4.126e-7
-0.624, 4.186e-7
-0.625, 4.238e-7
-0.626, 4.299e-7
-0.627, 4.346e-7
-0.628, 4.399e-7
-0.629, 4.421e-7
-0.630, 4.478e-7
-0.631, 4.521e-7
-0.632, 4.569e-7
-0.633, 4.608e-7
-0.634, 4.638e-7
-0.635, 4.686e-7
-0.636, 4.736e-7
-0.637, 4.767e-7
-0.638, 4.801e-7
-0.639, 4.855e-7
-0.640, 4.897e-7
-0.641, 4.945e-7
-0.642, 4.985e-7
-0.643, 5.012e-7
-0.644, 5.060e-7
-0.645, 5.089e-7
-0.646, 5.144e-7
-0.647, 5.186e-7
-0.648, 5.212e-7
-0.649, 5.245e-7
-0.650, 5.270e-7
-0.651, 5.328e-7
-0.652, 5.369e-7
-0.653, 5.410e-7
-0.654, 5.451e-7
-0.655, 5.476e-7
-0.656, 5.528e-7
-0.657, 5.562e-7
-0.658, 5.577e-7
-0.659, 5.608e-7
-0.660, 5.641e-7
-0.661, 5.686e-7
-0.662, 5.723e-7
-0.663, 5.748e-7
-0.664, 5.775e-7
-0.665, 5.825e-7
-0.666, 5.879e-7
-0.667, 5.912e-7
-0.668, 5.929e-7
-0.669, 5.953e-7
-0.670, 5.993e-7
-0.671, 6.034e-7
-0.672, 6.068e-7
-0.673, 6.087e-7
-0.674, 6.119e-7
-0.675, 6.136e-7
-0.676, 6.188e-7
-0.677, 6.225e-7
-0.678, 6.256e-7
-0.679, 6.281e-7
-0.680, 6.299e-7
-0.681, 6.363e-7
-0.682, 6.385e-7
-0.683, 6.410e-7
-0.684, 6.438e-7
-0.685, 6.474e-7
-0.686, 6.526e-7
-0.687, 6.533e-7
-0.688, 6.561e-7
-0.689, 6.599e-7
-0.690, 6.619e-7
-0.691, 6.677e-7
-0.692, 6.725e-7
-0.693, 6.728e-7
-0.694, 6.767e-7
-0.695, 6.780e-7
-0.696, 6.825e-7
-0.697, 6.867e-7
-0.698, 6.871e-7
-0.699, 6.905e-7
-0.700, 6.941e-7
-0.701, 6.965e-7
-0.702, 7.001e-7
-0.703, 7.015e-7
-0.704, 7.060e-7
-0.705, 7.075e-7
-0.706, 7.115e-7
-0.707, 7.165e-7
-0.708, 7.170e-7
-0.709, 7.207e-7
-0.710, 7.230e-7
-0.711, 7.277e-7
-0.712, 7.308e-7
-0.713, 7.329e-7
-0.714, 7.352e-7
-0.715, 7.381e-7
-0.716, 7.412e-7
-0.717, 7.452e-7
-0.718, 7.470e-7
-0.719, 7.493e-7
-0.720, 7.517e-7
-0.721, 7.568e-7
-0.722, 7.584e-7
-0.723, 7.612e-7
-0.724, 7.637e-7
-0.725, 7.653e-7
-0.726, 7.705e-7
-0.727, 7.729e-7
-0.728, 7.742e-7
-0.729, 7.782e-7
-0.730, 7.802e-7
-0.731, 7.854e-7
-0.732, 7.889e-7
-0.733, 7.901e-7
-0.734, 7.918e-7
-0.735, 7.942e-7
-0.736, 7.988e-7
-0.737, 8.025e-7
-0.738, 8.038e-7
-0.739, 8.055e-7
-0.740, 8.086e-7
-0.741, 8.123e-7
-0.742, 8.169e-7
-0.743, 8.187e-7
-0.744, 8.209e-7
-0.745, 8.233e-7
-0.746, 8.274e-7
-0.747, 8.302e-7
-0.748, 8.331e-7
-0.749, 8.346e-7
-0.750, 8.386e-7
-0.751, 8.412e-7
-0.752, 8.435e-7
-0.753, 8.461e-7
-0.754, 8.480e-7
-0.755, 8.517e-7
-0.756, 8.567e-7
-0.757, 8.592e-7
-0.758, 8.609e-7
-0.759, 8.637e-7
-0.760, 8.649e-7
-0.761, 8.699e-7
-0.762, 8.731e-7
-0.763, 8.747e-7
-0.764, 8.782e-7
-0.765, 8.794e-7
-0.766, 8.829e-7
-0.767, 8.851e-7
-0.768, 8.895e-7
-0.769, 8.920e-7
-0.770, 8.942e-7
-0.771, 8.986e-7
-0.772, 9.018e-7
-0.773, 9.020e-7
-0.774, 9.048e-7
-0.775, 9.070e-7
-0.776, 9.118e-7
-0.777, 9.149e-7
-0.778, 9.159e-7
-0.779, 9.193e-7
-0.780, 9.225e-7
-0.781, 9.260e-7
-0.782, 9.295e-7
-0.783, 9.305e-7
-0.784, 9.342e-7
-0.785, 9.368e-7
-0.786, 9.388e-7
-0.787, 9.430e-7
-0.788, 9.450e-7
-0.789, 9.463e-7
-0.790, 9.497e-7
-0.791, 9.529e-7
-0.792, 9.568e-7
-0.793, 9.591e-7
-0.794, 9.612e-7
-0.795, 9.631e-7
-0.796, 9.672e-7
-0.797, 9.689e-7
-0.798, 9.718e-7
-0.799, 9.738e-7
-0.800, 9.756e-7
-0.801, 9.810e-7
-0.802, 9.830e-7
-0.803, 9.852e-7
-0.804, 9.884e-7
-0.805, 9.899e-7
-0.806, 9.950e-7
-0.807, 9.982e-7
-0.808, 9.987e-7
-0.809, 1.001e-6
-0.810, 1.003e-6
-0.811, 1.007e-6
-0.812, 1.012e-6
-0.813, 1.013e-6
-0.814, 1.016e-6
-0.815, 1.018e-6
-0.816, 1.022e-6
-0.817, 1.026e-6
-0.818, 1.027e-6
-0.819, 1.034e-6
-0.820, 1.036e-6
-0.821, 1.038e-6
-0.822, 1.041e-6
-0.823, 1.041e-6
-0.824, 1.044e-6
-0.825, 1.046e-6
-0.826, 1.049e-6
-0.827, 1.052e-6
-0.828, 1.055e-6
-0.829, 1.057e-6
-0.830, 1.060e-6
-0.831, 1.063e-6
-0.832, 1.067e-6
-0.833, 1.071e-6
-0.834, 1.070e-6
-0.835, 1.074e-6
-0.836, 1.077e-6
-0.837, 1.079e-6
-0.838, 1.081e-6
-0.839, 1.084e-6
-0.840, 1.086e-6
-0.841, 1.089e-6
-0.842, 1.094e-6
-0.843, 1.094e-6
-0.844, 1.096e-6
-0.845, 1.100e-6
-0.846, 1.103e-6
-0.847, 1.105e-6
-0.848, 1.108e-6
-0.849, 1.111e-6
-0.850, 1.111e-6
-0.851, 1.115e-6
-0.852, 1.121e-6
-0.853, 1.120e-6
-0.854, 1.123e-6
-0.855, 1.125e-6
-0.856, 1.129e-6
-0.857, 1.132e-6
-0.858, 1.134e-6
-0.859, 1.137e-6
-0.860, 1.138e-6
-0.861, 1.141e-6
-0.862, 1.146e-6
-0.863, 1.147e-6
-0.864, 1.150e-6
-0.865, 1.153e-6
-0.866, 1.156e-6
-0.867, 1.159e-6
-0.868, 1.161e-6
-0.869, 1.164e-6
-0.870, 1.167e-6
-0.871, 1.172e-6
-0.872, 1.174e-6
-0.873, 1.176e-6
-0.874, 1.176e-6
-0.875, 1.180e-6
-0.876, 1.185e-6
-0.877, 1.188e-6
-0.878, 1.189e-6
-0.879, 1.191e-6
-0.880, 1.192e-6
-0.881, 1.197e-6
-0.882, 1.199e-6
-0.883, 1.203e-6
-0.884, 1.206e-6
-0.885, 1.207e-6
-0.886, 1.212e-6
-0.887, 1.215e-6
-0.888, 1.216e-6
-0.889, 1.220e-6
-0.890, 1.221e-6
-0.891, 1.225e-6
-0.892, 1.229e-6
-0.893, 1.230e-6
-0.894, 1.234e-6
-0.895, 1.235e-6
-0.896, 1.240e-6
-0.897, 1.244e-6
-0.898, 1.246e-6
-0.899, 1.249e-6
-0.900, 1.251e-6
-0.901, 1.253e-6
-0.902, 1.258e-6
-0.903, 1.260e-6
-0.904, 1.261e-6
-0.905, 1.265e-6
-0.906, 1.267e-6
-0.907, 1.271e-6
-0.908, 1.272e-6
-0.909, 1.275e-6
-0.910, 1.277e-6
-0.911, 1.281e-6
-0.912, 1.284e-6
-0.913, 1.288e-6
-0.914, 1.288e-6
-0.915, 1.292e-6
-0.916, 1.296e-6
-0.917, 1.300e-6
-0.918, 1.302e-6
-0.919, 1.303e-6
-0.920, 1.305e-6
-0.921, 1.311e-6
-0.922, 1.314e-6
-0.923, 1.316e-6
-0.924, 1.319e-6
-0.925, 1.320e-6
-0.926, 1.327e-6
-0.927, 1.329e-6
-0.928, 1.331e-6
-0.929, 1.334e-6
-0.930, 1.335e-6
-0.931, 1.338e-6
-0.932, 1.344e-6
-0.933, 1.345e-6
-0.934, 1.348e-6
-0.935, 1.350e-6
-0.936, 1.355e-6
-0.937, 1.359e-6
-0.938, 1.359e-6
-0.939, 1.363e-6
-0.940, 1.366e-6
-0.941, 1.370e-6
-0.942, 1.375e-6
-0.943, 1.375e-6
-0.944, 1.378e-6
-0.945, 1.382e-6
-0.946, 1.385e-6
-0.947, 1.389e-6
-0.948, 1.391e-6
-0.949, 1.393e-6
-0.950, 1.396e-6
-0.951, 1.399e-6
-0.952, 1.403e-6
-0.953, 1.407e-6
-0.954, 1.407e-6
-0.955, 1.410e-6
-0.956, 1.414e-6
-0.957, 1.416e-6
-0.958, 1.420e-6
-0.959, 1.421e-6
-0.960, 1.425e-6
-0.961, 1.430e-6
-0.962, 1.432e-6
-0.963, 1.435e-6
-0.964, 1.439e-6
-0.965, 1.439e-6
-0.966, 1.444e-6
-0.967, 1.449e-6
-0.968, 1.452e-6
-0.969, 1.455e-6
-0.970, 1.457e-6
-0.971, 1.461e-6
-0.972, 1.466e-6
-0.973, 1.469e-6
-0.974, 1.470e-6
-0.975, 1.471e-6
-0.976, 1.475e-6
-0.977, 1.480e-6
-0.978, 1.483e-6
-0.979, 1.486e-6
-0.980, 1.488e-6
-0.981, 1.491e-6
-0.982, 1.496e-6
-0.983, 1.497e-6
-0.984, 1.499e-6
-0.985, 1.503e-6
-0.986, 1.507e-6
-0.987, 1.511e-6
-0.988, 1.514e-6
-0.989, 1.515e-6
-0.990, 1.520e-6
-0.991, 1.523e-6
-0.992, 1.528e-6
-0.993, 1.530e-6
-0.994, 1.530e-6
-0.995, 1.534e-6
-0.996, 1.539e-6
-0.997, 1.542e-6
-0.998, 1.546e-6
-0.999, 1.551e-6
-1.000, 1.553e-6
-1.001, 1.557e-6
-1.002, 1.560e-6
-1.003, 1.564e-6
-1.004, 1.567e-6
-1.005, 1.569e-6
-1.006, 1.573e-6
-1.007, 1.578e-6
-1.008, 1.579e-6
-1.009, 1.582e-6
-1.010, 1.583e-6
-1.011, 1.588e-6
-1.012, 1.593e-6
-1.013, 1.596e-6
-1.014, 1.600e-6
-1.015, 1.603e-6
-1.016, 1.606e-6
-1.017, 1.613e-6
-1.018, 1.614e-6
-1.019, 1.617e-6
-1.020, 1.620e-6
-1.021, 1.621e-6
-1.022, 1.627e-6
-1.023, 1.629e-6
-1.024, 1.635e-6
-1.025, 1.636e-6
-1.026, 1.640e-6
-1.027, 1.645e-6
-1.028, 1.646e-6
-1.029, 1.649e-6
-1.030, 1.652e-6
-1.031, 1.657e-6
-1.032, 1.661e-6
-1.033, 1.663e-6
-1.034, 1.666e-6
-1.035, 1.669e-6
-1.036, 1.672e-6
-1.037, 1.677e-6
-1.038, 1.680e-6
-1.039, 1.682e-6
-1.040, 1.686e-6
-1.041, 1.690e-6
-1.042, 1.694e-6
-1.043, 1.698e-6
-1.044, 1.701e-6
-1.045, 1.704e-6
-1.046, 1.708e-6
-1.047, 1.711e-6
-1.048, 1.714e-6
-1.049, 1.717e-6
-1.050, 1.721e-6
-1.051, 1.727e-6
-1.052, 1.731e-6
-1.053, 1.732e-6
-1.054, 1.736e-6
-1.055, 1.738e-6
-1.056, 1.742e-6
-1.057, 1.747e-6
-1.058, 1.749e-6
-1.059, 1.753e-6
-1.060, 1.756e-6
-1.061, 1.759e-6
-1.062, 1.765e-6
-1.063, 1.767e-6
-1.064, 1.769e-6
-1.065, 1.772e-6
-1.066, 1.775e-6
-1.067, 1.780e-6
-1.068, 1.783e-6
-1.069, 1.786e-6
-1.070, 1.789e-6
-1.071, 1.792e-6
-1.072, 1.798e-6
-1.073, 1.800e-6
-1.074, 1.802e-6
-1.075, 1.806e-6
-1.076, 1.812e-6
-1.077, 1.814e-6
-1.078, 1.817e-6
-1.079, 1.819e-6
-1.080, 1.822e-6
-1.081, 1.827e-6
-1.082, 1.830e-6
-1.083, 1.834e-6
-1.084, 1.838e-6
-1.085, 1.839e-6
-1.086, 1.844e-6
-1.087, 1.848e-6
-1.088, 1.851e-6
-1.089, 1.854e-6
-1.090, 1.855e-6
-1.091, 1.859e-6
-1.092, 1.865e-6
-1.093, 1.867e-6
-1.094, 1.871e-6
-1.095, 1.873e-6
-1.096, 1.878e-6
-1.097, 1.883e-6
-1.098, 1.885e-6
-1.099, 1.887e-6
-1.100, 1.890e-6
-1.101, 1.893e-6
-1.102, 1.899e-6
-1.103, 1.900e-6
-1.104, 1.903e-6
-1.105, 1.907e-6
-1.106, 1.910e-6
-1.107, 1.915e-6
-1.108, 1.918e-6
-1.109, 1.920e-6
-1.110, 1.923e-6
-1.111, 1.927e-6
-1.112, 1.931e-6
-1.113, 1.934e-6
-1.114, 1.937e-6
-1.115, 1.939e-6
-1.116, 1.944e-6
-1.117, 1.947e-6
-1.118, 1.952e-6
-1.119, 1.953e-6
-1.120, 1.956e-6
-1.121, 1.961e-6
-1.122, 1.964e-6
-1.123, 1.969e-6
-1.124, 1.971e-6
-1.125, 1.975e-6
-1.126, 1.979e-6
-1.127, 1.982e-6
-1.128, 1.985e-6
-1.129, 1.988e-6
-1.130, 1.989e-6
-1.131, 1.992e-6
-1.132, 1.997e-6
-1.133, 2.001e-6
-1.134, 2.004e-6
-1.135, 2.008e-6
-1.136, 2.009e-6
-1.137, 2.016e-6
-1.138, 2.017e-6
-1.139, 2.022e-6
-1.140, 2.024e-6
-1.141, 2.027e-6
-1.142, 2.033e-6
-1.143, 2.034e-6
-1.144, 2.037e-6
-1.145, 2.041e-6
-1.146, 2.044e-6
-1.147, 2.051e-6
-1.148, 2.052e-6
-1.149, 2.054e-6
-1.150, 2.058e-6
-1.151, 2.061e-6
-1.152, 2.068e-6
-1.153, 2.073e-6
-1.154, 2.074e-6
-1.155, 2.077e-6
-1.156, 2.080e-6
-1.157, 2.082e-6
-1.158, 2.087e-6
-1.159, 2.088e-6
-1.160, 2.090e-6
-1.161, 2.097e-6
-1.162, 2.101e-6
-1.163, 2.104e-6
-1.164, 2.107e-6
-1.165, 2.109e-6
-1.166, 2.115e-6
-1.167, 2.117e-6
-1.168, 2.119e-6
-1.169, 2.124e-6
-1.170, 2.126e-6
-1.171, 2.130e-6
-1.172, 2.136e-6
-1.173, 2.138e-6
-1.174, 2.141e-6
-1.175, 2.142e-6
-1.176, 2.146e-6
-1.177, 2.152e-6
-1.178, 2.155e-6
-1.179, 2.157e-6
-1.180, 2.160e-6
-1.181, 2.162e-6
-1.182, 2.167e-6
-1.183, 2.168e-6
-1.184, 2.171e-6
-1.185, 2.176e-6
-1.186, 2.177e-6
-1.187, 2.183e-6
-1.188, 2.186e-6
-1.189, 2.187e-6
-1.190, 2.192e-6
-1.191, 2.195e-6
-1.192, 2.200e-6
-1.193, 2.203e-6
-1.194, 2.202e-6
-1.195, 2.207e-6
-1.196, 2.211e-6
-1.197, 2.214e-6
-1.198, 2.217e-6
-1.199, 2.219e-6
-1.200, 2.222e-6
-1.201, 2.226e-6
-1.202, 2.230e-6
-1.203, 2.234e-6
-1.204, 2.236e-6
-1.205, 2.238e-6
-1.206, 2.243e-6
-1.207, 2.246e-6
-1.208, 2.247e-6
-1.209, 2.253e-6
-1.210, 2.255e-6
-1.211, 2.258e-6
-1.212, 2.263e-6
-1.213, 2.264e-6
-1.214, 2.268e-6
-1.215, 2.271e-6
-1.216, 2.275e-6
-1.217, 2.283e-6
-1.218, 2.282e-6
-1.219, 2.284e-6
-1.220, 2.286e-6
-1.221, 2.289e-6
-1.222, 2.294e-6
-1.223, 2.296e-6
-1.224, 2.300e-6
-1.225, 2.303e-6
-1.226, 2.306e-6
-1.227, 2.312e-6
-1.228, 2.315e-6
-1.229, 2.323e-6
-1.230, 2.323e-6
-1.231, 2.324e-6
-1.232, 2.329e-6
-1.233, 2.332e-6
-1.234, 2.333e-6
-1.235, 2.337e-6
-1.236, 2.341e-6
-1.237, 2.345e-6
-1.238, 2.348e-6
-1.239, 2.348e-6
-1.240, 2.353e-6
-1.241, 2.358e-6
-1.242, 2.362e-6
-1.243, 2.366e-6
-1.244, 2.367e-6
-1.245, 2.370e-6
-1.246, 2.373e-6
-1.247, 2.378e-6
-1.248, 2.380e-6
-1.249, 2.385e-6
-1.250, 2.387e-6
-1.251, 2.391e-6
-1.252, 2.398e-6
-1.253, 2.401e-6
-1.254, 2.405e-6
-1.255, 2.406e-6
-1.256, 2.408e-6
-1.257, 2.413e-6
-1.258, 2.415e-6
-1.259, 2.417e-6
-1.260, 2.421e-6
-1.261, 2.425e-6
-1.262, 2.430e-6
-1.263, 2.432e-6
-1.264, 2.436e-6
-1.265, 2.437e-6
-1.266, 2.440e-6
-1.267, 2.446e-6
-1.268, 2.449e-6
-1.269, 2.450e-6
-1.270, 2.454e-6
-1.271, 2.458e-6
-1.272, 2.463e-6
-1.273, 2.467e-6
-1.274, 2.467e-6
-1.275, 2.471e-6
-1.276, 2.472e-6
-1.277, 2.478e-6
-1.278, 2.479e-6
-1.279, 2.482e-6
-1.280, 2.487e-6
-1.281, 2.491e-6
-1.282, 2.494e-6
-1.283, 2.498e-6
-1.284, 2.500e-6
-1.285, 2.502e-6
-1.286, 2.505e-6
-1.287, 2.510e-6
-1.288, 2.514e-6
-1.289, 2.518e-6
-1.290, 2.521e-6
-1.291, 2.525e-6
-1.292, 2.530e-6
-1.293, 2.533e-6
-1.294, 2.537e-6
-1.295, 2.539e-6
-1.296, 2.544e-6
-1.297, 2.548e-6
-1.298, 2.549e-6
-1.299, 2.552e-6
-1.300, 2.555e-6
-1.301, 2.556e-6
-1.302, 2.564e-6
-1.303, 2.567e-6
-1.304, 2.568e-6
-1.305, 2.573e-6
-1.306, 2.577e-6
-1.307, 2.583e-6
-1.308, 2.585e-6
-1.309, 2.587e-6
-1.310, 2.591e-6
-1.311, 2.592e-6
-1.312, 2.599e-6
-1.313, 2.603e-6
-1.314, 2.603e-6
-1.315, 2.608e-6
-1.316, 2.611e-6
-1.317, 2.615e-6
-1.318, 2.619e-6
-1.319, 2.622e-6
-1.320, 2.625e-6
-1.321, 2.629e-6
-1.322, 2.633e-6
-1.323, 2.639e-6
-1.324, 2.641e-6
-1.325, 2.644e-6
-1.326, 2.647e-6
-1.327, 2.652e-6
-1.328, 2.655e-6
-1.329, 2.658e-6
-1.330, 2.660e-6
-1.331, 2.665e-6
-1.332, 2.670e-6
-1.333, 2.673e-6
-1.334, 2.676e-6
-1.335, 2.678e-6
-1.336, 2.681e-6
-1.337, 2.686e-6
-1.338, 2.691e-6
-1.339, 2.693e-6
-1.340, 2.697e-6
-1.341, 2.699e-6
-1.342, 2.704e-6
-1.343, 2.707e-6
-1.344, 2.708e-6
-1.345, 2.713e-6
-1.346, 2.715e-6
-1.347, 2.720e-6
-1.348, 2.724e-6
-1.349, 2.727e-6
-1.350, 2.731e-6
-1.351, 2.731e-6
-1.352, 2.736e-6
-1.353, 2.738e-6
-1.354, 2.740e-6
-1.355, 2.743e-6
-1.356, 2.747e-6
-1.357, 2.753e-6
-1.358, 2.757e-6
-1.359, 2.758e-6
-1.360, 2.762e-6
-1.361, 2.765e-6
-1.362, 2.768e-6
-1.363, 2.775e-6
-1.364, 2.776e-6
-1.365, 2.779e-6
-1.366, 2.782e-6
-1.367, 2.787e-6
-1.368, 2.790e-6
-1.369, 2.791e-6
-1.370, 2.794e-6
-1.371, 2.798e-6
-1.372, 2.802e-6
-1.373, 2.805e-6
-1.374, 2.809e-6
-1.375, 2.812e-6
-1.376, 2.816e-6
-1.377, 2.821e-6
-1.378, 2.823e-6
-1.379, 2.826e-6
-1.380, 2.829e-6
-1.381, 2.831e-6
-1.382, 2.839e-6
-1.383, 2.845e-6
-1.384, 2.844e-6
-1.385, 2.848e-6
-1.386, 2.849e-6
-1.387, 2.855e-6
-1.388, 2.859e-6
-1.389, 2.861e-6
-1.390, 2.865e-6
-1.391, 2.867e-6
-1.392, 2.873e-6
-1.393, 2.877e-6
-1.394, 2.878e-6
-1.395, 2.882e-6
-1.396, 2.888e-6
-1.397, 2.890e-6
-1.398, 2.896e-6
-1.399, 2.897e-6
-1.400, 2.901e-6
-1.401, 2.905e-6
-1.402, 2.909e-6
-1.403, 2.914e-6
-1.404, 2.916e-6
-1.405, 2.918e-6
-1.406, 2.922e-6
-1.407, 2.927e-6
-1.408, 2.932e-6
-1.409, 2.936e-6
-1.410, 2.938e-6
-1.411, 2.943e-6
-1.412, 2.948e-6
-1.413, 2.951e-6
-1.414, 2.956e-6
-1.415, 2.958e-6
-1.416, 2.962e-6
-1.417, 2.970e-6
-1.418, 2.970e-6
-1.419, 2.974e-6
-1.420, 2.976e-6
-1.421, 2.979e-6
-1.422, 2.985e-6
-1.423, 2.989e-6
-1.424, 2.993e-6
-1.425, 2.998e-6
-1.426, 3.001e-6
-1.427, 3.008e-6
-1.428, 3.014e-6
-1.429, 3.015e-6
-1.430, 3.022e-6
-1.431, 3.028e-6
-1.432, 3.033e-6
-1.433, 3.037e-6
-1.434, 3.041e-6
-1.435, 3.042e-6
-1.436, 3.045e-6
-1.437, 3.050e-6
-1.438, 3.057e-6
-1.439, 3.059e-6
-1.440, 3.063e-6
-1.441, 3.069e-6
-1.442, 3.072e-6
-1.443, 3.077e-6
-1.444, 3.080e-6
-1.445, 3.085e-6
-1.446, 3.089e-6
-1.447, 3.095e-6
-1.448, 3.099e-6
-1.449, 3.104e-6
-1.450, 3.108e-6
-1.451, 3.111e-6
-1.452, 3.119e-6
-1.453, 3.122e-6
-1.454, 3.129e-6
-1.455, 3.132e-6
-1.456, 3.134e-6
-1.457, 3.142e-6
-1.458, 3.146e-6
-1.459, 3.152e-6
-1.460, 3.157e-6
-1.461, 3.160e-6
-1.462, 3.168e-6
-1.463, 3.173e-6
-1.464, 3.177e-6
-1.465, 3.184e-6
-1.466, 3.185e-6
-1.467, 3.193e-6
-1.468, 3.197e-6
-1.469, 3.201e-6
-1.470, 3.207e-6
-1.471, 3.210e-6
-1.472, 3.218e-6
-1.473, 3.224e-6
-1.474, 3.225e-6
-1.475, 3.233e-6
-1.476, 3.237e-6
-1.477, 3.245e-6
-1.478, 3.252e-6
-1.479, 3.255e-6
-1.480, 3.258e-6
-1.481, 3.267e-6
-1.482, 3.271e-6
-1.483, 3.278e-6
-1.484, 3.282e-6
-1.485, 3.289e-6
-1.486, 3.295e-6
-1.487, 3.301e-6
-1.488, 3.307e-6
-1.489, 3.315e-6
-1.490, 3.318e-6
-1.491, 3.326e-6
-1.492, 3.333e-6
-1.493, 3.339e-6
-1.494, 3.346e-6
-1.495, 3.350e-6
-1.496, 3.356e-6
-1.497, 3.365e-6
-1.498, 3.372e-6
-1.499, 3.378e-6
-1.500, 3.386e-6
-1.501, 3.390e-6
-1.502, 3.400e-6
-1.503, 3.406e-6
-1.504, 3.411e-6
-1.505, 3.418e-6
-1.506, 3.424e-6
-1.507, 3.434e-6
-1.508, 3.443e-6
-1.509, 3.447e-6
-1.510, 3.456e-6
-1.511, 3.462e-6
-1.512, 3.468e-6
-1.513, 3.477e-6
-1.514, 3.482e-6
-1.515, 3.490e-6
-1.516, 3.498e-6
-1.517, 3.507e-6
-1.518, 3.517e-6
-1.519, 3.522e-6
-1.520, 3.530e-6
-1.521, 3.537e-6
-1.522, 3.547e-6
-1.523, 3.557e-6
-1.524, 3.565e-6
-1.525, 3.571e-6
-1.526, 3.581e-6
-1.527, 3.590e-6
-1.528, 3.598e-6
-1.529, 3.608e-6
-1.530, 3.614e-6
-1.531, 3.624e-6
-1.532, 3.634e-6
-1.533, 3.643e-6
-1.534, 3.653e-6
-1.535, 3.660e-6
-1.536, 3.671e-6
-1.537, 3.682e-6
-1.538, 3.692e-6
-1.539, 3.702e-6
-1.540, 3.709e-6
-1.541, 3.719e-6
-1.542, 3.732e-6
-1.543, 3.743e-6
-1.544, 3.755e-6
-1.545, 3.764e-6
-1.546, 3.772e-6
-1.547, 3.788e-6
-1.548, 3.799e-6
-1.549, 3.806e-6
-1.550, 3.817e-6
-1.551, 3.829e-6
-1.552, 3.842e-6
-1.553, 3.856e-6
-1.554, 3.864e-6
-1.555, 3.880e-6
-1.556, 3.891e-6
-1.557, 3.903e-6
-1.558, 3.916e-6
-1.559, 3.926e-6
-1.560, 3.939e-6
-1.561, 3.954e-6
-1.562, 3.967e-6
-1.563, 3.983e-6
-1.564, 3.996e-6
-1.565, 4.007e-6
-1.566, 4.023e-6
-1.567, 4.036e-6
-1.568, 4.050e-6
-1.569, 4.064e-6
-1.570, 4.073e-6
-1.571, 4.092e-6
-1.572, 4.109e-6
-1.573, 4.126e-6
-1.574, 4.140e-6
-1.575, 4.154e-6
-1.576, 4.170e-6
-1.577, 4.189e-6
-1.578, 4.204e-6
-1.579, 4.219e-6
-1.580, 4.234e-6
-1.581, 4.250e-6
-1.582, 4.272e-6
-1.583, 4.288e-6
-1.584, 4.305e-6
-1.585, 4.325e-6
-1.586, 4.341e-6
-1.587, 4.364e-6
-1.588, 4.386e-6
-1.589, 4.400e-6
-1.590, 4.423e-6
-1.591, 4.442e-6
-1.592, 4.463e-6
-1.593, 4.487e-6
-1.594, 4.505e-6
-1.595, 4.527e-6
-1.596, 4.550e-6
-1.597, 4.573e-6
-1.598, 4.600e-6
-1.599, 4.622e-6
-1.600, 4.646e-6
-1.601, 4.671e-6
-1.602, 4.697e-6
-1.603, 4.727e-6
-1.604, 4.750e-6
-1.605, 4.777e-6
-1.606, 4.807e-6
-1.607, 4.834e-6
-1.608, 4.863e-6
-1.609, 4.892e-6
-1.610, 4.917e-6
-1.611, 4.950e-6
-1.612, 4.985e-6
-1.613, 5.018e-6
-1.614, 5.053e-6
-1.615, 5.084e-6
-1.616, 5.119e-6
-1.617, 5.159e-6
-1.618, 5.193e-6
-1.619, 5.234e-6
-1.620, 5.270e-6
-1.621, 5.306e-6
-1.622, 5.350e-6
-1.623, 5.391e-6
-1.624, 5.431e-6
-1.625, 5.474e-6
-1.626, 5.517e-6
-1.627, 5.570e-6
-1.628, 5.616e-6
-1.629, 5.662e-6
-1.630, 5.714e-6
-1.631, 5.765e-6
-1.632, 5.818e-6
-1.633, 5.877e-6
-1.634, 5.926e-6
-1.635, 5.983e-6
-1.636, 6.042e-6
-1.637, 6.107e-6
-1.638, 6.178e-6
-1.639, 6.245e-6
-1.640, 6.304e-6
-1.641, 6.373e-6
-1.642, 6.445e-6
-1.643, 6.524e-6
-1.644, 6.599e-6
-1.645, 6.676e-6
-1.646, 6.756e-6
-1.647, 6.841e-6
-1.648, 6.931e-6
-1.649, 7.019e-6
-1.650, 7.108e-6
-1.651, 7.205e-6
-1.652, 7.307e-6
-1.653, 7.407e-6
-1.654, 7.513e-6
-1.655, 7.618e-6
-1.656, 7.732e-6
-1.657, 7.850e-6
-1.658, 7.969e-6
-1.659, 8.091e-6
-1.660, 8.227e-6
-1.661, 8.357e-6
-1.662, 8.497e-6
-1.663, 8.639e-6
-1.664, 8.784e-6
-1.665, 8.930e-6
-1.666, 9.081e-6
-1.667, 9.248e-6
-1.668, 9.409e-6
-1.669, 9.576e-6
-1.670, 9.754e-6
-1.671, 9.934e-6
-1.672, 1.012e-5
-1.673, 1.031e-5
-1.674, 1.051e-5
-1.675, 1.072e-5
-1.676, 1.093e-5
-1.677, 1.115e-5
-1.678, 1.138e-5
-1.679, 1.160e-5
-1.680, 1.184e-5
-1.681, 1.207e-5
-1.682, 1.232e-5
-1.683, 1.258e-5
-1.684, 1.285e-5
-1.685, 1.312e-5
-1.686, 1.341e-5
-1.687, 1.371e-5
-1.688, 1.401e-5
-1.689, 1.432e-5
-1.690, 1.464e-5
-1.691, 1.497e-5
-1.692, 1.531e-5
-1.693, 1.566e-5
-1.694, 1.603e-5
-1.695, 1.640e-5
-1.696, 1.678e-5
-1.697, 1.717e-5
-1.698, 1.757e-5
-1.699, 1.799e-5
-1.700, 1.841e-5
-1.701, 1.884e-5
-1.702, 1.929e-5
-1.703, 1.975e-5
-1.704, 2.022e-5
-1.705, 2.071e-5
-1.706, 2.121e-5
-1.707, 2.172e-5
-1.708, 2.224e-5
-1.709, 2.278e-5
-1.710, 2.334e-5
-1.711, 2.392e-5
-1.712, 2.451e-5
-1.713, 2.511e-5
-1.714, 2.572e-5
-1.715, 2.635e-5
-1.716, 2.699e-5
-1.717, 2.766e-5
-1.718, 2.833e-5
-1.719, 2.903e-5
-1.720, 2.975e-5
-1.721, 3.048e-5
-1.722, 3.124e-5
-1.723, 3.202e-5
-1.724, 3.282e-5
-1.725, 3.363e-5
-1.726, 3.446e-5
-1.727, 3.528e-5
-1.728, 3.607e-5
-1.729, 3.695e-5
-1.730, 3.785e-5
-1.731, 3.878e-5
-1.732, 3.973e-5
-1.733, 4.072e-5
-1.734, 4.173e-5
-1.735, 4.277e-5
-1.736, 4.382e-5
-1.737, 4.490e-5
-1.738, 4.601e-5
-1.739, 4.716e-5
-1.740, 4.833e-5
-1.741, 4.952e-5
-1.742, 5.076e-5
-1.743, 5.202e-5
-1.744, 5.331e-5
-1.745, 5.462e-5
-1.746, 5.596e-5
-1.747, 5.722e-5
-1.748, 5.857e-5
-1.749, 5.996e-5
-1.750, 6.136e-5
-1.751, 6.275e-5
-1.752, 6.423e-5
-1.753, 6.578e-5
-1.754, 6.738e-5
-1.755, 6.900e-5
-1.756, 7.065e-5
-1.757, 7.235e-5
-1.758, 7.405e-5
-1.759, 7.567e-5
-1.760, 7.730e-5
-1.761, 7.877e-5
-1.762, 8.036e-5
-1.763, 8.204e-5
-1.764, 8.396e-5
-1.765, 8.598e-5
-1.766, 8.806e-5
-1.767, 9.022e-5
-1.768, 9.245e-5
-1.769, 9.465e-5
-1.770, 9.697e-5
-1.771, 9.937e-5
-1.772, 1.017e-4
-1.773, 1.040e-4
-1.774, 1.063e-4
-1.775, 1.087e-4
-1.776, 1.113e-4
-1.777, 1.140e-4
-1.778, 1.168e-4
-1.779, 1.196e-4
-1.780, 1.225e-4
-1.781, 1.255e-4
-1.782, 1.282e-4
-1.783, 1.312e-4
-1.784, 1.344e-4
-1.785, 1.376e-4
-1.786, 1.409e-4
-1.787, 1.443e-4
-1.788, 1.474e-4
-1.789, 1.507e-4
-1.790, 1.542e-4
-1.791, 1.578e-4
-1.792, 1.613e-4
-1.793, 1.651e-4
-1.794, 1.689e-4
-1.795, 1.729e-4
-1.796, 1.771e-4
-1.797, 1.813e-4
-1.798, 1.857e-4
-1.799, 1.903e-4
-1.800, 1.948e-4
-1.801, 1.993e-4
-1.802, 2.041e-4
-1.803, 2.092e-4
-1.804, 2.143e-4
-1.805, 2.197e-4
-1.806, 2.251e-4
-1.807, 2.307e-4
-1.808, 2.365e-4
-1.809, 2.424e-4
-1.810, 2.484e-4
-1.811, 2.545e-4
-1.812, 2.609e-4
-1.813, 2.674e-4
-1.814, 2.741e-4
-1.815, 2.815e-4
-1.816, 2.895e-4
-1.817, 2.961e-4
-1.818, 3.033e-4
-1.819, 3.110e-4
-1.820, 3.189e-4
-1.821, 3.270e-4
-1.822, 3.355e-4
-1.823, 3.441e-4
-1.824, 3.531e-4
-1.825, 3.623e-4
-1.826, 3.717e-4
-1.827, 3.814e-4
-1.828, 3.911e-4
-1.829, 4.011e-4
-1.830, 4.114e-4
-1.831, 4.221e-4
-1.832, 4.332e-4
-1.833, 4.445e-4
-1.834, 4.559e-4
-1.835, 4.676e-4
-1.836, 4.794e-4
-1.837, 4.915e-4
-1.838, 5.040e-4
-1.839, 5.168e-4
-1.840, 5.300e-4
-1.841, 5.434e-4
-1.842, 5.571e-4
-1.843, 5.714e-4
-1.844, 5.859e-4
-1.845, 6.008e-4
-1.846, 6.157e-4
-1.847, 6.310e-4
-1.848, 6.468e-4
-1.849, 6.628e-4
-1.850, 6.791e-4
-1.851, 6.959e-4
-1.852, 7.131e-4
-1.853, 7.308e-4
-1.854, 7.490e-4
-1.855, 7.676e-4
-1.856, 7.865e-4
-1.857, 8.055e-4
-1.858, 8.253e-4
-1.859, 8.454e-4
-1.860, 8.657e-4
-1.861, 8.867e-4
-1.862, 9.083e-4
-1.863, 9.300e-4
-1.864, 9.522e-4
-1.865, 9.749e-4
-1.866, 9.978e-4
-1.867, 1.011e-3
-1.868, 1.011e-3
-1.869, 1.011e-3
-1.870, 1.011e-3
-1.871, 1.011e-3
-1.872, 1.011e-3
-1.873, 1.011e-3
-1.874, 1.011e-3
-1.875, 1.011e-3
-1.876, 1.011e-3
-1.877, 1.011e-3
-1.878, 1.011e-3
-1.879, 1.011e-3
-1.880, 1.011e-3
-1.881, 1.011e-3
-1.882, 1.011e-3
-1.883, 1.011e-3
-1.884, 1.011e-3
-1.885, 1.011e-3
-1.886, 1.011e-3
-1.887, 1.011e-3
-1.888, 1.011e-3
-1.889, 1.011e-3
-1.890, 1.011e-3
-1.891, 1.011e-3
-1.892, 1.011e-3
-1.893, 1.011e-3
-1.894, 1.011e-3
-1.895, 1.011e-3
-1.896, 1.011e-3
-1.897, 1.011e-3
-1.898, 1.011e-3
-1.899, 1.011e-3
