Potential V vs RHE, Current mA cm-2
0.4132999999999999,-0.001694824137238314
0.4122999999999999,-0.00348867806546718
0.4112999999999999,-0.004181886602401049
0.4102999999999999,-0.004596397013261504
0.4092999999999999,-0.004883583407134106
0.4082999999999999,-0.0050476899179184515
0.4072999999999999,-0.005242920077299826
0.4062999999999999,-0.0054282472575821455
0.4052999999999999,-0.005646112797761361
0.4042999999999999,-0.005776266237348945
0.4032999999999999,-0.005848416513642061
0.4022999999999999,-0.00598281408712924
0.4012999999999999,-0.006105893970217498
0.4002999999999999,-0.006248779811503867
0.3992999999999999,-0.00637610382849172
0.3982999999999999,-0.006442595259585377
0.3972999999999999,-0.006506257268079304
0.3962999999999999,-0.006601042925170261
0.3952999999999999,-0.006721293385658789
0.3942999999999999,-0.0067991025071513665
0.39329999999999987,-0.006848617402646642
0.39229999999999987,-0.006896717586842053
0.39129999999999987,-0.006973111997034765
0.39029999999999987,-0.007090533034923564
0.38929999999999987,-0.007157024466017221
0.38829999999999987,-0.007183903980714656
0.38729999999999987,-0.007210783495412092
0.38629999999999987,-0.007298495596003725
0.38529999999999986,-0.007410257788693061
0.38429999999999986,-0.007468260951987528
0.38329999999999986,-0.007513531713583209
0.38229999999999986,-0.0075658760316782165
0.38129999999999986,-0.007677638224367554
0.38029999999999986,-0.007800718107455813
0.37929999999999986,-0.007799303396155947
0.37829999999999986,-0.007790815128356756
0.37729999999999986,-0.007823353488253653
0.37629999999999986,-0.007885600785447713
0.37529999999999986,-0.007991704132937592
0.37429999999999986,-0.008012924802435569
0.37329999999999985,-0.008053951430131654
0.37229999999999985,-0.008087904501328413
0.37129999999999985,-0.008137419396823692
0.37029999999999985,-0.0082463521669133
0.36929999999999985,-0.008298696485008306
0.36829999999999985,-0.00829162292850898
0.36729999999999985,-0.008331234844905201
0.36629999999999985,-0.00837084676130142
0.36529999999999985,-0.008467047129692245
0.36429999999999985,-0.008522220870386982
0.36329999999999985,-0.00851656202518752
0.36229999999999984,-0.008564662209382932
0.36129999999999984,-0.00863964190827578
0.36029999999999984,-0.008720280452368086
0.35929999999999984,-0.008774039481762958
0.35829999999999984,-0.008786771883461744
0.35729999999999984,-0.008817895532058775
0.35629999999999984,-0.008892875230951622
0.35529999999999984,-0.008969269641144332
0.35429999999999984,-0.009028687515738664
0.35329999999999984,-0.00905273760783637
0.35229999999999984,-0.00906405529823529
0.35129999999999983,-0.009148937976227192
0.35029999999999983,-0.009245138344618015
0.34929999999999983,-0.009287579683613966
0.34829999999999983,-0.009318703332210998
0.34729999999999983,-0.009385194763304653
0.34629999999999983,-0.009438953792699524
0.34529999999999983,-0.009518177625491968
0.34429999999999983,-0.009570521943586973
0.3432999999999998,-0.009590327901785083
0.3422999999999998,-0.009631354529481169
0.3412999999999998,-0.009713407784873344
0.3402999999999998,-0.009820925843663083
0.3392999999999998,-0.0098647818939589
0.3382999999999998,-0.009898734965155663
0.3372999999999998,-0.009945420438051208
0.3362999999999998,-0.010017570714344325
0.3352999999999998,-0.010133577040933258
0.3342999999999998,-0.010180262513828803
0.3332999999999998,-0.01021563029632543
0.3322999999999998,-0.010250998078822056
0.3312999999999998,-0.010331636622914362
0.3302999999999998,-0.010450472372103026
0.3292999999999998,-0.010512719669297088
0.3282999999999998,-0.010543843317894118
0.3272999999999998,-0.01060043176988872
0.3262999999999998,-0.010676826180081431
0.3252999999999999,-0.01080839433096888
0.3242999999999999,-0.010889032875061187
0.3232999999999999,-0.010904594699359702
0.3222999999999999,-0.011006453912949984
0.3212999999999999,-0.011092751302241754
0.3202999999999999,-0.011208757628830687
0.3192999999999999,-0.011297884440722184
0.3182999999999999,-0.01132476395541962
0.3172999999999999,-0.011396914231712735
0.3162999999999999,-0.01151009113570194
0.3152999999999999,-0.011624682750991006
0.3142999999999999,-0.011713809562882503
0.3132999999999999,-0.011753421479278723
0.3122999999999999,-0.011828401178171572
0.3112999999999999,-0.011934504525661449
0.3102999999999999,-0.012058999120049574
0.3092999999999999,-0.01214812593194107
0.3082999999999999,-0.012186323137037427
0.3072999999999999,-0.012254229279430947
0.3062999999999999,-0.012367406183420152
0.3052999999999999,-0.012474924242209893
0.3042999999999999,-0.012540000962003686
0.3032999999999999,-0.012596589413998287
0.3022999999999999,-0.012668739690291404
0.3012999999999999,-0.0127578665021829
0.3002999999999999,-0.01288943465307035
0.2992999999999999,-0.012947437816364817
0.2982999999999999,-0.012977146753661982
0.2972999999999999,-0.013035149916956448
0.2962999999999999,-0.013148326820945652
0.2952999999999999,-0.01325725959103526
0.2942999999999999,-0.013296871507431479
0.2932999999999999,-0.013329409867328374
0.2922999999999999,-0.013367607072424731
0.2912999999999999,-0.01343692792611812
0.2902999999999999,-0.013554348964006917
0.2892999999999999,-0.013585472612603948
0.2882999999999999,-0.013584057901304082
0.2872999999999999,-0.013636402219399088
0.2862999999999999,-0.013702893650492745
0.2852999999999999,-0.013779288060685456
0.2842999999999999,-0.01381607055448195
0.2832999999999999,-0.013818899977081677
0.2822999999999999,-0.013847194203078981
0.2812999999999999,-0.013920759190671962
0.2802999999999999,-0.013983006487866021
0.2792999999999999,-0.01400705657996373
0.2782999999999999,-0.013994324178264943
0.2772999999999999,-0.014008471291263595
0.2762999999999999,-0.01407496272235725
0.2752999999999999,-0.014132965885651718
0.2742999999999999,-0.014161260111649017
0.2732999999999999,-0.014141454153450906
0.2722999999999999,-0.014142868864750772
0.2712999999999999,-0.014217848563643616
0.2702999999999999,-0.014288584128636872
0.2692999999999999,-0.01427443701563822
0.26829999999999987,-0.01426028990263957
0.26729999999999987,-0.01424614278964092
0.26629999999999987,-0.01430273124163552
0.26529999999999987,-0.014373466806628774
0.26429999999999987,-0.014415908145624722
0.26329999999999987,-0.014373466806628774
0.26229999999999987,-0.014373466806628774
0.26129999999999987,-0.014415908145624722
0.26029999999999986,-0.014486643710617976
0.25929999999999986,-0.014458349484620674
0.25829999999999986,-0.014444202371622025
0.25729999999999986,-0.014444202371622025
0.25629999999999986,-0.014486643710617976
0.25529999999999986,-0.014571526388609878
0.25429999999999986,-0.014557379275611227
0.25329999999999986,-0.014514937936615275
0.25229999999999986,-0.014514937936615275
0.25129999999999986,-0.014557379275611227
0.25029999999999986,-0.01461396772760583
0.24929999999999986,-0.014599820614607179
0.24829999999999985,-0.014585673501608528
0.24729999999999985,-0.014571526388609878
0.24629999999999985,-0.01461396772760583
0.24529999999999985,-0.01469885040559773
0.24429999999999985,-0.01469885040559773
0.24329999999999985,-0.01465640906660178
0.24229999999999985,-0.01465640906660178
0.24129999999999985,-0.014684703292599082
0.24029999999999985,-0.014727144631595034
0.23929999999999985,-0.014741291744593682
0.23829999999999985,-0.014727144631595034
0.23729999999999984,-0.014727144631595034
0.23629999999999984,-0.014755438857592333
0.23529999999999984,-0.014797880196588285
0.23429999999999984,-0.014826174422585584
0.23329999999999984,-0.014783733083589632
0.23229999999999984,-0.014783733083589632
0.23129999999999984,-0.014840321535584235
0.23029999999999984,-0.014896909987578835
0.22929999999999984,-0.014896909987578835
0.22829999999999984,-0.014868615761581536
0.22729999999999984,-0.014868615761581536
0.22629999999999983,-0.014911057100577486
0.22529999999999983,-0.014981792665570736
0.22429999999999983,-0.01501008689156804
0.22329999999999983,-0.014981792665570736
0.22229999999999983,-0.014967645552572089
0.22129999999999983,-0.01501008689156804
0.22029999999999983,-0.015080822456561293
0.21929999999999983,-0.01509496956955994
0.21829999999999983,-0.01509496956955994
0.21729999999999983,-0.01509496956955994
0.21629999999999983,-0.015137410908555892
0.21529999999999982,-0.015193999360550494
0.21429999999999982,-0.015193999360550494
0.21329999999999982,-0.015193999360550494
0.21229999999999982,-0.015193999360550494
0.21129999999999982,-0.015222293586547794
0.21029999999999982,-0.015278882038542396
0.20929999999999982,-0.015293029151541045
0.20829999999999982,-0.015264734925543746
0.20729999999999982,-0.015293029151541045
0.20629999999999982,-0.015335470490536997
0.20529999999999982,-0.015406206055530251
0.20429999999999982,-0.015392058942531598
0.20329999999999981,-0.015377911829532949
0.2022999999999998,-0.015392058942531598
0.2012999999999998,-0.015406206055530251
0.20029999999999992,-0.015476941620523503
0.19929999999999992,-0.015505235846520802
0.19829999999999992,-0.015476941620523503
0.19729999999999992,-0.015491088733522153
0.19629999999999992,-0.015519382959519455
0.19529999999999992,-0.015575971411514053
0.19429999999999992,-0.015646706976507305
0.19329999999999992,-0.015646706976507305
0.19229999999999992,-0.015618412750510005
0.19129999999999991,-0.015703295428501907
0.1902999999999999,-0.015745736767497857
0.1892999999999999,-0.01573158965449921
0.1882999999999999,-0.015717442541500558
0.1872999999999999,-0.015703295428501907
0.1862999999999999,-0.01578817810649381
0.1852999999999999,-0.01583061944548976
0.1842999999999999,-0.01583061944548976
0.1832999999999999,-0.01583061944548976
0.1822999999999999,-0.01583061944548976
0.1812999999999999,-0.01588720789748436
0.1802999999999999,-0.015957943462477614
0.1792999999999999,-0.01597209057547626
0.1782999999999999,-0.015957943462477614
0.1772999999999999,-0.015943796349478963
0.1762999999999999,-0.015986237688474913
0.1752999999999999,-0.016056973253468165
0.1742999999999999,-0.016042826140469518
0.1732999999999999,-0.016056973253468165
0.1722999999999999,-0.016071120366466816
0.1712999999999999,-0.01611356170546277
0.1702999999999999,-0.01619844438345467
0.1692999999999999,-0.01618429727045602
0.1682999999999999,-0.016170150157457368
0.1672999999999999,-0.01619844438345467
0.1662999999999999,-0.01624088572245062
0.1652999999999999,-0.01629747417444522
0.1642999999999999,-0.016325768400442524
0.1632999999999999,-0.016311621287443873
0.1622999999999999,-0.016311621287443873
0.1612999999999999,-0.01638235685243712
0.1602999999999999,-0.016424798191433075
0.1592999999999999,-0.016438945304431726
0.15829999999999989,-0.016424798191433075
0.15729999999999988,-0.016453092417430374
0.15629999999999988,-0.016537975095422278
0.15529999999999988,-0.01659456354741688
0.15429999999999988,-0.01656626932141958
0.15329999999999988,-0.016552122208420932
0.15229999999999988,-0.01658041643441823
0.15129999999999988,-0.01665115199941148
0.15029999999999988,-0.016721887564404736
0.14929999999999988,-0.01673603467740338
0.14829999999999988,-0.016764328903400686
0.14729999999999988,-0.016806770242396636
0.14629999999999987,-0.01690580003338719
0.14529999999999987,-0.01697653559838044
0.14429999999999987,-0.016962388485381792
0.14329999999999987,-0.016948241372383138
0.14229999999999987,-0.016948241372383138
0.14129999999999987,-0.01697653559838044
0.14029999999999987,-0.01703312405037504
0.13929999999999987,-0.017047271163373692
0.13829999999999987,-0.01706141827637234
0.13729999999999987,-0.017146300954364244
0.13629999999999987,-0.0173302134233467
0.13529999999999986,-0.01731606631034805
0.13429999999999986,-0.017217036519357496
0.13329999999999986,-0.017217036519357496
0.13229999999999986,-0.017217036519357496
0.13129999999999986,-0.017259477858353446
0.13029999999999986,-0.01734436053634535
0.12929999999999986,-0.01734436053634535
0.12829999999999986,-0.01734436053634535
0.12729999999999986,-0.017372654762342652
0.12629999999999986,-0.017429243214337253
0.12529999999999986,-0.01748583166633185
0.12429999999999986,-0.017499978779330502
0.12329999999999985,-0.017499978779330502
0.12229999999999985,-0.017514125892329157
0.12129999999999985,-0.017584861457322406
0.12029999999999985,-0.017641449909317007
0.11929999999999985,-0.017641449909317007
0.11829999999999985,-0.017641449909317007
0.11729999999999985,-0.01768389124831296
0.11629999999999985,-0.017754626813306213
0.11529999999999985,-0.017797068152302163
0.11429999999999985,-0.01781121526530081
0.11329999999999985,-0.017825362378299462
0.11229999999999984,-0.017825362378299462
0.11129999999999984,-0.017896097943292714
0.11029999999999984,-0.017966833508285963
0.10929999999999984,-0.017980980621284618
0.10829999999999984,-0.017980980621284618
0.10729999999999984,-0.017995127734283266
0.10629999999999984,-0.018065863299276518
0.10529999999999984,-0.018108304638272472
0.10429999999999984,-0.01813659886426977
0.10329999999999984,-0.018150745977268422
0.10229999999999984,-0.01816489309026707
0.10129999999999983,-0.018249775768258973
0.10029999999999983,-0.018320511333252226
0.09929999999999983,-0.018292217107254923
0.09829999999999983,-0.018306364220253574
0.09729999999999983,-0.018334658446250877
0.09629999999999983,-0.018391246898245478
0.09529999999999983,-0.01847612957623738
0.09429999999999983,-0.018461982463238727
0.09329999999999983,-0.01847612957623738
0.09229999999999983,-0.01851857091523333
0.09129999999999983,-0.01858930648022658
0.09029999999999982,-0.018674189158218484
0.08929999999999982,-0.018674189158218484
0.08829999999999982,-0.018674189158218484
0.08729999999999982,-0.018730777610213082
0.08629999999999982,-0.018815660288204986
0.08529999999999982,-0.01885810162720094
0.08429999999999982,-0.01885810162720094
0.08329999999999982,-0.01882980740120364
0.08229999999999982,-0.018886395853198238
0.08129999999999982,-0.018942984305192843
0.08029999999999982,-0.018999572757187444
0.07929999999999982,-0.019042014096183394
0.07829999999999981,-0.019027866983184743
0.07729999999999981,-0.019084455435179344
0.07629999999999981,-0.0191551910001726
0.07529999999999992,-0.019197632339168547
0.07429999999999992,-0.019211779452167198
0.07329999999999992,-0.019211779452167198
0.07229999999999992,-0.019240073678164497
0.07129999999999992,-0.0193249563561564
0.07029999999999992,-0.019395691921149656
0.06929999999999992,-0.019395691921149656
0.06829999999999992,-0.0194098390341483
0.06729999999999992,-0.019423986147146955
0.06629999999999991,-0.019537163051136158
0.06529999999999991,-0.019607898616129407
0.06429999999999991,-0.01959375150313076
0.06329999999999991,-0.019607898616129407
0.06229999999999991,-0.01963619284212671
0.06129999999999991,-0.01970692840711996
0.06029999999999991,-0.019820105311109164
0.05929999999999991,-0.019890840876102416
0.05829999999999991,-0.020018164893090266
0.05729999999999991,-0.01997572355409432
0.056299999999999906,-0.019989870667092968
0.055299999999999905,-0.02006060623208622
0.054299999999999904,-0.02003231200608892
0.0532999999999999,-0.02004645911908757
0.0522999999999999,-0.02007475334508487
0.0512999999999999,-0.02015963602307677
0.0502999999999999,-0.020244518701068675
0.0492999999999999,-0.020301107153063276
0.0482999999999999,-0.020371842718056525
0.0472999999999999,-0.020400136944053827
0.0462999999999999,-0.020400136944053827
0.045299999999999896,-0.020442578283049778
0.044299999999999895,-0.02045672539604843
0.043299999999999894,-0.02045672539604843
0.04229999999999989,-0.020541608074040336
0.04129999999999989,-0.020824550334013342
0.04029999999999989,-0.020951874351001196
0.03929999999999989,-0.020923580125003893
0.03829999999999989,-0.020895285899006594
0.03729999999999989,-0.02079625610801604
0.03629999999999989,-0.020838697447011986
0.03529999999999989,-0.021135786819983647
0.034299999999999886,-0.021333846401964753
0.033299999999999885,-0.021121639706984996
0.032299999999999884,-0.020980168576998495
0.031299999999999883,-0.021036757028993096
0.030299999999999883,-0.02122066949797555
0.02929999999999988,-0.0212631108369715
0.02829999999999988,-0.021149933932982302
0.02729999999999988,-0.021135786819983647
0.02629999999999988,-0.0212631108369715
0.025299999999999878,-0.021390434853959358
0.024299999999999877,-0.021461170418952607
0.023299999999999876,-0.021418729079956657
0.022299999999999875,-0.021418729079956657
0.021299999999999875,-0.021489464644949906
0.020299999999999874,-0.021560200209943158
0.019299999999999873,-0.021546053096944507
0.018299999999999872,-0.02158849443594046
0.01729999999999987,-0.021602641548939108
0.01629999999999987,-0.021715818452928314
0.01529999999999987,-0.021814848243918866
0.014299999999999868,-0.021814848243918866
0.013299999999999867,-0.021828995356917517
0.012299999999999978,-0.021871436695913467
0.011299999999999866,-0.02194217226090672
0.010299999999999976,-0.02205534916489592
0.009299999999999864,-0.02208364339089322
0.008299999999999974,-0.022111937616890523
0.007299999999999862,-0.022154378955886473
0.006299999999999972,-0.022239261633878377
0.00529999999999986,-0.022281702972874327
0.0042999999999999705,-0.022295850085872978
0.0032999999999998586,-0.022295850085872978
0.0022999999999999687,-0.022338291424868928
0.0012999999999998568,-0.022437321215859483
0.00029999999999996696,-0.022493909667854084
-0.000700000000000145,-0.022522203893851383
-0.0017000000000000348,-0.022522203893851383
-0.0027000000000001467,-0.022564645232847336
-0.0037000000000000366,-0.022663675023837888
-0.0047000000000001485,-0.02273441058883114
-0.005700000000000038,-0.02276270481482844
-0.00670000000000015,-0.02276270481482844
-0.00770000000000004,-0.02279099904082574
-0.008700000000000152,-0.022904175944814944
-0.009700000000000042,-0.022974911509808196
-0.010700000000000154,-0.023017352848804146
-0.011700000000000044,-0.023031499961802798
-0.012700000000000156,-0.0230597941878001
-0.013700000000000045,-0.023158823978790648
-0.014700000000000157,-0.023215412430785252
-0.015700000000000047,-0.02324370665678255
-0.01670000000000016,-0.023257853769781203
-0.01770000000000005,-0.023286147995778505
-0.01870000000000016,-0.02338517778676906
-0.01970000000000005,-0.023484207577759608
-0.020700000000000163,-0.023498354690758262
-0.021700000000000053,-0.02352664891675556
-0.022700000000000164,-0.02356909025575151
-0.023700000000000054,-0.023668120046742062
-0.024700000000000166,-0.023724708498736664
-0.025700000000000056,-0.02373885561173532
-0.026700000000000168,-0.023767149837732617
-0.027700000000000058,-0.023823738289727222
-0.02870000000000017,-0.02389447385472047
-0.02970000000000006,-0.023993503645711022
-0.03070000000000017,-0.02420571034069078
-0.03170000000000006,-0.024219857453689427
-0.03270000000000017,-0.024106680549700225
-0.03370000000000006,-0.024163269001694826
-0.034700000000000175,-0.02424815167968673
-0.035700000000000065,-0.02426229879268538
-0.03670000000000018,-0.02427644590568403
-0.03770000000000007,-0.024403769922671882
-0.03870000000000018,-0.02479988908663409
-0.03970000000000007,-0.024913065990623297
-0.04070000000000018,-0.02479988908663409
-0.04170000000000007,-0.024700859295643543
-0.04270000000000018,-0.024785741973635443
-0.04370000000000007,-0.024884771764625994
-0.044700000000000184,-0.024870624651627343
-0.045700000000000074,-0.024856477538628696
-0.046700000000000186,-0.024927213103621948
-0.047700000000000076,-0.024884771764625994
-0.04870000000000019,-0.0250545371206098
-0.04970000000000008,-0.025167714024599004
-0.05070000000000019,-0.0250828313466071
-0.05170000000000008,-0.0251111255726044
-0.05270000000000019,-0.025139419798601705
-0.05370000000000008,-0.025266743815589552
-0.05470000000000019,-0.02535162649358146
-0.05570000000000008,-0.025337479380582808
-0.056700000000000195,-0.025365773606580107
-0.057700000000000085,-0.025422362058574708
-0.058700000000000196,-0.02553553896256391
-0.059700000000000086,-0.02562042164055581
-0.0607000000000002,-0.025648715866553113
-0.06170000000000009,-0.02573359854454502
-0.0627000000000002,-0.025818481222536924
-0.06370000000000009,-0.025860922561532867
