Potential V vs RHE, Current mA cm-2
0.013299999999999867,-0.1766974413531431
0.012299999999999978,-2.052746096104168
0.011299999999999866,-3.7970851288377587
0.010299999999999976,-5.367414671687949
0.009299999999999864,-6.762320013354876
0.008299999999999974,-8.027071915434218
0.007299999999999862,-9.205526428221793
0.006299999999999972,-10.340124890713554
0.00529999999999986,-11.517164692201263
0.0042999999999999705,-12.694204493688973
0.0032999999999998586,-13.698649516593148
0.0022999999999999687,-14.57152638860988
0.0012999999999998568,-15.3920589425316
0.00029999999999996696,-16.184297270456018
-0.000700000000000145,-16.962388485381787
-0.0017000000000000348,-17.797068152302163
-0.0027000000000001467,-18.589306480226583
-0.0037000000000000366,-19.3249563561564
-0.0047000000000001485,-19.93328221509837
-0.005700000000000038,-20.499166735044383
-0.00670000000000015,-21.065051254990397
-0.00770000000000004,-21.729965565926964
-0.008700000000000152,-22.38073276386488
-0.009700000000000042,-22.989058622806844
-0.010700000000000154,-23.47006046476096
-0.011700000000000044,-23.908620967719123
-0.012700000000000156,-24.34718147067728
-0.013700000000000045,-24.771594860636792
-0.014700000000000157,-25.295038041586857
-0.015700000000000047,-25.77603988354097
-0.01670000000000016,-26.21460038649913
-0.01770000000000005,-26.61071955046134
-0.01870000000000016,-26.86536758443705
-0.01970000000000005,-27.219045409403304
-0.020700000000000163,-27.572723234369565
-0.021700000000000053,-28.011283737327723
-0.022700000000000164,-28.350814449295335
-0.023700000000000054,-28.704492274261593
-0.024700000000000166,-28.959140308237306
-0.025700000000000056,-29.18549411621571
-0.026700000000000168,-29.440142150191413
-0.027700000000000058,-29.751378636161718
-0.02870000000000017,-30.10505646112798
-0.02970000000000006,-30.402145834099635
-0.03070000000000017,-30.670940981073993
-0.03170000000000006,-30.8407063370578
-0.03270000000000017,-31.010471693041605
-0.03370000000000006,-31.19438416202406
-0.034700000000000175,-31.449032195999767
-0.035700000000000065,-31.76026868197007
-0.03670000000000018,-31.972475376949827
-0.03770000000000007,-32.14224073293363
-0.03870000000000018,-32.24127052392419
-0.03970000000000007,-32.41103587990799
-0.04070000000000018,-32.58080123589179
-0.04170000000000007,-32.84959638286615
-0.04270000000000018,-33.06180307784591
-0.04370000000000007,-33.288156885824314
-0.044700000000000184,-33.330598224820264
-0.045700000000000074,-33.41548090281216
-0.046700000000000186,-33.54280491980002
-0.047700000000000076,-33.712570275783825
-0.04870000000000019,-33.93892408376223
-0.04970000000000008,-34.15113077874198
-0.05070000000000019,-34.278454795729836
-0.05170000000000008,-34.377484586720385
-0.05270000000000019,-34.41992592571634
-0.05370000000000008,-34.50480860370825
-0.05470000000000019,-34.717015298688004
-0.05570000000000008,-34.90092776767045
-0.056700000000000195,-35.07069312365426
-0.057700000000000085,-35.11313446265021
-0.058700000000000196,-35.15557580164616
-0.059700000000000086,-35.198017140642115
-0.0607000000000002,-35.32534115762997
-0.06170000000000009,-35.50925362661242
-0.0627000000000002,-35.721460321592176
-0.06370000000000009,-35.806342999584075
-0.0647000000000002,-35.848784338580025
-0.06570000000000009,-35.848784338580025
-0.0667000000000002,-35.90537279057463
-0.0677000000000001,-35.99025546856653
-0.0687000000000002,-36.16002082455034
-0.0697000000000001,-36.28734484153819
-0.07070000000000021,-36.329786180534136
-0.0717000000000001,-36.329786180534136
-0.07270000000000021,-36.37222751953009
-0.0737000000000001,-36.4288159715247
-0.07470000000000021,-36.55613998851254
-0.0757000000000001,-36.725905344496354
-0.07670000000000021,-36.8532293614842
-0.0777000000000001,-36.8532293614842
-0.07870000000000021,-36.81078802248826
-0.0797000000000001,-36.81078802248826
-0.08070000000000022,-36.89567070048016
-0.0817000000000001,-36.99470049147071
-0.08270000000000022,-37.122024508458566
-0.08370000000000011,-37.206907186450465
-0.08470000000000022,-37.206907186450465
-0.08570000000000011,-37.164465847454515
-0.08670000000000022,-37.206907186450465
-0.08770000000000011,-37.249348525446415
-0.08870000000000022,-37.41911388143023
-0.08970000000000011,-37.47570233342482
-0.09070000000000022,-37.51814367242077
-0.09170000000000011,-37.47570233342482
-0.09270000000000023,-37.41911388143023
-0.09370000000000012,-37.47570233342482
-0.09470000000000023,-37.56058501141672
-0.09570000000000012,-37.687909028404576
-0.09670000000000023,-37.81523304539243
-0.09770000000000012,-37.81523304539243
-0.09870000000000023,-37.81523304539243
-0.09970000000000012,-37.85767438438838
-0.10070000000000023,-37.90011572338433
-0.10170000000000012,-37.99914551437489
-0.10270000000000024,-38.16891087035869
-0.10370000000000013,-38.211352209354644
-0.10470000000000024,-38.16891087035869
-0.10570000000000013,-38.12646953136274
-0.10670000000000024,-38.16891087035869
-0.10770000000000013,-38.253793548350586
-0.10870000000000024,-38.38111756533845
-0.10970000000000013,-38.46600024333035
-0.11070000000000024,-38.46600024333035
-0.11170000000000013,-38.46600024333035
-0.11270000000000002,-38.46600024333035
-0.11370000000000013,-38.46600024333035
-0.11470000000000002,-38.522588695324956
-0.11570000000000014,-38.6499127123128
-0.11670000000000003,-38.734795390304704
-0.11770000000000014,-38.692354051308754
-0.11870000000000003,-38.6499127123128
-0.11970000000000014,-38.6499127123128
-0.12070000000000003,-38.734795390304704
-0.12170000000000014,-38.81967806829661
-0.12270000000000003,-38.94700208528445
-0.12370000000000014,-38.98944342428042
-0.12470000000000003,-38.98944342428042
-0.12570000000000014,-38.94700208528445
-0.12670000000000003,-38.98944342428042
-0.12770000000000015,-39.08847321527096
-0.12870000000000004,-39.21579723225882
-0.12970000000000015,-39.34312124924667
-0.13070000000000004,-39.42800392723857
-0.13170000000000015,-39.42800392723857
-0.13270000000000004,-39.42800392723857
-0.13370000000000015,-39.47044526623452
-0.13470000000000004,-39.56947505722508
-0.13570000000000015,-39.696799074212926
-0.13670000000000004,-39.78168175220483
-0.13770000000000016,-39.78168175220483
-0.13870000000000005,-39.739240413208876
-0.13970000000000016,-39.78168175220483
-0.14070000000000005,-39.86656443019674
-0.14170000000000016,-39.99388844718459
-0.14270000000000005,-40.135359577171094
-0.14370000000000016,-40.220242255162994
-0.14470000000000005,-40.220242255162994
-0.14570000000000016,-40.220242255162994
-0.14670000000000005,-40.220242255162994
-0.14770000000000016,-40.34756627215084
-0.14870000000000005,-40.4748902891387
-0.14970000000000017,-40.559772967130606
-0.15070000000000006,-40.65880275812115
-0.15170000000000017,-40.65880275812115
-0.15270000000000006,-40.65880275812115
-0.15370000000000017,-40.743685436113054
-0.15470000000000006,-40.87100945310091
-0.15570000000000017,-40.99833347008877
-0.15670000000000006,-41.182245939071215
-0.15770000000000017,-41.22468727806717
-0.15870000000000006,-41.267128617063115
-0.15970000000000018,-41.267128617063115
-0.16070000000000007,-41.39445263405098
-0.16170000000000018,-41.56421799003478
-0.16270000000000007,-41.74813045901723
-0.16370000000000018,-41.87545447600508
-0.16470000000000007,-41.91789581500104
-0.16570000000000018,-41.91789581500104
-0.16670000000000007,-42.00277849299294
-0.16770000000000018,-42.087661170984845
-0.16870000000000007,-42.31401497896325
-0.16970000000000018,-42.4413389959511
-0.17070000000000007,-42.483780334947056
-0.17170000000000019,-42.526221673943
-0.17270000000000008,-42.568663012938956
-0.1737000000000002,-42.653545690930855
-0.17470000000000008,-42.79501682091736
-0.1757000000000002,-42.96478217690117
-0.17670000000000008,-43.09210619388902
-0.1777000000000002,-43.134547532884966
-0.17870000000000008,-43.17698887188092
-0.1797000000000002,-43.27601866287147
-0.18070000000000008,-43.40334267985933
-0.1817000000000002,-43.57310803584313
-0.18270000000000008,-43.75702050482558
-0.1837000000000002,-43.92678586080939
-0.1847000000000001,-44.011668538801295
-0.1857000000000002,-44.011668538801295
-0.1867000000000001,-44.096551216793195
-0.1877000000000002,-44.28046368577565
-0.1887000000000001,-44.45022904175945
-0.1897000000000002,-44.619994397743255
-0.1907000000000001,-44.74731841473111
-0.1917000000000001,-44.80390686672572
-0.19269999999999998,-44.93123088371356
-0.1937000000000001,-45.05855490070142
-0.19469999999999998,-45.27076159568118
-0.1957000000000001,-45.497115403659585
-0.19669999999999999,-45.666880759643384
-0.1977000000000001,-45.79420477663124
-0.1987,-45.89323456762179
-0.1997000000000001,-45.97811724561369
-0.2007,-46.147882601597495
-0.2017000000000001,-46.41667774857186
-0.2027,-46.628884443551605
-0.2037000000000001,-46.84109113853137
-0.2047,-46.982562268517874
-0.2057000000000001,-47.067444946509774
-0.2067,-47.19476896349763
-0.2077000000000001,-47.40697565847737
-0.2087,-47.67577080545174
-0.2097000000000001,-47.8879775004315
-0.2107,-47.987007291422046
-0.2117000000000001,-48.156772647405845
-0.2127,-48.24165532539775
-0.2137000000000001,-48.41142068138156
-0.2147,-48.68021582835591
-0.2157000000000001,-48.97730520132757
-0.2167,-49.24610034830193
-0.21770000000000012,-49.373424365289786
-0.2187,-49.458307043281685
-0.21970000000000012,-49.59977817326819
-0.2207,-49.81198486824794
-0.22170000000000012,-50.0807800152223
-0.2227,-50.335428049198
-0.22370000000000012,-50.547634744177756
-0.2247,-50.77398855215617
-0.22570000000000012,-50.90131256914402
-0.2267,-51.127666377122424
-0.22770000000000012,-51.38231441109813
-0.22870000000000001,-51.69355089706845
-0.22970000000000013,-51.90575759204819
-0.23070000000000002,-52.11796428702795
-0.23170000000000013,-52.30187675601041
-0.23270000000000002,-52.471642111994214
-0.23370000000000013,-52.69799591997262
-0.23470000000000002,-52.995085292944275
-0.23570000000000013,-53.348763117910536
-0.23670000000000002,-53.64585249088219
-0.2376999999999999,-53.872206298860604
-0.23870000000000002,-54.0419716548444
-0.2396999999999999,-54.2117370108282
-0.24070000000000003,-54.52297349679851
-0.24169999999999991,-54.876651321764776
-0.24270000000000003,-55.13129935574048
-0.24369999999999992,-55.442535841710786
-0.24470000000000003,-55.65474253669055
-0.24569999999999992,-55.881096344668954
-0.24670000000000003,-56.1781857176406
-0.24769999999999992,-56.53186354260687
-0.24870000000000003,-56.927982706569075
-0.24969999999999992,-57.22507207954074
-0.25070000000000003,-57.53630856551105
-0.2516999999999999,-57.7485152604908
-0.25270000000000004,-58.017310407465146
-0.2536999999999999,-58.27195844144086
-0.25470000000000004,-58.66807760540307
-0.2556999999999999,-59.06419676936528
-0.25670000000000004,-59.403727481332886
-0.25769999999999993,-59.7149639673032
-0.25870000000000004,-59.92717066228296
-0.25969999999999993,-60.23840714825326
-0.26070000000000004,-60.59208497321952
-0.26169999999999993,-60.974057024183075
-0.26270000000000004,-61.37017618814529
-0.26369999999999993,-61.6814126741156
-0.26470000000000005,-61.97850204708726
-0.26569999999999994,-62.20485585506566
-0.26670000000000005,-62.58682790602922
-0.26769999999999994,-63.06782974798333
-0.26870000000000005,-63.5063902509415
-0.26969999999999994,-63.98739209289561
-0.27070000000000005,-64.34106991786187
-0.27169999999999994,-64.63815929083353
-0.27270000000000005,-64.94939577680383
-0.27369999999999994,-65.3030736017701
-0.27470000000000006,-65.7274869917296
-0.27569999999999995,-66.20848883368372
-0.27670000000000006,-66.64704933664189
-0.27769999999999995,-67.04316850060408
-0.27870000000000006,-67.43928766456631
-0.27969999999999995,-67.82125971552985
-0.28070000000000006,-68.30226155748396
-0.28169999999999995,-68.78326339943808
-0.28270000000000006,-69.26426524139221
-0.28369999999999995,-69.74526708334632
-0.28470000000000006,-70.14138624730852
-0.28569999999999995,-70.43847562028017
-0.28670000000000007,-70.87703612323833
-0.28769999999999996,-71.35803796519245
-0.28870000000000007,-71.92392248513846
-0.28969999999999996,-72.48980700508447
-0.29070000000000007,-73.01325018603454
-0.29169999999999996,-73.45181068899271
-0.29270000000000007,-73.89037119195086
-0.29369999999999996,-74.37137303390499
-0.2947000000000001,-74.89481621485504
-0.29569999999999996,-75.50314207379701
-0.2967000000000001,-76.02658525474708
-0.29769999999999996,-76.50758709670117
-0.2987000000000001,-76.98858893865528
-0.29969999999999997,-77.46959078060941
-0.3007000000000001,-78.03547530055542
-0.30169999999999997,-78.68624249849334
-0.3027000000000001,-79.33700969643127
-0.30369999999999997,-79.86045287738132
-0.3047000000000001,-80.38389605833139
-0.30569999999999997,-80.86489790028548
-0.3067000000000001,-81.38834108123557
-0.3077,-81.99666694017753
-0.3087000000000001,-82.6615812511141
-0.3097,-83.35478978804795
-0.3107000000000001,-83.96311564698992
-0.3117,-84.52900016693594
-0.3127000000000001,-85.09488468688197
-0.3137,-85.75979899781852
-0.3147000000000001,-86.45300753475239
-0.3157,-87.23109874967815
-0.3167000000000001,-87.89601306061473
-0.3177,-88.5043389195567
-0.3187000000000001,-89.07022343950271
-0.3197,-89.67854929844468
-0.3207000000000001,-90.37175783537855
-0.3217,-91.16399616330297
-0.3227000000000001,-91.89964603923279
-0.3237,-92.6070016891653
-0.3247000000000001,-93.30021022609918
-0.3257,-93.99341876303303
-0.3267000000000001,-94.70077441296557
-0.3277,-95.47886562789132
-0.3287000000000001,-96.35598663380765
-0.3297,-97.13407784873341
-0.3307000000000001,-97.88387483766188
-0.3317,-98.57708337459576
-0.3327000000000001,-99.27029191152963
-0.3337,-100.06253023945405
-0.3347000000000001,-100.92550413237171
-0.3357,-101.80262513828804
-0.3367000000000001,-102.63730480520842
-0.3377,-103.41539602013418
-0.3387000000000001,-104.12275167006669
-0.3397,-104.85840154599651
-0.3407000000000001,-105.63649276092228
-0.3417,-106.47117242784265
-0.3427000000000001,-107.34829343375898
-0.3437,-108.0839433096888
-0.3447000000000001,-108.77715184662266
-0.3457,-109.44206615755924
-0.3467000000000001,-110.17771603348905
-0.3477,-111.05483703940537
-0.3487000000000001,-111.96025227131899
-0.3497,-112.92225595522721
-0.3507000000000001,-113.75693562214758
-0.3517,-114.57746817606933
-0.3527000000000001,-115.4121478429897
-0.3537,-116.33171018790196
-0.3547000000000001,-117.29371387181018
-0.3557,-118.29815889471436
-0.35670000000000013,-119.24601546562396
-0.3577,-120.12313647154028
-0.35870000000000013,-121.04269881645253
-0.3597,-121.90567270937021
-0.36070000000000013,-122.91011773227437
-0.3617,-123.95700409417452
-0.3626999999999999,-124.9614491170787
-0.3637,-125.92345280098691
-0.3646999999999999,-126.75813246790726
-0.3657,-127.57866502182902
-0.3666999999999999,-128.45578602774532
-0.3677,-129.3753483726576
-0.3686999999999999,-130.37979339556176
-0.36970000000000003,-131.4266797574619
-0.3706999999999999,-132.2896536503796
-0.37170000000000003,-133.20921599529186
-0.3726999999999999,-134.17121967920008
-0.37370000000000003,-135.17566470210423
-0.3746999999999999,-136.26499240300032
-0.37570000000000003,-137.3543201038964
-0.3766999999999999,-138.40120646579655
-0.37770000000000004,-139.36321014970477
-0.3786999999999999,-140.22618404262244
-0.37970000000000004,-141.18818772653066
-0.3806999999999999,-142.31995676642268
-0.38170000000000004,-143.4517258063147
-0.38269999999999993,-144.58349484620675
-0.38370000000000004,-145.7152638860988
-0.38469999999999993,-146.8470329259908
-0.38570000000000004,-147.83733083589632
-0.38669999999999993,-147.4129174459368
-0.38570000000000004,-144.86643710617977
-0.38469999999999993,-142.4614278964092
-0.38370000000000004,-140.325213833613
-0.38269999999999993,-138.13241131882216
-0.38170000000000004,-136.13766838601245
-0.3806999999999999,-134.256102357192
-0.37970000000000004,-132.516007458358
-0.3786999999999999,-130.84664812451723
-0.37770000000000004,-129.2338772426711
-0.3766999999999999,-127.66354769982091
-0.37570000000000003,-125.96589413998288
-0.3746999999999999,-124.26824058014482
-0.37370000000000003,-122.61302835930273
-0.3726999999999999,-121.04269881645253
-0.37170000000000003,-119.55725195159425
-0.3706999999999999,-118.11424642573192
-0.36970000000000003,-116.67124089986959
-0.3686999999999999,-115.15749980901398
-0.3677,-113.62961160515974
-0.3666999999999999,-112.14416474030146
-0.3657,-110.74360055343507
-0.3646999999999999,-109.39962481856328
-0.3637,-107.99906063169689
-0.3626999999999999,-106.59849644483052
-0.3617,-105.11304957997223
-0.36070000000000013,-103.64174982811258
-0.3597,-102.3260683192381
-0.35870000000000013,-101.10941660135417
-0.3577,-99.87861777047159
-0.35670000000000013,-98.6195247135917
-0.3557,-97.31799031771587
-0.3547000000000001,-95.91742613084948
-0.3537,-94.5168619439831
-0.3527000000000001,-93.21532754810727
-0.3517,-91.94208737822873
-0.3507000000000001,-90.7254356603448
-0.3497,-89.46634260346492
-0.3487000000000001,-88.19310243358639
-0.3477,-86.93400937670651
-0.3467000000000001,-85.70321054582392
-0.3457,-84.48655882793999
-0.3447000000000001,-83.39723112704392
-0.3437,-82.18057940915998
-0.3427000000000001,-80.90733923928146
-0.3417,-79.64824618240156
-0.3407000000000001,-78.33256467352709
-0.3397,-77.0734716166472
-0.3387000000000001,-75.98414391575112
-0.3377,-74.89481621485504
-0.3367000000000001,-73.80548851395896
-0.3357,-72.63127813507097
-0.3347000000000001,-71.4004793041884
-0.3337,-70.22626892530042
-0.3327000000000001,-69.0944998854084
-0.3317,-68.0051721845123
-0.3307000000000001,-66.91584448361623
-0.3297,-65.7274869917296
-0.3287000000000001,-64.59571795183757
-0.3277,-63.37906623395363
-0.3267000000000001,-62.24729719406162
-0.3257,-61.242852171157445
-0.3247000000000001,-60.23840714825326
-0.3237,-59.19152078635314
-0.3227000000000001,-58.05975174646111
-0.3217,-56.88554136757313
-0.3207000000000001,-55.6971838756865
-0.3197,-54.60785617479041
-0.3187000000000001,-53.56096981289029
-0.3177,-52.55652478998611
-0.3167000000000001,-51.55207976708194
-0.3157,-50.50519340518181
-0.3147000000000001,-49.458307043281685
-0.3137,-48.36897934238561
-0.3127000000000001,-47.36453431948143
-0.3117,-46.41667774857186
-0.3107000000000001,-45.412232725667685
-0.3097,-44.4077877027635
-0.3087000000000001,-43.31846000186743
-0.3077,-42.2715736399673
-0.3067000000000001,-41.267128617063115
-0.30569999999999997,-40.30512493315489
-0.3047000000000001,-39.42800392723857
-0.30369999999999997,-38.5650300343209
-0.3027000000000001,-37.56058501141672
-0.30169999999999997,-36.55613998851254
-0.3007000000000001,-35.55169496560837
-0.29969999999999997,-34.5472499427042
-0.2987000000000001,-33.670128936787876
-0.29769999999999996,-32.807155043870196
-0.2967000000000001,-31.887592698957924
-0.29569999999999996,-30.925589015049702
-0.2947000000000001,-29.921143992145527
-0.29369999999999996,-29.001581647233255
-0.29270000000000007,-28.13860775431558
-0.29169999999999996,-27.303928087395207
-0.29070000000000007,-26.483395533473487
-0.28969999999999996,-25.60627452755716
-0.28870000000000007,-24.64427084364894
-0.28769999999999996,-23.724708498736668
-0.28670000000000007,-22.776851927827092
-0.28569999999999995,-21.98461359990267
-0.28470000000000006,-21.2065223849769
-0.28369999999999995,-20.414284057052477
-0.28270000000000006,-19.537163051136158
-0.28169999999999995,-18.674189158218486
-0.28070000000000006,-17.75462681330621
-0.27969999999999995,-16.919947146385837
-0.27870000000000006,-16.141855931460068
-0.27769999999999995,-15.448647394526201
-0.27670000000000006,-14.65640906660178
-0.27569999999999995,-13.828802956180734
-0.27470000000000006,-12.955926084164007
-0.27369999999999994,-12.12831997374296
-0.27270000000000005,-11.299299152022046
-0.27169999999999994,-10.601846481188586
-0.27070000000000005,-9.902979099055257
-0.26969999999999994,-9.161670377925978
-0.26870000000000005,-8.376505606500881
-0.26769999999999994,-7.50504344578402
-0.26670000000000005,-6.719878674358924
-0.26569999999999994,-5.977155241929781
