Potential V vs RHE, Current mA cm-2
0.013299999999999867,-0.42087661170984847
0.012299999999999978,-2.011719468408082
0.011299999999999866,-3.525460559263671
0.010299999999999976,-4.82840966643937
0.009299999999999864,-5.814463442445301
0.008299999999999974,-6.838714423547587
0.007299999999999862,-7.840330023852035
0.006299999999999972,-8.564662209382933
0.00529999999999986,-9.264944302816126
0.0042999999999999705,-10.078403300238522
0.0032999999999998586,-10.669752623582108
0.0022999999999999687,-11.160657444635275
0.0012999999999998568,-11.798692240874407
0.00029999999999996696,-12.326379555724063
-0.000700000000000145,-12.668739690291403
-0.0017000000000000348,-13.132764996647134
-0.0027000000000001467,-13.626499240300033
-0.0037000000000000366,-13.902367943773715
-0.0047000000000001485,-14.203701450644967
-0.005700000000000038,-14.642261953603128
-0.00670000000000015,-14.911057100577487
-0.00770000000000004,-15.094969569559943
-0.008700000000000152,-15.4769416205235
-0.009700000000000042,-15.77403099349516
-0.010700000000000154,-15.901355010483012
-0.011700000000000044,-16.170150157457368
-0.012700000000000156,-16.481386643427676
-0.013700000000000045,-16.580416434418233
-0.014700000000000157,-16.721887564404735
-0.015700000000000047,-17.00482982437774
-0.01670000000000016,-17.103859615368293
-0.01770000000000005,-17.160448067362896
-0.01870000000000016,-17.40094898833995
-0.01970000000000005,-17.584861457322408
-0.020700000000000163,-17.599008570321057
-0.021700000000000053,-17.74047970030756
-0.022700000000000164,-17.966833508285966
-0.023700000000000054,-17.980980621284615
-0.024700000000000166,-18.03756907327922
-0.025700000000000056,-18.263922881257624
-0.026700000000000168,-18.320511333252224
-0.027700000000000058,-18.306364220253574
-0.02870000000000017,-18.49027668923603
-0.02970000000000006,-18.631747819222536
-0.03070000000000017,-18.589306480226583
-0.03170000000000006,-18.688336271217132
-0.03270000000000017,-18.843954514202288
-0.03370000000000006,-18.815660288204988
-0.034700000000000175,-18.815660288204988
-0.035700000000000065,-19.01371987018609
-0.03670000000000018,-19.042014096183394
-0.03770000000000007,-18.985425644188794
-0.03870000000000018,-19.155191000172596
-0.03970000000000007,-19.22592656516585
-0.04070000000000018,-19.141043887173947
-0.04170000000000007,-19.211779452167196
-0.04270000000000018,-19.339103469155052
-0.04370000000000007,-19.28251501716045
-0.044700000000000184,-19.2683679041618
-0.045700000000000074,-19.423986147146955
-0.046700000000000186,-19.4381332601456
-0.047700000000000076,-19.353250582153702
-0.04870000000000019,-19.480574599141555
-0.04970000000000008,-19.565457277133458
-0.05070000000000019,-19.466427486142905
-0.05170000000000008,-19.523015938137508
-0.05270000000000019,-19.65033995512536
-0.05370000000000008,-19.579604390132108
-0.05470000000000019,-19.551310164134804
-0.05570000000000008,-19.678634181122664
-0.056700000000000195,-19.664487068124007
-0.057700000000000085,-19.579604390132108
-0.058700000000000196,-19.664487068124007
-0.059700000000000086,-19.73522263311726
-0.0607000000000002,-19.636192842126707
-0.06170000000000009,-19.70692840711996
-0.0627000000000002,-19.848399537106463
-0.06370000000000009,-19.763516859114564
-0.0647000000000002,-19.721075520118614
-0.06570000000000009,-19.862546650105116
-0.0667000000000002,-19.848399537106463
-0.0677000000000001,-19.763516859114564
-0.0687000000000002,-19.876693763103766
-0.0697000000000001,-19.919135102099716
-0.07070000000000021,-19.820105311109163
-0.0717000000000001,-19.862546650105116
-0.07270000000000021,-19.97572355409432
-0.0737000000000001,-19.904987989101066
-0.07470000000000021,-19.862546650105116
-0.0757000000000001,-20.00401778009162
-0.07670000000000021,-19.98987066709297
-0.0777000000000001,-19.904987989101066
-0.07870000000000021,-20.01816489309027
-0.0797000000000001,-20.06060623208622
-0.08070000000000022,-19.961576441095666
-0.0817000000000001,-20.00401778009162
-0.08270000000000022,-20.13134179707947
-0.08370000000000011,-20.088900458083522
-0.08470000000000022,-20.07475334508487
-0.08570000000000011,-20.21622447507137
-0.08670000000000022,-20.21622447507137
-0.08770000000000011,-20.13134179707947
-0.08870000000000022,-20.244518701068674
-0.08970000000000011,-20.301107153063278
-0.09070000000000022,-20.187930249074075
-0.09170000000000011,-20.244518701068674
-0.09270000000000023,-20.371842718056527
-0.09370000000000012,-20.301107153063278
-0.09470000000000023,-20.272812927065978
-0.09570000000000012,-20.400136944053827
-0.09670000000000023,-20.38598983105518
-0.09770000000000012,-20.301107153063278
-0.09870000000000023,-20.400136944053827
-0.09970000000000012,-20.48501962204573
-0.10070000000000023,-20.400136944053827
-0.10170000000000012,-20.44257828304978
-0.10270000000000024,-20.569902300037633
-0.10370000000000013,-20.51331384804303
-0.10470000000000024,-20.499166735044383
-0.10570000000000013,-20.668932091028186
-0.10670000000000024,-20.654784978029536
-0.10770000000000013,-20.569902300037633
-0.10870000000000024,-20.683079204026836
-0.10970000000000013,-20.76796188201874
-0.11070000000000024,-20.683079204026836
-0.11170000000000013,-20.73966765602144
-0.11270000000000002,-20.881138786007945
-0.11370000000000013,-20.824550334013338
-0.11470000000000002,-20.79625610801604
-0.11570000000000014,-20.95187435100119
-0.11670000000000003,-20.95187435100119
-0.11770000000000014,-20.881138786007945
-0.11870000000000003,-21.022609915994444
-0.11970000000000014,-21.107492593986347
-0.12070000000000003,-21.050904141991744
-0.12170000000000014,-21.13578681998365
-0.12270000000000003,-21.2631108369715
-0.12370000000000014,-21.2348166109742
-0.12470000000000003,-21.2348166109742
-0.12570000000000014,-21.390434853959356
-0.12670000000000003,-21.418729079956652
-0.12770000000000015,-21.362140627962056
-0.12870000000000004,-21.51775887094721
-0.12970000000000015,-21.63093577493641
-0.13070000000000004,-21.531905983945855
-0.13170000000000015,-21.63093577493641
-0.13270000000000004,-21.772406904922917
-0.13370000000000015,-21.729965565926964
-0.13470000000000004,-21.744112678925614
-0.13570000000000015,-21.91387803490942
-0.13670000000000004,-21.95631937390537
-0.13770000000000016,-21.91387803490942
-0.13870000000000005,-22.04120205189727
-0.13970000000000016,-22.15437895588647
-0.14070000000000005,-22.097790503891872
-0.14170000000000016,-22.196820294882425
-0.14270000000000005,-22.38073276386488
-0.14370000000000016,-22.36658565086623
-0.14470000000000005,-22.38073276386488
-0.14570000000000016,-22.578792345845983
-0.14670000000000005,-22.607086571843286
-0.14770000000000016,-22.592939458844636
-0.14870000000000005,-22.748557701829792
-0.14970000000000017,-22.861734605818995
-0.15070000000000006,-22.833440379821692
-0.15170000000000017,-22.932470170812245
-0.15270000000000006,-23.13052975279335
-0.15370000000000017,-23.1163826397947
-0.15470000000000006,-23.15882397879065
-0.15570000000000017,-23.371030673770406
-0.15670000000000006,-23.427619125765005
-0.15770000000000017,-23.41347201276636
-0.15870000000000006,-23.597384481748815
-0.15970000000000018,-23.724708498736668
-0.16070000000000007,-23.696414272739364
-0.16170000000000018,-23.823738289727217
-0.16270000000000007,-24.021797871708326
-0.16370000000000018,-24.035944984706973
-0.16470000000000007,-24.106680549700226
-0.16570000000000018,-24.31888724467998
-0.16670000000000007,-24.40376992267188
-0.16770000000000018,-24.389622809673234
-0.16870000000000007,-24.601829504652986
-0.16970000000000018,-24.74330063463949
-0.17070000000000007,-24.729153521640843
-0.17170000000000019,-24.884771764625995
-0.17270000000000008,-25.09697845960575
-0.1737000000000002,-25.12527268560305
-0.17470000000000008,-25.196008250596304
-0.1757000000000002,-25.42236205857471
-0.17670000000000008,-25.507244736566612
-0.1777000000000002,-25.521391849565262
-0.17870000000000008,-25.73359854454502
-0.1797000000000002,-25.91751101352747
-0.18070000000000008,-25.94580523952477
-0.1817000000000002,-26.11557059550858
-0.18270000000000008,-26.370218629484285
-0.1837000000000002,-26.412659968480234
-0.1847000000000001,-26.497542646472137
-0.1857000000000002,-26.780484906445146
-0.1867000000000001,-26.879514697435695
-0.1877000000000002,-26.936103149430302
-0.1887000000000001,-27.162456957408708
-0.1897000000000002,-27.36051653938981
-0.1907000000000001,-27.38881076538711
-0.1917000000000001,-27.530281895373616
-0.19269999999999998,-27.78492992934932
-0.1937000000000001,-27.827371268345274
-0.19469999999999998,-27.912253946337174
-0.1957000000000001,-28.19519620631018
-0.19669999999999999,-28.32252022329803
-0.1977000000000001,-28.379108675292635
-0.1987,-28.633756709268344
-0.1997000000000001,-28.8459634042481
-0.2007,-28.9025518562427
-0.2017000000000001,-29.086464325225155
-0.2027,-29.35525947219951
-0.2037000000000001,-29.440142150191413
-0.2047,-29.55331905418062
-0.2057000000000001,-29.836261314153624
-0.2067,-30.00602667013743
-0.2077000000000001,-30.06261512213203
-0.2087,-30.345557382105042
-0.2097000000000001,-30.571911190083444
-0.2107,-30.62849964207804
-0.2117000000000001,-30.854853450056453
-0.2127,-31.151942823028104
-0.2137000000000001,-31.265119727017314
-0.2147,-31.434885083001117
-0.2157000000000001,-31.802710020966025
-0.2167,-31.986622489948477
-0.21770000000000012,-32.08565228093904
-0.2187,-32.368594540912035
-0.21970000000000012,-32.6373896878864
-0.2207,-32.7222723658783
-0.22170000000000012,-32.96277328685535
-0.2227,-33.288156885824314
-0.22370000000000012,-33.41548090281216
-0.2247,-33.59939337179462
-0.22570000000000012,-33.93892408376223
-0.2267,-34.15113077874198
-0.22770000000000012,-34.306749021727136
-0.22870000000000001,-34.632132620696105
-0.22970000000000013,-34.9150748806691
-0.23070000000000002,-35.04239889765696
-0.23170000000000013,-35.311194044631314
-0.23270000000000002,-35.664871869597576
-0.23370000000000013,-35.848784338580025
-0.23470000000000002,-36.06099103355979
-0.23570000000000013,-36.44296308452335
-0.23670000000000002,-36.69761111849905
-0.2376999999999999,-36.8532293614842
-0.23870000000000002,-37.235201412447765
-0.2396999999999999,-37.54643789841808
-0.24070000000000003,-37.73035036740053
-0.24169999999999991,-38.04158685337084
-0.24270000000000003,-38.42355890433439
-0.24369999999999992,-38.63576559931415
-0.24470000000000003,-38.8762665202912
-0.24569999999999992,-39.272385684253415
-0.24670000000000003,-39.52703371822913
-0.24769999999999992,-39.71094618721158
-0.24870000000000003,-40.135359577171094
-0.24969999999999992,-40.531478741133306
-0.25070000000000003,-40.729538323114404
-0.2516999999999999,-41.06906903508202
-0.25270000000000004,-41.49348242504152
-0.2536999999999999,-41.73398334601858
-0.25470000000000004,-42.03107271899024
-0.2556999999999999,-42.497927447945706
-0.25670000000000004,-42.82331104691466
-0.25769999999999993,-43.04966485489307
-0.25870000000000004,-43.50237247084988
-0.25969999999999993,-43.94093297380804
-0.26070000000000004,-44.2097281207824
-0.26169999999999993,-44.605847284744605
-0.26270000000000004,-45.10099623969737
-0.26369999999999993,-45.412232725667685
-0.26470000000000005,-45.75176343763528
-0.26569999999999994,-46.27520661858535
-0.26670000000000005,-46.68547289554621
-0.26769999999999994,-46.982562268517874
-0.26870000000000005,-47.46356411047198
-0.26969999999999994,-47.93041883942744
-0.27070000000000005,-48.24165532539775
-0.27169999999999994,-48.72265716735186
-0.27270000000000005,-49.28854168729788
-0.27369999999999994,-49.68466085126009
-0.27470000000000006,-50.094927128220945
-0.27569999999999995,-50.67495876116561
-0.27670000000000006,-51.113519264123774
-0.27769999999999995,-51.481344202088685
-0.27870000000000006,-52.047228722034696
-0.27969999999999995,-52.58481901598341
-0.28070000000000006,-52.966791066946975
-0.28169999999999995,-53.447792908901086
-0.28270000000000006,-54.02782454184575
-0.28369999999999995,-54.43809081880661
-0.28470000000000006,-54.919092660760725
-0.28569999999999995,-55.5840069716973
-0.28670000000000007,-56.10745015264736
-0.28769999999999996,-56.546010655605514
-0.28870000000000007,-57.182630740544774
-0.28969999999999996,-57.8051037124854
-0.29070000000000007,-58.24366421544356
-0.29169999999999996,-58.83784296138688
-0.29270000000000007,-59.54519861131939
-0.29369999999999996,-60.06864179226946
-0.2947000000000001,-60.62037919921682
-0.29569999999999996,-61.327734849149344
-0.2967000000000001,-61.865325143098055
-0.29769999999999996,-62.28973853305756
-0.2987000000000001,-62.91221150499819
-0.29969999999999997,-63.5063902509415
-0.3007000000000001,-63.973244979896954
-0.30169999999999997,-64.60986506483623
-0.3027000000000001,-65.31722071476874
-0.30369999999999997,-65.82651678272015
-0.3047000000000001,-66.42069552866347
-0.30569999999999997,-67.19878674358924
-0.3067000000000001,-67.86370105452582
-0.3077,-68.40129134847452
-0.3087000000000001,-69.151088337403
-0.3097,-69.8584439873355
-0.3107000000000001,-70.36774005528693
-0.3117,-71.08924281821808
-0.3127000000000001,-71.95221671113578
-0.3137,-72.61713102207234
-0.3147000000000001,-73.2820453330089
-0.3157,-74.13087211292792
-0.3167000000000001,-74.86652198885774
-0.3177,-75.50314207379701
-0.3187000000000001,-76.33782174071737
-0.3197,-77.14420718164045
-0.3207000000000001,-77.76668015358106
-0.3217,-78.58721270750279
-0.3227000000000001,-79.4643337134191
-0.3237,-80.14339513735433
-0.3247000000000001,-80.85075078728684
-0.3257,-81.75616601920048
-0.3267000000000001,-82.52011012112759
-0.3277,-83.1708773190655
-0.3287000000000001,-84.03385121198318
-0.3297,-84.86853087890354
-0.3307000000000001,-85.53344518984011
-0.3317,-86.31153640476589
-0.3327000000000001,-87.24524586267681
-0.3337,-88.05163130359989
-0.3347000000000001,-88.87216385752161
-0.3357,-89.80587331543254
-0.3367000000000001,-90.62640586935424
-0.3377,-91.37620285828272
-0.3387000000000001,-92.32405942919229
-0.3397,-93.25776888710321
-0.3407000000000001,-94.05000721502763
-0.3417,-95.02615801193451
-0.3427000000000001,-96.11548571283059
-0.3437,-97.03504805774287
-0.3447000000000001,-97.94046328965649
-0.3457,-98.95905542555931
-0.3467000000000001,-99.85032354447429
-0.3477,-100.670856098396
-0.3487000000000001,-101.68944823429884
-0.3497,-102.65145191820707
-0.3507000000000001,-103.44369024613148
-0.3517,-104.4056939300397
-0.3527000000000001,-105.46672740493848
-0.3537,-106.3155541848575
-0.3547000000000001,-107.22096941677113
-0.3557,-108.38103268266046
-0.35670000000000013,-109.37133059256598
-0.3577,-110.1918631464877
-0.35870000000000013,-111.22460239538917
-0.3597,-112.22904741829338
-0.36070000000000013,-113.07787419821238
-0.3617,-114.0681721081179
-0.3626999999999999,-115.19994114800993
-0.3637,-116.23268039691139
-0.3646999999999999,-117.25127253281424
-0.3657,-118.3971886857049
-0.3666999999999999,-119.35919236961315
-0.3677,-120.25046048852812
-0.3686999999999999,-121.38222952842017
-0.36970000000000003,-122.49985145531353
-0.3706999999999999,-123.40526668722715
-0.37170000000000003,-124.42385882312999
-0.3726999999999999,-125.54148075002335
-0.37370000000000003,-126.43274886893832
-0.3746999999999999,-127.4937823438371
-0.37570000000000003,-128.79531673971292
-0.3766999999999999,-129.884644440609
-0.37770000000000004,-130.84664812451723
-0.3786999999999999,-131.99256427740792
-0.37970000000000004,-133.1950688822932
-0.3806999999999999,-134.22780813119468
-0.38170000000000004,-135.387871397084
-0.38269999999999993,-136.5903760019693
-0.38370000000000004,-137.6372623638694
-0.38469999999999993,-138.6982958387682
-0.38570000000000004,-139.9573888956481
-0.38669999999999993,-139.43394571469804
-0.38570000000000004,-137.00064227893017
-0.38469999999999993,-135.03419357211774
-0.38370000000000004,-133.18092176929454
-0.38269999999999993,-131.28520862747538
-0.38170000000000004,-129.601702180636
-0.3806999999999999,-128.11625531577772
-0.37970000000000004,-126.47519020793426
-0.3786999999999999,-124.91900777808273
-0.37770000000000004,-123.56088493021231
-0.3766999999999999,-122.01884961335942
-0.37570000000000003,-120.43437295751058
-0.3746999999999999,-119.04795588364286
-0.37370000000000003,-117.73227437476834
-0.3726999999999999,-116.28926884890602
-0.37170000000000003,-114.98773445303017
-0.3706999999999999,-113.77108273514627
-0.36970000000000003,-112.29978298328662
-0.3686999999999999,-110.82848323142699
-0.3677,-109.66841996553765
-0.3666999999999999,-108.40932690865776
-0.3657,-107.07949828678463
-0.3646999999999999,-105.91943502089529
-0.3637,-104.68863619001272
-0.3626999999999999,-103.28807200314633
-0.3617,-102.0148318332678
-0.36070000000000013,-100.84062145437981
-0.3597,-99.48249860650938
-0.35870000000000013,-98.12437575863895
-0.3577,-96.93601826675231
-0.35670000000000013,-95.73351366186702
-0.3557,-94.4319792659912
-0.3547000000000001,-93.32850445209648
-0.3537,-92.14014696020983
-0.3527000000000001,-90.7820241123394
-0.3517,-89.60781373345144
-0.3507000000000001,-88.5609273715513
-0.3497,-87.33012854066871
-0.3487000000000001,-86.11347682278479
-0.3477,-85.01000200889004
-0.3467000000000001,-83.8216445170034
-0.3457,-82.57669857312219
-0.3447000000000001,-81.52981221122207
-0.3437,-80.46877873632329
-0.3427000000000001,-79.20968567944341
-0.3417,-78.10621086554868
-0.3407000000000001,-77.11591295564315
-0.3397,-75.94170257675518
-0.3387000000000001,-74.79578642386448
-0.3377,-73.79134140096032
-0.3367000000000001,-72.65957236106827
-0.3357,-71.45706775618301
-0.3347000000000001,-70.45262273327883
-0.3337,-69.4906190493706
-0.3327000000000001,-68.38714423547587
-0.3317,-67.36855209957304
-0.3307000000000001,-66.44898975466076
-0.3297,-65.31722071476874
-0.3287000000000001,-64.213745900874
-0.3277,-63.29418355596174
-0.3267000000000001,-62.24729719406162
-0.3257,-61.12967526716824
-0.3247000000000001,-60.19596580925731
-0.3237,-59.26225635134639
-0.3227000000000001,-58.15878153745166
-0.3217,-57.14018940154883
-0.3207000000000001,-56.20647994363791
-0.3197,-55.10300512974318
-0.3187000000000001,-54.0419716548444
-0.3177,-53.20729198792403
-0.3167000000000001,-52.23114119101716
-0.3157,-51.17010771611838
-0.3147000000000001,-50.30713382320071
-0.3137,-49.387571478288436
-0.3127000000000001,-48.35483222938696
-0.3117,-47.46356411047198
-0.3107000000000001,-46.65717866954891
-0.3097,-45.63858653364609
-0.3087000000000001,-44.619994397743255
-0.3077,-43.81360895682018
-0.3067000000000001,-42.90819372490656
-0.30569999999999997,-41.90374870200238
-0.3047000000000001,-41.083216148080666
-0.30369999999999997,-40.234389368161644
-0.3027000000000001,-39.21579723225882
-0.30169999999999997,-38.35282333934114
-0.3007000000000001,-37.617173463411326
-0.29969999999999997,-36.669316892501755
-0.2987000000000001,-35.74975454758948
-0.29769999999999996,-34.98581044566235
-0.2967000000000001,-34.13698366574334
-0.29569999999999996,-33.203274207832415
-0.2947000000000001,-32.4676243319026
-0.29369999999999996,-31.731974455972775
-0.29270000000000007,-30.79826499806185
-0.29169999999999996,-29.977732444140123
-0.29070000000000007,-29.284523907206257
-0.28969999999999996,-28.407402901289935
-0.28870000000000007,-27.558576121370916
-0.28769999999999996,-26.89366181043435
-0.28670000000000007,-26.101423482509926
-0.28569999999999995,-25.210155363594954
-0.28470000000000006,-24.516946826661083
-0.28369999999999995,-23.823738289727217
-0.28270000000000006,-22.946617283810895
-0.28169999999999995,-22.196820294882425
-0.28070000000000006,-21.560200209943158
-0.27969999999999995,-20.73966765602144
-0.27870000000000006,-19.947429328097016
-0.27769999999999995,-19.3249563561564
-0.27670000000000006,-18.589306480226583
-0.27569999999999995,-17.75462681330621
-0.27470000000000006,-17.146300954364243
-0.27369999999999994,-16.52382798242363
-0.27270000000000005,-15.717442541500558
-0.27169999999999994,-15.03838111756534
-0.27070000000000005,-14.458349484620674
-0.26969999999999994,-13.709967206992069
-0.26870000000000005,-12.987049732761037
-0.26769999999999994,-12.436727037113537
