Potential V vs RHE, Current mA cm-2
0.013299999999999867,-0.37022994717468005
0.012299999999999978,-1.502423400456669
0.011299999999999866,-2.3908620967719116
0.010299999999999976,-2.994943821814283
0.009299999999999864,-3.492922199366775
0.008299999999999974,-3.9767534639206183
0.007299999999999862,-4.310625330688767
0.006299999999999972,-4.531320293467712
0.00529999999999986,-4.802944863041799
0.0042999999999999705,-5.037786938819395
0.0032999999999998586,-5.141060863709543
0.0022999999999999687,-5.249993633799152
0.0012999999999998568,-5.3631705377883545
0.00029999999999996696,-5.354682269989163
-0.000700000000000145,-5.39570889768525
-0.0017000000000000348,-5.569718387568649
-0.0027000000000001467,-5.667333467259336
-0.0037000000000000366,-5.702701249755963
-0.0047000000000001485,-5.772022103449349
-0.005700000000000038,-5.77485152604908
-0.00670000000000015,-5.709774806255288
-0.00770000000000004,-5.7380690322525885
-0.008700000000000152,-5.830025266743816
-0.009700000000000042,-5.811634019845571
-0.010700000000000154,-5.807389885945976
-0.011700000000000044,-5.858319492741117
-0.012700000000000156,-5.828610555443951
-0.013700000000000045,-5.77768094864881
-0.014700000000000157,-5.851245936241792
-0.015700000000000047,-5.878125450939227
-0.01670000000000016,-5.8229517102444905
-0.01770000000000005,-5.847001802342197
-0.01870000000000016,-5.902175543036933
-0.01970000000000005,-5.861148915340847
-0.020700000000000163,-5.83143997804368
-0.021700000000000053,-5.906419676936528
-0.022700000000000164,-5.9078343882363935
-0.023700000000000054,-5.8427576684426015
-0.024700000000000166,-5.882369584838822
-0.025700000000000056,-5.897931409137338
-0.026700000000000168,-5.805975174646111
-0.027700000000000058,-5.793242772947325
-0.02870000000000017,-5.866807760540307
-0.02970000000000006,-5.872466605739767
-0.03070000000000017,-5.896516697837473
-0.03170000000000006,-5.961593417631265
-0.03270000000000017,-5.905004965636663
-0.03370000000000006,-5.79465748424719
-0.034700000000000175,-5.828610555443951
-0.035700000000000065,-5.885199007438552
-0.03670000000000018,-5.8356841119432765
-0.03770000000000007,-5.851245936241792
-0.03870000000000018,-5.917737367335448
-0.03970000000000007,-5.869637183140037
-0.04070000000000018,-5.847001802342197
-0.04170000000000007,-5.888028430038283
-0.04270000000000018,-5.848416513642062
-0.04370000000000007,-5.79465748424719
-0.044700000000000184,-5.844172379742466
-0.045700000000000074,-5.872466605739767
-0.046700000000000186,-5.814463442445301
-0.047700000000000076,-5.820122287644761
-0.04870000000000019,-5.872466605739767
-0.04970000000000008,-5.820122287644761
-0.05070000000000019,-5.776266237348945
-0.05170000000000008,-5.852660647541658
-0.05270000000000019,-5.847001802342197
-0.05370000000000008,-5.772022103449349
-0.05470000000000019,-5.787583927747865
-0.05570000000000008,-5.807389885945976
-0.056700000000000195,-5.757874990450699
-0.057700000000000085,-5.776266237348945
-0.058700000000000196,-5.834269400643411
-0.059700000000000086,-5.801731040746516
-0.0607000000000002,-5.769192680849619
-0.06170000000000009,-5.827195844144086
-0.0627000000000002,-5.817292865045031
-0.06370000000000009,-5.762119124350295
-0.0647000000000002,-5.804560463346245
-0.06570000000000009,-5.838513534543006
-0.0667000000000002,-5.7706073921494845
-0.0677000000000001,-5.7960721955470555
-0.0687000000000002,-5.854075358841522
-0.0697000000000001,-5.7960721955470555
-0.07070000000000021,-5.764948546950024
-0.0717000000000001,-5.827195844144086
-0.07270000000000021,-5.832854689343546
-0.0737000000000001,-5.784754505148135
-0.07470000000000021,-5.811634019845571
-0.0757000000000001,-5.83143997804368
-0.07670000000000021,-5.75504556785097
-0.0777000000000001,-5.766363258249889
-0.07870000000000021,-5.8427576684426015
-0.0797000000000001,-5.8102193085457055
-0.08070000000000022,-5.776266237348945
-0.0817000000000001,-5.8229517102444905
-0.08270000000000022,-5.804560463346245
-0.08370000000000011,-5.760704413050429
-0.08470000000000022,-5.8102193085457055
-0.08570000000000011,-5.82578113284422
-0.08670000000000022,-5.756460279150835
-0.08770000000000011,-5.759289701750564
-0.08870000000000022,-5.80031632944665
-0.08970000000000011,-5.757874990450699
-0.09070000000000022,-5.745142588751914
-0.09170000000000011,-5.82578113284422
-0.09270000000000023,-5.820122287644761
-0.09370000000000012,-5.766363258249889
-0.09470000000000023,-5.811634019845571
-0.09570000000000012,-5.814463442445301
-0.09670000000000023,-5.746557300051779
-0.09770000000000012,-5.772022103449349
-0.09870000000000023,-5.844172379742466
-0.09970000000000012,-5.815878153745166
-0.10070000000000023,-5.791828061647459
-0.10170000000000012,-5.839928245842872
-0.10270000000000024,-5.815878153745166
-0.10370000000000013,-5.746557300051779
-0.10470000000000024,-5.805975174646111
-0.10570000000000013,-5.858319492741117
-0.10670000000000024,-5.80314575204638
-0.10770000000000013,-5.793242772947325
-0.10870000000000024,-5.8229517102444905
-0.10970000000000013,-5.767777969549755
-0.11070000000000024,-5.750801433951374
-0.11170000000000013,-5.793242772947325
-0.11270000000000002,-5.763533835650159
-0.11370000000000013,-5.735239609652858
-0.11470000000000002,-5.821536998944626
-0.11570000000000014,-5.869637183140037
-0.11670000000000003,-5.790413350347595
-0.11770000000000014,-5.798901618146785
-0.11870000000000003,-5.866807760540307
-0.11970000000000014,-5.832854689343546
-0.12070000000000003,-5.79465748424719
-0.12170000000000014,-5.844172379742466
-0.12270000000000003,-5.83143997804368
-0.12370000000000014,-5.808804597245841
-0.12470000000000003,-5.859734204040981
-0.12570000000000014,-5.871051894439902
-0.12670000000000003,-5.805975174646111
-0.12770000000000015,-5.807389885945976
-0.12870000000000004,-5.865393049240442
-0.12970000000000015,-5.838513534543006
-0.13070000000000004,-5.815878153745166
-0.13170000000000015,-5.889443141338147
-0.13270000000000004,-5.882369584838822
-0.13370000000000015,-5.818707576344896
-0.13470000000000004,-5.879540162239093
-0.13570000000000015,-5.913493233435854
-0.13670000000000004,-5.885199007438552
-0.13770000000000016,-5.909249099536258
-0.13870000000000005,-5.94320217073302
-0.13970000000000016,-5.882369584838822
-0.14070000000000005,-5.849831224941926
-0.14170000000000016,-5.923396212534908
-0.14270000000000005,-5.919152078635313
-0.14370000000000016,-5.839928245842872
-0.14470000000000005,-5.882369584838822
-0.14570000000000016,-5.913493233435854
-0.14670000000000005,-5.845587091042332
-0.14770000000000016,-5.858319492741117
-0.14870000000000005,-5.921981501235043
-0.14970000000000017,-5.900760831737068
-0.15070000000000006,-5.883784296138688
-0.15170000000000017,-5.937543325533559
-0.15270000000000006,-5.9347139029338285
-0.15370000000000017,-5.896516697837473
-0.15470000000000006,-5.938958036833425
-0.15570000000000017,-5.981399375829374
-0.15670000000000006,-5.914907944735719
-0.15770000000000017,-5.923396212534908
-0.15870000000000006,-5.99696120012789
-0.15970000000000018,-5.944616882032884
-0.16070000000000007,-5.923396212534908
-0.16170000000000018,-6.006864179226946
-0.16270000000000007,-6.016767158326001
-0.16370000000000018,-5.975740530629915
-0.16470000000000007,-6.043646673023436
-0.16570000000000018,-6.073355610320603
-0.16670000000000007,-6.01393773572627
-0.16770000000000018,-6.028084848724921
-0.16870000000000007,-6.129944062315205
-0.16970000000000018,-6.141261752714124
-0.17070000000000007,-6.1186263719162834
-0.17170000000000019,-6.155408865712774
-0.17270000000000008,-6.103064547617769
-0.1737000000000002,-6.033743693924381
-0.17470000000000008,-6.0790144555200625
-0.1757000000000002,-6.121455794516013
-0.17670000000000008,-6.074770321620467
-0.1777000000000002,-6.107308681517363
-0.17870000000000008,-6.172385401311155
-0.1797000000000002,-6.120041083216149
-0.18070000000000008,-6.084673300719523
-0.1817000000000002,-6.1511647318131795
-0.18270000000000008,-6.186532514309805
-0.1837000000000002,-6.161067710912235
-0.1847000000000001,-6.20209433860832
-0.1857000000000002,-6.186532514309805
-0.1867000000000001,-6.088917434619118
-0.1877000000000002,-6.120041083216149
-0.1887000000000001,-6.2233150081062965
-0.1897000000000002,-6.231803275905486
-0.1907000000000001,-6.245950388904137
-0.1917000000000001,-6.316685953897389
-0.19269999999999998,-6.306782974798334
-0.1937000000000001,-6.250194522803732
-0.19469999999999998,-6.301124129598874
-0.1957000000000001,-6.330833066896039
-0.19669999999999999,-6.279903460100898
-0.1977000000000001,-6.32517422169658
-0.1987,-6.428448146586726
-0.1997000000000001,-6.397324497989696
-0.2007,-6.404398054489021
-0.2017000000000001,-6.516160247178359
-0.2027,-6.55577216357458
-0.2037000000000001,-6.537380916676335
-0.2047,-6.593969368670936
-0.2057000000000001,-6.5840663895718805
-0.2067,-6.475133619482273
-0.2077000000000001,-6.482207175981599
-0.2087,-6.606701770369722
-0.2097000000000001,-6.647728398065807
-0.2107,-6.673193201463377
-0.2117000000000001,-6.729781653457979
-0.2127,-6.697243293561083
-0.2137000000000001,-6.637825418966753
-0.2147,-6.711390406559734
-0.2157000000000001,-6.807590774950556
-0.2167,-6.800517218451231
-0.21770000000000012,-6.858520381745699
-0.2187,-6.936329503238276
-0.21970000000000012,-6.9052058546412445
-0.2207,-6.899547009441784
-0.22170000000000012,-6.970282574435036
-0.2227,-6.984429687433686
-0.22370000000000012,-6.9646237292355755
-0.2247,-7.063653520226129
-0.22570000000000012,-7.132974373919516
-0.2267,-7.107509570521944
-0.22770000000000012,-7.161268599916816
-0.22870000000000001,-7.260298390907368
-0.22970000000000013,-7.253224834408043
-0.23070000000000002,-7.254639545707908
-0.23170000000000013,-7.342351646299541
-0.23270000000000002,-7.380548851395897
-0.23370000000000013,-7.404598943493602
-0.23470000000000002,-7.516361136182939
-0.23570000000000013,-7.595584968975381
-0.23670000000000002,-7.580023144676867
-0.2376999999999999,-7.6408557305710625
-0.23870000000000002,-7.744129655461211
-0.2396999999999999,-7.74130023286148
-0.24070000000000003,-7.775253304058242
-0.24169999999999991,-7.918139145344611
-0.24270000000000003,-7.980386442538672
-0.24369999999999992,-7.993118844237457
-0.24470000000000003,-8.110539882126256
-0.24569999999999992,-8.192593137518429
-0.24670000000000003,-8.199666694017752
-0.24769999999999992,-8.26898754771114
-0.24870000000000003,-8.393482142099263
-0.24969999999999992,-8.438752903694944
-0.25070000000000003,-8.501000200889004
-0.2516999999999999,-8.658033155174026
-0.25270000000000004,-8.701889205469842
-0.2536999999999999,-8.690571515070921
-0.25470000000000004,-8.799504285160529
-0.2556999999999999,-8.901363498750811
-0.25670000000000004,-8.940975415147031
-0.25769999999999993,-9.06688472083502
-0.25870000000000004,-9.218258829920579
-0.25969999999999993,-9.25504132371707
-0.26070000000000004,-9.318703332210998
-0.26169999999999993,-9.494127533394261
-0.26270000000000004,-9.61154857128306
-0.26369999999999993,-9.682284136276312
-0.26470000000000005,-9.823755266262815
-0.26569999999999994,-9.98503235444743
-0.26670000000000005,-10.08689156803771
-0.26769999999999994,-10.259486346621246
-0.26870000000000005,-10.403786899207478
-0.26969999999999994,-10.416519300906264
-0.27070000000000005,-10.450472372103025
-0.27169999999999994,-10.60043176988872
-0.27270000000000005,-10.753220590274143
-0.27369999999999994,-10.930059502757274
-0.27470000000000006,-11.177633980233654
-0.27569999999999995,-11.296469729422318
-0.27670000000000006,-11.306372708521375
-0.27769999999999995,-11.40115836561233
-0.27870000000000006,-11.703906583783448
-0.27969999999999995,-11.952895772559694
-0.28070000000000006,-12.080219789547549
-0.28169999999999995,-12.104269881645255
-0.28270000000000006,-12.066072676548897
-0.28369999999999995,-12.129734685042823
-0.28470000000000006,-12.480583087409354
-0.28569999999999995,-12.86114042707305
-0.28670000000000007,-13.07193241075294
-0.28769999999999996,-13.223306519838497
-0.28870000000000007,-13.366192361124867
-0.28969999999999996,-13.496345800712449
-0.29070000000000007,-13.742505566888967
-0.29169999999999996,-14.07779214495698
-0.29270000000000007,-14.274437015638219
-0.29369999999999996,-14.401761032626075
-0.2947000000000001,-14.65640906660178
-0.29569999999999996,-14.868615761581536
-0.2967000000000001,-14.953498439573437
-0.29769999999999996,-15.094969569559943
-0.2987000000000001,-15.3920589425316
-0.29969999999999997,-15.660854089505953
-0.3007000000000001,-15.929649236480316
-0.30169999999999997,-16.24088572245062
-0.3027000000000001,-16.438945304431726
-0.30369999999999997,-16.56626932141958
-0.3047000000000001,-16.863358694391238
-0.30569999999999997,-17.188742293360193
-0.3067000000000001,-17.48583166633185
-0.3077,-17.825362378299463
-0.3087000000000001,-18.10830463827247
-0.3097,-18.348805559249524
-0.3107000000000001,-18.660042045219836
-0.3117,-19.084455435179343
-0.3127000000000001,-19.4381332601456
-0.3137,-19.678634181122664
-0.3147000000000001,-20.00401778009162
-0.3157,-20.272812927065978
-0.3167000000000001,-20.456725396048434
-0.3177,-20.76796188201874
-0.3187000000000001,-21.16408104598095
-0.3197,-21.461170418952605
-0.3207000000000001,-21.729965565926964
-0.3217,-22.111937616890522
-0.3227000000000001,-22.42317410286083
-0.3237,-22.734410588831135
-0.3247000000000001,-23.2012653177866
-0.3257,-23.653972933743415
-0.3267000000000001,-24.035944984706973
-0.3277,-24.37547569667458
-0.3287000000000001,-24.71500640864219
-0.3297,-25.054537120609798
-0.3307000000000001,-25.37992071957876
-0.3317,-25.91751101352747
-0.3327000000000001,-26.497542646472137
-0.3337,-27.035132940420848
-0.3347000000000001,-27.572723234369565
-0.3357,-27.912253946337174
-0.3367000000000001,-28.06787218932233
-0.3377,-28.435697127287238
-0.3387000000000001,-28.987434534234602
-0.3397,-29.468436376188716
-0.3407000000000001,-29.836261314153624
-0.3417,-30.161644913122586
-0.3427000000000001,-30.444587173095588
-0.3437,-30.925589015049702
-0.3447000000000001,-31.64709177798087
-0.3457,-32.21297629792688
-0.3467000000000001,-32.49591855789989
-0.3477,-32.90618483486075
-0.3487000000000001,-33.55695203279867
-0.3497,-34.10868943974604
-0.3507000000000001,-34.632132620696105
-0.3517,-35.198017140642115
-0.3527000000000001,-35.679018982596226
-0.3537,-36.17416793754898
-0.3547000000000001,-36.725905344496354
-0.3557,-37.249348525446415
-0.35670000000000013,-37.78693881939513
-0.3577,-38.39526467833709
-0.35870000000000013,-39.00359053727906
-0.3597,-39.41385681423992
-0.36070000000000013,-39.80997597820213
-0.3617,-40.163653803168394
-0.3626999999999999,-40.545625854131956
-0.3637,-41.210540165068515
-0.3646999999999999,-42.158396735978094
-0.3657,-42.96478217690117
-0.3666999999999999,-43.41748979285798
-0.3677,-43.82775606981884
-0.3686999999999999,-44.39364058976485
-0.36970000000000003,-45.01611356170547
-0.3706999999999999,-45.681027872642034
-0.37170000000000003,-46.36008929657725
-0.3726999999999999,-46.99670938151652
-0.37370000000000003,-47.506005449467935
-0.3746999999999999,-47.95871306542474
-0.37570000000000003,-48.4255677943802
-0.3766999999999999,-48.96315808832892
-0.37770000000000004,-49.68466085126009
-0.3786999999999999,-50.448604953187214
-0.37970000000000004,-51.014489473133224
-0.3806999999999999,-51.509638428085985
-0.38170000000000004,-52.16040562602391
-0.38269999999999993,-52.853614162957776
-0.38370000000000004,-53.546822699891635
-0.38469999999999993,-54.25417834982416
-0.38570000000000004,-54.989828225753975
-0.38669999999999993,-55.612301197694585
-0.38770000000000004,-56.23477416963521
-0.38869999999999993,-56.800658689581226
-0.38970000000000005,-57.36654320952724
-0.39069999999999994,-58.05975174646111
-0.39170000000000005,-58.951019865376075
-0.39269999999999994,-59.55934572431805
-0.39370000000000005,-60.06864179226946
-0.39469999999999994,-60.74770321620468
-0.39570000000000005,-61.412617527141244
-0.39669999999999994,-61.97850204708726
-0.39770000000000005,-62.77074037501168
-0.39869999999999994,-63.732744058919906
-0.39970000000000006,-64.39765836985646
-0.40069999999999995,-64.73718908182407
-0.40170000000000006,-65.3030736017701
-0.40269999999999995,-66.05287059069857
-0.40370000000000006,-66.9299915966149
-0.40469999999999995,-67.79296548953256
-0.40570000000000006,-68.67008649544888
-0.40669999999999995,-69.44817771037465
-0.40770000000000006,-70.01406223032066
-0.40869999999999995,-70.55165252426939
-0.40970000000000006,-71.30144951319785
-0.41069999999999995,-72.13612918011822
-0.41170000000000007,-72.65957236106827
-0.41269999999999996,-72.78689637805614
-0.41370000000000007,-73.69231160996976
-0.41469999999999996,-74.69675663287394
-0.41570000000000007,-76.30952751472009
-0.41669999999999996,-78.02132818755678
-0.41770000000000007,-78.50233002951089
-0.41869999999999996,-78.48818291651223
-0.4197000000000001,-78.31841756052843
-0.42069999999999996,-78.06376952655272
-0.4217000000000001,-78.91259630647174
-0.42269999999999996,-80.38389605833139
-0.4237000000000001,-81.72787179320316
-0.42469999999999997,-82.78890526810196
-0.4257000000000001,-83.43967246603985
-0.42669999999999997,-83.59529070902502
-0.4277000000000001,-83.77920317800748
-0.42869999999999997,-84.57144150593189
-0.4297000000000001,-85.85882878880908
-0.43069999999999997,-86.94815648970517
-0.4317000000000001,-87.76868904362688
-0.4327,-88.22139665958369
-0.4337000000000001,-88.07992552959718
-0.4347,-88.19310243358639
-0.4357000000000001,-89.38145992547301
-0.4367,-91.10740771130837
-0.4377000000000001,-92.33820654219093
-0.4387,-92.76261993215046
-0.4397000000000001,-92.84750261014237
-0.4407,-93.58315248607218
-0.4417000000000001,-94.58759750897636
-0.4427,-95.43642428889537
-0.4437000000000001,-96.20036839082249
-0.4447,-96.95016537975096
-0.4457000000000001,-97.6575210296835
-0.4467,-98.69026027858496
-0.4477000000000001,-100.04838312645539
-0.4487,-101.26503484433933
-0.4497000000000001,-102.0148318332678
-0.4507,-102.34021543223676
-0.4517000000000001,-102.77877593519491
-0.4527,-103.00512974317333
-0.4537000000000001,-103.62760271511394
-0.4547,-105.45258029193982
-0.4557000000000001,-106.90973293080083
-0.4567,-107.13608673877923
-0.4577000000000001,-106.64093778382647
-0.4587,-106.85314447880621
-0.4597000000000001,-107.65952991972928
-0.4607,-109.04594699359701
-0.4617000000000001,-110.14942180749176
-0.4627,-110.74360055343507
-0.4637000000000001,-110.98410147441213
-0.4647,-111.8470753673298
-0.4657000000000001,-112.92225595522721
-0.4667,-113.26178666719483
-0.4677000000000001,-113.92670097813141
-0.4687,-114.64820374106257
-0.4697000000000001,-115.5536189729762
-0.4707,-116.47318131788847
-0.4717000000000001,-117.33615521080614
-0.4727,-118.15668776472786
-0.4737000000000001,-118.51036558969413
-0.4747,-119.21772123962666
-0.4757000000000001,-120.15143069753758
-0.4767,-120.87293346046872
-0.4777000000000001,-121.75005446638507
-0.4787,-122.55643990730813
-0.4797000000000001,-123.70235606019881
-0.4807,-124.32482903213943
-0.48170000000000013,-124.70680108310299
-0.4827,-125.30097982904631
-0.48370000000000013,-126.30542485195048
-0.4847,-128.10210820277908
-0.48570000000000013,-128.89434653070347
-0.4867,-127.93234284679528
-0.48570000000000013,-125.93759991398557
-0.4847,-124.62191840511109
-0.48370000000000013,-123.49014936521905
-0.4827,-122.45741011631759
-0.48170000000000013,-121.58028911040124
-0.4807,-120.51925563550247
-0.4797000000000001,-119.04795588364286
-0.4787,-117.94448106974811
-0.4777000000000001,-117.3785965498021
-0.4767,-116.40244575289522
-0.4757000000000001,-116.00632658893302
-0.4747,-115.04432290502479
-0.4737000000000001,-113.84181830013951
-0.4727,-112.83737327723534
-0.4717000000000001,-112.11587051430415
-0.4707,-111.06898415240403
-0.4697000000000001,-110.06453912949985
-0.4687,-109.30059502757274
-0.4677000000000001,-108.38103268266046
-0.4667,-107.06535117378597
-0.4657000000000001,-106.0326119248845
-0.4647,-105.29696204895468
-0.4637000000000001,-104.5471650600262
-0.4627,-103.33051334214227
