Potential V vs RHE, Current mA cm-2
0.013299999999999867,-0.30755823659065895
0.012299999999999978,-1.5293029151541047
0.011299999999999866,-2.4884771764625997
0.010299999999999976,-3.273641947887695
0.009299999999999864,-3.927238568425342
0.008299999999999974,-4.538393849967037
0.007299999999999862,-5.105693081212917
0.006299999999999972,-5.5414241615713475
0.00529999999999986,-5.890857852638012
0.0042999999999999705,-6.152579443113044
0.0032999999999998586,-6.414301033588076
0.0022999999999999687,-6.719878674358924
0.0012999999999998568,-6.93774421453814
0.00029999999999996696,-7.155609754717355
-0.000700000000000145,-7.329619244600755
-0.0017000000000000348,-7.50504344578402
-0.0027000000000001467,-7.679052935667419
-0.0037000000000000366,-7.7653503249591855
-0.0047000000000001485,-7.809206375255003
-0.005700000000000038,-7.853062425550818
-0.00670000000000015,-7.940774526142452
-0.00770000000000004,-8.11478401602585
-0.008700000000000152,-8.246352166913299
-0.009700000000000042,-8.288793505909249
-0.010700000000000154,-8.288793505909249
-0.011700000000000044,-8.288793505909249
-0.012700000000000156,-8.332649556205066
-0.013700000000000045,-8.332649556205066
-0.014700000000000157,-8.332649556205066
-0.015700000000000047,-8.376505606500881
-0.01670000000000016,-8.464217707092514
-0.01770000000000005,-8.55051509638428
-0.01870000000000016,-8.594371146680096
-0.01970000000000005,-8.638227196975913
-0.020700000000000163,-8.638227196975913
-0.021700000000000053,-8.725939297567548
-0.022700000000000164,-8.812236686859313
-0.023700000000000054,-8.85609273715513
-0.024700000000000166,-8.769795347863363
-0.025700000000000056,-8.725939297567548
-0.026700000000000168,-8.68208324727173
-0.027700000000000058,-8.68208324727173
-0.02870000000000017,-8.638227196975913
-0.02970000000000006,-8.55051509638428
-0.03070000000000017,-8.55051509638428
-0.03170000000000006,-8.594371146680096
-0.03270000000000017,-8.638227196975913
-0.03370000000000006,-8.638227196975913
-0.034700000000000175,-8.594371146680096
-0.035700000000000065,-8.55051509638428
-0.03670000000000018,-8.508073757388331
-0.03770000000000007,-8.508073757388331
-0.03870000000000018,-8.508073757388331
-0.03970000000000007,-8.464217707092514
-0.04070000000000018,-8.4203616567967
-0.04170000000000007,-8.464217707092514
-0.04270000000000018,-8.508073757388331
-0.04370000000000007,-8.508073757388331
-0.044700000000000184,-8.508073757388331
-0.045700000000000074,-8.508073757388331
-0.046700000000000186,-8.55051509638428
-0.047700000000000076,-8.594371146680096
-0.04870000000000019,-8.594371146680096
-0.04970000000000008,-8.55051509638428
-0.05070000000000019,-8.55051509638428
-0.05170000000000008,-8.55051509638428
-0.05270000000000019,-8.594371146680096
-0.05370000000000008,-8.594371146680096
-0.05470000000000019,-8.55051509638428
-0.05570000000000008,-8.508073757388331
-0.056700000000000195,-8.508073757388331
-0.057700000000000085,-8.55051509638428
-0.058700000000000196,-8.508073757388331
-0.059700000000000086,-8.464217707092514
-0.0607000000000002,-8.4203616567967
-0.06170000000000009,-8.464217707092514
-0.0627000000000002,-8.55051509638428
-0.06370000000000009,-8.55051509638428
-0.0647000000000002,-8.508073757388331
-0.06570000000000009,-8.4203616567967
-0.0667000000000002,-8.464217707092514
-0.0677000000000001,-8.464217707092514
-0.0687000000000002,-8.508073757388331
-0.0697000000000001,-8.508073757388331
-0.07070000000000021,-8.464217707092514
-0.0717000000000001,-8.508073757388331
-0.07270000000000021,-8.55051509638428
-0.0737000000000001,-8.508073757388331
-0.07470000000000021,-8.508073757388331
-0.0757000000000001,-8.508073757388331
-0.07670000000000021,-8.55051509638428
-0.0777000000000001,-8.638227196975913
-0.07870000000000021,-8.68208324727173
-0.0797000000000001,-8.638227196975913
-0.08070000000000022,-8.594371146680096
-0.0817000000000001,-8.594371146680096
-0.08270000000000022,-8.594371146680096
-0.08370000000000011,-8.55051509638428
-0.08470000000000022,-8.508073757388331
-0.08570000000000011,-8.464217707092514
-0.08670000000000022,-8.464217707092514
-0.08770000000000011,-8.508073757388331
-0.08870000000000022,-8.508073757388331
-0.08970000000000011,-8.508073757388331
-0.09070000000000022,-8.508073757388331
-0.09170000000000011,-8.508073757388331
-0.09270000000000023,-8.55051509638428
-0.09370000000000012,-8.55051509638428
-0.09470000000000023,-8.464217707092514
-0.09570000000000012,-8.376505606500881
-0.09670000000000023,-8.4203616567967
-0.09770000000000012,-8.464217707092514
-0.09870000000000023,-8.464217707092514
-0.09970000000000012,-8.4203616567967
-0.10070000000000023,-8.4203616567967
-0.10170000000000012,-8.464217707092514
-0.10270000000000024,-8.508073757388331
-0.10370000000000013,-8.508073757388331
-0.10470000000000024,-8.508073757388331
-0.10570000000000013,-8.464217707092514
-0.10670000000000024,-8.508073757388331
-0.10770000000000013,-8.55051509638428
-0.10870000000000024,-8.55051509638428
-0.10970000000000013,-8.508073757388331
-0.11070000000000024,-8.464217707092514
-0.11170000000000013,-8.464217707092514
-0.11270000000000002,-8.55051509638428
-0.11370000000000013,-8.55051509638428
-0.11470000000000002,-8.508073757388331
-0.11570000000000014,-8.55051509638428
-0.11670000000000003,-8.55051509638428
-0.11770000000000014,-8.594371146680096
-0.11870000000000003,-8.594371146680096
-0.11970000000000014,-8.55051509638428
-0.12070000000000003,-8.508073757388331
-0.12170000000000014,-8.55051509638428
-0.12270000000000003,-8.594371146680096
-0.12370000000000014,-8.594371146680096
-0.12470000000000003,-8.508073757388331
-0.12570000000000014,-8.464217707092514
-0.12670000000000003,-8.508073757388331
-0.12770000000000015,-8.508073757388331
-0.12870000000000004,-8.508073757388331
-0.12970000000000015,-8.508073757388331
-0.13070000000000004,-8.464217707092514
-0.13170000000000015,-8.508073757388331
-0.13270000000000004,-8.55051509638428
-0.13370000000000015,-8.594371146680096
-0.13470000000000004,-8.55051509638428
-0.13570000000000015,-8.508073757388331
-0.13670000000000004,-8.55051509638428
-0.13770000000000016,-8.638227196975913
-0.13870000000000005,-8.638227196975913
-0.13970000000000016,-8.638227196975913
-0.14070000000000005,-8.594371146680096
-0.14170000000000016,-8.594371146680096
-0.14270000000000005,-8.638227196975913
-0.14370000000000016,-8.638227196975913
-0.14470000000000005,-8.594371146680096
-0.14570000000000016,-8.55051509638428
-0.14670000000000005,-8.594371146680096
-0.14770000000000016,-8.68208324727173
-0.14870000000000005,-8.638227196975913
-0.14970000000000017,-8.638227196975913
-0.15070000000000006,-8.638227196975913
-0.15170000000000017,-8.68208324727173
-0.15270000000000006,-8.725939297567548
-0.15370000000000017,-8.769795347863363
-0.15470000000000006,-8.68208324727173
-0.15570000000000017,-8.68208324727173
-0.15670000000000006,-8.68208324727173
-0.15770000000000017,-8.725939297567548
-0.15870000000000006,-8.769795347863363
-0.15970000000000018,-8.725939297567548
-0.16070000000000007,-8.68208324727173
-0.16170000000000018,-8.68208324727173
-0.16270000000000007,-8.725939297567548
-0.16370000000000018,-8.769795347863363
-0.16470000000000007,-8.769795347863363
-0.16570000000000018,-8.725939297567548
-0.16670000000000007,-8.769795347863363
-0.16770000000000018,-8.812236686859313
-0.16870000000000007,-8.769795347863363
-0.16970000000000018,-8.769795347863363
-0.17070000000000007,-8.725939297567548
-0.17170000000000019,-8.769795347863363
-0.17270000000000008,-8.85609273715513
-0.1737000000000002,-8.899948787450944
-0.17470000000000008,-8.85609273715513
-0.1757000000000002,-8.85609273715513
-0.17670000000000008,-8.85609273715513
-0.1777000000000002,-8.899948787450944
-0.17870000000000008,-8.85609273715513
-0.1797000000000002,-8.812236686859313
-0.18070000000000008,-8.725939297567548
-0.1817000000000002,-8.812236686859313
-0.18270000000000008,-8.85609273715513
-0.1837000000000002,-8.85609273715513
-0.1847000000000001,-8.85609273715513
-0.1857000000000002,-8.85609273715513
-0.1867000000000001,-8.85609273715513
-0.1877000000000002,-8.899948787450944
-0.1887000000000001,-8.85609273715513
-0.1897000000000002,-8.85609273715513
-0.1907000000000001,-8.899948787450944
-0.1917000000000001,-8.943804837746763
-0.19269999999999998,-9.031516938338395
-0.1937000000000001,-9.073958277334345
-0.19469999999999998,-9.031516938338395
-0.1957000000000001,-9.031516938338395
-0.19669999999999999,-9.031516938338395
-0.1977000000000001,-9.11781432763016
-0.1987,-9.11781432763016
-0.1997000000000001,-9.11781432763016
-0.2007,-9.161670377925978
-0.2017000000000001,-9.205526428221793
-0.2027,-9.24938247851761
-0.2037000000000001,-9.205526428221793
-0.2047,-9.161670377925978
-0.2057000000000001,-9.161670377925978
-0.2067,-9.205526428221793
-0.2077000000000001,-9.293238528813426
-0.2087,-9.379535918105192
-0.2097000000000001,-9.423391968401008
-0.2107,-9.423391968401008
-0.2117000000000001,-9.511104068992642
-0.2127,-9.55496011928846
-0.2137000000000001,-9.511104068992642
-0.2147,-9.423391968401008
-0.2157000000000001,-9.379535918105192
-0.2167,-9.423391968401008
-0.21770000000000012,-9.511104068992642
-0.2187,-9.55496011928846
-0.21970000000000012,-9.55496011928846
-0.2207,-9.59740145828441
-0.22170000000000012,-9.641257508580225
-0.2227,-9.728969609171857
-0.22370000000000012,-9.728969609171857
-0.2247,-9.728969609171857
-0.22570000000000012,-9.728969609171857
-0.2267,-9.772825659467674
-0.22770000000000012,-9.902979099055257
-0.22870000000000001,-9.946835149351072
-0.22970000000000013,-9.946835149351072
-0.23070000000000002,-9.99069119964689
-0.23170000000000013,-10.034547249942705
-0.23270000000000002,-10.078403300238522
-0.23370000000000013,-10.078403300238522
-0.23470000000000002,-10.120844639234473
-0.23570000000000013,-10.120844639234473
-0.23670000000000002,-10.25241279012192
-0.2376999999999999,-10.340124890713554
-0.23870000000000002,-10.42642228000532
-0.2396999999999999,-10.470278330301136
-0.24070000000000003,-10.470278330301136
-0.24169999999999991,-10.514134380596953
-0.24270000000000003,-10.557990430892769
-0.24369999999999992,-10.601846481188586
-0.24470000000000003,-10.601846481188586
-0.24569999999999992,-10.688143870480351
-0.24670000000000003,-10.775855971071984
-0.24769999999999992,-10.906009410659568
-0.24870000000000003,-10.993721511251199
-0.24969999999999992,-11.037577561547016
-0.25070000000000003,-11.037577561547016
-0.2516999999999999,-11.1677310011346
-0.25270000000000004,-11.255443101726232
-0.2536999999999999,-11.299299152022046
-0.25470000000000004,-11.299299152022046
-0.2556999999999999,-11.299299152022046
-0.25670000000000004,-11.42945259160963
-0.25769999999999993,-11.56102074249708
-0.25870000000000004,-11.691174182084664
-0.25969999999999993,-11.82274233297211
-0.26070000000000004,-11.909039722263879
-0.26169999999999993,-12.040607873151327
-0.26270000000000004,-12.170761312738911
-0.26369999999999993,-12.258473413330542
-0.26470000000000005,-12.302329463626359
-0.26569999999999994,-12.302329463626359
-0.26670000000000005,-12.390041564217992
-0.26769999999999994,-12.432482903213943
-0.26870000000000005,-12.476338953509758
-0.26969999999999994,-12.56405105410139
-0.27070000000000005,-12.694204493688973
-0.27169999999999994,-12.913484745168056
-0.27270000000000005,-13.175206335643086
-0.27369999999999994,-13.30535977523067
-0.27470000000000006,-13.349215825526485
-0.27569999999999995,-13.3930718758223
-0.27670000000000006,-13.523225315409885
-0.27769999999999995,-13.698649516593148
-0.27870000000000006,-13.872659006476551
-0.27969999999999995,-14.002812446064135
-0.28070000000000006,-14.13438059695158
-0.28169999999999995,-14.345172580631472
-0.28270000000000006,-14.57152638860988
-0.28369999999999995,-14.741291744593681
-0.28470000000000006,-14.826174422585586
-0.28569999999999995,-14.967645552572087
-0.28670000000000007,-15.137410908555893
-0.28769999999999996,-15.264734925543747
-0.28870000000000007,-15.448647394526201
-0.28969999999999996,-15.575971411514052
-0.29070000000000007,-15.74573676749786
-0.29169999999999996,-16.014531914472215
-0.29270000000000007,-16.269179948447924
-0.29369999999999996,-16.53797509542228
-0.2947000000000001,-16.750181790402035
-0.29569999999999996,-16.877505807389888
-0.2967000000000001,-17.018976937376394
-0.29769999999999996,-17.061418276372343
-0.2987000000000001,-17.103859615368293
-0.29969999999999997,-17.188742293360193
-0.3007000000000001,-17.40094898833995
-0.30169999999999997,-17.75462681330621
-0.3027000000000001,-18.23562865526032
-0.30369999999999997,-18.589306480226583
-0.3047000000000001,-18.843954514202288
-0.30569999999999997,-19.01371987018609
-0.3067000000000001,-19.197632339168546
-0.3077,-19.409839034148305
-0.3087000000000001,-19.579604390132108
-0.3097,-19.805958198110513
-0.3107000000000001,-20.06060623208622
-0.3117,-20.371842718056527
-0.3127000000000001,-20.72552054302279
-0.3137,-21.022609915994444
-0.3147000000000001,-21.248963723972853
-0.3157,-21.503611757948562
-0.3167000000000001,-21.814848243918867
-0.3177,-22.111937616890522
-0.3187000000000001,-22.38073276386488
-0.3197,-22.592939458844636
-0.3207000000000001,-22.861734605818995
-0.3217,-23.2012653177866
-0.3227000000000001,-23.639825820744765
-0.3237,-23.993503645711023
-0.3247000000000001,-24.20571034069078
-0.3257,-24.432064148669184
-0.3267000000000001,-24.771594860636792
-0.3277,-25.252596702590903
-0.3287000000000001,-25.691157205549064
-0.3297,-26.087276369511276
-0.3307000000000001,-26.34192440348698
-0.3317,-26.568278211465387
-0.3327000000000001,-26.780484906445146
-0.3337,-26.9643973754276
-0.3347000000000001,-27.34636942639116
-0.3357,-27.954695285333123
-0.3367000000000001,-28.662050935265643
-0.3377,-29.31281813320356
-0.3387000000000001,-29.793819975157668
-0.3397,-30.147497800123933
-0.3407000000000001,-30.359704495103685
-0.3417,-30.7558236590659
-0.3427000000000001,-31.49147353499572
-0.3437,-32.184682071929586
-0.3447000000000001,-32.66568391388369
-0.3457,-33.01936173884996
-0.3467000000000001,-33.330598224820264
-0.3477,-33.58524625879597
-0.3487000000000001,-33.89648274476628
-0.3497,-34.377484586720385
-0.3507000000000001,-35.07069312365426
-0.3517,-36.11757948555439
-0.3527000000000001,-36.89567070048016
-0.3537,-37.122024508458566
-0.3547000000000001,-37.037141830466666
-0.3557,-36.768346683492304
-0.35670000000000013,-36.768346683492304
-0.3577,-37.206907186450465
-0.35870000000000013,-37.687909028404576
-0.3597,-38.29623488734655
-0.36070000000000013,-39.08847321527096
-0.3617,-39.99388844718459
-0.3626999999999999,-40.743685436113054
-0.3637,-41.30956995605907
-0.3646999999999999,-41.70568912002128
-0.3657,-42.186690961975394
-0.3666999999999999,-42.752575481921404
-0.3677,-43.31846000186743
-0.3686999999999999,-43.92678586080939
-0.36970000000000003,-44.45022904175945
-0.3706999999999999,-44.97367222270952
-0.37170000000000003,-45.581998081651484
-0.3726999999999999,-46.19032394059345
-0.37370000000000003,-46.75620846053947
-0.3746999999999999,-47.32209298048547
-0.37570000000000003,-47.8879775004315
-0.3766999999999999,-48.51045047237211
-0.37770000000000004,-49.076334992318124
-0.3786999999999999,-49.59977817326819
-0.37970000000000004,-50.20810403221015
-0.3806999999999999,-50.81642989115212
-0.38170000000000004,-51.55207976708194
-0.38269999999999993,-52.2169940780185
-0.38370000000000004,-52.78287859796452
-0.38469999999999993,-53.348763117910536
-0.38570000000000004,-53.872206298860604
-0.38669999999999993,-54.39564947981066
-0.38770000000000004,-55.046416677748574
-0.38869999999999993,-55.65474253669055
-0.38970000000000005,-56.36209818662306
-0.39069999999999994,-57.14018940154883
-0.39170000000000005,-57.87583927747865
-0.39269999999999994,-58.583194927411164
-0.39370000000000005,-59.23396212534908
-0.39469999999999994,-59.842287984291055
-0.39570000000000005,-60.49305518222897
-0.39669999999999994,-61.11552815416958
-0.39770000000000005,-61.53994154412909
-0.39869999999999994,-61.936060708091304
-0.39970000000000006,-62.459503889041365
-0.40069999999999995,-63.02538840898739
-0.40170000000000006,-63.6761556069253
-0.40269999999999995,-64.42595259585376
-0.40370000000000006,-65.34551494076604
-0.40469999999999995,-66.25093017267966
-0.40570000000000006,-67.00072716160814
-0.40669999999999995,-67.7788183765339
-0.40770000000000006,-68.44373268747047
-0.40869999999999995,-68.96717586842054
-0.40970000000000006,-69.3491479193841
-0.41069999999999995,-69.78770842234226
-0.41170000000000007,-70.48091695927613
-0.41269999999999996,-71.31559662619651
-0.41370000000000007,-72.27760031010472
-0.41469999999999996,-73.2820453330089
-0.41570000000000007,-74.10257788693062
-0.41669999999999996,-74.97969889284694
-0.41770000000000007,-75.77193722077136
-0.41869999999999996,-76.42270441870929
-0.4197000000000001,-77.1583542946391
-0.42069999999999996,-77.76668015358106
-0.4217000000000001,-78.24768199553519
-0.42269999999999996,-78.77112517648524
-0.4237000000000001,-79.20968567944341
-0.42469999999999997,-79.73312886039348
-0.4257000000000001,-80.42633739732734
-0.42669999999999997,-81.43078242023151
-0.4277000000000001,-82.6615812511141
-0.42869999999999997,-83.79335029100612
-0.4297000000000001,-84.84023665290624
-0.43069999999999997,-85.57588652883607
-0.4317000000000001,-86.18421238777805
-0.4327,-86.7076555687281
-0.4337000000000001,-86.97645071570246
-0.4347,-87.41501121866061
-0.4357000000000001,-87.89601306061473
-0.4367,-88.54678025855264
-0.4377000000000001,-89.46634260346492
-0.4387,-90.32931649638259
-0.4397000000000001,-91.29132018029082
-0.4407,-92.16844118620713
-0.4417000000000001,-92.7767670451491
-0.4427,-93.42753424308701
-0.4437000000000001,-93.95097742403709
-0.4447,-94.4319792659912
-0.4457000000000001,-95.08274646392913
-0.4467,-95.91742613084948
-0.4477000000000001,-96.96431249274961
-0.4487,-97.92631617665783
-0.4497000000000001,-98.74684873057957
-0.4507,-99.62396973649588
-0.4517000000000001,-100.58597342040412
-0.4527,-101.59041844330828
-0.4537000000000001,-102.5524221272165
-0.4547,-103.33051334214227
-0.4557000000000001,-104.02372187907615
-0.4567,-104.90084288499246
-0.4577000000000001,-105.82040522990474
-0.4587,-106.59849644483052
-0.4597000000000001,-107.12193962578058
-0.4607,-107.68782414572658
-0.4617000000000001,-108.21126732667666
-0.4627,-108.77715184662266
-0.4637000000000001,-109.30059502757274
-0.4647,-109.8806266605174
-0.4657000000000001,-110.74360055343507
-0.4667,-111.74804557633925
-0.4677000000000001,-112.71004926024747
-0.4687,-113.53058181416918
-0.4697000000000001,-114.19549612510575
-0.4707,-114.84626332304367
-0.4717000000000001,-115.5819131989735
-0.4727,-116.41659286589388
-0.4737000000000001,-117.29371387181018
-0.4747,-117.71812726176971
-0.4757000000000001,-118.1991291037238
-0.4767,-118.86404341466037
-0.4777000000000001,-119.5996932905902
-0.4787,-120.39193161851462
-0.4797000000000001,-121.21246417243634
-0.4807,-121.77834869238235
-0.48170000000000013,-122.21690919534053
-0.4827,-122.95255907127036
-0.48370000000000013,-123.87212141618261
-0.4847,-124.87656643908679
-0.48570000000000013,-126.40445464294103
-0.4867,-127.012780501883
-0.48570000000000013,-125.83857012299501
-0.4847,-124.70680108310299
-0.48370000000000013,-123.43356091322445
-0.4827,-122.00470250036076
-0.48170000000000013,-120.68902099148629
-0.4807,-119.38748659561045
-0.4797000000000001,-118.38304157270628
-0.4787,-117.50592056678994
-0.4777000000000001,-116.98247738583989
-0.4767,-116.54391688288172
-0.4757000000000001,-116.28926884890602
-0.4747,-115.4121478429897
-0.4737000000000001,-113.88425963913545
-0.4727,-112.01684072331359
-0.4717000000000001,-110.34748138947285
-0.4707,-109.08838833259297
-0.4697000000000001,-108.04150197069285
-0.4687,-107.26341075576708
-0.4677000000000001,-106.64093778382647
-0.4667,-106.15993594187235
-0.4657000000000001,-105.63649276092228
-0.4647,-105.02816690198033
-0.4637000000000001,-103.98128054008019
-0.4627,-102.63730480520842
-0.4617000000000001,-101.44894731332178
-0.4607,-100.40206095142165
