Apr. 3, 2025   01:24:24
Cyclic Voltammetry
File: c:/users/guazh/data/banditlqround7_x0exp518_r20/2025-03-28-exp1025\exp1025-2025-04-03t01_12_14-h2koh\exp1025_cv_sr_900mvs_efin_-1500mv.bin
Data Source:  Experiment
Instrument Model:  CHI760E
Header: CV ran at 900 mVs
Note: 

Init E (V) = -1
High E (V) = -1
Low E (V) = -1.5
Final E (V) = -1
Init P/N = N
Scan Rate (V/s) = 0.9
Segment = 3
Sample Interval (V) = 0.001
Quiet Time (sec) = 2
Sensitivity (A/V) = 0.01
Comp R (ohm) = 1.8

Results:

Channel 1:
Segment 1:

Segment 2:

Segment 3:

Potential/V, Current/A

-1.000, 2.790e-5
-1.001, 1.204e-4
-1.002, 2.036e-4
-1.003, 2.838e-4
-1.004, 3.578e-4
-1.005, 4.256e-4
-1.006, 4.904e-4
-1.007, 5.489e-4
-1.008, 6.075e-4
-1.009, 6.630e-4
-1.010, 7.124e-4
-1.011, 7.648e-4
-1.012, 8.110e-4
-1.013, 8.573e-4
-1.014, 9.004e-4
-1.015, 9.405e-4
-1.016, 9.775e-4
-1.017, 1.014e-3
-1.018, 1.048e-3
-1.019, 1.079e-3
-1.020, 1.110e-3
-1.021, 1.138e-3
-1.022, 1.162e-3
-1.023, 1.187e-3
-1.024, 1.209e-3
-1.025, 1.233e-3
-1.026, 1.255e-3
-1.027, 1.277e-3
-1.028, 1.298e-3
-1.029, 1.320e-3
-1.030, 1.338e-3
-1.031, 1.357e-3
-1.032, 1.375e-3
-1.033, 1.391e-3
-1.034, 1.403e-3
-1.035, 1.418e-3
-1.036, 1.431e-3
-1.037, 1.443e-3
-1.038, 1.455e-3
-1.039, 1.468e-3
-1.040, 1.483e-3
-1.041, 1.499e-3
-1.042, 1.511e-3
-1.043, 1.523e-3
-1.044, 1.532e-3
-1.045, 1.545e-3
-1.046, 1.554e-3
-1.047, 1.563e-3
-1.048, 1.569e-3
-1.049, 1.576e-3
-1.050, 1.582e-3
-1.051, 1.585e-3
-1.052, 1.588e-3
-1.053, 1.591e-3
-1.054, 1.594e-3
-1.055, 1.597e-3
-1.056, 1.603e-3
-1.057, 1.610e-3
-1.058, 1.613e-3
-1.059, 1.619e-3
-1.060, 1.625e-3
-1.061, 1.628e-3
-1.062, 1.634e-3
-1.063, 1.637e-3
-1.064, 1.640e-3
-1.065, 1.643e-3
-1.066, 1.647e-3
-1.067, 1.647e-3
-1.068, 1.650e-3
-1.069, 1.653e-3
-1.070, 1.656e-3
-1.071, 1.662e-3
-1.072, 1.665e-3
-1.073, 1.671e-3
-1.074, 1.674e-3
-1.075, 1.680e-3
-1.076, 1.687e-3
-1.077, 1.690e-3
-1.078, 1.693e-3
-1.079, 1.693e-3
-1.080, 1.696e-3
-1.081, 1.696e-3
-1.082, 1.696e-3
-1.083, 1.696e-3
-1.084, 1.693e-3
-1.085, 1.693e-3
-1.086, 1.690e-3
-1.087, 1.690e-3
-1.088, 1.687e-3
-1.089, 1.687e-3
-1.090, 1.684e-3
-1.091, 1.680e-3
-1.092, 1.680e-3
-1.093, 1.677e-3
-1.094, 1.677e-3
-1.095, 1.677e-3
-1.096, 1.677e-3
-1.097, 1.677e-3
-1.098, 1.677e-3
-1.099, 1.677e-3
-1.100, 1.680e-3
-1.101, 1.680e-3
-1.102, 1.684e-3
-1.103, 1.687e-3
-1.104, 1.690e-3
-1.105, 1.696e-3
-1.106, 1.699e-3
-1.107, 1.702e-3
-1.108, 1.702e-3
-1.109, 1.705e-3
-1.110, 1.705e-3
-1.111, 1.702e-3
-1.112, 1.702e-3
-1.113, 1.702e-3
-1.114, 1.699e-3
-1.115, 1.699e-3
-1.116, 1.702e-3
-1.117, 1.702e-3
-1.118, 1.699e-3
-1.119, 1.702e-3
-1.120, 1.702e-3
-1.121, 1.702e-3
-1.122, 1.705e-3
-1.123, 1.702e-3
-1.124, 1.702e-3
-1.125, 1.699e-3
-1.126, 1.699e-3
-1.127, 1.699e-3
-1.128, 1.699e-3
-1.129, 1.696e-3
-1.130, 1.696e-3
-1.131, 1.699e-3
-1.132, 1.702e-3
-1.133, 1.702e-3
-1.134, 1.705e-3
-1.135, 1.708e-3
-1.136, 1.708e-3
-1.137, 1.708e-3
-1.138, 1.708e-3
-1.139, 1.708e-3
-1.140, 1.708e-3
-1.141, 1.708e-3
-1.142, 1.708e-3
-1.143, 1.708e-3
-1.144, 1.711e-3
-1.145, 1.711e-3
-1.146, 1.714e-3
-1.147, 1.717e-3
-1.148, 1.717e-3
-1.149, 1.721e-3
-1.150, 1.724e-3
-1.151, 1.724e-3
-1.152, 1.724e-3
-1.153, 1.724e-3
-1.154, 1.721e-3
-1.155, 1.721e-3
-1.156, 1.717e-3
-1.157, 1.714e-3
-1.158, 1.714e-3
-1.159, 1.714e-3
-1.160, 1.711e-3
-1.161, 1.714e-3
-1.162, 1.714e-3
-1.163, 1.714e-3
-1.164, 1.714e-3
-1.165, 1.717e-3
-1.166, 1.714e-3
-1.167, 1.717e-3
-1.168, 1.717e-3
-1.169, 1.717e-3
-1.170, 1.717e-3
-1.171, 1.714e-3
-1.172, 1.717e-3
-1.173, 1.714e-3
-1.174, 1.714e-3
-1.175, 1.714e-3
-1.176, 1.717e-3
-1.177, 1.721e-3
-1.178, 1.724e-3
-1.179, 1.727e-3
-1.180, 1.730e-3
-1.181, 1.730e-3
-1.182, 1.733e-3
-1.183, 1.730e-3
-1.184, 1.730e-3
-1.185, 1.730e-3
-1.186, 1.730e-3
-1.187, 1.730e-3
-1.188, 1.730e-3
-1.189, 1.730e-3
-1.190, 1.730e-3
-1.191, 1.733e-3
-1.192, 1.733e-3
-1.193, 1.736e-3
-1.194, 1.739e-3
-1.195, 1.745e-3
-1.196, 1.745e-3
-1.197, 1.748e-3
-1.198, 1.748e-3
-1.199, 1.751e-3
-1.200, 1.748e-3
-1.201, 1.751e-3
-1.202, 1.748e-3
-1.203, 1.751e-3
-1.204, 1.748e-3
-1.205, 1.748e-3
-1.206, 1.748e-3
-1.207, 1.751e-3
-1.208, 1.751e-3
-1.209, 1.751e-3
-1.210, 1.751e-3
-1.211, 1.751e-3
-1.212, 1.751e-3
-1.213, 1.754e-3
-1.214, 1.751e-3
-1.215, 1.754e-3
-1.216, 1.754e-3
-1.217, 1.754e-3
-1.218, 1.754e-3
-1.219, 1.754e-3
-1.220, 1.754e-3
-1.221, 1.758e-3
-1.222, 1.761e-3
-1.223, 1.761e-3
-1.224, 1.764e-3
-1.225, 1.767e-3
-1.226, 1.773e-3
-1.227, 1.776e-3
-1.228, 1.782e-3
-1.229, 1.791e-3
-1.230, 1.798e-3
-1.231, 1.804e-3
-1.232, 1.804e-3
-1.233, 1.801e-3
-1.234, 1.798e-3
-1.235, 1.795e-3
-1.236, 1.798e-3
-1.237, 1.804e-3
-1.238, 1.813e-3
-1.239, 1.819e-3
-1.240, 1.825e-3
-1.241, 1.828e-3
-1.242, 1.828e-3
-1.243, 1.825e-3
-1.244, 1.822e-3
-1.245, 1.822e-3
-1.246, 1.822e-3
-1.247, 1.828e-3
-1.248, 1.835e-3
-1.249, 1.844e-3
-1.250, 1.850e-3
-1.251, 1.850e-3
-1.252, 1.853e-3
-1.253, 1.850e-3
-1.254, 1.850e-3
-1.255, 1.850e-3
-1.256, 1.850e-3
-1.257, 1.847e-3
-1.258, 1.847e-3
-1.259, 1.844e-3
-1.260, 1.844e-3
-1.261, 1.841e-3
-1.262, 1.841e-3
-1.263, 1.844e-3
-1.264, 1.847e-3
-1.265, 1.853e-3
-1.266, 1.859e-3
-1.267, 1.869e-3
-1.268, 1.872e-3
-1.269, 1.875e-3
-1.270, 1.878e-3
-1.271, 1.881e-3
-1.272, 1.881e-3
-1.273, 1.878e-3
-1.274, 1.875e-3
-1.275, 1.872e-3
-1.276, 1.872e-3
-1.277, 1.875e-3
-1.278, 1.884e-3
-1.279, 1.896e-3
-1.280, 1.909e-3
-1.281, 1.924e-3
-1.282, 1.936e-3
-1.283, 1.946e-3
-1.284, 1.955e-3
-1.285, 1.967e-3
-1.286, 1.973e-3
-1.287, 1.983e-3
-1.288, 1.989e-3
-1.289, 1.998e-3
-1.290, 2.001e-3
-1.291, 2.004e-3
-1.292, 2.007e-3
-1.293, 2.004e-3
-1.294, 2.007e-3
-1.295, 2.010e-3
-1.296, 2.017e-3
-1.297, 2.023e-3
-1.298, 2.032e-3
-1.299, 2.044e-3
-1.300, 2.050e-3
-1.301, 2.060e-3
-1.302, 2.066e-3
-1.303, 2.072e-3
-1.304, 2.078e-3
-1.305, 2.084e-3
-1.306, 2.091e-3
-1.307, 2.094e-3
-1.308, 2.097e-3
-1.309, 2.103e-3
-1.310, 2.115e-3
-1.311, 2.124e-3
-1.312, 2.140e-3
-1.313, 2.152e-3
-1.314, 2.164e-3
-1.315, 2.183e-3
-1.316, 2.198e-3
-1.317, 2.214e-3
-1.318, 2.229e-3
-1.319, 2.248e-3
-1.320, 2.263e-3
-1.321, 2.279e-3
-1.322, 2.297e-3
-1.323, 2.316e-3
-1.324, 2.334e-3
-1.325, 2.346e-3
-1.326, 2.359e-3
-1.327, 2.374e-3
-1.328, 2.386e-3
-1.329, 2.396e-3
-1.330, 2.402e-3
-1.331, 2.411e-3
-1.332, 2.417e-3
-1.333, 2.423e-3
-1.334, 2.433e-3
-1.335, 2.442e-3
-1.336, 2.451e-3
-1.337, 2.464e-3
-1.338, 2.479e-3
-1.339, 2.494e-3
-1.340, 2.516e-3
-1.341, 2.538e-3
-1.342, 2.562e-3
-1.343, 2.584e-3
-1.344, 2.605e-3
-1.345, 2.630e-3
-1.346, 2.652e-3
-1.347, 2.673e-3
-1.348, 2.692e-3
-1.349, 2.707e-3
-1.350, 2.726e-3
-1.351, 2.741e-3
-1.352, 2.756e-3
-1.353, 2.772e-3
-1.354, 2.787e-3
-1.355, 2.803e-3
-1.356, 2.821e-3
-1.357, 2.837e-3
-1.358, 2.858e-3
-1.359, 2.877e-3
-1.360, 2.895e-3
-1.361, 2.914e-3
-1.362, 2.935e-3
-1.363, 2.957e-3
-1.364, 2.975e-3
-1.365, 2.997e-3
-1.366, 3.022e-3
-1.367, 3.046e-3
-1.368, 3.071e-3
-1.369, 3.099e-3
-1.370, 3.136e-3
-1.371, 3.170e-3
-1.372, 3.210e-3
-1.373, 3.247e-3
-1.374, 3.281e-3
-1.375, 3.314e-3
-1.376, 3.345e-3
-1.377, 3.373e-3
-1.378, 3.398e-3
-1.379, 3.425e-3
-1.380, 3.453e-3
-1.381, 3.481e-3
-1.382, 3.509e-3
-1.383, 3.540e-3
-1.384, 3.567e-3
-1.385, 3.598e-3
-1.386, 3.629e-3
-1.387, 3.666e-3
-1.388, 3.703e-3
-1.389, 3.743e-3
-1.390, 3.780e-3
-1.391, 3.820e-3
-1.392, 3.857e-3
-1.393, 3.894e-3
-1.394, 3.931e-3
-1.395, 3.968e-3
-1.396, 4.005e-3
-1.397, 4.042e-3
-1.398, 4.085e-3
-1.399, 4.125e-3
-1.400, 4.165e-3
-1.401, 4.209e-3
-1.402, 4.252e-3
-1.403, 4.295e-3
-1.404, 4.332e-3
-1.405, 4.369e-3
-1.406, 4.406e-3
-1.407, 4.443e-3
-1.408, 4.480e-3
-1.409, 4.511e-3
-1.410, 4.545e-3
-1.411, 4.572e-3
-1.412, 4.606e-3
-1.413, 4.637e-3
-1.414, 4.677e-3
-1.415, 4.714e-3
-1.416, 4.757e-3
-1.417, 4.804e-3
-1.418, 4.850e-3
-1.419, 4.896e-3
-1.420, 4.945e-3
-1.421, 4.989e-3
-1.422, 5.032e-3
-1.423, 5.078e-3
-1.424, 5.127e-3
-1.425, 5.171e-3
-1.426, 5.217e-3
-1.427, 5.257e-3
-1.428, 5.300e-3
-1.429, 5.343e-3
-1.430, 5.383e-3
-1.431, 5.433e-3
-1.432, 5.476e-3
-1.433, 5.525e-3
-1.434, 5.574e-3
-1.435, 5.624e-3
-1.436, 5.676e-3
-1.437, 5.729e-3
-1.438, 5.781e-3
-1.439, 5.833e-3
-1.440, 5.883e-3
-1.441, 5.935e-3
-1.442, 5.981e-3
-1.443, 6.031e-3
-1.444, 6.080e-3
-1.445, 6.132e-3
-1.446, 6.185e-3
-1.447, 6.240e-3
-1.448, 6.296e-3
-1.449, 6.351e-3
-1.450, 6.404e-3
-1.451, 6.459e-3
-1.452, 6.515e-3
-1.453, 6.564e-3
-1.454, 6.613e-3
-1.455, 6.666e-3
-1.456, 6.715e-3
-1.457, 6.768e-3
-1.458, 6.820e-3
-1.459, 6.872e-3
-1.460, 6.925e-3
-1.461, 6.983e-3
-1.462, 7.045e-3
-1.463, 7.110e-3
-1.464, 7.171e-3
-1.465, 7.233e-3
-1.466, 7.295e-3
-1.467, 7.353e-3
-1.468, 7.415e-3
-1.469, 7.474e-3
-1.470, 7.532e-3
-1.471, 7.591e-3
-1.472, 7.649e-3
-1.473, 7.705e-3
-1.474, 7.757e-3
-1.475, 7.810e-3
-1.476, 7.862e-3
-1.477, 7.911e-3
-1.478, 7.964e-3
-1.479, 8.016e-3
-1.480, 8.069e-3
-1.481, 8.121e-3
-1.482, 8.173e-3
-1.483, 8.232e-3
-1.484, 8.291e-3
-1.485, 8.349e-3
-1.486, 8.411e-3
-1.487, 8.469e-3
-1.488, 8.525e-3
-1.489, 8.584e-3
-1.490, 8.642e-3
-1.491, 8.704e-3
-1.492, 8.765e-3
-1.493, 8.827e-3
-1.494, 8.892e-3
-1.495, 8.957e-3
-1.496, 9.018e-3
-1.497, 9.074e-3
-1.498, 9.129e-3
-1.499, 9.188e-3
-1.500, 9.182e-3
-1.499, 9.061e-3
-1.498, 8.954e-3
-1.497, 8.855e-3
-1.496, 8.762e-3
-1.495, 8.670e-3
-1.494, 8.584e-3
-1.493, 8.500e-3
-1.492, 8.420e-3
-1.491, 8.340e-3
-1.490, 8.263e-3
-1.489, 8.183e-3
-1.488, 8.109e-3
-1.487, 8.032e-3
-1.486, 7.958e-3
-1.485, 7.884e-3
-1.484, 7.810e-3
-1.483, 7.742e-3
-1.482, 7.671e-3
-1.481, 7.606e-3
-1.480, 7.541e-3
-1.479, 7.483e-3
-1.478, 7.424e-3
-1.477, 7.366e-3
-1.476, 7.310e-3
-1.475, 7.252e-3
-1.474, 7.193e-3
-1.473, 7.128e-3
-1.472, 7.070e-3
-1.471, 7.005e-3
-1.470, 6.940e-3
-1.469, 6.875e-3
-1.468, 6.811e-3
-1.467, 6.746e-3
-1.466, 6.678e-3
-1.465, 6.607e-3
-1.464, 6.543e-3
-1.463, 6.472e-3
-1.462, 6.410e-3
-1.461, 6.342e-3
-1.460, 6.277e-3
-1.459, 6.216e-3
-1.458, 6.154e-3
-1.457, 6.089e-3
-1.456, 6.025e-3
-1.455, 5.960e-3
-1.454, 5.901e-3
-1.453, 5.840e-3
-1.452, 5.784e-3
-1.451, 5.729e-3
-1.450, 5.673e-3
-1.449, 5.621e-3
-1.448, 5.568e-3
-1.447, 5.516e-3
-1.446, 5.463e-3
-1.445, 5.411e-3
-1.444, 5.359e-3
-1.443, 5.306e-3
-1.442, 5.251e-3
-1.441, 5.195e-3
-1.440, 5.140e-3
-1.439, 5.081e-3
-1.438, 5.023e-3
-1.437, 4.964e-3
-1.436, 4.902e-3
-1.435, 4.841e-3
-1.434, 4.782e-3
-1.433, 4.720e-3
-1.432, 4.659e-3
-1.431, 4.600e-3
-1.430, 4.538e-3
-1.429, 4.477e-3
-1.428, 4.415e-3
-1.427, 4.357e-3
-1.426, 4.298e-3
-1.425, 4.243e-3
-1.424, 4.187e-3
-1.423, 4.135e-3
-1.422, 4.079e-3
-1.421, 4.027e-3
-1.420, 3.974e-3
-1.419, 3.922e-3
-1.418, 3.876e-3
-1.417, 3.826e-3
-1.416, 3.783e-3
-1.415, 3.740e-3
-1.414, 3.694e-3
-1.413, 3.654e-3
-1.412, 3.607e-3
-1.411, 3.564e-3
-1.410, 3.518e-3
-1.409, 3.472e-3
-1.408, 3.422e-3
-1.407, 3.370e-3
-1.406, 3.321e-3
-1.405, 3.268e-3
-1.404, 3.216e-3
-1.403, 3.167e-3
-1.402, 3.114e-3
-1.401, 3.065e-3
-1.400, 3.015e-3
-1.399, 2.966e-3
-1.398, 2.914e-3
-1.397, 2.861e-3
-1.396, 2.809e-3
-1.395, 2.760e-3
-1.394, 2.707e-3
-1.393, 2.655e-3
-1.392, 2.605e-3
-1.391, 2.559e-3
-1.390, 2.513e-3
-1.389, 2.470e-3
-1.388, 2.427e-3
-1.387, 2.386e-3
-1.386, 2.343e-3
-1.385, 2.303e-3
-1.384, 2.266e-3
-1.383, 2.226e-3
-1.382, 2.183e-3
-1.381, 2.143e-3
-1.380, 2.100e-3
-1.379, 2.063e-3
-1.378, 2.017e-3
-1.377, 1.973e-3
-1.376, 1.930e-3
-1.375, 1.887e-3
-1.374, 1.847e-3
-1.373, 1.804e-3
-1.372, 1.761e-3
-1.371, 1.721e-3
-1.370, 1.677e-3
-1.369, 1.637e-3
-1.368, 1.597e-3
-1.367, 1.554e-3
-1.366, 1.514e-3
-1.365, 1.474e-3
-1.364, 1.431e-3
-1.363, 1.394e-3
-1.362, 1.354e-3
-1.361, 1.314e-3
-1.360, 1.273e-3
-1.359, 1.240e-3
-1.358, 1.203e-3
-1.357, 1.166e-3
-1.356, 1.129e-3
-1.355, 1.092e-3
-1.354, 1.055e-3
-1.353, 1.021e-3
-1.352, 9.837e-4
-1.351, 9.467e-4
-1.350, 9.097e-4
-1.349, 8.758e-4
-1.348, 8.388e-4
-1.347, 8.018e-4
-1.346, 7.679e-4
-1.345, 7.339e-4
-1.344, 7.000e-4
-1.343, 6.692e-4
-1.342, 6.353e-4
-1.341, 6.044e-4
-1.340, 5.736e-4
-1.339, 5.397e-4
-1.338, 5.089e-4
-1.337, 4.750e-4
-1.336, 4.410e-4
-1.335, 4.102e-4
-1.334, 3.794e-4
-1.333, 3.455e-4
-1.332, 3.146e-4
-1.331, 2.838e-4
-1.330, 2.530e-4
-1.329, 2.221e-4
-1.328, 1.944e-4
-1.327, 1.666e-4
-1.326, 1.389e-4
-1.325, 1.111e-4
-1.324, 8.340e-5
-1.323, 5.565e-5
-1.322, 2.790e-5
-1.321, 1.559e-7
-1.320, -3.068e-5
-1.319, -5.842e-5
-1.318, -8.617e-5
-1.317, -1.139e-4
-1.316, -1.386e-4
-1.315, -1.663e-4
-1.314, -1.910e-4
-1.313, -2.187e-4
-1.312, -2.403e-4
-1.311, -2.681e-4
-1.310, -2.897e-4
-1.309, -3.143e-4
-1.308, -3.390e-4
-1.307, -3.606e-4
-1.306, -3.852e-4
-1.305, -4.099e-4
-1.304, -4.315e-4
-1.303, -4.561e-4
-1.302, -4.808e-4
-1.301, -5.024e-4
-1.300, -5.271e-4
-1.299, -5.456e-4
-1.298, -5.671e-4
-1.297, -5.887e-4
-1.296, -6.072e-4
-1.295, -6.288e-4
-1.294, -6.473e-4
-1.293, -6.658e-4
-1.292, -6.874e-4
-1.291, -7.090e-4
-1.290, -7.275e-4
-1.289, -7.460e-4
-1.288, -7.645e-4
-1.287, -7.860e-4
-1.286, -8.076e-4
-1.285, -8.261e-4
-1.284, -8.446e-4
-1.283, -8.600e-4
-1.282, -8.785e-4
-1.281, -8.970e-4
-1.280, -9.155e-4
-1.279, -9.340e-4
-1.278, -9.525e-4
-1.277, -9.679e-4
-1.276, -9.864e-4
-1.275, -1.005e-3
-1.274, -1.020e-3
-1.273, -1.039e-3
-1.272, -1.054e-3
-1.271, -1.073e-3
-1.270, -1.085e-3
-1.269, -1.101e-3
-1.268, -1.113e-3
-1.267, -1.125e-3
-1.266, -1.141e-3
-1.265, -1.150e-3
-1.264, -1.165e-3
-1.263, -1.178e-3
-1.262, -1.187e-3
-1.261, -1.202e-3
-1.260, -1.212e-3
-1.259, -1.227e-3
-1.258, -1.239e-3
-1.257, -1.252e-3
-1.256, -1.264e-3
-1.255, -1.279e-3
-1.254, -1.289e-3
-1.253, -1.298e-3
-1.252, -1.310e-3
-1.251, -1.322e-3
-1.250, -1.332e-3
-1.249, -1.344e-3
-1.248, -1.353e-3
-1.247, -1.366e-3
-1.246, -1.378e-3
-1.245, -1.387e-3
-1.244, -1.400e-3
-1.243, -1.412e-3
-1.242, -1.421e-3
-1.241, -1.433e-3
-1.240, -1.440e-3
-1.239, -1.449e-3
-1.238, -1.458e-3
-1.237, -1.464e-3
-1.236, -1.470e-3
-1.235, -1.474e-3
-1.234, -1.483e-3
-1.233, -1.489e-3
-1.232, -1.495e-3
-1.231, -1.504e-3
-1.230, -1.511e-3
-1.229, -1.520e-3
-1.228, -1.529e-3
-1.227, -1.538e-3
-1.226, -1.548e-3
-1.225, -1.557e-3
-1.224, -1.563e-3
-1.223, -1.566e-3
-1.222, -1.572e-3
-1.221, -1.578e-3
-1.220, -1.581e-3
-1.219, -1.588e-3
-1.218, -1.594e-3
-1.217, -1.600e-3
-1.216, -1.606e-3
-1.215, -1.612e-3
-1.214, -1.618e-3
-1.213, -1.625e-3
-1.212, -1.631e-3
-1.211, -1.631e-3
-1.210, -1.631e-3
-1.209, -1.634e-3
-1.208, -1.631e-3
-1.207, -1.634e-3
-1.206, -1.637e-3
-1.205, -1.637e-3
-1.204, -1.640e-3
-1.203, -1.646e-3
-1.202, -1.652e-3
-1.201, -1.659e-3
-1.200, -1.665e-3
-1.199, -1.671e-3
-1.198, -1.680e-3
-1.197, -1.686e-3
-1.196, -1.692e-3
-1.195, -1.696e-3
-1.194, -1.702e-3
-1.193, -1.711e-3
-1.192, -1.714e-3
-1.191, -1.720e-3
-1.190, -1.723e-3
-1.189, -1.729e-3
-1.188, -1.733e-3
-1.187, -1.733e-3
-1.186, -1.736e-3
-1.185, -1.736e-3
-1.184, -1.733e-3
-1.183, -1.733e-3
-1.182, -1.729e-3
-1.181, -1.726e-3
-1.180, -1.726e-3
-1.179, -1.720e-3
-1.178, -1.720e-3
-1.177, -1.717e-3
-1.176, -1.717e-3
-1.175, -1.717e-3
-1.174, -1.717e-3
-1.173, -1.720e-3
-1.172, -1.726e-3
-1.171, -1.729e-3
-1.170, -1.736e-3
-1.169, -1.742e-3
-1.168, -1.748e-3
-1.167, -1.754e-3
-1.166, -1.757e-3
-1.165, -1.760e-3
-1.164, -1.766e-3
-1.163, -1.766e-3
-1.162, -1.766e-3
-1.161, -1.770e-3
-1.160, -1.770e-3
-1.159, -1.773e-3
-1.158, -1.773e-3
-1.157, -1.776e-3
-1.156, -1.776e-3
-1.155, -1.776e-3
-1.154, -1.776e-3
-1.153, -1.776e-3
-1.152, -1.776e-3
-1.151, -1.776e-3
-1.150, -1.776e-3
-1.149, -1.770e-3
-1.148, -1.770e-3
-1.147, -1.766e-3
-1.146, -1.763e-3
-1.145, -1.763e-3
-1.144, -1.760e-3
-1.143, -1.760e-3
-1.142, -1.760e-3
-1.141, -1.763e-3
-1.140, -1.763e-3
-1.139, -1.766e-3
-1.138, -1.770e-3
-1.137, -1.773e-3
-1.136, -1.776e-3
-1.135, -1.779e-3
-1.134, -1.782e-3
-1.133, -1.782e-3
-1.132, -1.782e-3
-1.131, -1.782e-3
-1.130, -1.782e-3
-1.129, -1.785e-3
-1.128, -1.782e-3
-1.127, -1.782e-3
-1.126, -1.785e-3
-1.125, -1.785e-3
-1.124, -1.785e-3
-1.123, -1.782e-3
-1.122, -1.782e-3
-1.121, -1.782e-3
-1.120, -1.782e-3
-1.119, -1.782e-3
-1.118, -1.779e-3
-1.117, -1.779e-3
-1.116, -1.779e-3
-1.115, -1.776e-3
-1.114, -1.776e-3
-1.113, -1.776e-3
-1.112, -1.773e-3
-1.111, -1.776e-3
-1.110, -1.779e-3
-1.109, -1.779e-3
-1.108, -1.779e-3
-1.107, -1.779e-3
-1.106, -1.782e-3
-1.105, -1.782e-3
-1.104, -1.782e-3
-1.103, -1.779e-3
-1.102, -1.779e-3
-1.101, -1.779e-3
-1.100, -1.776e-3
-1.099, -1.779e-3
-1.098, -1.779e-3
-1.097, -1.779e-3
-1.096, -1.779e-3
-1.095, -1.782e-3
-1.094, -1.782e-3
-1.093, -1.782e-3
-1.092, -1.785e-3
-1.091, -1.788e-3
-1.090, -1.791e-3
-1.089, -1.791e-3
-1.088, -1.794e-3
-1.087, -1.797e-3
-1.086, -1.797e-3
-1.085, -1.797e-3
-1.084, -1.800e-3
-1.083, -1.800e-3
-1.082, -1.803e-3
-1.081, -1.807e-3
-1.080, -1.807e-3
-1.079, -1.807e-3
-1.078, -1.807e-3
-1.077, -1.803e-3
-1.076, -1.807e-3
-1.075, -1.807e-3
-1.074, -1.807e-3
-1.073, -1.807e-3
-1.072, -1.803e-3
-1.071, -1.803e-3
-1.070, -1.803e-3
-1.069, -1.807e-3
-1.068, -1.807e-3
-1.067, -1.810e-3
-1.066, -1.810e-3
-1.065, -1.813e-3
-1.064, -1.816e-3
-1.063, -1.819e-3
-1.062, -1.822e-3
-1.061, -1.822e-3
-1.060, -1.825e-3
-1.059, -1.825e-3
-1.058, -1.822e-3
-1.057, -1.825e-3
-1.056, -1.822e-3
-1.055, -1.822e-3
-1.054, -1.822e-3
-1.053, -1.819e-3
-1.052, -1.819e-3
-1.051, -1.819e-3
-1.050, -1.819e-3
-1.049, -1.819e-3
-1.048, -1.819e-3
-1.047, -1.822e-3
-1.046, -1.822e-3
-1.045, -1.825e-3
-1.044, -1.825e-3
-1.043, -1.825e-3
-1.042, -1.828e-3
-1.041, -1.825e-3
-1.040, -1.825e-3
-1.039, -1.828e-3
-1.038, -1.831e-3
-1.037, -1.834e-3
-1.036, -1.837e-3
-1.035, -1.837e-3
-1.034, -1.837e-3
-1.033, -1.840e-3
-1.032, -1.844e-3
-1.031, -1.844e-3
-1.030, -1.844e-3
-1.029, -1.844e-3
-1.028, -1.844e-3
-1.027, -1.844e-3
-1.026, -1.844e-3
-1.025, -1.840e-3
-1.024, -1.844e-3
-1.023, -1.840e-3
-1.022, -1.844e-3
-1.021, -1.844e-3
-1.020, -1.847e-3
-1.019, -1.847e-3
-1.018, -1.847e-3
-1.017, -1.850e-3
-1.016, -1.850e-3
-1.015, -1.850e-3
-1.014, -1.853e-3
-1.013, -1.853e-3
-1.012, -1.856e-3
-1.011, -1.862e-3
-1.010, -1.865e-3
-1.009, -1.868e-3
-1.008, -1.871e-3
-1.007, -1.877e-3
-1.006, -1.881e-3
-1.005, -1.884e-3
-1.004, -1.890e-3
-1.003, -1.893e-3
-1.002, -1.896e-3
-1.001, -1.899e-3
