Aug. 23, 2024   12:05:46
Amperometric i-t Curve
File: c:/users/guazh/data/20240813_batch_94_500/2024-08-15-exp169\exp169deposition-2024-08-23t12_00_28-deposition\exp169deposition_it_edep_-130mv.bin
Data Source:  Experiment
Instrument Model:  CHI760E
Header: 
Note: 

Init E (V) = -1.3
Sample Interval (s) = 0.1
Run Time (sec) = 150
Quiet Time (sec) = 2
Sensitivity (A/V) = 0.001
Comp R (ohm) = 13.3

Results:

Channel 1:

Time/sec, Current/A

1.000e-1, 3.986e-3
2.000e-1, 3.988e-3
3.000e-1, 3.980e-3
4.000e-1, 3.972e-3
5.000e-1, 3.979e-3
6.000e-1, 3.979e-3
7.000e-1, 4.008e-3
8.000e-1, 4.028e-3
9.000e-1, 4.026e-3
1.000e+0, 4.033e-3
1.100e+0, 4.025e-3
1.200e+0, 4.024e-3
1.300e+0, 4.016e-3
1.400e+0, 4.013e-3
1.500e+0, 4.003e-3
1.600e+0, 4.004e-3
1.700e+0, 4.024e-3
1.800e+0, 4.013e-3
1.900e+0, 4.013e-3
2.000e+0, 4.014e-3
2.100e+0, 4.032e-3
2.200e+0, 4.067e-3
2.300e+0, 4.093e-3
2.400e+0, 4.110e-3
2.500e+0, 4.127e-3
2.600e+0, 4.125e-3
2.700e+0, 4.134e-3
2.800e+0, 4.121e-3
2.900e+0, 4.101e-3
3.000e+0, 4.094e-3
3.100e+0, 4.092e-3
3.200e+0, 4.118e-3
3.300e+0, 4.119e-3
3.400e+0, 4.114e-3
3.500e+0, 4.107e-3
3.600e+0, 4.103e-3
3.700e+0, 4.138e-3
3.800e+0, 4.159e-3
3.900e+0, 4.176e-3
4.000e+0, 4.185e-3
4.100e+0, 4.172e-3
4.200e+0, 4.189e-3
4.300e+0, 4.214e-3
4.400e+0, 4.216e-3
4.500e+0, 4.226e-3
4.600e+0, 4.255e-3
4.700e+0, 4.258e-3
4.800e+0, 4.266e-3
4.900e+0, 4.285e-3
5.000e+0, 4.297e-3
5.100e+0, 4.312e-3
5.200e+0, 4.316e-3
5.300e+0, 4.317e-3
5.400e+0, 4.325e-3
5.500e+0, 4.359e-3
5.600e+0, 4.365e-3
5.700e+0, 4.362e-3
5.800e+0, 4.357e-3
5.900e+0, 4.369e-3
6.000e+0, 4.357e-3
6.100e+0, 4.339e-3
6.200e+0, 4.348e-3
6.300e+0, 4.355e-3
6.400e+0, 4.375e-3
6.500e+0, 4.381e-3
6.600e+0, 4.383e-3
6.700e+0, 4.389e-3
6.800e+0, 4.399e-3
6.900e+0, 4.425e-3
7.000e+0, 4.438e-3
7.100e+0, 4.443e-3
7.200e+0, 4.432e-3
7.300e+0, 4.440e-3
7.400e+0, 4.423e-3
7.500e+0, 4.411e-3
7.600e+0, 4.394e-3
7.700e+0, 4.375e-3
7.800e+0, 4.378e-3
7.900e+0, 4.374e-3
8.000e+0, 4.377e-3
8.100e+0, 4.362e-3
8.200e+0, 4.377e-3
8.300e+0, 4.376e-3
8.400e+0, 4.355e-3
8.500e+0, 4.370e-3
8.600e+0, 4.407e-3
8.700e+0, 4.428e-3
8.800e+0, 4.468e-3
8.900e+0, 4.494e-3
9.000e+0, 4.507e-3
9.100e+0, 4.507e-3
9.200e+0, 4.514e-3
9.300e+0, 4.509e-3
9.400e+0, 4.498e-3
9.500e+0, 4.485e-3
9.600e+0, 4.484e-3
9.700e+0, 4.460e-3
9.800e+0, 4.432e-3
9.900e+0, 4.434e-3
1.000e+1, 4.453e-3
1.010e+1, 4.455e-3
1.020e+1, 4.507e-3
1.030e+1, 4.563e-3
1.040e+1, 4.585e-3
1.050e+1, 4.599e-3
1.060e+1, 4.616e-3
1.070e+1, 4.627e-3
1.080e+1, 4.648e-3
1.090e+1, 4.663e-3
1.100e+1, 4.662e-3
1.110e+1, 4.664e-3
1.120e+1, 4.681e-3
1.130e+1, 4.683e-3
1.140e+1, 4.685e-3
1.150e+1, 4.691e-3
1.160e+1, 4.700e-3
1.170e+1, 4.715e-3
1.180e+1, 4.729e-3
1.190e+1, 4.728e-3
1.200e+1, 4.727e-3
1.210e+1, 4.726e-3
1.220e+1, 4.706e-3
1.230e+1, 4.718e-3
1.240e+1, 4.741e-3
1.250e+1, 4.733e-3
1.260e+1, 4.741e-3
1.270e+1, 4.755e-3
1.280e+1, 4.750e-3
1.290e+1, 4.764e-3
1.300e+1, 4.765e-3
1.310e+1, 4.747e-3
1.320e+1, 4.748e-3
1.330e+1, 4.754e-3
1.340e+1, 4.762e-3
1.350e+1, 4.766e-3
1.360e+1, 4.774e-3
1.370e+1, 4.790e-3
1.380e+1, 4.793e-3
1.390e+1, 4.795e-3
1.400e+1, 4.811e-3
1.410e+1, 4.819e-3
1.420e+1, 4.824e-3
1.430e+1, 4.821e-3
1.440e+1, 4.821e-3
1.450e+1, 4.821e-3
1.460e+1, 4.832e-3
1.470e+1, 4.869e-3
1.480e+1, 4.892e-3
1.490e+1, 4.914e-3
1.500e+1, 4.924e-3
1.510e+1, 4.922e-3
1.520e+1, 4.937e-3
1.530e+1, 4.936e-3
1.540e+1, 4.945e-3
1.550e+1, 4.951e-3
1.560e+1, 4.928e-3
1.570e+1, 4.931e-3
1.580e+1, 4.922e-3
1.590e+1, 4.921e-3
1.600e+1, 4.916e-3
1.610e+1, 4.900e-3
1.620e+1, 4.894e-3
1.630e+1, 4.896e-3
1.640e+1, 4.918e-3
1.650e+1, 4.946e-3
1.660e+1, 4.965e-3
1.670e+1, 4.965e-3
1.680e+1, 4.975e-3
1.690e+1, 5.000e-3
1.700e+1, 5.002e-3
1.710e+1, 5.000e-3
1.720e+1, 5.004e-3
1.730e+1, 4.998e-3
1.740e+1, 4.995e-3
1.750e+1, 5.006e-3
1.760e+1, 5.018e-3
1.770e+1, 5.012e-3
1.780e+1, 4.998e-3
1.790e+1, 4.989e-3
1.800e+1, 4.989e-3
1.810e+1, 4.998e-3
1.820e+1, 5.003e-3
1.830e+1, 5.017e-3
1.840e+1, 5.012e-3
1.850e+1, 5.018e-3
1.860e+1, 5.037e-3
1.870e+1, 5.031e-3
1.880e+1, 5.018e-3
1.890e+1, 5.001e-3
1.900e+1, 5.013e-3
1.910e+1, 5.023e-3
1.920e+1, 5.034e-3
1.930e+1, 5.052e-3
1.940e+1, 5.065e-3
1.950e+1, 5.062e-3
1.960e+1, 5.076e-3
1.970e+1, 5.102e-3
1.980e+1, 5.146e-3
1.990e+1, 5.170e-3
2.000e+1, 5.152e-3
2.010e+1, 5.147e-3
2.020e+1, 5.162e-3
2.030e+1, 5.173e-3
2.040e+1, 5.173e-3
2.050e+1, 5.162e-3
2.060e+1, 5.163e-3
2.070e+1, 5.156e-3
2.080e+1, 5.135e-3
2.090e+1, 5.125e-3
2.100e+1, 5.102e-3
2.110e+1, 5.117e-3
2.120e+1, 5.130e-3
2.130e+1, 5.147e-3
2.140e+1, 5.143e-3
2.150e+1, 5.147e-3
2.160e+1, 5.127e-3
2.170e+1, 5.110e-3
2.180e+1, 5.129e-3
2.190e+1, 5.127e-3
2.200e+1, 5.135e-3
2.210e+1, 5.153e-3
2.220e+1, 5.167e-3
2.230e+1, 5.187e-3
2.240e+1, 5.199e-3
2.250e+1, 5.201e-3
2.260e+1, 5.222e-3
2.270e+1, 5.242e-3
2.280e+1, 5.240e-3
2.290e+1, 5.249e-3
2.300e+1, 5.251e-3
2.310e+1, 5.276e-3
2.320e+1, 5.278e-3
2.330e+1, 5.301e-3
2.340e+1, 5.295e-3
2.350e+1, 5.296e-3
2.360e+1, 5.309e-3
2.370e+1, 5.299e-3
2.380e+1, 5.296e-3
2.390e+1, 5.297e-3
2.400e+1, 5.292e-3
2.410e+1, 5.287e-3
2.420e+1, 5.299e-3
2.430e+1, 5.270e-3
2.440e+1, 5.257e-3
2.450e+1, 5.246e-3
2.460e+1, 5.245e-3
2.470e+1, 5.270e-3
2.480e+1, 5.307e-3
2.490e+1, 5.310e-3
2.500e+1, 5.325e-3
2.510e+1, 5.350e-3
2.520e+1, 5.352e-3
2.530e+1, 5.348e-3
2.540e+1, 5.350e-3
2.550e+1, 5.341e-3
2.560e+1, 5.348e-3
2.570e+1, 5.352e-3
2.580e+1, 5.357e-3
2.590e+1, 5.390e-3
2.600e+1, 5.435e-3
2.610e+1, 5.452e-3
2.620e+1, 5.462e-3
2.630e+1, 5.455e-3
2.640e+1, 5.462e-3
2.650e+1, 5.468e-3
2.660e+1, 5.460e-3
2.670e+1, 5.507e-3
2.680e+1, 5.503e-3
2.690e+1, 5.507e-3
2.700e+1, 5.532e-3
2.710e+1, 5.601e-3
2.720e+1, 5.612e-3
2.730e+1, 5.618e-3
2.740e+1, 5.611e-3
2.750e+1, 5.617e-3
2.760e+1, 5.678e-3
2.770e+1, 5.716e-3
2.780e+1, 5.733e-3
2.790e+1, 5.734e-3
2.800e+1, 5.742e-3
2.810e+1, 5.755e-3
2.820e+1, 5.782e-3
2.830e+1, 5.786e-3
2.840e+1, 5.758e-3
2.850e+1, 5.783e-3
2.860e+1, 5.787e-3
2.870e+1, 5.769e-3
2.880e+1, 5.751e-3
2.890e+1, 5.743e-3
2.900e+1, 5.776e-3
2.910e+1, 5.787e-3
2.920e+1, 5.828e-3
2.930e+1, 5.880e-3
2.940e+1, 5.919e-3
2.950e+1, 5.936e-3
2.960e+1, 5.968e-3
2.970e+1, 6.006e-3
2.980e+1, 6.028e-3
2.990e+1, 6.093e-3
3.000e+1, 6.141e-3
3.010e+1, 6.144e-3
3.020e+1, 6.151e-3
3.030e+1, 6.144e-3
3.040e+1, 6.158e-3
3.050e+1, 6.145e-3
3.060e+1, 6.183e-3
3.070e+1, 6.196e-3
3.080e+1, 6.231e-3
3.090e+1, 6.239e-3
3.100e+1, 6.204e-3
3.110e+1, 6.187e-3
3.120e+1, 6.234e-3
3.130e+1, 6.252e-3
3.140e+1, 6.304e-3
3.150e+1, 6.330e-3
3.160e+1, 6.363e-3
3.170e+1, 6.380e-3
3.180e+1, 6.381e-3
3.190e+1, 6.374e-3
3.200e+1, 6.370e-3
3.210e+1, 6.384e-3
3.220e+1, 6.325e-3
3.230e+1, 6.312e-3
3.240e+1, 6.320e-3
3.250e+1, 6.327e-3
3.260e+1, 6.336e-3
3.270e+1, 6.365e-3
3.280e+1, 6.352e-3
3.290e+1, 6.354e-3
3.300e+1, 6.340e-3
3.310e+1, 6.343e-3
3.320e+1, 6.331e-3
3.330e+1, 6.323e-3
3.340e+1, 6.326e-3
3.350e+1, 6.332e-3
3.360e+1, 6.373e-3
3.370e+1, 6.372e-3
3.380e+1, 6.424e-3
3.390e+1, 6.468e-3
3.400e+1, 6.383e-3
3.410e+1, 6.412e-3
3.420e+1, 6.427e-3
3.430e+1, 6.366e-3
3.440e+1, 6.355e-3
3.450e+1, 6.418e-3
3.460e+1, 6.465e-3
3.470e+1, 6.465e-3
3.480e+1, 6.464e-3
3.490e+1, 6.479e-3
3.500e+1, 6.436e-3
3.510e+1, 6.522e-3
3.520e+1, 6.564e-3
3.530e+1, 6.534e-3
3.540e+1, 6.566e-3
3.550e+1, 6.576e-3
3.560e+1, 6.558e-3
3.570e+1, 6.528e-3
3.580e+1, 6.536e-3
3.590e+1, 6.573e-3
3.600e+1, 6.603e-3
3.610e+1, 6.446e-3
3.620e+1, 6.585e-3
3.630e+1, 6.607e-3
3.640e+1, 6.615e-3
3.650e+1, 6.585e-3
3.660e+1, 6.670e-3
3.670e+1, 6.676e-3
3.680e+1, 6.645e-3
3.690e+1, 6.649e-3
3.700e+1, 6.699e-3
3.710e+1, 6.647e-3
3.720e+1, 6.700e-3
3.730e+1, 6.658e-3
3.740e+1, 6.625e-3
3.750e+1, 6.657e-3
3.760e+1, 6.637e-3
3.770e+1, 6.695e-3
3.780e+1, 6.619e-3
3.790e+1, 6.652e-3
3.800e+1, 6.672e-3
3.810e+1, 6.664e-3
3.820e+1, 6.603e-3
3.830e+1, 6.625e-3
3.840e+1, 6.657e-3
3.850e+1, 6.656e-3
3.860e+1, 6.518e-3
3.870e+1, 6.718e-3
3.880e+1, 6.685e-3
3.890e+1, 6.690e-3
3.900e+1, 6.678e-3
3.910e+1, 6.678e-3
3.920e+1, 6.698e-3
3.930e+1, 6.705e-3
3.940e+1, 6.685e-3
3.950e+1, 6.703e-3
3.960e+1, 6.647e-3
3.970e+1, 6.651e-3
3.980e+1, 6.657e-3
3.990e+1, 6.665e-3
4.000e+1, 6.638e-3
4.010e+1, 6.703e-3
4.020e+1, 6.685e-3
4.030e+1, 6.675e-3
4.040e+1, 6.565e-3
4.050e+1, 6.634e-3
4.060e+1, 6.602e-3
4.070e+1, 6.640e-3
4.080e+1, 6.688e-3
4.090e+1, 6.643e-3
4.100e+1, 6.703e-3
4.110e+1, 6.697e-3
4.120e+1, 6.687e-3
4.130e+1, 6.672e-3
4.140e+1, 6.623e-3
4.150e+1, 6.686e-3
4.160e+1, 6.676e-3
4.170e+1, 6.617e-3
4.180e+1, 6.608e-3
4.190e+1, 6.792e-3
4.200e+1, 6.814e-3
4.210e+1, 6.791e-3
4.220e+1, 6.730e-3
4.230e+1, 6.665e-3
4.240e+1, 6.692e-3
4.250e+1, 6.723e-3
4.260e+1, 6.678e-3
4.270e+1, 6.642e-3
4.280e+1, 6.582e-3
4.290e+1, 6.561e-3
4.300e+1, 6.715e-3
4.310e+1, 6.758e-3
4.320e+1, 6.824e-3
4.330e+1, 6.767e-3
4.340e+1, 6.744e-3
4.350e+1, 6.738e-3
4.360e+1, 6.794e-3
4.370e+1, 6.738e-3
4.380e+1, 6.770e-3
4.390e+1, 6.772e-3
4.400e+1, 6.766e-3
4.410e+1, 6.848e-3
4.420e+1, 6.825e-3
4.430e+1, 6.868e-3
4.440e+1, 6.899e-3
4.450e+1, 6.842e-3
4.460e+1, 6.785e-3
4.470e+1, 6.842e-3
4.480e+1, 6.841e-3
4.490e+1, 6.849e-3
4.500e+1, 6.809e-3
4.510e+1, 6.755e-3
4.520e+1, 6.758e-3
4.530e+1, 6.757e-3
4.540e+1, 6.751e-3
4.550e+1, 6.786e-3
4.560e+1, 6.794e-3
4.570e+1, 6.791e-3
4.580e+1, 6.799e-3
4.590e+1, 6.814e-3
4.600e+1, 6.773e-3
4.610e+1, 6.845e-3
4.620e+1, 6.848e-3
4.630e+1, 6.845e-3
4.640e+1, 6.819e-3
4.650e+1, 6.816e-3
4.660e+1, 6.876e-3
4.670e+1, 6.878e-3
4.680e+1, 6.865e-3
4.690e+1, 6.920e-3
4.700e+1, 6.919e-3
4.710e+1, 6.808e-3
4.720e+1, 6.877e-3
4.730e+1, 6.873e-3
4.740e+1, 6.845e-3
4.750e+1, 6.842e-3
4.760e+1, 6.894e-3
4.770e+1, 6.869e-3
4.780e+1, 6.839e-3
4.790e+1, 6.842e-3
4.800e+1, 6.901e-3
4.810e+1, 6.919e-3
4.820e+1, 6.915e-3
4.830e+1, 6.929e-3
4.840e+1, 6.876e-3
4.850e+1, 6.835e-3
4.860e+1, 6.872e-3
4.870e+1, 6.831e-3
4.880e+1, 6.857e-3
4.890e+1, 6.832e-3
4.900e+1, 6.822e-3
4.910e+1, 6.921e-3
4.920e+1, 6.903e-3
4.930e+1, 6.921e-3
4.940e+1, 6.935e-3
4.950e+1, 6.838e-3
4.960e+1, 6.850e-3
4.970e+1, 6.825e-3
4.980e+1, 6.905e-3
4.990e+1, 6.854e-3
5.000e+1, 6.910e-3
5.010e+1, 6.873e-3
5.020e+1, 6.786e-3
5.030e+1, 6.861e-3
5.040e+1, 6.847e-3
5.050e+1, 6.939e-3
5.060e+1, 6.859e-3
5.070e+1, 6.876e-3
5.080e+1, 6.922e-3
5.090e+1, 6.963e-3
5.100e+1, 6.835e-3
5.110e+1, 6.894e-3
5.120e+1, 6.889e-3
5.130e+1, 6.907e-3
5.140e+1, 6.885e-3
5.150e+1, 6.948e-3
5.160e+1, 6.847e-3
5.170e+1, 6.863e-3
5.180e+1, 6.851e-3
5.190e+1, 6.951e-3
5.200e+1, 6.953e-3
5.210e+1, 6.985e-3
5.220e+1, 6.988e-3
5.230e+1, 6.936e-3
5.240e+1, 6.974e-3
5.250e+1, 6.960e-3
5.260e+1, 6.923e-3
5.270e+1, 6.899e-3
5.280e+1, 6.869e-3
5.290e+1, 6.945e-3
5.300e+1, 6.981e-3
5.310e+1, 6.967e-3
5.320e+1, 6.936e-3
5.330e+1, 6.866e-3
5.340e+1, 6.919e-3
5.350e+1, 6.963e-3
5.360e+1, 6.976e-3
5.370e+1, 7.134e-3
5.380e+1, 7.059e-3
5.390e+1, 7.048e-3
5.400e+1, 7.097e-3
5.410e+1, 7.051e-3
5.420e+1, 6.996e-3
5.430e+1, 7.000e-3
5.440e+1, 6.881e-3
5.450e+1, 7.019e-3
5.460e+1, 7.054e-3
5.470e+1, 7.058e-3
5.480e+1, 7.010e-3
5.490e+1, 7.094e-3
5.500e+1, 7.054e-3
5.510e+1, 6.966e-3
5.520e+1, 6.890e-3
5.530e+1, 6.818e-3
5.540e+1, 7.040e-3
5.550e+1, 7.030e-3
5.560e+1, 6.993e-3
5.570e+1, 7.018e-3
5.580e+1, 7.004e-3
5.590e+1, 6.991e-3
5.600e+1, 6.964e-3
5.610e+1, 6.936e-3
5.620e+1, 6.913e-3
5.630e+1, 6.957e-3
5.640e+1, 6.993e-3
5.650e+1, 7.005e-3
5.660e+1, 7.072e-3
5.670e+1, 7.109e-3
5.680e+1, 7.032e-3
5.690e+1, 7.083e-3
5.700e+1, 7.027e-3
5.710e+1, 7.073e-3
5.720e+1, 7.089e-3
5.730e+1, 7.041e-3
5.740e+1, 7.052e-3
5.750e+1, 7.014e-3
5.760e+1, 6.956e-3
5.770e+1, 7.026e-3
5.780e+1, 6.974e-3
5.790e+1, 6.979e-3
5.800e+1, 6.940e-3
5.810e+1, 6.950e-3
5.820e+1, 6.990e-3
5.830e+1, 7.048e-3
5.840e+1, 7.105e-3
5.850e+1, 7.013e-3
5.860e+1, 7.021e-3
5.870e+1, 7.050e-3
5.880e+1, 7.104e-3
5.890e+1, 7.127e-3
5.900e+1, 7.067e-3
5.910e+1, 7.078e-3
5.920e+1, 7.091e-3
5.930e+1, 7.112e-3
5.940e+1, 7.146e-3
5.950e+1, 7.214e-3
5.960e+1, 7.189e-3
5.970e+1, 7.126e-3
5.980e+1, 7.107e-3
5.990e+1, 7.144e-3
6.000e+1, 7.202e-3
6.010e+1, 7.226e-3
6.020e+1, 7.219e-3
6.030e+1, 7.205e-3
6.040e+1, 7.122e-3
6.050e+1, 7.160e-3
6.060e+1, 7.099e-3
6.070e+1, 7.131e-3
6.080e+1, 7.190e-3
6.090e+1, 7.141e-3
6.100e+1, 7.164e-3
6.110e+1, 7.278e-3
6.120e+1, 7.245e-3
6.130e+1, 7.205e-3
6.140e+1, 7.334e-3
6.150e+1, 7.324e-3
6.160e+1, 7.286e-3
6.170e+1, 7.275e-3
6.180e+1, 7.238e-3
6.190e+1, 7.245e-3
6.200e+1, 7.335e-3
6.210e+1, 7.253e-3
6.220e+1, 7.289e-3
6.230e+1, 7.250e-3
6.240e+1, 7.240e-3
6.250e+1, 7.208e-3
6.260e+1, 7.228e-3
6.270e+1, 7.233e-3
6.280e+1, 7.299e-3
6.290e+1, 7.238e-3
6.300e+1, 7.242e-3
6.310e+1, 7.223e-3
6.320e+1, 7.265e-3
6.330e+1, 7.191e-3
6.340e+1, 7.211e-3
6.350e+1, 7.224e-3
6.360e+1, 7.198e-3
6.370e+1, 7.269e-3
6.380e+1, 7.214e-3
6.390e+1, 7.132e-3
6.400e+1, 7.233e-3
6.410e+1, 7.212e-3
6.420e+1, 7.252e-3
6.430e+1, 7.235e-3
6.440e+1, 7.213e-3
6.450e+1, 7.210e-3
6.460e+1, 7.233e-3
6.470e+1, 7.188e-3
6.480e+1, 7.176e-3
6.490e+1, 7.304e-3
6.500e+1, 7.274e-3
6.510e+1, 7.279e-3
6.520e+1, 7.230e-3
6.530e+1, 7.236e-3
6.540e+1, 7.357e-3
6.550e+1, 7.289e-3
6.560e+1, 7.329e-3
6.570e+1, 7.291e-3
6.580e+1, 7.244e-3
6.590e+1, 7.273e-3
6.600e+1, 7.273e-3
6.610e+1, 7.248e-3
6.620e+1, 7.295e-3
6.630e+1, 7.291e-3
6.640e+1, 7.323e-3
6.650e+1, 7.349e-3
6.660e+1, 7.296e-3
6.670e+1, 7.238e-3
6.680e+1, 7.395e-3
6.690e+1, 7.383e-3
6.700e+1, 7.391e-3
6.710e+1, 7.394e-3
6.720e+1, 7.372e-3
6.730e+1, 7.421e-3
6.740e+1, 7.412e-3
6.750e+1, 7.425e-3
6.760e+1, 7.385e-3
6.770e+1, 7.412e-3
6.780e+1, 7.425e-3
6.790e+1, 7.359e-3
6.800e+1, 7.374e-3
6.810e+1, 7.317e-3
6.820e+1, 7.305e-3
6.830e+1, 7.279e-3
6.840e+1, 7.272e-3
6.850e+1, 7.283e-3
6.860e+1, 7.296e-3
6.870e+1, 7.270e-3
6.880e+1, 7.183e-3
6.890e+1, 7.269e-3
6.900e+1, 7.116e-3
6.910e+1, 7.141e-3
6.920e+1, 7.156e-3
6.930e+1, 7.066e-3
6.940e+1, 7.142e-3
6.950e+1, 7.177e-3
6.960e+1, 7.263e-3
6.970e+1, 7.253e-3
6.980e+1, 7.295e-3
6.990e+1, 7.286e-3
7.000e+1, 7.268e-3
7.010e+1, 7.294e-3
7.020e+1, 7.385e-3
7.030e+1, 7.389e-3
7.040e+1, 7.372e-3
7.050e+1, 7.355e-3
7.060e+1, 7.382e-3
7.070e+1, 7.340e-3
7.080e+1, 7.232e-3
7.090e+1, 7.315e-3
7.100e+1, 7.307e-3
7.110e+1, 7.213e-3
7.120e+1, 7.242e-3
7.130e+1, 7.240e-3
7.140e+1, 7.253e-3
7.150e+1, 7.249e-3
7.160e+1, 7.279e-3
7.170e+1, 7.255e-3
7.180e+1, 7.314e-3
7.190e+1, 7.236e-3
7.200e+1, 7.299e-3
7.210e+1, 7.323e-3
7.220e+1, 7.313e-3
7.230e+1, 7.319e-3
7.240e+1, 7.361e-3
7.250e+1, 7.299e-3
7.260e+1, 7.297e-3
7.270e+1, 7.372e-3
7.280e+1, 7.421e-3
7.290e+1, 7.400e-3
7.300e+1, 7.453e-3
7.310e+1, 7.341e-3
7.320e+1, 7.328e-3
7.330e+1, 7.362e-3
7.340e+1, 7.317e-3
7.350e+1, 7.281e-3
7.360e+1, 7.358e-3
7.370e+1, 7.324e-3
7.380e+1, 7.389e-3
7.390e+1, 7.384e-3
7.400e+1, 7.362e-3
7.410e+1, 7.302e-3
7.420e+1, 7.314e-3
7.430e+1, 7.345e-3
7.440e+1, 7.283e-3
7.450e+1, 7.308e-3
7.460e+1, 7.337e-3
7.470e+1, 7.268e-3
7.480e+1, 7.332e-3
7.490e+1, 7.316e-3
7.500e+1, 7.273e-3
7.510e+1, 7.326e-3
7.520e+1, 7.317e-3
7.530e+1, 7.326e-3
7.540e+1, 7.309e-3
7.550e+1, 7.369e-3
7.560e+1, 7.427e-3
7.570e+1, 7.432e-3
7.580e+1, 7.424e-3
7.590e+1, 7.539e-3
7.600e+1, 7.484e-3
7.610e+1, 7.479e-3
7.620e+1, 7.485e-3
7.630e+1, 7.461e-3
7.640e+1, 7.443e-3
7.650e+1, 7.480e-3
7.660e+1, 7.486e-3
7.670e+1, 7.384e-3
7.680e+1, 7.479e-3
7.690e+1, 7.422e-3
7.700e+1, 7.412e-3
7.710e+1, 7.374e-3
7.720e+1, 7.382e-3
7.730e+1, 7.363e-3
7.740e+1, 7.319e-3
7.750e+1, 7.437e-3
7.760e+1, 7.380e-3
7.770e+1, 7.426e-3
7.780e+1, 7.412e-3
7.790e+1, 7.316e-3
7.800e+1, 7.398e-3
7.810e+1, 7.352e-3
7.820e+1, 7.381e-3
7.830e+1, 7.341e-3
7.840e+1, 7.409e-3
7.850e+1, 7.405e-3
7.860e+1, 7.458e-3
7.870e+1, 7.398e-3
7.880e+1, 7.332e-3
7.890e+1, 7.338e-3
7.900e+1, 7.369e-3
7.910e+1, 7.361e-3
7.920e+1, 7.448e-3
7.930e+1, 7.496e-3
7.940e+1, 7.615e-3
7.950e+1, 7.604e-3
7.960e+1, 7.612e-3
7.970e+1, 7.598e-3
7.980e+1, 7.664e-3
7.990e+1, 7.599e-3
8.000e+1, 7.571e-3
8.010e+1, 7.502e-3
8.020e+1, 7.538e-3
8.030e+1, 7.516e-3
8.040e+1, 7.521e-3
8.050e+1, 7.471e-3
8.060e+1, 7.549e-3
8.070e+1, 7.609e-3
8.080e+1, 7.568e-3
8.090e+1, 7.589e-3
8.100e+1, 7.590e-3
8.110e+1, 7.597e-3
8.120e+1, 7.587e-3
8.130e+1, 7.593e-3
8.140e+1, 7.548e-3
8.150e+1, 7.580e-3
8.160e+1, 7.564e-3
8.170e+1, 7.542e-3
8.180e+1, 7.504e-3
8.190e+1, 7.501e-3
8.200e+1, 7.556e-3
8.210e+1, 7.504e-3
8.220e+1, 7.553e-3
8.230e+1, 7.612e-3
8.240e+1, 7.567e-3
8.250e+1, 7.554e-3
8.260e+1, 7.584e-3
8.270e+1, 7.514e-3
8.280e+1, 7.443e-3
8.290e+1, 7.521e-3
8.300e+1, 7.415e-3
8.310e+1, 7.466e-3
8.320e+1, 7.460e-3
8.330e+1, 7.537e-3
8.340e+1, 7.427e-3
8.350e+1, 7.557e-3
8.360e+1, 7.549e-3
8.370e+1, 7.588e-3
8.380e+1, 7.496e-3
8.390e+1, 7.550e-3
8.400e+1, 7.574e-3
8.410e+1, 7.611e-3
8.420e+1, 7.604e-3
8.430e+1, 7.639e-3
8.440e+1, 7.599e-3
8.450e+1, 7.614e-3
8.460e+1, 7.480e-3
8.470e+1, 7.546e-3
8.480e+1, 7.485e-3
8.490e+1, 7.547e-3
8.500e+1, 7.556e-3
8.510e+1, 7.487e-3
8.520e+1, 7.429e-3
8.530e+1, 7.443e-3
8.540e+1, 7.478e-3
8.550e+1, 7.499e-3
8.560e+1, 7.550e-3
8.570e+1, 7.565e-3
8.580e+1, 7.554e-3
8.590e+1, 7.599e-3
8.600e+1, 7.624e-3
8.610e+1, 7.650e-3
8.620e+1, 7.668e-3
8.630e+1, 7.572e-3
8.640e+1, 7.617e-3
8.650e+1, 7.589e-3
8.660e+1, 7.649e-3
8.670e+1, 7.677e-3
8.680e+1, 7.614e-3
8.690e+1, 7.624e-3
8.700e+1, 7.571e-3
8.710e+1, 7.664e-3
8.720e+1, 7.833e-3
8.730e+1, 7.925e-3
8.740e+1, 7.853e-3
8.750e+1, 7.847e-3
8.760e+1, 7.866e-3
8.770e+1, 7.783e-3
8.780e+1, 7.865e-3
8.790e+1, 7.823e-3
8.800e+1, 7.893e-3
8.810e+1, 7.808e-3
8.820e+1, 7.833e-3
8.830e+1, 7.887e-3
8.840e+1, 7.864e-3
8.850e+1, 7.857e-3
8.860e+1, 7.842e-3
8.870e+1, 7.804e-3
8.880e+1, 7.846e-3
8.890e+1, 7.870e-3
8.900e+1, 7.882e-3
8.910e+1, 7.864e-3
8.920e+1, 7.942e-3
8.930e+1, 7.877e-3
8.940e+1, 7.872e-3
8.950e+1, 7.839e-3
8.960e+1, 7.793e-3
8.970e+1, 7.859e-3
8.980e+1, 7.785e-3
8.990e+1, 7.874e-3
9.000e+1, 7.892e-3
9.010e+1, 7.892e-3
9.020e+1, 7.894e-3
9.030e+1, 7.878e-3
9.040e+1, 7.878e-3
9.050e+1, 7.827e-3
9.060e+1, 7.859e-3
9.070e+1, 7.777e-3
9.080e+1, 7.747e-3
9.090e+1, 7.800e-3
9.100e+1, 7.774e-3
9.110e+1, 7.712e-3
9.120e+1, 7.817e-3
9.130e+1, 7.734e-3
9.140e+1, 7.723e-3
9.150e+1, 7.785e-3
9.160e+1, 7.757e-3
9.170e+1, 7.652e-3
9.180e+1, 7.808e-3
9.190e+1, 7.806e-3
9.200e+1, 7.775e-3
9.210e+1, 7.874e-3
9.220e+1, 7.820e-3
9.230e+1, 7.839e-3
9.240e+1, 7.837e-3
9.250e+1, 7.903e-3
9.260e+1, 7.876e-3
9.270e+1, 7.843e-3
9.280e+1, 7.883e-3
9.290e+1, 7.838e-3
9.300e+1, 7.863e-3
9.310e+1, 7.856e-3
9.320e+1, 7.853e-3
9.330e+1, 7.821e-3
9.340e+1, 7.795e-3
9.350e+1, 6.917e-3
9.360e+1, 6.878e-3
9.370e+1, 6.896e-3
9.380e+1, 6.886e-3
9.390e+1, 6.874e-3
9.400e+1, 6.894e-3
9.410e+1, 6.924e-3
9.420e+1, 6.933e-3
9.430e+1, 6.919e-3
9.440e+1, 6.902e-3
9.450e+1, 6.910e-3
9.460e+1, 6.891e-3
9.470e+1, 6.887e-3
9.480e+1, 6.869e-3
9.490e+1, 6.859e-3
9.500e+1, 6.876e-3
9.510e+1, 6.893e-3
9.520e+1, 6.894e-3
9.530e+1, 6.867e-3
9.540e+1, 6.863e-3
9.550e+1, 6.866e-3
9.560e+1, 6.854e-3
9.570e+1, 6.854e-3
9.580e+1, 6.866e-3
9.590e+1, 6.875e-3
9.600e+1, 6.877e-3
9.610e+1, 6.871e-3
9.620e+1, 6.865e-3
9.630e+1, 6.862e-3
9.640e+1, 6.853e-3
9.650e+1, 6.850e-3
9.660e+1, 6.845e-3
9.670e+1, 6.852e-3
9.680e+1, 6.845e-3
9.690e+1, 6.850e-3
9.700e+1, 6.842e-3
9.710e+1, 6.848e-3
9.720e+1, 6.824e-3
9.730e+1, 6.831e-3
9.740e+1, 6.835e-3
9.750e+1, 6.838e-3
9.760e+1, 6.822e-3
9.770e+1, 6.809e-3
9.780e+1, 6.820e-3
9.790e+1, 6.772e-3
9.800e+1, 6.771e-3
9.810e+1, 6.751e-3
9.820e+1, 6.711e-3
9.830e+1, 6.715e-3
9.840e+1, 6.688e-3
9.850e+1, 6.746e-3
9.860e+1, 6.724e-3
9.870e+1, 6.733e-3
9.880e+1, 6.706e-3
9.890e+1, 6.689e-3
9.900e+1, 6.704e-3
9.910e+1, 6.716e-3
9.920e+1, 6.741e-3
9.930e+1, 6.754e-3
9.940e+1, 6.710e-3
9.950e+1, 6.694e-3
9.960e+1, 6.724e-3
9.970e+1, 6.732e-3
9.980e+1, 6.698e-3
9.990e+1, 6.745e-3
1.000e+2, 6.735e-3
1.001e+2, 6.752e-3
1.002e+2, 6.744e-3
1.003e+2, 6.748e-3
1.004e+2, 6.821e-3
1.005e+2, 6.827e-3
1.006e+2, 6.761e-3
1.007e+2, 6.757e-3
1.008e+2, 6.723e-3
1.009e+2, 6.736e-3
1.010e+2, 6.711e-3
1.011e+2, 6.698e-3
1.012e+2, 6.714e-3
1.013e+2, 6.702e-3
1.014e+2, 6.770e-3
1.015e+2, 6.749e-3
1.016e+2, 6.752e-3
1.017e+2, 6.719e-3
1.018e+2, 6.754e-3
1.019e+2, 6.815e-3
1.020e+2, 6.804e-3
1.021e+2, 6.771e-3
1.022e+2, 6.783e-3
1.023e+2, 6.739e-3
1.024e+2, 6.734e-3
1.025e+2, 6.695e-3
1.026e+2, 6.682e-3
1.027e+2, 6.681e-3
1.028e+2, 6.654e-3
1.029e+2, 6.695e-3
1.030e+2, 6.737e-3
1.031e+2, 6.718e-3
1.032e+2, 6.715e-3
1.033e+2, 6.682e-3
1.034e+2, 6.698e-3
1.035e+2, 6.701e-3
1.036e+2, 6.711e-3
1.037e+2, 6.715e-3
1.038e+2, 6.744e-3
1.039e+2, 6.738e-3
1.040e+2, 6.753e-3
1.041e+2, 6.754e-3
1.042e+2, 6.742e-3
1.043e+2, 6.750e-3
1.044e+2, 6.748e-3
1.045e+2, 6.748e-3
1.046e+2, 6.741e-3
1.047e+2, 6.714e-3
1.048e+2, 6.724e-3
1.049e+2, 6.712e-3
1.050e+2, 6.699e-3
1.051e+2, 6.654e-3
1.052e+2, 6.693e-3
1.053e+2, 6.693e-3
1.054e+2, 6.700e-3
1.055e+2, 6.685e-3
1.056e+2, 6.735e-3
1.057e+2, 6.706e-3
1.058e+2, 6.703e-3
1.059e+2, 6.692e-3
1.060e+2, 6.693e-3
1.061e+2, 6.674e-3
1.062e+2, 6.713e-3
1.063e+2, 6.697e-3
1.064e+2, 6.689e-3
1.065e+2, 6.697e-3
1.066e+2, 6.680e-3
1.067e+2, 6.665e-3
1.068e+2, 6.652e-3
1.069e+2, 6.631e-3
1.070e+2, 6.641e-3
1.071e+2, 6.681e-3
1.072e+2, 6.695e-3
1.073e+2, 6.685e-3
1.074e+2, 6.699e-3
1.075e+2, 6.719e-3
1.076e+2, 6.738e-3
1.077e+2, 6.708e-3
1.078e+2, 6.718e-3
1.079e+2, 6.755e-3
1.080e+2, 6.774e-3
1.081e+2, 6.792e-3
1.082e+2, 6.835e-3
1.083e+2, 6.834e-3
1.084e+2, 6.830e-3
1.085e+2, 6.792e-3
1.086e+2, 6.794e-3
1.087e+2, 6.799e-3
1.088e+2, 6.799e-3
1.089e+2, 6.775e-3
1.090e+2, 6.765e-3
1.091e+2, 6.752e-3
1.092e+2, 6.743e-3
1.093e+2, 6.735e-3
1.094e+2, 6.734e-3
1.095e+2, 6.755e-3
1.096e+2, 6.765e-3
1.097e+2, 6.752e-3
1.098e+2, 6.745e-3
1.099e+2, 6.742e-3
1.100e+2, 6.738e-3
1.101e+2, 6.719e-3
1.102e+2, 6.723e-3
1.103e+2, 6.735e-3
1.104e+2, 6.774e-3
1.105e+2, 6.782e-3
1.106e+2, 6.797e-3
1.107e+2, 6.797e-3
1.108e+2, 6.778e-3
1.109e+2, 6.757e-3
1.110e+2, 6.746e-3
1.111e+2, 6.761e-3
1.112e+2, 6.743e-3
1.113e+2, 6.754e-3
1.114e+2, 6.737e-3
1.115e+2, 6.729e-3
1.116e+2, 6.714e-3
1.117e+2, 6.704e-3
1.118e+2, 6.700e-3
1.119e+2, 6.733e-3
1.120e+2, 6.717e-3
1.121e+2, 6.729e-3
1.122e+2, 6.710e-3
1.123e+2, 6.703e-3
1.124e+2, 6.689e-3
1.125e+2, 6.675e-3
1.126e+2, 6.672e-3
1.127e+2, 6.654e-3
1.128e+2, 6.671e-3
1.129e+2, 6.677e-3
1.130e+2, 6.663e-3
1.131e+2, 6.659e-3
1.132e+2, 6.650e-3
1.133e+2, 6.615e-3
1.134e+2, 6.619e-3
1.135e+2, 6.589e-3
1.136e+2, 6.577e-3
1.137e+2, 6.649e-3
1.138e+2, 6.585e-3
1.139e+2, 6.615e-3
1.140e+2, 6.561e-3
1.141e+2, 6.612e-3
1.142e+2, 6.553e-3
1.143e+2, 6.604e-3
1.144e+2, 6.677e-3
1.145e+2, 6.624e-3
1.146e+2, 6.678e-3
1.147e+2, 6.651e-3
1.148e+2, 6.633e-3
1.149e+2, 6.600e-3
1.150e+2, 6.622e-3
1.151e+2, 6.631e-3
1.152e+2, 6.615e-3
1.153e+2, 6.612e-3
1.154e+2, 6.624e-3
1.155e+2, 6.618e-3
1.156e+2, 6.602e-3
1.157e+2, 6.620e-3
1.158e+2, 6.550e-3
1.159e+2, 6.547e-3
1.160e+2, 6.507e-3
1.161e+2, 6.554e-3
1.162e+2, 6.597e-3
1.163e+2, 6.523e-3
1.164e+2, 6.567e-3
1.165e+2, 6.569e-3
1.166e+2, 6.570e-3
1.167e+2, 6.584e-3
1.168e+2, 6.580e-3
1.169e+2, 6.546e-3
1.170e+2, 6.546e-3
1.171e+2, 6.499e-3
1.172e+2, 6.472e-3
1.173e+2, 6.476e-3
1.174e+2, 6.483e-3
1.175e+2, 6.505e-3
1.176e+2, 6.558e-3
1.177e+2, 6.515e-3
1.178e+2, 6.522e-3
1.179e+2, 6.518e-3
1.180e+2, 6.532e-3
1.181e+2, 6.536e-3
1.182e+2, 6.520e-3
1.183e+2, 6.507e-3
1.184e+2, 6.480e-3
1.185e+2, 6.489e-3
1.186e+2, 6.481e-3
1.187e+2, 6.500e-3
1.188e+2, 6.509e-3
1.189e+2, 6.525e-3
1.190e+2, 6.495e-3
1.191e+2, 6.501e-3
1.192e+2, 6.499e-3
1.193e+2, 6.502e-3
1.194e+2, 6.495e-3
1.195e+2, 6.515e-3
1.196e+2, 6.520e-3
1.197e+2, 6.534e-3
1.198e+2, 6.508e-3
1.199e+2, 6.463e-3
1.200e+2, 6.441e-3
1.201e+2, 6.466e-3
1.202e+2, 6.431e-3
1.203e+2, 6.478e-3
1.204e+2, 6.465e-3
1.205e+2, 6.468e-3
1.206e+2, 6.476e-3
1.207e+2, 6.482e-3
1.208e+2, 6.603e-3
1.209e+2, 6.572e-3
1.210e+2, 6.654e-3
1.211e+2, 6.618e-3
1.212e+2, 6.608e-3
1.213e+2, 6.619e-3
1.214e+2, 6.605e-3
1.215e+2, 6.617e-3
1.216e+2, 6.628e-3
1.217e+2, 6.631e-3
1.218e+2, 6.653e-3
1.219e+2, 6.681e-3
1.220e+2, 6.642e-3
1.221e+2, 6.586e-3
1.222e+2, 6.609e-3
1.223e+2, 6.624e-3
1.224e+2, 6.587e-3
1.225e+2, 6.594e-3
1.226e+2, 6.599e-3
1.227e+2, 6.593e-3
1.228e+2, 6.598e-3
1.229e+2, 6.585e-3
1.230e+2, 6.549e-3
1.231e+2, 6.547e-3
1.232e+2, 6.581e-3
1.233e+2, 6.709e-3
1.234e+2, 6.730e-3
1.235e+2, 6.751e-3
1.236e+2, 6.753e-3
1.237e+2, 6.783e-3
1.238e+2, 6.770e-3
1.239e+2, 6.761e-3
1.240e+2, 6.785e-3
1.241e+2, 6.807e-3
1.242e+2, 6.803e-3
1.243e+2, 6.784e-3
1.244e+2, 6.816e-3
1.245e+2, 6.810e-3
1.246e+2, 6.800e-3
1.247e+2, 6.791e-3
1.248e+2, 6.802e-3
1.249e+2, 6.768e-3
1.250e+2, 6.755e-3
1.251e+2, 6.767e-3
1.252e+2, 6.765e-3
1.253e+2, 6.802e-3
1.254e+2, 6.838e-3
1.255e+2, 6.836e-3
1.256e+2, 6.870e-3
1.257e+2, 6.859e-3
1.258e+2, 6.873e-3
1.259e+2, 6.894e-3
1.260e+2, 6.924e-3
1.261e+2, 6.919e-3
1.262e+2, 6.957e-3
1.263e+2, 6.965e-3
1.264e+2, 6.971e-3
1.265e+2, 6.996e-3
1.266e+2, 6.973e-3
1.267e+2, 6.960e-3
1.268e+2, 6.940e-3
1.269e+2, 6.908e-3
1.270e+2, 6.943e-3
1.271e+2, 6.964e-3
1.272e+2, 6.977e-3
1.273e+2, 6.965e-3
1.274e+2, 6.948e-3
1.275e+2, 6.962e-3
1.276e+2, 6.928e-3
1.277e+2, 6.892e-3
1.278e+2, 6.882e-3
1.279e+2, 6.903e-3
1.280e+2, 6.910e-3
1.281e+2, 6.904e-3
1.282e+2, 6.927e-3
1.283e+2, 6.948e-3
1.284e+2, 6.925e-3
1.285e+2, 6.922e-3
1.286e+2, 6.937e-3
1.287e+2, 6.949e-3
1.288e+2, 6.953e-3
1.289e+2, 6.958e-3
1.290e+2, 6.918e-3
1.291e+2, 6.908e-3
1.292e+2, 6.904e-3
1.293e+2, 6.913e-3
1.294e+2, 6.877e-3
1.295e+2, 6.893e-3
1.296e+2, 6.889e-3
1.297e+2, 6.880e-3
1.298e+2, 6.890e-3
1.299e+2, 6.929e-3
1.300e+2, 6.933e-3
1.301e+2, 6.914e-3
1.302e+2, 6.924e-3
1.303e+2, 6.918e-3
1.304e+2, 6.916e-3
1.305e+2, 6.896e-3
1.306e+2, 6.850e-3
1.307e+2, 6.883e-3
1.308e+2, 6.880e-3
1.309e+2, 6.881e-3
1.310e+2, 6.874e-3
1.311e+2, 6.862e-3
1.312e+2, 6.865e-3
1.313e+2, 6.911e-3
1.314e+2, 6.916e-3
1.315e+2, 6.945e-3
1.316e+2, 6.992e-3
1.317e+2, 6.966e-3
1.318e+2, 6.948e-3
1.319e+2, 6.981e-3
1.320e+2, 6.957e-3
1.321e+2, 6.974e-3
1.322e+2, 6.983e-3
1.323e+2, 6.994e-3
1.324e+2, 7.021e-3
1.325e+2, 7.039e-3
1.326e+2, 7.022e-3
1.327e+2, 6.984e-3
1.328e+2, 6.982e-3
1.329e+2, 6.975e-3
1.330e+2, 7.000e-3
1.331e+2, 6.989e-3
1.332e+2, 7.001e-3
1.333e+2, 6.997e-3
1.334e+2, 6.994e-3
1.335e+2, 6.989e-3
1.336e+2, 6.990e-3
1.337e+2, 7.004e-3
1.338e+2, 7.039e-3
1.339e+2, 7.043e-3
1.340e+2, 7.172e-3
1.341e+2, 7.206e-3
1.342e+2, 7.295e-3
1.343e+2, 7.229e-3
1.344e+2, 7.258e-3
1.345e+2, 7.221e-3
1.346e+2, 7.246e-3
1.347e+2, 7.500e-3
1.348e+2, 7.562e-3
1.349e+2, 7.531e-3
1.350e+2, 7.531e-3
1.351e+2, 7.527e-3
1.352e+2, 7.518e-3
1.353e+2, 7.514e-3
1.354e+2, 7.499e-3
1.355e+2, 7.515e-3
1.356e+2, 7.531e-3
1.357e+2, 7.559e-3
1.358e+2, 7.580e-3
1.359e+2, 7.563e-3
1.360e+2, 7.536e-3
1.361e+2, 7.523e-3
1.362e+2, 7.517e-3
1.363e+2, 7.532e-3
1.364e+2, 7.550e-3
1.365e+2, 7.572e-3
1.366e+2, 7.563e-3
1.367e+2, 7.560e-3
1.368e+2, 7.543e-3
1.369e+2, 7.557e-3
1.370e+2, 7.557e-3
1.371e+2, 7.566e-3
1.372e+2, 7.561e-3
1.373e+2, 7.567e-3
1.374e+2, 7.560e-3
1.375e+2, 7.597e-3
1.376e+2, 7.609e-3
1.377e+2, 7.588e-3
1.378e+2, 7.583e-3
1.379e+2, 7.611e-3
1.380e+2, 7.589e-3
1.381e+2, 7.582e-3
1.382e+2, 7.578e-3
1.383e+2, 7.568e-3
1.384e+2, 7.532e-3
1.385e+2, 7.522e-3
1.386e+2, 7.501e-3
1.387e+2, 7.517e-3
1.388e+2, 7.504e-3
1.389e+2, 7.486e-3
1.390e+2, 7.497e-3
1.391e+2, 7.500e-3
1.392e+2, 7.539e-3
1.393e+2, 7.549e-3
1.394e+2, 7.545e-3
1.395e+2, 7.478e-3
1.396e+2, 7.466e-3
1.397e+2, 7.482e-3
1.398e+2, 7.489e-3
1.399e+2, 7.480e-3
1.400e+2, 7.487e-3
1.401e+2, 7.451e-3
1.402e+2, 7.455e-3
1.403e+2, 7.438e-3
1.404e+2, 7.435e-3
1.405e+2, 7.415e-3
1.406e+2, 7.381e-3
1.407e+2, 7.397e-3
1.408e+2, 7.416e-3
1.409e+2, 7.426e-3
1.410e+2, 7.433e-3
1.411e+2, 7.495e-3
1.412e+2, 7.483e-3
1.413e+2, 7.477e-3
1.414e+2, 7.473e-3
1.415e+2, 7.477e-3
1.416e+2, 7.459e-3
1.417e+2, 7.490e-3
1.418e+2, 7.517e-3
1.419e+2, 7.547e-3
1.420e+2, 7.563e-3
1.421e+2, 7.584e-3
1.422e+2, 7.591e-3
1.423e+2, 7.597e-3
1.424e+2, 7.593e-3
1.425e+2, 7.585e-3
1.426e+2, 7.601e-3
1.427e+2, 7.562e-3
1.428e+2, 7.534e-3
1.429e+2, 7.552e-3
1.430e+2, 7.549e-3
1.431e+2, 7.527e-3
1.432e+2, 7.525e-3
1.433e+2, 7.490e-3
1.434e+2, 7.516e-3
1.435e+2, 7.543e-3
1.436e+2, 7.532e-3
1.437e+2, 7.536e-3
1.438e+2, 7.529e-3
1.439e+2, 7.542e-3
1.440e+2, 7.520e-3
1.441e+2, 7.511e-3
1.442e+2, 7.527e-3
1.443e+2, 7.546e-3
1.444e+2, 7.542e-3
1.445e+2, 7.527e-3
1.446e+2, 7.521e-3
1.447e+2, 7.540e-3
1.448e+2, 7.526e-3
1.449e+2, 7.542e-3
1.450e+2, 7.514e-3
1.451e+2, 7.530e-3
1.452e+2, 7.562e-3
1.453e+2, 7.616e-3
1.454e+2, 7.631e-3
1.455e+2, 7.631e-3
1.456e+2, 7.592e-3
1.457e+2, 7.610e-3
1.458e+2, 7.605e-3
1.459e+2, 7.625e-3
1.460e+2, 7.617e-3
1.461e+2, 7.603e-3
1.462e+2, 7.606e-3
1.463e+2, 7.590e-3
1.464e+2, 7.566e-3
1.465e+2, 7.525e-3
1.466e+2, 7.539e-3
1.467e+2, 7.553e-3
1.468e+2, 7.544e-3
1.469e+2, 7.503e-3
1.470e+2, 7.508e-3
1.471e+2, 7.509e-3
1.472e+2, 7.507e-3
1.473e+2, 7.518e-3
1.474e+2, 7.531e-3
1.475e+2, 7.525e-3
1.476e+2, 7.522e-3
1.477e+2, 7.538e-3
1.478e+2, 7.543e-3
1.479e+2, 7.544e-3
1.480e+2, 7.541e-3
1.481e+2, 7.540e-3
1.482e+2, 7.545e-3
1.483e+2, 7.548e-3
1.484e+2, 7.582e-3
1.485e+2, 7.590e-3
1.486e+2, 7.594e-3
1.487e+2, 7.572e-3
1.488e+2, 7.566e-3
1.489e+2, 7.548e-3
1.490e+2, 7.569e-3
1.491e+2, 7.579e-3
1.492e+2, 7.588e-3
1.493e+2, 7.580e-3
1.494e+2, 7.576e-3
1.495e+2, 7.554e-3
1.496e+2, 7.553e-3
1.497e+2, 7.547e-3
1.498e+2, 7.557e-3
1.499e+2, 7.507e-3
1.500e+2, 7.471e-3
