Potential V vs RHE, Current mA cm-2
0.013299999999999867,-0.5692798270656908
0.012299999999999978,-2.4446211261667834
0.011299999999999866,-3.7532290785419424
0.010299999999999976,-4.843971490737885
0.009299999999999864,-5.629136262162981
0.008299999999999974,-6.238876832404812
0.007299999999999862,-6.6760226240631075
0.006299999999999972,-7.024041603829907
0.00529999999999986,-7.37347529489657
0.0042999999999999705,-7.722908985963235
0.0032999999999998586,-8.11478401602585
0.0022999999999999687,-8.4203616567967
0.0012999999999998568,-8.725939297567548
0.00029999999999996696,-8.943804837746763
-0.000700000000000145,-9.11781432763016
-0.0017000000000000348,-9.205526428221793
-0.0027000000000001467,-9.293238528813426
-0.0037000000000000366,-9.467248018696827
-0.0047000000000001485,-9.641257508580225
-0.005700000000000038,-9.81668170976349
-0.00670000000000015,-10.034547249942705
-0.00770000000000004,-10.120844639234473
-0.008700000000000152,-10.208556739826104
-0.009700000000000042,-10.25241279012192
-0.010700000000000154,-10.25241279012192
-0.011700000000000044,-10.340124890713554
-0.012700000000000156,-10.42642228000532
-0.013700000000000045,-10.557990430892769
-0.014700000000000157,-10.688143870480351
-0.015700000000000047,-10.775855971071984
-0.01670000000000016,-10.863568071663616
-0.01770000000000005,-10.819712021367803
-0.01870000000000016,-10.819712021367803
-0.01970000000000005,-10.819712021367803
-0.020700000000000163,-10.819712021367803
-0.021700000000000053,-10.949865460955383
-0.022700000000000164,-11.081433611842833
-0.023700000000000054,-11.1677310011346
-0.024700000000000166,-11.211587051430415
-0.025700000000000056,-11.1677310011346
-0.026700000000000168,-11.123874950838783
-0.027700000000000058,-11.123874950838783
-0.02870000000000017,-11.123874950838783
-0.02970000000000006,-11.211587051430415
-0.03070000000000017,-11.299299152022046
-0.03170000000000006,-11.385596541313816
-0.03270000000000017,-11.42945259160963
-0.03370000000000006,-11.42945259160963
-0.034700000000000175,-11.385596541313816
-0.035700000000000065,-11.343155202317865
-0.03670000000000018,-11.343155202317865
-0.03770000000000007,-11.385596541313816
-0.03870000000000018,-11.473308641905447
-0.03970000000000007,-11.56102074249708
-0.04070000000000018,-11.647318131788847
-0.04170000000000007,-11.647318131788847
-0.04270000000000018,-11.56102074249708
-0.04370000000000007,-11.56102074249708
-0.044700000000000184,-11.517164692201263
-0.045700000000000074,-11.517164692201263
-0.046700000000000186,-11.604876792792895
-0.047700000000000076,-11.647318131788847
-0.04870000000000019,-11.73503023238048
-0.04970000000000008,-11.778886282676295
-0.05070000000000019,-11.73503023238048
-0.05170000000000008,-11.691174182084664
-0.05270000000000019,-11.604876792792895
-0.05370000000000008,-11.604876792792895
-0.05470000000000019,-11.691174182084664
-0.05570000000000008,-11.778886282676295
-0.056700000000000195,-11.86659838326793
-0.057700000000000085,-11.909039722263879
-0.058700000000000196,-11.86659838326793
-0.059700000000000086,-11.82274233297211
-0.0607000000000002,-11.73503023238048
-0.06170000000000009,-11.778886282676295
-0.0627000000000002,-11.778886282676295
-0.06370000000000009,-11.82274233297211
-0.0647000000000002,-11.952895772559694
-0.06570000000000009,-11.996751822855511
-0.0667000000000002,-11.996751822855511
-0.0677000000000001,-11.952895772559694
-0.0687000000000002,-11.86659838326793
-0.0697000000000001,-11.82274233297211
-0.07070000000000021,-11.86659838326793
-0.0717000000000001,-11.909039722263879
-0.07270000000000021,-11.996751822855511
-0.0737000000000001,-12.084463923447142
-0.07470000000000021,-12.084463923447142
-0.0757000000000001,-12.040607873151327
-0.07670000000000021,-11.996751822855511
-0.0777000000000001,-11.952895772559694
-0.07870000000000021,-11.952895772559694
-0.0797000000000001,-11.996751822855511
-0.08070000000000022,-12.084463923447142
-0.0817000000000001,-12.170761312738911
-0.08270000000000022,-12.214617363034726
-0.08370000000000011,-12.170761312738911
-0.08470000000000022,-12.12831997374296
-0.08570000000000011,-12.084463923447142
-0.08670000000000022,-12.040607873151327
-0.08770000000000011,-12.084463923447142
-0.08870000000000022,-12.170761312738911
-0.08970000000000011,-12.258473413330542
-0.09070000000000022,-12.302329463626359
-0.09170000000000011,-12.302329463626359
-0.09270000000000023,-12.258473413330542
-0.09370000000000012,-12.214617363034726
-0.09470000000000023,-12.170761312738911
-0.09570000000000012,-12.170761312738911
-0.09670000000000023,-12.258473413330542
-0.09770000000000012,-12.302329463626359
-0.09870000000000023,-12.390041564217992
-0.09970000000000012,-12.432482903213943
-0.10070000000000023,-12.390041564217992
-0.10170000000000012,-12.346185513922174
-0.10270000000000024,-12.302329463626359
-0.10370000000000013,-12.302329463626359
-0.10470000000000024,-12.346185513922174
-0.10570000000000013,-12.476338953509758
-0.10670000000000024,-12.520195003805576
-0.10770000000000013,-12.56405105410139
-0.10870000000000024,-12.56405105410139
-0.10970000000000013,-12.520195003805576
-0.11070000000000024,-12.476338953509758
-0.11170000000000013,-12.432482903213943
-0.11270000000000002,-12.520195003805576
-0.11370000000000013,-12.607907104397206
-0.11470000000000002,-12.694204493688973
-0.11570000000000014,-12.73806054398479
-0.11670000000000003,-12.73806054398479
-0.11770000000000014,-12.694204493688973
-0.11870000000000003,-12.651763154693022
-0.11970000000000014,-12.651763154693022
-0.12070000000000003,-12.651763154693022
-0.12170000000000014,-12.73806054398479
-0.12270000000000003,-12.825772644576423
-0.12370000000000014,-12.955926084164007
-0.12470000000000003,-12.955926084164007
-0.12570000000000014,-12.955926084164007
-0.12670000000000003,-12.913484745168056
-0.12770000000000015,-12.825772644576423
-0.12870000000000004,-12.869628694872238
-0.12970000000000015,-12.955926084164007
-0.13070000000000004,-13.043638184755638
-0.13170000000000015,-13.13135028534727
-0.13270000000000004,-13.175206335643086
-0.13370000000000015,-13.175206335643086
-0.13470000000000004,-13.175206335643086
-0.13570000000000015,-13.087494235051453
-0.13670000000000004,-13.087494235051453
-0.13770000000000016,-13.175206335643086
-0.13870000000000005,-13.261503724934855
-0.13970000000000016,-13.349215825526485
-0.14070000000000005,-13.436927926118118
-0.14170000000000016,-13.47936926511407
-0.14270000000000005,-13.436927926118118
-0.14370000000000016,-13.3930718758223
-0.14470000000000005,-13.3930718758223
-0.14570000000000016,-13.436927926118118
-0.14670000000000005,-13.523225315409885
-0.14770000000000016,-13.610937416001518
-0.14870000000000005,-13.741090855589102
-0.14970000000000017,-13.784946905884919
-0.15070000000000006,-13.741090855589102
-0.15170000000000017,-13.741090855589102
-0.15270000000000006,-13.741090855589102
-0.15370000000000017,-13.741090855589102
-0.15470000000000006,-13.828802956180734
-0.15570000000000017,-13.960371107068182
-0.15670000000000006,-14.090524546655764
-0.15770000000000017,-14.13438059695158
-0.15870000000000006,-14.13438059695158
-0.15970000000000018,-14.13438059695158
-0.16070000000000007,-14.090524546655764
-0.16170000000000018,-14.13438059695158
-0.16270000000000007,-14.175407224647667
-0.16370000000000018,-14.30273124163552
-0.16470000000000007,-14.444202371622024
-0.16570000000000018,-14.529085049613924
-0.16670000000000007,-14.57152638860988
-0.16770000000000018,-14.529085049613924
-0.16870000000000007,-14.529085049613924
-0.16970000000000018,-14.529085049613924
-0.17070000000000007,-14.57152638860988
-0.17170000000000019,-14.69885040559773
-0.17270000000000008,-14.783733083589633
-0.1737000000000002,-14.925204213576137
-0.17470000000000008,-15.01008689156804
-0.1757000000000002,-14.967645552572087
-0.17670000000000008,-15.01008689156804
-0.1777000000000002,-14.967645552572087
-0.17870000000000008,-15.01008689156804
-0.1797000000000002,-15.094969569559943
-0.18070000000000008,-15.222293586547794
-0.1817000000000002,-15.349617603535648
-0.18270000000000008,-15.448647394526201
-0.1837000000000002,-15.448647394526201
-0.1847000000000001,-15.491088733522153
-0.1857000000000002,-15.448647394526201
-0.1867000000000001,-15.491088733522153
-0.1877000000000002,-15.575971411514052
-0.1887000000000001,-15.70329542850191
-0.1897000000000002,-15.830619445489761
-0.1907000000000001,-15.91550212348166
-0.1917000000000001,-15.972090575476265
-0.19269999999999998,-16.014531914472215
-0.1937000000000001,-16.014531914472215
-0.19469999999999998,-16.014531914472215
-0.1957000000000001,-16.056973253468165
-0.19669999999999999,-16.184297270456018
-0.1977000000000001,-16.311621287443874
-0.1987,-16.495533756426326
-0.1997000000000001,-16.580416434418233
-0.2007,-16.580416434418233
-0.2017000000000001,-16.580416434418233
-0.2027,-16.580416434418233
-0.2037000000000001,-16.665299112410132
-0.2047,-16.750181790402035
-0.2057000000000001,-16.877505807389888
-0.2067,-17.061418276372343
-0.2077000000000001,-17.146300954364243
-0.2087,-17.188742293360193
-0.2097000000000001,-17.188742293360193
-0.2107,-17.188742293360193
-0.2117000000000001,-17.2736249713521
-0.2127,-17.316066310348052
-0.2137000000000001,-17.4433903273359
-0.2147,-17.669744135314307
-0.2157000000000001,-17.797068152302163
-0.2167,-17.839509491298113
-0.21770000000000012,-17.881950830294063
-0.2187,-17.881950830294063
-0.21970000000000012,-17.924392169290012
-0.2207,-17.966833508285966
-0.22170000000000012,-18.15074597726842
-0.2227,-18.27806999425627
-0.22370000000000012,-18.44783535024008
-0.2247,-18.53271802823198
-0.22570000000000012,-18.589306480226583
-0.2267,-18.631747819222536
-0.22770000000000012,-18.631747819222536
-0.22870000000000001,-18.716630497214435
-0.22970000000000013,-18.843954514202288
-0.23070000000000002,-19.01371987018609
-0.23170000000000013,-19.197632339168546
-0.23270000000000002,-19.3249563561564
-0.23370000000000013,-19.367397695152352
-0.23470000000000002,-19.409839034148305
-0.23570000000000013,-19.409839034148305
-0.23670000000000002,-19.49472171214021
-0.2376999999999999,-19.636192842126707
-0.23870000000000002,-19.763516859114564
-0.2396999999999999,-19.97572355409432
-0.24070000000000003,-20.10304757108217
-0.24169999999999991,-20.202077362072725
-0.24270000000000003,-20.244518701068674
-0.24369999999999992,-20.286960040064624
-0.24470000000000003,-20.329401379060574
-0.24569999999999992,-20.414284057052477
-0.24670000000000003,-20.626490752032236
-0.24769999999999992,-20.76796188201874
-0.24870000000000003,-20.93772723800254
-0.24969999999999992,-21.065051254990397
-0.25070000000000003,-21.149933932982297
-0.2516999999999999,-21.2065223849769
-0.25270000000000004,-21.2065223849769
-0.2536999999999999,-21.333846401964752
-0.25470000000000004,-21.503611757948562
-0.2556999999999999,-21.63093577493641
-0.25670000000000004,-21.857289582914817
-0.25769999999999993,-21.98461359990267
-0.25870000000000004,-22.027054938898623
-0.25969999999999993,-22.15437895588647
-0.26070000000000004,-22.15437895588647
-0.26169999999999993,-22.253408746877028
-0.26270000000000004,-22.38073276386488
-0.26369999999999993,-22.592939458844636
-0.26470000000000005,-22.776851927827092
-0.26569999999999994,-22.946617283810895
-0.26670000000000005,-23.073941300798747
-0.26769999999999994,-23.15882397879065
-0.26870000000000005,-23.2012653177866
-0.26969999999999994,-23.24370665678255
-0.27070000000000005,-23.385177786769056
-0.27169999999999994,-23.55494314275286
-0.27270000000000005,-23.767149837732617
-0.27369999999999994,-23.993503645711023
-0.27470000000000006,-24.078386323702922
-0.27569999999999995,-24.20571034069078
-0.27670000000000006,-24.24815167968673
-0.27769999999999995,-24.290593018682678
-0.27870000000000006,-24.432064148669184
-0.27969999999999995,-24.559388165657033
-0.28070000000000006,-24.771594860636792
-0.28169999999999995,-25.04039000761115
-0.28270000000000006,-25.167714024599
-0.28369999999999995,-25.252596702590903
-0.28470000000000006,-25.337479380582806
-0.28569999999999995,-25.43650917157336
-0.28670000000000007,-25.521391849565262
-0.28769999999999996,-25.648715866553115
-0.28870000000000007,-25.86092256153287
-0.28969999999999996,-26.087276369511276
-0.29070000000000007,-26.257041725495082
-0.29169999999999996,-26.38436574248293
-0.29270000000000007,-26.483395533473487
-0.29369999999999996,-26.525836872469437
-0.2947000000000001,-26.65316088945729
-0.29569999999999996,-26.780484906445146
-0.2967000000000001,-26.9643973754276
-0.29769999999999996,-27.176604070407354
-0.2987000000000001,-27.38881076538711
-0.29969999999999997,-27.572723234369565
-0.3007000000000001,-27.65760591236147
-0.30169999999999997,-27.700047251357418
-0.3027000000000001,-27.827371268345274
-0.30369999999999997,-27.912253946337174
-0.3047000000000001,-28.13860775431558
-0.30569999999999997,-28.350814449295335
-0.3067000000000001,-28.577168257273744
-0.3077,-28.746933613257543
-0.3087000000000001,-28.8742576302454
-0.3097,-28.959140308237306
-0.3107000000000001,-29.058170099227848
-0.3117,-29.14305277721976
-0.3127000000000001,-29.31281813320356
-0.3137,-29.525024828183312
-0.3147000000000001,-29.793819975157668
-0.3157,-30.00602667013743
-0.3167000000000001,-30.189939139119886
-0.3177,-30.274821817111786
-0.3187000000000001,-30.359704495103685
-0.3197,-30.487028512091538
-0.3207000000000001,-30.614352529079397
-0.3217,-30.8407063370578
-0.3227000000000001,-31.095354371033505
-0.3237,-31.321708179011907
-0.3247000000000001,-31.533914873991666
-0.3257,-31.618797551983565
-0.3267000000000001,-31.76026868197007
-0.3277,-31.84515135996197
-0.3287000000000001,-32.01491671594578
-0.3297,-32.24127052392419
-0.3307000000000001,-32.45347721890394
-0.3317,-32.764713704874254
-0.3327000000000001,-32.93447906085806
-0.3337,-33.06180307784591
-0.3347000000000001,-33.18912709483376
-0.3357,-33.288156885824314
-0.3367000000000001,-33.45792224180811
-0.3377,-33.670128936787876
-0.3387000000000001,-33.89648274476628
-0.3397,-34.15113077874198
-0.3407000000000001,-34.377484586720385
-0.3417,-34.58969128170015
-0.3427000000000001,-34.717015298688004
-0.3437,-34.8018979766799
-0.3447000000000001,-34.98581044566235
-0.3457,-35.15557580164616
-0.3467000000000001,-35.38192960962457
-0.3477,-35.636577643600276
-0.3487000000000001,-35.90537279057463
-0.3497,-36.11757948555439
-0.3507000000000001,-36.244903502542236
-0.3517,-36.37222751953009
-0.3527000000000001,-36.55613998851254
-0.3537,-36.725905344496354
-0.3547000000000001,-36.95225915247476
-0.3557,-37.206907186450465
-0.35670000000000013,-37.51814367242077
-0.3577,-37.73035036740053
-0.35870000000000013,-37.90011572338433
-0.3597,-38.08402819236679
-0.36070000000000013,-38.211352209354644
-0.3617,-38.38111756533845
-0.3626999999999999,-38.607471373316855
-0.3637,-38.86211940729255
-0.3646999999999999,-39.173355893262865
-0.3657,-39.42800392723857
-0.3666999999999999,-39.654357735216976
-0.3677,-39.78168175220483
-0.3686999999999999,-39.95144710818864
-0.36970000000000003,-40.135359577171094
-0.3706999999999999,-40.34756627215084
-0.37170000000000003,-40.65880275812115
-0.3726999999999999,-40.91345079209687
-0.37370000000000003,-41.22468727806717
-0.3746999999999999,-41.47933531204288
-0.37570000000000003,-41.606659329030734
-0.3766999999999999,-41.83301313700913
-0.37770000000000004,-41.96033715399699
-0.3786999999999999,-42.186690961975394
-0.37970000000000004,-42.4413389959511
-0.3806999999999999,-42.752575481921404
-0.38170000000000004,-43.04966485489307
-0.38269999999999993,-43.31846000186743
-0.38370000000000004,-43.53066669684718
-0.38469999999999993,-43.75702050482558
-0.38570000000000004,-43.88434452181344
-0.38669999999999993,-44.096551216793195
-0.38770000000000004,-44.4077877027635
-0.38869999999999993,-44.704877075735155
-0.38970000000000005,-45.05855490070142
-0.39069999999999994,-45.36979138667173
-0.39170000000000005,-45.624439420647434
-0.39269999999999994,-45.79420477663124
-0.39370000000000005,-46.02055858460964
-0.39469999999999994,-46.2327652795894
-0.39570000000000005,-46.501560426563756
-0.39669999999999994,-46.79864979953541
-0.39770000000000005,-47.15232762450167
-0.39869999999999994,-47.506005449467935
-0.39970000000000006,-47.80309482243959
-0.40069999999999995,-48.029448630417996
-0.40170000000000006,-48.2840966643937
-0.40269999999999995,-48.51045047237211
-0.40370000000000006,-48.76509850634781
-0.40469999999999995,-49.076334992318124
-0.40570000000000006,-49.458307043281685
-0.40669999999999995,-49.85442620724389
-0.40770000000000006,-50.1656626932142
-0.40869999999999995,-50.46275206618586
-0.40970000000000006,-50.73154721316022
-0.41069999999999995,-50.943753908139975
-0.41170000000000007,-51.25499039411028
-0.41269999999999996,-51.55207976708194
-0.41370000000000007,-51.948198931044146
-0.41469999999999996,-52.386759434002315
-0.41570000000000007,-52.74043725896857
-0.41669999999999996,-53.079967970936174
-0.41770000000000007,-53.348763117910536
-0.41869999999999996,-53.603411151886235
-0.4197000000000001,-53.91464763785655
-0.42069999999999996,-54.26832546282281
-0.4217000000000001,-54.65029751378637
-0.42269999999999996,-55.088858016744524
-0.4237000000000001,-55.484977180706736
-0.42469999999999997,-55.881096344668954
-0.4257000000000001,-56.1781857176406
-0.42669999999999997,-56.489422203610914
-0.4277000000000001,-56.786511576582576
-0.42869999999999997,-57.14018940154883
-0.4297000000000001,-57.53630856551105
-0.43069999999999997,-58.017310407465146
-0.4317000000000001,-58.45587091042332
-0.4327,-58.880284300382826
-0.4337000000000001,-59.23396212534908
-0.4347,-59.54519861131939
-0.4357000000000001,-59.884729323287
-0.4367,-60.28084848724921
-0.4377000000000001,-60.67696765121143
-0.4387,-61.15796949316553
-0.4397000000000001,-61.63897133511965
-0.4407,-62.06338472507916
-0.4417000000000001,-62.501945228037314
-0.4427,-62.855623053003576
-0.4437000000000001,-63.251742216965795
-0.4447,-63.59127292893339
-0.4457000000000001,-64.0722747708875
-0.4467,-64.55327661284163
-0.4477000000000001,-65.03427845479574
-0.4487,-65.5577216357458
-0.4497000000000001,-66.03872347769992
-0.4507,-66.43484264166212
-0.4517000000000001,-66.81681469262568
-0.4527,-67.17049251759194
-0.4537000000000001,-67.65149435954605
-0.4547,-68.17493754049613
-0.4557000000000001,-68.74082206044213
-0.4567,-69.26426524139221
-0.4577000000000001,-69.8301497613382
-0.4587,-70.26871026429637
-0.4597000000000001,-70.70727076725453
-0.4607,-71.10338993121674
-0.4617000000000001,-71.52780332117625
-0.4627,-72.10783495412092
-0.4637000000000001,-72.63127813507097
-0.4647,-73.197162655017
-0.4657000000000001,-73.76304717496302
-0.4667,-74.28649035591307
-0.4677000000000001,-74.76749219786718
-0.4687,-75.19190558782671
-0.4697000000000001,-75.6729074297808
-0.4707,-76.19635061073087
-0.4717000000000001,-76.81882358267148
-0.4727,-77.42714944161345
-0.4737000000000001,-78.03547530055542
-0.4747,-78.60135982050144
-0.4757000000000001,-79.08236166245555
-0.4767,-79.60580484340561
-0.4777000000000001,-80.08680668535972
-0.4787,-80.65269120530574
-0.4797000000000001,-81.30345840324367
-0.4807,-81.95422560118158
-0.48170000000000013,-82.61913991211814
-0.4827,-83.26990711005605
-0.48370000000000013,-83.83579163000208
-0.4847,-84.40167614994809
-0.48570000000000013,-84.92511933089816
-0.4867,-83.79335029100612
-0.48570000000000013,-80.52536718831789
-0.4847,-78.12035797854733
-0.48370000000000013,-76.23879194972683
-0.4827,-74.62602106788069
-0.48170000000000013,-73.09813286402644
-0.4807,-71.66927445116276
-0.4797000000000001,-70.31115160329232
-0.4787,-69.0096172074165
-0.4777000000000001,-67.82125971552985
-0.4767,-66.77437335362974
-0.4757000000000001,-65.7274869917296
-0.4747,-64.77963042082003
-0.4737000000000001,-63.77518539791585
-0.4727,-62.72829903601572
-0.4717000000000001,-61.6814126741156
-0.4707,-60.67696765121143
-0.4697000000000001,-59.757405306299155
-0.4687,-58.880284300382826
-0.4677000000000001,-58.10219308545706
-0.4667,-57.30995475753264
-0.4657000000000001,-56.44698086461496
