June 29, 2026   00:51:18
Cyclic Voltammetry
File: c:/users/guazh/data/20260623_doe_duplica2/2026-06-24-exp37\exp37-2026-06-29t00_28_48-h2koh\exp37_cv_sr_200mvs_efin_-1800mv.bin
Data Source:  Experiment
Instrument Model:  CHI760E
Header: CV ran at 200 mVs
Note: 

Init E (V) = -1
High E (V) = -1
Low E (V) = -1.8
Final E (V) = -1
Init P/N = N
Scan Rate (V/s) = 0.2
Segment = 3
Sample Interval (V) = 0.001
Quiet Time (sec) = 2
Sensitivity (A/V) = 0.01
Comp R (ohm) = 3.8

Results:

Channel 1:
Segment 1:

Segment 2:

Segment 3:

Potential/V, Current/A

-1.000, -3.080e-6
-1.001, -1.807e-6
-1.002, -1.551e-6
-1.003, -9.590e-7
-1.004, -5.150e-7
-1.005, -2.388e-7
-1.006, 2.249e-7
-1.007, 4.420e-7
-1.008, 8.070e-7
-1.009, 8.070e-7
-1.010, 9.649e-7
-1.011, 1.389e-6
-1.012, 1.448e-6
-1.013, 1.774e-6
-1.014, 1.833e-6
-1.015, 1.922e-6
-1.016, 2.169e-6
-1.017, 2.405e-6
-1.018, 2.553e-6
-1.019, 2.672e-6
-1.020, 2.632e-6
-1.021, 2.899e-6
-1.022, 2.780e-6
-1.023, 3.017e-6
-1.024, 3.323e-6
-1.025, 3.461e-6
-1.026, 3.550e-6
-1.027, 3.560e-6
-1.028, 3.796e-6
-1.029, 3.639e-6
-1.030, 3.846e-6
-1.031, 4.053e-6
-1.032, 4.043e-6
-1.033, 4.004e-6
-1.034, 4.142e-6
-1.035, 4.112e-6
-1.036, 4.418e-6
-1.037, 4.181e-6
-1.038, 4.517e-6
-1.039, 4.576e-6
-1.040, 4.655e-6
-1.041, 4.744e-6
-1.042, 4.684e-6
-1.043, 4.852e-6
-1.044, 4.822e-6
-1.045, 4.892e-6
-1.046, 5.069e-6
-1.047, 4.862e-6
-1.048, 5.109e-6
-1.049, 4.980e-6
-1.050, 5.237e-6
-1.051, 5.247e-6
-1.052, 5.444e-6
-1.053, 5.533e-6
-1.054, 5.336e-6
-1.055, 5.464e-6
-1.056, 5.543e-6
-1.057, 5.454e-6
-1.058, 5.582e-6
-1.059, 5.493e-6
-1.060, 5.612e-6
-1.061, 5.918e-6
-1.062, 5.681e-6
-1.063, 5.849e-6
-1.064, 5.967e-6
-1.065, 5.987e-6
-1.066, 5.878e-6
-1.067, 5.819e-6
-1.068, 6.066e-6
-1.069, 5.829e-6
-1.070, 6.381e-6
-1.071, 6.194e-6
-1.072, 5.858e-6
-1.073, 6.046e-6
-1.074, 5.957e-6
-1.075, 6.243e-6
-1.076, 6.174e-6
-1.077, 6.223e-6
-1.078, 6.302e-6
-1.079, 6.204e-6
-1.080, 6.293e-6
-1.081, 6.460e-6
-1.082, 6.460e-6
-1.083, 6.401e-6
-1.084, 6.549e-6
-1.085, 6.342e-6
-1.086, 6.431e-6
-1.087, 6.421e-6
-1.088, 6.628e-6
-1.089, 6.312e-6
-1.090, 6.618e-6
-1.091, 6.549e-6
-1.092, 6.401e-6
-1.093, 6.736e-6
-1.094, 6.608e-6
-1.095, 6.746e-6
-1.096, 6.756e-6
-1.097, 6.707e-6
-1.098, 6.776e-6
-1.099, 6.598e-6
-1.100, 6.776e-6
-1.101, 6.835e-6
-1.102, 6.618e-6
-1.103, 6.717e-6
-1.104, 6.815e-6
-1.105, 6.746e-6
-1.106, 6.855e-6
-1.107, 6.697e-6
-1.108, 6.894e-6
-1.109, 6.894e-6
-1.110, 7.151e-6
-1.111, 7.013e-6
-1.112, 6.736e-6
-1.113, 6.924e-6
-1.114, 7.072e-6
-1.115, 7.042e-6
-1.116, 6.904e-6
-1.117, 7.072e-6
-1.118, 7.052e-6
-1.119, 7.102e-6
-1.120, 6.944e-6
-1.121, 7.052e-6
-1.122, 7.023e-6
-1.123, 7.062e-6
-1.124, 7.052e-6
-1.125, 7.161e-6
-1.126, 7.220e-6
-1.127, 6.983e-6
-1.128, 7.220e-6
-1.129, 7.220e-6
-1.130, 7.338e-6
-1.131, 7.023e-6
-1.132, 7.180e-6
-1.133, 7.388e-6
-1.134, 7.358e-6
-1.135, 7.250e-6
-1.136, 7.417e-6
-1.137, 7.200e-6
-1.138, 7.230e-6
-1.139, 7.003e-6
-1.140, 7.467e-6
-1.141, 7.378e-6
-1.142, 7.338e-6
-1.143, 7.585e-6
-1.144, 7.447e-6
-1.145, 7.427e-6
-1.146, 7.388e-6
-1.147, 7.496e-6
-1.148, 7.496e-6
-1.149, 7.624e-6
-1.150, 7.447e-6
-1.151, 7.388e-6
-1.152, 7.516e-6
-1.153, 7.605e-6
-1.154, 7.526e-6
-1.155, 7.565e-6
-1.156, 7.536e-6
-1.157, 7.427e-6
-1.158, 7.624e-6
-1.159, 7.595e-6
-1.160, 7.516e-6
-1.161, 7.605e-6
-1.162, 7.703e-6
-1.163, 7.782e-6
-1.164, 7.713e-6
-1.165, 7.713e-6
-1.166, 7.644e-6
-1.167, 7.674e-6
-1.168, 7.802e-6
-1.169, 7.605e-6
-1.170, 7.802e-6
-1.171, 8.049e-6
-1.172, 7.723e-6
-1.173, 8.039e-6
-1.174, 7.723e-6
-1.175, 7.851e-6
-1.176, 8.068e-6
-1.177, 7.753e-6
-1.178, 8.216e-6
-1.179, 8.039e-6
-1.180, 7.920e-6
-1.181, 8.177e-6
-1.182, 7.989e-6
-1.183, 8.276e-6
-1.184, 8.019e-6
-1.185, 8.256e-6
-1.186, 8.216e-6
-1.187, 8.266e-6
-1.188, 8.246e-6
-1.189, 8.128e-6
-1.190, 8.256e-6
-1.191, 8.226e-6
-1.192, 8.068e-6
-1.193, 8.542e-6
-1.194, 8.631e-6
-1.195, 8.384e-6
-1.196, 8.542e-6
-1.197, 8.591e-6
-1.198, 8.907e-6
-1.199, 8.729e-6
-1.200, 8.710e-6
-1.201, 8.897e-6
-1.202, 8.493e-6
-1.203, 8.798e-6
-1.204, 8.818e-6
-1.205, 8.641e-6
-1.206, 9.016e-6
-1.207, 8.611e-6
-1.208, 9.025e-6
-1.209, 8.720e-6
-1.210, 8.749e-6
-1.211, 9.163e-6
-1.212, 8.798e-6
-1.213, 8.986e-6
-1.214, 8.986e-6
-1.215, 9.104e-6
-1.216, 9.223e-6
-1.217, 9.134e-6
-1.218, 9.321e-6
-1.219, 9.213e-6
-1.220, 9.410e-6
-1.221, 9.321e-6
-1.222, 9.075e-6
-1.223, 9.607e-6
-1.224, 9.311e-6
-1.225, 9.302e-6
-1.226, 9.469e-6
-1.227, 9.282e-6
-1.228, 9.499e-6
-1.229, 9.775e-6
-1.230, 9.716e-6
-1.231, 9.785e-6
-1.232, 9.548e-6
-1.233, 9.854e-6
-1.234, 9.903e-6
-1.235, 9.716e-6
-1.236, 1.009e-5
-1.237, 9.805e-6
-1.238, 1.009e-5
-1.239, 9.834e-6
-1.240, 9.894e-6
-1.241, 1.015e-5
-1.242, 9.894e-6
-1.243, 1.021e-5
-1.244, 1.012e-5
-1.245, 9.992e-6
-1.246, 1.024e-5
-1.247, 1.001e-5
-1.248, 1.036e-5
-1.249, 1.033e-5
-1.250, 1.027e-5
-1.251, 1.039e-5
-1.252, 1.033e-5
-1.253, 1.042e-5
-1.254, 1.050e-5
-1.255, 1.047e-5
-1.256, 1.058e-5
-1.257, 1.052e-5
-1.258, 1.090e-5
-1.259, 1.068e-5
-1.260, 1.069e-5
-1.261, 1.064e-5
-1.262, 1.059e-5
-1.263, 1.090e-5
-1.264, 1.097e-5
-1.265, 1.070e-5
-1.266, 1.095e-5
-1.267, 1.104e-5
-1.268, 1.114e-5
-1.269, 1.101e-5
-1.270, 1.113e-5
-1.271, 1.128e-5
-1.272, 1.106e-5
-1.273, 1.131e-5
-1.274, 1.150e-5
-1.275, 1.143e-5
-1.276, 1.178e-5
-1.277, 1.139e-5
-1.278, 1.158e-5
-1.279, 1.171e-5
-1.280, 1.177e-5
-1.281, 1.204e-5
-1.282, 1.184e-5
-1.283, 1.212e-5
-1.284, 1.187e-5
-1.285, 1.211e-5
-1.286, 1.229e-5
-1.287, 1.218e-5
-1.288, 1.250e-5
-1.289, 1.234e-5
-1.290, 1.244e-5
-1.291, 1.258e-5
-1.292, 1.243e-5
-1.293, 1.274e-5
-1.294, 1.295e-5
-1.295, 1.286e-5
-1.296, 1.288e-5
-1.297, 1.307e-5
-1.298, 1.309e-5
-1.299, 1.316e-5
-1.300, 1.319e-5
-1.301, 1.336e-5
-1.302, 1.322e-5
-1.303, 1.365e-5
-1.304, 1.336e-5
-1.305, 1.344e-5
-1.306, 1.387e-5
-1.307, 1.375e-5
-1.308, 1.405e-5
-1.309, 1.407e-5
-1.310, 1.423e-5
-1.311, 1.439e-5
-1.312, 1.405e-5
-1.313, 1.449e-5
-1.314, 1.449e-5
-1.315, 1.443e-5
-1.316, 1.485e-5
-1.317, 1.483e-5
-1.318, 1.493e-5
-1.319, 1.526e-5
-1.320, 1.517e-5
-1.321, 1.540e-5
-1.322, 1.518e-5
-1.323, 1.568e-5
-1.324, 1.583e-5
-1.325, 1.567e-5
-1.326, 1.571e-5
-1.327, 1.586e-5
-1.328, 1.617e-5
-1.329, 1.620e-5
-1.330, 1.610e-5
-1.331, 1.645e-5
-1.332, 1.648e-5
-1.333, 1.696e-5
-1.334, 1.698e-5
-1.335, 1.705e-5
-1.336, 1.721e-5
-1.337, 1.715e-5
-1.338, 1.746e-5
-1.339, 1.758e-5
-1.340, 1.776e-5
-1.341, 1.792e-5
-1.342, 1.764e-5
-1.343, 1.800e-5
-1.344, 1.821e-5
-1.345, 1.832e-5
-1.346, 1.879e-5
-1.347, 1.856e-5
-1.348, 1.889e-5
-1.349, 1.892e-5
-1.350, 1.923e-5
-1.351, 1.944e-5
-1.352, 1.945e-5
-1.353, 1.978e-5
-1.354, 1.997e-5
-1.355, 2.013e-5
-1.356, 2.028e-5
-1.357, 2.046e-5
-1.358, 2.079e-5
-1.359, 2.104e-5
-1.360, 2.081e-5
-1.361, 2.128e-5
-1.362, 2.144e-5
-1.363, 2.182e-5
-1.364, 2.201e-5
-1.365, 2.207e-5
-1.366, 2.219e-5
-1.367, 2.264e-5
-1.368, 2.299e-5
-1.369, 2.300e-5
-1.370, 2.309e-5
-1.371, 2.366e-5
-1.372, 2.360e-5
-1.373, 2.384e-5
-1.374, 2.412e-5
-1.375, 2.417e-5
-1.376, 2.448e-5
-1.377, 2.469e-5
-1.378, 2.495e-5
-1.379, 2.553e-5
-1.380, 2.560e-5
-1.381, 2.609e-5
-1.382, 2.608e-5
-1.383, 2.647e-5
-1.384, 2.676e-5
-1.385, 2.695e-5
-1.386, 2.736e-5
-1.387, 2.738e-5
-1.388, 2.796e-5
-1.389, 2.818e-5
-1.390, 2.862e-5
-1.391, 2.891e-5
-1.392, 2.898e-5
-1.393, 2.941e-5
-1.394, 2.967e-5
-1.395, 2.984e-5
-1.396, 3.044e-5
-1.397, 3.039e-5
-1.398, 3.097e-5
-1.399, 3.122e-5
-1.400, 3.145e-5
-1.401, 3.192e-5
-1.402, 3.234e-5
-1.403, 3.255e-5
-1.404, 3.302e-5
-1.405, 3.313e-5
-1.406, 3.385e-5
-1.407, 3.402e-5
-1.408, 3.460e-5
-1.409, 3.481e-5
-1.410, 3.523e-5
-1.411, 3.588e-5
-1.412, 3.599e-5
-1.413, 3.636e-5
-1.414, 3.689e-5
-1.415, 3.712e-5
-1.416, 3.764e-5
-1.417, 3.801e-5
-1.418, 3.838e-5
-1.419, 3.872e-5
-1.420, 3.909e-5
-1.421, 3.977e-5
-1.422, 4.000e-5
-1.423, 4.055e-5
-1.424, 4.098e-5
-1.425, 4.105e-5
-1.426, 4.201e-5
-1.427, 4.221e-5
-1.428, 4.291e-5
-1.429, 4.317e-5
-1.430, 4.359e-5
-1.431, 4.423e-5
-1.432, 4.430e-5
-1.433, 4.505e-5
-1.434, 4.563e-5
-1.435, 4.583e-5
-1.436, 4.655e-5
-1.437, 4.707e-5
-1.438, 4.732e-5
-1.439, 4.776e-5
-1.440, 4.826e-5
-1.441, 4.869e-5
-1.442, 4.880e-5
-1.443, 4.957e-5
-1.444, 5.003e-5
-1.445, 5.018e-5
-1.446, 5.093e-5
-1.447, 5.113e-5
-1.448, 5.179e-5
-1.449, 5.236e-5
-1.450, 5.258e-5
-1.451, 5.344e-5
-1.452, 5.375e-5
-1.453, 5.449e-5
-1.454, 5.508e-5
-1.455, 5.531e-5
-1.456, 5.602e-5
-1.457, 5.651e-5
-1.458, 5.746e-5
-1.459, 5.793e-5
-1.460, 5.851e-5
-1.461, 5.903e-5
-1.462, 5.946e-5
-1.463, 6.039e-5
-1.464, 6.082e-5
-1.465, 6.121e-5
-1.466, 6.200e-5
-1.467, 6.238e-5
-1.468, 6.314e-5
-1.469, 6.330e-5
-1.470, 6.389e-5
-1.471, 6.455e-5
-1.472, 6.521e-5
-1.473, 6.577e-5
-1.474, 6.646e-5
-1.475, 6.675e-5
-1.476, 6.751e-5
-1.477, 6.814e-5
-1.478, 6.895e-5
-1.479, 6.952e-5
-1.480, 7.014e-5
-1.481, 7.090e-5
-1.482, 7.144e-5
-1.483, 7.209e-5
-1.484, 7.271e-5
-1.485, 7.325e-5
-1.486, 7.404e-5
-1.487, 7.462e-5
-1.488, 7.517e-5
-1.489, 7.592e-5
-1.490, 7.639e-5
-1.491, 7.766e-5
-1.492, 7.768e-5
-1.493, 7.856e-5
-1.494, 7.910e-5
-1.495, 7.942e-5
-1.496, 8.016e-5
-1.497, 8.085e-5
-1.498, 8.160e-5
-1.499, 8.211e-5
-1.500, 8.288e-5
-1.501, 8.330e-5
-1.502, 8.392e-5
-1.503, 8.487e-5
-1.504, 8.524e-5
-1.505, 8.638e-5
-1.506, 8.747e-5
-1.507, 8.789e-5
-1.508, 8.880e-5
-1.509, 8.957e-5
-1.510, 9.031e-5
-1.511, 9.143e-5
-1.512, 9.168e-5
-1.513, 9.260e-5
-1.514, 9.336e-5
-1.515, 9.386e-5
-1.516, 9.484e-5
-1.517, 9.513e-5
-1.518, 9.624e-5
-1.519, 9.715e-5
-1.520, 9.766e-5
-1.521, 9.882e-5
-1.522, 9.954e-5
-1.523, 1.004e-4
-1.524, 1.015e-4
-1.525, 1.021e-4
-1.526, 1.032e-4
-1.527, 1.034e-4
-1.528, 1.042e-4
-1.529, 1.055e-4
-1.530, 1.068e-4
-1.531, 1.080e-4
-1.532, 1.092e-4
-1.533, 1.103e-4
-1.534, 1.108e-4
-1.535, 1.115e-4
-1.536, 1.126e-4
-1.537, 1.132e-4
-1.538, 1.148e-4
-1.539, 1.158e-4
-1.540, 1.169e-4
-1.541, 1.181e-4
-1.542, 1.188e-4
-1.543, 1.200e-4
-1.544, 1.208e-4
-1.545, 1.220e-4
-1.546, 1.232e-4
-1.547, 1.244e-4
-1.548, 1.254e-4
-1.549, 1.267e-4
-1.550, 1.282e-4
-1.551, 1.295e-4
-1.552, 1.304e-4
-1.553, 1.319e-4
-1.554, 1.336e-4
-1.555, 1.344e-4
-1.556, 1.359e-4
-1.557, 1.371e-4
-1.558, 1.386e-4
-1.559, 1.400e-4
-1.560, 1.411e-4
-1.561, 1.424e-4
-1.562, 1.437e-4
-1.563, 1.454e-4
-1.564, 1.468e-4
-1.565, 1.491e-4
-1.566, 1.505e-4
-1.567, 1.515e-4
-1.568, 1.531e-4
-1.569, 1.545e-4
-1.570, 1.561e-4
-1.571, 1.578e-4
-1.572, 1.589e-4
-1.573, 1.618e-4
-1.574, 1.649e-4
-1.575, 1.657e-4
-1.576, 1.676e-4
-1.577, 1.692e-4
-1.578, 1.704e-4
-1.579, 1.724e-4
-1.580, 1.746e-4
-1.581, 1.768e-4
-1.582, 1.792e-4
-1.583, 1.817e-4
-1.584, 1.835e-4
-1.585, 1.852e-4
-1.586, 1.876e-4
-1.587, 1.902e-4
-1.588, 1.933e-4
-1.589, 1.951e-4
-1.590, 1.973e-4
-1.591, 2.004e-4
-1.592, 2.024e-4
-1.593, 2.048e-4
-1.594, 2.075e-4
-1.595, 2.098e-4
-1.596, 2.124e-4
-1.597, 2.155e-4
-1.598, 2.181e-4
-1.599, 2.210e-4
-1.600, 2.234e-4
-1.601, 2.269e-4
-1.602, 2.293e-4
-1.603, 2.325e-4
-1.604, 2.362e-4
-1.605, 2.391e-4
-1.606, 2.432e-4
-1.607, 2.473e-4
-1.608, 2.498e-4
-1.609, 2.537e-4
-1.610, 2.573e-4
-1.611, 2.612e-4
-1.612, 2.651e-4
-1.613, 2.692e-4
-1.614, 2.727e-4
-1.615, 2.763e-4
-1.616, 2.805e-4
-1.617, 2.847e-4
-1.618, 2.893e-4
-1.619, 2.939e-4
-1.620, 2.979e-4
-1.621, 3.021e-4
-1.622, 3.068e-4
-1.623, 3.115e-4
-1.624, 3.165e-4
-1.625, 3.212e-4
-1.626, 3.270e-4
-1.627, 3.318e-4
-1.628, 3.366e-4
-1.629, 3.419e-4
-1.630, 3.472e-4
-1.631, 3.531e-4
-1.632, 3.584e-4
-1.633, 3.647e-4
-1.634, 3.706e-4
-1.635, 3.768e-4
-1.636, 3.830e-4
-1.637, 3.889e-4
-1.638, 3.961e-4
-1.639, 4.022e-4
-1.640, 4.084e-4
-1.641, 4.155e-4
-1.642, 4.212e-4
-1.643, 4.287e-4
-1.644, 4.370e-4
-1.645, 4.441e-4
-1.646, 4.521e-4
-1.647, 4.599e-4
-1.648, 4.686e-4
-1.649, 4.768e-4
-1.650, 4.851e-4
-1.651, 4.936e-4
-1.652, 5.022e-4
-1.653, 5.108e-4
-1.654, 5.200e-4
-1.655, 5.288e-4
-1.656, 5.380e-4
-1.657, 5.471e-4
-1.658, 5.570e-4
-1.659, 5.671e-4
-1.660, 5.793e-4
-1.661, 5.870e-4
-1.662, 5.977e-4
-1.663, 6.084e-4
-1.664, 6.215e-4
-1.665, 6.319e-4
-1.666, 6.436e-4
-1.667, 6.547e-4
-1.668, 6.663e-4
-1.669, 6.777e-4
-1.670, 6.890e-4
-1.671, 7.023e-4
-1.672, 7.151e-4
-1.673, 7.282e-4
-1.674, 7.403e-4
-1.675, 7.519e-4
-1.676, 7.657e-4
-1.677, 7.793e-4
-1.678, 7.939e-4
-1.679, 8.063e-4
-1.680, 8.192e-4
-1.681, 8.349e-4
-1.682, 8.502e-4
-1.683, 8.664e-4
-1.684, 8.811e-4
-1.685, 8.934e-4
-1.686, 9.086e-4
-1.687, 9.252e-4
-1.688, 9.408e-4
-1.689, 9.570e-4
-1.690, 9.751e-4
-1.691, 9.930e-4
-1.692, 1.010e-3
-1.693, 1.028e-3
-1.694, 1.047e-3
-1.695, 1.064e-3
-1.696, 1.083e-3
-1.697, 1.103e-3
-1.698, 1.122e-3
-1.699, 1.140e-3
-1.700, 1.157e-3
-1.701, 1.177e-3
-1.702, 1.195e-3
-1.703, 1.215e-3
-1.704, 1.234e-3
-1.705, 1.254e-3
-1.706, 1.276e-3
-1.707, 1.296e-3
-1.708, 1.318e-3
-1.709, 1.339e-3
-1.710, 1.362e-3
-1.711, 1.385e-3
-1.712, 1.407e-3
-1.713, 1.430e-3
-1.714, 1.453e-3
-1.715, 1.477e-3
-1.716, 1.503e-3
-1.717, 1.528e-3
-1.718, 1.553e-3
-1.719, 1.581e-3
-1.720, 1.607e-3
-1.721, 1.633e-3
-1.722, 1.660e-3
-1.723, 1.690e-3
-1.724, 1.717e-3
-1.725, 1.745e-3
-1.726, 1.773e-3
-1.727, 1.803e-3
-1.728, 1.831e-3
-1.729, 1.866e-3
-1.730, 1.902e-3
-1.731, 1.934e-3
-1.732, 1.967e-3
-1.733, 2.000e-3
-1.734, 2.030e-3
-1.735, 2.063e-3
-1.736, 2.099e-3
-1.737, 2.131e-3
-1.738, 2.164e-3
-1.739, 2.202e-3
-1.740, 2.238e-3
-1.741, 2.272e-3
-1.742, 2.310e-3
-1.743, 2.347e-3
-1.744, 2.380e-3
-1.745, 2.419e-3
-1.746, 2.458e-3
-1.747, 2.502e-3
-1.748, 2.542e-3
-1.749, 2.583e-3
-1.750, 2.626e-3
-1.751, 2.672e-3
-1.752, 2.713e-3
-1.753, 2.755e-3
-1.754, 2.794e-3
-1.755, 2.838e-3
-1.756, 2.885e-3
-1.757, 2.930e-3
-1.758, 2.978e-3
-1.759, 3.023e-3
-1.760, 3.072e-3
-1.761, 3.123e-3
-1.762, 3.173e-3
-1.763, 3.224e-3
-1.764, 3.271e-3
-1.765, 3.329e-3
-1.766, 3.378e-3
-1.767, 3.423e-3
-1.768, 3.474e-3
-1.769, 3.519e-3
-1.770, 3.566e-3
-1.771, 3.615e-3
-1.772, 3.669e-3
-1.773, 3.729e-3
-1.774, 3.789e-3
-1.775, 3.848e-3
-1.776, 3.915e-3
-1.777, 3.980e-3
-1.778, 4.049e-3
-1.779, 4.107e-3
-1.780, 4.176e-3
-1.781, 4.228e-3
-1.782, 4.294e-3
-1.783, 4.364e-3
-1.784, 4.430e-3
-1.785, 4.494e-3
-1.786, 4.559e-3
-1.787, 4.627e-3
-1.788, 4.700e-3
-1.789, 4.781e-3
-1.790, 4.844e-3
-1.791, 4.918e-3
-1.792, 4.985e-3
-1.793, 5.054e-3
-1.794, 5.124e-3
-1.795, 5.190e-3
-1.796, 5.269e-3
-1.797, 5.336e-3
-1.798, 5.421e-3
-1.799, 5.497e-3
-1.800, 5.507e-3
-1.799, 5.466e-3
-1.798, 5.427e-3
-1.797, 5.400e-3
-1.796, 5.382e-3
-1.795, 5.350e-3
-1.794, 5.306e-3
-1.793, 5.271e-3
-1.792, 5.240e-3
-1.791, 5.201e-3
-1.790, 5.147e-3
-1.789, 5.101e-3
-1.788, 5.067e-3
-1.787, 5.024e-3
-1.786, 4.974e-3
-1.785, 4.931e-3
-1.784, 4.884e-3
-1.783, 4.827e-3
-1.782, 4.780e-3
-1.781, 4.732e-3
-1.780, 4.690e-3
-1.779, 4.630e-3
-1.778, 4.581e-3
-1.777, 4.527e-3
-1.776, 4.482e-3
-1.775, 4.430e-3
-1.774, 4.382e-3
-1.773, 4.341e-3
-1.772, 4.295e-3
-1.771, 4.242e-3
-1.770, 4.196e-3
-1.769, 4.162e-3
-1.768, 4.128e-3
-1.767, 4.092e-3
-1.766, 4.054e-3
-1.765, 4.012e-3
-1.764, 3.972e-3
-1.763, 3.920e-3
-1.762, 3.870e-3
-1.761, 3.827e-3
-1.760, 3.792e-3
-1.759, 3.751e-3
-1.758, 3.713e-3
-1.757, 3.679e-3
-1.756, 3.630e-3
-1.755, 3.585e-3
-1.754, 3.541e-3
-1.753, 3.495e-3
-1.752, 3.452e-3
-1.751, 3.420e-3
-1.750, 3.377e-3
-1.749, 3.332e-3
-1.748, 3.286e-3
-1.747, 3.257e-3
-1.746, 3.223e-3
-1.745, 3.176e-3
-1.744, 3.134e-3
-1.743, 3.097e-3
-1.742, 3.065e-3
-1.741, 3.035e-3
-1.740, 2.999e-3
-1.739, 2.968e-3
-1.738, 2.930e-3
-1.737, 2.892e-3
-1.736, 2.849e-3
-1.735, 2.813e-3
-1.734, 2.785e-3
-1.733, 2.752e-3
-1.732, 2.718e-3
-1.731, 2.685e-3
-1.730, 2.652e-3
-1.729, 2.614e-3
-1.728, 2.580e-3
-1.727, 2.543e-3
-1.726, 2.511e-3
-1.725, 2.480e-3
-1.724, 2.452e-3
-1.723, 2.422e-3
-1.722, 2.390e-3
-1.721, 2.358e-3
-1.720, 2.326e-3
-1.719, 2.294e-3
-1.718, 2.262e-3
-1.717, 2.231e-3
-1.716, 2.206e-3
-1.715, 2.177e-3
-1.714, 2.147e-3
-1.713, 2.117e-3
-1.712, 2.087e-3
-1.711, 2.061e-3
-1.710, 2.030e-3
-1.709, 2.003e-3
-1.708, 1.977e-3
-1.707, 1.951e-3
-1.706, 1.929e-3
-1.705, 1.903e-3
-1.704, 1.877e-3
-1.703, 1.851e-3
-1.702, 1.826e-3
-1.701, 1.805e-3
-1.700, 1.776e-3
-1.699, 1.754e-3
-1.698, 1.731e-3
-1.697, 1.706e-3
-1.696, 1.682e-3
-1.695, 1.660e-3
-1.694, 1.635e-3
-1.693, 1.609e-3
-1.692, 1.584e-3
-1.691, 1.560e-3
-1.690, 1.540e-3
-1.689, 1.519e-3
-1.688, 1.496e-3
-1.687, 1.472e-3
-1.686, 1.454e-3
-1.685, 1.434e-3
-1.684, 1.414e-3
-1.683, 1.392e-3
-1.682, 1.373e-3
-1.681, 1.353e-3
-1.680, 1.334e-3
-1.679, 1.316e-3
-1.678, 1.295e-3
-1.677, 1.275e-3
-1.676, 1.259e-3
-1.675, 1.238e-3
-1.674, 1.218e-3
-1.673, 1.201e-3
-1.672, 1.182e-3
-1.671, 1.167e-3
-1.670, 1.150e-3
-1.669, 1.130e-3
-1.668, 1.112e-3
-1.667, 1.095e-3
-1.666, 1.080e-3
-1.665, 1.064e-3
-1.664, 1.047e-3
-1.663, 1.031e-3
-1.662, 1.014e-3
-1.661, 9.994e-4
-1.660, 9.856e-4
-1.659, 9.704e-4
-1.658, 9.531e-4
-1.657, 9.384e-4
-1.656, 9.210e-4
-1.655, 9.071e-4
-1.654, 8.943e-4
-1.653, 8.834e-4
-1.652, 8.684e-4
-1.651, 8.543e-4
-1.650, 8.393e-4
-1.649, 8.271e-4
-1.648, 8.128e-4
-1.647, 7.996e-4
-1.646, 7.875e-4
-1.645, 7.742e-4
-1.644, 7.617e-4
-1.643, 7.473e-4
-1.642, 7.361e-4
-1.641, 7.247e-4
-1.640, 7.117e-4
-1.639, 7.004e-4
-1.638, 6.875e-4
-1.637, 6.758e-4
-1.636, 6.651e-4
-1.635, 6.529e-4
-1.634, 6.445e-4
-1.633, 6.330e-4
-1.632, 6.232e-4
-1.631, 6.125e-4
-1.630, 6.018e-4
-1.629, 5.924e-4
-1.628, 5.815e-4
-1.627, 5.723e-4
-1.626, 5.626e-4
-1.625, 5.519e-4
-1.624, 5.431e-4
-1.623, 5.332e-4
-1.622, 5.238e-4
-1.621, 5.146e-4
-1.620, 5.067e-4
-1.619, 4.977e-4
-1.618, 4.876e-4
-1.617, 4.807e-4
-1.616, 4.726e-4
-1.615, 4.648e-4
-1.614, 4.559e-4
-1.613, 4.472e-4
-1.612, 4.389e-4
-1.611, 4.322e-4
-1.610, 4.239e-4
-1.609, 4.163e-4
-1.608, 4.083e-4
-1.607, 4.029e-4
-1.606, 3.963e-4
-1.605, 3.896e-4
-1.604, 3.817e-4
-1.603, 3.735e-4
-1.602, 3.677e-4
-1.601, 3.612e-4
-1.600, 3.553e-4
-1.599, 3.488e-4
-1.598, 3.422e-4
-1.597, 3.361e-4
-1.596, 3.310e-4
-1.595, 3.249e-4
-1.594, 3.186e-4
-1.593, 3.133e-4
-1.592, 3.073e-4
-1.591, 3.025e-4
-1.590, 2.970e-4
-1.589, 2.903e-4
-1.588, 2.846e-4
-1.587, 2.796e-4
-1.586, 2.750e-4
-1.585, 2.690e-4
-1.584, 2.648e-4
-1.583, 2.607e-4
-1.582, 2.566e-4
-1.581, 2.516e-4
-1.580, 2.470e-4
-1.579, 2.416e-4
-1.578, 2.378e-4
-1.577, 2.322e-4
-1.576, 2.280e-4
-1.575, 2.237e-4
-1.574, 2.196e-4
-1.573, 2.162e-4
-1.572, 2.122e-4
-1.571, 2.087e-4
-1.570, 2.051e-4
-1.569, 2.028e-4
-1.568, 1.984e-4
-1.567, 1.944e-4
-1.566, 1.910e-4
-1.565, 1.865e-4
-1.564, 1.835e-4
-1.563, 1.796e-4
-1.562, 1.763e-4
-1.561, 1.736e-4
-1.560, 1.704e-4
-1.559, 1.674e-4
-1.558, 1.633e-4
-1.557, 1.603e-4
-1.556, 1.578e-4
-1.555, 1.540e-4
-1.554, 1.518e-4
-1.553, 1.492e-4
-1.552, 1.467e-4
-1.551, 1.437e-4
-1.550, 1.406e-4
-1.549, 1.388e-4
-1.548, 1.362e-4
-1.547, 1.334e-4
-1.546, 1.306e-4
-1.545, 1.283e-4
-1.544, 1.260e-4
-1.543, 1.235e-4
-1.542, 1.211e-4
-1.541, 1.190e-4
-1.540, 1.161e-4
-1.539, 1.139e-4
-1.538, 1.117e-4
-1.537, 1.094e-4
-1.536, 1.072e-4
-1.535, 1.059e-4
-1.534, 1.040e-4
-1.533, 1.021e-4
-1.532, 1.001e-4
-1.531, 9.853e-5
-1.530, 9.639e-5
-1.529, 9.498e-5
-1.528, 9.294e-5
-1.527, 9.091e-5
-1.526, 8.938e-5
-1.525, 8.743e-5
-1.524, 8.592e-5
-1.523, 8.400e-5
-1.522, 8.251e-5
-1.521, 8.113e-5
-1.520, 7.979e-5
-1.519, 7.829e-5
-1.518, 7.687e-5
-1.517, 7.530e-5
-1.516, 7.390e-5
-1.515, 7.225e-5
-1.514, 7.093e-5
-1.513, 6.942e-5
-1.512, 6.819e-5
-1.511, 6.701e-5
-1.510, 6.551e-5
-1.509, 6.459e-5
-1.508, 6.334e-5
-1.507, 6.195e-5
-1.506, 6.077e-5
-1.505, 5.939e-5
-1.504, 5.862e-5
-1.503, 5.769e-5
-1.502, 5.642e-5
-1.501, 5.568e-5
-1.500, 5.507e-5
-1.499, 5.407e-5
-1.498, 5.292e-5
-1.497, 5.149e-5
-1.496, 5.066e-5
-1.495, 4.941e-5
-1.494, 4.861e-5
-1.493, 4.752e-5
-1.492, 4.636e-5
-1.491, 4.551e-5
-1.490, 4.446e-5
-1.489, 4.411e-5
-1.488, 4.314e-5
-1.487, 4.230e-5
-1.486, 4.141e-5
-1.485, 4.036e-5
-1.484, 3.970e-5
-1.483, 3.882e-5
-1.482, 3.800e-5
-1.481, 3.751e-5
-1.480, 3.686e-5
-1.479, 3.649e-5
-1.478, 3.543e-5
-1.477, 3.503e-5
-1.476, 3.438e-5
-1.475, 3.333e-5
-1.474, 3.251e-5
-1.473, 3.199e-5
-1.472, 3.101e-5
-1.471, 3.032e-5
-1.470, 2.946e-5
-1.469, 2.897e-5
-1.468, 2.829e-5
-1.467, 2.778e-5
-1.466, 2.726e-5
-1.465, 2.653e-5
-1.464, 2.626e-5
-1.463, 2.594e-5
-1.462, 2.509e-5
-1.461, 2.503e-5
-1.460, 2.439e-5
-1.459, 2.373e-5
-1.458, 2.315e-5
-1.457, 2.257e-5
-1.456, 2.227e-5
-1.455, 2.140e-5
-1.454, 2.103e-5
-1.453, 2.062e-5
-1.452, 2.010e-5
-1.451, 1.959e-5
-1.450, 1.903e-5
-1.449, 1.880e-5
-1.448, 1.825e-5
-1.447, 1.743e-5
-1.446, 1.730e-5
-1.445, 1.669e-5
-1.444, 1.687e-5
-1.443, 1.605e-5
-1.442, 1.561e-5
-1.441, 1.501e-5
-1.440, 1.475e-5
-1.439, 1.448e-5
-1.438, 1.403e-5
-1.437, 1.379e-5
-1.436, 1.341e-5
-1.435, 1.274e-5
-1.434, 1.250e-5
-1.433, 1.201e-5
-1.432, 1.157e-5
-1.431, 1.179e-5
-1.430, 1.111e-5
-1.429, 1.102e-5
-1.428, 1.075e-5
-1.427, 1.013e-5
-1.426, 1.005e-5
-1.425, 9.469e-6
-1.424, 9.390e-6
-1.423, 8.996e-6
-1.422, 8.631e-6
-1.421, 8.315e-6
-1.420, 8.078e-6
-1.419, 7.841e-6
-1.418, 7.713e-6
-1.417, 7.417e-6
-1.416, 7.250e-6
-1.415, 6.746e-6
-1.414, 6.707e-6
-1.413, 6.381e-6
-1.412, 6.164e-6
-1.411, 6.026e-6
-1.410, 5.513e-6
-1.409, 5.405e-6
-1.408, 5.158e-6
-1.407, 4.872e-6
-1.406, 4.704e-6
-1.405, 4.181e-6
-1.404, 4.231e-6
-1.403, 4.191e-6
-1.402, 3.757e-6
-1.401, 3.648e-6
-1.400, 3.185e-6
-1.399, 3.303e-6
-1.398, 3.086e-6
-1.397, 2.899e-6
-1.396, 2.465e-6
-1.395, 2.139e-6
-1.394, 2.021e-6
-1.393, 2.307e-6
-1.392, 1.675e-6
-1.391, 1.675e-6
-1.390, 1.429e-6
-1.389, 1.379e-6
-1.388, 1.103e-6
-1.387, 8.958e-7
-1.386, 9.156e-7
-1.385, 5.998e-7
-1.384, 8.958e-7
-1.383, 6.196e-7
-1.382, 5.722e-8
-1.381, -1.993e-7
-1.380, -3.374e-7
-1.379, -2.388e-7
-1.378, -5.249e-7
-1.377, -5.446e-7
-1.376, -5.446e-7
-1.375, -1.058e-6
-1.374, -9.491e-7
-1.373, -9.096e-7
-1.372, -1.245e-6
-1.371, -1.077e-6
-1.370, -1.748e-6
-1.369, -1.659e-6
-1.368, -2.005e-6
-1.367, -2.123e-6
-1.366, -2.005e-6
-1.365, -2.202e-6
-1.364, -2.301e-6
-1.363, -2.409e-6
-1.362, -2.409e-6
-1.361, -2.676e-6
-1.360, -2.972e-6
-1.359, -3.011e-6
-1.358, -3.070e-6
-1.357, -3.169e-6
-1.356, -3.248e-6
-1.355, -3.534e-6
-1.354, -3.672e-6
-1.353, -3.721e-6
-1.352, -3.741e-6
-1.351, -3.544e-6
-1.350, -4.027e-6
-1.349, -3.998e-6
-1.348, -4.096e-6
-1.347, -4.402e-6
-1.346, -4.274e-6
-1.345, -4.452e-6
-1.344, -4.678e-6
-1.343, -4.688e-6
-1.342, -4.955e-6
-1.341, -4.777e-6
-1.340, -5.024e-6
-1.339, -4.836e-6
-1.338, -5.073e-6
-1.337, -5.389e-6
-1.336, -4.935e-6
-1.335, -5.280e-6
-1.334, -5.448e-6
-1.333, -5.566e-6
-1.332, -5.527e-6
-1.331, -5.724e-6
-1.330, -5.833e-6
-1.329, -5.704e-6
-1.328, -6.000e-6
-1.327, -5.783e-6
-1.326, -5.961e-6
-1.325, -6.040e-6
-1.324, -5.981e-6
-1.323, -5.902e-6
-1.322, -6.346e-6
-1.321, -6.139e-6
-1.320, -6.504e-6
-1.319, -6.267e-6
-1.318, -6.592e-6
-1.317, -6.612e-6
-1.316, -6.346e-6
-1.315, -6.800e-6
-1.314, -6.721e-6
-1.313, -6.938e-6
-1.312, -7.017e-6
-1.311, -6.888e-6
-1.310, -7.204e-6
-1.309, -6.987e-6
-1.308, -7.046e-6
-1.307, -7.234e-6
-1.306, -7.283e-6
-1.305, -7.382e-6
-1.304, -7.323e-6
-1.303, -7.490e-6
-1.302, -7.431e-6
-1.301, -7.470e-6
-1.300, -7.658e-6
-1.299, -7.559e-6
-1.298, -7.826e-6
-1.297, -7.984e-6
-1.296, -7.638e-6
-1.295, -8.082e-6
-1.294, -7.885e-6
-1.293, -7.836e-6
-1.292, -8.151e-6
-1.291, -8.092e-6
-1.290, -8.201e-6
-1.289, -8.230e-6
-1.288, -8.260e-6
-1.287, -8.289e-6
-1.286, -8.349e-6
-1.285, -8.408e-6
-1.284, -8.201e-6
-1.283, -8.447e-6
-1.282, -8.842e-6
-1.281, -8.467e-6
-1.280, -8.723e-6
-1.279, -8.556e-6
-1.278, -8.822e-6
-1.277, -8.763e-6
-1.276, -8.645e-6
-1.275, -8.931e-6
-1.274, -8.931e-6
-1.273, -9.000e-6
-1.272, -9.098e-6
-1.271, -8.931e-6
-1.270, -9.306e-6
-1.269, -8.871e-6
-1.268, -9.069e-6
-1.267, -9.365e-6
-1.266, -9.217e-6
-1.265, -9.463e-6
-1.264, -9.148e-6
-1.263, -9.177e-6
-1.262, -9.375e-6
-1.261, -9.167e-6
-1.260, -9.651e-6
-1.259, -9.503e-6
-1.258, -9.651e-6
-1.257, -9.572e-6
-1.256, -9.296e-6
-1.255, -9.779e-6
-1.254, -9.631e-6
-1.253, -9.700e-6
-1.252, -9.809e-6
-1.251, -9.779e-6
-1.250, -9.848e-6
-1.249, -9.819e-6
-1.248, -9.898e-6
-1.247, -9.868e-6
-1.246, -9.967e-6
-1.245, -1.006e-5
-1.244, -9.740e-6
-1.243, -1.003e-5
-1.242, -1.024e-5
-1.241, -1.010e-5
-1.240, -1.033e-5
-1.239, -1.023e-5
-1.238, -1.026e-5
-1.237, -1.028e-5
-1.236, -1.024e-5
-1.235, -1.055e-5
-1.234, -1.028e-5
-1.233, -1.040e-5
-1.232, -1.051e-5
-1.231, -1.043e-5
-1.230, -1.040e-5
-1.229, -1.061e-5
-1.228, -1.061e-5
-1.227, -1.086e-5
-1.226, -1.066e-5
-1.225, -1.083e-5
-1.224, -1.070e-5
-1.223, -1.061e-5
-1.222, -1.091e-5
-1.221, -1.063e-5
-1.220, -1.098e-5
-1.219, -1.084e-5
-1.218, -1.104e-5
-1.217, -1.112e-5
-1.216, -1.114e-5
-1.215, -1.122e-5
-1.214, -1.114e-5
-1.213, -1.111e-5
-1.212, -1.118e-5
-1.211, -1.111e-5
-1.210, -1.139e-5
-1.209, -1.108e-5
-1.208, -1.138e-5
-1.207, -1.137e-5
-1.206, -1.132e-5
-1.205, -1.150e-5
-1.204, -1.120e-5
-1.203, -1.171e-5
-1.202, -1.207e-5
-1.201, -1.175e-5
-1.200, -1.181e-5
-1.199, -1.156e-5
-1.198, -1.137e-5
-1.197, -1.178e-5
-1.196, -1.170e-5
-1.195, -1.189e-5
-1.194, -1.159e-5
-1.193, -1.165e-5
-1.192, -1.222e-5
-1.191, -1.171e-5
-1.190, -1.215e-5
-1.189, -1.180e-5
-1.188, -1.196e-5
-1.187, -1.207e-5
-1.186, -1.190e-5
-1.185, -1.199e-5
-1.184, -1.201e-5
-1.183, -1.206e-5
-1.182, -1.228e-5
-1.181, -1.230e-5
-1.180, -1.240e-5
-1.179, -1.227e-5
-1.178, -1.244e-5
-1.177, -1.250e-5
-1.176, -1.239e-5
-1.175, -1.252e-5
-1.174, -1.250e-5
-1.173, -1.254e-5
-1.172, -1.270e-5
-1.171, -1.243e-5
-1.170, -1.276e-5
-1.169, -1.253e-5
-1.168, -1.280e-5
-1.167, -1.277e-5
-1.166, -1.272e-5
-1.165, -1.296e-5
-1.164, -1.268e-5
-1.163, -1.276e-5
-1.162, -1.309e-5
-1.161, -1.279e-5
-1.160, -1.303e-5
-1.159, -1.292e-5
-1.158, -1.311e-5
-1.157, -1.333e-5
-1.156, -1.291e-5
-1.155, -1.325e-5
-1.154, -1.310e-5
-1.153, -1.325e-5
-1.152, -1.351e-5
-1.151, -1.323e-5
-1.150, -1.360e-5
-1.149, -1.327e-5
-1.148, -1.358e-5
-1.147, -1.340e-5
-1.146, -1.356e-5
-1.145, -1.376e-5
-1.144, -1.356e-5
-1.143, -1.353e-5
-1.142, -1.400e-5
-1.141, -1.381e-5
-1.140, -1.398e-5
-1.139, -1.396e-5
-1.138, -1.397e-5
-1.137, -1.405e-5
-1.136, -1.409e-5
-1.135, -1.417e-5
-1.134, -1.397e-5
-1.133, -1.408e-5
-1.132, -1.463e-5
-1.131, -1.411e-5
-1.130, -1.430e-5
-1.129, -1.442e-5
-1.128, -1.450e-5
-1.127, -1.451e-5
-1.126, -1.450e-5
-1.125, -1.478e-5
-1.124, -1.460e-5
-1.123, -1.453e-5
-1.122, -1.512e-5
-1.121, -1.476e-5
-1.120, -1.507e-5
-1.119, -1.493e-5
-1.118, -1.509e-5
-1.117, -1.523e-5
-1.116, -1.502e-5
-1.115, -1.516e-5
-1.114, -1.513e-5
-1.113, -1.524e-5
-1.112, -1.556e-5
-1.111, -1.538e-5
-1.110, -1.549e-5
-1.109, -1.557e-5
-1.108, -1.558e-5
-1.107, -1.577e-5
-1.106, -1.557e-5
-1.105, -1.583e-5
-1.104, -1.592e-5
-1.103, -1.594e-5
-1.102, -1.622e-5
-1.101, -1.597e-5
-1.100, -1.625e-5
-1.099, -1.624e-5
-1.098, -1.629e-5
-1.097, -1.639e-5
-1.096, -1.635e-5
-1.095, -1.661e-5
-1.094, -1.663e-5
-1.093, -1.651e-5
-1.092, -1.693e-5
-1.091, -1.681e-5
-1.090, -1.686e-5
-1.089, -1.703e-5
-1.088, -1.696e-5
-1.087, -1.731e-5
-1.086, -1.731e-5
-1.085, -1.728e-5
-1.084, -1.747e-5
-1.083, -1.752e-5
-1.082, -1.785e-5
-1.081, -1.768e-5
-1.080, -1.789e-5
-1.079, -1.774e-5
-1.078, -1.807e-5
-1.077, -1.815e-5
-1.076, -1.796e-5
-1.075, -1.816e-5
-1.074, -1.834e-5
-1.073, -1.844e-5
-1.072, -1.868e-5
-1.071, -1.864e-5
-1.070, -1.895e-5
-1.069, -1.894e-5
-1.068, -1.915e-5
-1.067, -1.912e-5
-1.066, -1.923e-5
-1.065, -1.958e-5
-1.064, -1.932e-5
-1.063, -1.939e-5
-1.062, -1.986e-5
-1.061, -1.953e-5
-1.060, -1.990e-5
-1.059, -2.001e-5
-1.058, -2.016e-5
-1.057, -2.019e-5
-1.056, -2.024e-5
-1.055, -2.052e-5
-1.054, -2.069e-5
-1.053, -2.066e-5
-1.052, -2.089e-5
-1.051, -2.083e-5
-1.050, -2.116e-5
-1.049, -2.127e-5
-1.048, -2.127e-5
-1.047, -2.133e-5
-1.046, -2.149e-5
-1.045, -2.172e-5
-1.044, -2.178e-5
-1.043, -2.181e-5
-1.042, -2.223e-5
-1.041, -2.201e-5
-1.040, -2.230e-5
-1.039, -2.242e-5
-1.038, -2.259e-5
-1.037, -2.293e-5
-1.036, -2.282e-5
-1.035, -2.305e-5
-1.034, -2.314e-5
-1.033, -2.330e-5
-1.032, -2.369e-5
-1.031, -2.350e-5
-1.030, -2.402e-5
-1.029, -2.414e-5
-1.028, -2.431e-5
-1.027, -2.455e-5
-1.026, -2.446e-5
-1.025, -2.494e-5
-1.024, -2.496e-5
-1.023, -2.514e-5
-1.022, -2.554e-5
-1.021, -2.573e-5
-1.020, -2.596e-5
-1.019, -2.624e-5
-1.018, -2.627e-5
-1.017, -2.677e-5
-1.016, -2.663e-5
-1.015, -2.702e-5
-1.014, -2.700e-5
-1.013, -2.700e-5
-1.012, -2.760e-5
-1.011, -2.755e-5
-1.010, -2.795e-5
-1.009, -2.811e-5
-1.008, -2.827e-5
-1.007, -2.870e-5
-1.006, -2.894e-5
-1.005, -2.913e-5
-1.004, -2.921e-5
-1.003, -2.956e-5
-1.002, -3.007e-5
-1.001, -2.991e-5
