Potential V vs RHE, Current mA cm-2
0.013299999999999867,-0.30755823659065895
0.012299999999999978,-1.2671569112891135
0.011299999999999866,-1.8334658446250875
0.010299999999999976,-2.226755585987568
0.009299999999999864,-2.532333226758415
0.008299999999999974,-2.8379108675292635
0.007299999999999862,-3.055776407708479
0.006299999999999972,-3.2297858975918787
0.00529999999999986,-3.403795387475278
0.0042999999999999705,-3.5353635383627267
0.0032999999999998586,-3.6655169779503103
0.0022999999999999687,-3.7970851288377587
0.0012999999999998568,-3.927238568425342
0.00029999999999996696,-3.971094618721158
-0.000700000000000145,-4.146518819904423
-0.0017000000000000348,-4.23281620919619
-0.0027000000000001467,-4.3205283097878215
-0.0037000000000000366,-4.406825699079589
-0.0047000000000001485,-4.494537799671222
-0.005700000000000038,-4.582249900262854
-0.00670000000000015,-4.626105950558669
-0.00770000000000004,-4.668547289554621
-0.008700000000000152,-4.712403339850438
-0.009700000000000042,-4.800115440442069
-0.010700000000000154,-4.887827541033701
-0.011700000000000044,-4.9302688800296535
-0.012700000000000156,-4.9302688800296535
-0.013700000000000045,-4.974124930325469
-0.014700000000000157,-5.0618370309171015
-0.015700000000000047,-5.105693081212917
-0.01670000000000016,-5.191990470504685
-0.01770000000000005,-5.235846520800501
-0.01870000000000016,-5.279702571096316
-0.01970000000000005,-5.411270721983764
-0.020700000000000163,-5.453712060979717
-0.021700000000000053,-5.5414241615713475
-0.022700000000000164,-5.5414241615713475
-0.023700000000000054,-5.629136262162981
-0.024700000000000166,-5.715433651454749
-0.025700000000000056,-5.759289701750564
-0.026700000000000168,-5.847001802342197
-0.027700000000000058,-5.977155241929781
-0.02870000000000017,-6.021011292225596
-0.02970000000000006,-6.108723392817228
-0.03070000000000017,-6.196435493408861
-0.03170000000000006,-6.282732882700628
-0.03270000000000017,-6.37044498329226
-0.03370000000000006,-6.458157083883892
-0.034700000000000175,-6.54445447317566
-0.035700000000000065,-6.6760226240631075
-0.03670000000000018,-6.719878674358924
-0.03770000000000007,-6.850032113946507
-0.03870000000000018,-6.93774421453814
-0.03970000000000007,-7.024041603829907
-0.04070000000000018,-7.111753704421539
-0.04170000000000007,-7.243321855308987
-0.04270000000000018,-7.37347529489657
-0.04370000000000007,-7.461187395488204
-0.044700000000000184,-7.591340835075788
-0.045700000000000074,-7.679052935667419
-0.046700000000000186,-7.7653503249591855
-0.047700000000000076,-7.896918475846635
-0.04870000000000019,-8.027071915434218
-0.04970000000000008,-8.11478401602585
-0.05070000000000019,-8.246352166913299
-0.05170000000000008,-8.332649556205066
-0.05270000000000019,-8.4203616567967
-0.05370000000000008,-8.55051509638428
-0.05470000000000019,-8.638227196975913
-0.05570000000000008,-8.725939297567548
-0.056700000000000195,-8.85609273715513
-0.057700000000000085,-8.943804837746763
-0.058700000000000196,-9.031516938338395
-0.059700000000000086,-9.11781432763016
-0.0607000000000002,-9.205526428221793
-0.06170000000000009,-9.379535918105192
-0.0627000000000002,-9.467248018696827
-0.06370000000000009,-9.511104068992642
-0.0647000000000002,-9.55496011928846
-0.06570000000000009,-9.641257508580225
-0.0667000000000002,-9.772825659467674
-0.0677000000000001,-9.85912304875944
-0.0687000000000002,-9.902979099055257
-0.0697000000000001,-9.99069119964689
-0.07070000000000021,-10.078403300238522
-0.0717000000000001,-10.164700689530287
-0.07270000000000021,-10.25241279012192
-0.0737000000000001,-10.340124890713554
-0.07470000000000021,-10.42642228000532
-0.0757000000000001,-10.514134380596953
-0.07670000000000021,-10.601846481188586
-0.0777000000000001,-10.644287820184536
-0.07870000000000021,-10.731999920776168
-0.0797000000000001,-10.775855971071984
-0.08070000000000022,-10.863568071663616
-0.0817000000000001,-10.949865460955383
-0.08270000000000022,-10.993721511251199
-0.08370000000000011,-11.081433611842833
-0.08470000000000022,-11.1677310011346
-0.08570000000000011,-11.255443101726232
-0.08670000000000022,-11.299299152022046
-0.08770000000000011,-11.385596541313816
-0.08870000000000022,-11.473308641905447
-0.08970000000000011,-11.517164692201263
-0.09070000000000022,-11.604876792792895
-0.09170000000000011,-11.647318131788847
-0.09270000000000023,-11.691174182084664
-0.09370000000000012,-11.73503023238048
-0.09470000000000023,-11.82274233297211
-0.09570000000000012,-11.86659838326793
-0.09670000000000023,-11.909039722263879
-0.09770000000000012,-11.952895772559694
-0.09870000000000023,-12.040607873151327
-0.09970000000000012,-12.12831997374296
-0.10070000000000023,-12.170761312738911
-0.10170000000000012,-12.214617363034726
-0.10270000000000024,-12.214617363034726
-0.10370000000000013,-12.302329463626359
-0.10470000000000024,-12.302329463626359
-0.10570000000000013,-12.346185513922174
-0.10670000000000024,-12.390041564217992
-0.10770000000000013,-12.432482903213943
-0.10870000000000024,-12.476338953509758
-0.10970000000000013,-12.476338953509758
-0.11070000000000024,-12.520195003805576
-0.11170000000000013,-12.520195003805576
-0.11270000000000002,-12.607907104397206
-0.11370000000000013,-12.651763154693022
-0.11470000000000002,-12.651763154693022
-0.11570000000000014,-12.651763154693022
-0.11670000000000003,-12.651763154693022
-0.11770000000000014,-12.73806054398479
-0.11870000000000003,-12.73806054398479
-0.11970000000000014,-12.73806054398479
-0.12070000000000003,-12.73806054398479
-0.12170000000000014,-12.781916594280606
-0.12270000000000003,-12.825772644576423
-0.12370000000000014,-12.825772644576423
-0.12470000000000003,-12.825772644576423
-0.12570000000000014,-12.869628694872238
-0.12670000000000003,-12.869628694872238
-0.12770000000000015,-12.913484745168056
-0.12870000000000004,-12.955926084164007
-0.12970000000000015,-12.913484745168056
-0.13070000000000004,-12.955926084164007
-0.13170000000000015,-12.955926084164007
-0.13270000000000004,-12.955926084164007
-0.13370000000000015,-12.955926084164007
-0.13470000000000004,-12.955926084164007
-0.13570000000000015,-12.99978213445982
-0.13670000000000004,-13.043638184755638
-0.13770000000000016,-13.043638184755638
-0.13870000000000005,-13.043638184755638
-0.13970000000000016,-13.087494235051453
-0.14070000000000005,-13.087494235051453
-0.14170000000000016,-13.13135028534727
-0.14270000000000005,-13.13135028534727
-0.14370000000000016,-13.13135028534727
-0.14470000000000005,-13.087494235051453
-0.14570000000000016,-13.087494235051453
-0.14670000000000005,-13.13135028534727
-0.14770000000000016,-13.175206335643086
-0.14870000000000005,-13.13135028534727
-0.14970000000000017,-13.13135028534727
-0.15070000000000006,-13.175206335643086
-0.15170000000000017,-13.217647674639037
-0.15270000000000006,-13.217647674639037
-0.15370000000000017,-13.217647674639037
-0.15470000000000006,-13.217647674639037
-0.15570000000000017,-13.261503724934855
-0.15670000000000006,-13.261503724934855
-0.15770000000000017,-13.261503724934855
-0.15870000000000006,-13.261503724934855
-0.15970000000000018,-13.30535977523067
-0.16070000000000007,-13.30535977523067
-0.16170000000000018,-13.30535977523067
-0.16270000000000007,-13.30535977523067
-0.16370000000000018,-13.349215825526485
-0.16470000000000007,-13.436927926118118
-0.16570000000000018,-13.436927926118118
-0.16670000000000007,-13.436927926118118
-0.16770000000000018,-13.436927926118118
-0.16870000000000007,-13.47936926511407
-0.16970000000000018,-13.47936926511407
-0.17070000000000007,-13.47936926511407
-0.17170000000000019,-13.47936926511407
-0.17270000000000008,-13.436927926118118
-0.1737000000000002,-13.47936926511407
-0.17470000000000008,-13.523225315409885
-0.1757000000000002,-13.47936926511407
-0.17670000000000008,-13.47936926511407
-0.1777000000000002,-13.523225315409885
-0.17870000000000008,-13.567081365705702
-0.1797000000000002,-13.610937416001518
-0.18070000000000008,-13.610937416001518
-0.1817000000000002,-13.654793466297335
-0.18270000000000008,-13.654793466297335
-0.1837000000000002,-13.698649516593148
-0.1847000000000001,-13.698649516593148
-0.1857000000000002,-13.698649516593148
-0.1867000000000001,-13.698649516593148
-0.1877000000000002,-13.741090855589102
-0.1887000000000001,-13.784946905884919
-0.1897000000000002,-13.784946905884919
-0.1907000000000001,-13.784946905884919
-0.1917000000000001,-13.828802956180734
-0.19269999999999998,-13.872659006476551
-0.1937000000000001,-13.916515056772363
-0.19469999999999998,-13.916515056772363
-0.1957000000000001,-13.916515056772363
-0.19669999999999999,-13.960371107068182
-0.1977000000000001,-14.002812446064135
-0.1987,-14.046668496359947
-0.1997000000000001,-14.002812446064135
-0.2007,-14.046668496359947
-0.2017000000000001,-14.090524546655764
-0.2027,-14.090524546655764
-0.2037000000000001,-14.13438059695158
-0.2047,-14.13438059695158
-0.2057000000000001,-14.217848563643619
-0.2067,-14.217848563643619
-0.2077000000000001,-14.26028990263957
-0.2087,-14.30273124163552
-0.2097000000000001,-14.30273124163552
-0.2107,-14.345172580631472
-0.2117000000000001,-14.401761032626075
-0.2127,-14.444202371622024
-0.2137000000000001,-14.444202371622024
-0.2147,-14.444202371622024
-0.2157000000000001,-14.529085049613924
-0.2167,-14.57152638860988
-0.21770000000000012,-14.61396772760583
-0.2187,-14.61396772760583
-0.21970000000000012,-14.69885040559773
-0.2207,-14.741291744593681
-0.22170000000000012,-14.783733083589633
-0.2227,-14.783733083589633
-0.22370000000000012,-14.826174422585586
-0.2247,-14.868615761581536
-0.22570000000000012,-14.925204213576137
-0.2267,-14.967645552572087
-0.22770000000000012,-15.01008689156804
-0.22870000000000001,-15.01008689156804
-0.22970000000000013,-15.094969569559943
-0.23070000000000002,-15.137410908555893
-0.23170000000000013,-15.179852247551842
-0.23270000000000002,-15.222293586547794
-0.23370000000000013,-15.264734925543747
-0.23470000000000002,-15.349617603535648
-0.23570000000000013,-15.3920589425316
-0.23670000000000002,-15.3920589425316
-0.2376999999999999,-15.448647394526201
-0.23870000000000002,-15.533530072518102
-0.2396999999999999,-15.575971411514052
-0.24070000000000003,-15.660854089505953
-0.24169999999999991,-15.660854089505953
-0.24270000000000003,-15.70329542850191
-0.24369999999999992,-15.78817810649381
-0.24470000000000003,-15.91550212348166
-0.24569999999999992,-15.972090575476265
-0.24670000000000003,-16.014531914472215
-0.24769999999999992,-16.099414592464115
-0.24870000000000003,-16.184297270456018
-0.24969999999999992,-16.22673860945197
-0.25070000000000003,-16.269179948447924
-0.2516999999999999,-16.354062626439823
-0.25270000000000004,-16.396503965435777
-0.2536999999999999,-16.495533756426326
-0.25470000000000004,-16.580416434418233
-0.2556999999999999,-16.622857773414182
-0.25670000000000004,-16.70774045140608
-0.25769999999999993,-16.792623129397985
-0.25870000000000004,-16.877505807389888
-0.25969999999999993,-16.962388485381787
-0.26070000000000004,-17.061418276372343
-0.26169999999999993,-17.146300954364243
-0.26270000000000004,-17.188742293360193
-0.26369999999999993,-17.316066310348052
-0.26470000000000005,-17.358507649344002
-0.26569999999999994,-17.40094898833995
-0.26670000000000005,-17.542420118326454
-0.26769999999999994,-17.627302796318357
-0.26870000000000005,-17.71218547431026
-0.26969999999999994,-17.797068152302163
-0.27070000000000005,-17.881950830294063
-0.27169999999999994,-18.009274847281915
-0.27270000000000005,-18.15074597726842
-0.27369999999999994,-18.27806999425627
-0.27470000000000006,-18.320511333252224
-0.27569999999999995,-18.49027668923603
-0.27670000000000006,-18.589306480226583
-0.27769999999999995,-18.716630497214435
-0.27870000000000006,-18.843954514202288
-0.27969999999999995,-18.88639585319824
-0.28070000000000006,-19.01371987018609
-0.28169999999999995,-19.155191000172596
-0.28270000000000006,-19.3249563561564
-0.28369999999999995,-19.409839034148305
-0.28470000000000006,-19.537163051136158
-0.28569999999999995,-19.721075520118614
-0.28670000000000007,-19.848399537106463
-0.28769999999999996,-19.97572355409432
-0.28870000000000007,-20.10304757108217
-0.28969999999999996,-20.244518701068674
-0.29070000000000007,-20.371842718056527
-0.29169999999999996,-20.541608074040333
-0.29270000000000007,-20.683079204026836
-0.29369999999999996,-20.76796188201874
-0.2947000000000001,-20.93772723800254
-0.29569999999999996,-21.107492593986347
-0.2967000000000001,-21.291405062968803
-0.29769999999999996,-21.418729079956652
-0.2987000000000001,-21.58849443594046
-0.29969999999999997,-21.772406904922917
-0.3007000000000001,-21.94217226090672
-0.30169999999999997,-22.15437895588647
-0.3027000000000001,-22.295850085872978
-0.30369999999999997,-22.46561544185678
-0.3047000000000001,-22.63538079784059
-0.30569999999999997,-22.819293266823045
-0.3067000000000001,-22.989058622806844
-0.3077,-23.15882397879065
-0.3087000000000001,-23.385177786769056
-0.3097,-23.597384481748815
-0.3107000000000001,-23.823738289727217
-0.3117,-23.993503645711023
-0.3127000000000001,-24.20571034069078
-0.3137,-24.432064148669184
-0.3147000000000001,-24.64427084364894
-0.3157,-24.870624651627345
-0.3167000000000001,-25.04039000761115
-0.3177,-25.252596702590903
-0.3187000000000001,-25.478950510569312
-0.3197,-25.691157205549064
-0.3207000000000001,-25.91751101352747
-0.3217,-26.087276369511276
-0.3227000000000001,-26.38436574248293
-0.3237,-26.65316088945729
-0.3247000000000001,-26.907808923433
-0.3257,-27.134162731411404
-0.3267000000000001,-27.34636942639116
-0.3277,-27.65760591236147
-0.3287000000000001,-27.912253946337174
-0.3297,-28.13860775431558
-0.3307000000000001,-28.393255788291288
-0.3317,-28.662050935265643
-0.3327000000000001,-28.91669896924135
-0.3337,-29.18549411621571
-0.3347000000000001,-29.482583489187363
-0.3357,-29.751378636161718
-0.3367000000000001,-30.00602667013743
-0.3377,-30.317263156107735
-0.3387000000000001,-30.614352529079397
-0.3397,-30.925589015049702
-0.3407000000000001,-31.19438416202406
-0.3417,-31.533914873991666
-0.3427000000000001,-31.84515135996197
-0.3437,-32.14224073293363
-0.3447000000000001,-32.41103587990799
-0.3457,-32.764713704874254
-0.3467000000000001,-33.06180307784591
-0.3477,-33.41548090281216
-0.3487000000000001,-33.712570275783825
-0.3497,-34.06624810075008
-0.3507000000000001,-34.41992592571634
-0.3517,-34.75945663768395
-0.3527000000000001,-35.15557580164616
-0.3537,-35.50925362661242
-0.3547000000000001,-35.806342999584075
-0.3557,-36.16002082455034
-0.35670000000000013,-36.55613998851254
-0.3577,-36.89567070048016
-0.35870000000000013,-37.249348525446415
-0.3597,-37.60302635041268
-0.36070000000000013,-37.99914551437489
-0.3617,-38.38111756533845
-0.3626999999999999,-38.734795390304704
-0.3637,-39.130914554266916
-0.3646999999999999,-39.51288660523048
-0.3657,-39.90900576919269
-0.3666999999999999,-40.30512493315489
-0.3677,-40.701244097117105
-0.3686999999999999,-41.139804600075266
-0.36970000000000003,-41.52177665103883
-0.3706999999999999,-41.96033715399699
-0.37170000000000003,-42.3564563179592
-0.3726999999999999,-42.752575481921404
-0.37370000000000003,-43.134547532884966
-0.3746999999999999,-43.61554937483908
-0.37570000000000003,-44.054109877797245
-0.3766999999999999,-44.4926703807554
-0.37770000000000004,-44.93123088371356
-0.3786999999999999,-45.412232725667685
-0.37970000000000004,-45.89323456762179
-0.3806999999999999,-46.37423640957591
-0.38170000000000004,-46.84109113853137
-0.38269999999999993,-47.27965164148953
-0.38370000000000004,-47.80309482243959
-0.38469999999999993,-48.24165532539775
-0.38570000000000004,-48.72265716735186
-0.38669999999999993,-48.114331308409895
-0.38570000000000004,-45.75176343763528
-0.38469999999999993,-43.657990713835034
-0.38370000000000004,-41.87545447600508
-0.38269999999999993,-40.177800916167044
-0.38170000000000004,-38.692354051308754
-0.3806999999999999,-37.334231203438314
-0.37970000000000004,-36.07513814655844
-0.3786999999999999,-34.94336910666641
-0.37770000000000004,-33.81160006677438
-0.3766999999999999,-32.764713704874254
-0.37570000000000003,-31.84515135996197
-0.3746999999999999,-30.968030354045652
-0.37370000000000003,-30.10505646112798
-0.3726999999999999,-29.27037679420761
-0.37170000000000003,-28.435697127287238
-0.3706999999999999,-27.742488590353368
-0.36970000000000003,-27.049280053419505
-0.3686999999999999,-26.34192440348698
-0.3677,-25.691157205549064
-0.3666999999999999,-25.04039000761115
-0.3657,-24.432064148669184
-0.3646999999999999,-23.823738289727217
-0.3637,-23.15882397879065
-0.3626999999999999,-22.550498119848687
-0.3617,-21.98461359990267
-0.36070000000000013,-21.418729079956652
-0.3597,-20.85284456001064
-0.35870000000000013,-20.329401379060574
-0.3577,-19.805958198110513
-0.35670000000000013,-19.3249563561564
-0.3557,-18.80151317520634
-0.3547000000000001,-18.320511333252224
-0.3537,-17.797068152302163
-0.3527000000000001,-17.358507649344002
-0.3517,-16.919947146385837
-0.3507000000000001,-16.396503965435777
-0.3497,-15.972090575476265
-0.3487000000000001,-15.491088733522153
-0.3477,-15.01008689156804
-0.3467000000000001,-14.61396772760583
-0.3457,-14.175407224647667
-0.3447000000000001,-13.784946905884919
-0.3437,-13.349215825526485
-0.3427000000000001,-12.955926084164007
-0.3417,-12.56405105410139
-0.3407000000000001,-12.170761312738911
-0.3397,-11.778886282676295
-0.3387000000000001,-11.42945259160963
-0.3377,-11.037577561547016
-0.3367000000000001,-10.688143870480351
-0.3357,-10.296268840417738
-0.3347000000000001,-9.902979099055257
-0.3337,-9.59740145828441
-0.3327000000000001,-9.24938247851761
-0.3317,-8.899948787450944
-0.3307000000000001,-8.55051509638428
-0.3297,-8.202496116617484
-0.3287000000000001,-7.940774526142452
-0.3277,-7.679052935667419
-0.3267000000000001,-7.329619244600755
-0.3257,-6.981600264833956
-0.3247000000000001,-6.719878674358924
-0.3237,-6.458157083883892
-0.3227000000000001,-6.152579443113044
-0.3217,-5.890857852638012
-0.3207000000000001,-5.5414241615713475
-0.3197,-5.323558621392133
-0.3187000000000001,-5.0618370309171015
-0.3177,-4.843971490737885
-0.3167000000000001,-4.582249900262854
-0.3157,-4.3205283097878215
-0.3147000000000001,-4.102662769608606
-0.3137,-3.884797229429391
-0.3127000000000001,-3.623075638954359
-0.3117,-3.447651437771094
-0.3107000000000001,-3.1859298472960624
-0.3097,-3.0119203574126634
-0.3087000000000001,-2.794054817233447
-0.3077,-2.576189277054232
-0.3067000000000001,-2.4007650758709675
-0.30569999999999997,-2.226755585987568
-0.3047000000000001,-2.052746096104168
-0.30369999999999997,-1.8773218949209036
-0.3027000000000001,-1.7033124050375041
-0.30169999999999997,-1.5293029151541047
-0.3007000000000001,-1.3980177065266295
-0.29969999999999997,-1.2671569112891135
-0.2987000000000001,-1.0925815368857679
-0.29769999999999996,-0.9181476336124089
-0.2967000000000001,-0.7437137303390498
-0.29569999999999996,-0.6128529351015338
-0.2947000000000001,-0.5255652478998613
-0.29369999999999996,-0.3511313446265021
-0.29270000000000007,-0.2202705493889862
-0.29169999999999996,-0.08943804837746762
-0.29070000000000007,-0.002205534916489592
-0.28969999999999996,0.17231183632356148
-0.28870000000000007,0.2594580523952477
-0.28769999999999996,0.3467457395969205
-0.28670000000000007,0.4776065348344364
-0.28569999999999995,0.6084673300719523
-0.28470000000000006,0.6956135461436386
-0.28369999999999995,0.870188920546984
-0.28270000000000006,0.9573351366186703
-0.28169999999999995,1.0446228238203432
-0.28070000000000006,1.1317690398920295
-0.27969999999999995,1.2626298351295453
-0.27870000000000006,1.349917522331218
-0.27769999999999995,1.4373466806628774
-0.27670000000000006,1.4812027309586933
-0.27569999999999995,1.5675001202504606
-0.27470000000000006,1.6990682711379093
-0.27369999999999994,1.7429243214337253
-0.27270000000000005,1.8292217107254924
-0.27169999999999994,1.9169338113171246
-0.27070000000000005,2.048501962204573
-0.26969999999999994,2.1347993514963406
-0.26870000000000005,2.2225114520879723
-0.26769999999999994,2.2663675023837886
