Mar. 30, 2025   04:07:43
Cyclic Voltammetry
File: c:/users/guazh/data/banditlqround7_x0exp518_r20/2025-03-28-exp986\exp986-2025-03-30t03_52_29-h2koh\exp986_cv_sr_600mvs_efin_-1600mv.bin
Data Source:  Experiment
Instrument Model:  CHI760E
Header: CV ran at 600 mVs
Note: 

Init E (V) = -1
High E (V) = -1
Low E (V) = -1.6
Final E (V) = -1
Init P/N = N
Scan Rate (V/s) = 0.6
Segment = 3
Sample Interval (V) = 0.001
Quiet Time (sec) = 2
Sensitivity (A/V) = 0.01
Comp R (ohm) = 1.9

Results:

Channel 1:
Segment 1:

Segment 2:

Segment 3:

Potential/V, Current/A

-1.000, 2.790e-5
-1.001, 7.723e-5
-1.002, 1.081e-4
-1.003, 1.296e-4
-1.004, 1.451e-4
-1.005, 1.574e-4
-1.006, 1.697e-4
-1.007, 1.790e-4
-1.008, 1.851e-4
-1.009, 1.913e-4
-1.010, 1.944e-4
-1.011, 1.975e-4
-1.012, 2.006e-4
-1.013, 2.036e-4
-1.014, 2.067e-4
-1.015, 2.098e-4
-1.016, 2.129e-4
-1.017, 2.160e-4
-1.018, 2.191e-4
-1.019, 2.191e-4
-1.020, 2.191e-4
-1.021, 2.221e-4
-1.022, 2.221e-4
-1.023, 2.221e-4
-1.024, 2.221e-4
-1.025, 2.252e-4
-1.026, 2.252e-4
-1.027, 2.283e-4
-1.028, 2.283e-4
-1.029, 2.314e-4
-1.030, 2.314e-4
-1.031, 2.314e-4
-1.032, 2.314e-4
-1.033, 2.283e-4
-1.034, 2.314e-4
-1.035, 2.314e-4
-1.036, 2.314e-4
-1.037, 2.345e-4
-1.038, 2.345e-4
-1.039, 2.345e-4
-1.040, 2.345e-4
-1.041, 2.345e-4
-1.042, 2.345e-4
-1.043, 2.345e-4
-1.044, 2.345e-4
-1.045, 2.345e-4
-1.046, 2.376e-4
-1.047, 2.376e-4
-1.048, 2.376e-4
-1.049, 2.406e-4
-1.050, 2.406e-4
-1.051, 2.376e-4
-1.052, 2.376e-4
-1.053, 2.376e-4
-1.054, 2.376e-4
-1.055, 2.376e-4
-1.056, 2.406e-4
-1.057, 2.406e-4
-1.058, 2.406e-4
-1.059, 2.406e-4
-1.060, 2.406e-4
-1.061, 2.406e-4
-1.062, 2.406e-4
-1.063, 2.406e-4
-1.064, 2.406e-4
-1.065, 2.406e-4
-1.066, 2.406e-4
-1.067, 2.437e-4
-1.068, 2.437e-4
-1.069, 2.437e-4
-1.070, 2.437e-4
-1.071, 2.437e-4
-1.072, 2.406e-4
-1.073, 2.406e-4
-1.074, 2.437e-4
-1.075, 2.437e-4
-1.076, 2.437e-4
-1.077, 2.437e-4
-1.078, 2.468e-4
-1.079, 2.468e-4
-1.080, 2.437e-4
-1.081, 2.437e-4
-1.082, 2.437e-4
-1.083, 2.437e-4
-1.084, 2.437e-4
-1.085, 2.437e-4
-1.086, 2.468e-4
-1.087, 2.468e-4
-1.088, 2.468e-4
-1.089, 2.468e-4
-1.090, 2.468e-4
-1.091, 2.468e-4
-1.092, 2.468e-4
-1.093, 2.468e-4
-1.094, 2.468e-4
-1.095, 2.468e-4
-1.096, 2.468e-4
-1.097, 2.499e-4
-1.098, 2.499e-4
-1.099, 2.499e-4
-1.100, 2.499e-4
-1.101, 2.468e-4
-1.102, 2.468e-4
-1.103, 2.468e-4
-1.104, 2.468e-4
-1.105, 2.499e-4
-1.106, 2.468e-4
-1.107, 2.499e-4
-1.108, 2.499e-4
-1.109, 2.499e-4
-1.110, 2.499e-4
-1.111, 2.499e-4
-1.112, 2.499e-4
-1.113, 2.499e-4
-1.114, 2.499e-4
-1.115, 2.499e-4
-1.116, 2.499e-4
-1.117, 2.499e-4
-1.118, 2.499e-4
-1.119, 2.530e-4
-1.120, 2.499e-4
-1.121, 2.499e-4
-1.122, 2.499e-4
-1.123, 2.499e-4
-1.124, 2.499e-4
-1.125, 2.499e-4
-1.126, 2.499e-4
-1.127, 2.530e-4
-1.128, 2.530e-4
-1.129, 2.530e-4
-1.130, 2.530e-4
-1.131, 2.530e-4
-1.132, 2.499e-4
-1.133, 2.499e-4
-1.134, 2.499e-4
-1.135, 2.499e-4
-1.136, 2.530e-4
-1.137, 2.530e-4
-1.138, 2.561e-4
-1.139, 2.530e-4
-1.140, 2.530e-4
-1.141, 2.530e-4
-1.142, 2.530e-4
-1.143, 2.530e-4
-1.144, 2.530e-4
-1.145, 2.530e-4
-1.146, 2.561e-4
-1.147, 2.561e-4
-1.148, 2.561e-4
-1.149, 2.561e-4
-1.150, 2.561e-4
-1.151, 2.561e-4
-1.152, 2.530e-4
-1.153, 2.530e-4
-1.154, 2.561e-4
-1.155, 2.561e-4
-1.156, 2.561e-4
-1.157, 2.561e-4
-1.158, 2.561e-4
-1.159, 2.561e-4
-1.160, 2.561e-4
-1.161, 2.561e-4
-1.162, 2.530e-4
-1.163, 2.561e-4
-1.164, 2.561e-4
-1.165, 2.561e-4
-1.166, 2.591e-4
-1.167, 2.591e-4
-1.168, 2.591e-4
-1.169, 2.622e-4
-1.170, 2.591e-4
-1.171, 2.591e-4
-1.172, 2.591e-4
-1.173, 2.561e-4
-1.174, 2.561e-4
-1.175, 2.591e-4
-1.176, 2.591e-4
-1.177, 2.591e-4
-1.178, 2.591e-4
-1.179, 2.591e-4
-1.180, 2.591e-4
-1.181, 2.591e-4
-1.182, 2.591e-4
-1.183, 2.591e-4
-1.184, 2.591e-4
-1.185, 2.591e-4
-1.186, 2.591e-4
-1.187, 2.622e-4
-1.188, 2.622e-4
-1.189, 2.622e-4
-1.190, 2.622e-4
-1.191, 2.622e-4
-1.192, 2.591e-4
-1.193, 2.591e-4
-1.194, 2.622e-4
-1.195, 2.622e-4
-1.196, 2.622e-4
-1.197, 2.622e-4
-1.198, 2.653e-4
-1.199, 2.653e-4
-1.200, 2.622e-4
-1.201, 2.622e-4
-1.202, 2.622e-4
-1.203, 2.622e-4
-1.204, 2.622e-4
-1.205, 2.622e-4
-1.206, 2.622e-4
-1.207, 2.653e-4
-1.208, 2.622e-4
-1.209, 2.653e-4
-1.210, 2.653e-4
-1.211, 2.653e-4
-1.212, 2.622e-4
-1.213, 2.622e-4
-1.214, 2.622e-4
-1.215, 2.653e-4
-1.216, 2.653e-4
-1.217, 2.684e-4
-1.218, 2.684e-4
-1.219, 2.684e-4
-1.220, 2.684e-4
-1.221, 2.684e-4
-1.222, 2.684e-4
-1.223, 2.684e-4
-1.224, 2.684e-4
-1.225, 2.684e-4
-1.226, 2.684e-4
-1.227, 2.684e-4
-1.228, 2.715e-4
-1.229, 2.715e-4
-1.230, 2.715e-4
-1.231, 2.715e-4
-1.232, 2.715e-4
-1.233, 2.684e-4
-1.234, 2.684e-4
-1.235, 2.684e-4
-1.236, 2.715e-4
-1.237, 2.715e-4
-1.238, 2.746e-4
-1.239, 2.715e-4
-1.240, 2.715e-4
-1.241, 2.715e-4
-1.242, 2.715e-4
-1.243, 2.715e-4
-1.244, 2.715e-4
-1.245, 2.715e-4
-1.246, 2.715e-4
-1.247, 2.746e-4
-1.248, 2.776e-4
-1.249, 2.746e-4
-1.250, 2.746e-4
-1.251, 2.776e-4
-1.252, 2.746e-4
-1.253, 2.776e-4
-1.254, 2.746e-4
-1.255, 2.776e-4
-1.256, 2.776e-4
-1.257, 2.807e-4
-1.258, 2.807e-4
-1.259, 2.807e-4
-1.260, 2.807e-4
-1.261, 2.807e-4
-1.262, 2.776e-4
-1.263, 2.807e-4
-1.264, 2.776e-4
-1.265, 2.807e-4
-1.266, 2.807e-4
-1.267, 2.838e-4
-1.268, 2.838e-4
-1.269, 2.838e-4
-1.270, 2.838e-4
-1.271, 2.838e-4
-1.272, 2.838e-4
-1.273, 2.838e-4
-1.274, 2.838e-4
-1.275, 2.838e-4
-1.276, 2.869e-4
-1.277, 2.869e-4
-1.278, 2.900e-4
-1.279, 2.900e-4
-1.280, 2.900e-4
-1.281, 2.900e-4
-1.282, 2.931e-4
-1.283, 2.900e-4
-1.284, 2.900e-4
-1.285, 2.931e-4
-1.286, 2.931e-4
-1.287, 2.961e-4
-1.288, 2.961e-4
-1.289, 2.961e-4
-1.290, 2.961e-4
-1.291, 2.961e-4
-1.292, 2.992e-4
-1.293, 2.992e-4
-1.294, 2.992e-4
-1.295, 2.992e-4
-1.296, 3.023e-4
-1.297, 3.054e-4
-1.298, 3.054e-4
-1.299, 3.085e-4
-1.300, 3.085e-4
-1.301, 3.085e-4
-1.302, 3.085e-4
-1.303, 3.085e-4
-1.304, 3.085e-4
-1.305, 3.115e-4
-1.306, 3.115e-4
-1.307, 3.146e-4
-1.308, 3.177e-4
-1.309, 3.177e-4
-1.310, 3.177e-4
-1.311, 3.208e-4
-1.312, 3.208e-4
-1.313, 3.208e-4
-1.314, 3.239e-4
-1.315, 3.239e-4
-1.316, 3.300e-4
-1.317, 3.300e-4
-1.318, 3.331e-4
-1.319, 3.331e-4
-1.320, 3.331e-4
-1.321, 3.362e-4
-1.322, 3.362e-4
-1.323, 3.362e-4
-1.324, 3.393e-4
-1.325, 3.424e-4
-1.326, 3.455e-4
-1.327, 3.485e-4
-1.328, 3.485e-4
-1.329, 3.516e-4
-1.330, 3.547e-4
-1.331, 3.547e-4
-1.332, 3.578e-4
-1.333, 3.578e-4
-1.334, 3.609e-4
-1.335, 3.640e-4
-1.336, 3.670e-4
-1.337, 3.732e-4
-1.338, 3.732e-4
-1.339, 3.763e-4
-1.340, 3.794e-4
-1.341, 3.825e-4
-1.342, 3.825e-4
-1.343, 3.855e-4
-1.344, 3.886e-4
-1.345, 3.917e-4
-1.346, 3.948e-4
-1.347, 4.010e-4
-1.348, 4.040e-4
-1.349, 4.071e-4
-1.350, 4.102e-4
-1.351, 4.133e-4
-1.352, 4.164e-4
-1.353, 4.195e-4
-1.354, 4.225e-4
-1.355, 4.256e-4
-1.356, 4.287e-4
-1.357, 4.349e-4
-1.358, 4.380e-4
-1.359, 4.441e-4
-1.360, 4.472e-4
-1.361, 4.503e-4
-1.362, 4.534e-4
-1.363, 4.565e-4
-1.364, 4.626e-4
-1.365, 4.688e-4
-1.366, 4.719e-4
-1.367, 4.780e-4
-1.368, 4.842e-4
-1.369, 4.904e-4
-1.370, 4.935e-4
-1.371, 4.996e-4
-1.372, 5.027e-4
-1.373, 5.058e-4
-1.374, 5.120e-4
-1.375, 5.181e-4
-1.376, 5.243e-4
-1.377, 5.335e-4
-1.378, 5.397e-4
-1.379, 5.459e-4
-1.380, 5.520e-4
-1.381, 5.582e-4
-1.382, 5.644e-4
-1.383, 5.705e-4
-1.384, 5.767e-4
-1.385, 5.829e-4
-1.386, 5.921e-4
-1.387, 6.014e-4
-1.388, 6.075e-4
-1.389, 6.168e-4
-1.390, 6.229e-4
-1.391, 6.291e-4
-1.392, 6.384e-4
-1.393, 6.445e-4
-1.394, 6.538e-4
-1.395, 6.630e-4
-1.396, 6.723e-4
-1.397, 6.815e-4
-1.398, 6.908e-4
-1.399, 7.000e-4
-1.400, 7.093e-4
-1.401, 7.185e-4
-1.402, 7.278e-4
-1.403, 7.401e-4
-1.404, 7.494e-4
-1.405, 7.586e-4
-1.406, 7.709e-4
-1.407, 7.833e-4
-1.408, 7.956e-4
-1.409, 8.079e-4
-1.410, 8.203e-4
-1.411, 8.326e-4
-1.412, 8.449e-4
-1.413, 8.573e-4
-1.414, 8.727e-4
-1.415, 8.850e-4
-1.416, 9.035e-4
-1.417, 9.189e-4
-1.418, 9.343e-4
-1.419, 9.528e-4
-1.420, 9.683e-4
-1.421, 9.837e-4
-1.422, 1.002e-3
-1.423, 1.021e-3
-1.424, 1.036e-3
-1.425, 1.055e-3
-1.426, 1.073e-3
-1.427, 1.092e-3
-1.428, 1.110e-3
-1.429, 1.125e-3
-1.430, 1.138e-3
-1.431, 1.156e-3
-1.432, 1.178e-3
-1.433, 1.203e-3
-1.434, 1.233e-3
-1.435, 1.261e-3
-1.436, 1.298e-3
-1.437, 1.332e-3
-1.438, 1.366e-3
-1.439, 1.400e-3
-1.440, 1.428e-3
-1.441, 1.455e-3
-1.442, 1.483e-3
-1.443, 1.511e-3
-1.444, 1.536e-3
-1.445, 1.563e-3
-1.446, 1.588e-3
-1.447, 1.616e-3
-1.448, 1.643e-3
-1.449, 1.674e-3
-1.450, 1.702e-3
-1.451, 1.730e-3
-1.452, 1.754e-3
-1.453, 1.785e-3
-1.454, 1.819e-3
-1.455, 1.850e-3
-1.456, 1.884e-3
-1.457, 1.915e-3
-1.458, 1.949e-3
-1.459, 1.983e-3
-1.460, 2.013e-3
-1.461, 2.050e-3
-1.462, 2.084e-3
-1.463, 2.118e-3
-1.464, 2.152e-3
-1.465, 2.189e-3
-1.466, 2.223e-3
-1.467, 2.257e-3
-1.468, 2.288e-3
-1.469, 2.319e-3
-1.470, 2.356e-3
-1.471, 2.390e-3
-1.472, 2.427e-3
-1.473, 2.464e-3
-1.474, 2.497e-3
-1.475, 2.541e-3
-1.476, 2.587e-3
-1.477, 2.624e-3
-1.478, 2.661e-3
-1.479, 2.701e-3
-1.480, 2.738e-3
-1.481, 2.775e-3
-1.482, 2.809e-3
-1.483, 2.846e-3
-1.484, 2.883e-3
-1.485, 2.920e-3
-1.486, 2.957e-3
-1.487, 2.994e-3
-1.488, 3.034e-3
-1.489, 3.077e-3
-1.490, 3.114e-3
-1.491, 3.154e-3
-1.492, 3.191e-3
-1.493, 3.234e-3
-1.494, 3.274e-3
-1.495, 3.318e-3
-1.496, 3.361e-3
-1.497, 3.404e-3
-1.498, 3.447e-3
-1.499, 3.490e-3
-1.500, 3.533e-3
-1.501, 3.573e-3
-1.502, 3.617e-3
-1.503, 3.660e-3
-1.504, 3.703e-3
-1.505, 3.749e-3
-1.506, 3.799e-3
-1.507, 3.857e-3
-1.508, 3.897e-3
-1.509, 3.943e-3
-1.510, 3.987e-3
-1.511, 4.036e-3
-1.512, 4.082e-3
-1.513, 4.125e-3
-1.514, 4.175e-3
-1.515, 4.218e-3
-1.516, 4.264e-3
-1.517, 4.317e-3
-1.518, 4.369e-3
-1.519, 4.418e-3
-1.520, 4.468e-3
-1.521, 4.520e-3
-1.522, 4.569e-3
-1.523, 4.622e-3
-1.524, 4.671e-3
-1.525, 4.727e-3
-1.526, 4.779e-3
-1.527, 4.834e-3
-1.528, 4.881e-3
-1.529, 4.930e-3
-1.530, 4.976e-3
-1.531, 5.026e-3
-1.532, 5.078e-3
-1.533, 5.127e-3
-1.534, 5.177e-3
-1.535, 5.254e-3
-1.536, 5.303e-3
-1.537, 5.356e-3
-1.538, 5.411e-3
-1.539, 5.454e-3
-1.540, 5.513e-3
-1.541, 5.568e-3
-1.542, 5.611e-3
-1.543, 5.667e-3
-1.544, 5.722e-3
-1.545, 5.772e-3
-1.546, 5.836e-3
-1.547, 5.892e-3
-1.548, 5.951e-3
-1.549, 5.972e-3
-1.550, 6.062e-3
-1.551, 6.117e-3
-1.552, 6.163e-3
-1.553, 6.222e-3
-1.554, 6.247e-3
-1.555, 6.330e-3
-1.556, 6.388e-3
-1.557, 6.450e-3
-1.558, 6.502e-3
-1.559, 6.555e-3
-1.560, 6.607e-3
-1.561, 6.666e-3
-1.562, 6.728e-3
-1.563, 6.783e-3
-1.564, 6.854e-3
-1.565, 6.909e-3
-1.566, 6.968e-3
-1.567, 7.023e-3
-1.568, 7.091e-3
-1.569, 7.156e-3
-1.570, 7.208e-3
-1.571, 7.270e-3
-1.572, 7.332e-3
-1.573, 7.393e-3
-1.574, 7.474e-3
-1.575, 7.526e-3
-1.576, 7.585e-3
-1.577, 7.646e-3
-1.578, 7.699e-3
-1.579, 7.757e-3
-1.580, 7.813e-3
-1.581, 7.862e-3
-1.582, 7.927e-3
-1.583, 7.982e-3
-1.584, 8.038e-3
-1.585, 8.093e-3
-1.586, 8.186e-3
-1.587, 8.244e-3
-1.588, 8.306e-3
-1.589, 8.368e-3
-1.590, 8.436e-3
-1.591, 8.522e-3
-1.592, 8.596e-3
-1.593, 8.645e-3
-1.594, 8.713e-3
-1.595, 8.787e-3
-1.596, 8.843e-3
-1.597, 8.892e-3
-1.598, 8.926e-3
-1.599, 9.006e-3
-1.600, 9.018e-3
-1.599, 8.935e-3
-1.598, 8.815e-3
-1.597, 8.769e-3
-1.596, 8.664e-3
-1.595, 8.571e-3
-1.594, 8.534e-3
-1.593, 8.411e-3
-1.592, 8.365e-3
-1.591, 8.288e-3
-1.590, 8.170e-3
-1.589, 8.099e-3
-1.588, 8.035e-3
-1.587, 7.819e-3
-1.586, 7.871e-3
-1.585, 7.782e-3
-1.584, 7.699e-3
-1.583, 7.656e-3
-1.582, 7.606e-3
-1.581, 7.526e-3
-1.580, 7.464e-3
-1.579, 7.400e-3
-1.578, 7.381e-3
-1.577, 7.332e-3
-1.576, 7.289e-3
-1.575, 7.286e-3
-1.574, 7.236e-3
-1.573, 7.165e-3
-1.572, 7.082e-3
-1.571, 7.008e-3
-1.570, 6.940e-3
-1.569, 6.854e-3
-1.568, 6.789e-3
-1.567, 6.721e-3
-1.566, 6.666e-3
-1.565, 6.607e-3
-1.564, 6.536e-3
-1.563, 6.456e-3
-1.562, 6.435e-3
-1.561, 6.336e-3
-1.560, 6.280e-3
-1.559, 6.228e-3
-1.558, 6.200e-3
-1.557, 6.163e-3
-1.556, 6.089e-3
-1.555, 6.028e-3
-1.554, 5.966e-3
-1.553, 5.907e-3
-1.552, 5.843e-3
-1.551, 5.778e-3
-1.550, 5.716e-3
-1.549, 5.658e-3
-1.548, 5.593e-3
-1.547, 5.547e-3
-1.546, 5.488e-3
-1.545, 5.439e-3
-1.544, 5.374e-3
-1.543, 5.334e-3
-1.542, 5.282e-3
-1.541, 5.238e-3
-1.540, 5.174e-3
-1.539, 5.152e-3
-1.538, 5.093e-3
-1.537, 5.041e-3
-1.536, 4.992e-3
-1.535, 4.949e-3
-1.534, 4.902e-3
-1.533, 4.856e-3
-1.532, 4.797e-3
-1.531, 4.742e-3
-1.530, 4.683e-3
-1.529, 4.634e-3
-1.528, 4.582e-3
-1.527, 4.523e-3
-1.526, 4.480e-3
-1.525, 4.428e-3
-1.524, 4.384e-3
-1.523, 4.326e-3
-1.522, 4.310e-3
-1.521, 4.233e-3
-1.520, 4.169e-3
-1.519, 4.116e-3
-1.518, 4.064e-3
-1.517, 4.011e-3
-1.516, 3.956e-3
-1.515, 3.922e-3
-1.514, 3.866e-3
-1.513, 3.823e-3
-1.512, 3.814e-3
-1.511, 3.777e-3
-1.510, 3.715e-3
-1.509, 3.675e-3
-1.508, 3.623e-3
-1.507, 3.586e-3
-1.506, 3.533e-3
-1.505, 3.499e-3
-1.504, 3.447e-3
-1.503, 3.419e-3
-1.502, 3.382e-3
-1.501, 3.345e-3
-1.500, 3.299e-3
-1.499, 3.262e-3
-1.498, 3.219e-3
-1.497, 3.179e-3
-1.496, 3.139e-3
-1.495, 3.099e-3
-1.494, 3.062e-3
-1.493, 3.025e-3
-1.492, 2.985e-3
-1.491, 2.948e-3
-1.490, 2.911e-3
-1.489, 2.871e-3
-1.488, 2.840e-3
-1.487, 2.793e-3
-1.486, 2.763e-3
-1.485, 2.729e-3
-1.484, 2.692e-3
-1.483, 2.658e-3
-1.482, 2.615e-3
-1.481, 2.584e-3
-1.480, 2.544e-3
-1.479, 2.501e-3
-1.478, 2.482e-3
-1.477, 2.445e-3
-1.476, 2.411e-3
-1.475, 2.390e-3
-1.474, 2.359e-3
-1.473, 2.331e-3
-1.472, 2.300e-3
-1.471, 2.275e-3
-1.470, 2.238e-3
-1.469, 2.208e-3
-1.468, 2.174e-3
-1.467, 2.140e-3
-1.466, 2.124e-3
-1.465, 2.078e-3
-1.464, 2.044e-3
-1.463, 2.010e-3
-1.462, 1.955e-3
-1.461, 1.943e-3
-1.460, 1.906e-3
-1.459, 1.881e-3
-1.458, 1.850e-3
-1.457, 1.819e-3
-1.456, 1.788e-3
-1.455, 1.758e-3
-1.454, 1.733e-3
-1.453, 1.711e-3
-1.452, 1.684e-3
-1.451, 1.659e-3
-1.450, 1.628e-3
-1.449, 1.594e-3
-1.448, 1.579e-3
-1.447, 1.554e-3
-1.446, 1.526e-3
-1.445, 1.502e-3
-1.444, 1.480e-3
-1.443, 1.452e-3
-1.442, 1.434e-3
-1.441, 1.412e-3
-1.440, 1.388e-3
-1.439, 1.360e-3
-1.438, 1.335e-3
-1.437, 1.310e-3
-1.436, 1.277e-3
-1.435, 1.258e-3
-1.434, 1.252e-3
-1.433, 1.227e-3
-1.432, 1.203e-3
-1.431, 1.181e-3
-1.430, 1.159e-3
-1.429, 1.135e-3
-1.428, 1.113e-3
-1.427, 1.095e-3
-1.426, 1.070e-3
-1.425, 1.051e-3
-1.424, 1.030e-3
-1.423, 1.014e-3
-1.422, 9.929e-4
-1.421, 9.744e-4
-1.420, 9.559e-4
-1.419, 9.374e-4
-1.418, 9.158e-4
-1.417, 9.035e-4
-1.416, 8.850e-4
-1.415, 8.665e-4
-1.414, 8.449e-4
-1.413, 8.326e-4
-1.412, 8.141e-4
-1.411, 7.956e-4
-1.410, 7.771e-4
-1.409, 7.709e-4
-1.408, 7.586e-4
-1.407, 7.370e-4
-1.406, 7.185e-4
-1.405, 7.000e-4
-1.404, 6.815e-4
-1.403, 6.661e-4
-1.402, 6.507e-4
-1.401, 6.353e-4
-1.400, 6.229e-4
-1.399, 6.075e-4
-1.398, 5.952e-4
-1.397, 5.798e-4
-1.396, 5.674e-4
-1.395, 5.551e-4
-1.394, 5.428e-4
-1.393, 5.305e-4
-1.392, 5.181e-4
-1.391, 5.058e-4
-1.390, 4.904e-4
-1.389, 4.750e-4
-1.388, 4.626e-4
-1.387, 4.503e-4
-1.386, 4.380e-4
-1.385, 4.256e-4
-1.384, 4.164e-4
-1.383, 4.040e-4
-1.382, 3.917e-4
-1.381, 3.825e-4
-1.380, 3.701e-4
-1.379, 3.578e-4
-1.378, 3.455e-4
-1.377, 3.362e-4
-1.376, 3.270e-4
-1.375, 3.177e-4
-1.374, 3.054e-4
-1.373, 2.961e-4
-1.372, 2.869e-4
-1.371, 2.776e-4
-1.370, 2.684e-4
-1.369, 2.591e-4
-1.368, 2.499e-4
-1.367, 2.406e-4
-1.366, 2.283e-4
-1.365, 2.221e-4
-1.364, 2.129e-4
-1.363, 2.067e-4
-1.362, 1.975e-4
-1.361, 1.913e-4
-1.360, 1.821e-4
-1.359, 1.728e-4
-1.358, 1.666e-4
-1.357, 1.574e-4
-1.356, 1.512e-4
-1.355, 1.420e-4
-1.354, 1.389e-4
-1.353, 1.296e-4
-1.352, 1.235e-4
-1.351, 1.173e-4
-1.350, 1.111e-4
-1.349, 1.019e-4
-1.348, 9.573e-5
-1.347, 8.957e-5
-1.346, 8.032e-5
-1.345, 7.415e-5
-1.344, 6.798e-5
-1.343, 6.490e-5
-1.342, 5.873e-5
-1.341, 5.565e-5
-1.340, 4.640e-5
-1.339, 4.024e-5
-1.338, 3.407e-5
-1.337, 2.790e-5
-1.336, 2.482e-5
-1.335, 1.865e-5
-1.334, 1.249e-5
-1.333, 9.405e-6
-1.332, 3.239e-6
-1.331, 1.559e-7
-1.330, -2.927e-6
-1.329, -9.093e-6
-1.328, -1.526e-5
-1.327, -2.143e-5
-1.326, -2.451e-5
-1.325, -2.759e-5
-1.324, -3.068e-5
-1.323, -3.684e-5
-1.322, -3.992e-5
-1.321, -4.301e-5
-1.320, -4.609e-5
-1.319, -5.226e-5
-1.318, -5.534e-5
-1.317, -6.151e-5
-1.316, -6.459e-5
-1.315, -6.767e-5
-1.314, -7.076e-5
-1.313, -7.384e-5
-1.312, -7.692e-5
-1.311, -8.000e-5
-1.310, -8.309e-5
-1.309, -8.617e-5
-1.308, -8.925e-5
-1.307, -9.234e-5
-1.306, -9.850e-5
-1.305, -9.850e-5
-1.304, -1.016e-4
-1.303, -1.047e-4
-1.302, -1.047e-4
-1.301, -1.078e-4
-1.300, -1.108e-4
-1.299, -1.139e-4
-1.298, -1.170e-4
-1.297, -1.232e-4
-1.296, -1.232e-4
-1.295, -1.263e-4
-1.294, -1.263e-4
-1.293, -1.293e-4
-1.292, -1.324e-4
-1.291, -1.324e-4
-1.290, -1.355e-4
-1.289, -1.386e-4
-1.288, -1.386e-4
-1.287, -1.448e-4
-1.286, -1.448e-4
-1.285, -1.448e-4
-1.284, -1.478e-4
-1.283, -1.478e-4
-1.282, -1.509e-4
-1.281, -1.540e-4
-1.280, -1.540e-4
-1.279, -1.571e-4
-1.278, -1.602e-4
-1.277, -1.632e-4
-1.276, -1.632e-4
-1.275, -1.663e-4
-1.274, -1.663e-4
-1.273, -1.663e-4
-1.272, -1.663e-4
-1.271, -1.694e-4
-1.270, -1.694e-4
-1.269, -1.725e-4
-1.268, -1.756e-4
-1.267, -1.756e-4
-1.266, -1.787e-4
-1.265, -1.787e-4
-1.264, -1.787e-4
-1.263, -1.787e-4
-1.262, -1.817e-4
-1.261, -1.817e-4
-1.260, -1.848e-4
-1.259, -1.848e-4
-1.258, -1.879e-4
-1.257, -1.879e-4
-1.256, -1.910e-4
-1.255, -1.910e-4
-1.254, -1.941e-4
-1.253, -1.910e-4
-1.252, -1.910e-4
-1.251, -1.941e-4
-1.250, -1.941e-4
-1.249, -1.972e-4
-1.248, -1.972e-4
-1.247, -2.002e-4
-1.246, -2.002e-4
-1.245, -2.033e-4
-1.244, -2.002e-4
-1.243, -2.033e-4
-1.242, -2.033e-4
-1.241, -2.033e-4
-1.240, -2.033e-4
-1.239, -2.064e-4
-1.238, -2.064e-4
-1.237, -2.064e-4
-1.236, -2.095e-4
-1.235, -2.095e-4
-1.234, -2.095e-4
-1.233, -2.095e-4
-1.232, -2.095e-4
-1.231, -2.095e-4
-1.230, -2.126e-4
-1.229, -2.126e-4
-1.228, -2.157e-4
-1.227, -2.157e-4
-1.226, -2.157e-4
-1.225, -2.157e-4
-1.224, -2.157e-4
-1.223, -2.157e-4
-1.222, -2.157e-4
-1.221, -2.187e-4
-1.220, -2.187e-4
-1.219, -2.187e-4
-1.218, -2.218e-4
-1.217, -2.218e-4
-1.216, -2.218e-4
-1.215, -2.218e-4
-1.214, -2.218e-4
-1.213, -2.218e-4
-1.212, -2.218e-4
-1.211, -2.218e-4
-1.210, -2.249e-4
-1.209, -2.249e-4
-1.208, -2.249e-4
-1.207, -2.280e-4
-1.206, -2.249e-4
-1.205, -2.280e-4
-1.204, -2.280e-4
-1.203, -2.280e-4
-1.202, -2.280e-4
-1.201, -2.280e-4
-1.200, -2.280e-4
-1.199, -2.280e-4
-1.198, -2.311e-4
-1.197, -2.311e-4
-1.196, -2.311e-4
-1.195, -2.311e-4
-1.194, -2.311e-4
-1.193, -2.311e-4
-1.192, -2.311e-4
-1.191, -2.311e-4
-1.190, -2.311e-4
-1.189, -2.311e-4
-1.188, -2.342e-4
-1.187, -2.342e-4
-1.186, -2.342e-4
-1.185, -2.342e-4
-1.184, -2.342e-4
-1.183, -2.342e-4
-1.182, -2.342e-4
-1.181, -2.342e-4
-1.180, -2.372e-4
-1.179, -2.372e-4
-1.178, -2.372e-4
-1.177, -2.403e-4
-1.176, -2.403e-4
-1.175, -2.403e-4
-1.174, -2.403e-4
-1.173, -2.372e-4
-1.172, -2.403e-4
-1.171, -2.403e-4
-1.170, -2.403e-4
-1.169, -2.403e-4
-1.168, -2.403e-4
-1.167, -2.434e-4
-1.166, -2.434e-4
-1.165, -2.434e-4
-1.164, -2.434e-4
-1.163, -2.434e-4
-1.162, -2.403e-4
-1.161, -2.434e-4
-1.160, -2.434e-4
-1.159, -2.434e-4
-1.158, -2.465e-4
-1.157, -2.465e-4
-1.156, -2.465e-4
-1.155, -2.465e-4
-1.154, -2.496e-4
-1.153, -2.496e-4
-1.152, -2.465e-4
-1.151, -2.465e-4
-1.150, -2.465e-4
-1.149, -2.496e-4
-1.148, -2.496e-4
-1.147, -2.527e-4
-1.146, -2.496e-4
-1.145, -2.527e-4
-1.144, -2.496e-4
-1.143, -2.496e-4
-1.142, -2.496e-4
-1.141, -2.496e-4
-1.140, -2.496e-4
-1.139, -2.527e-4
-1.138, -2.527e-4
-1.137, -2.557e-4
-1.136, -2.557e-4
-1.135, -2.557e-4
-1.134, -2.557e-4
-1.133, -2.557e-4
-1.132, -2.557e-4
-1.131, -2.557e-4
-1.130, -2.557e-4
-1.129, -2.557e-4
-1.128, -2.557e-4
-1.127, -2.588e-4
-1.126, -2.588e-4
-1.125, -2.588e-4
-1.124, -2.588e-4
-1.123, -2.557e-4
-1.122, -2.588e-4
-1.121, -2.588e-4
-1.120, -2.588e-4
-1.119, -2.588e-4
-1.118, -2.619e-4
-1.117, -2.619e-4
-1.116, -2.619e-4
-1.115, -2.619e-4
-1.114, -2.619e-4
-1.113, -2.619e-4
-1.112, -2.588e-4
-1.111, -2.619e-4
-1.110, -2.619e-4
-1.109, -2.619e-4
-1.108, -2.619e-4
-1.107, -2.650e-4
-1.106, -2.650e-4
-1.105, -2.650e-4
-1.104, -2.650e-4
-1.103, -2.619e-4
-1.102, -2.619e-4
-1.101, -2.619e-4
-1.100, -2.650e-4
-1.099, -2.650e-4
-1.098, -2.650e-4
-1.097, -2.650e-4
-1.096, -2.650e-4
-1.095, -2.681e-4
-1.094, -2.681e-4
-1.093, -2.681e-4
-1.092, -2.650e-4
-1.091, -2.650e-4
-1.090, -2.650e-4
-1.089, -2.681e-4
-1.088, -2.712e-4
-1.087, -2.712e-4
-1.086, -2.712e-4
-1.085, -2.712e-4
-1.084, -2.712e-4
-1.083, -2.712e-4
-1.082, -2.712e-4
-1.081, -2.712e-4
-1.080, -2.712e-4
-1.079, -2.712e-4
-1.078, -2.742e-4
-1.077, -2.773e-4
-1.076, -2.773e-4
-1.075, -2.773e-4
-1.074, -2.773e-4
-1.073, -2.773e-4
-1.072, -2.742e-4
-1.071, -2.804e-4
-1.070, -2.835e-4
-1.069, -2.835e-4
-1.068, -2.835e-4
-1.067, -2.835e-4
-1.066, -2.835e-4
-1.065, -2.835e-4
-1.064, -2.804e-4
-1.063, -2.804e-4
-1.062, -2.866e-4
-1.061, -2.835e-4
-1.060, -2.835e-4
-1.059, -2.835e-4
-1.058, -2.835e-4
-1.057, -2.866e-4
-1.056, -2.866e-4
-1.055, -2.866e-4
-1.054, -2.866e-4
-1.053, -2.866e-4
-1.052, -2.835e-4
-1.051, -2.835e-4
-1.050, -2.866e-4
-1.049, -2.866e-4
-1.048, -2.866e-4
-1.047, -2.897e-4
-1.046, -2.897e-4
-1.045, -2.897e-4
-1.044, -2.897e-4
-1.043, -2.897e-4
-1.042, -2.897e-4
-1.041, -2.897e-4
-1.040, -2.897e-4
-1.039, -2.897e-4
-1.038, -2.927e-4
-1.037, -2.927e-4
-1.036, -2.927e-4
-1.035, -2.927e-4
-1.034, -2.927e-4
-1.033, -2.927e-4
-1.032, -2.897e-4
-1.031, -2.927e-4
-1.030, -2.927e-4
-1.029, -2.927e-4
-1.028, -2.958e-4
-1.027, -2.958e-4
-1.026, -2.958e-4
-1.025, -2.989e-4
-1.024, -2.989e-4
-1.023, -3.020e-4
-1.022, -2.989e-4
-1.021, -3.020e-4
-1.020, -3.020e-4
-1.019, -3.051e-4
-1.018, -3.051e-4
-1.017, -3.051e-4
-1.016, -3.051e-4
-1.015, -3.051e-4
-1.014, -3.020e-4
-1.013, -3.020e-4
-1.012, -3.020e-4
-1.011, -3.020e-4
-1.010, -3.020e-4
-1.009, -3.051e-4
-1.008, -3.051e-4
-1.007, -3.082e-4
-1.006, -3.112e-4
-1.005, -3.174e-4
-1.004, -3.174e-4
-1.003, -3.205e-4
-1.002, -3.205e-4
-1.001, -3.205e-4
