Potential V vs RHE, Current mA cm-2
0.013299999999999867,-0.19508868825138856
0.012299999999999978,-0.29850408427152275
0.011299999999999866,-0.33726717388782473
0.010299999999999976,-0.365702871015112
0.009299999999999864,-0.386782069383101
0.008299999999999974,-0.39611916396221025
0.007299999999999862,-0.4088515656609956
0.006299999999999972,-0.4271013414292546
0.00529999999999986,-0.4399752142580264
0.0042999999999999705,-0.4507270201370007
0.0032999999999998586,-0.4573761632463663
0.0022999999999999687,-0.46289353731584
0.0012999999999998568,-0.4764747657945444
0.00029999999999996696,-0.4884998118433972
-0.000700000000000145,-0.4943001281728438
-0.0017000000000000348,-0.4985442620724389
-0.0027000000000001467,-0.5032128093619935
-0.0037000000000000366,-0.5139646152409678
-0.0047000000000001485,-0.5261311324198072
-0.005700000000000038,-0.5303752663194023
-0.00670000000000015,-0.533346160049119
-0.00770000000000004,-0.536458524908822
-0.008700000000000152,-0.5473518019177827
-0.009700000000000042,-0.5576791944067975
-0.010700000000000154,-0.5640453952561902
-0.011700000000000044,-0.5630550973462846
-0.012700000000000156,-0.5698457115856368
-0.013700000000000045,-0.5752216145251239
-0.014700000000000157,-0.5882369584838822
-0.015700000000000047,-0.5927640346434504
-0.01670000000000016,-0.5933299191633964
-0.01770000000000005,-0.5978569953229644
-0.01870000000000016,-0.6046476095623167
-0.01970000000000005,-0.6161067710912235
-0.020700000000000163,-0.6219070874206701
-0.021700000000000053,-0.6196435493408861
-0.022700000000000164,-0.6255853368003192
-0.023700000000000054,-0.634215075729496
-0.024700000000000166,-0.6436936414385916
-0.025700000000000056,-0.6504842556779438
-0.026700000000000168,-0.6489280732480923
-0.027700000000000058,-0.6526063226277414
-0.02870000000000017,-0.6636410707666887
-0.02970000000000006,-0.672978165345798
-0.03070000000000017,-0.6796273084551637
-0.03170000000000006,-0.6779296548953256
-0.03270000000000017,-0.6831640867048262
-0.03370000000000006,-0.6922182390239625
-0.034700000000000175,-0.7019797469930312
-0.035700000000000065,-0.7072141788025319
-0.03670000000000018,-0.7107509570521945
-0.03770000000000007,-0.713155966261965
-0.03870000000000018,-0.7234833587509798
-0.03970000000000007,-0.733386337850035
-0.04070000000000018,-0.7393281253094681
-0.04170000000000007,-0.7417331345192387
-0.04270000000000018,-0.7439966725990228
-0.04370000000000007,-0.7546070073480106
-0.044700000000000184,-0.7660661688769174
-0.045700000000000074,-0.7713006006864179
-0.046700000000000186,-0.7725738408562965
-0.047700000000000076,-0.7786570994457161
-0.04870000000000019,-0.7875697806348659
-0.04970000000000008,-0.8025657204134353
-0.05070000000000019,-0.806385440923071
-0.05170000000000008,-0.808931921262828
-0.05270000000000019,-0.8164298911521127
-0.05370000000000008,-0.823786389911411
-0.05470000000000019,-0.8376505606500882
-0.05570000000000008,-0.8437338192395079
-0.056700000000000195,-0.845714415059319
-0.057700000000000085,-0.8536367983385632
-0.058700000000000196,-0.8619835950077669
-0.059700000000000086,-0.8755648234864712
-0.0607000000000002,-0.8837701490256885
-0.06170000000000009,-0.8877313406653105
-0.0627000000000002,-0.8945219549046627
-0.06370000000000009,-0.9037175783537855
-0.0647000000000002,-0.9178646913524358
-0.06570000000000009,-0.9264944302816125
-0.0667000000000002,-0.9270603148015586
-0.0677000000000001,-0.9345582846908432
-0.0687000000000002,-0.9478565709095745
-0.0697000000000001,-0.9603060303483869
-0.07070000000000021,-0.9690772404075502
-0.0717000000000001,-0.9716237207473072
-0.07270000000000021,-0.9786972772466322
-0.0737000000000001,-0.9945420438051207
-0.07470000000000021,-1.005859734204041
-0.0757000000000001,-1.0150553576531638
-0.07670000000000021,-1.020997145112597
-0.0777000000000001,-1.02693893257203
-0.07870000000000021,-1.0422178146105725
-0.0797000000000001,-1.0556575719592904
-0.08070000000000022,-1.0655605510583457
-0.0817000000000001,-1.0712193962578058
-0.08270000000000022,-1.078010010497158
-0.08370000000000011,-1.0931474214057137
-0.08470000000000022,-1.1088507168342159
-0.08570000000000011,-1.1166316289834735
-0.08670000000000022,-1.1239881277427717
-0.08770000000000011,-1.1327593378019347
-0.08870000000000022,-1.1467649796705988
-0.08970000000000011,-1.162043861709141
-0.09070000000000022,-1.1725127253281424
-0.09170000000000011,-1.1795862818274676
-0.09270000000000023,-1.190055145446469
-0.09370000000000012,-1.2032119605352136
-0.09470000000000023,-1.2208958517835267
-0.09570000000000012,-1.2327794267023928
-0.09670000000000023,-1.2360332626920827
-0.09770000000000012,-1.2497559623007732
-0.09870000000000023,-1.2626298351295453
-0.09970000000000012,-1.2801722552478716
-0.10070000000000023,-1.294036425986549
-0.10170000000000012,-1.2984220310161307
-0.10270000000000024,-1.3110129615849295
-0.10370000000000013,-1.3262918436234719
-0.10470000000000024,-1.344541619391731
-0.10570000000000013,-1.3564251943105972
-0.10670000000000024,-1.3647719909798008
-0.10770000000000013,-1.3766555658986672
-0.10870000000000024,-1.3933491592370746
-0.10970000000000013,-1.4101842237054685
-0.11070000000000024,-1.423199567664227
-0.11170000000000013,-1.433102546763282
-0.11270000000000002,-1.4430055258623373
-0.11370000000000013,-1.462811484060448
-0.11470000000000002,-1.4783733083589634
-0.11570000000000014,-1.4939351326574788
-0.11670000000000003,-1.502423400456669
-0.11770000000000014,-1.5137410908555893
-0.11870000000000003,-1.5321323377538347
-0.11970000000000014,-1.55052358465208
-0.12070000000000003,-1.5660854089505953
-0.12170000000000014,-1.5774030993495158
-0.12270000000000003,-1.587306078448571
-0.12370000000000014,-1.6042826140469515
-0.12470000000000003,-1.6255032835449272
-0.12570000000000014,-1.6410651078434426
-0.12670000000000003,-1.6509680869424979
-0.12770000000000015,-1.6622857773414181
-0.12870000000000004,-1.6820917355395286
-0.12970000000000015,-1.7047271163373692
-0.13070000000000004,-1.7188742293360195
-0.13170000000000015,-1.7287772084350748
-0.13270000000000004,-1.7443390327335901
-0.13370000000000015,-1.7613155683319706
-0.13470000000000004,-1.7825362378299463
-0.13570000000000015,-1.7995127734283267
-0.13670000000000004,-1.8094157525273817
-0.13770000000000016,-1.8278069994256272
-0.13870000000000005,-1.8447835350240078
-0.13970000000000016,-1.8660042045219833
-0.14070000000000005,-1.8872248740199586
-0.14170000000000016,-1.894298430519284
-0.14270000000000005,-1.9112749661176645
-0.14370000000000016,-1.9296662130159101
-0.14470000000000005,-1.9523015938137507
-0.14570000000000016,-1.972107552011861
-0.14670000000000005,-1.9820105311109162
-0.14770000000000016,-1.9989870667092968
-0.14870000000000005,-2.0216224475071374
-0.14970000000000017,-2.042843117005113
-0.15070000000000006,-2.0626490752032236
-0.15170000000000017,-2.073966765602144
-0.15270000000000006,-2.092358012500389
-0.15370000000000017,-2.116408104598095
-0.15470000000000006,-2.1347993514963406
-0.15570000000000017,-2.1546053096944506
-0.15670000000000006,-2.171581845292831
-0.15770000000000017,-2.1857289582914814
-0.15870000000000006,-2.206949627789457
-0.15970000000000018,-2.2324144311870278
-0.16070000000000007,-2.2550498119848683
-0.16170000000000018,-2.272026347583249
-0.16270000000000007,-2.2875881718817643
-0.16370000000000018,-2.3116382639794697
-0.16470000000000007,-2.3385177786769056
-0.16570000000000018,-2.3569090255751513
-0.16670000000000007,-2.3738855611735317
-0.16770000000000018,-2.389447385472047
-0.16870000000000007,-2.414912188869618
-0.16970000000000018,-2.4417917035670533
-0.17070000000000007,-2.460182950465299
-0.17170000000000019,-2.4785741973635442
-0.17270000000000008,-2.49696544426179
-0.1737000000000002,-2.5224302476593605
-0.17470000000000008,-2.550724473656661
-0.1757000000000002,-2.5719451431546365
-0.17670000000000008,-2.590336390052882
-0.1777000000000002,-2.6129717708507227
-0.17870000000000008,-2.637021862948428
-0.1797000000000002,-2.662486666345999
-0.18070000000000008,-2.6907808923433
-0.1817000000000002,-2.706342716641815
-0.18270000000000008,-2.7332222313392514
-0.1837000000000002,-2.7572723234369563
-0.1847000000000001,-2.7813224155346625
-0.1857000000000002,-2.811031352831828
-0.1867000000000001,-2.8308373110299385
-0.1877000000000002,-2.8534726918277786
-0.1887000000000001,-2.8831816291249446
-0.1897000000000002,-2.9114758551222453
-0.1907000000000001,-2.9397700811195464
-0.1917000000000001,-2.9595760393176564
-0.19269999999999998,-2.9822114201154974
-0.1937000000000001,-3.0147497800123935
-0.19469999999999998,-3.043044006009694
-0.1957000000000001,-3.0713382320069944
-0.19669999999999999,-3.0953883241047
-0.1977000000000001,-3.1180237049025408
-0.1987,-3.1519767760993016
-0.1997000000000001,-3.1816857133964676
-0.2007,-3.211394650693633
-0.2017000000000001,-3.238274165391069
-0.2027,-3.2594948348890447
-0.2037000000000001,-3.2976920399854004
-0.2047,-3.3330598224820265
-0.2057000000000001,-3.358524625879597
-0.2067,-3.3854041405770325
-0.2077000000000001,-3.415113077874199
-0.2087,-3.450480860370824
-0.2097000000000001,-3.4915074880669104
-0.2107,-3.519801714064211
-0.2117000000000001,-3.548095940061512
-0.2127,-3.583463722558138
-0.2137000000000001,-3.6160020824550334
-0.2147,-3.6556139988512544
-0.2157000000000001,-3.693811203947611
-0.2167,-3.7206907186450464
-0.21770000000000012,-3.751814367242077
-0.2187,-3.7900115723384333
-0.21970000000000012,-3.832452911334385
-0.2207,-3.869235405130875
-0.22170000000000012,-3.8989443424280408
-0.2227,-3.934312124924667
-0.22370000000000012,-3.9725093300210226
-0.2247,-4.0121212464172435
-0.22570000000000012,-4.051733162813465
-0.2267,-4.088515656609956
-0.22770000000000012,-4.125298150406447
-0.22870000000000001,-4.164910066802668
-0.22970000000000013,-4.21018082839835
-0.23070000000000002,-4.251207456094435
-0.23170000000000013,-4.289404661190791
-0.23270000000000002,-4.326187154987283
-0.23370000000000013,-4.374287339182693
-0.23470000000000002,-4.419558100778375
-0.23570000000000013,-4.46058472847446
-0.23670000000000002,-4.5044407787702765
-0.2376999999999999,-4.545467406466363
-0.23870000000000002,-4.597811724561368
-0.2396999999999999,-4.6487413313565105
-0.24070000000000003,-4.688353247752731
-0.24169999999999991,-4.732209298048548
-0.24270000000000003,-4.774650637044499
-0.24369999999999992,-4.82275082123991
-0.24470000000000003,-4.879339273234511
-0.24569999999999992,-4.924610034830192
-0.24670000000000003,-4.976954352925199
-0.24769999999999992,-5.0222251145208805
-0.24870000000000003,-5.0745694326158866
-0.24969999999999992,-5.138231441109813
-0.25070000000000003,-5.18774633660509
-0.2516999999999999,-5.2386759434002315
-0.25270000000000004,-5.2910202614952375
-0.2536999999999999,-5.349023424789703
-0.25470000000000004,-5.405611876784305
-0.2556999999999999,-5.460785617479042
-0.25670000000000004,-5.521618203373238
-0.25769999999999993,-5.582450789267434
-0.25870000000000004,-5.639039241262036
-0.25969999999999993,-5.701286538456097
-0.26070000000000004,-5.762119124350295
-0.26169999999999993,-5.821536998944626
-0.26270000000000004,-5.883784296138688
-0.26369999999999993,-5.950275727232344
-0.26470000000000005,-6.019596580925731
-0.26569999999999994,-6.090332145918983
-0.26670000000000005,-6.152579443113044
-0.26769999999999994,-6.217656162906836
-0.26870000000000005,-6.2954652843994126
-0.26969999999999994,-6.3676155606925295
-0.27070000000000005,-6.446839393484972
-0.27169999999999994,-6.504842556779439
-0.27270000000000005,-6.571333987873095
-0.27369999999999994,-6.654801954565133
-0.27470000000000006,-6.742514055156764
-0.27569999999999995,-6.810420197550286
-0.27670000000000006,-6.889644030342729
-0.27769999999999995,-6.970282574435036
-0.27870000000000006,-7.052335829827209
-0.27969999999999995,-7.142877353018569
-0.28070000000000006,-7.237663010109527
-0.28169999999999995,-7.32820453330089
-0.28270000000000006,-7.408843077393197
-0.28369999999999995,-7.500799311884425
-0.28470000000000006,-7.6012438141748415
-0.28569999999999995,-7.69885889386553
-0.28670000000000007,-7.7908151283567575
-0.28769999999999996,-7.885600785447715
-0.28870000000000007,-7.9888747103378615
-0.28969999999999996,-8.099222191727335
-0.29070000000000007,-8.202496116617484
-0.29169999999999996,-8.304355330207764
-0.29270000000000007,-8.411873388997508
-0.29369999999999996,-8.52505029298671
-0.2947000000000001,-8.64813017607497
-0.29569999999999996,-8.759892368764307
-0.2967000000000001,-8.877313406653105
-0.29769999999999996,-9.004637423640958
-0.2987000000000001,-9.120643750229892
-0.29969999999999997,-9.239479499418556
-0.3007000000000001,-9.368218227706274
-0.30169999999999997,-9.505445223793181
-0.3027000000000001,-9.64550164247982
-0.30369999999999997,-9.774240370767538
-0.3047000000000001,-9.912882078154311
-0.30569999999999997,-10.058597342040411
-0.3067000000000001,-10.202897894626645
-0.3077,-10.351442581112472
-0.3087000000000001,-10.501401978898167
-0.3097,-10.659849644483053
-0.3107000000000001,-10.815467887468206
-0.3117,-10.978159686952685
-0.3127000000000001,-11.138022063837434
-0.3137,-11.304957997221507
-0.3147000000000001,-11.476138064505177
-0.3157,-11.652976976988306
-0.3167000000000001,-11.817083487772651
-0.3177,-11.985434132456591
-0.3187000000000001,-12.163687756239584
-0.3197,-12.35608849302123
-0.3207000000000001,-12.554148075002335
-0.3217,-12.736645832684927
-0.3227000000000001,-12.924802435566974
-0.3237,-13.121447306248216
-0.3247000000000001,-13.31950688822932
-0.3257,-13.554348964006916
-0.3267000000000001,-13.77787334938559
-0.3277,-13.966029952267641
-0.3287000000000001,-14.147112998650368
-0.3297,-14.387613919627421
-0.3307000000000001,-14.61396772760583
-0.3317,-14.854468648582884
-0.3327000000000001,-15.080822456561293
-0.3337,-15.321323377538347
-0.3347000000000001,-15.575971411514052
-0.3357,-15.830619445489761
-0.3367000000000001,-16.071120366466815
-0.3377,-16.339915513441174
-0.3387000000000001,-16.622857773414182
-0.3397,-16.919947146385837
-0.3407000000000001,-17.160448067362896
-0.3417,-17.386801875341302
-0.3427000000000001,-17.627302796318357
-0.3437,-17.924392169290012
-0.3447000000000001,-18.221481542261674
-0.3457,-18.518570915233333
-0.3467000000000001,-18.78736606220769
-0.3477,-19.056161209182044
-0.3487000000000001,-19.3249563561564
-0.3497,-19.60789861612941
-0.3507000000000001,-19.904987989101066
-0.3517,-20.230371588070028
-0.3527000000000001,-20.52746096104168
-0.3537,-20.85284456001064
-0.3547000000000001,-21.19237527197825
-0.3557,-21.574347322941808
-0.35670000000000013,-21.871436695913467
-0.3577,-22.140231842887825
-0.35870000000000013,-22.451468328858134
-0.3597,-22.80514615382439
-0.36070000000000013,-23.215412430785253
-0.3617,-23.342736447773106
-0.3626999999999999,-23.66812004674206
-0.3637,-24.106680549700226
-0.3646999999999999,-24.488652600663784
-0.3657,-24.799889086634096
-0.3666999999999999,-24.95550732961925
-0.3677,-25.36577360658011
-0.3686999999999999,-26.101423482509926
-0.36970000000000003,-26.17215904750318
-0.3706999999999999,-26.497542646472137
-0.37170000000000003,-26.822926245441096
-0.3726999999999999,-27.190751183406004
-0.37370000000000003,-27.501987669376312
-0.3746999999999999,-28.11031352831828
-0.37570000000000003,-28.577168257273744
-0.3766999999999999,-28.732786500258893
-0.37770000000000004,-29.35525947219951
-0.3786999999999999,-29.510877715184666
-0.37970000000000004,-29.59576039317657
-0.3806999999999999,-30.13335068712528
-0.38170000000000004,-30.529469851087494
-0.38269999999999993,-31.12364859703081
-0.38370000000000004,-31.46317930899841
-0.38469999999999993,-31.85929847296063
-0.38570000000000004,-32.340300314914735
-0.38669999999999993,-31.972475376949827
-0.38570000000000004,-31.12364859703081
-0.38469999999999993,-30.600205416080744
-0.38370000000000004,-29.793819975157668
-0.38269999999999993,-29.694790184167122
-0.38170000000000004,-29.171347003217054
-0.3806999999999999,-28.251784658304786
-0.37970000000000004,-27.289780974396557
-0.3786999999999999,-27.558576121370916
-0.37770000000000004,-26.709749341451893
-0.3766999999999999,-26.455101307476184
-0.37570000000000003,-26.058982143513976
-0.3746999999999999,-25.719451431546364
-0.37370000000000003,-25.224302476593607
-0.3726999999999999,-24.64427084364894
-0.37170000000000003,-24.304740131681328
-0.3706999999999999,-23.894473854720466
-0.36970000000000003,-23.55494314275286
-0.3686999999999999,-23.059794187800097
-0.3677,-22.932470170812245
-0.3666999999999999,-22.40902698986218
-0.3657,-22.281702972874328
-0.3646999999999999,-21.63093577493641
-0.3637,-21.022609915994444
-0.3626999999999999,-20.47087250904708
-0.3617,-19.97572355409432
-0.36070000000000013,-19.70692840711996
-0.3597,-18.95713141819149
-0.35870000000000013,-18.603453593225233
-0.3577,-18.49027668923603
-0.35670000000000013,-18.320511333252224
-0.3557,-18.716630497214435
-0.3547000000000001,-18.122451751271118
-0.3537,-17.825362378299463
-0.3527000000000001,-17.07556538937099
-0.3517,-17.00482982437774
-0.3507000000000001,-16.835064468393938
-0.3497,-16.481386643427676
-0.3487000000000001,-16.170150157457368
-0.3477,-15.675001202504609
-0.3467000000000001,-15.590118524512702
-0.3457,-15.208146473549144
-0.3447000000000001,-14.939351326574789
-0.3437,-14.727144631595033
-0.3427000000000001,-14.387613919627421
-0.3417,-14.13438059695158
-0.3407000000000001,-13.840120646579654
-0.3397,-13.557178386606648
-0.3387000000000001,-13.285553817032559
-0.3377,-13.081835389851994
-0.3367000000000001,-12.76635476998209
-0.3357,-12.54424509590328
-0.3347000000000001,-12.282523505428248
-0.3337,-12.186323137037425
-0.3327000000000001,-11.889233764065768
-0.3317,-11.60912092669249
-0.3307000000000001,-11.723712541981559
-0.3297,-11.208757628830686
-0.3287000000000001,-10.997965645150796
-0.3277,-10.839517979565912
-0.3267000000000001,-10.492913711098977
-0.3257,-10.44905766080316
-0.3247000000000001,-10.399542765307885
-0.3237,-10.102453392336226
-0.3227000000000001,-9.86761131655863
-0.3217,-9.690772404075501
-0.3207000000000001,-9.468662729996689
-0.3197,-9.310215064411805
-0.3187000000000001,-9.088105390332997
-0.3177,-8.89570465355135
-0.3167000000000001,-8.662277289073618
-0.3157,-8.506659046088465
-0.3147000000000001,-8.355284937002907
-0.3137,-8.07800152222936
-0.3127000000000001,-7.68471178086688
-0.3117,-7.516361136182939
-0.3107000000000001,-7.391866541794816
-0.3097,-7.195221671113577
-0.3087000000000001,-7.001406223032068
-0.3077,-6.944817771037465
-0.3067000000000001,-7.147121486918166
-0.30569999999999997,-6.891058741642594
-0.3047000000000001,-6.715634540459329
-0.30369999999999997,-6.476548330782138
-0.3027000000000001,-6.306782974798334
-0.30169999999999997,-6.161067710912235
-0.3007000000000001,-5.897931409137338
-0.29969999999999997,-5.736654320952724
-0.2987000000000001,-5.7960721955470555
-0.29769999999999996,-5.62064799436379
-0.2967000000000001,-5.457956194879311
-0.29569999999999996,-5.3900500524857895
-0.2947000000000001,-5.200478738303874
-0.29369999999999996,-5.0094927128220945
-0.29270000000000007,-4.937342436528978
-0.29169999999999996,-4.781724193543823
-0.29070000000000007,-4.603470569760829
-0.28969999999999996,-4.3728726278828285
-0.28870000000000007,-4.254036878694166
-0.28769999999999996,-4.159251221603208
-0.28670000000000007,-4.03617133851495
-0.28569999999999995,-3.9258238571254775
-0.28470000000000006,-3.822549932235329
-0.28369999999999995,-3.6923964926477457
-0.28270000000000006,-3.6513698649516595
-0.28169999999999995,-3.541022383562187
-0.28070000000000006,-3.4136983665743337
-0.27969999999999995,-3.3245715546828363
-0.27870000000000006,-3.2340300314914736
-0.27769999999999995,-3.1420737970002466
-0.27670000000000006,-3.047288139909289
-0.27569999999999995,-2.949673060218602
-0.27470000000000006,-2.864790382226699
-0.27369999999999994,-2.8067872189322327
-0.27270000000000005,-3.0387998721100984
-0.27169999999999994,-2.70209858274222
-0.27070000000000005,-2.6016540804518025
-0.26969999999999994,-2.506868423360845
-0.26870000000000005,-2.437547569667458
