Sept. 21, 2024   15:15:13
Cyclic Voltammetry
File: c:/users/guazh/data/20240903_batch_400_500/2024-09-20-exp409\exp409-2024-09-21t14_59_20-arkoh\exp409_cv_sr_500mvs_efin_-1800mv.bin
Data Source:  Experiment
Instrument Model:  CHI760E
Header: CV ran at 500 mVs
Note: 

Init E (V) = -1
High E (V) = -1
Low E (V) = -1.8
Final E (V) = -1
Init P/N = N
Scan Rate (V/s) = 0.5
Segment = 3
Sample Interval (V) = 0.001
Quiet Time (sec) = 2
Sensitivity (A/V) = 0.01
Comp R (ohm) = 2.7

Results:

Channel 1:
Segment 1:

Segment 2:

Segment 3:

Potential/V, Current/A

-1.000, 1.559e-7
-1.001, 1.559e-7
-1.002, 3.239e-6
-1.003, 1.559e-7
-1.004, 3.239e-6
-1.005, 3.239e-6
-1.006, 1.559e-7
-1.007, 3.239e-6
-1.008, 1.559e-7
-1.009, 3.239e-6
-1.010, 3.239e-6
-1.011, 3.239e-6
-1.012, 1.559e-7
-1.013, 3.239e-6
-1.014, 3.239e-6
-1.015, 3.239e-6
-1.016, 3.239e-6
-1.017, 3.239e-6
-1.018, 3.239e-6
-1.019, 1.559e-7
-1.020, 3.239e-6
-1.021, 3.239e-6
-1.022, 3.239e-6
-1.023, 3.239e-6
-1.024, 3.239e-6
-1.025, 3.239e-6
-1.026, 3.239e-6
-1.027, 3.239e-6
-1.028, 3.239e-6
-1.029, 3.239e-6
-1.030, 3.239e-6
-1.031, 3.239e-6
-1.032, 3.239e-6
-1.033, 3.239e-6
-1.034, 3.239e-6
-1.035, 3.239e-6
-1.036, 3.239e-6
-1.037, 3.239e-6
-1.038, 3.239e-6
-1.039, 3.239e-6
-1.040, 3.239e-6
-1.041, 3.239e-6
-1.042, 3.239e-6
-1.043, 3.239e-6
-1.044, 3.239e-6
-1.045, 3.239e-6
-1.046, 3.239e-6
-1.047, 3.239e-6
-1.048, 3.239e-6
-1.049, 3.239e-6
-1.050, 3.239e-6
-1.051, 3.239e-6
-1.052, 3.239e-6
-1.053, 3.239e-6
-1.054, 3.239e-6
-1.055, 3.239e-6
-1.056, 3.239e-6
-1.057, 3.239e-6
-1.058, 3.239e-6
-1.059, 3.239e-6
-1.060, 3.239e-6
-1.061, 3.239e-6
-1.062, 3.239e-6
-1.063, 3.239e-6
-1.064, 3.239e-6
-1.065, 3.239e-6
-1.066, 6.322e-6
-1.067, 3.239e-6
-1.068, 3.239e-6
-1.069, 3.239e-6
-1.070, 3.239e-6
-1.071, 3.239e-6
-1.072, 3.239e-6
-1.073, 3.239e-6
-1.074, 3.239e-6
-1.075, 3.239e-6
-1.076, 3.239e-6
-1.077, 3.239e-6
-1.078, 3.239e-6
-1.079, 3.239e-6
-1.080, 6.322e-6
-1.081, 3.239e-6
-1.082, 3.239e-6
-1.083, 3.239e-6
-1.084, 3.239e-6
-1.085, 3.239e-6
-1.086, 3.239e-6
-1.087, 3.239e-6
-1.088, 3.239e-6
-1.089, 3.239e-6
-1.090, 3.239e-6
-1.091, 3.239e-6
-1.092, 3.239e-6
-1.093, 6.322e-6
-1.094, 3.239e-6
-1.095, 3.239e-6
-1.096, 3.239e-6
-1.097, 3.239e-6
-1.098, 3.239e-6
-1.099, 3.239e-6
-1.100, 3.239e-6
-1.101, 3.239e-6
-1.102, 3.239e-6
-1.103, 3.239e-6
-1.104, 3.239e-6
-1.105, 3.239e-6
-1.106, 3.239e-6
-1.107, 3.239e-6
-1.108, 3.239e-6
-1.109, 6.322e-6
-1.110, 3.239e-6
-1.111, 3.239e-6
-1.112, 3.239e-6
-1.113, 3.239e-6
-1.114, 3.239e-6
-1.115, 3.239e-6
-1.116, 6.322e-6
-1.117, 3.239e-6
-1.118, 3.239e-6
-1.119, 3.239e-6
-1.120, 3.239e-6
-1.121, 3.239e-6
-1.122, 3.239e-6
-1.123, 6.322e-6
-1.124, 3.239e-6
-1.125, 6.322e-6
-1.126, 6.322e-6
-1.127, 3.239e-6
-1.128, 3.239e-6
-1.129, 6.322e-6
-1.130, 6.322e-6
-1.131, 3.239e-6
-1.132, 3.239e-6
-1.133, 3.239e-6
-1.134, 6.322e-6
-1.135, 3.239e-6
-1.136, 3.239e-6
-1.137, 3.239e-6
-1.138, 6.322e-6
-1.139, 6.322e-6
-1.140, 3.239e-6
-1.141, 6.322e-6
-1.142, 3.239e-6
-1.143, 6.322e-6
-1.144, 3.239e-6
-1.145, 3.239e-6
-1.146, 6.322e-6
-1.147, 3.239e-6
-1.148, 6.322e-6
-1.149, 3.239e-6
-1.150, 3.239e-6
-1.151, 6.322e-6
-1.152, 6.322e-6
-1.153, 3.239e-6
-1.154, 6.322e-6
-1.155, 6.322e-6
-1.156, 3.239e-6
-1.157, 6.322e-6
-1.158, 6.322e-6
-1.159, 6.322e-6
-1.160, 6.322e-6
-1.161, 6.322e-6
-1.162, 6.322e-6
-1.163, 6.322e-6
-1.164, 6.322e-6
-1.165, 6.322e-6
-1.166, 6.322e-6
-1.167, 3.239e-6
-1.168, 6.322e-6
-1.169, 6.322e-6
-1.170, 6.322e-6
-1.171, 6.322e-6
-1.172, 6.322e-6
-1.173, 6.322e-6
-1.174, 6.322e-6
-1.175, 6.322e-6
-1.176, 6.322e-6
-1.177, 6.322e-6
-1.178, 3.239e-6
-1.179, 6.322e-6
-1.180, 6.322e-6
-1.181, 3.239e-6
-1.182, 6.322e-6
-1.183, 6.322e-6
-1.184, 6.322e-6
-1.185, 6.322e-6
-1.186, 6.322e-6
-1.187, 6.322e-6
-1.188, 6.322e-6
-1.189, 6.322e-6
-1.190, 3.239e-6
-1.191, 6.322e-6
-1.192, 6.322e-6
-1.193, 6.322e-6
-1.194, 6.322e-6
-1.195, 6.322e-6
-1.196, 6.322e-6
-1.197, 6.322e-6
-1.198, 6.322e-6
-1.199, 6.322e-6
-1.200, 6.322e-6
-1.201, 6.322e-6
-1.202, 6.322e-6
-1.203, 6.322e-6
-1.204, 6.322e-6
-1.205, 6.322e-6
-1.206, 6.322e-6
-1.207, 6.322e-6
-1.208, 6.322e-6
-1.209, 6.322e-6
-1.210, 6.322e-6
-1.211, 6.322e-6
-1.212, 6.322e-6
-1.213, 6.322e-6
-1.214, 6.322e-6
-1.215, 6.322e-6
-1.216, 6.322e-6
-1.217, 6.322e-6
-1.218, 6.322e-6
-1.219, 6.322e-6
-1.220, 6.322e-6
-1.221, 6.322e-6
-1.222, 6.322e-6
-1.223, 6.322e-6
-1.224, 6.322e-6
-1.225, 6.322e-6
-1.226, 6.322e-6
-1.227, 6.322e-6
-1.228, 6.322e-6
-1.229, 6.322e-6
-1.230, 6.322e-6
-1.231, 6.322e-6
-1.232, 6.322e-6
-1.233, 6.322e-6
-1.234, 9.405e-6
-1.235, 6.322e-6
-1.236, 6.322e-6
-1.237, 6.322e-6
-1.238, 6.322e-6
-1.239, 6.322e-6
-1.240, 6.322e-6
-1.241, 6.322e-6
-1.242, 6.322e-6
-1.243, 9.405e-6
-1.244, 6.322e-6
-1.245, 6.322e-6
-1.246, 6.322e-6
-1.247, 6.322e-6
-1.248, 6.322e-6
-1.249, 6.322e-6
-1.250, 6.322e-6
-1.251, 6.322e-6
-1.252, 6.322e-6
-1.253, 6.322e-6
-1.254, 6.322e-6
-1.255, 9.405e-6
-1.256, 6.322e-6
-1.257, 6.322e-6
-1.258, 6.322e-6
-1.259, 9.405e-6
-1.260, 6.322e-6
-1.261, 6.322e-6
-1.262, 6.322e-6
-1.263, 6.322e-6
-1.264, 9.405e-6
-1.265, 6.322e-6
-1.266, 6.322e-6
-1.267, 6.322e-6
-1.268, 9.405e-6
-1.269, 6.322e-6
-1.270, 6.322e-6
-1.271, 6.322e-6
-1.272, 6.322e-6
-1.273, 9.405e-6
-1.274, 6.322e-6
-1.275, 9.405e-6
-1.276, 6.322e-6
-1.277, 6.322e-6
-1.278, 6.322e-6
-1.279, 9.405e-6
-1.280, 9.405e-6
-1.281, 6.322e-6
-1.282, 6.322e-6
-1.283, 6.322e-6
-1.284, 9.405e-6
-1.285, 9.405e-6
-1.286, 9.405e-6
-1.287, 9.405e-6
-1.288, 9.405e-6
-1.289, 9.405e-6
-1.290, 6.322e-6
-1.291, 9.405e-6
-1.292, 9.405e-6
-1.293, 9.405e-6
-1.294, 6.322e-6
-1.295, 9.405e-6
-1.296, 9.405e-6
-1.297, 9.405e-6
-1.298, 9.405e-6
-1.299, 6.322e-6
-1.300, 9.405e-6
-1.301, 9.405e-6
-1.302, 9.405e-6
-1.303, 6.322e-6
-1.304, 9.405e-6
-1.305, 9.405e-6
-1.306, 6.322e-6
-1.307, 9.405e-6
-1.308, 9.405e-6
-1.309, 9.405e-6
-1.310, 9.405e-6
-1.311, 9.405e-6
-1.312, 9.405e-6
-1.313, 9.405e-6
-1.314, 9.405e-6
-1.315, 9.405e-6
-1.316, 9.405e-6
-1.317, 9.405e-6
-1.318, 9.405e-6
-1.319, 9.405e-6
-1.320, 9.405e-6
-1.321, 9.405e-6
-1.322, 9.405e-6
-1.323, 9.405e-6
-1.324, 9.405e-6
-1.325, 9.405e-6
-1.326, 9.405e-6
-1.327, 9.405e-6
-1.328, 9.405e-6
-1.329, 9.405e-6
-1.330, 9.405e-6
-1.331, 9.405e-6
-1.332, 9.405e-6
-1.333, 9.405e-6
-1.334, 9.405e-6
-1.335, 9.405e-6
-1.336, 9.405e-6
-1.337, 9.405e-6
-1.338, 9.405e-6
-1.339, 9.405e-6
-1.340, 9.405e-6
-1.341, 9.405e-6
-1.342, 9.405e-6
-1.343, 9.405e-6
-1.344, 9.405e-6
-1.345, 9.405e-6
-1.346, 9.405e-6
-1.347, 9.405e-6
-1.348, 9.405e-6
-1.349, 9.405e-6
-1.350, 9.405e-6
-1.351, 9.405e-6
-1.352, 9.405e-6
-1.353, 9.405e-6
-1.354, 9.405e-6
-1.355, 9.405e-6
-1.356, 9.405e-6
-1.357, 9.405e-6
-1.358, 9.405e-6
-1.359, 9.405e-6
-1.360, 9.405e-6
-1.361, 9.405e-6
-1.362, 9.405e-6
-1.363, 9.405e-6
-1.364, 9.405e-6
-1.365, 9.405e-6
-1.366, 9.405e-6
-1.367, 9.405e-6
-1.368, 9.405e-6
-1.369, 9.405e-6
-1.370, 9.405e-6
-1.371, 9.405e-6
-1.372, 9.405e-6
-1.373, 9.405e-6
-1.374, 9.405e-6
-1.375, 1.249e-5
-1.376, 9.405e-6
-1.377, 9.405e-6
-1.378, 9.405e-6
-1.379, 9.405e-6
-1.380, 1.249e-5
-1.381, 9.405e-6
-1.382, 1.249e-5
-1.383, 1.249e-5
-1.384, 1.249e-5
-1.385, 1.249e-5
-1.386, 1.249e-5
-1.387, 1.249e-5
-1.388, 9.405e-6
-1.389, 1.249e-5
-1.390, 9.405e-6
-1.391, 1.249e-5
-1.392, 1.249e-5
-1.393, 1.249e-5
-1.394, 1.249e-5
-1.395, 1.249e-5
-1.396, 1.249e-5
-1.397, 1.249e-5
-1.398, 1.249e-5
-1.399, 1.249e-5
-1.400, 1.249e-5
-1.401, 1.249e-5
-1.402, 1.249e-5
-1.403, 1.249e-5
-1.404, 1.249e-5
-1.405, 1.249e-5
-1.406, 1.249e-5
-1.407, 1.249e-5
-1.408, 1.249e-5
-1.409, 1.249e-5
-1.410, 1.249e-5
-1.411, 1.249e-5
-1.412, 1.249e-5
-1.413, 1.249e-5
-1.414, 1.249e-5
-1.415, 1.249e-5
-1.416, 1.249e-5
-1.417, 1.249e-5
-1.418, 1.249e-5
-1.419, 1.249e-5
-1.420, 1.249e-5
-1.421, 1.249e-5
-1.422, 1.249e-5
-1.423, 1.249e-5
-1.424, 1.249e-5
-1.425, 1.249e-5
-1.426, 1.249e-5
-1.427, 1.249e-5
-1.428, 1.249e-5
-1.429, 1.249e-5
-1.430, 1.249e-5
-1.431, 1.249e-5
-1.432, 1.249e-5
-1.433, 1.249e-5
-1.434, 1.249e-5
-1.435, 1.249e-5
-1.436, 1.249e-5
-1.437, 1.557e-5
-1.438, 1.557e-5
-1.439, 1.249e-5
-1.440, 1.249e-5
-1.441, 1.557e-5
-1.442, 1.249e-5
-1.443, 1.249e-5
-1.444, 1.249e-5
-1.445, 1.249e-5
-1.446, 1.557e-5
-1.447, 1.557e-5
-1.448, 1.557e-5
-1.449, 1.249e-5
-1.450, 1.557e-5
-1.451, 1.557e-5
-1.452, 1.557e-5
-1.453, 1.557e-5
-1.454, 1.557e-5
-1.455, 1.557e-5
-1.456, 1.557e-5
-1.457, 1.557e-5
-1.458, 1.557e-5
-1.459, 1.557e-5
-1.460, 1.557e-5
-1.461, 1.557e-5
-1.462, 1.557e-5
-1.463, 1.557e-5
-1.464, 1.557e-5
-1.465, 1.557e-5
-1.466, 1.557e-5
-1.467, 1.557e-5
-1.468, 1.557e-5
-1.469, 1.557e-5
-1.470, 1.557e-5
-1.471, 1.557e-5
-1.472, 1.557e-5
-1.473, 1.557e-5
-1.474, 1.557e-5
-1.475, 1.557e-5
-1.476, 1.865e-5
-1.477, 1.557e-5
-1.478, 1.865e-5
-1.479, 1.557e-5
-1.480, 1.865e-5
-1.481, 1.557e-5
-1.482, 1.865e-5
-1.483, 1.865e-5
-1.484, 1.865e-5
-1.485, 1.865e-5
-1.486, 1.865e-5
-1.487, 1.865e-5
-1.488, 1.865e-5
-1.489, 1.865e-5
-1.490, 1.865e-5
-1.491, 1.865e-5
-1.492, 1.865e-5
-1.493, 1.865e-5
-1.494, 1.865e-5
-1.495, 1.865e-5
-1.496, 1.865e-5
-1.497, 1.865e-5
-1.498, 1.865e-5
-1.499, 1.865e-5
-1.500, 1.865e-5
-1.501, 1.865e-5
-1.502, 1.865e-5
-1.503, 1.865e-5
-1.504, 1.865e-5
-1.505, 2.174e-5
-1.506, 1.865e-5
-1.507, 2.174e-5
-1.508, 2.174e-5
-1.509, 2.174e-5
-1.510, 2.174e-5
-1.511, 1.865e-5
-1.512, 2.174e-5
-1.513, 2.174e-5
-1.514, 2.174e-5
-1.515, 2.174e-5
-1.516, 2.174e-5
-1.517, 2.174e-5
-1.518, 2.174e-5
-1.519, 2.174e-5
-1.520, 2.174e-5
-1.521, 2.174e-5
-1.522, 2.174e-5
-1.523, 2.174e-5
-1.524, 2.174e-5
-1.525, 2.174e-5
-1.526, 2.482e-5
-1.527, 2.174e-5
-1.528, 2.482e-5
-1.529, 2.174e-5
-1.530, 2.482e-5
-1.531, 2.482e-5
-1.532, 2.482e-5
-1.533, 2.482e-5
-1.534, 2.482e-5
-1.535, 2.482e-5
-1.536, 2.482e-5
-1.537, 2.482e-5
-1.538, 2.482e-5
-1.539, 2.482e-5
-1.540, 2.790e-5
-1.541, 2.482e-5
-1.542, 2.790e-5
-1.543, 2.790e-5
-1.544, 2.790e-5
-1.545, 2.790e-5
-1.546, 2.790e-5
-1.547, 2.790e-5
-1.548, 2.790e-5
-1.549, 2.790e-5
-1.550, 2.790e-5
-1.551, 2.790e-5
-1.552, 2.790e-5
-1.553, 3.099e-5
-1.554, 2.790e-5
-1.555, 3.099e-5
-1.556, 2.790e-5
-1.557, 3.099e-5
-1.558, 3.099e-5
-1.559, 3.099e-5
-1.560, 3.099e-5
-1.561, 3.099e-5
-1.562, 3.099e-5
-1.563, 3.099e-5
-1.564, 3.099e-5
-1.565, 3.407e-5
-1.566, 3.099e-5
-1.567, 3.407e-5
-1.568, 3.407e-5
-1.569, 3.407e-5
-1.570, 3.407e-5
-1.571, 3.407e-5
-1.572, 3.715e-5
-1.573, 3.407e-5
-1.574, 3.715e-5
-1.575, 3.715e-5
-1.576, 3.715e-5
-1.577, 3.715e-5
-1.578, 3.715e-5
-1.579, 4.024e-5
-1.580, 4.024e-5
-1.581, 4.024e-5
-1.582, 4.024e-5
-1.583, 4.024e-5
-1.584, 4.024e-5
-1.585, 4.332e-5
-1.586, 4.024e-5
-1.587, 4.332e-5
-1.588, 4.332e-5
-1.589, 4.332e-5
-1.590, 4.332e-5
-1.591, 4.332e-5
-1.592, 4.640e-5
-1.593, 4.640e-5
-1.594, 4.640e-5
-1.595, 4.640e-5
-1.596, 4.640e-5
-1.597, 4.949e-5
-1.598, 4.949e-5
-1.599, 4.949e-5
-1.600, 4.949e-5
-1.601, 5.257e-5
-1.602, 5.257e-5
-1.603, 5.257e-5
-1.604, 5.565e-5
-1.605, 5.565e-5
-1.606, 5.565e-5
-1.607, 5.565e-5
-1.608, 5.873e-5
-1.609, 5.873e-5
-1.610, 5.873e-5
-1.611, 6.182e-5
-1.612, 6.182e-5
-1.613, 6.182e-5
-1.614, 6.182e-5
-1.615, 6.490e-5
-1.616, 6.490e-5
-1.617, 6.798e-5
-1.618, 6.798e-5
-1.619, 7.107e-5
-1.620, 7.107e-5
-1.621, 7.107e-5
-1.622, 7.415e-5
-1.623, 7.415e-5
-1.624, 7.723e-5
-1.625, 7.723e-5
-1.626, 8.032e-5
-1.627, 8.032e-5
-1.628, 8.032e-5
-1.629, 8.340e-5
-1.630, 8.648e-5
-1.631, 8.648e-5
-1.632, 8.648e-5
-1.633, 8.957e-5
-1.634, 9.265e-5
-1.635, 9.265e-5
-1.636, 9.573e-5
-1.637, 9.573e-5
-1.638, 9.882e-5
-1.639, 1.019e-4
-1.640, 1.050e-4
-1.641, 1.050e-4
-1.642, 1.081e-4
-1.643, 1.111e-4
-1.644, 1.142e-4
-1.645, 1.142e-4
-1.646, 1.173e-4
-1.647, 1.204e-4
-1.648, 1.235e-4
-1.649, 1.266e-4
-1.650, 1.266e-4
-1.651, 1.327e-4
-1.652, 1.358e-4
-1.653, 1.358e-4
-1.654, 1.389e-4
-1.655, 1.420e-4
-1.656, 1.481e-4
-1.657, 1.481e-4
-1.658, 1.543e-4
-1.659, 1.574e-4
-1.660, 1.605e-4
-1.661, 1.636e-4
-1.662, 1.666e-4
-1.663, 1.728e-4
-1.664, 1.759e-4
-1.665, 1.790e-4
-1.666, 1.851e-4
-1.667, 1.882e-4
-1.668, 1.944e-4
-1.669, 1.975e-4
-1.670, 2.036e-4
-1.671, 2.098e-4
-1.672, 2.129e-4
-1.673, 2.160e-4
-1.674, 2.221e-4
-1.675, 2.283e-4
-1.676, 2.345e-4
-1.677, 2.406e-4
-1.678, 2.468e-4
-1.679, 2.530e-4
-1.680, 2.591e-4
-1.681, 2.653e-4
-1.682, 2.715e-4
-1.683, 2.776e-4
-1.684, 2.838e-4
-1.685, 2.931e-4
-1.686, 2.992e-4
-1.687, 3.054e-4
-1.688, 3.146e-4
-1.689, 3.239e-4
-1.690, 3.300e-4
-1.691, 3.393e-4
-1.692, 3.485e-4
-1.693, 3.578e-4
-1.694, 3.670e-4
-1.695, 3.763e-4
-1.696, 3.855e-4
-1.697, 3.979e-4
-1.698, 4.040e-4
-1.699, 4.164e-4
-1.700, 4.256e-4
-1.701, 4.380e-4
-1.702, 4.472e-4
-1.703, 4.595e-4
-1.704, 4.719e-4
-1.705, 4.842e-4
-1.706, 4.965e-4
-1.707, 5.089e-4
-1.708, 5.212e-4
-1.709, 5.335e-4
-1.710, 5.489e-4
-1.711, 5.644e-4
-1.712, 5.767e-4
-1.713, 5.921e-4
-1.714, 6.075e-4
-1.715, 6.229e-4
-1.716, 6.384e-4
-1.717, 6.569e-4
-1.718, 6.723e-4
-1.719, 6.908e-4
-1.720, 7.093e-4
-1.721, 7.247e-4
-1.722, 7.432e-4
-1.723, 7.617e-4
-1.724, 7.802e-4
-1.725, 7.987e-4
-1.726, 8.203e-4
-1.727, 8.418e-4
-1.728, 8.634e-4
-1.729, 8.850e-4
-1.730, 9.066e-4
-1.731, 9.282e-4
-1.732, 9.498e-4
-1.733, 9.744e-4
-1.734, 9.991e-4
-1.735, 1.024e-3
-1.736, 1.048e-3
-1.737, 1.073e-3
-1.738, 1.101e-3
-1.739, 1.125e-3
-1.740, 1.153e-3
-1.741, 1.178e-3
-1.742, 1.209e-3
-1.743, 1.233e-3
-1.744, 1.261e-3
-1.745, 1.292e-3
-1.746, 1.323e-3
-1.747, 1.354e-3
-1.748, 1.384e-3
-1.749, 1.415e-3
-1.750, 1.446e-3
-1.751, 1.480e-3
-1.752, 1.514e-3
-1.753, 1.548e-3
-1.754, 1.582e-3
-1.755, 1.619e-3
-1.756, 1.656e-3
-1.757, 1.690e-3
-1.758, 1.727e-3
-1.759, 1.764e-3
-1.760, 1.801e-3
-1.761, 1.838e-3
-1.762, 1.875e-3
-1.763, 1.915e-3
-1.764, 1.955e-3
-1.765, 1.995e-3
-1.766, 2.035e-3
-1.767, 2.078e-3
-1.768, 2.118e-3
-1.769, 2.161e-3
-1.770, 2.201e-3
-1.771, 2.245e-3
-1.772, 2.288e-3
-1.773, 2.331e-3
-1.774, 2.374e-3
-1.775, 2.423e-3
-1.776, 2.470e-3
-1.777, 2.516e-3
-1.778, 2.562e-3
-1.779, 2.612e-3
-1.780, 2.658e-3
-1.781, 2.707e-3
-1.782, 2.756e-3
-1.783, 2.806e-3
-1.784, 2.852e-3
-1.785, 2.901e-3
-1.786, 2.951e-3
-1.787, 3.003e-3
-1.788, 3.059e-3
-1.789, 3.111e-3
-1.790, 3.167e-3
-1.791, 3.219e-3
-1.792, 3.274e-3
-1.793, 3.327e-3
-1.794, 3.382e-3
-1.795, 3.435e-3
-1.796, 3.490e-3
-1.797, 3.549e-3
-1.798, 3.604e-3
-1.799, 3.663e-3
-1.800, 3.697e-3
-1.799, 3.684e-3
-1.798, 3.672e-3
-1.797, 3.657e-3
-1.796, 3.638e-3
-1.795, 3.617e-3
-1.794, 3.598e-3
-1.793, 3.577e-3
-1.792, 3.555e-3
-1.791, 3.530e-3
-1.790, 3.506e-3
-1.789, 3.481e-3
-1.788, 3.456e-3
-1.787, 3.429e-3
-1.786, 3.401e-3
-1.785, 3.373e-3
-1.784, 3.348e-3
-1.783, 3.321e-3
-1.782, 3.293e-3
-1.781, 3.265e-3
-1.780, 3.237e-3
-1.779, 3.204e-3
-1.778, 3.176e-3
-1.777, 3.145e-3
-1.776, 3.117e-3
-1.775, 3.086e-3
-1.774, 3.056e-3
-1.773, 3.028e-3
-1.772, 2.997e-3
-1.771, 2.969e-3
-1.770, 2.938e-3
-1.769, 2.911e-3
-1.768, 2.877e-3
-1.767, 2.849e-3
-1.766, 2.818e-3
-1.765, 2.787e-3
-1.764, 2.756e-3
-1.763, 2.729e-3
-1.762, 2.704e-3
-1.761, 2.673e-3
-1.760, 2.645e-3
-1.759, 2.618e-3
-1.758, 2.587e-3
-1.757, 2.556e-3
-1.756, 2.528e-3
-1.755, 2.501e-3
-1.754, 2.470e-3
-1.753, 2.445e-3
-1.752, 2.414e-3
-1.751, 2.386e-3
-1.750, 2.356e-3
-1.749, 2.328e-3
-1.748, 2.300e-3
-1.747, 2.272e-3
-1.746, 2.248e-3
-1.745, 2.220e-3
-1.744, 2.192e-3
-1.743, 2.164e-3
-1.742, 2.137e-3
-1.741, 2.109e-3
-1.740, 2.081e-3
-1.739, 2.060e-3
-1.738, 2.032e-3
-1.737, 2.007e-3
-1.736, 1.983e-3
-1.735, 1.955e-3
-1.734, 1.930e-3
-1.733, 1.906e-3
-1.732, 1.881e-3
-1.731, 1.853e-3
-1.730, 1.832e-3
-1.729, 1.807e-3
-1.728, 1.785e-3
-1.727, 1.758e-3
-1.726, 1.736e-3
-1.725, 1.708e-3
-1.724, 1.687e-3
-1.723, 1.665e-3
-1.722, 1.640e-3
-1.721, 1.616e-3
-1.720, 1.594e-3
-1.719, 1.569e-3
-1.718, 1.548e-3
-1.717, 1.523e-3
-1.716, 1.502e-3
-1.715, 1.483e-3
-1.714, 1.462e-3
-1.713, 1.440e-3
-1.712, 1.418e-3
-1.711, 1.397e-3
-1.710, 1.378e-3
-1.709, 1.360e-3
-1.708, 1.338e-3
-1.707, 1.317e-3
-1.706, 1.295e-3
-1.705, 1.277e-3
-1.704, 1.258e-3
-1.703, 1.240e-3
-1.702, 1.221e-3
-1.701, 1.206e-3
-1.700, 1.187e-3
-1.699, 1.169e-3
-1.698, 1.150e-3
-1.697, 1.132e-3
-1.696, 1.116e-3
-1.695, 1.098e-3
-1.694, 1.079e-3
-1.693, 1.064e-3
-1.692, 1.045e-3
-1.691, 1.030e-3
-1.690, 1.011e-3
-1.689, 9.960e-4
-1.688, 9.806e-4
-1.687, 9.652e-4
-1.686, 9.467e-4
-1.685, 9.343e-4
-1.684, 9.189e-4
-1.683, 9.035e-4
-1.682, 8.881e-4
-1.681, 8.727e-4
-1.680, 8.603e-4
-1.679, 8.449e-4
-1.678, 8.295e-4
-1.677, 8.172e-4
-1.676, 8.018e-4
-1.675, 7.894e-4
-1.674, 7.740e-4
-1.673, 7.617e-4
-1.672, 7.463e-4
-1.671, 7.339e-4
-1.670, 7.216e-4
-1.669, 7.093e-4
-1.668, 6.969e-4
-1.667, 6.846e-4
-1.666, 6.723e-4
-1.665, 6.599e-4
-1.664, 6.507e-4
-1.663, 6.384e-4
-1.662, 6.260e-4
-1.661, 6.168e-4
-1.660, 6.044e-4
-1.659, 5.952e-4
-1.658, 5.829e-4
-1.657, 5.736e-4
-1.656, 5.613e-4
-1.655, 5.520e-4
-1.654, 5.428e-4
-1.653, 5.335e-4
-1.652, 5.243e-4
-1.651, 5.120e-4
-1.650, 5.027e-4
-1.649, 4.935e-4
-1.648, 4.842e-4
-1.647, 4.750e-4
-1.646, 4.688e-4
-1.645, 4.595e-4
-1.644, 4.503e-4
-1.643, 4.410e-4
-1.642, 4.318e-4
-1.641, 4.256e-4
-1.640, 4.164e-4
-1.639, 4.071e-4
-1.638, 4.010e-4
-1.637, 3.948e-4
-1.636, 3.855e-4
-1.635, 3.763e-4
-1.634, 3.701e-4
-1.633, 3.640e-4
-1.632, 3.547e-4
-1.631, 3.485e-4
-1.630, 3.424e-4
-1.629, 3.362e-4
-1.628, 3.300e-4
-1.627, 3.208e-4
-1.626, 3.146e-4
-1.625, 3.085e-4
-1.624, 3.023e-4
-1.623, 2.961e-4
-1.622, 2.900e-4
-1.621, 2.869e-4
-1.620, 2.807e-4
-1.619, 2.746e-4
-1.618, 2.684e-4
-1.617, 2.622e-4
-1.616, 2.591e-4
-1.615, 2.499e-4
-1.614, 2.468e-4
-1.613, 2.406e-4
-1.612, 2.376e-4
-1.611, 2.314e-4
-1.610, 2.283e-4
-1.609, 2.221e-4
-1.608, 2.191e-4
-1.607, 2.129e-4
-1.606, 2.098e-4
-1.605, 2.067e-4
-1.604, 2.006e-4
-1.603, 1.975e-4
-1.602, 1.913e-4
-1.601, 1.882e-4
-1.600, 1.851e-4
-1.599, 1.790e-4
-1.598, 1.759e-4
-1.597, 1.728e-4
-1.596, 1.697e-4
-1.595, 1.636e-4
-1.594, 1.636e-4
-1.593, 1.574e-4
-1.592, 1.543e-4
-1.591, 1.512e-4
-1.590, 1.481e-4
-1.589, 1.451e-4
-1.588, 1.420e-4
-1.587, 1.389e-4
-1.586, 1.358e-4
-1.585, 1.327e-4
-1.584, 1.296e-4
-1.583, 1.266e-4
-1.582, 1.235e-4
-1.581, 1.204e-4
-1.580, 1.173e-4
-1.579, 1.142e-4
-1.578, 1.142e-4
-1.577, 1.111e-4
-1.576, 1.081e-4
-1.575, 1.050e-4
-1.574, 1.019e-4
-1.573, 1.019e-4
-1.572, 9.882e-5
-1.571, 9.573e-5
-1.570, 9.573e-5
-1.569, 9.265e-5
-1.568, 8.957e-5
-1.567, 8.648e-5
-1.566, 8.648e-5
-1.565, 8.340e-5
-1.564, 8.340e-5
-1.563, 8.032e-5
-1.562, 8.032e-5
-1.561, 7.723e-5
-1.560, 7.415e-5
-1.559, 7.415e-5
-1.558, 7.107e-5
-1.557, 7.107e-5
-1.556, 6.798e-5
-1.555, 6.798e-5
-1.554, 6.490e-5
-1.553, 6.490e-5
-1.552, 6.182e-5
-1.551, 5.873e-5
-1.550, 5.873e-5
-1.549, 5.873e-5
-1.548, 5.565e-5
-1.547, 5.565e-5
-1.546, 5.257e-5
-1.545, 5.257e-5
-1.544, 5.257e-5
-1.543, 4.949e-5
-1.542, 4.949e-5
-1.541, 4.949e-5
-1.540, 4.640e-5
-1.539, 4.640e-5
-1.538, 4.332e-5
-1.537, 4.332e-5
-1.536, 4.332e-5
-1.535, 4.024e-5
-1.534, 4.024e-5
-1.533, 3.715e-5
-1.532, 4.024e-5
-1.531, 3.715e-5
-1.530, 3.715e-5
-1.529, 3.407e-5
-1.528, 3.407e-5
-1.527, 3.407e-5
-1.526, 3.407e-5
-1.525, 3.099e-5
-1.524, 3.099e-5
-1.523, 3.099e-5
-1.522, 3.099e-5
-1.521, 3.099e-5
-1.520, 2.790e-5
-1.519, 2.790e-5
-1.518, 2.790e-5
-1.517, 2.482e-5
-1.516, 2.482e-5
-1.515, 2.482e-5
-1.514, 2.482e-5
-1.513, 2.482e-5
-1.512, 2.174e-5
-1.511, 2.174e-5
-1.510, 2.174e-5
-1.509, 2.174e-5
-1.508, 2.174e-5
-1.507, 2.174e-5
-1.506, 1.865e-5
-1.505, 1.865e-5
-1.504, 1.865e-5
-1.503, 1.865e-5
-1.502, 1.865e-5
-1.501, 1.557e-5
-1.500, 1.865e-5
-1.499, 1.557e-5
-1.498, 1.557e-5
-1.497, 1.557e-5
-1.496, 1.557e-5
-1.495, 1.557e-5
-1.494, 1.557e-5
-1.493, 1.557e-5
-1.492, 1.249e-5
-1.491, 1.249e-5
-1.490, 1.249e-5
-1.489, 1.249e-5
-1.488, 1.249e-5
-1.487, 1.249e-5
-1.486, 1.249e-5
-1.485, 9.405e-6
-1.484, 1.249e-5
-1.483, 9.405e-6
-1.482, 1.249e-5
-1.481, 1.249e-5
-1.480, 9.405e-6
-1.479, 9.405e-6
-1.478, 9.405e-6
-1.477, 9.405e-6
-1.476, 9.405e-6
-1.475, 9.405e-6
-1.474, 9.405e-6
-1.473, 9.405e-6
-1.472, 9.405e-6
-1.471, 6.322e-6
-1.470, 6.322e-6
-1.469, 6.322e-6
-1.468, 9.405e-6
-1.467, 6.322e-6
-1.466, 6.322e-6
-1.465, 6.322e-6
-1.464, 6.322e-6
-1.463, 6.322e-6
-1.462, 6.322e-6
-1.461, 6.322e-6
-1.460, 6.322e-6
-1.459, 6.322e-6
-1.458, 6.322e-6
-1.457, 3.239e-6
-1.456, 3.239e-6
-1.455, 3.239e-6
-1.454, 3.239e-6
-1.453, 3.239e-6
-1.452, 3.239e-6
-1.451, 3.239e-6
-1.450, 3.239e-6
-1.449, 3.239e-6
-1.448, 3.239e-6
-1.447, 3.239e-6
-1.446, 3.239e-6
-1.445, 3.239e-6
-1.444, 3.239e-6
-1.443, 3.239e-6
-1.442, 3.239e-6
-1.441, 3.239e-6
-1.440, 3.239e-6
-1.439, 3.239e-6
-1.438, 3.239e-6
-1.437, 3.239e-6
-1.436, 3.239e-6
-1.435, 3.239e-6
-1.434, 3.239e-6
-1.433, 3.239e-6
-1.432, 3.239e-6
-1.431, 3.239e-6
-1.430, 1.559e-7
-1.429, 3.239e-6
-1.428, 3.239e-6
-1.427, 1.559e-7
-1.426, 1.559e-7
-1.425, 1.559e-7
-1.424, 3.239e-6
-1.423, 1.559e-7
-1.422, 1.559e-7
-1.421, 1.559e-7
-1.420, 1.559e-7
-1.419, 1.559e-7
-1.418, 1.559e-7
-1.417, 1.559e-7
-1.416, 1.559e-7
-1.415, 1.559e-7
-1.414, 1.559e-7
-1.413, 3.239e-6
-1.412, 1.559e-7
-1.411, 1.559e-7
-1.410, 1.559e-7
-1.409, 1.559e-7
-1.408, 1.559e-7
-1.407, 1.559e-7
-1.406, 1.559e-7
-1.405, 1.559e-7
-1.404, 1.559e-7
-1.403, 1.559e-7
-1.402, 1.559e-7
-1.401, 1.559e-7
-1.400, 1.559e-7
-1.399, 1.559e-7
-1.398, 1.559e-7
-1.397, 1.559e-7
-1.396, 1.559e-7
-1.395, 1.559e-7
-1.394, 1.559e-7
-1.393, 1.559e-7
-1.392, 1.559e-7
-1.391, 1.559e-7
-1.390, 1.559e-7
-1.389, -2.927e-6
-1.388, 1.559e-7
-1.387, 1.559e-7
-1.386, 1.559e-7
-1.385, 1.559e-7
-1.384, 1.559e-7
-1.383, 1.559e-7
-1.382, 1.559e-7
-1.381, -2.927e-6
-1.380, 1.559e-7
-1.379, 1.559e-7
-1.378, 1.559e-7
-1.377, 1.559e-7
-1.376, 1.559e-7
-1.375, 1.559e-7
-1.374, 1.559e-7
-1.373, 1.559e-7
-1.372, 1.559e-7
-1.371, -2.927e-6
-1.370, 1.559e-7
-1.369, 1.559e-7
-1.368, 1.559e-7
-1.367, 1.559e-7
-1.366, -2.927e-6
-1.365, 1.559e-7
-1.364, -2.927e-6
-1.363, 1.559e-7
-1.362, -2.927e-6
-1.361, 1.559e-7
-1.360, 1.559e-7
-1.359, 1.559e-7
-1.358, 1.559e-7
-1.357, -2.927e-6
-1.356, -2.927e-6
-1.355, 1.559e-7
-1.354, 1.559e-7
-1.353, -2.927e-6
-1.352, 1.559e-7
-1.351, 1.559e-7
-1.350, -2.927e-6
-1.349, 1.559e-7
-1.348, -2.927e-6
-1.347, 1.559e-7
-1.346, -2.927e-6
-1.345, 1.559e-7
-1.344, 1.559e-7
-1.343, -2.927e-6
-1.342, 1.559e-7
-1.341, -2.927e-6
-1.340, 1.559e-7
-1.339, -2.927e-6
-1.338, 1.559e-7
-1.337, -2.927e-6
-1.336, 1.559e-7
-1.335, 1.559e-7
-1.334, -2.927e-6
-1.333, 1.559e-7
-1.332, -2.927e-6
-1.331, -2.927e-6
-1.330, -2.927e-6
-1.329, -2.927e-6
-1.328, 1.559e-7
-1.327, -2.927e-6
-1.326, 1.559e-7
-1.325, -2.927e-6
-1.324, 1.559e-7
-1.323, -2.927e-6
-1.322, 1.559e-7
-1.321, -2.927e-6
-1.320, 1.559e-7
-1.319, -2.927e-6
-1.318, -2.927e-6
-1.317, -2.927e-6
-1.316, -2.927e-6
-1.315, -2.927e-6
-1.314, -2.927e-6
-1.313, -2.927e-6
-1.312, -2.927e-6
-1.311, -2.927e-6
-1.310, -2.927e-6
-1.309, -2.927e-6
-1.308, -2.927e-6
-1.307, -2.927e-6
-1.306, -2.927e-6
-1.305, -2.927e-6
-1.304, -2.927e-6
-1.303, -2.927e-6
-1.302, -2.927e-6
-1.301, -2.927e-6
-1.300, -2.927e-6
-1.299, -2.927e-6
-1.298, -2.927e-6
-1.297, -2.927e-6
-1.296, -2.927e-6
-1.295, -2.927e-6
-1.294, -2.927e-6
-1.293, -2.927e-6
-1.292, -2.927e-6
-1.291, -2.927e-6
-1.290, 1.559e-7
-1.289, -2.927e-6
-1.288, -2.927e-6
-1.287, -2.927e-6
-1.286, -2.927e-6
-1.285, -2.927e-6
-1.284, -2.927e-6
-1.283, -2.927e-6
-1.282, -2.927e-6
-1.281, -2.927e-6
-1.280, -2.927e-6
-1.279, -2.927e-6
-1.278, -2.927e-6
-1.277, -2.927e-6
-1.276, -2.927e-6
-1.275, -2.927e-6
-1.274, 1.559e-7
-1.273, -2.927e-6
-1.272, -2.927e-6
-1.271, -2.927e-6
-1.270, -2.927e-6
-1.269, -2.927e-6
-1.268, -2.927e-6
-1.267, -2.927e-6
-1.266, -2.927e-6
-1.265, -2.927e-6
-1.264, -2.927e-6
-1.263, 1.559e-7
-1.262, -2.927e-6
-1.261, -2.927e-6
-1.260, -2.927e-6
-1.259, -2.927e-6
-1.258, -2.927e-6
-1.257, -2.927e-6
-1.256, -2.927e-6
-1.255, -2.927e-6
-1.254, -2.927e-6
-1.253, -2.927e-6
-1.252, -2.927e-6
-1.251, -2.927e-6
-1.250, -2.927e-6
-1.249, -2.927e-6
-1.248, -2.927e-6
-1.247, -2.927e-6
-1.246, -2.927e-6
-1.245, -2.927e-6
-1.244, -2.927e-6
-1.243, -2.927e-6
-1.242, -2.927e-6
-1.241, -2.927e-6
-1.240, -2.927e-6
-1.239, -2.927e-6
-1.238, -2.927e-6
-1.237, -2.927e-6
-1.236, -2.927e-6
-1.235, -2.927e-6
-1.234, -2.927e-6
-1.233, -2.927e-6
-1.232, -2.927e-6
-1.231, -2.927e-6
-1.230, -2.927e-6
-1.229, -2.927e-6
-1.228, -2.927e-6
-1.227, -2.927e-6
-1.226, -2.927e-6
-1.225, -2.927e-6
-1.224, -2.927e-6
-1.223, -2.927e-6
-1.222, -2.927e-6
-1.221, -2.927e-6
-1.220, -2.927e-6
-1.219, -2.927e-6
-1.218, -2.927e-6
-1.217, -2.927e-6
-1.216, -2.927e-6
-1.215, -2.927e-6
-1.214, -2.927e-6
-1.213, -2.927e-6
-1.212, -2.927e-6
-1.211, -2.927e-6
-1.210, -2.927e-6
-1.209, -2.927e-6
-1.208, -2.927e-6
-1.207, -2.927e-6
-1.206, -2.927e-6
-1.205, -2.927e-6
-1.204, -2.927e-6
-1.203, -2.927e-6
-1.202, -2.927e-6
-1.201, -2.927e-6
-1.200, -2.927e-6
-1.199, -2.927e-6
-1.198, -2.927e-6
-1.197, -2.927e-6
-1.196, -2.927e-6
-1.195, -2.927e-6
-1.194, -2.927e-6
-1.193, -2.927e-6
-1.192, -2.927e-6
-1.191, -2.927e-6
-1.190, -2.927e-6
-1.189, -2.927e-6
-1.188, -2.927e-6
-1.187, -2.927e-6
-1.186, -2.927e-6
-1.185, -2.927e-6
-1.184, -2.927e-6
-1.183, -2.927e-6
-1.182, -2.927e-6
-1.181, -2.927e-6
-1.180, -2.927e-6
-1.179, -2.927e-6
-1.178, -2.927e-6
-1.177, -2.927e-6
-1.176, -2.927e-6
-1.175, -2.927e-6
-1.174, -2.927e-6
-1.173, -2.927e-6
-1.172, -2.927e-6
-1.171, -2.927e-6
-1.170, -2.927e-6
-1.169, -2.927e-6
-1.168, -2.927e-6
-1.167, -2.927e-6
-1.166, -2.927e-6
-1.165, -2.927e-6
-1.164, -2.927e-6
-1.163, -2.927e-6
-1.162, -2.927e-6
-1.161, -2.927e-6
-1.160, -2.927e-6
-1.159, -2.927e-6
-1.158, -2.927e-6
-1.157, -2.927e-6
-1.156, -2.927e-6
-1.155, -2.927e-6
-1.154, -2.927e-6
-1.153, -2.927e-6
-1.152, -2.927e-6
-1.151, -2.927e-6
-1.150, -2.927e-6
-1.149, -2.927e-6
-1.148, -2.927e-6
-1.147, -2.927e-6
-1.146, -2.927e-6
-1.145, -2.927e-6
-1.144, -2.927e-6
-1.143, -2.927e-6
-1.142, -2.927e-6
-1.141, -2.927e-6
-1.140, -2.927e-6
-1.139, -2.927e-6
-1.138, -2.927e-6
-1.137, -2.927e-6
-1.136, -2.927e-6
-1.135, -2.927e-6
-1.134, -6.010e-6
-1.133, -2.927e-6
-1.132, -2.927e-6
-1.131, -2.927e-6
-1.130, -2.927e-6
-1.129, -2.927e-6
-1.128, -2.927e-6
-1.127, -2.927e-6
-1.126, -2.927e-6
-1.125, -6.010e-6
-1.124, -2.927e-6
-1.123, -2.927e-6
-1.122, -2.927e-6
-1.121, -2.927e-6
-1.120, -2.927e-6
-1.119, -2.927e-6
-1.118, -2.927e-6
-1.117, -2.927e-6
-1.116, -2.927e-6
-1.115, -2.927e-6
-1.114, -2.927e-6
-1.113, -2.927e-6
-1.112, -2.927e-6
-1.111, -2.927e-6
-1.110, -2.927e-6
-1.109, -6.010e-6
-1.108, -2.927e-6
-1.107, -2.927e-6
-1.106, -2.927e-6
-1.105, -2.927e-6
-1.104, -2.927e-6
-1.103, -2.927e-6
-1.102, -6.010e-6
-1.101, -2.927e-6
-1.100, -2.927e-6
-1.099, -6.010e-6
-1.098, -6.010e-6
-1.097, -2.927e-6
-1.096, -2.927e-6
-1.095, -2.927e-6
-1.094, -6.010e-6
-1.093, -6.010e-6
-1.092, -2.927e-6
-1.091, -6.010e-6
-1.090, -2.927e-6
-1.089, -6.010e-6
-1.088, -2.927e-6
-1.087, -2.927e-6
-1.086, -6.010e-6
-1.085, -6.010e-6
-1.084, -6.010e-6
-1.083, -2.927e-6
-1.082, -6.010e-6
-1.081, -6.010e-6
-1.080, -6.010e-6
-1.079, -6.010e-6
-1.078, -2.927e-6
-1.077, -6.010e-6
-1.076, -6.010e-6
-1.075, -6.010e-6
-1.074, -2.927e-6
-1.073, -6.010e-6
-1.072, -6.010e-6
-1.071, -6.010e-6
-1.070, -6.010e-6
-1.069, -6.010e-6
-1.068, -6.010e-6
-1.067, -6.010e-6
-1.066, -6.010e-6
-1.065, -6.010e-6
-1.064, -6.010e-6
-1.063, -6.010e-6
-1.062, -6.010e-6
-1.061, -6.010e-6
-1.060, -6.010e-6
-1.059, -6.010e-6
-1.058, -6.010e-6
-1.057, -6.010e-6
-1.056, -6.010e-6
-1.055, -6.010e-6
-1.054, -6.010e-6
-1.053, -6.010e-6
-1.052, -6.010e-6
-1.051, -6.010e-6
-1.050, -6.010e-6
-1.049, -6.010e-6
-1.048, -6.010e-6
-1.047, -6.010e-6
-1.046, -6.010e-6
-1.045, -6.010e-6
-1.044, -6.010e-6
-1.043, -6.010e-6
-1.042, -6.010e-6
-1.041, -6.010e-6
-1.040, -6.010e-6
-1.039, -6.010e-6
-1.038, -6.010e-6
-1.037, -6.010e-6
-1.036, -6.010e-6
-1.035, -6.010e-6
-1.034, -6.010e-6
-1.033, -6.010e-6
-1.032, -6.010e-6
-1.031, -6.010e-6
-1.030, -6.010e-6
-1.029, -6.010e-6
-1.028, -6.010e-6
-1.027, -6.010e-6
-1.026, -6.010e-6
-1.025, -6.010e-6
-1.024, -6.010e-6
-1.023, -6.010e-6
-1.022, -6.010e-6
-1.021, -6.010e-6
-1.020, -6.010e-6
-1.019, -6.010e-6
-1.018, -6.010e-6
-1.017, -6.010e-6
-1.016, -6.010e-6
-1.015, -6.010e-6
-1.014, -6.010e-6
-1.013, -6.010e-6
-1.012, -6.010e-6
-1.011, -6.010e-6
-1.010, -6.010e-6
-1.009, -9.093e-6
-1.008, -6.010e-6
-1.007, -6.010e-6
-1.006, -6.010e-6
-1.005, -6.010e-6
-1.004, -6.010e-6
-1.003, -6.010e-6
-1.002, -9.093e-6
-1.001, -6.010e-6
