Aug. 26, 2024   14:29:32
Cyclic Voltammetry
File: c:/users/guazh/data/20240813_batch_181_500/2024-08-25-exp188\exp188-2024-08-26t14_20_20-arkoh\exp188_cv_sr_50mvs_efin_-1500mv.bin
Data Source:  Experiment
Instrument Model:  CHI760E
Header: CV ran at 50 mVs
Note: 

Init E (V) = -1
High E (V) = -1
Low E (V) = -1.5
Final E (V) = -1
Init P/N = N
Scan Rate (V/s) = 0.05
Segment = 3
Sample Interval (V) = 0.001
Quiet Time (sec) = 2
Sensitivity (A/V) = 0.01
Comp R (ohm) = 1.7

Results:

Channel 1:
Segment 1:

Segment 2:

Segment 3:

Potential/V, Current/A

-1.000, 5.829e-6
-1.001, 1.609e-5
-1.002, 1.955e-5
-1.003, 2.147e-5
-1.004, 2.320e-5
-1.005, 2.446e-5
-1.006, 2.572e-5
-1.007, 2.682e-5
-1.008, 2.732e-5
-1.009, 2.808e-5
-1.010, 2.909e-5
-1.011, 2.991e-5
-1.012, 3.061e-5
-1.013, 3.107e-5
-1.014, 3.153e-5
-1.015, 3.262e-5
-1.016, 3.325e-5
-1.017, 3.413e-5
-1.018, 3.472e-5
-1.019, 3.534e-5
-1.020, 3.627e-5
-1.021, 3.714e-5
-1.022, 3.777e-5
-1.023, 3.834e-5
-1.024, 3.914e-5
-1.025, 3.997e-5
-1.026, 4.082e-5
-1.027, 4.106e-5
-1.028, 4.159e-5
-1.029, 4.193e-5
-1.030, 4.252e-5
-1.031, 4.291e-5
-1.032, 4.313e-5
-1.033, 4.308e-5
-1.034, 4.336e-5
-1.035, 4.364e-5
-1.036, 4.400e-5
-1.037, 4.417e-5
-1.038, 4.426e-5
-1.039, 4.435e-5
-1.040, 4.453e-5
-1.041, 4.504e-5
-1.042, 4.515e-5
-1.043, 4.517e-5
-1.044, 4.526e-5
-1.045, 4.565e-5
-1.046, 4.575e-5
-1.047, 4.602e-5
-1.048, 4.598e-5
-1.049, 4.593e-5
-1.050, 4.644e-5
-1.051, 4.641e-5
-1.052, 4.670e-5
-1.053, 4.635e-5
-1.054, 4.643e-5
-1.055, 4.670e-5
-1.056, 4.681e-5
-1.057, 4.694e-5
-1.058, 4.683e-5
-1.059, 4.676e-5
-1.060, 4.714e-5
-1.061, 4.708e-5
-1.062, 4.722e-5
-1.063, 4.721e-5
-1.064, 4.693e-5
-1.065, 4.734e-5
-1.066, 4.738e-5
-1.067, 4.736e-5
-1.068, 4.733e-5
-1.069, 4.736e-5
-1.070, 4.749e-5
-1.071, 4.782e-5
-1.072, 4.757e-5
-1.073, 4.745e-5
-1.074, 4.745e-5
-1.075, 4.791e-5
-1.076, 4.796e-5
-1.077, 4.790e-5
-1.078, 4.772e-5
-1.079, 4.765e-5
-1.080, 4.787e-5
-1.081, 4.795e-5
-1.082, 4.811e-5
-1.083, 4.770e-5
-1.084, 4.782e-5
-1.085, 4.794e-5
-1.086, 4.808e-5
-1.087, 4.822e-5
-1.088, 4.797e-5
-1.089, 4.796e-5
-1.090, 4.819e-5
-1.091, 4.823e-5
-1.092, 4.836e-5
-1.093, 4.810e-5
-1.094, 4.805e-5
-1.095, 4.833e-5
-1.096, 4.828e-5
-1.097, 4.838e-5
-1.098, 4.812e-5
-1.099, 4.815e-5
-1.100, 4.835e-5
-1.101, 4.853e-5
-1.102, 4.844e-5
-1.103, 4.842e-5
-1.104, 4.811e-5
-1.105, 4.856e-5
-1.106, 4.862e-5
-1.107, 4.869e-5
-1.108, 4.858e-5
-1.109, 4.818e-5
-1.110, 4.859e-5
-1.111, 4.879e-5
-1.112, 4.865e-5
-1.113, 4.862e-5
-1.114, 4.850e-5
-1.115, 4.873e-5
-1.116, 4.896e-5
-1.117, 4.885e-5
-1.118, 4.863e-5
-1.119, 4.877e-5
-1.120, 4.888e-5
-1.121, 4.889e-5
-1.122, 4.908e-5
-1.123, 4.883e-5
-1.124, 4.892e-5
-1.125, 4.901e-5
-1.126, 4.914e-5
-1.127, 4.934e-5
-1.128, 4.902e-5
-1.129, 4.890e-5
-1.130, 4.936e-5
-1.131, 4.935e-5
-1.132, 4.943e-5
-1.133, 4.929e-5
-1.134, 4.919e-5
-1.135, 4.953e-5
-1.136, 4.951e-5
-1.137, 4.955e-5
-1.138, 4.962e-5
-1.139, 4.941e-5
-1.140, 4.988e-5
-1.141, 4.991e-5
-1.142, 4.985e-5
-1.143, 4.987e-5
-1.144, 4.967e-5
-1.145, 5.004e-5
-1.146, 5.011e-5
-1.147, 5.022e-5
-1.148, 5.025e-5
-1.149, 5.013e-5
-1.150, 5.040e-5
-1.151, 5.061e-5
-1.152, 5.056e-5
-1.153, 5.056e-5
-1.154, 5.051e-5
-1.155, 5.070e-5
-1.156, 5.091e-5
-1.157, 5.086e-5
-1.158, 5.086e-5
-1.159, 5.100e-5
-1.160, 5.111e-5
-1.161, 5.146e-5
-1.162, 5.141e-5
-1.163, 5.132e-5
-1.164, 5.146e-5
-1.165, 5.170e-5
-1.166, 5.173e-5
-1.167, 5.206e-5
-1.168, 5.188e-5
-1.169, 5.190e-5
-1.170, 5.227e-5
-1.171, 5.233e-5
-1.172, 5.261e-5
-1.173, 5.251e-5
-1.174, 5.252e-5
-1.175, 5.281e-5
-1.176, 5.304e-5
-1.177, 5.334e-5
-1.178, 5.343e-5
-1.179, 5.323e-5
-1.180, 5.362e-5
-1.181, 5.384e-5
-1.182, 5.392e-5
-1.183, 5.401e-5
-1.184, 5.393e-5
-1.185, 5.424e-5
-1.186, 5.468e-5
-1.187, 5.465e-5
-1.188, 5.488e-5
-1.189, 5.480e-5
-1.190, 5.515e-5
-1.191, 5.567e-5
-1.192, 5.560e-5
-1.193, 5.569e-5
-1.194, 5.573e-5
-1.195, 5.615e-5
-1.196, 5.659e-5
-1.197, 5.652e-5
-1.198, 5.661e-5
-1.199, 5.698e-5
-1.200, 5.710e-5
-1.201, 5.768e-5
-1.202, 5.781e-5
-1.203, 5.789e-5
-1.204, 5.836e-5
-1.205, 5.850e-5
-1.206, 5.901e-5
-1.207, 5.937e-5
-1.208, 5.925e-5
-1.209, 5.953e-5
-1.210, 6.010e-5
-1.211, 6.047e-5
-1.212, 6.087e-5
-1.213, 6.089e-5
-1.214, 6.110e-5
-1.215, 6.176e-5
-1.216, 6.221e-5
-1.217, 6.247e-5
-1.218, 6.288e-5
-1.219, 6.290e-5
-1.220, 6.351e-5
-1.221, 6.409e-5
-1.222, 6.450e-5
-1.223, 6.490e-5
-1.224, 6.511e-5
-1.225, 6.574e-5
-1.226, 6.638e-5
-1.227, 6.679e-5
-1.228, 6.733e-5
-1.229, 6.820e-5
-1.230, 6.843e-5
-1.231, 6.931e-5
-1.232, 6.954e-5
-1.233, 7.082e-5
-1.234, 7.110e-5
-1.235, 7.115e-5
-1.236, 7.211e-5
-1.237, 7.253e-5
-1.238, 7.294e-5
-1.239, 7.364e-5
-1.240, 7.426e-5
-1.241, 7.537e-5
-1.242, 7.628e-5
-1.243, 7.661e-5
-1.244, 7.741e-5
-1.245, 7.814e-5
-1.246, 7.929e-5
-1.247, 8.039e-5
-1.248, 8.087e-5
-1.249, 8.182e-5
-1.250, 8.271e-5
-1.251, 8.379e-5
-1.252, 8.496e-5
-1.253, 8.579e-5
-1.254, 8.665e-5
-1.255, 8.798e-5
-1.256, 8.910e-5
-1.257, 9.052e-5
-1.258, 9.146e-5
-1.259, 9.264e-5
-1.260, 9.396e-5
-1.261, 9.556e-5
-1.262, 9.673e-5
-1.263, 9.811e-5
-1.264, 9.944e-5
-1.265, 1.011e-4
-1.266, 1.028e-4
-1.267, 1.046e-4
-1.268, 1.060e-4
-1.269, 1.077e-4
-1.270, 1.095e-4
-1.271, 1.117e-4
-1.272, 1.135e-4
-1.273, 1.153e-4
-1.274, 1.174e-4
-1.275, 1.195e-4
-1.276, 1.221e-4
-1.277, 1.244e-4
-1.278, 1.266e-4
-1.279, 1.293e-4
-1.280, 1.321e-4
-1.281, 1.349e-4
-1.282, 1.376e-4
-1.283, 1.403e-4
-1.284, 1.434e-4
-1.285, 1.466e-4
-1.286, 1.502e-4
-1.287, 1.539e-4
-1.288, 1.572e-4
-1.289, 1.610e-4
-1.290, 1.650e-4
-1.291, 1.693e-4
-1.292, 1.740e-4
-1.293, 1.782e-4
-1.294, 1.831e-4
-1.295, 1.883e-4
-1.296, 1.936e-4
-1.297, 1.994e-4
-1.298, 2.051e-4
-1.299, 2.110e-4
-1.300, 2.175e-4
-1.301, 2.247e-4
-1.302, 2.316e-4
-1.303, 2.388e-4
-1.304, 2.463e-4
-1.305, 2.545e-4
-1.306, 2.631e-4
-1.307, 2.717e-4
-1.308, 2.807e-4
-1.309, 2.896e-4
-1.310, 2.992e-4
-1.311, 3.093e-4
-1.312, 3.193e-4
-1.313, 3.294e-4
-1.314, 3.399e-4
-1.315, 3.507e-4
-1.316, 3.623e-4
-1.317, 3.735e-4
-1.318, 3.851e-4
-1.319, 3.970e-4
-1.320, 4.088e-4
-1.321, 4.215e-4
-1.322, 4.343e-4
-1.323, 4.472e-4
-1.324, 4.606e-4
-1.325, 4.739e-4
-1.326, 4.882e-4
-1.327, 5.026e-4
-1.328, 5.168e-4
-1.329, 5.315e-4
-1.330, 5.470e-4
-1.331, 5.627e-4
-1.332, 5.786e-4
-1.333, 5.943e-4
-1.334, 6.105e-4
-1.335, 6.274e-4
-1.336, 6.445e-4
-1.337, 6.620e-4
-1.338, 6.798e-4
-1.339, 6.977e-4
-1.340, 7.182e-4
-1.341, 7.379e-4
-1.342, 7.578e-4
-1.343, 7.782e-4
-1.344, 7.984e-4
-1.345, 8.195e-4
-1.346, 8.410e-4
-1.347, 8.624e-4
-1.348, 8.841e-4
-1.349, 9.058e-4
-1.350, 9.283e-4
-1.351, 9.515e-4
-1.352, 9.747e-4
-1.353, 9.976e-4
-1.354, 1.021e-3
-1.355, 1.045e-3
-1.356, 1.072e-3
-1.357, 1.099e-3
-1.358, 1.125e-3
-1.359, 1.151e-3
-1.360, 1.178e-3
-1.361, 1.205e-3
-1.362, 1.232e-3
-1.363, 1.259e-3
-1.364, 1.286e-3
-1.365, 1.311e-3
-1.366, 1.336e-3
-1.367, 1.366e-3
-1.368, 1.394e-3
-1.369, 1.419e-3
-1.370, 1.445e-3
-1.371, 1.472e-3
-1.372, 1.502e-3
-1.373, 1.531e-3
-1.374, 1.563e-3
-1.375, 1.593e-3
-1.376, 1.624e-3
-1.377, 1.655e-3
-1.378, 1.684e-3
-1.379, 1.713e-3
-1.380, 1.743e-3
-1.381, 1.775e-3
-1.382, 1.808e-3
-1.383, 1.839e-3
-1.384, 1.869e-3
-1.385, 1.901e-3
-1.386, 1.933e-3
-1.387, 1.973e-3
-1.388, 2.005e-3
-1.389, 2.040e-3
-1.390, 2.076e-3
-1.391, 2.112e-3
-1.392, 2.147e-3
-1.393, 2.186e-3
-1.394, 2.224e-3
-1.395, 2.262e-3
-1.396, 2.302e-3
-1.397, 2.339e-3
-1.398, 2.378e-3
-1.399, 2.421e-3
-1.400, 2.458e-3
-1.401, 2.497e-3
-1.402, 2.539e-3
-1.403, 2.580e-3
-1.404, 2.620e-3
-1.405, 2.660e-3
-1.406, 2.702e-3
-1.407, 2.745e-3
-1.408, 2.784e-3
-1.409, 2.828e-3
-1.410, 2.868e-3
-1.411, 2.911e-3
-1.412, 2.956e-3
-1.413, 3.000e-3
-1.414, 3.045e-3
-1.415, 3.097e-3
-1.416, 3.139e-3
-1.417, 3.182e-3
-1.418, 3.226e-3
-1.419, 3.268e-3
-1.420, 3.303e-3
-1.421, 3.345e-3
-1.422, 3.390e-3
-1.423, 3.438e-3
-1.424, 3.482e-3
-1.425, 3.528e-3
-1.426, 3.575e-3
-1.427, 3.624e-3
-1.428, 3.669e-3
-1.429, 3.715e-3
-1.430, 3.762e-3
-1.431, 3.804e-3
-1.432, 3.846e-3
-1.433, 3.893e-3
-1.434, 3.938e-3
-1.435, 3.984e-3
-1.436, 4.032e-3
-1.437, 4.080e-3
-1.438, 4.129e-3
-1.439, 4.182e-3
-1.440, 4.231e-3
-1.441, 4.284e-3
-1.442, 4.350e-3
-1.443, 4.422e-3
-1.444, 4.472e-3
-1.445, 4.519e-3
-1.446, 4.567e-3
-1.447, 4.616e-3
-1.448, 4.656e-3
-1.449, 4.706e-3
-1.450, 4.747e-3
-1.451, 4.829e-3
-1.452, 4.893e-3
-1.453, 4.938e-3
-1.454, 4.993e-3
-1.455, 5.049e-3
-1.456, 5.103e-3
-1.457, 5.156e-3
-1.458, 5.208e-3
-1.459, 5.256e-3
-1.460, 5.320e-3
-1.461, 5.376e-3
-1.462, 5.429e-3
-1.463, 5.477e-3
-1.464, 5.517e-3
-1.465, 5.570e-3
-1.466, 5.627e-3
-1.467, 5.686e-3
-1.468, 5.729e-3
-1.469, 5.773e-3
-1.470, 5.825e-3
-1.471, 5.879e-3
-1.472, 5.919e-3
-1.473, 5.969e-3
-1.474, 6.019e-3
-1.475, 6.054e-3
-1.476, 6.121e-3
-1.477, 6.180e-3
-1.478, 6.228e-3
-1.479, 6.291e-3
-1.480, 6.346e-3
-1.481, 6.412e-3
-1.482, 6.473e-3
-1.483, 6.526e-3
-1.484, 6.614e-3
-1.485, 6.685e-3
-1.486, 6.752e-3
-1.487, 6.798e-3
-1.488, 6.843e-3
-1.489, 6.890e-3
-1.490, 6.991e-3
-1.491, 7.090e-3
-1.492, 7.143e-3
-1.493, 7.193e-3
-1.494, 7.248e-3
-1.495, 7.304e-3
-1.496, 7.365e-3
-1.497, 7.415e-3
-1.498, 7.526e-3
-1.499, 7.615e-3
-1.500, 7.584e-3
-1.499, 7.502e-3
-1.498, 7.413e-3
-1.497, 7.345e-3
-1.496, 7.279e-3
-1.495, 7.219e-3
-1.494, 7.133e-3
-1.493, 7.066e-3
-1.492, 6.986e-3
-1.491, 6.910e-3
-1.490, 6.830e-3
-1.489, 6.792e-3
-1.488, 6.758e-3
-1.487, 6.684e-3
-1.486, 6.633e-3
-1.485, 6.630e-3
-1.484, 6.555e-3
-1.483, 6.486e-3
-1.482, 6.473e-3
-1.481, 6.449e-3
-1.480, 6.401e-3
-1.479, 6.363e-3
-1.478, 6.326e-3
-1.477, 6.288e-3
-1.476, 6.251e-3
-1.475, 6.202e-3
-1.474, 6.141e-3
-1.473, 6.126e-3
-1.472, 6.046e-3
-1.471, 5.985e-3
-1.470, 5.920e-3
-1.469, 5.845e-3
-1.468, 5.762e-3
-1.467, 5.690e-3
-1.466, 5.628e-3
-1.465, 5.559e-3
-1.464, 5.474e-3
-1.463, 5.389e-3
-1.462, 5.306e-3
-1.461, 5.241e-3
-1.460, 5.196e-3
-1.459, 5.116e-3
-1.458, 5.054e-3
-1.457, 5.013e-3
-1.456, 4.948e-3
-1.455, 4.887e-3
-1.454, 4.814e-3
-1.453, 4.749e-3
-1.452, 4.690e-3
-1.451, 4.641e-3
-1.450, 4.580e-3
-1.449, 4.527e-3
-1.448, 4.477e-3
-1.447, 4.422e-3
-1.446, 4.372e-3
-1.445, 4.354e-3
-1.444, 4.314e-3
-1.443, 4.276e-3
-1.442, 4.218e-3
-1.441, 4.161e-3
-1.440, 4.104e-3
-1.439, 4.047e-3
-1.438, 3.986e-3
-1.437, 3.930e-3
-1.436, 3.875e-3
-1.435, 3.818e-3
-1.434, 3.765e-3
-1.433, 3.708e-3
-1.432, 3.655e-3
-1.431, 3.601e-3
-1.430, 3.559e-3
-1.429, 3.580e-3
-1.428, 3.526e-3
-1.427, 3.478e-3
-1.426, 3.425e-3
-1.425, 3.374e-3
-1.424, 3.327e-3
-1.423, 3.278e-3
-1.422, 3.228e-3
-1.421, 3.176e-3
-1.420, 3.124e-3
-1.419, 3.075e-3
-1.418, 3.024e-3
-1.417, 2.976e-3
-1.416, 2.929e-3
-1.415, 2.882e-3
-1.414, 2.835e-3
-1.413, 2.788e-3
-1.412, 2.742e-3
-1.411, 2.697e-3
-1.410, 2.650e-3
-1.409, 2.606e-3
-1.408, 2.563e-3
-1.407, 2.515e-3
-1.406, 2.471e-3
-1.405, 2.427e-3
-1.404, 2.385e-3
-1.403, 2.345e-3
-1.402, 2.305e-3
-1.401, 2.261e-3
-1.400, 2.218e-3
-1.399, 2.178e-3
-1.398, 2.139e-3
-1.397, 2.100e-3
-1.396, 2.065e-3
-1.395, 2.031e-3
-1.394, 1.996e-3
-1.393, 1.960e-3
-1.392, 1.921e-3
-1.391, 1.882e-3
-1.390, 1.853e-3
-1.389, 1.813e-3
-1.388, 1.779e-3
-1.387, 1.744e-3
-1.386, 1.712e-3
-1.385, 1.680e-3
-1.384, 1.648e-3
-1.383, 1.620e-3
-1.382, 1.593e-3
-1.381, 1.564e-3
-1.380, 1.536e-3
-1.379, 1.500e-3
-1.378, 1.472e-3
-1.377, 1.440e-3
-1.376, 1.409e-3
-1.375, 1.382e-3
-1.374, 1.356e-3
-1.373, 1.336e-3
-1.372, 1.307e-3
-1.371, 1.279e-3
-1.370, 1.251e-3
-1.369, 1.223e-3
-1.368, 1.198e-3
-1.367, 1.172e-3
-1.366, 1.144e-3
-1.365, 1.119e-3
-1.364, 1.095e-3
-1.363, 1.071e-3
-1.362, 1.047e-3
-1.361, 1.021e-3
-1.360, 9.994e-4
-1.359, 9.773e-4
-1.358, 9.545e-4
-1.357, 9.320e-4
-1.356, 9.093e-4
-1.355, 8.882e-4
-1.354, 8.684e-4
-1.353, 8.485e-4
-1.352, 8.285e-4
-1.351, 8.083e-4
-1.350, 7.879e-4
-1.349, 7.698e-4
-1.348, 7.518e-4
-1.347, 7.330e-4
-1.346, 7.153e-4
-1.345, 6.973e-4
-1.344, 6.798e-4
-1.343, 6.630e-4
-1.342, 6.470e-4
-1.341, 6.306e-4
-1.340, 6.147e-4
-1.339, 5.984e-4
-1.338, 5.834e-4
-1.337, 5.679e-4
-1.336, 5.532e-4
-1.335, 5.389e-4
-1.334, 5.248e-4
-1.333, 5.112e-4
-1.332, 4.976e-4
-1.331, 4.840e-4
-1.330, 4.708e-4
-1.329, 4.572e-4
-1.328, 4.452e-4
-1.327, 4.331e-4
-1.326, 4.208e-4
-1.325, 4.099e-4
-1.324, 3.987e-4
-1.323, 3.880e-4
-1.322, 3.772e-4
-1.321, 3.659e-4
-1.320, 3.553e-4
-1.319, 3.455e-4
-1.318, 3.354e-4
-1.317, 3.261e-4
-1.316, 3.163e-4
-1.315, 3.071e-4
-1.314, 2.982e-4
-1.313, 2.897e-4
-1.312, 2.816e-4
-1.311, 2.733e-4
-1.310, 2.650e-4
-1.309, 2.571e-4
-1.308, 2.495e-4
-1.307, 2.425e-4
-1.306, 2.352e-4
-1.305, 2.278e-4
-1.304, 2.213e-4
-1.303, 2.147e-4
-1.302, 2.079e-4
-1.301, 2.014e-4
-1.300, 1.954e-4
-1.299, 1.893e-4
-1.298, 1.835e-4
-1.297, 1.777e-4
-1.296, 1.723e-4
-1.295, 1.665e-4
-1.294, 1.607e-4
-1.293, 1.556e-4
-1.292, 1.509e-4
-1.291, 1.453e-4
-1.290, 1.405e-4
-1.289, 1.360e-4
-1.288, 1.317e-4
-1.287, 1.270e-4
-1.286, 1.221e-4
-1.285, 1.179e-4
-1.284, 1.139e-4
-1.283, 1.100e-4
-1.282, 1.062e-4
-1.281, 1.019e-4
-1.280, 9.772e-5
-1.279, 9.465e-5
-1.278, 9.111e-5
-1.277, 8.774e-5
-1.276, 8.401e-5
-1.275, 8.065e-5
-1.274, 7.818e-5
-1.273, 7.516e-5
-1.272, 7.240e-5
-1.271, 6.933e-5
-1.270, 6.602e-5
-1.269, 6.359e-5
-1.268, 6.082e-5
-1.267, 5.803e-5
-1.266, 5.549e-5
-1.265, 5.257e-5
-1.264, 5.057e-5
-1.263, 4.831e-5
-1.262, 4.595e-5
-1.261, 4.368e-5
-1.260, 4.105e-5
-1.259, 3.915e-5
-1.258, 3.720e-5
-1.257, 3.495e-5
-1.256, 3.290e-5
-1.255, 3.078e-5
-1.254, 2.918e-5
-1.253, 2.751e-5
-1.252, 2.572e-5
-1.251, 2.376e-5
-1.250, 2.222e-5
-1.249, 2.053e-5
-1.248, 1.918e-5
-1.247, 1.760e-5
-1.246, 1.568e-5
-1.245, 1.439e-5
-1.244, 1.307e-5
-1.243, 1.176e-5
-1.242, 1.076e-5
-1.241, 8.956e-6
-1.240, 7.753e-6
-1.239, 6.766e-6
-1.238, 5.365e-6
-1.237, 4.270e-6
-1.236, 2.908e-6
-1.235, 1.646e-6
-1.234, 6.985e-7
-1.233, -1.204e-7
-1.232, -1.077e-6
-1.231, -2.390e-6
-1.230, -3.455e-6
-1.229, -4.767e-6
-1.228, -5.172e-6
-1.227, -5.941e-6
-1.226, -6.928e-6
-1.225, -8.082e-6
-1.224, -8.674e-6
-1.223, -9.108e-6
-1.222, -1.032e-5
-1.221, -1.101e-5
-1.220, -1.194e-5
-1.219, -1.264e-5
-1.218, -1.303e-5
-1.217, -1.390e-5
-1.216, -1.470e-5
-1.215, -1.534e-5
-1.214, -1.607e-5
-1.213, -1.622e-5
-1.212, -1.694e-5
-1.211, -1.788e-5
-1.210, -1.824e-5
-1.209, -1.900e-5
-1.208, -1.919e-5
-1.207, -1.975e-5
-1.206, -2.071e-5
-1.205, -2.095e-5
-1.204, -2.165e-5
-1.203, -2.190e-5
-1.202, -2.216e-5
-1.201, -2.309e-5
-1.200, -2.333e-5
-1.199, -2.378e-5
-1.198, -2.414e-5
-1.197, -2.448e-5
-1.196, -2.513e-5
-1.195, -2.559e-5
-1.194, -2.584e-5
-1.193, -2.595e-5
-1.192, -2.626e-5
-1.191, -2.695e-5
-1.190, -2.744e-5
-1.189, -2.760e-5
-1.188, -2.772e-5
-1.187, -2.799e-5
-1.186, -2.843e-5
-1.185, -2.896e-5
-1.184, -2.911e-5
-1.183, -2.922e-5
-1.182, -2.953e-5
-1.181, -2.993e-5
-1.180, -3.031e-5
-1.179, -3.055e-5
-1.178, -3.076e-5
-1.177, -3.104e-5
-1.176, -3.139e-5
-1.175, -3.153e-5
-1.174, -3.188e-5
-1.173, -3.163e-5
-1.172, -3.186e-5
-1.171, -3.234e-5
-1.170, -3.242e-5
-1.169, -3.258e-5
-1.168, -3.256e-5
-1.167, -3.267e-5
-1.166, -3.327e-5
-1.165, -3.336e-5
-1.164, -3.357e-5
-1.163, -3.362e-5
-1.162, -3.375e-5
-1.161, -3.428e-5
-1.160, -3.457e-5
-1.159, -3.461e-5
-1.158, -3.478e-5
-1.157, -3.476e-5
-1.156, -3.528e-5
-1.155, -3.560e-5
-1.154, -3.569e-5
-1.153, -3.580e-5
-1.152, -3.594e-5
-1.151, -3.634e-5
-1.150, -3.671e-5
-1.149, -3.658e-5
-1.148, -3.662e-5
-1.147, -3.675e-5
-1.146, -3.704e-5
-1.145, -3.757e-5
-1.144, -3.746e-5
-1.143, -3.732e-5
-1.142, -3.780e-5
-1.141, -3.799e-5
-1.140, -3.838e-5
-1.139, -3.859e-5
-1.138, -3.841e-5
-1.137, -3.872e-5
-1.136, -3.894e-5
-1.135, -3.918e-5
-1.134, -3.932e-5
-1.133, -3.907e-5
-1.132, -3.906e-5
-1.131, -3.936e-5
-1.130, -3.942e-5
-1.129, -3.963e-5
-1.128, -3.939e-5
-1.127, -3.960e-5
-1.126, -4.003e-5
-1.125, -4.011e-5
-1.124, -4.013e-5
-1.123, -4.014e-5
-1.122, -4.025e-5
-1.121, -4.078e-5
-1.120, -4.083e-5
-1.119, -4.086e-5
-1.118, -4.108e-5
-1.117, -4.090e-5
-1.116, -4.132e-5
-1.115, -4.159e-5
-1.114, -4.174e-5
-1.113, -4.175e-5
-1.112, -4.172e-5
-1.111, -4.203e-5
-1.110, -4.247e-5
-1.109, -4.244e-5
-1.108, -4.247e-5
-1.107, -4.265e-5
-1.106, -4.288e-5
-1.105, -4.340e-5
-1.104, -4.336e-5
-1.103, -4.323e-5
-1.102, -4.371e-5
-1.101, -4.401e-5
-1.100, -4.437e-5
-1.099, -4.455e-5
-1.098, -4.453e-5
-1.097, -4.500e-5
-1.096, -4.504e-5
-1.095, -4.558e-5
-1.094, -4.595e-5
-1.093, -4.570e-5
-1.092, -4.634e-5
-1.091, -4.662e-5
-1.090, -4.709e-5
-1.089, -4.729e-5
-1.088, -4.745e-5
-1.087, -4.774e-5
-1.086, -4.820e-5
-1.085, -4.852e-5
-1.084, -4.876e-5
-1.083, -4.874e-5
-1.082, -4.909e-5
-1.081, -4.950e-5
-1.080, -4.978e-5
-1.079, -5.010e-5
-1.078, -5.015e-5
-1.077, -5.024e-5
-1.076, -5.078e-5
-1.075, -5.135e-5
-1.074, -5.123e-5
-1.073, -5.135e-5
-1.072, -5.148e-5
-1.071, -5.181e-5
-1.070, -5.233e-5
-1.069, -5.232e-5
-1.068, -5.238e-5
-1.067, -5.258e-5
-1.066, -5.285e-5
-1.065, -5.345e-5
-1.064, -5.348e-5
-1.063, -5.344e-5
-1.062, -5.394e-5
-1.061, -5.405e-5
-1.060, -5.446e-5
-1.059, -5.476e-5
-1.058, -5.460e-5
-1.057, -5.498e-5
-1.056, -5.511e-5
-1.055, -5.559e-5
-1.054, -5.588e-5
-1.053, -5.576e-5
-1.052, -5.607e-5
-1.051, -5.639e-5
-1.050, -5.678e-5
-1.049, -5.721e-5
-1.048, -5.691e-5
-1.047, -5.728e-5
-1.046, -5.774e-5
-1.045, -5.799e-5
-1.044, -5.836e-5
-1.043, -5.841e-5
-1.042, -5.856e-5
-1.041, -5.901e-5
-1.040, -5.915e-5
-1.039, -5.931e-5
-1.038, -5.957e-5
-1.037, -5.982e-5
-1.036, -6.018e-5
-1.035, -6.060e-5
-1.034, -6.068e-5
-1.033, -6.091e-5
-1.032, -6.103e-5
-1.031, -6.143e-5
-1.030, -6.204e-5
-1.029, -6.206e-5
-1.028, -6.228e-5
-1.027, -6.262e-5
-1.026, -6.298e-5
-1.025, -6.352e-5
-1.024, -6.398e-5
-1.023, -6.418e-5
-1.022, -6.426e-5
-1.021, -6.470e-5
-1.020, -6.489e-5
-1.019, -6.532e-5
-1.018, -6.530e-5
-1.017, -6.574e-5
-1.016, -6.624e-5
-1.015, -6.661e-5
-1.014, -6.713e-5
-1.013, -6.722e-5
-1.012, -6.732e-5
-1.011, -6.815e-5
-1.010, -6.840e-5
-1.009, -6.893e-5
-1.008, -6.902e-5
-1.007, -6.940e-5
-1.006, -7.016e-5
-1.005, -7.025e-5
-1.004, -7.090e-5
-1.003, -7.118e-5
-1.002, -7.134e-5
-1.001, -7.231e-5
