Potential V vs RHE, Current mA cm-2
0.013299999999999867,-0.19947429328097016
0.012299999999999978,-0.32000769602947127
0.011299999999999866,-0.36329786180534146
0.010299999999999976,-0.3944215104023722
0.009299999999999864,-0.41818866024010487
0.008299999999999974,-0.43530666696847176
0.007299999999999862,-0.45171731804690624
0.006299999999999972,-0.4715232762450167
0.00529999999999986,-0.4893486386233161
0.0042999999999999705,-0.5060422319617235
0.0032999999999998586,-0.518208749140563
0.0022999999999999687,-0.5286776127595643
0.0012999999999998568,-0.5429661968882011
0.00029999999999996696,-0.5506056379074723
-0.000700000000000145,-0.5551327140670403
-0.0017000000000000348,-0.556971838756865
-0.0027000000000001467,-0.55838655005673
-0.0037000000000000366,-0.5667333467259337
-0.0047000000000001485,-0.5764948546950025
-0.005700000000000038,-0.5787583927747865
-0.00670000000000015,-0.5831439978043682
-0.00770000000000004,-0.5849831224941927
-0.008700000000000152,-0.5927640346434504
-0.009700000000000042,-0.6021011292225595
-0.010700000000000154,-0.6070526187720873
-0.011700000000000044,-0.6076185032920333
-0.012700000000000156,-0.6103064547617768
-0.013700000000000045,-0.6127114639715473
-0.014700000000000157,-0.6206338472507915
-0.015700000000000047,-0.6241706255004541
-0.01670000000000016,-0.6253023945403461
-0.01770000000000005,-0.6262926924502518
-0.01870000000000016,-0.6291221150499817
-0.01970000000000005,-0.6354883158993744
-0.020700000000000163,-0.6402983343189155
-0.021700000000000053,-0.637327440589199
-0.022700000000000164,-0.6386006807590775
-0.023700000000000054,-0.6435521703086051
-0.024700000000000166,-0.6483621887281462
-0.025700000000000056,-0.6521819092377819
-0.026700000000000168,-0.6500598422879843
-0.027700000000000058,-0.6509086690679033
-0.02870000000000017,-0.6561431008774039
-0.02970000000000006,-0.6609531192969451
-0.03070000000000017,-0.6632166573767292
-0.03170000000000006,-0.6623678305968101
-0.03270000000000017,-0.6609531192969451
-0.03370000000000006,-0.6685925603162164
-0.034700000000000175,-0.6715634540459329
-0.035700000000000065,-0.6725537519558386
-0.03670000000000018,-0.6765149435954606
-0.03770000000000007,-0.673261107605771
-0.03870000000000018,-0.6784955394152716
-0.03970000000000007,-0.6823152599249072
-0.04070000000000018,-0.6851446825246373
-0.04170000000000007,-0.6876911628643944
-0.04270000000000018,-0.6847202691346778
-0.04370000000000007,-0.6891058741642594
-0.044700000000000184,-0.6958964884036116
-0.045700000000000074,-0.6947647193637195
-0.046700000000000186,-0.6987259110033417
-0.047700000000000076,-0.6961794306635846
-0.04870000000000019,-0.6983014976133821
-0.04970000000000008,-0.7097606591422889
-0.05070000000000019,-0.7070727076725454
-0.05170000000000008,-0.7089118323623699
-0.05270000000000019,-0.7091947746223429
-0.05370000000000008,-0.711175370442154
-0.05470000000000019,-0.7193806959813712
-0.05570000000000008,-0.7190977537213982
-0.056700000000000195,-0.7196636382413442
-0.057700000000000085,-0.7210783495412092
-0.058700000000000196,-0.7226345319710608
-0.059700000000000086,-0.7290007328204534
-0.0607000000000002,-0.7315472131602104
-0.06170000000000009,-0.7348010491499001
-0.0627000000000002,-0.734518106889927
-0.06370000000000009,-0.7360742893197786
-0.0647000000000002,-0.7404598943493601
-0.06570000000000009,-0.7439966725990228
-0.0667000000000002,-0.7439966725990228
-0.0677000000000001,-0.7428649035591307
-0.0687000000000002,-0.7482408064986178
-0.0697000000000001,-0.7503628734484155
-0.07070000000000021,-0.7548899496079835
-0.0717000000000001,-0.755597305257916
-0.07270000000000021,-0.7540411228280646
-0.0737000000000001,-0.7585681989876326
-0.07470000000000021,-0.7623879194972683
-0.0757000000000001,-0.7659246977469308
-0.07670000000000021,-0.7669149956568363
-0.0777000000000001,-0.7653588132269848
-0.07870000000000021,-0.7711591295564314
-0.0797000000000001,-0.7748373789360805
-0.08070000000000022,-0.7768179747558916
-0.0817000000000001,-0.7792229839656621
-0.08270000000000022,-0.7786570994457161
-0.08370000000000011,-0.7807791663955137
-0.08470000000000022,-0.7867209538549468
-0.08570000000000011,-0.788984491934731
-0.08670000000000022,-0.790116260974623
-0.08770000000000011,-0.7899747898446364
-0.08870000000000022,-0.7928042124443665
-0.08970000000000011,-0.7984630576438266
-0.09070000000000022,-0.8007265957236107
-0.09170000000000011,-0.8017168936335162
-0.09270000000000023,-0.8019998358934892
-0.09370000000000012,-0.8027071915434218
-0.09470000000000023,-0.8113369304725986
-0.09570000000000012,-0.8136004685523825
-0.09670000000000023,-0.8104881036926795
-0.09770000000000012,-0.8158640066321667
-0.09870000000000023,-0.8145907664622882
-0.09970000000000012,-0.8216643229616133
-0.10070000000000023,-0.8261913991211816
-0.10170000000000012,-0.8216643229616133
-0.10270000000000024,-0.8267572836411275
-0.10370000000000013,-0.8259084568612085
-0.10470000000000024,-0.8314258309306821
-0.10570000000000013,-0.8380749740400478
-0.10670000000000024,-0.8334064267504931
-0.10770000000000013,-0.8363773204802097
-0.10870000000000024,-0.8399140987298723
-0.10970000000000013,-0.8427435213296024
-0.11070000000000024,-0.8495341355689546
-0.11170000000000013,-0.8464217707092515
-0.11270000000000002,-0.8489682510490086
-0.11370000000000013,-0.8515147313887655
-0.11470000000000002,-0.8554759230283877
-0.11570000000000014,-0.8607103548378884
-0.11670000000000003,-0.8587297590180772
-0.11770000000000014,-0.8590127012780503
-0.11870000000000003,-0.8631153640476589
-0.11970000000000014,-0.8677839113372136
-0.12070000000000003,-0.871037747326903
-0.12170000000000014,-0.8714621607168627
-0.12270000000000003,-0.869905978287011
-0.12370000000000014,-0.8735842276666601
-0.12470000000000003,-0.8791016017361337
-0.12570000000000014,-0.8843360335456344
-0.12670000000000003,-0.8824969088558098
-0.12770000000000015,-0.8832042645057423
-0.12870000000000004,-0.884194562415648
-0.12970000000000015,-0.8929657724748112
-0.13070000000000004,-0.8953707816845817
-0.13170000000000015,-0.8939560703847166
-0.13270000000000004,-0.8974928486343793
-0.13370000000000015,-0.8986246176742713
-0.13470000000000004,-0.9042834628737314
-0.13570000000000015,-0.9079617122533805
-0.13670000000000004,-0.9078202411233941
-0.13770000000000016,-0.9106496637231241
-0.13870000000000005,-0.9122058461529757
-0.13970000000000016,-0.9168743934425302
-0.14070000000000005,-0.9230991231619364
-0.14170000000000016,-0.9218258829920579
-0.14270000000000005,-0.9233820654219095
-0.14370000000000016,-0.9253626612417204
-0.14470000000000005,-0.9305970930512211
-0.14570000000000016,-0.9372462361605868
-0.14670000000000005,-0.9354071114707622
-0.14770000000000016,-0.9368218227706272
-0.14870000000000005,-0.9413488989301954
-0.14970000000000017,-0.9453100905698175
-0.15070000000000006,-0.9519592336791831
-0.15170000000000017,-0.9515348202892236
-0.15270000000000006,-0.9528080604591023
-0.15370000000000017,-0.9588913190485219
-0.15470000000000006,-0.963701337468063
-0.15570000000000017,-0.9661063466778336
-0.15670000000000006,-0.9682284136276312
-0.15770000000000017,-0.9690772404075502
-0.15870000000000006,-0.9754434412569427
-0.15970000000000018,-0.9792631617665783
-0.16070000000000007,-0.98364876679616
-0.16170000000000018,-0.9886002563456876
-0.16270000000000007,-0.9867611316558631
-0.16370000000000018,-0.9944005726751344
-0.16470000000000007,-1.0017570714344324
-0.16570000000000018,-1.0038791383842298
-0.16670000000000007,-1.007557387763879
-0.16770000000000018,-1.0071329743739197
-0.16870000000000007,-1.012084463923447
-0.16970000000000018,-1.0205727317226374
-0.17070000000000007,-1.0256656924021514
-0.17170000000000019,-1.0286365861318683
-0.17270000000000008,-1.0290609995218278
-0.1737000000000002,-1.0337295468113823
-0.17470000000000008,-1.0441984104303836
-0.1757000000000002,-1.0484425443299785
-0.17670000000000008,-1.0522622648396145
-0.1777000000000002,-1.0559405142192635
-0.17870000000000008,-1.058628465689007
-0.1797000000000002,-1.0696632138279543
-0.18070000000000008,-1.0764538280673064
-0.1817000000000002,-1.078292952757131
-0.18270000000000008,-1.0814053176168341
-0.1837000000000002,-1.0881959318561862
-0.1847000000000001,-1.0961183151354303
-0.1857000000000002,-1.106587178754432
-0.1867000000000001,-1.1074360055343508
-0.1877000000000002,-1.1126704373438514
-0.1887000000000001,-1.1203098783631227
-0.1897000000000002,-1.1282322616423668
-0.1907000000000001,-1.1388425963913547
-0.1917000000000001,-1.1433696725509228
-0.19269999999999998,-1.1477552775805042
-0.1937000000000001,-1.1556776608597483
-0.19469999999999998,-1.1641659286589385
-0.1957000000000001,-1.1737859654980207
-0.19669999999999999,-1.1832645312071168
-0.1977000000000001,-1.1852451270269277
-0.1987,-1.19486516386601
-0.1997000000000001,-1.2056169697449843
-0.2007,-1.2148125931941072
-0.2017000000000001,-1.2265546969829868
-0.2027,-1.22966706184269
-0.2037000000000001,-1.2388626852918128
-0.2047,-1.2523024426405305
-0.2057000000000001,-1.2626298351295453
-0.2067,-1.2750792945683578
-0.2077000000000001,-1.2791819573379661
-0.2087,-1.2879531673971292
-0.2097000000000001,-1.3052126452554829
-0.2107,-1.3141253264446326
-0.2117000000000001,-1.3286968528332426
-0.2127,-1.3370436495024463
-0.2137000000000001,-1.3466636863415284
-0.2147,-1.367601413579531
-0.2157000000000001,-1.3845779491779113
-0.2167,-1.3920759190671963
-0.21770000000000012,-1.4019788981662513
-0.2187,-1.4138624730851177
-0.21970000000000012,-1.4302731241635522
-0.2207,-1.4472496597619326
-0.22170000000000012,-1.459982061460718
-0.2227,-1.4755438857592333
-0.22370000000000012,-1.4896909987578837
-0.2247,-1.506667534356264
-0.22570000000000012,-1.5264734925543744
-0.2267,-1.54203531685289
-0.22770000000000012,-1.5561824298515403
-0.22870000000000001,-1.5745736767497858
-0.22970000000000013,-1.5943796349478963
-0.23070000000000002,-1.6184297270456018
-0.23170000000000013,-1.6339915513441174
-0.23270000000000002,-1.6509680869424979
-0.23370000000000013,-1.6721887564404734
-0.23470000000000002,-1.693409425938449
-0.23570000000000013,-1.7202889406358846
-0.23670000000000002,-1.7415096101338603
-0.2376999999999999,-1.7584861457322407
-0.23870000000000002,-1.7825362378299463
-0.2396999999999999,-1.8080010412275167
-0.24070000000000003,-1.8377099785246829
-0.24169999999999991,-1.8631747819222533
-0.24270000000000003,-1.882980740120364
-0.24369999999999992,-1.9112749661176645
-0.24470000000000003,-1.9409839034148304
-0.24569999999999992,-1.972107552011861
-0.24670000000000003,-2.001816489309027
-0.24769999999999992,-2.0272812927065975
-0.24870000000000003,-2.0569902300037635
-0.24969999999999992,-2.0966021463999844
-0.25070000000000003,-2.12631108369715
-0.2516999999999999,-2.1602641548939108
-0.25270000000000004,-2.192802514790807
-0.2536999999999999,-2.226755585987568
-0.25470000000000004,-2.2691969249835187
-0.2556999999999999,-2.307394130079875
-0.25670000000000004,-2.3441766238763657
-0.25769999999999993,-2.383788540272587
-0.25870000000000004,-2.420571034069078
-0.25969999999999993,-2.465841795664759
-0.26070000000000004,-2.5139419798601703
-0.26169999999999993,-2.5563833188561214
-0.26270000000000004,-2.600239369151937
-0.26369999999999993,-2.6455101307476188
-0.26470000000000005,-2.69643973754276
-0.26569999999999994,-2.7530281895373614
-0.26670000000000005,-2.8067872189322327
-0.26769999999999994,-2.852057980527914
-0.26870000000000005,-2.9044022986229203
-0.26969999999999994,-2.9609907506175217
-0.27070000000000005,-3.0232380478115832
-0.27169999999999994,-3.082655922405915
-0.27270000000000005,-3.1378296631006513
-0.27369999999999994,-3.202906382894443
-0.27470000000000006,-3.265153680088505
-0.27569999999999995,-3.335889245081757
-0.27670000000000006,-3.403795387475278
-0.27769999999999995,-3.4674573959692045
-0.27870000000000006,-3.541022383562187
-0.27969999999999995,-3.6131726598553033
-0.28070000000000006,-3.695225915247476
-0.28169999999999995,-3.7730350367400525
-0.28270000000000006,-3.8480147356329
-0.28369999999999995,-3.9300679910250715
-0.28470000000000006,-4.017780091616704
-0.28569999999999995,-4.106906903508202
-0.28670000000000007,-4.197448426699564
-0.28769999999999996,-4.285160527291196
-0.28870000000000007,-4.379946184382153
-0.28969999999999996,-4.478975975372705
-0.29070000000000007,-4.582249900262854
-0.29169999999999996,-4.685523825153001
-0.29270000000000007,-4.791627172642879
-0.29369999999999996,-4.8977305201327574
-0.2947000000000001,-5.01373684672169
-0.29569999999999996,-5.133987307210218
-0.2967000000000001,-5.254237767698746
-0.29769999999999996,-5.39287947508552
-0.2987000000000001,-5.504641667774858
-0.29969999999999997,-5.636209818662306
-0.3007000000000001,-5.77485152604908
-0.30169999999999997,-5.913493233435854
-0.3027000000000001,-6.0592084973219515
-0.30369999999999997,-6.206338472507916
-0.3047000000000001,-6.361956715493069
-0.30569999999999997,-6.5317220714768744
-0.3067000000000001,-6.691584448361623
-0.3077,-6.864179226945158
-0.3087000000000001,-7.041018139428288
-0.3097,-7.229174742310337
-0.3107000000000001,-7.427234324291442
-0.3117,-7.628123328872277
-0.3127000000000001,-7.837500601252304
-0.3137,-8.056780852731386
-0.3147000000000001,-8.288793505909249
-0.3157,-8.534953272085767
-0.3167000000000001,-8.79384543996107
-0.3177,-9.059811164335693
-0.3187000000000001,-9.346997558208297
-0.3197,-9.65398991027901
-0.3207000000000001,-9.977958797948103
-0.3217,-10.317489509915713
-0.3227000000000001,-10.662679067082781
-0.3237,-11.022015737248502
-0.3247000000000001,-11.395499520412871
-0.3257,-11.77747157137643
-0.3267000000000001,-12.16510246753945
-0.3277,-12.549903941102741
-0.3287000000000001,-12.938949548565626
-0.3297,-13.346386402926754
-0.3307000000000001,-13.743920278188831
-0.3317,-14.147112998650368
-0.3327000000000001,-14.557379275611227
-0.3337,-14.953498439573437
-0.3347000000000001,-15.363764716534297
-0.3357,-15.78817810649381
-0.3367000000000001,-16.19844438345467
-0.3377,-16.60871066041553
-0.3387000000000001,-17.018976937376394
-0.3397,-17.4433903273359
-0.3407000000000001,-17.867803717295413
-0.3417,-18.292217107254928
-0.3427000000000001,-18.716630497214435
-0.3437,-19.141043887173947
-0.3447000000000001,-19.579604390132108
-0.3457,-20.01816489309027
-0.3467000000000001,-20.456725396048434
-0.3477,-20.89528589900659
-0.3487000000000001,-21.333846401964752
-0.3497,-21.786554017921564
-0.3507000000000001,-22.239261633878378
-0.3517,-22.706116362833843
-0.3527000000000001,-23.15882397879065
-0.3537,-23.61153159474746
-0.3547000000000001,-24.00765075870967
-0.3557,-24.389622809673234
-0.35670000000000013,-24.828183312631392
-0.3577,-25.295038041586857
-0.35870000000000013,-25.73359854454502
-0.3597,-26.18630616050183
-0.36070000000000013,-26.61071955046134
-0.3617,-27.049280053419505
-0.3626999999999999,-27.501987669376312
-0.3637,-27.954695285333123
-0.3646999999999999,-28.421550014288584
-0.3657,-28.9025518562427
-0.3666999999999999,-29.39770081119546
-0.3677,-29.906996879146874
-0.3686999999999999,-30.416292947098288
-0.36970000000000003,-30.939736128048356
-0.3706999999999999,-31.434885083001117
-0.37170000000000003,-31.930034037953877
-0.3726999999999999,-32.439330105905285
-0.37370000000000003,-32.9486261738567
-0.3746999999999999,-33.50036358080407
-0.37570000000000003,-34.03795387475279
-0.3766999999999999,-34.58969128170015
-0.37770000000000004,-35.15557580164616
-0.3786999999999999,-35.707313208593526
-0.37970000000000004,-36.28734484153819
-0.3806999999999999,-36.86737647448285
-0.38170000000000004,-37.46155522042617
-0.38269999999999993,-38.05573396636949
-0.38370000000000004,-38.63576559931415
-0.38469999999999993,-39.244091458256115
-0.38570000000000004,-39.85241731719808
-0.38669999999999993,-40.43244895014274
-0.38770000000000004,-40.99833347008877
-0.38869999999999993,-41.56421799003478
-0.38970000000000005,-42.158396735978094
-0.39069999999999994,-42.766722594920054
-0.39170000000000005,-43.36090134086337
-0.39269999999999994,-43.95508008680669
-0.39370000000000005,-44.591700171745956
-0.39469999999999994,-45.25661448268253
-0.39570000000000005,-45.93567590661774
-0.39669999999999994,-46.544001765559706
-0.39770000000000005,-47.053297833511124
-0.39869999999999994,-47.56259390146253
-0.39970000000000006,-48.1426255344072
-0.40069999999999995,-48.77924561934647
-0.40170000000000006,-49.41586570428573
-0.40269999999999995,-50.0807800152223
-0.40370000000000006,-50.71740010016157
-0.40469999999999995,-51.31157884610488
-0.40570000000000006,-52.0189344960374
-0.40669999999999995,-52.74043725896857
-0.40770000000000006,-53.362910230909186
-0.40869999999999995,-54.02782454184575
-0.40970000000000006,-54.73518019177827
-0.41069999999999995,-55.400094502714836
-0.41170000000000007,-56.13574437864466
-0.41269999999999996,-56.82895291557852
-0.41370000000000007,-57.550455678509685
-0.41469999999999996,-58.25781132844221
-0.41570000000000007,-58.965166978374725
-0.41669999999999996,-59.68666974130589
-0.41770000000000007,-60.37987827823977
-0.41869999999999996,-61.17211660616418
-0.4197000000000001,-61.95020782108996
-0.42069999999999996,-62.68585769701977
-0.4217000000000001,-63.44980179894689
-0.42269999999999996,-64.213745900874
-0.4237000000000001,-64.9352486638052
-0.42469999999999997,-65.71333987873095
-0.4257000000000001,-66.49143109365673
-0.42669999999999997,-67.3826992125717
-0.4277000000000001,-68.16079042749746
-0.42869999999999997,-68.85399896443133
-0.4297000000000001,-69.4906190493706
-0.43069999999999997,-70.14138624730852
-0.4317000000000001,-70.76385921924914
-0.4327,-71.42877353018571
-0.4337000000000001,-72.06539361512496
-0.4347,-72.51810123108179
-0.4357000000000001,-73.15472131602105
-0.4367,-74.03184232193736
-0.4377000000000001,-75.02214023184291
-0.4387,-75.91340835075786
-0.4397000000000001,-76.8754120346661
-0.4407,-77.82326860557566
-0.4417000000000001,-78.74283095048794
-0.4427,-79.52092216541372
-0.4437000000000001,-80.44048451032599
-0.4447,-81.38834108123557
-0.4457000000000001,-82.27960920015053
-0.4467,-83.12843598006955
-0.4477000000000001,-83.92067430799398
-0.4487,-84.72705974891704
-0.4497000000000001,-85.53344518984011
-0.4507,-86.42471330875509
-0.4517000000000001,-87.0471862806957
-0.4527,-87.89601306061473
-0.4537000000000001,-88.6458100495432
-0.4547,-89.43804837746762
-0.4557000000000001,-90.24443381839069
-0.4567,-90.81031833833671
-0.4577000000000001,-91.54596821426652
-0.4587,-92.28161809019635
-0.4597000000000001,-93.05970930512211
-0.4607,-93.85194763304654
-0.4617000000000001,-94.64418596097094
-0.4627,-95.29495315890887
-0.4637000000000001,-96.21451550382113
-0.4647,-97.4877556736997
-0.4657000000000001,-98.33658245361869
-0.4667,-99.22785057253368
-0.4677000000000001,-100.3313253864284
-0.4687,-101.26503484433933
-0.4697000000000001,-102.08556739826105
-0.4707,-102.73633459619896
-0.4717000000000001,-103.45783735913014
-0.4727,-104.13689878306535
-0.4737000000000001,-104.84425443299787
-0.4747,-105.67893409991824
-0.4757000000000001,-106.55605510583456
-0.4767,-107.53220590274144
-0.4777000000000001,-108.2537086656726
-0.4787,-109.04594699359701
-0.4797000000000001,-109.86647954751875
-0.4807,-110.80018900542967
-0.48170000000000013,-111.57828022035544
-0.4827,-112.31393009628526
-0.48370000000000013,-113.17690398920294
-0.4847,-113.84181830013951
-0.48570000000000013,-114.54917395007203
-0.4867,-115.04432290502479
-0.48570000000000013,-114.0115836561233
-0.4847,-112.69590214724884
-0.48370000000000013,-111.42266197737027
-0.4827,-110.64457076244452
-0.48170000000000013,-109.59768440054441
-0.4807,-108.48006247365102
-0.4797000000000001,-107.36244054675764
-0.4787,-106.3721426368521
-0.4777000000000001,-105.24037359696008
-0.4767,-104.09445744406939
-0.4757000000000001,-102.99098263017467
-0.4747,-102.09971451125969
-0.4737000000000001,-101.08112237535688
-0.4727,-100.21814848243919
-0.4717000000000001,-99.31273325052557
-0.4707,-98.5063478096025
-0.4697000000000001,-97.60093257768887
-0.4687,-96.5398991027901
-0.4677000000000001,-95.66277809687378
