Apr. 26, 2025   10:08:19
Cyclic Voltammetry
File: c:/users/guazh/data/banditlqround7_x0exp590_r20/2025-04-16-exp1194\exp1194-2025-04-26t09_50_58-arkoh\exp1194_cv_50mvs_efin_-1900mv.bin
Data Source:  Experiment
Instrument Model:  CHI760E
Header: CV ran at 50 mVs
Note: 

Init E (V) = -1
High E (V) = -1
Low E (V) = -1.9
Final E (V) = -1
Init P/N = N
Scan Rate (V/s) = 0.05
Segment = 7
Sample Interval (V) = 0.001
Quiet Time (sec) = 60
Sensitivity (A/V) = 0.001
Comp R (ohm) = 1.7

Results:

Channel 1:
Segment 1:
Ep = -1.210V
ip = 3.979e-6A
Ah = 5.485e-6C

Segment 2:

Segment 3:

Segment 4:

Segment 5:

Segment 6:

Segment 7:

Potential/V, Current/A

-1.000, 3.787e-7
-1.001, 4.329e-7
-1.002, 4.724e-7
-1.003, 5.266e-7
-1.004, 5.592e-7
-1.005, 6.036e-7
-1.006, 5.710e-7
-1.007, 5.671e-7
-1.008, 5.710e-7
-1.009, 6.006e-7
-1.010, 6.884e-7
-1.011, 6.480e-7
-1.012, 6.766e-7
-1.013, 6.549e-7
-1.014, 6.904e-7
-1.015, 7.713e-7
-1.016, 7.220e-7
-1.017, 6.954e-7
-1.018, 7.358e-7
-1.019, 7.841e-7
-1.020, 8.266e-7
-1.021, 8.078e-7
-1.022, 7.703e-7
-1.023, 8.068e-7
-1.024, 8.650e-7
-1.025, 8.848e-7
-1.026, 8.749e-7
-1.027, 8.621e-7
-1.028, 8.522e-7
-1.029, 9.144e-7
-1.030, 9.509e-7
-1.031, 9.430e-7
-1.032, 8.956e-7
-1.033, 9.282e-7
-1.034, 9.785e-7
-1.035, 1.000e-6
-1.036, 9.864e-7
-1.037, 9.598e-7
-1.038, 9.923e-7
-1.039, 1.045e-6
-1.040, 1.068e-6
-1.041, 1.060e-6
-1.042, 1.049e-6
-1.043, 1.079e-6
-1.044, 1.098e-6
-1.045, 1.155e-6
-1.046, 1.146e-6
-1.047, 1.126e-6
-1.048, 1.128e-6
-1.049, 1.175e-6
-1.050, 1.267e-6
-1.051, 1.218e-6
-1.052, 1.205e-6
-1.053, 1.202e-6
-1.054, 1.254e-6
-1.055, 1.332e-6
-1.056, 1.278e-6
-1.057, 1.252e-6
-1.058, 1.301e-6
-1.059, 1.362e-6
-1.060, 1.397e-6
-1.061, 1.372e-6
-1.062, 1.337e-6
-1.063, 1.406e-6
-1.064, 1.449e-6
-1.065, 1.497e-6
-1.066, 1.443e-6
-1.067, 1.459e-6
-1.068, 1.494e-6
-1.069, 1.536e-6
-1.070, 1.580e-6
-1.071, 1.590e-6
-1.072, 1.543e-6
-1.073, 1.598e-6
-1.074, 1.660e-6
-1.075, 1.678e-6
-1.076, 1.703e-6
-1.077, 1.674e-6
-1.078, 1.680e-6
-1.079, 1.765e-6
-1.080, 1.819e-6
-1.081, 1.817e-6
-1.082, 1.807e-6
-1.083, 1.810e-6
-1.084, 1.922e-6
-1.085, 1.919e-6
-1.086, 1.938e-6
-1.087, 1.916e-6
-1.088, 1.953e-6
-1.089, 2.036e-6
-1.090, 2.071e-6
-1.091, 2.094e-6
-1.092, 2.081e-6
-1.093, 2.151e-6
-1.094, 2.169e-6
-1.095, 2.215e-6
-1.096, 2.241e-6
-1.097, 2.216e-6
-1.098, 2.277e-6
-1.099, 2.314e-6
-1.100, 2.395e-6
-1.101, 2.429e-6
-1.102, 2.388e-6
-1.103, 2.466e-6
-1.104, 2.515e-6
-1.105, 2.586e-6
-1.106, 2.588e-6
-1.107, 2.579e-6
-1.108, 2.611e-6
-1.109, 2.696e-6
-1.110, 2.783e-6
-1.111, 2.794e-6
-1.112, 2.773e-6
-1.113, 2.846e-6
-1.114, 2.897e-6
-1.115, 2.963e-6
-1.116, 2.965e-6
-1.117, 2.988e-6
-1.118, 3.037e-6
-1.119, 3.133e-6
-1.120, 3.181e-6
-1.121, 3.228e-6
-1.122, 3.258e-6
-1.123, 3.284e-6
-1.124, 3.380e-6
-1.125, 3.428e-6
-1.126, 3.472e-6
-1.127, 3.483e-6
-1.128, 3.515e-6
-1.129, 3.628e-6
-1.130, 3.670e-6
-1.131, 3.696e-6
-1.132, 3.723e-6
-1.133, 3.767e-6
-1.134, 3.857e-6
-1.135, 3.926e-6
-1.136, 3.973e-6
-1.137, 3.994e-6
-1.138, 4.034e-6
-1.139, 4.121e-6
-1.140, 4.201e-6
-1.141, 4.221e-6
-1.142, 4.245e-6
-1.143, 4.305e-6
-1.144, 4.366e-6
-1.145, 4.480e-6
-1.146, 4.499e-6
-1.147, 4.531e-6
-1.148, 4.614e-6
-1.149, 4.671e-6
-1.150, 4.739e-6
-1.151, 4.769e-6
-1.152, 4.811e-6
-1.153, 4.861e-6
-1.154, 4.937e-6
-1.155, 5.044e-6
-1.156, 5.072e-6
-1.157, 5.088e-6
-1.158, 5.136e-6
-1.159, 5.210e-6
-1.160, 5.313e-6
-1.161, 5.314e-6
-1.162, 5.339e-6
-1.163, 5.399e-6
-1.164, 5.505e-6
-1.165, 5.620e-6
-1.166, 5.605e-6
-1.167, 5.643e-6
-1.168, 5.682e-6
-1.169, 5.756e-6
-1.170, 5.840e-6
-1.171, 5.837e-6
-1.172, 5.905e-6
-1.173, 5.929e-6
-1.174, 6.036e-6
-1.175, 6.098e-6
-1.176, 6.124e-6
-1.177, 6.158e-6
-1.178, 6.178e-6
-1.179, 6.279e-6
-1.180, 6.349e-6
-1.181, 6.402e-6
-1.182, 6.403e-6
-1.183, 6.415e-6
-1.184, 6.565e-6
-1.185, 6.602e-6
-1.186, 6.642e-6
-1.187, 6.622e-6
-1.188, 6.626e-6
-1.189, 6.738e-6
-1.190, 6.795e-6
-1.191, 6.817e-6
-1.192, 6.814e-6
-1.193, 6.832e-6
-1.194, 6.909e-6
-1.195, 7.002e-6
-1.196, 7.016e-6
-1.197, 7.007e-6
-1.198, 7.014e-6
-1.199, 7.069e-6
-1.200, 7.115e-6
-1.201, 7.141e-6
-1.202, 7.097e-6
-1.203, 7.128e-6
-1.204, 7.177e-6
-1.205, 7.236e-6
-1.206, 7.207e-6
-1.207, 7.201e-6
-1.208, 7.127e-6
-1.209, 7.216e-6
-1.210, 7.264e-6
-1.211, 7.209e-6
-1.212, 7.179e-6
-1.213, 7.156e-6
-1.214, 7.190e-6
-1.215, 7.212e-6
-1.216, 7.191e-6
-1.217, 7.121e-6
-1.218, 7.069e-6
-1.219, 7.093e-6
-1.220, 7.077e-6
-1.221, 7.037e-6
-1.222, 6.964e-6
-1.223, 6.926e-6
-1.224, 6.941e-6
-1.225, 6.919e-6
-1.226, 6.856e-6
-1.227, 6.754e-6
-1.228, 6.684e-6
-1.229, 6.689e-6
-1.230, 6.641e-6
-1.231, 6.608e-6
-1.232, 6.486e-6
-1.233, 6.416e-6
-1.234, 6.410e-6
-1.235, 6.366e-6
-1.236, 6.294e-6
-1.237, 6.150e-6
-1.238, 6.106e-6
-1.239, 6.080e-6
-1.240, 6.025e-6
-1.241, 5.973e-6
-1.242, 5.868e-6
-1.243, 5.797e-6
-1.244, 5.796e-6
-1.245, 5.743e-6
-1.246, 5.662e-6
-1.247, 5.541e-6
-1.248, 5.467e-6
-1.249, 5.450e-6
-1.250, 5.433e-6
-1.251, 5.321e-6
-1.252, 5.252e-6
-1.253, 5.190e-6
-1.254, 5.152e-6
-1.255, 5.177e-6
-1.256, 5.033e-6
-1.257, 4.966e-6
-1.258, 4.898e-6
-1.259, 4.881e-6
-1.260, 4.869e-6
-1.261, 4.805e-6
-1.262, 4.699e-6
-1.263, 4.660e-6
-1.264, 4.630e-6
-1.265, 4.592e-6
-1.266, 4.524e-6
-1.267, 4.447e-6
-1.268, 4.380e-6
-1.269, 4.381e-6
-1.270, 4.353e-6
-1.271, 4.291e-6
-1.272, 4.224e-6
-1.273, 4.170e-6
-1.274, 4.201e-6
-1.275, 4.156e-6
-1.276, 4.074e-6
-1.277, 4.004e-6
-1.278, 3.964e-6
-1.279, 3.956e-6
-1.280, 3.951e-6
-1.281, 3.899e-6
-1.282, 3.824e-6
-1.283, 3.772e-6
-1.284, 3.757e-6
-1.285, 3.788e-6
-1.286, 3.720e-6
-1.287, 3.651e-6
-1.288, 3.614e-6
-1.289, 3.624e-6
-1.290, 3.651e-6
-1.291, 3.605e-6
-1.292, 3.505e-6
-1.293, 3.464e-6
-1.294, 3.479e-6
-1.295, 3.498e-6
-1.296, 3.424e-6
-1.297, 3.391e-6
-1.298, 3.350e-6
-1.299, 3.364e-6
-1.300, 3.395e-6
-1.301, 3.333e-6
-1.302, 3.314e-6
-1.303, 3.266e-6
-1.304, 3.280e-6
-1.305, 3.284e-6
-1.306, 3.245e-6
-1.307, 3.217e-6
-1.308, 3.164e-6
-1.309, 3.162e-6
-1.310, 3.214e-6
-1.311, 3.154e-6
-1.312, 3.134e-6
-1.313, 3.093e-6
-1.314, 3.134e-6
-1.315, 3.183e-6
-1.316, 3.146e-6
-1.317, 3.096e-6
-1.318, 3.069e-6
-1.319, 3.119e-6
-1.320, 3.160e-6
-1.321, 3.121e-6
-1.322, 3.097e-6
-1.323, 3.041e-6
-1.324, 3.102e-6
-1.325, 3.150e-6
-1.326, 3.122e-6
-1.327, 3.092e-6
-1.328, 3.072e-6
-1.329, 3.115e-6
-1.330, 3.146e-6
-1.331, 3.136e-6
-1.332, 3.105e-6
-1.333, 3.120e-6
-1.334, 3.210e-6
-1.335, 3.188e-6
-1.336, 3.230e-6
-1.337, 3.168e-6
-1.338, 3.125e-6
-1.339, 3.171e-6
-1.340, 3.238e-6
-1.341, 3.247e-6
-1.342, 3.215e-6
-1.343, 3.211e-6
-1.344, 3.273e-6
-1.345, 3.306e-6
-1.346, 3.303e-6
-1.347, 3.270e-6
-1.348, 3.239e-6
-1.349, 3.305e-6
-1.350, 3.346e-6
-1.351, 3.347e-6
-1.352, 3.342e-6
-1.353, 3.325e-6
-1.354, 3.376e-6
-1.355, 3.440e-6
-1.356, 3.475e-6
-1.357, 3.404e-6
-1.358, 3.387e-6
-1.359, 3.414e-6
-1.360, 3.520e-6
-1.361, 3.505e-6
-1.362, 3.519e-6
-1.363, 3.504e-6
-1.364, 3.544e-6
-1.365, 3.550e-6
-1.366, 3.571e-6
-1.367, 3.531e-6
-1.368, 3.491e-6
-1.369, 3.571e-6
-1.370, 3.600e-6
-1.371, 3.617e-6
-1.372, 3.609e-6
-1.373, 3.582e-6
-1.374, 3.637e-6
-1.375, 3.653e-6
-1.376, 3.694e-6
-1.377, 3.658e-6
-1.378, 3.651e-6
-1.379, 3.710e-6
-1.380, 3.736e-6
-1.381, 3.732e-6
-1.382, 3.716e-6
-1.383, 3.703e-6
-1.384, 3.761e-6
-1.385, 3.784e-6
-1.386, 3.796e-6
-1.387, 3.739e-6
-1.388, 3.756e-6
-1.389, 3.813e-6
-1.390, 3.805e-6
-1.391, 3.828e-6
-1.392, 3.804e-6
-1.393, 3.847e-6
-1.394, 3.909e-6
-1.395, 3.911e-6
-1.396, 3.953e-6
-1.397, 3.906e-6
-1.398, 3.904e-6
-1.399, 3.991e-6
-1.400, 4.070e-6
-1.401, 4.070e-6
-1.402, 3.996e-6
-1.403, 4.028e-6
-1.404, 4.008e-6
-1.405, 4.125e-6
-1.406, 4.100e-6
-1.407, 4.084e-6
-1.408, 4.083e-6
-1.409, 4.128e-6
-1.410, 4.218e-6
-1.411, 4.229e-6
-1.412, 4.194e-6
-1.413, 4.193e-6
-1.414, 4.220e-6
-1.415, 4.300e-6
-1.416, 4.296e-6
-1.417, 4.271e-6
-1.418, 4.226e-6
-1.419, 4.289e-6
-1.420, 4.368e-6
-1.421, 4.355e-6
-1.422, 4.315e-6
-1.423, 4.320e-6
-1.424, 4.365e-6
-1.425, 4.408e-6
-1.426, 4.430e-6
-1.427, 4.376e-6
-1.428, 4.363e-6
-1.429, 4.452e-6
-1.430, 4.487e-6
-1.431, 4.492e-6
-1.432, 4.504e-6
-1.433, 4.584e-6
-1.434, 4.573e-6
-1.435, 4.618e-6
-1.436, 4.635e-6
-1.437, 4.597e-6
-1.438, 4.596e-6
-1.439, 4.693e-6
-1.440, 4.710e-6
-1.441, 4.721e-6
-1.442, 4.744e-6
-1.443, 4.797e-6
-1.444, 4.806e-6
-1.445, 4.820e-6
-1.446, 4.826e-6
-1.447, 4.857e-6
-1.448, 4.856e-6
-1.449, 4.900e-6
-1.450, 4.992e-6
-1.451, 4.985e-6
-1.452, 5.045e-6
-1.453, 5.057e-6
-1.454, 5.106e-6
-1.455, 5.135e-6
-1.456, 5.048e-6
-1.457, 5.074e-6
-1.458, 5.060e-6
-1.459, 5.080e-6
-1.460, 5.157e-6
-1.461, 5.145e-6
-1.462, 5.165e-6
-1.463, 5.096e-6
-1.464, 5.159e-6
-1.465, 5.264e-6
-1.466, 5.264e-6
-1.467, 5.272e-6
-1.468, 5.278e-6
-1.469, 5.416e-6
-1.470, 5.467e-6
-1.471, 5.490e-6
-1.472, 5.552e-6
-1.473, 5.567e-6
-1.474, 5.651e-6
-1.475, 5.703e-6
-1.476, 5.733e-6
-1.477, 5.774e-6
-1.478, 5.741e-6
-1.479, 5.791e-6
-1.480, 5.852e-6
-1.481, 5.876e-6
-1.482, 5.833e-6
-1.483, 5.871e-6
-1.484, 5.910e-6
-1.485, 5.994e-6
-1.486, 6.003e-6
-1.487, 5.964e-6
-1.488, 5.923e-6
-1.489, 5.988e-6
-1.490, 6.051e-6
-1.491, 6.134e-6
-1.492, 6.158e-6
-1.493, 6.341e-6
-1.494, 6.396e-6
-1.495, 6.472e-6
-1.496, 6.447e-6
-1.497, 6.393e-6
-1.498, 6.394e-6
-1.499, 6.382e-6
-1.500, 6.465e-6
-1.501, 6.445e-6
-1.502, 6.458e-6
-1.503, 6.501e-6
-1.504, 6.588e-6
-1.505, 6.795e-6
-1.506, 6.897e-6
-1.507, 6.854e-6
-1.508, 6.808e-6
-1.509, 6.733e-6
-1.510, 6.759e-6
-1.511, 6.782e-6
-1.512, 6.803e-6
-1.513, 6.792e-6
-1.514, 6.907e-6
-1.515, 6.991e-6
-1.516, 7.002e-6
-1.517, 6.974e-6
-1.518, 7.000e-6
-1.519, 7.137e-6
-1.520, 7.198e-6
-1.521, 7.218e-6
-1.522, 7.252e-6
-1.523, 7.326e-6
-1.524, 7.428e-6
-1.525, 7.560e-6
-1.526, 7.630e-6
-1.527, 7.650e-6
-1.528, 7.719e-6
-1.529, 7.804e-6
-1.530, 7.953e-6
-1.531, 8.037e-6
-1.532, 8.079e-6
-1.533, 8.095e-6
-1.534, 8.224e-6
-1.535, 8.380e-6
-1.536, 8.452e-6
-1.537, 8.516e-6
-1.538, 8.577e-6
-1.539, 8.754e-6
-1.540, 8.889e-6
-1.541, 8.958e-6
-1.542, 9.040e-6
-1.543, 9.113e-6
-1.544, 9.278e-6
-1.545, 9.449e-6
-1.546, 9.601e-6
-1.547, 9.642e-6
-1.548, 9.754e-6
-1.549, 9.954e-6
-1.550, 1.012e-5
-1.551, 1.021e-5
-1.552, 1.032e-5
-1.553, 1.046e-5
-1.554, 1.066e-5
-1.555, 1.083e-5
-1.556, 1.096e-5
-1.557, 1.111e-5
-1.558, 1.123e-5
-1.559, 1.141e-5
-1.560, 1.166e-5
-1.561, 1.174e-5
-1.562, 1.193e-5
-1.563, 1.205e-5
-1.564, 1.227e-5
-1.565, 1.254e-5
-1.566, 1.271e-5
-1.567, 1.289e-5
-1.568, 1.303e-5
-1.569, 1.331e-5
-1.570, 1.352e-5
-1.571, 1.375e-5
-1.572, 1.397e-5
-1.573, 1.414e-5
-1.574, 1.446e-5
-1.575, 1.470e-5
-1.576, 1.493e-5
-1.577, 1.515e-5
-1.578, 1.543e-5
-1.579, 1.568e-5
-1.580, 1.607e-5
-1.581, 1.634e-5
-1.582, 1.657e-5
-1.583, 1.689e-5
-1.584, 1.719e-5
-1.585, 1.757e-5
-1.586, 1.787e-5
-1.587, 1.825e-5
-1.588, 1.855e-5
-1.589, 1.894e-5
-1.590, 1.936e-5
-1.591, 1.975e-5
-1.592, 2.018e-5
-1.593, 2.055e-5
-1.594, 2.098e-5
-1.595, 2.150e-5
-1.596, 2.196e-5
-1.597, 2.240e-5
-1.598, 2.290e-5
-1.599, 2.342e-5
-1.600, 2.406e-5
-1.601, 2.464e-5
-1.602, 2.520e-5
-1.603, 2.574e-5
-1.604, 2.641e-5
-1.605, 2.712e-5
-1.606, 2.778e-5
-1.607, 2.843e-5
-1.608, 2.911e-5
-1.609, 2.989e-5
-1.610, 3.073e-5
-1.611, 3.145e-5
-1.612, 3.226e-5
-1.613, 3.308e-5
-1.614, 3.395e-5
-1.615, 3.488e-5
-1.616, 3.578e-5
-1.617, 3.670e-5
-1.618, 3.755e-5
-1.619, 3.854e-5
-1.620, 3.960e-5
-1.621, 4.056e-5
-1.622, 4.158e-5
-1.623, 4.256e-5
-1.624, 4.359e-5
-1.625, 4.471e-5
-1.626, 4.580e-5
-1.627, 4.683e-5
-1.628, 4.788e-5
-1.629, 4.895e-5
-1.630, 5.014e-5
-1.631, 5.126e-5
-1.632, 5.234e-5
-1.633, 5.345e-5
-1.634, 5.459e-5
-1.635, 5.587e-5
-1.636, 5.704e-5
-1.637, 5.819e-5
-1.638, 5.940e-5
-1.639, 6.068e-5
-1.640, 6.202e-5
-1.641, 6.328e-5
-1.642, 6.448e-5
-1.643, 6.574e-5
-1.644, 6.704e-5
-1.645, 6.846e-5
-1.646, 6.973e-5
-1.647, 7.107e-5
-1.648, 7.237e-5
-1.649, 7.381e-5
-1.650, 7.527e-5
-1.651, 7.671e-5
-1.652, 7.814e-5
-1.653, 7.956e-5
-1.654, 8.104e-5
-1.655, 8.266e-5
-1.656, 8.415e-5
-1.657, 8.566e-5
-1.658, 8.713e-5
-1.659, 8.875e-5
-1.660, 9.042e-5
-1.661, 9.199e-5
-1.662, 9.356e-5
-1.663, 9.520e-5
-1.664, 9.684e-5
-1.665, 9.853e-5
-1.666, 1.003e-4
-1.667, 1.020e-4
-1.668, 1.036e-4
-1.669, 1.053e-4
-1.670, 1.072e-4
-1.671, 1.090e-4
-1.672, 1.107e-4
-1.673, 1.124e-4
-1.674, 1.143e-4
-1.675, 1.162e-4
-1.676, 1.181e-4
-1.677, 1.199e-4
-1.678, 1.217e-4
-1.679, 1.237e-4
-1.680, 1.257e-4
-1.681, 1.277e-4
-1.682, 1.295e-4
-1.683, 1.315e-4
-1.684, 1.335e-4
-1.685, 1.355e-4
-1.686, 1.376e-4
-1.687, 1.397e-4
-1.688, 1.417e-4
-1.689, 1.437e-4
-1.690, 1.460e-4
-1.691, 1.482e-4
-1.692, 1.504e-4
-1.693, 1.526e-4
-1.694, 1.548e-4
-1.695, 1.571e-4
-1.696, 1.594e-4
-1.697, 1.617e-4
-1.698, 1.640e-4
-1.699, 1.663e-4
-1.700, 1.689e-4
-1.701, 1.713e-4
-1.702, 1.738e-4
-1.703, 1.763e-4
-1.704, 1.788e-4
-1.705, 1.814e-4
-1.706, 1.839e-4
-1.707, 1.866e-4
-1.708, 1.891e-4
-1.709, 1.918e-4
-1.710, 1.946e-4
-1.711, 1.975e-4
-1.712, 2.003e-4
-1.713, 2.030e-4
-1.714, 2.059e-4
-1.715, 2.089e-4
-1.716, 2.120e-4
-1.717, 2.149e-4
-1.718, 2.179e-4
-1.719, 2.210e-4
-1.720, 2.242e-4
-1.721, 2.275e-4
-1.722, 2.308e-4
-1.723, 2.341e-4
-1.724, 2.375e-4
-1.725, 2.410e-4
-1.726, 2.446e-4
-1.727, 2.481e-4
-1.728, 2.516e-4
-1.729, 2.554e-4
-1.730, 2.592e-4
-1.731, 2.631e-4
-1.732, 2.670e-4
-1.733, 2.709e-4
-1.734, 2.749e-4
-1.735, 2.791e-4
-1.736, 2.833e-4
-1.737, 2.876e-4
-1.738, 2.919e-4
-1.739, 2.964e-4
-1.740, 3.011e-4
-1.741, 3.058e-4
-1.742, 3.105e-4
-1.743, 3.151e-4
-1.744, 3.198e-4
-1.745, 3.248e-4
-1.746, 3.300e-4
-1.747, 3.352e-4
-1.748, 3.405e-4
-1.749, 3.459e-4
-1.750, 3.517e-4
-1.751, 3.574e-4
-1.752, 3.631e-4
-1.753, 3.690e-4
-1.754, 3.750e-4
-1.755, 3.812e-4
-1.756, 3.877e-4
-1.757, 3.941e-4
-1.758, 4.007e-4
-1.759, 4.074e-4
-1.760, 4.144e-4
-1.761, 4.215e-4
-1.762, 4.286e-4
-1.763, 4.356e-4
-1.764, 4.431e-4
-1.765, 4.508e-4
-1.766, 4.589e-4
-1.767, 4.670e-4
-1.768, 4.752e-4
-1.769, 4.839e-4
-1.770, 4.927e-4
-1.771, 5.018e-4
-1.772, 5.109e-4
-1.773, 5.200e-4
-1.774, 5.295e-4
-1.775, 5.391e-4
-1.776, 5.494e-4
-1.777, 5.597e-4
-1.778, 5.701e-4
-1.779, 5.811e-4
-1.780, 5.924e-4
-1.781, 6.037e-4
-1.782, 6.153e-4
-1.783, 6.271e-4
-1.784, 6.393e-4
-1.785, 6.519e-4
-1.786, 6.648e-4
-1.787, 6.779e-4
-1.788, 6.914e-4
-1.789, 7.051e-4
-1.790, 7.198e-4
-1.791, 7.343e-4
-1.792, 7.489e-4
-1.793, 7.643e-4
-1.794, 7.803e-4
-1.795, 7.963e-4
-1.796, 8.125e-4
-1.797, 8.296e-4
-1.798, 8.468e-4
-1.799, 8.640e-4
-1.800, 8.822e-4
-1.801, 9.013e-4
-1.802, 9.201e-4
-1.803, 9.395e-4
-1.804, 9.595e-4
-1.805, 9.805e-4
-1.806, 1.002e-3
-1.807, 1.024e-3
-1.808, 1.046e-3
-1.809, 1.068e-3
-1.810, 1.091e-3
-1.811, 1.115e-3
-1.812, 1.140e-3
-1.813, 1.164e-3
-1.814, 1.190e-3
-1.815, 1.217e-3
-1.816, 1.244e-3
-1.817, 1.272e-3
-1.818, 1.299e-3
-1.819, 1.327e-3
-1.820, 1.357e-3
-1.821, 1.387e-3
-1.822, 1.418e-3
-1.823, 1.449e-3
-1.824, 1.481e-3
-1.825, 1.514e-3
-1.826, 1.548e-3
-1.827, 1.582e-3
-1.828, 1.615e-3
-1.829, 1.651e-3
-1.830, 1.687e-3
-1.831, 1.724e-3
-1.832, 1.762e-3
-1.833, 1.800e-3
-1.834, 1.839e-3
-1.835, 1.878e-3
-1.836, 1.920e-3
-1.837, 1.962e-3
-1.838, 2.005e-3
-1.839, 2.047e-3
-1.840, 2.089e-3
-1.841, 2.134e-3
-1.842, 2.182e-3
-1.843, 2.228e-3
-1.844, 2.274e-3
-1.845, 2.323e-3
-1.846, 2.372e-3
-1.847, 2.421e-3
-1.848, 2.470e-3
-1.849, 2.517e-3
-1.850, 2.569e-3
-1.851, 2.623e-3
-1.852, 2.673e-3
-1.853, 2.729e-3
-1.854, 2.782e-3
-1.855, 2.837e-3
-1.856, 2.894e-3
-1.857, 2.949e-3
-1.858, 3.004e-3
-1.859, 3.061e-3
-1.860, 3.120e-3
-1.861, 3.179e-3
-1.862, 3.236e-3
-1.863, 3.299e-3
-1.864, 3.361e-3
-1.865, 3.423e-3
-1.866, 3.481e-3
-1.867, 3.547e-3
-1.868, 3.607e-3
-1.869, 3.676e-3
-1.870, 3.745e-3
-1.871, 3.807e-3
-1.872, 3.872e-3
-1.873, 3.939e-3
-1.874, 4.005e-3
-1.875, 4.075e-3
-1.876, 4.144e-3
-1.877, 4.212e-3
-1.878, 4.274e-3
-1.879, 4.344e-3
-1.880, 4.420e-3
-1.881, 4.483e-3
-1.882, 4.559e-3
-1.883, 4.628e-3
-1.884, 4.703e-3
-1.885, 4.773e-3
-1.886, 4.836e-3
-1.887, 4.913e-3
-1.888, 4.994e-3
-1.889, 5.057e-3
-1.890, 5.136e-3
-1.891, 5.214e-3
-1.892, 5.290e-3
-1.893, 5.360e-3
-1.894, 5.431e-3
-1.895, 5.518e-3
-1.896, 5.574e-3
-1.897, 5.655e-3
-1.898, 5.737e-3
-1.899, 5.811e-3
-1.900, 5.828e-3
-1.899, 5.774e-3
-1.898, 5.736e-3
-1.897, 5.686e-3
-1.896, 5.633e-3
-1.895, 5.571e-3
-1.894, 5.522e-3
-1.893, 5.461e-3
-1.892, 5.410e-3
-1.891, 5.345e-3
-1.890, 5.293e-3
-1.889, 5.241e-3
-1.888, 5.177e-3
-1.887, 5.117e-3
-1.886, 5.070e-3
-1.885, 5.008e-3
-1.884, 4.954e-3
-1.883, 4.899e-3
-1.882, 4.837e-3
-1.881, 4.779e-3
-1.880, 4.728e-3
-1.879, 4.675e-3
-1.878, 4.620e-3
-1.877, 4.563e-3
-1.876, 4.511e-3
-1.875, 4.454e-3
-1.874, 4.395e-3
-1.873, 4.343e-3
-1.872, 4.281e-3
-1.871, 4.223e-3
-1.870, 4.168e-3
-1.869, 4.114e-3
-1.868, 4.056e-3
-1.867, 4.011e-3
-1.866, 3.953e-3
-1.865, 3.898e-3
-1.864, 3.852e-3
-1.863, 3.798e-3
-1.862, 3.747e-3
-1.861, 3.695e-3
-1.860, 3.643e-3
-1.859, 3.597e-3
-1.858, 3.549e-3
-1.857, 3.498e-3
-1.856, 3.441e-3
-1.855, 3.399e-3
-1.854, 3.354e-3
-1.853, 3.310e-3
-1.852, 3.258e-3
-1.851, 3.209e-3
-1.850, 3.167e-3
-1.849, 3.122e-3
-1.848, 3.080e-3
-1.847, 3.036e-3
-1.846, 2.988e-3
-1.845, 2.946e-3
-1.844, 2.901e-3
-1.843, 2.863e-3
-1.842, 2.822e-3
-1.841, 2.779e-3
-1.840, 2.735e-3
-1.839, 2.696e-3
-1.838, 2.659e-3
-1.837, 2.619e-3
-1.836, 2.582e-3
-1.835, 2.543e-3
-1.834, 2.502e-3
-1.833, 2.467e-3
-1.832, 2.430e-3
-1.831, 2.393e-3
-1.830, 2.355e-3
-1.829, 2.318e-3
-1.828, 2.283e-3
-1.827, 2.250e-3
-1.826, 2.213e-3
-1.825, 2.180e-3
-1.824, 2.149e-3
-1.823, 2.115e-3
-1.822, 2.081e-3
-1.821, 2.050e-3
-1.820, 2.015e-3
-1.819, 1.983e-3
-1.818, 1.952e-3
-1.817, 1.922e-3
-1.816, 1.892e-3
-1.815, 1.862e-3
-1.814, 1.832e-3
-1.813, 1.803e-3
-1.812, 1.776e-3
-1.811, 1.747e-3
-1.810, 1.717e-3
-1.809, 1.688e-3
-1.808, 1.662e-3
-1.807, 1.634e-3
-1.806, 1.608e-3
-1.805, 1.582e-3
-1.804, 1.557e-3
-1.803, 1.532e-3
-1.802, 1.508e-3
-1.801, 1.483e-3
-1.800, 1.459e-3
-1.799, 1.435e-3
-1.798, 1.413e-3
-1.797, 1.389e-3
-1.796, 1.368e-3
-1.795, 1.346e-3
-1.794, 1.325e-3
-1.793, 1.303e-3
-1.792, 1.282e-3
-1.791, 1.261e-3
-1.790, 1.240e-3
-1.789, 1.220e-3
-1.788, 1.200e-3
-1.787, 1.180e-3
-1.786, 1.160e-3
-1.785, 1.141e-3
-1.784, 1.123e-3
-1.783, 1.104e-3
-1.782, 1.085e-3
-1.781, 1.067e-3
-1.780, 1.050e-3
-1.779, 1.033e-3
-1.778, 1.016e-3
-1.777, 9.991e-4
-1.776, 9.820e-4
-1.775, 9.658e-4
-1.774, 9.494e-4
-1.773, 9.336e-4
-1.772, 9.180e-4
-1.771, 9.033e-4
-1.770, 8.872e-4
-1.769, 8.728e-4
-1.768, 8.579e-4
-1.767, 8.438e-4
-1.766, 8.297e-4
-1.765, 8.156e-4
-1.764, 8.020e-4
-1.763, 7.880e-4
-1.762, 7.744e-4
-1.761, 7.613e-4
-1.760, 7.485e-4
-1.759, 7.361e-4
-1.758, 7.237e-4
-1.757, 7.117e-4
-1.756, 6.998e-4
-1.755, 6.882e-4
-1.754, 6.766e-4
-1.753, 6.652e-4
-1.752, 6.540e-4
-1.751, 6.427e-4
-1.750, 6.314e-4
-1.749, 6.208e-4
-1.748, 6.105e-4
-1.747, 6.002e-4
-1.746, 5.900e-4
-1.745, 5.801e-4
-1.744, 5.704e-4
-1.743, 5.607e-4
-1.742, 5.511e-4
-1.741, 5.418e-4
-1.740, 5.327e-4
-1.739, 5.236e-4
-1.738, 5.145e-4
-1.737, 5.057e-4
-1.736, 4.971e-4
-1.735, 4.889e-4
-1.734, 4.805e-4
-1.733, 4.720e-4
-1.732, 4.637e-4
-1.731, 4.556e-4
-1.730, 4.477e-4
-1.729, 4.400e-4
-1.728, 4.323e-4
-1.727, 4.248e-4
-1.726, 4.174e-4
-1.725, 4.102e-4
-1.724, 4.034e-4
-1.723, 3.964e-4
-1.722, 3.894e-4
-1.721, 3.824e-4
-1.720, 3.756e-4
-1.719, 3.692e-4
-1.718, 3.627e-4
-1.717, 3.562e-4
-1.716, 3.499e-4
-1.715, 3.438e-4
-1.714, 3.377e-4
-1.713, 3.317e-4
-1.712, 3.258e-4
-1.711, 3.199e-4
-1.710, 3.143e-4
-1.709, 3.087e-4
-1.708, 3.030e-4
-1.707, 2.976e-4
-1.706, 2.922e-4
-1.705, 2.869e-4
-1.704, 2.819e-4
-1.703, 2.769e-4
-1.702, 2.717e-4
-1.701, 2.668e-4
-1.700, 2.619e-4
-1.699, 2.571e-4
-1.698, 2.524e-4
-1.697, 2.476e-4
-1.696, 2.428e-4
-1.695, 2.383e-4
-1.694, 2.339e-4
-1.693, 2.296e-4
-1.692, 2.252e-4
-1.691, 2.210e-4
-1.690, 2.169e-4
-1.689, 2.127e-4
-1.688, 2.087e-4
-1.687, 2.047e-4
-1.686, 2.007e-4
-1.685, 1.969e-4
-1.684, 1.932e-4
-1.683, 1.896e-4
-1.682, 1.858e-4
-1.681, 1.821e-4
-1.680, 1.786e-4
-1.679, 1.753e-4
-1.678, 1.719e-4
-1.677, 1.684e-4
-1.676, 1.651e-4
-1.675, 1.618e-4
-1.674, 1.587e-4
-1.673, 1.554e-4
-1.672, 1.524e-4
-1.671, 1.493e-4
-1.670, 1.463e-4
-1.669, 1.434e-4
-1.668, 1.406e-4
-1.667, 1.377e-4
-1.666, 1.348e-4
-1.665, 1.321e-4
-1.664, 1.294e-4
-1.663, 1.267e-4
-1.662, 1.241e-4
-1.661, 1.215e-4
-1.660, 1.190e-4
-1.659, 1.166e-4
-1.658, 1.141e-4
-1.657, 1.116e-4
-1.656, 1.092e-4
-1.655, 1.069e-4
-1.654, 1.047e-4
-1.653, 1.025e-4
-1.652, 1.003e-4
-1.651, 9.802e-5
-1.650, 9.595e-5
-1.649, 9.392e-5
-1.648, 9.188e-5
-1.647, 8.972e-5
-1.646, 8.771e-5
-1.645, 8.583e-5
-1.644, 8.399e-5
-1.643, 8.206e-5
-1.642, 8.010e-5
-1.641, 7.825e-5
-1.640, 7.645e-5
-1.639, 7.472e-5
-1.638, 7.297e-5
-1.637, 7.127e-5
-1.636, 6.959e-5
-1.635, 6.795e-5
-1.634, 6.644e-5
-1.633, 6.484e-5
-1.632, 6.326e-5
-1.631, 6.176e-5
-1.630, 6.027e-5
-1.629, 5.886e-5
-1.628, 5.745e-5
-1.627, 5.603e-5
-1.626, 5.466e-5
-1.625, 5.331e-5
-1.624, 5.209e-5
-1.623, 5.080e-5
-1.622, 4.950e-5
-1.621, 4.829e-5
-1.620, 4.709e-5
-1.619, 4.598e-5
-1.618, 4.484e-5
-1.617, 4.365e-5
-1.616, 4.252e-5
-1.615, 4.145e-5
-1.614, 4.045e-5
-1.613, 3.936e-5
-1.612, 3.836e-5
-1.611, 3.734e-5
-1.610, 3.643e-5
-1.609, 3.555e-5
-1.608, 3.462e-5
-1.607, 3.370e-5
-1.606, 3.273e-5
-1.605, 3.192e-5
-1.604, 3.112e-5
-1.603, 3.025e-5
-1.602, 2.944e-5
-1.601, 2.861e-5
-1.600, 2.791e-5
-1.599, 2.718e-5
-1.598, 2.642e-5
-1.597, 2.572e-5
-1.596, 2.499e-5
-1.595, 2.437e-5
-1.594, 2.375e-5
-1.593, 2.313e-5
-1.592, 2.246e-5
-1.591, 2.182e-5
-1.590, 2.124e-5
-1.589, 2.069e-5
-1.588, 2.012e-5
-1.587, 1.953e-5
-1.586, 1.897e-5
-1.585, 1.845e-5
-1.584, 1.804e-5
-1.583, 1.751e-5
-1.582, 1.701e-5
-1.581, 1.652e-5
-1.580, 1.608e-5
-1.579, 1.571e-5
-1.578, 1.528e-5
-1.577, 1.478e-5
-1.576, 1.437e-5
-1.575, 1.400e-5
-1.574, 1.366e-5
-1.573, 1.325e-5
-1.572, 1.289e-5
-1.571, 1.253e-5
-1.570, 1.216e-5
-1.569, 1.188e-5
-1.568, 1.153e-5
-1.567, 1.117e-5
-1.566, 1.084e-5
-1.565, 1.058e-5
-1.564, 1.037e-5
-1.563, 1.003e-5
-1.562, 9.702e-6
-1.561, 9.404e-6
-1.560, 9.213e-6
-1.559, 9.025e-6
-1.558, 8.738e-6
-1.557, 8.481e-6
-1.556, 8.208e-6
-1.555, 8.023e-6
-1.554, 7.822e-6
-1.553, 7.595e-6
-1.552, 7.389e-6
-1.551, 7.162e-6
-1.550, 6.995e-6
-1.549, 6.841e-6
-1.548, 6.652e-6
-1.547, 6.411e-6
-1.546, 6.212e-6
-1.545, 6.061e-6
-1.544, 5.953e-6
-1.543, 5.808e-6
-1.542, 5.572e-6
-1.541, 5.420e-6
-1.540, 5.298e-6
-1.539, 5.176e-6
-1.538, 5.072e-6
-1.537, 4.888e-6
-1.536, 4.743e-6
-1.535, 4.585e-6
-1.534, 4.530e-6
-1.533, 4.439e-6
-1.532, 4.239e-6
-1.531, 4.109e-6
-1.530, 4.034e-6
-1.529, 3.967e-6
-1.528, 3.848e-6
-1.527, 3.708e-6
-1.526, 3.608e-6
-1.525, 3.474e-6
-1.524, 3.432e-6
-1.523, 3.356e-6
-1.522, 3.233e-6
-1.521, 3.103e-6
-1.520, 3.033e-6
-1.519, 3.025e-6
-1.518, 2.971e-6
-1.517, 2.828e-6
-1.516, 2.713e-6
-1.515, 2.688e-6
-1.514, 2.668e-6
-1.513, 2.578e-6
-1.512, 2.440e-6
-1.511, 2.376e-6
-1.510, 2.268e-6
-1.509, 2.292e-6
-1.508, 2.225e-6
-1.507, 2.140e-6
-1.506, 2.040e-6
-1.505, 1.998e-6
-1.504, 1.976e-6
-1.503, 1.934e-6
-1.502, 1.844e-6
-1.501, 1.762e-6
-1.500, 1.762e-6
-1.499, 1.727e-6
-1.498, 1.673e-6
-1.497, 1.603e-6
-1.496, 1.491e-6
-1.495, 1.481e-6
-1.494, 1.491e-6
-1.493, 1.453e-6
-1.492, 1.352e-6
-1.491, 1.289e-6
-1.490, 1.255e-6
-1.489, 1.278e-6
-1.488, 1.253e-6
-1.487, 1.142e-6
-1.486, 1.072e-6
-1.485, 1.049e-6
-1.484, 1.074e-6
-1.483, 1.061e-6
-1.482, 9.351e-7
-1.481, 9.371e-7
-1.480, 8.877e-7
-1.479, 9.213e-7
-1.478, 8.631e-7
-1.477, 8.019e-7
-1.476, 7.782e-7
-1.475, 7.230e-7
-1.474, 7.674e-7
-1.473, 7.378e-7
-1.472, 6.667e-7
-1.471, 6.174e-7
-1.470, 5.691e-7
-1.469, 6.381e-7
-1.468, 5.918e-7
-1.467, 5.296e-7
-1.466, 4.684e-7
-1.465, 4.181e-7
-1.464, 4.586e-7
-1.463, 4.507e-7
-1.462, 3.905e-7
-1.461, 3.708e-7
-1.460, 3.185e-7
-1.459, 3.599e-7
-1.458, 3.412e-7
-1.457, 3.244e-7
-1.456, 2.474e-7
-1.455, 2.080e-7
-1.454, 2.918e-7
-1.453, 2.682e-7
-1.452, 1.685e-7
-1.451, 1.488e-7
-1.450, 1.320e-7
-1.449, 1.212e-7
-1.448, 1.596e-7
-1.447, 7.380e-8
-1.446, 3.729e-8
-1.445, 3.828e-8
-1.444, 8.465e-8
-1.443, 8.070e-8
-1.442, -3.157e-9
-1.441, -4.262e-8
-1.440, -4.459e-8
-1.439, -3.275e-8
-1.438, 9.669e-9
-1.437, -6.038e-8
-1.436, -1.087e-7
-1.435, -1.107e-7
-1.434, -9.491e-8
-1.433, -9.294e-8
-1.432, -1.640e-7
-1.431, -1.669e-7
-1.430, -1.886e-7
-1.429, -1.610e-7
-1.428, -1.354e-7
-1.427, -2.311e-7
-1.426, -2.429e-7
-1.425, -2.834e-7
-1.424, -2.143e-7
-1.423, -2.044e-7
-1.422, -2.715e-7
-1.421, -3.080e-7
-1.420, -3.139e-7
-1.419, -2.764e-7
-1.418, -2.735e-7
-1.417, -3.761e-7
-1.416, -3.573e-7
-1.415, -3.968e-7
-1.414, -3.208e-7
-1.413, -3.485e-7
-1.412, -3.682e-7
-1.411, -4.086e-7
-1.410, -4.136e-7
-1.409, -3.662e-7
-1.408, -3.909e-7
-1.407, -4.323e-7
-1.406, -4.718e-7
-1.405, -4.915e-7
-1.404, -4.452e-7
-1.403, -4.333e-7
-1.402, -4.511e-7
-1.401, -5.211e-7
-1.400, -5.182e-7
-1.399, -4.994e-7
-1.398, -4.817e-7
-1.397, -5.004e-7
-1.396, -5.616e-7
-1.395, -5.675e-7
-1.394, -5.418e-7
-1.393, -5.083e-7
-1.392, -5.300e-7
-1.391, -6.119e-7
-1.390, -5.902e-7
-1.389, -5.823e-7
-1.388, -5.596e-7
-1.387, -6.089e-7
-1.386, -6.681e-7
-1.385, -6.385e-7
-1.384, -6.277e-7
-1.383, -5.665e-7
-1.382, -6.602e-7
-1.381, -6.829e-7
-1.380, -6.573e-7
-1.379, -5.961e-7
-1.378, -5.852e-7
-1.377, -6.632e-7
-1.376, -6.859e-7
-1.375, -7.056e-7
-1.374, -7.125e-7
-1.373, -6.444e-7
-1.372, -6.898e-7
-1.371, -7.382e-7
-1.370, -7.244e-7
-1.369, -7.165e-7
-1.368, -6.849e-7
-1.367, -7.175e-7
-1.366, -7.885e-7
-1.365, -7.954e-7
-1.364, -7.569e-7
-1.363, -7.115e-7
-1.362, -7.954e-7
-1.361, -8.240e-7
-1.360, -8.418e-7
-1.359, -7.628e-7
-1.358, -7.549e-7
-1.357, -8.260e-7
-1.356, -8.566e-7
-1.355, -8.575e-7
-1.354, -7.974e-7
-1.353, -8.201e-7
-1.352, -8.487e-7
-1.351, -8.990e-7
-1.350, -8.881e-7
-1.349, -8.506e-7
-1.348, -8.319e-7
-1.347, -8.891e-7
-1.346, -9.266e-7
-1.345, -9.246e-7
-1.344, -9.266e-7
-1.343, -8.921e-7
-1.342, -9.108e-7
-1.341, -9.888e-7
-1.340, -9.641e-7
-1.339, -9.434e-7
-1.338, -9.315e-7
-1.337, -9.394e-7
-1.336, -9.937e-7
-1.335, -9.917e-7
-1.334, -9.769e-7
-1.333, -9.227e-7
-1.332, -9.838e-7
-1.331, -1.081e-6
-1.330, -1.043e-6
-1.329, -1.013e-6
-1.328, -1.006e-6
-1.327, -1.040e-6
-1.326, -1.076e-6
-1.325, -1.046e-6
-1.324, -1.060e-6
-1.323, -1.033e-6
-1.322, -1.057e-6
-1.321, -1.113e-6
-1.320, -1.116e-6
-1.319, -1.078e-6
-1.318, -1.035e-6
-1.317, -1.082e-6
-1.316, -1.185e-6
-1.315, -1.140e-6
-1.314, -1.104e-6
-1.313, -1.137e-6
-1.312, -1.143e-6
-1.311, -1.191e-6
-1.310, -1.208e-6
-1.309, -1.157e-6
-1.308, -1.131e-6
-1.307, -1.170e-6
-1.306, -1.235e-6
-1.305, -1.243e-6
-1.304, -1.232e-6
-1.303, -1.182e-6
-1.302, -1.213e-6
-1.301, -1.253e-6
-1.300, -1.289e-6
-1.299, -1.235e-6
-1.298, -1.216e-6
-1.297, -1.235e-6
-1.296, -1.315e-6
-1.295, -1.325e-6
-1.294, -1.270e-6
-1.293, -1.234e-6
-1.292, -1.298e-6
-1.291, -1.357e-6
-1.290, -1.328e-6
-1.289, -1.321e-6
-1.288, -1.301e-6
-1.287, -1.341e-6
-1.286, -1.374e-6
-1.285, -1.383e-6
-1.284, -1.385e-6
-1.283, -1.342e-6
-1.282, -1.372e-6
-1.281, -1.429e-6
-1.280, -1.468e-6
-1.279, -1.411e-6
-1.278, -1.381e-6
-1.277, -1.421e-6
-1.276, -1.450e-6
-1.275, -1.470e-6
-1.274, -1.491e-6
-1.273, -1.415e-6
-1.272, -1.459e-6
-1.271, -1.524e-6
-1.270, -1.546e-6
-1.269, -1.502e-6
-1.268, -1.467e-6
-1.267, -1.497e-6
-1.266, -1.563e-6
-1.265, -1.583e-6
-1.264, -1.504e-6
-1.263, -1.494e-6
-1.262, -1.555e-6
-1.261, -1.578e-6
-1.260, -1.592e-6
-1.259, -1.573e-6
-1.258, -1.556e-6
-1.257, -1.585e-6
-1.256, -1.644e-6
-1.255, -1.676e-6
-1.254, -1.638e-6
-1.253, -1.621e-6
-1.252, -1.643e-6
-1.251, -1.689e-6
-1.250, -1.702e-6
-1.249, -1.610e-6
-1.248, -1.604e-6
-1.247, -1.667e-6
-1.246, -1.741e-6
-1.245, -1.709e-6
-1.244, -1.691e-6
-1.243, -1.673e-6
-1.242, -1.693e-6
-1.241, -1.740e-6
-1.240, -1.787e-6
-1.239, -1.744e-6
-1.238, -1.699e-6
-1.237, -1.749e-6
-1.236, -1.794e-6
-1.235, -1.842e-6
-1.234, -1.771e-6
-1.233, -1.746e-6
-1.232, -1.748e-6
-1.231, -1.830e-6
-1.230, -1.833e-6
-1.229, -1.860e-6
-1.228, -1.802e-6
-1.227, -1.845e-6
-1.226, -1.889e-6
-1.225, -1.892e-6
-1.224, -1.833e-6
-1.223, -1.825e-6
-1.222, -1.848e-6
-1.221, -1.892e-6
-1.220, -1.910e-6
-1.219, -1.901e-6
-1.218, -1.851e-6
-1.217, -1.908e-6
-1.216, -1.934e-6
-1.215, -1.945e-6
-1.214, -1.930e-6
-1.213, -1.884e-6
-1.212, -1.899e-6
-1.211, -1.946e-6
-1.210, -1.999e-6
-1.209, -1.965e-6
-1.208, -1.913e-6
-1.207, -1.965e-6
-1.206, -1.996e-6
-1.205, -2.027e-6
-1.204, -1.976e-6
-1.203, -1.958e-6
-1.202, -1.963e-6
-1.201, -2.014e-6
-1.200, -2.036e-6
-1.199, -2.010e-6
-1.198, -2.001e-6
-1.197, -2.013e-6
-1.196, -2.047e-6
-1.195, -2.085e-6
-1.194, -2.049e-6
-1.193, -2.046e-6
-1.192, -2.030e-6
-1.191, -2.112e-6
-1.190, -2.125e-6
-1.189, -2.094e-6
-1.188, -2.050e-6
-1.187, -2.075e-6
-1.186, -2.119e-6
-1.185, -2.135e-6
-1.184, -2.111e-6
-1.183, -2.076e-6
-1.182, -2.110e-6
-1.181, -2.139e-6
-1.180, -2.156e-6
-1.179, -2.152e-6
-1.178, -2.094e-6
-1.177, -2.128e-6
-1.176, -2.181e-6
-1.175, -2.202e-6
-1.174, -2.196e-6
-1.173, -2.136e-6
-1.172, -2.173e-6
-1.171, -2.222e-6
-1.170, -2.244e-6
-1.169, -2.208e-6
-1.168, -2.153e-6
-1.167, -2.169e-6
-1.166, -2.227e-6
-1.165, -2.251e-6
-1.164, -2.217e-6
-1.163, -2.186e-6
-1.162, -2.227e-6
-1.161, -2.252e-6
-1.160, -2.274e-6
-1.159, -2.247e-6
-1.158, -2.217e-6
-1.157, -2.226e-6
-1.156, -2.260e-6
-1.155, -2.306e-6
-1.154, -2.249e-6
-1.153, -2.251e-6
-1.152, -2.248e-6
-1.151, -2.317e-6
-1.150, -2.331e-6
-1.149, -2.278e-6
-1.148, -2.265e-6
-1.147, -2.269e-6
-1.146, -2.326e-6
-1.145, -2.348e-6
-1.144, -2.302e-6
-1.143, -2.296e-6
-1.142, -2.311e-6
-1.141, -2.343e-6
-1.140, -2.346e-6
-1.139, -2.325e-6
-1.138, -2.334e-6
-1.137, -2.312e-6
-1.136, -2.383e-6
-1.135, -2.380e-6
-1.134, -2.350e-6
-1.133, -2.315e-6
-1.132, -2.348e-6
-1.131, -2.401e-6
-1.130, -2.408e-6
-1.129, -2.368e-6
-1.128, -2.359e-6
-1.127, -2.324e-6
-1.126, -2.375e-6
-1.125, -2.406e-6
-1.124, -2.406e-6
-1.123, -2.354e-6
-1.122, -2.368e-6
-1.121, -2.424e-6
-1.120, -2.426e-6
-1.119, -2.398e-6
-1.118, -2.380e-6
-1.117, -2.376e-6
-1.116, -2.417e-6
-1.115, -2.436e-6
-1.114, -2.428e-6
-1.113, -2.395e-6
-1.112, -2.396e-6
-1.111, -2.419e-6
-1.110, -2.495e-6
-1.109, -2.429e-6
-1.108, -2.383e-6
-1.107, -2.412e-6
-1.106, -2.471e-6
-1.105, -2.505e-6
-1.104, -2.463e-6
-1.103, -2.423e-6
-1.102, -2.453e-6
-1.101, -2.474e-6
-1.100, -2.504e-6
-1.099, -2.475e-6
-1.098, -2.430e-6
-1.097, -2.447e-6
-1.096, -2.485e-6
-1.095, -2.514e-6
-1.094, -2.492e-6
-1.093, -2.462e-6
-1.092, -2.480e-6
-1.091, -2.518e-6
-1.090, -2.548e-6
-1.089, -2.524e-6
-1.088, -2.486e-6
-1.087, -2.474e-6
-1.086, -2.531e-6
-1.085, -2.552e-6
-1.084, -2.526e-6
-1.083, -2.496e-6
-1.082, -2.510e-6
-1.081, -2.570e-6
-1.080, -2.558e-6
-1.079, -2.536e-6
-1.078, -2.511e-6
-1.077, -2.533e-6
-1.076, -2.569e-6
-1.075, -2.599e-6
-1.074, -2.572e-6
-1.073, -2.539e-6
-1.072, -2.563e-6
-1.071, -2.632e-6
-1.070, -2.617e-6
-1.069, -2.605e-6
-1.068, -2.562e-6
-1.067, -2.583e-6
-1.066, -2.619e-6
-1.065, -2.649e-6
-1.064, -2.628e-6
-1.063, -2.554e-6
-1.062, -2.598e-6
-1.061, -2.666e-6
-1.060, -2.671e-6
-1.059, -2.650e-6
-1.058, -2.617e-6
-1.057, -2.654e-6
-1.056, -2.659e-6
-1.055, -2.706e-6
-1.054, -2.694e-6
-1.053, -2.634e-6
-1.052, -2.674e-6
-1.051, -2.720e-6
-1.050, -2.710e-6
-1.049, -2.672e-6
-1.048, -2.671e-6
-1.047, -2.689e-6
-1.046, -2.726e-6
-1.045, -2.765e-6
-1.044, -2.732e-6
-1.043, -2.669e-6
-1.042, -2.730e-6
-1.041, -2.771e-6
-1.040, -2.811e-6
-1.039, -2.754e-6
-1.038, -2.748e-6
-1.037, -2.746e-6
-1.036, -2.775e-6
-1.035, -2.807e-6
-1.034, -2.805e-6
-1.033, -2.764e-6
-1.032, -2.793e-6
-1.031, -2.845e-6
-1.030, -2.848e-6
-1.029, -2.837e-6
-1.028, -2.810e-6
-1.027, -2.833e-6
-1.026, -2.853e-6
-1.025, -2.897e-6
-1.024, -2.888e-6
-1.023, -2.825e-6
-1.022, -2.847e-6
-1.021, -2.908e-6
-1.020, -2.935e-6
-1.019, -2.923e-6
-1.018, -2.886e-6
-1.017, -2.888e-6
-1.016, -2.941e-6
-1.015, -2.974e-6
-1.014, -2.969e-6
-1.013, -2.898e-6
-1.012, -2.941e-6
-1.011, -3.004e-6
-1.010, -2.970e-6
-1.009, -2.988e-6
-1.008, -2.924e-6
-1.007, -2.977e-6
-1.006, -3.021e-6
-1.005, -3.009e-6
-1.004, -3.031e-6
-1.003, -2.979e-6
-1.002, -3.020e-6
-1.001, -3.048e-6
-1.000, -2.450e-6
-1.001, -2.085e-6
-1.002, -1.901e-6
-1.003, -1.792e-6
-1.004, -1.699e-6
-1.005, -1.668e-6
-1.006, -1.510e-6
-1.007, -1.382e-6
-1.008, -1.318e-6
-1.009, -1.276e-6
-1.010, -1.248e-6
-1.011, -1.147e-6
-1.012, -1.025e-6
-1.013, -1.013e-6
-1.014, -9.789e-7
-1.015, -9.759e-7
-1.016, -8.812e-7
-1.017, -7.905e-7
-1.018, -7.441e-7
-1.019, -7.599e-7
-1.020, -7.234e-7
-1.021, -6.849e-7
-1.022, -5.764e-7
-1.023, -5.547e-7
-1.024, -5.428e-7
-1.025, -5.113e-7
-1.026, -4.629e-7
-1.027, -3.948e-7
-1.028, -3.682e-7
-1.029, -3.800e-7
-1.030, -3.534e-7
-1.031, -3.090e-7
-1.032, -2.360e-7
-1.033, -2.281e-7
-1.034, -2.340e-7
-1.035, -2.242e-7
-1.036, -1.699e-7
-1.037, -8.208e-8
-1.038, -8.504e-8
-1.039, -9.984e-8
-1.040, -1.058e-7
-1.041, -5.742e-8
-1.042, 1.460e-8
-1.043, 2.348e-8
-1.044, -7.103e-9
-1.045, 6.709e-9
-1.046, 3.039e-8
-1.047, 1.073e-7
-1.048, 7.972e-8
-1.049, 1.162e-7
-1.050, 1.024e-7
-1.051, 1.379e-7
-1.052, 2.257e-7
-1.053, 2.129e-7
-1.054, 1.971e-7
-1.055, 1.665e-7
-1.056, 2.622e-7
-1.057, 2.859e-7
-1.058, 2.869e-7
-1.059, 3.007e-7
-1.060, 2.760e-7
-1.061, 3.165e-7
-1.062, 3.362e-7
-1.063, 3.609e-7
-1.064, 3.520e-7
-1.065, 3.037e-7
-1.066, 3.925e-7
-1.067, 4.191e-7
-1.068, 4.023e-7
-1.069, 4.319e-7
-1.070, 4.073e-7
-1.071, 4.112e-7
-1.072, 4.941e-7
-1.073, 5.138e-7
-1.074, 4.714e-7
-1.075, 4.832e-7
-1.076, 5.158e-7
-1.077, 5.543e-7
-1.078, 5.572e-7
-1.079, 5.237e-7
-1.080, 5.217e-7
-1.081, 5.316e-7
-1.082, 6.243e-7
-1.083, 6.056e-7
-1.084, 5.770e-7
-1.085, 5.937e-7
-1.086, 6.164e-7
-1.087, 6.815e-7
-1.088, 6.815e-7
-1.089, 6.510e-7
-1.090, 6.302e-7
-1.091, 6.401e-7
-1.092, 7.240e-7
-1.093, 6.875e-7
-1.094, 6.786e-7
-1.095, 6.944e-7
-1.096, 7.180e-7
-1.097, 7.822e-7
-1.098, 7.506e-7
-1.099, 7.615e-7
-1.100, 7.467e-7
-1.101, 7.437e-7
-1.102, 8.295e-7
-1.103, 8.276e-7
-1.104, 7.733e-7
-1.105, 7.703e-7
-1.106, 7.861e-7
-1.107, 8.443e-7
-1.108, 8.453e-7
-1.109, 8.315e-7
-1.110, 8.226e-7
-1.111, 8.394e-7
-1.112, 8.976e-7
-1.113, 8.700e-7
-1.114, 8.680e-7
-1.115, 8.581e-7
-1.116, 8.789e-7
-1.117, 9.292e-7
-1.118, 9.114e-7
-1.119, 9.203e-7
-1.120, 8.611e-7
-1.121, 9.311e-7
-1.122, 9.568e-7
-1.123, 9.578e-7
-1.124, 9.272e-7
-1.125, 9.450e-7
-1.126, 9.854e-7
-1.127, 1.006e-6
-1.128, 1.008e-6
-1.129, 9.884e-7
-1.130, 9.755e-7
-1.131, 9.726e-7
-1.132, 1.069e-6
-1.133, 1.070e-6
-1.134, 1.026e-6
-1.135, 1.009e-6
-1.136, 1.025e-6
-1.137, 1.077e-6
-1.138, 1.072e-6
-1.139, 1.028e-6
-1.140, 1.034e-6
-1.141, 1.066e-6
-1.142, 1.120e-6
-1.143, 1.089e-6
-1.144, 1.066e-6
-1.145, 1.062e-6
-1.146, 1.105e-6
-1.147, 1.139e-6
-1.148, 1.150e-6
-1.149, 1.098e-6
-1.150, 1.105e-6
-1.151, 1.107e-6
-1.152, 1.197e-6
-1.153, 1.167e-6
-1.154, 1.149e-6
-1.155, 1.119e-6
-1.156, 1.163e-6
-1.157, 1.206e-6
-1.158, 1.204e-6
-1.159, 1.176e-6
-1.160, 1.181e-6
-1.161, 1.180e-6
-1.162, 1.219e-6
-1.163, 1.209e-6
-1.164, 1.216e-6
-1.165, 1.187e-6
-1.166, 1.223e-6
-1.167, 1.291e-6
-1.168, 1.286e-6
-1.169, 1.214e-6
-1.170, 1.224e-6
-1.171, 1.285e-6
-1.172, 1.281e-6
-1.173, 1.309e-6
-1.174, 1.252e-6
-1.175, 1.293e-6
-1.176, 1.270e-6
-1.177, 1.345e-6
-1.178, 1.332e-6
-1.179, 1.297e-6
-1.180, 1.301e-6
-1.181, 1.311e-6
-1.182, 1.367e-6
-1.183, 1.400e-6
-1.184, 1.316e-6
-1.185, 1.313e-6
-1.186, 1.351e-6
-1.187, 1.387e-6
-1.188, 1.373e-6
-1.189, 1.353e-6
-1.190, 1.371e-6
-1.191, 1.371e-6
-1.192, 1.432e-6
-1.193, 1.420e-6
-1.194, 1.414e-6
-1.195, 1.381e-6
-1.196, 1.370e-6
-1.197, 1.445e-6
-1.198, 1.450e-6
-1.199, 1.431e-6
-1.200, 1.417e-6
-1.201, 1.420e-6
-1.202, 1.468e-6
-1.203, 1.485e-6
-1.204, 1.426e-6
-1.205, 1.432e-6
-1.206, 1.459e-6
-1.207, 1.528e-6
-1.208, 1.510e-6
-1.209, 1.467e-6
-1.210, 1.473e-6
-1.211, 1.484e-6
-1.212, 1.526e-6
-1.213, 1.557e-6
-1.214, 1.486e-6
-1.215, 1.471e-6
-1.216, 1.520e-6
-1.217, 1.526e-6
-1.218, 1.581e-6
-1.219, 1.537e-6
-1.220, 1.536e-6
-1.221, 1.522e-6
-1.222, 1.579e-6
-1.223, 1.609e-6
-1.224, 1.554e-6
-1.225, 1.548e-6
-1.226, 1.579e-6
-1.227, 1.600e-6
-1.228, 1.623e-6
-1.229, 1.584e-6
-1.230, 1.564e-6
-1.231, 1.601e-6
-1.232, 1.639e-6
-1.233, 1.655e-6
-1.234, 1.586e-6
-1.235, 1.618e-6
-1.236, 1.622e-6
-1.237, 1.655e-6
-1.238, 1.666e-6
-1.239, 1.674e-6
-1.240, 1.624e-6
-1.241, 1.607e-6
-1.242, 1.723e-6
-1.243, 1.708e-6
-1.244, 1.669e-6
-1.245, 1.681e-6
-1.246, 1.693e-6
-1.247, 1.755e-6
-1.248, 1.733e-6
-1.249, 1.723e-6
-1.250, 1.671e-6
-1.251, 1.709e-6
-1.252, 1.805e-6
-1.253, 1.769e-6
-1.254, 1.703e-6
-1.255, 1.742e-6
-1.256, 1.749e-6
-1.257, 1.787e-6
-1.258, 1.785e-6
-1.259, 1.762e-6
-1.260, 1.732e-6
-1.261, 1.771e-6
-1.262, 1.804e-6
-1.263, 1.827e-6
-1.264, 1.787e-6
-1.265, 1.764e-6
-1.266, 1.793e-6
-1.267, 1.824e-6
-1.268, 1.854e-6
-1.269, 1.810e-6
-1.270, 1.819e-6
-1.271, 1.819e-6
-1.272, 1.878e-6
-1.273, 1.903e-6
-1.274, 1.835e-6
-1.275, 1.822e-6
-1.276, 1.821e-6
-1.277, 1.875e-6
-1.278, 1.898e-6
-1.279, 1.857e-6
-1.280, 1.862e-6
-1.281, 1.863e-6
-1.282, 1.921e-6
-1.283, 1.938e-6
-1.284, 1.888e-6
-1.285, 1.870e-6
-1.286, 1.903e-6
-1.287, 1.957e-6
-1.288, 1.974e-6
-1.289, 1.909e-6
-1.290, 1.915e-6
-1.291, 1.905e-6
-1.292, 1.957e-6
-1.293, 1.971e-6
-1.294, 1.940e-6
-1.295, 1.897e-6
-1.296, 1.939e-6
-1.297, 2.002e-6
-1.298, 2.018e-6
-1.299, 1.963e-6
-1.300, 1.946e-6
-1.301, 1.937e-6
-1.302, 2.035e-6
-1.303, 2.042e-6
-1.304, 1.992e-6
-1.305, 1.976e-6
-1.306, 2.010e-6
-1.307, 2.038e-6
-1.308, 2.045e-6
-1.309, 1.975e-6
-1.310, 1.989e-6
-1.311, 2.048e-6
-1.312, 2.060e-6
-1.313, 2.061e-6
-1.314, 2.040e-6
-1.315, 2.015e-6
-1.316, 2.047e-6
-1.317, 2.078e-6
-1.318, 2.095e-6
-1.319, 2.065e-6
-1.320, 2.043e-6
-1.321, 2.063e-6
-1.322, 2.098e-6
-1.323, 2.120e-6
-1.324, 2.066e-6
-1.325, 2.083e-6
-1.326, 2.124e-6
-1.327, 2.120e-6
-1.328, 2.146e-6
-1.329, 2.107e-6
-1.330, 2.122e-6
-1.331, 2.094e-6
-1.332, 2.134e-6
-1.333, 2.171e-6
-1.334, 2.131e-6
-1.335, 2.092e-6
-1.336, 2.102e-6
-1.337, 2.163e-6
-1.338, 2.195e-6
-1.339, 2.154e-6
-1.340, 2.117e-6
-1.341, 2.126e-6
-1.342, 2.177e-6
-1.343, 2.215e-6
-1.344, 2.172e-6
-1.345, 2.161e-6
-1.346, 2.163e-6
-1.347, 2.243e-6
-1.348, 2.199e-6
-1.349, 2.200e-6
-1.350, 2.168e-6
-1.351, 2.214e-6
-1.352, 2.230e-6
-1.353, 2.216e-6
-1.354, 2.217e-6
-1.355, 2.187e-6
-1.356, 2.194e-6
-1.357, 2.294e-6
-1.358, 2.274e-6
-1.359, 2.213e-6
-1.360, 2.195e-6
-1.361, 2.251e-6
-1.362, 2.317e-6
-1.363, 2.274e-6
-1.364, 2.270e-6
-1.365, 2.234e-6
-1.366, 2.273e-6
-1.367, 2.297e-6
-1.368, 2.296e-6
-1.369, 2.266e-6
-1.370, 2.273e-6
-1.371, 2.271e-6
-1.372, 2.299e-6
-1.373, 2.336e-6
-1.374, 2.308e-6
-1.375, 2.291e-6
-1.376, 2.271e-6
-1.377, 2.342e-6
-1.378, 2.361e-6
-1.379, 2.311e-6
-1.380, 2.304e-6
-1.381, 2.315e-6
-1.382, 2.365e-6
-1.383, 2.403e-6
-1.384, 2.325e-6
-1.385, 2.346e-6
-1.386, 2.350e-6
-1.387, 2.390e-6
-1.388, 2.412e-6
-1.389, 2.377e-6
-1.390, 2.369e-6
-1.391, 2.403e-6
-1.392, 2.421e-6
-1.393, 2.425e-6
-1.394, 2.381e-6
-1.395, 2.378e-6
-1.396, 2.406e-6
-1.397, 2.416e-6
-1.398, 2.458e-6
-1.399, 2.398e-6
-1.400, 2.392e-6
-1.401, 2.424e-6
-1.402, 2.479e-6
-1.403, 2.496e-6
-1.404, 2.446e-6
-1.405, 2.450e-6
-1.406, 2.446e-6
-1.407, 2.501e-6
-1.408, 2.533e-6
-1.409, 2.510e-6
-1.410, 2.469e-6
-1.411, 2.469e-6
-1.412, 2.527e-6
-1.413, 2.538e-6
-1.414, 2.502e-6
-1.415, 2.496e-6
-1.416, 2.520e-6
-1.417, 2.594e-6
-1.418, 2.590e-6
-1.419, 2.577e-6
-1.420, 2.535e-6
-1.421, 2.575e-6
-1.422, 2.641e-6
-1.423, 2.667e-6
-1.424, 2.605e-6
-1.425, 2.602e-6
-1.426, 2.638e-6
-1.427, 2.655e-6
-1.428, 2.694e-6
-1.429, 2.656e-6
-1.430, 2.640e-6
-1.431, 2.653e-6
-1.432, 2.698e-6
-1.433, 2.765e-6
-1.434, 2.708e-6
-1.435, 2.708e-6
-1.436, 2.705e-6
-1.437, 2.801e-6
-1.438, 2.790e-6
-1.439, 2.779e-6
-1.440, 2.757e-6
-1.441, 2.818e-6
-1.442, 2.823e-6
-1.443, 2.841e-6
-1.444, 2.811e-6
-1.445, 2.816e-6
-1.446, 2.849e-6
-1.447, 2.885e-6
-1.448, 2.929e-6
-1.449, 2.887e-6
-1.450, 2.888e-6
-1.451, 2.916e-6
-1.452, 2.974e-6
-1.453, 2.993e-6
-1.454, 2.962e-6
-1.455, 2.976e-6
-1.456, 2.994e-6
-1.457, 3.048e-6
-1.458, 3.087e-6
-1.459, 3.062e-6
-1.460, 3.058e-6
-1.461, 3.091e-6
-1.462, 3.150e-6
-1.463, 3.193e-6
-1.464, 3.120e-6
-1.465, 3.129e-6
-1.466, 3.197e-6
-1.467, 3.247e-6
-1.468, 3.305e-6
-1.469, 3.243e-6
-1.470, 3.268e-6
-1.471, 3.291e-6
-1.472, 3.330e-6
-1.473, 3.386e-6
-1.474, 3.401e-6
-1.475, 3.378e-6
-1.476, 3.408e-6
-1.477, 3.486e-6
-1.478, 3.522e-6
-1.479, 3.498e-6
-1.480, 3.515e-6
-1.481, 3.552e-6
-1.482, 3.641e-6
-1.483, 3.656e-6
-1.484, 3.654e-6
-1.485, 3.689e-6
-1.486, 3.702e-6
-1.487, 3.772e-6
-1.488, 3.803e-6
-1.489, 3.833e-6
-1.490, 3.864e-6
-1.491, 3.850e-6
-1.492, 3.935e-6
-1.493, 3.977e-6
-1.494, 3.995e-6
-1.495, 3.990e-6
-1.496, 4.039e-6
-1.497, 4.142e-6
-1.498, 4.222e-6
-1.499, 4.209e-6
-1.500, 4.230e-6
-1.501, 4.308e-6
-1.502, 4.372e-6
-1.503, 4.443e-6
-1.504, 4.427e-6
-1.505, 4.419e-6
-1.506, 4.534e-6
-1.507, 4.621e-6
-1.508, 4.674e-6
-1.509, 4.689e-6
-1.510, 4.696e-6
-1.511, 4.797e-6
-1.512, 4.894e-6
-1.513, 4.954e-6
-1.514, 4.980e-6
-1.515, 5.016e-6
-1.516, 5.110e-6
-1.517, 5.173e-6
-1.518, 5.289e-6
-1.519, 5.319e-6
-1.520, 5.335e-6
-1.521, 5.429e-6
-1.522, 5.525e-6
-1.523, 5.642e-6
-1.524, 5.655e-6
-1.525, 5.677e-6
-1.526, 5.814e-6
-1.527, 5.926e-6
-1.528, 6.019e-6
-1.529, 6.042e-6
-1.530, 6.151e-6
-1.531, 6.229e-6
-1.532, 6.376e-6
-1.533, 6.440e-6
-1.534, 6.486e-6
-1.535, 6.629e-6
-1.536, 6.701e-6
-1.537, 6.822e-6
-1.538, 6.979e-6
-1.539, 7.024e-6
-1.540, 7.108e-6
-1.541, 7.233e-6
-1.542, 7.413e-6
-1.543, 7.553e-6
-1.544, 7.599e-6
-1.545, 7.691e-6
-1.546, 7.839e-6
-1.547, 7.990e-6
-1.548, 8.130e-6
-1.549, 8.257e-6
-1.550, 8.389e-6
-1.551, 8.523e-6
-1.552, 8.709e-6
-1.553, 8.855e-6
-1.554, 8.994e-6
-1.555, 9.129e-6
-1.556, 9.299e-6
-1.557, 9.512e-6
-1.558, 9.704e-6
-1.559, 9.815e-6
-1.560, 9.954e-6
-1.561, 1.016e-5
-1.562, 1.040e-5
-1.563, 1.061e-5
-1.564, 1.074e-5
-1.565, 1.091e-5
-1.566, 1.114e-5
-1.567, 1.143e-5
-1.568, 1.166e-5
-1.569, 1.183e-5
-1.570, 1.207e-5
-1.571, 1.229e-5
-1.572, 1.257e-5
-1.573, 1.288e-5
-1.574, 1.309e-5
-1.575, 1.334e-5
-1.576, 1.360e-5
-1.577, 1.393e-5
-1.578, 1.424e-5
-1.579, 1.448e-5
-1.580, 1.476e-5
-1.581, 1.513e-5
-1.582, 1.548e-5
-1.583, 1.584e-5
-1.584, 1.611e-5
-1.585, 1.648e-5
-1.586, 1.682e-5
-1.587, 1.726e-5
-1.588, 1.773e-5
-1.589, 1.808e-5
-1.590, 1.846e-5
-1.591, 1.891e-5
-1.592, 1.942e-5
-1.593, 1.991e-5
-1.594, 2.036e-5
-1.595, 2.085e-5
-1.596, 2.139e-5
-1.597, 2.194e-5
-1.598, 2.251e-5
-1.599, 2.307e-5
-1.600, 2.364e-5
-1.601, 2.426e-5
-1.602, 2.497e-5
-1.603, 2.563e-5
-1.604, 2.626e-5
-1.605, 2.692e-5
-1.606, 2.765e-5
-1.607, 2.847e-5
-1.608, 2.927e-5
-1.609, 3.000e-5
-1.610, 3.075e-5
-1.611, 3.158e-5
-1.612, 3.251e-5
-1.613, 3.341e-5
-1.614, 3.423e-5
-1.615, 3.511e-5
-1.616, 3.605e-5
-1.617, 3.700e-5
-1.618, 3.801e-5
-1.619, 3.892e-5
-1.620, 3.980e-5
-1.621, 4.079e-5
-1.622, 4.182e-5
-1.623, 4.287e-5
-1.624, 4.384e-5
-1.625, 4.481e-5
-1.626, 4.591e-5
-1.627, 4.697e-5
-1.628, 4.806e-5
-1.629, 4.908e-5
-1.630, 5.015e-5
-1.631, 5.130e-5
-1.632, 5.248e-5
-1.633, 5.367e-5
-1.634, 5.481e-5
-1.635, 5.590e-5
-1.636, 5.713e-5
-1.637, 5.841e-5
-1.638, 5.969e-5
-1.639, 6.090e-5
-1.640, 6.214e-5
-1.641, 6.340e-5
-1.642, 6.475e-5
-1.643, 6.610e-5
-1.644, 6.743e-5
-1.645, 6.878e-5
-1.646, 7.020e-5
-1.647, 7.175e-5
-1.648, 7.318e-5
-1.649, 7.459e-5
-1.650, 7.604e-5
-1.651, 7.759e-5
-1.652, 7.920e-5
-1.653, 8.080e-5
-1.654, 8.237e-5
-1.655, 8.396e-5
-1.656, 8.560e-5
-1.657, 8.734e-5
-1.658, 8.898e-5
-1.659, 9.067e-5
-1.660, 9.238e-5
-1.661, 9.414e-5
-1.662, 9.598e-5
-1.663, 9.780e-5
-1.664, 9.963e-5
-1.665, 1.015e-4
-1.666, 1.033e-4
-1.667, 1.054e-4
-1.668, 1.073e-4
-1.669, 1.092e-4
-1.670, 1.111e-4
-1.671, 1.131e-4
-1.672, 1.152e-4
-1.673, 1.174e-4
-1.674, 1.194e-4
-1.675, 1.215e-4
-1.676, 1.237e-4
-1.677, 1.259e-4
-1.678, 1.282e-4
-1.679, 1.304e-4
-1.680, 1.326e-4
-1.681, 1.349e-4
-1.682, 1.373e-4
-1.683, 1.397e-4
-1.684, 1.421e-4
-1.685, 1.445e-4
-1.686, 1.470e-4
-1.687, 1.496e-4
-1.688, 1.522e-4
-1.689, 1.546e-4
-1.690, 1.573e-4
-1.691, 1.600e-4
-1.692, 1.627e-4
-1.693, 1.655e-4
-1.694, 1.682e-4
-1.695, 1.710e-4
-1.696, 1.738e-4
-1.697, 1.768e-4
-1.698, 1.797e-4
-1.699, 1.827e-4
-1.700, 1.856e-4
-1.701, 1.886e-4
-1.702, 1.917e-4
-1.703, 1.948e-4
-1.704, 1.980e-4
-1.705, 2.011e-4
-1.706, 2.044e-4
-1.707, 2.078e-4
-1.708, 2.113e-4
-1.709, 2.147e-4
-1.710, 2.182e-4
-1.711, 2.218e-4
-1.712, 2.255e-4
-1.713, 2.292e-4
-1.714, 2.330e-4
-1.715, 2.367e-4
-1.716, 2.406e-4
-1.717, 2.446e-4
-1.718, 2.486e-4
-1.719, 2.528e-4
-1.720, 2.569e-4
-1.721, 2.611e-4
-1.722, 2.655e-4
-1.723, 2.700e-4
-1.724, 2.744e-4
-1.725, 2.788e-4
-1.726, 2.833e-4
-1.727, 2.881e-4
-1.728, 2.929e-4
-1.729, 2.978e-4
-1.730, 3.027e-4
-1.731, 3.078e-4
-1.732, 3.132e-4
-1.733, 3.186e-4
-1.734, 3.240e-4
-1.735, 3.295e-4
-1.736, 3.350e-4
-1.737, 3.409e-4
-1.738, 3.467e-4
-1.739, 3.526e-4
-1.740, 3.587e-4
-1.741, 3.648e-4
-1.742, 3.713e-4
-1.743, 3.780e-4
-1.744, 3.845e-4
-1.745, 3.913e-4
-1.746, 3.982e-4
-1.747, 4.050e-4
-1.748, 4.122e-4
-1.749, 4.196e-4
-1.750, 4.271e-4
-1.751, 4.345e-4
-1.752, 4.424e-4
-1.753, 4.506e-4
-1.754, 4.589e-4
-1.755, 4.673e-4
-1.756, 4.761e-4
-1.757, 4.851e-4
-1.758, 4.943e-4
-1.759, 5.036e-4
-1.760, 5.129e-4
-1.761, 5.226e-4
-1.762, 5.326e-4
-1.763, 5.429e-4
-1.764, 5.533e-4
-1.765, 5.639e-4
-1.766, 5.747e-4
-1.767, 5.859e-4
-1.768, 5.973e-4
-1.769, 6.090e-4
-1.770, 6.206e-4
-1.771, 6.329e-4
-1.772, 6.455e-4
-1.773, 6.585e-4
-1.774, 6.718e-4
-1.775, 6.849e-4
-1.776, 6.986e-4
-1.777, 7.131e-4
-1.778, 7.278e-4
-1.779, 7.426e-4
-1.780, 7.580e-4
-1.781, 7.738e-4
-1.782, 7.899e-4
-1.783, 8.061e-4
-1.784, 8.230e-4
-1.785, 8.401e-4
-1.786, 8.577e-4
-1.787, 8.759e-4
-1.788, 8.942e-4
-1.789, 9.129e-4
-1.790, 9.321e-4
-1.791, 9.525e-4
-1.792, 9.724e-4
-1.793, 9.926e-4
-1.794, 1.014e-3
-1.795, 1.036e-3
-1.796, 1.057e-3
-1.797, 1.081e-3
-1.798, 1.105e-3
-1.799, 1.129e-3
-1.800, 1.153e-3
-1.801, 1.179e-3
-1.802, 1.204e-3
-1.803, 1.230e-3
-1.804, 1.257e-3
-1.805, 1.284e-3
-1.806, 1.312e-3
-1.807, 1.341e-3
-1.808, 1.371e-3
-1.809, 1.401e-3
-1.810, 1.432e-3
-1.811, 1.465e-3
-1.812, 1.496e-3
-1.813, 1.529e-3
-1.814, 1.562e-3
-1.815, 1.596e-3
-1.816, 1.632e-3
-1.817, 1.668e-3
-1.818, 1.704e-3
-1.819, 1.740e-3
-1.820, 1.778e-3
-1.821, 1.813e-3
-1.822, 1.851e-3
-1.823, 1.893e-3
-1.824, 1.934e-3
-1.825, 1.973e-3
-1.826, 2.016e-3
-1.827, 2.061e-3
-1.828, 2.103e-3
-1.829, 2.149e-3
-1.830, 2.194e-3
-1.831, 2.236e-3
-1.832, 2.284e-3
-1.833, 2.333e-3
-1.834, 2.377e-3
-1.835, 2.423e-3
-1.836, 2.473e-3
-1.837, 2.523e-3
-1.838, 2.573e-3
-1.839, 2.620e-3
-1.840, 2.674e-3
-1.841, 2.726e-3
-1.842, 2.777e-3
-1.843, 2.830e-3
-1.844, 2.886e-3
-1.845, 2.940e-3
-1.846, 2.996e-3
-1.847, 3.049e-3
-1.848, 3.109e-3
-1.849, 3.167e-3
-1.850, 3.228e-3
-1.851, 3.282e-3
-1.852, 3.339e-3
-1.853, 3.403e-3
-1.854, 3.461e-3
-1.855, 3.519e-3
-1.856, 3.578e-3
-1.857, 3.640e-3
-1.858, 3.700e-3
-1.859, 3.764e-3
-1.860, 3.825e-3
-1.861, 3.889e-3
-1.862, 3.947e-3
-1.863, 4.012e-3
-1.864, 4.070e-3
-1.865, 4.138e-3
-1.866, 4.201e-3
-1.867, 4.261e-3
-1.868, 4.322e-3
-1.869, 4.392e-3
-1.870, 4.451e-3
-1.871, 4.521e-3
-1.872, 4.586e-3
-1.873, 4.653e-3
-1.874, 4.730e-3
-1.875, 4.790e-3
-1.876, 4.855e-3
-1.877, 4.918e-3
-1.878, 4.989e-3
-1.879, 5.053e-3
-1.880, 5.111e-3
-1.881, 5.190e-3
-1.882, 5.256e-3
-1.883, 5.322e-3
-1.884, 5.383e-3
-1.885, 5.446e-3
-1.886, 5.536e-3
-1.887, 5.601e-3
-1.888, 5.667e-3
-1.889, 5.737e-3
-1.890, 5.799e-3
-1.891, 5.869e-3
-1.892, 5.947e-3
-1.893, 6.019e-3
-1.894, 6.094e-3
-1.895, 6.158e-3
-1.896, 6.243e-3
-1.897, 6.310e-3
-1.898, 6.387e-3
-1.899, 6.452e-3
-1.900, 6.475e-3
-1.899, 6.417e-3
-1.898, 6.347e-3
-1.897, 6.306e-3
-1.896, 6.236e-3
-1.895, 6.181e-3
-1.894, 6.118e-3
-1.893, 6.043e-3
-1.892, 5.987e-3
-1.891, 5.933e-3
-1.890, 5.869e-3
-1.889, 5.795e-3
-1.888, 5.730e-3
-1.887, 5.677e-3
-1.886, 5.605e-3
-1.885, 5.541e-3
-1.884, 5.486e-3
-1.883, 5.415e-3
-1.882, 5.356e-3
-1.881, 5.296e-3
-1.880, 5.233e-3
-1.879, 5.167e-3
-1.878, 5.112e-3
-1.877, 5.051e-3
-1.876, 4.986e-3
-1.875, 4.933e-3
-1.874, 4.869e-3
-1.873, 4.807e-3
-1.872, 4.756e-3
-1.871, 4.702e-3
-1.870, 4.640e-3
-1.869, 4.590e-3
-1.868, 4.528e-3
-1.867, 4.480e-3
-1.866, 4.427e-3
-1.865, 4.373e-3
-1.864, 4.320e-3
-1.863, 4.266e-3
-1.862, 4.214e-3
-1.861, 4.168e-3
-1.860, 4.114e-3
-1.859, 4.060e-3
-1.858, 4.006e-3
-1.857, 3.955e-3
-1.856, 3.898e-3
-1.855, 3.850e-3
-1.854, 3.806e-3
-1.853, 3.756e-3
-1.852, 3.701e-3
-1.851, 3.661e-3
-1.850, 3.619e-3
-1.849, 3.569e-3
-1.848, 3.524e-3
-1.847, 3.481e-3
-1.846, 3.434e-3
-1.845, 3.387e-3
-1.844, 3.346e-3
-1.843, 3.300e-3
-1.842, 3.255e-3
-1.841, 3.208e-3
-1.840, 3.163e-3
-1.839, 3.122e-3
-1.838, 3.076e-3
-1.837, 3.036e-3
-1.836, 2.992e-3
-1.835, 2.950e-3
-1.834, 2.910e-3
-1.833, 2.867e-3
-1.832, 2.826e-3
-1.831, 2.785e-3
-1.830, 2.746e-3
-1.829, 2.708e-3
-1.828, 2.672e-3
-1.827, 2.633e-3
-1.826, 2.595e-3
-1.825, 2.558e-3
-1.824, 2.520e-3
-1.823, 2.485e-3
-1.822, 2.450e-3
-1.821, 2.412e-3
-1.820, 2.379e-3
-1.819, 2.343e-3
-1.818, 2.307e-3
-1.817, 2.274e-3
-1.816, 2.241e-3
-1.815, 2.204e-3
-1.814, 2.171e-3
-1.813, 2.139e-3
-1.812, 2.106e-3
-1.811, 2.074e-3
-1.810, 2.042e-3
-1.809, 2.011e-3
-1.808, 1.978e-3
-1.807, 1.948e-3
-1.806, 1.918e-3
-1.805, 1.886e-3
-1.804, 1.856e-3
-1.803, 1.828e-3
-1.802, 1.798e-3
-1.801, 1.770e-3
-1.800, 1.742e-3
-1.799, 1.713e-3
-1.798, 1.686e-3
-1.797, 1.661e-3
-1.796, 1.633e-3
-1.795, 1.607e-3
-1.794, 1.582e-3
-1.793, 1.556e-3
-1.792, 1.530e-3
-1.791, 1.505e-3
-1.790, 1.481e-3
-1.789, 1.457e-3
-1.788, 1.433e-3
-1.787, 1.408e-3
-1.786, 1.385e-3
-1.785, 1.361e-3
-1.784, 1.338e-3
-1.783, 1.315e-3
-1.782, 1.293e-3
-1.781, 1.271e-3
-1.780, 1.249e-3
-1.779, 1.228e-3
-1.778, 1.208e-3
-1.777, 1.188e-3
-1.776, 1.169e-3
-1.775, 1.149e-3
-1.774, 1.129e-3
-1.773, 1.110e-3
-1.772, 1.091e-3
-1.771, 1.073e-3
-1.770, 1.055e-3
-1.769, 1.037e-3
-1.768, 1.020e-3
-1.767, 1.003e-3
-1.766, 9.853e-4
-1.765, 9.683e-4
-1.764, 9.515e-4
-1.763, 9.357e-4
-1.762, 9.192e-4
-1.761, 9.032e-4
-1.760, 8.881e-4
-1.759, 8.727e-4
-1.758, 8.577e-4
-1.757, 8.428e-4
-1.756, 8.282e-4
-1.755, 8.140e-4
-1.754, 7.998e-4
-1.753, 7.859e-4
-1.752, 7.727e-4
-1.751, 7.599e-4
-1.750, 7.465e-4
-1.749, 7.334e-4
-1.748, 7.210e-4
-1.747, 7.086e-4
-1.746, 6.959e-4
-1.745, 6.834e-4
-1.744, 6.715e-4
-1.743, 6.599e-4
-1.742, 6.485e-4
-1.741, 6.371e-4
-1.740, 6.258e-4
-1.739, 6.149e-4
-1.738, 6.043e-4
-1.737, 5.937e-4
-1.736, 5.832e-4
-1.735, 5.728e-4
-1.734, 5.627e-4
-1.733, 5.526e-4
-1.732, 5.430e-4
-1.731, 5.335e-4
-1.730, 5.240e-4
-1.729, 5.146e-4
-1.728, 5.056e-4
-1.727, 4.967e-4
-1.726, 4.877e-4
-1.725, 4.789e-4
-1.724, 4.703e-4
-1.723, 4.619e-4
-1.722, 4.538e-4
-1.721, 4.456e-4
-1.720, 4.376e-4
-1.719, 4.298e-4
-1.718, 4.221e-4
-1.717, 4.146e-4
-1.716, 4.072e-4
-1.715, 3.998e-4
-1.714, 3.924e-4
-1.713, 3.853e-4
-1.712, 3.783e-4
-1.711, 3.714e-4
-1.710, 3.647e-4
-1.709, 3.581e-4
-1.708, 3.515e-4
-1.707, 3.452e-4
-1.706, 3.387e-4
-1.705, 3.322e-4
-1.704, 3.260e-4
-1.703, 3.201e-4
-1.702, 3.142e-4
-1.701, 3.083e-4
-1.700, 3.024e-4
-1.699, 2.970e-4
-1.698, 2.913e-4
-1.697, 2.858e-4
-1.696, 2.805e-4
-1.695, 2.750e-4
-1.694, 2.697e-4
-1.693, 2.648e-4
-1.692, 2.598e-4
-1.691, 2.547e-4
-1.690, 2.497e-4
-1.689, 2.449e-4
-1.688, 2.401e-4
-1.687, 2.355e-4
-1.686, 2.309e-4
-1.685, 2.264e-4
-1.684, 2.217e-4
-1.683, 2.175e-4
-1.682, 2.134e-4
-1.681, 2.091e-4
-1.680, 2.050e-4
-1.679, 2.009e-4
-1.678, 1.970e-4
-1.677, 1.930e-4
-1.676, 1.892e-4
-1.675, 1.854e-4
-1.674, 1.818e-4
-1.673, 1.782e-4
-1.672, 1.746e-4
-1.671, 1.707e-4
-1.670, 1.672e-4
-1.669, 1.637e-4
-1.668, 1.603e-4
-1.667, 1.569e-4
-1.666, 1.537e-4
-1.665, 1.505e-4
-1.664, 1.473e-4
-1.663, 1.442e-4
-1.662, 1.412e-4
-1.661, 1.382e-4
-1.660, 1.352e-4
-1.659, 1.322e-4
-1.658, 1.294e-4
-1.657, 1.267e-4
-1.656, 1.239e-4
-1.655, 1.212e-4
-1.654, 1.185e-4
-1.653, 1.160e-4
-1.652, 1.135e-4
-1.651, 1.109e-4
-1.650, 1.085e-4
-1.649, 1.060e-4
-1.648, 1.037e-4
-1.647, 1.014e-4
-1.646, 9.904e-5
-1.645, 9.677e-5
-1.644, 9.455e-5
-1.643, 9.243e-5
-1.642, 9.027e-5
-1.641, 8.820e-5
-1.640, 8.611e-5
-1.639, 8.409e-5
-1.638, 8.213e-5
-1.637, 8.022e-5
-1.636, 7.824e-5
-1.635, 7.637e-5
-1.634, 7.456e-5
-1.633, 7.280e-5
-1.632, 7.103e-5
-1.631, 6.928e-5
-1.630, 6.757e-5
-1.629, 6.596e-5
-1.628, 6.438e-5
-1.627, 6.281e-5
-1.626, 6.126e-5
-1.625, 5.970e-5
-1.624, 5.817e-5
-1.623, 5.673e-5
-1.622, 5.531e-5
-1.621, 5.392e-5
-1.620, 5.252e-5
-1.619, 5.120e-5
-1.618, 4.992e-5
-1.617, 4.866e-5
-1.616, 4.740e-5
-1.615, 4.614e-5
-1.614, 4.492e-5
-1.613, 4.380e-5
-1.612, 4.264e-5
-1.611, 4.148e-5
-1.610, 4.037e-5
-1.609, 3.930e-5
-1.608, 3.830e-5
-1.607, 3.730e-5
-1.606, 3.628e-5
-1.605, 3.531e-5
-1.604, 3.432e-5
-1.603, 3.352e-5
-1.602, 3.258e-5
-1.601, 3.166e-5
-1.600, 3.074e-5
-1.599, 2.995e-5
-1.598, 2.920e-5
-1.597, 2.840e-5
-1.596, 2.763e-5
-1.595, 2.681e-5
-1.594, 2.605e-5
-1.593, 2.542e-5
-1.592, 2.471e-5
-1.591, 2.398e-5
-1.590, 2.327e-5
-1.589, 2.265e-5
-1.588, 2.206e-5
-1.587, 2.140e-5
-1.586, 2.079e-5
-1.585, 2.017e-5
-1.584, 1.966e-5
-1.583, 1.913e-5
-1.582, 1.858e-5
-1.581, 1.802e-5
-1.580, 1.748e-5
-1.579, 1.702e-5
-1.578, 1.661e-5
-1.577, 1.613e-5
-1.576, 1.565e-5
-1.575, 1.515e-5
-1.574, 1.476e-5
-1.573, 1.437e-5
-1.572, 1.401e-5
-1.571, 1.353e-5
-1.570, 1.313e-5
-1.569, 1.277e-5
-1.568, 1.247e-5
-1.567, 1.208e-5
-1.566, 1.172e-5
-1.565, 1.136e-5
-1.564, 1.107e-5
-1.563, 1.078e-5
-1.562, 1.051e-5
-1.561, 1.018e-5
-1.560, 9.835e-6
-1.559, 9.576e-6
-1.558, 9.371e-6
-1.557, 9.089e-6
-1.556, 8.796e-6
-1.555, 8.546e-6
-1.554, 8.315e-6
-1.553, 8.118e-6
-1.552, 7.896e-6
-1.551, 7.663e-6
-1.550, 7.387e-6
-1.549, 7.210e-6
-1.548, 7.054e-6
-1.547, 6.852e-6
-1.546, 6.618e-6
-1.545, 6.420e-6
-1.544, 6.258e-6
-1.543, 6.147e-6
-1.542, 5.940e-6
-1.541, 5.745e-6
-1.540, 5.575e-6
-1.539, 5.422e-6
-1.538, 5.348e-6
-1.537, 5.150e-6
-1.536, 4.964e-6
-1.535, 4.853e-6
-1.534, 4.743e-6
-1.533, 4.646e-6
-1.532, 4.535e-6
-1.531, 4.338e-6
-1.530, 4.194e-6
-1.529, 4.119e-6
-1.528, 4.012e-6
-1.527, 3.900e-6
-1.526, 3.738e-6
-1.525, 3.665e-6
-1.524, 3.582e-6
-1.523, 3.495e-6
-1.522, 3.412e-6
-1.521, 3.259e-6
-1.520, 3.187e-6
-1.519, 3.103e-6
-1.518, 3.057e-6
-1.517, 2.946e-6
-1.516, 2.822e-6
-1.515, 2.759e-6
-1.514, 2.690e-6
-1.513, 2.659e-6
-1.512, 2.597e-6
-1.511, 2.430e-6
-1.510, 2.391e-6
-1.509, 2.363e-6
-1.508, 2.308e-6
-1.507, 2.207e-6
-1.506, 2.138e-6
-1.505, 2.070e-6
-1.504, 2.032e-6
-1.503, 2.008e-6
-1.502, 1.945e-6
-1.501, 1.849e-6
-1.500, 1.787e-6
-1.499, 1.732e-6
-1.498, 1.745e-6
-1.497, 1.637e-6
-1.496, 1.599e-6
-1.495, 1.535e-6
-1.494, 1.494e-6
-1.493, 1.520e-6
-1.492, 1.425e-6
-1.491, 1.380e-6
-1.490, 1.291e-6
-1.489, 1.272e-6
-1.488, 1.298e-6
-1.487, 1.224e-6
-1.486, 1.150e-6
-1.485, 1.073e-6
-1.484, 1.078e-6
-1.483, 1.078e-6
-1.482, 1.013e-6
-1.481, 9.686e-7
-1.480, 9.016e-7
-1.479, 9.065e-7
-1.478, 8.848e-7
-1.477, 8.483e-7
-1.476, 7.930e-7
-1.475, 7.467e-7
-1.474, 7.486e-7
-1.473, 7.230e-7
-1.472, 6.954e-7
-1.471, 6.243e-7
-1.470, 5.533e-7
-1.469, 5.592e-7
-1.468, 5.849e-7
-1.467, 5.493e-7
-1.466, 4.872e-7
-1.465, 4.645e-7
-1.464, 4.497e-7
-1.463, 4.566e-7
-1.462, 4.408e-7
-1.461, 3.757e-7
-1.460, 3.451e-7
-1.459, 2.968e-7
-1.458, 3.619e-7
-1.457, 3.106e-7
-1.456, 2.780e-7
-1.455, 2.070e-7
-1.454, 1.705e-7
-1.453, 2.494e-7
-1.452, 1.873e-7
-1.451, 1.438e-7
-1.450, 9.846e-8
-1.449, 7.774e-8
-1.448, 1.448e-7
-1.447, 1.241e-7
-1.446, 4.617e-8
-1.445, 2.841e-8
-1.444, 1.263e-8
-1.443, 1.362e-8
-1.442, 1.953e-8
-1.441, -5.347e-8
-1.440, -7.617e-8
-1.439, -6.038e-8
-1.438, -4.755e-8
-1.437, -4.459e-8
-1.436, -1.048e-7
-1.435, -1.541e-7
-1.434, -1.620e-7
-1.433, -1.176e-7
-1.432, -1.442e-7
-1.431, -2.044e-7
-1.430, -2.399e-7
-1.429, -1.817e-7
-1.428, -1.600e-7
-1.427, -2.301e-7
-1.426, -2.804e-7
-1.425, -3.051e-7
-1.424, -2.912e-7
-1.423, -2.232e-7
-1.422, -2.538e-7
-1.421, -2.922e-7
-1.420, -3.712e-7
-1.419, -3.544e-7
-1.418, -3.090e-7
-1.417, -3.041e-7
-1.416, -3.573e-7
-1.415, -3.968e-7
-1.414, -4.096e-7
-1.413, -3.820e-7
-1.412, -3.761e-7
-1.411, -4.195e-7
-1.410, -4.905e-7
-1.409, -4.738e-7
-1.408, -4.343e-7
-1.407, -4.333e-7
-1.406, -4.895e-7
-1.405, -5.083e-7
-1.404, -5.004e-7
-1.403, -4.570e-7
-1.402, -4.639e-7
-1.401, -5.241e-7
-1.400, -5.448e-7
-1.399, -5.764e-7
-1.398, -5.004e-7
-1.397, -5.379e-7
-1.396, -5.695e-7
-1.395, -6.139e-7
-1.394, -5.892e-7
-1.393, -5.724e-7
-1.392, -5.951e-7
-1.391, -6.257e-7
-1.390, -6.533e-7
-1.389, -6.553e-7
-1.388, -5.931e-7
-1.387, -6.366e-7
-1.386, -6.287e-7
-1.385, -6.928e-7
-1.384, -6.967e-7
-1.383, -6.168e-7
-1.382, -6.997e-7
-1.381, -6.938e-7
-1.380, -7.461e-7
-1.379, -7.115e-7
-1.378, -6.671e-7
-1.377, -7.135e-7
-1.376, -7.678e-7
-1.375, -7.757e-7
-1.374, -7.263e-7
-1.373, -7.007e-7
-1.372, -7.441e-7
-1.371, -7.480e-7
-1.370, -7.924e-7
-1.369, -7.865e-7
-1.368, -7.273e-7
-1.367, -7.737e-7
-1.366, -8.102e-7
-1.365, -8.319e-7
-1.364, -8.329e-7
-1.363, -7.944e-7
-1.362, -8.201e-7
-1.361, -8.339e-7
-1.360, -8.605e-7
-1.359, -8.635e-7
-1.358, -8.427e-7
-1.357, -8.250e-7
-1.356, -8.506e-7
-1.355, -9.079e-7
-1.354, -8.704e-7
-1.353, -8.852e-7
-1.352, -8.467e-7
-1.351, -8.743e-7
-1.350, -9.375e-7
-1.349, -9.276e-7
-1.348, -8.871e-7
-1.347, -8.970e-7
-1.346, -9.394e-7
-1.345, -9.750e-7
-1.344, -9.552e-7
-1.343, -9.217e-7
-1.342, -9.325e-7
-1.341, -9.690e-7
-1.340, -9.858e-7
-1.339, -1.006e-6
-1.338, -9.523e-7
-1.337, -9.631e-7
-1.336, -1.008e-6
-1.335, -1.056e-6
-1.334, -1.036e-6
-1.333, -9.799e-7
-1.332, -1.007e-6
-1.331, -1.076e-6
-1.330, -1.061e-6
-1.329, -1.072e-6
-1.328, -9.947e-7
-1.327, -1.028e-6
-1.326, -1.063e-6
-1.325, -1.136e-6
-1.324, -1.103e-6
-1.323, -1.009e-6
-1.322, -1.055e-6
-1.321, -1.133e-6
-1.320, -1.138e-6
-1.319, -1.132e-6
-1.318, -1.082e-6
-1.317, -1.128e-6
-1.316, -1.144e-6
-1.315, -1.188e-6
-1.314, -1.168e-6
-1.313, -1.145e-6
-1.312, -1.139e-6
-1.311, -1.190e-6
-1.310, -1.240e-6
-1.309, -1.183e-6
-1.308, -1.139e-6
-1.307, -1.202e-6
-1.306, -1.203e-6
-1.305, -1.288e-6
-1.304, -1.232e-6
-1.303, -1.201e-6
-1.302, -1.208e-6
-1.301, -1.238e-6
-1.300, -1.327e-6
-1.299, -1.257e-6
-1.298, -1.229e-6
-1.297, -1.242e-6
-1.296, -1.307e-6
-1.295, -1.346e-6
-1.294, -1.332e-6
-1.293, -1.297e-6
-1.292, -1.313e-6
-1.291, -1.352e-6
-1.290, -1.387e-6
-1.289, -1.337e-6
-1.288, -1.315e-6
-1.287, -1.338e-6
-1.286, -1.383e-6
-1.285, -1.445e-6
-1.284, -1.417e-6
-1.283, -1.380e-6
-1.282, -1.369e-6
-1.281, -1.432e-6
-1.280, -1.450e-6
-1.279, -1.447e-6
-1.278, -1.422e-6
-1.277, -1.442e-6
-1.276, -1.462e-6
-1.275, -1.520e-6
-1.274, -1.517e-6
-1.273, -1.447e-6
-1.272, -1.493e-6
-1.271, -1.534e-6
-1.270, -1.575e-6
-1.269, -1.541e-6
-1.268, -1.476e-6
-1.267, -1.547e-6
-1.266, -1.560e-6
-1.265, -1.616e-6
-1.264, -1.581e-6
-1.263, -1.567e-6
-1.262, -1.593e-6
-1.261, -1.576e-6
-1.260, -1.648e-6
-1.259, -1.647e-6
-1.258, -1.612e-6
-1.257, -1.605e-6
-1.256, -1.651e-6
-1.255, -1.702e-6
-1.254, -1.671e-6
-1.253, -1.620e-6
-1.252, -1.653e-6
-1.251, -1.704e-6
-1.250, -1.741e-6
-1.249, -1.722e-6
-1.248, -1.673e-6
-1.247, -1.675e-6
-1.246, -1.737e-6
-1.245, -1.784e-6
-1.244, -1.752e-6
-1.243, -1.688e-6
-1.242, -1.718e-6
-1.241, -1.767e-6
-1.240, -1.800e-6
-1.239, -1.792e-6
-1.238, -1.765e-6
-1.237, -1.797e-6
-1.236, -1.801e-6
-1.235, -1.848e-6
-1.234, -1.834e-6
-1.233, -1.801e-6
-1.232, -1.826e-6
-1.231, -1.836e-6
-1.230, -1.855e-6
-1.229, -1.875e-6
-1.228, -1.824e-6
-1.227, -1.854e-6
-1.226, -1.904e-6
-1.225, -1.897e-6
-1.224, -1.895e-6
-1.223, -1.840e-6
-1.222, -1.885e-6
-1.221, -1.912e-6
-1.220, -1.933e-6
-1.219, -1.949e-6
-1.218, -1.899e-6
-1.217, -1.936e-6
-1.216, -1.972e-6
-1.215, -1.999e-6
-1.214, -1.973e-6
-1.213, -1.973e-6
-1.212, -1.980e-6
-1.211, -1.981e-6
-1.210, -2.020e-6
-1.209, -2.006e-6
-1.208, -1.931e-6
-1.207, -1.997e-6
-1.206, -2.038e-6
-1.205, -2.075e-6
-1.204, -2.052e-6
-1.203, -2.003e-6
-1.202, -2.032e-6
-1.201, -2.066e-6
-1.200, -2.099e-6
-1.199, -2.046e-6
-1.198, -1.999e-6
-1.197, -2.040e-6
-1.196, -2.103e-6
-1.195, -2.108e-6
-1.194, -2.089e-6
-1.193, -2.032e-6
-1.192, -2.084e-6
-1.191, -2.135e-6
-1.190, -2.116e-6
-1.189, -2.122e-6
-1.188, -2.086e-6
-1.187, -2.096e-6
-1.186, -2.180e-6
-1.185, -2.169e-6
-1.184, -2.184e-6
-1.183, -2.117e-6
-1.182, -2.144e-6
-1.181, -2.147e-6
-1.180, -2.212e-6
-1.179, -2.150e-6
-1.178, -2.146e-6
-1.177, -2.178e-6
-1.176, -2.216e-6
-1.175, -2.220e-6
-1.174, -2.226e-6
-1.173, -2.171e-6
-1.172, -2.184e-6
-1.171, -2.245e-6
-1.170, -2.249e-6
-1.169, -2.256e-6
-1.168, -2.184e-6
-1.167, -2.211e-6
-1.166, -2.267e-6
-1.165, -2.277e-6
-1.164, -2.255e-6
-1.163, -2.247e-6
-1.162, -2.227e-6
-1.161, -2.292e-6
-1.160, -2.289e-6
-1.159, -2.296e-6
-1.158, -2.255e-6
-1.157, -2.262e-6
-1.156, -2.320e-6
-1.155, -2.333e-6
-1.154, -2.333e-6
-1.153, -2.290e-6
-1.152, -2.269e-6
-1.151, -2.333e-6
-1.150, -2.358e-6
-1.149, -2.341e-6
-1.148, -2.285e-6
-1.147, -2.308e-6
-1.146, -2.335e-6
-1.145, -2.389e-6
-1.144, -2.349e-6
-1.143, -2.305e-6
-1.142, -2.352e-6
-1.141, -2.387e-6
-1.140, -2.396e-6
-1.139, -2.370e-6
-1.138, -2.348e-6
-1.137, -2.377e-6
-1.136, -2.410e-6
-1.135, -2.439e-6
-1.134, -2.400e-6
-1.133, -2.365e-6
-1.132, -2.386e-6
-1.131, -2.423e-6
-1.130, -2.468e-6
-1.129, -2.399e-6
-1.128, -2.383e-6
-1.127, -2.385e-6
-1.126, -2.464e-6
-1.125, -2.455e-6
-1.124, -2.430e-6
-1.123, -2.415e-6
-1.122, -2.411e-6
-1.121, -2.457e-6
-1.120, -2.483e-6
-1.119, -2.456e-6
-1.118, -2.412e-6
-1.117, -2.442e-6
-1.116, -2.493e-6
-1.115, -2.485e-6
-1.114, -2.483e-6
-1.113, -2.455e-6
-1.112, -2.460e-6
-1.111, -2.529e-6
-1.110, -2.524e-6
-1.109, -2.510e-6
-1.108, -2.428e-6
-1.107, -2.499e-6
-1.106, -2.518e-6
-1.105, -2.571e-6
-1.104, -2.516e-6
-1.103, -2.481e-6
-1.102, -2.490e-6
-1.101, -2.538e-6
-1.100, -2.588e-6
-1.099, -2.555e-6
-1.098, -2.508e-6
-1.097, -2.531e-6
-1.096, -2.567e-6
-1.095, -2.595e-6
-1.094, -2.571e-6
-1.093, -2.510e-6
-1.092, -2.538e-6
-1.091, -2.585e-6
-1.090, -2.617e-6
-1.089, -2.576e-6
-1.088, -2.516e-6
-1.087, -2.556e-6
-1.086, -2.622e-6
-1.085, -2.618e-6
-1.084, -2.589e-6
-1.083, -2.560e-6
-1.082, -2.621e-6
-1.081, -2.634e-6
-1.080, -2.661e-6
-1.079, -2.617e-6
-1.078, -2.613e-6
-1.077, -2.617e-6
-1.076, -2.648e-6
-1.075, -2.709e-6
-1.074, -2.658e-6
-1.073, -2.628e-6
-1.072, -2.626e-6
-1.071, -2.697e-6
-1.070, -2.701e-6
-1.069, -2.664e-6
-1.068, -2.640e-6
-1.067, -2.682e-6
-1.066, -2.710e-6
-1.065, -2.727e-6
-1.064, -2.692e-6
-1.063, -2.673e-6
-1.062, -2.711e-6
-1.061, -2.737e-6
-1.060, -2.773e-6
-1.059, -2.733e-6
-1.058, -2.706e-6
-1.057, -2.724e-6
-1.056, -2.775e-6
-1.055, -2.778e-6
-1.054, -2.737e-6
-1.053, -2.721e-6
-1.052, -2.753e-6
-1.051, -2.827e-6
-1.050, -2.836e-6
-1.049, -2.808e-6
-1.048, -2.760e-6
-1.047, -2.777e-6
-1.046, -2.852e-6
-1.045, -2.841e-6
-1.044, -2.808e-6
-1.043, -2.789e-6
-1.042, -2.841e-6
-1.041, -2.888e-6
-1.040, -2.889e-6
-1.039, -2.842e-6
-1.038, -2.822e-6
-1.037, -2.844e-6
-1.036, -2.926e-6
-1.035, -2.933e-6
-1.034, -2.900e-6
-1.033, -2.876e-6
-1.032, -2.916e-6
-1.031, -2.929e-6
-1.030, -2.958e-6
-1.029, -2.937e-6
-1.028, -2.904e-6
-1.027, -2.931e-6
-1.026, -2.966e-6
-1.025, -2.966e-6
-1.024, -2.971e-6
-1.023, -2.978e-6
-1.022, -2.965e-6
-1.021, -3.027e-6
-1.020, -3.054e-6
-1.019, -3.047e-6
-1.018, -3.003e-6
-1.017, -3.007e-6
-1.016, -3.073e-6
-1.015, -3.070e-6
-1.014, -3.043e-6
-1.013, -3.019e-6
-1.012, -3.031e-6
-1.011, -3.085e-6
-1.010, -3.113e-6
-1.009, -3.087e-6
-1.008, -3.063e-6
-1.007, -3.080e-6
-1.006, -3.127e-6
-1.005, -3.152e-6
-1.004, -3.109e-6
-1.003, -3.092e-6
-1.002, -3.117e-6
-1.001, -3.196e-6
-1.000, -2.557e-6
-1.001, -2.170e-6
-1.002, -2.008e-6
-1.003, -1.892e-6
-1.004, -1.801e-6
-1.005, -1.721e-6
-1.006, -1.636e-6
-1.007, -1.488e-6
-1.008, -1.414e-6
-1.009, -1.396e-6
-1.010, -1.305e-6
-1.011, -1.236e-6
-1.012, -1.126e-6
-1.013, -1.067e-6
-1.014, -1.085e-6
-1.015, -1.015e-6
-1.016, -9.345e-7
-1.017, -8.526e-7
-1.018, -8.220e-7
-1.019, -8.368e-7
-1.020, -8.013e-7
-1.021, -7.155e-7
-1.022, -6.178e-7
-1.023, -6.395e-7
-1.024, -5.862e-7
-1.025, -5.655e-7
-1.026, -5.339e-7
-1.027, -4.649e-7
-1.028, -4.412e-7
-1.029, -4.461e-7
-1.030, -4.086e-7
-1.031, -3.297e-7
-1.032, -2.853e-7
-1.033, -2.824e-7
-1.034, -2.676e-7
-1.035, -2.607e-7
-1.036, -2.113e-7
-1.037, -1.590e-7
-1.038, -1.018e-7
-1.039, -1.600e-7
-1.040, -1.551e-7
-1.041, -8.603e-8
-1.042, -3.275e-8
-1.043, -1.894e-8
-1.044, -6.235e-8
-1.045, -5.446e-8
-1.046, 2.743e-8
-1.047, 6.294e-8
-1.048, 8.958e-8
-1.049, 3.927e-8
-1.050, 8.366e-8
-1.051, 1.360e-7
-1.052, 1.626e-7
-1.053, 1.498e-7
-1.054, 1.429e-7
-1.055, 1.586e-7
-1.056, 1.942e-7
-1.057, 2.425e-7
-1.058, 2.543e-7
-1.059, 2.030e-7
-1.060, 2.642e-7
-1.061, 3.056e-7
-1.062, 3.382e-7
-1.063, 3.510e-7
-1.064, 3.066e-7
-1.065, 3.303e-7
-1.066, 3.905e-7
-1.067, 4.083e-7
-1.068, 3.796e-7
-1.069, 3.767e-7
-1.070, 3.915e-7
-1.071, 4.418e-7
-1.072, 4.980e-7
-1.073, 4.625e-7
-1.074, 4.448e-7
-1.075, 4.497e-7
-1.076, 5.059e-7
-1.077, 5.483e-7
-1.078, 5.128e-7
-1.079, 5.168e-7
-1.080, 5.148e-7
-1.081, 5.454e-7
-1.082, 6.046e-7
-1.083, 5.651e-7
-1.084, 5.454e-7
-1.085, 5.908e-7
-1.086, 6.233e-7
-1.087, 6.677e-7
-1.088, 6.342e-7
-1.089, 6.352e-7
-1.090, 6.322e-7
-1.091, 6.815e-7
-1.092, 7.279e-7
-1.093, 6.954e-7
-1.094, 6.983e-7
-1.095, 6.825e-7
-1.096, 7.309e-7
-1.097, 7.851e-7
-1.098, 7.279e-7
-1.099, 7.072e-7
-1.100, 7.200e-7
-1.101, 7.782e-7
-1.102, 8.206e-7
-1.103, 7.851e-7
-1.104, 7.624e-7
-1.105, 7.624e-7
-1.106, 8.226e-7
-1.107, 8.424e-7
-1.108, 8.483e-7
-1.109, 8.147e-7
-1.110, 8.088e-7
-1.111, 8.650e-7
-1.112, 8.937e-7
-1.113, 8.887e-7
-1.114, 8.463e-7
-1.115, 8.443e-7
-1.116, 8.887e-7
-1.117, 9.055e-7
-1.118, 9.213e-7
-1.119, 8.838e-7
-1.120, 9.223e-7
-1.121, 9.282e-7
-1.122, 9.726e-7
-1.123, 9.598e-7
-1.124, 9.321e-7
-1.125, 9.479e-7
-1.126, 9.874e-7
-1.127, 9.963e-7
-1.128, 9.933e-7
-1.129, 9.736e-7
-1.130, 9.913e-7
-1.131, 9.953e-7
-1.132, 1.070e-6
-1.133, 1.031e-6
-1.134, 9.973e-7
-1.135, 9.992e-7
-1.136, 1.043e-6
-1.137, 1.121e-6
-1.138, 1.058e-6
-1.139, 1.059e-6
-1.140, 1.042e-6
-1.141, 1.102e-6
-1.142, 1.135e-6
-1.143, 1.104e-6
-1.144, 1.065e-6
-1.145, 1.063e-6
-1.146, 1.132e-6
-1.147, 1.152e-6
-1.148, 1.158e-6
-1.149, 1.107e-6
-1.150, 1.107e-6
-1.151, 1.178e-6
-1.152, 1.179e-6
-1.153, 1.196e-6
-1.154, 1.147e-6
-1.155, 1.140e-6
-1.156, 1.178e-6
-1.157, 1.217e-6
-1.158, 1.227e-6
-1.159, 1.196e-6
-1.160, 1.184e-6
-1.161, 1.216e-6
-1.162, 1.257e-6
-1.163, 1.212e-6
-1.164, 1.218e-6
-1.165, 1.247e-6
-1.166, 1.318e-6
-1.167, 1.285e-6
-1.168, 1.279e-6
-1.169, 1.257e-6
-1.170, 1.284e-6
-1.171, 1.312e-6
-1.172, 1.306e-6
-1.173, 1.301e-6
-1.174, 1.293e-6
-1.175, 1.290e-6
-1.176, 1.297e-6
-1.177, 1.361e-6
-1.178, 1.336e-6
-1.179, 1.293e-6
-1.180, 1.335e-6
-1.181, 1.365e-6
-1.182, 1.379e-6
-1.183, 1.383e-6
-1.184, 1.339e-6
-1.185, 1.340e-6
-1.186, 1.382e-6
-1.187, 1.410e-6
-1.188, 1.404e-6
-1.189, 1.357e-6
-1.190, 1.374e-6
-1.191, 1.412e-6
-1.192, 1.451e-6
-1.193, 1.420e-6
-1.194, 1.408e-6
-1.195, 1.414e-6
-1.196, 1.434e-6
-1.197, 1.497e-6
-1.198, 1.454e-6
-1.199, 1.439e-6
-1.200, 1.428e-6
-1.201, 1.494e-6
-1.202, 1.488e-6
-1.203, 1.485e-6
-1.204, 1.467e-6
-1.205, 1.448e-6
-1.206, 1.520e-6
-1.207, 1.546e-6
-1.208, 1.500e-6
-1.209, 1.487e-6
-1.210, 1.537e-6
-1.211, 1.552e-6
-1.212, 1.559e-6
-1.213, 1.550e-6
-1.214, 1.509e-6
-1.215, 1.521e-6
-1.216, 1.587e-6
-1.217, 1.585e-6
-1.218, 1.583e-6
-1.219, 1.528e-6
-1.220, 1.568e-6
-1.221, 1.639e-6
-1.222, 1.635e-6
-1.223, 1.632e-6
-1.224, 1.551e-6
-1.225, 1.593e-6
-1.226, 1.645e-6
-1.227, 1.651e-6
-1.228, 1.660e-6
-1.229, 1.617e-6
-1.230, 1.657e-6
-1.231, 1.674e-6
-1.232, 1.715e-6
-1.233, 1.681e-6
-1.234, 1.615e-6
-1.235, 1.676e-6
-1.236, 1.705e-6
-1.237, 1.736e-6
-1.238, 1.702e-6
-1.239, 1.674e-6
-1.240, 1.650e-6
-1.241, 1.725e-6
-1.242, 1.761e-6
-1.243, 1.742e-6
-1.244, 1.692e-6
-1.245, 1.733e-6
-1.246, 1.734e-6
-1.247, 1.803e-6
-1.248, 1.746e-6
-1.249, 1.716e-6
-1.250, 1.756e-6
-1.251, 1.777e-6
-1.252, 1.835e-6
-1.253, 1.779e-6
-1.254, 1.741e-6
-1.255, 1.780e-6
-1.256, 1.799e-6
-1.257, 1.870e-6
-1.258, 1.823e-6
-1.259, 1.769e-6
-1.260, 1.790e-6
-1.261, 1.849e-6
-1.262, 1.871e-6
-1.263, 1.854e-6
-1.264, 1.807e-6
-1.265, 1.819e-6
-1.266, 1.864e-6
-1.267, 1.886e-6
-1.268, 1.868e-6
-1.269, 1.843e-6
-1.270, 1.871e-6
-1.271, 1.913e-6
-1.272, 1.951e-6
-1.273, 1.912e-6
-1.274, 1.878e-6
-1.275, 1.835e-6
-1.276, 1.936e-6
-1.277, 1.962e-6
-1.278, 1.907e-6
-1.279, 1.847e-6
-1.280, 1.900e-6
-1.281, 1.957e-6
-1.282, 1.998e-6
-1.283, 1.965e-6
-1.284, 1.935e-6
-1.285, 1.931e-6
-1.286, 1.994e-6
-1.287, 2.016e-6
-1.288, 1.991e-6
-1.289, 1.933e-6
-1.290, 1.982e-6
-1.291, 1.990e-6
-1.292, 2.015e-6
-1.293, 2.010e-6
-1.294, 1.975e-6
-1.295, 1.982e-6
-1.296, 2.003e-6
-1.297, 2.039e-6
-1.298, 2.025e-6
-1.299, 1.981e-6
-1.300, 2.021e-6
-1.301, 2.015e-6
-1.302, 2.092e-6
-1.303, 2.038e-6
-1.304, 2.016e-6
-1.305, 2.055e-6
-1.306, 2.055e-6
-1.307, 2.142e-6
-1.308, 2.054e-6
-1.309, 2.045e-6
-1.310, 2.051e-6
-1.311, 2.113e-6
-1.312, 2.113e-6
-1.313, 2.073e-6
-1.314, 2.071e-6
-1.315, 2.083e-6
-1.316, 2.111e-6
-1.317, 2.152e-6
-1.318, 2.086e-6
-1.319, 2.098e-6
-1.320, 2.114e-6
-1.321, 2.147e-6
-1.322, 2.181e-6
-1.323, 2.136e-6
-1.324, 2.097e-6
-1.325, 2.108e-6
-1.326, 2.148e-6
-1.327, 2.181e-6
-1.328, 2.179e-6
-1.329, 2.122e-6
-1.330, 2.142e-6
-1.331, 2.175e-6
-1.332, 2.225e-6
-1.333, 2.196e-6
-1.334, 2.158e-6
-1.335, 2.165e-6
-1.336, 2.205e-6
-1.337, 2.219e-6
-1.338, 2.205e-6
-1.339, 2.154e-6
-1.340, 2.166e-6
-1.341, 2.225e-6
-1.342, 2.239e-6
-1.343, 2.252e-6
-1.344, 2.181e-6
-1.345, 2.203e-6
-1.346, 2.267e-6
-1.347, 2.271e-6
-1.348, 2.266e-6
-1.349, 2.221e-6
-1.350, 2.215e-6
-1.351, 2.262e-6
-1.352, 2.290e-6
-1.353, 2.216e-6
-1.354, 2.215e-6
-1.355, 2.219e-6
-1.356, 2.264e-6
-1.357, 2.327e-6
-1.358, 2.301e-6
-1.359, 2.255e-6
-1.360, 2.268e-6
-1.361, 2.305e-6
-1.362, 2.359e-6
-1.363, 2.310e-6
-1.364, 2.273e-6
-1.365, 2.265e-6
-1.366, 2.337e-6
-1.367, 2.386e-6
-1.368, 2.328e-6
-1.369, 2.299e-6
-1.370, 2.328e-6
-1.371, 2.321e-6
-1.372, 2.407e-6
-1.373, 2.376e-6
-1.374, 2.345e-6
-1.375, 2.320e-6
-1.376, 2.375e-6
-1.377, 2.402e-6
-1.378, 2.369e-6
-1.379, 2.347e-6
-1.380, 2.377e-6
-1.381, 2.396e-6
-1.382, 2.408e-6
-1.383, 2.409e-6
-1.384, 2.384e-6
-1.385, 2.382e-6
-1.386, 2.453e-6
-1.387, 2.483e-6
-1.388, 2.431e-6
-1.389, 2.402e-6
-1.390, 2.395e-6
-1.391, 2.451e-6
-1.392, 2.442e-6
-1.393, 2.458e-6
-1.394, 2.420e-6
-1.395, 2.422e-6
-1.396, 2.477e-6
-1.397, 2.468e-6
-1.398, 2.449e-6
-1.399, 2.412e-6
-1.400, 2.466e-6
-1.401, 2.484e-6
-1.402, 2.540e-6
-1.403, 2.517e-6
-1.404, 2.487e-6
-1.405, 2.483e-6
-1.406, 2.524e-6
-1.407, 2.571e-6
-1.408, 2.567e-6
-1.409, 2.521e-6
-1.410, 2.573e-6
-1.411, 2.576e-6
-1.412, 2.605e-6
-1.413, 2.568e-6
-1.414, 2.545e-6
-1.415, 2.574e-6
-1.416, 2.622e-6
-1.417, 2.621e-6
-1.418, 2.624e-6
-1.419, 2.602e-6
-1.420, 2.591e-6
-1.421, 2.672e-6
-1.422, 2.686e-6
-1.423, 2.663e-6
-1.424, 2.630e-6
-1.425, 2.656e-6
-1.426, 2.704e-6
-1.427, 2.770e-6
-1.428, 2.695e-6
-1.429, 2.710e-6
-1.430, 2.698e-6
-1.431, 2.776e-6
-1.432, 2.769e-6
-1.433, 2.755e-6
-1.434, 2.760e-6
-1.435, 2.737e-6
-1.436, 2.824e-6
-1.437, 2.870e-6
-1.438, 2.826e-6
-1.439, 2.815e-6
-1.440, 2.801e-6
-1.441, 2.896e-6
-1.442, 2.895e-6
-1.443, 2.888e-6
-1.444, 2.890e-6
-1.445, 2.881e-6
-1.446, 2.934e-6
-1.447, 2.985e-6
-1.448, 2.991e-6
-1.449, 2.942e-6
-1.450, 2.996e-6
-1.451, 3.006e-6
-1.452, 3.044e-6
-1.453, 3.064e-6
-1.454, 3.009e-6
-1.455, 3.078e-6
-1.456, 3.082e-6
-1.457, 3.120e-6
-1.458, 3.132e-6
-1.459, 3.106e-6
-1.460, 3.133e-6
-1.461, 3.210e-6
-1.462, 3.238e-6
-1.463, 3.203e-6
-1.464, 3.215e-6
-1.465, 3.263e-6
-1.466, 3.313e-6
-1.467, 3.340e-6
-1.468, 3.293e-6
-1.469, 3.314e-6
-1.470, 3.347e-6
-1.471, 3.434e-6
-1.472, 3.467e-6
-1.473, 3.435e-6
-1.474, 3.433e-6
-1.475, 3.460e-6
-1.476, 3.532e-6
-1.477, 3.605e-6
-1.478, 3.584e-6
-1.479, 3.578e-6
-1.480, 3.600e-6
-1.481, 3.653e-6
-1.482, 3.732e-6
-1.483, 3.747e-6
-1.484, 3.713e-6
-1.485, 3.737e-6
-1.486, 3.837e-6
-1.487, 3.895e-6
-1.488, 3.898e-6
-1.489, 3.885e-6
-1.490, 3.906e-6
-1.491, 3.989e-6
-1.492, 4.085e-6
-1.493, 4.071e-6
-1.494, 4.070e-6
-1.495, 4.113e-6
-1.496, 4.165e-6
-1.497, 4.253e-6
-1.498, 4.300e-6
-1.499, 4.265e-6
-1.500, 4.325e-6
-1.501, 4.399e-6
-1.502, 4.498e-6
-1.503, 4.544e-6
-1.504, 4.466e-6
-1.505, 4.555e-6
-1.506, 4.666e-6
-1.507, 4.741e-6
-1.508, 4.771e-6
-1.509, 4.778e-6
-1.510, 4.854e-6
-1.511, 4.929e-6
-1.512, 5.028e-6
-1.513, 5.040e-6
-1.514, 5.079e-6
-1.515, 5.130e-6
-1.516, 5.229e-6
-1.517, 5.328e-6
-1.518, 5.345e-6
-1.519, 5.377e-6
-1.520, 5.482e-6
-1.521, 5.551e-6
-1.522, 5.685e-6
-1.523, 5.699e-6
-1.524, 5.773e-6
-1.525, 5.906e-6
-1.526, 5.987e-6
-1.527, 6.060e-6
-1.528, 6.111e-6
-1.529, 6.162e-6
-1.530, 6.256e-6
-1.531, 6.382e-6
-1.532, 6.482e-6
-1.533, 6.535e-6
-1.534, 6.625e-6
-1.535, 6.744e-6
-1.536, 6.879e-6
-1.537, 6.998e-6
-1.538, 7.086e-6
-1.539, 7.204e-6
-1.540, 7.264e-6
-1.541, 7.468e-6
-1.542, 7.566e-6
-1.543, 7.657e-6
-1.544, 7.750e-6
-1.545, 7.864e-6
-1.546, 8.049e-6
-1.547, 8.138e-6
-1.548, 8.287e-6
-1.549, 8.439e-6
-1.550, 8.608e-6
-1.551, 8.760e-6
-1.552, 8.945e-6
-1.553, 9.051e-6
-1.554, 9.162e-6
-1.555, 9.311e-6
-1.556, 9.515e-6
-1.557, 9.703e-6
-1.558, 9.879e-6
-1.559, 9.970e-6
-1.560, 1.020e-5
-1.561, 1.041e-5
-1.562, 1.064e-5
-1.563, 1.079e-5
-1.564, 1.099e-5
-1.565, 1.119e-5
-1.566, 1.143e-5
-1.567, 1.167e-5
-1.568, 1.186e-5
-1.569, 1.205e-5
-1.570, 1.232e-5
-1.571, 1.256e-5
-1.572, 1.285e-5
-1.573, 1.305e-5
-1.574, 1.330e-5
-1.575, 1.357e-5
-1.576, 1.386e-5
-1.577, 1.416e-5
-1.578, 1.445e-5
-1.579, 1.467e-5
-1.580, 1.503e-5
-1.581, 1.538e-5
-1.582, 1.575e-5
-1.583, 1.606e-5
-1.584, 1.639e-5
-1.585, 1.673e-5
-1.586, 1.717e-5
-1.587, 1.758e-5
-1.588, 1.792e-5
-1.589, 1.834e-5
-1.590, 1.873e-5
-1.591, 1.922e-5
-1.592, 1.972e-5
-1.593, 2.014e-5
-1.594, 2.061e-5
-1.595, 2.112e-5
-1.596, 2.171e-5
-1.597, 2.226e-5
-1.598, 2.282e-5
-1.599, 2.334e-5
-1.600, 2.395e-5
-1.601, 2.463e-5
-1.602, 2.532e-5
-1.603, 2.595e-5
-1.604, 2.663e-5
-1.605, 2.732e-5
-1.606, 2.814e-5
-1.607, 2.888e-5
-1.608, 2.965e-5
-1.609, 3.040e-5
-1.610, 3.120e-5
-1.611, 3.210e-5
-1.612, 3.302e-5
-1.613, 3.388e-5
-1.614, 3.472e-5
-1.615, 3.564e-5
-1.616, 3.656e-5
-1.617, 3.757e-5
-1.618, 3.849e-5
-1.619, 3.940e-5
-1.620, 4.041e-5
-1.621, 4.147e-5
-1.622, 4.253e-5
-1.623, 4.354e-5
-1.624, 4.446e-5
-1.625, 4.552e-5
-1.626, 4.665e-5
-1.627, 4.775e-5
-1.628, 4.880e-5
-1.629, 4.983e-5
-1.630, 5.094e-5
-1.631, 5.209e-5
-1.632, 5.329e-5
-1.633, 5.445e-5
-1.634, 5.553e-5
-1.635, 5.671e-5
-1.636, 5.798e-5
-1.637, 5.927e-5
-1.638, 6.051e-5
-1.639, 6.176e-5
-1.640, 6.307e-5
-1.641, 6.443e-5
-1.642, 6.585e-5
-1.643, 6.719e-5
-1.644, 6.823e-5
-1.645, 6.964e-5
-1.646, 7.108e-5
-1.647, 7.258e-5
-1.648, 7.405e-5
-1.649, 7.548e-5
-1.650, 7.699e-5
-1.651, 7.855e-5
-1.652, 8.018e-5
-1.653, 8.179e-5
-1.654, 8.335e-5
-1.655, 8.504e-5
-1.656, 8.677e-5
-1.657, 8.854e-5
-1.658, 9.033e-5
-1.659, 9.199e-5
-1.660, 9.385e-5
-1.661, 9.573e-5
-1.662, 9.761e-5
-1.663, 9.915e-5
-1.664, 1.010e-4
-1.665, 1.029e-4
-1.666, 1.049e-4
-1.667, 1.069e-4
-1.668, 1.089e-4
-1.669, 1.109e-4
-1.670, 1.129e-4
-1.671, 1.150e-4
-1.672, 1.171e-4
-1.673, 1.192e-4
-1.674, 1.213e-4
-1.675, 1.235e-4
-1.676, 1.258e-4
-1.677, 1.281e-4
-1.678, 1.304e-4
-1.679, 1.327e-4
-1.680, 1.350e-4
-1.681, 1.375e-4
-1.682, 1.400e-4
-1.683, 1.424e-4
-1.684, 1.449e-4
-1.685, 1.474e-4
-1.686, 1.502e-4
-1.687, 1.530e-4
-1.688, 1.556e-4
-1.689, 1.582e-4
-1.690, 1.612e-4
-1.691, 1.641e-4
-1.692, 1.670e-4
-1.693, 1.697e-4
-1.694, 1.727e-4
-1.695, 1.756e-4
-1.696, 1.786e-4
-1.697, 1.817e-4
-1.698, 1.847e-4
-1.699, 1.878e-4
-1.700, 1.909e-4
-1.701, 1.942e-4
-1.702, 1.975e-4
-1.703, 2.009e-4
-1.704, 2.042e-4
-1.705, 2.076e-4
-1.706, 2.112e-4
-1.707, 2.149e-4
-1.708, 2.184e-4
-1.709, 2.220e-4
-1.710, 2.256e-4
-1.711, 2.294e-4
-1.712, 2.333e-4
-1.713, 2.373e-4
-1.714, 2.412e-4
-1.715, 2.453e-4
-1.716, 2.496e-4
-1.717, 2.538e-4
-1.718, 2.580e-4
-1.719, 2.623e-4
-1.720, 2.666e-4
-1.721, 2.712e-4
-1.722, 2.759e-4
-1.723, 2.806e-4
-1.724, 2.854e-4
-1.725, 2.903e-4
-1.726, 2.955e-4
-1.727, 3.006e-4
-1.728, 3.060e-4
-1.729, 3.112e-4
-1.730, 3.158e-4
-1.731, 3.212e-4
-1.732, 3.268e-4
-1.733, 3.326e-4
-1.734, 3.385e-4
-1.735, 3.444e-4
-1.736, 3.504e-4
-1.737, 3.567e-4
-1.738, 3.631e-4
-1.739, 3.695e-4
-1.740, 3.762e-4
-1.741, 3.830e-4
-1.742, 3.900e-4
-1.743, 3.971e-4
-1.744, 4.041e-4
-1.745, 4.116e-4
-1.746, 4.192e-4
-1.747, 4.270e-4
-1.748, 4.349e-4
-1.749, 4.428e-4
-1.750, 4.513e-4
-1.751, 4.603e-4
-1.752, 4.699e-4
-1.753, 4.783e-4
-1.754, 4.860e-4
-1.755, 4.954e-4
-1.756, 5.051e-4
-1.757, 5.140e-4
-1.758, 5.242e-4
-1.759, 5.341e-4
-1.760, 5.444e-4
-1.761, 5.551e-4
-1.762, 5.661e-4
-1.763, 5.771e-4
-1.764, 5.885e-4
-1.765, 5.999e-4
-1.766, 6.126e-4
-1.767, 6.246e-4
-1.768, 6.379e-4
-1.769, 6.496e-4
-1.770, 6.622e-4
-1.771, 6.756e-4
-1.772, 6.892e-4
-1.773, 7.029e-4
-1.774, 7.171e-4
-1.775, 7.318e-4
-1.776, 7.475e-4
-1.777, 7.637e-4
-1.778, 7.795e-4
-1.779, 7.945e-4
-1.780, 8.112e-4
-1.781, 8.284e-4
-1.782, 8.457e-4
-1.783, 8.640e-4
-1.784, 8.824e-4
-1.785, 9.002e-4
-1.786, 9.185e-4
-1.787, 9.379e-4
-1.788, 9.588e-4
-1.789, 9.789e-4
-1.790, 9.993e-4
-1.791, 1.021e-3
-1.792, 1.044e-3
-1.793, 1.067e-3
-1.794, 1.089e-3
-1.795, 1.112e-3
-1.796, 1.136e-3
-1.797, 1.160e-3
-1.798, 1.186e-3
-1.799, 1.212e-3
-1.800, 1.237e-3
-1.801, 1.264e-3
-1.802, 1.292e-3
-1.803, 1.321e-3
-1.804, 1.349e-3
-1.805, 1.378e-3
-1.806, 1.409e-3
-1.807, 1.440e-3
-1.808, 1.470e-3
-1.809, 1.504e-3
-1.810, 1.536e-3
-1.811, 1.568e-3
-1.812, 1.603e-3
-1.813, 1.638e-3
-1.814, 1.674e-3
-1.815, 1.709e-3
-1.816, 1.747e-3
-1.817, 1.785e-3
-1.818, 1.823e-3
-1.819, 1.862e-3
-1.820, 1.902e-3
-1.821, 1.941e-3
-1.822, 1.983e-3
-1.823, 2.026e-3
-1.824, 2.064e-3
-1.825, 2.112e-3
-1.826, 2.156e-3
-1.827, 2.197e-3
-1.828, 2.245e-3
-1.829, 2.291e-3
-1.830, 2.335e-3
-1.831, 2.385e-3
-1.832, 2.432e-3
-1.833, 2.482e-3
-1.834, 2.532e-3
-1.835, 2.581e-3
-1.836, 2.630e-3
-1.837, 2.684e-3
-1.838, 2.736e-3
-1.839, 2.791e-3
-1.840, 2.840e-3
-1.841, 2.895e-3
-1.842, 2.952e-3
-1.843, 3.003e-3
-1.844, 3.060e-3
-1.845, 3.117e-3
-1.846, 3.169e-3
-1.847, 3.233e-3
-1.848, 3.288e-3
-1.849, 3.340e-3
-1.850, 3.407e-3
-1.851, 3.464e-3
-1.852, 3.525e-3
-1.853, 3.588e-3
-1.854, 3.649e-3
-1.855, 3.702e-3
-1.856, 3.764e-3
-1.857, 3.827e-3
-1.858, 3.889e-3
-1.859, 3.951e-3
-1.860, 4.012e-3
-1.861, 4.080e-3
-1.862, 4.148e-3
-1.863, 4.214e-3
-1.864, 4.275e-3
-1.865, 4.343e-3
-1.866, 4.401e-3
-1.867, 4.469e-3
-1.868, 4.537e-3
-1.869, 4.595e-3
-1.870, 4.666e-3
-1.871, 4.738e-3
-1.872, 4.800e-3
-1.873, 4.870e-3
-1.874, 4.928e-3
-1.875, 5.008e-3
-1.876, 5.083e-3
-1.877, 5.139e-3
-1.878, 5.210e-3
-1.879, 5.284e-3
-1.880, 5.341e-3
-1.881, 5.411e-3
-1.882, 5.489e-3
-1.883, 5.553e-3
-1.884, 5.626e-3
-1.885, 5.679e-3
-1.886, 5.768e-3
-1.887, 5.840e-3
-1.888, 5.895e-3
-1.889, 5.971e-3
-1.890, 6.035e-3
-1.891, 6.107e-3
-1.892, 6.176e-3
-1.893, 6.266e-3
-1.894, 6.337e-3
-1.895, 6.389e-3
-1.896, 6.448e-3
-1.897, 6.544e-3
-1.898, 6.623e-3
-1.899, 6.680e-3
-1.900, 6.703e-3
-1.899, 6.659e-3
-1.898, 6.577e-3
-1.897, 6.509e-3
-1.896, 6.449e-3
-1.895, 6.387e-3
-1.894, 6.319e-3
-1.893, 6.257e-3
-1.892, 6.199e-3
-1.891, 6.131e-3
-1.890, 6.066e-3
-1.889, 6.002e-3
-1.888, 5.933e-3
-1.887, 5.875e-3
-1.886, 5.812e-3
-1.885, 5.750e-3
-1.884, 5.695e-3
-1.883, 5.630e-3
-1.882, 5.571e-3
-1.881, 5.504e-3
-1.880, 5.443e-3
-1.879, 5.384e-3
-1.878, 5.327e-3
-1.877, 5.265e-3
-1.876, 5.204e-3
-1.875, 5.147e-3
-1.874, 5.082e-3
-1.873, 5.013e-3
-1.872, 4.958e-3
-1.871, 4.899e-3
-1.870, 4.836e-3
-1.869, 4.768e-3
-1.868, 4.719e-3
-1.867, 4.667e-3
-1.866, 4.607e-3
-1.865, 4.552e-3
-1.864, 4.487e-3
-1.863, 4.433e-3
-1.862, 4.382e-3
-1.861, 4.323e-3
-1.860, 4.264e-3
-1.859, 4.206e-3
-1.858, 4.153e-3
-1.857, 4.107e-3
-1.856, 4.049e-3
-1.855, 3.994e-3
-1.854, 3.944e-3
-1.853, 3.891e-3
-1.852, 3.836e-3
-1.851, 3.788e-3
-1.850, 3.741e-3
-1.849, 3.689e-3
-1.848, 3.642e-3
-1.847, 3.591e-3
-1.846, 3.546e-3
-1.845, 3.507e-3
-1.844, 3.454e-3
-1.843, 3.405e-3
-1.842, 3.362e-3
-1.841, 3.322e-3
-1.840, 3.272e-3
-1.839, 3.227e-3
-1.838, 3.183e-3
-1.837, 3.136e-3
-1.836, 3.089e-3
-1.835, 3.048e-3
-1.834, 3.007e-3
-1.833, 2.967e-3
-1.832, 2.927e-3
-1.831, 2.887e-3
-1.830, 2.848e-3
-1.829, 2.810e-3
-1.828, 2.771e-3
-1.827, 2.731e-3
-1.826, 2.691e-3
-1.825, 2.650e-3
-1.824, 2.614e-3
-1.823, 2.574e-3
-1.822, 2.536e-3
-1.821, 2.496e-3
-1.820, 2.458e-3
-1.819, 2.423e-3
-1.818, 2.391e-3
-1.817, 2.355e-3
-1.816, 2.319e-3
-1.815, 2.290e-3
-1.814, 2.253e-3
-1.813, 2.218e-3
-1.812, 2.184e-3
-1.811, 2.151e-3
-1.810, 2.119e-3
-1.809, 2.087e-3
-1.808, 2.056e-3
-1.807, 2.025e-3
-1.806, 1.993e-3
-1.805, 1.961e-3
-1.804, 1.931e-3
-1.803, 1.900e-3
-1.802, 1.871e-3
-1.801, 1.841e-3
-1.800, 1.812e-3
-1.799, 1.783e-3
-1.798, 1.754e-3
-1.797, 1.726e-3
-1.796, 1.698e-3
-1.795, 1.671e-3
-1.794, 1.645e-3
-1.793, 1.621e-3
-1.792, 1.592e-3
-1.791, 1.565e-3
-1.790, 1.540e-3
-1.789, 1.516e-3
-1.788, 1.492e-3
-1.787, 1.466e-3
-1.786, 1.440e-3
-1.785, 1.418e-3
-1.784, 1.395e-3
-1.783, 1.372e-3
-1.782, 1.348e-3
-1.781, 1.326e-3
-1.780, 1.305e-3
-1.779, 1.284e-3
-1.778, 1.262e-3
-1.777, 1.241e-3
-1.776, 1.219e-3
-1.775, 1.197e-3
-1.774, 1.177e-3
-1.773, 1.158e-3
-1.772, 1.139e-3
-1.771, 1.119e-3
-1.770, 1.099e-3
-1.769, 1.081e-3
-1.768, 1.064e-3
-1.767, 1.045e-3
-1.766, 1.026e-3
-1.765, 1.008e-3
-1.764, 9.914e-4
-1.763, 9.744e-4
-1.762, 9.579e-4
-1.761, 9.416e-4
-1.760, 9.253e-4
-1.759, 9.085e-4
-1.758, 8.928e-4
-1.757, 8.778e-4
-1.756, 8.627e-4
-1.755, 8.481e-4
-1.754, 8.337e-4
-1.753, 8.193e-4
-1.752, 8.056e-4
-1.751, 7.913e-4
-1.750, 7.779e-4
-1.749, 7.641e-4
-1.748, 7.507e-4
-1.747, 7.379e-4
-1.746, 7.250e-4
-1.745, 7.125e-4
-1.744, 7.004e-4
-1.743, 6.882e-4
-1.742, 6.760e-4
-1.741, 6.641e-4
-1.740, 6.522e-4
-1.739, 6.413e-4
-1.738, 6.303e-4
-1.737, 6.193e-4
-1.736, 6.076e-4
-1.735, 5.965e-4
-1.734, 5.859e-4
-1.733, 5.758e-4
-1.732, 5.656e-4
-1.731, 5.555e-4
-1.730, 5.458e-4
-1.729, 5.363e-4
-1.728, 5.269e-4
-1.727, 5.175e-4
-1.726, 5.078e-4
-1.725, 4.986e-4
-1.724, 4.896e-4
-1.723, 4.816e-4
-1.722, 4.730e-4
-1.721, 4.646e-4
-1.720, 4.563e-4
-1.719, 4.483e-4
-1.718, 4.407e-4
-1.717, 4.331e-4
-1.716, 4.249e-4
-1.715, 4.166e-4
-1.714, 4.091e-4
-1.713, 4.015e-4
-1.712, 3.943e-4
-1.711, 3.870e-4
-1.710, 3.800e-4
-1.709, 3.730e-4
-1.708, 3.661e-4
-1.707, 3.593e-4
-1.706, 3.525e-4
-1.705, 3.460e-4
-1.704, 3.396e-4
-1.703, 3.333e-4
-1.702, 3.271e-4
-1.701, 3.209e-4
-1.700, 3.154e-4
-1.699, 3.096e-4
-1.698, 3.037e-4
-1.697, 2.978e-4
-1.696, 2.921e-4
-1.695, 2.864e-4
-1.694, 2.809e-4
-1.693, 2.757e-4
-1.692, 2.703e-4
-1.691, 2.650e-4
-1.690, 2.597e-4
-1.689, 2.547e-4
-1.688, 2.499e-4
-1.687, 2.450e-4
-1.686, 2.403e-4
-1.685, 2.356e-4
-1.684, 2.308e-4
-1.683, 2.263e-4
-1.682, 2.218e-4
-1.681, 2.174e-4
-1.680, 2.129e-4
-1.679, 2.088e-4
-1.678, 2.047e-4
-1.677, 2.005e-4
-1.676, 1.965e-4
-1.675, 1.925e-4
-1.674, 1.887e-4
-1.673, 1.846e-4
-1.672, 1.808e-4
-1.671, 1.771e-4
-1.670, 1.735e-4
-1.669, 1.701e-4
-1.668, 1.666e-4
-1.667, 1.630e-4
-1.666, 1.594e-4
-1.665, 1.560e-4
-1.664, 1.528e-4
-1.663, 1.496e-4
-1.662, 1.465e-4
-1.661, 1.435e-4
-1.660, 1.404e-4
-1.659, 1.375e-4
-1.658, 1.347e-4
-1.657, 1.314e-4
-1.656, 1.285e-4
-1.655, 1.258e-4
-1.654, 1.231e-4
-1.653, 1.204e-4
-1.652, 1.178e-4
-1.651, 1.151e-4
-1.650, 1.125e-4
-1.649, 1.100e-4
-1.648, 1.076e-4
-1.647, 1.052e-4
-1.646, 1.027e-4
-1.645, 1.004e-4
-1.644, 9.815e-5
-1.643, 9.600e-5
-1.642, 9.375e-5
-1.641, 9.153e-5
-1.640, 8.935e-5
-1.639, 8.733e-5
-1.638, 8.524e-5
-1.637, 8.318e-5
-1.636, 8.115e-5
-1.635, 7.927e-5
-1.634, 7.749e-5
-1.633, 7.550e-5
-1.632, 7.367e-5
-1.631, 7.186e-5
-1.630, 7.003e-5
-1.629, 6.844e-5
-1.628, 6.672e-5
-1.627, 6.507e-5
-1.626, 6.342e-5
-1.625, 6.179e-5
-1.624, 6.034e-5
-1.623, 5.888e-5
-1.622, 5.737e-5
-1.621, 5.580e-5
-1.620, 5.440e-5
-1.619, 5.304e-5
-1.618, 5.174e-5
-1.617, 5.037e-5
-1.616, 4.903e-5
-1.615, 4.778e-5
-1.614, 4.657e-5
-1.613, 4.536e-5
-1.612, 4.415e-5
-1.611, 4.292e-5
-1.610, 4.182e-5
-1.609, 4.073e-5
-1.608, 3.972e-5
-1.607, 3.866e-5
-1.606, 3.751e-5
-1.605, 3.653e-5
-1.604, 3.558e-5
-1.603, 3.468e-5
-1.602, 3.373e-5
-1.601, 3.278e-5
-1.600, 3.193e-5
-1.599, 3.110e-5
-1.598, 3.018e-5
-1.597, 2.934e-5
-1.596, 2.851e-5
-1.595, 2.772e-5
-1.594, 2.697e-5
-1.593, 2.628e-5
-1.592, 2.547e-5
-1.591, 2.479e-5
-1.590, 2.409e-5
-1.589, 2.345e-5
-1.588, 2.284e-5
-1.587, 2.211e-5
-1.586, 2.152e-5
-1.585, 2.086e-5
-1.584, 2.032e-5
-1.583, 1.977e-5
-1.582, 1.919e-5
-1.581, 1.862e-5
-1.580, 1.808e-5
-1.579, 1.765e-5
-1.578, 1.714e-5
-1.577, 1.662e-5
-1.576, 1.611e-5
-1.575, 1.569e-5
-1.574, 1.531e-5
-1.573, 1.487e-5
-1.572, 1.440e-5
-1.571, 1.396e-5
-1.570, 1.356e-5
-1.569, 1.327e-5
-1.568, 1.286e-5
-1.567, 1.247e-5
-1.566, 1.208e-5
-1.565, 1.178e-5
-1.564, 1.148e-5
-1.563, 1.117e-5
-1.562, 1.081e-5
-1.561, 1.047e-5
-1.560, 1.022e-5
-1.559, 9.958e-6
-1.558, 9.703e-6
-1.557, 9.370e-6
-1.556, 9.019e-6
-1.555, 8.858e-6
-1.554, 8.605e-6
-1.553, 8.430e-6
-1.552, 8.104e-6
-1.551, 7.838e-6
-1.550, 7.663e-6
-1.549, 7.473e-6
-1.548, 7.290e-6
-1.547, 7.029e-6
-1.546, 6.804e-6
-1.545, 6.643e-6
-1.544, 6.510e-6
-1.543, 6.355e-6
-1.542, 6.099e-6
-1.541, 5.919e-6
-1.540, 5.753e-6
-1.539, 5.659e-6
-1.538, 5.510e-6
-1.537, 5.290e-6
-1.536, 5.112e-6
-1.535, 4.974e-6
-1.534, 4.913e-6
-1.533, 4.820e-6
-1.532, 4.623e-6
-1.531, 4.459e-6
-1.530, 4.330e-6
-1.529, 4.304e-6
-1.528, 4.177e-6
-1.527, 3.980e-6
-1.526, 3.882e-6
-1.525, 3.777e-6
-1.524, 3.704e-6
-1.523, 3.622e-6
-1.522, 3.481e-6
-1.521, 3.391e-6
-1.520, 3.241e-6
-1.519, 3.242e-6
-1.518, 3.139e-6
-1.517, 3.029e-6
-1.516, 2.885e-6
-1.515, 2.837e-6
-1.514, 2.814e-6
-1.513, 2.718e-6
-1.512, 2.613e-6
-1.511, 2.516e-6
-1.510, 2.428e-6
-1.509, 2.451e-6
-1.508, 2.388e-6
-1.507, 2.275e-6
-1.506, 2.201e-6
-1.505, 2.119e-6
-1.504, 2.132e-6
-1.503, 2.036e-6
-1.502, 1.967e-6
-1.501, 1.854e-6
-1.500, 1.821e-6
-1.499, 1.812e-6
-1.498, 1.728e-6
-1.497, 1.689e-6
-1.496, 1.613e-6
-1.495, 1.562e-6
-1.494, 1.539e-6
-1.493, 1.521e-6
-1.492, 1.435e-6
-1.491, 1.370e-6
-1.490, 1.369e-6
-1.489, 1.328e-6
-1.488, 1.316e-6
-1.487, 1.231e-6
-1.486, 1.145e-6
-1.485, 1.127e-6
-1.484, 1.153e-6
-1.483, 1.091e-6
-1.482, 1.009e-6
-1.481, 9.400e-7
-1.480, 9.361e-7
-1.479, 9.282e-7
-1.478, 9.075e-7
-1.477, 8.187e-7
-1.476, 8.039e-7
-1.475, 7.684e-7
-1.474, 7.970e-7
-1.473, 7.634e-7
-1.472, 6.954e-7
-1.471, 6.352e-7
-1.470, 6.204e-7
-1.469, 6.608e-7
-1.468, 6.371e-7
-1.467, 5.612e-7
-1.466, 4.763e-7
-1.465, 4.892e-7
-1.464, 4.941e-7
-1.463, 5.059e-7
-1.462, 4.300e-7
-1.461, 3.579e-7
-1.460, 3.796e-7
-1.459, 3.875e-7
-1.458, 3.648e-7
-1.457, 2.534e-7
-1.456, 2.593e-7
-1.455, 2.267e-7
-1.454, 2.731e-7
-1.453, 2.326e-7
-1.452, 1.399e-7
-1.451, 1.350e-7
-1.450, 1.626e-7
-1.449, 1.863e-7
-1.448, 1.626e-7
-1.447, 8.860e-8
-1.446, 5.308e-8
-1.445, 2.249e-8
-1.444, 1.172e-7
-1.443, 4.519e-8
-1.442, 1.756e-8
-1.441, -4.459e-8
-1.440, -3.275e-8
-1.439, -8.090e-9
-1.438, -2.782e-8
-1.437, -8.504e-8
-1.436, -1.452e-7
-1.435, -9.590e-8
-1.434, -1.166e-7
-1.433, -1.383e-7
-1.432, -1.344e-7
-1.431, -1.985e-7
-1.430, -1.659e-7
-1.429, -1.275e-7
-1.428, -1.936e-7
-1.427, -2.360e-7
-1.426, -2.824e-7
-1.425, -2.439e-7
-1.424, -2.360e-7
-1.423, -2.212e-7
-1.422, -3.129e-7
-1.421, -3.603e-7
-1.420, -3.317e-7
-1.419, -3.287e-7
-1.418, -3.110e-7
-1.417, -3.929e-7
-1.416, -3.554e-7
-1.415, -3.643e-7
-1.414, -3.800e-7
-1.413, -3.524e-7
-1.412, -4.294e-7
-1.411, -4.461e-7
-1.410, -4.718e-7
-1.409, -4.234e-7
-1.408, -4.077e-7
-1.407, -4.728e-7
-1.406, -5.063e-7
-1.405, -5.231e-7
-1.404, -4.590e-7
-1.403, -4.817e-7
-1.402, -5.122e-7
-1.401, -5.241e-7
-1.400, -5.537e-7
-1.399, -4.945e-7
-1.398, -5.300e-7
-1.397, -5.606e-7
-1.396, -5.833e-7
-1.395, -6.336e-7
-1.394, -5.379e-7
-1.393, -5.823e-7
-1.392, -6.237e-7
-1.391, -6.395e-7
-1.390, -6.237e-7
-1.389, -5.803e-7
-1.388, -6.139e-7
-1.387, -6.415e-7
-1.386, -6.533e-7
-1.385, -6.987e-7
-1.384, -5.912e-7
-1.383, -6.780e-7
-1.382, -7.046e-7
-1.381, -7.431e-7
-1.380, -7.273e-7
-1.379, -6.740e-7
-1.378, -6.967e-7
-1.377, -7.234e-7
-1.376, -7.569e-7
-1.375, -7.155e-7
-1.374, -7.263e-7
-1.373, -6.888e-7
-1.372, -7.293e-7
-1.371, -8.062e-7
-1.370, -7.826e-7
-1.369, -7.293e-7
-1.368, -7.421e-7
-1.367, -7.806e-7
-1.366, -8.497e-7
-1.365, -8.151e-7
-1.364, -7.747e-7
-1.363, -8.062e-7
-1.362, -8.447e-7
-1.361, -8.615e-7
-1.360, -8.319e-7
-1.359, -8.013e-7
-1.358, -8.003e-7
-1.357, -8.477e-7
-1.356, -8.950e-7
-1.355, -8.871e-7
-1.354, -8.437e-7
-1.353, -8.645e-7
-1.352, -9.000e-7
-1.351, -9.434e-7
-1.350, -9.503e-7
-1.349, -8.388e-7
-1.348, -8.862e-7
-1.347, -9.463e-7
-1.346, -9.542e-7
-1.345, -9.444e-7
-1.344, -8.950e-7
-1.343, -9.197e-7
-1.342, -9.611e-7
-1.341, -9.779e-7
-1.340, -9.611e-7
-1.339, -9.394e-7
-1.338, -9.641e-7
-1.337, -1.037e-6
-1.336, -1.049e-6
-1.335, -1.041e-6
-1.334, -9.967e-7
-1.333, -9.838e-7
-1.332, -1.006e-6
-1.331, -1.097e-6
-1.330, -1.032e-6
-1.329, -1.007e-6
-1.328, -1.025e-6
-1.327, -1.070e-6
-1.326, -1.103e-6
-1.325, -1.094e-6
-1.324, -1.024e-6
-1.323, -1.093e-6
-1.322, -1.121e-6
-1.321, -1.158e-6
-1.320, -1.121e-6
-1.319, -1.090e-6
-1.318, -1.125e-6
-1.317, -1.166e-6
-1.316, -1.198e-6
-1.315, -1.165e-6
-1.314, -1.116e-6
-1.313, -1.153e-6
-1.312, -1.208e-6
-1.311, -1.249e-6
-1.310, -1.208e-6
-1.309, -1.193e-6
-1.308, -1.182e-6
-1.307, -1.197e-6
-1.306, -1.284e-6
-1.305, -1.245e-6
-1.304, -1.223e-6
-1.303, -1.212e-6
-1.302, -1.247e-6
-1.301, -1.283e-6
-1.300, -1.271e-6
-1.299, -1.240e-6
-1.298, -1.276e-6
-1.297, -1.319e-6
-1.296, -1.355e-6
-1.295, -1.320e-6
-1.294, -1.303e-6
-1.293, -1.307e-6
-1.292, -1.353e-6
-1.291, -1.395e-6
-1.290, -1.358e-6
-1.289, -1.335e-6
-1.288, -1.351e-6
-1.287, -1.394e-6
-1.286, -1.445e-6
-1.285, -1.416e-6
-1.284, -1.367e-6
-1.283, -1.378e-6
-1.282, -1.455e-6
-1.281, -1.511e-6
-1.280, -1.470e-6
-1.279, -1.462e-6
-1.278, -1.457e-6
-1.277, -1.506e-6
-1.276, -1.524e-6
-1.275, -1.528e-6
-1.274, -1.464e-6
-1.273, -1.500e-6
-1.272, -1.558e-6
-1.271, -1.541e-6
-1.270, -1.543e-6
-1.269, -1.488e-6
-1.268, -1.492e-6
-1.267, -1.583e-6
-1.266, -1.610e-6
-1.265, -1.632e-6
-1.264, -1.560e-6
-1.263, -1.557e-6
-1.262, -1.631e-6
-1.261, -1.684e-6
-1.260, -1.647e-6
-1.259, -1.610e-6
-1.258, -1.597e-6
-1.257, -1.663e-6
-1.256, -1.679e-6
-1.255, -1.664e-6
-1.254, -1.658e-6
-1.253, -1.672e-6
-1.252, -1.717e-6
-1.251, -1.743e-6
-1.250, -1.717e-6
-1.249, -1.683e-6
-1.248, -1.722e-6
-1.247, -1.743e-6
-1.246, -1.785e-6
-1.245, -1.732e-6
-1.244, -1.690e-6
-1.243, -1.734e-6
-1.242, -1.797e-6
-1.241, -1.825e-6
-1.240, -1.799e-6
-1.239, -1.736e-6
-1.238, -1.744e-6
-1.237, -1.831e-6
-1.236, -1.854e-6
-1.235, -1.842e-6
-1.234, -1.792e-6
-1.233, -1.811e-6
-1.232, -1.862e-6
-1.231, -1.885e-6
-1.230, -1.875e-6
-1.229, -1.857e-6
-1.228, -1.836e-6
-1.227, -1.908e-6
-1.226, -1.931e-6
-1.225, -1.910e-6
-1.224, -1.877e-6
-1.223, -1.895e-6
-1.222, -1.941e-6
-1.221, -1.943e-6
-1.220, -1.927e-6
-1.219, -1.897e-6
-1.218, -1.929e-6
-1.217, -1.992e-6
-1.216, -1.974e-6
-1.215, -1.989e-6
-1.214, -1.950e-6
-1.213, -1.951e-6
-1.212, -2.023e-6
-1.211, -2.004e-6
-1.210, -1.983e-6
-1.209, -1.944e-6
-1.208, -1.993e-6
-1.207, -2.068e-6
-1.206, -2.047e-6
-1.205, -2.022e-6
-1.204, -1.995e-6
-1.203, -2.028e-6
-1.202, -2.071e-6
-1.201, -2.095e-6
-1.200, -2.051e-6
-1.199, -2.009e-6
-1.198, -2.052e-6
-1.197, -2.109e-6
-1.196, -2.112e-6
-1.195, -2.117e-6
-1.194, -2.047e-6
-1.193, -2.087e-6
-1.192, -2.112e-6
-1.191, -2.134e-6
-1.190, -2.141e-6
-1.189, -2.065e-6
-1.188, -2.096e-6
-1.187, -2.161e-6
-1.186, -2.177e-6
-1.185, -2.150e-6
-1.184, -2.094e-6
-1.183, -2.120e-6
-1.182, -2.151e-6
-1.181, -2.205e-6
-1.180, -2.169e-6
-1.179, -2.127e-6
-1.178, -2.172e-6
-1.177, -2.217e-6
-1.176, -2.266e-6
-1.175, -2.206e-6
-1.174, -2.174e-6
-1.173, -2.184e-6
-1.172, -2.249e-6
-1.171, -2.272e-6
-1.170, -2.220e-6
-1.169, -2.195e-6
-1.168, -2.193e-6
-1.167, -2.248e-6
-1.166, -2.295e-6
-1.165, -2.243e-6
-1.164, -2.214e-6
-1.163, -2.239e-6
-1.162, -2.287e-6
-1.161, -2.328e-6
-1.160, -2.278e-6
-1.159, -2.274e-6
-1.158, -2.243e-6
-1.157, -2.314e-6
-1.156, -2.346e-6
-1.155, -2.297e-6
-1.154, -2.256e-6
-1.153, -2.289e-6
-1.152, -2.361e-6
-1.151, -2.387e-6
-1.150, -2.336e-6
-1.149, -2.316e-6
-1.148, -2.270e-6
-1.147, -2.392e-6
-1.146, -2.374e-6
-1.145, -2.352e-6
-1.144, -2.315e-6
-1.143, -2.322e-6
-1.142, -2.395e-6
-1.141, -2.379e-6
-1.140, -2.363e-6
-1.139, -2.344e-6
-1.138, -2.347e-6
-1.137, -2.430e-6
-1.136, -2.433e-6
-1.135, -2.404e-6
-1.134, -2.386e-6
-1.133, -2.388e-6
-1.132, -2.450e-6
-1.131, -2.473e-6
-1.130, -2.420e-6
-1.129, -2.398e-6
-1.128, -2.387e-6
-1.127, -2.426e-6
-1.126, -2.470e-6
-1.125, -2.453e-6
-1.124, -2.383e-6
-1.123, -2.414e-6
-1.122, -2.462e-6
-1.121, -2.494e-6
-1.120, -2.489e-6
-1.119, -2.420e-6
-1.118, -2.453e-6
-1.117, -2.483e-6
-1.116, -2.498e-6
-1.115, -2.479e-6
-1.114, -2.455e-6
-1.113, -2.476e-6
-1.112, -2.505e-6
-1.111, -2.548e-6
-1.110, -2.512e-6
-1.109, -2.480e-6
-1.108, -2.481e-6
-1.107, -2.517e-6
-1.106, -2.567e-6
-1.105, -2.534e-6
-1.104, -2.504e-6
-1.103, -2.527e-6
-1.102, -2.523e-6
-1.101, -2.557e-6
-1.100, -2.548e-6
-1.099, -2.522e-6
-1.098, -2.526e-6
-1.097, -2.566e-6
-1.096, -2.589e-6
-1.095, -2.564e-6
-1.094, -2.558e-6
-1.093, -2.581e-6
-1.092, -2.606e-6
-1.091, -2.656e-6
-1.090, -2.604e-6
-1.089, -2.584e-6
-1.088, -2.554e-6
-1.087, -2.640e-6
-1.086, -2.657e-6
-1.085, -2.633e-6
-1.084, -2.582e-6
-1.083, -2.574e-6
-1.082, -2.679e-6
-1.081, -2.661e-6
-1.080, -2.632e-6
-1.079, -2.619e-6
-1.078, -2.623e-6
-1.077, -2.699e-6
-1.076, -2.677e-6
-1.075, -2.692e-6
-1.074, -2.664e-6
-1.073, -2.629e-6
-1.072, -2.699e-6
-1.071, -2.742e-6
-1.070, -2.704e-6
-1.069, -2.679e-6
-1.068, -2.670e-6
-1.067, -2.751e-6
-1.066, -2.743e-6
-1.065, -2.724e-6
-1.064, -2.697e-6
-1.063, -2.708e-6
-1.062, -2.790e-6
-1.061, -2.781e-6
-1.060, -2.747e-6
-1.059, -2.725e-6
-1.058, -2.740e-6
-1.057, -2.791e-6
-1.056, -2.794e-6
-1.055, -2.801e-6
-1.054, -2.749e-6
-1.053, -2.764e-6
-1.052, -2.829e-6
-1.051, -2.856e-6
-1.050, -2.852e-6
-1.049, -2.794e-6
-1.048, -2.809e-6
-1.047, -2.869e-6
-1.046, -2.878e-6
-1.045, -2.876e-6
-1.044, -2.823e-6
-1.043, -2.845e-6
-1.042, -2.879e-6
-1.041, -2.933e-6
-1.040, -2.878e-6
-1.039, -2.857e-6
-1.038, -2.867e-6
-1.037, -2.927e-6
-1.036, -2.962e-6
-1.035, -2.937e-6
-1.034, -2.911e-6
-1.033, -2.924e-6
-1.032, -2.967e-6
-1.031, -3.007e-6
-1.030, -2.964e-6
-1.029, -2.965e-6
-1.028, -2.939e-6
-1.027, -2.996e-6
-1.026, -3.032e-6
-1.025, -3.003e-6
-1.024, -2.991e-6
-1.023, -2.992e-6
-1.022, -3.043e-6
-1.021, -3.104e-6
-1.020, -3.040e-6
-1.019, -3.022e-6
-1.018, -3.051e-6
-1.017, -3.089e-6
-1.016, -3.115e-6
-1.015, -3.072e-6
-1.014, -3.046e-6
-1.013, -3.057e-6
-1.012, -3.124e-6
-1.011, -3.154e-6
-1.010, -3.117e-6
-1.009, -3.112e-6
-1.008, -3.107e-6
-1.007, -3.186e-6
-1.006, -3.189e-6
-1.005, -3.162e-6
-1.004, -3.147e-6
-1.003, -3.168e-6
-1.002, -3.206e-6
-1.001, -3.211e-6
