Potential V vs RHE, Current mA cm-2
0.013299999999999867,19.664487068124007
0.012299999999999978,18.05171618627787
0.011299999999999866,16.481386643427676
0.010299999999999976,14.995939778569388
0.009299999999999864,13.606693282101922
0.008299999999999974,12.166517178839316
0.007299999999999862,10.727755786876573
0.006299999999999972,9.287579683613965
0.00529999999999986,7.892674341947039
0.0042999999999999705,6.452498238684432
0.0032999999999998586,5.057592897017507
0.0022999999999999687,3.661272844050715
0.0012999999999998568,2.30880884137974
0.00029999999999996696,0.9573351366186703
-0.000700000000000145,-0.3947044526623452
-0.0017000000000000348,-1.6594563547416883
-0.0027000000000001467,-2.8803522065252145
-0.0037000000000000366,-4.146518819904423
-0.0047000000000001485,-5.323558621392133
-0.005700000000000038,-6.500598422879844
-0.00670000000000015,-7.679052935667419
-0.00770000000000004,-8.899948787450944
-0.008700000000000152,-10.078403300238522
-0.009700000000000042,-11.299299152022046
-0.010700000000000154,-12.56405105410139
-0.011700000000000044,-13.784946905884919
-0.012700000000000156,-15.01008689156804
-0.013700000000000045,-16.22673860945197
-0.014700000000000157,-17.358507649344002
-0.015700000000000047,-18.53271802823198
-0.01670000000000016,-19.678634181122664
-0.01770000000000005,-20.76796188201874
-0.01870000000000016,-21.857289582914817
-0.01970000000000005,-22.946617283810895
-0.020700000000000163,-23.993503645711023
-0.021700000000000053,-25.04039000761115
-0.022700000000000164,-26.129717708507226
-0.023700000000000054,-27.219045409403304
-0.024700000000000166,-28.308373110299385
-0.025700000000000056,-29.440142150191413
-0.026700000000000168,-30.571911190083444
-0.027700000000000058,-31.717827342974125
-0.02870000000000017,-32.807155043870196
-0.02970000000000006,-33.89648274476628
-0.03070000000000017,-34.98581044566235
-0.03170000000000006,-36.03269680756248
-0.03270000000000017,-37.037141830466666
-0.03370000000000006,-38.04158685337084
-0.034700000000000175,-38.98944342428042
-0.035700000000000065,-39.95144710818864
-0.03670000000000018,-40.91345079209687
-0.03770000000000007,-41.91789581500104
-0.03870000000000018,-42.92234083790521
-0.03970000000000007,-43.92678586080939
-0.04070000000000018,-44.97367222270952
-0.04170000000000007,-46.02055858460964
-0.04270000000000018,-47.067444946509774
-0.04370000000000007,-48.114331308409895
-0.044700000000000184,-49.118776331314066
-0.045700000000000074,-50.1656626932142
-0.046700000000000186,-51.127666377122424
-0.047700000000000076,-52.075522948032
-0.04870000000000019,-53.03752663194023
-0.04970000000000008,-53.9570889768525
-0.05070000000000019,-54.834209982768826
-0.05170000000000008,-55.838655005673
-0.05270000000000019,-56.74407023758662
-0.05370000000000008,-57.7485152604908
-0.05470000000000019,-58.71051894439902
-0.05570000000000008,-59.67252262830725
-0.056700000000000195,-60.67696765121143
-0.057700000000000085,-61.6814126741156
-0.058700000000000196,-62.64341635802381
-0.059700000000000086,-63.59127292893339
-0.0607000000000002,-64.55327661284163
-0.06170000000000009,-65.4728389577539
-0.0627000000000002,-66.39240130266617
-0.06370000000000009,-67.25537519558385
-0.0647000000000002,-68.17493754049613
-0.06570000000000009,-69.0096172074165
-0.0667000000000002,-69.95747377832606
-0.0677000000000001,-70.87703612323833
-0.0687000000000002,-71.83903980714656
-0.0697000000000001,-72.80104349105478
-0.07070000000000021,-73.80548851395896
-0.0717000000000001,-74.80993353686314
-0.07270000000000021,-75.81437855976732
-0.0737000000000001,-76.7622351306769
-0.07470000000000021,-77.68179747558916
-0.0757000000000001,-78.68624249849334
-0.07670000000000021,-79.52092216541372
-0.0777000000000001,-80.38389605833139
-0.07870000000000021,-81.21857572525175
-0.0797000000000001,-82.03910827917348
-0.08070000000000022,-82.8313466070979
-0.0817000000000001,-83.70846761301424
-0.08270000000000022,-84.57144150593189
-0.08370000000000011,-85.49100385084417
-0.08470000000000022,-86.41056619575643
-0.08570000000000011,-87.33012854066871
-0.08670000000000022,-88.32042645057423
-0.08770000000000011,-89.32487147347842
-0.08870000000000022,-90.28687515738663
-0.08970000000000011,-91.24887884129487
-0.09070000000000022,-92.2108825252031
-0.09170000000000011,-93.13044487011537
-0.09270000000000023,-93.99341876303303
-0.09370000000000012,-94.87053976894937
-0.09470000000000023,-95.69107232287108
-0.09570000000000012,-96.5681933287874
-0.09670000000000023,-97.40287299570777
-0.09770000000000012,-98.26584688862545
-0.09870000000000023,-99.18540923353773
-0.09970000000000012,-100.06253023945405
-0.10070000000000023,-101.02453392336226
-0.10170000000000012,-101.97239049427183
-0.10270000000000024,-102.93439417818009
-0.10370000000000013,-103.89639786208829
-0.10470000000000024,-104.81596020700057
-0.10570000000000013,-105.73552255191284
-0.10670000000000024,-106.64093778382647
-0.10770000000000013,-107.47561745074682
-0.10870000000000024,-108.39517979565912
-0.10970000000000013,-109.21571234958083
-0.11070000000000024,-110.09283335549715
-0.11170000000000013,-110.96995436141347
-0.11270000000000002,-111.83292825433115
-0.11370000000000013,-112.71004926024747
-0.11470000000000002,-113.62961160515974
-0.11570000000000014,-114.4925854980774
-0.11670000000000003,-115.4121478429897
-0.11770000000000014,-116.37415152689792
-0.11870000000000003,-117.29371387181018
-0.11970000000000014,-118.15668776472786
-0.12070000000000003,-119.16113278763203
-0.12170000000000014,-120.03825379354835
-0.12270000000000003,-120.9153747994647
-0.12370000000000014,-121.77834869238235
-0.12470000000000003,-122.61302835930273
-0.12570000000000014,-123.4760022522204
-0.12670000000000003,-124.39556459713268
-0.12770000000000015,-125.272685603049
-0.12870000000000004,-126.23468928695722
-0.12970000000000015,-127.14010451887084
-0.13070000000000004,-128.05966686378312
-0.13170000000000015,-129.02167054769134
-0.13270000000000004,-129.9412328926036
-0.13370000000000015,-130.90323657651186
-0.13470000000000004,-131.76621046942952
-0.13570000000000015,-132.6857728143418
-0.13670000000000004,-133.60533515925405
-0.13770000000000016,-134.5107503911677
-0.13870000000000005,-135.43031273607997
-0.13970000000000016,-136.34987508099226
-0.14070000000000005,-137.1845547479126
-0.14170000000000016,-138.00508730183432
-0.14270000000000005,-138.96709098574257
-0.14370000000000016,-139.84421199165885
-0.14470000000000005,-140.79206856256846
-0.14570000000000016,-141.75407224647665
-0.14670000000000005,-142.6028990263957
-0.14770000000000016,-143.5931969363012
-0.14870000000000005,-144.58349484620675
-0.14970000000000017,-145.57379275611228
-0.15070000000000006,-146.4226195360313
-0.15170000000000017,-147.27144631595033
-0.15270000000000006,-148.26174422585584
-0.15370000000000017,-149.1105710057749
-0.15470000000000006,-149.95939778569388
-0.15570000000000017,-150.8082245656129
-0.15670000000000006,-151.65705134553193
-0.15770000000000017,-152.50587812545095
-0.15870000000000006,-153.35470490536997
-0.15970000000000018,-154.3450028152755
-0.16070000000000007,-155.33530072518104
-0.16170000000000018,-156.32559863508658
-0.16270000000000007,-157.31589654499206
-0.16370000000000018,-158.1647233249111
-0.16470000000000007,-159.15502123481662
-0.16570000000000018,-160.14531914472215
-0.16670000000000007,-160.99414592464117
-0.16770000000000018,-161.9844438345467
-0.16870000000000007,-162.8332706144657
-0.16970000000000018,-163.54062626439824
-0.17070000000000007,-164.38945304431726
-0.17170000000000019,-165.3797509542228
-0.17270000000000008,-166.3700488641283
-0.1737000000000002,-167.21887564404733
-0.17470000000000008,-168.20917355395284
-0.1757000000000002,-169.19947146385837
-0.17670000000000008,-170.18976937376394
-0.1777000000000002,-171.18006728366944
-0.17870000000000008,-172.17036519357498
-0.1797000000000002,-173.01919197349397
-0.18070000000000008,-174.0094898833995
-0.1817000000000002,-174.85831666331853
-0.18270000000000008,-175.84861457322407
-0.1837000000000002,-176.6974413531431
-0.1847000000000001,-177.54626813306209
-0.1857000000000002,-178.3950949129811
-0.1867000000000001,-179.38539282288664
-0.1877000000000002,-180.23421960280567
-0.1887000000000001,-181.08304638272472
-0.1897000000000002,-182.07334429263022
-0.1907000000000001,-183.06364220253573
-0.1917000000000001,-184.05394011244127
-0.19269999999999998,-185.0442380223468
-0.1937000000000001,-185.89306480226583
-0.19469999999999998,-186.74189158218485
-0.1957000000000001,-187.73218949209036
-0.19669999999999999,-188.72248740199586
-0.1977000000000001,-189.57131418191491
-0.1987,-190.42014096183394
-0.1997000000000001,-191.268967741753
-0.2007,-192.11779452167198
-0.2017000000000001,-193.10809243157752
-0.2027,-193.9569192114965
-0.2037000000000001,-194.94721712140205
-0.2047,-195.79604390132107
-0.2057000000000001,-196.6448706812401
-0.2067,-197.63516859114563
-0.2077000000000001,-198.48399537106465
-0.2087,-199.61576441095667
-0.2097000000000001,-200.4645911908757
-0.2107,-201.4548891007812
-0.2117000000000001,-202.30371588070025
-0.2127,-203.15254266061928
-0.2137000000000001,-204.14284057052478
-0.2147,-204.9916673504438
-0.2157000000000001,-205.84049413036286
-0.2167,-206.68932091028185
-0.21770000000000012,-207.3966765602144
-0.2187,-208.24550334013338
-0.21970000000000012,-209.23580125003892
-0.2207,-210.22609915994445
-0.22170000000000012,-211.21639706985
-0.2227,-212.2066949797555
-0.22370000000000012,-213.05552175967455
-0.2247,-214.04581966958003
-0.22570000000000012,-215.03611757948556
-0.2267,-215.88494435940459
-0.22770000000000012,-216.73377113932364
-0.22870000000000001,-217.58259791924263
-0.22970000000000013,-218.43142469916165
-0.23070000000000002,-219.13878034909416
-0.23170000000000013,-219.98760712901318
-0.23270000000000002,-220.83643390893224
-0.23370000000000013,-221.82673181883774
-0.23470000000000002,-222.6755585987568
-0.23570000000000013,-223.6658565086623
-0.23670000000000002,-224.65615441856778
-0.2376999999999999,-225.64645232847332
-0.23870000000000002,-226.63675023837888
-0.2396999999999999,-227.62704814828442
-0.24070000000000003,-228.61734605818995
-0.24169999999999991,-229.74911509808197
-0.24270000000000003,-230.59794187800094
-0.24369999999999992,-231.5882397879065
-0.24470000000000003,-232.43706656782552
-0.24569999999999992,-233.1444222177581
-0.24670000000000003,-233.99324899767706
-0.24769999999999992,-234.84207577759608
-0.24870000000000003,-235.69090255751513
-0.24969999999999992,-236.53972933743412
-0.25070000000000003,-237.38855611735315
-0.2516999999999999,-238.2373828972722
-0.25270000000000004,-239.0862096771912
-0.2536999999999999,-239.93503645711021
-0.25470000000000004,-240.92533436701575
-0.2556999999999999,-241.77416114693477
-0.25670000000000004,-242.62298792685377
-0.25769999999999993,-243.3303435767863
-0.25870000000000004,-244.46211261667833
-0.25969999999999993,-245.45241052658386
-0.26070000000000004,-246.15976617651637
-0.26169999999999993,-247.1500640864219
-0.26270000000000004,-247.85741973635444
-0.26369999999999993,-248.70624651627344
-0.26470000000000005,-249.5550732961925
-0.26569999999999994,-250.4039000761115
-0.26670000000000005,-251.25272685603056
-0.26769999999999994,-252.10155363594956
-0.26870000000000005,-253.09185154585506
-0.26969999999999994,-253.79920719578757
-0.27070000000000005,-254.78950510569314
-0.27169999999999994,-255.77980301559862
-0.27270000000000005,-256.62862979551767
-0.27369999999999994,-257.6189277054232
-0.27470000000000006,-258.18481222536917
-0.27569999999999995,-258.7506967453152
-0.27670000000000006,-259.59952352523425
-0.27769999999999995,-260.73129256512624
-0.27870000000000006,-261.7215904750318
-0.27969999999999995,-262.57041725495077
-0.28070000000000006,-263.56071516485633
-0.28169999999999995,-264.2680708147888
-0.28270000000000006,-265.2583687246944
-0.28369999999999995,-266.2486666345999
-0.28470000000000006,-267.09749341451896
-0.28569999999999995,-268.0877913244245
-0.28670000000000007,-269.2195603643164
-0.28769999999999996,-270.0683871442355
-0.28870000000000007,-271.05868505414105
-0.28969999999999996,-271.9075118340601
-0.29070000000000007,-272.7563386139791
-0.29169999999999996,-273.7466365238846
-0.29270000000000007,-275.0198766937631
-0.29369999999999996,-276.01017460366864
-0.2947000000000001,-277.0004725135742
-0.29569999999999996,-277.9907704234797
-0.2967000000000001,-278.9810683333853
-0.29769999999999996,-279.97136624329073
-0.2987000000000001,-280.9616641531963
-0.29969999999999997,-281.8104909331153
-0.3007000000000001,-282.65931771303434
-0.30169999999999997,-283.5081444929533
-0.3027000000000001,-284.07402901289936
-0.30369999999999997,-284.9228557928184
-0.3047000000000001,-285.6302114427509
-0.30569999999999997,-286.6205093526564
-0.3067000000000001,-287.46933613257545
-0.3077,-288.45963404248096
-0.3087000000000001,-289.3084608224
-0.3097,-290.29875873230554
-0.3107000000000001,-291.4305277721976
-0.3117,-292.4208256821031
-0.3127000000000001,-293.4111235920086
-0.3137,-294.68436376188714
-0.3147000000000001,-295.67466167179265
-0.3157,-296.6649595816982
-0.3167000000000001,-297.6552574916037
-0.3177,-298.50408427152274
-0.3187000000000001,-299.49438218142825
-0.3197,-300.2017378313608
-0.3207000000000001,-301.0505646112798
-0.3217,-301.7579202612123
-0.3227000000000001,-302.74821817111786
-0.3237,-303.73851608102336
-0.3247000000000001,-304.5873428609424
-0.3257,-305.71911190083443
-0.3267000000000001,-306.8508809407265
-0.3277,-307.98264998061853
-0.3287000000000001,-309.1144190205105
-0.3297,-310.10471693041603
-0.3307000000000001,-311.09501484032154
-0.3317,-312.0853127502271
-0.3327000000000001,-312.9341395301461
-0.3337,-313.6414951800786
-0.3347000000000001,-314.34885083001114
-0.3357,-315.0562064799437
-0.3367000000000001,-315.9050332598627
-0.3377,-316.7538600397817
-0.3387000000000001,-317.60268681970075
-0.3397,-318.31004246963323
-0.3407000000000001,-319.15886924955225
-0.3417,-320.2906382894443
-0.3427000000000001,-321.42240732933635
-0.3437,-322.41270523924186
-0.3447000000000001,-323.40300314914737
-0.3457,-324.5347721890394
-0.3467000000000001,-325.5250700989449
-0.3477,-326.373896878864
-0.3487000000000001,-327.0812525287965
-0.3497,-327.9300793087155
-0.3507000000000001,-328.7789060886345
-0.3517,-329.62773286855355
-0.3527000000000001,-330.33508851848603
-0.3537,-330.7595019084456
-0.3547000000000001,-331.3253864283916
-0.3557,-332.1742132083106
-0.35670000000000013,-333.30598224820267
-0.3577,-334.43775128809466
-0.35870000000000013,-335.5695203279867
-0.3597,-336.4183471079057
-0.36070000000000013,-337.5501161477977
-0.3617,-338.6818851876898
-0.3626999999999999,-339.8136542275818
-0.3637,-340.94542326747387
-0.3646999999999999,-341.51130778741987
-0.3657,-342.5016056973254
-0.3666999999999999,-343.49190360723094
-0.3677,-344.1992592571634
-0.3686999999999999,-345.04808603708244
-0.36970000000000003,-345.89691281700146
-0.3706999999999999,-346.604268466934
-0.37170000000000003,-347.45309524685297
-0.3726999999999999,-348.44339315675853
-0.37370000000000003,-349.43369106666404
-0.3746999999999999,-350.42398897656955
-0.37570000000000003,-351.4142868864751
-0.3766999999999999,-351.9801714064211
-0.37770000000000004,-352.9704693163266
-0.3786999999999999,-353.8192960962457
-0.37970000000000004,-354.8095940061512
-0.3806999999999999,-355.65842078607017
-0.38170000000000004,-356.64871869597573
-0.38269999999999993,-357.4975454758948
-0.38370000000000004,-358.0634299958408
-0.38469999999999993,-358.7707856457733
-0.38570000000000004,-360.0440258156518
-0.38669999999999993,-360.6099103355978
-0.38570000000000004,-358.20490112582723
-0.38469999999999993,-355.65842078607017
-0.38370000000000004,-353.5363538362726
-0.38269999999999993,-351.1313446265021
-0.38170000000000004,-348.72633541673156
-0.3806999999999999,-346.1798550769745
-0.37970000000000004,-343.49190360723094
-0.3786999999999999,-341.0868943974603
-0.37770000000000004,-338.8233563176763
-0.3766999999999999,-336.5598182378922
-0.37570000000000003,-334.2962801581082
-0.3746999999999999,-332.03274207832413
-0.37370000000000003,-329.76920399854004
-0.3726999999999999,-327.505665918756
-0.37170000000000003,-325.24212783897195
-0.3706999999999999,-323.1200608891744
-0.36970000000000003,-320.9979939393768
-0.3686999999999999,-318.8759269895793
-0.3677,-316.8953311697682
-0.3666999999999999,-314.77326421997066
-0.3657,-312.79266840015964
-0.3646999999999999,-310.52913032037554
-0.3637,-308.2655922405915
-0.3626999999999999,-306.1435252907939
-0.3617,-304.1629294709828
-0.36070000000000013,-302.0408625211853
-0.3597,-299.91879557138776
-0.35870000000000013,-297.79672862159026
-0.3577,-295.8161328017792
-0.35670000000000013,-293.6940658519816
-0.3557,-291.71347003217056
-0.3547000000000001,-289.87434534234603
-0.3537,-287.7522783925485
-0.3527000000000001,-285.7716825727374
-0.3517,-283.64961562293985
-0.3507000000000001,-281.52754867314235
-0.3497,-279.6884239833177
-0.3487000000000001,-277.4248859035337
-0.3477,-275.30281895373616
-0.3467000000000001,-273.3222231339251
-0.3457,-271.20015618412754
-0.3447000000000001,-269.361031494303
-0.3437,-267.23896454450545
-0.3427000000000001,-265.5413109846674
-0.3417,-263.7021862948428
-0.3407000000000001,-261.8630616050183
-0.3397,-259.8824657852072
-0.3387000000000001,-258.0433410953827
-0.3377,-256.20421640555816
-0.3367000000000001,-254.2236205857471
-0.3357,-252.52596702590907
-0.3347000000000001,-250.545371206098
-0.3337,-248.70624651627344
-0.3327000000000001,-246.8671218264489
-0.3317,-245.02799713662432
-0.3307000000000001,-243.18887244679982
-0.3297,-241.34974775697523
-0.3287000000000001,-239.5106230671507
-0.3277,-237.67149837732615
-0.3267000000000001,-235.97384481748813
-0.3257,-234.13472012766357
-0.3247000000000001,-232.29559543783904
-0.3237,-230.45647074801445
-0.3227000000000001,-228.75881718817644
-0.3217,-227.06116362833836
-0.3207000000000001,-225.22203893851383
-0.3197,-223.52438537867582
-0.3187000000000001,-221.68526068885126
-0.3177,-219.98760712901318
-0.3167000000000001,-218.14848243918865
-0.3157,-216.3093577493641
-0.3147000000000001,-214.61170418952605
-0.3137,-212.77257949970152
-0.3127000000000001,-211.07492593986345
-0.3117,-209.37727238002543
-0.3107000000000001,-207.67961882018741
-0.3097,-205.98196526034934
-0.3087000000000001,-204.2843117005113
-0.3077,-202.7281292706598
-0.3067000000000001,-201.17194684080823
-0.30569999999999997,-199.47429328097016
-0.3047000000000001,-197.63516859114563
-0.30369999999999997,-195.93751503130758
-0.3027000000000001,-194.09839034148303
-0.30169999999999997,-192.54220791163152
-0.3007000000000001,-190.98602548177996
-0.29969999999999997,-189.2883719219419
-0.2987000000000001,-187.59071836210387
-0.29769999999999996,-185.89306480226583
-0.2967000000000001,-184.33688237241427
-0.29569999999999996,-182.78069994256273
-0.2947000000000001,-181.08304638272472
-0.29369999999999996,-179.38539282288664
-0.29270000000000007,-177.6877392630486
-0.29169999999999996,-176.13155683319707
-0.29070000000000007,-174.43390327335902
-0.28969999999999996,-172.73624971352098
-0.28870000000000007,-171.03859615368293
-0.28769999999999996,-169.19947146385837
-0.28670000000000007,-167.21887564404733
-0.28569999999999995,-165.5212220842093
-0.28470000000000006,-163.82356852437124
-0.28369999999999995,-162.2673860945197
-0.28270000000000006,-160.71120366466818
-0.28169999999999995,-159.01355010483013
-0.28070000000000006,-157.45736767497857
-0.27969999999999995,-155.90118524512707
-0.27870000000000006,-154.3450028152755
-0.27769999999999995,-152.78882038542397
-0.27670000000000006,-151.23263795557244
-0.27569999999999995,-149.6764555257209
-0.27470000000000006,-147.97880196588284
-0.27369999999999994,-146.4226195360313
-0.27270000000000005,-144.72496597619326
-0.27169999999999994,-143.0273124163552
-0.27070000000000005,-141.456982873505
-0.26969999999999994,-139.8866533306548
-0.26870000000000005,-138.3163237878046
-0.26769999999999994,-136.7884355839504
