Potential V vs RHE, Current mA cm-2
0.013299999999999867,28.91669896924135
0.012299999999999978,27.303928087395207
0.011299999999999866,25.73359854454502
0.010299999999999976,24.24815167968673
0.009299999999999864,22.84758749282034
0.008299999999999974,21.54605309694451
0.007299999999999862,20.329401379060574
0.006299999999999972,19.098602548177997
0.00529999999999986,17.839509491298113
0.0042999999999999705,16.52382798242363
0.0032999999999998586,15.179852247551842
0.0022999999999999687,13.91227092287277
0.0012999999999998568,12.68996035978938
0.00029999999999996696,11.556776608597485
-0.000700000000000145,10.46603419640154
-0.0017000000000000348,9.375291784205599
-0.0027000000000001467,8.284549372009655
-0.0037000000000000366,7.107509570521944
-0.0047000000000001485,5.929055057734368
-0.005700000000000038,4.752015256246658
-0.00670000000000015,3.6174167937548987
-0.00770000000000004,2.5705304318547717
-0.008700000000000152,1.5675001202504606
-0.009700000000000042,0.6084673300719523
-0.010700000000000154,-0.3947044526623452
-0.011700000000000044,-1.4415908145624723
-0.012700000000000156,-2.532333226758415
-0.013700000000000045,-3.6655169779503103
-0.014700000000000157,-4.756259390146253
-0.015700000000000047,-5.715433651454749
-0.01670000000000016,-6.6760226240631075
-0.01770000000000005,-7.591340835075788
-0.01870000000000016,-8.464217707092514
-0.01970000000000005,-9.467248018696827
-0.020700000000000163,-10.470278330301136
-0.021700000000000053,-11.517164692201263
-0.022700000000000164,-12.56405105410139
-0.023700000000000054,-13.523225315409885
-0.024700000000000166,-14.444202371622024
-0.025700000000000056,-15.264734925543747
-0.026700000000000168,-16.141855931460068
-0.027700000000000058,-17.061418276372343
-0.02870000000000017,-17.966833508285966
-0.02970000000000006,-18.97127853119014
-0.03070000000000017,-19.97572355409432
-0.03170000000000006,-20.93772723800254
-0.03270000000000017,-21.772406904922917
-0.03370000000000006,-22.592939458844636
-0.034700000000000175,-23.385177786769056
-0.035700000000000065,-24.24815167968673
-0.03670000000000018,-25.167714024599
-0.03770000000000007,-26.087276369511276
-0.03870000000000018,-27.049280053419505
-0.03970000000000007,-27.954695285333123
-0.04070000000000018,-28.8742576302454
-0.04170000000000007,-29.66649595816982
-0.04270000000000018,-30.402145834099635
-0.04370000000000007,-31.23682550102001
-0.044700000000000184,-32.05735805494172
-0.045700000000000074,-32.97692039985401
-0.046700000000000186,-33.93892408376223
-0.047700000000000076,-34.85848642867451
-0.04870000000000019,-35.721460321592176
-0.04970000000000008,-36.5136986495166
-0.05070000000000019,-37.249348525446415
-0.05170000000000008,-38.04158685337084
-0.05270000000000019,-38.86211940729255
-0.05370000000000008,-39.739240413208876
-0.05470000000000019,-40.65880275812115
-0.05570000000000008,-41.52177665103883
-0.056700000000000195,-42.39889765695515
-0.057700000000000085,-43.23357732387552
-0.058700000000000196,-43.96922719980534
-0.059700000000000086,-44.704877075735155
-0.0607000000000002,-45.53955674265553
-0.06170000000000009,-46.41667774857186
-0.0627000000000002,-47.32209298048547
-0.06370000000000009,-48.24165532539775
-0.0647000000000002,-49.118776331314066
-0.06570000000000009,-49.939308885235796
-0.0667000000000002,-50.73154721316022
-0.0677000000000001,-51.424755750094086
-0.0687000000000002,-52.11796428702795
-0.0697000000000001,-52.91020261495237
-0.07070000000000021,-53.7873236208687
-0.0717000000000001,-54.65029751378637
-0.07270000000000021,-55.56985985869864
-0.0737000000000001,-56.44698086461496
-0.07470000000000021,-57.26751341853669
-0.0757000000000001,-57.974869068469204
-0.07670000000000021,-58.71051894439902
-0.0777000000000001,-59.403727481332886
-0.07870000000000021,-60.23840714825326
-0.0797000000000001,-61.01649836317903
-0.08070000000000022,-61.851178030099405
-0.0817000000000001,-62.64341635802381
-0.08270000000000022,-63.421507572949594
-0.08370000000000011,-64.15715744887942
-0.08470000000000022,-64.86451309881193
-0.08570000000000011,-65.64260431373769
-0.08670000000000022,-66.47728398065809
-0.08770000000000011,-67.39684632557035
-0.08870000000000022,-68.30226155748396
-0.08970000000000011,-69.13694122440434
-0.09070000000000022,-69.87259110033416
-0.09170000000000011,-70.57994675026669
-0.09270000000000023,-71.18827260920865
-0.09370000000000012,-72.00880516313036
-0.09470000000000023,-72.8859261690467
-0.09570000000000012,-73.72060583596706
-0.09670000000000023,-74.45625571189689
-0.09770000000000012,-74.97969889284694
-0.09870000000000023,-75.85681989876326
-0.09970000000000012,-76.5924697746931
-0.10070000000000023,-77.34226676362155
-0.10170000000000012,-78.03547530055542
-0.10270000000000024,-78.8135665154812
-0.10370000000000013,-79.73312886039348
-0.10470000000000024,-80.69513254430169
-0.10570000000000013,-81.61469488921396
-0.10670000000000024,-82.35034476514379
-0.10770000000000013,-83.0011119630817
-0.10870000000000024,-83.52455514403178
-0.10970000000000013,-84.04799832498183
-0.11070000000000024,-84.75535397491434
-0.11170000000000013,-85.53344518984011
-0.11270000000000002,-86.41056619575643
-0.11370000000000013,-87.37256987966467
-0.11470000000000002,-88.23554377258235
-0.11570000000000014,-88.9853407615108
-0.11670000000000003,-89.67854929844468
-0.11770000000000014,-90.28687515738663
-0.11870000000000003,-90.89520101632861
-0.11970000000000014,-91.46108553627462
-0.12070000000000003,-92.25332386419905
-0.12170000000000014,-92.98897374012887
-0.12270000000000003,-93.90853608504113
-0.12370000000000014,-94.78565709095746
-0.12470000000000003,-95.52130696688728
-0.12570000000000014,-96.27110395581576
-0.12670000000000003,-97.00675383174556
-0.12770000000000015,-97.78484504667132
-0.12870000000000004,-98.57708337459576
-0.12970000000000015,-99.35517458952152
-0.13070000000000004,-100.23229559543785
-0.13170000000000015,-101.06697526235823
-0.13270000000000004,-101.76018379929208
-0.13370000000000015,-102.4958336752219
-0.13470000000000004,-103.28807200314633
-0.13570000000000015,-104.02372187907615
-0.13670000000000004,-104.85840154599651
-0.13770000000000016,-105.69308121291688
-0.13870000000000005,-106.47117242784265
-0.13970000000000016,-107.30585209476303
-0.14070000000000005,-108.0839433096888
-0.14170000000000016,-108.77715184662266
-0.14270000000000005,-109.52694883555114
-0.14370000000000016,-110.26259871148096
-0.14470000000000005,-111.13971971739728
-0.14570000000000016,-111.7056042373433
-0.14670000000000005,-112.44125411327312
-0.14770000000000016,-113.36081645818538
-0.14870000000000005,-114.1530547861098
-0.14970000000000017,-114.84626332304367
-0.15070000000000006,-115.53947185997755
-0.15170000000000017,-116.24682750991008
-0.15270000000000006,-117.02491872483584
-0.15370000000000017,-117.94448106974811
-0.15470000000000006,-118.76501362366983
-0.15570000000000017,-119.68457596858211
-0.15670000000000006,-120.47681429650652
-0.15770000000000017,-121.21246417243634
-0.15870000000000006,-121.90567270937021
-0.15970000000000018,-122.57058702030677
-0.16070000000000007,-123.4760022522204
-0.16170000000000018,-124.35312325813672
-0.16270000000000007,-125.23024426405304
-0.16370000000000018,-126.09321815697072
-0.16470000000000007,-126.97033916288706
-0.16570000000000018,-127.76257749081147
-0.16670000000000007,-128.41334468874936
-0.16770000000000018,-128.93678786969946
-0.16870000000000007,-129.67243774562928
-0.16970000000000018,-130.37979339556176
-0.17070000000000007,-131.15788461048754
-0.17170000000000019,-132.03500561640385
-0.17270000000000008,-132.81309683132966
-0.1737000000000002,-133.69021783724597
-0.17470000000000008,-134.46830905217172
-0.1757000000000002,-135.2181060411002
-0.17670000000000008,-135.95375591703004
-0.1777000000000002,-136.74599424495443
-0.17870000000000008,-137.52408545988024
-0.1797000000000002,-138.3587651268006
-0.18070000000000008,-139.22173901971826
-0.1817000000000002,-140.01397734764268
-0.18270000000000008,-140.70718588457655
-0.1837000000000002,-141.3721001955131
-0.1847000000000001,-142.03701450644968
-0.1857000000000002,-142.7443701563822
-0.1867000000000001,-143.87613919627424
-0.1877000000000002,-144.72496597619326
-0.1887000000000001,-145.57379275611228
-0.1897000000000002,-146.5640906660178
-0.1907000000000001,-147.27144631595033
-0.1917000000000001,-148.12027309586935
-0.19269999999999998,-148.82762874580186
-0.1937000000000001,-149.53498439573437
-0.19469999999999998,-150.24234004566688
-0.1957000000000001,-151.09116682558593
-0.19669999999999999,-151.93999360550492
-0.1977000000000001,-152.93029151541046
-0.1987,-153.77911829532948
-0.1997000000000001,-154.3450028152755
-0.2007,-155.19382959519453
-0.2017000000000001,-155.90118524512707
-0.2027,-156.60854089505958
-0.2037000000000001,-157.45736767497857
-0.2047,-158.1647233249111
-0.2057000000000001,-159.15502123481662
-0.2067,-159.86237688474912
-0.2077000000000001,-160.5697325346817
-0.2087,-161.2770881846142
-0.2097000000000001,-161.84297270456022
-0.2107,-162.40885722450622
-0.2117000000000001,-163.54062626439824
-0.2127,-164.38945304431726
-0.2137000000000001,-165.5212220842093
-0.2147,-166.51151999411482
-0.2157000000000001,-167.50181790402033
-0.2167,-168.35064468393938
-0.21770000000000012,-168.77505807389886
-0.2187,-169.48241372383137
-0.21970000000000012,-170.33124050375042
-0.2207,-171.18006728366944
-0.22170000000000012,-172.17036519357498
-0.2227,-173.16066310348046
-0.22370000000000012,-174.0094898833995
-0.2247,-174.85831666331853
-0.22570000000000012,-175.70714344323756
-0.2267,-176.13155683319707
-0.22770000000000012,-176.8389124831296
-0.22870000000000001,-177.6877392630486
-0.22970000000000013,-178.67803717295413
-0.23070000000000002,-179.66833508285964
-0.23170000000000013,-180.5171618627787
-0.23270000000000002,-181.2245175127112
-0.23370000000000013,-181.79040203265723
-0.23470000000000002,-182.49775768258974
-0.23570000000000013,-183.34658446250873
-0.23670000000000002,-184.19541124242778
-0.2376999999999999,-185.0442380223468
-0.23870000000000002,-186.03453593225234
-0.2396999999999999,-186.88336271217133
-0.24070000000000003,-187.59071836210387
-0.24169999999999991,-188.29807401203638
-0.24270000000000003,-188.72248740199586
-0.24369999999999992,-189.2883719219419
-0.24470000000000003,-190.13719870186094
-0.24569999999999992,-190.98602548177996
-0.24670000000000003,-191.9763233916855
-0.24769999999999992,-192.82515017160452
-0.24870000000000003,-193.6739769515235
-0.24969999999999992,-194.38133260145605
-0.25070000000000003,-195.08868825138856
-0.2516999999999999,-195.93751503130758
-0.25270000000000004,-196.6448706812401
-0.2536999999999999,-197.49369746115914
-0.25470000000000004,-198.3425242410781
-0.2556999999999999,-199.19135102099716
-0.25670000000000004,-200.18164893090267
-0.25769999999999993,-200.88900458083523
-0.25870000000000004,-201.59636023076774
-0.25969999999999993,-202.44518701068677
-0.26070000000000004,-203.15254266061928
-0.26169999999999993,-204.0013694405383
-0.26270000000000004,-204.8501962204573
-0.26369999999999993,-205.69902300037634
-0.26470000000000005,-206.54784978029537
-0.26569999999999994,-207.1137343002414
-0.26670000000000005,-207.96256108016038
-0.26769999999999994,-208.52844560010638
-0.26870000000000005,-209.23580125003892
-0.26969999999999994,-210.08462802995794
-0.27070000000000005,-211.07492593986345
-0.27169999999999994,-212.065223849769
-0.27270000000000005,-213.05552175967455
-0.27369999999999994,-214.04581966958003
-0.27470000000000006,-214.75317531951256
-0.27569999999999995,-215.6020020994316
-0.27670000000000006,-216.4508288793506
-0.27769999999999995,-217.15818452928315
-0.27870000000000006,-218.00701130920217
-0.27969999999999995,-218.99730921910768
-0.28070000000000006,-219.98760712901318
-0.28169999999999995,-220.83643390893224
-0.28270000000000006,-221.68526068885126
-0.28369999999999995,-222.25114520879725
-0.28470000000000006,-222.81702972874328
-0.28569999999999995,-223.38291424868927
-0.28670000000000007,-224.2317410286083
-0.28769999999999996,-225.22203893851383
-0.28870000000000007,-226.35380797840588
-0.28969999999999996,-227.06116362833836
-0.29070000000000007,-227.4855770182979
-0.29169999999999996,-228.0514615382439
-0.29270000000000007,-228.90028831816295
-0.29369999999999996,-229.74911509808197
-0.2947000000000001,-230.59794187800094
-0.29569999999999996,-231.5882397879065
-0.2967000000000001,-232.43706656782552
-0.29769999999999996,-233.00295108777152
-0.2987000000000001,-233.56883560771757
-0.29969999999999997,-234.13472012766357
-0.3007000000000001,-234.55913351762308
-0.30169999999999997,-235.40796029754208
-0.3027000000000001,-236.25678707746113
-0.30369999999999997,-236.82267159740715
-0.3047000000000001,-237.67149837732615
-0.30569999999999997,-238.5203251572452
-0.3067000000000001,-238.94473854720468
-0.3077,-239.65209419713722
-0.3087000000000001,-240.21797871708318
-0.3097,-240.78386323702924
-0.3107000000000001,-241.20827662698875
-0.3117,-241.77416114693477
-0.3127000000000001,-242.62298792685377
-0.3137,-243.47181470677282
-0.3147000000000001,-244.32064148669184
-0.3157,-245.31093939659738
-0.3167000000000001,-246.15976617651637
-0.3177,-247.0085929564354
-0.3187000000000001,-247.71594860636796
-0.3197,-248.56477538628693
-0.3207000000000001,-249.41360216620598
-0.3217,-250.1209578161385
-0.3227000000000001,-250.828313466071
-0.3237,-251.53566911600356
-0.3247000000000001,-252.10155363594956
-0.3257,-252.80890928588207
-0.3267000000000001,-253.65773606580112
-0.3277,-254.36509171573357
-0.3287000000000001,-255.35538962563913
-0.3297,-256.0627452755717
-0.3307000000000001,-256.77010092550415
-0.3317,-257.0530431854772
-0.3327000000000001,-257.4774565754367
-0.3337,-258.32628335535566
-0.3347000000000001,-259.0336390052882
-0.3357,-259.7409946552208
-0.3367000000000001,-260.58982143513975
-0.3377,-261.4386482150588
-0.3387000000000001,-262.42894612496434
-0.3397,-263.27777290488336
-0.3407000000000001,-264.12659968480233
-0.3417,-264.83395533473487
-0.3427000000000001,-265.39983985468086
-0.3437,-265.82425324464043
-0.3447000000000001,-266.5316088945729
-0.3457,-267.38043567449193
-0.3467000000000001,-268.37073358439744
-0.3477,-269.2195603643164
-0.3487000000000001,-270.20985827422203
-0.3497,-271.05868505414105
-0.3507000000000001,-271.9075118340601
-0.3517,-272.47339635400607
-0.3527000000000001,-273.1807520039386
-0.3537,-274.0295787838576
-0.3547000000000001,-274.5954633038036
-0.3557,-275.58576121370913
-0.35670000000000013,-276.29311686364167
-0.3577,-277.2834147735472
-0.35870000000000013,-277.9907704234797
-0.3597,-278.6981260734122
-0.36070000000000013,-279.40548172334474
-0.3617,-280.25430850326376
-0.3626999999999999,-281.1031352831828
-0.3637,-282.2349043230748
-0.3646999999999999,-283.08373110299385
-0.3657,-283.79108675292633
-0.3666999999999999,-284.35697127287233
-0.3677,-285.0643269228049
-0.3686999999999999,-285.7716825727374
-0.36970000000000003,-286.47903822266994
-0.3706999999999999,-287.327865002589
-0.37170000000000003,-288.03522065252145
-0.3726999999999999,-288.742576302454
-0.37370000000000003,-289.4499319523865
-0.3746999999999999,-290.157287602319
-0.37570000000000003,-291.0061143822381
-0.3766999999999999,-292.1378834221301
-0.37770000000000004,-293.1281813320356
-0.3786999999999999,-294.2599503719276
-0.37970000000000004,-295.25024828183314
-0.3806999999999999,-296.3820173217252
-0.38170000000000004,-297.0893729716577
-0.38269999999999993,-297.6552574916037
-0.38370000000000004,-297.9381997515767
-0.38469999999999993,-298.2211420115498
-0.38570000000000004,-298.6455554015092
-0.38669999999999993,-298.2211420115498
-0.38570000000000004,-296.0990750617522
-0.38469999999999993,-294.11847924194115
-0.38370000000000004,-291.571998902184
-0.38269999999999993,-289.1669896924135
-0.38170000000000004,-286.76198048264297
-0.3806999999999999,-284.63991353284536
-0.37970000000000004,-282.3763754530613
-0.3786999999999999,-280.25430850326376
-0.37770000000000004,-278.1322415534662
-0.3766999999999999,-276.5760591236147
-0.37570000000000003,-274.31252104383066
-0.3746999999999999,-271.4830984441005
-0.37370000000000003,-269.2195603643164
-0.3726999999999999,-267.23896454450545
-0.37170000000000003,-265.11689759470784
-0.3706999999999999,-262.9948306449103
-0.36970000000000003,-260.73129256512624
-0.3686999999999999,-258.7506967453152
-0.3677,-256.62862979551767
-0.3666999999999999,-254.50656284572008
-0.3657,-252.38449589592256
-0.3646999999999999,-250.4039000761115
-0.3637,-248.28183312631393
-0.3626999999999999,-246.5841795664759
-0.3617,-245.02799713662432
-0.36070000000000013,-243.3303435767863
-0.3597,-241.77416114693477
-0.35870000000000013,-240.0765075870967
-0.3577,-238.2373828972722
-0.35670000000000013,-235.97384481748813
-0.3557,-233.71030673770406
-0.3547000000000001,-231.3052975279335
-0.3537,-229.18323057813595
-0.3527000000000001,-227.34410588831142
-0.3517,-225.50498119848683
-0.3507000000000001,-223.80732763864881
-0.3497,-222.10967407881074
-0.3487000000000001,-220.2705493889862
-0.3477,-218.43142469916165
-0.3467000000000001,-216.4508288793506
-0.3457,-214.61170418952605
-0.3447000000000001,-212.631108369715
-0.3437,-210.93345480987696
-0.3427000000000001,-209.23580125003892
-0.3417,-207.3966765602144
-0.3407000000000001,-205.69902300037634
-0.3397,-204.0013694405383
-0.3387000000000001,-202.16224475071377
-0.3377,-200.3231200608892
-0.3367000000000001,-198.76693763103765
-0.3357,-196.92781294121312
-0.3347000000000001,-195.08868825138856
-0.3337,-193.249563561564
-0.3327000000000001,-191.41043887173947
-0.3317,-189.57131418191491
-0.3307000000000001,-187.73218949209036
-0.3297,-186.17600706223882
-0.3287000000000001,-184.7612957623738
-0.3277,-183.20511333252225
-0.3267000000000001,-181.64893090267074
-0.3257,-180.09274847281918
-0.3247000000000001,-178.3950949129811
-0.3237,-176.6974413531431
-0.3227000000000001,-174.85831666331853
-0.3217,-172.87772084350746
-0.3207000000000001,-170.89712502369645
-0.3197,-169.19947146385837
-0.3187000000000001,-167.50181790402033
-0.3177,-165.94563547416882
-0.3167000000000001,-164.24798191433075
-0.3157,-162.6917994844792
-0.3147000000000001,-161.1356170546277
-0.3137,-159.43796349478964
-0.3127000000000001,-157.7403099349516
-0.3117,-156.18412750510007
-0.3107000000000001,-154.76941620523502
-0.3097,-153.35470490536997
-0.3087000000000001,-151.7985224755184
-0.3077,-150.24234004566688
-0.3067000000000001,-148.68615761581535
-0.30569999999999997,-146.9885040559773
-0.3047000000000001,-145.43232162612577
-0.30369999999999997,-143.87613919627424
-0.3027000000000001,-142.31995676642268
-0.30169999999999997,-140.62230320658463
-0.3007000000000001,-138.96709098574257
-0.29969999999999997,-137.52408545988024
-0.2987000000000001,-135.99619725602597
-0.29769999999999996,-134.46830905217172
-0.2967000000000001,-132.8555381703256
-0.29569999999999996,-131.32764996647134
-0.2947000000000001,-129.8563502146117
-0.29369999999999996,-128.4982273667413
-0.29270000000000007,-127.19669297086547
-0.29169999999999996,-125.83857012299501
-0.29070000000000007,-124.43800593612862
-0.28969999999999996,-122.91011773227437
-0.28870000000000007,-121.2549055114323
-0.28769999999999996,-119.72701730757805
-0.28670000000000007,-118.3406002337103
-0.28569999999999995,-117.02491872483584
-0.28470000000000006,-115.72338432896
-0.28369999999999995,-114.45014415908147
-0.28270000000000006,-113.10616842420968
-0.28169999999999995,-111.66316289834735
-0.28070000000000006,-110.1352746944931
-0.27969999999999995,-108.73471050762672
-0.27870000000000006,-107.30585209476303
-0.27769999999999995,-106.0326119248845
-0.27670000000000006,-104.77351886800463
-0.27569999999999995,-103.50027869812607
-0.27470000000000006,-102.1563029632543
-0.27369999999999994,-100.670856098396
-0.27270000000000005,-99.27029191152963
-0.27169999999999994,-97.88387483766188
-0.27070000000000005,-96.44086931179956
-0.26969999999999994,-95.08274646392913
-0.26870000000000005,-93.78121206805329
-0.26769999999999994,-92.42308922018285
