Potential V vs RHE, Current mA cm-2
0.013299999999999867,33.64183471079057
0.012299999999999978,32.07150516794038
0.011299999999999866,30.82655922405915
0.010299999999999976,29.55331905418062
0.009299999999999864,28.350814449295335
0.008299999999999974,27.289780974396557
0.007299999999999862,26.087276369511276
0.006299999999999972,25.0828313466071
0.00529999999999986,23.993503645711023
0.0042999999999999705,22.91832305781359
0.0032999999999998586,22.04120205189727
0.0022999999999999687,20.923580125003895
0.0012999999999998568,20.046459119087572
0.00029999999999996696,19.112749661176647
-0.000700000000000145,18.15074597726842
-0.0017000000000000348,17.37265476234265
-0.0027000000000001467,16.354062626439823
-0.0037000000000000366,15.618412750510005
-0.0047000000000001485,14.727144631595033
-0.005700000000000038,13.825973533581003
-0.00670000000000015,13.13135028534727
-0.00770000000000004,12.183493714437697
-0.008700000000000152,11.418134901210712
-0.009700000000000042,10.724926364276843
-0.010700000000000154,9.860537760059307
-0.011700000000000044,9.11781432763016
-0.012700000000000156,8.196837271418023
-0.013700000000000045,7.544655362180241
-0.014700000000000157,6.792028950652041
-0.015700000000000047,5.9884729323287
-0.01670000000000016,5.388635341185925
-0.01770000000000005,4.578005766363259
-0.01870000000000016,3.965435773521698
-0.01970000000000005,3.2580801235891794
-0.020700000000000163,2.5210155363594953
-0.021700000000000053,1.9551310164134805
-0.022700000000000164,1.1628926884890602
-0.023700000000000054,0.5905004965636662
-0.024700000000000166,-0.07771009170158645
-0.025700000000000056,-0.7949262793941642
-0.026700000000000168,-1.3350630536826351
-0.027700000000000058,-2.092358012500389
-0.02870000000000017,-2.6327777290488332
-0.02970000000000006,-3.2693978139880997
-0.03070000000000017,-3.932897413624801
-0.03170000000000006,-4.425216945977835
-0.03270000000000017,-5.135402018510083
-0.03370000000000006,-5.646112797761361
-0.034700000000000175,-6.260097501902788
-0.035700000000000065,-6.898132298141919
-0.03670000000000018,-7.36781644969711
-0.03770000000000007,-8.061024986630978
-0.03870000000000018,-8.551929807684147
-0.03970000000000007,-9.12913201802908
-0.04070000000000018,-9.745946144770238
-0.04170000000000007,-10.19299491552759
-0.04270000000000018,-10.852250381264698
-0.04370000000000007,-11.334666934518673
-0.044700000000000184,-11.884989630166173
-0.045700000000000074,-12.480583087409354
-0.046700000000000186,-12.931875992066301
-0.047700000000000076,-13.586887323903813
-0.04870000000000019,-14.048083207659815
-0.04970000000000008,-14.599820614607177
-0.05070000000000019,-15.165705134553193
-0.05170000000000008,-15.575971411514052
-0.05270000000000019,-16.24088572245062
-0.05370000000000008,-16.637004886412832
-0.05470000000000019,-17.160448067362896
-0.05570000000000008,-17.74047970030756
-0.056700000000000195,-18.10830463827247
-0.057700000000000085,-18.744924723211735
-0.058700000000000196,-19.155191000172596
-0.059700000000000086,-19.678634181122664
-0.0607000000000002,-20.21622447507137
-0.06170000000000009,-20.626490752032236
-0.0627000000000002,-21.2631108369715
-0.06370000000000009,-21.659230000933714
-0.0647000000000002,-22.15437895588647
-0.06570000000000009,-22.72026347583249
-0.0667000000000002,-23.088088413797397
-0.0677000000000001,-23.710561385738018
-0.0687000000000002,-24.149121888696175
-0.0697000000000001,-24.61597661765164
-0.07070000000000021,-25.167714024599
-0.0717000000000001,-25.57798030155986
-0.07270000000000021,-26.15801193450453
-0.0737000000000001,-26.539983985468087
-0.07470000000000021,-27.049280053419505
-0.0757000000000001,-27.558576121370916
-0.07670000000000021,-27.926401059335824
-0.0777000000000001,-28.548874031276437
-0.07870000000000021,-28.8742576302454
-0.0797000000000001,-29.35525947219951
-0.08070000000000022,-29.906996879146874
-0.0817000000000001,-30.274821817111786
-0.08270000000000022,-30.82655922405915
-0.08370000000000011,-31.265119727017314
-0.08470000000000022,-31.77441579496872
-0.08570000000000011,-32.31200608891744
-0.08670000000000022,-32.62324257488775
-0.08770000000000011,-33.18912709483376
-0.08870000000000022,-33.61354048479327
-0.08970000000000011,-34.08039521374873
-0.09070000000000022,-34.5755441687015
-0.09170000000000011,-34.94336910666641
-0.09270000000000023,-35.57998919160567
-0.09370000000000012,-35.91951990357328
-0.09470000000000023,-36.55613998851254
-0.09570000000000012,-36.89567070048016
-0.09670000000000023,-37.291789864442364
-0.09770000000000012,-37.94255706238028
-0.09870000000000023,-38.253793548350586
-0.09970000000000012,-38.6216184863155
-0.10070000000000023,-39.173355893262865
-0.10170000000000012,-39.48459237923317
-0.10270000000000024,-40.07877112517649
-0.10370000000000013,-40.4748902891387
-0.10470000000000024,-40.97003924409146
-0.10570000000000013,-41.52177665103883
-0.10670000000000024,-41.88960158900374
-0.10770000000000013,-42.4696332219484
-0.10870000000000024,-42.85160527291196
-0.10970000000000013,-43.34675422786472
-0.11070000000000024,-43.82775606981884
-0.11170000000000013,-44.223875233781044
-0.11270000000000002,-44.704877075735155
-0.11370000000000013,-45.01611356170547
-0.11470000000000002,-45.497115403659585
-0.11570000000000014,-45.92152879361909
-0.11670000000000003,-46.204471053592094
-0.11770000000000014,-46.74206134754081
-0.11870000000000003,-47.067444946509774
-0.11970000000000014,-47.54844678846388
-0.12070000000000003,-48.12847842140855
-0.12170000000000014,-48.46800913337616
-0.12270000000000003,-49.23195323530328
-0.12370000000000014,-49.50074838227763
-0.12470000000000003,-50.15151558021555
-0.12570000000000014,-50.61837030917101
-0.12670000000000003,-51.000342360134574
-0.12770000000000015,-51.679403784069784
-0.12870000000000004,-51.80672780105764
-0.12970000000000015,-52.42920077299826
-0.13070000000000004,-52.92434972795102
-0.13170000000000015,-53.30632177891458
-0.13270000000000004,-53.80147073386735
-0.13370000000000015,-54.16929567183226
-0.13470000000000004,-54.59370906179176
-0.13570000000000015,-55.20203492073373
-0.13670000000000004,-55.371800276717536
-0.13770000000000016,-55.96597902266086
-0.13870000000000005,-56.46112797761361
-0.13970000000000016,-56.81480580257987
-0.14070000000000005,-57.423131661521836
-0.14170000000000016,-57.76266237348945
-0.14270000000000005,-58.27195844144086
-0.14370000000000016,-58.65393049240442
-0.14470000000000005,-59.14907944735718
-0.14570000000000016,-59.64422840230995
-0.14670000000000005,-59.95546488828025
-0.14770000000000016,-60.74770321620468
-0.14870000000000005,-60.95990991118443
-0.14970000000000017,-61.384323301143944
-0.15070000000000006,-61.95020782108996
-0.15170000000000017,-62.11997317707376
-0.15270000000000006,-62.78488748801033
-0.15370000000000017,-63.09612397398064
-0.15470000000000006,-63.5346844769388
-0.15570000000000017,-64.15715744887942
-0.15670000000000006,-64.52498238684433
-0.15770000000000017,-65.14745535878494
-0.15870000000000006,-65.5577216357458
-0.15970000000000018,-65.99628213870396
-0.16070000000000007,-66.47728398065809
-0.16170000000000018,-66.87340314462028
-0.16270000000000007,-67.48172900356225
-0.16370000000000018,-67.82125971552985
-0.16470000000000007,-68.18908465349477
-0.16570000000000018,-68.74082206044213
-0.16670000000000007,-69.0944998854084
-0.16770000000000018,-69.61794306635846
-0.16870000000000007,-70.12723913430986
-0.16970000000000018,-70.55165252426939
-0.17070000000000007,-71.01850725322484
-0.17170000000000019,-71.52780332117625
-0.17270000000000008,-71.98051093713306
-0.1737000000000002,-72.36248298809663
-0.17470000000000008,-72.9991030730359
-0.1757000000000002,-73.31033955900621
-0.17670000000000008,-73.89037119195086
-0.1777000000000002,-74.41381437290093
-0.17870000000000008,-74.80993353686314
-0.1797000000000002,-75.2767882658186
-0.18070000000000008,-75.7294958817754
-0.1817000000000002,-76.33782174071737
-0.18270000000000008,-76.80467646967284
-0.1837000000000002,-77.20079563363505
-0.1847000000000001,-77.7242388145851
-0.1857000000000002,-78.21938776953787
-0.1867000000000001,-78.70038961149199
-0.1877000000000002,-79.40774526142451
-0.1887000000000001,-79.73312886039348
-0.1897000000000002,-80.10095379835838
-0.1907000000000001,-80.38389605833139
-0.1917000000000001,-80.70927965730034
-0.19269999999999998,-81.37419396823692
-0.1937000000000001,-81.68543045420722
-0.19469999999999998,-82.29375631314919
-0.1957000000000001,-82.9162292850898
-0.19669999999999999,-83.18502443206415
-0.1977000000000001,-83.73676183901152
-0.1987,-84.24605790696293
-0.1997000000000001,-84.64217707092514
-0.2007,-85.20806159087115
-0.2017000000000001,-85.66076920682796
-0.2027,-86.42471330875509
-0.2037000000000001,-86.79253824672
-0.2047,-87.075480506693
-0.2057000000000001,-87.64136502663902
-0.2067,-88.05163130359989
-0.2077000000000001,-88.6458100495432
-0.2087,-88.99948787450946
-0.2097000000000001,-89.56537239445547
-0.2107,-90.17369825339743
-0.2117000000000001,-90.48493473936773
-0.2127,-91.12155482430701
-0.2137000000000001,-91.60255666626112
-0.2147,-91.98452871722468
-0.2157000000000001,-92.56456035016936
-0.2167,-93.00312085312751
-0.21770000000000012,-93.56900537307352
-0.2187,-94.16318411901683
-0.21970000000000012,-94.64418596097094
-0.2207,-95.25251181991293
-0.22170000000000012,-95.50715985388862
-0.2227,-96.22866261681979
-0.22370000000000012,-96.5398991027901
-0.2247,-97.11993073573475
-0.22570000000000012,-97.54434412569428
-0.2267,-97.54434412569428
-0.22770000000000012,-98.26584688862545
-0.22870000000000001,-98.57708337459576
-0.22970000000000013,-99.10052655554581
-0.23070000000000002,-99.39761592851748
-0.23170000000000013,-99.87861777047159
-0.23270000000000002,-100.71329743739196
-0.23370000000000013,-101.33577040933257
-0.23470000000000002,-101.77433091229074
-0.23570000000000013,-102.4392452232273
-0.23670000000000002,-103.16074798615847
-0.2376999999999999,-103.61345560211528
-0.23870000000000002,-103.83980941009371
-0.2396999999999999,-104.44813526903565
-0.24070000000000003,-104.75937175500596
-0.24169999999999991,-105.22622648396143
-0.24270000000000003,-105.83455234290338
-0.24369999999999992,-106.17408305487102
-0.24470000000000003,-106.76826180081432
-0.24569999999999992,-107.47561745074682
-0.24670000000000003,-107.95661929270095
-0.24769999999999992,-108.63568071663616
-0.24870000000000003,-109.03179988059838
-0.24969999999999992,-109.59768440054441
-0.25070000000000003,-110.0786862424985
-0.2516999999999999,-111.08313126540267
-0.25270000000000004,-111.6207215593514
-0.2536999999999999,-111.98854649731629
-0.25470000000000004,-112.92225595522721
-0.2556999999999999,-112.79493193823936
-0.25670000000000004,-113.21934532819888
-0.25769999999999993,-113.84181830013951
-0.25870000000000004,-113.89840675213411
-0.25969999999999993,-114.69064508005852
-0.26070000000000004,-115.2706767130032
-0.26169999999999993,-115.7516785549573
-0.26270000000000004,-116.71368223886554
-0.26369999999999993,-117.2088311938183
-0.26470000000000005,-117.63324458377778
-0.26569999999999994,-118.28401178171573
-0.26670000000000005,-118.59524826768603
-0.26769999999999994,-119.23186835262528
-0.26870000000000005,-119.64213462958614
-0.26969999999999994,-120.20801914953216
-0.27070000000000005,-120.87293346046872
-0.27169999999999994,-121.14172860744308
-0.27270000000000005,-121.72176024038777
-0.27369999999999994,-122.2452034213378
-0.27470000000000006,-122.66961681129733
-0.27569999999999995,-123.3628253482312
-0.27670000000000006,-123.71650317319745
-0.27769999999999995,-124.11262233715966
-0.27870000000000006,-124.53703572711918
-0.27969999999999995,-125.5273336370247
-0.28070000000000006,-125.92345280098691
-0.28169999999999995,-126.43274886893832
-0.28270000000000006,-127.0693689538776
-0.28369999999999995,-127.52207656983438
-0.28470000000000006,-127.81916594280607
-0.28569999999999995,-128.7811696267143
-0.28670000000000007,-128.79531673971292
-0.28769999999999996,-129.0075234346927
-0.28870000000000007,-129.91293866660632
-0.28969999999999996,-129.75732042362114
-0.29070000000000007,-130.42223473455772
-0.29169999999999996,-130.5637058645442
-0.29270000000000007,-131.2569144014781
-0.29369999999999996,-131.7945046954268
-0.2947000000000001,-132.33209498937555
-0.29569999999999996,-132.99700930031207
-0.2967000000000001,-133.3082457862824
-0.29769999999999996,-133.83168896723245
-0.2987000000000001,-134.21366101819604
-0.29969999999999997,-134.42586771317576
-0.3007000000000001,-135.17566470210423
-0.30169999999999997,-135.40201851008266
-0.3027000000000001,-136.02449148202328
-0.30369999999999997,-136.562081775972
-0.3047000000000001,-136.9864951659315
-0.30569999999999997,-137.3543201038964
-0.3067000000000001,-137.79288060685457
-0.3077,-138.16070554481948
-0.3087000000000001,-138.2455882228114
-0.3097,-138.79732562975875
-0.3107000000000001,-139.09441500273041
-0.3117,-139.29247458471153
-0.3127000000000001,-139.9573888956481
-0.3137,-140.36765517260895
-0.3147000000000001,-140.9193925795563
-0.3157,-141.61260111649017
-0.3167000000000001,-141.75407224647665
-0.3177,-142.31995676642268
-0.3187000000000001,-142.6028990263957
-0.3197,-143.16878354634173
-0.3207000000000001,-143.16878354634173
-0.3217,-143.73466806628772
-0.3227000000000001,-144.15908145624724
-0.3237,-144.58349484620675
-0.3247000000000001,-144.72496597619326
-0.3257,-145.7152638860988
-0.3267000000000001,-145.9982061460718
-0.3277,-146.28114840604482
-0.3287000000000001,-146.8470329259908
-0.3297,-147.27144631595033
-0.3307000000000001,-147.55438857592333
-0.3317,-148.12027309586935
-0.3327000000000001,-148.12027309586935
-0.3337,-148.54468648582886
-0.3347000000000001,-148.96909987578834
-0.3357,-149.1105710057749
-0.3367000000000001,-149.25204213576137
-0.3377,-149.53498439573437
-0.3387000000000001,-149.8179266557074
-0.3397,-150.38381117565342
-0.3407000000000001,-151.09116682558593
-0.3417,-151.09116682558593
-0.3427000000000001,-151.5155802155454
-0.3437,-151.7985224755184
-0.3447000000000001,-151.7985224755184
-0.3457,-152.36440699546444
-0.3467000000000001,-152.50587812545095
-0.3477,-152.78882038542397
-0.3487000000000001,-153.07176264539694
-0.3497,-153.35470490536997
-0.3507000000000001,-153.63764716534297
-0.3517,-153.77911829532948
-0.3527000000000001,-154.0620605553025
-0.3537,-154.3450028152755
-0.3547000000000001,-154.3450028152755
-0.3557,-155.05235846520802
-0.35670000000000013,-155.61824298515404
-0.3577,-156.18412750510007
-0.35870000000000013,-156.46706976507306
-0.3597,-157.17442541500557
-0.36070000000000013,-157.7403099349516
-0.3617,-157.7403099349516
-0.3626999999999999,-157.31589654499206
-0.3637,-156.75001202504606
-0.3646999999999999,-156.89148315503257
-0.3657,-156.89148315503257
-0.3666999999999999,-157.03295428501906
-0.3677,-157.88178106493808
-0.3686999999999999,-158.02325219492457
-0.36970000000000003,-158.5891367148706
-0.3706999999999999,-158.5891367148706
-0.37170000000000003,-158.87207897484362
-0.3726999999999999,-159.29649236480313
-0.37370000000000003,-159.15502123481662
-0.3746999999999999,-159.57943462477613
-0.37570000000000003,-160.00384801473567
-0.3766999999999999,-159.86237688474912
-0.37770000000000004,-160.28679027470866
-0.3786999999999999,-160.14531914472215
-0.37970000000000004,-160.42826140469515
-0.3806999999999999,-161.1356170546277
-0.38170000000000004,-160.8526747946547
-0.38269999999999993,-161.2770881846142
-0.38370000000000004,-161.41855931460069
-0.38469999999999993,-161.5600304445872
-0.38570000000000004,-161.5600304445872
-0.38669999999999993,-160.42826140469515
-0.38570000000000004,-157.7403099349516
-0.38469999999999993,-154.76941620523502
-0.38370000000000004,-152.22293586547795
-0.38269999999999993,-150.1008689156804
-0.38170000000000004,-147.83733083589632
-0.3806999999999999,-145.7152638860988
-0.37970000000000004,-143.4517258063147
-0.3786999999999999,-141.21648195252794
-0.37770000000000004,-138.82561985575606
-0.3766999999999999,-136.6186702279666
-0.37570000000000003,-134.63807440815555
-0.3746999999999999,-132.64333147534586
-0.37370000000000003,-130.84664812451723
-0.3726999999999999,-128.93678786969946
-0.37170000000000003,-127.14010451887084
-0.3706999999999999,-125.4707451850301
-0.36970000000000003,-122.86767639327843
-0.3686999999999999,-121.21246417243634
-0.3677,-119.21772123962666
-0.3666999999999999,-117.4917734537913
-0.3657,-115.8931496849438
-0.3646999999999999,-114.0115836561233
-0.3637,-112.41295988727582
-0.3626999999999999,-110.85677745742427
-0.3617,-108.98935854160243
-0.36070000000000013,-107.8010010497158
-0.3597,-106.2872599588602
-0.35870000000000013,-105.45258029193982
-0.3577,-104.49057660803162
-0.35670000000000013,-102.07142028526239
-0.3557,-100.68500321139466
-0.3547000000000001,-99.63811684949452
-0.3537,-98.1102286456403
-0.3527000000000001,-96.17207416482519
-0.3517,-94.4602734919885
-0.3507000000000001,-93.08800353111941
-0.3497,-90.56981741735964
-0.3487000000000001,-89.79172620243388
-0.3477,-87.28768720167277
-0.3467000000000001,-86.07103548378883
-0.3457,-85.71735765882258
-0.3447000000000001,-84.47241171494134
-0.3437,-83.18502443206415
-0.3427000000000001,-81.72787179320316
-0.3417,-80.70927965730034
-0.3407000000000001,-79.52092216541372
-0.3397,-77.82326860557566
-0.3387000000000001,-76.09732081974033
-0.3377,-74.96555177984828
-0.3367000000000001,-73.60742893197786
-0.3357,-72.29174742310337
-0.3347000000000001,-71.15997838321134
-0.3337,-69.30670658038814
-0.3327000000000001,-67.693935698542
-0.3317,-66.33581285067157
-0.3307000000000001,-65.2181909237782
-0.3297,-64.34106991786187
-0.3287000000000001,-63.26588932996445
-0.3277,-62.233150081062966
-0.3267000000000001,-61.08723392817228
-0.3257,-59.95546488828025
-0.3247000000000001,-58.82369584838823
-0.3237,-57.62119124350295
-0.3227000000000001,-56.41868663861767
-0.3217,-55.20203492073373
-0.3207000000000001,-54.18344278483091
-0.3197,-52.966791066946975
-0.3187000000000001,-51.90575759204819
-0.3177,-50.66081164816696
-0.3167000000000001,-49.373424365289786
-0.3157,-48.4255677943802
-0.3147000000000001,-47.25135741549222
-0.3137,-46.27520661858535
-0.3127000000000001,-45.20002603068792
-0.3117,-44.110698329791845
-0.3107000000000001,-43.31846000186743
-0.3097,-42.087661170984845
-0.3087000000000001,-41.182245939071215
-0.3077,-40.191948029165694
-0.3067000000000001,-39.159208780264215
-0.30569999999999997,-38.28208777434789
-0.3047000000000001,-37.291789864442364
-0.30369999999999997,-36.40052174552739
-0.3027000000000001,-35.41022383562187
-0.30169999999999997,-34.47651437771095
-0.3007000000000001,-33.740864501781125
-0.29969999999999997,-32.70812525287965
-0.2987000000000001,-31.915886924955227
-0.29769999999999996,-31.08120725803486
-0.2967000000000001,-30.10505646112798
-0.29569999999999996,-29.411847924194117
-0.2947000000000001,-28.32252022329803
-0.29369999999999996,-27.473693443379013
-0.29270000000000007,-26.65316088945729
-0.29169999999999996,-25.691157205549064
-0.29070000000000007,-25.026242894612498
-0.28969999999999996,-24.106680549700226
-0.28870000000000007,-23.286147995778503
-0.28769999999999996,-22.536351006850033
-0.28670000000000007,-21.61678866193776
-0.28569999999999995,-20.95187435100119
-0.28470000000000006,-20.088900458083522
-0.28369999999999995,-19.31080924315775
-0.28270000000000006,-18.589306480226583
-0.28169999999999995,-17.74047970030756
-0.28070000000000006,-17.132153841365596
-0.27969999999999995,-16.325768400442524
-0.27870000000000006,-15.618412750510005
-0.27769999999999995,-14.896909987578834
-0.27670000000000006,-14.09193925795563
-0.27569999999999995,-13.486442821613394
-0.27470000000000006,-12.653177865992886
-0.27369999999999994,-11.979775287257132
-0.27270000000000005,-11.290810884222859
-0.27169999999999994,-10.495743133698706
-0.27070000000000005,-9.927029191152961
-0.26969999999999994,-9.140449708428003
-0.26870000000000005,-8.51090317998806
-0.26769999999999994,-7.865794827249602
-0.26670000000000005,-7.099021302722755
-0.26569999999999994,-6.568504565273366
