Potential V vs RHE, Current mA cm-2
0.05339999999999995,-0.155052358465208
0.05239999999999995,-0.1587306078448571
0.051399999999999946,-0.16000384801473563
0.050399999999999945,-0.16085267479465465
0.049399999999999944,-0.1615600304445872
0.04839999999999994,-0.1622673860945197
0.04739999999999994,-0.1628332706144657
0.04639999999999994,-0.16339915513441172
0.04539999999999994,-0.16410651078434427
0.04439999999999994,-0.16467239530429026
0.04339999999999994,-0.16509680869424978
0.04239999999999994,-0.1658041643441823
0.04139999999999994,-0.16637004886412832
0.040399999999999936,-0.1669359333840743
0.039399999999999935,-0.16736034677403386
0.038399999999999934,-0.16792623129397988
0.03739999999999993,-0.16849211581392587
0.03639999999999993,-0.16919947146385841
0.03539999999999993,-0.1696238848538179
0.03439999999999993,-0.17004829824377743
0.03339999999999993,-0.17061418276372342
0.03239999999999993,-0.17103859615368294
0.03139999999999993,-0.17160448067362896
0.030399999999999927,-0.17217036519357498
0.029399999999999926,-0.172736249713521
0.028399999999999925,-0.1731606631034805
0.027399999999999924,-0.173868018753413
0.026399999999999924,-0.17443390327335903
0.025399999999999923,-0.17499978779330505
0.024399999999999922,-0.17556567231325104
0.02339999999999992,-0.17613155683319706
0.02239999999999992,-0.1766974413531431
0.02139999999999992,-0.1774047970030756
0.020399999999999918,-0.17797068152302162
0.019399999999999917,-0.17853656604296764
0.018399999999999916,-0.17910245056291366
0.017399999999999916,-0.17966833508285968
0.016399999999999915,-0.18023421960280567
0.015399999999999914,-0.18094157525273818
0.014399999999999913,-0.18150745977268423
0.013399999999999912,-0.18207334429263022
0.012399999999999911,-0.18278069994256274
0.01139999999999991,-0.18334658446250876
0.01039999999999991,-0.18405394011244128
0.009399999999999908,-0.1846198246323873
0.008399999999999908,-0.1851857091523333
0.007399999999999907,-0.1858930648022658
0.006399999999999906,-0.18645894932221183
0.005399999999999905,-0.18716630497214437
0.004399999999999904,-0.18773218949209036
0.003399999999999903,-0.18829807401203638
0.002399999999999902,-0.1890054296619689
0.0013999999999999013,-0.18971278531190142
0.00039999999999990044,-0.19027866983184744
-0.0006000000000001005,-0.19098602548177993
-0.0016000000000001013,-0.19155191000172597
-0.0026000000000001022,-0.1922592656516585
-0.003600000000000103,-0.192966621301591
-0.004600000000000104,-0.193532505821537
-0.005600000000000105,-0.19423986147146954
-0.006600000000000106,-0.19494721712140206
-0.007600000000000107,-0.19551310164134805
-0.008600000000000108,-0.19622045729128057
-0.009600000000000108,-0.19692781294121312
-0.01060000000000011,-0.1974936974611591
-0.01160000000000011,-0.19820105311109162
-0.012600000000000111,-0.19890840876102414
-0.013600000000000112,-0.19961576441095666
-0.014600000000000113,-0.20032312006088918
-0.015600000000000114,-0.2008890045808352
-0.016600000000000115,-0.20159636023076774
-0.017600000000000116,-0.20216224475071373
-0.018600000000000116,-0.20286960040064628
-0.019600000000000117,-0.2035769560505788
-0.020600000000000118,-0.20428431170051128
-0.02160000000000012,-0.20499166735044383
-0.02260000000000012,-0.20555755187038985
-0.02360000000000012,-0.20640637865030886
-0.024600000000000122,-0.20711373430024138
-0.025600000000000123,-0.2076796188201874
-0.026600000000000124,-0.20838697447011992
-0.027600000000000124,-0.20909433012005244
-0.028600000000000125,-0.20980168576998495
-0.029600000000000126,-0.21050904141991747
-0.030600000000000127,-0.21121639706985
-0.03160000000000013,-0.211782281589796
-0.03260000000000013,-0.21248963723972852
-0.03360000000000013,-0.21319699288966104
-0.03460000000000002,-0.21390434853959353
-0.03560000000000002,-0.21461170418952608
-0.03660000000000002,-0.2153190598394586
-0.03760000000000002,-0.2160264154893911
-0.03860000000000002,-0.2167337711393236
-0.039600000000000024,-0.21744112678925615
-0.040600000000000025,-0.2181484824391887
-0.041600000000000026,-0.21871436695913468
-0.04260000000000003,-0.21942172260906717
-0.04360000000000003,-0.22012907825899972
-0.04460000000000003,-0.22083643390893223
-0.04560000000000003,-0.22154378955886472
-0.04660000000000003,-0.22225114520879727
-0.04760000000000003,-0.2229585008587298
-0.04860000000000003,-0.22366585650866228
-0.04960000000000003,-0.22437321215859482
-0.050600000000000034,-0.22493909667854084
-0.051600000000000035,-0.22564645232847336
-0.052600000000000036,-0.22635380797840585
-0.053600000000000037,-0.2270611636283384
-0.05460000000000004,-0.22776851927827088
-0.05560000000000004,-0.2284758749282034
-0.05660000000000004,-0.22918323057813594
-0.05760000000000004,-0.22989058622806843
-0.05860000000000004,-0.23059794187800098
-0.05960000000000004,-0.2313052975279335
-0.06060000000000004,-0.23187118204787951
-0.061600000000000044,-0.232578537697812
-0.06260000000000004,-0.23328589334774452
-0.06360000000000005,-0.23399324899767707
-0.06460000000000005,-0.23470060464760956
-0.06560000000000005,-0.23526648916755558
-0.06660000000000005,-0.2359738448174881
-0.06760000000000005,-0.23668120046742064
-0.06860000000000005,-0.23724708498736666
-0.06960000000000005,-0.23795444063729917
-0.07060000000000005,-0.2386617962872317
-0.07160000000000005,-0.2392276808071777
-0.07260000000000005,-0.2399350364571102
-0.07360000000000005,-0.24050092097705625
-0.07460000000000006,-0.24120827662698877
-0.07560000000000006,-0.24191563227692126
-0.07660000000000006,-0.24248151679686727
-0.07760000000000006,-0.24318887244679982
-0.07860000000000006,-0.24389622809673234
-0.07960000000000006,-0.24446211261667833
-0.08060000000000006,-0.24516946826661082
-0.08160000000000006,-0.24573535278655687
-0.08260000000000006,-0.24644270843648935
-0.08360000000000006,-0.2471500640864219
-0.08460000000000006,-0.2477159486063679
-0.08560000000000006,-0.24842330425630044
-0.08660000000000007,-0.24898918877624646
-0.08760000000000007,-0.24955507329619245
-0.08860000000000007,-0.25026242894612494
-0.08960000000000007,-0.25096978459605745
-0.09060000000000007,-0.2515356691160035
-0.09160000000000007,-0.252243024765936
-0.09260000000000007,-0.252808909285882
-0.09360000000000007,-0.25337479380582806
-0.09460000000000007,-0.2540821494557606
-0.09560000000000007,-0.25464803397570657
-0.09660000000000007,-0.2552139184956526
-0.09760000000000008,-0.2557798030155986
-0.09860000000000008,-0.2564871586655311
-0.09960000000000008,-0.2571945143154637
-0.10060000000000008,-0.25761892770542316
-0.10160000000000008,-0.2583262833553557
-0.10260000000000008,-0.2588921678753017
-0.10360000000000008,-0.2594580523952477
-0.10460000000000008,-0.26016540804518024
-0.10560000000000008,-0.2607312925651262
-0.10660000000000008,-0.26129717708507233
-0.10760000000000008,-0.2618630616050183
-0.10860000000000009,-0.2624289461249643
-0.10960000000000009,-0.2631363017748969
-0.11060000000000009,-0.2637021862948429
-0.11160000000000009,-0.26426807081478887
-0.11260000000000009,-0.2649754264647214
-0.11360000000000009,-0.26554131098466743
-0.11460000000000009,-0.2662486666345999
-0.11560000000000009,-0.26681455115454594
-0.11660000000000009,-0.26738043567449193
-0.1176000000000001,-0.267946320194438
-0.1186000000000001,-0.26851220471438403
-0.1196000000000001,-0.26907808923433
-0.1206000000000001,-0.269643973754276
-0.1216000000000001,-0.270209858274222
-0.1226000000000001,-0.27077574279416805
-0.1236000000000001,-0.27148309844410057
-0.1246000000000001,-0.27204898296404656
-0.1256000000000001,-0.2726148674839926
-0.1266000000000001,-0.2731807520039386
-0.1276000000000001,-0.2737466365238846
-0.1286000000000001,-0.27445399217381716
-0.1296000000000001,-0.27501987669376315
-0.1306000000000001,-0.27558576121370915
-0.1316000000000001,-0.27615164573365514
-0.1326000000000001,-0.2767175302536012
-0.1336000000000001,-0.2772834147735472
-0.1346000000000001,-0.27784929929349317
-0.1356000000000001,-0.27841518381343927
-0.1366000000000001,-0.27898106833338526
-0.1376000000000001,-0.27954695285333125
-0.1386000000000001,-0.28025430850326377
-0.1396000000000001,-0.2808201930232098
-0.1406000000000001,-0.2813860775431558
-0.14160000000000011,-0.2819519620631018
-0.14260000000000012,-0.28251784658304785
-0.14360000000000012,-0.28308373110299384
-0.14460000000000012,-0.28364961562293983
-0.14560000000000012,-0.2842155001428859
-0.14660000000000012,-0.28478138466283187
-0.14760000000000012,-0.2854887403127644
-0.14860000000000012,-0.28605462483271044
-0.14960000000000012,-0.2866205093526564
-0.15060000000000012,-0.2871863938726024
-0.15160000000000012,-0.28775227839254847
-0.15260000000000012,-0.2883181629124945
-0.15360000000000013,-0.289025518562427
-0.15460000000000013,-0.28959140308237297
-0.15560000000000013,-0.290157287602319
-0.15660000000000013,-0.29072317212226506
-0.15760000000000013,-0.2914305277721975
-0.15860000000000013,-0.29199641229214357
-0.15960000000000002,-0.29256229681208956
-0.16060000000000002,-0.2932696524620221
-0.16160000000000002,-0.2938355369819681
-0.16260000000000002,-0.2944014215019141
-0.16360000000000002,-0.29510877715184664
-0.16460000000000002,-0.2956746616717927
-0.16560000000000002,-0.2963820173217252
-0.16660000000000003,-0.29708937297165766
-0.16760000000000003,-0.29751378636161724
-0.16860000000000003,-0.29822114201154976
-0.16960000000000003,-0.29878702653149575
-0.17060000000000003,-0.2993529110514418
-0.17160000000000003,-0.30006026670137426
-0.17260000000000003,-0.3006261512213203
-0.17360000000000003,-0.3013335068712528
-0.17460000000000003,-0.30204086252118534
-0.17560000000000003,-0.30260674704113133
-0.17660000000000003,-0.3031726315610774
-0.17760000000000004,-0.30373851608102337
-0.17860000000000004,-0.3044458717309559
-0.17960000000000004,-0.30529469851087493
-0.18060000000000004,-0.3058605830308209
-0.18160000000000004,-0.3064264675507669
-0.18260000000000004,-0.30699235207071296
-0.18360000000000004,-0.3076997077206455
-0.18460000000000004,-0.308407063370578
-0.18560000000000004,-0.3091144190205105
-0.18660000000000004,-0.3096803035404565
-0.18760000000000004,-0.310387659190389
-0.18860000000000005,-0.31095354371033507
-0.18960000000000005,-0.3116608993602676
-0.19060000000000005,-0.31236825501020005
-0.19160000000000005,-0.31293413953014615
-0.19260000000000005,-0.3136414951800786
-0.19360000000000005,-0.31434885083001113
-0.19460000000000005,-0.31505620647994365
-0.19560000000000005,-0.31576356212987616
-0.19660000000000005,-0.31632944664982215
-0.19760000000000005,-0.3170368022997547
-0.19860000000000005,-0.3177441579496872
-0.19960000000000006,-0.3184515135996197
-0.20060000000000006,-0.3191588692495523
-0.20160000000000006,-0.31986622489948474
-0.20260000000000006,-0.3205735805494173
-0.20360000000000006,-0.32128093619934983
-0.20460000000000006,-0.3219882918492823
-0.20560000000000006,-0.32269564749921487
-0.20660000000000006,-0.3234030031491474
-0.20760000000000006,-0.32411035879907985
-0.20860000000000006,-0.3248177144490124
-0.20960000000000006,-0.32552507009894494
-0.21060000000000006,-0.32623242574887745
-0.21160000000000007,-0.32693978139880997
-0.21260000000000007,-0.32764713704874243
-0.21360000000000007,-0.32849596382866153
-0.21460000000000007,-0.329203319478594
-0.21560000000000007,-0.3299106751285265
-0.21660000000000007,-0.3306180307784591
-0.21760000000000007,-0.33146685755837807
-0.21860000000000007,-0.33217421320831064
-0.21960000000000007,-0.33302303998822963
-0.22060000000000007,-0.33373039563816215
-0.22160000000000007,-0.3344377512880947
-0.22260000000000008,-0.3351451069380272
-0.22360000000000008,-0.33585246258795975
-0.22460000000000008,-0.33670128936787874
-0.22560000000000008,-0.33740864501781126
-0.22660000000000008,-0.33811600066774383
-0.22760000000000008,-0.3389648274476628
-0.22860000000000008,-0.3396721830975953
-0.22960000000000008,-0.3405210098775144
-0.23060000000000008,-0.34136983665743337
-0.23160000000000008,-0.3419357211773794
-0.23260000000000008,-0.3427845479572984
-0.23360000000000009,-0.34363337473721745
-0.2346000000000001,-0.34434073038714996
-0.2356000000000001,-0.3450480860370824
-0.2366000000000001,-0.345755441687015
-0.2376000000000001,-0.3464627973369475
-0.2386000000000001,-0.3473116241168665
-0.2396000000000001,-0.34816045089678554
-0.2406000000000001,-0.34886780654671806
-0.2416000000000001,-0.3497166333266371
-0.2426000000000001,-0.35042398897656957
-0.2436000000000001,-0.35127281575648867
-0.2446000000000001,-0.3519801714064211
-0.2456000000000001,-0.3528289981863401
-0.2466000000000001,-0.3535363538362727
-0.2476000000000001,-0.3542437094862052
-0.2486000000000001,-0.35509253626612425
-0.2496000000000001,-0.35594136304604324
-0.2506000000000001,-0.3567901898259622
-0.2516000000000001,-0.3574975454758948
-0.2526000000000001,-0.3582049011258273
-0.2536000000000001,-0.35905372790574636
-0.2546000000000001,-0.35990255468566534
-0.2556000000000001,-0.36060991033559786
-0.2566000000000001,-0.3614587371155169
-0.2576000000000001,-0.36216609276544937
-0.2586000000000001,-0.36301491954536846
-0.2596000000000001,-0.36386374632528745
-0.2606000000000001,-0.3647125731052065
-0.2616000000000001,-0.36541992875513896
-0.2626000000000001,-0.366268755535058
-0.2636000000000001,-0.3669761111849905
-0.2646000000000001,-0.3678249379649095
-0.2656000000000001,-0.3686737647448286
-0.2666000000000001,-0.36938112039476106
-0.2676000000000001,-0.37022994717468005
-0.2686000000000001,-0.37107877395459915
-0.2696000000000001,-0.37192760073451814
-0.2706000000000001,-0.3727764275144372
-0.2716000000000001,-0.37362525429435617
-0.2726000000000001,-0.3744740810742752
-0.2736000000000001,-0.3753229078541942
-0.2746000000000001,-0.37617173463411324
-0.2756000000000001,-0.3770205614140323
-0.2766000000000001,-0.37786938819395127
-0.2776000000000001,-0.3787182149738703
-0.2786000000000001,-0.37970851288377583
-0.2796000000000001,-0.38055733966369487
-0.2806000000000001,-0.3815476375736004
-0.28160000000000013,-0.3823964643535194
-0.28260000000000013,-0.3832452911334384
-0.28360000000000013,-0.384235589043344
-0.2846,-0.38508441582326297
-0.2856,-0.38607471373316854
-0.2866,-0.3869235405130875
-0.2876,-0.38791383842299304
-0.2886,-0.38890413633289855
-0.2896,-0.3898944342428041
-0.2906,-0.39088473215270964
-0.2916,-0.39187503006261515
-0.2926,-0.39272385684253414
-0.2936,-0.3937141547524397
-0.29460000000000003,-0.3947044526623452
-0.29560000000000003,-0.3956947505722508
-0.29660000000000003,-0.39668504848215624
-0.29760000000000003,-0.3976753463920618
-0.29860000000000003,-0.3988071154319538
-0.29960000000000003,-0.39993888447184583
-0.30060000000000003,-0.4010706535117379
-0.30160000000000003,-0.4022024225516299
-0.30260000000000004,-0.40333419159152195
-0.30360000000000004,-0.404465960631414
-0.30460000000000004,-0.40559772967130603
-0.30560000000000004,-0.406729498711198
-0.30660000000000004,-0.4080027388810766
-0.30760000000000004,-0.40927597905095514
-0.30860000000000004,-0.4104077480908471
-0.30960000000000004,-0.4118224593907122
-0.31060000000000004,-0.4130956995605908
-0.31160000000000004,-0.41422746860048276
-0.31260000000000004,-0.41550070877036127
-0.31360000000000005,-0.41691542007022636
-0.31460000000000005,-0.41818866024010487
-0.31560000000000005,-0.4197448426699564
-0.31660000000000005,-0.42101808283983494
-0.31760000000000005,-0.42229132300971345
-0.31860000000000005,-0.4237060343095785
-0.31960000000000005,-0.42526221673943004
-0.32060000000000005,-0.4268183991692816
-0.32160000000000005,-0.4280916393391601
-0.32260000000000005,-0.4296478217690116
-0.32360000000000005,-0.4312040041988632
-0.32460000000000006,-0.4327601866287147
-0.32560000000000006,-0.4343163690585663
-0.32660000000000006,-0.43587255148841775
-0.32760000000000006,-0.43742873391826936
-0.32860000000000006,-0.4391263874781074
-0.32960000000000006,-0.4408240410379454
-0.33060000000000006,-0.44252169459778345
-0.33160000000000006,-0.4442193481576215
-0.33260000000000006,-0.4459170017174596
-0.33360000000000006,-0.44775612640728407
-0.33460000000000006,-0.44959525109710863
-0.33560000000000006,-0.4515758469169197
-0.33660000000000007,-0.45341497160674427
-0.33760000000000007,-0.4552540962965688
-0.33860000000000007,-0.4572346921163799
-0.33960000000000007,-0.4592152879361909
-0.34060000000000007,-0.46119588375600196
-0.34160000000000007,-0.46317647957581304
-0.34260000000000007,-0.465157075395624
-0.34360000000000007,-0.4672791423454216
-0.3446000000000001,-0.46954268042520564
-0.3456000000000001,-0.47166474737500325
-0.3466000000000001,-0.47378681432480074
-0.34759999999999996,-0.47590888127459835
-0.3486000000000001,-0.47817241935438237
-0.34959999999999997,-0.4804359574341665
-0.3506000000000001,-0.4826994955139505
-0.35159999999999997,-0.48496303359373455
-0.3526000000000001,-0.4873680428035051
-0.35359999999999997,-0.48977305201327564
-0.3546000000000001,-0.4923195323530327
-0.35559999999999997,-0.4948660126927898
-0.3566000000000001,-0.49727102190256034
-0.3576,-0.49981750224231747
-0.3586000000000001,-0.502505453712061
-0.3596,-0.5051934051818046
-0.3606000000000001,-0.5077398855215616
-0.3616,-0.5104278369913052
-0.3626000000000001,-0.5132572595910353
-0.3636,-0.5160866821907654
-0.3646000000000001,-0.5189161047904954
-0.3656,-0.5217455273902256
-0.3666000000000001,-0.5247164211199421
-0.3676,-0.5276873148496587
-0.3686000000000001,-0.5306582085793753
-0.3696,-0.5337705734390784
-0.3706000000000001,-0.5370244094287681
-0.3716,-0.540136774288471
-0.3726000000000001,-0.5432491391481741
-0.3736,-0.5466444462678502
-0.3746000000000001,-0.5498982822575398
-0.3756,-0.553293589377216
-0.3766000000000001,-0.5565474253669055
-0.3776,-0.5599427324865814
-0.3786000000000001,-0.5634795107362441
-0.3796,-0.5671577601158931
-0.3806000000000001,-0.5706945383655557
-0.3816,-0.5742313166152184
-0.3826000000000001,-0.5779095659948674
-0.3836,-0.5817292865045031
-0.3846000000000001,-0.5855490070141387
-0.3856,-0.5893687275237742
-0.3866000000000001,-0.5930469769034233
-0.3876,-0.5970081685430455
-0.3886000000000001,-0.6009693601826676
-0.3896,-0.6050720229522761
-0.3906000000000001,-0.6091746857218847
-0.3916,-0.6132773484914934
-0.3926000000000001,-0.617380011261102
-0.3936,-0.6214826740307106
-0.3946000000000001,-0.6258682790602923
-0.3956,-0.6302538840898738
-0.3966000000000001,-0.6344980179894689
-0.3976,-0.6390250941490371
-0.3986000000000001,-0.6435521703086051
-0.3996,-0.6480792464681732
-0.4006000000000001,-0.652747793757728
-0.4016,-0.6574163410472825
-0.4026000000000001,-0.6620848883368372
-0.4036,-0.6668949067563783
-0.4046000000000001,-0.6717049251759195
-0.4056,-0.6767978858554337
-0.40660000000000013,-0.6816079042749748
-0.4076,-0.6865593938245023
-0.40860000000000013,-0.6916523545040165
-0.4096,-0.6967453151835306
-0.41060000000000013,-0.7018382758630447
-0.4116,-0.7070727076725454
-0.41260000000000013,-0.7121656683520595
-0.4136,-0.7175415712915466
-0.41460000000000014,-0.7229174742310338
-0.4156,-0.7282933771705209
-0.41660000000000014,-0.7336692801100081
-0.4176,-0.7390451830494952
-0.41860000000000014,-0.7447040282489552
-0.41960000000000003,-0.7503628734484155
-0.42060000000000014,-0.7558802475178891
-0.42160000000000003,-0.7615390927173492
-0.42260000000000014,-0.7671979379168093
-0.42360000000000003,-0.772998254246256
-0.42460000000000014,-0.7787985705757027
-0.42560000000000003,-0.7845988869051493
-0.42660000000000015,-0.7905406743645824
-0.42760000000000004,-0.7964824618240156
-0.42860000000000015,-0.8024242492834487
-0.42960000000000004,-0.808366036742882
-0.43060000000000015,-0.8143078242023152
-0.43160000000000004,-0.8203910827917348
-0.43260000000000015,-0.826332870251168
-0.43360000000000004,-0.8325575999705741
-0.43460000000000015,-0.8386408585599938
-0.43560000000000004,-0.8445826460194269
-0.43660000000000015,-0.850807375738833
-0.43760000000000004,-0.8570321054582393
-0.43860000000000016,-0.8632568351776454
-0.43960000000000005,-0.8694815648970515
-0.44060000000000016,-0.8758477657464442
-0.44160000000000005,-0.8820724954658503
-0.44260000000000016,-0.8882972251852566
