Potential V vs RHE, Current mA cm-2
0.013299999999999867,13.14266797574619
0.012299999999999978,11.819912910372382
0.011299999999999866,10.7914177953705
0.010299999999999976,9.860537760059307
0.009299999999999864,8.993319733242037
0.008299999999999974,8.225131497415324
0.007299999999999862,7.53050824918159
0.006299999999999972,6.883985185143269
0.00529999999999986,6.262926924502518
0.0042999999999999705,5.636209818662306
0.0032999999999998586,5.057592897017507
0.0022999999999999687,4.525661448268252
0.0012999999999998568,4.027683070715759
0.00029999999999996696,3.5311194044631313
-0.000700000000000145,3.0189939139119883
-0.0017000000000000348,2.5280890928588207
-0.0027000000000001467,2.0937727238002544
-0.0037000000000000366,1.6820917355395286
-0.0047000000000001485,1.2620639506095992
-0.005700000000000038,0.8219472652215865
-0.00670000000000015,0.4024853648116029
-0.00770000000000004,0.03855088292132225
-0.008700000000000152,-0.31873445585959276
-0.009700000000000042,-0.6869838072144618
-0.010700000000000154,-1.07631235693732
-0.011700000000000044,-1.4430055258623373
-0.012700000000000156,-1.7627302796318356
-0.013700000000000045,-2.0626490752032236
-0.014700000000000157,-2.383788540272587
-0.015700000000000047,-2.7162456957408705
-0.01670000000000016,-3.0529469851087487
-0.01770000000000005,-3.3415480902812167
-0.01870000000000016,-3.6046843920561136
-0.01970000000000005,-3.8904560746288515
-0.020700000000000163,-4.187545447600509
-0.021700000000000053,-4.486049531872031
-0.022700000000000164,-4.757674101446118
-0.023700000000000054,-4.995345599823445
-0.024700000000000166,-5.264140746797801
-0.025700000000000056,-5.561230119769459
-0.026700000000000168,-5.830025266743816
-0.027700000000000058,-6.076185032920332
-0.02870000000000017,-6.2883917279000885
-0.02970000000000006,-6.521819092377819
-0.03070000000000017,-6.803346641050961
-0.03170000000000006,-7.055165252426939
-0.03270000000000017,-7.287177905604803
-0.03370000000000006,-7.50221402318429
-0.034700000000000175,-7.731397253762426
-0.035700000000000065,-8.001607112036647
-0.03670000000000018,-8.253425723412624
-0.03770000000000007,-8.464217707092514
-0.03870000000000018,-8.655203732574295
-0.03970000000000007,-8.901363498750811
-0.04070000000000018,-9.188549892623413
-0.04170000000000007,-9.45451561699804
-0.04270000000000018,-9.646916353779686
-0.04370000000000007,-9.795461040265515
-0.044700000000000184,-10.02747369344338
-0.045700000000000074,-10.275048170919762
-0.046700000000000186,-10.532525627495199
-0.047700000000000076,-10.730585209476303
-0.04870000000000019,-10.917327101058488
-0.04970000000000008,-11.109727837840133
-0.05070000000000019,-11.34739933621746
-0.05170000000000008,-11.577997278095461
-0.05270000000000019,-11.783130416575892
-0.05370000000000008,-11.985434132456591
-0.05470000000000019,-12.207543806535401
-0.05570000000000008,-12.446630016212593
-0.056700000000000195,-12.675813246790728
-0.057700000000000085,-12.883775807870888
-0.058700000000000196,-13.067688276853342
-0.059700000000000086,-13.284139105732693
-0.0607000000000002,-13.496345800712449
-0.06170000000000009,-13.750993834688156
-0.0627000000000002,-13.964615240967778
-0.06370000000000009,-14.147112998650368
-0.0647000000000002,-14.345172580631472
-0.06570000000000009,-14.57152638860988
-0.0667000000000002,-14.812027309586934
-0.0677000000000001,-15.01008689156804
-0.0687000000000002,-15.222293586547794
-0.0697000000000001,-15.3920589425316
-0.07070000000000021,-15.632559863508657
-0.0717000000000001,-15.858913671487063
-0.07270000000000021,-16.085267479465468
-0.0737000000000001,-16.28332706144657
-0.07470000000000021,-16.495533756426326
-0.0757000000000001,-16.736034677403385
-0.07670000000000021,-16.97653559838044
-0.0777000000000001,-17.146300954364243
-0.07870000000000021,-17.301919197349395
-0.0797000000000001,-17.471684553333205
-0.08070000000000022,-17.698038361311607
-0.0817000000000001,-17.952686395287316
-0.08270000000000022,-18.164893090267068
-0.08370000000000011,-18.377099785246827
-0.08470000000000022,-18.589306480226583
-0.08570000000000011,-18.829807401203638
-0.08670000000000022,-19.070308322180697
-0.08770000000000011,-19.2400736781645
-0.08870000000000022,-19.423986147146955
-0.08970000000000011,-19.60789861612941
-0.09070000000000022,-19.848399537106463
-0.09170000000000011,-20.10304757108217
-0.09270000000000023,-20.301107153063278
-0.09370000000000012,-20.499166735044383
-0.09470000000000023,-20.711373430024135
-0.09570000000000012,-20.93772723800254
-0.09670000000000023,-21.16408104598095
-0.09770000000000012,-21.362140627962056
-0.09870000000000023,-21.54605309694451
-0.09970000000000012,-21.758259791924264
-0.10070000000000023,-22.012907825899973
-0.10170000000000012,-22.267555859875678
-0.10270000000000024,-22.493909667854084
-0.10370000000000013,-22.67782213683654
-0.10470000000000024,-22.87588171881764
-0.10570000000000013,-23.1163826397947
-0.10670000000000024,-23.356883560771752
-0.10770000000000013,-23.56909025575151
-0.10870000000000024,-23.753002724733967
-0.10970000000000013,-23.951062306715073
-0.11070000000000024,-24.20571034069078
-0.11170000000000013,-24.460358374666487
-0.11270000000000002,-24.686712182644893
-0.11370000000000013,-24.898918877624645
-0.11470000000000002,-25.06868423360845
-0.11570000000000014,-25.337479380582806
-0.11670000000000003,-25.592127414558515
-0.11770000000000014,-25.80433410953827
-0.11870000000000003,-26.016540804518023
-0.11970000000000014,-26.22874749949778
-0.12070000000000003,-26.469248420474838
-0.12170000000000014,-26.709749341451893
-0.12270000000000003,-26.921956036431645
-0.12370000000000014,-27.1058685054141
-0.12470000000000003,-27.332222313392506
-0.12570000000000014,-27.65760591236147
-0.12670000000000003,-27.954695285333123
-0.12770000000000015,-28.18104909331153
-0.12870000000000004,-28.379108675292635
-0.12970000000000015,-28.577168257273744
-0.13070000000000004,-28.831816291249446
-0.13170000000000015,-29.100611438223805
-0.13270000000000004,-29.34111235920086
-0.13370000000000015,-29.59576039317657
-0.13470000000000004,-29.822114201154974
-0.13570000000000015,-30.09090934812933
-0.13670000000000004,-30.387998721100992
-0.13770000000000016,-30.656793868075347
-0.13870000000000005,-30.897294789052403
-0.13970000000000016,-31.12364859703081
-0.14070000000000005,-31.37829663100651
-0.14170000000000016,-31.64709177798087
-0.14270000000000005,-31.915886924955227
-0.14370000000000016,-32.11394650693633
-0.14470000000000005,-32.368594540912035
-0.14570000000000016,-32.6373896878864
-0.14670000000000005,-32.9486261738567
-0.14770000000000016,-33.245715546828364
-0.14870000000000005,-33.54280491980002
-0.14970000000000017,-33.825747179773025
-0.15070000000000006,-34.10868943974604
-0.15170000000000017,-34.34919036072309
-0.15270000000000006,-34.5755441687015
-0.15370000000000017,-34.81604508967855
-0.15470000000000006,-35.04239889765696
-0.15570000000000017,-35.38192960962457
-0.15670000000000006,-35.79219588658543
-0.15770000000000017,-36.16002082455034
-0.15870000000000006,-36.570287101511205
-0.15970000000000018,-36.88152358748151
-0.16070000000000007,-37.164465847454515
-0.16170000000000018,-37.43326099442887
-0.16270000000000007,-37.44740810742752
-0.16370000000000018,-37.48984944642347
-0.16470000000000007,-37.716203254401876
-0.16570000000000018,-38.28208777434789
-0.16670000000000007,-38.72064827730605
-0.16770000000000018,-39.060178989273666
-0.16870000000000007,-39.272385684253415
-0.16970000000000018,-39.58362217022373
-0.17070000000000007,-39.85241731719808
-0.17170000000000019,-40.177800916167044
-0.17270000000000008,-40.37586049814815
-0.1737000000000002,-40.630508532123855
-0.17470000000000008,-40.8993036790982
-0.1757000000000002,-41.196393052069865
-0.17670000000000008,-41.50762953804018
-0.1777000000000002,-41.84716025000779
-0.17870000000000008,-42.10180828398349
-0.1797000000000002,-42.3847505439565
-0.18070000000000008,-42.681839916928155
-0.1817000000000002,-42.96478217690117
-0.18270000000000008,-43.23357732387552
-0.1837000000000002,-43.48822535785123
-0.1847000000000001,-43.78531473082289
-0.1857000000000002,-44.08240410379454
-0.1867000000000001,-44.39364058976485
-0.1877000000000002,-44.67658284973786
-0.1887000000000001,-44.90293665771627
-0.1897000000000002,-45.20002603068792
-0.1907000000000001,-45.567850968652834
-0.1917000000000001,-45.82249900262854
-0.19269999999999998,-46.048852810606945
-0.1937000000000001,-46.30350084458265
-0.19469999999999998,-46.544001765559706
-0.1957000000000001,-46.81279691253406
-0.19669999999999999,-47.095739172507066
-0.1977000000000001,-47.37868143248008
-0.1987,-47.619182353457134
-0.1997000000000001,-47.83138904843689
-0.2007,-48.2275082123991
-0.2017000000000001,-48.524597585370756
-0.2027,-48.68021582835591
-0.2037000000000001,-48.84998118433972
-0.2047,-49.03389365332217
-0.2057000000000001,-49.26024746130057
-0.2067,-49.41586570428573
-0.2077000000000001,-49.557336834272235
-0.2087,-49.75539641625335
-0.2097000000000001,-50.109074241219595
-0.2107,-50.40616361419126
-0.2117000000000001,-50.59007608317371
-0.2127,-50.70325298716291
-0.2137000000000001,-50.78813566515482
-0.2147,-50.90131256914402
-0.2157000000000001,-51.113519264123774
-0.2167,-51.28328462010758
-0.21770000000000012,-51.52378554108463
-0.2187,-51.679403784069784
-0.21970000000000012,-51.83502202705494
-0.2207,-51.919904705046854
-0.22170000000000012,-52.00478738303875
-0.2227,-52.075522948032
-0.22370000000000012,-52.11796428702795
-0.2247,-52.20284696501985
-0.22570000000000012,-52.37261232100366
-0.2267,-52.44334788599691
-0.22770000000000012,-52.514083450990164
-0.22870000000000001,-52.57067190298476
-0.22970000000000013,-52.65555458097666
-0.23070000000000002,-52.75458437196722
-0.23170000000000013,-52.79702571096317
-0.23270000000000002,-52.82531993696047
-0.23370000000000013,-52.76873148496586
-0.23470000000000002,-52.75458437196722
-0.23570000000000013,-52.86776127595642
-0.23670000000000002,-52.83946704995912
-0.2376999999999999,-52.853614162957776
-0.23870000000000002,-52.82531993696047
-0.2396999999999999,-52.74043725896857
-0.24070000000000003,-52.75458437196722
-0.24169999999999991,-52.69799591997262
-0.24270000000000003,-52.61311324198071
-0.24369999999999992,-52.57067190298476
-0.24470000000000003,-52.54237767698746
-0.24569999999999992,-52.41505365999961
-0.24670000000000003,-52.34431809500636
-0.24769999999999992,-52.25943541701445
-0.24870000000000003,-52.1038171740293
-0.24969999999999992,-51.962346044042796
-0.25070000000000003,-51.934051818045496
-0.2516999999999999,-51.8491691400536
-0.25270000000000004,-51.75013934906303
-0.2536999999999999,-51.481344202088685
-0.25470000000000004,-51.29743173310623
-0.2556999999999999,-51.127666377122424
-0.25670000000000004,-50.957901021138625
-0.25769999999999993,-50.83057700415076
-0.25870000000000004,-50.61837030917101
-0.25969999999999993,-50.37786938819396
-0.26070000000000004,-50.179809806212845
-0.26169999999999993,-50.0807800152223
-0.26270000000000004,-49.939308885235796
-0.26369999999999993,-49.74124930325469
-0.26470000000000005,-49.52904260827494
-0.26569999999999994,-49.35927725229113
-0.26670000000000005,-49.18951189630732
-0.26769999999999994,-48.93486386233162
-0.26870000000000005,-48.72265716735186
-0.26969999999999994,-48.524597585370756
-0.27070000000000005,-48.3406851163883
-0.27169999999999994,-48.1992139864018
-0.27270000000000005,-48.100184195411245
-0.27369999999999994,-47.987007291422046
-0.27470000000000006,-47.80309482243959
-0.27569999999999995,-47.67577080545174
-0.27670000000000006,-47.49185833646928
-0.27769999999999995,-47.30794586748683
-0.27870000000000006,-47.095739172507066
-0.27969999999999995,-46.89767959052597
-0.28070000000000006,-46.82694402553272
-0.28169999999999995,-46.77035557353811
-0.28270000000000006,-46.65717866954891
-0.28369999999999995,-46.544001765559706
-0.28470000000000006,-46.38838352257455
-0.28569999999999995,-46.204471053592094
-0.28670000000000007,-46.147882601597495
-0.28769999999999996,-46.10544126260155
-0.28870000000000007,-46.006411471610996
-0.28969999999999996,-45.93567590661774
-0.29070000000000007,-45.949823019616396
-0.29169999999999996,-45.90738168062044
-0.29270000000000007,-45.82249900262854
-0.29369999999999996,-45.78005766363259
-0.2947000000000001,-45.78005766363259
-0.29569999999999996,-45.82249900262854
-0.2967000000000001,-45.90738168062044
-0.29769999999999996,-45.87908745462314
-0.2987000000000001,-45.86494034162449
-0.29969999999999997,-45.90738168062044
-0.3007000000000001,-45.89323456762179
-0.30169999999999997,-45.97811724561369
-0.3027000000000001,-46.048852810606945
-0.30369999999999997,-46.133735488598845
-0.3047000000000001,-46.2610595055867
-0.30569999999999997,-46.37423640957591
-0.3067000000000001,-46.44497197456916
-0.3077,-46.38838352257455
-0.3087000000000001,-46.33179507057995
-0.3097,-46.38838352257455
-0.3107000000000001,-46.713767121543505
-0.3117,-46.95426804252057
-0.3127000000000001,-47.19476896349763
-0.3137,-47.435269884474685
-0.3147000000000001,-47.590888127459834
-0.3157,-47.689917918450384
-0.3167000000000001,-47.74650637044499
-0.3177,-47.87383038743284
-0.3187000000000001,-48.04359574341665
-0.3197,-48.2558024383964
-0.3207000000000001,-48.524597585370756
-0.3217,-48.80753984534376
-0.3227000000000001,-49.076334992318124
-0.3237,-49.30268880029653
-0.3247000000000001,-49.50074838227763
-0.3257,-49.74124930325469
-0.3267000000000001,-50.010044450229046
-0.3277,-50.30713382320071
-0.3287000000000001,-50.53348763117911
-0.3297,-50.80228277815347
-0.3307000000000001,-51.113519264123774
-0.3317,-51.396461524096786
-0.3327000000000001,-51.62281533207519
-0.3337,-51.8491691400536
-0.3347000000000001,-52.11796428702795
-0.3357,-52.42920077299826
-0.3367000000000001,-52.75458437196722
-0.3377,-53.051673744938874
-0.3387000000000001,-53.32046889191324
-0.3397,-53.57511692588894
-0.3407000000000001,-53.91464763785655
-0.3417,-54.24003123682551
-0.3427000000000001,-54.57956194879311
-0.3437,-54.904945547762075
-0.3447000000000001,-55.21618203373238
-0.3457,-55.541565632701335
-0.3467000000000001,-55.8669492316703
-0.3477,-56.22062705663656
-0.3487000000000001,-56.50356931660957
-0.3497,-56.82895291557852
-0.3507000000000001,-57.19677785354343
-0.3517,-57.57874990450699
-0.3527000000000001,-57.9465748424719
-0.3537,-58.24366421544356
-0.3547000000000001,-58.63978337940577
-0.3557,-59.035902543367975
-0.35670000000000013,-59.36128614233694
-0.3577,-59.6583755153086
-0.35870000000000013,-59.92717066228296
-0.3597,-60.28084848724921
-0.36070000000000013,-60.71940899020737
-0.3617,-61.29944062315204
-0.3626999999999999,-61.66726556111695
-0.3637,-61.96435493408861
-0.3646999999999999,-62.36047409805081
-0.3657,-62.74244614901438
-0.3666999999999999,-63.19515376497119
-0.3677,-63.76103828491719
-0.3686999999999999,-64.17130456187807
-0.36970000000000003,-64.69474774282813
-0.3706999999999999,-65.3030736017701
-0.37170000000000003,-65.670898539735
-0.3726999999999999,-66.10945904269316
-0.37370000000000003,-66.57631377164863
-0.3746999999999999,-67.11390406559734
-0.37570000000000003,-67.63734724654739
-0.3766999999999999,-68.31640867048262
-0.37770000000000004,-69.03791143341378
-0.3786999999999999,-69.71697285734902
-0.37970000000000004,-70.39603428128423
-0.3806999999999999,-71.1458312702127
-0.38170000000000004,-72.03709938912766
-0.38269999999999993,-72.84348483005074
-0.38370000000000004,-73.60742893197786
-0.38469999999999993,-74.41381437290093
-0.38570000000000004,-75.43240650880375
-0.38669999999999993,-75.06458157083884
-0.38570000000000004,-73.5649875929819
-0.38469999999999993,-72.48980700508447
-0.38370000000000004,-71.72586290315735
-0.38269999999999993,-71.04680147922215
-0.38170000000000004,-70.35359294228827
-0.3806999999999999,-69.71697285734902
-0.37970000000000004,-69.05205854641244
-0.3786999999999999,-68.52861536546239
-0.37770000000000004,-68.17493754049613
-0.3766999999999999,-67.693935698542
-0.37570000000000003,-67.24122808258521
-0.3746999999999999,-66.77437335362974
-0.37370000000000003,-66.44898975466076
-0.3726999999999999,-65.9255465737107
-0.37170000000000003,-65.33136782776738
-0.3706999999999999,-64.83621887281464
-0.36970000000000003,-64.36936414385917
-0.3686999999999999,-63.803479623913155
-0.3677,-63.181006651972545
-0.3666999999999999,-62.71415192301708
-0.3657,-62.10582606407511
-0.3646999999999999,-61.49750020513315
-0.3637,-61.07308681517363
-0.3626999999999999,-60.54964363422357
-0.3617,-59.68666974130589
-0.36070000000000013,-58.99346120437203
-0.3597,-58.39928245842871
-0.35870000000000013,-58.08804597245841
-0.3577,-57.76266237348945
-0.35670000000000013,-57.30995475753264
-0.3557,-56.75821735058527
-0.3547000000000001,-56.1781857176406
-0.3537,-55.51327140670405
-0.3527000000000001,-54.876651321764776
-0.3517,-54.409796592809315
-0.3507000000000001,-53.82976495986464
-0.3497,-53.30632177891458
-0.3487000000000001,-52.71214303297127
-0.3477,-52.11796428702795
-0.3467000000000001,-51.52378554108463
-0.3457,-50.88716545614537
-0.3447000000000001,-50.22225114520881
-0.3437,-49.557336834272235
-0.3427000000000001,-48.90656963633432
-0.3417,-48.26994955139505
-0.3407000000000001,-47.605035240458484
-0.3397,-46.89767959052597
-0.3387000000000001,-46.2327652795894
-0.3377,-45.46882117766227
-0.3367000000000001,-44.73317130173246
-0.3357,-44.054109877797245
-0.3347000000000001,-43.26187154987282
-0.3337,-42.483780334947056
-0.3327000000000001,-41.87545447600508
-0.3317,-41.22468727806717
-0.3307000000000001,-40.559772967130606
-0.3297,-39.76753463920618
-0.3287000000000001,-38.98944342428042
-0.3277,-38.197205096355994
-0.3267000000000001,-37.43326099442887
-0.3257,-36.655169779503105
-0.3247000000000001,-35.862931451578675
-0.3237,-35.02825178465831
-0.3227000000000001,-34.26430768273119
-0.3217,-33.51451069380272
-0.3207000000000001,-32.764713704874254
-0.3197,-32.11394650693633
-0.3187000000000001,-31.37829663100651
-0.3177,-30.685088094072643
-0.3167000000000001,-29.977732444140123
-0.3157,-29.213788342213007
-0.3147000000000001,-28.49228557928184
-0.3137,-27.728341477354718
-0.3127000000000001,-26.89366181043435
-0.3117,-26.101423482509926
-0.3107000000000001,-25.351626493581456
-0.3097,-24.587682391654337
-0.3087000000000001,-23.96520941971372
-0.3077,-23.371030673770406
-0.3067000000000001,-22.748557701829792
-0.30569999999999997,-22.111937616890522
-0.3047000000000001,-21.333846401964752
-0.30369999999999997,-20.598196526034933
-0.3027000000000001,-19.904987989101066
-0.30169999999999997,-19.2683679041618
-0.3007000000000001,-18.660042045219836
-0.29969999999999997,-18.02342196028057
-0.2987000000000001,-17.37265476234265
-0.29769999999999996,-16.778476016399335
-0.2967000000000001,-16.184297270456018
-0.29569999999999996,-15.547677185516752
-0.2947000000000001,-14.967645552572087
-0.29369999999999996,-14.401761032626075
-0.29270000000000007,-13.835876512680057
-0.29169999999999996,-13.289797950932153
-0.29070000000000007,-12.76635476998209
-0.28969999999999996,-12.183493714437697
-0.28870000000000007,-11.6006326588933
-0.28769999999999996,-11.067286498844181
-0.28670000000000007,-10.559405142192633
-0.28569999999999995,-10.02747369344338
-0.28470000000000006,-9.47432157519615
-0.28369999999999995,-8.933901858647706
-0.28270000000000006,-8.450070594093864
-0.28169999999999995,-7.976142308639078
-0.28070000000000006,-7.483822776286043
-0.27969999999999995,-6.987259110033416
-0.27870000000000006,-6.487866021181058
-0.27769999999999995,-6.025255426125191
-0.27670000000000006,-5.58952434576676
-0.27569999999999995,-5.133987307210218
-0.27470000000000006,-4.671376712154351
-0.27369999999999994,-4.20452198319889
-0.27270000000000005,-3.7772791706396474
-0.27169999999999994,-3.355695203279867
-0.27070000000000005,-2.9185494116215707
-0.26969999999999994,-2.4531093939659736
-0.26870000000000005,-1.9904987989101068
-0.26769999999999994,-1.5759883880496508
-0.26670000000000005,-1.1877916073666848
-0.26569999999999994,-0.8416117522897104
-0.26470000000000005,-0.4115395171307392
