Potential V vs RHE, Current mA cm-2
0.013299999999999867,10.901765276759972
0.012299999999999978,9.113570193730567
0.011299999999999866,7.49938460058456
0.010299999999999976,5.9729111080301855
0.009299999999999864,4.534149716067443
0.008299999999999974,3.1816857133964676
0.007299999999999862,1.8730777610213083
0.006299999999999972,0.5647527509061226
0.00529999999999986,-0.7437137303390498
0.0042999999999999705,-2.052746096104168
0.0032999999999998586,-3.317497998183511
0.0022999999999999687,-4.626105950558669
0.0012999999999998568,-5.847001802342197
0.00029999999999996696,-7.024041603829907
-0.000700000000000145,-8.158640066321666
-0.0017000000000000348,-9.205526428221793
-0.0027000000000001467,-10.208556739826104
-0.0037000000000000366,-11.211587051430415
-0.0047000000000001485,-12.170761312738911
-0.005700000000000038,-13.175206335643086
-0.00670000000000015,-14.175407224647667
-0.00770000000000004,-15.222293586547794
-0.008700000000000152,-16.269179948447924
-0.009700000000000042,-17.316066310348052
-0.010700000000000154,-18.27806999425627
-0.011700000000000044,-19.28251501716045
-0.012700000000000156,-20.159636023076775
-0.013700000000000045,-20.980168576998494
-0.014700000000000157,-21.814848243918867
-0.015700000000000047,-22.592939458844636
-0.01670000000000016,-23.47006046476096
-0.01770000000000005,-24.290593018682678
-0.01870000000000016,-25.12527268560305
-0.01970000000000005,-26.044835030515326
-0.020700000000000163,-26.907808923433
-0.021700000000000053,-27.827371268345274
-0.022700000000000164,-28.704492274261593
-0.023700000000000054,-29.482583489187363
-0.024700000000000166,-30.274821817111786
-0.025700000000000056,-31.010471693041605
-0.026700000000000168,-31.717827342974125
-0.027700000000000058,-32.45347721890394
-0.02870000000000017,-33.14668575583781
-0.02970000000000006,-33.89648274476628
-0.03070000000000017,-34.717015298688004
-0.03170000000000006,-35.50925362661242
-0.03270000000000017,-36.329786180534136
-0.03370000000000006,-37.122024508458566
-0.034700000000000175,-37.90011572338433
-0.035700000000000065,-38.692354051308754
-0.03670000000000018,-39.34312124924667
-0.03770000000000007,-39.99388844718459
-0.03870000000000018,-40.65880275812115
-0.03970000000000007,-41.30956995605907
-0.04070000000000018,-42.00277849299294
-0.04170000000000007,-42.71013414292546
-0.04270000000000018,-43.44578401885527
-0.04370000000000007,-44.223875233781044
-0.044700000000000184,-45.05855490070142
-0.045700000000000074,-45.79420477663124
-0.046700000000000186,-46.544001765559706
-0.047700000000000076,-47.23721030249357
-0.04870000000000019,-47.8879775004315
-0.04970000000000008,-48.55289181136806
-0.05070000000000019,-49.16121767031002
-0.05170000000000008,-49.81198486824794
-0.05270000000000019,-50.46275206618586
-0.05370000000000008,-51.21254905511432
-0.05470000000000019,-51.948198931044146
-0.05570000000000008,-52.74043725896857
-0.056700000000000195,-53.476087134898386
-0.057700000000000085,-54.26832546282281
-0.058700000000000196,-54.961533999756675
-0.059700000000000086,-55.612301197694585
-0.0607000000000002,-56.26306839563251
-0.06170000000000009,-56.927982706569075
-0.0627000000000002,-57.57874990450699
-0.06370000000000009,-58.22951710244491
-0.0647000000000002,-58.92272563937878
-0.06570000000000009,-59.67252262830725
-0.0667000000000002,-60.40817250423707
-0.0677000000000001,-61.242852171157445
-0.0687000000000002,-61.97850204708726
-0.0697000000000001,-62.72829903601572
-0.07070000000000021,-63.421507572949594
-0.0717000000000001,-64.0722747708875
-0.07270000000000021,-64.72304196882543
-0.0737000000000001,-65.34551494076604
-0.07470000000000021,-66.03872347769992
-0.0757000000000001,-66.68949067563783
-0.07670000000000021,-67.43928766456631
-0.0777000000000001,-68.21737887949207
-0.07870000000000021,-69.0096172074165
-0.0797000000000001,-69.78770842234226
-0.08070000000000022,-70.57994675026669
-0.0817000000000001,-71.31559662619651
-0.08270000000000022,-72.05124650212633
-0.08370000000000011,-72.75860215205884
-0.08470000000000022,-73.40936934999675
-0.08570000000000011,-74.06013654793468
-0.08670000000000022,-74.72505085887124
-0.08770000000000011,-75.4182593958051
-0.08870000000000022,-76.19635061073087
-0.08970000000000011,-76.98858893865528
-0.09070000000000022,-77.80912149257702
-0.09170000000000011,-78.64380115949739
-0.09270000000000023,-79.42189237442317
-0.09370000000000012,-80.17168936335163
-0.09470000000000023,-80.86489790028548
-0.09570000000000012,-81.57225355021802
-0.09670000000000023,-82.22302074815593
-0.09770000000000012,-82.9162292850898
-0.09870000000000023,-83.60943782202366
-0.09970000000000012,-84.35923481095215
-0.10070000000000023,-85.17976736487385
-0.10170000000000012,-86.01444703179425
-0.10270000000000024,-86.84912669871461
-0.10370000000000013,-87.66965925263632
-0.10470000000000024,-88.5043389195567
-0.10570000000000013,-89.23998879548651
-0.10670000000000024,-89.98978578441499
-0.10770000000000013,-90.7254356603448
-0.10870000000000024,-91.37620285828272
-0.10970000000000013,-92.08355850821525
-0.11070000000000024,-92.7767670451491
-0.11170000000000013,-93.55485826007487
-0.11270000000000002,-94.38953792699526
-0.11370000000000013,-95.22421759391563
-0.11470000000000002,-96.0871914868333
-0.11570000000000014,-96.92187115375367
-0.11670000000000003,-97.69996236867944
-0.11770000000000014,-98.4497593576079
-0.11870000000000003,-99.18540923353773
-0.11970000000000014,-99.87861777047159
-0.12070000000000003,-100.62841475940007
-0.12170000000000014,-101.3640646353299
-0.12270000000000003,-102.11386162425833
-0.12370000000000014,-102.93439417818009
-0.12470000000000003,-103.7266325061045
-0.12570000000000014,-104.5471650600262
-0.12670000000000003,-105.42428606594254
-0.12770000000000015,-106.2589657328629
-0.12870000000000004,-107.03705694778867
-0.12970000000000015,-107.8292952757131
-0.13070000000000004,-108.56494515164292
-0.13170000000000015,-109.35718347956733
-0.13270000000000004,-110.09283335549715
-0.13370000000000015,-110.82848323142699
-0.13470000000000004,-111.6207215593514
-0.13570000000000015,-112.44125411327312
-0.13670000000000004,-113.31837511918944
-0.13770000000000016,-114.19549612510575
-0.13870000000000005,-115.05847001802343
-0.13970000000000016,-115.93559102393975
-0.14070000000000005,-116.72782935186417
-0.14170000000000016,-117.50592056678994
-0.14270000000000005,-118.24157044271978
-0.14370000000000016,-118.94892609265229
-0.14470000000000005,-119.68457596858211
-0.14570000000000016,-120.43437295751058
-0.14670000000000005,-121.2549055114323
-0.14770000000000016,-122.08958517835266
-0.14870000000000005,-122.95255907127036
-0.14970000000000017,-123.87212141618261
-0.15070000000000006,-124.74924242209892
-0.15170000000000017,-125.56977497602065
-0.15270000000000006,-126.3195719649491
-0.15370000000000017,-127.05522184087894
-0.15470000000000006,-127.76257749081147
-0.15570000000000017,-128.45578602774532
-0.15670000000000006,-129.19143590367514
-0.15770000000000017,-129.9412328926036
-0.15870000000000006,-130.67688276853346
-0.15970000000000018,-131.5115624354538
-0.16070000000000007,-132.37453632837148
-0.16170000000000018,-133.3365400122797
-0.16270000000000007,-134.256102357192
-0.16370000000000018,-135.2181060411002
-0.16470000000000007,-136.08107993401788
-0.16570000000000018,-136.91575960093826
-0.16670000000000007,-137.65140947686808
-0.16770000000000018,-138.3163237878046
-0.16870000000000007,-138.96709098574257
-0.16970000000000018,-139.57541684468453
-0.17070000000000007,-140.18374270362645
-0.17170000000000019,-140.9759810315509
-0.17270000000000008,-141.89554337646317
-0.1737000000000002,-143.0273124163552
-0.17470000000000008,-144.01761032626072
-0.1757000000000002,-145.00790823616626
-0.17670000000000008,-145.85673501608528
-0.1777000000000002,-146.7055617960043
-0.17870000000000008,-147.4129174459368
-0.1797000000000002,-147.97880196588284
-0.18070000000000008,-148.54468648582886
-0.1817000000000002,-149.39351326574788
-0.18270000000000008,-150.38381117565342
-0.1837000000000002,-151.23263795557244
-0.1847000000000001,-152.22293586547795
-0.1857000000000002,-153.07176264539694
-0.1867000000000001,-154.0620605553025
-0.1877000000000002,-154.9108873352215
-0.1887000000000001,-155.90118524512707
-0.1897000000000002,-156.75001202504606
-0.1907000000000001,-157.59883880496508
-0.1917000000000001,-158.3061944548976
-0.19269999999999998,-159.01355010483013
-0.1937000000000001,-159.57943462477613
-0.19469999999999998,-160.5697325346817
-0.1957000000000001,-161.5600304445872
-0.19669999999999999,-162.6917994844792
-0.1977000000000001,-163.68209739438475
-0.1987,-164.67239530429026
-0.1997000000000001,-165.3797509542228
-0.2007,-166.22857773414182
-0.2017000000000001,-166.79446225408785
-0.2027,-167.6432890340068
-0.2037000000000001,-168.35064468393938
-0.2047,-169.3409425938449
-0.2057000000000001,-170.18976937376394
-0.2067,-171.18006728366944
-0.2077000000000001,-172.17036519357498
-0.2087,-173.16066310348046
-0.2097000000000001,-174.0094898833995
-0.2107,-174.85831666331853
-0.2117000000000001,-175.70714344323756
-0.2127,-176.4144990931701
-0.2137000000000001,-177.1218547431026
-0.2147,-177.9706815230216
-0.2157000000000001,-178.81950830294062
-0.2167,-179.66833508285964
-0.21770000000000012,-180.65863299276518
-0.2187,-181.64893090267074
-0.21970000000000012,-182.49775768258974
-0.2207,-183.34658446250873
-0.22170000000000012,-184.33688237241427
-0.2227,-185.0442380223468
-0.22370000000000012,-185.7515936722793
-0.2247,-186.60042045219836
-0.22570000000000012,-187.30777610213087
-0.2267,-188.15660288204987
-0.22770000000000012,-189.0054296619689
-0.22870000000000001,-189.8542564418879
-0.22970000000000013,-190.70308322180696
-0.23070000000000002,-191.69338113171247
-0.23170000000000013,-192.54220791163152
-0.23270000000000002,-193.532505821537
-0.23370000000000013,-194.38133260145605
-0.23470000000000002,-195.23015938137505
-0.23570000000000013,-196.0789861612941
-0.23670000000000002,-196.7863418112266
-0.2376999999999999,-197.63516859114563
-0.23870000000000002,-198.48399537106465
-0.2396999999999999,-199.33282215098367
-0.24070000000000003,-200.18164893090267
-0.24169999999999991,-201.03047571082172
-0.24270000000000003,-202.02077362072723
-0.24369999999999992,-202.86960040064628
-0.24470000000000003,-203.71842718056527
-0.24569999999999992,-204.42578283049778
-0.24670000000000003,-205.27460961041683
-0.24769999999999992,-206.12343639033585
-0.24870000000000003,-206.97226317025488
-0.24969999999999992,-207.67961882018741
-0.25070000000000003,-208.52844560010638
-0.2516999999999999,-209.51874351001192
-0.25270000000000004,-210.22609915994445
-0.2536999999999999,-211.07492593986345
-0.25470000000000004,-212.065223849769
-0.2556999999999999,-213.05552175967455
-0.25670000000000004,-214.04581966958003
-0.25769999999999993,-214.89464644949908
-0.25870000000000004,-215.6020020994316
-0.25969999999999993,-216.3093577493641
-0.26070000000000004,-217.01671339929663
-0.26169999999999993,-217.72406904922914
-0.26270000000000004,-218.57289582914817
-0.26369999999999993,-219.5631937390537
-0.26470000000000005,-220.5534916489592
-0.26569999999999994,-221.68526068885126
-0.26670000000000005,-222.53408746877028
-0.26769999999999994,-223.38291424868927
-0.26870000000000005,-224.09026989862178
-0.26969999999999994,-224.93909667854084
-0.27070000000000005,-225.78792345845983
-0.27169999999999994,-226.63675023837888
-0.27270000000000005,-227.4855770182979
-0.27369999999999994,-228.33440379821695
-0.27470000000000006,-229.18323057813595
-0.27569999999999995,-229.89058622806846
-0.27670000000000006,-230.7394130079875
-0.27769999999999995,-231.729710917893
-0.27870000000000006,-232.57853769781204
-0.27969999999999995,-233.4273644777311
-0.28070000000000006,-234.4176623876366
-0.28169999999999995,-235.12501803756908
-0.28270000000000006,-235.97384481748813
-0.28369999999999995,-236.6812004674206
-0.28470000000000006,-237.53002724733966
-0.28569999999999995,-238.2373828972722
-0.28670000000000007,-239.0862096771912
-0.28769999999999996,-239.93503645711021
-0.28870000000000007,-240.92533436701575
-0.28969999999999996,-241.77416114693477
-0.29070000000000007,-242.62298792685377
-0.29169999999999996,-243.6132858367593
-0.29270000000000007,-244.46211261667833
-0.29369999999999996,-245.31093939659738
-0.2947000000000001,-246.01829504652986
-0.29569999999999996,-246.7256506964624
-0.2967000000000001,-247.57447747638145
-0.29769999999999996,-248.42330425630044
-0.2987000000000001,-249.2721310362195
-0.29969999999999997,-250.262428946125
-0.3007000000000001,-251.25272685603056
-0.30169999999999997,-252.243024765936
-0.3027000000000001,-253.09185154585506
-0.30369999999999997,-254.08214945576057
-0.3047000000000001,-254.93097623567962
-0.30569999999999997,-255.63833188561213
-0.3067000000000001,-256.4871586655312
-0.3077,-257.1945143154637
-0.3087000000000001,-258.0433410953827
-0.3097,-258.8921678753017
-0.3107000000000001,-259.7409946552208
-0.3117,-260.73129256512624
-0.3127000000000001,-261.7215904750318
-0.3137,-262.57041725495077
-0.3147000000000001,-263.56071516485633
-0.3157,-264.40954194477536
-0.3167000000000001,-265.2583687246944
-0.3177,-265.9657243746269
-0.3187000000000001,-266.8145511545459
-0.3197,-267.6633779344649
-0.3207000000000001,-268.512204714384
-0.3217,-269.5025026242895
-0.3227000000000001,-270.35132940420846
-0.3237,-271.341627314114
-0.3247000000000001,-272.1904540940331
-0.3257,-273.1807520039386
-0.3267000000000001,-274.0295787838576
-0.3277,-275.0198766937631
-0.3287000000000001,-275.7272323436957
-0.3297,-276.5760591236147
-0.3307000000000001,-277.4248859035337
-0.3317,-278.2737126834527
-0.3327000000000001,-278.9810683333853
-0.3337,-279.97136624329073
-0.3347000000000001,-280.82019302320975
-0.3357,-281.8104909331153
-0.3367000000000001,-282.8007888430208
-0.3377,-283.79108675292633
-0.3387000000000001,-284.63991353284536
-0.3397,-285.6302114427509
-0.3407000000000001,-286.33756709268346
-0.3417,-287.1863938726024
-0.3427000000000001,-287.893749522535
-0.3437,-288.742576302454
-0.3447000000000001,-289.59140308237295
-0.3457,-290.44022986229203
-0.3467000000000001,-291.4305277721976
-0.3477,-292.4208256821031
-0.3487000000000001,-293.4111235920086
-0.3497,-294.2599503719276
-0.3507000000000001,-295.10877715184665
-0.3517,-295.9576039317657
-0.3527000000000001,-296.6649595816982
-0.3537,-297.3723152316307
-0.3547000000000001,-298.07967088156323
-0.3557,-298.9284976614822
-0.35670000000000013,-299.6358533114148
-0.3577,-300.6261512213203
-0.35870000000000013,-301.47497800123926
-0.3597,-302.4652759111449
-0.36070000000000013,-303.31410269106385
-0.3617,-304.1629294709828
-0.3626999999999999,-304.8702851209154
-0.3637,-305.57764077084795
-0.3646999999999999,-306.4264675507669
-0.3657,-307.1338232006995
-0.3666999999999999,-307.69970772064545
-0.3677,-308.54853450056453
-0.3686999999999999,-309.3973612804835
-0.36970000000000003,-310.10471693041603
-0.3706999999999999,-310.95354371033505
-0.37170000000000003,-311.6608993602676
-0.3726999999999999,-312.36825501020013
-0.37370000000000003,-313.0756106601326
-0.3746999999999999,-313.78296631006515
-0.37570000000000003,-314.49032195999763
-0.3766999999999999,-315.19767760993017
-0.37770000000000004,-315.9050332598627
-0.3786999999999999,-316.6123889097952
-0.37970000000000004,-317.3197445597277
-0.3806999999999999,-318.16857133964675
-0.38170000000000004,-318.8759269895793
-0.38269999999999993,-319.58328263951176
-0.38370000000000004,-320.2906382894443
-0.38469999999999993,-320.9979939393768
-0.38570000000000004,-321.7053495893094
-0.38669999999999993,-320.9979939393768
-0.38570000000000004,-317.8856290796738
-0.38469999999999993,-315.0562064799437
-0.38370000000000004,-312.0853127502271
-0.38269999999999993,-309.255890150497
-0.38170000000000004,-306.4264675507669
-0.3806999999999999,-303.73851608102336
-0.37970000000000004,-301.0505646112798
-0.3786999999999999,-298.50408427152274
-0.37770000000000004,-295.9576039317657
-0.3766999999999999,-293.26965246202207
-0.37570000000000003,-290.723172122265
-0.3746999999999999,-288.03522065252145
-0.37370000000000003,-285.4887403127644
-0.3726999999999999,-282.9422599730073
-0.37170000000000003,-280.25430850326376
-0.3706999999999999,-277.56635703352015
-0.36970000000000003,-275.1613478237496
-0.3686999999999999,-272.61486748399255
-0.3677,-270.20985827422203
-0.3666999999999999,-267.6633779344649
-0.3657,-265.2583687246944
-0.3646999999999999,-262.8533595149238
-0.3637,-260.4483503051532
-0.3626999999999999,-258.0433410953827
-0.3617,-255.49686075562562
-0.36070000000000013,-252.95038041586852
-0.3597,-250.545371206098
-0.35870000000000013,-248.14036199632744
-0.3577,-245.87682391654337
-0.35670000000000013,-243.47181470677282
-0.3557,-241.20827662698875
-0.3547000000000001,-238.94473854720468
-0.3537,-236.6812004674206
-0.3527000000000001,-234.4176623876366
-0.3517,-232.01265317786604
-0.3507000000000001,-229.74911509808197
-0.3497,-227.34410588831142
-0.3487000000000001,-224.93909667854084
-0.3477,-222.6755585987568
-0.3467000000000001,-220.41202051897272
-0.3457,-218.14848243918865
-0.3447000000000001,-216.1678866193776
-0.3437,-214.04581966958003
-0.3427000000000001,-211.782281589796
-0.3417,-209.66021463999843
-0.3407000000000001,-207.5381476902009
-0.3397,-205.27460961041683
-0.3387000000000001,-203.01107153063276
-0.3377,-200.7475334508487
-0.3367000000000001,-198.48399537106465
-0.3357,-196.3619284212671
-0.3347000000000001,-194.38133260145605
-0.3337,-192.2592656516585
-0.3327000000000001,-190.27866983184742
-0.3317,-188.15660288204987
-0.3307000000000001,-186.17600706223882
-0.3297,-184.05394011244127
-0.3287000000000001,-181.93187316264374
-0.3277,-179.80980621284618
-0.3267000000000001,-177.54626813306209
-0.3257,-175.42420118326456
-0.3247000000000001,-173.44360536345349
-0.3237,-171.32153841365593
-0.3227000000000001,-169.48241372383137
-0.3217,-167.50181790402033
-0.3207000000000001,-165.5212220842093
-0.3197,-163.54062626439824
-0.3187000000000001,-161.70150157457368
-0.3177,-159.72090575476264
-0.3167000000000001,-157.7403099349516
-0.3157,-155.61824298515404
-0.3147000000000001,-153.63764716534297
-0.3137,-151.65705134553193
-0.3127000000000001,-149.6764555257209
-0.3117,-147.6958597059098
-0.3107000000000001,-145.85673501608528
-0.3097,-144.01761032626072
-0.3087000000000001,-142.17848563643616
-0.3077,-140.2686253816184
-0.3067000000000001,-138.44364780479248
-0.30569999999999997,-136.51964043697603
-0.3047000000000001,-134.6097801821582
-0.30369999999999997,-132.64333147534586
-0.3027000000000001,-130.7193241075294
-0.30169999999999997,-128.85190519170752
-0.3007000000000001,-126.97033916288706
-0.29969999999999997,-125.10292024706521
-0.2987000000000001,-123.34867823523254
-0.29769999999999996,-121.56614199740261
-0.2967000000000001,-119.769458646574
-0.29569999999999996,-118.07180508673595
-0.2947000000000001,-116.28926884890602
-0.29369999999999996,-114.45014415908147
-0.29270000000000007,-112.66760792125153
-0.29169999999999996,-110.78604189243102
-0.29070000000000007,-108.96106431560513
-0.28969999999999996,-107.16438096477653
-0.28870000000000007,-105.46672740493848
-0.28769999999999996,-103.7266325061045
-0.28670000000000007,-102.07142028526239
-0.28569999999999995,-100.40206095142165
-0.28470000000000006,-98.74684873057957
-0.28369999999999995,-97.09163650973747
-0.28270000000000006,-95.43642428889537
-0.28169999999999995,-93.69632939006138
-0.28070000000000006,-91.94208737822873
-0.27969999999999995,-90.20199247939475
-0.27870000000000006,-88.46189758056073
-0.27769999999999995,-86.75009690772404
-0.27670000000000006,-85.13732602587791
-0.27569999999999995,-83.56699648302772
-0.27470000000000006,-81.99666694017753
-0.27369999999999994,-80.46877873632329
-0.27270000000000005,-78.91259630647174
-0.27169999999999994,-77.34226676362155
-0.27070000000000005,-75.71534876877676
-0.26969999999999994,-74.10257788693062
-0.26870000000000005,-72.44736566608852
-0.26769999999999994,-70.74971210625048
