Apr. 2, 2025   20:37:53
Cyclic Voltammetry
File: c:/users/guazh/data/banditlqround7_x0exp518_r20/2025-03-28-exp1023\exp1023-2025-04-02t20_26_56-h2koh\exp1023_cv_sr_500mvs_efin_-1500mv.bin
Data Source:  Experiment
Instrument Model:  CHI760E
Header: CV ran at 500 mVs
Note: 

Init E (V) = -1
High E (V) = -1
Low E (V) = -1.5
Final E (V) = -1
Init P/N = N
Scan Rate (V/s) = 0.5
Segment = 3
Sample Interval (V) = 0.001
Quiet Time (sec) = 2
Sensitivity (A/V) = 0.01
Comp R (ohm) = 1.8

Results:

Channel 1:
Segment 1:
Ep = -1.377V
ip = 2.778e-3A
Ah = 5.008e-4C

Segment 2:

Segment 3:

Potential/V, Current/A

-1.000, -3.421e-4
-1.001, -2.465e-4
-1.002, -1.632e-4
-1.003, -8.617e-5
-1.004, -1.218e-5
-1.005, 5.565e-5
-1.006, 1.204e-4
-1.007, 1.759e-4
-1.008, 2.283e-4
-1.009, 2.776e-4
-1.010, 3.239e-4
-1.011, 3.701e-4
-1.012, 4.133e-4
-1.013, 4.565e-4
-1.014, 4.965e-4
-1.015, 5.335e-4
-1.016, 5.644e-4
-1.017, 5.983e-4
-1.018, 6.291e-4
-1.019, 6.599e-4
-1.020, 6.939e-4
-1.021, 7.247e-4
-1.022, 7.555e-4
-1.023, 7.833e-4
-1.024, 8.079e-4
-1.025, 8.326e-4
-1.026, 8.542e-4
-1.027, 8.788e-4
-1.028, 9.004e-4
-1.029, 9.251e-4
-1.030, 9.528e-4
-1.031, 9.744e-4
-1.032, 9.929e-4
-1.033, 1.011e-3
-1.034, 1.027e-3
-1.035, 1.045e-3
-1.036, 1.061e-3
-1.037, 1.079e-3
-1.038, 1.101e-3
-1.039, 1.119e-3
-1.040, 1.141e-3
-1.041, 1.159e-3
-1.042, 1.175e-3
-1.043, 1.190e-3
-1.044, 1.203e-3
-1.045, 1.215e-3
-1.046, 1.224e-3
-1.047, 1.233e-3
-1.048, 1.240e-3
-1.049, 1.243e-3
-1.050, 1.246e-3
-1.051, 1.252e-3
-1.052, 1.267e-3
-1.053, 1.286e-3
-1.054, 1.310e-3
-1.055, 1.332e-3
-1.056, 1.354e-3
-1.057, 1.369e-3
-1.058, 1.384e-3
-1.059, 1.397e-3
-1.060, 1.409e-3
-1.061, 1.418e-3
-1.062, 1.428e-3
-1.063, 1.437e-3
-1.064, 1.446e-3
-1.065, 1.458e-3
-1.066, 1.465e-3
-1.067, 1.471e-3
-1.068, 1.477e-3
-1.069, 1.483e-3
-1.070, 1.495e-3
-1.071, 1.508e-3
-1.072, 1.520e-3
-1.073, 1.532e-3
-1.074, 1.539e-3
-1.075, 1.551e-3
-1.076, 1.560e-3
-1.077, 1.573e-3
-1.078, 1.585e-3
-1.079, 1.597e-3
-1.080, 1.613e-3
-1.081, 1.628e-3
-1.082, 1.637e-3
-1.083, 1.647e-3
-1.084, 1.653e-3
-1.085, 1.662e-3
-1.086, 1.668e-3
-1.087, 1.680e-3
-1.088, 1.690e-3
-1.089, 1.702e-3
-1.090, 1.711e-3
-1.091, 1.721e-3
-1.092, 1.730e-3
-1.093, 1.742e-3
-1.094, 1.758e-3
-1.095, 1.773e-3
-1.096, 1.788e-3
-1.097, 1.804e-3
-1.098, 1.816e-3
-1.099, 1.819e-3
-1.100, 1.819e-3
-1.101, 1.822e-3
-1.102, 1.832e-3
-1.103, 1.847e-3
-1.104, 1.862e-3
-1.105, 1.884e-3
-1.106, 1.909e-3
-1.107, 1.936e-3
-1.108, 1.964e-3
-1.109, 1.989e-3
-1.110, 2.007e-3
-1.111, 2.020e-3
-1.112, 2.026e-3
-1.113, 2.029e-3
-1.114, 2.026e-3
-1.115, 2.020e-3
-1.116, 2.010e-3
-1.117, 1.998e-3
-1.118, 1.995e-3
-1.119, 2.010e-3
-1.120, 2.044e-3
-1.121, 2.081e-3
-1.122, 2.118e-3
-1.123, 2.152e-3
-1.124, 2.177e-3
-1.125, 2.198e-3
-1.126, 2.214e-3
-1.127, 2.229e-3
-1.128, 2.235e-3
-1.129, 2.235e-3
-1.130, 2.232e-3
-1.131, 2.232e-3
-1.132, 2.242e-3
-1.133, 2.254e-3
-1.134, 2.272e-3
-1.135, 2.297e-3
-1.136, 2.325e-3
-1.137, 2.356e-3
-1.138, 2.377e-3
-1.139, 2.399e-3
-1.140, 2.411e-3
-1.141, 2.423e-3
-1.142, 2.430e-3
-1.143, 2.439e-3
-1.144, 2.445e-3
-1.145, 2.457e-3
-1.146, 2.476e-3
-1.147, 2.497e-3
-1.148, 2.522e-3
-1.149, 2.544e-3
-1.150, 2.571e-3
-1.151, 2.593e-3
-1.152, 2.612e-3
-1.153, 2.633e-3
-1.154, 2.652e-3
-1.155, 2.670e-3
-1.156, 2.689e-3
-1.157, 2.701e-3
-1.158, 2.710e-3
-1.159, 2.719e-3
-1.160, 2.732e-3
-1.161, 2.747e-3
-1.162, 2.760e-3
-1.163, 2.772e-3
-1.164, 2.784e-3
-1.165, 2.793e-3
-1.166, 2.809e-3
-1.167, 2.824e-3
-1.168, 2.846e-3
-1.169, 2.874e-3
-1.170, 2.901e-3
-1.171, 2.935e-3
-1.172, 2.972e-3
-1.173, 3.009e-3
-1.174, 3.037e-3
-1.175, 3.056e-3
-1.176, 3.071e-3
-1.177, 3.077e-3
-1.178, 3.080e-3
-1.179, 3.083e-3
-1.180, 3.083e-3
-1.181, 3.086e-3
-1.182, 3.093e-3
-1.183, 3.105e-3
-1.184, 3.120e-3
-1.185, 3.145e-3
-1.186, 3.173e-3
-1.187, 3.204e-3
-1.188, 3.237e-3
-1.189, 3.268e-3
-1.190, 3.296e-3
-1.191, 3.318e-3
-1.192, 3.336e-3
-1.193, 3.355e-3
-1.194, 3.370e-3
-1.195, 3.385e-3
-1.196, 3.398e-3
-1.197, 3.410e-3
-1.198, 3.422e-3
-1.199, 3.432e-3
-1.200, 3.429e-3
-1.201, 3.425e-3
-1.202, 3.435e-3
-1.203, 3.453e-3
-1.204, 3.478e-3
-1.205, 3.515e-3
-1.206, 3.564e-3
-1.207, 3.620e-3
-1.208, 3.669e-3
-1.209, 3.715e-3
-1.210, 3.752e-3
-1.211, 3.802e-3
-1.212, 3.848e-3
-1.213, 3.882e-3
-1.214, 3.913e-3
-1.215, 3.950e-3
-1.216, 3.980e-3
-1.217, 3.959e-3
-1.218, 3.913e-3
-1.219, 3.869e-3
-1.220, 3.820e-3
-1.221, 3.743e-3
-1.222, 3.654e-3
-1.223, 3.626e-3
-1.224, 3.669e-3
-1.225, 3.768e-3
-1.226, 3.891e-3
-1.227, 4.014e-3
-1.228, 4.141e-3
-1.229, 4.243e-3
-1.230, 4.310e-3
-1.231, 4.344e-3
-1.232, 4.350e-3
-1.233, 4.326e-3
-1.234, 4.273e-3
-1.235, 4.224e-3
-1.236, 4.193e-3
-1.237, 4.178e-3
-1.238, 4.178e-3
-1.239, 4.193e-3
-1.240, 4.224e-3
-1.241, 4.270e-3
-1.242, 4.323e-3
-1.243, 4.375e-3
-1.244, 4.431e-3
-1.245, 4.483e-3
-1.246, 4.529e-3
-1.247, 4.572e-3
-1.248, 4.612e-3
-1.249, 4.649e-3
-1.250, 4.683e-3
-1.251, 4.714e-3
-1.252, 4.748e-3
-1.253, 4.788e-3
-1.254, 4.816e-3
-1.255, 4.828e-3
-1.256, 4.838e-3
-1.257, 4.850e-3
-1.258, 4.862e-3
-1.259, 4.868e-3
-1.260, 4.881e-3
-1.261, 4.902e-3
-1.262, 4.939e-3
-1.263, 4.989e-3
-1.264, 5.050e-3
-1.265, 5.118e-3
-1.266, 5.177e-3
-1.267, 5.223e-3
-1.268, 5.257e-3
-1.269, 5.285e-3
-1.270, 5.306e-3
-1.271, 5.309e-3
-1.272, 5.303e-3
-1.273, 5.294e-3
-1.274, 5.288e-3
-1.275, 5.294e-3
-1.276, 5.322e-3
-1.277, 5.371e-3
-1.278, 5.436e-3
-1.279, 5.504e-3
-1.280, 5.578e-3
-1.281, 5.651e-3
-1.282, 5.713e-3
-1.283, 5.756e-3
-1.284, 5.778e-3
-1.285, 5.793e-3
-1.286, 5.812e-3
-1.287, 5.830e-3
-1.288, 5.852e-3
-1.289, 5.877e-3
-1.290, 5.901e-3
-1.291, 5.926e-3
-1.292, 5.951e-3
-1.293, 5.975e-3
-1.294, 6.006e-3
-1.295, 6.046e-3
-1.296, 6.083e-3
-1.297, 6.126e-3
-1.298, 6.173e-3
-1.299, 6.228e-3
-1.300, 6.277e-3
-1.301, 6.317e-3
-1.302, 6.358e-3
-1.303, 6.401e-3
-1.304, 6.444e-3
-1.305, 6.490e-3
-1.306, 6.539e-3
-1.307, 6.580e-3
-1.308, 6.610e-3
-1.309, 6.629e-3
-1.310, 6.644e-3
-1.311, 6.663e-3
-1.312, 6.684e-3
-1.313, 6.709e-3
-1.314, 6.731e-3
-1.315, 6.761e-3
-1.316, 6.801e-3
-1.317, 6.842e-3
-1.318, 6.900e-3
-1.319, 6.974e-3
-1.320, 7.054e-3
-1.321, 7.131e-3
-1.322, 7.199e-3
-1.323, 7.249e-3
-1.324, 7.282e-3
-1.325, 7.304e-3
-1.326, 7.307e-3
-1.327, 7.307e-3
-1.328, 7.292e-3
-1.329, 7.276e-3
-1.330, 7.279e-3
-1.331, 7.319e-3
-1.332, 7.397e-3
-1.333, 7.486e-3
-1.334, 7.569e-3
-1.335, 7.649e-3
-1.336, 7.720e-3
-1.337, 7.779e-3
-1.338, 7.828e-3
-1.339, 7.859e-3
-1.340, 7.874e-3
-1.341, 7.865e-3
-1.342, 7.853e-3
-1.343, 7.850e-3
-1.344, 7.862e-3
-1.345, 7.887e-3
-1.346, 7.914e-3
-1.347, 7.955e-3
-1.348, 7.998e-3
-1.349, 8.041e-3
-1.350, 8.069e-3
-1.351, 8.090e-3
-1.352, 8.112e-3
-1.353, 8.136e-3
-1.354, 8.161e-3
-1.355, 8.189e-3
-1.356, 8.220e-3
-1.357, 8.263e-3
-1.358, 8.309e-3
-1.359, 8.355e-3
-1.360, 8.392e-3
-1.361, 8.426e-3
-1.362, 8.445e-3
-1.363, 8.454e-3
-1.364, 8.451e-3
-1.365, 8.432e-3
-1.366, 8.402e-3
-1.367, 8.377e-3
-1.368, 8.374e-3
-1.369, 8.402e-3
-1.370, 8.445e-3
-1.371, 8.497e-3
-1.372, 8.553e-3
-1.373, 8.605e-3
-1.374, 8.648e-3
-1.375, 8.682e-3
-1.376, 8.701e-3
-1.377, 8.707e-3
-1.378, 8.701e-3
-1.379, 8.685e-3
-1.380, 8.664e-3
-1.381, 8.639e-3
-1.382, 8.611e-3
-1.383, 8.580e-3
-1.384, 8.556e-3
-1.385, 8.534e-3
-1.386, 8.516e-3
-1.387, 8.506e-3
-1.388, 8.497e-3
-1.389, 8.488e-3
-1.390, 8.479e-3
-1.391, 8.466e-3
-1.392, 8.451e-3
-1.393, 8.439e-3
-1.394, 8.429e-3
-1.395, 8.423e-3
-1.396, 8.414e-3
-1.397, 8.395e-3
-1.398, 8.380e-3
-1.399, 8.355e-3
-1.400, 8.325e-3
-1.401, 8.294e-3
-1.402, 8.260e-3
-1.403, 8.220e-3
-1.404, 8.177e-3
-1.405, 8.133e-3
-1.406, 8.093e-3
-1.407, 8.050e-3
-1.408, 8.004e-3
-1.409, 7.958e-3
-1.410, 7.914e-3
-1.411, 7.890e-3
-1.412, 7.881e-3
-1.413, 7.884e-3
-1.414, 7.890e-3
-1.415, 7.893e-3
-1.416, 7.890e-3
-1.417, 7.878e-3
-1.418, 7.865e-3
-1.419, 7.847e-3
-1.420, 7.828e-3
-1.421, 7.810e-3
-1.422, 7.797e-3
-1.423, 7.791e-3
-1.424, 7.788e-3
-1.425, 7.785e-3
-1.426, 7.782e-3
-1.427, 7.785e-3
-1.428, 7.788e-3
-1.429, 7.785e-3
-1.430, 7.788e-3
-1.431, 7.788e-3
-1.432, 7.788e-3
-1.433, 7.782e-3
-1.434, 7.770e-3
-1.435, 7.760e-3
-1.436, 7.748e-3
-1.437, 7.730e-3
-1.438, 7.702e-3
-1.439, 7.665e-3
-1.440, 7.631e-3
-1.441, 7.603e-3
-1.442, 7.588e-3
-1.443, 7.572e-3
-1.444, 7.548e-3
-1.445, 7.529e-3
-1.446, 7.520e-3
-1.447, 7.526e-3
-1.448, 7.541e-3
-1.449, 7.569e-3
-1.450, 7.603e-3
-1.451, 7.634e-3
-1.452, 7.659e-3
-1.453, 7.680e-3
-1.454, 7.689e-3
-1.455, 7.674e-3
-1.456, 7.640e-3
-1.457, 7.603e-3
-1.458, 7.578e-3
-1.459, 7.575e-3
-1.460, 7.588e-3
-1.461, 7.612e-3
-1.462, 7.659e-3
-1.463, 7.720e-3
-1.464, 7.788e-3
-1.465, 7.847e-3
-1.466, 7.881e-3
-1.467, 7.884e-3
-1.468, 7.868e-3
-1.469, 7.850e-3
-1.470, 7.841e-3
-1.471, 7.834e-3
-1.472, 7.831e-3
-1.473, 7.828e-3
-1.474, 7.841e-3
-1.475, 7.878e-3
-1.476, 7.939e-3
-1.477, 8.016e-3
-1.478, 8.090e-3
-1.479, 8.149e-3
-1.480, 8.198e-3
-1.481, 8.235e-3
-1.482, 8.254e-3
-1.483, 8.269e-3
-1.484, 8.269e-3
-1.485, 8.272e-3
-1.486, 8.275e-3
-1.487, 8.275e-3
-1.488, 8.291e-3
-1.489, 8.325e-3
-1.490, 8.377e-3
-1.491, 8.439e-3
-1.492, 8.500e-3
-1.493, 8.550e-3
-1.494, 8.596e-3
-1.495, 8.645e-3
-1.496, 8.695e-3
-1.497, 8.753e-3
-1.498, 8.815e-3
-1.499, 8.880e-3
-1.500, 8.858e-3
-1.499, 8.713e-3
-1.498, 8.584e-3
-1.497, 8.460e-3
-1.496, 8.343e-3
-1.495, 8.229e-3
-1.494, 8.121e-3
-1.493, 8.019e-3
-1.492, 7.918e-3
-1.491, 7.819e-3
-1.490, 7.730e-3
-1.489, 7.649e-3
-1.488, 7.578e-3
-1.487, 7.517e-3
-1.486, 7.452e-3
-1.485, 7.384e-3
-1.484, 7.307e-3
-1.483, 7.227e-3
-1.482, 7.144e-3
-1.481, 7.064e-3
-1.480, 6.983e-3
-1.479, 6.903e-3
-1.478, 6.817e-3
-1.477, 6.740e-3
-1.476, 6.663e-3
-1.475, 6.592e-3
-1.474, 6.518e-3
-1.473, 6.453e-3
-1.472, 6.398e-3
-1.471, 6.336e-3
-1.470, 6.265e-3
-1.469, 6.197e-3
-1.468, 6.126e-3
-1.467, 6.046e-3
-1.466, 5.969e-3
-1.465, 5.898e-3
-1.464, 5.833e-3
-1.463, 5.772e-3
-1.462, 5.713e-3
-1.461, 5.655e-3
-1.460, 5.602e-3
-1.459, 5.550e-3
-1.458, 5.491e-3
-1.457, 5.430e-3
-1.456, 5.368e-3
-1.455, 5.306e-3
-1.454, 5.248e-3
-1.453, 5.189e-3
-1.452, 5.127e-3
-1.451, 5.066e-3
-1.450, 4.992e-3
-1.449, 4.921e-3
-1.448, 4.847e-3
-1.447, 4.782e-3
-1.446, 4.714e-3
-1.445, 4.649e-3
-1.444, 4.588e-3
-1.443, 4.532e-3
-1.442, 4.477e-3
-1.441, 4.421e-3
-1.440, 4.378e-3
-1.439, 4.332e-3
-1.438, 4.289e-3
-1.437, 4.243e-3
-1.436, 4.193e-3
-1.435, 4.144e-3
-1.434, 4.085e-3
-1.433, 4.027e-3
-1.432, 3.968e-3
-1.431, 3.913e-3
-1.430, 3.854e-3
-1.429, 3.799e-3
-1.428, 3.740e-3
-1.427, 3.684e-3
-1.426, 3.629e-3
-1.425, 3.573e-3
-1.424, 3.524e-3
-1.423, 3.475e-3
-1.422, 3.438e-3
-1.421, 3.395e-3
-1.420, 3.351e-3
-1.419, 3.302e-3
-1.418, 3.256e-3
-1.417, 3.207e-3
-1.416, 3.151e-3
-1.415, 3.099e-3
-1.414, 3.046e-3
-1.413, 3.003e-3
-1.412, 2.957e-3
-1.411, 2.911e-3
-1.410, 2.861e-3
-1.409, 2.812e-3
-1.408, 2.769e-3
-1.407, 2.716e-3
-1.406, 2.667e-3
-1.405, 2.624e-3
-1.404, 2.584e-3
-1.403, 2.538e-3
-1.402, 2.491e-3
-1.401, 2.442e-3
-1.400, 2.393e-3
-1.399, 2.346e-3
-1.398, 2.306e-3
-1.397, 2.269e-3
-1.396, 2.235e-3
-1.395, 2.205e-3
-1.394, 2.171e-3
-1.393, 2.137e-3
-1.392, 2.097e-3
-1.391, 2.057e-3
-1.390, 2.013e-3
-1.389, 1.973e-3
-1.388, 1.933e-3
-1.387, 1.893e-3
-1.386, 1.850e-3
-1.385, 1.807e-3
-1.384, 1.764e-3
-1.383, 1.714e-3
-1.382, 1.668e-3
-1.381, 1.625e-3
-1.380, 1.588e-3
-1.379, 1.548e-3
-1.378, 1.508e-3
-1.377, 1.468e-3
-1.376, 1.431e-3
-1.375, 1.397e-3
-1.374, 1.366e-3
-1.373, 1.335e-3
-1.372, 1.307e-3
-1.371, 1.283e-3
-1.370, 1.255e-3
-1.369, 1.221e-3
-1.368, 1.190e-3
-1.367, 1.153e-3
-1.366, 1.113e-3
-1.365, 1.076e-3
-1.364, 1.042e-3
-1.363, 1.008e-3
-1.362, 9.744e-4
-1.361, 9.436e-4
-1.360, 9.128e-4
-1.359, 8.819e-4
-1.358, 8.480e-4
-1.357, 8.172e-4
-1.356, 7.863e-4
-1.355, 7.617e-4
-1.354, 7.339e-4
-1.353, 7.062e-4
-1.352, 6.784e-4
-1.351, 6.476e-4
-1.350, 6.168e-4
-1.349, 5.829e-4
-1.348, 5.520e-4
-1.347, 5.274e-4
-1.346, 4.996e-4
-1.345, 4.719e-4
-1.344, 4.472e-4
-1.343, 4.195e-4
-1.342, 3.917e-4
-1.341, 3.670e-4
-1.340, 3.393e-4
-1.339, 3.146e-4
-1.338, 2.931e-4
-1.337, 2.715e-4
-1.336, 2.468e-4
-1.335, 2.221e-4
-1.334, 1.975e-4
-1.333, 1.728e-4
-1.332, 1.451e-4
-1.331, 1.204e-4
-1.330, 9.882e-5
-1.329, 8.032e-5
-1.328, 5.873e-5
-1.327, 3.715e-5
-1.326, 1.249e-5
-1.325, -9.093e-6
-1.324, -3.376e-5
-1.323, -5.534e-5
-1.322, -7.692e-5
-1.321, -9.542e-5
-1.320, -1.108e-4
-1.319, -1.324e-4
-1.318, -1.540e-4
-1.317, -1.725e-4
-1.316, -1.941e-4
-1.315, -2.157e-4
-1.314, -2.342e-4
-1.313, -2.527e-4
-1.312, -2.681e-4
-1.311, -2.835e-4
-1.310, -3.020e-4
-1.309, -3.205e-4
-1.308, -3.421e-4
-1.307, -3.606e-4
-1.306, -3.791e-4
-1.305, -3.914e-4
-1.304, -4.099e-4
-1.303, -4.222e-4
-1.302, -4.376e-4
-1.301, -4.561e-4
-1.300, -4.746e-4
-1.299, -4.901e-4
-1.298, -5.055e-4
-1.297, -5.209e-4
-1.296, -5.332e-4
-1.295, -5.456e-4
-1.294, -5.579e-4
-1.293, -5.733e-4
-1.292, -5.887e-4
-1.291, -6.041e-4
-1.290, -6.165e-4
-1.289, -6.257e-4
-1.288, -6.350e-4
-1.287, -6.473e-4
-1.286, -6.596e-4
-1.285, -6.750e-4
-1.284, -6.935e-4
-1.283, -7.120e-4
-1.282, -7.275e-4
-1.281, -7.429e-4
-1.280, -7.552e-4
-1.279, -7.675e-4
-1.278, -7.737e-4
-1.277, -7.799e-4
-1.276, -7.891e-4
-1.275, -7.984e-4
-1.274, -8.076e-4
-1.273, -8.138e-4
-1.272, -8.230e-4
-1.271, -8.292e-4
-1.270, -8.385e-4
-1.269, -8.508e-4
-1.268, -8.631e-4
-1.267, -8.785e-4
-1.266, -8.939e-4
-1.265, -9.094e-4
-1.264, -9.155e-4
-1.263, -9.248e-4
-1.262, -9.309e-4
-1.261, -9.371e-4
-1.260, -9.433e-4
-1.259, -9.525e-4
-1.258, -9.618e-4
-1.257, -9.679e-4
-1.256, -9.741e-4
-1.255, -9.803e-4
-1.254, -9.864e-4
-1.253, -9.926e-4
-1.252, -9.988e-4
-1.251, -1.005e-3
-1.250, -1.014e-3
-1.249, -1.027e-3
-1.248, -1.039e-3
-1.247, -1.051e-3
-1.246, -1.060e-3
-1.245, -1.073e-3
-1.244, -1.082e-3
-1.243, -1.091e-3
-1.242, -1.097e-3
-1.241, -1.107e-3
-1.240, -1.116e-3
-1.239, -1.125e-3
-1.238, -1.128e-3
-1.237, -1.131e-3
-1.236, -1.138e-3
-1.235, -1.138e-3
-1.234, -1.141e-3
-1.233, -1.147e-3
-1.232, -1.150e-3
-1.231, -1.153e-3
-1.230, -1.150e-3
-1.229, -1.150e-3
-1.228, -1.153e-3
-1.227, -1.162e-3
-1.226, -1.171e-3
-1.225, -1.184e-3
-1.224, -1.193e-3
-1.223, -1.202e-3
-1.222, -1.208e-3
-1.221, -1.215e-3
-1.220, -1.218e-3
-1.219, -1.218e-3
-1.218, -1.221e-3
-1.217, -1.227e-3
-1.216, -1.236e-3
-1.215, -1.242e-3
-1.214, -1.252e-3
-1.213, -1.255e-3
-1.212, -1.261e-3
-1.211, -1.270e-3
-1.210, -1.276e-3
-1.209, -1.286e-3
-1.208, -1.292e-3
-1.207, -1.298e-3
-1.206, -1.301e-3
-1.205, -1.304e-3
-1.204, -1.307e-3
-1.203, -1.310e-3
-1.202, -1.313e-3
-1.201, -1.316e-3
-1.200, -1.319e-3
-1.199, -1.326e-3
-1.198, -1.332e-3
-1.197, -1.332e-3
-1.196, -1.335e-3
-1.195, -1.332e-3
-1.194, -1.332e-3
-1.193, -1.335e-3
-1.192, -1.338e-3
-1.191, -1.347e-3
-1.190, -1.356e-3
-1.189, -1.369e-3
-1.188, -1.378e-3
-1.187, -1.387e-3
-1.186, -1.393e-3
-1.185, -1.400e-3
-1.184, -1.403e-3
-1.183, -1.406e-3
-1.182, -1.409e-3
-1.181, -1.409e-3
-1.180, -1.412e-3
-1.179, -1.412e-3
-1.178, -1.418e-3
-1.177, -1.424e-3
-1.176, -1.433e-3
-1.175, -1.443e-3
-1.174, -1.455e-3
-1.173, -1.464e-3
-1.172, -1.470e-3
-1.171, -1.474e-3
-1.170, -1.474e-3
-1.169, -1.477e-3
-1.168, -1.480e-3
-1.167, -1.483e-3
-1.166, -1.486e-3
-1.165, -1.489e-3
-1.164, -1.492e-3
-1.163, -1.492e-3
-1.162, -1.492e-3
-1.161, -1.498e-3
-1.160, -1.504e-3
-1.159, -1.514e-3
-1.158, -1.526e-3
-1.157, -1.532e-3
-1.156, -1.541e-3
-1.155, -1.548e-3
-1.154, -1.557e-3
-1.153, -1.560e-3
-1.152, -1.566e-3
-1.151, -1.572e-3
-1.150, -1.578e-3
-1.149, -1.585e-3
-1.148, -1.591e-3
-1.147, -1.594e-3
-1.146, -1.594e-3
-1.145, -1.597e-3
-1.144, -1.597e-3
-1.143, -1.600e-3
-1.142, -1.609e-3
-1.141, -1.618e-3
-1.140, -1.628e-3
-1.139, -1.637e-3
-1.138, -1.643e-3
-1.137, -1.649e-3
-1.136, -1.655e-3
-1.135, -1.665e-3
-1.134, -1.671e-3
-1.133, -1.677e-3
-1.132, -1.686e-3
-1.131, -1.696e-3
-1.130, -1.702e-3
-1.129, -1.705e-3
-1.128, -1.708e-3
-1.127, -1.711e-3
-1.126, -1.717e-3
-1.125, -1.720e-3
-1.124, -1.729e-3
-1.123, -1.739e-3
-1.122, -1.745e-3
-1.121, -1.754e-3
-1.120, -1.763e-3
-1.119, -1.776e-3
-1.118, -1.788e-3
-1.117, -1.800e-3
-1.116, -1.810e-3
-1.115, -1.819e-3
-1.114, -1.822e-3
-1.113, -1.828e-3
-1.112, -1.831e-3
-1.111, -1.840e-3
-1.110, -1.847e-3
-1.109, -1.862e-3
-1.108, -1.874e-3
-1.107, -1.884e-3
-1.106, -1.887e-3
-1.105, -1.890e-3
-1.104, -1.890e-3
-1.103, -1.893e-3
-1.102, -1.899e-3
-1.101, -1.908e-3
-1.100, -1.918e-3
-1.099, -1.933e-3
-1.098, -1.945e-3
-1.097, -1.961e-3
-1.096, -1.976e-3
-1.095, -1.995e-3
-1.094, -2.016e-3
-1.093, -2.041e-3
-1.092, -2.072e-3
-1.091, -2.106e-3
-1.090, -2.140e-3
-1.089, -2.177e-3
-1.088, -2.210e-3
-1.087, -2.244e-3
-1.086, -2.281e-3
-1.085, -2.321e-3
-1.084, -2.368e-3
-1.083, -2.411e-3
-1.082, -2.457e-3
-1.081, -2.503e-3
-1.080, -2.550e-3
-1.079, -2.599e-3
-1.078, -2.645e-3
-1.077, -2.691e-3
-1.076, -2.741e-3
-1.075, -2.793e-3
-1.074, -2.849e-3
-1.073, -2.901e-3
-1.072, -2.947e-3
-1.071, -2.994e-3
-1.070, -3.034e-3
-1.069, -3.074e-3
-1.068, -3.120e-3
-1.067, -3.166e-3
-1.066, -3.212e-3
-1.065, -3.265e-3
-1.064, -3.308e-3
-1.063, -3.351e-3
-1.062, -3.391e-3
-1.061, -3.434e-3
-1.060, -3.481e-3
-1.059, -3.527e-3
-1.058, -3.576e-3
-1.057, -3.629e-3
-1.056, -3.678e-3
-1.055, -3.727e-3
-1.054, -3.770e-3
-1.053, -3.804e-3
-1.052, -3.838e-3
-1.051, -3.869e-3
-1.050, -3.903e-3
-1.049, -3.934e-3
-1.048, -3.965e-3
-1.047, -3.996e-3
-1.046, -4.023e-3
-1.045, -4.051e-3
-1.044, -4.082e-3
-1.043, -4.119e-3
-1.042, -4.162e-3
-1.041, -4.211e-3
-1.040, -4.255e-3
-1.039, -4.295e-3
-1.038, -4.332e-3
-1.037, -4.366e-3
-1.036, -4.393e-3
-1.035, -4.421e-3
-1.034, -4.449e-3
-1.033, -4.480e-3
-1.032, -4.504e-3
-1.031, -4.529e-3
-1.030, -4.554e-3
-1.029, -4.578e-3
-1.028, -4.606e-3
-1.027, -4.643e-3
-1.026, -4.683e-3
-1.025, -4.729e-3
-1.024, -4.769e-3
-1.023, -4.800e-3
-1.022, -4.831e-3
-1.021, -4.868e-3
-1.020, -4.905e-3
-1.019, -4.942e-3
-1.018, -4.973e-3
-1.017, -5.004e-3
-1.016, -5.031e-3
-1.015, -5.059e-3
-1.014, -5.090e-3
-1.013, -5.121e-3
-1.012, -5.152e-3
-1.011, -5.173e-3
-1.010, -5.201e-3
-1.009, -5.232e-3
-1.008, -5.269e-3
-1.007, -5.297e-3
-1.006, -5.318e-3
-1.005, -5.340e-3
-1.004, -5.371e-3
-1.003, -5.401e-3
-1.002, -5.435e-3
-1.001, -5.472e-3
