Potential V vs RHE, Current mA cm-2
0.013299999999999867,4.113980460007527
0.012299999999999978,2.843569712728724
0.011299999999999866,1.9438133260145605
0.010299999999999976,1.1665709378687095
0.009299999999999864,0.3898944342428041
0.008299999999999974,-0.2011719468408082
0.007299999999999862,-0.7203709938912767
0.006299999999999972,-1.2705522184087894
0.00529999999999986,-1.7245330745354797
0.0042999999999999705,-2.0612343639033583
0.0032999999999998586,-2.4715006408642193
0.0022999999999999687,-2.8959140308237297
0.0012999999999998568,-3.201491671594578
0.00029999999999996696,-3.5169722914644814
-0.000700000000000145,-3.881967806829661
-0.0017000000000000348,-4.095589213109282
-0.0027000000000001467,-4.256866301293895
-0.0037000000000000366,-4.582249900262854
-0.0047000000000001485,-4.8849981184339715
-0.005700000000000038,-5.083057700415077
-0.00670000000000015,-5.2980938179945625
-0.00770000000000004,-5.523032914673103
-0.008700000000000152,-5.695627693256637
-0.009700000000000042,-5.888028430038283
-0.010700000000000154,-6.135602907514665
-0.011700000000000044,-6.254438656703328
-0.012700000000000156,-6.35063902509415
-0.013700000000000045,-6.581236966972151
-0.014700000000000157,-6.809005486250422
-0.015700000000000047,-6.900961720741648
-0.01670000000000016,-7.041018139428288
-0.01770000000000005,-7.253224834408043
-0.01870000000000016,-7.381963562695762
-0.01970000000000005,-7.4824080649861795
-0.020700000000000163,-7.615390927173493
-0.021700000000000053,-7.69037062606634
-0.022700000000000164,-7.814865220454463
-0.023700000000000054,-7.998777689436918
-0.024700000000000166,-8.130345840324367
-0.025700000000000056,-8.178446024519777
-0.026700000000000168,-8.328405422305472
-0.027700000000000058,-8.506659046088465
-0.02870000000000017,-8.561832786783201
-0.02970000000000006,-8.612762393578345
-0.03070000000000017,-8.745745255765657
-0.03170000000000006,-8.806577841659854
-0.03270000000000017,-8.865995716254185
-0.03370000000000006,-9.04424934003718
-0.034700000000000175,-9.171573357025034
-0.035700000000000065,-9.187135181323548
-0.03670000000000018,-9.280506127114641
-0.03770000000000007,-9.399341876303303
-0.03870000000000018,-9.44602734919885
-0.03970000000000007,-9.529495315890887
-0.04070000000000018,-9.714822496173207
-0.04170000000000007,-9.771410948167809
-0.04270000000000018,-9.775655082067402
-0.04370000000000007,-9.912882078154311
-0.044700000000000184,-10.01615600304446
-0.045700000000000074,-10.044450229041761
-0.046700000000000186,-10.132162329633392
-0.047700000000000076,-10.241095099723
-0.04870000000000019,-10.299098263017466
-0.04970000000000008,-10.39812805400802
-0.05070000000000019,-10.582040522990475
-0.05170000000000008,-10.62306715068656
-0.05270000000000019,-10.58628465689007
-0.05370000000000008,-10.689558581780219
-0.05470000000000019,-10.819712021367803
-0.05570000000000008,-10.877715184662266
-0.056700000000000195,-11.00786862424985
-0.057700000000000085,-11.1960252271319
-0.058700000000000196,-11.249784256526773
-0.059700000000000086,-11.307787419821238
-0.0607000000000002,-11.348814047517324
-0.06170000000000009,-11.292225595522723
-0.0627000000000002,-11.321934532819888
-0.06370000000000009,-11.55536189729762
-0.0647000000000002,-11.80576579737373
-0.06570000000000009,-11.884989630166173
-0.0667000000000002,-11.954310483859562
-0.0677000000000001,-12.033534316652002
-0.0687000000000002,-12.032119605352138
-0.0697000000000001,-12.067487387848763
-0.07070000000000021,-12.196226116136481
-0.0717000000000001,-12.238667455132433
-0.07270000000000021,-12.31930599922474
-0.0737000000000001,-12.534342116804225
-0.07470000000000021,-12.697033916288705
-0.0757000000000001,-12.714010451887084
-0.07670000000000021,-12.752207656983442
-0.0777000000000001,-12.846993314074398
-0.07870000000000021,-12.879531673971293
-0.0797000000000001,-12.94319368246522
-0.08070000000000022,-13.148326820945652
-0.0817000000000001,-13.33082457862824
-0.08270000000000022,-13.456733884316229
-0.08370000000000011,-13.545860696207727
-0.08470000000000022,-13.526054738009616
-0.08570000000000011,-13.432683792218524
-0.08670000000000022,-13.545860696207727
-0.08770000000000011,-13.797679307583703
-0.08870000000000022,-13.970274086167239
-0.08970000000000011,-14.132965885651718
-0.09070000000000022,-14.331025467632822
-0.09170000000000011,-14.373466806628771
-0.09270000000000023,-14.331025467632822
-0.09370000000000012,-14.415908145624723
-0.09470000000000023,-14.57152638860988
-0.09570000000000012,-14.69885040559773
-0.09670000000000023,-14.911057100577487
-0.09770000000000012,-15.10911668255859
-0.09870000000000023,-15.165705134553193
-0.09970000000000012,-15.208146473549144
-0.10070000000000023,-15.335470490536997
-0.10170000000000012,-15.43450028152755
-0.10270000000000024,-15.561824298515406
-0.10370000000000013,-15.78817810649381
-0.10470000000000024,-15.929649236480316
-0.10570000000000013,-15.88720789748436
-0.10670000000000024,-15.929649236480316
-0.10770000000000013,-16.127708818461418
-0.10870000000000024,-16.29747417444522
-0.10970000000000013,-16.50968086942498
-0.11070000000000024,-16.70774045140608
-0.11170000000000013,-16.750181790402035
-0.11270000000000002,-16.792623129397985
-0.11370000000000013,-17.00482982437774
-0.11470000000000002,-17.188742293360193
-0.11570000000000014,-17.2736249713521
-0.11670000000000003,-17.40094898833995
-0.11770000000000014,-17.528273005327804
-0.11870000000000003,-17.499978779330505
-0.11970000000000014,-17.570714344323754
-0.12070000000000003,-17.782921039303513
-0.12170000000000014,-17.938539282288666
-0.12270000000000003,-18.06586329927652
-0.12370000000000014,-18.292217107254928
-0.12470000000000003,-18.49027668923603
-0.12570000000000014,-18.561012254229283
-0.12670000000000003,-18.688336271217132
-0.12770000000000015,-18.843954514202288
-0.12870000000000004,-18.94298430519284
-0.12970000000000015,-19.084455435179343
-0.13070000000000004,-19.25422079116315
-0.13170000000000015,-19.353250582153702
-0.13270000000000004,-19.452280373144255
-0.13370000000000015,-19.70692840711996
-0.13470000000000004,-19.890840876102416
-0.13570000000000015,-19.919135102099716
-0.13670000000000004,-20.00401778009162
-0.13770000000000016,-20.159636023076775
-0.13870000000000005,-20.187930249074075
-0.13970000000000016,-20.272812927065978
-0.14070000000000005,-20.48501962204573
-0.14170000000000016,-20.668932091028186
-0.14270000000000005,-20.838697447011988
-0.14370000000000016,-21.050904141991744
-0.14470000000000005,-21.2065223849769
-0.14570000000000016,-21.2631108369715
-0.14670000000000005,-21.362140627962056
-0.14770000000000016,-21.574347322941808
-0.14870000000000005,-21.772406904922917
-0.14970000000000017,-22.083643390893226
-0.15070000000000006,-22.281702972874328
-0.15170000000000017,-22.239261633878378
-0.15270000000000006,-22.140231842887825
-0.15370000000000017,-22.324144311870278
-0.15470000000000006,-22.536351006850033
-0.15570000000000017,-22.790999040825742
-0.15670000000000006,-23.15882397879065
-0.15770000000000017,-23.314442221775803
-0.15870000000000006,-23.229559543783903
-0.15970000000000018,-23.2012653177866
-0.16070000000000007,-23.55494314275286
-0.16170000000000018,-23.88032674172182
-0.16270000000000007,-24.035944984706973
-0.16370000000000018,-24.24815167968673
-0.16470000000000007,-24.389622809673234
-0.16570000000000018,-24.65841795664759
-0.16670000000000007,-25.026242894612498
-0.16770000000000018,-25.46480339757066
-0.16870000000000007,-25.648715866553115
-0.16970000000000018,-25.549686075562565
-0.17070000000000007,-25.351626493581456
-0.17170000000000019,-25.224302476593607
-0.17270000000000008,-25.705304318547718
-0.1737000000000002,-26.511689759470787
-0.17470000000000008,-26.766337793446493
-0.1757000000000002,-26.65316088945729
-0.17670000000000008,-26.313630177489685
-0.1777000000000002,-26.356071516485635
-0.17870000000000008,-26.58242532446404
-0.1797000000000002,-27.247339635400607
-0.18070000000000008,-27.869812607341224
-0.1817000000000002,-28.05372507632368
-0.18270000000000008,-27.813224155346617
-0.1837000000000002,-27.813224155346617
-0.1847000000000001,-28.15275486731423
-0.1857000000000002,-28.633756709268344
-0.1867000000000001,-29.14305277721976
-0.1877000000000002,-29.35525947219951
-0.1887000000000001,-29.35525947219951
-0.1897000000000002,-29.482583489187363
-0.1907000000000001,-29.892849766148224
-0.1917000000000001,-30.232380478115836
-0.19269999999999998,-30.274821817111786
-0.1937000000000001,-30.387998721100992
-0.19469999999999998,-30.7558236590659
-0.1957000000000001,-31.038765919038905
-0.19669999999999999,-31.30756106601326
-0.1977000000000001,-31.64709177798087
-0.1987,-31.901739811956578
-0.1997000000000001,-32.14224073293363
-0.2007,-32.297858975918786
-0.2017000000000001,-32.31200608891744
-0.2027,-32.49591855789989
-0.2037000000000001,-33.17497998183511
-0.2047,-33.86818851876898
-0.2057000000000001,-34.221866343735236
-0.2067,-34.33504324772444
-0.2077000000000001,-34.39163169971904
-0.2087,-34.462367264712285
-0.2097000000000001,-34.717015298688004
-0.2107,-35.169722914644815
-0.2117000000000001,-35.636577643600276
-0.2127,-35.90537279057463
-0.2137000000000001,-36.01854969456383
-0.2147,-36.01854969456383
-0.2157000000000001,-36.16002082455034
-0.2167,-36.655169779503105
-0.21770000000000012,-37.26349563844507
-0.2187,-37.56058501141672
-0.21970000000000012,-37.702056141403226
-0.2207,-37.95670417537893
-0.22170000000000012,-38.35282333934114
-0.2227,-38.734795390304704
-0.22370000000000012,-39.116767441268266
-0.2247,-39.37141547524397
-0.22570000000000012,-39.59776928322238
-0.2267,-40.05047689917919
-0.22770000000000012,-40.559772967130606
-0.22870000000000001,-40.828568114104954
-0.22970000000000013,-40.98418635709011
-0.23070000000000002,-41.210540165068515
-0.23170000000000013,-41.47933531204288
-0.23270000000000002,-41.79057179801318
-0.23370000000000013,-42.200838074974044
-0.23470000000000002,-42.63939857793221
-0.23570000000000013,-42.90819372490656
-0.23670000000000002,-43.148694645883616
-0.2376999999999999,-43.40334267985933
-0.23870000000000002,-43.74287339182693
-0.2396999999999999,-44.16728678178645
-0.24070000000000003,-44.73317130173246
-0.24169999999999991,-45.044407787702774
-0.24270000000000003,-45.20002603068792
-0.24369999999999992,-45.553703855654184
-0.24470000000000003,-45.90738168062044
-0.24569999999999992,-46.2610595055867
-0.24670000000000003,-46.65717866954891
-0.24769999999999992,-47.10988628550572
-0.24870000000000003,-47.39282854547873
-0.24969999999999992,-47.689917918450384
-0.25070000000000003,-48.071889969413945
-0.2516999999999999,-48.51045047237211
-0.25270000000000004,-49.34513013929248
-0.2536999999999999,-49.967603111233096
-0.25470000000000004,-49.9110146592385
-0.2556999999999999,-49.33098302629383
-0.25670000000000004,-49.076334992318124
-0.25769999999999993,-49.9110146592385
-0.25870000000000004,-51.042783699130524
-0.25969999999999993,-51.70769801006709
-0.26070000000000004,-51.934051818045496
-0.26169999999999993,-51.69355089706845
-0.26270000000000004,-51.82087491405629
-0.26369999999999993,-52.55652478998611
-0.26470000000000005,-53.24973332691998
-0.26569999999999994,-53.433645795902436
-0.26670000000000005,-53.71658805587545
-0.26769999999999994,-54.16929567183226
-0.26870000000000005,-54.39564947981066
-0.26969999999999994,-54.60785617479041
-0.27070000000000005,-54.77762153077422
-0.27169999999999994,-54.70688596578097
-0.27270000000000005,-55.088858016744524
-0.27369999999999994,-56.05086170065276
-0.27470000000000006,-56.75821735058527
-0.27569999999999995,-56.72992312458797
-0.27670000000000006,-56.61674622059877
-0.27769999999999995,-56.857247141575826
-0.27870000000000006,-57.23921919253939
-0.27969999999999995,-57.70607392149485
-0.28070000000000006,-57.96072195547055
-0.28169999999999995,-58.00316329446651
-0.28270000000000006,-58.20122287644761
-0.28369999999999995,-58.54075358841522
-0.28470000000000006,-58.880284300382826
-0.28569999999999995,-59.02175543036933
-0.28670000000000007,-59.24810923834774
-0.28769999999999996,-59.64422840230995
-0.28870000000000007,-59.7149639673032
-0.28969999999999996,-59.828140871292405
-0.29070000000000007,-60.04034756627216
-0.29169999999999996,-60.224260035254616
-0.29270000000000007,-60.46476095623167
-0.29369999999999996,-60.62037919921682
-0.2947000000000001,-61.08723392817228
-0.29569999999999996,-61.63897133511965
-0.2967000000000001,-61.865325143098055
-0.29769999999999996,-61.72385401311155
-0.2987000000000001,-60.79014455520062
-0.29969999999999997,-60.13937735726271
-0.3007000000000001,-60.45061384323302
-0.30169999999999997,-61.34188196214799
-0.3027000000000001,-62.04923761208051
-0.30369999999999997,-62.06338472507916
-0.3047000000000001,-61.455058866137186
-0.30569999999999997,-60.775997442201984
-0.3067000000000001,-60.63452631221547
-0.3077,-61.05893970217499
-0.3087000000000001,-61.327734849149344
-0.3097,-61.20041083216149
-0.3107000000000001,-60.95990991118443
-0.3117,-60.50720229522762
-0.3127000000000001,-60.25255426125191
-0.3137,-60.32328982624517
-0.3147000000000001,-60.11108313126541
-0.3157,-59.51690438532209
-0.3167000000000001,-59.19152078635314
-0.3177,-59.44616882032884
-0.3187000000000001,-59.403727481332886
-0.3197,-59.24810923834774
-0.3207000000000001,-58.61148915340847
-0.3217,-57.36654320952724
-0.3227000000000001,-56.70162889859067
-0.3237,-56.81480580257987
-0.3247000000000001,-57.22507207954074
-0.3257,-56.942129819567725
-0.3267000000000001,-56.008420361656796
-0.3277,-54.933239773759375
-0.3287000000000001,-54.537120609797164
-0.3297,-54.66444462678501
-0.3307000000000001,-54.80591575677152
-0.3317,-54.466385044803914
-0.3327000000000001,-53.68829382987814
-0.3337,-53.079967970936174
-0.3347000000000001,-52.76873148496586
-0.3357,-52.66970169397532
-0.3367000000000001,-52.61311324198071
-0.3377,-52.485789224992864
-0.3387000000000001,-52.075522948032
-0.3397,-51.72184512306574
-0.3407000000000001,-51.35402018510083
-0.3417,-51.05693081212917
-0.3427000000000001,-50.83057700415076
-0.3437,-50.70325298716291
-0.3447000000000001,-50.2505453712061
-0.3457,-49.514895495276285
-0.3467000000000001,-49.104629218315424
-0.3477,-49.118776331314066
-0.3487000000000001,-49.20365900930597
-0.3497,-49.005599427324874
-0.3507000000000001,-48.4255677943802
-0.3517,-47.74650637044499
-0.3527000000000001,-47.26550452849088
-0.3537,-47.15232762450167
-0.3547000000000001,-47.13818051150302
-0.3557,-46.92597381652327
-0.35670000000000013,-46.69962000854486
-0.3577,-46.2327652795894
-0.35870000000000013,-45.652733646644734
-0.3597,-45.31320293467712
-0.36070000000000013,-45.22832025668522
-0.3617,-45.143437578693316
-0.3626999999999999,-44.90293665771627
-0.3637,-44.648288623740555
-0.3646999999999999,-44.42193481576215
-0.3657,-44.181433894785094
-0.3666999999999999,-44.124845442790495
-0.3677,-44.011668538801295
-0.3686999999999999,-43.81360895682018
-0.36970000000000003,-43.70043205283099
-0.3706999999999999,-43.629696487837734
-0.37170000000000003,-43.58725514884178
-0.3726999999999999,-43.57310803584313
-0.37370000000000003,-43.71457916582963
-0.3746999999999999,-43.78531473082289
-0.37570000000000003,-43.36090134086337
-0.3766999999999999,-43.31846000186743
-0.37770000000000004,-43.79946184382153
-0.3786999999999999,-44.238022346779694
-0.37970000000000004,-44.266316572776994
-0.3806999999999999,-44.138992555789144
-0.38170000000000004,-44.181433894785094
-0.38269999999999993,-44.634141510741905
-0.38370000000000004,-45.10099623969737
-0.38469999999999993,-45.25661448268253
-0.38570000000000004,-45.242467369683865
-0.38669999999999993,-45.63858653364609
-0.38770000000000004,-46.27520661858535
-0.38869999999999993,-46.586443104555656
-0.38970000000000005,-46.75620846053947
-0.39069999999999994,-47.095739172507066
-0.39170000000000005,-47.57674101446119
-0.39269999999999994,-48.071889969413945
-0.39370000000000005,-48.51045047237211
-0.39469999999999994,-48.79339273234511
-0.39570000000000005,-49.18951189630732
-0.39669999999999994,-49.67051373826144
-0.39770000000000005,-50.29298671020206
-0.39869999999999994,-50.80228277815347
-0.39970000000000006,-51.29743173310623
-0.40069999999999995,-51.69355089706845
-0.40170000000000006,-51.990640270040096
-0.40269999999999995,-52.57067190298476
-0.40370000000000006,-53.532675586892985
-0.40469999999999995,-54.43809081880661
-0.40570000000000006,-55.046416677748574
-0.40669999999999995,-55.470830067708086
-0.40770000000000006,-55.8103607796757
-0.40869999999999995,-56.20647994363791
-0.40970000000000006,-56.71577601158933
-0.41069999999999995,-57.493867226515086
-0.41170000000000007,-58.24366421544356
-0.41269999999999996,-58.92272563937878
-0.41370000000000007,-59.51690438532209
-0.41469999999999996,-60.054494679270796
-0.41570000000000007,-60.53549652122492
-0.41669999999999996,-61.228705058158795
-0.41770000000000007,-62.06338472507916
-0.41869999999999996,-62.700004810018434
-0.4197000000000001,-63.26588932996445
-0.42069999999999996,-63.902509414903705
-0.4217000000000001,-64.70889485582677
-0.42269999999999996,-65.65675142673635
-0.4237000000000001,-66.74607912763243
-0.42469999999999997,-67.3261107605771
-0.4257000000000001,-67.2695223085825
-0.42669999999999997,-67.31196364757845
-0.4277000000000001,-68.03346641050962
-0.42869999999999997,-69.27841235439085
-0.4297000000000001,-70.67897654125723
-0.43069999999999997,-71.4004793041884
-0.4317000000000001,-71.58439177317086
-0.4327,-71.74001001615602
-0.4337000000000001,-72.64542524806963
-0.4347,-73.76304717496302
-0.4357000000000001,-74.75334508486853
-0.4367,-75.48899496079835
-0.4377000000000001,-76.0407323677457
-0.4387,-76.42270441870929
-0.4397000000000001,-77.20079563363505
-0.4407,-78.40330023852034
-0.4417000000000001,-79.1248030014515
-0.4427,-79.40774526142451
-0.4437000000000001,-79.7755701993894
-0.4447,-80.53951430131653
-0.4457000000000001,-81.45907664622881
-0.4467,-83.01525907608035
-0.4477000000000001,-84.35923481095215
-0.4487,-84.86853087890354
-0.4497000000000001,-84.69876552291974
-0.4507,-84.03385121198318
-0.4517000000000001,-84.8543837659049
-0.4527,-86.5661844387416
-0.4537000000000001,-88.22139665958369
-0.4547,-88.82972251852566
-0.4557000000000001,-88.57507448454994
-0.4567,-88.34872067657155
-0.4577000000000001,-89.49463682946222
-0.4587,-91.30546729328947
-0.4597000000000001,-92.84750261014237
-0.4607,-93.45582846908432
-0.4617000000000001,-93.22947466110593
-0.4627,-92.96067951413156
-0.4637000000000001,-93.69632939006138
-0.4647,-95.25251181991293
-0.4657000000000001,-96.65307600677932
-0.4667,-97.67166814268214
-0.4677000000000001,-98.23755266262813
-0.4687,-98.3082882276214
-0.4697000000000001,-98.54878914859844
-0.4707,-100.1615600304446
-0.4717000000000001,-101.5338299913137
-0.4727,-102.28362698024215
-0.4737000000000001,-102.84951150018817
-0.4747,-103.27392489014768
-0.4757000000000001,-103.54272003712204
-0.4767,-104.46228238203432
-0.4777000000000001,-105.15549091896818
-0.4787,-105.38184472694657
-0.4797000000000001,-106.08920037687909
-0.4807,-107.41902899875224
-0.48170000000000013,-108.91862297660917
-0.4827,-109.654272852539
-0.48370000000000013,-110.03624490350255
-0.4847,-110.06453912949985
-0.48570000000000013,-110.16356892049039
-0.4867,-109.54109594854978
-0.48570000000000013,-108.62153360363752
-0.4847,-107.65952991972928
-0.48370000000000013,-106.55605510583456
-0.4827,-105.39599183994524
-0.48170000000000013,-104.09445744406939
-0.4807,-102.693893257203
-0.4797000000000001,-101.39235886132718
-0.4787,-100.20400136944055
-0.4777000000000001,-100.23229559543785
-0.4767,-99.59567551049858
-0.4757000000000001,-98.4497593576079
-0.4747,-96.78040002376716
-0.4737000000000001,-96.3701337468063
-0.4727,-96.46916353779686
-0.4717000000000001,-95.66277809687378
-0.4707,-93.71047650306002
-0.4697000000000001,-92.14014696020983
-0.4687,-91.77232202224494
-0.4677000000000001,-92.22502963820175
-0.4667,-91.97038160422603
-0.4657000000000001,-90.18784536639609
-0.4647,-87.98089573860662
-0.4637000000000001,-86.72180268172674
