Potential V vs RHE, Current mA cm-2
0.013299999999999867,4.839727356838291
0.012299999999999978,3.4872633541673155
0.011299999999999866,2.30880884137974
0.010299999999999976,1.219056727093702
0.009299999999999864,0.17231183632356148
0.008299999999999974,-0.7872868383748929
0.007299999999999862,-1.7033124050375041
0.006299999999999972,-2.4884771764625997
0.00529999999999986,-3.2297858975918787
0.0042999999999999705,-3.927238568425342
0.0032999999999998586,-4.582249900262854
0.0022999999999999687,-5.235846520800501
0.0012999999999998568,-5.847001802342197
0.00029999999999996696,-6.458157083883892
-0.000700000000000145,-7.024041603829907
-0.0017000000000000348,-7.5474847847799715
-0.0027000000000001467,-7.984630576438266
-0.0037000000000000366,-8.464217707092514
-0.0047000000000001485,-8.899948787450944
-0.005700000000000038,-9.335679867809377
-0.00670000000000015,-9.81668170976349
-0.00770000000000004,-10.25241279012192
-0.008700000000000152,-10.688143870480351
-0.009700000000000042,-11.081433611842833
-0.010700000000000154,-11.42945259160963
-0.011700000000000044,-11.778886282676295
-0.012700000000000156,-12.084463923447142
-0.013700000000000045,-12.432482903213943
-0.014700000000000157,-12.73806054398479
-0.015700000000000047,-13.087494235051453
-0.01670000000000016,-13.47936926511407
-0.01770000000000005,-13.784946905884919
-0.01870000000000016,-14.046668496359947
-0.01970000000000005,-14.30273124163552
-0.020700000000000163,-14.529085049613924
-0.021700000000000053,-14.783733083589633
-0.022700000000000164,-15.01008689156804
-0.023700000000000054,-15.264734925543747
-0.024700000000000166,-15.575971411514052
-0.025700000000000056,-15.830619445489761
-0.026700000000000168,-16.141855931460068
-0.027700000000000058,-16.396503965435777
-0.02870000000000017,-16.622857773414182
-0.02970000000000006,-16.835064468393938
-0.03070000000000017,-17.018976937376394
-0.03170000000000006,-17.188742293360193
-0.03270000000000017,-17.316066310348052
-0.03370000000000006,-17.4433903273359
-0.034700000000000175,-17.542420118326454
-0.035700000000000065,-17.584861457322408
-0.03670000000000018,-17.627302796318357
-0.03770000000000007,-17.71218547431026
-0.03870000000000018,-17.924392169290012
-0.03970000000000007,-18.19318731626437
-0.04070000000000018,-18.53271802823198
-0.04170000000000007,-18.843954514202288
-0.04270000000000018,-19.155191000172596
-0.04370000000000007,-19.367397695152352
-0.044700000000000184,-19.579604390132108
-0.045700000000000074,-19.763516859114564
-0.046700000000000186,-19.93328221509837
-0.047700000000000076,-20.06060623208622
-0.04870000000000019,-20.202077362072725
-0.04970000000000008,-20.329401379060574
-0.05070000000000019,-20.456725396048434
-0.05170000000000008,-20.626490752032236
-0.05270000000000019,-20.72552054302279
-0.05370000000000008,-20.810403221014692
-0.05470000000000019,-20.89528589900659
-0.05570000000000008,-20.980168576998494
-0.056700000000000195,-21.149933932982297
-0.057700000000000085,-21.333846401964752
-0.058700000000000196,-21.503611757948562
-0.059700000000000086,-21.67337711393236
-0.0607000000000002,-21.772406904922917
-0.06170000000000009,-21.94217226090672
-0.0627000000000002,-22.069496277894572
-0.06370000000000009,-22.253408746877028
-0.0647000000000002,-22.42317410286083
-0.06570000000000009,-22.592939458844636
-0.0667000000000002,-22.819293266823045
-0.0677000000000001,-23.031499961802798
-0.0687000000000002,-23.15882397879065
-0.0697000000000001,-23.300295108777156
-0.07070000000000021,-23.385177786769056
-0.0717000000000001,-23.51250180375691
-0.07270000000000021,-23.597384481748815
-0.0737000000000001,-23.767149837732617
-0.07470000000000021,-23.908620967719123
-0.0757000000000001,-24.078386323702922
-0.07670000000000021,-24.20571034069078
-0.0777000000000001,-24.34718147067728
-0.07870000000000021,-24.474505487665134
-0.0797000000000001,-24.64427084364894
-0.08070000000000022,-24.870624651627345
-0.0817000000000001,-25.0828313466071
-0.08270000000000022,-25.295038041586857
-0.08370000000000011,-25.521391849565262
-0.08470000000000022,-25.691157205549064
-0.08570000000000011,-25.73359854454502
-0.08670000000000022,-25.73359854454502
-0.08770000000000011,-25.77603988354097
-0.08870000000000022,-25.91751101352747
-0.08970000000000011,-26.129717708507226
-0.09070000000000022,-26.34192440348698
-0.09170000000000011,-26.65316088945729
-0.09270000000000023,-27.00683871442355
-0.09370000000000012,-27.38881076538711
-0.09470000000000023,-27.78492992934932
-0.09570000000000012,-28.13860775431558
-0.09670000000000023,-28.393255788291288
-0.09770000000000012,-28.577168257273744
-0.09870000000000023,-28.662050935265643
-0.09970000000000012,-28.704492274261593
-0.10070000000000023,-28.662050935265643
-0.10170000000000012,-28.577168257273744
-0.10270000000000024,-28.435697127287238
-0.10370000000000013,-28.265931771303435
-0.10470000000000024,-28.22349043230748
-0.10570000000000013,-28.435697127287238
-0.10670000000000024,-28.91669896924135
-0.10770000000000013,-29.440142150191413
-0.10870000000000024,-29.96358533114148
-0.10970000000000013,-30.444587173095588
-0.11070000000000024,-30.79826499806185
-0.11170000000000013,-31.095354371033505
-0.11270000000000002,-31.321708179011907
-0.11370000000000013,-31.533914873991666
-0.11470000000000002,-31.618797551983565
-0.11570000000000014,-31.618797551983565
-0.11670000000000003,-31.57635621298762
-0.11770000000000014,-31.57635621298762
-0.11870000000000003,-31.717827342974125
-0.11970000000000014,-31.887592698957924
-0.12070000000000003,-32.14224073293363
-0.12170000000000014,-32.49591855789989
-0.12270000000000003,-32.892037721862096
-0.12370000000000014,-33.330598224820264
-0.12470000000000003,-33.627687597791926
-0.12570000000000014,-33.93892408376223
-0.12670000000000003,-34.10868943974604
-0.12770000000000015,-34.278454795729836
-0.12870000000000004,-34.377484586720385
-0.12970000000000015,-34.50480860370825
-0.13070000000000004,-34.58969128170015
-0.13170000000000015,-34.75945663768395
-0.13270000000000004,-35.02825178465831
-0.13370000000000015,-35.32534115762997
-0.13470000000000004,-35.679018982596226
-0.13570000000000015,-35.99025546856653
-0.13670000000000004,-36.37222751953009
-0.13770000000000016,-36.6834640055004
-0.13870000000000005,-36.95225915247476
-0.13970000000000016,-37.249348525446415
-0.14070000000000005,-37.51814367242077
-0.14170000000000016,-37.77279170639648
-0.14270000000000005,-38.04158685337084
-0.14370000000000016,-38.211352209354644
-0.14470000000000005,-38.33867622634249
-0.14570000000000016,-38.46600024333035
-0.14670000000000005,-38.6499127123128
-0.14770000000000016,-38.86211940729255
-0.14870000000000005,-39.046031876275016
-0.14970000000000017,-39.21579723225882
-0.15070000000000006,-39.38556258824262
-0.15170000000000017,-39.51288660523048
-0.15270000000000006,-39.739240413208876
-0.15370000000000017,-39.95144710818864
-0.15470000000000006,-40.26268359415894
-0.15570000000000017,-40.65880275812115
-0.15670000000000006,-41.04077480908471
-0.15770000000000017,-41.52177665103883
-0.15870000000000006,-42.04521983198889
-0.15970000000000018,-42.568663012938956
-0.16070000000000007,-42.96478217690117
-0.16170000000000018,-43.23357732387552
-0.16270000000000007,-43.44578401885527
-0.16370000000000018,-43.53066669684718
-0.16470000000000007,-43.57310803584313
-0.16570000000000018,-43.61554937483908
-0.16670000000000007,-43.61554937483908
-0.16770000000000018,-43.657990713835034
-0.16870000000000007,-43.75702050482558
-0.16970000000000018,-43.92678586080939
-0.17070000000000007,-44.138992555789144
-0.17170000000000019,-44.4926703807554
-0.17270000000000008,-44.88878954471762
-0.1737000000000002,-45.32735004767578
-0.17470000000000008,-45.79420477663124
-0.1757000000000002,-46.2327652795894
-0.17670000000000008,-46.628884443551605
-0.1777000000000002,-46.94012092952192
-0.17870000000000008,-47.19476896349763
-0.1797000000000002,-47.46356411047198
-0.18070000000000008,-47.67577080545174
-0.1817000000000002,-47.8879775004315
-0.18270000000000008,-48.071889969413945
-0.1837000000000002,-48.24165532539775
-0.1847000000000001,-48.41142068138156
-0.1857000000000002,-48.55289181136806
-0.1867000000000001,-48.51045047237211
-0.1877000000000002,-48.45386202037751
-0.1887000000000001,-48.59533315036401
-0.1897000000000002,-48.84998118433972
-0.1907000000000001,-49.20365900930597
-0.1917000000000001,-49.72710219025603
-0.19269999999999998,-50.42031072718991
-0.1937000000000001,-51.21254905511432
-0.19469999999999998,-51.90575759204819
-0.1957000000000001,-52.55652478998611
-0.19669999999999999,-53.079967970936174
-0.1977000000000001,-53.7873236208687
-0.1987,-54.43809081880661
-0.1997000000000001,-54.919092660760725
-0.2007,-55.357653163718886
-0.2017000000000001,-55.881096344668954
-0.2027,-56.30550973462846
-0.2037000000000001,-56.008420361656796
-0.2047,-55.357653163718886
-0.2057000000000001,-54.73518019177827
-0.2067,-54.0419716548444
-0.2077000000000001,-52.95264395394832
-0.2087,-51.69355089706845
-0.2097000000000001,-51.29743173310623
-0.2107,-51.90575759204819
-0.2117000000000001,-53.30632177891458
-0.2127,-55.046416677748574
-0.2137000000000001,-56.786511576582576
-0.2147,-58.583194927411164
-0.2157000000000001,-60.02620045327351
-0.2167,-60.974057024183075
-0.21770000000000012,-61.455058866137186
-0.2187,-61.53994154412909
-0.21970000000000012,-61.20041083216149
-0.2207,-60.45061384323302
-0.22170000000000012,-59.757405306299155
-0.2227,-59.31884480334099
-0.22370000000000012,-59.10663810836124
-0.2247,-59.10663810836124
-0.22570000000000012,-59.31884480334099
-0.2267,-59.757405306299155
-0.22770000000000012,-60.40817250423707
-0.22870000000000001,-61.15796949316553
-0.22970000000000013,-61.89361936909536
-0.23070000000000002,-62.68585769701977
-0.23170000000000013,-63.421507572949594
-0.23270000000000002,-64.0722747708875
-0.23370000000000013,-64.68060062982947
-0.23470000000000002,-65.2464851497755
-0.23570000000000013,-65.76992833072556
-0.23670000000000002,-66.25093017267966
-0.2376999999999999,-66.68949067563783
-0.23870000000000002,-67.17049251759194
-0.2396999999999999,-67.73637703753796
-0.24070000000000003,-68.13249620150016
-0.24169999999999991,-68.30226155748396
-0.24270000000000003,-68.44373268747047
-0.24369999999999992,-68.61349804345427
-0.24470000000000003,-68.78326339943808
-0.24569999999999992,-68.86814607742998
-0.24670000000000003,-69.05205854641244
-0.24769999999999992,-69.3491479193841
-0.24870000000000003,-69.87259110033416
-0.24969999999999992,-70.57994675026669
-0.25070000000000003,-71.44292064318435
-0.2516999999999999,-72.40492432709259
-0.25270000000000004,-73.23960399401295
-0.2536999999999999,-73.89037119195086
-0.25470000000000004,-74.37137303390499
-0.2556999999999999,-74.76749219786718
-0.25670000000000004,-75.06458157083884
-0.25769999999999993,-75.1070229098348
-0.25870000000000004,-75.02214023184291
-0.25969999999999993,-74.89481621485504
-0.26070000000000004,-74.80993353686314
-0.26169999999999993,-74.89481621485504
-0.26270000000000004,-75.29093537881725
-0.26369999999999993,-75.98414391575112
-0.26470000000000005,-76.9037062606634
-0.26569999999999994,-77.86570994457162
-0.26670000000000005,-78.91259630647174
-0.26769999999999994,-79.94533555537322
-0.26870000000000005,-80.82245656128954
-0.26969999999999994,-81.43078242023151
-0.27070000000000005,-81.74201890620182
-0.27169999999999994,-81.95422560118158
-0.27270000000000005,-82.22302074815593
-0.27369999999999994,-82.47766878213164
-0.27470000000000006,-82.78890526810196
-0.27569999999999995,-83.14258309306821
-0.27670000000000006,-83.48211380503581
-0.27769999999999995,-83.83579163000208
-0.27870000000000006,-84.18946945496833
-0.27969999999999995,-84.52900016693594
-0.28070000000000006,-84.96756066989411
-0.28169999999999995,-85.53344518984011
-0.28270000000000006,-86.05688837079018
-0.28369999999999995,-86.66521422973216
-0.28470000000000006,-87.33012854066871
-0.28569999999999995,-88.10821975559449
-0.28670000000000007,-88.80142829252836
-0.28769999999999996,-89.36731281247435
-0.28870000000000007,-89.94734444541903
-0.28969999999999996,-90.55567030436099
-0.29070000000000007,-91.16399616330297
-0.29169999999999996,-91.81476336124088
-0.29270000000000007,-92.50797189817473
-0.29369999999999996,-93.08800353111941
-0.2947000000000001,-93.51241692107894
-0.29569999999999996,-93.78121206805329
-0.2967000000000001,-93.99341876303303
-0.29769999999999996,-94.26221391000739
-0.2987000000000001,-94.55930328297906
-0.29969999999999997,-94.91298110794531
-0.3007000000000001,-95.22421759391563
-0.30169999999999997,-95.64863098387512
-0.3027000000000001,-96.21451550382113
-0.30369999999999997,-96.79454713676581
-0.3047000000000001,-97.61507969068752
-0.30569999999999997,-98.66196605258766
-0.3067000000000001,-99.7937350924797
-0.3077,-100.88306279337576
-0.3087000000000001,-101.84506647728399
-0.3097,-102.5524221272165
-0.3107000000000001,-103.01927685617197
-0.3117,-103.33051334214227
-0.3127000000000001,-103.37295468113824
-0.3137,-103.37295468113824
-0.3147000000000001,-103.16074798615847
-0.3157,-102.93439417818009
-0.3167000000000001,-102.97683551717601
-0.3177,-103.54272003712204
-0.3187000000000001,-104.64619485101677
-0.3197,-105.90528790789664
-0.3207000000000001,-107.07949828678463
-0.3217,-108.21126732667666
-0.3227000000000001,-109.21571234958083
-0.3237,-110.05039201650122
-0.3247000000000001,-110.74360055343507
-0.3257,-111.18216105639323
-0.3267000000000001,-111.394367751373
-0.3277,-111.26704373438514
-0.3287000000000001,-111.09727837840134
-0.3297,-111.05483703940537
-0.3307000000000001,-111.22460239538917
-0.3317,-111.57828022035544
-0.3327000000000001,-111.96025227131899
-0.3337,-112.54028390426367
-0.3347000000000001,-113.14860976320564
-0.3357,-113.75693562214758
-0.3367000000000001,-114.1530547861098
-0.3377,-114.45014415908147
-0.3387000000000001,-114.76138064505177
-0.3397,-115.10091135701937
-0.3407000000000001,-115.45458918198564
-0.3417,-115.85070834594785
-0.3427000000000001,-116.28926884890602
-0.3437,-116.89759470784797
-0.3447000000000001,-117.54836190578591
-0.3457,-118.1991291037238
-0.3467000000000001,-118.72257228467387
-0.3477,-119.20357412662798
-0.3487000000000001,-119.47236927360234
-0.3497,-119.5996932905902
-0.3507000000000001,-119.55725195159425
-0.3517,-119.2884568046199
-0.3527000000000001,-118.86404341466037
-0.3537,-118.51036558969413
-0.3547000000000001,-118.46792425069816
-0.3557,-118.86404341466037
-0.35670000000000013,-119.47236927360234
-0.3577,-120.20801914953216
-0.35870000000000013,-121.00025747745659
-0.3597,-121.73590735338641
-0.36070000000000013,-122.34423321232836
-0.3617,-122.82523505428249
-0.3626999999999999,-123.09403020125686
-0.3637,-123.17891287924873
-0.3646999999999999,-123.09403020125686
-0.3657,-122.86767639327843
-0.3666999999999999,-122.57058702030677
-0.3677,-122.21690919534053
-0.3686999999999999,-121.82079003137831
-0.36970000000000003,-121.38222952842017
-0.3706999999999999,-121.04269881645253
-0.37170000000000003,-120.73146233048222
-0.3726999999999999,-120.47681429650652
-0.37370000000000003,-120.33534316652002
-0.3746999999999999,-120.20801914953216
-0.37570000000000003,-120.08069513254432
-0.3766999999999999,-119.95337111555646
-0.37770000000000004,-119.769458646574
-0.3786999999999999,-119.55725195159425
-0.37970000000000004,-119.38748659561045
-0.3806999999999999,-119.24601546562396
-0.38170000000000004,-119.16113278763203
-0.38269999999999993,-119.03380877064419
-0.38370000000000004,-118.76501362366983
-0.38469999999999993,-118.55280692869007
-0.38570000000000004,-118.1991291037238
-0.38669999999999993,-117.77471571376431
-0.38770000000000004,-117.33615521080614
-0.38869999999999993,-116.85515336885203
-0.38970000000000005,-116.28926884890602
-0.39069999999999994,-115.68094298996405
-0.39170000000000005,-115.05847001802343
-0.39269999999999994,-114.4925854980774
-0.39370000000000005,-113.88425963913545
-0.39469999999999994,-113.23349244119754
-0.39570000000000005,-112.58272524325962
-0.39669999999999994,-111.96025227131899
-0.39770000000000005,-111.6207215593514
-0.39869999999999994,-111.49339754236355
-0.39970000000000006,-111.5358388813595
-0.40069999999999995,-111.6207215593514
-0.40170000000000006,-111.66316289834735
-0.40269999999999995,-111.6207215593514
-0.40370000000000006,-111.4509562033676
-0.40469999999999995,-111.26704373438514
-0.40570000000000006,-111.01239570040943
-0.40669999999999995,-110.74360055343507
-0.40770000000000006,-110.48895251945936
-0.40869999999999995,-110.3050400504769
-0.40970000000000006,-110.22015737248502
-0.41069999999999995,-110.17771603348905
-0.41170000000000007,-110.1352746944931
-0.41269999999999996,-110.09283335549715
-0.41370000000000007,-110.1352746944931
-0.41469999999999996,-110.17771603348905
-0.41570000000000007,-110.1352746944931
-0.41669999999999996,-110.17771603348905
-0.41770000000000007,-110.17771603348905
-0.41869999999999996,-110.17771603348905
-0.4197000000000001,-110.09283335549715
-0.42069999999999996,-109.92306799951335
-0.4217000000000001,-109.78159686952685
-0.42269999999999996,-109.61183151354304
-0.4237000000000001,-109.35718347956733
-0.42469999999999997,-108.96106431560513
-0.4257000000000001,-108.43762113465506
-0.42669999999999997,-107.95661929270095
-0.4277000000000001,-107.56050012873874
-0.42869999999999997,-107.34829343375898
-0.4297000000000001,-107.12193962578058
-0.43069999999999997,-106.78240891381296
-0.4317000000000001,-106.51361376683862
-0.4327,-106.38628974985076
-0.4337000000000001,-106.47117242784265
-0.4347,-106.68337912282242
-0.4357000000000001,-107.07949828678463
-0.4367,-107.56050012873874
-0.4377000000000001,-107.99906063169689
-0.4387,-108.35273845666316
-0.4397000000000001,-108.64982782963483
-0.4407,-108.77715184662266
-0.4417000000000001,-108.56494515164292
-0.4427,-108.0839433096888
-0.4437000000000001,-107.56050012873874
-0.4447,-107.20682230377247
-0.4457000000000001,-107.16438096477653
-0.4467,-107.34829343375898
-0.4477000000000001,-107.68782414572658
-0.4487,-108.35273845666316
-0.4497000000000001,-109.21571234958083
-0.4507,-110.17771603348905
-0.4517000000000001,-111.01239570040943
-0.4527,-111.49339754236355
-0.4537000000000001,-111.5358388813595
-0.4547,-111.3094850733811
-0.4557000000000001,-111.05483703940537
-0.4567,-110.92751302241753
-0.4577000000000001,-110.82848323142699
-0.4587,-110.78604189243102
-0.4597000000000001,-110.74360055343507
-0.4607,-110.92751302241753
-0.4617000000000001,-111.4509562033676
-0.4627,-112.31393009628526
-0.4637000000000001,-113.40325779718134
-0.4647,-114.45014415908147
-0.4657000000000001,-115.28482382600184
-0.4667,-115.97803236293572
-0.4677000000000001,-116.50147554388576
-0.4687,-116.77027069086012
-0.4697000000000001,-116.98247738583989
-0.4707,-116.98247738583989
-0.4717000000000001,-117.02491872483584
-0.4727,-117.06736006383179
-0.4737000000000001,-117.06736006383179
-0.4747,-117.29371387181018
-0.4757000000000001,-117.77471571376431
-0.4767,-118.51036558969413
-0.4777000000000001,-119.38748659561045
-0.4787,-120.25046048852812
-0.4797000000000001,-120.95781613846064
-0.4807,-121.60858333639854
-0.48170000000000013,-122.30179187333242
-0.4827,-123.00914752326493
-0.48370000000000013,-123.82968007718667
-0.4847,-124.70680108310299
-0.48570000000000013,-125.62636342801528
-0.4867,-125.31512694204494
-0.48570000000000013,-123.26379555724066
-0.4847,-121.43881798041474
-0.48370000000000013,-119.68457596858211
-0.4827,-118.02936374774
-0.48170000000000013,-116.41659286589388
-0.4807,-114.88870466203963
-0.4797000000000001,-113.44569913617728
-0.4787,-112.01684072331359
-0.4777000000000001,-110.6162765364472
-0.4767,-109.35718347956733
-0.4757000000000001,-108.21126732667666
-0.4747,-107.20682230377247
-0.4737000000000001,-106.34384841085482
-0.4727,-105.42428606594254
-0.4717000000000001,-104.46228238203432
-0.4707,-103.37295468113824
-0.4697000000000001,-102.24118564124619
-0.4687,-101.06697526235823
-0.4677000000000001,-99.93520622246619
-0.4667,-98.7892900695755
-0.4657000000000001,-97.6575210296835
