Aug. 21, 2024   03:13:25
Cyclic Voltammetry
File: c:/users/guazh/data/20240813_batch_94_500/2024-08-15-exp146\exp146-2024-08-21t02_58_31-arkoh\exp146_cv_sr_200mvs_efin_-1800mv.bin
Data Source:  Experiment
Instrument Model:  CHI760E
Header: CV ran at 200 mVs
Note: 

Init E (V) = -1
High E (V) = -1
Low E (V) = -1.8
Final E (V) = -1
Init P/N = N
Scan Rate (V/s) = 0.2
Segment = 3
Sample Interval (V) = 0.001
Quiet Time (sec) = 2
Sensitivity (A/V) = 0.01
Comp R (ohm) = 1.6

Results:

Channel 1:
Segment 1:

Segment 2:

Segment 3:

Potential/V, Current/A

-1.000, 5.209e-7
-1.001, 6.097e-7
-1.002, 9.550e-7
-1.003, 4.913e-7
-1.004, 9.945e-7
-1.005, 8.564e-7
-1.006, 9.254e-7
-1.007, 1.083e-6
-1.008, 9.452e-7
-1.009, 1.004e-6
-1.010, 1.093e-6
-1.011, 8.662e-7
-1.012, 1.300e-6
-1.013, 9.254e-7
-1.014, 1.251e-6
-1.015, 1.241e-6
-1.016, 1.202e-6
-1.017, 1.409e-6
-1.018, 1.261e-6
-1.019, 1.537e-6
-1.020, 1.537e-6
-1.021, 1.537e-6
-1.022, 1.567e-6
-1.023, 1.360e-6
-1.024, 1.616e-6
-1.025, 1.636e-6
-1.026, 1.478e-6
-1.027, 1.606e-6
-1.028, 1.468e-6
-1.029, 1.744e-6
-1.030, 1.744e-6
-1.031, 1.616e-6
-1.032, 1.843e-6
-1.033, 1.675e-6
-1.034, 1.843e-6
-1.035, 2.040e-6
-1.036, 1.517e-6
-1.037, 2.021e-6
-1.038, 1.784e-6
-1.039, 1.971e-6
-1.040, 2.149e-6
-1.041, 1.794e-6
-1.042, 1.971e-6
-1.043, 1.705e-6
-1.044, 2.099e-6
-1.045, 2.228e-6
-1.046, 1.922e-6
-1.047, 2.198e-6
-1.048, 2.001e-6
-1.049, 2.070e-6
-1.050, 2.070e-6
-1.051, 2.099e-6
-1.052, 2.317e-6
-1.053, 2.099e-6
-1.054, 2.307e-6
-1.055, 2.356e-6
-1.056, 1.971e-6
-1.057, 2.218e-6
-1.058, 2.070e-6
-1.059, 2.257e-6
-1.060, 2.178e-6
-1.061, 2.238e-6
-1.062, 2.346e-6
-1.063, 2.119e-6
-1.064, 2.405e-6
-1.065, 2.326e-6
-1.066, 2.297e-6
-1.067, 2.494e-6
-1.068, 2.139e-6
-1.069, 2.445e-6
-1.070, 2.474e-6
-1.071, 2.366e-6
-1.072, 2.494e-6
-1.073, 2.386e-6
-1.074, 2.484e-6
-1.075, 2.652e-6
-1.076, 2.287e-6
-1.077, 2.573e-6
-1.078, 2.297e-6
-1.079, 2.524e-6
-1.080, 2.514e-6
-1.081, 2.534e-6
-1.082, 2.583e-6
-1.083, 2.711e-6
-1.084, 2.691e-6
-1.085, 2.790e-6
-1.086, 2.494e-6
-1.087, 2.869e-6
-1.088, 2.573e-6
-1.089, 2.839e-6
-1.090, 2.869e-6
-1.091, 2.751e-6
-1.092, 2.928e-6
-1.093, 2.770e-6
-1.094, 2.770e-6
-1.095, 2.958e-6
-1.096, 2.741e-6
-1.097, 2.879e-6
-1.098, 2.721e-6
-1.099, 2.987e-6
-1.100, 3.007e-6
-1.101, 2.790e-6
-1.102, 3.047e-6
-1.103, 2.987e-6
-1.104, 2.928e-6
-1.105, 3.244e-6
-1.106, 3.066e-6
-1.107, 3.195e-6
-1.108, 2.672e-6
-1.109, 3.047e-6
-1.110, 2.958e-6
-1.111, 2.987e-6
-1.112, 3.027e-6
-1.113, 2.997e-6
-1.114, 3.343e-6
-1.115, 3.195e-6
-1.116, 3.185e-6
-1.117, 3.234e-6
-1.118, 3.165e-6
-1.119, 3.175e-6
-1.120, 3.195e-6
-1.121, 3.224e-6
-1.122, 3.283e-6
-1.123, 3.165e-6
-1.124, 3.224e-6
-1.125, 3.333e-6
-1.126, 3.372e-6
-1.127, 3.333e-6
-1.128, 3.274e-6
-1.129, 3.323e-6
-1.130, 3.392e-6
-1.131, 3.155e-6
-1.132, 3.343e-6
-1.133, 3.303e-6
-1.134, 3.500e-6
-1.135, 3.530e-6
-1.136, 3.274e-6
-1.137, 3.510e-6
-1.138, 3.323e-6
-1.139, 3.530e-6
-1.140, 3.441e-6
-1.141, 3.343e-6
-1.142, 3.471e-6
-1.143, 3.451e-6
-1.144, 3.510e-6
-1.145, 3.639e-6
-1.146, 3.629e-6
-1.147, 3.639e-6
-1.148, 3.451e-6
-1.149, 3.708e-6
-1.150, 3.737e-6
-1.151, 3.520e-6
-1.152, 3.461e-6
-1.153, 3.570e-6
-1.154, 3.787e-6
-1.155, 3.757e-6
-1.156, 3.629e-6
-1.157, 3.422e-6
-1.158, 3.727e-6
-1.159, 3.796e-6
-1.160, 3.619e-6
-1.161, 3.589e-6
-1.162, 3.727e-6
-1.163, 3.609e-6
-1.164, 3.826e-6
-1.165, 3.777e-6
-1.166, 3.826e-6
-1.167, 3.658e-6
-1.168, 3.806e-6
-1.169, 3.856e-6
-1.170, 3.836e-6
-1.171, 4.013e-6
-1.172, 3.796e-6
-1.173, 3.875e-6
-1.174, 4.063e-6
-1.175, 3.885e-6
-1.176, 3.875e-6
-1.177, 3.816e-6
-1.178, 3.925e-6
-1.179, 4.122e-6
-1.180, 3.826e-6
-1.181, 4.142e-6
-1.182, 4.033e-6
-1.183, 4.053e-6
-1.184, 4.221e-6
-1.185, 3.875e-6
-1.186, 4.053e-6
-1.187, 3.954e-6
-1.188, 4.092e-6
-1.189, 4.112e-6
-1.190, 3.796e-6
-1.191, 4.132e-6
-1.192, 4.171e-6
-1.193, 3.816e-6
-1.194, 4.240e-6
-1.195, 4.142e-6
-1.196, 4.102e-6
-1.197, 4.191e-6
-1.198, 4.132e-6
-1.199, 4.418e-6
-1.200, 4.092e-6
-1.201, 3.984e-6
-1.202, 4.033e-6
-1.203, 3.944e-6
-1.204, 4.349e-6
-1.205, 4.319e-6
-1.206, 4.171e-6
-1.207, 4.191e-6
-1.208, 4.043e-6
-1.209, 4.329e-6
-1.210, 4.270e-6
-1.211, 4.063e-6
-1.212, 4.467e-6
-1.213, 4.043e-6
-1.214, 4.408e-6
-1.215, 4.319e-6
-1.216, 4.231e-6
-1.217, 4.566e-6
-1.218, 4.191e-6
-1.219, 4.438e-6
-1.220, 4.300e-6
-1.221, 4.290e-6
-1.222, 4.379e-6
-1.223, 4.211e-6
-1.224, 4.497e-6
-1.225, 4.428e-6
-1.226, 4.270e-6
-1.227, 4.605e-6
-1.228, 4.359e-6
-1.229, 4.724e-6
-1.230, 4.457e-6
-1.231, 4.507e-6
-1.232, 4.714e-6
-1.233, 4.448e-6
-1.234, 4.605e-6
-1.235, 4.615e-6
-1.236, 4.477e-6
-1.237, 4.625e-6
-1.238, 4.408e-6
-1.239, 4.744e-6
-1.240, 4.694e-6
-1.241, 4.517e-6
-1.242, 4.941e-6
-1.243, 4.418e-6
-1.244, 4.901e-6
-1.245, 4.734e-6
-1.246, 4.615e-6
-1.247, 4.724e-6
-1.248, 4.605e-6
-1.249, 4.921e-6
-1.250, 4.635e-6
-1.251, 4.783e-6
-1.252, 4.803e-6
-1.253, 4.596e-6
-1.254, 4.783e-6
-1.255, 5.049e-6
-1.256, 4.862e-6
-1.257, 5.010e-6
-1.258, 4.734e-6
-1.259, 4.862e-6
-1.260, 4.842e-6
-1.261, 4.773e-6
-1.262, 5.148e-6
-1.263, 4.763e-6
-1.264, 5.030e-6
-1.265, 5.030e-6
-1.266, 4.605e-6
-1.267, 5.040e-6
-1.268, 4.744e-6
-1.269, 5.247e-6
-1.270, 4.872e-6
-1.271, 4.951e-6
-1.272, 5.010e-6
-1.273, 4.822e-6
-1.274, 5.138e-6
-1.275, 5.109e-6
-1.276, 4.773e-6
-1.277, 5.168e-6
-1.278, 4.951e-6
-1.279, 5.138e-6
-1.280, 5.168e-6
-1.281, 5.049e-6
-1.282, 5.217e-6
-1.283, 4.901e-6
-1.284, 5.326e-6
-1.285, 5.188e-6
-1.286, 5.128e-6
-1.287, 5.424e-6
-1.288, 5.099e-6
-1.289, 5.444e-6
-1.290, 5.227e-6
-1.291, 5.089e-6
-1.292, 5.375e-6
-1.293, 5.010e-6
-1.294, 5.296e-6
-1.295, 5.434e-6
-1.296, 5.237e-6
-1.297, 5.434e-6
-1.298, 5.118e-6
-1.299, 5.316e-6
-1.300, 5.217e-6
-1.301, 5.188e-6
-1.302, 5.454e-6
-1.303, 5.227e-6
-1.304, 5.483e-6
-1.305, 5.493e-6
-1.306, 5.069e-6
-1.307, 5.760e-6
-1.308, 5.257e-6
-1.309, 5.641e-6
-1.310, 5.464e-6
-1.311, 5.533e-6
-1.312, 5.671e-6
-1.313, 5.375e-6
-1.314, 5.750e-6
-1.315, 5.779e-6
-1.316, 5.474e-6
-1.317, 5.543e-6
-1.318, 5.405e-6
-1.319, 5.582e-6
-1.320, 5.720e-6
-1.321, 5.612e-6
-1.322, 5.691e-6
-1.323, 5.720e-6
-1.324, 5.770e-6
-1.325, 5.760e-6
-1.326, 5.454e-6
-1.327, 5.967e-6
-1.328, 5.503e-6
-1.329, 5.918e-6
-1.330, 5.720e-6
-1.331, 5.829e-6
-1.332, 5.829e-6
-1.333, 5.641e-6
-1.334, 5.760e-6
-1.335, 5.977e-6
-1.336, 5.582e-6
-1.337, 5.888e-6
-1.338, 5.829e-6
-1.339, 6.046e-6
-1.340, 5.858e-6
-1.341, 5.957e-6
-1.342, 5.947e-6
-1.343, 5.898e-6
-1.344, 5.937e-6
-1.345, 6.075e-6
-1.346, 5.809e-6
-1.347, 5.878e-6
-1.348, 5.967e-6
-1.349, 5.967e-6
-1.350, 6.046e-6
-1.351, 6.145e-6
-1.352, 6.095e-6
-1.353, 6.223e-6
-1.354, 6.283e-6
-1.355, 6.342e-6
-1.356, 6.036e-6
-1.357, 6.194e-6
-1.358, 6.342e-6
-1.359, 6.381e-6
-1.360, 6.302e-6
-1.361, 6.204e-6
-1.362, 6.332e-6
-1.363, 6.223e-6
-1.364, 6.431e-6
-1.365, 6.440e-6
-1.366, 6.342e-6
-1.367, 6.342e-6
-1.368, 6.490e-6
-1.369, 6.470e-6
-1.370, 6.431e-6
-1.371, 6.411e-6
-1.372, 6.736e-6
-1.373, 6.490e-6
-1.374, 6.924e-6
-1.375, 6.786e-6
-1.376, 6.510e-6
-1.377, 6.746e-6
-1.378, 6.579e-6
-1.379, 6.875e-6
-1.380, 6.884e-6
-1.381, 6.875e-6
-1.382, 6.835e-6
-1.383, 7.003e-6
-1.384, 7.032e-6
-1.385, 6.924e-6
-1.386, 6.944e-6
-1.387, 6.865e-6
-1.388, 7.032e-6
-1.389, 7.092e-6
-1.390, 7.111e-6
-1.391, 7.269e-6
-1.392, 7.240e-6
-1.393, 7.161e-6
-1.394, 7.240e-6
-1.395, 7.388e-6
-1.396, 7.496e-6
-1.397, 7.407e-6
-1.398, 7.388e-6
-1.399, 7.753e-6
-1.400, 7.536e-6
-1.401, 7.565e-6
-1.402, 7.703e-6
-1.403, 7.684e-6
-1.404, 7.772e-6
-1.405, 7.832e-6
-1.406, 7.664e-6
-1.407, 7.684e-6
-1.408, 8.049e-6
-1.409, 8.039e-6
-1.410, 7.920e-6
-1.411, 7.999e-6
-1.412, 8.098e-6
-1.413, 8.187e-6
-1.414, 8.424e-6
-1.415, 8.562e-6
-1.416, 8.325e-6
-1.417, 8.364e-6
-1.418, 8.463e-6
-1.419, 8.749e-6
-1.420, 8.591e-6
-1.421, 8.779e-6
-1.422, 8.937e-6
-1.423, 8.670e-6
-1.424, 8.996e-6
-1.425, 9.085e-6
-1.426, 8.966e-6
-1.427, 9.085e-6
-1.428, 9.233e-6
-1.429, 9.400e-6
-1.430, 9.233e-6
-1.431, 9.499e-6
-1.432, 9.578e-6
-1.433, 9.716e-6
-1.434, 9.992e-6
-1.435, 9.913e-6
-1.436, 1.011e-5
-1.437, 1.008e-5
-1.438, 1.011e-5
-1.439, 1.044e-5
-1.440, 1.035e-5
-1.441, 1.069e-5
-1.442, 1.077e-5
-1.443, 1.067e-5
-1.444, 1.109e-5
-1.445, 1.107e-5
-1.446, 1.102e-5
-1.447, 1.139e-5
-1.448, 1.134e-5
-1.449, 1.165e-5
-1.450, 1.176e-5
-1.451, 1.194e-5
-1.452, 1.200e-5
-1.453, 1.200e-5
-1.454, 1.226e-5
-1.455, 1.250e-5
-1.456, 1.252e-5
-1.457, 1.280e-5
-1.458, 1.282e-5
-1.459, 1.303e-5
-1.460, 1.301e-5
-1.461, 1.340e-5
-1.462, 1.368e-5
-1.463, 1.373e-5
-1.464, 1.410e-5
-1.465, 1.417e-5
-1.466, 1.426e-5
-1.467, 1.461e-5
-1.468, 1.463e-5
-1.469, 1.504e-5
-1.470, 1.513e-5
-1.471, 1.518e-5
-1.472, 1.568e-5
-1.473, 1.568e-5
-1.474, 1.611e-5
-1.475, 1.636e-5
-1.476, 1.647e-5
-1.477, 1.703e-5
-1.478, 1.699e-5
-1.479, 1.741e-5
-1.480, 1.747e-5
-1.481, 1.769e-5
-1.482, 1.823e-5
-1.483, 1.812e-5
-1.484, 1.883e-5
-1.485, 1.925e-5
-1.486, 1.921e-5
-1.487, 1.985e-5
-1.488, 1.961e-5
-1.489, 2.057e-5
-1.490, 2.067e-5
-1.491, 2.100e-5
-1.492, 2.152e-5
-1.493, 2.149e-5
-1.494, 2.218e-5
-1.495, 2.243e-5
-1.496, 2.279e-5
-1.497, 2.359e-5
-1.498, 2.346e-5
-1.499, 2.426e-5
-1.500, 2.434e-5
-1.501, 2.505e-5
-1.502, 2.562e-5
-1.503, 2.556e-5
-1.504, 2.633e-5
-1.505, 2.692e-5
-1.506, 2.700e-5
-1.507, 2.793e-5
-1.508, 2.817e-5
-1.509, 2.893e-5
-1.510, 2.935e-5
-1.511, 2.991e-5
-1.512, 3.082e-5
-1.513, 3.092e-5
-1.514, 3.187e-5
-1.515, 3.274e-5
-1.516, 3.284e-5
-1.517, 3.379e-5
-1.518, 3.417e-5
-1.519, 3.515e-5
-1.520, 3.568e-5
-1.521, 3.637e-5
-1.522, 3.715e-5
-1.523, 3.754e-5
-1.524, 3.860e-5
-1.525, 3.948e-5
-1.526, 4.009e-5
-1.527, 4.125e-5
-1.528, 4.192e-5
-1.529, 4.296e-5
-1.530, 4.378e-5
-1.531, 4.470e-5
-1.532, 4.577e-5
-1.533, 4.640e-5
-1.534, 4.748e-5
-1.535, 4.879e-5
-1.536, 4.959e-5
-1.537, 5.101e-5
-1.538, 5.185e-5
-1.539, 5.305e-5
-1.540, 5.416e-5
-1.541, 5.547e-5
-1.542, 5.682e-5
-1.543, 5.773e-5
-1.544, 5.925e-5
-1.545, 6.063e-5
-1.546, 6.206e-5
-1.547, 6.349e-5
-1.548, 6.461e-5
-1.549, 6.643e-5
-1.550, 6.809e-5
-1.551, 6.940e-5
-1.552, 7.124e-5
-1.553, 7.266e-5
-1.554, 7.449e-5
-1.555, 7.643e-5
-1.556, 7.812e-5
-1.557, 8.007e-5
-1.558, 8.196e-5
-1.559, 8.400e-5
-1.560, 8.593e-5
-1.561, 8.794e-5
-1.562, 9.024e-5
-1.563, 9.230e-5
-1.564, 9.486e-5
-1.565, 9.733e-5
-1.566, 9.958e-5
-1.567, 1.021e-4
-1.568, 1.046e-4
-1.569, 1.074e-4
-1.570, 1.101e-4
-1.571, 1.128e-4
-1.572, 1.159e-4
-1.573, 1.187e-4
-1.574, 1.218e-4
-1.575, 1.251e-4
-1.576, 1.281e-4
-1.577, 1.317e-4
-1.578, 1.351e-4
-1.579, 1.388e-4
-1.580, 1.422e-4
-1.581, 1.462e-4
-1.582, 1.498e-4
-1.583, 1.537e-4
-1.584, 1.582e-4
-1.585, 1.624e-4
-1.586, 1.664e-4
-1.587, 1.711e-4
-1.588, 1.755e-4
-1.589, 1.805e-4
-1.590, 1.853e-4
-1.591, 1.901e-4
-1.592, 1.952e-4
-1.593, 2.002e-4
-1.594, 2.058e-4
-1.595, 2.114e-4
-1.596, 2.167e-4
-1.597, 2.228e-4
-1.598, 2.286e-4
-1.599, 2.350e-4
-1.600, 2.411e-4
-1.601, 2.478e-4
-1.602, 2.542e-4
-1.603, 2.609e-4
-1.604, 2.680e-4
-1.605, 2.753e-4
-1.606, 2.826e-4
-1.607, 2.902e-4
-1.608, 2.981e-4
-1.609, 3.060e-4
-1.610, 3.141e-4
-1.611, 3.226e-4
-1.612, 3.313e-4
-1.613, 3.403e-4
-1.614, 3.491e-4
-1.615, 3.588e-4
-1.616, 3.680e-4
-1.617, 3.779e-4
-1.618, 3.879e-4
-1.619, 3.984e-4
-1.620, 4.086e-4
-1.621, 4.193e-4
-1.622, 4.305e-4
-1.623, 4.417e-4
-1.624, 4.531e-4
-1.625, 4.652e-4
-1.626, 4.775e-4
-1.627, 4.899e-4
-1.628, 5.027e-4
-1.629, 5.160e-4
-1.630, 5.294e-4
-1.631, 5.433e-4
-1.632, 5.577e-4
-1.633, 5.719e-4
-1.634, 5.866e-4
-1.635, 6.019e-4
-1.636, 6.172e-4
-1.637, 6.327e-4
-1.638, 6.490e-4
-1.639, 6.662e-4
-1.640, 6.830e-4
-1.641, 7.005e-4
-1.642, 7.185e-4
-1.643, 7.365e-4
-1.644, 7.550e-4
-1.645, 7.745e-4
-1.646, 7.944e-4
-1.647, 8.141e-4
-1.648, 8.347e-4
-1.649, 8.558e-4
-1.650, 8.768e-4
-1.651, 8.987e-4
-1.652, 9.210e-4
-1.653, 9.436e-4
-1.654, 9.668e-4
-1.655, 9.906e-4
-1.656, 1.015e-3
-1.657, 1.039e-3
-1.658, 1.065e-3
-1.659, 1.091e-3
-1.660, 1.117e-3
-1.661, 1.143e-3
-1.662, 1.171e-3
-1.663, 1.199e-3
-1.664, 1.226e-3
-1.665, 1.255e-3
-1.666, 1.285e-3
-1.667, 1.315e-3
-1.668, 1.346e-3
-1.669, 1.378e-3
-1.670, 1.410e-3
-1.671, 1.442e-3
-1.672, 1.476e-3
-1.673, 1.509e-3
-1.674, 1.544e-3
-1.675, 1.580e-3
-1.676, 1.616e-3
-1.677, 1.652e-3
-1.678, 1.690e-3
-1.679, 1.728e-3
-1.680, 1.766e-3
-1.681, 1.805e-3
-1.682, 1.845e-3
-1.683, 1.885e-3
-1.684, 1.926e-3
-1.685, 1.968e-3
-1.686, 2.011e-3
-1.687, 2.053e-3
-1.688, 2.097e-3
-1.689, 2.143e-3
-1.690, 2.188e-3
-1.691, 2.234e-3
-1.692, 2.281e-3
-1.693, 2.328e-3
-1.694, 2.377e-3
-1.695, 2.426e-3
-1.696, 2.476e-3
-1.697, 2.526e-3
-1.698, 2.577e-3
-1.699, 2.629e-3
-1.700, 2.681e-3
-1.701, 2.734e-3
-1.702, 2.788e-3
-1.703, 2.842e-3
-1.704, 2.897e-3
-1.705, 2.954e-3
-1.706, 3.010e-3
-1.707, 3.067e-3
-1.708, 3.126e-3
-1.709, 3.186e-3
-1.710, 3.246e-3
-1.711, 3.307e-3
-1.712, 3.368e-3
-1.713, 3.429e-3
-1.714, 3.492e-3
-1.715, 3.555e-3
-1.716, 3.619e-3
-1.717, 3.683e-3
-1.718, 3.748e-3
-1.719, 3.815e-3
-1.720, 3.881e-3
-1.721, 3.949e-3
-1.722, 4.018e-3
-1.723, 4.087e-3
-1.724, 4.158e-3
-1.725, 4.228e-3
-1.726, 4.299e-3
-1.727, 4.369e-3
-1.728, 4.441e-3
-1.729, 4.515e-3
-1.730, 4.586e-3
-1.731, 4.660e-3
-1.732, 4.736e-3
-1.733, 4.811e-3
-1.734, 4.887e-3
-1.735, 4.964e-3
-1.736, 5.040e-3
-1.737, 5.118e-3
-1.738, 5.196e-3
-1.739, 5.275e-3
-1.740, 5.354e-3
-1.741, 5.433e-3
-1.742, 5.515e-3
-1.743, 5.595e-3
-1.744, 5.677e-3
-1.745, 5.760e-3
-1.746, 5.842e-3
-1.747, 5.924e-3
-1.748, 6.008e-3
-1.749, 6.092e-3
-1.750, 6.177e-3
-1.751, 6.262e-3
-1.752, 6.350e-3
-1.753, 6.436e-3
-1.754, 6.521e-3
-1.755, 6.609e-3
-1.756, 6.697e-3
-1.757, 6.783e-3
-1.758, 6.872e-3
-1.759, 6.961e-3
-1.760, 7.050e-3
-1.761, 7.142e-3
-1.762, 7.235e-3
-1.763, 7.326e-3
-1.764, 7.416e-3
-1.765, 7.508e-3
-1.766, 7.599e-3
-1.767, 7.690e-3
-1.768, 7.783e-3
-1.769, 7.877e-3
-1.770, 7.971e-3
-1.771, 8.065e-3
-1.772, 8.160e-3
-1.773, 8.253e-3
-1.774, 8.347e-3
-1.775, 8.442e-3
-1.776, 8.548e-3
-1.777, 8.644e-3
-1.778, 8.741e-3
-1.779, 8.838e-3
-1.780, 8.934e-3
-1.781, 9.032e-3
-1.782, 9.129e-3
-1.783, 9.231e-3
-1.784, 9.333e-3
-1.785, 9.431e-3
-1.786, 9.529e-3
-1.787, 9.627e-3
-1.788, 9.726e-3
-1.789, 9.825e-3
-1.790, 9.925e-3
-1.791, 1.003e-2
-1.792, 1.013e-2
-1.793, 1.023e-2
-1.794, 1.033e-2
-1.795, 1.043e-2
-1.796, 1.053e-2
-1.797, 1.063e-2
-1.798, 1.073e-2
-1.799, 1.083e-2
-1.800, 1.087e-2
-1.799, 1.084e-2
-1.798, 1.080e-2
-1.797, 1.076e-2
-1.796, 1.071e-2
-1.795, 1.067e-2
-1.794, 1.062e-2
-1.793, 1.057e-2
-1.792, 1.052e-2
-1.791, 1.047e-2
-1.790, 1.041e-2
-1.789, 1.036e-2
-1.788, 1.031e-2
-1.787, 1.025e-2
-1.786, 1.021e-2
-1.785, 1.015e-2
-1.784, 1.009e-2
-1.783, 1.003e-2
-1.782, 9.968e-3
-1.781, 9.918e-3
-1.780, 9.860e-3
-1.779, 9.800e-3
-1.778, 9.740e-3
-1.777, 9.677e-3
-1.776, 9.617e-3
-1.775, 9.556e-3
-1.774, 9.494e-3
-1.773, 9.431e-3
-1.772, 9.369e-3
-1.771, 9.308e-3
-1.770, 9.245e-3
-1.769, 9.183e-3
-1.768, 9.122e-3
-1.767, 9.057e-3
-1.766, 8.992e-3
-1.765, 8.930e-3
-1.764, 8.867e-3
-1.763, 8.802e-3
-1.762, 8.740e-3
-1.761, 8.677e-3
-1.760, 8.613e-3
-1.759, 8.549e-3
-1.758, 8.495e-3
-1.757, 8.433e-3
-1.756, 8.366e-3
-1.755, 8.304e-3
-1.754, 8.240e-3
-1.753, 8.175e-3
-1.752, 8.113e-3
-1.751, 8.052e-3
-1.750, 7.995e-3
-1.749, 7.928e-3
-1.748, 7.865e-3
-1.747, 7.802e-3
-1.746, 7.739e-3
-1.745, 7.684e-3
-1.744, 7.623e-3
-1.743, 7.560e-3
-1.742, 7.500e-3
-1.741, 7.440e-3
-1.740, 7.376e-3
-1.739, 7.315e-3
-1.738, 7.257e-3
-1.737, 7.195e-3
-1.736, 7.133e-3
-1.735, 7.072e-3
-1.734, 7.012e-3
-1.733, 6.951e-3
-1.732, 6.891e-3
-1.731, 6.831e-3
-1.730, 6.769e-3
-1.729, 6.709e-3
-1.728, 6.659e-3
-1.727, 6.603e-3
-1.726, 6.545e-3
-1.725, 6.488e-3
-1.724, 6.429e-3
-1.723, 6.368e-3
-1.722, 6.309e-3
-1.721, 6.252e-3
-1.720, 6.192e-3
-1.719, 6.138e-3
-1.718, 6.080e-3
-1.717, 6.021e-3
-1.716, 5.963e-3
-1.715, 5.907e-3
-1.714, 5.850e-3
-1.713, 5.792e-3
-1.712, 5.737e-3
-1.711, 5.681e-3
-1.710, 5.624e-3
-1.709, 5.568e-3
-1.708, 5.512e-3
-1.707, 5.456e-3
-1.706, 5.401e-3
-1.705, 5.347e-3
-1.704, 5.292e-3
-1.703, 5.237e-3
-1.702, 5.184e-3
-1.701, 5.131e-3
-1.700, 5.077e-3
-1.699, 5.023e-3
-1.698, 4.970e-3
-1.697, 4.917e-3
-1.696, 4.864e-3
-1.695, 4.811e-3
-1.694, 4.758e-3
-1.693, 4.706e-3
-1.692, 4.655e-3
-1.691, 4.605e-3
-1.690, 4.555e-3
-1.689, 4.503e-3
-1.688, 4.454e-3
-1.687, 4.403e-3
-1.686, 4.354e-3
-1.685, 4.306e-3
-1.684, 4.257e-3
-1.683, 4.208e-3
-1.682, 4.160e-3
-1.681, 4.113e-3
-1.680, 4.064e-3
-1.679, 4.016e-3
-1.678, 3.969e-3
-1.677, 3.922e-3
-1.676, 3.875e-3
-1.675, 3.829e-3
-1.674, 3.783e-3
-1.673, 3.736e-3
-1.672, 3.691e-3
-1.671, 3.646e-3
-1.670, 3.600e-3
-1.669, 3.555e-3
-1.668, 3.511e-3
-1.667, 3.466e-3
-1.666, 3.422e-3
-1.665, 3.380e-3
-1.664, 3.337e-3
-1.663, 3.293e-3
-1.662, 3.250e-3
-1.661, 3.209e-3
-1.660, 3.166e-3
-1.659, 3.125e-3
-1.658, 3.085e-3
-1.657, 3.043e-3
-1.656, 3.003e-3
-1.655, 2.963e-3
-1.654, 2.923e-3
-1.653, 2.884e-3
-1.652, 2.844e-3
-1.651, 2.806e-3
-1.650, 2.768e-3
-1.649, 2.730e-3
-1.648, 2.693e-3
-1.647, 2.655e-3
-1.646, 2.617e-3
-1.645, 2.581e-3
-1.644, 2.544e-3
-1.643, 2.508e-3
-1.642, 2.472e-3
-1.641, 2.437e-3
-1.640, 2.401e-3
-1.639, 2.365e-3
-1.638, 2.330e-3
-1.637, 2.295e-3
-1.636, 2.261e-3
-1.635, 2.227e-3
-1.634, 2.194e-3
-1.633, 2.161e-3
-1.632, 2.129e-3
-1.631, 2.097e-3
-1.630, 2.064e-3
-1.629, 2.032e-3
-1.628, 2.002e-3
-1.627, 1.970e-3
-1.626, 1.939e-3
-1.625, 1.909e-3
-1.624, 1.879e-3
-1.623, 1.849e-3
-1.622, 1.820e-3
-1.621, 1.791e-3
-1.620, 1.761e-3
-1.619, 1.733e-3
-1.618, 1.705e-3
-1.617, 1.677e-3
-1.616, 1.649e-3
-1.615, 1.622e-3
-1.614, 1.594e-3
-1.613, 1.567e-3
-1.612, 1.541e-3
-1.611, 1.515e-3
-1.610, 1.489e-3
-1.609, 1.463e-3
-1.608, 1.439e-3
-1.607, 1.414e-3
-1.606, 1.389e-3
-1.605, 1.365e-3
-1.604, 1.341e-3
-1.603, 1.317e-3
-1.602, 1.294e-3
-1.601, 1.271e-3
-1.600, 1.248e-3
-1.599, 1.225e-3
-1.598, 1.204e-3
-1.597, 1.183e-3
-1.596, 1.161e-3
-1.595, 1.140e-3
-1.594, 1.119e-3
-1.593, 1.098e-3
-1.592, 1.077e-3
-1.591, 1.057e-3
-1.590, 1.037e-3
-1.589, 1.017e-3
-1.588, 9.985e-4
-1.587, 9.786e-4
-1.586, 9.598e-4
-1.585, 9.414e-4
-1.584, 9.228e-4
-1.583, 9.047e-4
-1.582, 8.867e-4
-1.581, 8.697e-4
-1.580, 8.520e-4
-1.579, 8.349e-4
-1.578, 8.182e-4
-1.577, 8.011e-4
-1.576, 7.847e-4
-1.575, 7.688e-4
-1.574, 7.528e-4
-1.573, 7.373e-4
-1.572, 7.219e-4
-1.571, 7.071e-4
-1.570, 6.921e-4
-1.569, 6.774e-4
-1.568, 6.632e-4
-1.567, 6.489e-4
-1.566, 6.347e-4
-1.565, 6.216e-4
-1.564, 6.080e-4
-1.563, 5.948e-4
-1.562, 5.819e-4
-1.561, 5.692e-4
-1.560, 5.566e-4
-1.559, 5.443e-4
-1.558, 5.320e-4
-1.557, 5.199e-4
-1.556, 5.081e-4
-1.555, 4.969e-4
-1.554, 4.854e-4
-1.553, 4.744e-4
-1.552, 4.636e-4
-1.551, 4.531e-4
-1.550, 4.423e-4
-1.549, 4.321e-4
-1.548, 4.221e-4
-1.547, 4.124e-4
-1.546, 4.024e-4
-1.545, 3.933e-4
-1.544, 3.837e-4
-1.543, 3.746e-4
-1.542, 3.654e-4
-1.541, 3.569e-4
-1.540, 3.480e-4
-1.539, 3.396e-4
-1.538, 3.314e-4
-1.537, 3.229e-4
-1.536, 3.149e-4
-1.535, 3.071e-4
-1.534, 2.995e-4
-1.533, 2.919e-4
-1.532, 2.846e-4
-1.531, 2.775e-4
-1.530, 2.703e-4
-1.529, 2.636e-4
-1.528, 2.570e-4
-1.527, 2.501e-4
-1.526, 2.439e-4
-1.525, 2.374e-4
-1.524, 2.315e-4
-1.523, 2.251e-4
-1.522, 2.194e-4
-1.521, 2.136e-4
-1.520, 2.081e-4
-1.519, 2.025e-4
-1.518, 1.973e-4
-1.517, 1.918e-4
-1.516, 1.869e-4
-1.515, 1.819e-4
-1.514, 1.770e-4
-1.513, 1.721e-4
-1.512, 1.674e-4
-1.511, 1.629e-4
-1.510, 1.583e-4
-1.509, 1.539e-4
-1.508, 1.497e-4
-1.507, 1.454e-4
-1.506, 1.416e-4
-1.505, 1.375e-4
-1.504, 1.337e-4
-1.503, 1.297e-4
-1.502, 1.261e-4
-1.501, 1.229e-4
-1.500, 1.192e-4
-1.499, 1.157e-4
-1.498, 1.123e-4
-1.497, 1.093e-4
-1.496, 1.060e-4
-1.495, 1.029e-4
-1.494, 9.992e-5
-1.493, 9.699e-5
-1.492, 9.413e-5
-1.491, 9.153e-5
-1.490, 8.842e-5
-1.489, 8.614e-5
-1.488, 8.385e-5
-1.487, 8.113e-5
-1.486, 7.870e-5
-1.485, 7.643e-5
-1.484, 7.394e-5
-1.483, 7.178e-5
-1.482, 6.954e-5
-1.481, 6.748e-5
-1.480, 6.548e-5
-1.479, 6.348e-5
-1.478, 6.142e-5
-1.477, 5.936e-5
-1.476, 5.775e-5
-1.475, 5.605e-5
-1.474, 5.421e-5
-1.473, 5.255e-5
-1.472, 5.081e-5
-1.471, 4.939e-5
-1.470, 4.755e-5
-1.469, 4.623e-5
-1.468, 4.473e-5
-1.467, 4.310e-5
-1.466, 4.198e-5
-1.465, 4.053e-5
-1.464, 3.911e-5
-1.463, 3.818e-5
-1.462, 3.654e-5
-1.461, 3.568e-5
-1.460, 3.408e-5
-1.459, 3.297e-5
-1.458, 3.203e-5
-1.457, 3.088e-5
-1.456, 2.994e-5
-1.455, 2.893e-5
-1.454, 2.759e-5
-1.453, 2.716e-5
-1.452, 2.583e-5
-1.451, 2.518e-5
-1.450, 2.418e-5
-1.449, 2.336e-5
-1.448, 2.287e-5
-1.447, 2.161e-5
-1.446, 2.128e-5
-1.445, 2.046e-5
-1.444, 1.957e-5
-1.443, 1.892e-5
-1.442, 1.818e-5
-1.441, 1.762e-5
-1.440, 1.676e-5
-1.439, 1.628e-5
-1.438, 1.599e-5
-1.437, 1.510e-5
-1.436, 1.482e-5
-1.435, 1.407e-5
-1.434, 1.353e-5
-1.433, 1.293e-5
-1.432, 1.219e-5
-1.431, 1.204e-5
-1.430, 1.123e-5
-1.429, 1.105e-5
-1.428, 1.078e-5
-1.427, 1.014e-5
-1.426, 9.854e-6
-1.425, 9.420e-6
-1.424, 8.956e-6
-1.423, 8.887e-6
-1.422, 8.197e-6
-1.421, 7.989e-6
-1.420, 7.693e-6
-1.419, 7.220e-6
-1.418, 7.161e-6
-1.417, 6.529e-6
-1.416, 6.431e-6
-1.415, 6.283e-6
-1.414, 5.641e-6
-1.413, 5.720e-6
-1.412, 5.188e-6
-1.411, 5.188e-6
-1.410, 4.714e-6
-1.409, 4.665e-6
-1.408, 4.487e-6
-1.407, 4.112e-6
-1.406, 3.856e-6
-1.405, 4.092e-6
-1.404, 3.303e-6
-1.403, 3.500e-6
-1.402, 3.066e-6
-1.401, 2.938e-6
-1.400, 2.741e-6
-1.399, 2.770e-6
-1.398, 2.514e-6
-1.397, 2.257e-6
-1.396, 2.169e-6
-1.395, 2.090e-6
-1.394, 1.833e-6
-1.393, 1.823e-6
-1.392, 1.606e-6
-1.391, 1.557e-6
-1.390, 1.409e-6
-1.389, 1.369e-6
-1.388, 1.340e-6
-1.387, 9.156e-7
-1.386, 9.748e-7
-1.385, 1.123e-6
-1.384, 8.268e-7
-1.383, 6.590e-7
-1.382, 5.209e-7
-1.381, 5.703e-7
-1.380, 1.559e-7
-1.379, 1.066e-7
-1.378, 3.532e-7
-1.377, -9.077e-8
-1.376, 2.545e-7
-1.375, 1.164e-7
-1.374, -1.894e-7
-1.373, 9.669e-8
-1.372, -3.966e-7
-1.371, -1.302e-7
-1.370, -4.459e-7
-1.369, -5.545e-7
-1.368, -5.051e-7
-1.367, -7.814e-7
-1.366, -6.531e-7
-1.365, -6.334e-7
-1.364, -8.603e-7
-1.363, -6.235e-7
-1.362, -9.984e-7
-1.361, -5.347e-7
-1.360, -8.603e-7
-1.359, -1.018e-6
-1.358, -8.800e-7
-1.357, -1.245e-6
-1.356, -1.146e-6
-1.355, -1.097e-6
-1.354, -1.196e-6
-1.353, -1.117e-6
-1.352, -1.393e-6
-1.351, -1.146e-6
-1.350, -1.482e-6
-1.349, -1.679e-6
-1.348, -1.413e-6
-1.347, -1.561e-6
-1.346, -1.314e-6
-1.345, -1.413e-6
-1.344, -1.630e-6
-1.343, -1.531e-6
-1.342, -1.610e-6
-1.341, -1.581e-6
-1.340, -1.650e-6
-1.339, -1.669e-6
-1.338, -1.630e-6
-1.337, -1.729e-6
-1.336, -1.699e-6
-1.335, -1.620e-6
-1.334, -1.778e-6
-1.333, -1.748e-6
-1.332, -1.699e-6
-1.331, -1.906e-6
-1.330, -1.886e-6
-1.329, -1.946e-6
-1.328, -1.817e-6
-1.327, -1.926e-6
-1.326, -1.886e-6
-1.325, -1.768e-6
-1.324, -2.064e-6
-1.323, -1.837e-6
-1.322, -2.242e-6
-1.321, -1.788e-6
-1.320, -2.133e-6
-1.319, -2.103e-6
-1.318, -2.024e-6
-1.317, -2.251e-6
-1.316, -1.807e-6
-1.315, -1.946e-6
-1.314, -2.261e-6
-1.313, -2.024e-6
-1.312, -2.232e-6
-1.311, -2.015e-6
-1.310, -2.172e-6
-1.309, -2.103e-6
-1.308, -2.192e-6
-1.307, -2.390e-6
-1.306, -2.419e-6
-1.305, -2.212e-6
-1.304, -2.340e-6
-1.303, -2.024e-6
-1.302, -2.330e-6
-1.301, -2.133e-6
-1.300, -2.281e-6
-1.299, -2.370e-6
-1.298, -2.074e-6
-1.297, -2.399e-6
-1.296, -2.330e-6
-1.295, -2.005e-6
-1.294, -2.380e-6
-1.293, -2.281e-6
-1.292, -2.478e-6
-1.291, -2.370e-6
-1.290, -2.409e-6
-1.289, -2.478e-6
-1.288, -2.399e-6
-1.287, -2.646e-6
-1.286, -2.478e-6
-1.285, -2.034e-6
-1.284, -2.528e-6
-1.283, -2.439e-6
-1.282, -2.557e-6
-1.281, -2.271e-6
-1.280, -2.390e-6
-1.279, -2.488e-6
-1.278, -2.281e-6
-1.277, -2.508e-6
-1.276, -2.636e-6
-1.275, -2.547e-6
-1.274, -2.676e-6
-1.273, -2.538e-6
-1.272, -2.824e-6
-1.271, -2.587e-6
-1.270, -2.626e-6
-1.269, -2.459e-6
-1.268, -2.399e-6
-1.267, -2.834e-6
-1.266, -2.528e-6
-1.265, -2.429e-6
-1.264, -2.508e-6
-1.263, -2.616e-6
-1.262, -2.676e-6
-1.261, -2.686e-6
-1.260, -2.498e-6
-1.259, -2.636e-6
-1.258, -2.399e-6
-1.257, -2.755e-6
-1.256, -2.429e-6
-1.255, -2.488e-6
-1.254, -2.883e-6
-1.253, -2.488e-6
-1.252, -2.616e-6
-1.251, -2.755e-6
-1.250, -2.656e-6
-1.249, -2.715e-6
-1.248, -2.755e-6
-1.247, -2.764e-6
-1.246, -2.695e-6
-1.245, -2.547e-6
-1.244, -2.626e-6
-1.243, -2.705e-6
-1.242, -2.705e-6
-1.241, -2.666e-6
-1.240, -2.863e-6
-1.239, -2.784e-6
-1.238, -2.942e-6
-1.237, -2.883e-6
-1.236, -2.666e-6
-1.235, -2.676e-6
-1.234, -2.834e-6
-1.233, -2.922e-6
-1.232, -2.873e-6
-1.231, -2.804e-6
-1.230, -2.774e-6
-1.229, -2.991e-6
-1.228, -2.991e-6
-1.227, -2.962e-6
-1.226, -2.804e-6
-1.225, -2.893e-6
-1.224, -2.853e-6
-1.223, -2.883e-6
-1.222, -3.120e-6
-1.221, -2.873e-6
-1.220, -2.903e-6
-1.219, -2.834e-6
-1.218, -2.853e-6
-1.217, -2.903e-6
-1.216, -3.129e-6
-1.215, -3.149e-6
-1.214, -3.011e-6
-1.213, -3.080e-6
-1.212, -3.021e-6
-1.211, -2.952e-6
-1.210, -3.129e-6
-1.209, -2.893e-6
-1.208, -2.962e-6
-1.207, -3.100e-6
-1.206, -2.932e-6
-1.205, -2.843e-6
-1.204, -2.972e-6
-1.203, -3.199e-6
-1.202, -3.435e-6
-1.201, -3.179e-6
-1.200, -3.199e-6
-1.199, -3.060e-6
-1.198, -3.238e-6
-1.197, -3.179e-6
-1.196, -2.942e-6
-1.195, -2.952e-6
-1.194, -3.287e-6
-1.193, -2.962e-6
-1.192, -3.317e-6
-1.191, -3.179e-6
-1.190, -3.228e-6
-1.189, -3.228e-6
-1.188, -3.060e-6
-1.187, -3.238e-6
-1.186, -3.021e-6
-1.185, -3.110e-6
-1.184, -3.189e-6
-1.183, -3.169e-6
-1.182, -3.179e-6
-1.181, -3.208e-6
-1.180, -3.386e-6
-1.179, -3.120e-6
-1.178, -3.307e-6
-1.177, -3.307e-6
-1.176, -3.110e-6
-1.175, -3.149e-6
-1.174, -3.189e-6
-1.173, -3.129e-6
-1.172, -3.179e-6
-1.171, -3.218e-6
-1.170, -3.406e-6
-1.169, -3.218e-6
-1.168, -3.297e-6
-1.167, -3.435e-6
-1.166, -3.110e-6
-1.165, -3.129e-6
-1.164, -3.366e-6
-1.163, -3.504e-6
-1.162, -3.317e-6
-1.161, -3.297e-6
-1.160, -3.435e-6
-1.159, -3.287e-6
-1.158, -3.485e-6
-1.157, -3.307e-6
-1.156, -3.337e-6
-1.155, -3.258e-6
-1.154, -3.406e-6
-1.153, -3.248e-6
-1.152, -3.416e-6
-1.151, -3.475e-6
-1.150, -3.623e-6
-1.149, -3.583e-6
-1.148, -3.475e-6
-1.147, -3.662e-6
-1.146, -3.356e-6
-1.145, -3.386e-6
-1.144, -3.455e-6
-1.143, -3.504e-6
-1.142, -3.534e-6
-1.141, -3.366e-6
-1.140, -3.514e-6
-1.139, -3.544e-6
-1.138, -3.573e-6
-1.137, -3.662e-6
-1.136, -3.573e-6
-1.135, -3.485e-6
-1.134, -3.652e-6
-1.133, -3.238e-6
-1.132, -3.751e-6
-1.131, -3.534e-6
-1.130, -3.741e-6
-1.129, -3.712e-6
-1.128, -3.593e-6
-1.127, -3.495e-6
-1.126, -3.416e-6
-1.125, -3.573e-6
-1.124, -3.781e-6
-1.123, -3.682e-6
-1.122, -3.879e-6
-1.121, -3.613e-6
-1.120, -3.850e-6
-1.119, -3.741e-6
-1.118, -3.781e-6
-1.117, -3.968e-6
-1.116, -3.662e-6
-1.115, -3.603e-6
-1.114, -3.850e-6
-1.113, -3.692e-6
-1.112, -3.909e-6
-1.111, -3.751e-6
-1.110, -3.889e-6
-1.109, -3.830e-6
-1.108, -3.741e-6
-1.107, -3.958e-6
-1.106, -3.741e-6
-1.105, -3.731e-6
-1.104, -3.850e-6
-1.103, -3.613e-6
-1.102, -4.057e-6
-1.101, -3.860e-6
-1.100, -3.988e-6
-1.099, -4.136e-6
-1.098, -3.771e-6
-1.097, -4.096e-6
-1.096, -3.840e-6
-1.095, -3.840e-6
-1.094, -4.077e-6
-1.093, -3.790e-6
-1.092, -3.998e-6
-1.091, -3.978e-6
-1.090, -3.840e-6
-1.089, -3.820e-6
-1.088, -3.761e-6
-1.087, -4.254e-6
-1.086, -4.126e-6
-1.085, -3.988e-6
-1.084, -4.274e-6
-1.083, -4.037e-6
-1.082, -4.126e-6
-1.081, -4.165e-6
-1.080, -4.126e-6
-1.079, -4.323e-6
-1.078, -4.254e-6
-1.077, -4.471e-6
-1.076, -4.304e-6
-1.075, -4.234e-6
-1.074, -4.392e-6
-1.073, -4.146e-6
-1.072, -4.560e-6
-1.071, -4.304e-6
-1.070, -4.225e-6
-1.069, -4.274e-6
-1.068, -4.175e-6
-1.067, -4.550e-6
-1.066, -4.294e-6
-1.065, -4.442e-6
-1.064, -4.491e-6
-1.063, -4.412e-6
-1.062, -4.678e-6
-1.061, -4.402e-6
-1.060, -4.264e-6
-1.059, -4.856e-6
-1.058, -4.254e-6
-1.057, -4.629e-6
-1.056, -4.629e-6
-1.055, -4.590e-6
-1.054, -4.669e-6
-1.053, -4.521e-6
-1.052, -4.856e-6
-1.051, -4.530e-6
-1.050, -4.590e-6
-1.049, -4.925e-6
-1.048, -4.698e-6
-1.047, -4.669e-6
-1.046, -4.787e-6
-1.045, -4.619e-6
-1.044, -4.974e-6
-1.043, -4.698e-6
-1.042, -4.836e-6
-1.041, -4.886e-6
-1.040, -4.836e-6
-1.039, -4.955e-6
-1.038, -4.925e-6
-1.037, -5.122e-6
-1.036, -5.053e-6
-1.035, -4.846e-6
-1.034, -5.152e-6
-1.033, -5.103e-6
-1.032, -5.201e-6
-1.031, -5.024e-6
-1.030, -5.103e-6
-1.029, -5.241e-6
-1.028, -5.241e-6
-1.027, -5.270e-6
-1.026, -5.379e-6
-1.025, -5.132e-6
-1.024, -5.557e-6
-1.023, -5.527e-6
-1.022, -5.468e-6
-1.021, -5.527e-6
-1.020, -5.606e-6
-1.019, -5.458e-6
-1.018, -5.428e-6
-1.017, -5.635e-6
-1.016, -5.527e-6
-1.015, -5.557e-6
-1.014, -5.902e-6
-1.013, -5.537e-6
-1.012, -5.793e-6
-1.011, -5.902e-6
-1.010, -5.852e-6
-1.009, -5.951e-6
-1.008, -6.050e-6
-1.007, -6.050e-6
-1.006, -5.843e-6
-1.005, -6.050e-6
-1.004, -5.991e-6
-1.003, -6.227e-6
-1.002, -5.991e-6
-1.001, -6.070e-6
