Dec. 16, 2024   11:33:51
Cyclic Voltammetry
File: c:/users/guazh/data/banditlqround7_x0exp667_r5/2024-12-16-exp670\exp670-2024-12-16t11_23_19-arkoh\exp670_cv_sr_300mvs_efin_-1500mv.bin
Data Source:  Experiment
Instrument Model:  CHI760E
Header: CV ran at 300 mVs
Note: 

Init E (V) = -1
High E (V) = -1
Low E (V) = -1.5
Final E (V) = -1
Init P/N = N
Scan Rate (V/s) = 0.3
Segment = 3
Sample Interval (V) = 0.001
Quiet Time (sec) = 2
Sensitivity (A/V) = 0.01
Comp R (ohm) = 1.1

Results:

Channel 1:
Segment 1:

Segment 2:

Segment 3:

Potential/V, Current/A

-1.000, 1.559e-7
-1.001, -2.927e-6
-1.002, -1.218e-5
-1.003, -6.010e-6
-1.004, 6.322e-6
-1.005, 6.322e-6
-1.006, -2.927e-6
-1.007, -6.010e-6
-1.008, -6.010e-6
-1.009, 6.322e-6
-1.010, 6.322e-6
-1.011, 3.239e-6
-1.012, -2.927e-6
-1.013, -2.927e-6
-1.014, 6.322e-6
-1.015, 9.405e-6
-1.016, 3.239e-6
-1.017, 1.559e-7
-1.018, 1.559e-7
-1.019, 9.405e-6
-1.020, 1.249e-5
-1.021, 6.322e-6
-1.022, 1.559e-7
-1.023, 1.559e-7
-1.024, 1.249e-5
-1.025, 1.249e-5
-1.026, 9.405e-6
-1.027, 3.239e-6
-1.028, 3.239e-6
-1.029, 1.249e-5
-1.030, 1.249e-5
-1.031, 6.322e-6
-1.032, 3.239e-6
-1.033, 6.322e-6
-1.034, 1.557e-5
-1.035, 1.249e-5
-1.036, 9.405e-6
-1.037, 6.322e-6
-1.038, 6.322e-6
-1.039, 1.557e-5
-1.040, 1.557e-5
-1.041, 9.405e-6
-1.042, 3.239e-6
-1.043, 6.322e-6
-1.044, 1.865e-5
-1.045, 1.865e-5
-1.046, 9.405e-6
-1.047, 6.322e-6
-1.048, 9.405e-6
-1.049, 1.865e-5
-1.050, 1.865e-5
-1.051, 1.249e-5
-1.052, 6.322e-6
-1.053, 9.405e-6
-1.054, 1.865e-5
-1.055, 1.865e-5
-1.056, 1.557e-5
-1.057, 9.405e-6
-1.058, 9.405e-6
-1.059, 2.174e-5
-1.060, 2.174e-5
-1.061, 1.557e-5
-1.062, 3.239e-6
-1.063, 1.249e-5
-1.064, 2.174e-5
-1.065, 2.174e-5
-1.066, 1.557e-5
-1.067, 6.322e-6
-1.068, 1.557e-5
-1.069, 2.482e-5
-1.070, 2.174e-5
-1.071, 1.865e-5
-1.072, 9.405e-6
-1.073, 1.557e-5
-1.074, 2.482e-5
-1.075, 2.482e-5
-1.076, 1.865e-5
-1.077, 9.405e-6
-1.078, 1.557e-5
-1.079, 2.482e-5
-1.080, 2.482e-5
-1.081, 1.865e-5
-1.082, 9.405e-6
-1.083, 1.557e-5
-1.084, 2.790e-5
-1.085, 2.482e-5
-1.086, 2.174e-5
-1.087, 1.249e-5
-1.088, 1.865e-5
-1.089, 2.790e-5
-1.090, 2.482e-5
-1.091, 2.174e-5
-1.092, 9.405e-6
-1.093, 1.865e-5
-1.094, 2.790e-5
-1.095, 2.482e-5
-1.096, 2.174e-5
-1.097, 1.249e-5
-1.098, 1.865e-5
-1.099, 2.790e-5
-1.100, 2.790e-5
-1.101, 2.174e-5
-1.102, 1.249e-5
-1.103, 2.174e-5
-1.104, 3.099e-5
-1.105, 2.790e-5
-1.106, 2.174e-5
-1.107, 1.557e-5
-1.108, 1.865e-5
-1.109, 3.407e-5
-1.110, 2.790e-5
-1.111, 2.174e-5
-1.112, 1.557e-5
-1.113, 2.174e-5
-1.114, 3.407e-5
-1.115, 3.099e-5
-1.116, 2.174e-5
-1.117, 1.557e-5
-1.118, 2.482e-5
-1.119, 3.407e-5
-1.120, 2.790e-5
-1.121, 2.482e-5
-1.122, 1.557e-5
-1.123, 2.482e-5
-1.124, 3.715e-5
-1.125, 3.099e-5
-1.126, 2.482e-5
-1.127, 1.557e-5
-1.128, 2.174e-5
-1.129, 3.407e-5
-1.130, 2.790e-5
-1.131, 2.482e-5
-1.132, 1.865e-5
-1.133, 2.482e-5
-1.134, 3.715e-5
-1.135, 3.099e-5
-1.136, 2.482e-5
-1.137, 1.557e-5
-1.138, 3.099e-5
-1.139, 3.715e-5
-1.140, 3.407e-5
-1.141, 2.174e-5
-1.142, 2.174e-5
-1.143, 2.790e-5
-1.144, 3.715e-5
-1.145, 3.099e-5
-1.146, 2.482e-5
-1.147, 1.865e-5
-1.148, 2.790e-5
-1.149, 4.024e-5
-1.150, 3.407e-5
-1.151, 2.482e-5
-1.152, 1.865e-5
-1.153, 2.790e-5
-1.154, 4.024e-5
-1.155, 3.407e-5
-1.156, 2.482e-5
-1.157, 1.865e-5
-1.158, 3.099e-5
-1.159, 3.715e-5
-1.160, 3.715e-5
-1.161, 2.790e-5
-1.162, 2.174e-5
-1.163, 2.790e-5
-1.164, 3.715e-5
-1.165, 3.099e-5
-1.166, 2.174e-5
-1.167, 2.174e-5
-1.168, 3.099e-5
-1.169, 3.715e-5
-1.170, 3.407e-5
-1.171, 2.482e-5
-1.172, 2.482e-5
-1.173, 3.099e-5
-1.174, 4.024e-5
-1.175, 3.407e-5
-1.176, 2.482e-5
-1.177, 2.174e-5
-1.178, 3.407e-5
-1.179, 4.332e-5
-1.180, 3.407e-5
-1.181, 2.482e-5
-1.182, 2.174e-5
-1.183, 3.099e-5
-1.184, 4.332e-5
-1.185, 3.407e-5
-1.186, 2.482e-5
-1.187, 2.174e-5
-1.188, 3.407e-5
-1.189, 4.024e-5
-1.190, 3.715e-5
-1.191, 2.482e-5
-1.192, 2.174e-5
-1.193, 3.099e-5
-1.194, 4.024e-5
-1.195, 3.715e-5
-1.196, 2.482e-5
-1.197, 2.482e-5
-1.198, 3.099e-5
-1.199, 4.332e-5
-1.200, 3.407e-5
-1.201, 2.790e-5
-1.202, 2.174e-5
-1.203, 3.407e-5
-1.204, 4.024e-5
-1.205, 3.715e-5
-1.206, 2.482e-5
-1.207, 2.174e-5
-1.208, 3.099e-5
-1.209, 4.024e-5
-1.210, 3.715e-5
-1.211, 2.482e-5
-1.212, 2.174e-5
-1.213, 3.099e-5
-1.214, 4.024e-5
-1.215, 3.715e-5
-1.216, 2.482e-5
-1.217, 2.174e-5
-1.218, 3.099e-5
-1.219, 3.715e-5
-1.220, 4.024e-5
-1.221, 2.482e-5
-1.222, 1.865e-5
-1.223, 2.790e-5
-1.224, 4.024e-5
-1.225, 3.715e-5
-1.226, 2.482e-5
-1.227, 2.482e-5
-1.228, 3.099e-5
-1.229, 4.024e-5
-1.230, 3.715e-5
-1.231, 2.482e-5
-1.232, 2.482e-5
-1.233, 3.099e-5
-1.234, 4.024e-5
-1.235, 3.715e-5
-1.236, 2.482e-5
-1.237, 2.482e-5
-1.238, 2.790e-5
-1.239, 4.024e-5
-1.240, 4.024e-5
-1.241, 2.482e-5
-1.242, 2.174e-5
-1.243, 2.790e-5
-1.244, 3.715e-5
-1.245, 3.715e-5
-1.246, 2.482e-5
-1.247, 2.482e-5
-1.248, 3.099e-5
-1.249, 4.024e-5
-1.250, 3.407e-5
-1.251, 2.482e-5
-1.252, 2.482e-5
-1.253, 3.099e-5
-1.254, 4.024e-5
-1.255, 3.715e-5
-1.256, 2.482e-5
-1.257, 2.174e-5
-1.258, 3.099e-5
-1.259, 4.024e-5
-1.260, 3.715e-5
-1.261, 2.790e-5
-1.262, 2.790e-5
-1.263, 3.099e-5
-1.264, 3.715e-5
-1.265, 3.099e-5
-1.266, 2.482e-5
-1.267, 2.482e-5
-1.268, 2.790e-5
-1.269, 3.715e-5
-1.270, 3.715e-5
-1.271, 2.790e-5
-1.272, 2.482e-5
-1.273, 3.099e-5
-1.274, 3.715e-5
-1.275, 3.715e-5
-1.276, 2.790e-5
-1.277, 2.482e-5
-1.278, 3.099e-5
-1.279, 3.715e-5
-1.280, 4.024e-5
-1.281, 3.099e-5
-1.282, 2.790e-5
-1.283, 3.099e-5
-1.284, 4.024e-5
-1.285, 4.024e-5
-1.286, 3.099e-5
-1.287, 2.790e-5
-1.288, 3.099e-5
-1.289, 4.024e-5
-1.290, 3.715e-5
-1.291, 3.099e-5
-1.292, 2.790e-5
-1.293, 3.407e-5
-1.294, 4.024e-5
-1.295, 4.024e-5
-1.296, 3.099e-5
-1.297, 3.099e-5
-1.298, 3.715e-5
-1.299, 4.024e-5
-1.300, 4.024e-5
-1.301, 3.407e-5
-1.302, 2.790e-5
-1.303, 3.715e-5
-1.304, 4.332e-5
-1.305, 4.024e-5
-1.306, 3.715e-5
-1.307, 3.099e-5
-1.308, 3.715e-5
-1.309, 4.640e-5
-1.310, 4.024e-5
-1.311, 3.715e-5
-1.312, 3.099e-5
-1.313, 3.715e-5
-1.314, 4.640e-5
-1.315, 4.640e-5
-1.316, 4.024e-5
-1.317, 3.407e-5
-1.318, 4.024e-5
-1.319, 4.949e-5
-1.320, 4.640e-5
-1.321, 4.332e-5
-1.322, 4.024e-5
-1.323, 4.332e-5
-1.324, 5.257e-5
-1.325, 4.949e-5
-1.326, 4.640e-5
-1.327, 4.024e-5
-1.328, 5.257e-5
-1.329, 5.873e-5
-1.330, 5.873e-5
-1.331, 5.565e-5
-1.332, 4.640e-5
-1.333, 5.565e-5
-1.334, 6.490e-5
-1.335, 6.182e-5
-1.336, 5.873e-5
-1.337, 5.565e-5
-1.338, 6.490e-5
-1.339, 7.107e-5
-1.340, 7.107e-5
-1.341, 6.798e-5
-1.342, 6.490e-5
-1.343, 7.415e-5
-1.344, 8.032e-5
-1.345, 8.340e-5
-1.346, 8.032e-5
-1.347, 7.723e-5
-1.348, 8.957e-5
-1.349, 9.882e-5
-1.350, 9.882e-5
-1.351, 9.882e-5
-1.352, 9.265e-5
-1.353, 1.050e-4
-1.354, 1.142e-4
-1.355, 1.173e-4
-1.356, 1.142e-4
-1.357, 1.111e-4
-1.358, 1.235e-4
-1.359, 1.358e-4
-1.360, 1.389e-4
-1.361, 1.420e-4
-1.362, 1.389e-4
-1.363, 1.512e-4
-1.364, 1.636e-4
-1.365, 1.666e-4
-1.366, 1.728e-4
-1.367, 1.697e-4
-1.368, 1.821e-4
-1.369, 1.975e-4
-1.370, 2.067e-4
-1.371, 2.098e-4
-1.372, 2.098e-4
-1.373, 2.252e-4
-1.374, 2.437e-4
-1.375, 2.530e-4
-1.376, 2.561e-4
-1.377, 2.561e-4
-1.378, 2.746e-4
-1.379, 2.931e-4
-1.380, 3.115e-4
-1.381, 3.146e-4
-1.382, 3.177e-4
-1.383, 3.300e-4
-1.384, 3.578e-4
-1.385, 3.763e-4
-1.386, 3.886e-4
-1.387, 3.886e-4
-1.388, 4.040e-4
-1.389, 4.318e-4
-1.390, 4.565e-4
-1.391, 4.719e-4
-1.392, 4.719e-4
-1.393, 4.873e-4
-1.394, 5.212e-4
-1.395, 5.489e-4
-1.396, 5.644e-4
-1.397, 5.674e-4
-1.398, 5.859e-4
-1.399, 6.229e-4
-1.400, 6.569e-4
-1.401, 6.692e-4
-1.402, 6.754e-4
-1.403, 6.969e-4
-1.404, 7.370e-4
-1.405, 7.740e-4
-1.406, 7.956e-4
-1.407, 7.987e-4
-1.408, 8.233e-4
-1.409, 8.696e-4
-1.410, 9.158e-4
-1.411, 9.313e-4
-1.412, 9.374e-4
-1.413, 9.621e-4
-1.414, 1.014e-3
-1.415, 1.064e-3
-1.416, 1.085e-3
-1.417, 1.095e-3
-1.418, 1.116e-3
-1.419, 1.175e-3
-1.420, 1.230e-3
-1.421, 1.255e-3
-1.422, 1.261e-3
-1.423, 1.289e-3
-1.424, 1.351e-3
-1.425, 1.412e-3
-1.426, 1.443e-3
-1.427, 1.446e-3
-1.428, 1.477e-3
-1.429, 1.542e-3
-1.430, 1.616e-3
-1.431, 1.647e-3
-1.432, 1.653e-3
-1.433, 1.684e-3
-1.434, 1.754e-3
-1.435, 1.832e-3
-1.436, 1.865e-3
-1.437, 1.872e-3
-1.438, 1.909e-3
-1.439, 1.986e-3
-1.440, 2.066e-3
-1.441, 2.100e-3
-1.442, 2.109e-3
-1.443, 2.146e-3
-1.444, 2.226e-3
-1.445, 2.316e-3
-1.446, 2.349e-3
-1.447, 2.356e-3
-1.448, 2.396e-3
-1.449, 2.482e-3
-1.450, 2.578e-3
-1.451, 2.615e-3
-1.452, 2.624e-3
-1.453, 2.667e-3
-1.454, 2.760e-3
-1.455, 2.858e-3
-1.456, 2.895e-3
-1.457, 2.901e-3
-1.458, 2.945e-3
-1.459, 3.046e-3
-1.460, 3.151e-3
-1.461, 3.191e-3
-1.462, 3.197e-3
-1.463, 3.237e-3
-1.464, 3.342e-3
-1.465, 3.453e-3
-1.466, 3.496e-3
-1.467, 3.503e-3
-1.468, 3.546e-3
-1.469, 3.657e-3
-1.470, 3.774e-3
-1.471, 3.817e-3
-1.472, 3.823e-3
-1.473, 3.873e-3
-1.474, 3.984e-3
-1.475, 4.107e-3
-1.476, 4.153e-3
-1.477, 4.159e-3
-1.478, 4.209e-3
-1.479, 4.323e-3
-1.480, 4.446e-3
-1.481, 4.495e-3
-1.482, 4.505e-3
-1.483, 4.557e-3
-1.484, 4.674e-3
-1.485, 4.810e-3
-1.486, 4.859e-3
-1.487, 4.865e-3
-1.488, 4.915e-3
-1.489, 5.038e-3
-1.490, 5.174e-3
-1.491, 5.223e-3
-1.492, 5.226e-3
-1.493, 5.282e-3
-1.494, 5.414e-3
-1.495, 5.547e-3
-1.496, 5.590e-3
-1.497, 5.596e-3
-1.498, 5.642e-3
-1.499, 5.781e-3
-1.500, 5.870e-3
-1.499, 5.781e-3
-1.498, 5.639e-3
-1.497, 5.547e-3
-1.496, 5.531e-3
-1.495, 5.522e-3
-1.494, 5.423e-3
-1.493, 5.285e-3
-1.492, 5.192e-3
-1.491, 5.180e-3
-1.490, 5.174e-3
-1.489, 5.084e-3
-1.488, 4.949e-3
-1.487, 4.859e-3
-1.486, 4.844e-3
-1.485, 4.831e-3
-1.484, 4.739e-3
-1.483, 4.606e-3
-1.482, 4.517e-3
-1.481, 4.501e-3
-1.480, 4.489e-3
-1.479, 4.403e-3
-1.478, 4.283e-3
-1.477, 4.199e-3
-1.476, 4.184e-3
-1.475, 4.172e-3
-1.474, 4.085e-3
-1.473, 3.965e-3
-1.472, 3.879e-3
-1.471, 3.866e-3
-1.470, 3.854e-3
-1.469, 3.774e-3
-1.468, 3.657e-3
-1.467, 3.577e-3
-1.466, 3.564e-3
-1.465, 3.549e-3
-1.464, 3.475e-3
-1.463, 3.364e-3
-1.462, 3.287e-3
-1.461, 3.274e-3
-1.460, 3.265e-3
-1.459, 3.191e-3
-1.458, 3.086e-3
-1.457, 3.012e-3
-1.456, 3.006e-3
-1.455, 2.991e-3
-1.454, 2.920e-3
-1.453, 2.821e-3
-1.452, 2.753e-3
-1.451, 2.738e-3
-1.450, 2.729e-3
-1.449, 2.661e-3
-1.448, 2.565e-3
-1.447, 2.504e-3
-1.446, 2.494e-3
-1.445, 2.482e-3
-1.444, 2.423e-3
-1.443, 2.325e-3
-1.442, 2.269e-3
-1.441, 2.260e-3
-1.440, 2.245e-3
-1.439, 2.195e-3
-1.438, 2.103e-3
-1.437, 2.047e-3
-1.436, 2.038e-3
-1.435, 2.029e-3
-1.434, 1.973e-3
-1.433, 1.893e-3
-1.432, 1.844e-3
-1.431, 1.832e-3
-1.430, 1.822e-3
-1.429, 1.773e-3
-1.428, 1.696e-3
-1.427, 1.647e-3
-1.426, 1.643e-3
-1.425, 1.631e-3
-1.424, 1.585e-3
-1.423, 1.514e-3
-1.422, 1.468e-3
-1.421, 1.465e-3
-1.420, 1.452e-3
-1.419, 1.409e-3
-1.418, 1.344e-3
-1.417, 1.307e-3
-1.416, 1.304e-3
-1.415, 1.292e-3
-1.414, 1.252e-3
-1.413, 1.193e-3
-1.412, 1.162e-3
-1.411, 1.156e-3
-1.410, 1.147e-3
-1.409, 1.110e-3
-1.408, 1.058e-3
-1.407, 1.024e-3
-1.406, 1.021e-3
-1.405, 1.011e-3
-1.404, 9.775e-4
-1.403, 9.313e-4
-1.402, 9.004e-4
-1.401, 9.004e-4
-1.400, 8.912e-4
-1.399, 8.634e-4
-1.398, 8.141e-4
-1.397, 7.894e-4
-1.396, 7.894e-4
-1.395, 7.771e-4
-1.394, 7.524e-4
-1.393, 7.124e-4
-1.392, 6.908e-4
-1.391, 6.908e-4
-1.390, 6.815e-4
-1.389, 6.569e-4
-1.388, 6.229e-4
-1.387, 6.014e-4
-1.386, 6.044e-4
-1.385, 5.952e-4
-1.384, 5.736e-4
-1.383, 5.397e-4
-1.382, 5.212e-4
-1.381, 5.212e-4
-1.380, 5.150e-4
-1.379, 4.965e-4
-1.378, 4.688e-4
-1.377, 4.565e-4
-1.376, 4.565e-4
-1.375, 4.503e-4
-1.374, 4.318e-4
-1.373, 4.071e-4
-1.372, 3.948e-4
-1.371, 3.948e-4
-1.370, 3.886e-4
-1.369, 3.732e-4
-1.368, 3.485e-4
-1.367, 3.393e-4
-1.366, 3.455e-4
-1.365, 3.362e-4
-1.364, 3.208e-4
-1.363, 2.992e-4
-1.362, 2.931e-4
-1.361, 2.961e-4
-1.360, 2.900e-4
-1.359, 2.746e-4
-1.358, 2.561e-4
-1.357, 2.561e-4
-1.356, 2.561e-4
-1.355, 2.499e-4
-1.354, 2.345e-4
-1.353, 2.191e-4
-1.352, 2.221e-4
-1.351, 2.191e-4
-1.350, 2.129e-4
-1.349, 2.006e-4
-1.348, 1.882e-4
-1.347, 1.851e-4
-1.346, 1.913e-4
-1.345, 1.821e-4
-1.344, 1.697e-4
-1.343, 1.605e-4
-1.342, 1.605e-4
-1.341, 1.636e-4
-1.340, 1.574e-4
-1.339, 1.451e-4
-1.338, 1.389e-4
-1.337, 1.389e-4
-1.336, 1.389e-4
-1.335, 1.358e-4
-1.334, 1.235e-4
-1.333, 1.173e-4
-1.332, 1.173e-4
-1.331, 1.235e-4
-1.330, 1.173e-4
-1.329, 1.050e-4
-1.328, 9.882e-5
-1.327, 1.019e-4
-1.326, 1.019e-4
-1.325, 1.019e-4
-1.324, 8.957e-5
-1.323, 8.340e-5
-1.322, 8.648e-5
-1.321, 8.957e-5
-1.320, 8.648e-5
-1.319, 7.415e-5
-1.318, 7.107e-5
-1.317, 7.415e-5
-1.316, 7.723e-5
-1.315, 7.107e-5
-1.314, 6.182e-5
-1.313, 5.873e-5
-1.312, 6.182e-5
-1.311, 6.490e-5
-1.310, 6.182e-5
-1.309, 5.257e-5
-1.308, 4.640e-5
-1.307, 5.257e-5
-1.306, 5.565e-5
-1.305, 5.257e-5
-1.304, 4.332e-5
-1.303, 4.024e-5
-1.302, 4.332e-5
-1.301, 4.949e-5
-1.300, 4.640e-5
-1.299, 3.407e-5
-1.298, 3.099e-5
-1.297, 4.024e-5
-1.296, 4.332e-5
-1.295, 3.715e-5
-1.294, 2.790e-5
-1.293, 1.865e-5
-1.292, 3.099e-5
-1.291, 3.407e-5
-1.290, 3.099e-5
-1.289, 2.174e-5
-1.288, 1.865e-5
-1.287, 2.790e-5
-1.286, 3.407e-5
-1.285, 2.790e-5
-1.284, 1.865e-5
-1.283, 1.557e-5
-1.282, 2.482e-5
-1.281, 2.790e-5
-1.280, 2.482e-5
-1.279, 1.249e-5
-1.278, 9.405e-6
-1.277, 1.865e-5
-1.276, 2.482e-5
-1.275, 2.174e-5
-1.274, 9.405e-6
-1.273, 6.322e-6
-1.272, 1.557e-5
-1.271, 1.865e-5
-1.270, 1.557e-5
-1.269, 6.322e-6
-1.268, 3.239e-6
-1.267, 1.249e-5
-1.266, 1.865e-5
-1.265, 1.557e-5
-1.264, 3.239e-6
-1.263, 3.239e-6
-1.262, 9.405e-6
-1.261, 1.249e-5
-1.260, 9.405e-6
-1.259, 3.239e-6
-1.258, 1.559e-7
-1.257, 6.322e-6
-1.256, 1.249e-5
-1.255, 1.249e-5
-1.254, 1.559e-7
-1.253, -2.927e-6
-1.252, 6.322e-6
-1.251, 9.405e-6
-1.250, 6.322e-6
-1.249, 1.559e-7
-1.248, -2.927e-6
-1.247, 1.559e-7
-1.246, 9.405e-6
-1.245, 3.239e-6
-1.244, -2.927e-6
-1.243, -6.010e-6
-1.242, 1.559e-7
-1.241, 6.322e-6
-1.240, 3.239e-6
-1.239, -2.927e-6
-1.238, -9.093e-6
-1.237, -2.927e-6
-1.236, 3.239e-6
-1.235, 3.239e-6
-1.234, -6.010e-6
-1.233, -6.010e-6
-1.232, -2.927e-6
-1.231, 3.239e-6
-1.230, 1.559e-7
-1.229, -6.010e-6
-1.228, -9.093e-6
-1.227, -2.927e-6
-1.226, 1.559e-7
-1.225, 1.559e-7
-1.224, -9.093e-6
-1.223, -9.093e-6
-1.222, -6.010e-6
-1.221, 1.559e-7
-1.220, -2.927e-6
-1.219, -6.010e-6
-1.218, -9.093e-6
-1.217, -6.010e-6
-1.216, 1.559e-7
-1.215, -2.927e-6
-1.214, -9.093e-6
-1.213, -9.093e-6
-1.212, -9.093e-6
-1.211, -2.927e-6
-1.210, -2.927e-6
-1.209, -9.093e-6
-1.208, -1.218e-5
-1.207, -9.093e-6
-1.206, -2.927e-6
-1.205, -2.927e-6
-1.204, -9.093e-6
-1.203, -1.526e-5
-1.202, -9.093e-6
-1.201, -6.010e-6
-1.200, -9.093e-6
-1.199, -9.093e-6
-1.198, -1.218e-5
-1.197, -9.093e-6
-1.196, -6.010e-6
-1.195, -6.010e-6
-1.194, -1.218e-5
-1.193, -1.526e-5
-1.192, -1.218e-5
-1.191, -6.010e-6
-1.190, -9.093e-6
-1.189, -1.526e-5
-1.188, -1.526e-5
-1.187, -1.218e-5
-1.186, -6.010e-6
-1.185, -9.093e-6
-1.184, -1.218e-5
-1.183, -1.834e-5
-1.182, -1.218e-5
-1.181, -9.093e-6
-1.180, -9.093e-6
-1.179, -1.526e-5
-1.178, -1.834e-5
-1.177, -1.526e-5
-1.176, -9.093e-6
-1.175, -9.093e-6
-1.174, -1.526e-5
-1.173, -1.834e-5
-1.172, -1.218e-5
-1.171, -9.093e-6
-1.170, -1.526e-5
-1.169, -1.834e-5
-1.168, -2.451e-5
-1.167, -1.526e-5
-1.166, -9.093e-6
-1.165, -1.526e-5
-1.164, -1.834e-5
-1.163, -2.451e-5
-1.162, -1.526e-5
-1.161, -9.093e-6
-1.160, -1.526e-5
-1.159, -2.143e-5
-1.158, -2.143e-5
-1.157, -1.834e-5
-1.156, -1.218e-5
-1.155, -1.834e-5
-1.154, -2.143e-5
-1.153, -2.759e-5
-1.152, -1.526e-5
-1.151, -1.218e-5
-1.150, -1.526e-5
-1.149, -2.143e-5
-1.148, -2.451e-5
-1.147, -1.834e-5
-1.146, -1.218e-5
-1.145, -1.526e-5
-1.144, -2.143e-5
-1.143, -2.759e-5
-1.142, -1.834e-5
-1.141, -1.526e-5
-1.140, -1.834e-5
-1.139, -2.451e-5
-1.138, -2.451e-5
-1.137, -2.143e-5
-1.136, -1.218e-5
-1.135, -1.834e-5
-1.134, -2.451e-5
-1.133, -2.759e-5
-1.132, -2.143e-5
-1.131, -1.526e-5
-1.130, -2.451e-5
-1.129, -2.759e-5
-1.128, -2.759e-5
-1.127, -2.143e-5
-1.126, -1.834e-5
-1.125, -2.143e-5
-1.124, -2.451e-5
-1.123, -3.068e-5
-1.122, -2.451e-5
-1.121, -1.834e-5
-1.120, -2.143e-5
-1.119, -2.759e-5
-1.118, -3.068e-5
-1.117, -2.451e-5
-1.116, -1.834e-5
-1.115, -2.451e-5
-1.114, -3.068e-5
-1.113, -3.068e-5
-1.112, -2.759e-5
-1.111, -2.143e-5
-1.110, -2.451e-5
-1.109, -3.068e-5
-1.108, -3.376e-5
-1.107, -2.759e-5
-1.106, -2.143e-5
-1.105, -2.451e-5
-1.104, -3.376e-5
-1.103, -3.068e-5
-1.102, -2.759e-5
-1.101, -2.451e-5
-1.100, -2.451e-5
-1.099, -3.068e-5
-1.098, -3.376e-5
-1.097, -3.068e-5
-1.096, -2.451e-5
-1.095, -2.759e-5
-1.094, -3.376e-5
-1.093, -3.992e-5
-1.092, -2.759e-5
-1.091, -2.451e-5
-1.090, -2.759e-5
-1.089, -3.684e-5
-1.088, -3.992e-5
-1.087, -3.068e-5
-1.086, -2.451e-5
-1.085, -3.376e-5
-1.084, -3.684e-5
-1.083, -3.992e-5
-1.082, -3.068e-5
-1.081, -2.759e-5
-1.080, -2.759e-5
-1.079, -3.684e-5
-1.078, -4.301e-5
-1.077, -3.068e-5
-1.076, -3.068e-5
-1.075, -3.068e-5
-1.074, -4.301e-5
-1.073, -4.301e-5
-1.072, -3.684e-5
-1.071, -3.068e-5
-1.070, -3.376e-5
-1.069, -4.301e-5
-1.068, -4.301e-5
-1.067, -3.684e-5
-1.066, -3.376e-5
-1.065, -3.684e-5
-1.064, -4.301e-5
-1.063, -4.609e-5
-1.062, -3.684e-5
-1.061, -3.376e-5
-1.060, -3.684e-5
-1.059, -4.609e-5
-1.058, -4.917e-5
-1.057, -3.684e-5
-1.056, -3.376e-5
-1.055, -3.992e-5
-1.054, -4.609e-5
-1.053, -5.534e-5
-1.052, -3.992e-5
-1.051, -3.684e-5
-1.050, -3.992e-5
-1.049, -4.917e-5
-1.048, -5.534e-5
-1.047, -4.301e-5
-1.046, -3.992e-5
-1.045, -4.301e-5
-1.044, -5.226e-5
-1.043, -5.842e-5
-1.042, -4.917e-5
-1.041, -4.301e-5
-1.040, -4.301e-5
-1.039, -5.226e-5
-1.038, -6.151e-5
-1.037, -4.609e-5
-1.036, -3.992e-5
-1.035, -4.301e-5
-1.034, -5.534e-5
-1.033, -6.151e-5
-1.032, -5.226e-5
-1.031, -4.609e-5
-1.030, -4.917e-5
-1.029, -5.842e-5
-1.028, -6.767e-5
-1.027, -5.226e-5
-1.026, -4.917e-5
-1.025, -4.917e-5
-1.024, -6.151e-5
-1.023, -7.076e-5
-1.022, -5.842e-5
-1.021, -5.226e-5
-1.020, -5.226e-5
-1.019, -6.459e-5
-1.018, -7.076e-5
-1.017, -6.151e-5
-1.016, -5.534e-5
-1.015, -5.534e-5
-1.014, -6.767e-5
-1.013, -7.692e-5
-1.012, -6.459e-5
-1.011, -5.534e-5
-1.010, -5.842e-5
-1.009, -7.076e-5
-1.008, -7.692e-5
-1.007, -6.767e-5
-1.006, -5.842e-5
-1.005, -6.151e-5
-1.004, -7.384e-5
-1.003, -8.000e-5
-1.002, -7.076e-5
-1.001, -6.151e-5
