Potential V vs RHE, Current mA cm-2
0.013299999999999867,-0.48199213986401795
0.012299999999999978,-1.92117794521672
0.011299999999999866,-2.8379108675292635
0.010299999999999976,-3.4915074880669104
0.009299999999999864,-4.014950669016974
0.008299999999999974,-4.494537799671222
0.007299999999999862,-4.887827541033701
0.006299999999999972,-5.235846520800501
0.00529999999999986,-5.497568111275533
0.0042999999999999705,-5.672992312458796
0.0032999999999998586,-5.759289701750564
0.0022999999999999687,-5.80314575204638
0.0012999999999998568,-5.890857852638012
0.00029999999999996696,-6.021011292225596
-0.000700000000000145,-6.196435493408861
-0.0017000000000000348,-6.37044498329226
-0.0027000000000001467,-6.500598422879844
-0.0037000000000000366,-6.588310523471475
-0.0047000000000001485,-6.588310523471475
-0.005700000000000038,-6.588310523471475
-0.00670000000000015,-6.632166573767292
-0.00770000000000004,-6.6760226240631075
-0.008700000000000152,-6.806176063650692
-0.009700000000000042,-6.93774421453814
-0.010700000000000154,-7.067897654125724
-0.011700000000000044,-7.155609754717355
-0.012700000000000156,-7.155609754717355
-0.013700000000000045,-7.111753704421539
-0.014700000000000157,-7.111753704421539
-0.015700000000000047,-7.111753704421539
-0.01670000000000016,-7.243321855308987
-0.01770000000000005,-7.329619244600755
-0.01870000000000016,-7.50504344578402
-0.01970000000000005,-7.5474847847799715
-0.020700000000000163,-7.5474847847799715
-0.021700000000000053,-7.5474847847799715
-0.022700000000000164,-7.5474847847799715
-0.023700000000000054,-7.5474847847799715
-0.024700000000000166,-7.635196885371603
-0.025700000000000056,-7.722908985963235
-0.026700000000000168,-7.853062425550818
-0.027700000000000058,-7.984630576438266
-0.02870000000000017,-7.984630576438266
-0.02970000000000006,-7.984630576438266
-0.03070000000000017,-7.984630576438266
-0.03170000000000006,-7.940774526142452
-0.03270000000000017,-7.984630576438266
-0.03370000000000006,-8.11478401602585
-0.034700000000000175,-8.202496116617484
-0.035700000000000065,-8.332649556205066
-0.03670000000000018,-8.376505606500881
-0.03770000000000007,-8.376505606500881
-0.03870000000000018,-8.332649556205066
-0.03970000000000007,-8.288793505909249
-0.04070000000000018,-8.332649556205066
-0.04170000000000007,-8.376505606500881
-0.04270000000000018,-8.508073757388331
-0.04370000000000007,-8.638227196975913
-0.044700000000000184,-8.725939297567548
-0.045700000000000074,-8.725939297567548
-0.046700000000000186,-8.68208324727173
-0.047700000000000076,-8.638227196975913
-0.04870000000000019,-8.638227196975913
-0.04970000000000008,-8.68208324727173
-0.05070000000000019,-8.769795347863363
-0.05170000000000008,-8.899948787450944
-0.05270000000000019,-8.987660888042578
-0.05370000000000008,-9.031516938338395
-0.05470000000000019,-8.987660888042578
-0.05570000000000008,-8.943804837746763
-0.056700000000000195,-8.943804837746763
-0.057700000000000085,-8.943804837746763
-0.058700000000000196,-9.031516938338395
-0.059700000000000086,-9.11781432763016
-0.0607000000000002,-9.205526428221793
-0.06170000000000009,-9.293238528813426
-0.0627000000000002,-9.293238528813426
-0.06370000000000009,-9.205526428221793
-0.0647000000000002,-9.161670377925978
-0.06570000000000009,-9.161670377925978
-0.0667000000000002,-9.205526428221793
-0.0677000000000001,-9.335679867809377
-0.0687000000000002,-9.423391968401008
-0.0697000000000001,-9.467248018696827
-0.07070000000000021,-9.467248018696827
-0.0717000000000001,-9.423391968401008
-0.07270000000000021,-9.335679867809377
-0.0737000000000001,-9.335679867809377
-0.07470000000000021,-9.335679867809377
-0.0757000000000001,-9.423391968401008
-0.07670000000000021,-9.511104068992642
-0.0777000000000001,-9.59740145828441
-0.07870000000000021,-9.59740145828441
-0.0797000000000001,-9.55496011928846
-0.08070000000000022,-9.511104068992642
-0.0817000000000001,-9.467248018696827
-0.08270000000000022,-9.467248018696827
-0.08370000000000011,-9.55496011928846
-0.08470000000000022,-9.641257508580225
-0.08570000000000011,-9.685113558876042
-0.08670000000000022,-9.728969609171857
-0.08770000000000011,-9.685113558876042
-0.08870000000000022,-9.641257508580225
-0.08970000000000011,-9.55496011928846
-0.09070000000000022,-9.55496011928846
-0.09170000000000011,-9.59740145828441
-0.09270000000000023,-9.685113558876042
-0.09370000000000012,-9.772825659467674
-0.09470000000000023,-9.81668170976349
-0.09570000000000012,-9.81668170976349
-0.09670000000000023,-9.772825659467674
-0.09770000000000012,-9.685113558876042
-0.09870000000000023,-9.641257508580225
-0.09970000000000012,-9.685113558876042
-0.10070000000000023,-9.772825659467674
-0.10170000000000012,-9.85912304875944
-0.10270000000000024,-9.946835149351072
-0.10370000000000013,-9.946835149351072
-0.10470000000000024,-9.902979099055257
-0.10570000000000013,-9.81668170976349
-0.10670000000000024,-9.81668170976349
-0.10770000000000013,-9.81668170976349
-0.10870000000000024,-9.902979099055257
-0.10970000000000013,-9.946835149351072
-0.11070000000000024,-10.078403300238522
-0.11170000000000013,-10.078403300238522
-0.11270000000000002,-10.034547249942705
-0.11370000000000013,-9.99069119964689
-0.11470000000000002,-9.946835149351072
-0.11570000000000014,-9.946835149351072
-0.11670000000000003,-9.99069119964689
-0.11770000000000014,-10.078403300238522
-0.11870000000000003,-10.208556739826104
-0.11970000000000014,-10.25241279012192
-0.12070000000000003,-10.25241279012192
-0.12170000000000014,-10.208556739826104
-0.12270000000000003,-10.120844639234473
-0.12370000000000014,-10.120844639234473
-0.12470000000000003,-10.164700689530287
-0.12570000000000014,-10.25241279012192
-0.12670000000000003,-10.382566229709504
-0.12770000000000015,-10.42642228000532
-0.12870000000000004,-10.470278330301136
-0.12970000000000015,-10.42642228000532
-0.13070000000000004,-10.382566229709504
-0.13170000000000015,-10.382566229709504
-0.13270000000000004,-10.382566229709504
-0.13370000000000015,-10.470278330301136
-0.13470000000000004,-10.601846481188586
-0.13570000000000015,-10.688143870480351
-0.13670000000000004,-10.731999920776168
-0.13770000000000016,-10.731999920776168
-0.13870000000000005,-10.688143870480351
-0.13970000000000016,-10.644287820184536
-0.14070000000000005,-10.688143870480351
-0.14170000000000016,-10.731999920776168
-0.14270000000000005,-10.863568071663616
-0.14370000000000016,-10.949865460955383
-0.14470000000000005,-11.037577561547016
-0.14570000000000016,-11.037577561547016
-0.14670000000000005,-10.993721511251199
-0.14770000000000016,-10.949865460955383
-0.14870000000000005,-10.949865460955383
-0.14970000000000017,-10.993721511251199
-0.15070000000000006,-11.123874950838783
-0.15170000000000017,-11.255443101726232
-0.15270000000000006,-11.343155202317865
-0.15370000000000017,-11.385596541313816
-0.15470000000000006,-11.343155202317865
-0.15570000000000017,-11.299299152022046
-0.15670000000000006,-11.299299152022046
-0.15770000000000017,-11.385596541313816
-0.15870000000000006,-11.473308641905447
-0.15970000000000018,-11.604876792792895
-0.16070000000000007,-11.691174182084664
-0.16170000000000018,-11.73503023238048
-0.16270000000000007,-11.73503023238048
-0.16370000000000018,-11.73503023238048
-0.16470000000000007,-11.73503023238048
-0.16570000000000018,-11.778886282676295
-0.16670000000000007,-11.86659838326793
-0.16770000000000018,-11.996751822855511
-0.16870000000000007,-12.12831997374296
-0.16970000000000018,-12.214617363034726
-0.17070000000000007,-12.214617363034726
-0.17170000000000019,-12.214617363034726
-0.17270000000000008,-12.170761312738911
-0.1737000000000002,-12.214617363034726
-0.17470000000000008,-12.302329463626359
-0.1757000000000002,-12.390041564217992
-0.17670000000000008,-12.56405105410139
-0.1777000000000002,-12.651763154693022
-0.17870000000000008,-12.694204493688973
-0.1797000000000002,-12.694204493688973
-0.18070000000000008,-12.694204493688973
-0.1817000000000002,-12.694204493688973
-0.18270000000000008,-12.73806054398479
-0.1837000000000002,-12.869628694872238
-0.1847000000000001,-12.99978213445982
-0.1857000000000002,-13.13135028534727
-0.1867000000000001,-13.175206335643086
-0.1877000000000002,-13.217647674639037
-0.1887000000000001,-13.217647674639037
-0.1897000000000002,-13.217647674639037
-0.1907000000000001,-13.261503724934855
-0.1917000000000001,-13.349215825526485
-0.19269999999999998,-13.523225315409885
-0.1937000000000001,-13.654793466297335
-0.19469999999999998,-13.741090855589102
-0.1957000000000001,-13.784946905884919
-0.19669999999999999,-13.784946905884919
-0.1977000000000001,-13.784946905884919
-0.1987,-13.784946905884919
-0.1997000000000001,-13.916515056772363
-0.2007,-14.046668496359947
-0.2017000000000001,-14.175407224647667
-0.2027,-14.30273124163552
-0.2037000000000001,-14.345172580631472
-0.2047,-14.401761032626075
-0.2057000000000001,-14.401761032626075
-0.2067,-14.444202371622024
-0.2077000000000001,-14.486643710617974
-0.2087,-14.61396772760583
-0.2097000000000001,-14.783733083589633
-0.2107,-14.868615761581536
-0.2117000000000001,-15.01008689156804
-0.2127,-15.05252823056399
-0.2137000000000001,-15.05252823056399
-0.2147,-15.094969569559943
-0.2157000000000001,-15.179852247551842
-0.2167,-15.307176264539699
-0.21770000000000012,-15.448647394526201
-0.2187,-15.618412750510005
-0.21970000000000012,-15.70329542850191
-0.2207,-15.74573676749786
-0.22170000000000012,-15.78817810649381
-0.2227,-15.78817810649381
-0.22370000000000012,-15.830619445489761
-0.2247,-15.972090575476265
-0.22570000000000012,-16.099414592464115
-0.2267,-16.269179948447924
-0.22770000000000012,-16.396503965435777
-0.22870000000000001,-16.495533756426326
-0.22970000000000013,-16.53797509542228
-0.23070000000000002,-16.53797509542228
-0.23170000000000013,-16.580416434418233
-0.23270000000000002,-16.665299112410132
-0.23370000000000013,-16.792623129397985
-0.23470000000000002,-16.962388485381787
-0.23570000000000013,-17.103859615368293
-0.23670000000000002,-17.188742293360193
-0.2376999999999999,-17.231183632356142
-0.23870000000000002,-17.2736249713521
-0.2396999999999999,-17.2736249713521
-0.24070000000000003,-17.358507649344002
-0.24169999999999991,-17.4433903273359
-0.24270000000000003,-17.627302796318357
-0.24369999999999992,-17.797068152302163
-0.24470000000000003,-17.924392169290012
-0.24569999999999992,-17.966833508285966
-0.24670000000000003,-18.009274847281915
-0.24769999999999992,-18.009274847281915
-0.24870000000000003,-18.06586329927652
-0.24969999999999992,-18.19318731626437
-0.25070000000000003,-18.320511333252224
-0.2516999999999999,-18.49027668923603
-0.25270000000000004,-18.631747819222536
-0.2536999999999999,-18.716630497214435
-0.25470000000000004,-18.759071836210385
-0.2556999999999999,-18.759071836210385
-0.25670000000000004,-18.80151317520634
-0.25769999999999993,-18.843954514202288
-0.25870000000000004,-18.97127853119014
-0.25969999999999993,-19.155191000172596
-0.26070000000000004,-19.28251501716045
-0.26169999999999993,-19.3249563561564
-0.26270000000000004,-19.367397695152352
-0.26369999999999993,-19.367397695152352
-0.26470000000000005,-19.3249563561564
-0.26569999999999994,-19.367397695152352
-0.26670000000000005,-19.49472171214021
-0.26769999999999994,-19.636192842126707
-0.26870000000000005,-19.763516859114564
-0.26969999999999994,-19.805958198110513
-0.27070000000000005,-19.848399537106463
-0.27169999999999994,-19.805958198110513
-0.27270000000000005,-19.763516859114564
-0.27369999999999994,-19.763516859114564
-0.27470000000000006,-19.763516859114564
-0.27569999999999995,-19.848399537106463
-0.27670000000000006,-19.97572355409432
-0.27769999999999995,-20.01816489309027
-0.27870000000000006,-20.01816489309027
-0.27969999999999995,-19.97572355409432
-0.28070000000000006,-19.890840876102416
-0.28169999999999995,-19.890840876102416
-0.28270000000000006,-19.848399537106463
-0.28369999999999995,-19.890840876102416
-0.28470000000000006,-19.93328221509837
-0.28569999999999995,-19.97572355409432
-0.28670000000000007,-20.01816489309027
-0.28769999999999996,-19.93328221509837
-0.28870000000000007,-19.848399537106463
-0.28969999999999996,-19.721075520118614
-0.29070000000000007,-19.678634181122664
-0.29169999999999996,-19.678634181122664
-0.29270000000000007,-19.678634181122664
-0.29369999999999996,-19.721075520118614
-0.2947000000000001,-19.678634181122664
-0.29569999999999996,-19.579604390132108
-0.2967000000000001,-19.452280373144255
-0.29769999999999996,-19.3249563561564
-0.2987000000000001,-19.2400736781645
-0.29969999999999997,-19.155191000172596
-0.3007000000000001,-19.155191000172596
-0.30169999999999997,-19.155191000172596
-0.3027000000000001,-19.112749661176647
-0.30369999999999997,-19.01371987018609
-0.3047000000000001,-18.88639585319824
-0.30569999999999997,-18.759071836210385
-0.3067000000000001,-18.589306480226583
-0.3077,-18.49027668923603
-0.3087000000000001,-18.44783535024008
-0.3097,-18.44783535024008
-0.3107000000000001,-18.40539401124413
-0.3117,-18.362952672248177
-0.3127000000000001,-18.23562865526032
-0.3137,-18.06586329927652
-0.3147000000000001,-17.881950830294063
-0.3157,-17.797068152302163
-0.3167000000000001,-17.75462681330621
-0.3177,-17.71218547431026
-0.3187000000000001,-17.75462681330621
-0.3197,-17.669744135314307
-0.3207000000000001,-17.542420118326454
-0.3217,-17.40094898833995
-0.3227000000000001,-17.231183632356142
-0.3237,-17.146300954364243
-0.3247000000000001,-17.103859615368293
-0.3257,-17.103859615368293
-0.3267000000000001,-17.103859615368293
-0.3277,-17.103859615368293
-0.3287000000000001,-17.061418276372343
-0.3297,-16.919947146385837
-0.3307000000000001,-16.792623129397985
-0.3317,-16.70774045140608
-0.3327000000000001,-16.665299112410132
-0.3337,-16.665299112410132
-0.3347000000000001,-16.665299112410132
-0.3357,-16.70774045140608
-0.3367000000000001,-16.70774045140608
-0.3377,-16.622857773414182
-0.3387000000000001,-16.495533756426326
-0.3397,-16.438945304431726
-0.3407000000000001,-16.354062626439823
-0.3417,-16.396503965435777
-0.3427000000000001,-16.438945304431726
-0.3437,-16.53797509542228
-0.3447000000000001,-16.580416434418233
-0.3457,-16.53797509542228
-0.3467000000000001,-16.438945304431726
-0.3477,-16.396503965435777
-0.3487000000000001,-16.354062626439823
-0.3497,-16.396503965435777
-0.3507000000000001,-16.495533756426326
-0.3517,-16.622857773414182
-0.3527000000000001,-16.665299112410132
-0.3537,-16.70774045140608
-0.3547000000000001,-16.665299112410132
-0.3557,-16.665299112410132
-0.35670000000000013,-16.622857773414182
-0.3577,-16.665299112410132
-0.35870000000000013,-16.792623129397985
-0.3597,-16.919947146385837
-0.36070000000000013,-17.061418276372343
-0.3617,-17.146300954364243
-0.3626999999999999,-17.146300954364243
-0.3637,-17.146300954364243
-0.3646999999999999,-17.146300954364243
-0.3657,-17.231183632356142
-0.3666999999999999,-17.358507649344002
-0.3677,-17.542420118326454
-0.3686999999999999,-17.71218547431026
-0.36970000000000003,-17.881950830294063
-0.3706999999999999,-17.966833508285966
-0.37170000000000003,-18.009274847281915
-0.3726999999999999,-18.06586329927652
-0.37370000000000003,-18.15074597726842
-0.3746999999999999,-18.320511333252224
-0.37570000000000003,-18.53271802823198
-0.3766999999999999,-18.759071836210385
-0.37770000000000004,-18.97127853119014
-0.3786999999999999,-19.112749661176647
-0.37970000000000004,-19.2400736781645
-0.3806999999999999,-19.3249563561564
-0.38170000000000004,-19.452280373144255
-0.38269999999999993,-19.636192842126707
-0.38370000000000004,-19.890840876102416
-0.38469999999999993,-20.159636023076775
-0.38570000000000004,-20.414284057052477
-0.38669999999999993,-20.683079204026836
-0.38770000000000004,-20.85284456001064
-0.38869999999999993,-21.022609915994444
-0.38970000000000005,-21.2065223849769
-0.39069999999999994,-21.418729079956652
-0.39170000000000005,-21.729965565926964
-0.39269999999999994,-22.069496277894572
-0.39370000000000005,-22.42317410286083
-0.39469999999999994,-22.72026347583249
-0.39570000000000005,-23.031499961802798
-0.39669999999999994,-23.24370665678255
-0.39770000000000005,-23.47006046476096
-0.39869999999999994,-23.767149837732617
-0.39970000000000006,-24.120827662698876
-0.40069999999999995,-24.559388165657033
-0.40170000000000006,-24.997948668615198
-0.40269999999999995,-25.39406783257741
-0.40370000000000006,-25.77603988354097
-0.40469999999999995,-26.129717708507226
-0.40570000000000006,-26.483395533473487
-0.40669999999999995,-26.86536758443705
-0.40770000000000006,-27.261486748399253
-0.40869999999999995,-27.78492992934932
-0.40970000000000006,-28.350814449295335
-0.41069999999999995,-28.8742576302454
-0.41170000000000007,-29.39770081119546
-0.41269999999999996,-29.878702653149578
-0.41370000000000007,-30.317263156107735
-0.41469999999999996,-30.8407063370578
-0.41570000000000007,-31.36414951800786
-0.41669999999999996,-31.972475376949827
-0.41770000000000007,-32.66568391388369
-0.41869999999999996,-33.373039563816214
-0.4197000000000001,-34.06624810075008
-0.42069999999999996,-34.717015298688004
-0.4217000000000001,-35.32534115762997
-0.42269999999999996,-35.99025546856653
-0.4237000000000001,-36.6834640055004
-0.42469999999999997,-37.41911388143023
-0.4257000000000001,-38.29623488734655
-0.42669999999999997,-39.173355893262865
-0.4277000000000001,-40.03632978618054
-0.42869999999999997,-40.91345079209687
-0.4297000000000001,-41.74813045901723
-0.43069999999999997,-42.568663012938956
-0.4317000000000001,-43.44578401885527
-0.4327,-44.4077877027635
-0.4337000000000001,-45.45467406466363
-0.4347,-46.586443104555656
-0.4357000000000001,-47.67577080545174
-0.4367,-48.80753984534376
-0.4377000000000001,-49.89686754623985
-0.4387,-50.943753908139975
-0.4397000000000001,-52.033081609036046
-0.4407,-53.26388043991864
-0.4417000000000001,-54.52297349679851
-0.4427,-55.881096344668954
-0.4437000000000001,-57.30995475753264
-0.4447,-58.71051894439902
-0.4457000000000001,-60.11108313126541
-0.4467,-61.49750020513315
-0.4477000000000001,-62.855623053003576
-0.4487,-64.29862857886593
-0.4497000000000001,-65.86895812171612
-0.4507,-67.48172900356225
-0.4517000000000001,-69.1793825634003
-0.4527,-70.8345947842424
-0.4537000000000001,-72.53224834408043
-0.4547,-74.20160767792116
-0.4557000000000001,-75.8992612377592
-0.4567,-77.59691479759726
-0.4577000000000001,-79.42189237442317
-0.4587,-81.26101706424771
-0.4597000000000001,-83.22746577106011
-0.4607,-85.17976736487385
-0.4617000000000001,-87.14621607168625
-0.4627,-89.07022343950271
-0.4637000000000001,-90.99423080731917
-0.4647,-92.94653240113291
-0.4657000000000001,-94.95542244694126
-0.4667,-97.04919517074151
-0.4677000000000001,-99.18540923353773
-0.4687,-101.3640646353299
-0.4697000000000001,-103.59930848911664
-0.4707,-105.73552255191284
-0.4717000000000001,-107.87173661470905
-0.4727,-109.9655093385093
-0.4737000000000001,-112.10172340130552
-0.4747,-114.3228201420936
-0.4757000000000001,-116.58635822187767
-0.4767,-118.86404341466037
-0.4777000000000001,-121.12758149444444
-0.4787,-123.39111957422851
-0.4797000000000001,-125.56977497602065
-0.4807,-127.80501882980741
-0.48170000000000013,-129.98367423159957
-0.4827,-132.24721231138363
-0.48370000000000013,-134.6097801821582
-0.4847,-136.95820093993422
-0.48570000000000013,-139.36321014970477
-0.4867,-140.325213833613
-0.48570000000000013,-139.4056514887007
-0.4847,-138.61341316077628
-0.48370000000000013,-137.83532194585052
-0.4827,-137.12796629591801
-0.48170000000000013,-136.43475775898415
-0.4807,-135.74154922205025
-0.4797000000000001,-135.09078202411234
-0.4787,-134.29854369618792
-0.4777000000000001,-133.46386402926754
-0.4767,-132.55844879735392
-0.4757000000000001,-131.63888645244168
-0.4747,-130.7193241075294
-0.4737000000000001,-129.79976176261712
-0.4727,-128.9792292086954
-0.4717000000000001,-128.144549541775
-0.4707,-127.32401698785328
-0.4697000000000001,-126.40445464294103
-0.4687,-125.40000962003687
-0.4677000000000001,-124.31068191914078
-0.4667,-123.2213542182447
-0.4657000000000001,-122.1320265173486
-0.4647,-121.12758149444444
