Mar. 10, 2025   01:35:28
Linear Sweep Voltammetry
File: c:/users/guazh/data/banditlqround7_x0exp891_r5/2025-03-03-exp861\1acid_2ac-2025-03-10t01_32_14-lsvinphos\1acid_2ac_lsv_50mvs_efin_-2300mv.bin
Data Source:  Experiment
Instrument Model:  CHI760E
Header: LSV ran at 50 mVs with Efin at -2300mV
Note: 

Init E (V) = -0.6
Final E (V) = -2.3
Scan Rate (V/s) = 0.05
Sample Interval (V) = 0.001
Quiet Time (sec) = 2
Sensitivity (A/V) = 1e-4
Comp R (ohm) = 9.8

Results:

Channel 1:
Ep = -1.892V
ip = 8.039e-4A
Ah = 9.979e-4C

Potential/V, Current/A

-0.600, 4.718e-6
-0.601, 4.890e-6
-0.602, 4.958e-6
-0.603, 5.010e-6
-0.604, 5.054e-6
-0.605, 5.092e-6
-0.606, 5.134e-6
-0.607, 5.175e-6
-0.608, 5.218e-6
-0.609, 5.254e-6
-0.610, 5.288e-6
-0.611, 5.325e-6
-0.612, 5.366e-6
-0.613, 5.401e-6
-0.614, 5.436e-6
-0.615, 5.471e-6
-0.616, 5.504e-6
-0.617, 5.540e-6
-0.618, 5.575e-6
-0.619, 5.608e-6
-0.620, 5.638e-6
-0.621, 5.669e-6
-0.622, 5.702e-6
-0.623, 5.736e-6
-0.624, 5.764e-6
-0.625, 5.797e-6
-0.626, 5.825e-6
-0.627, 5.857e-6
-0.628, 5.889e-6
-0.629, 5.914e-6
-0.630, 5.941e-6
-0.631, 5.967e-6
-0.632, 5.996e-6
-0.633, 6.027e-6
-0.634, 6.052e-6
-0.635, 6.078e-6
-0.636, 6.104e-6
-0.637, 6.130e-6
-0.638, 6.159e-6
-0.639, 6.180e-6
-0.640, 6.203e-6
-0.641, 6.225e-6
-0.642, 6.250e-6
-0.643, 6.278e-6
-0.644, 6.300e-6
-0.645, 6.320e-6
-0.646, 6.342e-6
-0.647, 6.366e-6
-0.648, 6.391e-6
-0.649, 6.412e-6
-0.650, 6.429e-6
-0.651, 6.448e-6
-0.652, 6.470e-6
-0.653, 6.492e-6
-0.654, 6.510e-6
-0.655, 6.525e-6
-0.656, 6.543e-6
-0.657, 6.565e-6
-0.658, 6.583e-6
-0.659, 6.599e-6
-0.660, 6.613e-6
-0.661, 6.628e-6
-0.662, 6.648e-6
-0.663, 6.664e-6
-0.664, 6.678e-6
-0.665, 6.691e-6
-0.666, 6.706e-6
-0.667, 6.721e-6
-0.668, 6.736e-6
-0.669, 6.746e-6
-0.670, 6.757e-6
-0.671, 6.768e-6
-0.672, 6.783e-6
-0.673, 6.797e-6
-0.674, 6.805e-6
-0.675, 6.814e-6
-0.676, 6.823e-6
-0.677, 6.833e-6
-0.678, 6.847e-6
-0.679, 6.854e-6
-0.680, 6.860e-6
-0.681, 6.868e-6
-0.682, 6.875e-6
-0.683, 6.886e-6
-0.684, 6.891e-6
-0.685, 6.895e-6
-0.686, 6.901e-6
-0.687, 6.907e-6
-0.688, 6.917e-6
-0.689, 6.919e-6
-0.690, 6.920e-6
-0.691, 6.924e-6
-0.692, 6.932e-6
-0.693, 6.937e-6
-0.694, 6.938e-6
-0.695, 6.938e-6
-0.696, 6.941e-6
-0.697, 6.946e-6
-0.698, 6.949e-6
-0.699, 6.948e-6
-0.700, 6.947e-6
-0.701, 6.947e-6
-0.702, 6.951e-6
-0.703, 6.953e-6
-0.704, 6.951e-6
-0.705, 6.949e-6
-0.706, 6.947e-6
-0.707, 6.950e-6
-0.708, 6.951e-6
-0.709, 6.946e-6
-0.710, 6.943e-6
-0.711, 6.940e-6
-0.712, 6.941e-6
-0.713, 6.939e-6
-0.714, 6.933e-6
-0.715, 6.931e-6
-0.716, 6.928e-6
-0.717, 6.926e-6
-0.718, 6.924e-6
-0.719, 6.917e-6
-0.720, 6.912e-6
-0.721, 6.908e-6
-0.722, 6.904e-6
-0.723, 6.902e-6
-0.724, 6.895e-6
-0.725, 6.888e-6
-0.726, 6.882e-6
-0.727, 6.879e-6
-0.728, 6.876e-6
-0.729, 6.868e-6
-0.730, 6.859e-6
-0.731, 6.853e-6
-0.732, 6.849e-6
-0.733, 6.845e-6
-0.734, 6.837e-6
-0.735, 6.827e-6
-0.736, 6.820e-6
-0.737, 6.815e-6
-0.738, 6.809e-6
-0.739, 6.800e-6
-0.740, 6.791e-6
-0.741, 6.783e-6
-0.742, 6.777e-6
-0.743, 6.771e-6
-0.744, 6.760e-6
-0.745, 6.751e-6
-0.746, 6.741e-6
-0.747, 6.736e-6
-0.748, 6.731e-6
-0.749, 6.719e-6
-0.750, 6.710e-6
-0.751, 6.700e-6
-0.752, 6.695e-6
-0.753, 6.689e-6
-0.754, 6.676e-6
-0.755, 6.667e-6
-0.756, 6.659e-6
-0.757, 6.651e-6
-0.758, 6.644e-6
-0.759, 6.633e-6
-0.760, 6.622e-6
-0.761, 6.614e-6
-0.762, 6.606e-6
-0.763, 6.598e-6
-0.764, 6.588e-6
-0.765, 6.576e-6
-0.766, 6.568e-6
-0.767, 6.560e-6
-0.768, 6.555e-6
-0.769, 6.545e-6
-0.770, 6.532e-6
-0.771, 6.523e-6
-0.772, 6.516e-6
-0.773, 6.507e-6
-0.774, 6.497e-6
-0.775, 6.486e-6
-0.776, 6.475e-6
-0.777, 6.468e-6
-0.778, 6.460e-6
-0.779, 6.450e-6
-0.780, 6.439e-6
-0.781, 6.429e-6
-0.782, 6.424e-6
-0.783, 6.414e-6
-0.784, 6.403e-6
-0.785, 6.395e-6
-0.786, 6.383e-6
-0.787, 6.377e-6
-0.788, 6.369e-6
-0.789, 6.357e-6
-0.790, 6.348e-6
-0.791, 6.337e-6
-0.792, 6.332e-6
-0.793, 6.325e-6
-0.794, 6.314e-6
-0.795, 6.304e-6
-0.796, 6.293e-6
-0.797, 6.287e-6
-0.798, 6.280e-6
-0.799, 6.269e-6
-0.800, 6.260e-6
-0.801, 6.250e-6
-0.802, 6.243e-6
-0.803, 6.237e-6
-0.804, 6.228e-6
-0.805, 6.216e-6
-0.806, 6.209e-6
-0.807, 6.203e-6
-0.808, 6.198e-6
-0.809, 6.189e-6
-0.810, 6.179e-6
-0.811, 6.170e-6
-0.812, 6.166e-6
-0.813, 6.159e-6
-0.814, 6.150e-6
-0.815, 6.139e-6
-0.816, 6.131e-6
-0.817, 6.127e-6
-0.818, 6.120e-6
-0.819, 6.115e-6
-0.820, 6.105e-6
-0.821, 6.094e-6
-0.822, 6.088e-6
-0.823, 6.082e-6
-0.824, 6.073e-6
-0.825, 6.064e-6
-0.826, 6.055e-6
-0.827, 6.051e-6
-0.828, 6.045e-6
-0.829, 6.035e-6
-0.830, 6.027e-6
-0.831, 6.018e-6
-0.832, 6.014e-6
-0.833, 6.009e-6
-0.834, 5.998e-6
-0.835, 5.990e-6
-0.836, 5.983e-6
-0.837, 5.977e-6
-0.838, 5.974e-6
-0.839, 5.964e-6
-0.840, 5.955e-6
-0.841, 5.950e-6
-0.842, 5.944e-6
-0.843, 5.940e-6
-0.844, 5.932e-6
-0.845, 5.925e-6
-0.846, 5.918e-6
-0.847, 5.915e-6
-0.848, 5.910e-6
-0.849, 5.902e-6
-0.850, 5.894e-6
-0.851, 5.889e-6
-0.852, 5.886e-6
-0.853, 5.882e-6
-0.854, 5.873e-6
-0.855, 5.867e-6
-0.856, 5.859e-6
-0.857, 5.856e-6
-0.858, 5.852e-6
-0.859, 5.845e-6
-0.860, 5.837e-6
-0.861, 5.831e-6
-0.862, 5.828e-6
-0.863, 5.823e-6
-0.864, 5.815e-6
-0.865, 5.809e-6
-0.866, 5.802e-6
-0.867, 5.800e-6
-0.868, 5.797e-6
-0.869, 5.787e-6
-0.870, 5.783e-6
-0.871, 5.777e-6
-0.872, 5.773e-6
-0.873, 5.770e-6
-0.874, 5.761e-6
-0.875, 5.755e-6
-0.876, 5.749e-6
-0.877, 5.746e-6
-0.878, 5.744e-6
-0.879, 5.735e-6
-0.880, 5.729e-6
-0.881, 5.724e-6
-0.882, 5.720e-6
-0.883, 5.719e-6
-0.884, 5.712e-6
-0.885, 5.705e-6
-0.886, 5.700e-6
-0.887, 5.696e-6
-0.888, 5.695e-6
-0.889, 5.690e-6
-0.890, 5.682e-6
-0.891, 5.677e-6
-0.892, 5.676e-6
-0.893, 5.672e-6
-0.894, 5.667e-6
-0.895, 5.660e-6
-0.896, 5.658e-6
-0.897, 5.656e-6
-0.898, 5.652e-6
-0.899, 5.646e-6
-0.900, 5.640e-6
-0.901, 5.636e-6
-0.902, 5.636e-6
-0.903, 5.632e-6
-0.904, 5.626e-6
-0.905, 5.622e-6
-0.906, 5.615e-6
-0.907, 5.614e-6
-0.908, 5.612e-6
-0.909, 5.606e-6
-0.910, 5.603e-6
-0.911, 5.596e-6
-0.912, 5.595e-6
-0.913, 5.594e-6
-0.914, 5.586e-6
-0.915, 5.582e-6
-0.916, 5.578e-6
-0.917, 5.577e-6
-0.918, 5.576e-6
-0.919, 5.568e-6
-0.920, 5.564e-6
-0.921, 5.560e-6
-0.922, 5.559e-6
-0.923, 5.557e-6
-0.924, 5.550e-6
-0.925, 5.544e-6
-0.926, 5.543e-6
-0.927, 5.540e-6
-0.928, 5.539e-6
-0.929, 5.535e-6
-0.930, 5.528e-6
-0.931, 5.526e-6
-0.932, 5.524e-6
-0.933, 5.520e-6
-0.934, 5.517e-6
-0.935, 5.512e-6
-0.936, 5.507e-6
-0.937, 5.508e-6
-0.938, 5.505e-6
-0.939, 5.501e-6
-0.940, 5.495e-6
-0.941, 5.493e-6
-0.942, 5.491e-6
-0.943, 5.490e-6
-0.944, 5.483e-6
-0.945, 5.480e-6
-0.946, 5.475e-6
-0.947, 5.475e-6
-0.948, 5.475e-6
-0.949, 5.469e-6
-0.950, 5.465e-6
-0.951, 5.460e-6
-0.952, 5.460e-6
-0.953, 5.460e-6
-0.954, 5.453e-6
-0.955, 5.449e-6
-0.956, 5.446e-6
-0.957, 5.445e-6
-0.958, 5.444e-6
-0.959, 5.439e-6
-0.960, 5.434e-6
-0.961, 5.432e-6
-0.962, 5.430e-6
-0.963, 5.429e-6
-0.964, 5.425e-6
-0.965, 5.420e-6
-0.966, 5.417e-6
-0.967, 5.417e-6
-0.968, 5.415e-6
-0.969, 5.411e-6
-0.970, 5.406e-6
-0.971, 5.404e-6
-0.972, 5.403e-6
-0.973, 5.404e-6
-0.974, 5.399e-6
-0.975, 5.393e-6
-0.976, 5.390e-6
-0.977, 5.390e-6
-0.978, 5.389e-6
-0.979, 5.385e-6
-0.980, 5.381e-6
-0.981, 5.376e-6
-0.982, 5.378e-6
-0.983, 5.375e-6
-0.984, 5.371e-6
-0.985, 5.369e-6
-0.986, 5.365e-6
-0.987, 5.366e-6
-0.988, 5.364e-6
-0.989, 5.358e-6
-0.990, 5.355e-6
-0.991, 5.353e-6
-0.992, 5.352e-6
-0.993, 5.352e-6
-0.994, 5.347e-6
-0.995, 5.344e-6
-0.996, 5.341e-6
-0.997, 5.341e-6
-0.998, 5.340e-6
-0.999, 5.335e-6
-1.000, 5.332e-6
-1.001, 5.330e-6
-1.002, 5.330e-6
-1.003, 5.329e-6
-1.004, 5.326e-6
-1.005, 5.321e-6
-1.006, 5.320e-6
-1.007, 5.320e-6
-1.008, 5.319e-6
-1.009, 5.317e-6
-1.010, 5.312e-6
-1.011, 5.312e-6
-1.012, 5.312e-6
-1.013, 5.312e-6
-1.014, 5.309e-6
-1.015, 5.306e-6
-1.016, 5.303e-6
-1.017, 5.305e-6
-1.018, 5.305e-6
-1.019, 5.301e-6
-1.020, 5.299e-6
-1.021, 5.296e-6
-1.022, 5.296e-6
-1.023, 5.297e-6
-1.024, 5.296e-6
-1.025, 5.294e-6
-1.026, 5.289e-6
-1.027, 5.292e-6
-1.028, 5.292e-6
-1.029, 5.289e-6
-1.030, 5.287e-6
-1.031, 5.284e-6
-1.032, 5.285e-6
-1.033, 5.286e-6
-1.034, 5.282e-6
-1.035, 5.281e-6
-1.036, 5.277e-6
-1.037, 5.279e-6
-1.038, 5.281e-6
-1.039, 5.277e-6
-1.040, 5.274e-6
-1.041, 5.274e-6
-1.042, 5.273e-6
-1.043, 5.275e-6
-1.044, 5.273e-6
-1.045, 5.269e-6
-1.046, 5.269e-6
-1.047, 5.269e-6
-1.048, 5.270e-6
-1.049, 5.269e-6
-1.050, 5.266e-6
-1.051, 5.263e-6
-1.052, 5.266e-6
-1.053, 5.265e-6
-1.054, 5.265e-6
-1.055, 5.261e-6
-1.056, 5.260e-6
-1.057, 5.262e-6
-1.058, 5.262e-6
-1.059, 5.260e-6
-1.060, 5.257e-6
-1.061, 5.254e-6
-1.062, 5.257e-6
-1.063, 5.258e-6
-1.064, 5.254e-6
-1.065, 5.253e-6
-1.066, 5.252e-6
-1.067, 5.253e-6
-1.068, 5.254e-6
-1.069, 5.251e-6
-1.070, 5.249e-6
-1.071, 5.249e-6
-1.072, 5.250e-6
-1.073, 5.252e-6
-1.074, 5.250e-6
-1.075, 5.250e-6
-1.076, 5.250e-6
-1.077, 5.248e-6
-1.078, 5.250e-6
-1.079, 5.250e-6
-1.080, 5.249e-6
-1.081, 5.248e-6
-1.082, 5.249e-6
-1.083, 5.252e-6
-1.084, 5.251e-6
-1.085, 5.249e-6
-1.086, 5.250e-6
-1.087, 5.252e-6
-1.088, 5.254e-6
-1.089, 5.254e-6
-1.090, 5.253e-6
-1.091, 5.254e-6
-1.092, 5.258e-6
-1.093, 5.259e-6
-1.094, 5.260e-6
-1.095, 5.259e-6
-1.096, 5.260e-6
-1.097, 5.265e-6
-1.098, 5.265e-6
-1.099, 5.266e-6
-1.100, 5.267e-6
-1.101, 5.267e-6
-1.102, 5.271e-6
-1.103, 5.274e-6
-1.104, 5.274e-6
-1.105, 5.275e-6
-1.106, 5.275e-6
-1.107, 5.281e-6
-1.108, 5.285e-6
-1.109, 5.283e-6
-1.110, 5.284e-6
-1.111, 5.285e-6
-1.112, 5.290e-6
-1.113, 5.295e-6
-1.114, 5.294e-6
-1.115, 5.295e-6
-1.116, 5.297e-6
-1.117, 5.301e-6
-1.118, 5.305e-6
-1.119, 5.306e-6
-1.120, 5.308e-6
-1.121, 5.310e-6
-1.122, 5.313e-6
-1.123, 5.318e-6
-1.124, 5.319e-6
-1.125, 5.321e-6
-1.126, 5.324e-6
-1.127, 5.328e-6
-1.128, 5.332e-6
-1.129, 5.335e-6
-1.130, 5.334e-6
-1.131, 5.338e-6
-1.132, 5.342e-6
-1.133, 5.346e-6
-1.134, 5.349e-6
-1.135, 5.350e-6
-1.136, 5.352e-6
-1.137, 5.358e-6
-1.138, 5.362e-6
-1.139, 5.365e-6
-1.140, 5.367e-6
-1.141, 5.368e-6
-1.142, 5.375e-6
-1.143, 5.379e-6
-1.144, 5.382e-6
-1.145, 5.384e-6
-1.146, 5.386e-6
-1.147, 5.392e-6
-1.148, 5.397e-6
-1.149, 5.398e-6
-1.150, 5.401e-6
-1.151, 5.403e-6
-1.152, 5.410e-6
-1.153, 5.417e-6
-1.154, 5.418e-6
-1.155, 5.420e-6
-1.156, 5.423e-6
-1.157, 5.429e-6
-1.158, 5.435e-6
-1.159, 5.437e-6
-1.160, 5.439e-6
-1.161, 5.444e-6
-1.162, 5.450e-6
-1.163, 5.455e-6
-1.164, 5.459e-6
-1.165, 5.462e-6
-1.166, 5.467e-6
-1.167, 5.472e-6
-1.168, 5.479e-6
-1.169, 5.482e-6
-1.170, 5.484e-6
-1.171, 5.488e-6
-1.172, 5.493e-6
-1.173, 5.500e-6
-1.174, 5.504e-6
-1.175, 5.510e-6
-1.176, 5.511e-6
-1.177, 5.520e-6
-1.178, 5.528e-6
-1.179, 5.530e-6
-1.180, 5.534e-6
-1.181, 5.537e-6
-1.182, 5.544e-6
-1.183, 5.552e-6
-1.184, 5.556e-6
-1.185, 5.558e-6
-1.186, 5.563e-6
-1.187, 5.571e-6
-1.188, 5.578e-6
-1.189, 5.580e-6
-1.190, 5.585e-6
-1.191, 5.590e-6
-1.192, 5.598e-6
-1.193, 5.606e-6
-1.194, 5.608e-6
-1.195, 5.614e-6
-1.196, 5.617e-6
-1.197, 5.625e-6
-1.198, 5.633e-6
-1.199, 5.636e-6
-1.200, 5.640e-6
-1.201, 5.647e-6
-1.202, 5.653e-6
-1.203, 5.663e-6
-1.204, 5.666e-6
-1.205, 5.669e-6
-1.206, 5.675e-6
-1.207, 5.682e-6
-1.208, 5.692e-6
-1.209, 5.696e-6
-1.210, 5.701e-6
-1.211, 5.705e-6
-1.212, 5.714e-6
-1.213, 5.722e-6
-1.214, 5.727e-6
-1.215, 5.731e-6
-1.216, 5.736e-6
-1.217, 5.747e-6
-1.218, 5.754e-6
-1.219, 5.761e-6
-1.220, 5.766e-6
-1.221, 5.772e-6
-1.222, 5.780e-6
-1.223, 5.789e-6
-1.224, 5.794e-6
-1.225, 5.799e-6
-1.226, 5.806e-6
-1.227, 5.815e-6
-1.228, 5.824e-6
-1.229, 5.836e-6
-1.230, 5.839e-6
-1.231, 5.843e-6
-1.232, 5.852e-6
-1.233, 5.862e-6
-1.234, 5.866e-6
-1.235, 5.872e-6
-1.236, 5.878e-6
-1.237, 5.887e-6
-1.238, 5.896e-6
-1.239, 5.900e-6
-1.240, 5.906e-6
-1.241, 5.913e-6
-1.242, 5.922e-6
-1.243, 5.932e-6
-1.244, 5.937e-6
-1.245, 5.942e-6
-1.246, 5.950e-6
-1.247, 5.958e-6
-1.248, 5.968e-6
-1.249, 5.974e-6
-1.250, 5.981e-6
-1.251, 5.988e-6
-1.252, 5.997e-6
-1.253, 6.008e-6
-1.254, 6.015e-6
-1.255, 6.021e-6
-1.256, 6.027e-6
-1.257, 6.038e-6
-1.258, 6.048e-6
-1.259, 6.055e-6
-1.260, 6.063e-6
-1.261, 6.070e-6
-1.262, 6.080e-6
-1.263, 6.090e-6
-1.264, 6.100e-6
-1.265, 6.106e-6
-1.266, 6.113e-6
-1.267, 6.125e-6
-1.268, 6.136e-6
-1.269, 6.142e-6
-1.270, 6.150e-6
-1.271, 6.157e-6
-1.272, 6.168e-6
-1.273, 6.180e-6
-1.274, 6.186e-6
-1.275, 6.194e-6
-1.276, 6.202e-6
-1.277, 6.211e-6
-1.278, 6.222e-6
-1.279, 6.229e-6
-1.280, 6.241e-6
-1.281, 6.249e-6
-1.282, 6.259e-6
-1.283, 6.271e-6
-1.284, 6.278e-6
-1.285, 6.284e-6
-1.286, 6.295e-6
-1.287, 6.307e-6
-1.288, 6.320e-6
-1.289, 6.330e-6
-1.290, 6.337e-6
-1.291, 6.346e-6
-1.292, 6.359e-6
-1.293, 6.371e-6
-1.294, 6.381e-6
-1.295, 6.389e-6
-1.296, 6.399e-6
-1.297, 6.412e-6
-1.298, 6.425e-6
-1.299, 6.436e-6
-1.300, 6.443e-6
-1.301, 6.452e-6
-1.302, 6.467e-6
-1.303, 6.479e-6
-1.304, 6.489e-6
-1.305, 6.500e-6
-1.306, 6.510e-6
-1.307, 6.522e-6
-1.308, 6.537e-6
-1.309, 6.546e-6
-1.310, 6.557e-6
-1.311, 6.568e-6
-1.312, 6.582e-6
-1.313, 6.596e-6
-1.314, 6.607e-6
-1.315, 6.615e-6
-1.316, 6.627e-6
-1.317, 6.642e-6
-1.318, 6.659e-6
-1.319, 6.668e-6
-1.320, 6.678e-6
-1.321, 6.691e-6
-1.322, 6.702e-6
-1.323, 6.719e-6
-1.324, 6.730e-6
-1.325, 6.740e-6
-1.326, 6.754e-6
-1.327, 6.768e-6
-1.328, 6.784e-6
-1.329, 6.796e-6
-1.330, 6.808e-6
-1.331, 6.821e-6
-1.332, 6.837e-6
-1.333, 6.851e-6
-1.334, 6.865e-6
-1.335, 6.874e-6
-1.336, 6.889e-6
-1.337, 6.905e-6
-1.338, 6.921e-6
-1.339, 6.933e-6
-1.340, 6.944e-6
-1.341, 6.957e-6
-1.342, 6.975e-6
-1.343, 6.992e-6
-1.344, 7.005e-6
-1.345, 7.020e-6
-1.346, 7.031e-6
-1.347, 7.049e-6
-1.348, 7.066e-6
-1.349, 7.081e-6
-1.350, 7.095e-6
-1.351, 7.109e-6
-1.352, 7.128e-6
-1.353, 7.146e-6
-1.354, 7.159e-6
-1.355, 7.173e-6
-1.356, 7.188e-6
-1.357, 7.207e-6
-1.358, 7.224e-6
-1.359, 7.240e-6
-1.360, 7.254e-6
-1.361, 7.269e-6
-1.362, 7.287e-6
-1.363, 7.308e-6
-1.364, 7.323e-6
-1.365, 7.337e-6
-1.366, 7.354e-6
-1.367, 7.372e-6
-1.368, 7.392e-6
-1.369, 7.410e-6
-1.370, 7.424e-6
-1.371, 7.440e-6
-1.372, 7.462e-6
-1.373, 7.482e-6
-1.374, 7.502e-6
-1.375, 7.517e-6
-1.376, 7.535e-6
-1.377, 7.557e-6
-1.378, 7.576e-6
-1.379, 7.595e-6
-1.380, 7.612e-6
-1.381, 7.630e-6
-1.382, 7.653e-6
-1.383, 7.675e-6
-1.384, 7.695e-6
-1.385, 7.713e-6
-1.386, 7.732e-6
-1.387, 7.756e-6
-1.388, 7.778e-6
-1.389, 7.797e-6
-1.390, 7.816e-6
-1.391, 7.836e-6
-1.392, 7.860e-6
-1.393, 7.885e-6
-1.394, 7.905e-6
-1.395, 7.927e-6
-1.396, 7.950e-6
-1.397, 7.974e-6
-1.398, 7.999e-6
-1.399, 8.019e-6
-1.400, 8.040e-6
-1.401, 8.063e-6
-1.402, 8.085e-6
-1.403, 8.111e-6
-1.404, 8.134e-6
-1.405, 8.153e-6
-1.406, 8.180e-6
-1.407, 8.206e-6
-1.408, 8.237e-6
-1.409, 8.261e-6
-1.410, 8.283e-6
-1.411, 8.310e-6
-1.412, 8.337e-6
-1.413, 8.364e-6
-1.414, 8.389e-6
-1.415, 8.412e-6
-1.416, 8.439e-6
-1.417, 8.467e-6
-1.418, 8.495e-6
-1.419, 8.522e-6
-1.420, 8.548e-6
-1.421, 8.574e-6
-1.422, 8.602e-6
-1.423, 8.634e-6
-1.424, 8.660e-6
-1.425, 8.686e-6
-1.426, 8.714e-6
-1.427, 8.745e-6
-1.428, 8.778e-6
-1.429, 8.806e-6
-1.430, 8.834e-6
-1.431, 8.860e-6
-1.432, 8.893e-6
-1.433, 8.928e-6
-1.434, 8.960e-6
-1.435, 8.989e-6
-1.436, 9.018e-6
-1.437, 9.053e-6
-1.438, 9.090e-6
-1.439, 9.119e-6
-1.440, 9.149e-6
-1.441, 9.183e-6
-1.442, 9.220e-6
-1.443, 9.255e-6
-1.444, 9.288e-6
-1.445, 9.321e-6
-1.446, 9.356e-6
-1.447, 9.388e-6
-1.448, 9.428e-6
-1.449, 9.466e-6
-1.450, 9.502e-6
-1.451, 9.534e-6
-1.452, 9.572e-6
-1.453, 9.614e-6
-1.454, 9.650e-6
-1.455, 9.683e-6
-1.456, 9.721e-6
-1.457, 9.763e-6
-1.458, 9.806e-6
-1.459, 9.846e-6
-1.460, 9.883e-6
-1.461, 9.921e-6
-1.462, 9.967e-6
-1.463, 1.001e-5
-1.464, 1.005e-5
-1.465, 1.009e-5
-1.466, 1.013e-5
-1.467, 1.017e-5
-1.468, 1.022e-5
-1.469, 1.026e-5
-1.470, 1.031e-5
-1.471, 1.035e-5
-1.472, 1.039e-5
-1.473, 1.045e-5
-1.474, 1.049e-5
-1.475, 1.054e-5
-1.476, 1.058e-5
-1.477, 1.063e-5
-1.478, 1.069e-5
-1.479, 1.074e-5
-1.480, 1.078e-5
-1.481, 1.083e-5
-1.482, 1.089e-5
-1.483, 1.094e-5
-1.484, 1.099e-5
-1.485, 1.105e-5
-1.486, 1.110e-5
-1.487, 1.115e-5
-1.488, 1.121e-5
-1.489, 1.127e-5
-1.490, 1.132e-5
-1.491, 1.138e-5
-1.492, 1.144e-5
-1.493, 1.150e-5
-1.494, 1.156e-5
-1.495, 1.161e-5
-1.496, 1.167e-5
-1.497, 1.173e-5
-1.498, 1.180e-5
-1.499, 1.186e-5
-1.500, 1.192e-5
-1.501, 1.199e-5
-1.502, 1.205e-5
-1.503, 1.210e-5
-1.504, 1.217e-5
-1.505, 1.224e-5
-1.506, 1.230e-5
-1.507, 1.237e-5
-1.508, 1.245e-5
-1.509, 1.252e-5
-1.510, 1.259e-5
-1.511, 1.266e-5
-1.512, 1.274e-5
-1.513, 1.282e-5
-1.514, 1.289e-5
-1.515, 1.297e-5
-1.516, 1.305e-5
-1.517, 1.313e-5
-1.518, 1.321e-5
-1.519, 1.329e-5
-1.520, 1.338e-5
-1.521, 1.346e-5
-1.522, 1.355e-5
-1.523, 1.364e-5
-1.524, 1.373e-5
-1.525, 1.381e-5
-1.526, 1.390e-5
-1.527, 1.400e-5
-1.528, 1.409e-5
-1.529, 1.419e-5
-1.530, 1.428e-5
-1.531, 1.438e-5
-1.532, 1.448e-5
-1.533, 1.458e-5
-1.534, 1.468e-5
-1.535, 1.478e-5
-1.536, 1.488e-5
-1.537, 1.499e-5
-1.538, 1.511e-5
-1.539, 1.522e-5
-1.540, 1.533e-5
-1.541, 1.544e-5
-1.542, 1.555e-5
-1.543, 1.567e-5
-1.544, 1.579e-5
-1.545, 1.591e-5
-1.546, 1.603e-5
-1.547, 1.616e-5
-1.548, 1.629e-5
-1.549, 1.642e-5
-1.550, 1.655e-5
-1.551, 1.667e-5
-1.552, 1.681e-5
-1.553, 1.695e-5
-1.554, 1.708e-5
-1.555, 1.722e-5
-1.556, 1.736e-5
-1.557, 1.750e-5
-1.558, 1.766e-5
-1.559, 1.781e-5
-1.560, 1.795e-5
-1.561, 1.810e-5
-1.562, 1.825e-5
-1.563, 1.841e-5
-1.564, 1.857e-5
-1.565, 1.873e-5
-1.566, 1.890e-5
-1.567, 1.906e-5
-1.568, 1.924e-5
-1.569, 1.941e-5
-1.570, 1.958e-5
-1.571, 1.976e-5
-1.572, 1.994e-5
-1.573, 2.012e-5
-1.574, 2.030e-5
-1.575, 2.049e-5
-1.576, 2.068e-5
-1.577, 2.087e-5
-1.578, 2.107e-5
-1.579, 2.127e-5
-1.580, 2.147e-5
-1.581, 2.167e-5
-1.582, 2.188e-5
-1.583, 2.209e-5
-1.584, 2.231e-5
-1.585, 2.252e-5
-1.586, 2.274e-5
-1.587, 2.297e-5
-1.588, 2.320e-5
-1.589, 2.343e-5
-1.590, 2.366e-5
-1.591, 2.389e-5
-1.592, 2.414e-5
-1.593, 2.439e-5
-1.594, 2.463e-5
-1.595, 2.488e-5
-1.596, 2.513e-5
-1.597, 2.539e-5
-1.598, 2.566e-5
-1.599, 2.592e-5
-1.600, 2.619e-5
-1.601, 2.646e-5
-1.602, 2.674e-5
-1.603, 2.702e-5
-1.604, 2.730e-5
-1.605, 2.759e-5
-1.606, 2.787e-5
-1.607, 2.817e-5
-1.608, 2.848e-5
-1.609, 2.878e-5
-1.610, 2.909e-5
-1.611, 2.940e-5
-1.612, 2.972e-5
-1.613, 3.005e-5
-1.614, 3.038e-5
-1.615, 3.071e-5
-1.616, 3.105e-5
-1.617, 3.139e-5
-1.618, 3.174e-5
-1.619, 3.211e-5
-1.620, 3.246e-5
-1.621, 3.282e-5
-1.622, 3.319e-5
-1.623, 3.357e-5
-1.624, 3.394e-5
-1.625, 3.433e-5
-1.626, 3.472e-5
-1.627, 3.512e-5
-1.628, 3.552e-5
-1.629, 3.592e-5
-1.630, 3.633e-5
-1.631, 3.675e-5
-1.632, 3.717e-5
-1.633, 3.761e-5
-1.634, 3.805e-5
-1.635, 3.849e-5
-1.636, 3.893e-5
-1.637, 3.939e-5
-1.638, 3.987e-5
-1.639, 4.036e-5
-1.640, 4.083e-5
-1.641, 4.132e-5
-1.642, 4.180e-5
-1.643, 4.231e-5
-1.644, 4.282e-5
-1.645, 4.333e-5
-1.646, 4.384e-5
-1.647, 4.436e-5
-1.648, 4.491e-5
-1.649, 4.546e-5
-1.650, 4.601e-5
-1.651, 4.657e-5
-1.652, 4.715e-5
-1.653, 4.773e-5
-1.654, 4.833e-5
-1.655, 4.893e-5
-1.656, 4.953e-5
-1.657, 5.015e-5
-1.658, 5.078e-5
-1.659, 5.142e-5
-1.660, 5.205e-5
-1.661, 5.270e-5
-1.662, 5.337e-5
-1.663, 5.405e-5
-1.664, 5.474e-5
-1.665, 5.544e-5
-1.666, 5.615e-5
-1.667, 5.687e-5
-1.668, 5.760e-5
-1.669, 5.834e-5
-1.670, 5.909e-5
-1.671, 5.984e-5
-1.672, 6.062e-5
-1.673, 6.142e-5
-1.674, 6.222e-5
-1.675, 6.304e-5
-1.676, 6.387e-5
-1.677, 6.471e-5
-1.678, 6.557e-5
-1.679, 6.643e-5
-1.680, 6.731e-5
-1.681, 6.820e-5
-1.682, 6.910e-5
-1.683, 7.003e-5
-1.684, 7.097e-5
-1.685, 7.192e-5
-1.686, 7.289e-5
-1.687, 7.388e-5
-1.688, 7.488e-5
-1.689, 7.588e-5
-1.690, 7.692e-5
-1.691, 7.796e-5
-1.692, 7.903e-5
-1.693, 8.011e-5
-1.694, 8.122e-5
-1.695, 8.234e-5
-1.696, 8.347e-5
-1.697, 8.463e-5
-1.698, 8.580e-5
-1.699, 8.700e-5
-1.700, 8.821e-5
-1.701, 8.943e-5
-1.702, 9.068e-5
-1.703, 9.194e-5
-1.704, 9.324e-5
-1.705, 9.454e-5
-1.706, 9.587e-5
-1.707, 9.722e-5
-1.708, 9.859e-5
-1.709, 9.997e-5
-1.710, 1.014e-4
-1.711, 1.028e-4
-1.712, 1.043e-4
-1.713, 1.058e-4
-1.714, 1.073e-4
-1.715, 1.088e-4
-1.716, 1.103e-4
-1.717, 1.119e-4
-1.718, 1.135e-4
-1.719, 1.151e-4
-1.720, 1.167e-4
-1.721, 1.184e-4
-1.722, 1.201e-4
-1.723, 1.218e-4
-1.724, 1.235e-4
-1.725, 1.253e-4
-1.726, 1.270e-4
-1.727, 1.288e-4
-1.728, 1.307e-4
-1.729, 1.325e-4
-1.730, 1.344e-4
-1.731, 1.363e-4
-1.732, 1.382e-4
-1.733, 1.401e-4
-1.734, 1.420e-4
-1.735, 1.440e-4
-1.736, 1.460e-4
-1.737, 1.480e-4
-1.738, 1.500e-4
-1.739, 1.520e-4
-1.740, 1.540e-4
-1.741, 1.561e-4
-1.742, 1.581e-4
-1.743, 1.602e-4
-1.744, 1.622e-4
-1.745, 1.642e-4
-1.746, 1.663e-4
-1.747, 1.683e-4
-1.748, 1.703e-4
-1.749, 1.723e-4
-1.750, 1.743e-4
-1.751, 1.764e-4
-1.752, 1.784e-4
-1.753, 1.804e-4
-1.754, 1.825e-4
-1.755, 1.846e-4
-1.756, 1.866e-4
-1.757, 1.888e-4
-1.758, 1.909e-4
-1.759, 1.931e-4
-1.760, 1.953e-4
-1.761, 1.976e-4
-1.762, 1.999e-4
-1.763, 2.022e-4
-1.764, 2.046e-4
-1.765, 2.070e-4
-1.766, 2.095e-4
-1.767, 2.120e-4
-1.768, 2.145e-4
-1.769, 2.171e-4
-1.770, 2.198e-4
-1.771, 2.225e-4
-1.772, 2.252e-4
-1.773, 2.280e-4
-1.774, 2.309e-4
-1.775, 2.338e-4
-1.776, 2.367e-4
-1.777, 2.397e-4
-1.778, 2.428e-4
-1.779, 2.460e-4
-1.780, 2.492e-4
-1.781, 2.524e-4
-1.782, 2.557e-4
-1.783, 2.591e-4
-1.784, 2.626e-4
-1.785, 2.661e-4
-1.786, 2.697e-4
-1.787, 2.733e-4
-1.788, 2.770e-4
-1.789, 2.808e-4
-1.790, 2.846e-4
-1.791, 2.886e-4
-1.792, 2.925e-4
-1.793, 2.966e-4
-1.794, 3.008e-4
-1.795, 3.050e-4
-1.796, 3.092e-4
-1.797, 3.136e-4
-1.798, 3.180e-4
-1.799, 3.225e-4
-1.800, 3.271e-4
-1.801, 3.317e-4
-1.802, 3.364e-4
-1.803, 3.412e-4
-1.804, 3.461e-4
-1.805, 3.511e-4
-1.806, 3.561e-4
-1.807, 3.612e-4
-1.808, 3.663e-4
-1.809, 3.716e-4
-1.810, 3.769e-4
-1.811, 3.823e-4
-1.812, 3.878e-4
-1.813, 3.933e-4
-1.814, 3.989e-4
-1.815, 4.046e-4
-1.816, 4.104e-4
-1.817, 4.162e-4
-1.818, 4.221e-4
-1.819, 4.281e-4
-1.820, 4.342e-4
-1.821, 4.403e-4
-1.822, 4.465e-4
-1.823, 4.528e-4
-1.824, 4.591e-4
-1.825, 4.655e-4
-1.826, 4.720e-4
-1.827, 4.786e-4
-1.828, 4.852e-4
-1.829, 4.919e-4
-1.830, 4.986e-4
-1.831, 5.055e-4
-1.832, 5.124e-4
-1.833, 5.193e-4
-1.834, 5.263e-4
-1.835, 5.334e-4
-1.836, 5.406e-4
-1.837, 5.478e-4
-1.838, 5.551e-4
-1.839, 5.624e-4
-1.840, 5.698e-4
-1.841, 5.772e-4
-1.842, 5.847e-4
-1.843, 5.923e-4
-1.844, 6.000e-4
-1.845, 6.077e-4
-1.846, 6.154e-4
-1.847, 6.232e-4
-1.848, 6.310e-4
-1.849, 6.390e-4
-1.850, 6.469e-4
-1.851, 6.549e-4
-1.852, 6.630e-4
-1.853, 6.711e-4
-1.854, 6.793e-4
-1.855, 6.876e-4
-1.856, 6.958e-4
-1.857, 7.042e-4
-1.858, 7.126e-4
-1.859, 7.210e-4
-1.860, 7.295e-4
-1.861, 7.380e-4
-1.862, 7.466e-4
-1.863, 7.552e-4
-1.864, 7.639e-4
-1.865, 7.726e-4
-1.866, 7.814e-4
-1.867, 7.902e-4
-1.868, 7.990e-4
-1.869, 8.080e-4
-1.870, 8.169e-4
-1.871, 8.259e-4
-1.872, 8.349e-4
-1.873, 8.440e-4
-1.874, 8.532e-4
-1.875, 8.623e-4
-1.876, 8.715e-4
-1.877, 8.808e-4
-1.878, 8.901e-4
-1.879, 8.994e-4
-1.880, 9.088e-4
-1.881, 9.182e-4
-1.882, 9.276e-4
-1.883, 9.372e-4
-1.884, 9.467e-4
-1.885, 9.563e-4
-1.886, 9.660e-4
-1.887, 9.756e-4
-1.888, 9.853e-4
-1.889, 9.951e-4
-1.890, 1.005e-3
-1.891, 1.011e-3
-1.892, 1.011e-3
-1.893, 1.011e-3
-1.894, 1.011e-3
-1.895, 1.011e-3
-1.896, 1.011e-3
-1.897, 1.011e-3
-1.898, 1.011e-3
-1.899, 1.011e-3
-1.900, 1.011e-3
-1.901, 1.011e-3
-1.902, 1.011e-3
-1.903, 1.011e-3
-1.904, 1.011e-3
-1.905, 1.011e-3
-1.906, 1.011e-3
-1.907, 1.011e-3
-1.908, 1.011e-3
-1.909, 1.011e-3
-1.910, 1.011e-3
-1.911, 1.011e-3
-1.912, 1.011e-3
-1.913, 1.011e-3
-1.914, 1.011e-3
-1.915, 1.011e-3
-1.916, 1.011e-3
-1.917, 1.011e-3
-1.918, 1.011e-3
-1.919, 1.011e-3
-1.920, 1.011e-3
-1.921, 1.011e-3
-1.922, 1.011e-3
-1.923, 1.011e-3
-1.924, 1.011e-3
-1.925, 1.011e-3
-1.926, 1.011e-3
-1.927, 1.011e-3
-1.928, 1.011e-3
-1.929, 1.011e-3
-1.930, 1.011e-3
-1.931, 1.011e-3
-1.932, 1.011e-3
-1.933, 1.011e-3
-1.934, 1.011e-3
-1.935, 1.011e-3
-1.936, 1.011e-3
-1.937, 1.011e-3
-1.938, 1.011e-3
-1.939, 1.011e-3
-1.940, 1.011e-3
-1.941, 1.011e-3
-1.942, 1.011e-3
-1.943, 1.011e-3
-1.944, 1.011e-3
-1.945, 1.011e-3
-1.946, 1.011e-3
-1.947, 1.011e-3
-1.948, 1.011e-3
-1.949, 1.011e-3
-1.950, 1.011e-3
-1.951, 1.011e-3
-1.952, 1.011e-3
-1.953, 1.011e-3
-1.954, 1.011e-3
-1.955, 1.011e-3
-1.956, 1.011e-3
-1.957, 1.011e-3
-1.958, 1.011e-3
-1.959, 1.011e-3
-1.960, 1.011e-3
-1.961, 1.011e-3
-1.962, 1.011e-3
-1.963, 1.011e-3
-1.964, 1.011e-3
-1.965, 1.011e-3
-1.966, 1.011e-3
-1.967, 1.011e-3
-1.968, 1.011e-3
-1.969, 1.011e-3
-1.970, 1.011e-3
-1.971, 1.011e-3
-1.972, 1.011e-3
-1.973, 1.011e-3
-1.974, 1.011e-3
-1.975, 1.011e-3
-1.976, 1.011e-3
-1.977, 1.011e-3
-1.978, 1.011e-3
-1.979, 1.011e-3
-1.980, 1.011e-3
-1.981, 1.011e-3
-1.982, 1.011e-3
-1.983, 1.011e-3
-1.984, 1.011e-3
-1.985, 1.011e-3
-1.986, 1.011e-3
-1.987, 1.011e-3
-1.988, 1.011e-3
-1.989, 1.011e-3
-1.990, 1.011e-3
-1.991, 1.011e-3
-1.992, 1.011e-3
-1.993, 1.011e-3
-1.994, 1.011e-3
-1.995, 1.011e-3
-1.996, 1.011e-3
-1.997, 1.011e-3
-1.998, 1.011e-3
-1.999, 1.011e-3
-2.000, 1.011e-3
-2.001, 1.011e-3
-2.002, 1.011e-3
-2.003, 1.011e-3
-2.004, 1.011e-3
-2.005, 1.011e-3
-2.006, 1.011e-3
-2.007, 1.011e-3
-2.008, 1.011e-3
-2.009, 1.011e-3
-2.010, 1.011e-3
-2.011, 1.011e-3
-2.012, 1.011e-3
-2.013, 1.011e-3
-2.014, 1.011e-3
-2.015, 1.011e-3
-2.016, 1.011e-3
-2.017, 1.011e-3
-2.018, 1.011e-3
-2.019, 1.011e-3
-2.020, 1.011e-3
-2.021, 1.011e-3
-2.022, 1.011e-3
-2.023, 1.011e-3
-2.024, 1.011e-3
-2.025, 1.011e-3
-2.026, 1.011e-3
-2.027, 1.011e-3
-2.028, 1.011e-3
-2.029, 1.011e-3
-2.030, 1.011e-3
-2.031, 1.011e-3
-2.032, 1.011e-3
-2.033, 1.011e-3
-2.034, 1.011e-3
-2.035, 1.011e-3
-2.036, 1.011e-3
-2.037, 1.011e-3
-2.038, 1.011e-3
-2.039, 1.011e-3
-2.040, 1.011e-3
-2.041, 1.011e-3
-2.042, 1.011e-3
-2.043, 1.011e-3
-2.044, 1.011e-3
-2.045, 1.011e-3
-2.046, 1.011e-3
-2.047, 1.011e-3
-2.048, 1.011e-3
-2.049, 1.011e-3
-2.050, 1.011e-3
-2.051, 1.011e-3
-2.052, 1.011e-3
-2.053, 1.011e-3
-2.054, 1.011e-3
-2.055, 1.011e-3
-2.056, 1.011e-3
-2.057, 1.011e-3
-2.058, 1.011e-3
-2.059, 1.011e-3
-2.060, 1.011e-3
-2.061, 1.011e-3
-2.062, 1.011e-3
-2.063, 1.011e-3
-2.064, 1.011e-3
-2.065, 1.011e-3
-2.066, 1.011e-3
-2.067, 1.011e-3
-2.068, 1.011e-3
-2.069, 1.011e-3
-2.070, 1.011e-3
-2.071, 1.011e-3
-2.072, 1.011e-3
-2.073, 1.011e-3
-2.074, 1.011e-3
-2.075, 1.011e-3
-2.076, 1.011e-3
-2.077, 1.011e-3
-2.078, 1.011e-3
-2.079, 1.011e-3
-2.080, 1.011e-3
-2.081, 1.011e-3
-2.082, 1.011e-3
-2.083, 1.011e-3
-2.084, 1.011e-3
-2.085, 1.011e-3
-2.086, 1.011e-3
-2.087, 1.011e-3
-2.088, 1.011e-3
-2.089, 1.011e-3
-2.090, 1.011e-3
-2.091, 1.011e-3
-2.092, 1.011e-3
-2.093, 1.011e-3
-2.094, 1.011e-3
-2.095, 1.011e-3
-2.096, 1.011e-3
-2.097, 1.011e-3
-2.098, 1.011e-3
-2.099, 1.011e-3
-2.100, 1.011e-3
-2.101, 1.011e-3
-2.102, 1.011e-3
-2.103, 1.011e-3
-2.104, 1.011e-3
-2.105, 1.011e-3
-2.106, 1.011e-3
-2.107, 1.011e-3
-2.108, 1.011e-3
-2.109, 1.011e-3
-2.110, 1.011e-3
-2.111, 1.011e-3
-2.112, 1.011e-3
-2.113, 1.011e-3
-2.114, 1.011e-3
-2.115, 1.011e-3
-2.116, 1.011e-3
-2.117, 1.011e-3
-2.118, 1.011e-3
-2.119, 1.011e-3
-2.120, 1.011e-3
-2.121, 1.011e-3
-2.122, 1.011e-3
-2.123, 1.011e-3
-2.124, 1.011e-3
-2.125, 1.011e-3
-2.126, 1.011e-3
-2.127, 1.011e-3
-2.128, 1.011e-3
-2.129, 1.011e-3
-2.130, 1.011e-3
-2.131, 1.011e-3
-2.132, 1.011e-3
-2.133, 1.011e-3
-2.134, 1.011e-3
-2.135, 1.011e-3
-2.136, 1.011e-3
-2.137, 1.011e-3
-2.138, 1.011e-3
-2.139, 1.011e-3
-2.140, 1.011e-3
-2.141, 1.011e-3
-2.142, 1.011e-3
-2.143, 1.011e-3
-2.144, 1.011e-3
-2.145, 1.011e-3
-2.146, 1.011e-3
-2.147, 1.011e-3
-2.148, 1.011e-3
-2.149, 1.011e-3
-2.150, 1.011e-3
-2.151, 1.011e-3
-2.152, 1.011e-3
-2.153, 1.011e-3
-2.154, 1.011e-3
-2.155, 1.011e-3
-2.156, 1.011e-3
-2.157, 1.011e-3
-2.158, 1.011e-3
-2.159, 1.011e-3
-2.160, 1.011e-3
-2.161, 1.011e-3
-2.162, 1.011e-3
-2.163, 1.011e-3
-2.164, 1.011e-3
-2.165, 1.011e-3
-2.166, 1.011e-3
-2.167, 1.011e-3
-2.168, 1.011e-3
-2.169, 1.011e-3
-2.170, 1.011e-3
-2.171, 1.011e-3
-2.172, 1.011e-3
-2.173, 1.011e-3
-2.174, 1.011e-3
-2.175, 1.011e-3
-2.176, 1.011e-3
-2.177, 1.011e-3
-2.178, 1.011e-3
-2.179, 1.011e-3
-2.180, 1.011e-3
-2.181, 1.011e-3
-2.182, 1.011e-3
-2.183, 1.011e-3
-2.184, 1.011e-3
-2.185, 1.011e-3
-2.186, 1.011e-3
-2.187, 1.011e-3
-2.188, 1.011e-3
-2.189, 1.011e-3
-2.190, 1.011e-3
-2.191, 1.011e-3
-2.192, 1.011e-3
-2.193, 1.011e-3
-2.194, 1.011e-3
-2.195, 1.011e-3
-2.196, 1.011e-3
-2.197, 1.011e-3
-2.198, 1.011e-3
-2.199, 1.011e-3
-2.200, 1.011e-3
-2.201, 1.011e-3
-2.202, 1.011e-3
-2.203, 1.011e-3
-2.204, 1.011e-3
-2.205, 1.011e-3
-2.206, 1.011e-3
-2.207, 1.011e-3
-2.208, 1.011e-3
-2.209, 1.011e-3
-2.210, 1.011e-3
-2.211, 1.011e-3
-2.212, 1.011e-3
-2.213, 1.011e-3
-2.214, 1.011e-3
-2.215, 1.011e-3
-2.216, 1.011e-3
-2.217, 1.011e-3
-2.218, 1.011e-3
-2.219, 1.011e-3
-2.220, 1.011e-3
-2.221, 1.011e-3
-2.222, 1.011e-3
-2.223, 1.011e-3
-2.224, 1.011e-3
-2.225, 1.011e-3
-2.226, 1.011e-3
-2.227, 1.011e-3
-2.228, 1.011e-3
-2.229, 1.011e-3
-2.230, 1.011e-3
-2.231, 1.011e-3
-2.232, 1.011e-3
-2.233, 1.011e-3
-2.234, 1.011e-3
-2.235, 1.011e-3
-2.236, 1.011e-3
-2.237, 1.011e-3
-2.238, 1.011e-3
-2.239, 1.011e-3
-2.240, 1.011e-3
-2.241, 1.011e-3
-2.242, 1.011e-3
-2.243, 1.011e-3
-2.244, 1.011e-3
-2.245, 1.011e-3
-2.246, 1.011e-3
-2.247, 1.011e-3
-2.248, 1.011e-3
-2.249, 1.011e-3
-2.250, 1.011e-3
-2.251, 1.011e-3
-2.252, 1.011e-3
-2.253, 1.011e-3
-2.254, 1.011e-3
-2.255, 1.011e-3
-2.256, 1.011e-3
-2.257, 1.011e-3
-2.258, 1.011e-3
-2.259, 1.011e-3
-2.260, 1.011e-3
-2.261, 1.011e-3
-2.262, 1.011e-3
-2.263, 1.011e-3
-2.264, 1.011e-3
-2.265, 1.011e-3
-2.266, 1.011e-3
-2.267, 1.011e-3
-2.268, 1.011e-3
-2.269, 1.011e-3
-2.270, 1.011e-3
-2.271, 1.011e-3
-2.272, 1.011e-3
-2.273, 1.011e-3
-2.274, 1.011e-3
-2.275, 1.011e-3
-2.276, 1.011e-3
-2.277, 1.011e-3
-2.278, 1.011e-3
-2.279, 1.011e-3
-2.280, 1.011e-3
-2.281, 1.011e-3
-2.282, 1.011e-3
-2.283, 1.011e-3
-2.284, 1.011e-3
-2.285, 1.011e-3
-2.286, 1.011e-3
-2.287, 1.011e-3
-2.288, 1.011e-3
-2.289, 1.011e-3
-2.290, 1.011e-3
-2.291, 1.011e-3
-2.292, 1.011e-3
-2.293, 1.011e-3
-2.294, 1.011e-3
-2.295, 1.011e-3
-2.296, 1.011e-3
-2.297, 1.011e-3
-2.298, 1.011e-3
-2.299, 1.011e-3
