Dec. 19, 2024   03:50:46
Cyclic Voltammetry
File: c:/users/guazh/data/banditlqround7_x0exp667_r5/2024-12-16-exp697\exp697-2024-12-19t03_43_27-arkoh\exp697_cv_sr_400mvs_efin_-1400mv.bin
Data Source:  Experiment
Instrument Model:  CHI760E
Header: CV ran at 400 mVs
Note: 

Init E (V) = -1
High E (V) = -1
Low E (V) = -1.4
Final E (V) = -1
Init P/N = N
Scan Rate (V/s) = 0.4
Segment = 3
Sample Interval (V) = 0.001
Quiet Time (sec) = 2
Sensitivity (A/V) = 0.01
Comp R (ohm) = 1.2

Results:

Channel 1:
Segment 1:

Segment 2:

Segment 3:

Potential/V, Current/A

-1.000, -5.178e-4
-1.001, -3.914e-4
-1.002, -2.835e-4
-1.003, -1.848e-4
-1.004, -8.925e-5
-1.005, 6.322e-6
-1.006, 1.050e-4
-1.007, 2.036e-4
-1.008, 2.900e-4
-1.009, 3.640e-4
-1.010, 4.349e-4
-1.011, 5.058e-4
-1.012, 5.829e-4
-1.013, 6.630e-4
-1.014, 7.370e-4
-1.015, 8.018e-4
-1.016, 8.603e-4
-1.017, 9.158e-4
-1.018, 9.744e-4
-1.019, 1.039e-3
-1.020, 1.107e-3
-1.021, 1.169e-3
-1.022, 1.218e-3
-1.023, 1.264e-3
-1.024, 1.310e-3
-1.025, 1.366e-3
-1.026, 1.421e-3
-1.027, 1.477e-3
-1.028, 1.529e-3
-1.029, 1.573e-3
-1.030, 1.610e-3
-1.031, 1.653e-3
-1.032, 1.702e-3
-1.033, 1.758e-3
-1.034, 1.807e-3
-1.035, 1.850e-3
-1.036, 1.884e-3
-1.037, 1.915e-3
-1.038, 1.952e-3
-1.039, 1.998e-3
-1.040, 2.047e-3
-1.041, 2.094e-3
-1.042, 2.131e-3
-1.043, 2.161e-3
-1.044, 2.198e-3
-1.045, 2.235e-3
-1.046, 2.282e-3
-1.047, 2.325e-3
-1.048, 2.362e-3
-1.049, 2.396e-3
-1.050, 2.423e-3
-1.051, 2.457e-3
-1.052, 2.504e-3
-1.053, 2.550e-3
-1.054, 2.593e-3
-1.055, 2.630e-3
-1.056, 2.655e-3
-1.057, 2.682e-3
-1.058, 2.713e-3
-1.059, 2.753e-3
-1.060, 2.797e-3
-1.061, 2.837e-3
-1.062, 2.867e-3
-1.063, 2.892e-3
-1.064, 2.923e-3
-1.065, 2.963e-3
-1.066, 3.009e-3
-1.067, 3.056e-3
-1.068, 3.096e-3
-1.069, 3.123e-3
-1.070, 3.151e-3
-1.071, 3.182e-3
-1.072, 3.216e-3
-1.073, 3.259e-3
-1.074, 3.299e-3
-1.075, 3.330e-3
-1.076, 3.358e-3
-1.077, 3.382e-3
-1.078, 3.413e-3
-1.079, 3.456e-3
-1.080, 3.499e-3
-1.081, 3.546e-3
-1.082, 3.580e-3
-1.083, 3.610e-3
-1.084, 3.641e-3
-1.085, 3.681e-3
-1.086, 3.721e-3
-1.087, 3.758e-3
-1.088, 3.789e-3
-1.089, 3.814e-3
-1.090, 3.832e-3
-1.091, 3.860e-3
-1.092, 3.900e-3
-1.093, 3.947e-3
-1.094, 3.993e-3
-1.095, 4.027e-3
-1.096, 4.054e-3
-1.097, 4.082e-3
-1.098, 4.110e-3
-1.099, 4.150e-3
-1.100, 4.193e-3
-1.101, 4.230e-3
-1.102, 4.261e-3
-1.103, 4.289e-3
-1.104, 4.317e-3
-1.105, 4.354e-3
-1.106, 4.394e-3
-1.107, 4.437e-3
-1.108, 4.474e-3
-1.109, 4.501e-3
-1.110, 4.526e-3
-1.111, 4.557e-3
-1.112, 4.594e-3
-1.113, 4.637e-3
-1.114, 4.677e-3
-1.115, 4.714e-3
-1.116, 4.745e-3
-1.117, 4.770e-3
-1.118, 4.804e-3
-1.119, 4.844e-3
-1.120, 4.893e-3
-1.121, 4.933e-3
-1.122, 4.967e-3
-1.123, 4.992e-3
-1.124, 5.016e-3
-1.125, 5.047e-3
-1.126, 5.084e-3
-1.127, 5.121e-3
-1.128, 5.155e-3
-1.129, 5.183e-3
-1.130, 5.211e-3
-1.131, 5.248e-3
-1.132, 5.288e-3
-1.133, 5.334e-3
-1.134, 5.374e-3
-1.135, 5.405e-3
-1.136, 5.426e-3
-1.137, 5.448e-3
-1.138, 5.476e-3
-1.139, 5.510e-3
-1.140, 5.553e-3
-1.141, 5.587e-3
-1.142, 5.618e-3
-1.143, 5.648e-3
-1.144, 5.682e-3
-1.145, 5.722e-3
-1.146, 5.762e-3
-1.147, 5.803e-3
-1.148, 5.830e-3
-1.149, 5.852e-3
-1.150, 5.873e-3
-1.151, 5.901e-3
-1.152, 5.938e-3
-1.153, 5.981e-3
-1.154, 6.025e-3
-1.155, 6.062e-3
-1.156, 6.086e-3
-1.157, 6.114e-3
-1.158, 6.142e-3
-1.159, 6.179e-3
-1.160, 6.225e-3
-1.161, 6.271e-3
-1.162, 6.317e-3
-1.163, 6.361e-3
-1.164, 6.385e-3
-1.165, 6.413e-3
-1.166, 6.438e-3
-1.167, 6.462e-3
-1.168, 6.487e-3
-1.169, 6.509e-3
-1.170, 6.530e-3
-1.171, 6.564e-3
-1.172, 6.610e-3
-1.173, 6.660e-3
-1.174, 6.706e-3
-1.175, 6.740e-3
-1.176, 6.761e-3
-1.177, 6.783e-3
-1.178, 6.814e-3
-1.179, 6.851e-3
-1.180, 6.888e-3
-1.181, 6.919e-3
-1.182, 6.943e-3
-1.183, 6.962e-3
-1.184, 6.986e-3
-1.185, 7.020e-3
-1.186, 7.060e-3
-1.187, 7.110e-3
-1.188, 7.153e-3
-1.189, 7.181e-3
-1.190, 7.205e-3
-1.191, 7.233e-3
-1.192, 7.264e-3
-1.193, 7.301e-3
-1.194, 7.338e-3
-1.195, 7.369e-3
-1.196, 7.393e-3
-1.197, 7.418e-3
-1.198, 7.452e-3
-1.199, 7.489e-3
-1.200, 7.529e-3
-1.201, 7.563e-3
-1.202, 7.591e-3
-1.203, 7.612e-3
-1.204, 7.637e-3
-1.205, 7.668e-3
-1.206, 7.705e-3
-1.207, 7.748e-3
-1.208, 7.785e-3
-1.209, 7.819e-3
-1.210, 7.844e-3
-1.211, 7.878e-3
-1.212, 7.918e-3
-1.213, 7.961e-3
-1.214, 7.998e-3
-1.215, 8.025e-3
-1.216, 8.047e-3
-1.217, 8.062e-3
-1.218, 8.090e-3
-1.219, 8.127e-3
-1.220, 8.170e-3
-1.221, 8.217e-3
-1.222, 8.254e-3
-1.223, 8.284e-3
-1.224, 8.318e-3
-1.225, 8.358e-3
-1.226, 8.399e-3
-1.227, 8.436e-3
-1.228, 8.466e-3
-1.229, 8.491e-3
-1.230, 8.503e-3
-1.231, 8.525e-3
-1.232, 8.553e-3
-1.233, 8.593e-3
-1.234, 8.642e-3
-1.235, 8.688e-3
-1.236, 8.725e-3
-1.237, 8.759e-3
-1.238, 8.790e-3
-1.239, 8.824e-3
-1.240, 8.867e-3
-1.241, 8.904e-3
-1.242, 8.935e-3
-1.243, 8.963e-3
-1.244, 8.991e-3
-1.245, 9.028e-3
-1.246, 9.071e-3
-1.247, 9.114e-3
-1.248, 9.151e-3
-1.249, 9.179e-3
-1.250, 9.203e-3
-1.251, 9.231e-3
-1.252, 9.268e-3
-1.253, 9.308e-3
-1.254, 9.348e-3
-1.255, 9.379e-3
-1.256, 9.410e-3
-1.257, 9.444e-3
-1.258, 9.487e-3
-1.259, 9.536e-3
-1.260, 9.595e-3
-1.261, 9.644e-3
-1.262, 9.681e-3
-1.263, 9.706e-3
-1.264, 9.734e-3
-1.265, 9.761e-3
-1.266, 9.795e-3
-1.267, 9.838e-3
-1.268, 9.875e-3
-1.269, 9.909e-3
-1.270, 9.949e-3
-1.271, 9.993e-3
-1.272, 1.004e-2
-1.273, 1.010e-2
-1.274, 1.015e-2
-1.275, 1.019e-2
-1.276, 1.021e-2
-1.277, 1.023e-2
-1.278, 1.026e-2
-1.279, 1.029e-2
-1.280, 1.034e-2
-1.281, 1.040e-2
-1.282, 1.044e-2
-1.283, 1.049e-2
-1.284, 1.054e-2
-1.285, 1.058e-2
-1.286, 1.062e-2
-1.287, 1.066e-2
-1.288, 1.070e-2
-1.289, 1.072e-2
-1.290, 1.076e-2
-1.291, 1.081e-2
-1.292, 1.087e-2
-1.293, 1.093e-2
-1.294, 1.099e-2
-1.295, 1.102e-2
-1.296, 1.104e-2
-1.297, 1.106e-2
-1.298, 1.108e-2
-1.299, 1.111e-2
-1.300, 1.117e-2
-1.301, 1.123e-2
-1.302, 1.129e-2
-1.303, 1.135e-2
-1.304, 1.139e-2
-1.305, 1.141e-2
-1.306, 1.144e-2
-1.307, 1.147e-2
-1.308, 1.151e-2
-1.309, 1.155e-2
-1.310, 1.160e-2
-1.311, 1.166e-2
-1.312, 1.173e-2
-1.313, 1.180e-2
-1.314, 1.185e-2
-1.315, 1.189e-2
-1.316, 1.192e-2
-1.317, 1.194e-2
-1.318, 1.198e-2
-1.319, 1.203e-2
-1.320, 1.208e-2
-1.321, 1.214e-2
-1.322, 1.219e-2
-1.323, 1.222e-2
-1.324, 1.226e-2
-1.325, 1.231e-2
-1.326, 1.236e-2
-1.327, 1.241e-2
-1.328, 1.246e-2
-1.329, 1.250e-2
-1.330, 1.253e-2
-1.331, 1.257e-2
-1.332, 1.262e-2
-1.333, 1.268e-2
-1.334, 1.275e-2
-1.335, 1.280e-2
-1.336, 1.285e-2
-1.337, 1.288e-2
-1.338, 1.292e-2
-1.339, 1.297e-2
-1.340, 1.303e-2
-1.341, 1.308e-2
-1.342, 1.313e-2
-1.343, 1.318e-2
-1.344, 1.324e-2
-1.345, 1.330e-2
-1.346, 1.336e-2
-1.347, 1.342e-2
-1.348, 1.347e-2
-1.349, 1.350e-2
-1.350, 1.354e-2
-1.351, 1.360e-2
-1.352, 1.368e-2
-1.353, 1.373e-2
-1.354, 1.376e-2
-1.355, 1.377e-2
-1.356, 1.378e-2
-1.357, 1.382e-2
-1.358, 1.389e-2
-1.359, 1.399e-2
-1.360, 1.409e-2
-1.361, 1.418e-2
-1.362, 1.424e-2
-1.363, 1.427e-2
-1.364, 1.428e-2
-1.365, 1.429e-2
-1.366, 1.431e-2
-1.367, 1.434e-2
-1.368, 1.438e-2
-1.369, 1.443e-2
-1.370, 1.449e-2
-1.371, 1.457e-2
-1.372, 1.465e-2
-1.373, 1.472e-2
-1.374, 1.479e-2
-1.375, 1.483e-2
-1.376, 1.486e-2
-1.377, 1.489e-2
-1.378, 1.492e-2
-1.379, 1.496e-2
-1.380, 1.502e-2
-1.381, 1.507e-2
-1.382, 1.513e-2
-1.383, 1.518e-2
-1.384, 1.524e-2
-1.385, 1.530e-2
-1.386, 1.537e-2
-1.387, 1.543e-2
-1.388, 1.549e-2
-1.389, 1.553e-2
-1.390, 1.555e-2
-1.391, 1.559e-2
-1.392, 1.563e-2
-1.393, 1.568e-2
-1.394, 1.574e-2
-1.395, 1.579e-2
-1.396, 1.583e-2
-1.397, 1.588e-2
-1.398, 1.595e-2
-1.399, 1.602e-2
-1.400, 1.599e-2
-1.399, 1.579e-2
-1.398, 1.558e-2
-1.397, 1.537e-2
-1.396, 1.518e-2
-1.395, 1.499e-2
-1.394, 1.482e-2
-1.393, 1.464e-2
-1.392, 1.447e-2
-1.391, 1.428e-2
-1.390, 1.409e-2
-1.389, 1.391e-2
-1.388, 1.374e-2
-1.387, 1.358e-2
-1.386, 1.343e-2
-1.385, 1.326e-2
-1.384, 1.310e-2
-1.383, 1.292e-2
-1.382, 1.275e-2
-1.381, 1.259e-2
-1.380, 1.243e-2
-1.379, 1.226e-2
-1.378, 1.210e-2
-1.377, 1.192e-2
-1.376, 1.176e-2
-1.375, 1.160e-2
-1.374, 1.146e-2
-1.373, 1.132e-2
-1.372, 1.117e-2
-1.371, 1.101e-2
-1.370, 1.085e-2
-1.369, 1.070e-2
-1.368, 1.054e-2
-1.367, 1.039e-2
-1.366, 1.024e-2
-1.365, 1.009e-2
-1.364, 9.931e-3
-1.363, 9.786e-3
-1.362, 9.653e-3
-1.361, 9.530e-3
-1.360, 9.404e-3
-1.359, 9.268e-3
-1.358, 9.117e-3
-1.357, 8.957e-3
-1.356, 8.799e-3
-1.355, 8.654e-3
-1.354, 8.525e-3
-1.353, 8.402e-3
-1.352, 8.275e-3
-1.351, 8.140e-3
-1.350, 7.998e-3
-1.349, 7.862e-3
-1.348, 7.736e-3
-1.347, 7.615e-3
-1.346, 7.492e-3
-1.345, 7.369e-3
-1.344, 7.242e-3
-1.343, 7.113e-3
-1.342, 6.993e-3
-1.341, 6.879e-3
-1.340, 6.764e-3
-1.339, 6.647e-3
-1.338, 6.524e-3
-1.337, 6.395e-3
-1.336, 6.280e-3
-1.335, 6.179e-3
-1.334, 6.083e-3
-1.333, 5.972e-3
-1.332, 5.846e-3
-1.331, 5.704e-3
-1.330, 5.559e-3
-1.329, 5.426e-3
-1.328, 5.319e-3
-1.327, 5.226e-3
-1.326, 5.140e-3
-1.325, 5.041e-3
-1.324, 4.933e-3
-1.323, 4.816e-3
-1.322, 4.702e-3
-1.321, 4.591e-3
-1.320, 4.486e-3
-1.319, 4.372e-3
-1.318, 4.255e-3
-1.317, 4.135e-3
-1.316, 4.024e-3
-1.315, 3.922e-3
-1.314, 3.829e-3
-1.313, 3.740e-3
-1.312, 3.638e-3
-1.311, 3.533e-3
-1.310, 3.419e-3
-1.309, 3.311e-3
-1.308, 3.213e-3
-1.307, 3.120e-3
-1.306, 3.031e-3
-1.305, 2.932e-3
-1.304, 2.827e-3
-1.303, 2.726e-3
-1.302, 2.630e-3
-1.301, 2.544e-3
-1.300, 2.457e-3
-1.299, 2.371e-3
-1.298, 2.275e-3
-1.297, 2.174e-3
-1.296, 2.075e-3
-1.295, 1.986e-3
-1.294, 1.902e-3
-1.293, 1.819e-3
-1.292, 1.733e-3
-1.291, 1.640e-3
-1.290, 1.551e-3
-1.289, 1.468e-3
-1.288, 1.391e-3
-1.287, 1.317e-3
-1.286, 1.240e-3
-1.285, 1.159e-3
-1.284, 1.067e-3
-1.283, 9.806e-4
-1.282, 9.004e-4
-1.281, 8.326e-4
-1.280, 7.586e-4
-1.279, 6.815e-4
-1.278, 5.952e-4
-1.277, 5.027e-4
-1.276, 4.164e-4
-1.275, 3.393e-4
-1.274, 2.715e-4
-1.273, 2.036e-4
-1.272, 1.358e-4
-1.271, 5.873e-5
-1.270, -2.759e-5
-1.269, -1.016e-4
-1.268, -1.694e-4
-1.267, -2.311e-4
-1.266, -2.989e-4
-1.265, -3.729e-4
-1.264, -4.469e-4
-1.263, -5.271e-4
-1.262, -6.011e-4
-1.261, -6.627e-4
-1.260, -7.244e-4
-1.259, -7.860e-4
-1.258, -8.600e-4
-1.257, -9.371e-4
-1.256, -1.008e-3
-1.255, -1.076e-3
-1.254, -1.134e-3
-1.253, -1.193e-3
-1.252, -1.255e-3
-1.251, -1.326e-3
-1.250, -1.400e-3
-1.249, -1.467e-3
-1.248, -1.526e-3
-1.247, -1.578e-3
-1.246, -1.634e-3
-1.245, -1.696e-3
-1.244, -1.766e-3
-1.243, -1.840e-3
-1.242, -1.908e-3
-1.241, -1.964e-3
-1.240, -2.013e-3
-1.239, -2.069e-3
-1.238, -2.130e-3
-1.237, -2.195e-3
-1.236, -2.260e-3
-1.235, -2.318e-3
-1.234, -2.371e-3
-1.233, -2.423e-3
-1.232, -2.479e-3
-1.231, -2.540e-3
-1.230, -2.608e-3
-1.229, -2.673e-3
-1.228, -2.725e-3
-1.227, -2.775e-3
-1.226, -2.827e-3
-1.225, -2.886e-3
-1.224, -2.947e-3
-1.223, -3.012e-3
-1.222, -3.064e-3
-1.221, -3.111e-3
-1.220, -3.157e-3
-1.219, -3.206e-3
-1.218, -3.265e-3
-1.217, -3.330e-3
-1.216, -3.391e-3
-1.215, -3.447e-3
-1.214, -3.493e-3
-1.213, -3.539e-3
-1.212, -3.592e-3
-1.211, -3.650e-3
-1.210, -3.712e-3
-1.209, -3.770e-3
-1.208, -3.820e-3
-1.207, -3.863e-3
-1.206, -3.906e-3
-1.205, -3.955e-3
-1.204, -4.017e-3
-1.203, -4.079e-3
-1.202, -4.134e-3
-1.201, -4.184e-3
-1.200, -4.230e-3
-1.199, -4.276e-3
-1.198, -4.329e-3
-1.197, -4.387e-3
-1.196, -4.440e-3
-1.195, -4.489e-3
-1.194, -4.535e-3
-1.193, -4.581e-3
-1.192, -4.631e-3
-1.191, -4.689e-3
-1.190, -4.751e-3
-1.189, -4.803e-3
-1.188, -4.846e-3
-1.187, -4.887e-3
-1.186, -4.927e-3
-1.185, -4.979e-3
-1.184, -5.041e-3
-1.183, -5.102e-3
-1.182, -5.161e-3
-1.181, -5.204e-3
-1.180, -5.247e-3
-1.179, -5.290e-3
-1.178, -5.346e-3
-1.177, -5.405e-3
-1.176, -5.460e-3
-1.175, -5.503e-3
-1.174, -5.540e-3
-1.173, -5.571e-3
-1.172, -5.614e-3
-1.171, -5.670e-3
-1.170, -5.734e-3
-1.169, -5.796e-3
-1.168, -5.845e-3
-1.167, -5.892e-3
-1.166, -5.932e-3
-1.165, -5.975e-3
-1.164, -6.027e-3
-1.163, -6.077e-3
-1.162, -6.126e-3
-1.161, -6.166e-3
-1.160, -6.206e-3
-1.159, -6.252e-3
-1.158, -6.308e-3
-1.157, -6.370e-3
-1.156, -6.422e-3
-1.155, -6.471e-3
-1.154, -6.508e-3
-1.153, -6.539e-3
-1.152, -6.576e-3
-1.151, -6.625e-3
-1.150, -6.678e-3
-1.149, -6.733e-3
-1.148, -6.789e-3
-1.147, -6.835e-3
-1.146, -6.878e-3
-1.145, -6.925e-3
-1.144, -6.977e-3
-1.143, -7.029e-3
-1.142, -7.069e-3
-1.141, -7.097e-3
-1.140, -7.125e-3
-1.139, -7.165e-3
-1.138, -7.217e-3
-1.137, -7.279e-3
-1.136, -7.341e-3
-1.135, -7.393e-3
-1.134, -7.436e-3
-1.133, -7.470e-3
-1.132, -7.513e-3
-1.131, -7.560e-3
-1.130, -7.612e-3
-1.129, -7.658e-3
-1.128, -7.695e-3
-1.127, -7.726e-3
-1.126, -7.763e-3
-1.125, -7.803e-3
-1.124, -7.856e-3
-1.123, -7.905e-3
-1.122, -7.951e-3
-1.121, -7.991e-3
-1.120, -8.025e-3
-1.119, -8.062e-3
-1.118, -8.112e-3
-1.117, -8.164e-3
-1.116, -8.216e-3
-1.115, -8.256e-3
-1.114, -8.290e-3
-1.113, -8.318e-3
-1.112, -8.352e-3
-1.111, -8.395e-3
-1.110, -8.441e-3
-1.109, -8.485e-3
-1.108, -8.518e-3
-1.107, -8.552e-3
-1.106, -8.589e-3
-1.105, -8.633e-3
-1.104, -8.682e-3
-1.103, -8.728e-3
-1.102, -8.765e-3
-1.101, -8.793e-3
-1.100, -8.818e-3
-1.099, -8.845e-3
-1.098, -8.882e-3
-1.097, -8.929e-3
-1.096, -8.978e-3
-1.095, -9.018e-3
-1.094, -9.052e-3
-1.093, -9.080e-3
-1.092, -9.117e-3
-1.091, -9.157e-3
-1.090, -9.203e-3
-1.089, -9.240e-3
-1.088, -9.265e-3
-1.087, -9.292e-3
-1.086, -9.323e-3
-1.085, -9.360e-3
-1.084, -9.406e-3
-1.083, -9.456e-3
-1.082, -9.493e-3
-1.081, -9.520e-3
-1.080, -9.539e-3
-1.079, -9.561e-3
-1.078, -9.591e-3
-1.077, -9.635e-3
-1.076, -9.675e-3
-1.075, -9.709e-3
-1.074, -9.733e-3
-1.073, -9.761e-3
-1.072, -9.789e-3
-1.071, -9.829e-3
-1.070, -9.875e-3
-1.069, -9.912e-3
-1.068, -9.943e-3
-1.067, -9.964e-3
-1.066, -9.986e-3
-1.065, -1.002e-2
-1.064, -1.004e-2
-1.063, -1.008e-2
-1.062, -1.012e-2
-1.061, -1.015e-2
-1.060, -1.016e-2
-1.059, -1.019e-2
-1.058, -1.024e-2
-1.057, -1.028e-2
-1.056, -1.033e-2
-1.055, -1.037e-2
-1.054, -1.040e-2
-1.053, -1.043e-2
-1.052, -1.044e-2
-1.051, -1.045e-2
-1.050, -1.047e-2
-1.049, -1.049e-2
-1.048, -1.050e-2
-1.047, -1.053e-2
-1.046, -1.056e-2
-1.045, -1.059e-2
-1.044, -1.063e-2
-1.043, -1.067e-2
-1.042, -1.070e-2
-1.041, -1.072e-2
-1.040, -1.073e-2
-1.039, -1.074e-2
-1.038, -1.075e-2
-1.037, -1.077e-2
-1.036, -1.080e-2
-1.035, -1.083e-2
-1.034, -1.085e-2
-1.033, -1.088e-2
-1.032, -1.090e-2
-1.031, -1.093e-2
-1.030, -1.097e-2
-1.029, -1.099e-2
-1.028, -1.101e-2
-1.027, -1.101e-2
-1.026, -1.101e-2
-1.025, -1.103e-2
-1.024, -1.105e-2
-1.023, -1.109e-2
-1.022, -1.111e-2
-1.021, -1.114e-2
-1.020, -1.115e-2
-1.019, -1.117e-2
-1.018, -1.119e-2
-1.017, -1.122e-2
-1.016, -1.123e-2
-1.015, -1.125e-2
-1.014, -1.125e-2
-1.013, -1.127e-2
-1.012, -1.128e-2
-1.011, -1.131e-2
-1.010, -1.133e-2
-1.009, -1.134e-2
-1.008, -1.136e-2
-1.007, -1.139e-2
-1.006, -1.141e-2
-1.005, -1.143e-2
-1.004, -1.145e-2
-1.003, -1.147e-2
-1.002, -1.147e-2
-1.001, -1.148e-2
