Potential V vs RHE, Current mA cm-2
0.013299999999999867,5.667333467259336
0.012299999999999978,3.922994434525747
0.011299999999999866,2.30880884137974
0.010299999999999976,0.6956135461436386
0.009299999999999864,-0.8308599464107361
0.008299999999999974,-2.2706116362833835
0.007299999999999862,-3.7532290785419424
0.006299999999999972,-5.149549131508733
0.00529999999999986,-6.588310523471475
0.0042999999999999705,-8.027071915434218
0.0032999999999998586,-9.379535918105192
0.0022999999999999687,-10.775855971071984
0.0012999999999998568,-12.12831997374296
0.00029999999999996696,-13.3930718758223
-0.000700000000000145,-14.61396772760583
-0.0017000000000000348,-15.78817810649381
-0.0027000000000001467,-16.919947146385837
-0.0037000000000000366,-18.009274847281915
-0.0047000000000001485,-19.056161209182044
-0.005700000000000038,-20.10304757108217
-0.00670000000000015,-21.2065223849769
-0.00770000000000004,-22.295850085872978
-0.008700000000000152,-23.427619125765005
-0.009700000000000042,-24.474505487665134
-0.010700000000000154,-25.60627452755716
-0.011700000000000044,-26.65316088945729
-0.012700000000000156,-27.65760591236147
-0.013700000000000045,-28.619609596269694
-0.014700000000000157,-29.581613280177915
-0.015700000000000047,-30.444587173095588
-0.01670000000000016,-31.36414951800786
-0.01770000000000005,-32.184682071929586
-0.01870000000000016,-33.06180307784591
-0.01970000000000005,-33.93892408376223
-0.020700000000000163,-34.8018979766799
-0.021700000000000053,-35.721460321592176
-0.022700000000000164,-36.64102266650445
-0.023700000000000054,-37.51814367242077
-0.024700000000000166,-38.42355890433439
-0.025700000000000056,-39.30067991025072
-0.026700000000000168,-40.135359577171094
-0.027700000000000058,-40.95589213109281
-0.02870000000000017,-41.70568912002128
-0.02970000000000006,-42.4413389959511
-0.03070000000000017,-43.17698887188092
-0.03170000000000006,-43.92678586080939
-0.03270000000000017,-44.619994397743255
-0.03370000000000006,-45.45467406466363
-0.034700000000000175,-46.19032394059345
-0.035700000000000065,-46.982562268517874
-0.03670000000000018,-47.76065348344364
-0.03770000000000007,-48.59533315036401
-0.03870000000000018,-49.33098302629383
-0.03970000000000007,-50.0807800152223
-0.04070000000000018,-50.81642989115212
-0.04170000000000007,-51.46719708909004
-0.04270000000000018,-52.17455273902255
-0.04370000000000007,-52.82531993696047
-0.044700000000000184,-53.476087134898386
-0.045700000000000074,-54.16929567183226
-0.046700000000000186,-54.834209982768826
-0.047700000000000076,-55.56985985869864
-0.04870000000000019,-56.30550973462846
-0.04970000000000008,-57.05530672355693
-0.05070000000000019,-57.8333979384827
-0.05170000000000008,-58.583194927411164
-0.05270000000000019,-59.27640346434504
-0.05370000000000008,-59.9696120012789
-0.05470000000000019,-60.63452631221547
-0.05570000000000008,-61.242852171157445
-0.056700000000000195,-61.851178030099405
-0.057700000000000085,-62.459503889041365
-0.058700000000000196,-63.11027108697928
-0.059700000000000086,-63.732744058919906
-0.0607000000000002,-64.38351125685783
-0.06170000000000009,-65.11916113278764
-0.0627000000000002,-65.82651678272015
-0.06370000000000009,-66.56216665864997
-0.0647000000000002,-67.34025787357575
-0.06570000000000009,-68.04761352350828
-0.0667000000000002,-68.74082206044213
-0.0677000000000001,-69.43403059737601
-0.0687000000000002,-70.05650356931662
-0.0697000000000001,-70.62238808926263
-0.07070000000000021,-71.2307139482046
-0.0717000000000001,-71.83903980714656
-0.07270000000000021,-72.44736566608852
-0.0737000000000001,-73.0556915250305
-0.07470000000000021,-73.76304717496302
-0.0757000000000001,-74.49869705089283
-0.07670000000000021,-75.19190558782671
-0.0777000000000001,-75.98414391575112
-0.07870000000000021,-76.67735245268499
-0.0797000000000001,-77.38470810261751
-0.08070000000000022,-78.07791663955136
-0.0817000000000001,-78.72868383748929
-0.08270000000000022,-79.33700969643127
-0.08370000000000011,-80.00192400736783
-0.08470000000000022,-80.61024986630979
-0.08570000000000011,-81.30345840324367
-0.08670000000000022,-81.91178426218562
-0.08770000000000011,-82.61913991211814
-0.08870000000000022,-83.35478978804795
-0.08970000000000011,-84.04799832498183
-0.09070000000000022,-84.7977953139103
-0.09170000000000011,-85.49100385084417
-0.09270000000000023,-86.18421238777805
-0.09370000000000012,-86.89156803771054
-0.09470000000000023,-87.49989389665252
-0.09570000000000012,-88.15066109459043
-0.09670000000000023,-88.7589869535324
-0.09770000000000012,-89.32487147347842
-0.09870000000000023,-89.98978578441499
-0.09970000000000012,-90.59811164335694
-0.10070000000000023,-91.24887884129487
-0.10170000000000012,-91.98452871722468
-0.10270000000000024,-92.6918843671572
-0.10370000000000013,-93.38509290409107
-0.10470000000000024,-94.13488989301955
-0.10570000000000013,-94.87053976894937
-0.10670000000000024,-95.60618964487918
-0.10770000000000013,-96.27110395581576
-0.10870000000000024,-96.87942981475771
-0.10970000000000013,-97.4877556736997
-0.11070000000000024,-98.09608153264163
-0.11170000000000013,-98.7044073915836
-0.11270000000000002,-99.31273325052557
-0.11370000000000013,-99.97764756146215
-0.11470000000000002,-100.670856098396
-0.11570000000000014,-101.40650597432582
-0.11670000000000003,-102.1563029632543
-0.11770000000000014,-102.93439417818009
-0.11870000000000003,-103.68419116710854
-0.11970000000000014,-104.41984104303836
-0.12070000000000003,-105.11304957997223
-0.12170000000000014,-105.7779638909088
-0.12270000000000003,-106.38628974985076
-0.12370000000000014,-107.03705694778867
-0.12470000000000003,-107.6029414677347
-0.12570000000000014,-108.2537086656726
-0.12670000000000003,-108.87618163761321
-0.12770000000000015,-109.52694883555114
-0.12870000000000004,-110.22015737248502
-0.12970000000000015,-110.92751302241753
-0.13070000000000004,-111.66316289834735
-0.13170000000000015,-112.39881277427718
-0.13270000000000004,-113.10616842420968
-0.13370000000000015,-113.75693562214758
-0.13470000000000004,-114.36526148108955
-0.13570000000000015,-115.01602867902749
-0.13670000000000004,-115.62435453796945
-0.13770000000000016,-116.20438617091412
-0.13870000000000005,-116.81271202985609
-0.13970000000000016,-117.42103788879804
-0.14070000000000005,-118.11424642573192
-0.14170000000000016,-118.76501362366983
-0.14270000000000005,-119.47236927360234
-0.14370000000000016,-120.16557781053622
-0.14470000000000005,-120.85878634747009
-0.14570000000000016,-121.48125931941068
-0.14670000000000005,-122.1320265173486
-0.14770000000000016,-122.69791103729463
-0.14870000000000005,-123.26379555724066
-0.14970000000000017,-123.82968007718667
-0.15070000000000006,-124.31068191914078
-0.15170000000000017,-124.83412510009084
-0.15270000000000006,-125.35756828104091
-0.15370000000000017,-125.92345280098691
-0.15470000000000006,-126.61666133792076
-0.15570000000000017,-127.36645832684925
-0.15670000000000006,-128.18699088077096
-0.15770000000000017,-129.1489945646792
-0.15870000000000006,-130.06855690959148
-0.15970000000000018,-131.03056059349967
-0.16070000000000007,-131.89353448641737
-0.16170000000000018,-132.72821415333775
-0.16270000000000007,-133.37898135127566
-0.16370000000000018,-133.90242453222572
-0.16470000000000007,-134.38342637417986
-0.16570000000000018,-134.86442821613394
-0.16670000000000007,-135.26054738009617
-0.16770000000000018,-135.6991078830543
-0.16870000000000007,-136.03863859502192
-0.16970000000000018,-136.3923164199882
-0.17070000000000007,-136.83087692294635
-0.17170000000000019,-137.2694374259045
-0.17270000000000008,-137.83532194585052
-0.1737000000000002,-138.48608914378846
-0.17470000000000008,-139.1792976807223
-0.1757000000000002,-140.01397734764268
-0.17670000000000008,-140.89109835355902
-0.1777000000000002,-141.75407224647665
-0.17870000000000008,-142.6028990263957
-0.1797000000000002,-143.4517258063147
-0.18070000000000008,-144.30055258623375
-0.1817000000000002,-145.14937936615277
-0.18270000000000008,-145.85673501608528
-0.1837000000000002,-146.4226195360313
-0.1847000000000001,-146.9885040559773
-0.1857000000000002,-147.55438857592333
-0.1867000000000001,-147.97880196588284
-0.1877000000000002,-148.54468648582886
-0.1887000000000001,-148.82762874580186
-0.1897000000000002,-149.39351326574788
-0.1907000000000001,-149.95939778569388
-0.1917000000000001,-150.66675343562642
-0.19269999999999998,-151.37410908555893
-0.1937000000000001,-152.0814647354914
-0.19469999999999998,-152.93029151541046
-0.1957000000000001,-153.63764716534297
-0.19669999999999999,-154.203531685289
-0.1977000000000001,-154.76941620523502
-0.1987,-155.19382959519453
-0.1997000000000001,-155.61824298515404
-0.2007,-156.04265637511355
-0.2017000000000001,-156.60854089505958
-0.2027,-157.17442541500557
-0.2037000000000001,-157.88178106493808
-0.2047,-158.5891367148706
-0.2057000000000001,-159.29649236480313
-0.2067,-160.14531914472215
-0.2077000000000001,-160.8526747946547
-0.2087,-161.70150157457368
-0.2097000000000001,-162.5503283544927
-0.2107,-163.39915513441173
-0.2117000000000001,-164.10651078434424
-0.2127,-164.81386643427678
-0.2137000000000001,-165.2382798242363
-0.2147,-165.6626932141958
-0.2157000000000001,-166.0871066041553
-0.2167,-166.3700488641283
-0.21770000000000012,-166.51151999411482
-0.2187,-166.93593338407433
-0.21970000000000012,-167.21887564404733
-0.2207,-167.78476016399335
-0.22170000000000012,-168.49211581392586
-0.2227,-169.3409425938449
-0.22370000000000012,-170.33124050375042
-0.2247,-171.32153841365593
-0.22570000000000012,-172.45330745354798
-0.2267,-173.44360536345349
-0.22770000000000012,-174.43390327335902
-0.22870000000000001,-174.99978779330505
-0.22970000000000013,-175.70714344323756
-0.23070000000000002,-176.13155683319707
-0.23170000000000013,-176.55597022315658
-0.23270000000000002,-176.98038361311612
-0.23370000000000013,-177.2633258730891
-0.23470000000000002,-177.6877392630486
-0.23570000000000013,-178.1121526530081
-0.23670000000000002,-178.53656604296762
-0.2376999999999999,-179.24392169290016
-0.23870000000000002,-179.80980621284618
-0.2396999999999999,-180.5171618627787
-0.24070000000000003,-181.08304638272472
-0.24169999999999991,-181.64893090267074
-0.24270000000000003,-182.35628655260325
-0.24369999999999992,-183.06364220253573
-0.24470000000000003,-183.62952672248176
-0.24569999999999992,-184.33688237241427
-0.24670000000000003,-184.9027668923603
-0.24769999999999992,-185.6101225422928
-0.24870000000000003,-186.31747819222534
-0.24969999999999992,-187.16630497214436
-0.25070000000000003,-187.87366062207687
-0.2516999999999999,-188.58101627200938
-0.25270000000000004,-189.2883719219419
-0.2536999999999999,-189.99572757187443
-0.25470000000000004,-190.70308322180696
-0.2556999999999999,-191.268967741753
-0.25670000000000004,-191.83485226169896
-0.25769999999999993,-192.40073678164498
-0.25870000000000004,-192.966621301591
-0.25969999999999993,-193.3910346915505
-0.26070000000000004,-193.9569192114965
-0.26169999999999993,-194.66427486142905
-0.26270000000000004,-195.37163051136156
-0.26369999999999993,-196.0789861612941
-0.26470000000000005,-196.7863418112266
-0.26569999999999994,-197.49369746115914
-0.26670000000000005,-198.3425242410781
-0.26769999999999994,-198.90840876102413
-0.26870000000000005,-199.47429328097016
-0.26969999999999994,-200.04017780091618
-0.27070000000000005,-200.6060623208622
-0.27169999999999994,-201.03047571082172
-0.27270000000000005,-201.4548891007812
-0.27369999999999994,-201.87930249074074
-0.27470000000000006,-202.44518701068677
-0.27569999999999995,-203.01107153063276
-0.27670000000000006,-203.71842718056527
-0.27769999999999995,-204.2843117005113
-0.27870000000000006,-204.9916673504438
-0.27969999999999995,-205.69902300037634
-0.28070000000000006,-206.40637865030885
-0.28169999999999995,-207.1137343002414
-0.28270000000000006,-207.8210899501739
-0.28369999999999995,-208.3869744701199
-0.28470000000000006,-209.0943301200524
-0.28569999999999995,-209.8016857699849
-0.28670000000000007,-210.50904141991748
-0.28769999999999996,-211.21639706985
-0.28870000000000007,-211.782281589796
-0.28969999999999996,-212.48963723972852
-0.29070000000000007,-213.19699288966103
-0.29169999999999996,-213.76287740960703
-0.29270000000000007,-214.32876192955305
-0.29369999999999996,-214.89464644949908
-0.2947000000000001,-215.4605309694451
-0.29569999999999996,-216.1678866193776
-0.2967000000000001,-216.73377113932364
-0.29769999999999996,-217.29965565926966
-0.2987000000000001,-218.00701130920217
-0.29969999999999997,-218.71436695913465
-0.3007000000000001,-219.42172260906716
-0.30169999999999997,-220.1290782589997
-0.3027000000000001,-221.11937616890526
-0.30369999999999997,-221.82673181883774
-0.3047000000000001,-222.6755585987568
-0.30569999999999997,-223.38291424868927
-0.3067000000000001,-224.2317410286083
-0.3077,-224.79762554855435
-0.3087000000000001,-225.50498119848683
-0.3097,-225.92939458844637
-0.3107000000000001,-226.49527910839237
-0.3117,-227.06116362833836
-0.3127000000000001,-227.4855770182979
-0.3137,-228.0514615382439
-0.3147000000000001,-228.61734605818995
-0.3157,-229.32470170812243
-0.3167000000000001,-230.03205735805497
-0.3177,-230.7394130079875
-0.3187000000000001,-231.5882397879065
-0.3197,-232.29559543783904
-0.3207000000000001,-233.00295108777152
-0.3217,-233.85177786769057
-0.3227000000000001,-234.55913351762308
-0.3237,-235.26648916755556
-0.3247000000000001,-235.97384481748813
-0.3257,-236.6812004674206
-0.3267000000000001,-237.38855611735315
-0.3277,-237.9544406372992
-0.3287000000000001,-238.66179628723168
-0.3297,-239.36915193716422
-0.3307000000000001,-240.0765075870967
-0.3317,-240.78386323702924
-0.3327000000000001,-241.49121888696175
-0.3337,-242.05710340690777
-0.3347000000000001,-242.76445905684034
-0.3357,-243.3303435767863
-0.3367000000000001,-244.03769922671884
-0.3377,-244.74505487665132
-0.3387000000000001,-245.45241052658386
-0.3397,-246.15976617651637
-0.3407000000000001,-247.0085929564354
-0.3417,-247.85741973635444
-0.3427000000000001,-248.70624651627344
-0.3437,-249.5550732961925
-0.3447000000000001,-250.545371206098
-0.3457,-251.39419798601702
-0.3467000000000001,-252.243024765936
-0.3477,-253.09185154585506
-0.3487000000000001,-253.65773606580112
-0.3497,-254.50656284572008
-0.3507000000000001,-255.07244736566614
-0.3517,-255.77980301559862
-0.3527000000000001,-256.34568753554464
-0.3537,-257.0530431854772
-0.3547000000000001,-257.76039883540966
-0.3557,-258.32628335535566
-0.35670000000000013,-259.0336390052882
-0.3577,-259.7409946552208
-0.35870000000000013,-260.58982143513975
-0.3597,-261.2971770850723
-0.36070000000000013,-262.0045327350048
-0.3617,-262.8533595149238
-0.3626999999999999,-263.56071516485633
-0.3637,-264.40954194477536
-0.3646999999999999,-265.2583687246944
-0.3657,-265.9657243746269
-0.3666999999999999,-266.8145511545459
-0.3677,-267.6633779344649
-0.3686999999999999,-268.512204714384
-0.36970000000000003,-269.361031494303
-0.3706999999999999,-270.35132940420846
-0.37170000000000003,-271.20015618412754
-0.3726999999999999,-272.04898296404656
-0.37370000000000003,-272.7563386139791
-0.3746999999999999,-273.60516539389806
-0.37570000000000003,-274.31252104383066
-0.3766999999999999,-275.0198766937631
-0.37770000000000004,-275.7272323436957
-0.3786999999999999,-276.5760591236147
-0.37970000000000004,-277.4248859035337
-0.3806999999999999,-278.2737126834527
-0.38170000000000004,-279.1225394633717
-0.38269999999999993,-279.97136624329073
-0.38370000000000004,-280.82019302320975
-0.38469999999999993,-281.66901980312883
-0.38570000000000004,-282.51784658304786
-0.38669999999999993,-281.9519620631018
-0.38570000000000004,-278.8395972033987
-0.38469999999999993,-275.86870347368216
-0.38370000000000004,-272.8978097439656
-0.38269999999999993,-270.0683871442355
-0.38170000000000004,-267.38043567449193
-0.3806999999999999,-264.6924842047484
-0.37970000000000004,-262.1460038649913
-0.3786999999999999,-259.59952352523425
-0.37770000000000004,-257.1945143154637
-0.3766999999999999,-254.93097623567962
-0.37570000000000003,-252.80890928588207
-0.3746999999999999,-250.545371206098
-0.37370000000000003,-248.28183312631393
-0.3726999999999999,-245.87682391654337
-0.37170000000000003,-243.47181470677282
-0.3706999999999999,-241.06680549700224
-0.36970000000000003,-238.66179628723168
-0.3686999999999999,-236.25678707746113
-0.3677,-233.85177786769057
-0.3666999999999999,-231.44676865792
-0.3657,-229.04175944814943
-0.3646999999999999,-226.63675023837888
-0.3637,-224.37321215859478
-0.3626999999999999,-222.25114520879725
-0.3617,-219.98760712901318
-0.36070000000000013,-217.72406904922914
-0.3597,-215.4605309694451
-0.35870000000000013,-213.19699288966103
-0.3577,-210.79198367989048
-0.35670000000000013,-208.52844560010638
-0.3557,-206.12343639033585
-0.3547000000000001,-203.85989831055176
-0.3537,-201.59636023076774
-0.3527000000000001,-199.33282215098367
-0.3517,-197.21075520118612
-0.3507000000000001,-194.94721712140205
-0.3497,-192.82515017160452
-0.3487000000000001,-190.84455435179345
-0.3477,-188.72248740199586
-0.3467000000000001,-186.60042045219836
-0.3457,-184.47835350240078
-0.3447000000000001,-182.35628655260325
-0.3437,-180.23421960280567
-0.3427000000000001,-178.1121526530081
-0.3417,-175.99008570321055
-0.3407000000000001,-174.0094898833995
-0.3397,-171.88742293360195
-0.3387000000000001,-169.9068271137909
-0.3377,-167.78476016399335
-0.3367000000000001,-165.8041643441823
-0.3357,-163.96503965435775
-0.3347000000000001,-161.84297270456022
-0.3337,-160.00384801473567
-0.3327000000000001,-157.88178106493808
-0.3317,-155.90118524512707
-0.3307000000000001,-153.77911829532948
-0.3297,-151.65705134553193
-0.3287000000000001,-149.6764555257209
-0.3277,-147.6958597059098
-0.3267000000000001,-145.7152638860988
-0.3257,-143.87613919627424
-0.3247000000000001,-142.03701450644968
-0.3237,-140.14130136463055
-0.3227000000000001,-138.40120646579655
-0.3217,-136.562081775972
-0.3207000000000001,-134.77954553814206
-0.3197,-132.9404208483175
-0.3187000000000001,-131.07300193249566
-0.3177,-129.19143590367514
-0.3167000000000001,-127.28157564885734
-0.3157,-125.35756828104091
-0.3147000000000001,-123.4760022522204
-0.3137,-121.60858333639854
-0.3127000000000001,-119.81189998556997
-0.3117,-118.07180508673595
-0.3107000000000001,-116.24682750991008
-0.3097,-114.53502683707337
-0.3087000000000001,-112.79493193823936
-0.3077,-111.01239570040943
-0.3067000000000001,-109.21571234958083
-0.30569999999999997,-107.39073477275493
-0.3047000000000001,-105.5516100829304
-0.30369999999999997,-103.68419116710854
-0.3027000000000001,-101.84506647728399
-0.30169999999999997,-100.06253023945405
-0.3007000000000001,-98.3082882276214
-0.29969999999999997,-96.61063466778336
-0.2987000000000001,-94.95542244694126
-0.29769999999999996,-93.34265156509512
-0.2967000000000001,-91.77232202224494
-0.29569999999999996,-90.20199247939475
-0.2947000000000001,-88.5892215975486
-0.29369999999999996,-86.97645071570246
-0.29270000000000007,-85.32123849486035
-0.29169999999999996,-83.60943782202366
-0.29070000000000007,-81.95422560118158
-0.28969999999999996,-80.29901338033947
-0.28870000000000007,-78.55891848150549
-0.28769999999999996,-76.86126492166746
-0.28670000000000007,-75.19190558782671
-0.28569999999999995,-73.57913470598055
-0.28470000000000006,-71.96636382413442
-0.28369999999999995,-70.39603428128423
-0.28270000000000006,-68.86814607742998
-0.28169999999999995,-67.2978165345798
-0.28070000000000006,-65.7274869917296
-0.27969999999999995,-64.15715744887942
-0.27870000000000006,-62.58682790602922
-0.27769999999999995,-61.01649836317903
-0.27670000000000006,-59.44616882032884
-0.27569999999999995,-57.8333979384827
-0.27470000000000006,-56.30550973462846
-0.27369999999999994,-54.73518019177827
-0.27270000000000005,-53.26388043991864
-0.27169999999999994,-51.82087491405629
-0.27070000000000005,-50.42031072718991
-0.26969999999999994,-48.97730520132757
-0.26870000000000005,-47.590888127459834
-0.26769999999999994,-46.147882601597495
