Potential V vs RHE, Current mA cm-2
0.013299999999999867,-0.5603671458765411
0.012299999999999978,-0.7086288901023969
0.011299999999999866,-0.8595785857979963
0.010299999999999976,-1.0357101426311934
0.009299999999999864,-1.2465021263110838
0.008299999999999974,-1.4868615761581534
0.007299999999999862,-1.7528273005327806
0.006299999999999972,-2.0272812927065975
0.00529999999999986,-2.2932470170812245
0.0042999999999999705,-2.532333226758415
0.0032999999999998586,-2.744539921738171
0.0022999999999999687,-2.927037679420761
0.0012999999999998568,-3.08407063370578
0.00029999999999996696,-3.217053495893093
-0.000700000000000145,-3.3344745337818917
-0.0017000000000000348,-3.436333747372174
-0.0027000000000001467,-3.5169722914644814
-0.0037000000000000366,-3.5990255468566534
-0.0047000000000001485,-3.6683464005500404
-0.005700000000000038,-3.7390819655432916
-0.00670000000000015,-3.7970851288377587
-0.00770000000000004,-3.8607471373316855
-0.008700000000000152,-3.918750300626152
-0.009700000000000042,-3.9894858656194034
-0.010700000000000154,-4.04748902891387
-0.011700000000000044,-4.112565748707662
-0.012700000000000156,-4.164910066802668
-0.013700000000000045,-4.225742652696865
-0.014700000000000157,-4.280916393391601
-0.015700000000000047,-4.344578401885528
-0.01670000000000016,-4.398337431280399
-0.01770000000000005,-4.4648288623740555
-0.01870000000000016,-4.518587891768927
-0.01970000000000005,-4.592152879361908
-0.020700000000000163,-4.654400176555971
-0.021700000000000053,-4.723721030249357
-0.022700000000000164,-4.783138904843689
-0.023700000000000054,-4.855289181136806
-0.024700000000000166,-4.921780612230462
-0.025700000000000056,-4.99393088852358
-0.026700000000000168,-5.066081164816696
-0.027700000000000058,-5.1467197089090035
-0.02870000000000017,-5.2188699852021205
-0.02970000000000006,-5.305167374493887
-0.03070000000000017,-5.380147073386734
-0.03170000000000006,-5.469273885278232
-0.03270000000000017,-5.57537723276811
-0.03370000000000006,-5.663089333359742
-0.034700000000000175,-5.7309954757532635
-0.035700000000000065,-5.828610555443951
-0.03670000000000018,-5.902175543036933
-0.03770000000000007,-5.9997906227276205
-0.03870000000000018,-6.0917468572188485
-0.03970000000000007,-6.197850204708726
-0.04070000000000018,-6.301124129598874
-0.04170000000000007,-6.400153920589426
-0.04270000000000018,-6.507671979379168
-0.04370000000000007,-6.612360615569181
-0.044700000000000184,-6.742514055156764
-0.045700000000000074,-6.845787980046913
-0.046700000000000186,-6.995747377832608
-0.047700000000000076,-7.110338993121674
-0.04870000000000019,-7.2390777214093935
-0.04970000000000008,-7.3649870270973805
-0.05070000000000019,-7.4753345084868545
-0.05170000000000008,-7.6012438141748415
-0.05270000000000019,-7.731397253762426
-0.05370000000000008,-7.851647714250955
-0.05470000000000019,-8.010095379835839
-0.05570000000000008,-8.151566509822342
-0.056700000000000195,-8.31991715450628
-0.057700000000000085,-8.46280299579265
-0.058700000000000196,-8.617006527477939
-0.059700000000000086,-8.781113038262282
-0.0607000000000002,-8.948048971646358
-0.06170000000000009,-9.123473172829621
-0.0627000000000002,-9.280506127114641
-0.06370000000000009,-9.455930328297907
-0.0647000000000002,-9.628525106881439
-0.06570000000000009,-9.81668170976349
-0.0667000000000002,-10.00200889004581
-0.0677000000000001,-10.18733607032813
-0.0687000000000002,-10.391054497508694
-0.0697000000000001,-10.573552255191283
-0.07070000000000021,-10.79424721797023
-0.0717000000000001,-10.97391555305309
-0.07270000000000021,-11.18753695933271
-0.0737000000000001,-11.399743654312466
-0.07470000000000021,-11.604876792792895
-0.0757000000000001,-11.841133579870357
-0.07670000000000021,-12.056169697449842
-0.0777000000000001,-12.289597061927573
-0.07870000000000021,-12.537171539403955
-0.0797000000000001,-12.772013615181551
-0.08070000000000022,-13.049297029955099
-0.0817000000000001,-13.286968528332425
-0.08270000000000022,-13.551519541407187
-0.08370000000000011,-13.800508730183433
-0.08470000000000022,-14.036765517260893
-0.08570000000000011,-14.288584128636872
-0.08670000000000022,-14.557379275611227
-0.08770000000000011,-14.783733083589633
-0.08870000000000022,-15.03838111756534
-0.08970000000000011,-15.307176264539699
-0.09070000000000022,-15.575971411514052
-0.09170000000000011,-15.844766558488407
-0.09270000000000023,-16.127708818461418
-0.09370000000000012,-16.410651078434423
-0.09470000000000023,-16.693593338407435
-0.09570000000000012,-17.00482982437774
-0.09670000000000023,-17.34436053634535
-0.09770000000000012,-17.641449909317007
-0.09870000000000023,-17.896097943292716
-0.09970000000000012,-18.221481542261674
-0.10070000000000023,-18.504423802234676
-0.10170000000000012,-18.858101627200938
-0.10270000000000024,-19.141043887173947
-0.10370000000000013,-19.466427486142905
-0.10470000000000024,-19.749369746115914
-0.10570000000000013,-20.07475334508487
-0.10670000000000024,-20.357695605057877
-0.10770000000000013,-20.69722631702549
-0.10870000000000024,-21.008462802995794
-0.10970000000000013,-21.347993514963402
-0.11070000000000024,-21.645082887935057
-0.11170000000000013,-22.012907825899973
-0.11270000000000002,-22.324144311870278
-0.11370000000000013,-22.67782213683654
-0.11470000000000002,-22.989058622806844
-0.11570000000000014,-23.328589334774456
-0.11670000000000003,-23.61153159474746
-0.11770000000000014,-23.951062306715073
-0.11870000000000003,-24.24815167968673
-0.11970000000000014,-24.630123730650286
-0.12070000000000003,-24.941360216620595
-0.12170000000000014,-25.295038041586857
-0.12270000000000003,-25.592127414558515
-0.12370000000000014,-25.974099465522073
-0.12470000000000003,-26.242894612496432
-0.12570000000000014,-26.65316088945729
-0.12670000000000003,-26.89366181043435
-0.12770000000000015,-27.261486748399253
-0.12870000000000004,-27.558576121370916
-0.12970000000000015,-27.912253946337174
-0.13070000000000004,-28.308373110299385
-0.13170000000000015,-28.619609596269694
-0.13270000000000004,-28.93084608224
-0.13370000000000015,-29.213788342213007
-0.13470000000000004,-29.581613280177915
-0.13570000000000015,-29.906996879146874
-0.13670000000000004,-30.161644913122586
-0.13770000000000016,-30.43044006009694
-0.13870000000000005,-30.7841178850632
-0.13970000000000016,-31.038765919038905
-0.14070000000000005,-31.392443744005163
-0.14170000000000016,-31.703680229975475
-0.14270000000000005,-31.986622489948477
-0.14370000000000016,-32.354447427913385
-0.14470000000000005,-32.62324257488775
-0.14570000000000016,-32.92033194785941
-0.14670000000000005,-33.18912709483376
-0.14770000000000016,-33.44377512880947
-0.14870000000000005,-33.783305840777075
-0.14970000000000017,-34.06624810075008
-0.15070000000000006,-34.4057788127177
-0.15170000000000017,-34.64627973369475
-0.15270000000000006,-34.9150748806691
-0.15370000000000017,-35.198017140642115
-0.15470000000000006,-35.45266517461782
-0.15570000000000017,-35.74975454758948
-0.15670000000000006,-35.97610835556789
-0.15770000000000017,-36.329786180534136
-0.15870000000000006,-36.52784576251525
-0.15970000000000018,-36.86737647448285
-0.16070000000000007,-37.164465847454515
-0.16170000000000018,-37.34837831643697
-0.16270000000000007,-37.58887923741403
-0.16370000000000018,-37.78693881939513
-0.16470000000000007,-37.94255706238028
-0.16570000000000018,-38.22549932235329
-0.16670000000000007,-38.38111756533845
-0.16770000000000018,-38.678206938310105
-0.16870000000000007,-38.91870785928716
-0.16970000000000018,-39.116767441268266
-0.17070000000000007,-39.328974136248014
-0.17170000000000019,-39.61191639622103
-0.17270000000000008,-39.71094618721158
-0.1737000000000002,-39.90900576919269
-0.17470000000000008,-40.10706535117379
-0.1757000000000002,-40.37586049814815
-0.17670000000000008,-40.531478741133306
-0.1777000000000002,-40.715391210115754
-0.17870000000000008,-40.8993036790982
-0.1797000000000002,-41.05492192208336
-0.18070000000000008,-41.281275730061765
-0.1817000000000002,-41.33786418205637
-0.18270000000000008,-41.56421799003478
-0.1837000000000002,-41.69154200702263
-0.1847000000000001,-41.96033715399699
-0.1857000000000002,-42.14424962297944
-0.1867000000000001,-42.243279413969994
-0.1877000000000002,-42.497927447945706
-0.1887000000000001,-42.540368786941656
-0.1897000000000002,-42.79501682091736
-0.1907000000000001,-42.92234083790521
-0.1917000000000001,-43.19113598487957
-0.19269999999999998,-43.290165775870115
-0.1937000000000001,-43.51651958384853
-0.19469999999999998,-43.57310803584313
-0.1957000000000001,-43.75702050482558
-0.19669999999999999,-43.85605029581614
-0.1977000000000001,-43.91263874781074
-0.1987,-44.054109877797245
-0.1997000000000001,-44.068256990795895
-0.2007,-44.223875233781044
-0.2017000000000001,-44.2097281207824
-0.2027,-44.4077877027635
-0.2037000000000001,-44.520964606752706
-0.2047,-44.81805397972436
-0.2057000000000001,-44.81805397972436
-0.2067,-45.00196644870681
-0.2077000000000001,-44.97367222270952
-0.2087,-45.157584691691966
-0.2097000000000001,-45.17173180469062
-0.2107,-45.36979138667173
-0.2117000000000001,-45.38393849967037
-0.2127,-45.567850968652834
-0.2137000000000001,-45.624439420647434
-0.2147,-45.78005766363259
-0.2157000000000001,-45.82249900262854
-0.2167,-45.963970132615046
-0.21770000000000012,-46.077147036604245
-0.2187,-46.204471053592094
-0.21970000000000012,-46.204471053592094
-0.2207,-46.33179507057995
-0.22170000000000012,-46.36008929657725
-0.2227,-46.47326620056646
-0.22370000000000012,-46.544001765559706
-0.2247,-46.67132578254756
-0.22570000000000012,-46.77035557353811
-0.2267,-46.79864979953541
-0.22770000000000012,-46.99670938151652
-0.22870000000000001,-47.067444946509774
-0.22970000000000013,-47.27965164148953
-0.23070000000000002,-47.29379875448818
-0.23170000000000013,-47.449416997473335
-0.23270000000000002,-47.520152562466585
-0.23370000000000013,-47.633329466455784
-0.23470000000000002,-47.67577080545174
-0.23570000000000013,-47.77480059644228
-0.23670000000000002,-47.91627172642879
-0.2376999999999999,-48.086037082412595
-0.23870000000000002,-48.3406851163883
-0.2396999999999999,-48.29824377739235
-0.24070000000000003,-48.65192160235861
-0.24169999999999991,-48.538744698369406
-0.24270000000000003,-48.82168695834242
-0.24369999999999992,-48.75095139334916
-0.24470000000000003,-48.97730520132757
-0.24569999999999992,-49.019746540323524
-0.24670000000000003,-49.14707055731138
-0.24769999999999992,-49.28854168729788
-0.24870000000000003,-49.373424365289786
-0.24969999999999992,-49.571483947270885
-0.25070000000000003,-49.59977817326819
-0.2516999999999999,-49.86857332024254
-0.25270000000000004,-49.98175022423175
-0.2536999999999999,-49.967603111233096
-0.25470000000000004,-50.2788395972034
-0.2556999999999999,-50.335428049198
-0.25670000000000004,-50.61837030917101
-0.25769999999999993,-50.56178185717641
-0.25870000000000004,-50.88716545614537
-0.25969999999999993,-51.000342360134574
-0.26070000000000004,-51.15596060311972
-0.26169999999999993,-51.26913750710893
-0.26270000000000004,-51.481344202088685
-0.26369999999999993,-51.70769801006709
-0.26470000000000005,-51.89161047904954
-0.26569999999999994,-52.0189344960374
-0.26670000000000005,-52.17455273902255
-0.26769999999999994,-52.54237767698746
-0.26870000000000005,-52.74043725896857
-0.26969999999999994,-52.853614162957776
-0.27070000000000005,-53.136556422930774
-0.27169999999999994,-53.348763117910536
-0.27270000000000005,-53.46194002189973
-0.27369999999999994,-53.603411151886235
-0.27470000000000006,-53.815617846866
-0.27569999999999995,-54.05611876784305
-0.27670000000000006,-54.35320814081471
-0.27769999999999995,-54.508826383799864
-0.27870000000000006,-54.791768643772876
-0.27969999999999995,-55.046416677748574
-0.28070000000000006,-55.27277048572698
-0.28169999999999995,-55.5840069716973
-0.28270000000000006,-55.76791944067975
-0.28369999999999995,-55.96597902266086
-0.28470000000000006,-56.22062705663656
-0.28569999999999995,-56.41868663861767
-0.28670000000000007,-56.800658689581226
-0.28769999999999996,-56.956276932566375
-0.28870000000000007,-57.394837435524536
-0.28969999999999996,-57.67777969549755
-0.29070000000000007,-58.00316329446651
-0.29169999999999996,-58.427576684426015
-0.29270000000000007,-58.65393049240442
-0.29369999999999996,-59.16322656035583
-0.2947000000000001,-59.34713902933829
-0.29569999999999996,-59.92717066228296
-0.2967000000000001,-60.16767158326001
-0.29769999999999996,-60.64867342521412
-0.2987000000000001,-60.94576279818578
-0.29969999999999997,-61.34188196214799
-0.3007000000000001,-61.7380011261102
-0.30169999999999997,-62.14826740307106
-0.3027000000000001,-62.44535677604272
-0.30369999999999997,-62.99709418299008
-0.3047000000000001,-63.3366248949577
-0.30569999999999997,-63.78933251091451
-0.3067000000000001,-64.15715744887942
-0.3077,-64.66645351683083
-0.3087000000000001,-65.16160247178358
-0.3097,-65.5860158617431
-0.3107000000000001,-66.03872347769992
-0.3117,-66.43484264166212
-0.3127000000000001,-66.90169737061757
-0.3137,-67.35440498657438
-0.3147000000000001,-67.93443661951906
-0.3157,-68.33055578348127
-0.3167000000000001,-68.91058741642594
-0.3177,-69.4906190493706
-0.3187000000000001,-70.04235645631796
-0.3197,-70.62238808926263
-0.3207000000000001,-70.96191880123024
-0.3217,-71.45706775618301
-0.3227000000000001,-71.96636382413442
-0.3237,-72.46151277908717
-0.3247000000000001,-73.2537511070116
-0.3257,-73.60742893197786
-0.3267000000000001,-74.15916633892522
-0.3277,-74.72505085887124
-0.3287000000000001,-75.48899496079835
-0.3297,-75.88511412476056
-0.3307000000000001,-76.50758709670117
-0.3317,-77.243236972631
-0.3327000000000001,-77.65350324959186
-0.3337,-78.47403580351359
-0.3347000000000001,-78.88430208047446
-0.3357,-79.67654040839886
-0.3367000000000001,-80.12924802435568
-0.3377,-80.9497805782774
-0.3387000000000001,-81.47322375922747
-0.3397,-82.25131497415322
-0.3407000000000001,-82.6615812511141
-0.3417,-83.41137824004257
-0.3427000000000001,-83.80749740400476
-0.3437,-84.48655882793999
-0.3447000000000001,-85.13732602587791
-0.3457,-85.74565188481988
-0.3467000000000001,-86.18421238777805
-0.3477,-87.06133339369435
-0.3487000000000001,-87.82527749562148
-0.3497,-88.20724954658505
-0.3507000000000001,-89.08437055250135
-0.3517,-89.53707816845818
-0.3527000000000001,-89.96149155841768
-0.3537,-90.7254356603448
-0.3547000000000001,-91.44693842327598
-0.3557,-91.89964603923279
-0.35670000000000013,-92.64944302816124
-0.3577,-93.20118043510863
-0.35870000000000013,-93.78121206805329
-0.3597,-94.601744621975
-0.36070000000000013,-95.13933491592371
-0.3617,-95.93157324384813
-0.3626999999999999,-96.35598663380765
-0.3637,-97.11993073573475
-0.3646999999999999,-97.60093257768887
-0.3657,-98.3082882276214
-0.3666999999999999,-99.08637944254717
-0.3677,-99.41176304151614
-0.3686999999999999,-100.06253023945405
-0.36970000000000003,-100.82647434138116
-0.3706999999999999,-101.30747618333527
-0.37170000000000003,-101.66115400830152
-0.3726999999999999,-102.46753944922462
-0.37370000000000003,-102.83536438718951
-0.3746999999999999,-103.35880756813957
-0.37570000000000003,-104.02372187907615
-0.3766999999999999,-104.61790062501946
-0.37770000000000004,-104.88669577199381
-0.3786999999999999,-105.83455234290338
-0.37970000000000004,-106.35799552385346
-0.3806999999999999,-106.69752623582107
-0.38170000000000004,-107.50391167674414
-0.38269999999999993,-108.0556490836915
-0.38370000000000004,-108.36688556966182
-0.38469999999999993,-109.15912389758623
-0.38570000000000004,-109.73915553053091
-0.38669999999999993,-109.15912389758623
-0.38570000000000004,-108.0839433096888
-0.38469999999999993,-107.15023385177788
-0.38370000000000004,-105.8062581169061
-0.38269999999999993,-104.71693041601002
-0.38170000000000004,-103.85395652309235
-0.3806999999999999,-102.77877593519491
-0.37970000000000004,-101.49138865231772
-0.3786999999999999,-100.5010907424122
-0.37770000000000004,-99.41176304151614
-0.3766999999999999,-98.3082882276214
-0.37570000000000003,-97.34628454371318
-0.3746999999999999,-96.4550164247982
-0.37370000000000003,-95.28080604591021
-0.3726999999999999,-94.29050813600469
-0.37170000000000003,-93.20118043510863
-0.3706999999999999,-92.39479499418556
-0.36970000000000003,-91.34790863228542
-0.3686999999999999,-90.41419917437449
-0.3677,-89.49463682946222
-0.3666999999999999,-88.44775046756209
-0.3657,-87.57062946164578
-0.3646999999999999,-86.46715464775104
-0.3637,-85.70321054582392
-0.3626999999999999,-84.6563241839238
-0.3617,-83.58114359602637
-0.36070000000000013,-82.6898754771114
-0.3597,-81.69957756720586
-0.35870000000000013,-80.93563346527876
-0.3577,-79.95948266837188
-0.35670000000000013,-79.4643337134191
-0.3557,-78.48818291651223
-0.3547000000000001,-77.80912149257702
-0.3537,-77.08761872964584
-0.3527000000000001,-76.0407323677457
-0.3517,-75.23434692682265
-0.3507000000000001,-74.31478458191037
-0.3497,-73.60742893197786
-0.3487000000000001,-72.65957236106827
-0.3477,-72.09368784112228
-0.3467000000000001,-71.31559662619651
-0.3457,-70.48091695927613
-0.3447000000000001,-69.58964884036115
-0.3437,-68.99547009441784
-0.3427000000000001,-68.11834908850152
-0.3417,-67.43928766456631
-0.3407000000000001,-66.68949067563783
-0.3397,-65.95384079970802
-0.3387000000000001,-65.11916113278764
-0.3377,-64.36936414385917
-0.3367000000000001,-63.5063902509415
-0.3357,-62.501945228037314
-0.3347000000000001,-61.72385401311155
-0.3337,-60.93161568518713
-0.3327000000000001,-60.16767158326001
-0.3317,-59.389580368334244
-0.3307000000000001,-58.72466605739767
-0.3297,-58.05975174646111
-0.3287000000000001,-57.50801433951374
-0.3277,-56.77236446358392
-0.3267000000000001,-56.26306839563251
-0.3257,-55.555712745699985
-0.3247000000000001,-54.919092660760725
-0.3237,-54.28247257582146
-0.3227000000000001,-53.65999960388084
-0.3217,-52.95264395394832
-0.3207000000000001,-52.31602386900906
-0.3197,-51.566226880080585
-0.3187000000000001,-50.98619524713592
-0.3177,-50.46275206618586
-0.3167000000000001,-49.95345599823444
-0.3157,-49.24610034830193
-0.3147000000000001,-48.524597585370756
-0.3137,-48.100184195411245
-0.3127000000000001,-47.506005449467935
-0.3117,-46.88353247752732
-0.3107000000000001,-46.27520661858535
-0.3097,-45.75176343763528
-0.3087000000000001,-45.412232725667685
-0.3077,-44.95952510971087
-0.3067000000000001,-44.238022346779694
-0.30569999999999997,-43.61554937483908
-0.3047000000000001,-42.97892928989981
-0.30369999999999997,-42.497927447945706
-0.3027000000000001,-41.97448426699564
-0.30169999999999997,-41.56421799003478
-0.3007000000000001,-40.8993036790982
-0.29969999999999997,-40.36171338514949
-0.2987000000000001,-39.78168175220483
-0.29769999999999996,-39.272385684253415
-0.2967000000000001,-38.72064827730605
-0.29569999999999996,-38.33867622634249
-0.2947000000000001,-37.801085932393775
-0.29369999999999996,-37.291789864442364
-0.29270000000000007,-36.95225915247476
-0.29169999999999996,-36.4288159715247
-0.29070000000000007,-35.89122567757598
-0.28969999999999996,-35.367782496625914
-0.28870000000000007,-34.90092776767045
-0.28769999999999996,-34.377484586720385
-0.28670000000000007,-33.924776970763574
-0.28569999999999995,-33.373039563816214
-0.28470000000000006,-32.93447906085806
-0.28369999999999995,-32.439330105905285
-0.28270000000000006,-32.01491671594578
-0.28169999999999995,-31.64709177798087
-0.28070000000000006,-31.151942823028104
-0.27969999999999995,-30.699235207071297
-0.27870000000000006,-30.50117562509019
-0.27769999999999995,-30.06261512213203
-0.27670000000000006,-29.652348845171172
-0.27569999999999995,-29.157199890218404
-0.27470000000000006,-28.775227839254843
-0.27369999999999994,-28.44984424028589
-0.27270000000000005,-28.02543085032638
-0.27169999999999994,-27.572723234369565
-0.27070000000000005,-27.176604070407354
-0.26969999999999994,-26.752190680447846
-0.26870000000000005,-26.356071516485635
-0.26769999999999994,-25.931658126526123
-0.26670000000000005,-25.81848122253692
-0.26569999999999994,-25.37992071957876
