Aug. 28, 2024   16:11:47
Cyclic Voltammetry
File: c:/users/guazh/data/20240813_batch_181_500/2024-08-25-exp207\exp207-2024-08-28t16_03_15-h2koh\exp207_cv_sr_700mvs_efin_-1400mv.bin
Data Source:  Experiment
Instrument Model:  CHI760E
Header: CV ran at 700 mVs
Note: 

Init E (V) = -1
High E (V) = -1
Low E (V) = -1.4
Final E (V) = -1
Init P/N = N
Scan Rate (V/s) = 0.7
Segment = 3
Sample Interval (V) = 0.001
Quiet Time (sec) = 2
Sensitivity (A/V) = 0.01
Comp R (ohm) = 1.4

Results:

Channel 1:
Segment 1:

Segment 2:

Segment 3:

Potential/V, Current/A

-1.000, -4.609e-5
-1.001, 3.715e-5
-1.002, 9.882e-5
-1.003, 1.481e-4
-1.004, 1.944e-4
-1.005, 2.345e-4
-1.006, 2.715e-4
-1.007, 3.085e-4
-1.008, 3.393e-4
-1.009, 3.701e-4
-1.010, 3.979e-4
-1.011, 4.256e-4
-1.012, 4.503e-4
-1.013, 4.750e-4
-1.014, 4.965e-4
-1.015, 5.212e-4
-1.016, 5.428e-4
-1.017, 5.674e-4
-1.018, 5.983e-4
-1.019, 6.291e-4
-1.020, 6.630e-4
-1.021, 6.969e-4
-1.022, 7.278e-4
-1.023, 7.617e-4
-1.024, 7.863e-4
-1.025, 8.110e-4
-1.026, 8.264e-4
-1.027, 8.449e-4
-1.028, 8.573e-4
-1.029, 8.727e-4
-1.030, 8.881e-4
-1.031, 9.066e-4
-1.032, 9.251e-4
-1.033, 9.528e-4
-1.034, 9.775e-4
-1.035, 1.005e-3
-1.036, 1.036e-3
-1.037, 1.070e-3
-1.038, 1.104e-3
-1.039, 1.138e-3
-1.040, 1.172e-3
-1.041, 1.203e-3
-1.042, 1.233e-3
-1.043, 1.264e-3
-1.044, 1.295e-3
-1.045, 1.323e-3
-1.046, 1.347e-3
-1.047, 1.372e-3
-1.048, 1.397e-3
-1.049, 1.421e-3
-1.050, 1.443e-3
-1.051, 1.462e-3
-1.052, 1.477e-3
-1.053, 1.492e-3
-1.054, 1.505e-3
-1.055, 1.520e-3
-1.056, 1.532e-3
-1.057, 1.542e-3
-1.058, 1.554e-3
-1.059, 1.563e-3
-1.060, 1.576e-3
-1.061, 1.585e-3
-1.062, 1.594e-3
-1.063, 1.603e-3
-1.064, 1.610e-3
-1.065, 1.619e-3
-1.066, 1.625e-3
-1.067, 1.631e-3
-1.068, 1.637e-3
-1.069, 1.640e-3
-1.070, 1.650e-3
-1.071, 1.656e-3
-1.072, 1.665e-3
-1.073, 1.668e-3
-1.074, 1.674e-3
-1.075, 1.684e-3
-1.076, 1.687e-3
-1.077, 1.693e-3
-1.078, 1.699e-3
-1.079, 1.702e-3
-1.080, 1.705e-3
-1.081, 1.711e-3
-1.082, 1.717e-3
-1.083, 1.724e-3
-1.084, 1.727e-3
-1.085, 1.730e-3
-1.086, 1.733e-3
-1.087, 1.736e-3
-1.088, 1.739e-3
-1.089, 1.742e-3
-1.090, 1.745e-3
-1.091, 1.745e-3
-1.092, 1.748e-3
-1.093, 1.754e-3
-1.094, 1.754e-3
-1.095, 1.758e-3
-1.096, 1.758e-3
-1.097, 1.761e-3
-1.098, 1.764e-3
-1.099, 1.764e-3
-1.100, 1.767e-3
-1.101, 1.767e-3
-1.102, 1.767e-3
-1.103, 1.770e-3
-1.104, 1.770e-3
-1.105, 1.773e-3
-1.106, 1.770e-3
-1.107, 1.773e-3
-1.108, 1.773e-3
-1.109, 1.773e-3
-1.110, 1.776e-3
-1.111, 1.776e-3
-1.112, 1.773e-3
-1.113, 1.773e-3
-1.114, 1.773e-3
-1.115, 1.773e-3
-1.116, 1.773e-3
-1.117, 1.773e-3
-1.118, 1.770e-3
-1.119, 1.770e-3
-1.120, 1.770e-3
-1.121, 1.770e-3
-1.122, 1.767e-3
-1.123, 1.767e-3
-1.124, 1.764e-3
-1.125, 1.764e-3
-1.126, 1.764e-3
-1.127, 1.761e-3
-1.128, 1.761e-3
-1.129, 1.758e-3
-1.130, 1.758e-3
-1.131, 1.758e-3
-1.132, 1.758e-3
-1.133, 1.754e-3
-1.134, 1.751e-3
-1.135, 1.748e-3
-1.136, 1.748e-3
-1.137, 1.745e-3
-1.138, 1.742e-3
-1.139, 1.739e-3
-1.140, 1.739e-3
-1.141, 1.736e-3
-1.142, 1.736e-3
-1.143, 1.733e-3
-1.144, 1.733e-3
-1.145, 1.730e-3
-1.146, 1.727e-3
-1.147, 1.727e-3
-1.148, 1.724e-3
-1.149, 1.721e-3
-1.150, 1.721e-3
-1.151, 1.717e-3
-1.152, 1.717e-3
-1.153, 1.717e-3
-1.154, 1.717e-3
-1.155, 1.714e-3
-1.156, 1.711e-3
-1.157, 1.708e-3
-1.158, 1.708e-3
-1.159, 1.705e-3
-1.160, 1.705e-3
-1.161, 1.702e-3
-1.162, 1.699e-3
-1.163, 1.699e-3
-1.164, 1.699e-3
-1.165, 1.699e-3
-1.166, 1.696e-3
-1.167, 1.696e-3
-1.168, 1.696e-3
-1.169, 1.693e-3
-1.170, 1.693e-3
-1.171, 1.690e-3
-1.172, 1.687e-3
-1.173, 1.687e-3
-1.174, 1.687e-3
-1.175, 1.687e-3
-1.176, 1.687e-3
-1.177, 1.687e-3
-1.178, 1.687e-3
-1.179, 1.687e-3
-1.180, 1.687e-3
-1.181, 1.687e-3
-1.182, 1.684e-3
-1.183, 1.684e-3
-1.184, 1.684e-3
-1.185, 1.680e-3
-1.186, 1.680e-3
-1.187, 1.684e-3
-1.188, 1.684e-3
-1.189, 1.684e-3
-1.190, 1.684e-3
-1.191, 1.687e-3
-1.192, 1.684e-3
-1.193, 1.687e-3
-1.194, 1.684e-3
-1.195, 1.684e-3
-1.196, 1.684e-3
-1.197, 1.684e-3
-1.198, 1.690e-3
-1.199, 1.690e-3
-1.200, 1.690e-3
-1.201, 1.693e-3
-1.202, 1.696e-3
-1.203, 1.699e-3
-1.204, 1.696e-3
-1.205, 1.696e-3
-1.206, 1.699e-3
-1.207, 1.699e-3
-1.208, 1.702e-3
-1.209, 1.705e-3
-1.210, 1.705e-3
-1.211, 1.708e-3
-1.212, 1.711e-3
-1.213, 1.714e-3
-1.214, 1.717e-3
-1.215, 1.721e-3
-1.216, 1.721e-3
-1.217, 1.724e-3
-1.218, 1.727e-3
-1.219, 1.730e-3
-1.220, 1.733e-3
-1.221, 1.736e-3
-1.222, 1.739e-3
-1.223, 1.745e-3
-1.224, 1.751e-3
-1.225, 1.754e-3
-1.226, 1.758e-3
-1.227, 1.761e-3
-1.228, 1.767e-3
-1.229, 1.770e-3
-1.230, 1.776e-3
-1.231, 1.779e-3
-1.232, 1.785e-3
-1.233, 1.791e-3
-1.234, 1.795e-3
-1.235, 1.801e-3
-1.236, 1.807e-3
-1.237, 1.810e-3
-1.238, 1.819e-3
-1.239, 1.822e-3
-1.240, 1.828e-3
-1.241, 1.835e-3
-1.242, 1.841e-3
-1.243, 1.847e-3
-1.244, 1.853e-3
-1.245, 1.862e-3
-1.246, 1.872e-3
-1.247, 1.878e-3
-1.248, 1.884e-3
-1.249, 1.896e-3
-1.250, 1.902e-3
-1.251, 1.912e-3
-1.252, 1.924e-3
-1.253, 1.930e-3
-1.254, 1.936e-3
-1.255, 1.949e-3
-1.256, 1.955e-3
-1.257, 1.967e-3
-1.258, 1.976e-3
-1.259, 1.989e-3
-1.260, 1.998e-3
-1.261, 2.007e-3
-1.262, 2.020e-3
-1.263, 2.032e-3
-1.264, 2.038e-3
-1.265, 2.050e-3
-1.266, 2.060e-3
-1.267, 2.072e-3
-1.268, 2.087e-3
-1.269, 2.097e-3
-1.270, 2.112e-3
-1.271, 2.124e-3
-1.272, 2.140e-3
-1.273, 2.155e-3
-1.274, 2.168e-3
-1.275, 2.180e-3
-1.276, 2.192e-3
-1.277, 2.208e-3
-1.278, 2.223e-3
-1.279, 2.238e-3
-1.280, 2.257e-3
-1.281, 2.275e-3
-1.282, 2.291e-3
-1.283, 2.306e-3
-1.284, 2.328e-3
-1.285, 2.340e-3
-1.286, 2.359e-3
-1.287, 2.377e-3
-1.288, 2.393e-3
-1.289, 2.414e-3
-1.290, 2.433e-3
-1.291, 2.451e-3
-1.292, 2.470e-3
-1.293, 2.491e-3
-1.294, 2.516e-3
-1.295, 2.538e-3
-1.296, 2.559e-3
-1.297, 2.581e-3
-1.298, 2.602e-3
-1.299, 2.624e-3
-1.300, 2.649e-3
-1.301, 2.670e-3
-1.302, 2.695e-3
-1.303, 2.719e-3
-1.304, 2.741e-3
-1.305, 2.769e-3
-1.306, 2.793e-3
-1.307, 2.818e-3
-1.308, 2.843e-3
-1.309, 2.867e-3
-1.310, 2.892e-3
-1.311, 2.917e-3
-1.312, 2.945e-3
-1.313, 2.972e-3
-1.314, 2.997e-3
-1.315, 3.025e-3
-1.316, 3.056e-3
-1.317, 3.083e-3
-1.318, 3.114e-3
-1.319, 3.145e-3
-1.320, 3.173e-3
-1.321, 3.204e-3
-1.322, 3.234e-3
-1.323, 3.265e-3
-1.324, 3.296e-3
-1.325, 3.327e-3
-1.326, 3.358e-3
-1.327, 3.392e-3
-1.328, 3.425e-3
-1.329, 3.459e-3
-1.330, 3.493e-3
-1.331, 3.524e-3
-1.332, 3.558e-3
-1.333, 3.592e-3
-1.334, 3.626e-3
-1.335, 3.660e-3
-1.336, 3.691e-3
-1.337, 3.728e-3
-1.338, 3.765e-3
-1.339, 3.799e-3
-1.340, 3.832e-3
-1.341, 3.869e-3
-1.342, 3.903e-3
-1.343, 3.940e-3
-1.344, 3.974e-3
-1.345, 4.011e-3
-1.346, 4.042e-3
-1.347, 4.076e-3
-1.348, 4.113e-3
-1.349, 4.144e-3
-1.350, 4.181e-3
-1.351, 4.218e-3
-1.352, 4.252e-3
-1.353, 4.289e-3
-1.354, 4.326e-3
-1.355, 4.363e-3
-1.356, 4.400e-3
-1.357, 4.437e-3
-1.358, 4.474e-3
-1.359, 4.514e-3
-1.360, 4.548e-3
-1.361, 4.591e-3
-1.362, 4.628e-3
-1.363, 4.665e-3
-1.364, 4.705e-3
-1.365, 4.742e-3
-1.366, 4.782e-3
-1.367, 4.819e-3
-1.368, 4.859e-3
-1.369, 4.896e-3
-1.370, 4.936e-3
-1.371, 4.973e-3
-1.372, 5.013e-3
-1.373, 5.056e-3
-1.374, 5.097e-3
-1.375, 5.137e-3
-1.376, 5.180e-3
-1.377, 5.220e-3
-1.378, 5.263e-3
-1.379, 5.303e-3
-1.380, 5.346e-3
-1.381, 5.389e-3
-1.382, 5.436e-3
-1.383, 5.479e-3
-1.384, 5.525e-3
-1.385, 5.571e-3
-1.386, 5.614e-3
-1.387, 5.661e-3
-1.388, 5.710e-3
-1.389, 5.756e-3
-1.390, 5.803e-3
-1.391, 5.849e-3
-1.392, 5.898e-3
-1.393, 5.944e-3
-1.394, 5.994e-3
-1.395, 6.040e-3
-1.396, 6.089e-3
-1.397, 6.139e-3
-1.398, 6.191e-3
-1.399, 6.240e-3
-1.400, 6.213e-3
-1.399, 6.065e-3
-1.398, 5.941e-3
-1.397, 5.830e-3
-1.396, 5.729e-3
-1.395, 5.636e-3
-1.394, 5.547e-3
-1.393, 5.467e-3
-1.392, 5.389e-3
-1.391, 5.312e-3
-1.390, 5.241e-3
-1.389, 5.167e-3
-1.388, 5.093e-3
-1.387, 5.026e-3
-1.386, 4.958e-3
-1.385, 4.890e-3
-1.384, 4.822e-3
-1.383, 4.754e-3
-1.382, 4.690e-3
-1.381, 4.625e-3
-1.380, 4.560e-3
-1.379, 4.501e-3
-1.378, 4.440e-3
-1.377, 4.378e-3
-1.376, 4.320e-3
-1.375, 4.261e-3
-1.374, 4.199e-3
-1.373, 4.144e-3
-1.372, 4.085e-3
-1.371, 4.027e-3
-1.370, 3.971e-3
-1.369, 3.919e-3
-1.368, 3.866e-3
-1.367, 3.811e-3
-1.366, 3.758e-3
-1.365, 3.709e-3
-1.364, 3.657e-3
-1.363, 3.604e-3
-1.362, 3.555e-3
-1.361, 3.503e-3
-1.360, 3.453e-3
-1.359, 3.404e-3
-1.358, 3.355e-3
-1.357, 3.308e-3
-1.356, 3.259e-3
-1.355, 3.213e-3
-1.354, 3.163e-3
-1.353, 3.117e-3
-1.352, 3.074e-3
-1.351, 3.025e-3
-1.350, 2.982e-3
-1.349, 2.935e-3
-1.348, 2.889e-3
-1.347, 2.846e-3
-1.346, 2.800e-3
-1.345, 2.760e-3
-1.344, 2.713e-3
-1.343, 2.670e-3
-1.342, 2.630e-3
-1.341, 2.587e-3
-1.340, 2.544e-3
-1.339, 2.501e-3
-1.338, 2.457e-3
-1.337, 2.414e-3
-1.336, 2.374e-3
-1.335, 2.331e-3
-1.334, 2.291e-3
-1.333, 2.251e-3
-1.332, 2.211e-3
-1.331, 2.171e-3
-1.330, 2.131e-3
-1.329, 2.091e-3
-1.328, 2.050e-3
-1.327, 2.010e-3
-1.326, 1.970e-3
-1.325, 1.933e-3
-1.324, 1.893e-3
-1.323, 1.856e-3
-1.322, 1.819e-3
-1.321, 1.779e-3
-1.320, 1.745e-3
-1.319, 1.708e-3
-1.318, 1.671e-3
-1.317, 1.637e-3
-1.316, 1.597e-3
-1.315, 1.563e-3
-1.314, 1.526e-3
-1.313, 1.492e-3
-1.312, 1.455e-3
-1.311, 1.421e-3
-1.310, 1.388e-3
-1.309, 1.357e-3
-1.308, 1.323e-3
-1.307, 1.289e-3
-1.306, 1.255e-3
-1.305, 1.224e-3
-1.304, 1.190e-3
-1.303, 1.162e-3
-1.302, 1.129e-3
-1.301, 1.098e-3
-1.300, 1.064e-3
-1.299, 1.033e-3
-1.298, 1.005e-3
-1.297, 9.744e-4
-1.296, 9.467e-4
-1.295, 9.189e-4
-1.294, 8.881e-4
-1.293, 8.603e-4
-1.292, 8.326e-4
-1.291, 8.048e-4
-1.290, 7.771e-4
-1.289, 7.494e-4
-1.288, 7.247e-4
-1.287, 7.000e-4
-1.286, 6.754e-4
-1.285, 6.507e-4
-1.284, 6.260e-4
-1.283, 6.044e-4
-1.282, 5.798e-4
-1.281, 5.582e-4
-1.280, 5.366e-4
-1.279, 5.120e-4
-1.278, 4.904e-4
-1.277, 4.688e-4
-1.276, 4.472e-4
-1.275, 4.287e-4
-1.274, 4.102e-4
-1.273, 3.917e-4
-1.272, 3.732e-4
-1.271, 3.547e-4
-1.270, 3.362e-4
-1.269, 3.208e-4
-1.268, 3.023e-4
-1.267, 2.838e-4
-1.266, 2.684e-4
-1.265, 2.530e-4
-1.264, 2.376e-4
-1.263, 2.221e-4
-1.262, 2.067e-4
-1.261, 1.944e-4
-1.260, 1.790e-4
-1.259, 1.666e-4
-1.258, 1.512e-4
-1.257, 1.358e-4
-1.256, 1.235e-4
-1.255, 1.111e-4
-1.254, 9.573e-5
-1.253, 8.340e-5
-1.252, 7.107e-5
-1.251, 5.873e-5
-1.250, 4.640e-5
-1.249, 3.715e-5
-1.248, 2.482e-5
-1.247, 1.557e-5
-1.246, 1.559e-7
-1.245, -9.093e-6
-1.244, -2.143e-5
-1.243, -3.376e-5
-1.242, -4.301e-5
-1.241, -5.534e-5
-1.240, -6.767e-5
-1.239, -7.692e-5
-1.238, -8.617e-5
-1.237, -9.542e-5
-1.236, -1.078e-4
-1.235, -1.170e-4
-1.234, -1.293e-4
-1.233, -1.386e-4
-1.232, -1.509e-4
-1.231, -1.602e-4
-1.230, -1.725e-4
-1.229, -1.848e-4
-1.228, -1.941e-4
-1.227, -2.033e-4
-1.226, -2.126e-4
-1.225, -2.249e-4
-1.224, -2.342e-4
-1.223, -2.434e-4
-1.222, -2.527e-4
-1.221, -2.619e-4
-1.220, -2.712e-4
-1.219, -2.804e-4
-1.218, -2.866e-4
-1.217, -2.927e-4
-1.216, -3.020e-4
-1.215, -3.082e-4
-1.214, -3.174e-4
-1.213, -3.236e-4
-1.212, -3.328e-4
-1.211, -3.390e-4
-1.210, -3.452e-4
-1.209, -3.544e-4
-1.208, -3.606e-4
-1.207, -3.698e-4
-1.206, -3.760e-4
-1.205, -3.821e-4
-1.204, -3.883e-4
-1.203, -3.945e-4
-1.202, -4.006e-4
-1.201, -4.068e-4
-1.200, -4.130e-4
-1.199, -4.191e-4
-1.198, -4.253e-4
-1.197, -4.346e-4
-1.196, -4.407e-4
-1.195, -4.469e-4
-1.194, -4.531e-4
-1.193, -4.561e-4
-1.192, -4.623e-4
-1.191, -4.716e-4
-1.190, -4.777e-4
-1.189, -4.839e-4
-1.188, -4.931e-4
-1.187, -5.024e-4
-1.186, -5.116e-4
-1.185, -5.209e-4
-1.184, -5.332e-4
-1.183, -5.394e-4
-1.182, -5.456e-4
-1.181, -5.548e-4
-1.180, -5.641e-4
-1.179, -5.733e-4
-1.178, -5.826e-4
-1.177, -5.918e-4
-1.176, -6.041e-4
-1.175, -6.165e-4
-1.174, -6.288e-4
-1.173, -6.411e-4
-1.172, -6.535e-4
-1.171, -6.658e-4
-1.170, -6.781e-4
-1.169, -6.905e-4
-1.168, -7.028e-4
-1.167, -7.120e-4
-1.166, -7.244e-4
-1.165, -7.367e-4
-1.164, -7.521e-4
-1.163, -7.614e-4
-1.162, -7.737e-4
-1.161, -7.830e-4
-1.160, -7.922e-4
-1.159, -8.045e-4
-1.158, -8.138e-4
-1.157, -8.230e-4
-1.156, -8.323e-4
-1.155, -8.415e-4
-1.154, -8.508e-4
-1.153, -8.600e-4
-1.152, -8.693e-4
-1.151, -8.785e-4
-1.150, -8.847e-4
-1.149, -8.939e-4
-1.148, -9.032e-4
-1.147, -9.094e-4
-1.146, -9.155e-4
-1.145, -9.217e-4
-1.144, -9.279e-4
-1.143, -9.340e-4
-1.142, -9.433e-4
-1.141, -9.494e-4
-1.140, -9.556e-4
-1.139, -9.618e-4
-1.138, -9.679e-4
-1.137, -9.741e-4
-1.136, -9.834e-4
-1.135, -9.864e-4
-1.134, -9.926e-4
-1.133, -9.957e-4
-1.132, -1.002e-3
-1.131, -1.005e-3
-1.130, -1.011e-3
-1.129, -1.020e-3
-1.128, -1.023e-3
-1.127, -1.030e-3
-1.126, -1.033e-3
-1.125, -1.039e-3
-1.124, -1.045e-3
-1.123, -1.048e-3
-1.122, -1.054e-3
-1.121, -1.057e-3
-1.120, -1.064e-3
-1.119, -1.067e-3
-1.118, -1.073e-3
-1.117, -1.076e-3
-1.116, -1.082e-3
-1.115, -1.088e-3
-1.114, -1.094e-3
-1.113, -1.097e-3
-1.112, -1.101e-3
-1.111, -1.104e-3
-1.110, -1.110e-3
-1.109, -1.113e-3
-1.108, -1.116e-3
-1.107, -1.119e-3
-1.106, -1.125e-3
-1.105, -1.128e-3
-1.104, -1.134e-3
-1.103, -1.141e-3
-1.102, -1.144e-3
-1.101, -1.150e-3
-1.100, -1.150e-3
-1.099, -1.156e-3
-1.098, -1.162e-3
-1.097, -1.165e-3
-1.096, -1.168e-3
-1.095, -1.171e-3
-1.094, -1.178e-3
-1.093, -1.184e-3
-1.092, -1.190e-3
-1.091, -1.193e-3
-1.090, -1.196e-3
-1.089, -1.202e-3
-1.088, -1.205e-3
-1.087, -1.212e-3
-1.086, -1.215e-3
-1.085, -1.221e-3
-1.084, -1.224e-3
-1.083, -1.227e-3
-1.082, -1.233e-3
-1.081, -1.239e-3
-1.080, -1.242e-3
-1.079, -1.249e-3
-1.078, -1.255e-3
-1.077, -1.255e-3
-1.076, -1.261e-3
-1.075, -1.267e-3
-1.074, -1.267e-3
-1.073, -1.273e-3
-1.072, -1.279e-3
-1.071, -1.289e-3
-1.070, -1.289e-3
-1.069, -1.295e-3
-1.068, -1.298e-3
-1.067, -1.304e-3
-1.066, -1.310e-3
-1.065, -1.316e-3
-1.064, -1.319e-3
-1.063, -1.322e-3
-1.062, -1.329e-3
-1.061, -1.335e-3
-1.060, -1.338e-3
-1.059, -1.344e-3
-1.058, -1.347e-3
-1.057, -1.356e-3
-1.056, -1.359e-3
-1.055, -1.369e-3
-1.054, -1.372e-3
-1.053, -1.381e-3
-1.052, -1.384e-3
-1.051, -1.384e-3
-1.050, -1.393e-3
-1.049, -1.403e-3
-1.048, -1.409e-3
-1.047, -1.415e-3
-1.046, -1.421e-3
-1.045, -1.430e-3
-1.044, -1.437e-3
-1.043, -1.443e-3
-1.042, -1.449e-3
-1.041, -1.458e-3
-1.040, -1.461e-3
-1.039, -1.470e-3
-1.038, -1.477e-3
-1.037, -1.486e-3
-1.036, -1.492e-3
-1.035, -1.498e-3
-1.034, -1.498e-3
-1.033, -1.523e-3
-1.032, -1.529e-3
-1.031, -1.538e-3
-1.030, -1.541e-3
-1.029, -1.548e-3
-1.028, -1.554e-3
-1.027, -1.563e-3
-1.026, -1.569e-3
-1.025, -1.578e-3
-1.024, -1.588e-3
-1.023, -1.597e-3
-1.022, -1.606e-3
-1.021, -1.615e-3
-1.020, -1.622e-3
-1.019, -1.631e-3
-1.018, -1.640e-3
-1.017, -1.652e-3
-1.016, -1.659e-3
-1.015, -1.668e-3
-1.014, -1.677e-3
-1.013, -1.686e-3
-1.012, -1.699e-3
-1.011, -1.708e-3
-1.010, -1.720e-3
-1.009, -1.726e-3
-1.008, -1.739e-3
-1.007, -1.748e-3
-1.006, -1.760e-3
-1.005, -1.773e-3
-1.004, -1.782e-3
-1.003, -1.791e-3
-1.002, -1.800e-3
-1.001, -1.813e-3
