Potential V vs RHE, Current mA cm-2
0.013299999999999867,-0.031222678388021355
0.012299999999999978,-0.05551327140670404
0.011299999999999866,-0.06487866021181057
0.010299999999999976,-0.07130144951319785
0.009299999999999864,-0.07724323697263101
0.008299999999999974,-0.08066683831830439
0.007299999999999862,-0.08307184752807495
0.006299999999999972,-0.08534953272085766
0.00529999999999986,-0.08868825138853914
0.0042999999999999705,-0.09279091415814776
0.0032999999999998586,-0.09537983583690077
0.0022999999999999687,-0.09670966445877392
0.0012999999999998568,-0.0988175842955728
0.00029999999999996696,-0.10197239049427186
-0.000700000000000145,-0.1047452246420073
-0.0017000000000000348,-0.1081405317616834
-0.0027000000000001467,-0.10863568071663617
-0.0037000000000000366,-0.11068701210144047
-0.0047000000000001485,-0.11460576240206662
-0.005700000000000038,-0.11708150717683044
-0.00670000000000015,-0.12049096140950517
-0.00770000000000004,-0.12129734685042824
-0.008700000000000152,-0.12421165212815022
-0.009700000000000042,-0.1277767246038101
-0.010700000000000154,-0.1317662104694295
-0.011700000000000044,-0.13429854369618793
-0.012700000000000156,-0.1363923164199882
-0.013700000000000045,-0.13905197366373448
-0.014700000000000157,-0.1421784856364362
-0.015700000000000047,-0.14727144631595032
-0.01670000000000016,-0.1498179266557074
-0.01770000000000005,-0.15293029151541046
-0.01870000000000016,-0.15575971411514053
-0.01970000000000005,-0.15915502123481662
-0.020700000000000163,-0.16509680869424978
-0.021700000000000053,-0.16778476016399335
-0.022700000000000164,-0.17146300954364244
-0.023700000000000054,-0.17400948988339954
-0.024700000000000166,-0.17896097943292713
-0.025700000000000056,-0.18419541124242778
-0.026700000000000168,-0.18843954514202288
-0.027700000000000058,-0.19155191000172597
-0.02870000000000017,-0.1965033995512536
-0.02970000000000006,-0.2007475334508487
-0.03070000000000017,-0.20612343639033584
-0.03170000000000006,-0.2116408104598095
-0.03270000000000017,-0.21503611757948557
-0.03370000000000006,-0.22012907825899972
-0.034700000000000175,-0.2250805678085273
-0.035700000000000065,-0.23201265317786599
-0.03670000000000018,-0.23710561385738013
-0.03770000000000007,-0.24078386323702924
-0.03870000000000018,-0.24559388165657034
-0.03970000000000007,-0.251960082505963
-0.04070000000000018,-0.25761892770542316
-0.04170000000000007,-0.2648339553347349
-0.04270000000000018,-0.268229262454411
-0.04370000000000007,-0.27303928087395213
-0.044700000000000184,-0.2812446064131693
-0.045700000000000074,-0.28676198048264295
-0.046700000000000186,-0.29369406585198166
-0.047700000000000076,-0.29977732444140126
-0.04870000000000019,-0.3033141026910639
-0.04970000000000008,-0.31208531275022705
-0.05070000000000019,-0.3170368022997547
-0.05170000000000008,-0.3239688876690934
-0.05270000000000019,-0.3306180307784591
-0.05370000000000008,-0.3345792224180812
-0.05470000000000019,-0.34363337473721745
-0.05570000000000008,-0.3492922199366776
-0.056700000000000195,-0.3574975454758948
-0.057700000000000085,-0.3623075638954359
-0.058700000000000196,-0.36796640909489603
-0.059700000000000086,-0.3757473212441537
-0.0607000000000002,-0.3826794066134924
-0.06170000000000009,-0.3917335589326287
-0.0627000000000002,-0.39583622170223726
-0.06370000000000009,-0.4019194802916569
-0.0647000000000002,-0.4088515656609956
-0.06570000000000009,-0.41748130459017235
-0.0667000000000002,-0.4239889765695515
-0.0677000000000001,-0.42851605272911963
-0.0687000000000002,-0.43728726278828284
-0.0697000000000001,-0.4422387523378105
-0.07070000000000021,-0.4520002603068792
-0.0717000000000001,-0.4572346921163799
-0.07270000000000021,-0.46317647957581304
-0.0737000000000001,-0.47053297833511115
-0.07470000000000021,-0.4750600544946793
-0.0757000000000001,-0.48496303359373455
-0.07670000000000021,-0.49387571478288433
-0.0777000000000001,-0.4935927725229112
-0.07870000000000021,-0.505334876311791
-0.0797000000000001,-0.5088716545614537
-0.08070000000000022,-0.5176428646206169
-0.0817000000000001,-0.5245749499899556
-0.08270000000000022,-0.5300923240594293
-0.08370000000000011,-0.5339120445690649
-0.08470000000000022,-0.5440979659280931
-0.08570000000000011,-0.5491909266076073
-0.08670000000000022,-0.557537723276811
-0.08770000000000011,-0.5622062705663656
-0.08870000000000022,-0.5663089333359742
-0.08970000000000011,-0.5732410187053129
-0.09070000000000022,-0.5811634019845571
-0.09170000000000011,-0.5886613718738418
-0.09270000000000023,-0.5941787459433153
-0.09370000000000012,-0.599130235492843
-0.09470000000000023,-0.6059208497321952
-0.09570000000000012,-0.6124285217115744
-0.09670000000000023,-0.6192191359509266
-0.09770000000000012,-0.6224729719406161
-0.09870000000000023,-0.6271415192301707
-0.09970000000000012,-0.6344980179894689
-0.10070000000000023,-0.6421374590087401
-0.10170000000000012,-0.6463815929083352
-0.10270000000000024,-0.6537380916676334
-0.10370000000000013,-0.6560016297474174
-0.10470000000000024,-0.6651972531965403
-0.10570000000000013,-0.6685925603162164
-0.10670000000000024,-0.6772222992453931
-0.10770000000000013,-0.6824567310548937
-0.10870000000000024,-0.6837299712247723
-0.10970000000000013,-0.6922182390239625
-0.11070000000000024,-0.69434030597376
-0.11170000000000013,-0.7049506407227478
-0.11270000000000002,-0.7077800633224779
-0.11370000000000013,-0.7099021302722753
-0.11470000000000002,-0.7181074558114927
-0.11570000000000014,-0.7230589453610202
-0.11670000000000003,-0.7288592616904669
-0.11770000000000014,-0.7306983863802915
-0.11870000000000003,-0.7353669336698461
-0.11970000000000014,-0.7391866541794817
-0.12070000000000003,-0.7489481621485504
-0.12170000000000014,-0.7541825939580511
-0.12270000000000003,-0.7599829102874976
-0.12370000000000014,-0.7594170257675517
-0.12470000000000003,-0.7669149956568363
-0.12570000000000014,-0.7653588132269848
-0.12670000000000003,-0.7759691479759726
-0.12770000000000015,-0.7763935613659322
-0.12870000000000004,-0.7773838592758376
-0.12970000000000015,-0.7879941940248254
-0.13070000000000004,-0.7884186074147849
-0.13170000000000015,-0.7970483463439616
-0.13270000000000004,-0.7957751061740831
-0.13370000000000015,-0.7986045287738132
-0.13470000000000004,-0.8031316049333813
-0.13570000000000015,-0.8056780852731383
-0.13670000000000004,-0.8124686995124906
-0.13770000000000016,-0.8110539882126255
-0.13870000000000005,-0.8162884200221262
-0.13970000000000016,-0.8167128334120857
-0.14070000000000005,-0.8235034476514379
-0.14170000000000016,-0.8226546208715189
-0.14270000000000005,-0.826898754771114
-0.14370000000000016,-0.82746463929106
-0.14470000000000005,-0.8270402259011005
-0.14570000000000016,-0.8336893690104662
-0.14670000000000005,-0.8324161288405876
-0.14770000000000016,-0.8302940618907901
-0.14870000000000005,-0.8382164451700342
-0.14970000000000017,-0.8416117522897104
-0.15070000000000006,-0.8410458677697643
-0.15170000000000017,-0.8455729439293325
-0.15270000000000006,-0.8421776368096564
-0.15370000000000017,-0.8404799832498183
-0.15470000000000006,-0.8409043966397778
-0.15570000000000017,-0.8400555698598587
-0.15670000000000006,-0.8444411748894404
-0.15770000000000017,-0.8435923481095214
-0.15870000000000006,-0.8430264635895753
-0.15970000000000018,-0.8442997037594538
-0.16070000000000007,-0.8387823296899803
-0.16170000000000018,-0.8505244334788601
-0.16270000000000007,-0.8389238008199668
-0.16370000000000018,-0.8442997037594538
-0.16470000000000007,-0.8360943782202367
-0.16570000000000018,-0.8373676183901153
-0.16670000000000007,-0.8404799832498183
-0.16770000000000018,-0.8338308401404527
-0.16870000000000007,-0.8346796669203717
-0.16970000000000018,-0.8304355330207766
-0.17070000000000007,-0.8343967246603987
-0.17170000000000019,-0.8312843598006956
-0.17270000000000008,-0.8295867062408576
-0.1737000000000002,-0.8206740250517078
-0.17470000000000008,-0.8188349003618833
-0.1757000000000002,-0.8203910827917348
-0.17670000000000008,-0.8150151798522477
-0.1777000000000002,-0.8158640066321667
-0.17870000000000008,-0.807517209962963
-0.1797000000000002,-0.8082245656128955
-0.18070000000000008,-0.8041219028432868
-0.1817000000000002,-0.8015754225035298
-0.18270000000000008,-0.7960580484340561
-0.1837000000000002,-0.791530972274488
-0.1847000000000001,-0.7875697806348659
-0.1857000000000002,-0.7824768199553517
-0.1867000000000001,-0.7857306559450413
-0.1877000000000002,-0.7734226676362155
-0.1887000000000001,-0.7776668015358106
-0.1897000000000002,-0.7664905822668768
-0.1907000000000001,-0.7683297069567014
-0.1917000000000001,-0.7604073236774572
-0.19269999999999998,-0.7564461320378352
-0.1937000000000001,-0.7496555177984829
-0.19469999999999998,-0.7420160767792118
-0.1957000000000001,-0.7417331345192387
-0.19669999999999999,-0.7422990190391847
-0.1977000000000001,-0.7343766357599406
-0.1987,-0.7309813286402644
-0.1997000000000001,-0.7226345319710608
-0.2007,-0.7196636382413442
-0.2017000000000001,-0.7152780332117625
-0.2027,-0.7089118323623699
-0.2037000000000001,-0.7057994675026668
-0.2047,-0.7007065068231527
-0.2057000000000001,-0.6977356130934361
-0.2067,-0.6951891327536791
-0.2077000000000001,-0.6882570473843403
-0.2087,-0.6857105670445833
-0.2097000000000001,-0.6777881837653391
-0.2107,-0.6773637703753796
-0.2117000000000001,-0.671846396305906
-0.2127,-0.6664704933664187
-0.2137000000000001,-0.6626507728567832
-0.2147,-0.6609531192969451
-0.2157000000000001,-0.658406638957188
-0.2167,-0.6557186874874444
-0.21770000000000012,-0.6509086690679033
-0.2187,-0.6446839393484972
-0.21970000000000012,-0.6434106991786186
-0.2207,-0.6402983343189155
-0.22170000000000012,-0.6377518539791586
-0.2227,-0.634780960249442
-0.22370000000000012,-0.6294050573099549
-0.2247,-0.6291221150499817
-0.22570000000000012,-0.6251609234103597
-0.2267,-0.6268585769701978
-0.22770000000000012,-0.6192191359509266
-0.22870000000000001,-0.6172385401311155
-0.22970000000000013,-0.618794722560967
-0.23070000000000002,-0.6144091175313855
-0.23170000000000013,-0.6176629535210749
-0.23270000000000002,-0.6088917434619118
-0.23370000000000013,-0.6122870505815878
-0.23470000000000002,-0.6101649836317904
-0.23570000000000013,-0.6091746857218847
-0.23670000000000002,-0.6100235125018038
-0.2376999999999999,-0.6063452631221548
-0.23870000000000002,-0.6056379074722221
-0.2396999999999999,-0.6029499560024787
-0.24070000000000003,-0.6064867342521413
-0.24169999999999991,-0.6062037919921682
-0.24270000000000003,-0.6050720229522761
-0.24369999999999992,-0.6035158405224247
-0.24470000000000003,-0.6056379074722221
-0.24569999999999992,-0.6025255426125191
-0.24670000000000003,-0.6095990991118443
-0.24769999999999992,-0.6037987827823976
-0.24870000000000003,-0.5992717066228296
-0.24969999999999992,-0.6117211660616418
-0.25070000000000003,-0.601959658092573
-0.2516999999999999,-0.615399415441291
-0.25270000000000004,-0.6118626371916284
-0.2536999999999999,-0.6144091175313855
-0.25470000000000004,-0.6118626371916284
-0.2556999999999999,-0.6149750020513315
-0.25670000000000004,-0.614833530921345
-0.25769999999999993,-0.6166726556111695
-0.25870000000000004,-0.6175214823910884
-0.25969999999999993,-0.6175214823910884
-0.26070000000000004,-0.6236047409805081
-0.26169999999999993,-0.6260097501902787
-0.26270000000000004,-0.6270000481001843
-0.26369999999999993,-0.6264341635802383
-0.26470000000000005,-0.6292635861799682
-0.26569999999999994,-0.6326588932996443
-0.26670000000000005,-0.6377518539791586
-0.26769999999999994,-0.6380347962391315
-0.26870000000000005,-0.6386006807590775
-0.26969999999999994,-0.6400153920589425
-0.27070000000000005,-0.6465230640383217
-0.27169999999999994,-0.6477963042082002
-0.27270000000000005,-0.6503427845479574
-0.27369999999999994,-0.6509086690679033
-0.27470000000000006,-0.6557186874874444
-0.27569999999999995,-0.6596798791270665
-0.27670000000000006,-0.6632166573767292
-0.27769999999999995,-0.6656216665864998
-0.27870000000000006,-0.6651972531965403
-0.27969999999999995,-0.670148742746068
-0.28070000000000006,-0.673261107605771
-0.28169999999999995,-0.675524645685555
-0.28270000000000006,-0.6811834908850152
-0.28369999999999995,-0.6801931929751097
-0.28470000000000006,-0.6838714423547588
-0.28569999999999995,-0.6902376432041514
-0.28670000000000007,-0.69151088337403
-0.28769999999999996,-0.6987259110033417
-0.28870000000000007,-0.6953306038836656
-0.28969999999999996,-0.7009894490831257
-0.29070000000000007,-0.7033944582928963
-0.29169999999999996,-0.7070727076725454
-0.29270000000000007,-0.7154195043417491
-0.29369999999999996,-0.7117412549621
-0.2947000000000001,-0.7149950909517896
-0.29569999999999996,-0.7243321855308987
-0.2967000000000001,-0.7253224834408043
-0.29769999999999996,-0.7297080884703859
-0.2987000000000001,-0.7257468968307639
-0.29969999999999997,-0.7329619244600755
-0.3007000000000001,-0.7366401738397246
-0.30169999999999997,-0.7389037119195087
-0.3027000000000001,-0.7448454993789418
-0.30369999999999997,-0.7438552014690363
-0.3047000000000001,-0.7506458157083884
-0.30569999999999997,-0.7514946424883074
-0.3067000000000001,-0.7565876031678217
-0.3077,-0.7581437855976731
-0.3087000000000001,-0.7604073236774572
-0.3097,-0.7639441019271197
-0.3107000000000001,-0.7638026307971333
-0.3117,-0.773847081026175
-0.3127000000000001,-0.7691785337366205
-0.3137,-0.7762520902359457
-0.3147000000000001,-0.7765350324959186
-0.3157,-0.7803547530055542
-0.3167000000000001,-0.7857306559450413
-0.3177,-0.7862965404649873
-0.3187000000000001,-0.7871453672449065
-0.3197,-0.7881356651548119
-0.3207000000000001,-0.7950677505241506
-0.3217,-0.7922383279244205
-0.3227000000000001,-0.8022827781534622
-0.3237,-0.7939359814842585
-0.3247000000000001,-0.8045463162332464
-0.3257,-0.8038389605833138
-0.3267000000000001,-0.8072342677029899
-0.3277,-0.8110539882126255
-0.3287000000000001,-0.8085075078728684
-0.3297,-0.8121857572525175
-0.3307000000000001,-0.8127516417724636
-0.3317,-0.8157225355021802
-0.3327000000000001,-0.8218057940915999
-0.3337,-0.8152981221122206
-0.3347000000000001,-0.8261913991211816
-0.3357,-0.8201081405317618
-0.3367000000000001,-0.8304355330207766
-0.3377,-0.8264743413811545
-0.3387000000000001,-0.8242108033013704
-0.3397,-0.8336893690104662
-0.3407000000000001,-0.8293037639808845
-0.3417,-0.8356699648302772
-0.3427000000000001,-0.8346796669203717
-0.3437,-0.8373676183901153
-0.3447000000000001,-0.8413288100297374
-0.3457,-0.8427435213296024
-0.3467000000000001,-0.8467047129692244
-0.3477,-0.8475535397491435
-0.3487000000000001,-0.8464217707092515
-0.3497,-0.8458558861893055
-0.3507000000000001,-0.8515147313887655
-0.3517,-0.8559003364183472
-0.3527000000000001,-0.8563247498083066
-0.3537,-0.8626909506576994
-0.3547000000000001,-0.8590127012780503
-0.3557,-0.8689156803771056
-0.35670000000000013,-0.8720280452368087
-0.3577,-0.8751404100965116
-0.35870000000000013,-0.8788186594761607
-0.3597,-0.8850433891955669
-0.36070000000000013,-0.8885801674452296
-0.3617,-0.8984831465442846
-0.3626999999999999,-0.9017369825339743
-0.3637,-0.9131961440628811
-0.3646999999999999,-0.9148937976227193
-0.3657,-0.9298897374012886
-0.3666999999999999,-0.9386609474604518
-0.3677,-0.9501201089893586
-0.3686999999999999,-0.9617207416482519
-0.36970000000000003,-0.9728969609171857
-0.3706999999999999,-0.9912882078154313
-0.37170000000000003,-1.0031717827342974
-0.3726999999999999,-1.0277877593519493
-0.37370000000000003,-1.042925170260505
-0.3746999999999999,-1.0716438096477652
-0.37570000000000003,-1.1012112758149446
-0.3766999999999999,-1.136437587181584
-0.37770000000000004,-1.1771812726176971
-0.3786999999999999,-1.2221690919534054
-0.37970000000000004,-1.293753483726576
-0.3806999999999999,-1.367601413579531
-0.38170000000000004,-1.472714463159503
-0.38269999999999993,-1.6042826140469515
-0.38370000000000004,-1.7542420118326456
-0.38469999999999993,-1.9423986147146954
-0.38570000000000004,-2.1687524226931014
-0.38669999999999993,-2.4474505487665135
-0.38770000000000004,-2.795469528533313
-0.38869999999999993,-3.204321094194308
-0.38970000000000005,-3.696640626547341
-0.39069999999999994,-4.242719188295245
-0.39170000000000005,-4.811433130840991
-0.39269999999999994,-5.384391207286329
-0.39370000000000005,-5.917737367335448
-0.39469999999999994,-6.465230640383218
-0.39570000000000005,-7.016968047330582
-0.39669999999999994,-7.6012438141748415
-0.39770000000000005,-8.184104869719237
-0.39869999999999994,-8.730183431467141
-0.39970000000000006,-9.252211901117338
-0.40069999999999995,-9.738872588270914
-0.40170000000000006,-10.219874430225024
-0.40269999999999995,-10.689558581780219
-0.40370000000000006,-11.119630816939189
-0.40469999999999995,-11.487455754904099
-0.40570000000000006,-11.761909747077915
-0.40669999999999995,-11.979775287257132
-0.40770000000000006,-12.265546969829868
-0.40869999999999995,-12.472094819610163
-0.40970000000000006,-12.56405105410139
-0.41069999999999995,-12.796063707279258
-0.41170000000000007,-13.00544097965928
-0.41269999999999996,-13.257259591035258
-0.41370000000000007,-13.579813767404486
-0.41469999999999996,-13.823144110981273
-0.41570000000000007,-14.01271542516319
-0.41669999999999996,-14.345172580631472
-0.41770000000000007,-14.486643710617974
-0.41869999999999996,-14.65640906660178
-0.4197000000000001,-14.769585970590983
-0.42069999999999996,-15.222293586547794
-0.4217000000000001,-15.4769416205235
-0.42269999999999996,-15.505235846520803
-0.4237000000000001,-15.802325219492458
-0.42469999999999997,-15.91550212348166
-0.4257000000000001,-16.15600304445872
-0.42669999999999997,-16.368209739438473
-0.4277000000000001,-16.53797509542228
-0.42869999999999997,-16.736034677403385
-0.4297000000000001,-17.03312405037504
-0.43069999999999997,-17.316066310348052
-0.4317000000000001,-17.627302796318357
-0.4327,-17.72633258730891
-0.4337000000000001,-17.938539282288666
-0.4347,-18.306364220253574
-0.4357000000000001,-18.57515936722793
-0.4367,-18.78736606220769
-0.4377000000000001,-18.688336271217132
-0.4387,-19.056161209182044
-0.4397000000000001,-19.22592656516585
-0.4407,-19.537163051136158
-0.4417000000000001,-19.876693763103766
-0.4427,-19.961576441095666
-0.4437000000000001,-20.25866581406732
-0.4447,-20.654784978029536
-0.4457000000000001,-20.838697447011988
-0.4467,-20.93772723800254
-0.4477000000000001,-21.362140627962056
-0.4487,-21.701671339929664
-0.4497000000000001,-22.140231842887825
-0.4507,-22.592939458844636
-0.4517000000000001,-22.691969249835186
-0.4527,-23.073941300798747
-0.4537000000000001,-23.48420757775961
-0.4547,-23.56909025575151
-0.4557000000000001,-23.97935653271237
-0.4567,-24.36132858367593
-0.4577000000000001,-24.36132858367593
-0.4587,-24.814036199632742
-0.4597000000000001,-24.983801555616548
-0.4607,-25.351626493581456
-0.4617000000000001,-25.252596702590903
-0.4627,-25.662862979551768
-0.4637000000000001,-25.94580523952477
-0.4647,-26.440954194477534
-0.4657000000000001,-26.738043567449193
-0.4667,-27.091721392415455
-0.4677000000000001,-27.332222313392506
-0.4687,-27.40295787838576
-0.4697000000000001,-27.558576121370916
-0.4707,-27.869812607341224
-0.4717000000000001,-28.11031352831828
-0.4727,-28.591315370272387
-0.4737000000000001,-28.88840474324405
-0.4747,-28.8742576302454
-0.4757000000000001,-29.32696524620221
-0.4767,-29.38355369819681
-0.4777000000000001,-30.06261512213203
-0.4787,-30.43044006009694
-0.4797000000000001,-30.50117562509019
-0.4807,-30.699235207071297
-0.48170000000000013,-31.335855292010564
-0.4827,-31.816857133964678
-0.48370000000000013,-32.21297629792688
-0.4847,-32.42518299290664
-0.48570000000000013,-32.807155043870196
-0.4867,-33.01936173884996
-0.4876999999999999,-33.44377512880947
-0.4887,-33.59939337179462
-0.4896999999999999,-33.79745295377573
-0.4907,-34.09454232674739
-0.4916999999999999,-34.09454232674739
-0.4927,-34.58969128170015
-0.4936999999999999,-35.42437094862052
-0.49470000000000003,-36.10343237255574
-0.4956999999999999,-36.37222751953009
-0.49670000000000003,-36.725905344496354
-0.4976999999999999,-37.192760073451815
-0.49870000000000003,-37.36252542943562
-0.4996999999999999,-37.51814367242077
