July 14, 2024   05:15:22
Cyclic Voltammetry
File: c:/users/guazh/data/20240709_batch67/2024-07-10-exp39\exp39-2024-07-14t05_02_21-h2koh\exp39_cv_sr_900mvs_efin_-1500mv.bin
Data Source:  Experiment
Instrument Model:  CHI760E
Header: CV ran at 900 mVs
Note: 

Init E (V) = -1
High E (V) = -1
Low E (V) = -1.5
Final E (V) = -1
Init P/N = N
Scan Rate (V/s) = 0.9
Segment = 3
Sample Interval (V) = 0.001
Quiet Time (sec) = 2
Sensitivity (A/V) = 0.01
Comp R (ohm) = 1.9

Results:

Channel 1:
Segment 1:

Segment 2:

Segment 3:

Potential/V, Current/A

-1.000, -1.355e-4
-1.001, -1.047e-4
-1.002, -7.076e-5
-1.003, -4.301e-5
-1.004, -1.834e-5
-1.005, 9.405e-6
-1.006, 3.099e-5
-1.007, 5.257e-5
-1.008, 7.415e-5
-1.009, 9.573e-5
-1.010, 1.142e-4
-1.011, 1.327e-4
-1.012, 1.512e-4
-1.013, 1.728e-4
-1.014, 1.913e-4
-1.015, 2.067e-4
-1.016, 2.252e-4
-1.017, 2.437e-4
-1.018, 2.622e-4
-1.019, 2.776e-4
-1.020, 2.931e-4
-1.021, 3.085e-4
-1.022, 3.208e-4
-1.023, 3.331e-4
-1.024, 3.485e-4
-1.025, 3.578e-4
-1.026, 3.701e-4
-1.027, 3.855e-4
-1.028, 3.979e-4
-1.029, 4.102e-4
-1.030, 4.225e-4
-1.031, 4.380e-4
-1.032, 4.503e-4
-1.033, 4.626e-4
-1.034, 4.719e-4
-1.035, 4.842e-4
-1.036, 4.935e-4
-1.037, 5.058e-4
-1.038, 5.150e-4
-1.039, 5.212e-4
-1.040, 5.305e-4
-1.041, 5.397e-4
-1.042, 5.489e-4
-1.043, 5.582e-4
-1.044, 5.705e-4
-1.045, 5.798e-4
-1.046, 5.890e-4
-1.047, 6.014e-4
-1.048, 6.106e-4
-1.049, 6.168e-4
-1.050, 6.260e-4
-1.051, 6.353e-4
-1.052, 6.414e-4
-1.053, 6.507e-4
-1.054, 6.569e-4
-1.055, 6.599e-4
-1.056, 6.692e-4
-1.057, 6.754e-4
-1.058, 6.815e-4
-1.059, 6.939e-4
-1.060, 7.000e-4
-1.061, 7.093e-4
-1.062, 7.185e-4
-1.063, 7.278e-4
-1.064, 7.339e-4
-1.065, 7.401e-4
-1.066, 7.463e-4
-1.067, 7.524e-4
-1.068, 7.586e-4
-1.069, 7.617e-4
-1.070, 7.679e-4
-1.071, 7.740e-4
-1.072, 7.802e-4
-1.073, 7.894e-4
-1.074, 7.925e-4
-1.075, 8.018e-4
-1.076, 8.110e-4
-1.077, 8.172e-4
-1.078, 8.233e-4
-1.079, 8.326e-4
-1.080, 8.388e-4
-1.081, 8.449e-4
-1.082, 8.480e-4
-1.083, 8.542e-4
-1.084, 8.603e-4
-1.085, 8.634e-4
-1.086, 8.696e-4
-1.087, 8.727e-4
-1.088, 8.788e-4
-1.089, 8.881e-4
-1.090, 8.943e-4
-1.091, 9.004e-4
-1.092, 9.097e-4
-1.093, 9.158e-4
-1.094, 9.220e-4
-1.095, 9.282e-4
-1.096, 9.343e-4
-1.097, 9.405e-4
-1.098, 9.405e-4
-1.099, 9.467e-4
-1.100, 9.528e-4
-1.101, 9.528e-4
-1.102, 9.590e-4
-1.103, 9.652e-4
-1.104, 9.713e-4
-1.105, 9.806e-4
-1.106, 9.868e-4
-1.107, 9.929e-4
-1.108, 1.002e-3
-1.109, 1.005e-3
-1.110, 1.011e-3
-1.111, 1.018e-3
-1.112, 1.021e-3
-1.113, 1.027e-3
-1.114, 1.030e-3
-1.115, 1.033e-3
-1.116, 1.039e-3
-1.117, 1.042e-3
-1.118, 1.051e-3
-1.119, 1.058e-3
-1.120, 1.064e-3
-1.121, 1.070e-3
-1.122, 1.076e-3
-1.123, 1.082e-3
-1.124, 1.088e-3
-1.125, 1.092e-3
-1.126, 1.098e-3
-1.127, 1.104e-3
-1.128, 1.107e-3
-1.129, 1.110e-3
-1.130, 1.116e-3
-1.131, 1.116e-3
-1.132, 1.122e-3
-1.133, 1.129e-3
-1.134, 1.135e-3
-1.135, 1.141e-3
-1.136, 1.147e-3
-1.137, 1.156e-3
-1.138, 1.166e-3
-1.139, 1.169e-3
-1.140, 1.175e-3
-1.141, 1.181e-3
-1.142, 1.187e-3
-1.143, 1.193e-3
-1.144, 1.196e-3
-1.145, 1.199e-3
-1.146, 1.206e-3
-1.147, 1.212e-3
-1.148, 1.218e-3
-1.149, 1.224e-3
-1.150, 1.230e-3
-1.151, 1.236e-3
-1.152, 1.246e-3
-1.153, 1.252e-3
-1.154, 1.261e-3
-1.155, 1.264e-3
-1.156, 1.270e-3
-1.157, 1.277e-3
-1.158, 1.280e-3
-1.159, 1.286e-3
-1.160, 1.292e-3
-1.161, 1.295e-3
-1.162, 1.304e-3
-1.163, 1.310e-3
-1.164, 1.317e-3
-1.165, 1.326e-3
-1.166, 1.332e-3
-1.167, 1.338e-3
-1.168, 1.347e-3
-1.169, 1.354e-3
-1.170, 1.360e-3
-1.171, 1.366e-3
-1.172, 1.372e-3
-1.173, 1.378e-3
-1.174, 1.384e-3
-1.175, 1.391e-3
-1.176, 1.397e-3
-1.177, 1.403e-3
-1.178, 1.409e-3
-1.179, 1.418e-3
-1.180, 1.421e-3
-1.181, 1.431e-3
-1.182, 1.440e-3
-1.183, 1.446e-3
-1.184, 1.458e-3
-1.185, 1.462e-3
-1.186, 1.471e-3
-1.187, 1.477e-3
-1.188, 1.483e-3
-1.189, 1.486e-3
-1.190, 1.492e-3
-1.191, 1.499e-3
-1.192, 1.505e-3
-1.193, 1.514e-3
-1.194, 1.520e-3
-1.195, 1.529e-3
-1.196, 1.539e-3
-1.197, 1.548e-3
-1.198, 1.557e-3
-1.199, 1.563e-3
-1.200, 1.569e-3
-1.201, 1.576e-3
-1.202, 1.582e-3
-1.203, 1.588e-3
-1.204, 1.594e-3
-1.205, 1.600e-3
-1.206, 1.610e-3
-1.207, 1.616e-3
-1.208, 1.625e-3
-1.209, 1.631e-3
-1.210, 1.640e-3
-1.211, 1.650e-3
-1.212, 1.659e-3
-1.213, 1.665e-3
-1.214, 1.674e-3
-1.215, 1.680e-3
-1.216, 1.687e-3
-1.217, 1.693e-3
-1.218, 1.699e-3
-1.219, 1.708e-3
-1.220, 1.714e-3
-1.221, 1.721e-3
-1.222, 1.727e-3
-1.223, 1.733e-3
-1.224, 1.742e-3
-1.225, 1.751e-3
-1.226, 1.761e-3
-1.227, 1.770e-3
-1.228, 1.779e-3
-1.229, 1.785e-3
-1.230, 1.798e-3
-1.231, 1.804e-3
-1.232, 1.810e-3
-1.233, 1.816e-3
-1.234, 1.822e-3
-1.235, 1.828e-3
-1.236, 1.838e-3
-1.237, 1.841e-3
-1.238, 1.850e-3
-1.239, 1.856e-3
-1.240, 1.865e-3
-1.241, 1.875e-3
-1.242, 1.884e-3
-1.243, 1.890e-3
-1.244, 1.902e-3
-1.245, 1.906e-3
-1.246, 1.915e-3
-1.247, 1.921e-3
-1.248, 1.927e-3
-1.249, 1.933e-3
-1.250, 1.939e-3
-1.251, 1.946e-3
-1.252, 1.955e-3
-1.253, 1.961e-3
-1.254, 1.970e-3
-1.255, 1.976e-3
-1.256, 1.986e-3
-1.257, 1.995e-3
-1.258, 2.004e-3
-1.259, 2.013e-3
-1.260, 2.023e-3
-1.261, 2.029e-3
-1.262, 2.038e-3
-1.263, 2.047e-3
-1.264, 2.054e-3
-1.265, 2.060e-3
-1.266, 2.066e-3
-1.267, 2.069e-3
-1.268, 2.081e-3
-1.269, 2.091e-3
-1.270, 2.100e-3
-1.271, 2.112e-3
-1.272, 2.118e-3
-1.273, 2.128e-3
-1.274, 2.137e-3
-1.275, 2.143e-3
-1.276, 2.152e-3
-1.277, 2.158e-3
-1.278, 2.164e-3
-1.279, 2.171e-3
-1.280, 2.177e-3
-1.281, 2.183e-3
-1.282, 2.192e-3
-1.283, 2.198e-3
-1.284, 2.208e-3
-1.285, 2.217e-3
-1.286, 2.226e-3
-1.287, 2.235e-3
-1.288, 2.248e-3
-1.289, 2.257e-3
-1.290, 2.266e-3
-1.291, 2.272e-3
-1.292, 2.282e-3
-1.293, 2.291e-3
-1.294, 2.291e-3
-1.295, 2.303e-3
-1.296, 2.309e-3
-1.297, 2.319e-3
-1.298, 2.328e-3
-1.299, 2.337e-3
-1.300, 2.346e-3
-1.301, 2.356e-3
-1.302, 2.368e-3
-1.303, 2.377e-3
-1.304, 2.390e-3
-1.305, 2.396e-3
-1.306, 2.405e-3
-1.307, 2.411e-3
-1.308, 2.420e-3
-1.309, 2.427e-3
-1.310, 2.430e-3
-1.311, 2.439e-3
-1.312, 2.445e-3
-1.313, 2.454e-3
-1.314, 2.464e-3
-1.315, 2.473e-3
-1.316, 2.482e-3
-1.317, 2.491e-3
-1.318, 2.501e-3
-1.319, 2.510e-3
-1.320, 2.519e-3
-1.321, 2.522e-3
-1.322, 2.531e-3
-1.323, 2.541e-3
-1.324, 2.547e-3
-1.325, 2.553e-3
-1.326, 2.559e-3
-1.327, 2.568e-3
-1.328, 2.578e-3
-1.329, 2.587e-3
-1.330, 2.593e-3
-1.331, 2.605e-3
-1.332, 2.612e-3
-1.333, 2.621e-3
-1.334, 2.630e-3
-1.335, 2.636e-3
-1.336, 2.645e-3
-1.337, 2.652e-3
-1.338, 2.661e-3
-1.339, 2.670e-3
-1.340, 2.673e-3
-1.341, 2.682e-3
-1.342, 2.689e-3
-1.343, 2.701e-3
-1.344, 2.710e-3
-1.345, 2.716e-3
-1.346, 2.726e-3
-1.347, 2.732e-3
-1.348, 2.741e-3
-1.349, 2.747e-3
-1.350, 2.756e-3
-1.351, 2.763e-3
-1.352, 2.769e-3
-1.353, 2.775e-3
-1.354, 2.781e-3
-1.355, 2.790e-3
-1.356, 2.793e-3
-1.357, 2.800e-3
-1.358, 2.809e-3
-1.359, 2.815e-3
-1.360, 2.821e-3
-1.361, 2.830e-3
-1.362, 2.837e-3
-1.363, 2.846e-3
-1.364, 2.855e-3
-1.365, 2.864e-3
-1.366, 2.874e-3
-1.367, 2.874e-3
-1.368, 2.880e-3
-1.369, 2.886e-3
-1.370, 2.886e-3
-1.371, 2.895e-3
-1.372, 2.901e-3
-1.373, 2.908e-3
-1.374, 2.914e-3
-1.375, 2.920e-3
-1.376, 2.929e-3
-1.377, 2.935e-3
-1.378, 2.938e-3
-1.379, 2.948e-3
-1.380, 2.951e-3
-1.381, 2.960e-3
-1.382, 2.966e-3
-1.383, 2.972e-3
-1.384, 2.972e-3
-1.385, 2.975e-3
-1.386, 2.978e-3
-1.387, 2.982e-3
-1.388, 2.988e-3
-1.389, 2.991e-3
-1.390, 2.997e-3
-1.391, 3.000e-3
-1.392, 3.006e-3
-1.393, 3.009e-3
-1.394, 3.015e-3
-1.395, 3.019e-3
-1.396, 3.025e-3
-1.397, 3.025e-3
-1.398, 3.028e-3
-1.399, 3.031e-3
-1.400, 3.031e-3
-1.401, 3.031e-3
-1.402, 3.031e-3
-1.403, 3.034e-3
-1.404, 3.040e-3
-1.405, 3.040e-3
-1.406, 3.046e-3
-1.407, 3.056e-3
-1.408, 3.062e-3
-1.409, 3.065e-3
-1.410, 3.065e-3
-1.411, 3.068e-3
-1.412, 3.071e-3
-1.413, 3.068e-3
-1.414, 3.068e-3
-1.415, 3.071e-3
-1.416, 3.071e-3
-1.417, 3.077e-3
-1.418, 3.077e-3
-1.419, 3.080e-3
-1.420, 3.086e-3
-1.421, 3.086e-3
-1.422, 3.086e-3
-1.423, 3.093e-3
-1.424, 3.096e-3
-1.425, 3.096e-3
-1.426, 3.096e-3
-1.427, 3.096e-3
-1.428, 3.099e-3
-1.429, 3.099e-3
-1.430, 3.096e-3
-1.431, 3.099e-3
-1.432, 3.093e-3
-1.433, 3.099e-3
-1.434, 3.102e-3
-1.435, 3.105e-3
-1.436, 3.105e-3
-1.437, 3.108e-3
-1.438, 3.108e-3
-1.439, 3.111e-3
-1.440, 3.114e-3
-1.441, 3.111e-3
-1.442, 3.111e-3
-1.443, 3.111e-3
-1.444, 3.111e-3
-1.445, 3.111e-3
-1.446, 3.108e-3
-1.447, 3.111e-3
-1.448, 3.105e-3
-1.449, 3.105e-3
-1.450, 3.105e-3
-1.451, 3.102e-3
-1.452, 3.102e-3
-1.453, 3.102e-3
-1.454, 3.102e-3
-1.455, 3.099e-3
-1.456, 3.099e-3
-1.457, 3.099e-3
-1.458, 3.099e-3
-1.459, 3.093e-3
-1.460, 3.096e-3
-1.461, 3.096e-3
-1.462, 3.089e-3
-1.463, 3.089e-3
-1.464, 3.089e-3
-1.465, 3.089e-3
-1.466, 3.086e-3
-1.467, 3.089e-3
-1.468, 3.083e-3
-1.469, 3.083e-3
-1.470, 3.080e-3
-1.471, 3.080e-3
-1.472, 3.080e-3
-1.473, 3.074e-3
-1.474, 3.071e-3
-1.475, 3.068e-3
-1.476, 3.065e-3
-1.477, 3.068e-3
-1.478, 3.065e-3
-1.479, 3.065e-3
-1.480, 3.065e-3
-1.481, 3.065e-3
-1.482, 3.068e-3
-1.483, 3.068e-3
-1.484, 3.068e-3
-1.485, 3.071e-3
-1.486, 3.068e-3
-1.487, 3.062e-3
-1.488, 3.059e-3
-1.489, 3.059e-3
-1.490, 3.059e-3
-1.491, 3.056e-3
-1.492, 3.052e-3
-1.493, 3.056e-3
-1.494, 3.052e-3
-1.495, 3.056e-3
-1.496, 3.052e-3
-1.497, 3.056e-3
-1.498, 3.056e-3
-1.499, 3.059e-3
-1.500, 3.034e-3
-1.499, 2.978e-3
-1.498, 2.929e-3
-1.497, 2.883e-3
-1.496, 2.837e-3
-1.495, 2.790e-3
-1.494, 2.744e-3
-1.493, 2.710e-3
-1.492, 2.670e-3
-1.491, 2.636e-3
-1.490, 2.596e-3
-1.489, 2.562e-3
-1.488, 2.528e-3
-1.487, 2.494e-3
-1.486, 2.460e-3
-1.485, 2.430e-3
-1.484, 2.396e-3
-1.483, 2.362e-3
-1.482, 2.331e-3
-1.481, 2.294e-3
-1.480, 2.263e-3
-1.479, 2.232e-3
-1.478, 2.201e-3
-1.477, 2.177e-3
-1.476, 2.146e-3
-1.475, 2.118e-3
-1.474, 2.091e-3
-1.473, 2.066e-3
-1.472, 2.038e-3
-1.471, 2.013e-3
-1.470, 1.986e-3
-1.469, 1.961e-3
-1.468, 1.936e-3
-1.467, 1.906e-3
-1.466, 1.881e-3
-1.465, 1.853e-3
-1.464, 1.825e-3
-1.463, 1.801e-3
-1.462, 1.776e-3
-1.461, 1.754e-3
-1.460, 1.727e-3
-1.459, 1.708e-3
-1.458, 1.684e-3
-1.457, 1.662e-3
-1.456, 1.637e-3
-1.455, 1.619e-3
-1.454, 1.594e-3
-1.453, 1.573e-3
-1.452, 1.551e-3
-1.451, 1.526e-3
-1.450, 1.505e-3
-1.449, 1.483e-3
-1.448, 1.462e-3
-1.447, 1.443e-3
-1.446, 1.425e-3
-1.445, 1.406e-3
-1.444, 1.388e-3
-1.443, 1.369e-3
-1.442, 1.351e-3
-1.441, 1.332e-3
-1.440, 1.310e-3
-1.439, 1.292e-3
-1.438, 1.273e-3
-1.437, 1.252e-3
-1.436, 1.236e-3
-1.435, 1.215e-3
-1.434, 1.199e-3
-1.433, 1.181e-3
-1.432, 1.162e-3
-1.431, 1.147e-3
-1.430, 1.132e-3
-1.429, 1.116e-3
-1.428, 1.101e-3
-1.427, 1.082e-3
-1.426, 1.064e-3
-1.425, 1.048e-3
-1.424, 1.033e-3
-1.423, 1.014e-3
-1.422, 9.960e-4
-1.421, 9.775e-4
-1.420, 9.621e-4
-1.419, 9.467e-4
-1.418, 9.282e-4
-1.417, 9.128e-4
-1.416, 8.973e-4
-1.415, 8.850e-4
-1.414, 8.696e-4
-1.413, 8.542e-4
-1.412, 8.388e-4
-1.411, 8.264e-4
-1.410, 8.110e-4
-1.409, 7.956e-4
-1.408, 7.802e-4
-1.407, 7.648e-4
-1.406, 7.494e-4
-1.405, 7.339e-4
-1.404, 7.185e-4
-1.403, 7.031e-4
-1.402, 6.908e-4
-1.401, 6.784e-4
-1.400, 6.661e-4
-1.399, 6.538e-4
-1.398, 6.414e-4
-1.397, 6.291e-4
-1.396, 6.168e-4
-1.395, 6.044e-4
-1.394, 5.890e-4
-1.393, 5.767e-4
-1.392, 5.644e-4
-1.391, 5.459e-4
-1.390, 5.366e-4
-1.389, 5.212e-4
-1.388, 5.089e-4
-1.387, 4.965e-4
-1.386, 4.842e-4
-1.385, 4.719e-4
-1.384, 4.626e-4
-1.383, 4.503e-4
-1.382, 4.380e-4
-1.381, 4.287e-4
-1.380, 4.164e-4
-1.379, 4.040e-4
-1.378, 3.917e-4
-1.377, 3.794e-4
-1.376, 3.701e-4
-1.375, 3.547e-4
-1.374, 3.424e-4
-1.373, 3.331e-4
-1.372, 3.208e-4
-1.371, 3.115e-4
-1.370, 3.023e-4
-1.369, 2.931e-4
-1.368, 2.838e-4
-1.367, 2.715e-4
-1.366, 2.622e-4
-1.365, 2.499e-4
-1.364, 2.406e-4
-1.363, 2.283e-4
-1.362, 2.191e-4
-1.361, 2.067e-4
-1.360, 1.975e-4
-1.359, 1.851e-4
-1.358, 1.759e-4
-1.357, 1.666e-4
-1.356, 1.574e-4
-1.355, 1.481e-4
-1.354, 1.389e-4
-1.353, 1.296e-4
-1.352, 1.235e-4
-1.351, 1.111e-4
-1.350, 1.050e-4
-1.349, 9.265e-5
-1.348, 8.340e-5
-1.347, 7.415e-5
-1.346, 6.182e-5
-1.345, 5.257e-5
-1.344, 4.332e-5
-1.343, 3.407e-5
-1.342, 2.482e-5
-1.341, 1.865e-5
-1.340, 9.405e-6
-1.339, 3.239e-6
-1.338, -6.010e-6
-1.337, -1.526e-5
-1.336, -2.143e-5
-1.335, -3.068e-5
-1.334, -3.992e-5
-1.333, -4.917e-5
-1.332, -5.842e-5
-1.331, -6.767e-5
-1.330, -7.384e-5
-1.329, -8.617e-5
-1.328, -9.234e-5
-1.327, -1.016e-4
-1.326, -1.108e-4
-1.325, -1.170e-4
-1.324, -1.232e-4
-1.323, -1.293e-4
-1.322, -1.355e-4
-1.321, -1.448e-4
-1.320, -1.509e-4
-1.319, -1.602e-4
-1.318, -1.694e-4
-1.317, -1.756e-4
-1.316, -1.848e-4
-1.315, -1.941e-4
-1.314, -2.002e-4
-1.313, -2.095e-4
-1.312, -2.157e-4
-1.311, -2.218e-4
-1.310, -2.280e-4
-1.309, -2.342e-4
-1.308, -2.403e-4
-1.307, -2.465e-4
-1.306, -2.527e-4
-1.305, -2.588e-4
-1.304, -2.681e-4
-1.303, -2.773e-4
-1.302, -2.835e-4
-1.301, -2.927e-4
-1.300, -2.989e-4
-1.299, -3.082e-4
-1.298, -3.143e-4
-1.297, -3.205e-4
-1.296, -3.267e-4
-1.295, -3.297e-4
-1.294, -3.359e-4
-1.293, -3.421e-4
-1.292, -3.452e-4
-1.291, -3.544e-4
-1.290, -3.575e-4
-1.289, -3.637e-4
-1.288, -3.729e-4
-1.287, -3.791e-4
-1.286, -3.852e-4
-1.285, -3.945e-4
-1.284, -3.976e-4
-1.283, -4.068e-4
-1.282, -4.099e-4
-1.281, -4.161e-4
-1.280, -4.222e-4
-1.279, -4.253e-4
-1.278, -4.284e-4
-1.277, -4.346e-4
-1.276, -4.407e-4
-1.275, -4.469e-4
-1.274, -4.531e-4
-1.273, -4.592e-4
-1.272, -4.654e-4
-1.271, -4.716e-4
-1.270, -4.777e-4
-1.269, -4.839e-4
-1.268, -4.901e-4
-1.267, -4.962e-4
-1.266, -4.993e-4
-1.265, -5.024e-4
-1.264, -5.086e-4
-1.263, -5.116e-4
-1.262, -5.147e-4
-1.261, -5.209e-4
-1.260, -5.271e-4
-1.259, -5.332e-4
-1.258, -5.394e-4
-1.257, -5.425e-4
-1.256, -5.486e-4
-1.255, -5.579e-4
-1.254, -5.579e-4
-1.253, -5.671e-4
-1.252, -5.702e-4
-1.251, -5.733e-4
-1.250, -5.795e-4
-1.249, -5.826e-4
-1.248, -5.856e-4
-1.247, -5.918e-4
-1.246, -5.949e-4
-1.245, -5.980e-4
-1.244, -6.041e-4
-1.243, -6.103e-4
-1.242, -6.134e-4
-1.241, -6.195e-4
-1.240, -6.257e-4
-1.239, -6.319e-4
-1.238, -6.350e-4
-1.237, -6.380e-4
-1.236, -6.442e-4
-1.235, -6.473e-4
-1.234, -6.504e-4
-1.233, -6.535e-4
-1.232, -6.596e-4
-1.231, -6.627e-4
-1.230, -6.658e-4
-1.229, -6.750e-4
-1.228, -6.812e-4
-1.227, -6.843e-4
-1.226, -6.905e-4
-1.225, -6.966e-4
-1.224, -6.997e-4
-1.223, -7.059e-4
-1.222, -7.059e-4
-1.221, -7.120e-4
-1.220, -7.151e-4
-1.219, -7.182e-4
-1.218, -7.182e-4
-1.217, -7.244e-4
-1.216, -7.275e-4
-1.215, -7.336e-4
-1.214, -7.367e-4
-1.213, -7.429e-4
-1.212, -7.460e-4
-1.211, -7.521e-4
-1.210, -7.552e-4
-1.209, -7.614e-4
-1.208, -7.645e-4
-1.207, -7.675e-4
-1.206, -7.706e-4
-1.205, -7.706e-4
-1.204, -7.737e-4
-1.203, -7.768e-4
-1.202, -7.799e-4
-1.201, -7.860e-4
-1.200, -7.860e-4
-1.199, -7.922e-4
-1.198, -7.953e-4
-1.197, -7.984e-4
-1.196, -8.045e-4
-1.195, -8.107e-4
-1.194, -8.138e-4
-1.193, -8.200e-4
-1.192, -8.200e-4
-1.191, -8.230e-4
-1.190, -8.230e-4
-1.189, -8.261e-4
-1.188, -8.292e-4
-1.187, -8.323e-4
-1.186, -8.323e-4
-1.185, -8.354e-4
-1.184, -8.415e-4
-1.183, -8.446e-4
-1.182, -8.508e-4
-1.181, -8.539e-4
-1.180, -8.569e-4
-1.179, -8.631e-4
-1.178, -8.662e-4
-1.177, -8.693e-4
-1.176, -8.724e-4
-1.175, -8.754e-4
-1.174, -8.785e-4
-1.173, -8.785e-4
-1.172, -8.816e-4
-1.171, -8.847e-4
-1.170, -8.878e-4
-1.169, -8.909e-4
-1.168, -8.970e-4
-1.167, -9.001e-4
-1.166, -9.032e-4
-1.165, -9.063e-4
-1.164, -9.094e-4
-1.163, -9.155e-4
-1.162, -9.155e-4
-1.161, -9.186e-4
-1.160, -9.217e-4
-1.159, -9.217e-4
-1.158, -9.248e-4
-1.157, -9.279e-4
-1.156, -9.309e-4
-1.155, -9.309e-4
-1.154, -9.340e-4
-1.153, -9.402e-4
-1.152, -9.464e-4
-1.151, -9.494e-4
-1.150, -9.525e-4
-1.149, -9.587e-4
-1.148, -9.618e-4
-1.147, -9.618e-4
-1.146, -9.649e-4
-1.145, -9.679e-4
-1.144, -9.679e-4
-1.143, -9.679e-4
-1.142, -9.741e-4
-1.141, -9.741e-4
-1.140, -9.772e-4
-1.139, -9.803e-4
-1.138, -9.864e-4
-1.137, -9.895e-4
-1.136, -9.957e-4
-1.135, -1.002e-3
-1.134, -1.005e-3
-1.133, -1.011e-3
-1.132, -1.011e-3
-1.131, -1.014e-3
-1.130, -1.020e-3
-1.129, -1.020e-3
-1.128, -1.020e-3
-1.127, -1.027e-3
-1.126, -1.027e-3
-1.125, -1.033e-3
-1.124, -1.039e-3
-1.123, -1.042e-3
-1.122, -1.048e-3
-1.121, -1.054e-3
-1.120, -1.057e-3
-1.119, -1.064e-3
-1.118, -1.067e-3
-1.117, -1.073e-3
-1.116, -1.073e-3
-1.115, -1.076e-3
-1.114, -1.079e-3
-1.113, -1.079e-3
-1.112, -1.085e-3
-1.111, -1.085e-3
-1.110, -1.088e-3
-1.109, -1.094e-3
-1.108, -1.097e-3
-1.107, -1.101e-3
-1.106, -1.107e-3
-1.105, -1.110e-3
-1.104, -1.116e-3
-1.103, -1.122e-3
-1.102, -1.122e-3
-1.101, -1.125e-3
-1.100, -1.131e-3
-1.099, -1.131e-3
-1.098, -1.134e-3
-1.097, -1.138e-3
-1.096, -1.144e-3
-1.095, -1.147e-3
-1.094, -1.153e-3
-1.093, -1.156e-3
-1.092, -1.162e-3
-1.091, -1.168e-3
-1.090, -1.175e-3
-1.089, -1.178e-3
-1.088, -1.184e-3
-1.087, -1.190e-3
-1.086, -1.190e-3
-1.085, -1.196e-3
-1.084, -1.199e-3
-1.083, -1.199e-3
-1.082, -1.205e-3
-1.081, -1.208e-3
-1.080, -1.215e-3
-1.079, -1.221e-3
-1.078, -1.227e-3
-1.077, -1.233e-3
-1.076, -1.239e-3
-1.075, -1.242e-3
-1.074, -1.249e-3
-1.073, -1.255e-3
-1.072, -1.261e-3
-1.071, -1.267e-3
-1.070, -1.273e-3
-1.069, -1.276e-3
-1.068, -1.282e-3
-1.067, -1.286e-3
-1.066, -1.292e-3
-1.065, -1.298e-3
-1.064, -1.304e-3
-1.063, -1.313e-3
-1.062, -1.322e-3
-1.061, -1.329e-3
-1.060, -1.341e-3
-1.059, -1.347e-3
-1.058, -1.353e-3
-1.057, -1.363e-3
-1.056, -1.369e-3
-1.055, -1.378e-3
-1.054, -1.387e-3
-1.053, -1.390e-3
-1.052, -1.400e-3
-1.051, -1.406e-3
-1.050, -1.415e-3
-1.049, -1.424e-3
-1.048, -1.433e-3
-1.047, -1.446e-3
-1.046, -1.455e-3
-1.045, -1.464e-3
-1.044, -1.474e-3
-1.043, -1.486e-3
-1.042, -1.495e-3
-1.041, -1.501e-3
-1.040, -1.511e-3
-1.039, -1.520e-3
-1.038, -1.529e-3
-1.037, -1.535e-3
-1.036, -1.548e-3
-1.035, -1.554e-3
-1.034, -1.566e-3
-1.033, -1.575e-3
-1.032, -1.588e-3
-1.031, -1.600e-3
-1.030, -1.609e-3
-1.029, -1.622e-3
-1.028, -1.634e-3
-1.027, -1.640e-3
-1.026, -1.649e-3
-1.025, -1.659e-3
-1.024, -1.674e-3
-1.023, -1.680e-3
-1.022, -1.692e-3
-1.021, -1.702e-3
-1.020, -1.714e-3
-1.019, -1.726e-3
-1.018, -1.736e-3
-1.017, -1.748e-3
-1.016, -1.763e-3
-1.015, -1.776e-3
-1.014, -1.788e-3
-1.013, -1.800e-3
-1.012, -1.813e-3
-1.011, -1.825e-3
-1.010, -1.834e-3
-1.009, -1.844e-3
-1.008, -1.856e-3
-1.007, -1.865e-3
-1.006, -1.877e-3
-1.005, -1.890e-3
-1.004, -1.902e-3
-1.003, -1.918e-3
-1.002, -1.930e-3
-1.001, -1.942e-3
