Potential V vs RHE, Current mA cm-2
0.013299999999999867,-1.3045052896055502
0.012299999999999978,-2.9553319054180616
0.011299999999999866,-4.113980460007527
0.010299999999999976,-4.979783775524929
0.009299999999999864,-5.715433651454749
0.008299999999999974,-6.3647861380928
0.007299999999999862,-6.984429687433686
0.006299999999999972,-7.434307880790768
0.00529999999999986,-7.746959078060941
0.0042999999999999705,-8.12327228382504
0.0032999999999998586,-8.49392664438968
0.0022999999999999687,-8.827798511157829
0.0012999999999998568,-9.06688472083502
0.00029999999999996696,-9.27484728191518
-0.000700000000000145,-9.488468688194802
-0.0017000000000000348,-9.70774893967388
-0.0027000000000001467,-9.960982262349724
-0.0037000000000000366,-10.22411856412462
-0.0047000000000001485,-10.338710179413688
-0.005700000000000038,-10.473107752900868
-0.00670000000000015,-10.724926364276843
-0.00770000000000004,-10.989477377351605
-0.008700000000000152,-11.157828022035545
-0.009700000000000042,-11.323349244119754
-0.010700000000000154,-11.521408826100858
-0.011700000000000044,-11.7180536967821
-0.012700000000000156,-11.899136743164824
-0.013700000000000045,-12.12831997374296
-0.014700000000000157,-12.33062368962366
-0.015700000000000047,-12.453703572711918
-0.01670000000000016,-12.648933732093294
-0.01770000000000005,-12.964414351963198
-0.01870000000000016,-13.204915272940253
-0.01970000000000005,-13.31950688822932
-0.020700000000000163,-13.49351637811272
-0.021700000000000053,-13.813241131882217
-0.022700000000000164,-14.090524546655764
-0.023700000000000054,-14.26028990263957
-0.024700000000000166,-14.500790823616628
-0.025700000000000056,-14.783733083589633
-0.026700000000000168,-15.01008689156804
-0.027700000000000058,-15.321323377538347
-0.02870000000000017,-15.675001202504609
-0.02970000000000006,-15.901355010483012
-0.03070000000000017,-16.085267479465468
-0.03170000000000006,-16.453092417430376
-0.03270000000000017,-16.891652920388537
-0.03370000000000006,-17.118006728366943
-0.034700000000000175,-17.358507649344002
-0.035700000000000065,-17.75462681330621
-0.03670000000000018,-18.13659886426977
-0.03770000000000007,-18.44783535024008
-0.03870000000000018,-18.858101627200938
-0.03970000000000007,-19.2400736781645
-0.04070000000000018,-19.523015938137508
-0.04170000000000007,-19.876693763103766
-0.04270000000000018,-20.414284057052477
-0.04370000000000007,-20.76796188201874
-0.044700000000000184,-21.050904141991744
-0.045700000000000074,-21.489464644949905
-0.046700000000000186,-21.98461359990267
-0.047700000000000076,-22.352438537867577
-0.04870000000000019,-22.734410588831135
-0.04970000000000008,-23.215412430785253
-0.05070000000000019,-23.61153159474746
-0.05170000000000008,-24.021797871708326
-0.05270000000000019,-24.57353527865569
-0.05370000000000008,-25.0828313466071
-0.05470000000000019,-25.39406783257741
-0.05570000000000008,-25.747745657543668
-0.056700000000000195,-26.32777729048833
-0.057700000000000085,-26.822926245441096
-0.058700000000000196,-27.14830984441005
-0.059700000000000086,-27.64345879936282
-0.0607000000000002,-28.19519620631018
-0.06170000000000009,-28.60546248327104
-0.0627000000000002,-29.100611438223805
-0.06370000000000009,-29.66649595816982
-0.0647000000000002,-30.10505646112798
-0.06570000000000009,-30.43044006009694
-0.0667000000000002,-30.968030354045652
-0.0677000000000001,-31.57635621298762
-0.0687000000000002,-31.95832826395118
-0.0697000000000001,-32.354447427913385
-0.07070000000000021,-32.892037721862096
-0.0717000000000001,-33.42962801581082
-0.07270000000000021,-33.76915872777842
-0.0737000000000001,-34.221866343735236
-0.07470000000000021,-34.773603750682604
-0.0757000000000001,-35.183870027643465
-0.07670000000000021,-35.56584207860703
-0.0777000000000001,-36.16002082455034
-0.07870000000000021,-36.740052457495004
-0.0797000000000001,-36.98055337847206
-0.08070000000000022,-37.249348525446415
-0.0817000000000001,-37.87182149738703
-0.08270000000000022,-38.480147356329
-0.08370000000000011,-38.74894250330336
-0.08470000000000022,-39.116767441268266
-0.08570000000000011,-39.68265196121428
-0.08670000000000022,-40.06462401217784
-0.08770000000000011,-40.24853648116029
-0.08870000000000022,-40.743685436113054
-0.08970000000000011,-41.25298150406447
-0.09070000000000022,-41.63495355502803
-0.09170000000000011,-42.00277849299294
-0.09270000000000023,-42.582810125937606
-0.09370000000000012,-42.92234083790521
-0.09470000000000023,-42.99307640289846
-0.09570000000000012,-43.37504845386202
-0.09670000000000023,-44.054109877797245
-0.09770000000000012,-44.3511992507689
-0.09870000000000023,-44.563405945748656
-0.09970000000000012,-45.07270201370007
-0.10070000000000023,-45.497115403659585
-0.10170000000000012,-45.61029230764878
-0.10270000000000024,-46.10544126260155
-0.10370000000000013,-46.65717866954891
-0.10470000000000024,-46.86938536452866
-0.10570000000000013,-46.94012092952192
-0.10670000000000024,-47.46356411047198
-0.10770000000000013,-47.972860178423396
-0.10870000000000024,-48.057742856415295
-0.10970000000000013,-48.2840966643937
-0.11070000000000024,-48.80753984534376
-0.11170000000000013,-49.04804076632082
-0.11270000000000002,-49.24610034830193
-0.11370000000000013,-49.69880796425874
-0.11470000000000002,-50.094927128220945
-0.11570000000000014,-50.1656626932142
-0.11670000000000003,-50.32128093619935
-0.11770000000000014,-50.81642989115212
-0.11870000000000003,-51.24084328111163
-0.11970000000000014,-50.85887123014807
-0.12070000000000003,-50.943753908139975
-0.12170000000000014,-51.60866821907654
-0.12270000000000003,-51.990640270040096
-0.12370000000000014,-52.1886998520212
-0.12470000000000003,-52.49993633799151
-0.12570000000000014,-52.853614162957776
-0.12670000000000003,-52.896055501953725
-0.12770000000000015,-53.19314487492538
-0.12870000000000004,-53.71658805587545
-0.12970000000000015,-53.999530315848446
-0.13070000000000004,-53.9570889768525
-0.13170000000000015,-54.33906102781606
-0.13270000000000004,-54.834209982768826
-0.13370000000000015,-54.919092660760725
-0.13470000000000004,-55.018122451751275
-0.13570000000000015,-55.51327140670405
-0.13670000000000004,-55.881096344668954
-0.13770000000000016,-55.8952434576676
-0.13870000000000005,-56.14989149164331
-0.13970000000000016,-56.50356931660957
-0.14070000000000005,-56.64504044659606
-0.14170000000000016,-56.84310002857717
-0.14270000000000005,-57.19677785354343
-0.14370000000000016,-57.550455678509685
-0.14470000000000005,-57.73436814749215
-0.14570000000000016,-57.86169216448
-0.14670000000000005,-58.427576684426015
-0.14770000000000016,-58.583194927411164
-0.14870000000000005,-58.894431413381476
-0.14970000000000017,-59.403727481332886
-0.15070000000000006,-59.64422840230995
-0.15170000000000017,-59.54519861131939
-0.15270000000000006,-59.87058221028835
-0.15370000000000017,-60.37987827823977
-0.15470000000000006,-60.54964363422357
-0.15570000000000017,-60.54964363422357
-0.15670000000000006,-61.05893970217499
-0.15770000000000017,-61.53994154412909
-0.15870000000000006,-61.61067710912235
-0.15970000000000018,-61.8228838041021
-0.16070000000000007,-62.31803275905487
-0.16170000000000018,-62.61512213202652
-0.16270000000000007,-62.629269245025185
-0.16370000000000018,-63.08197686098199
-0.16470000000000007,-63.633714267929356
-0.16570000000000018,-63.74689117191855
-0.16670000000000007,-63.69030271992394
-0.16770000000000018,-64.18545167487672
-0.16870000000000007,-64.51083527384567
-0.16970000000000018,-64.44009970885242
-0.17070000000000007,-64.86451309881193
-0.17170000000000019,-65.48698607075255
-0.17270000000000008,-65.68504565273366
-0.1737000000000002,-65.84066389571882
-0.17470000000000008,-66.43484264166212
-0.1757000000000002,-66.74607912763243
-0.17670000000000008,-66.7885204666284
-0.1777000000000002,-67.24122808258521
-0.17870000000000008,-67.89199528052312
-0.1797000000000002,-68.03346641050962
-0.18070000000000008,-68.01931929751096
-0.1817000000000002,-68.65593938245023
-0.18270000000000008,-69.30670658038814
-0.1837000000000002,-69.39158925838004
-0.1847000000000001,-69.6320901793571
-0.1857000000000002,-70.18382758630447
-0.1867000000000001,-70.38188716828559
-0.1877000000000002,-70.49506407227477
-0.1887000000000001,-71.1458312702127
-0.1897000000000002,-71.83903980714656
-0.1907000000000001,-72.09368784112228
-0.1917000000000001,-72.50395411808313
-0.19269999999999998,-73.31033955900621
-0.1937000000000001,-73.74890006196436
-0.19469999999999998,-73.81963562695762
-0.1957000000000001,-74.45625571189689
-0.19669999999999999,-75.20605270082535
-0.1977000000000001,-75.50314207379701
-0.1987,-75.94170257675518
-0.1997000000000001,-76.60661688769173
-0.2007,-77.11591295564315
-0.2017000000000001,-77.243236972631
-0.2027,-78.16279931754329
-0.2037000000000001,-79.01162609746228
-0.2047,-79.37945103542721
-0.2057000000000001,-79.66239329540022
-0.2067,-80.44048451032599
-0.2077000000000001,-81.16198727325715
-0.2087,-81.44492953323017
-0.2097000000000001,-82.20887363515729
-0.2107,-83.12843598006955
-0.2117000000000001,-83.63773204802096
-0.2127,-84.21776368096563
-0.2137000000000001,-85.23635581686847
-0.2147,-86.15591816178073
-0.2157000000000001,-86.6227728907362
-0.2167,-87.27354008867411
-0.21770000000000012,-88.54678025855264
-0.2187,-89.31072436047977
-0.21970000000000012,-89.70684352444198
-0.2207,-90.6971414343475
-0.22170000000000012,-91.72988068324898
-0.2227,-92.30991231619365
-0.22370000000000012,-93.04556219212347
-0.2247,-94.318802362002
-0.22570000000000012,-95.21007048091697
-0.2267,-95.64863098387512
-0.22770000000000012,-96.7662529107685
-0.22870000000000001,-98.09608153264163
-0.22970000000000013,-98.67611316558632
-0.23070000000000002,-99.38346881551882
-0.23170000000000013,-100.82647434138116
-0.23270000000000002,-102.1845971892516
-0.23370000000000013,-102.62315769220976
-0.23470000000000002,-103.37295468113824
-0.23570000000000013,-104.80181309400191
-0.23670000000000002,-105.86284656890071
-0.2376999999999999,-106.48531954084132
-0.23870000000000002,-107.7161183717239
-0.2396999999999999,-109.07424121959433
-0.24070000000000003,-109.8806266605174
-0.24169999999999991,-110.40406984146746
-0.24270000000000003,-112.05928206230955
-0.24369999999999992,-113.36081645818538
-0.24470000000000003,-113.67205294415571
-0.24569999999999992,-114.30867302909498
-0.24670000000000003,-116.31756307490332
-0.24769999999999992,-117.33615521080614
-0.24870000000000003,-117.47762634079265
-0.24969999999999992,-118.87819052765903
-0.25070000000000003,-120.32119605352138
-0.2516999999999999,-120.77390366947817
-0.25270000000000004,-121.60858333639854
-0.2536999999999999,-123.1364715402528
-0.25470000000000004,-124.18335790215292
-0.2556999999999999,-124.77753664809624
-0.25670000000000004,-125.78198167100041
-0.25769999999999993,-127.22498719686273
-0.25870000000000004,-127.80501882980741
-0.25969999999999993,-128.03137263778584
-0.26070000000000004,-129.6582906326306
-0.26169999999999993,-130.66273565553476
-0.26270000000000004,-131.44082687046057
-0.26369999999999993,-132.58674302335123
-0.26470000000000005,-134.45416193917308
-0.26569999999999994,-134.9917522331218
-0.26670000000000005,-135.47275407507593
-0.26769999999999994,-136.77428847095175
-0.26870000000000005,-137.9626459628384
-0.26969999999999994,-138.34461801380195
-0.27070000000000005,-139.16515056772366
-0.27169999999999994,-140.5515676415914
-0.27270000000000005,-141.30136463051988
-0.27369999999999994,-141.47112998650366
-0.27470000000000006,-142.4614278964092
-0.27569999999999995,-143.0273124163552
-0.27670000000000006,-143.0273124163552
-0.27769999999999995,-143.0273124163552
-0.27870000000000006,-143.0273124163552
-0.27969999999999995,-143.0273124163552
-0.28070000000000006,-143.0273124163552
-0.28169999999999995,-143.0273124163552
-0.28270000000000006,-143.0273124163552
-0.28369999999999995,-143.0273124163552
-0.28470000000000006,-143.0273124163552
-0.28569999999999995,-143.0273124163552
-0.28670000000000007,-143.0273124163552
-0.28769999999999996,-143.0273124163552
-0.28870000000000007,-143.0273124163552
-0.28969999999999996,-143.0273124163552
-0.29070000000000007,-143.0273124163552
-0.29169999999999996,-143.0273124163552
-0.29270000000000007,-143.0273124163552
-0.29369999999999996,-143.0273124163552
-0.2947000000000001,-143.0273124163552
-0.29569999999999996,-143.0273124163552
-0.2967000000000001,-143.0273124163552
-0.29769999999999996,-143.0273124163552
-0.2987000000000001,-143.0273124163552
-0.29969999999999997,-143.0273124163552
-0.3007000000000001,-143.0273124163552
-0.30169999999999997,-143.0273124163552
-0.3027000000000001,-143.0273124163552
-0.30369999999999997,-143.0273124163552
-0.3047000000000001,-143.0273124163552
-0.30569999999999997,-143.0273124163552
-0.3067000000000001,-143.0273124163552
-0.3077,-143.0273124163552
-0.3087000000000001,-143.0273124163552
-0.3097,-143.0273124163552
-0.3107000000000001,-143.0273124163552
-0.3117,-142.6028990263957
-0.3127000000000001,-140.84865701456303
-0.3137,-139.61785818368048
-0.3147000000000001,-138.96709098574257
-0.3157,-137.2411431999072
-0.3167000000000001,-135.14737047610697
-0.3177,-134.07218988820952
-0.3187000000000001,-133.08189197830401
-0.3197,-131.10129615849294
-0.3207000000000001,-129.47437816364814
-0.3217,-128.51237447973992
-0.3227000000000001,-126.97033916288706
-0.3237,-124.40971171013132
-0.3247000000000001,-122.91011773227437
-0.3257,-121.90567270937021
-0.3267000000000001,-119.6279875165875
-0.3277,-117.61909747077915
-0.3287000000000001,-116.41659286589388
-0.3297,-114.97358734003153
-0.3307000000000001,-112.32807720928389
-0.3317,-110.7577476664337
-0.3327000000000001,-109.654272852539
-0.3337,-107.7727068237185
-0.3347000000000001,-105.608198534925
-0.3357,-103.96713342708154
-0.3367000000000001,-102.50998078822056
-0.3377,-100.61426764640142
-0.3387000000000001,-98.94490831256067
-0.3397,-97.6575210296835
-0.3407000000000001,-95.97401458284409
-0.3417,-93.88024185904384
-0.3427000000000001,-92.6070016891653
-0.3437,-91.48937976227192
-0.3447000000000001,-89.62196084645008
-0.3457,-88.16480820758908
-0.3467000000000001,-87.08962761969167
-0.3477,-85.68906343282526
-0.3487000000000001,-83.8216445170034
-0.3497,-82.94452351108711
-0.3507000000000001,-82.08154961816942
-0.3517,-80.59610275331114
-0.3527000000000001,-79.35115680942992
-0.3537,-78.60135982050144
-0.3547000000000001,-77.42714944161345
-0.3557,-75.91340835075786
-0.35670000000000013,-75.220199813824
-0.3577,-74.72505085887124
-0.35870000000000013,-73.46595780199135
-0.3597,-72.58883679607503
-0.36070000000000013,-72.24930608410743
-0.3617,-71.86733403314386
-0.3626999999999999,-70.72141788025318
-0.3637,-69.9716208913247
-0.3646999999999999,-69.54720750136521
-0.3657,-68.61349804345427
-0.3666999999999999,-68.04761352350828
-0.3677,-67.87784816752446
-0.3686999999999999,-67.39684632557035
-0.36970000000000003,-66.43484264166212
-0.3706999999999999,-66.29337151167562
-0.37170000000000003,-66.22263594668237
-0.3726999999999999,-65.68504565273366
-0.37370000000000003,-65.3030736017701
-0.3746999999999999,-65.3596620537647
-0.37570000000000003,-65.18989669778088
-0.3766999999999999,-64.68060062982947
-0.37770000000000004,-64.49668816084701
-0.3786999999999999,-64.73718908182407
-0.37970000000000004,-64.63815929083353
-0.3806999999999999,-64.35521703086052
-0.38170000000000004,-64.70889485582677
-0.38269999999999993,-65.105014019789
-0.38370000000000004,-64.87866021181057
-0.38469999999999993,-64.92110155080654
-0.38570000000000004,-65.4162505057593
-0.38669999999999993,-63.831773849910455
-0.38570000000000004,-60.691114764210084
-0.38469999999999993,-58.73881317039633
-0.38370000000000004,-57.33824898352994
-0.38269999999999993,-55.73962521468245
-0.38170000000000004,-54.14100144583495
-0.3806999999999999,-52.980938179945625
-0.37970000000000004,-51.77843357506035
-0.3786999999999999,-50.30713382320071
-0.37770000000000004,-49.005599427324874
-0.3766999999999999,-48.01530151741934
-0.37570000000000003,-46.91182670352462
-0.3746999999999999,-45.681027872642034
-0.37370000000000003,-44.67658284973786
-0.3726999999999999,-43.61554937483908
-0.37170000000000003,-42.4413389959511
-0.3706999999999999,-41.40859974704962
-0.36970000000000003,-40.65880275812115
-0.3686999999999999,-39.75338752620753
-0.3677,-38.49429446932764
-0.3666999999999999,-37.57473212441538
-0.3657,-36.90981781347881
-0.3646999999999999,-36.08928525955708
-0.3637,-35.12728157564886
-0.3626999999999999,-34.32089613472579
-0.3617,-33.59939337179462
-0.36070000000000013,-32.7788608178729
-0.3597,-32.01491671594578
-0.35870000000000013,-31.350002405009217
-0.3577,-30.55776407708479
-0.35670000000000013,-29.72308441016442
-0.3557,-29.058170099227848
-0.3547000000000001,-28.548874031276437
-0.3537,-27.827371268345274
-0.3527000000000001,-26.9643973754276
-0.3517,-26.38436574248293
-0.3507000000000001,-25.91751101352747
-0.3497,-25.18186113759765
-0.3487000000000001,-24.545241052658387
-0.3477,-24.035944984706973
-0.3467000000000001,-23.427619125765005
-0.3457,-22.790999040825742
-0.3447000000000001,-22.295850085872978
-0.3437,-21.758259791924264
-0.3427000000000001,-21.093345480987697
-0.3417,-20.584049413036283
-0.3407000000000001,-20.187930249074075
-0.3397,-19.65033995512536
-0.3387000000000001,-19.042014096183394
-0.3377,-18.49027668923603
-0.3367000000000001,-18.10830463827247
-0.3357,-17.599008570321057
-0.3347000000000001,-17.089712502369647
-0.3337,-16.70774045140608
-0.3327000000000001,-16.24088572245062
-0.3317,-15.717442541500558
-0.3307000000000001,-15.335470490536997
-0.3297,-14.995939778569388
-0.3287000000000001,-14.514937936615278
-0.3277,-13.994324178264941
-0.3267000000000001,-13.637816930698953
-0.3257,-13.318092176929456
-0.3247000000000001,-12.903581766069
-0.3237,-12.515950869905978
-0.3227000000000001,-12.107099304244983
-0.3217,-11.710980140282773
-0.3207000000000001,-11.31627568762043
-0.3197,-11.053139385845531
-0.3187000000000001,-10.720682230377248
-0.3177,-10.284951150018816
-0.3167000000000001,-9.911467366854446
-0.3157,-9.666722311977795
-0.3147000000000001,-9.406415432802628
-0.3137,-9.031516938338395
-0.3127000000000001,-8.658033155174026
-0.3117,-8.379335029100613
-0.3107000000000001,-8.104881036926795
-0.3097,-7.836085889952438
-0.3087000000000001,-7.558802475178892
-0.3077,-7.219271763211282
-0.3067000000000001,-6.899547009441784
-0.30569999999999997,-6.6689490675637835
-0.3047000000000001,-6.470889485582678
-0.30369999999999997,-6.175214823910885
-0.3027000000000001,-5.847001802342197
-0.30169999999999997,-5.593768479666355
-0.3007000000000001,-5.411270721983764
-0.29969999999999997,-5.177843357506034
-0.2987000000000001,-4.928854168729788
-0.29769999999999996,-4.6572295991557
-0.2967000000000001,-4.408240410379454
-0.29569999999999996,-4.2087661170984845
-0.2947000000000001,-4.033341915915219
-0.29369999999999996,-3.8282087774347895
-0.29270000000000007,-3.5353635383627267
-0.29169999999999996,-3.3047655964847262
-0.29070000000000007,-3.1703680229975473
-0.28969999999999996,-3.000602667013743
-0.28870000000000007,-2.767175302536012
-0.28769999999999996,-2.539406783257741
-0.28670000000000007,-2.3356883560771755
-0.28569999999999995,-2.1984613599902674
-0.28470000000000006,-2.042843117005113
-0.28369999999999995,-1.8391246898245475
-0.28270000000000006,-1.626917994844792
-0.28169999999999995,-1.4486643710617975
-0.28070000000000006,-1.3056370586454424
-0.27969999999999995,-1.191186914486361
-0.27870000000000006,-1.008972099063744
-0.27769999999999995,-0.7882771362847985
-0.27670000000000006,-0.6183703091710075
-0.27569999999999995,-0.5118425482911703
-0.27470000000000006,-0.4149348242504153
-0.27369999999999994,-0.24700859295643537
-0.27270000000000005,-0.04396922719980534
-0.27169999999999994,0.10748976456374548
-0.27070000000000005,0.21319699288966104
-0.26969999999999994,0.3146317930899841
-0.26870000000000005,0.4677035557353811
-0.26769999999999994,0.6557186874874444
-0.26670000000000005,0.8086489790028549
-0.26569999999999994,0.8878728117952971
-0.26470000000000005,0.9755849123869293
