Potential V vs RHE, Current mA cm-2
0.013299999999999867,2.7898106833338523
0.012299999999999978,2.30880884137974
0.011299999999999866,1.8730777610213083
0.010299999999999976,1.4812027309586933
0.009299999999999864,1.0881959318561862
0.008299999999999974,0.7829012333453113
0.007299999999999862,0.43403342679859325
0.006299999999999972,0.12863969849672777
0.00529999999999986,-0.1330535977523067
0.0042999999999999705,-0.4384190318281749
0.0032999999999998586,-0.7001406223032067
0.0022999999999999687,-1.0054353208140816
0.0012999999999998568,-1.2671569112891135
0.00029999999999996696,-1.5717442541500557
-0.000700000000000145,-1.8334658446250875
-0.0017000000000000348,-2.095187435100119
-0.0027000000000001467,-2.3569090255751513
-0.0037000000000000366,-2.618630616050183
-0.0047000000000001485,-2.8379108675292635
-0.005700000000000038,-3.0119203574126634
-0.00670000000000015,-3.2297858975918787
-0.00770000000000004,-3.403795387475278
-0.008700000000000152,-3.579219588658543
-0.009700000000000042,-3.7532290785419424
-0.010700000000000154,-3.971094618721158
-0.011700000000000044,-4.146518819904423
-0.012700000000000156,-4.364384360083638
-0.013700000000000045,-4.582249900262854
-0.014700000000000157,-4.800115440442069
-0.015700000000000047,-4.9302688800296535
-0.01670000000000016,-5.149549131508733
-0.01770000000000005,-5.323558621392133
-0.01870000000000016,-5.453712060979717
-0.01970000000000005,-5.585280211867165
-0.020700000000000163,-5.759289701750564
-0.021700000000000053,-5.890857852638012
-0.022700000000000164,-6.021011292225596
-0.023700000000000054,-6.152579443113044
-0.024700000000000166,-6.282732882700628
-0.025700000000000056,-6.458157083883892
-0.026700000000000168,-6.632166573767292
-0.027700000000000058,-6.806176063650692
-0.02870000000000017,-6.93774421453814
-0.02970000000000006,-7.067897654125724
-0.03070000000000017,-7.199465805013171
-0.03170000000000006,-7.329619244600755
-0.03270000000000017,-7.461187395488204
-0.03370000000000006,-7.5474847847799715
-0.034700000000000175,-7.635196885371603
-0.035700000000000065,-7.7653503249591855
-0.03670000000000018,-7.896918475846635
-0.03770000000000007,-8.027071915434218
-0.03870000000000018,-8.11478401602585
-0.03970000000000007,-8.246352166913299
-0.04070000000000018,-8.4203616567967
-0.04170000000000007,-8.55051509638428
-0.04270000000000018,-8.638227196975913
-0.04370000000000007,-8.725939297567548
-0.044700000000000184,-8.85609273715513
-0.045700000000000074,-8.943804837746763
-0.046700000000000186,-9.031516938338395
-0.047700000000000076,-9.11781432763016
-0.04870000000000019,-9.205526428221793
-0.04970000000000008,-9.293238528813426
-0.05070000000000019,-9.423391968401008
-0.05170000000000008,-9.511104068992642
-0.05270000000000019,-9.59740145828441
-0.05370000000000008,-9.728969609171857
-0.05470000000000019,-9.902979099055257
-0.05570000000000008,-9.99069119964689
-0.056700000000000195,-10.078403300238522
-0.057700000000000085,-10.164700689530287
-0.058700000000000196,-10.25241279012192
-0.059700000000000086,-10.340124890713554
-0.0607000000000002,-10.382566229709504
-0.06170000000000009,-10.470278330301136
-0.0627000000000002,-10.557990430892769
-0.06370000000000009,-10.644287820184536
-0.0647000000000002,-10.731999920776168
-0.06570000000000009,-10.863568071663616
-0.0667000000000002,-10.949865460955383
-0.0677000000000001,-11.081433611842833
-0.0687000000000002,-11.211587051430415
-0.0697000000000001,-11.299299152022046
-0.07070000000000021,-11.385596541313816
-0.0717000000000001,-11.42945259160963
-0.07270000000000021,-11.517164692201263
-0.0737000000000001,-11.604876792792895
-0.07470000000000021,-11.647318131788847
-0.0757000000000001,-11.73503023238048
-0.07670000000000021,-11.778886282676295
-0.0777000000000001,-11.909039722263879
-0.07870000000000021,-11.996751822855511
-0.0797000000000001,-12.12831997374296
-0.08070000000000022,-12.170761312738911
-0.0817000000000001,-12.258473413330542
-0.08270000000000022,-12.390041564217992
-0.08370000000000011,-12.520195003805576
-0.08470000000000022,-12.56405105410139
-0.08570000000000011,-12.651763154693022
-0.08670000000000022,-12.694204493688973
-0.08770000000000011,-12.781916594280606
-0.08870000000000022,-12.869628694872238
-0.08970000000000011,-12.913484745168056
-0.09070000000000022,-12.955926084164007
-0.09170000000000011,-13.087494235051453
-0.09270000000000023,-13.175206335643086
-0.09370000000000012,-13.30535977523067
-0.09470000000000023,-13.3930718758223
-0.09570000000000012,-13.47936926511407
-0.09670000000000023,-13.567081365705702
-0.09770000000000012,-13.654793466297335
-0.09870000000000023,-13.741090855589102
-0.09970000000000012,-13.784946905884919
-0.10070000000000023,-13.872659006476551
-0.10170000000000012,-13.916515056772363
-0.10270000000000024,-14.002812446064135
-0.10370000000000013,-14.090524546655764
-0.10470000000000024,-14.13438059695158
-0.10570000000000013,-14.26028990263957
-0.10670000000000024,-14.401761032626075
-0.10770000000000013,-14.486643710617974
-0.10870000000000024,-14.57152638860988
-0.10970000000000013,-14.69885040559773
-0.11070000000000024,-14.741291744593681
-0.11170000000000013,-14.826174422585586
-0.11270000000000002,-14.925204213576137
-0.11370000000000013,-14.967645552572087
-0.11470000000000002,-15.05252823056399
-0.11570000000000014,-15.094969569559943
-0.11670000000000003,-15.179852247551842
-0.11770000000000014,-15.264734925543747
-0.11870000000000003,-15.3920589425316
-0.11970000000000014,-15.491088733522153
-0.12070000000000003,-15.618412750510005
-0.12170000000000014,-15.70329542850191
-0.12270000000000003,-15.78817810649381
-0.12370000000000014,-15.87306078448571
-0.12470000000000003,-15.972090575476265
-0.12570000000000014,-16.099414592464115
-0.12670000000000003,-16.141855931460068
-0.12770000000000015,-16.184297270456018
-0.12870000000000004,-16.269179948447924
-0.12970000000000015,-16.354062626439823
-0.13070000000000004,-16.438945304431726
-0.13170000000000015,-16.53797509542228
-0.13270000000000004,-16.622857773414182
-0.13370000000000015,-16.750181790402035
-0.13470000000000004,-16.877505807389888
-0.13570000000000015,-16.962388485381787
-0.13670000000000004,-17.061418276372343
-0.13770000000000016,-17.146300954364243
-0.13870000000000005,-17.231183632356142
-0.13970000000000016,-17.316066310348052
-0.14070000000000005,-17.358507649344002
-0.14170000000000016,-17.4433903273359
-0.14270000000000005,-17.542420118326454
-0.14370000000000016,-17.584861457322408
-0.14470000000000005,-17.71218547431026
-0.14570000000000016,-17.797068152302163
-0.14670000000000005,-17.924392169290012
-0.14770000000000016,-18.06586329927652
-0.14870000000000005,-18.15074597726842
-0.14970000000000017,-18.27806999425627
-0.15070000000000006,-18.362952672248177
-0.15170000000000017,-18.44783535024008
-0.15270000000000006,-18.53271802823198
-0.15370000000000017,-18.674189158218486
-0.15470000000000006,-18.716630497214435
-0.15570000000000017,-18.80151317520634
-0.15670000000000006,-18.88639585319824
-0.15770000000000017,-18.97127853119014
-0.15870000000000006,-19.155191000172596
-0.15970000000000018,-19.28251501716045
-0.16070000000000007,-19.367397695152352
-0.16170000000000018,-19.452280373144255
-0.16270000000000007,-19.537163051136158
-0.16370000000000018,-19.721075520118614
-0.16470000000000007,-19.805958198110513
-0.16570000000000018,-19.848399537106463
-0.16670000000000007,-19.93328221509837
-0.16770000000000018,-20.01816489309027
-0.16870000000000007,-20.159636023076775
-0.16970000000000018,-20.244518701068674
-0.17070000000000007,-20.286960040064624
-0.17170000000000019,-20.414284057052477
-0.17270000000000008,-20.541608074040333
-0.1737000000000002,-20.683079204026836
-0.17470000000000008,-20.810403221014692
-0.1757000000000002,-20.93772723800254
-0.17670000000000008,-21.065051254990397
-0.1777000000000002,-21.149933932982297
-0.17870000000000008,-21.291405062968803
-0.1797000000000002,-21.333846401964752
-0.18070000000000008,-21.461170418952605
-0.1817000000000002,-21.54605309694451
-0.18270000000000008,-21.63093577493641
-0.1837000000000002,-21.772406904922917
-0.1847000000000001,-21.857289582914817
-0.1857000000000002,-21.98461359990267
-0.1867000000000001,-22.111937616890522
-0.1877000000000002,-22.253408746877028
-0.1887000000000001,-22.33829142486893
-0.1897000000000002,-22.42317410286083
-0.1907000000000001,-22.550498119848687
-0.1917000000000001,-22.63538079784059
-0.19269999999999998,-22.776851927827092
-0.1937000000000001,-22.861734605818995
-0.19469999999999998,-22.904175944814945
-0.1957000000000001,-23.031499961802798
-0.19669999999999999,-23.1163826397947
-0.1977000000000001,-23.2012653177866
-0.1987,-23.300295108777156
-0.1997000000000001,-23.427619125765005
-0.2007,-23.55494314275286
-0.2017000000000001,-23.682267159740714
-0.2027,-23.767149837732617
-0.2037000000000001,-23.908620967719123
-0.2047,-23.993503645711023
-0.2057000000000001,-24.078386323702922
-0.2067,-24.20571034069078
-0.2077000000000001,-24.290593018682678
-0.2087,-24.432064148669184
-0.2097000000000001,-24.559388165657033
-0.2107,-24.64427084364894
-0.2117000000000001,-24.771594860636792
-0.2127,-24.870624651627345
-0.2137000000000001,-25.04039000761115
-0.2147,-25.167714024599
-0.2157000000000001,-25.337479380582806
-0.2167,-25.43650917157336
-0.21770000000000012,-25.521391849565262
-0.2187,-25.60627452755716
-0.21970000000000012,-25.691157205549064
-0.2207,-25.81848122253692
-0.22170000000000012,-25.86092256153287
-0.2227,-25.959952352523427
-0.22370000000000012,-26.129717708507226
-0.2247,-26.257041725495082
-0.22570000000000012,-26.38436574248293
-0.2267,-26.525836872469437
-0.22770000000000012,-26.65316088945729
-0.22870000000000001,-26.780484906445146
-0.22970000000000013,-26.86536758443705
-0.23070000000000002,-27.00683871442355
-0.23170000000000013,-27.091721392415455
-0.23270000000000002,-27.219045409403304
-0.23370000000000013,-27.303928087395207
-0.23470000000000002,-27.38881076538711
-0.23570000000000013,-27.487840556377662
-0.23670000000000002,-27.572723234369565
-0.2376999999999999,-27.700047251357418
-0.23870000000000002,-27.869812607341224
-0.2396999999999999,-28.011283737327723
-0.24070000000000003,-28.13860775431558
-0.24169999999999991,-28.265931771303435
-0.24270000000000003,-28.393255788291288
-0.24369999999999992,-28.577168257273744
-0.24470000000000003,-28.662050935265643
-0.24569999999999992,-28.746933613257543
-0.24670000000000003,-28.831816291249446
-0.24769999999999992,-28.959140308237306
-0.24870000000000003,-29.058170099227848
-0.24969999999999992,-29.14305277721976
-0.25070000000000003,-29.22793545521166
-0.2516999999999999,-29.35525947219951
-0.25270000000000004,-29.525024828183312
-0.2536999999999999,-29.62405461917387
-0.25470000000000004,-29.751378636161718
-0.2556999999999999,-29.836261314153624
-0.25670000000000004,-30.00602667013743
-0.25769999999999993,-30.147497800123933
-0.25870000000000004,-30.232380478115836
-0.25969999999999993,-30.317263156107735
-0.26070000000000004,-30.444587173095588
-0.26169999999999993,-30.571911190083444
-0.26270000000000004,-30.71338232006995
-0.26369999999999993,-30.8407063370578
-0.26470000000000005,-30.968030354045652
-0.26569999999999994,-31.095354371033505
-0.26670000000000005,-31.27926684001596
-0.26769999999999994,-31.449032195999767
-0.26870000000000005,-31.533914873991666
-0.26969999999999994,-31.661238890979522
-0.27070000000000005,-31.802710020966025
-0.27169999999999994,-31.930034037953877
-0.27270000000000005,-32.05735805494172
-0.27369999999999994,-32.14224073293363
-0.27470000000000006,-32.24127052392419
-0.27569999999999995,-32.41103587990799
-0.27670000000000006,-32.53835989689585
-0.27769999999999995,-32.62324257488775
-0.27870000000000006,-32.70812525287965
-0.27969999999999995,-32.84959638286615
-0.28070000000000006,-33.01936173884996
-0.28169999999999995,-33.18912709483376
-0.28270000000000006,-33.330598224820264
-0.28369999999999995,-33.41548090281216
-0.28470000000000006,-33.54280491980002
-0.28569999999999995,-33.712570275783825
-0.28670000000000007,-33.81160006677438
-0.28769999999999996,-33.89648274476628
-0.28870000000000007,-33.98136542275818
-0.28969999999999996,-34.10868943974604
-0.29070000000000007,-34.236013456733886
-0.29169999999999996,-34.377484586720385
-0.29270000000000007,-34.50480860370825
-0.29369999999999996,-34.632132620696105
-0.2947000000000001,-34.8018979766799
-0.29569999999999996,-34.94336910666641
-0.2967000000000001,-35.02825178465831
-0.29769999999999996,-35.11313446265021
-0.2987000000000001,-35.240458479638065
-0.29969999999999997,-35.32534115762997
-0.3007000000000001,-35.38192960962457
-0.30169999999999997,-35.46681228761647
-0.3027000000000001,-35.55169496560837
-0.30369999999999997,-35.679018982596226
-0.3047000000000001,-35.806342999584075
-0.30569999999999997,-35.90537279057463
-0.3067000000000001,-36.03269680756248
-0.3077,-36.20246216354629
-0.3087000000000001,-36.37222751953009
-0.3097,-36.4288159715247
-0.3107000000000001,-36.55613998851254
-0.3117,-36.64102266650445
-0.3127000000000001,-36.725905344496354
-0.3137,-36.768346683492304
-0.3147000000000001,-36.89567070048016
-0.3157,-36.99470049147071
-0.3167000000000001,-37.07958316946261
-0.3177,-37.206907186450465
-0.3187000000000001,-37.291789864442364
-0.3197,-37.376672542434264
-0.3207000000000001,-37.51814367242077
-0.3217,-37.645467689408626
-0.3227000000000001,-37.77279170639648
-0.3237,-37.94255706238028
-0.3247000000000001,-38.04158685337084
-0.3257,-38.08402819236679
-0.3267000000000001,-38.211352209354644
-0.3277,-38.29623488734655
-0.3287000000000001,-38.38111756533845
-0.3297,-38.46600024333035
-0.3307000000000001,-38.5650300343209
-0.3317,-38.734795390304704
-0.3327000000000001,-38.86211940729255
-0.3337,-38.98944342428042
-0.3347000000000001,-39.130914554266916
-0.3357,-39.258238571254765
-0.3367000000000001,-39.38556258824262
-0.3377,-39.51288660523048
-0.3387000000000001,-39.56947505722508
-0.3397,-39.654357735216976
-0.3407000000000001,-39.696799074212926
-0.3417,-39.82412309120078
-0.3427000000000001,-39.90900576919269
-0.3437,-39.99388844718459
-0.3447000000000001,-40.092918238175145
-0.3457,-40.220242255162994
-0.3467000000000001,-40.30512493315489
-0.3477,-40.43244895014274
-0.3487000000000001,-40.51733162813464
-0.3497,-40.616361419125205
-0.3507000000000001,-40.701244097117105
-0.3517,-40.78612677510901
-0.3527000000000001,-40.828568114104954
-0.3537,-40.87100945310091
-0.3547000000000001,-40.95589213109281
-0.3557,-41.04077480908471
-0.35670000000000013,-41.139804600075266
-0.3577,-41.267128617063115
-0.35870000000000013,-41.352011295055014
-0.3597,-41.43689397304693
-0.36070000000000013,-41.56421799003478
-0.3617,-41.606659329030734
-0.3626999999999999,-41.66324778102533
-0.3637,-41.74813045901723
-0.3646999999999999,-41.83301313700913
-0.3657,-41.91789581500104
-0.3666999999999999,-42.00277849299294
-0.3677,-42.04521983198889
-0.3686999999999999,-42.04521983198889
-0.36970000000000003,-42.130102509980794
-0.3706999999999999,-42.186690961975394
-0.37170000000000003,-42.229132300971344
-0.3726999999999999,-42.31401497896325
-0.37370000000000003,-42.3564563179592
-0.3746999999999999,-42.4413389959511
-0.37570000000000003,-42.483780334947056
-0.3766999999999999,-42.526221673943
-0.37770000000000004,-42.568663012938956
-0.3786999999999999,-42.568663012938956
-0.37970000000000004,-42.6111043519349
-0.3806999999999999,-42.71013414292546
-0.38170000000000004,-42.6111043519349
-0.38269999999999993,-42.71013414292546
-0.38370000000000004,-42.79501682091736
-0.38469999999999993,-42.87989949890926
-0.38570000000000004,-42.96478217690117
-0.38669999999999993,-42.96478217690117
-0.38770000000000004,-43.04966485489307
-0.38869999999999993,-43.134547532884966
-0.38970000000000005,-43.23357732387552
-0.39069999999999994,-43.23357732387552
-0.39170000000000005,-43.17698887188092
-0.39269999999999994,-43.23357732387552
-0.39370000000000005,-43.23357732387552
-0.39469999999999994,-43.23357732387552
-0.39570000000000005,-43.23357732387552
-0.39669999999999994,-43.23357732387552
-0.39770000000000005,-43.27601866287147
-0.39869999999999994,-43.40334267985933
-0.39970000000000006,-43.44578401885527
-0.40069999999999995,-43.48822535785123
-0.40170000000000006,-43.53066669684718
-0.40269999999999995,-43.57310803584313
-0.40370000000000006,-43.61554937483908
-0.40469999999999995,-43.61554937483908
-0.40570000000000006,-43.61554937483908
-0.40669999999999995,-43.61554937483908
-0.40770000000000006,-43.657990713835034
-0.40869999999999995,-43.657990713835034
-0.40970000000000006,-43.57310803584313
-0.41069999999999995,-43.57310803584313
-0.41170000000000007,-43.61554937483908
-0.41269999999999996,-43.657990713835034
-0.41370000000000007,-43.61554937483908
-0.41469999999999996,-43.61554937483908
-0.41570000000000007,-43.57310803584313
-0.41669999999999996,-43.57310803584313
-0.41770000000000007,-43.57310803584313
-0.41869999999999996,-43.53066669684718
-0.4197000000000001,-43.48822535785123
-0.42069999999999996,-43.48822535785123
-0.4217000000000001,-43.48822535785123
-0.42269999999999996,-43.48822535785123
-0.4237000000000001,-43.44578401885527
-0.42469999999999997,-43.44578401885527
-0.4257000000000001,-43.44578401885527
-0.42669999999999997,-43.44578401885527
-0.4277000000000001,-43.44578401885527
-0.42869999999999997,-43.36090134086337
-0.4297000000000001,-43.40334267985933
-0.43069999999999997,-43.31846000186743
-0.4317000000000001,-43.17698887188092
-0.4327,-43.134547532884966
-0.4337000000000001,-43.09210619388902
-0.4347,-43.09210619388902
-0.4357000000000001,-43.007223515897124
-0.4367,-43.007223515897124
-0.4377000000000001,-43.007223515897124
-0.4387,-42.96478217690117
-0.4397000000000001,-42.92234083790521
-0.4407,-42.837458159913304
-0.4417000000000001,-42.79501682091736
-0.4427,-42.752575481921404
-0.4437000000000001,-42.71013414292546
-0.4447,-42.653545690930855
-0.4457000000000001,-42.6111043519349
-0.4467,-42.6111043519349
-0.4477000000000001,-42.568663012938956
-0.4487,-42.526221673943
-0.4497000000000001,-42.526221673943
-0.4507,-42.483780334947056
-0.4517000000000001,-42.483780334947056
-0.4527,-42.483780334947056
-0.4537000000000001,-42.483780334947056
-0.4547,-42.526221673943
-0.4557000000000001,-42.568663012938956
-0.4567,-42.568663012938956
-0.4577000000000001,-42.653545690930855
-0.4587,-42.6111043519349
-0.4597000000000001,-42.653545690930855
-0.4607,-42.6111043519349
-0.4617000000000001,-42.6111043519349
-0.4627,-42.653545690930855
-0.4637000000000001,-42.79501682091736
-0.4647,-42.837458159913304
-0.4657000000000001,-42.837458159913304
-0.4667,-43.007223515897124
-0.4677000000000001,-43.007223515897124
-0.4687,-43.17698887188092
-0.4697000000000001,-43.40334267985933
-0.4707,-43.61554937483908
-0.4717000000000001,-43.79946184382153
-0.4727,-43.92678586080939
-0.4737000000000001,-44.054109877797245
-0.4747,-44.138992555789144
-0.4757000000000001,-44.181433894785094
-0.4767,-44.223875233781044
-0.4777000000000001,-44.181433894785094
-0.4787,-44.36534636376755
-0.4797000000000001,-44.45022904175945
-0.4807,-44.619994397743255
-0.48170000000000013,-44.84634820572166
-0.4827,-45.05855490070142
-0.48370000000000013,-45.18587891768927
-0.4847,-45.36979138667173
-0.48570000000000013,-45.45467406466363
-0.4867,-45.32735004767578
-0.48570000000000013,-44.66243573673921
-0.4847,-44.011668538801295
-0.48370000000000013,-43.44578401885527
-0.4827,-42.92234083790521
-0.48170000000000013,-42.39889765695515
-0.4807,-41.91789581500104
-0.4797000000000001,-41.43689397304693
-0.4787,-40.99833347008877
-0.4777000000000001,-40.51733162813464
-0.4767,-40.177800916167044
-0.4757000000000001,-39.739240413208876
-0.4747,-39.258238571254765
-0.4737000000000001,-38.777236729300654
-0.4727,-38.38111756533845
-0.4717000000000001,-37.94255706238028
-0.4707,-37.56058501141672
-0.4697000000000001,-37.07958316946261
-0.4687,-36.64102266650445
-0.4677000000000001,-36.244903502542236
-0.4667,-35.90537279057463
-0.4657000000000001,-35.55169496560837
-0.4647,-35.11313446265021
