July 14, 2024   05:07:17
Cyclic Voltammetry
File: c:/users/guazh/data/20240709_batch67/2024-07-10-exp39\exp39-2024-07-14t05_02_21-h2koh\exp39_cv_50mvs_efin_-1400mv.bin
Data Source:  Experiment
Instrument Model:  CHI760E
Header: CV ran at 50 mVs
Note: 

Init E (V) = -1
High E (V) = -1
Low E (V) = -1.4
Final E (V) = -1
Init P/N = N
Scan Rate (V/s) = 0.05
Segment = 7
Sample Interval (V) = 0.001
Quiet Time (sec) = 60
Sensitivity (A/V) = 0.001
Comp R (ohm) = 1.9

Results:

Channel 1:
Segment 1:
Ep = -1.291V
ip = 3.532e-3A
Ah = 2.964e-3C

Segment 2:

Segment 3:
Ep = -1.238V
ip = 7.848e-4A
Ah = 8.439e-4C

Segment 4:

Segment 5:
Ep = -1.227V
ip = 4.444e-4A
Ah = 4.661e-4C

Segment 6:

Segment 7:

Potential/V, Current/A

-1.000, 9.221e-5
-1.001, 2.089e-4
-1.002, 2.908e-4
-1.003, 3.520e-4
-1.004, 4.040e-4
-1.005, 4.499e-4
-1.006, 4.937e-4
-1.007, 5.255e-4
-1.008, 5.476e-4
-1.009, 5.742e-4
-1.010, 6.004e-4
-1.011, 6.240e-4
-1.012, 6.409e-4
-1.013, 6.556e-4
-1.014, 6.707e-4
-1.015, 6.862e-4
-1.016, 7.041e-4
-1.017, 7.227e-4
-1.018, 7.308e-4
-1.019, 7.403e-4
-1.020, 7.581e-4
-1.021, 7.768e-4
-1.022, 7.887e-4
-1.023, 8.004e-4
-1.024, 8.144e-4
-1.025, 8.283e-4
-1.026, 8.411e-4
-1.027, 8.573e-4
-1.028, 8.716e-4
-1.029, 8.803e-4
-1.030, 8.941e-4
-1.031, 9.164e-4
-1.032, 9.334e-4
-1.033, 9.415e-4
-1.034, 9.538e-4
-1.035, 9.764e-4
-1.036, 9.960e-4
-1.037, 1.008e-3
-1.038, 1.025e-3
-1.039, 1.045e-3
-1.040, 1.061e-3
-1.041, 1.083e-3
-1.042, 1.108e-3
-1.043, 1.124e-3
-1.044, 1.137e-3
-1.045, 1.163e-3
-1.046, 1.194e-3
-1.047, 1.210e-3
-1.048, 1.227e-3
-1.049, 1.255e-3
-1.050, 1.282e-3
-1.051, 1.304e-3
-1.052, 1.333e-3
-1.053, 1.360e-3
-1.054, 1.380e-3
-1.055, 1.405e-3
-1.056, 1.443e-3
-1.057, 1.468e-3
-1.058, 1.488e-3
-1.059, 1.519e-3
-1.060, 1.554e-3
-1.061, 1.580e-3
-1.062, 1.607e-3
-1.063, 1.641e-3
-1.064, 1.669e-3
-1.065, 1.698e-3
-1.066, 1.737e-3
-1.067, 1.773e-3
-1.068, 1.795e-3
-1.069, 1.820e-3
-1.070, 1.861e-3
-1.071, 1.896e-3
-1.072, 1.919e-3
-1.073, 1.954e-3
-1.074, 1.993e-3
-1.075, 2.022e-3
-1.076, 2.057e-3
-1.077, 2.097e-3
-1.078, 2.128e-3
-1.079, 2.151e-3
-1.080, 2.189e-3
-1.081, 2.232e-3
-1.082, 2.259e-3
-1.083, 2.287e-3
-1.084, 2.325e-3
-1.085, 2.363e-3
-1.086, 2.387e-3
-1.087, 2.419e-3
-1.088, 2.458e-3
-1.089, 2.487e-3
-1.090, 2.514e-3
-1.091, 2.556e-3
-1.092, 2.597e-3
-1.093, 2.614e-3
-1.094, 2.633e-3
-1.095, 2.677e-3
-1.096, 2.720e-3
-1.097, 2.739e-3
-1.098, 2.765e-3
-1.099, 2.805e-3
-1.100, 2.832e-3
-1.101, 2.845e-3
-1.102, 2.880e-3
-1.103, 2.916e-3
-1.104, 2.943e-3
-1.105, 2.969e-3
-1.106, 3.010e-3
-1.107, 3.034e-3
-1.108, 3.039e-3
-1.109, 3.066e-3
-1.110, 3.114e-3
-1.111, 3.135e-3
-1.112, 3.150e-3
-1.113, 3.186e-3
-1.114, 3.216e-3
-1.115, 3.224e-3
-1.116, 3.259e-3
-1.117, 3.298e-3
-1.118, 3.313e-3
-1.119, 3.318e-3
-1.120, 3.355e-3
-1.121, 3.391e-3
-1.122, 3.397e-3
-1.123, 3.413e-3
-1.124, 3.450e-3
-1.125, 3.467e-3
-1.126, 3.481e-3
-1.127, 3.513e-3
-1.128, 3.541e-3
-1.129, 3.546e-3
-1.130, 3.557e-3
-1.131, 3.592e-3
-1.132, 3.622e-3
-1.133, 3.595e-3
-1.134, 3.601e-3
-1.135, 3.648e-3
-1.136, 3.675e-3
-1.137, 3.689e-3
-1.138, 3.711e-3
-1.139, 3.736e-3
-1.140, 3.739e-3
-1.141, 3.760e-3
-1.142, 3.797e-3
-1.143, 3.817e-3
-1.144, 3.814e-3
-1.145, 3.841e-3
-1.146, 3.876e-3
-1.147, 3.882e-3
-1.148, 3.889e-3
-1.149, 3.924e-3
-1.150, 3.950e-3
-1.151, 3.951e-3
-1.152, 3.969e-3
-1.153, 3.994e-3
-1.154, 4.004e-3
-1.155, 4.018e-3
-1.156, 4.043e-3
-1.157, 4.068e-3
-1.158, 4.081e-3
-1.159, 4.090e-3
-1.160, 4.130e-3
-1.161, 4.141e-3
-1.162, 4.163e-3
-1.163, 4.199e-3
-1.164, 4.216e-3
-1.165, 4.209e-3
-1.166, 4.232e-3
-1.167, 4.268e-3
-1.168, 4.280e-3
-1.169, 4.280e-3
-1.170, 4.316e-3
-1.171, 4.350e-3
-1.172, 4.355e-3
-1.173, 4.370e-3
-1.174, 4.405e-3
-1.175, 4.426e-3
-1.176, 4.427e-3
-1.177, 4.459e-3
-1.178, 4.498e-3
-1.179, 4.506e-3
-1.180, 4.502e-3
-1.181, 4.537e-3
-1.182, 4.560e-3
-1.183, 4.555e-3
-1.184, 4.585e-3
-1.185, 4.629e-3
-1.186, 4.643e-3
-1.187, 4.654e-3
-1.188, 4.696e-3
-1.189, 4.718e-3
-1.190, 4.721e-3
-1.191, 4.753e-3
-1.192, 4.799e-3
-1.193, 4.809e-3
-1.194, 4.808e-3
-1.195, 4.853e-3
-1.196, 4.899e-3
-1.197, 4.905e-3
-1.198, 4.922e-3
-1.199, 4.961e-3
-1.200, 4.975e-3
-1.201, 4.983e-3
-1.202, 5.029e-3
-1.203, 5.078e-3
-1.204, 5.096e-3
-1.205, 5.125e-3
-1.206, 5.182e-3
-1.207, 5.213e-3
-1.208, 5.218e-3
-1.209, 5.263e-3
-1.210, 5.316e-3
-1.211, 5.337e-3
-1.212, 5.368e-3
-1.213, 5.415e-3
-1.214, 5.451e-3
-1.215, 5.460e-3
-1.216, 5.525e-3
-1.217, 5.585e-3
-1.218, 5.611e-3
-1.219, 5.631e-3
-1.220, 5.686e-3
-1.221, 5.737e-3
-1.222, 5.757e-3
-1.223, 5.811e-3
-1.224, 5.876e-3
-1.225, 5.912e-3
-1.226, 5.953e-3
-1.227, 6.025e-3
-1.228, 6.090e-3
-1.229, 6.123e-3
-1.230, 6.169e-3
-1.231, 6.259e-3
-1.232, 6.313e-3
-1.233, 6.341e-3
-1.234, 6.411e-3
-1.235, 6.484e-3
-1.236, 6.525e-3
-1.237, 6.577e-3
-1.238, 6.667e-3
-1.239, 6.730e-3
-1.240, 6.761e-3
-1.241, 6.840e-3
-1.242, 6.934e-3
-1.243, 6.975e-3
-1.244, 7.025e-3
-1.245, 7.127e-3
-1.246, 7.223e-3
-1.247, 7.254e-3
-1.248, 7.307e-3
-1.249, 7.408e-3
-1.250, 7.483e-3
-1.251, 7.527e-3
-1.252, 7.614e-3
-1.253, 7.710e-3
-1.254, 7.767e-3
-1.255, 7.804e-3
-1.256, 7.921e-3
-1.257, 8.013e-3
-1.258, 8.035e-3
-1.259, 8.080e-3
-1.260, 8.222e-3
-1.261, 8.294e-3
-1.262, 8.304e-3
-1.263, 8.403e-3
-1.264, 8.505e-3
-1.265, 8.537e-3
-1.266, 8.596e-3
-1.267, 8.704e-3
-1.268, 8.778e-3
-1.269, 8.820e-3
-1.270, 8.891e-3
-1.271, 8.993e-3
-1.272, 9.034e-3
-1.273, 9.050e-3
-1.274, 9.165e-3
-1.275, 9.236e-3
-1.276, 9.291e-3
-1.277, 9.372e-3
-1.278, 9.504e-3
-1.279, 9.542e-3
-1.280, 9.576e-3
-1.281, 9.668e-3
-1.282, 9.752e-3
-1.283, 9.779e-3
-1.284, 9.837e-3
-1.285, 9.935e-3
-1.286, 9.988e-3
-1.287, 1.000e-2
-1.288, 1.007e-2
-1.289, 1.011e-2
-1.290, 1.011e-2
-1.291, 1.011e-2
-1.292, 1.011e-2
-1.293, 1.011e-2
-1.294, 1.011e-2
-1.295, 1.011e-2
-1.296, 1.011e-2
-1.297, 1.011e-2
-1.298, 1.011e-2
-1.299, 1.011e-2
-1.300, 1.011e-2
-1.301, 1.011e-2
-1.302, 1.011e-2
-1.303, 1.011e-2
-1.304, 1.011e-2
-1.305, 1.011e-2
-1.306, 1.011e-2
-1.307, 1.011e-2
-1.308, 1.011e-2
-1.309, 1.011e-2
-1.310, 1.011e-2
-1.311, 1.011e-2
-1.312, 1.011e-2
-1.313, 1.011e-2
-1.314, 1.011e-2
-1.315, 1.011e-2
-1.316, 1.011e-2
-1.317, 1.011e-2
-1.318, 1.011e-2
-1.319, 1.011e-2
-1.320, 1.011e-2
-1.321, 1.011e-2
-1.322, 1.011e-2
-1.323, 1.011e-2
-1.324, 1.011e-2
-1.325, 1.008e-2
-1.326, 9.956e-3
-1.327, 9.869e-3
-1.328, 9.823e-3
-1.329, 9.701e-3
-1.330, 9.553e-3
-1.331, 9.477e-3
-1.332, 9.407e-3
-1.333, 9.267e-3
-1.334, 9.152e-3
-1.335, 9.084e-3
-1.336, 8.975e-3
-1.337, 8.794e-3
-1.338, 8.688e-3
-1.339, 8.617e-3
-1.340, 8.456e-3
-1.341, 8.314e-3
-1.342, 8.229e-3
-1.343, 8.127e-3
-1.344, 7.940e-3
-1.345, 7.829e-3
-1.346, 7.751e-3
-1.347, 7.618e-3
-1.348, 7.465e-3
-1.349, 7.349e-3
-1.350, 7.246e-3
-1.351, 7.112e-3
-1.352, 6.994e-3
-1.353, 6.903e-3
-1.354, 6.784e-3
-1.355, 6.636e-3
-1.356, 6.546e-3
-1.357, 6.467e-3
-1.358, 6.335e-3
-1.359, 6.232e-3
-1.360, 6.156e-3
-1.361, 6.057e-3
-1.362, 5.925e-3
-1.363, 5.863e-3
-1.364, 5.802e-3
-1.365, 5.697e-3
-1.366, 5.609e-3
-1.367, 5.556e-3
-1.368, 5.473e-3
-1.369, 5.366e-3
-1.370, 5.317e-3
-1.371, 5.282e-3
-1.372, 5.193e-3
-1.373, 5.131e-3
-1.374, 5.107e-3
-1.375, 5.080e-3
-1.376, 4.999e-3
-1.377, 4.946e-3
-1.378, 4.916e-3
-1.379, 4.850e-3
-1.380, 4.810e-3
-1.381, 4.798e-3
-1.382, 4.764e-3
-1.383, 4.696e-3
-1.384, 4.686e-3
-1.385, 4.681e-3
-1.386, 4.643e-3
-1.387, 4.616e-3
-1.388, 4.620e-3
-1.389, 4.608e-3
-1.390, 4.572e-3
-1.391, 4.559e-3
-1.392, 4.576e-3
-1.393, 4.569e-3
-1.394, 4.549e-3
-1.395, 4.574e-3
-1.396, 4.602e-3
-1.397, 4.586e-3
-1.398, 4.589e-3
-1.399, 4.624e-3
-1.400, 4.512e-3
-1.399, 4.290e-3
-1.398, 4.152e-3
-1.397, 4.053e-3
-1.396, 3.940e-3
-1.395, 3.827e-3
-1.394, 3.745e-3
-1.393, 3.660e-3
-1.392, 3.556e-3
-1.391, 3.464e-3
-1.390, 3.394e-3
-1.389, 3.316e-3
-1.388, 3.229e-3
-1.387, 3.158e-3
-1.386, 3.083e-3
-1.385, 3.000e-3
-1.384, 2.927e-3
-1.383, 2.874e-3
-1.382, 2.810e-3
-1.381, 2.721e-3
-1.380, 2.656e-3
-1.379, 2.609e-3
-1.378, 2.551e-3
-1.377, 2.483e-3
-1.376, 2.426e-3
-1.375, 2.375e-3
-1.374, 2.317e-3
-1.373, 2.263e-3
-1.372, 2.216e-3
-1.371, 2.160e-3
-1.370, 2.101e-3
-1.369, 2.054e-3
-1.368, 2.018e-3
-1.367, 1.967e-3
-1.366, 1.906e-3
-1.365, 1.865e-3
-1.364, 1.832e-3
-1.363, 1.780e-3
-1.362, 1.735e-3
-1.361, 1.699e-3
-1.360, 1.656e-3
-1.359, 1.611e-3
-1.358, 1.576e-3
-1.357, 1.538e-3
-1.356, 1.491e-3
-1.355, 1.455e-3
-1.354, 1.427e-3
-1.353, 1.389e-3
-1.352, 1.346e-3
-1.351, 1.307e-3
-1.350, 1.280e-3
-1.349, 1.244e-3
-1.348, 1.208e-3
-1.347, 1.181e-3
-1.346, 1.148e-3
-1.345, 1.111e-3
-1.344, 1.084e-3
-1.343, 1.060e-3
-1.342, 1.026e-3
-1.341, 9.892e-4
-1.340, 9.640e-4
-1.339, 9.414e-4
-1.338, 9.121e-4
-1.337, 8.847e-4
-1.336, 8.558e-4
-1.335, 8.278e-4
-1.334, 7.999e-4
-1.333, 7.813e-4
-1.332, 7.578e-4
-1.331, 7.270e-4
-1.330, 7.006e-4
-1.329, 6.833e-4
-1.328, 6.649e-4
-1.327, 6.384e-4
-1.326, 6.120e-4
-1.325, 5.923e-4
-1.324, 5.729e-4
-1.323, 5.539e-4
-1.322, 5.343e-4
-1.321, 5.103e-4
-1.320, 4.877e-4
-1.319, 4.714e-4
-1.318, 4.574e-4
-1.317, 4.365e-4
-1.316, 4.133e-4
-1.315, 3.954e-4
-1.314, 3.825e-4
-1.313, 3.660e-4
-1.312, 3.484e-4
-1.311, 3.292e-4
-1.310, 3.116e-4
-1.309, 2.975e-4
-1.308, 2.851e-4
-1.307, 2.706e-4
-1.306, 2.499e-4
-1.305, 2.336e-4
-1.304, 2.241e-4
-1.303, 2.121e-4
-1.302, 1.956e-4
-1.301, 1.795e-4
-1.300, 1.651e-4
-1.299, 1.554e-4
-1.298, 1.444e-4
-1.297, 1.300e-4
-1.296, 1.150e-4
-1.295, 1.024e-4
-1.294, 9.229e-5
-1.293, 8.420e-5
-1.292, 7.132e-5
-1.291, 5.572e-5
-1.290, 4.371e-5
-1.289, 3.618e-5
-1.288, 2.933e-5
-1.287, 1.746e-5
-1.286, 3.108e-6
-1.285, -7.598e-6
-1.284, -1.507e-5
-1.283, -2.224e-5
-1.282, -3.306e-5
-1.281, -4.635e-5
-1.280, -5.716e-5
-1.279, -6.276e-5
-1.278, -6.896e-5
-1.277, -7.776e-5
-1.276, -9.044e-5
-1.275, -9.971e-5
-1.274, -1.043e-4
-1.273, -1.097e-4
-1.272, -1.191e-4
-1.271, -1.311e-4
-1.270, -1.390e-4
-1.269, -1.422e-4
-1.268, -1.478e-4
-1.267, -1.566e-4
-1.266, -1.666e-4
-1.265, -1.749e-4
-1.264, -1.781e-4
-1.263, -1.819e-4
-1.262, -1.896e-4
-1.261, -2.004e-4
-1.260, -2.086e-4
-1.259, -2.103e-4
-1.258, -2.135e-4
-1.257, -2.221e-4
-1.256, -2.318e-4
-1.255, -2.382e-4
-1.254, -2.415e-4
-1.253, -2.453e-4
-1.252, -2.509e-4
-1.251, -2.604e-4
-1.250, -2.678e-4
-1.249, -2.701e-4
-1.248, -2.709e-4
-1.247, -2.769e-4
-1.246, -2.872e-4
-1.245, -2.928e-4
-1.244, -2.942e-4
-1.243, -2.973e-4
-1.242, -3.041e-4
-1.241, -3.114e-4
-1.240, -3.158e-4
-1.239, -3.187e-4
-1.238, -3.219e-4
-1.237, -3.259e-4
-1.236, -3.349e-4
-1.235, -3.418e-4
-1.234, -3.424e-4
-1.233, -3.431e-4
-1.232, -3.501e-4
-1.231, -3.596e-4
-1.230, -3.631e-4
-1.229, -3.654e-4
-1.228, -3.677e-4
-1.227, -3.727e-4
-1.226, -3.784e-4
-1.225, -3.853e-4
-1.224, -3.861e-4
-1.223, -3.859e-4
-1.222, -3.909e-4
-1.221, -4.006e-4
-1.220, -4.060e-4
-1.219, -4.045e-4
-1.218, -4.059e-4
-1.217, -4.125e-4
-1.216, -4.182e-4
-1.215, -4.231e-4
-1.214, -4.257e-4
-1.213, -4.265e-4
-1.212, -4.308e-4
-1.211, -4.379e-4
-1.210, -4.437e-4
-1.209, -4.452e-4
-1.208, -4.433e-4
-1.207, -4.502e-4
-1.206, -4.592e-4
-1.205, -4.614e-4
-1.204, -4.611e-4
-1.203, -4.628e-4
-1.202, -4.682e-4
-1.201, -4.753e-4
-1.200, -4.802e-4
-1.199, -4.824e-4
-1.198, -4.824e-4
-1.197, -4.849e-4
-1.196, -4.929e-4
-1.195, -5.012e-4
-1.194, -4.987e-4
-1.193, -5.039e-4
-1.192, -5.088e-4
-1.191, -5.136e-4
-1.190, -5.152e-4
-1.189, -5.154e-4
-1.188, -5.157e-4
-1.187, -5.183e-4
-1.186, -5.290e-4
-1.185, -5.363e-4
-1.184, -5.335e-4
-1.183, -5.325e-4
-1.182, -5.400e-4
-1.181, -5.479e-4
-1.180, -5.513e-4
-1.179, -5.512e-4
-1.178, -5.531e-4
-1.177, -5.567e-4
-1.176, -5.614e-4
-1.175, -5.686e-4
-1.174, -5.696e-4
-1.173, -5.670e-4
-1.172, -5.720e-4
-1.171, -5.807e-4
-1.170, -5.834e-4
-1.169, -5.823e-4
-1.168, -5.839e-4
-1.167, -5.887e-4
-1.166, -5.926e-4
-1.165, -5.979e-4
-1.164, -6.006e-4
-1.163, -5.999e-4
-1.162, -6.008e-4
-1.161, -6.095e-4
-1.160, -6.143e-4
-1.159, -6.133e-4
-1.158, -6.142e-4
-1.157, -6.198e-4
-1.156, -6.262e-4
-1.155, -6.284e-4
-1.154, -6.310e-4
-1.153, -6.325e-4
-1.152, -6.331e-4
-1.151, -6.385e-4
-1.150, -6.468e-4
-1.149, -6.463e-4
-1.148, -6.428e-4
-1.147, -6.474e-4
-1.146, -6.575e-4
-1.145, -6.614e-4
-1.144, -6.574e-4
-1.143, -6.595e-4
-1.142, -6.669e-4
-1.141, -6.704e-4
-1.140, -6.738e-4
-1.139, -6.770e-4
-1.138, -6.782e-4
-1.137, -6.789e-4
-1.136, -6.865e-4
-1.135, -6.934e-4
-1.134, -6.924e-4
-1.133, -6.908e-4
-1.132, -6.996e-4
-1.131, -7.073e-4
-1.130, -7.084e-4
-1.129, -7.091e-4
-1.128, -7.123e-4
-1.127, -7.182e-4
-1.126, -7.231e-4
-1.125, -7.300e-4
-1.124, -7.332e-4
-1.123, -7.312e-4
-1.122, -7.355e-4
-1.121, -7.478e-4
-1.120, -7.531e-4
-1.119, -7.516e-4
-1.118, -7.557e-4
-1.117, -7.640e-4
-1.116, -7.704e-4
-1.115, -7.742e-4
-1.114, -7.810e-4
-1.113, -7.858e-4
-1.112, -7.883e-4
-1.111, -7.980e-4
-1.110, -8.113e-4
-1.109, -8.152e-4
-1.108, -8.149e-4
-1.107, -8.237e-4
-1.106, -8.384e-4
-1.105, -8.450e-4
-1.104, -8.461e-4
-1.103, -8.569e-4
-1.102, -8.696e-4
-1.101, -8.784e-4
-1.100, -8.887e-4
-1.099, -9.018e-4
-1.098, -9.088e-4
-1.097, -9.192e-4
-1.096, -9.387e-4
-1.095, -9.567e-4
-1.094, -9.674e-4
-1.093, -9.778e-4
-1.092, -1.001e-3
-1.091, -1.023e-3
-1.090, -1.039e-3
-1.089, -1.062e-3
-1.088, -1.085e-3
-1.087, -1.105e-3
-1.086, -1.131e-3
-1.085, -1.167e-3
-1.084, -1.197e-3
-1.083, -1.218e-3
-1.082, -1.253e-3
-1.081, -1.296e-3
-1.080, -1.330e-3
-1.079, -1.358e-3
-1.078, -1.395e-3
-1.077, -1.432e-3
-1.076, -1.474e-3
-1.075, -1.516e-3
-1.074, -1.559e-3
-1.073, -1.590e-3
-1.072, -1.619e-3
-1.071, -1.666e-3
-1.070, -1.712e-3
-1.069, -1.743e-3
-1.068, -1.774e-3
-1.067, -1.822e-3
-1.066, -1.865e-3
-1.065, -1.896e-3
-1.064, -1.930e-3
-1.063, -1.973e-3
-1.062, -2.003e-3
-1.061, -2.039e-3
-1.060, -2.089e-3
-1.059, -2.123e-3
-1.058, -2.146e-3
-1.057, -2.184e-3
-1.056, -2.237e-3
-1.055, -2.273e-3
-1.054, -2.299e-3
-1.053, -2.338e-3
-1.052, -2.375e-3
-1.051, -2.408e-3
-1.050, -2.453e-3
-1.049, -2.497e-3
-1.048, -2.518e-3
-1.047, -2.546e-3
-1.046, -2.604e-3
-1.045, -2.652e-3
-1.044, -2.686e-3
-1.043, -2.713e-3
-1.042, -2.760e-3
-1.041, -2.791e-3
-1.040, -2.821e-3
-1.039, -2.871e-3
-1.038, -2.910e-3
-1.037, -2.931e-3
-1.036, -2.979e-3
-1.035, -3.032e-3
-1.034, -3.064e-3
-1.033, -3.089e-3
-1.032, -3.139e-3
-1.031, -3.183e-3
-1.030, -3.206e-3
-1.029, -3.248e-3
-1.028, -3.297e-3
-1.027, -3.331e-3
-1.026, -3.362e-3
-1.025, -3.412e-3
-1.024, -3.459e-3
-1.023, -3.483e-3
-1.022, -3.521e-3
-1.021, -3.580e-3
-1.020, -3.620e-3
-1.019, -3.640e-3
-1.018, -3.683e-3
-1.017, -3.738e-3
-1.016, -3.772e-3
-1.015, -3.801e-3
-1.014, -3.855e-3
-1.013, -3.898e-3
-1.012, -3.921e-3
-1.011, -3.964e-3
-1.010, -4.013e-3
-1.009, -4.044e-3
-1.008, -4.067e-3
-1.007, -4.124e-3
-1.006, -4.175e-3
-1.005, -4.191e-3
-1.004, -4.228e-3
-1.003, -4.283e-3
-1.002, -4.325e-3
-1.001, -4.343e-3
-1.000, -4.264e-3
-1.001, -4.075e-3
-1.002, -3.902e-3
-1.003, -3.737e-3
-1.004, -3.614e-3
-1.005, -3.492e-3
-1.006, -3.349e-3
-1.007, -3.214e-3
-1.008, -3.108e-3
-1.009, -2.992e-3
-1.010, -2.868e-3
-1.011, -2.759e-3
-1.012, -2.654e-3
-1.013, -2.539e-3
-1.014, -2.434e-3
-1.015, -2.350e-3
-1.016, -2.258e-3
-1.017, -2.151e-3
-1.018, -2.059e-3
-1.019, -1.979e-3
-1.020, -1.891e-3
-1.021, -1.799e-3
-1.022, -1.721e-3
-1.023, -1.645e-3
-1.024, -1.565e-3
-1.025, -1.487e-3
-1.026, -1.419e-3
-1.027, -1.345e-3
-1.028, -1.270e-3
-1.029, -1.210e-3
-1.030, -1.151e-3
-1.031, -1.081e-3
-1.032, -1.014e-3
-1.033, -9.594e-4
-1.034, -9.059e-4
-1.035, -8.467e-4
-1.036, -7.927e-4
-1.037, -7.397e-4
-1.038, -6.896e-4
-1.039, -6.408e-4
-1.040, -5.958e-4
-1.041, -5.479e-4
-1.042, -4.977e-4
-1.043, -4.546e-4
-1.044, -4.172e-4
-1.045, -3.797e-4
-1.046, -3.359e-4
-1.047, -2.946e-4
-1.048, -2.584e-4
-1.049, -2.245e-4
-1.050, -1.920e-4
-1.051, -1.576e-4
-1.052, -1.215e-4
-1.053, -9.016e-5
-1.054, -6.278e-5
-1.055, -3.517e-5
-1.056, -5.102e-6
-1.057, 2.594e-5
-1.058, 5.250e-5
-1.059, 7.542e-5
-1.060, 9.804e-5
-1.061, 1.239e-4
-1.062, 1.517e-4
-1.063, 1.742e-4
-1.064, 1.915e-4
-1.065, 2.120e-4
-1.066, 2.347e-4
-1.067, 2.573e-4
-1.068, 2.775e-4
-1.069, 2.928e-4
-1.070, 3.084e-4
-1.071, 3.272e-4
-1.072, 3.491e-4
-1.073, 3.673e-4
-1.074, 3.786e-4
-1.075, 3.927e-4
-1.076, 4.125e-4
-1.077, 4.297e-4
-1.078, 4.428e-4
-1.079, 4.549e-4
-1.080, 4.678e-4
-1.081, 4.824e-4
-1.082, 4.985e-4
-1.083, 5.144e-4
-1.084, 5.248e-4
-1.085, 5.311e-4
-1.086, 5.458e-4
-1.087, 5.646e-4
-1.088, 5.757e-4
-1.089, 5.835e-4
-1.090, 5.952e-4
-1.091, 6.088e-4
-1.092, 6.205e-4
-1.093, 6.317e-4
-1.094, 6.436e-4
-1.095, 6.528e-4
-1.096, 6.616e-4
-1.097, 6.782e-4
-1.098, 6.919e-4
-1.099, 6.964e-4
-1.100, 7.044e-4
-1.101, 7.204e-4
-1.102, 7.355e-4
-1.103, 7.424e-4
-1.104, 7.501e-4
-1.105, 7.620e-4
-1.106, 7.742e-4
-1.107, 7.853e-4
-1.108, 8.000e-4
-1.109, 8.074e-4
-1.110, 8.123e-4
-1.111, 8.253e-4
-1.112, 8.418e-4
-1.113, 8.528e-4
-1.114, 8.554e-4
-1.115, 8.715e-4
-1.116, 8.874e-4
-1.117, 8.987e-4
-1.118, 9.078e-4
-1.119, 9.203e-4
-1.120, 9.286e-4
-1.121, 9.388e-4
-1.122, 9.580e-4
-1.123, 9.713e-4
-1.124, 9.752e-4
-1.125, 9.839e-4
-1.126, 1.003e-3
-1.127, 1.020e-3
-1.128, 1.027e-3
-1.129, 1.037e-3
-1.130, 1.051e-3
-1.131, 1.064e-3
-1.132, 1.077e-3
-1.133, 1.093e-3
-1.134, 1.106e-3
-1.135, 1.111e-3
-1.136, 1.126e-3
-1.137, 1.149e-3
-1.138, 1.159e-3
-1.139, 1.167e-3
-1.140, 1.181e-3
-1.141, 1.200e-3
-1.142, 1.214e-3
-1.143, 1.228e-3
-1.144, 1.244e-3
-1.145, 1.255e-3
-1.146, 1.266e-3
-1.147, 1.287e-3
-1.148, 1.307e-3
-1.149, 1.314e-3
-1.150, 1.324e-3
-1.151, 1.347e-3
-1.152, 1.369e-3
-1.153, 1.380e-3
-1.154, 1.394e-3
-1.155, 1.411e-3
-1.156, 1.428e-3
-1.157, 1.442e-3
-1.158, 1.463e-3
-1.159, 1.480e-3
-1.160, 1.488e-3
-1.161, 1.506e-3
-1.162, 1.534e-3
-1.163, 1.555e-3
-1.164, 1.561e-3
-1.165, 1.578e-3
-1.166, 1.608e-3
-1.167, 1.625e-3
-1.168, 1.636e-3
-1.169, 1.662e-3
-1.170, 1.682e-3
-1.171, 1.694e-3
-1.172, 1.715e-3
-1.173, 1.740e-3
-1.174, 1.757e-3
-1.175, 1.769e-3
-1.176, 1.798e-3
-1.177, 1.828e-3
-1.178, 1.838e-3
-1.179, 1.853e-3
-1.180, 1.893e-3
-1.181, 1.923e-3
-1.182, 1.934e-3
-1.183, 1.954e-3
-1.184, 1.978e-3
-1.185, 1.993e-3
-1.186, 2.011e-3
-1.187, 2.046e-3
-1.188, 2.073e-3
-1.189, 2.084e-3
-1.190, 2.104e-3
-1.191, 2.138e-3
-1.192, 2.156e-3
-1.193, 2.175e-3
-1.194, 2.204e-3
-1.195, 2.238e-3
-1.196, 2.254e-3
-1.197, 2.273e-3
-1.198, 2.305e-3
-1.199, 2.326e-3
-1.200, 2.340e-3
-1.201, 2.372e-3
-1.202, 2.407e-3
-1.203, 2.426e-3
-1.204, 2.441e-3
-1.205, 2.473e-3
-1.206, 2.504e-3
-1.207, 2.524e-3
-1.208, 2.549e-3
-1.209, 2.580e-3
-1.210, 2.590e-3
-1.211, 2.605e-3
-1.212, 2.649e-3
-1.213, 2.680e-3
-1.214, 2.686e-3
-1.215, 2.708e-3
-1.216, 2.741e-3
-1.217, 2.764e-3
-1.218, 2.777e-3
-1.219, 2.805e-3
-1.220, 2.830e-3
-1.221, 2.838e-3
-1.222, 2.852e-3
-1.223, 2.884e-3
-1.224, 2.900e-3
-1.225, 2.903e-3
-1.226, 2.923e-3
-1.227, 2.956e-3
-1.228, 2.961e-3
-1.229, 2.970e-3
-1.230, 2.992e-3
-1.231, 3.004e-3
-1.232, 2.998e-3
-1.233, 3.008e-3
-1.234, 3.018e-3
-1.235, 3.014e-3
-1.236, 3.013e-3
-1.237, 3.023e-3
-1.238, 3.024e-3
-1.239, 3.005e-3
-1.240, 2.989e-3
-1.241, 2.988e-3
-1.242, 2.974e-3
-1.243, 2.947e-3
-1.244, 2.927e-3
-1.245, 2.902e-3
-1.246, 2.867e-3
-1.247, 2.834e-3
-1.248, 2.806e-3
-1.249, 2.765e-3
-1.250, 2.705e-3
-1.251, 2.658e-3
-1.252, 2.622e-3
-1.253, 2.564e-3
-1.254, 2.490e-3
-1.255, 2.433e-3
-1.256, 2.375e-3
-1.257, 2.302e-3
-1.258, 2.232e-3
-1.259, 2.168e-3
-1.260, 2.093e-3
-1.261, 2.016e-3
-1.262, 1.956e-3
-1.263, 1.894e-3
-1.264, 1.816e-3
-1.265, 1.748e-3
-1.266, 1.697e-3
-1.267, 1.645e-3
-1.268, 1.583e-3
-1.269, 1.528e-3
-1.270, 1.485e-3
-1.271, 1.443e-3
-1.272, 1.398e-3
-1.273, 1.365e-3
-1.274, 1.330e-3
-1.275, 1.290e-3
-1.276, 1.266e-3
-1.277, 1.249e-3
-1.278, 1.223e-3
-1.279, 1.193e-3
-1.280, 1.175e-3
-1.281, 1.160e-3
-1.282, 1.140e-3
-1.283, 1.126e-3
-1.284, 1.113e-3
-1.285, 1.094e-3
-1.286, 1.081e-3
-1.287, 1.080e-3
-1.288, 1.069e-3
-1.289, 1.052e-3
-1.290, 1.044e-3
-1.291, 1.041e-3
-1.292, 1.038e-3
-1.293, 1.030e-3
-1.294, 1.026e-3
-1.295, 1.022e-3
-1.296, 1.016e-3
-1.297, 1.018e-3
-1.298, 1.018e-3
-1.299, 1.014e-3
-1.300, 1.008e-3
-1.301, 1.013e-3
-1.302, 1.021e-3
-1.303, 1.018e-3
-1.304, 1.014e-3
-1.305, 1.021e-3
-1.306, 1.025e-3
-1.307, 1.026e-3
-1.308, 1.033e-3
-1.309, 1.037e-3
-1.310, 1.035e-3
-1.311, 1.039e-3
-1.312, 1.056e-3
-1.313, 1.062e-3
-1.314, 1.058e-3
-1.315, 1.065e-3
-1.316, 1.082e-3
-1.317, 1.092e-3
-1.318, 1.095e-3
-1.319, 1.103e-3
-1.320, 1.109e-3
-1.321, 1.117e-3
-1.322, 1.132e-3
-1.323, 1.145e-3
-1.324, 1.151e-3
-1.325, 1.156e-3
-1.326, 1.174e-3
-1.327, 1.191e-3
-1.328, 1.197e-3
-1.329, 1.209e-3
-1.330, 1.222e-3
-1.331, 1.233e-3
-1.332, 1.247e-3
-1.333, 1.267e-3
-1.334, 1.280e-3
-1.335, 1.287e-3
-1.336, 1.306e-3
-1.337, 1.330e-3
-1.338, 1.341e-3
-1.339, 1.349e-3
-1.340, 1.371e-3
-1.341, 1.392e-3
-1.342, 1.407e-3
-1.343, 1.423e-3
-1.344, 1.444e-3
-1.345, 1.459e-3
-1.346, 1.477e-3
-1.347, 1.503e-3
-1.348, 1.526e-3
-1.349, 1.537e-3
-1.350, 1.556e-3
-1.351, 1.587e-3
-1.352, 1.611e-3
-1.353, 1.624e-3
-1.354, 1.645e-3
-1.355, 1.672e-3
-1.356, 1.696e-3
-1.357, 1.718e-3
-1.358, 1.747e-3
-1.359, 1.776e-3
-1.360, 1.792e-3
-1.361, 1.817e-3
-1.362, 1.857e-3
-1.363, 1.883e-3
-1.364, 1.896e-3
-1.365, 1.921e-3
-1.366, 1.961e-3
-1.367, 1.991e-3
-1.368, 2.012e-3
-1.369, 2.049e-3
-1.370, 2.082e-3
-1.371, 2.106e-3
-1.372, 2.137e-3
-1.373, 2.178e-3
-1.374, 2.206e-3
-1.375, 2.224e-3
-1.376, 2.263e-3
-1.377, 2.311e-3
-1.378, 2.339e-3
-1.379, 2.364e-3
-1.380, 2.408e-3
-1.381, 2.450e-3
-1.382, 2.479e-3
-1.383, 2.515e-3
-1.384, 2.562e-3
-1.385, 2.593e-3
-1.386, 2.619e-3
-1.387, 2.666e-3
-1.388, 2.717e-3
-1.389, 2.744e-3
-1.390, 2.783e-3
-1.391, 2.839e-3
-1.392, 2.878e-3
-1.393, 2.908e-3
-1.394, 2.957e-3
-1.395, 3.009e-3
-1.396, 3.046e-3
-1.397, 3.089e-3
-1.398, 3.144e-3
-1.399, 3.192e-3
-1.400, 3.097e-3
-1.399, 2.944e-3
-1.398, 2.858e-3
-1.397, 2.774e-3
-1.396, 2.700e-3
-1.395, 2.652e-3
-1.394, 2.601e-3
-1.393, 2.545e-3
-1.392, 2.503e-3
-1.391, 2.457e-3
-1.390, 2.399e-3
-1.389, 2.350e-3
-1.388, 2.318e-3
-1.387, 2.275e-3
-1.386, 2.216e-3
-1.385, 2.170e-3
-1.384, 2.136e-3
-1.383, 2.090e-3
-1.382, 2.044e-3
-1.381, 2.008e-3
-1.380, 1.968e-3
-1.379, 1.921e-3
-1.378, 1.882e-3
-1.377, 1.849e-3
-1.376, 1.809e-3
-1.375, 1.762e-3
-1.374, 1.730e-3
-1.373, 1.700e-3
-1.372, 1.653e-3
-1.371, 1.617e-3
-1.370, 1.587e-3
-1.369, 1.553e-3
-1.368, 1.516e-3
-1.367, 1.485e-3
-1.366, 1.450e-3
-1.365, 1.410e-3
-1.364, 1.380e-3
-1.363, 1.357e-3
-1.362, 1.324e-3
-1.361, 1.283e-3
-1.360, 1.254e-3
-1.359, 1.229e-3
-1.358, 1.201e-3
-1.357, 1.170e-3
-1.356, 1.141e-3
-1.355, 1.110e-3
-1.354, 1.080e-3
-1.353, 1.060e-3
-1.352, 1.034e-3
-1.351, 1.000e-3
-1.350, 9.701e-4
-1.349, 9.507e-4
-1.348, 9.282e-4
-1.347, 9.007e-4
-1.346, 8.752e-4
-1.345, 8.500e-4
-1.344, 8.246e-4
-1.343, 8.042e-4
-1.342, 7.852e-4
-1.341, 7.610e-4
-1.340, 7.329e-4
-1.339, 7.135e-4
-1.338, 6.971e-4
-1.337, 6.726e-4
-1.336, 6.504e-4
-1.335, 6.299e-4
-1.334, 6.091e-4
-1.333, 5.914e-4
-1.332, 5.735e-4
-1.331, 5.527e-4
-1.330, 5.290e-4
-1.329, 5.121e-4
-1.328, 5.010e-4
-1.327, 4.819e-4
-1.326, 4.586e-4
-1.325, 4.413e-4
-1.324, 4.267e-4
-1.323, 4.122e-4
-1.322, 3.957e-4
-1.321, 3.772e-4
-1.320, 3.597e-4
-1.319, 3.436e-4
-1.318, 3.330e-4
-1.317, 3.195e-4
-1.316, 2.995e-4
-1.315, 2.829e-4
-1.314, 2.721e-4
-1.313, 2.619e-4
-1.312, 2.470e-4
-1.311, 2.300e-4
-1.310, 2.159e-4
-1.309, 2.053e-4
-1.308, 1.952e-4
-1.307, 1.834e-4
-1.306, 1.672e-4
-1.305, 1.525e-4
-1.304, 1.439e-4
-1.303, 1.362e-4
-1.302, 1.239e-4
-1.301, 1.089e-4
-1.300, 9.588e-5
-1.299, 8.795e-5
-1.298, 8.083e-5
-1.297, 6.966e-5
-1.296, 5.653e-5
-1.295, 4.459e-5
-1.294, 3.674e-5
-1.293, 3.088e-5
-1.292, 2.069e-5
-1.291, 8.129e-6
-1.290, -2.297e-6
-1.289, -9.572e-6
-1.288, -1.390e-5
-1.287, -2.352e-5
-1.286, -3.586e-5
-1.285, -4.600e-5
-1.284, -5.180e-5
-1.283, -5.554e-5
-1.282, -6.418e-5
-1.281, -7.602e-5
-1.280, -8.548e-5
-1.279, -9.041e-5
-1.278, -9.445e-5
-1.277, -1.021e-4
-1.276, -1.118e-4
-1.275, -1.205e-4
-1.274, -1.254e-4
-1.273, -1.280e-4
-1.272, -1.345e-4
-1.271, -1.451e-4
-1.270, -1.535e-4
-1.269, -1.563e-4
-1.268, -1.596e-4
-1.267, -1.671e-4
-1.266, -1.759e-4
-1.265, -1.825e-4
-1.264, -1.852e-4
-1.263, -1.883e-4
-1.262, -1.947e-4
-1.261, -2.027e-4
-1.260, -2.108e-4
-1.259, -2.136e-4
-1.258, -2.144e-4
-1.257, -2.208e-4
-1.256, -2.291e-4
-1.255, -2.357e-4
-1.254, -2.378e-4
-1.253, -2.391e-4
-1.252, -2.452e-4
-1.251, -2.520e-4
-1.250, -2.583e-4
-1.249, -2.625e-4
-1.248, -2.624e-4
-1.247, -2.664e-4
-1.246, -2.748e-4
-1.245, -2.814e-4
-1.244, -2.821e-4
-1.243, -2.826e-4
-1.242, -2.888e-4
-1.241, -2.970e-4
-1.240, -3.005e-4
-1.239, -3.027e-4
-1.238, -3.043e-4
-1.237, -3.070e-4
-1.236, -3.134e-4
-1.235, -3.202e-4
-1.234, -3.218e-4
-1.233, -3.213e-4
-1.232, -3.255e-4
-1.231, -3.338e-4
-1.230, -3.379e-4
-1.229, -3.410e-4
-1.228, -3.434e-4
-1.227, -3.462e-4
-1.226, -3.508e-4
-1.225, -3.562e-4
-1.224, -3.580e-4
-1.223, -3.573e-4
-1.222, -3.607e-4
-1.221, -3.696e-4
-1.220, -3.753e-4
-1.219, -3.735e-4
-1.218, -3.714e-4
-1.217, -3.775e-4
-1.216, -3.840e-4
-1.215, -3.877e-4
-1.214, -3.893e-4
-1.213, -3.898e-4
-1.212, -3.927e-4
-1.211, -3.985e-4
-1.210, -4.045e-4
-1.209, -4.052e-4
-1.208, -4.024e-4
-1.207, -4.067e-4
-1.206, -4.147e-4
-1.205, -4.184e-4
-1.204, -4.184e-4
-1.203, -4.192e-4
-1.202, -4.236e-4
-1.201, -4.287e-4
-1.200, -4.321e-4
-1.199, -4.341e-4
-1.198, -4.335e-4
-1.197, -4.346e-4
-1.196, -4.431e-4
-1.195, -4.484e-4
-1.194, -4.464e-4
-1.193, -4.460e-4
-1.192, -4.503e-4
-1.191, -4.567e-4
-1.190, -4.598e-4
-1.189, -4.608e-4
-1.188, -4.620e-4
-1.187, -4.638e-4
-1.186, -4.683e-4
-1.185, -4.749e-4
-1.184, -4.751e-4
-1.183, -4.733e-4
-1.182, -4.767e-4
-1.181, -4.835e-4
-1.180, -4.877e-4
-1.179, -4.862e-4
-1.178, -4.879e-4
-1.177, -4.928e-4
-1.176, -4.970e-4
-1.175, -4.978e-4
-1.174, -5.023e-4
-1.173, -5.012e-4
-1.172, -5.022e-4
-1.171, -5.087e-4
-1.170, -5.150e-4
-1.169, -5.138e-4
-1.168, -5.114e-4
-1.167, -5.165e-4
-1.166, -5.239e-4
-1.165, -5.259e-4
-1.164, -5.258e-4
-1.163, -5.268e-4
-1.162, -5.288e-4
-1.161, -5.333e-4
-1.160, -5.388e-4
-1.159, -5.410e-4
-1.158, -5.376e-4
-1.157, -5.400e-4
-1.156, -5.491e-4
-1.155, -5.537e-4
-1.154, -5.517e-4
-1.153, -5.514e-4
-1.152, -5.547e-4
-1.151, -5.582e-4
-1.150, -5.643e-4
-1.149, -5.653e-4
-1.148, -5.636e-4
-1.147, -5.651e-4
-1.146, -5.737e-4
-1.145, -5.793e-4
-1.144, -5.772e-4
-1.143, -5.771e-4
-1.142, -5.822e-4
-1.141, -5.858e-4
-1.140, -5.891e-4
-1.139, -5.923e-4
-1.138, -5.923e-4
-1.137, -5.932e-4
-1.136, -5.987e-4
-1.135, -6.069e-4
-1.134, -6.079e-4
-1.133, -6.036e-4
-1.132, -6.093e-4
-1.131, -6.176e-4
-1.130, -6.196e-4
-1.129, -6.210e-4
-1.128, -6.234e-4
-1.127, -6.277e-4
-1.126, -6.321e-4
-1.125, -6.378e-4
-1.124, -6.415e-4
-1.123, -6.392e-4
-1.122, -6.425e-4
-1.121, -6.515e-4
-1.120, -6.571e-4
-1.119, -6.568e-4
-1.118, -6.593e-4
-1.117, -6.663e-4
-1.116, -6.722e-4
-1.115, -6.753e-4
-1.114, -6.821e-4
-1.113, -6.855e-4
-1.112, -6.862e-4
-1.111, -6.952e-4
-1.110, -7.060e-4
-1.109, -7.079e-4
-1.108, -7.078e-4
-1.107, -7.171e-4
-1.106, -7.275e-4
-1.105, -7.325e-4
-1.104, -7.368e-4
-1.103, -7.433e-4
-1.102, -7.482e-4
-1.101, -7.572e-4
-1.100, -7.699e-4
-1.099, -7.755e-4
-1.098, -7.754e-4
-1.097, -7.853e-4
-1.096, -8.028e-4
-1.095, -8.115e-4
-1.094, -8.157e-4
-1.093, -8.261e-4
-1.092, -8.422e-4
-1.091, -8.552e-4
-1.090, -8.674e-4
-1.089, -8.835e-4
-1.088, -8.939e-4
-1.087, -9.071e-4
-1.086, -9.296e-4
-1.085, -9.528e-4
-1.084, -9.672e-4
-1.083, -9.814e-4
-1.082, -1.009e-3
-1.081, -1.038e-3
-1.080, -1.058e-3
-1.079, -1.082e-3
-1.078, -1.110e-3
-1.077, -1.136e-3
-1.076, -1.167e-3
-1.075, -1.204e-3
-1.074, -1.232e-3
-1.073, -1.254e-3
-1.072, -1.288e-3
-1.071, -1.329e-3
-1.070, -1.362e-3
-1.069, -1.386e-3
-1.068, -1.420e-3
-1.067, -1.456e-3
-1.066, -1.487e-3
-1.065, -1.519e-3
-1.064, -1.556e-3
-1.063, -1.581e-3
-1.062, -1.606e-3
-1.061, -1.642e-3
-1.060, -1.682e-3
-1.059, -1.704e-3
-1.058, -1.732e-3
-1.057, -1.769e-3
-1.056, -1.800e-3
-1.055, -1.826e-3
-1.054, -1.860e-3
-1.053, -1.889e-3
-1.052, -1.904e-3
-1.051, -1.936e-3
-1.050, -1.977e-3
-1.049, -2.005e-3
-1.048, -2.024e-3
-1.047, -2.061e-3
-1.046, -2.099e-3
-1.045, -2.126e-3
-1.044, -2.156e-3
-1.043, -2.188e-3
-1.042, -2.218e-3
-1.041, -2.241e-3
-1.040, -2.278e-3
-1.039, -2.315e-3
-1.038, -2.335e-3
-1.037, -2.362e-3
-1.036, -2.404e-3
-1.035, -2.439e-3
-1.034, -2.458e-3
-1.033, -2.488e-3
-1.032, -2.532e-3
-1.031, -2.561e-3
-1.030, -2.588e-3
-1.029, -2.620e-3
-1.028, -2.657e-3
-1.027, -2.683e-3
-1.026, -2.714e-3
-1.025, -2.758e-3
-1.024, -2.790e-3
-1.023, -2.810e-3
-1.022, -2.846e-3
-1.021, -2.886e-3
-1.020, -2.925e-3
-1.019, -2.950e-3
-1.018, -2.984e-3
-1.017, -3.021e-3
-1.016, -3.050e-3
-1.015, -3.093e-3
-1.014, -3.137e-3
-1.013, -3.168e-3
-1.012, -3.190e-3
-1.011, -3.232e-3
-1.010, -3.279e-3
-1.009, -3.308e-3
-1.008, -3.332e-3
-1.007, -3.380e-3
-1.006, -3.423e-3
-1.005, -3.445e-3
-1.004, -3.479e-3
-1.003, -3.523e-3
-1.002, -3.560e-3
-1.001, -3.585e-3
-1.000, -3.506e-3
-1.001, -3.324e-3
-1.002, -3.158e-3
-1.003, -3.019e-3
-1.004, -2.909e-3
-1.005, -2.794e-3
-1.006, -2.666e-3
-1.007, -2.556e-3
-1.008, -2.461e-3
-1.009, -2.360e-3
-1.010, -2.256e-3
-1.011, -2.164e-3
-1.012, -2.071e-3
-1.013, -1.973e-3
-1.014, -1.890e-3
-1.015, -1.813e-3
-1.016, -1.730e-3
-1.017, -1.640e-3
-1.018, -1.566e-3
-1.019, -1.499e-3
-1.020, -1.423e-3
-1.021, -1.350e-3
-1.022, -1.282e-3
-1.023, -1.213e-3
-1.024, -1.148e-3
-1.025, -1.092e-3
-1.026, -1.033e-3
-1.027, -9.665e-4
-1.028, -9.084e-4
-1.029, -8.620e-4
-1.030, -8.104e-4
-1.031, -7.539e-4
-1.032, -7.021e-4
-1.033, -6.561e-4
-1.034, -6.103e-4
-1.035, -5.668e-4
-1.036, -5.220e-4
-1.037, -4.774e-4
-1.038, -4.341e-4
-1.039, -3.986e-4
-1.040, -3.640e-4
-1.041, -3.237e-4
-1.042, -2.835e-4
-1.043, -2.504e-4
-1.044, -2.212e-4
-1.045, -1.900e-4
-1.046, -1.560e-4
-1.047, -1.227e-4
-1.048, -9.423e-5
-1.049, -6.870e-5
-1.050, -4.354e-5
-1.051, -1.553e-5
-1.052, 1.370e-5
-1.053, 3.760e-5
-1.054, 5.808e-5
-1.055, 7.975e-5
-1.056, 1.035e-4
-1.057, 1.287e-4
-1.058, 1.500e-4
-1.059, 1.664e-4
-1.060, 1.836e-4
-1.061, 2.051e-4
-1.062, 2.270e-4
-1.063, 2.430e-4
-1.064, 2.569e-4
-1.065, 2.726e-4
-1.066, 2.895e-4
-1.067, 3.082e-4
-1.068, 3.244e-4
-1.069, 3.361e-4
-1.070, 3.468e-4
-1.071, 3.629e-4
-1.072, 3.812e-4
-1.073, 3.936e-4
-1.074, 4.013e-4
-1.075, 4.146e-4
-1.076, 4.307e-4
-1.077, 4.435e-4
-1.078, 4.539e-4
-1.079, 4.632e-4
-1.080, 4.717e-4
-1.081, 4.840e-4
-1.082, 4.986e-4
-1.083, 5.102e-4
-1.084, 5.162e-4
-1.085, 5.229e-4
-1.086, 5.363e-4
-1.087, 5.513e-4
-1.088, 5.585e-4
-1.089, 5.660e-4
-1.090, 5.756e-4
-1.091, 5.855e-4
-1.092, 5.969e-4
-1.093, 6.080e-4
-1.094, 6.165e-4
-1.095, 6.219e-4
-1.096, 6.324e-4
-1.097, 6.472e-4
-1.098, 6.559e-4
-1.099, 6.587e-4
-1.100, 6.681e-4
-1.101, 6.807e-4
-1.102, 6.915e-4
-1.103, 6.984e-4
-1.104, 7.072e-4
-1.105, 7.145e-4
-1.106, 7.234e-4
-1.107, 7.369e-4
-1.108, 7.492e-4
-1.109, 7.527e-4
-1.110, 7.583e-4
-1.111, 7.721e-4
-1.112, 7.855e-4
-1.113, 7.923e-4
-1.114, 7.987e-4
-1.115, 8.081e-4
-1.116, 8.199e-4
-1.117, 8.303e-4
-1.118, 8.428e-4
-1.119, 8.507e-4
-1.120, 8.546e-4
-1.121, 8.655e-4
-1.122, 8.834e-4
-1.123, 8.934e-4
-1.124, 8.976e-4
-1.125, 9.076e-4
-1.126, 9.219e-4
-1.127, 9.330e-4
-1.128, 9.416e-4
-1.129, 9.545e-4
-1.130, 9.594e-4
-1.131, 9.690e-4
-1.132, 9.889e-4
-1.133, 1.002e-3
-1.134, 1.006e-3
-1.135, 1.015e-3
-1.136, 1.030e-3
-1.137, 1.046e-3
-1.138, 1.054e-3
-1.139, 1.064e-3
-1.140, 1.076e-3
-1.141, 1.090e-3
-1.142, 1.104e-3
-1.143, 1.118e-3
-1.144, 1.130e-3
-1.145, 1.136e-3
-1.146, 1.148e-3
-1.147, 1.167e-3
-1.148, 1.179e-3
-1.149, 1.185e-3
-1.150, 1.201e-3
-1.151, 1.217e-3
-1.152, 1.228e-3
-1.153, 1.244e-3
-1.154, 1.259e-3
-1.155, 1.267e-3
-1.156, 1.281e-3
-1.157, 1.301e-3
-1.158, 1.316e-3
-1.159, 1.322e-3
-1.160, 1.336e-3
-1.161, 1.356e-3
-1.162, 1.373e-3
-1.163, 1.382e-3
-1.164, 1.401e-3
-1.165, 1.414e-3
-1.166, 1.424e-3
-1.167, 1.443e-3
-1.168, 1.462e-3
-1.169, 1.477e-3
-1.170, 1.484e-3
-1.171, 1.501e-3
-1.172, 1.527e-3
-1.173, 1.540e-3
-1.174, 1.552e-3
-1.175, 1.572e-3
-1.176, 1.587e-3
-1.177, 1.602e-3
-1.178, 1.624e-3
-1.179, 1.640e-3
-1.180, 1.650e-3
-1.181, 1.666e-3
-1.182, 1.692e-3
-1.183, 1.710e-3
-1.184, 1.715e-3
-1.185, 1.731e-3
-1.186, 1.759e-3
-1.187, 1.778e-3
-1.188, 1.787e-3
-1.189, 1.804e-3
-1.190, 1.825e-3
-1.191, 1.842e-3
-1.192, 1.856e-3
-1.193, 1.882e-3
-1.194, 1.897e-3
-1.195, 1.903e-3
-1.196, 1.928e-3
-1.197, 1.954e-3
-1.198, 1.962e-3
-1.199, 1.976e-3
-1.200, 1.998e-3
-1.201, 2.019e-3
-1.202, 2.030e-3
-1.203, 2.047e-3
-1.204, 2.070e-3
-1.205, 2.083e-3
-1.206, 2.092e-3
-1.207, 2.119e-3
-1.208, 2.138e-3
-1.209, 2.142e-3
-1.210, 2.152e-3
-1.211, 2.174e-3
-1.212, 2.195e-3
-1.213, 2.196e-3
-1.214, 2.209e-3
-1.215, 2.229e-3
-1.216, 2.240e-3
-1.217, 2.247e-3
-1.218, 2.265e-3
-1.219, 2.274e-3
-1.220, 2.267e-3
-1.221, 2.275e-3
-1.222, 2.296e-3
-1.223, 2.304e-3
-1.224, 2.294e-3
-1.225, 2.295e-3
-1.226, 2.306e-3
-1.227, 2.309e-3
-1.228, 2.300e-3
-1.229, 2.302e-3
-1.230, 2.296e-3
-1.231, 2.284e-3
-1.232, 2.293e-3
-1.233, 2.294e-3
-1.234, 2.264e-3
-1.235, 2.242e-3
-1.236, 2.235e-3
-1.237, 2.214e-3
-1.238, 2.188e-3
-1.239, 2.167e-3
-1.240, 2.136e-3
-1.241, 2.106e-3
-1.242, 2.085e-3
-1.243, 2.055e-3
-1.244, 2.009e-3
-1.245, 1.967e-3
-1.246, 1.938e-3
-1.247, 1.901e-3
-1.248, 1.850e-3
-1.249, 1.807e-3
-1.250, 1.764e-3
-1.251, 1.716e-3
-1.252, 1.673e-3
-1.253, 1.632e-3
-1.254, 1.580e-3
-1.255, 1.527e-3
-1.256, 1.488e-3
-1.257, 1.450e-3
-1.258, 1.402e-3
-1.259, 1.355e-3
-1.260, 1.319e-3
-1.261, 1.284e-3
-1.262, 1.246e-3
-1.263, 1.213e-3
-1.264, 1.180e-3
-1.265, 1.148e-3
-1.266, 1.115e-3
-1.267, 1.095e-3
-1.268, 1.077e-3
-1.269, 1.051e-3
-1.270, 1.026e-3
-1.271, 1.013e-3
-1.272, 1.001e-3
-1.273, 9.809e-4
-1.274, 9.630e-4
-1.275, 9.510e-4
-1.276, 9.388e-4
-1.277, 9.295e-4
-1.278, 9.238e-4
-1.279, 9.112e-4
-1.280, 8.982e-4
-1.281, 8.937e-4
-1.282, 8.938e-4
-1.283, 8.849e-4
-1.284, 8.743e-4
-1.285, 8.713e-4
-1.286, 8.698e-4
-1.287, 8.681e-4
-1.288, 8.686e-4
-1.289, 8.669e-4
-1.290, 8.627e-4
-1.291, 8.587e-4
-1.292, 8.645e-4
-1.293, 8.669e-4
-1.294, 8.602e-4
-1.295, 8.577e-4
-1.296, 8.651e-4
-1.297, 8.708e-4
-1.298, 8.686e-4
-1.299, 8.692e-4
-1.300, 8.751e-4
-1.301, 8.765e-4
-1.302, 8.828e-4
-1.303, 8.896e-4
-1.304, 8.910e-4
-1.305, 8.905e-4
-1.306, 8.992e-4
-1.307, 9.112e-4
-1.308, 9.152e-4
-1.309, 9.148e-4
-1.310, 9.226e-4
-1.311, 9.330e-4
-1.312, 9.383e-4
-1.313, 9.466e-4
-1.314, 9.560e-4
-1.315, 9.603e-4
-1.316, 9.689e-4
-1.317, 9.843e-4
-1.318, 9.937e-4
-1.319, 9.946e-4
-1.320, 1.004e-3
-1.321, 1.020e-3
-1.322, 1.031e-3
-1.323, 1.037e-3
-1.324, 1.050e-3
-1.325, 1.062e-3
-1.326, 1.074e-3
-1.327, 1.093e-3
-1.328, 1.106e-3
-1.329, 1.111e-3
-1.330, 1.117e-3
-1.331, 1.137e-3
-1.332, 1.159e-3
-1.333, 1.168e-3
-1.334, 1.179e-3
-1.335, 1.194e-3
-1.336, 1.210e-3
-1.337, 1.224e-3
-1.338, 1.242e-3
-1.339, 1.259e-3
-1.340, 1.269e-3
-1.341, 1.288e-3
-1.342, 1.313e-3
-1.343, 1.329e-3
-1.344, 1.340e-3
-1.345, 1.360e-3
-1.346, 1.382e-3
-1.347, 1.398e-3
-1.348, 1.422e-3
-1.349, 1.443e-3
-1.350, 1.458e-3
-1.351, 1.473e-3
-1.352, 1.503e-3
-1.353, 1.530e-3
-1.354, 1.545e-3
-1.355, 1.560e-3
-1.356, 1.591e-3
-1.357, 1.620e-3
-1.358, 1.637e-3
-1.359, 1.656e-3
-1.360, 1.687e-3
-1.361, 1.712e-3
-1.362, 1.734e-3
-1.363, 1.763e-3
-1.364, 1.790e-3
-1.365, 1.808e-3
-1.366, 1.838e-3
-1.367, 1.876e-3
-1.368, 1.902e-3
-1.369, 1.918e-3
-1.370, 1.949e-3
-1.371, 1.988e-3
-1.372, 2.017e-3
-1.373, 2.042e-3
-1.374, 2.075e-3
-1.375, 2.109e-3
-1.376, 2.132e-3
-1.377, 2.169e-3
-1.378, 2.207e-3
-1.379, 2.232e-3
-1.380, 2.261e-3
-1.381, 2.305e-3
-1.382, 2.346e-3
-1.383, 2.370e-3
-1.384, 2.402e-3
-1.385, 2.449e-3
-1.386, 2.482e-3
-1.387, 2.518e-3
-1.388, 2.559e-3
-1.389, 2.597e-3
-1.390, 2.628e-3
-1.391, 2.672e-3
-1.392, 2.715e-3
-1.393, 2.748e-3
-1.394, 2.788e-3
-1.395, 2.839e-3
-1.396, 2.884e-3
-1.397, 2.916e-3
-1.398, 2.960e-3
-1.399, 3.010e-3
-1.400, 2.924e-3
-1.399, 2.766e-3
-1.398, 2.682e-3
-1.397, 2.616e-3
-1.396, 2.538e-3
-1.395, 2.483e-3
-1.394, 2.444e-3
-1.393, 2.393e-3
-1.392, 2.343e-3
-1.391, 2.304e-3
-1.390, 2.255e-3
-1.389, 2.204e-3
-1.388, 2.166e-3
-1.387, 2.135e-3
-1.386, 2.089e-3
-1.385, 2.035e-3
-1.384, 1.997e-3
-1.383, 1.967e-3
-1.382, 1.923e-3
-1.381, 1.880e-3
-1.380, 1.844e-3
-1.379, 1.809e-3
-1.378, 1.766e-3
-1.377, 1.732e-3
-1.376, 1.699e-3
-1.375, 1.659e-3
-1.374, 1.621e-3
-1.373, 1.596e-3
-1.372, 1.563e-3
-1.371, 1.521e-3
-1.370, 1.485e-3
-1.369, 1.459e-3
-1.368, 1.428e-3
-1.367, 1.391e-3
-1.366, 1.361e-3
-1.365, 1.332e-3
-1.364, 1.299e-3
-1.363, 1.272e-3
-1.362, 1.246e-3
-1.361, 1.210e-3
-1.360, 1.179e-3
-1.359, 1.156e-3
-1.358, 1.132e-3
-1.357, 1.098e-3
-1.356, 1.071e-3
-1.355, 1.045e-3
-1.354, 1.020e-3
-1.353, 9.933e-4
-1.352, 9.705e-4
-1.351, 9.445e-4
-1.350, 9.141e-4
-1.349, 8.921e-4
-1.348, 8.739e-4
-1.347, 8.494e-4
-1.346, 8.202e-4
-1.345, 7.976e-4
-1.344, 7.791e-4
-1.343, 7.576e-4
-1.342, 7.344e-4
-1.341, 7.134e-4
-1.340, 6.900e-4
-1.339, 6.688e-4
-1.338, 6.542e-4
-1.337, 6.350e-4
-1.336, 6.106e-4
-1.335, 5.879e-4
-1.334, 5.729e-4
-1.333, 5.590e-4
-1.332, 5.378e-4
-1.331, 5.175e-4
-1.330, 4.992e-4
-1.329, 4.818e-4
-1.328, 4.675e-4
-1.327, 4.512e-4
-1.326, 4.326e-4
-1.325, 4.127e-4
-1.324, 3.982e-4
-1.323, 3.876e-4
-1.322, 3.713e-4
-1.321, 3.510e-4
-1.320, 3.362e-4
-1.319, 3.239e-4
-1.318, 3.113e-4
-1.317, 2.976e-4
-1.316, 2.807e-4
-1.315, 2.650e-4
-1.314, 2.524e-4
-1.313, 2.423e-4
-1.312, 2.310e-4
-1.311, 2.143e-4
-1.310, 1.992e-4
-1.309, 1.902e-4
-1.308, 1.808e-4
-1.307, 1.681e-4
-1.306, 1.537e-4
-1.305, 1.400e-4
-1.304, 1.313e-4
-1.303, 1.232e-4
-1.302, 1.120e-4
-1.301, 9.875e-5
-1.300, 8.572e-5
-1.299, 7.772e-5
-1.298, 7.145e-5
-1.297, 6.103e-5
-1.296, 4.843e-5
-1.295, 3.703e-5
-1.294, 2.967e-5
-1.293, 2.451e-5
-1.292, 1.498e-5
-1.291, 3.104e-6
-1.290, -7.351e-6
-1.289, -1.407e-5
-1.288, -1.846e-5
-1.287, -2.748e-5
-1.286, -3.877e-5
-1.285, -4.803e-5
-1.284, -5.434e-5
-1.283, -5.831e-5
-1.282, -6.563e-5
-1.281, -7.680e-5
-1.280, -8.673e-5
-1.279, -9.124e-5
-1.278, -9.501e-5
-1.277, -1.012e-4
-1.276, -1.117e-4
-1.275, -1.195e-4
-1.274, -1.237e-4
-1.273, -1.273e-4
-1.272, -1.327e-4
-1.271, -1.417e-4
-1.270, -1.504e-4
-1.269, -1.539e-4
-1.268, -1.559e-4
-1.267, -1.619e-4
-1.266, -1.714e-4
-1.265, -1.790e-4
-1.264, -1.811e-4
-1.263, -1.831e-4
-1.262, -1.893e-4
-1.261, -1.969e-4
-1.260, -2.041e-4
-1.259, -2.072e-4
-1.258, -2.088e-4
-1.257, -2.133e-4
-1.256, -2.207e-4
-1.255, -2.282e-4
-1.254, -2.302e-4
-1.253, -2.303e-4
-1.252, -2.359e-4
-1.251, -2.448e-4
-1.250, -2.497e-4
-1.249, -2.529e-4
-1.248, -2.536e-4
-1.247, -2.579e-4
-1.246, -2.643e-4
-1.245, -2.701e-4
-1.244, -2.727e-4
-1.243, -2.721e-4
-1.242, -2.767e-4
-1.241, -2.850e-4
-1.240, -2.892e-4
-1.239, -2.902e-4
-1.238, -2.914e-4
-1.237, -2.951e-4
-1.236, -3.012e-4
-1.235, -3.068e-4
-1.234, -3.093e-4
-1.233, -3.090e-4
-1.232, -3.110e-4
-1.231, -3.187e-4
-1.230, -3.250e-4
-1.229, -3.271e-4
-1.228, -3.263e-4
-1.227, -3.301e-4
-1.226, -3.349e-4
-1.225, -3.393e-4
-1.224, -3.403e-4
-1.223, -3.412e-4
-1.222, -3.430e-4
-1.221, -3.493e-4
-1.220, -3.554e-4
-1.219, -3.550e-4
-1.218, -3.539e-4
-1.217, -3.584e-4
-1.216, -3.645e-4
-1.215, -3.676e-4
-1.214, -3.686e-4
-1.213, -3.689e-4
-1.212, -3.720e-4
-1.211, -3.763e-4
-1.210, -3.816e-4
-1.209, -3.843e-4
-1.208, -3.816e-4
-1.207, -3.849e-4
-1.206, -3.916e-4
-1.205, -3.954e-4
-1.204, -3.953e-4
-1.203, -3.945e-4
-1.202, -3.978e-4
-1.201, -4.037e-4
-1.200, -4.079e-4
-1.199, -4.091e-4
-1.198, -4.084e-4
-1.197, -4.093e-4
-1.196, -4.165e-4
-1.195, -4.214e-4
-1.194, -4.211e-4
-1.193, -4.205e-4
-1.192, -4.238e-4
-1.191, -4.286e-4
-1.190, -4.320e-4
-1.189, -4.338e-4
-1.188, -4.340e-4
-1.187, -4.357e-4
-1.186, -4.407e-4
-1.185, -4.454e-4
-1.184, -4.451e-4
-1.183, -4.436e-4
-1.182, -4.475e-4
-1.181, -4.542e-4
-1.180, -4.573e-4
-1.179, -4.560e-4
-1.178, -4.575e-4
-1.177, -4.612e-4
-1.176, -4.648e-4
-1.175, -4.695e-4
-1.174, -4.714e-4
-1.173, -4.673e-4
-1.172, -4.691e-4
-1.171, -4.769e-4
-1.170, -4.814e-4
-1.169, -4.808e-4
-1.168, -4.789e-4
-1.167, -4.844e-4
-1.166, -4.881e-4
-1.165, -4.902e-4
-1.164, -4.929e-4
-1.163, -4.921e-4
-1.162, -4.921e-4
-1.161, -4.990e-4
-1.160, -5.039e-4
-1.159, -5.040e-4
-1.158, -5.018e-4
-1.157, -5.057e-4
-1.156, -5.123e-4
-1.155, -5.148e-4
-1.154, -5.158e-4
-1.153, -5.161e-4
-1.152, -5.171e-4
-1.151, -5.208e-4
-1.150, -5.261e-4
-1.149, -5.274e-4
-1.148, -5.246e-4
-1.147, -5.282e-4
-1.146, -5.359e-4
-1.145, -5.386e-4
-1.144, -5.383e-4
-1.143, -5.390e-4
-1.142, -5.429e-4
-1.141, -5.457e-4
-1.140, -5.505e-4
-1.139, -5.528e-4
-1.138, -5.512e-4
-1.137, -5.534e-4
-1.136, -5.609e-4
-1.135, -5.669e-4
-1.134, -5.654e-4
-1.133, -5.660e-4
-1.132, -5.726e-4
-1.131, -5.777e-4
-1.130, -5.779e-4
-1.129, -5.799e-4
-1.128, -5.814e-4
-1.127, -5.846e-4
-1.126, -5.906e-4
-1.125, -5.979e-4
-1.124, -5.991e-4
-1.123, -5.971e-4
-1.122, -6.020e-4
-1.121, -6.113e-4
-1.120, -6.142e-4
-1.119, -6.157e-4
-1.118, -6.181e-4
-1.117, -6.216e-4
-1.116, -6.267e-4
-1.115, -6.341e-4
-1.114, -6.384e-4
-1.113, -6.384e-4
-1.112, -6.419e-4
-1.111, -6.519e-4
-1.110, -6.577e-4
-1.109, -6.557e-4
-1.108, -6.598e-4
-1.107, -6.670e-4
-1.106, -6.738e-4
-1.105, -6.772e-4
-1.104, -6.791e-4
-1.103, -6.817e-4
-1.102, -6.846e-4
-1.101, -6.933e-4
-1.100, -7.049e-4
-1.099, -7.095e-4
-1.098, -7.087e-4
-1.097, -7.099e-4
-1.096, -7.211e-4
-1.095, -7.309e-4
-1.094, -7.381e-4
-1.093, -7.466e-4
-1.092, -7.598e-4
-1.091, -7.714e-4
-1.090, -7.834e-4
-1.089, -7.943e-4
-1.088, -8.015e-4
-1.087, -8.146e-4
-1.086, -8.366e-4
-1.085, -8.538e-4
-1.084, -8.667e-4
-1.083, -8.817e-4
-1.082, -8.997e-4
-1.081, -9.181e-4
-1.080, -9.421e-4
-1.079, -9.649e-4
-1.078, -9.831e-4
-1.077, -1.002e-3
-1.076, -1.034e-3
-1.075, -1.066e-3
-1.074, -1.088e-3
-1.073, -1.110e-3
-1.072, -1.142e-3
-1.071, -1.174e-3
-1.070, -1.200e-3
-1.069, -1.229e-3
-1.068, -1.259e-3
-1.067, -1.285e-3
-1.066, -1.315e-3
-1.065, -1.352e-3
-1.064, -1.378e-3
-1.063, -1.397e-3
-1.062, -1.427e-3
-1.061, -1.461e-3
-1.060, -1.487e-3
-1.059, -1.511e-3
-1.058, -1.541e-3
-1.057, -1.570e-3
-1.056, -1.591e-3
-1.055, -1.622e-3
-1.054, -1.651e-3
-1.053, -1.667e-3
-1.052, -1.690e-3
-1.051, -1.724e-3
-1.050, -1.756e-3
-1.049, -1.771e-3
-1.048, -1.796e-3
-1.047, -1.828e-3
-1.046, -1.849e-3
-1.045, -1.879e-3
-1.044, -1.907e-3
-1.043, -1.932e-3
-1.042, -1.950e-3
-1.041, -1.982e-3
-1.040, -2.021e-3
-1.039, -2.048e-3
-1.038, -2.066e-3
-1.037, -2.095e-3
-1.036, -2.127e-3
-1.035, -2.148e-3
-1.034, -2.176e-3
-1.033, -2.206e-3
-1.032, -2.226e-3
-1.031, -2.252e-3
-1.030, -2.292e-3
-1.029, -2.324e-3
-1.028, -2.338e-3
-1.027, -2.363e-3
-1.026, -2.404e-3
-1.025, -2.434e-3
-1.024, -2.451e-3
-1.023, -2.484e-3
-1.022, -2.518e-3
-1.021, -2.544e-3
-1.020, -2.577e-3
-1.019, -2.615e-3
-1.018, -2.637e-3
-1.017, -2.658e-3
-1.016, -2.697e-3
-1.015, -2.737e-3
-1.014, -2.756e-3
-1.013, -2.783e-3
-1.012, -2.826e-3
-1.011, -2.862e-3
-1.010, -2.880e-3
-1.009, -2.917e-3
-1.008, -2.955e-3
-1.007, -2.975e-3
-1.006, -3.011e-3
-1.005, -3.055e-3
-1.004, -3.084e-3
-1.003, -3.102e-3
-1.002, -3.142e-3
-1.001, -3.188e-3
