Potential V vs RHE, Current mA cm-2
0.013299999999999867,9.593157324384812
0.012299999999999978,8.851848603255535
0.011299999999999866,8.328405422305472
0.010299999999999976,7.761106191059591
0.009299999999999864,7.32537511070116
0.008299999999999974,6.801931929751096
0.007299999999999862,6.234632698505217
0.006299999999999972,5.667333467259336
0.00529999999999986,5.18774633660509
0.0042999999999999705,4.752015256246658
0.0032999999999998586,4.360140226184043
0.0022999999999999687,3.922994434525747
0.0012999999999998568,3.4872633541673155
0.00029999999999996696,3.0076762235130676
-0.000700000000000145,2.5280890928588207
-0.0017000000000000348,2.0909433012005243
-0.0027000000000001467,1.7429243214337253
-0.0037000000000000366,1.3934906303670611
-0.0047000000000001485,1.0010497157844997
-0.005700000000000038,0.6084673300719523
-0.00670000000000015,0.17231183632356148
-0.00770000000000004,-0.26384365742482935
-0.008700000000000152,-0.6564260431373771
-0.009700000000000042,-0.9617207416482519
-0.010700000000000154,-1.2671569112891135
-0.011700000000000044,-1.6156003044458718
-0.012700000000000156,-2.052746096104168
-0.013700000000000045,-2.4446211261667834
-0.014700000000000157,-2.8379108675292635
-0.015700000000000047,-3.1420737970002466
-0.01670000000000016,-3.403795387475278
-0.01770000000000005,-3.7093730282461257
-0.01870000000000016,-4.0588067193127895
-0.01970000000000005,-4.450681749375406
-0.020700000000000163,-4.843971490737885
-0.021700000000000053,-5.149549131508733
-0.022700000000000164,-5.453712060979717
-0.023700000000000054,-5.672992312458796
-0.024700000000000166,-5.977155241929781
-0.025700000000000056,-6.326588932996443
-0.026700000000000168,-6.6760226240631075
-0.027700000000000058,-7.024041603829907
-0.02870000000000017,-7.28576319430494
-0.02970000000000006,-7.5474847847799715
-0.03070000000000017,-7.7653503249591855
-0.03170000000000006,-8.070927965730034
-0.03270000000000017,-8.376505606500881
-0.03370000000000006,-8.725939297567548
-0.034700000000000175,-9.031516938338395
-0.035700000000000065,-9.293238528813426
-0.03670000000000018,-9.511104068992642
-0.03770000000000007,-9.772825659467674
-0.03870000000000018,-10.034547249942705
-0.03970000000000007,-10.382566229709504
-0.04070000000000018,-10.688143870480351
-0.04170000000000007,-10.949865460955383
-0.04270000000000018,-11.211587051430415
-0.04370000000000007,-11.385596541313816
-0.044700000000000184,-11.604876792792895
-0.045700000000000074,-11.909039722263879
-0.046700000000000186,-12.258473413330542
-0.047700000000000076,-12.520195003805576
-0.04870000000000019,-12.781916594280606
-0.04970000000000008,-12.955926084164007
-0.05070000000000019,-13.13135028534727
-0.05170000000000008,-13.3930718758223
-0.05270000000000019,-13.654793466297335
-0.05370000000000008,-13.960371107068182
-0.05470000000000019,-14.217848563643619
-0.05570000000000008,-14.444202371622024
-0.056700000000000195,-14.61396772760583
-0.057700000000000085,-14.783733083589633
-0.058700000000000196,-15.05252823056399
-0.059700000000000086,-15.349617603535648
-0.0607000000000002,-15.618412750510005
-0.06170000000000009,-15.87306078448571
-0.0627000000000002,-16.056973253468165
-0.06370000000000009,-16.184297270456018
-0.0647000000000002,-16.396503965435777
-0.06570000000000009,-16.665299112410132
-0.0667000000000002,-16.919947146385837
-0.0677000000000001,-17.188742293360193
-0.0687000000000002,-17.40094898833995
-0.0697000000000001,-17.542420118326454
-0.07070000000000021,-17.71218547431026
-0.0717000000000001,-17.881950830294063
-0.07270000000000021,-18.15074597726842
-0.0737000000000001,-18.44783535024008
-0.07470000000000021,-18.674189158218486
-0.0757000000000001,-18.843954514202288
-0.07670000000000021,-18.97127853119014
-0.0777000000000001,-19.112749661176647
-0.07870000000000021,-19.367397695152352
-0.0797000000000001,-19.636192842126707
-0.08070000000000022,-19.848399537106463
-0.0817000000000001,-20.06060623208622
-0.08270000000000022,-20.244518701068674
-0.08370000000000011,-20.371842718056527
-0.08470000000000022,-20.541608074040333
-0.08570000000000011,-20.72552054302279
-0.08670000000000022,-20.980168576998494
-0.08770000000000011,-21.2065223849769
-0.08870000000000022,-21.376287740960702
-0.08970000000000011,-21.54605309694451
-0.09070000000000022,-21.67337711393236
-0.09170000000000011,-21.814848243918867
-0.09270000000000023,-22.069496277894572
-0.09370000000000012,-22.33829142486893
-0.09470000000000023,-22.508056780852733
-0.09570000000000012,-22.67782213683654
-0.09670000000000023,-22.819293266823045
-0.09770000000000012,-22.946617283810895
-0.09870000000000023,-23.1163826397947
-0.09970000000000012,-23.385177786769056
-0.10070000000000023,-23.597384481748815
-0.10170000000000012,-23.823738289727217
-0.10270000000000024,-23.951062306715073
-0.10370000000000013,-24.078386323702922
-0.10470000000000024,-24.20571034069078
-0.10570000000000013,-24.432064148669184
-0.10670000000000024,-24.686712182644893
-0.10770000000000013,-24.870624651627345
-0.10870000000000024,-24.95550732961925
-0.10970000000000013,-24.997948668615198
-0.11070000000000024,-25.12527268560305
-0.11170000000000013,-25.252596702590903
-0.11270000000000002,-25.521391849565262
-0.11370000000000013,-25.77603988354097
-0.11470000000000002,-26.002393691519377
-0.11570000000000014,-26.17215904750318
-0.11670000000000003,-26.29948306449103
-0.11770000000000014,-26.483395533473487
-0.11870000000000003,-26.69560222845324
-0.11970000000000014,-26.907808923433
-0.12070000000000003,-27.176604070407354
-0.12170000000000014,-27.34636942639116
-0.12270000000000003,-27.487840556377662
-0.12370000000000014,-27.615164573365515
-0.12470000000000003,-27.742488590353368
-0.12570000000000014,-27.954695285333123
-0.12670000000000003,-28.22349043230748
-0.12770000000000015,-28.393255788291288
-0.12870000000000004,-28.53472691827779
-0.12970000000000015,-28.662050935265643
-0.13070000000000004,-28.789374952253496
-0.13170000000000015,-28.91669896924135
-0.13270000000000004,-29.14305277721976
-0.13370000000000015,-29.35525947219951
-0.13470000000000004,-29.581613280177915
-0.13570000000000015,-29.708937297165768
-0.13670000000000004,-29.836261314153624
-0.13770000000000016,-29.921143992145527
-0.13870000000000005,-30.147497800123933
-0.13970000000000016,-30.359704495103685
-0.14070000000000005,-30.571911190083444
-0.14170000000000016,-30.7558236590659
-0.14270000000000005,-30.88314767605375
-0.14370000000000016,-31.010471693041605
-0.14470000000000005,-31.19438416202406
-0.14570000000000016,-31.40659085700382
-0.14670000000000005,-31.618797551983565
-0.14770000000000016,-31.84515135996197
-0.14870000000000005,-32.01491671594578
-0.14970000000000017,-32.09979939393769
-0.15070000000000006,-32.24127052392419
-0.15170000000000017,-32.41103587990799
-0.15270000000000006,-32.58080123589179
-0.15370000000000017,-32.807155043870196
-0.15470000000000006,-33.01936173884996
-0.15570000000000017,-33.14668575583781
-0.15670000000000006,-33.231568433829715
-0.15770000000000017,-33.373039563816214
-0.15870000000000006,-33.58524625879597
-0.15970000000000018,-33.755011614779775
-0.16070000000000007,-33.98136542275818
-0.16170000000000018,-34.15113077874198
-0.16270000000000007,-34.278454795729836
-0.16370000000000018,-34.377484586720385
-0.16470000000000007,-34.5472499427042
-0.16570000000000018,-34.75945663768395
-0.16670000000000007,-35.02825178465831
-0.16770000000000018,-35.240458479638065
-0.16870000000000007,-35.42437094862052
-0.16970000000000018,-35.50925362661242
-0.17070000000000007,-35.679018982596226
-0.17170000000000019,-35.806342999584075
-0.17270000000000008,-36.03269680756248
-0.1737000000000002,-36.244903502542236
-0.17470000000000008,-36.4288159715247
-0.1757000000000002,-36.5985813275085
-0.17670000000000008,-36.725905344496354
-0.1777000000000002,-36.8532293614842
-0.17870000000000008,-37.037141830466666
-0.1797000000000002,-37.291789864442364
-0.18070000000000008,-37.51814367242077
-0.1817000000000002,-37.645467689408626
-0.18270000000000008,-37.77279170639648
-0.1837000000000002,-37.81523304539243
-0.1847000000000001,-37.99914551437489
-0.1857000000000002,-38.16891087035869
-0.1867000000000001,-38.42355890433439
-0.1877000000000002,-38.6499127123128
-0.1887000000000001,-38.777236729300654
-0.1897000000000002,-38.81967806829661
-0.1907000000000001,-38.86211940729255
-0.1917000000000001,-39.046031876275016
-0.19269999999999998,-39.21579723225882
-0.1937000000000001,-39.42800392723857
-0.19469999999999998,-39.61191639622103
-0.1957000000000001,-39.739240413208876
-0.19669999999999999,-39.86656443019674
-0.1977000000000001,-39.99388844718459
-0.1987,-40.220242255162994
-0.1997000000000001,-40.4748902891387
-0.2007,-40.743685436113054
-0.2017000000000001,-40.95589213109281
-0.2027,-41.182245939071215
-0.2037000000000001,-41.352011295055014
-0.2047,-41.52177665103883
-0.2057000000000001,-41.79057179801318
-0.2067,-42.04521983198889
-0.2077000000000001,-42.2715736399673
-0.2087,-42.39889765695515
-0.2097000000000001,-42.526221673943
-0.2107,-42.653545690930855
-0.2117000000000001,-42.837458159913304
-0.2127,-43.04966485489307
-0.2137000000000001,-43.31846000186743
-0.2147,-43.53066669684718
-0.2157000000000001,-43.70043205283099
-0.2167,-43.84190318281749
-0.21770000000000012,-44.054109877797245
-0.2187,-44.223875233781044
-0.21970000000000012,-44.4926703807554
-0.2207,-44.704877075735155
-0.22170000000000012,-44.93123088371356
-0.2227,-45.10099623969737
-0.22370000000000012,-45.18587891768927
-0.2247,-45.32735004767578
-0.22570000000000012,-45.497115403659585
-0.2267,-45.79420477663124
-0.22770000000000012,-46.062999923605595
-0.22870000000000001,-46.2327652795894
-0.22970000000000013,-46.41667774857186
-0.23070000000000002,-46.544001765559706
-0.23170000000000013,-46.713767121543505
-0.23270000000000002,-46.94012092952192
-0.23370000000000013,-47.23721030249357
-0.23470000000000002,-47.40697565847737
-0.23570000000000013,-47.590888127459834
-0.23670000000000002,-47.76065348344364
-0.2376999999999999,-47.8879775004315
-0.23870000000000002,-48.156772647405845
-0.2396999999999999,-48.36897934238561
-0.24070000000000003,-48.59533315036401
-0.24169999999999991,-48.80753984534376
-0.24270000000000003,-48.97730520132757
-0.24369999999999992,-49.16121767031002
-0.24470000000000003,-49.33098302629383
-0.24569999999999992,-49.557336834272235
-0.24670000000000003,-49.81198486824794
-0.24769999999999992,-50.024191563227696
-0.24870000000000003,-50.20810403221015
-0.24969999999999992,-50.335428049198
-0.25070000000000003,-50.46275206618586
-0.2516999999999999,-50.64666453516831
-0.25270000000000004,-50.90131256914402
-0.2536999999999999,-51.127666377122424
-0.25470000000000004,-51.33987307210218
-0.2556999999999999,-51.509638428085985
-0.25670000000000004,-51.69355089706845
-0.25769999999999993,-51.86331625305225
-0.25870000000000004,-52.075522948032
-0.25969999999999993,-52.34431809500636
-0.26070000000000004,-52.55652478998611
-0.26169999999999993,-52.78287859796452
-0.26270000000000004,-52.95264395394832
-0.26369999999999993,-53.079967970936174
-0.26470000000000005,-53.30632177891458
-0.26569999999999994,-53.518528473894335
-0.26670000000000005,-53.82976495986464
-0.26769999999999994,-54.0419716548444
-0.26870000000000005,-54.2117370108282
-0.26969999999999994,-54.39564947981066
-0.27070000000000005,-54.480532157802564
-0.27169999999999994,-54.69273885278232
-0.27270000000000005,-54.919092660760725
-0.27369999999999994,-55.21618203373238
-0.27470000000000006,-55.400094502714836
-0.27569999999999995,-55.612301197694585
-0.27670000000000006,-55.7820665536784
-0.27769999999999995,-56.008420361656796
-0.27870000000000006,-56.1781857176406
-0.27969999999999995,-56.36209818662306
-0.28070000000000006,-56.61674622059877
-0.28169999999999995,-56.786511576582576
-0.28270000000000006,-56.88554136757313
-0.28369999999999995,-57.012865384560975
-0.28470000000000006,-57.14018940154883
-0.28569999999999995,-57.408984548523186
-0.28670000000000007,-57.66363258249889
-0.28769999999999996,-57.93242772947325
-0.28870000000000007,-58.10219308545706
-0.28969999999999996,-58.22951710244491
-0.29070000000000007,-58.31439978043681
-0.29169999999999996,-58.54075358841522
-0.29270000000000007,-58.71051894439902
-0.29369999999999996,-58.92272563937878
-0.2947000000000001,-59.10663810836124
-0.29569999999999996,-59.19152078635314
-0.2967000000000001,-59.31884480334099
-0.29769999999999996,-59.44616882032884
-0.2987000000000001,-59.6300812893113
-0.29969999999999997,-59.884729323287
-0.3007000000000001,-60.06864179226946
-0.30169999999999997,-60.23840714825326
-0.3027000000000001,-60.36573116524111
-0.30369999999999997,-60.45061384323302
-0.3047000000000001,-60.63452631221547
-0.30569999999999997,-60.80429166819927
-0.3067000000000001,-60.974057024183075
-0.3077,-61.15796949316553
-0.3087000000000001,-61.28529351015339
-0.3097,-61.455058866137186
-0.3107000000000001,-61.53994154412909
-0.3117,-61.72385401311155
-0.3127000000000001,-61.936060708091304
-0.3137,-62.20485585506566
-0.3147000000000001,-62.41706255004542
-0.3157,-62.544386567033264
-0.3167000000000001,-62.68585769701977
-0.3177,-62.77074037501168
-0.3187000000000001,-63.02538840898739
-0.3197,-63.251742216965795
-0.3207000000000001,-63.421507572949594
-0.3217,-63.54883158993744
-0.3227000000000001,-63.6761556069253
-0.3237,-63.77518539791585
-0.3247000000000001,-63.902509414903705
-0.3257,-64.02983343189156
-0.3267000000000001,-64.19959878787537
-0.3277,-64.34106991786187
-0.3287000000000001,-64.51083527384567
-0.3297,-64.59571795183757
-0.3307000000000001,-64.68060062982947
-0.3317,-64.82207175981598
-0.3327000000000001,-64.99183711579978
-0.3337,-65.16160247178358
-0.3347000000000001,-65.3030736017701
-0.3357,-65.38795627976201
-0.3367000000000001,-65.4728389577539
-0.3377,-65.51528029674984
-0.3387000000000001,-65.60016297474175
-0.3397,-65.7274869917296
-0.3407000000000001,-65.99628213870396
-0.3417,-66.08116481669586
-0.3427000000000001,-66.12360615569182
-0.3437,-66.16604749468777
-0.3447000000000001,-66.29337151167562
-0.3457,-66.47728398065809
-0.3467000000000001,-66.64704933664189
-0.3477,-66.81681469262568
-0.3487000000000001,-66.87340314462028
-0.3497,-66.9582858226122
-0.3507000000000001,-66.9582858226122
-0.3517,-67.04316850060408
-0.3527000000000001,-67.08560983960004
-0.3537,-67.25537519558385
-0.3547000000000001,-67.25537519558385
-0.3557,-67.25537519558385
-0.35670000000000013,-67.25537519558385
-0.3577,-67.2978165345798
-0.35870000000000013,-67.34025787357575
-0.3597,-67.48172900356225
-0.36070000000000013,-67.56661168155415
-0.3617,-67.56661168155415
-0.3626999999999999,-67.65149435954605
-0.3637,-67.65149435954605
-0.3646999999999999,-67.65149435954605
-0.3657,-67.73637703753796
-0.3666999999999999,-67.86370105452582
-0.3677,-67.9202895065204
-0.3686999999999999,-67.96273084551636
-0.36970000000000003,-67.96273084551636
-0.3706999999999999,-68.0051721845123
-0.37170000000000003,-68.0900548625042
-0.3726999999999999,-68.13249620150016
-0.37370000000000003,-68.21737887949207
-0.3746999999999999,-68.34470289647993
-0.37570000000000003,-68.38714423547587
-0.3766999999999999,-68.25982021848802
-0.37770000000000004,-68.25982021848802
-0.3786999999999999,-68.30226155748396
-0.37970000000000004,-68.44373268747047
-0.3806999999999999,-68.57105670445833
-0.38170000000000004,-68.61349804345427
-0.38269999999999993,-68.61349804345427
-0.38370000000000004,-68.57105670445833
-0.38469999999999993,-68.57105670445833
-0.38570000000000004,-68.65593938245023
-0.38669999999999993,-68.69838072144618
-0.38770000000000004,-68.61349804345427
-0.38869999999999993,-68.57105670445833
-0.38970000000000005,-68.61349804345427
-0.39069999999999994,-68.61349804345427
-0.39170000000000005,-68.61349804345427
-0.39269999999999994,-68.65593938245023
-0.39370000000000005,-68.69838072144618
-0.39469999999999994,-68.74082206044213
-0.39570000000000005,-68.69838072144618
-0.39669999999999994,-68.61349804345427
-0.39770000000000005,-68.57105670445833
-0.39869999999999994,-68.57105670445833
-0.39970000000000006,-68.61349804345427
-0.40069999999999995,-68.61349804345427
-0.40170000000000006,-68.74082206044213
-0.40269999999999995,-68.74082206044213
-0.40370000000000006,-68.69838072144618
-0.40469999999999995,-68.69838072144618
-0.40570000000000006,-68.69838072144618
-0.40669999999999995,-68.78326339943808
-0.40770000000000006,-68.78326339943808
-0.40869999999999995,-68.78326339943808
-0.40970000000000006,-68.74082206044213
-0.41069999999999995,-68.74082206044213
-0.41170000000000007,-68.78326339943808
-0.41269999999999996,-68.82570473843404
-0.41370000000000007,-68.82570473843404
-0.41469999999999996,-68.86814607742998
-0.41570000000000007,-68.74082206044213
-0.41669999999999996,-68.69838072144618
-0.41770000000000007,-68.61349804345427
-0.41869999999999996,-68.65593938245023
-0.4197000000000001,-68.69838072144618
-0.42069999999999996,-68.82570473843404
-0.4217000000000001,-68.74082206044213
-0.42269999999999996,-68.61349804345427
-0.4237000000000001,-68.52861536546239
-0.42469999999999997,-68.52861536546239
-0.4257000000000001,-68.52861536546239
-0.42669999999999997,-68.52861536546239
-0.4277000000000001,-68.57105670445833
-0.42869999999999997,-68.44373268747047
-0.4297000000000001,-68.30226155748396
-0.43069999999999997,-68.34470289647993
-0.4317000000000001,-68.30226155748396
-0.4327,-68.34470289647993
-0.4337000000000001,-68.38714423547587
-0.4347,-68.38714423547587
-0.4357000000000001,-68.30226155748396
-0.4367,-68.21737887949207
-0.4377000000000001,-68.13249620150016
-0.4387,-68.17493754049613
-0.4397000000000001,-68.21737887949207
-0.4407,-68.30226155748396
-0.4417000000000001,-68.25982021848802
-0.4427,-68.21737887949207
-0.4437000000000001,-68.17493754049613
-0.4447,-68.0900548625042
-0.4457000000000001,-68.17493754049613
-0.4467,-68.21737887949207
-0.4477000000000001,-68.30226155748396
-0.4487,-68.34470289647993
-0.4497000000000001,-68.30226155748396
-0.4507,-68.30226155748396
-0.4517000000000001,-68.38714423547587
-0.4527,-68.44373268747047
-0.4537000000000001,-68.52861536546239
-0.4547,-68.61349804345427
-0.4557000000000001,-68.65593938245023
-0.4567,-68.65593938245023
-0.4577000000000001,-68.57105670445833
-0.4587,-68.61349804345427
-0.4597000000000001,-68.69838072144618
-0.4607,-68.78326339943808
-0.4617000000000001,-68.82570473843404
-0.4627,-68.82570473843404
-0.4637000000000001,-68.78326339943808
-0.4647,-68.78326339943808
-0.4657000000000001,-68.78326339943808
-0.4667,-68.91058741642594
-0.4677000000000001,-68.96717586842054
-0.4687,-68.96717586842054
-0.4697000000000001,-68.86814607742998
-0.4707,-68.91058741642594
-0.4717000000000001,-69.0096172074165
-0.4727,-69.1793825634003
-0.4737000000000001,-69.26426524139221
-0.4747,-69.26426524139221
-0.4757000000000001,-69.3491479193841
-0.4767,-69.30670658038814
-0.4777000000000001,-69.43403059737601
-0.4787,-69.4906190493706
-0.4797000000000001,-69.61794306635846
-0.4807,-69.70282574435035
-0.48170000000000013,-69.8301497613382
-0.4827,-69.78770842234226
-0.48370000000000013,-69.74526708334632
-0.4847,-69.87259110033416
-0.48570000000000013,-70.01406223032066
-0.4867,-69.74526708334632
-0.48570000000000013,-68.61349804345427
-0.4847,-67.56661168155415
-0.48370000000000013,-66.64704933664189
-0.4827,-65.64260431373769
-0.48170000000000013,-64.72304196882543
-0.4807,-63.902509414903705
-0.4797000000000001,-63.15271242597524
-0.4787,-62.37462121104946
-0.4777000000000001,-61.5965299961237
-0.4767,-60.80429166819927
-0.4757000000000001,-60.02620045327351
-0.4747,-59.31884480334099
-0.4737000000000001,-58.66807760540307
-0.4727,-58.05975174646111
-0.4717000000000001,-57.45142588751914
-0.4707,-56.70162889859067
-0.4697000000000001,-56.008420361656796
-0.4687,-55.357653163718886
-0.4677000000000001,-54.791768643772876
-0.4667,-54.2117370108282
-0.4657000000000001,-53.603411151886235
-0.4647,-53.03752663194023
-0.4637000000000001,-52.34431809500636
-0.4627,-51.73599223606439
-0.4617000000000001,-51.127666377122424
-0.4607,-50.60422319617236
