Potential V vs RHE, Current mA cm-2
0.013299999999999867,-0.06100235125018039
0.012299999999999978,-0.17400948988339954
0.011299999999999866,-0.22437321215859482
0.010299999999999976,-0.25733598544545017
0.009299999999999864,-0.2801128373732773
0.008299999999999974,-0.289874345342346
0.007299999999999862,-0.3096803035404565
0.006299999999999972,-0.33740864501781126
0.00529999999999986,-0.3583463722558138
0.0042999999999999705,-0.37051288943465316
0.0032999999999998586,-0.37772791706396475
0.0022999999999999687,-0.3900359053727906
0.0012999999999998568,-0.4113980460007527
0.00029999999999996696,-0.43318460001867426
-0.000700000000000145,-0.44252169459778345
-0.0017000000000000348,-0.44733171301732455
-0.0027000000000001467,-0.45765910550633937
-0.0037000000000000366,-0.4784553616143554
-0.0047000000000001485,-0.5002419156322769
-0.005700000000000038,-0.5061837030917101
-0.00670000000000015,-0.5121254905511432
-0.00770000000000004,-0.5218869985202121
-0.008700000000000152,-0.5422588412382686
-0.009700000000000042,-0.5648942220361092
-0.010700000000000154,-0.5753630856551104
-0.011700000000000044,-0.5736654320952724
-0.012700000000000156,-0.5886613718738418
-0.013700000000000045,-0.6062037919921682
-0.014700000000000157,-0.6298294706999144
-0.015700000000000047,-0.6390250941490371
-0.01670000000000016,-0.6411471610988346
-0.01770000000000005,-0.65670898539735
-0.01870000000000016,-0.674675818905636
-0.01970000000000005,-0.6966038440535441
-0.020700000000000163,-0.7094777168823159
-0.021700000000000053,-0.7130144951319785
-0.022700000000000164,-0.7254639545707907
-0.023700000000000054,-0.7462602106788069
-0.024700000000000166,-0.7708761872964585
-0.025700000000000056,-0.7834671178652574
-0.026700000000000168,-0.7857306559450413
-0.027700000000000058,-0.7993118844237457
-0.02870000000000017,-0.823786389911411
-0.02970000000000006,-0.845148530539373
-0.03070000000000017,-0.8604274125779153
-0.03170000000000006,-0.8639641908275778
-0.03270000000000017,-0.8783942460862012
-0.03370000000000006,-0.9038590494837719
-0.034700000000000175,-0.926070016891653
-0.035700000000000065,-0.9397927165003438
-0.03670000000000018,-0.9472906863896284
-0.03770000000000007,-0.9587498479185353
-0.03870000000000018,-0.9863367182659035
-0.03970000000000007,-1.0102453392336226
-0.04070000000000018,-1.0228362698024216
-0.04170000000000007,-1.0318904221215577
-0.04270000000000018,-1.0437739970404243
-0.04370000000000007,-1.0686729159180488
-0.044700000000000184,-1.0968256707853627
-0.045700000000000074,-1.1078604189243102
-0.046700000000000186,-1.1180463402833383
-0.047700000000000076,-1.1299299152022049
-0.04870000000000019,-1.156102074249708
-0.04970000000000008,-1.1848207136369682
-0.05070000000000019,-1.1935919236961314
-0.05170000000000008,-1.200241066805497
-0.05270000000000019,-1.2184908425737562
-0.05370000000000008,-1.2411262233715967
-0.05470000000000019,-1.2677227958090596
-0.05570000000000008,-1.2803137263778581
-0.056700000000000195,-1.2873872828771833
-0.057700000000000085,-1.3056370586454424
-0.058700000000000196,-1.3250186034535933
-0.059700000000000086,-1.3518981181510292
-0.0607000000000002,-1.368167298099477
-0.06170000000000009,-1.3762311525087079
-0.0627000000000002,-1.38868061194752
-0.06370000000000009,-1.411174521615374
-0.0647000000000002,-1.433102546763282
-0.06570000000000009,-1.4529085049613928
-0.0667000000000002,-1.4529085049613928
-0.0677000000000001,-1.4684703292599082
-0.0687000000000002,-1.4925204213576138
-0.0697000000000001,-1.5165705134553193
-0.07070000000000021,-1.5293029151541047
-0.0717000000000001,-1.5335470490536998
-0.07270000000000021,-1.546279450752485
-0.0737000000000001,-1.5731589654499207
-0.07470000000000021,-1.5929649236480312
-0.0757000000000001,-1.6042826140469515
-0.07670000000000021,-1.612770881846142
-0.0777000000000001,-1.6198444383454669
-0.07870000000000021,-1.6467239530429028
-0.0797000000000001,-1.6665299112410132
-0.08070000000000022,-1.6792623129397986
-0.0817000000000001,-1.6849211581392587
-0.08270000000000022,-1.6919947146385839
-0.08370000000000011,-1.7132153841365596
-0.08470000000000022,-1.7372654762342652
-0.08570000000000011,-1.7443390327335901
-0.08670000000000022,-1.7528273005327806
-0.08770000000000011,-1.7627302796318356
-0.08870000000000022,-1.779706815230216
-0.08970000000000011,-1.8065863299276517
-0.09070000000000022,-1.813659886426977
-0.09170000000000011,-1.815074597726842
-0.09270000000000023,-1.8306364220253575
-0.09370000000000012,-1.8447835350240078
-0.09470000000000023,-1.8702483384215782
-0.09570000000000012,-1.8773218949209036
-0.09670000000000023,-1.8787366062207687
-0.09770000000000012,-1.894298430519284
-0.09870000000000023,-1.9084455435179344
-0.09970000000000012,-1.9296662130159101
-0.10070000000000023,-1.9423986147146954
-0.10170000000000012,-1.9381544808151003
-0.10270000000000024,-1.9537163051136157
-0.10370000000000013,-1.9692781294121309
-0.10470000000000024,-1.993328221509837
-0.10570000000000013,-2.0032312006088917
-0.10670000000000024,-2.001816489309027
-0.10770000000000013,-2.0103047571082175
-0.10870000000000024,-2.0315254266061924
-0.10970000000000013,-2.049916673504438
-0.11070000000000024,-2.0626490752032236
-0.11170000000000013,-2.0598196526034935
-0.11270000000000002,-2.071137343002414
-0.11370000000000013,-2.0937727238002544
-0.11470000000000002,-2.1079198367989047
-0.11570000000000014,-2.1192375271978254
-0.11670000000000003,-2.122066949797555
-0.11770000000000014,-2.127725794997015
-0.11870000000000003,-2.150361175794856
-0.11970000000000014,-2.1687524226931014
-0.12070000000000003,-2.177240690492291
-0.12170000000000014,-2.181484824391887
-0.12270000000000003,-2.1857289582914814
-0.12370000000000014,-2.205534916489592
-0.12470000000000003,-2.230999719887163
-0.12570000000000014,-2.2338291424868926
-0.12670000000000003,-2.2366585650866226
-0.12770000000000015,-2.2451468328858133
-0.12870000000000004,-2.263538079784059
-0.12970000000000015,-2.2875881718817643
-0.13070000000000004,-2.2918323057813597
-0.13170000000000015,-2.2974911509808194
-0.13270000000000004,-2.307394130079875
-0.13370000000000015,-2.3201265317786604
-0.13470000000000004,-2.347006046476096
-0.13570000000000015,-2.352664891675556
-0.13670000000000004,-2.354079602975421
-0.13770000000000016,-2.3668120046742067
-0.13870000000000005,-2.382373828972722
-0.13970000000000016,-2.4050092097705624
-0.14070000000000005,-2.417741611469348
-0.14170000000000016,-2.414912188869618
-0.14270000000000005,-2.426229879268538
-0.14370000000000016,-2.4417917035670533
-0.14470000000000005,-2.463012373065029
-0.14570000000000016,-2.4771594860636794
-0.14670000000000005,-2.475744774763814
-0.14770000000000016,-2.4842330425630044
-0.14870000000000005,-2.50545371206098
-0.14970000000000017,-2.5252596702590906
-0.15070000000000006,-2.5379920719578757
-0.15170000000000017,-2.5351626493581456
-0.15270000000000006,-2.545065628457201
-0.15370000000000017,-2.5691157205549064
-0.15470000000000006,-2.583262833553557
-0.15570000000000017,-2.5945805239524775
-0.15670000000000006,-2.600239369151937
-0.15770000000000017,-2.6073129256512626
-0.15870000000000006,-2.627118883849373
-0.15970000000000018,-2.6497542646472136
-0.16070000000000007,-2.655413109846674
-0.16170000000000018,-2.661071955046134
-0.16270000000000007,-2.6653160889457292
-0.16370000000000018,-2.689366181043435
-0.16470000000000007,-2.7105868505414104
-0.16570000000000018,-2.7148309844410052
-0.16670000000000007,-2.7219045409403306
-0.16770000000000018,-2.7289780974396556
-0.16870000000000007,-2.7501987669376318
-0.16970000000000018,-2.770004725135742
-0.17070000000000007,-2.7770782816350668
-0.17170000000000019,-2.7799077042347973
-0.17270000000000008,-2.788395972033987
-0.1737000000000002,-2.8053725076323675
-0.17470000000000008,-2.8265931771303436
-0.1757000000000002,-2.8350814449295334
-0.17670000000000008,-2.8393255788291283
-0.1777000000000002,-2.8492285579281837
-0.17870000000000008,-2.863375670926834
-0.1797000000000002,-2.8845963404248094
-0.18070000000000008,-2.893084608224
-0.1817000000000002,-2.893084608224
-0.18270000000000008,-2.9029875873230555
-0.1837000000000002,-2.9185494116215707
-0.1847000000000001,-2.9369406585198163
-0.1857000000000002,-2.949673060218602
-0.1867000000000001,-2.9440142150191413
-0.1877000000000002,-2.9525024828183315
-0.1887000000000001,-2.973723152316307
-0.1897000000000002,-2.990699687914687
-0.1907000000000001,-3.002017378313608
-0.1917000000000001,-2.997773244414013
-0.19269999999999998,-3.004846800913338
-0.1937000000000001,-3.024652759111448
-0.19469999999999998,-3.0373851608102336
-0.1957000000000001,-3.043044006009694
-0.19669999999999999,-3.044458717309559
-0.1977000000000001,-3.0458734286094242
-0.1987,-3.0614352529079394
-0.1997000000000001,-3.08124121110605
-0.2007,-3.08407063370578
-0.2017000000000001,-3.082655922405915
-0.2027,-3.082655922405915
-0.2037000000000001,-3.0982177467044303
-0.2047,-3.1166089936026755
-0.2057000000000001,-3.119438416202406
-0.2067,-3.119438416202406
-0.2077000000000001,-3.1151942823028107
-0.2087,-3.1279266840015962
-0.2097000000000001,-3.1449032195999767
-0.2107,-3.1477326421997063
-0.2117000000000001,-3.1378296631006513
-0.2127,-3.1406590857003813
-0.2137000000000001,-3.1477326421997063
-0.2147,-3.166123889097952
-0.2157000000000001,-3.166123889097952
-0.2167,-3.150562064799437
-0.21770000000000012,-3.1519767760993016
-0.2187,-3.1548061986990317
-0.21970000000000012,-3.167538600397817
-0.2207,-3.161879755198357
-0.22170000000000012,-3.150562064799437
-0.2227,-3.1491473534995715
-0.22370000000000012,-3.1519767760993016
-0.2247,-3.156220909998897
-0.22570000000000012,-3.1548061986990317
-0.2267,-3.1378296631006513
-0.22770000000000012,-3.1307561066013263
-0.22870000000000001,-3.1335855292010564
-0.22970000000000013,-3.1335855292010564
-0.23070000000000002,-3.1307561066013263
-0.23170000000000013,-3.1123648597030806
-0.23270000000000002,-3.0996324580042955
-0.23370000000000013,-3.1038765919038904
-0.23470000000000002,-3.10104716930416
-0.23570000000000013,-3.0939736128048354
-0.23670000000000002,-3.074167654606725
-0.2376999999999999,-3.0614352529079394
-0.23870000000000002,-3.0614352529079394
-0.2396999999999999,-3.055776407708479
-0.24070000000000003,-3.044458717309559
-0.24169999999999991,-3.0260674704113137
-0.24270000000000003,-3.006261512213203
-0.24369999999999992,-3.003432089613473
-0.24470000000000003,-3.000602667013743
-0.24569999999999992,-2.9807967088156326
-0.24670000000000003,-2.9581613280177916
-0.24769999999999992,-2.942599503719276
-0.24870000000000003,-2.9369406585198163
-0.24969999999999992,-2.932696524620221
-0.25070000000000003,-2.9100611438223805
-0.2516999999999999,-2.88742576302454
-0.25270000000000004,-2.870449227426159
-0.2536999999999999,-2.863375670926834
-0.25470000000000004,-2.8577168257273744
-0.2556999999999999,-2.8379108675292635
-0.25670000000000004,-2.8124460641316933
-0.25769999999999993,-2.7926401059335824
-0.25870000000000004,-2.7799077042347973
-0.25969999999999993,-2.7742488590353367
-0.26070000000000004,-2.7586870347368215
-0.26169999999999993,-2.7275633861397908
-0.26270000000000004,-2.7105868505414104
-0.26369999999999993,-2.70209858274222
-0.26470000000000005,-2.69361031494303
-0.26569999999999994,-2.6808779132442444
-0.26670000000000005,-2.656827821146539
-0.26769999999999994,-2.6356071516485633
-0.26870000000000005,-2.6257041725495083
-0.26969999999999994,-2.618630616050183
-0.27070000000000005,-2.6044835030515325
-0.27169999999999994,-2.576189277054232
-0.27270000000000005,-2.557798030155986
-0.27369999999999994,-2.5563833188561214
-0.27470000000000006,-2.550724473656661
-0.27569999999999995,-2.5351626493581456
-0.27670000000000006,-2.5167714024599
-0.27769999999999995,-2.49979486686152
-0.27870000000000006,-2.5012095781613843
-0.27969999999999995,-2.49979486686152
-0.28070000000000006,-2.4870624651627344
-0.28169999999999995,-2.475744774763814
-0.28270000000000006,-2.460182950465299
-0.28369999999999995,-2.464427084364894
-0.28470000000000006,-2.4715006408642193
-0.28569999999999995,-2.461597661765164
-0.28670000000000007,-2.4502799713662435
-0.28769999999999996,-2.4446211261667834
-0.28870000000000007,-2.4531093939659736
-0.28969999999999996,-2.465841795664759
-0.29070000000000007,-2.467256506964624
-0.29169999999999996,-2.457353527865569
-0.29270000000000007,-2.465841795664759
-0.29369999999999996,-2.4743300634639493
-0.2947000000000001,-2.4955507329619246
-0.29569999999999996,-2.50262428946125
-0.2967000000000001,-2.49979486686152
-0.29769999999999996,-2.5167714024599
-0.2987000000000001,-2.5379920719578757
-0.29969999999999997,-2.5634568753554463
-0.3007000000000001,-2.579018699653962
-0.30169999999999997,-2.586092256153287
-0.3027000000000001,-2.6073129256512626
-0.30369999999999997,-2.6384365742482934
-0.3047000000000001,-2.6752190680447843
-0.30569999999999997,-2.700683871442355
-0.3067000000000001,-2.7148309844410052
-0.3077,-2.7473693443379013
-0.3087000000000001,-2.7898106833338523
-0.3097,-2.8322520223298033
-0.3107000000000001,-2.870449227426159
-0.3117,-2.90157287602319
-0.3127000000000001,-2.941184792419411
-0.3137,-2.997773244414013
-0.3147000000000001,-3.054361696408614
-0.3157,-3.1024618806040256
-0.3167000000000001,-3.1491473534995715
-0.3177,-3.202906382894443
-0.3187000000000001,-3.273641947887695
-0.3197,-3.3443775128809468
-0.3207000000000001,-3.4094542326747383
-0.3217,-3.4773603750682605
-0.3227000000000001,-3.548095940061512
-0.3237,-3.6372227519530096
-0.3247000000000001,-3.733423120343832
-0.3257,-3.815476375736004
-0.3267000000000001,-3.896114919828311
-0.3277,-3.9894858656194034
-0.3287000000000001,-4.095589213109282
-0.3297,-4.217254384897673
-0.3307000000000001,-4.323357732387552
-0.3317,-4.428046368577565
-0.3327000000000001,-4.555370385565419
-0.3337,-4.691182670352461
-0.3347000000000001,-4.843971490737885
-0.3357,-4.981198486824794
-0.3367000000000001,-5.118425482911703
-0.3377,-5.271214303297127
-0.3387000000000001,-5.431076680181876
-0.3397,-5.605086170065275
-0.3407000000000001,-5.7833397938482705
-0.3417,-5.953105149832074
-0.3427000000000001,-6.138432330114394
-0.3437,-6.337906623395364
-0.3447000000000001,-6.55011331837512
-0.3457,-6.75807587945528
-0.3467000000000001,-6.954720750136521
-0.3477,-7.181074558114926
-0.3487000000000001,-7.4173313451923875
-0.3497,-7.663491111368903
-0.3507000000000001,-7.912480300145149
-0.3517,-8.157225355021803
-0.3527000000000001,-8.4203616567967
-0.3537,-8.71037747326903
-0.3547000000000001,-9.011710980140284
-0.3557,-9.321532754810727
-0.35670000000000013,-9.627110395581575
-0.3577,-9.951079283250667
-0.35870000000000013,-10.304757108216927
-0.3597,-10.664093778382647
-0.36070000000000013,-11.034748138947286
-0.3617,-11.42379374641017
-0.3626999999999999,-11.826986466871707
-0.3637,-12.257058702030678
-0.3646999999999999,-12.716839874486816
-0.3657,-13.182279892142413
-0.3666999999999999,-13.680258269694905
-0.3677,-14.175407224647667
-0.3686999999999999,-14.69885040559773
-0.36970000000000003,-15.250587812545096
-0.3706999999999999,-15.78817810649381
-0.37170000000000003,-16.339915513441174
-0.3726999999999999,-16.90580003338719
-0.37370000000000003,-17.528273005327804
-0.3746999999999999,-18.17904020326572
-0.37570000000000003,-18.829807401203638
-0.3766999999999999,-19.508868825138855
-0.37770000000000004,-20.21622447507137
-0.3786999999999999,-20.93772723800254
-0.37970000000000004,-21.67337711393236
-0.3806999999999999,-22.40902698986218
-0.38170000000000004,-23.15882397879065
-0.38269999999999993,-23.93691519371642
-0.38370000000000004,-24.757447747638142
-0.38469999999999993,-25.60627452755716
-0.38570000000000004,-26.440954194477534
-0.38669999999999993,-26.440954194477534
-0.38570000000000004,-25.846775448534224
-0.38469999999999993,-25.309185154585506
-0.38370000000000004,-24.757447747638142
-0.38269999999999993,-24.20571034069078
-0.38170000000000004,-23.653972933743415
-0.3806999999999999,-23.102235526796047
-0.37970000000000004,-22.564645232847337
-0.3786999999999999,-22.027054938898623
-0.37770000000000004,-21.503611757948562
-0.3766999999999999,-20.95187435100119
-0.37570000000000003,-20.44257828304978
-0.3746999999999999,-19.919135102099716
-0.37370000000000003,-19.409839034148305
-0.3726999999999999,-18.91469007919554
-0.37170000000000003,-18.40539401124413
-0.3706999999999999,-17.896097943292716
-0.36970000000000003,-17.386801875341302
-0.3686999999999999,-16.891652920388537
-0.3677,-16.424798191433077
-0.3666999999999999,-15.957943462477614
-0.3657,-15.505235846520803
-0.3646999999999999,-15.080822456561293
-0.3637,-14.65640906660178
-0.3626999999999999,-14.24614278964092
-0.3617,-13.828802956180734
-0.36070000000000013,-13.422780813119468
-0.3597,-13.030905783056852
-0.35870000000000013,-12.648933732093294
-0.3577,-12.269791103729462
-0.35670000000000013,-11.893477897965363
-0.3557,-11.534141227799646
-0.3547000000000001,-11.19036638193244
-0.3537,-10.859323937764021
-0.3527000000000001,-10.526866782295738
-0.3517,-10.19865376072705
-0.3507000000000001,-9.873270161758091
-0.3497,-9.55496011928846
-0.3487000000000001,-9.245138344618015
-0.3477,-8.939560703847167
-0.3467000000000001,-8.650959598674698
-0.3457,-8.375090895201017
-0.3447000000000001,-8.110539882126256
-0.3437,-7.858721270750279
-0.3427000000000001,-7.596999680275248
-0.3417,-7.336692801100081
-0.3407000000000001,-7.086288901023969
-0.3397,-6.845787980046913
-0.3387000000000001,-6.632166573767292
-0.3377,-6.407227477088751
-0.3367000000000001,-6.180873669110345
-0.3357,-5.975740530629915
-0.3347000000000001,-5.773436814749215
-0.3337,-5.57537723276811
-0.3327000000000001,-5.377317650787004
-0.3317,-5.175013934906304
-0.3307000000000001,-4.986857332024254
-0.3297,-4.8128478421408545
-0.3287000000000001,-4.650156042656376
-0.3277,-4.483220109272302
-0.3267000000000001,-4.309210619388901
-0.3257,-4.139445263405097
-0.3247000000000001,-3.986656443019674
-0.3237,-3.835282333934114
-0.3227000000000001,-3.6923964926477457
-0.3217,-3.543851806161917
-0.3207000000000001,-3.4066248100750083
-0.3197,-3.2892037721862106
-0.3187000000000001,-3.171782734297412
-0.3177,-3.0487028512091543
-0.3167000000000001,-2.9213788342213007
-0.3157,-2.8011283737327726
-0.3147000000000001,-2.6921956036431647
-0.3137,-2.587506967453152
-0.3127000000000001,-2.4700859295643536
-0.3117,-2.3653972933743415
-0.3107000000000001,-2.263538079784059
-0.3097,-2.1630935774936413
-0.3087000000000001,-2.076796188201874
-0.3077,-1.9834252424107812
-0.3067000000000001,-1.8872248740199586
-0.30569999999999997,-1.7910245056291363
-0.3047000000000001,-1.7033124050375041
-0.30369999999999997,-1.6297474174445223
-0.3027000000000001,-1.546279450752485
-0.30169999999999997,-1.4543232162612578
-0.3007000000000001,-1.3831632378780463
-0.29969999999999997,-1.3138423841846596
-0.2987000000000001,-1.2607907104397207
-0.29769999999999996,-1.1944407504760506
-0.2967000000000001,-1.118187811413325
-0.29569999999999996,-1.0574966966491148
-0.2947000000000001,-1.0010497157844997
-0.29369999999999996,-0.9402171298903033
-0.29270000000000007,-0.8672180268172675
-0.29169999999999996,-0.7879941940248254
-0.29070000000000007,-0.7323960399401295
-0.28969999999999996,-0.6927841235439085
-0.28870000000000007,-0.6588310523471476
-0.28769999999999996,-0.6179458957810481
-0.28670000000000007,-0.5648942220361092
-0.28569999999999995,-0.5132572595910353
-0.28470000000000006,-0.47421122771476026
-0.28369999999999995,-0.4334675422786472
-0.28270000000000006,-0.3835282333934114
-0.28169999999999995,-0.32750566591875596
-0.28070000000000006,-0.27530281895373615
-0.27969999999999995,-0.23470060464760956
-0.27870000000000006,-0.2081040322101469
-0.27769999999999995,-0.16919947146385841
-0.27670000000000006,-0.1276069592478263
-0.27569999999999995,-0.0870188920546984
-0.27470000000000006,-0.05100034236013457
-0.27369999999999994,-0.01768389124831296
-0.27270000000000005,0.025507244736566608
-0.27169999999999994,0.06264341635802383
-0.27070000000000005,0.09669551734577525
-0.26969999999999994,0.12036363739251733
