Potential V vs RHE, Current mA cm-2
0.013299999999999867,-0.2202705493889862
0.012299999999999978,-1.6594563547416883
0.011299999999999866,-2.4446211261667834
0.010299999999999976,-2.968064307116847
0.009299999999999864,-3.317497998183511
0.008299999999999974,-3.579219588658543
0.007299999999999862,-3.840941179133574
0.006299999999999972,-3.971094618721158
0.00529999999999986,-4.102662769608606
0.0042999999999999705,-4.23281620919619
0.0032999999999998586,-4.276672259492005
0.0022999999999999687,-4.406825699079589
0.0012999999999998568,-4.538393849967037
0.00029999999999996696,-4.582249900262854
-0.000700000000000145,-4.668547289554621
-0.0017000000000000348,-4.756259390146253
-0.0027000000000001467,-4.887827541033701
-0.0037000000000000366,-5.017980980621284
-0.0047000000000001485,-5.105693081212917
-0.005700000000000038,-5.235846520800501
-0.00670000000000015,-5.323558621392133
-0.00770000000000004,-5.367414671687949
-0.008700000000000152,-5.453712060979717
-0.009700000000000042,-5.5414241615713475
-0.010700000000000154,-5.629136262162981
-0.011700000000000044,-5.715433651454749
-0.012700000000000156,-5.759289701750564
-0.013700000000000045,-5.847001802342197
-0.014700000000000157,-5.9347139029338285
-0.015700000000000047,-6.021011292225596
-0.01670000000000016,-6.152579443113044
-0.01770000000000005,-6.238876832404812
-0.01870000000000016,-6.326588932996443
-0.01970000000000005,-6.458157083883892
-0.020700000000000163,-6.54445447317566
-0.021700000000000053,-6.632166573767292
-0.022700000000000164,-6.719878674358924
-0.023700000000000054,-6.806176063650692
-0.024700000000000166,-6.893888164242324
-0.025700000000000056,-6.981600264833956
-0.026700000000000168,-7.024041603829907
-0.027700000000000058,-7.155609754717355
-0.02870000000000017,-7.243321855308987
-0.02970000000000006,-7.4173313451923875
-0.03070000000000017,-7.50504344578402
-0.03170000000000006,-7.635196885371603
-0.03270000000000017,-7.7653503249591855
-0.03370000000000006,-7.896918475846635
-0.034700000000000175,-7.984630576438266
-0.035700000000000065,-8.070927965730034
-0.03670000000000018,-8.11478401602585
-0.03770000000000007,-8.246352166913299
-0.03870000000000018,-8.332649556205066
-0.03970000000000007,-8.4203616567967
-0.04070000000000018,-8.55051509638428
-0.04170000000000007,-8.638227196975913
-0.04270000000000018,-8.769795347863363
-0.04370000000000007,-8.899948787450944
-0.044700000000000184,-9.031516938338395
-0.045700000000000074,-9.161670377925978
-0.046700000000000186,-9.293238528813426
-0.047700000000000076,-9.379535918105192
-0.04870000000000019,-9.511104068992642
-0.04970000000000008,-9.59740145828441
-0.05070000000000019,-9.685113558876042
-0.05170000000000008,-9.81668170976349
-0.05270000000000019,-9.85912304875944
-0.05370000000000008,-9.99069119964689
-0.05470000000000019,-10.078403300238522
-0.05570000000000008,-10.25241279012192
-0.056700000000000195,-10.340124890713554
-0.057700000000000085,-10.470278330301136
-0.058700000000000196,-10.601846481188586
-0.059700000000000086,-10.731999920776168
-0.0607000000000002,-10.863568071663616
-0.06170000000000009,-10.993721511251199
-0.0627000000000002,-11.081433611842833
-0.06370000000000009,-11.123874950838783
-0.0647000000000002,-11.255443101726232
-0.06570000000000009,-11.299299152022046
-0.0667000000000002,-11.385596541313816
-0.0677000000000001,-11.56102074249708
-0.0687000000000002,-11.647318131788847
-0.0697000000000001,-11.778886282676295
-0.07070000000000021,-11.86659838326793
-0.0717000000000001,-11.996751822855511
-0.07270000000000021,-12.170761312738911
-0.0737000000000001,-12.214617363034726
-0.07470000000000021,-12.302329463626359
-0.0757000000000001,-12.390041564217992
-0.07670000000000021,-12.476338953509758
-0.0777000000000001,-12.520195003805576
-0.07870000000000021,-12.651763154693022
-0.0797000000000001,-12.694204493688973
-0.08070000000000022,-12.781916594280606
-0.0817000000000001,-12.869628694872238
-0.08270000000000022,-12.955926084164007
-0.08370000000000011,-13.087494235051453
-0.08470000000000022,-13.175206335643086
-0.08570000000000011,-13.261503724934855
-0.08670000000000022,-13.349215825526485
-0.08770000000000011,-13.47936926511407
-0.08870000000000022,-13.523225315409885
-0.08970000000000011,-13.610937416001518
-0.09070000000000022,-13.654793466297335
-0.09170000000000011,-13.698649516593148
-0.09270000000000023,-13.741090855589102
-0.09370000000000012,-13.828802956180734
-0.09470000000000023,-13.916515056772363
-0.09570000000000012,-14.002812446064135
-0.09670000000000023,-14.090524546655764
-0.09770000000000012,-14.175407224647667
-0.09870000000000023,-14.26028990263957
-0.09970000000000012,-14.401761032626075
-0.10070000000000023,-14.444202371622024
-0.10170000000000012,-14.529085049613924
-0.10270000000000024,-14.57152638860988
-0.10370000000000013,-14.61396772760583
-0.10470000000000024,-14.65640906660178
-0.10570000000000013,-14.69885040559773
-0.10670000000000024,-14.741291744593681
-0.10770000000000013,-14.826174422585586
-0.10870000000000024,-14.925204213576137
-0.10970000000000013,-15.01008689156804
-0.11070000000000024,-15.094969569559943
-0.11170000000000013,-15.137410908555893
-0.11270000000000002,-15.264734925543747
-0.11370000000000013,-15.349617603535648
-0.11470000000000002,-15.3920589425316
-0.11570000000000014,-15.448647394526201
-0.11670000000000003,-15.491088733522153
-0.11770000000000014,-15.575971411514052
-0.11870000000000003,-15.618412750510005
-0.11970000000000014,-15.618412750510005
-0.12070000000000003,-15.70329542850191
-0.12170000000000014,-15.74573676749786
-0.12270000000000003,-15.78817810649381
-0.12370000000000014,-15.91550212348166
-0.12470000000000003,-16.014531914472215
-0.12570000000000014,-16.099414592464115
-0.12670000000000003,-16.184297270456018
-0.12770000000000015,-16.22673860945197
-0.12870000000000004,-16.311621287443874
-0.12970000000000015,-16.354062626439823
-0.13070000000000004,-16.396503965435777
-0.13170000000000015,-16.495533756426326
-0.13270000000000004,-16.53797509542228
-0.13370000000000015,-16.580416434418233
-0.13470000000000004,-16.665299112410132
-0.13570000000000015,-16.750181790402035
-0.13670000000000004,-16.835064468393938
-0.13770000000000016,-16.919947146385837
-0.13870000000000005,-17.018976937376394
-0.13970000000000016,-17.103859615368293
-0.14070000000000005,-17.146300954364243
-0.14170000000000016,-17.231183632356142
-0.14270000000000005,-17.316066310348052
-0.14370000000000016,-17.316066310348052
-0.14470000000000005,-17.40094898833995
-0.14570000000000016,-17.4433903273359
-0.14670000000000005,-17.542420118326454
-0.14770000000000016,-17.584861457322408
-0.14870000000000005,-17.669744135314307
-0.14970000000000017,-17.75462681330621
-0.15070000000000006,-17.881950830294063
-0.15170000000000017,-17.966833508285966
-0.15270000000000006,-18.10830463827247
-0.15370000000000017,-18.19318731626437
-0.15470000000000006,-18.27806999425627
-0.15570000000000017,-18.362952672248177
-0.15670000000000006,-18.40539401124413
-0.15770000000000017,-18.49027668923603
-0.15870000000000006,-18.53271802823198
-0.15970000000000018,-18.631747819222536
-0.16070000000000007,-18.716630497214435
-0.16170000000000018,-18.80151317520634
-0.16270000000000007,-18.88639585319824
-0.16370000000000018,-19.01371987018609
-0.16470000000000007,-19.155191000172596
-0.16570000000000018,-19.2400736781645
-0.16670000000000007,-19.367397695152352
-0.16770000000000018,-19.452280373144255
-0.16870000000000007,-19.537163051136158
-0.16970000000000018,-19.636192842126707
-0.17070000000000007,-19.678634181122664
-0.17170000000000019,-19.805958198110513
-0.17270000000000008,-19.848399537106463
-0.1737000000000002,-19.890840876102416
-0.17470000000000008,-19.97572355409432
-0.1757000000000002,-20.10304757108217
-0.17670000000000008,-20.202077362072725
-0.1777000000000002,-20.329401379060574
-0.17870000000000008,-20.414284057052477
-0.1797000000000002,-20.541608074040333
-0.18070000000000008,-20.683079204026836
-0.1817000000000002,-20.76796188201874
-0.18270000000000008,-20.85284456001064
-0.1837000000000002,-20.93772723800254
-0.1847000000000001,-20.980168576998494
-0.1857000000000002,-21.065051254990397
-0.1867000000000001,-21.107492593986347
-0.1877000000000002,-21.248963723972853
-0.1887000000000001,-21.333846401964752
-0.1897000000000002,-21.418729079956652
-0.1907000000000001,-21.54605309694451
-0.1917000000000001,-21.63093577493641
-0.19269999999999998,-21.772406904922917
-0.1937000000000001,-21.857289582914817
-0.19469999999999998,-21.98461359990267
-0.1957000000000001,-22.069496277894572
-0.19669999999999999,-22.111937616890522
-0.1977000000000001,-22.196820294882425
-0.1987,-22.295850085872978
-0.1997000000000001,-22.33829142486893
-0.2007,-22.42317410286083
-0.2017000000000001,-22.508056780852733
-0.2027,-22.592939458844636
-0.2037000000000001,-22.67782213683654
-0.2047,-22.819293266823045
-0.2057000000000001,-22.904175944814945
-0.2067,-22.989058622806844
-0.2077000000000001,-23.073941300798747
-0.2087,-23.15882397879065
-0.2097000000000001,-23.24370665678255
-0.2107,-23.300295108777156
-0.2117000000000001,-23.342736447773106
-0.2127,-23.385177786769056
-0.2137000000000001,-23.47006046476096
-0.2147,-23.51250180375691
-0.2157000000000001,-23.639825820744765
-0.2167,-23.724708498736668
-0.21770000000000012,-23.823738289727217
-0.2187,-23.86617962872317
-0.21970000000000012,-23.993503645711023
-0.2207,-24.035944984706973
-0.22170000000000012,-24.120827662698876
-0.2227,-24.16326900169483
-0.22370000000000012,-24.16326900169483
-0.2247,-24.20571034069078
-0.22570000000000012,-24.24815167968673
-0.2267,-24.290593018682678
-0.22770000000000012,-24.34718147067728
-0.22870000000000001,-24.432064148669184
-0.22970000000000013,-24.474505487665134
-0.23070000000000002,-24.559388165657033
-0.23170000000000013,-24.601829504652986
-0.23270000000000002,-24.686712182644893
-0.23370000000000013,-24.729153521640843
-0.23470000000000002,-24.771594860636792
-0.23570000000000013,-24.814036199632742
-0.23670000000000002,-24.814036199632742
-0.2376999999999999,-24.814036199632742
-0.23870000000000002,-24.870624651627345
-0.2396999999999999,-24.870624651627345
-0.24070000000000003,-24.9130659906233
-0.24169999999999991,-24.9130659906233
-0.24270000000000003,-24.95550732961925
-0.24369999999999992,-24.997948668615198
-0.24470000000000003,-25.04039000761115
-0.24569999999999992,-25.0828313466071
-0.24670000000000003,-25.12527268560305
-0.24769999999999992,-25.12527268560305
-0.24870000000000003,-25.167714024599
-0.24969999999999992,-25.12527268560305
-0.25070000000000003,-25.167714024599
-0.2516999999999999,-25.167714024599
-0.25270000000000004,-25.12527268560305
-0.2536999999999999,-25.12527268560305
-0.25470000000000004,-25.12527268560305
-0.2556999999999999,-25.12527268560305
-0.25670000000000004,-25.167714024599
-0.25769999999999993,-25.167714024599
-0.25870000000000004,-25.210155363594954
-0.25969999999999993,-25.210155363594954
-0.26070000000000004,-25.210155363594954
-0.26169999999999993,-25.210155363594954
-0.26270000000000004,-25.210155363594954
-0.26369999999999993,-25.167714024599
-0.26470000000000005,-25.12527268560305
-0.26569999999999994,-25.0828313466071
-0.26670000000000005,-25.0828313466071
-0.26769999999999994,-25.04039000761115
-0.26870000000000005,-24.997948668615198
-0.26969999999999994,-25.04039000761115
-0.27070000000000005,-24.997948668615198
-0.27169999999999994,-24.997948668615198
-0.27270000000000005,-24.997948668615198
-0.27369999999999994,-24.95550732961925
-0.27470000000000006,-24.9130659906233
-0.27569999999999995,-24.9130659906233
-0.27670000000000006,-24.814036199632742
-0.27769999999999995,-24.771594860636792
-0.27870000000000006,-24.686712182644893
-0.27969999999999995,-24.601829504652986
-0.28070000000000006,-24.559388165657033
-0.28169999999999995,-24.474505487665134
-0.28270000000000006,-24.432064148669184
-0.28369999999999995,-24.432064148669184
-0.28470000000000006,-24.34718147067728
-0.28569999999999995,-24.34718147067728
-0.28670000000000007,-24.290593018682678
-0.28769999999999996,-24.20571034069078
-0.28870000000000007,-24.16326900169483
-0.28969999999999996,-24.078386323702922
-0.29070000000000007,-23.993503645711023
-0.29169999999999996,-23.908620967719123
-0.29270000000000007,-23.767149837732617
-0.29369999999999996,-23.724708498736668
-0.2947000000000001,-23.639825820744765
-0.29569999999999996,-23.55494314275286
-0.2967000000000001,-23.51250180375691
-0.29769999999999996,-23.427619125765005
-0.2987000000000001,-23.342736447773106
-0.29969999999999997,-23.24370665678255
-0.3007000000000001,-23.15882397879065
-0.30169999999999997,-23.073941300798747
-0.3027000000000001,-22.946617283810895
-0.30369999999999997,-22.819293266823045
-0.3047000000000001,-22.72026347583249
-0.30569999999999997,-22.592939458844636
-0.3067000000000001,-22.46561544185678
-0.3077,-22.33829142486893
-0.3087000000000001,-22.253408746877028
-0.3097,-22.111937616890522
-0.3107000000000001,-22.027054938898623
-0.3117,-21.899730921910766
-0.3127000000000001,-21.814848243918867
-0.3137,-21.63093577493641
-0.3147000000000001,-21.503611757948562
-0.3157,-21.376287740960702
-0.3167000000000001,-21.248963723972853
-0.3177,-21.065051254990397
-0.3187000000000001,-20.93772723800254
-0.3197,-20.76796188201874
-0.3207000000000001,-20.584049413036283
-0.3217,-20.456725396048434
-0.3227000000000001,-20.329401379060574
-0.3237,-20.202077362072725
-0.3247000000000001,-20.06060623208622
-0.3257,-19.93328221509837
-0.3267000000000001,-19.805958198110513
-0.3277,-19.636192842126707
-0.3287000000000001,-19.49472171214021
-0.3297,-19.367397695152352
-0.3307000000000001,-19.155191000172596
-0.3317,-19.01371987018609
-0.3327000000000001,-18.843954514202288
-0.3337,-18.716630497214435
-0.3347000000000001,-18.53271802823198
-0.3357,-18.40539401124413
-0.3367000000000001,-18.320511333252224
-0.3377,-18.19318731626437
-0.3387000000000001,-18.009274847281915
-0.3397,-17.924392169290012
-0.3407000000000001,-17.797068152302163
-0.3417,-17.669744135314307
-0.3427000000000001,-17.542420118326454
-0.3437,-17.358507649344002
-0.3447000000000001,-17.231183632356142
-0.3457,-17.146300954364243
-0.3467000000000001,-16.962388485381787
-0.3477,-16.919947146385837
-0.3487000000000001,-16.792623129397985
-0.3497,-16.750181790402035
-0.3507000000000001,-16.665299112410132
-0.3517,-16.580416434418233
-0.3527000000000001,-16.53797509542228
-0.3537,-16.495533756426326
-0.3547000000000001,-16.396503965435777
-0.3557,-16.311621287443874
-0.35670000000000013,-16.269179948447924
-0.3577,-16.184297270456018
-0.35870000000000013,-16.099414592464115
-0.3597,-16.056973253468165
-0.36070000000000013,-16.014531914472215
-0.3617,-15.972090575476265
-0.3626999999999999,-15.972090575476265
-0.3637,-16.014531914472215
-0.3646999999999999,-16.014531914472215
-0.3657,-15.972090575476265
-0.3666999999999999,-16.014531914472215
-0.3677,-16.014531914472215
-0.3686999999999999,-16.014531914472215
-0.36970000000000003,-16.014531914472215
-0.3706999999999999,-16.014531914472215
-0.37170000000000003,-16.014531914472215
-0.3726999999999999,-16.014531914472215
-0.37370000000000003,-16.014531914472215
-0.3746999999999999,-16.099414592464115
-0.37570000000000003,-16.184297270456018
-0.3766999999999999,-16.22673860945197
-0.37770000000000004,-16.311621287443874
-0.3786999999999999,-16.396503965435777
-0.37970000000000004,-16.495533756426326
-0.3806999999999999,-16.580416434418233
-0.38170000000000004,-16.70774045140608
-0.38269999999999993,-16.750181790402035
-0.38370000000000004,-16.835064468393938
-0.38469999999999993,-16.919947146385837
-0.38570000000000004,-17.018976937376394
-0.38669999999999993,-17.146300954364243
-0.38770000000000004,-17.231183632356142
-0.38869999999999993,-17.40094898833995
-0.38970000000000005,-17.542420118326454
-0.39069999999999994,-17.71218547431026
-0.39170000000000005,-17.881950830294063
-0.39269999999999994,-18.10830463827247
-0.39370000000000005,-18.27806999425627
-0.39469999999999994,-18.44783535024008
-0.39570000000000005,-18.631747819222536
-0.39669999999999994,-18.80151317520634
-0.39770000000000005,-18.97127853119014
-0.39869999999999994,-19.155191000172596
-0.39970000000000006,-19.367397695152352
-0.40069999999999995,-19.636192842126707
-0.40170000000000006,-19.848399537106463
-0.40269999999999995,-20.10304757108217
-0.40370000000000006,-20.371842718056527
-0.40469999999999995,-20.683079204026836
-0.40570000000000006,-20.980168576998494
-0.40669999999999995,-21.291405062968803
-0.40770000000000006,-21.58849443594046
-0.40869999999999995,-21.899730921910766
-0.40970000000000006,-22.196820294882425
-0.41069999999999995,-22.508056780852733
-0.41170000000000007,-22.904175944814945
-0.41269999999999996,-23.24370665678255
-0.41370000000000007,-23.639825820744765
-0.41469999999999996,-23.993503645711023
-0.41570000000000007,-24.432064148669184
-0.41669999999999996,-24.814036199632742
-0.41770000000000007,-25.252596702590903
-0.41869999999999996,-25.691157205549064
-0.4197000000000001,-26.17215904750318
-0.42069999999999996,-26.568278211465387
-0.4217000000000001,-27.049280053419505
-0.42269999999999996,-27.487840556377662
-0.4237000000000001,-27.912253946337174
-0.42469999999999997,-28.393255788291288
-0.4257000000000001,-28.8742576302454
-0.42669999999999997,-29.31281813320356
-0.4277000000000001,-29.836261314153624
-0.42869999999999997,-30.359704495103685
-0.4297000000000001,-30.88314767605375
-0.43069999999999997,-31.449032195999767
-0.4317000000000001,-32.01491671594578
-0.4327,-32.62324257488775
-0.4337000000000001,-33.18912709483376
-0.4347,-33.755011614779775
-0.4357000000000001,-34.377484586720385
-0.4367,-34.98581044566235
-0.4377000000000001,-35.594136304604326
-0.4387,-36.20246216354629
-0.4397000000000001,-36.81078802248826
-0.4407,-37.51814367242077
-0.4417000000000001,-38.16891087035869
-0.4427,-38.86211940729255
-0.4437000000000001,-39.56947505722508
-0.4447,-40.30512493315489
-0.4457000000000001,-41.083216148080666
-0.4467,-41.87545447600508
-0.4477000000000001,-42.6111043519349
-0.4487,-43.40334267985933
-0.4497000000000001,-44.223875233781044
-0.4507,-45.01611356170547
-0.4517000000000001,-45.85079322862584
-0.4527,-46.67132578254756
-0.4537000000000001,-47.54844678846388
-0.4547,-48.45386202037751
-0.4557000000000001,-49.373424365289786
-0.4567,-50.335428049198
-0.4577000000000001,-51.29743173310623
-0.4587,-52.25943541701445
-0.4597000000000001,-53.30632177891458
-0.4607,-54.35320814081471
-0.4617000000000001,-55.400094502714836
-0.4627,-56.44698086461496
-0.4637000000000001,-57.53630856551105
-0.4647,-58.62563626640712
-0.4657000000000001,-59.757405306299155
-0.4667,-60.889174346191176
-0.4677000000000001,-62.02094338608321
-0.4687,-63.20930087796983
-0.4697000000000001,-64.42595259585376
-0.4707,-65.68504565273366
-0.4717000000000001,-67.00072716160814
-0.4727,-68.30226155748396
-0.4737000000000001,-69.61794306635846
-0.4747,-70.96191880123024
-0.4757000000000001,-72.32004164910067
-0.4767,-73.72060583596706
-0.4777000000000001,-75.06458157083884
-0.4787,-76.50758709670117
-0.4797000000000001,-77.90815128356756
-0.4807,-79.42189237442317
-0.48170000000000013,-80.86489790028548
-0.4827,-82.39278610413973
-0.48370000000000013,-83.96311564698992
-0.4847,-85.53344518984011
-0.48570000000000013,-87.14621607168625
-0.4867,-87.37256987966467
-0.48570000000000013,-85.92956435380233
-0.4847,-84.8826779919022
-0.48370000000000013,-83.92067430799398
-0.4827,-82.95867062408576
-0.48170000000000013,-81.95422560118158
-0.4807,-80.9497805782774
-0.4797000000000001,-79.90289421637728
-0.4787,-78.85600785447714
-0.4777000000000001,-77.86570994457162
-0.4767,-76.81882358267148
-0.4757000000000001,-75.77193722077136
-0.4747,-74.76749219786718
-0.4737000000000001,-73.72060583596706
-0.4727,-72.67371947406694
-0.4717000000000001,-71.58439177317086
-0.4707,-70.48091695927613
-0.4697000000000001,-69.43403059737601
-0.4687,-68.34470289647993
-0.4677000000000001,-67.25537519558385
-0.4667,-66.16604749468777
-0.4657000000000001,-65.0767197937917
