June 25, 2026   08:26:22
Cyclic Voltammetry
File: c:/users/guazh/data/20260623_doe_duplica2/2026-06-24-exp4\exp4-2026-06-25t08_03_08-h2koh\exp4_cv_sr_400mvs_efin_-1800mv.bin
Data Source:  Experiment
Instrument Model:  CHI760E
Header: CV ran at 400 mVs
Note: 

Init E (V) = -1
High E (V) = -1
Low E (V) = -1.8
Final E (V) = -1
Init P/N = N
Scan Rate (V/s) = 0.4
Segment = 3
Sample Interval (V) = 0.001
Quiet Time (sec) = 2
Sensitivity (A/V) = 0.01
Comp R (ohm) = 1.8

Results:

Channel 1:
Segment 1:

Segment 2:

Segment 3:

Potential/V, Current/A

-1.000, 6.322e-6
-1.001, 1.249e-5
-1.002, 1.249e-5
-1.003, 1.557e-5
-1.004, 1.557e-5
-1.005, 1.557e-5
-1.006, 1.557e-5
-1.007, 1.557e-5
-1.008, 1.557e-5
-1.009, 1.557e-5
-1.010, 1.557e-5
-1.011, 1.557e-5
-1.012, 1.865e-5
-1.013, 1.865e-5
-1.014, 1.865e-5
-1.015, 1.865e-5
-1.016, 1.865e-5
-1.017, 1.865e-5
-1.018, 1.865e-5
-1.019, 1.865e-5
-1.020, 1.865e-5
-1.021, 1.865e-5
-1.022, 1.865e-5
-1.023, 1.865e-5
-1.024, 1.865e-5
-1.025, 1.865e-5
-1.026, 1.865e-5
-1.027, 1.865e-5
-1.028, 1.865e-5
-1.029, 1.865e-5
-1.030, 1.865e-5
-1.031, 1.865e-5
-1.032, 1.865e-5
-1.033, 1.865e-5
-1.034, 1.865e-5
-1.035, 1.865e-5
-1.036, 1.865e-5
-1.037, 1.865e-5
-1.038, 1.865e-5
-1.039, 1.865e-5
-1.040, 1.865e-5
-1.041, 1.865e-5
-1.042, 1.865e-5
-1.043, 1.865e-5
-1.044, 2.174e-5
-1.045, 1.865e-5
-1.046, 1.865e-5
-1.047, 2.174e-5
-1.048, 2.174e-5
-1.049, 2.174e-5
-1.050, 2.174e-5
-1.051, 2.174e-5
-1.052, 2.174e-5
-1.053, 2.174e-5
-1.054, 2.174e-5
-1.055, 2.174e-5
-1.056, 2.174e-5
-1.057, 2.174e-5
-1.058, 2.174e-5
-1.059, 2.174e-5
-1.060, 2.174e-5
-1.061, 2.174e-5
-1.062, 2.174e-5
-1.063, 2.174e-5
-1.064, 2.174e-5
-1.065, 2.174e-5
-1.066, 2.174e-5
-1.067, 2.174e-5
-1.068, 2.174e-5
-1.069, 2.174e-5
-1.070, 2.174e-5
-1.071, 2.174e-5
-1.072, 2.174e-5
-1.073, 2.174e-5
-1.074, 2.174e-5
-1.075, 2.174e-5
-1.076, 2.174e-5
-1.077, 2.174e-5
-1.078, 2.174e-5
-1.079, 2.174e-5
-1.080, 2.174e-5
-1.081, 2.174e-5
-1.082, 2.174e-5
-1.083, 2.174e-5
-1.084, 2.174e-5
-1.085, 2.174e-5
-1.086, 2.174e-5
-1.087, 2.482e-5
-1.088, 2.174e-5
-1.089, 2.174e-5
-1.090, 2.174e-5
-1.091, 2.482e-5
-1.092, 2.482e-5
-1.093, 2.482e-5
-1.094, 2.482e-5
-1.095, 2.482e-5
-1.096, 2.482e-5
-1.097, 2.482e-5
-1.098, 2.482e-5
-1.099, 2.482e-5
-1.100, 2.482e-5
-1.101, 2.482e-5
-1.102, 2.482e-5
-1.103, 2.482e-5
-1.104, 2.482e-5
-1.105, 2.482e-5
-1.106, 2.482e-5
-1.107, 2.482e-5
-1.108, 2.482e-5
-1.109, 2.482e-5
-1.110, 2.482e-5
-1.111, 2.482e-5
-1.112, 2.482e-5
-1.113, 2.482e-5
-1.114, 2.482e-5
-1.115, 2.482e-5
-1.116, 2.482e-5
-1.117, 2.482e-5
-1.118, 2.482e-5
-1.119, 2.482e-5
-1.120, 2.482e-5
-1.121, 2.482e-5
-1.122, 2.482e-5
-1.123, 2.482e-5
-1.124, 2.482e-5
-1.125, 2.482e-5
-1.126, 2.482e-5
-1.127, 2.482e-5
-1.128, 2.482e-5
-1.129, 2.790e-5
-1.130, 2.482e-5
-1.131, 2.482e-5
-1.132, 2.790e-5
-1.133, 2.790e-5
-1.134, 2.790e-5
-1.135, 2.482e-5
-1.136, 2.790e-5
-1.137, 2.790e-5
-1.138, 2.790e-5
-1.139, 2.790e-5
-1.140, 2.790e-5
-1.141, 2.790e-5
-1.142, 2.790e-5
-1.143, 2.790e-5
-1.144, 2.790e-5
-1.145, 2.790e-5
-1.146, 2.790e-5
-1.147, 2.790e-5
-1.148, 2.790e-5
-1.149, 2.790e-5
-1.150, 2.790e-5
-1.151, 2.790e-5
-1.152, 2.790e-5
-1.153, 2.790e-5
-1.154, 2.790e-5
-1.155, 2.790e-5
-1.156, 2.790e-5
-1.157, 2.790e-5
-1.158, 2.790e-5
-1.159, 2.790e-5
-1.160, 2.790e-5
-1.161, 2.790e-5
-1.162, 2.790e-5
-1.163, 2.790e-5
-1.164, 2.790e-5
-1.165, 2.790e-5
-1.166, 2.790e-5
-1.167, 2.790e-5
-1.168, 2.790e-5
-1.169, 3.099e-5
-1.170, 2.790e-5
-1.171, 3.099e-5
-1.172, 2.790e-5
-1.173, 3.099e-5
-1.174, 3.099e-5
-1.175, 3.099e-5
-1.176, 3.099e-5
-1.177, 3.099e-5
-1.178, 3.099e-5
-1.179, 3.099e-5
-1.180, 3.099e-5
-1.181, 3.099e-5
-1.182, 3.099e-5
-1.183, 3.099e-5
-1.184, 3.099e-5
-1.185, 3.099e-5
-1.186, 3.099e-5
-1.187, 3.099e-5
-1.188, 3.099e-5
-1.189, 3.099e-5
-1.190, 3.099e-5
-1.191, 3.099e-5
-1.192, 3.099e-5
-1.193, 3.099e-5
-1.194, 3.099e-5
-1.195, 3.099e-5
-1.196, 3.407e-5
-1.197, 3.099e-5
-1.198, 3.407e-5
-1.199, 3.099e-5
-1.200, 3.099e-5
-1.201, 3.099e-5
-1.202, 3.099e-5
-1.203, 3.099e-5
-1.204, 3.407e-5
-1.205, 3.099e-5
-1.206, 3.407e-5
-1.207, 3.407e-5
-1.208, 3.407e-5
-1.209, 3.407e-5
-1.210, 3.407e-5
-1.211, 3.407e-5
-1.212, 3.407e-5
-1.213, 3.407e-5
-1.214, 3.407e-5
-1.215, 3.407e-5
-1.216, 3.407e-5
-1.217, 3.407e-5
-1.218, 3.407e-5
-1.219, 3.715e-5
-1.220, 3.407e-5
-1.221, 3.407e-5
-1.222, 3.407e-5
-1.223, 3.715e-5
-1.224, 3.715e-5
-1.225, 3.715e-5
-1.226, 3.715e-5
-1.227, 3.715e-5
-1.228, 3.715e-5
-1.229, 3.715e-5
-1.230, 3.715e-5
-1.231, 3.715e-5
-1.232, 3.715e-5
-1.233, 3.715e-5
-1.234, 3.715e-5
-1.235, 3.715e-5
-1.236, 3.715e-5
-1.237, 3.715e-5
-1.238, 3.715e-5
-1.239, 3.715e-5
-1.240, 3.715e-5
-1.241, 3.715e-5
-1.242, 4.024e-5
-1.243, 4.024e-5
-1.244, 3.715e-5
-1.245, 4.024e-5
-1.246, 3.715e-5
-1.247, 4.024e-5
-1.248, 4.024e-5
-1.249, 4.024e-5
-1.250, 4.024e-5
-1.251, 4.024e-5
-1.252, 4.024e-5
-1.253, 4.024e-5
-1.254, 4.024e-5
-1.255, 4.024e-5
-1.256, 4.024e-5
-1.257, 4.024e-5
-1.258, 4.024e-5
-1.259, 4.332e-5
-1.260, 4.332e-5
-1.261, 4.024e-5
-1.262, 4.332e-5
-1.263, 4.332e-5
-1.264, 4.332e-5
-1.265, 4.332e-5
-1.266, 4.332e-5
-1.267, 4.332e-5
-1.268, 4.332e-5
-1.269, 4.332e-5
-1.270, 4.332e-5
-1.271, 4.640e-5
-1.272, 4.640e-5
-1.273, 4.640e-5
-1.274, 4.640e-5
-1.275, 4.640e-5
-1.276, 4.640e-5
-1.277, 4.640e-5
-1.278, 4.640e-5
-1.279, 4.640e-5
-1.280, 4.949e-5
-1.281, 4.949e-5
-1.282, 4.949e-5
-1.283, 4.949e-5
-1.284, 4.949e-5
-1.285, 4.949e-5
-1.286, 4.949e-5
-1.287, 4.949e-5
-1.288, 5.257e-5
-1.289, 5.257e-5
-1.290, 5.257e-5
-1.291, 5.257e-5
-1.292, 5.257e-5
-1.293, 5.257e-5
-1.294, 5.257e-5
-1.295, 5.565e-5
-1.296, 5.565e-5
-1.297, 5.565e-5
-1.298, 5.565e-5
-1.299, 5.565e-5
-1.300, 5.873e-5
-1.301, 5.873e-5
-1.302, 5.873e-5
-1.303, 5.873e-5
-1.304, 5.873e-5
-1.305, 6.182e-5
-1.306, 6.182e-5
-1.307, 6.182e-5
-1.308, 6.182e-5
-1.309, 6.182e-5
-1.310, 6.490e-5
-1.311, 6.490e-5
-1.312, 6.490e-5
-1.313, 6.490e-5
-1.314, 6.798e-5
-1.315, 6.798e-5
-1.316, 6.798e-5
-1.317, 6.798e-5
-1.318, 7.107e-5
-1.319, 7.107e-5
-1.320, 7.107e-5
-1.321, 7.415e-5
-1.322, 7.415e-5
-1.323, 7.415e-5
-1.324, 7.723e-5
-1.325, 7.723e-5
-1.326, 7.723e-5
-1.327, 7.723e-5
-1.328, 8.032e-5
-1.329, 8.032e-5
-1.330, 8.032e-5
-1.331, 8.340e-5
-1.332, 8.340e-5
-1.333, 8.648e-5
-1.334, 8.648e-5
-1.335, 8.957e-5
-1.336, 8.957e-5
-1.337, 9.265e-5
-1.338, 9.265e-5
-1.339, 9.265e-5
-1.340, 9.573e-5
-1.341, 9.882e-5
-1.342, 9.882e-5
-1.343, 1.019e-4
-1.344, 1.019e-4
-1.345, 1.050e-4
-1.346, 1.050e-4
-1.347, 1.081e-4
-1.348, 1.081e-4
-1.349, 1.111e-4
-1.350, 1.111e-4
-1.351, 1.142e-4
-1.352, 1.173e-4
-1.353, 1.173e-4
-1.354, 1.204e-4
-1.355, 1.235e-4
-1.356, 1.235e-4
-1.357, 1.266e-4
-1.358, 1.296e-4
-1.359, 1.296e-4
-1.360, 1.327e-4
-1.361, 1.358e-4
-1.362, 1.389e-4
-1.363, 1.389e-4
-1.364, 1.420e-4
-1.365, 1.451e-4
-1.366, 1.481e-4
-1.367, 1.512e-4
-1.368, 1.543e-4
-1.369, 1.574e-4
-1.370, 1.605e-4
-1.371, 1.636e-4
-1.372, 1.636e-4
-1.373, 1.666e-4
-1.374, 1.728e-4
-1.375, 1.728e-4
-1.376, 1.790e-4
-1.377, 1.790e-4
-1.378, 1.851e-4
-1.379, 1.882e-4
-1.380, 1.913e-4
-1.381, 1.944e-4
-1.382, 2.006e-4
-1.383, 2.036e-4
-1.384, 2.067e-4
-1.385, 2.098e-4
-1.386, 2.129e-4
-1.387, 2.160e-4
-1.388, 2.221e-4
-1.389, 2.252e-4
-1.390, 2.283e-4
-1.391, 2.345e-4
-1.392, 2.376e-4
-1.393, 2.406e-4
-1.394, 2.468e-4
-1.395, 2.499e-4
-1.396, 2.561e-4
-1.397, 2.591e-4
-1.398, 2.653e-4
-1.399, 2.684e-4
-1.400, 2.746e-4
-1.401, 2.776e-4
-1.402, 2.838e-4
-1.403, 2.869e-4
-1.404, 2.931e-4
-1.405, 2.992e-4
-1.406, 3.023e-4
-1.407, 3.085e-4
-1.408, 3.146e-4
-1.409, 3.177e-4
-1.410, 3.239e-4
-1.411, 3.300e-4
-1.412, 3.362e-4
-1.413, 3.424e-4
-1.414, 3.485e-4
-1.415, 3.516e-4
-1.416, 3.578e-4
-1.417, 3.640e-4
-1.418, 3.701e-4
-1.419, 3.763e-4
-1.420, 3.825e-4
-1.421, 3.886e-4
-1.422, 3.948e-4
-1.423, 4.010e-4
-1.424, 4.071e-4
-1.425, 4.133e-4
-1.426, 4.195e-4
-1.427, 4.256e-4
-1.428, 4.318e-4
-1.429, 4.380e-4
-1.430, 4.472e-4
-1.431, 4.534e-4
-1.432, 4.595e-4
-1.433, 4.657e-4
-1.434, 4.750e-4
-1.435, 4.811e-4
-1.436, 4.873e-4
-1.437, 4.935e-4
-1.438, 4.996e-4
-1.439, 5.089e-4
-1.440, 5.150e-4
-1.441, 5.212e-4
-1.442, 5.274e-4
-1.443, 5.397e-4
-1.444, 5.459e-4
-1.445, 5.520e-4
-1.446, 5.613e-4
-1.447, 5.674e-4
-1.448, 5.767e-4
-1.449, 5.829e-4
-1.450, 5.921e-4
-1.451, 6.014e-4
-1.452, 6.075e-4
-1.453, 6.168e-4
-1.454, 6.229e-4
-1.455, 6.322e-4
-1.456, 6.384e-4
-1.457, 6.476e-4
-1.458, 6.569e-4
-1.459, 6.630e-4
-1.460, 6.723e-4
-1.461, 6.815e-4
-1.462, 6.939e-4
-1.463, 7.000e-4
-1.464, 7.093e-4
-1.465, 7.185e-4
-1.466, 7.278e-4
-1.467, 7.370e-4
-1.468, 7.463e-4
-1.469, 7.555e-4
-1.470, 7.648e-4
-1.471, 7.740e-4
-1.472, 7.833e-4
-1.473, 7.925e-4
-1.474, 8.048e-4
-1.475, 8.141e-4
-1.476, 8.233e-4
-1.477, 8.326e-4
-1.478, 8.418e-4
-1.479, 8.511e-4
-1.480, 8.665e-4
-1.481, 8.758e-4
-1.482, 8.850e-4
-1.483, 8.973e-4
-1.484, 9.066e-4
-1.485, 9.158e-4
-1.486, 9.251e-4
-1.487, 9.343e-4
-1.488, 9.467e-4
-1.489, 9.590e-4
-1.490, 9.683e-4
-1.491, 9.806e-4
-1.492, 9.898e-4
-1.493, 9.991e-4
-1.494, 1.011e-3
-1.495, 1.024e-3
-1.496, 1.033e-3
-1.497, 1.045e-3
-1.498, 1.055e-3
-1.499, 1.067e-3
-1.500, 1.079e-3
-1.501, 1.088e-3
-1.502, 1.098e-3
-1.503, 1.113e-3
-1.504, 1.125e-3
-1.505, 1.138e-3
-1.506, 1.150e-3
-1.507, 1.159e-3
-1.508, 1.172e-3
-1.509, 1.184e-3
-1.510, 1.196e-3
-1.511, 1.209e-3
-1.512, 1.218e-3
-1.513, 1.227e-3
-1.514, 1.240e-3
-1.515, 1.255e-3
-1.516, 1.261e-3
-1.517, 1.270e-3
-1.518, 1.283e-3
-1.519, 1.298e-3
-1.520, 1.307e-3
-1.521, 1.323e-3
-1.522, 1.335e-3
-1.523, 1.351e-3
-1.524, 1.360e-3
-1.525, 1.372e-3
-1.526, 1.384e-3
-1.527, 1.400e-3
-1.528, 1.412e-3
-1.529, 1.428e-3
-1.530, 1.443e-3
-1.531, 1.455e-3
-1.532, 1.468e-3
-1.533, 1.486e-3
-1.534, 1.499e-3
-1.535, 1.511e-3
-1.536, 1.529e-3
-1.537, 1.542e-3
-1.538, 1.560e-3
-1.539, 1.579e-3
-1.540, 1.591e-3
-1.541, 1.603e-3
-1.542, 1.622e-3
-1.543, 1.634e-3
-1.544, 1.653e-3
-1.545, 1.665e-3
-1.546, 1.680e-3
-1.547, 1.696e-3
-1.548, 1.724e-3
-1.549, 1.733e-3
-1.550, 1.745e-3
-1.551, 1.761e-3
-1.552, 1.773e-3
-1.553, 1.788e-3
-1.554, 1.801e-3
-1.555, 1.813e-3
-1.556, 1.828e-3
-1.557, 1.844e-3
-1.558, 1.856e-3
-1.559, 1.862e-3
-1.560, 1.878e-3
-1.561, 1.906e-3
-1.562, 1.918e-3
-1.563, 1.933e-3
-1.564, 1.955e-3
-1.565, 1.973e-3
-1.566, 1.992e-3
-1.567, 2.007e-3
-1.568, 2.020e-3
-1.569, 2.038e-3
-1.570, 2.060e-3
-1.571, 2.069e-3
-1.572, 2.091e-3
-1.573, 2.106e-3
-1.574, 2.124e-3
-1.575, 2.146e-3
-1.576, 2.164e-3
-1.577, 2.186e-3
-1.578, 2.198e-3
-1.579, 2.211e-3
-1.580, 2.226e-3
-1.581, 2.242e-3
-1.582, 2.260e-3
-1.583, 2.266e-3
-1.584, 2.288e-3
-1.585, 2.312e-3
-1.586, 2.328e-3
-1.587, 2.349e-3
-1.588, 2.365e-3
-1.589, 2.377e-3
-1.590, 2.396e-3
-1.591, 2.420e-3
-1.592, 2.442e-3
-1.593, 2.454e-3
-1.594, 2.476e-3
-1.595, 2.494e-3
-1.596, 2.513e-3
-1.597, 2.525e-3
-1.598, 2.544e-3
-1.599, 2.556e-3
-1.600, 2.578e-3
-1.601, 2.602e-3
-1.602, 2.618e-3
-1.603, 2.630e-3
-1.604, 2.645e-3
-1.605, 2.667e-3
-1.606, 2.692e-3
-1.607, 2.719e-3
-1.608, 2.735e-3
-1.609, 2.760e-3
-1.610, 2.781e-3
-1.611, 2.793e-3
-1.612, 2.803e-3
-1.613, 2.830e-3
-1.614, 2.846e-3
-1.615, 2.864e-3
-1.616, 2.883e-3
-1.617, 2.911e-3
-1.618, 2.932e-3
-1.619, 2.948e-3
-1.620, 2.966e-3
-1.621, 2.982e-3
-1.622, 3.000e-3
-1.623, 3.019e-3
-1.624, 3.040e-3
-1.625, 3.071e-3
-1.626, 3.099e-3
-1.627, 3.133e-3
-1.628, 3.145e-3
-1.629, 3.160e-3
-1.630, 3.179e-3
-1.631, 3.200e-3
-1.632, 3.204e-3
-1.633, 3.244e-3
-1.634, 3.262e-3
-1.635, 3.268e-3
-1.636, 3.281e-3
-1.637, 3.311e-3
-1.638, 3.342e-3
-1.639, 3.364e-3
-1.640, 3.385e-3
-1.641, 3.413e-3
-1.642, 3.447e-3
-1.643, 3.453e-3
-1.644, 3.475e-3
-1.645, 3.493e-3
-1.646, 3.496e-3
-1.647, 3.527e-3
-1.648, 3.549e-3
-1.649, 3.564e-3
-1.650, 3.601e-3
-1.651, 3.651e-3
-1.652, 3.678e-3
-1.653, 3.697e-3
-1.654, 3.703e-3
-1.655, 3.715e-3
-1.656, 3.743e-3
-1.657, 3.758e-3
-1.658, 3.780e-3
-1.659, 3.808e-3
-1.660, 3.829e-3
-1.661, 3.851e-3
-1.662, 3.906e-3
-1.663, 3.913e-3
-1.664, 3.913e-3
-1.665, 3.943e-3
-1.666, 3.962e-3
-1.667, 3.968e-3
-1.668, 3.996e-3
-1.669, 4.042e-3
-1.670, 4.064e-3
-1.671, 4.088e-3
-1.672, 4.125e-3
-1.673, 4.141e-3
-1.674, 4.159e-3
-1.675, 4.178e-3
-1.676, 4.190e-3
-1.677, 4.215e-3
-1.678, 4.249e-3
-1.679, 4.267e-3
-1.680, 4.280e-3
-1.681, 4.320e-3
-1.682, 4.338e-3
-1.683, 4.394e-3
-1.684, 4.400e-3
-1.685, 4.421e-3
-1.686, 4.468e-3
-1.687, 4.483e-3
-1.688, 4.508e-3
-1.689, 4.535e-3
-1.690, 4.560e-3
-1.691, 4.616e-3
-1.692, 4.662e-3
-1.693, 4.696e-3
-1.694, 4.699e-3
-1.695, 4.708e-3
-1.696, 4.742e-3
-1.697, 4.776e-3
-1.698, 4.797e-3
-1.699, 4.831e-3
-1.700, 4.865e-3
-1.701, 4.881e-3
-1.702, 5.019e-3
-1.703, 5.097e-3
-1.704, 5.063e-3
-1.705, 5.072e-3
-1.706, 5.097e-3
-1.707, 5.134e-3
-1.708, 5.171e-3
-1.709, 5.186e-3
-1.710, 5.201e-3
-1.711, 5.226e-3
-1.712, 5.226e-3
-1.713, 5.260e-3
-1.714, 5.297e-3
-1.715, 5.306e-3
-1.716, 5.337e-3
-1.717, 5.359e-3
-1.718, 5.377e-3
-1.719, 5.426e-3
-1.720, 5.457e-3
-1.721, 5.454e-3
-1.722, 5.470e-3
-1.723, 5.500e-3
-1.724, 5.541e-3
-1.725, 5.559e-3
-1.726, 5.618e-3
-1.727, 5.661e-3
-1.728, 5.679e-3
-1.729, 5.676e-3
-1.730, 5.704e-3
-1.731, 5.719e-3
-1.732, 5.750e-3
-1.733, 5.790e-3
-1.734, 5.796e-3
-1.735, 5.852e-3
-1.736, 5.855e-3
-1.737, 5.870e-3
-1.738, 5.910e-3
-1.739, 5.975e-3
-1.740, 5.988e-3
-1.741, 6.031e-3
-1.742, 6.058e-3
-1.743, 6.086e-3
-1.744, 6.136e-3
-1.745, 6.182e-3
-1.746, 6.206e-3
-1.747, 6.216e-3
-1.748, 6.265e-3
-1.749, 6.305e-3
-1.750, 6.330e-3
-1.751, 6.321e-3
-1.752, 6.342e-3
-1.753, 6.385e-3
-1.754, 6.419e-3
-1.755, 6.472e-3
-1.756, 6.490e-3
-1.757, 6.536e-3
-1.758, 6.573e-3
-1.759, 6.586e-3
-1.760, 6.610e-3
-1.761, 6.657e-3
-1.762, 6.718e-3
-1.763, 6.740e-3
-1.764, 6.795e-3
-1.765, 6.801e-3
-1.766, 6.851e-3
-1.767, 6.869e-3
-1.768, 6.946e-3
-1.769, 6.943e-3
-1.770, 7.011e-3
-1.771, 7.039e-3
-1.772, 7.067e-3
-1.773, 7.128e-3
-1.774, 7.181e-3
-1.775, 7.215e-3
-1.776, 7.258e-3
-1.777, 7.264e-3
-1.778, 7.261e-3
-1.779, 7.326e-3
-1.780, 7.397e-3
-1.781, 7.474e-3
-1.782, 7.467e-3
-1.783, 7.501e-3
-1.784, 7.532e-3
-1.785, 7.548e-3
-1.786, 7.619e-3
-1.787, 7.603e-3
-1.788, 7.640e-3
-1.789, 7.693e-3
-1.790, 7.751e-3
-1.791, 7.828e-3
-1.792, 7.874e-3
-1.793, 7.887e-3
-1.794, 7.914e-3
-1.795, 7.955e-3
-1.796, 7.967e-3
-1.797, 8.044e-3
-1.798, 8.112e-3
-1.799, 8.124e-3
-1.800, 8.127e-3
-1.799, 8.090e-3
-1.798, 8.056e-3
-1.797, 8.019e-3
-1.796, 8.041e-3
-1.795, 7.985e-3
-1.794, 7.948e-3
-1.793, 7.936e-3
-1.792, 7.878e-3
-1.791, 7.813e-3
-1.790, 7.782e-3
-1.789, 7.770e-3
-1.788, 7.739e-3
-1.787, 7.720e-3
-1.786, 7.677e-3
-1.785, 7.646e-3
-1.784, 7.609e-3
-1.783, 7.606e-3
-1.782, 7.582e-3
-1.781, 7.551e-3
-1.780, 7.511e-3
-1.779, 7.504e-3
-1.778, 7.489e-3
-1.777, 7.461e-3
-1.776, 7.372e-3
-1.775, 7.338e-3
-1.774, 7.319e-3
-1.773, 7.304e-3
-1.772, 7.273e-3
-1.771, 7.230e-3
-1.770, 7.193e-3
-1.769, 7.162e-3
-1.768, 7.107e-3
-1.767, 7.079e-3
-1.766, 7.051e-3
-1.765, 6.996e-3
-1.764, 6.968e-3
-1.763, 6.928e-3
-1.762, 6.925e-3
-1.761, 6.900e-3
-1.760, 6.848e-3
-1.759, 6.795e-3
-1.758, 6.777e-3
-1.757, 6.743e-3
-1.756, 6.740e-3
-1.755, 6.687e-3
-1.754, 6.617e-3
-1.753, 6.598e-3
-1.752, 6.561e-3
-1.751, 6.481e-3
-1.750, 6.422e-3
-1.749, 6.493e-3
-1.748, 6.487e-3
-1.747, 6.469e-3
-1.746, 6.419e-3
-1.745, 6.373e-3
-1.744, 6.342e-3
-1.743, 6.274e-3
-1.742, 6.231e-3
-1.741, 6.234e-3
-1.740, 6.237e-3
-1.739, 6.160e-3
-1.738, 6.114e-3
-1.737, 6.080e-3
-1.736, 6.037e-3
-1.735, 5.991e-3
-1.734, 5.972e-3
-1.733, 5.926e-3
-1.732, 5.929e-3
-1.731, 5.873e-3
-1.730, 5.852e-3
-1.729, 5.790e-3
-1.728, 5.775e-3
-1.727, 5.741e-3
-1.726, 5.725e-3
-1.725, 5.695e-3
-1.724, 5.630e-3
-1.723, 5.584e-3
-1.722, 5.550e-3
-1.721, 5.537e-3
-1.720, 5.500e-3
-1.719, 5.482e-3
-1.718, 5.451e-3
-1.717, 5.414e-3
-1.716, 5.371e-3
-1.715, 5.291e-3
-1.714, 5.278e-3
-1.713, 5.251e-3
-1.712, 5.217e-3
-1.711, 5.192e-3
-1.710, 5.180e-3
-1.709, 5.167e-3
-1.708, 5.137e-3
-1.707, 5.097e-3
-1.706, 5.066e-3
-1.705, 5.023e-3
-1.704, 4.982e-3
-1.703, 4.961e-3
-1.702, 4.939e-3
-1.701, 4.899e-3
-1.700, 4.862e-3
-1.699, 4.825e-3
-1.698, 4.782e-3
-1.697, 4.760e-3
-1.696, 4.723e-3
-1.695, 4.708e-3
-1.694, 4.683e-3
-1.693, 4.656e-3
-1.692, 4.628e-3
-1.691, 4.591e-3
-1.690, 4.538e-3
-1.689, 4.505e-3
-1.688, 4.480e-3
-1.687, 4.455e-3
-1.686, 4.421e-3
-1.685, 4.387e-3
-1.684, 4.350e-3
-1.683, 4.341e-3
-1.682, 4.317e-3
-1.681, 4.289e-3
-1.680, 4.270e-3
-1.679, 4.218e-3
-1.678, 4.196e-3
-1.677, 4.169e-3
-1.676, 4.144e-3
-1.675, 4.128e-3
-1.674, 4.116e-3
-1.673, 4.070e-3
-1.672, 4.054e-3
-1.671, 4.021e-3
-1.670, 3.977e-3
-1.669, 3.947e-3
-1.668, 3.913e-3
-1.667, 3.894e-3
-1.666, 3.873e-3
-1.665, 3.854e-3
-1.664, 3.842e-3
-1.663, 3.817e-3
-1.662, 3.777e-3
-1.661, 3.755e-3
-1.660, 3.737e-3
-1.659, 3.691e-3
-1.658, 3.663e-3
-1.657, 3.638e-3
-1.656, 3.623e-3
-1.655, 3.598e-3
-1.654, 3.577e-3
-1.653, 3.555e-3
-1.652, 3.546e-3
-1.651, 3.487e-3
-1.650, 3.456e-3
-1.649, 3.441e-3
-1.648, 3.407e-3
-1.647, 3.388e-3
-1.646, 3.370e-3
-1.645, 3.342e-3
-1.644, 3.330e-3
-1.643, 3.305e-3
-1.642, 3.268e-3
-1.641, 3.241e-3
-1.640, 3.219e-3
-1.639, 3.197e-3
-1.638, 3.176e-3
-1.637, 3.160e-3
-1.636, 3.142e-3
-1.635, 3.133e-3
-1.634, 3.123e-3
-1.633, 3.093e-3
-1.632, 3.071e-3
-1.631, 3.056e-3
-1.630, 3.043e-3
-1.629, 3.012e-3
-1.628, 2.982e-3
-1.627, 2.963e-3
-1.626, 2.938e-3
-1.625, 2.914e-3
-1.624, 2.895e-3
-1.623, 2.877e-3
-1.622, 2.846e-3
-1.621, 2.824e-3
-1.620, 2.806e-3
-1.619, 2.784e-3
-1.618, 2.756e-3
-1.617, 2.729e-3
-1.616, 2.707e-3
-1.615, 2.689e-3
-1.614, 2.664e-3
-1.613, 2.652e-3
-1.612, 2.627e-3
-1.611, 2.608e-3
-1.610, 2.596e-3
-1.609, 2.565e-3
-1.608, 2.547e-3
-1.607, 2.544e-3
-1.606, 2.522e-3
-1.605, 2.497e-3
-1.604, 2.457e-3
-1.603, 2.451e-3
-1.602, 2.430e-3
-1.601, 2.414e-3
-1.600, 2.396e-3
-1.599, 2.386e-3
-1.598, 2.362e-3
-1.597, 2.340e-3
-1.596, 2.312e-3
-1.595, 2.291e-3
-1.594, 2.272e-3
-1.593, 2.254e-3
-1.592, 2.238e-3
-1.591, 2.220e-3
-1.590, 2.195e-3
-1.589, 2.171e-3
-1.588, 2.149e-3
-1.587, 2.124e-3
-1.586, 2.115e-3
-1.585, 2.087e-3
-1.584, 2.069e-3
-1.583, 2.047e-3
-1.582, 2.032e-3
-1.581, 2.020e-3
-1.580, 2.004e-3
-1.579, 1.980e-3
-1.578, 1.964e-3
-1.577, 1.952e-3
-1.576, 1.933e-3
-1.575, 1.915e-3
-1.574, 1.896e-3
-1.573, 1.881e-3
-1.572, 1.869e-3
-1.571, 1.853e-3
-1.570, 1.832e-3
-1.569, 1.816e-3
-1.568, 1.798e-3
-1.567, 1.776e-3
-1.566, 1.758e-3
-1.565, 1.745e-3
-1.564, 1.727e-3
-1.563, 1.702e-3
-1.562, 1.696e-3
-1.561, 1.690e-3
-1.560, 1.668e-3
-1.559, 1.659e-3
-1.558, 1.640e-3
-1.557, 1.628e-3
-1.556, 1.610e-3
-1.555, 1.594e-3
-1.554, 1.573e-3
-1.553, 1.557e-3
-1.552, 1.539e-3
-1.551, 1.526e-3
-1.550, 1.508e-3
-1.549, 1.492e-3
-1.548, 1.477e-3
-1.547, 1.458e-3
-1.546, 1.449e-3
-1.545, 1.431e-3
-1.544, 1.415e-3
-1.543, 1.403e-3
-1.542, 1.391e-3
-1.541, 1.375e-3
-1.540, 1.363e-3
-1.539, 1.351e-3
-1.538, 1.332e-3
-1.537, 1.317e-3
-1.536, 1.304e-3
-1.535, 1.289e-3
-1.534, 1.270e-3
-1.533, 1.255e-3
-1.532, 1.246e-3
-1.531, 1.227e-3
-1.530, 1.215e-3
-1.529, 1.199e-3
-1.528, 1.190e-3
-1.527, 1.175e-3
-1.526, 1.162e-3
-1.525, 1.153e-3
-1.524, 1.138e-3
-1.523, 1.122e-3
-1.522, 1.110e-3
-1.521, 1.098e-3
-1.520, 1.088e-3
-1.519, 1.070e-3
-1.518, 1.061e-3
-1.517, 1.051e-3
-1.516, 1.036e-3
-1.515, 1.027e-3
-1.514, 1.018e-3
-1.513, 1.005e-3
-1.512, 9.929e-4
-1.511, 9.806e-4
-1.510, 9.683e-4
-1.509, 9.559e-4
-1.508, 9.436e-4
-1.507, 9.313e-4
-1.506, 9.220e-4
-1.505, 9.097e-4
-1.504, 8.973e-4
-1.503, 8.850e-4
-1.502, 8.727e-4
-1.501, 8.634e-4
-1.500, 8.542e-4
-1.499, 8.388e-4
-1.498, 8.357e-4
-1.497, 8.264e-4
-1.496, 8.141e-4
-1.495, 7.987e-4
-1.494, 7.925e-4
-1.493, 7.833e-4
-1.492, 7.709e-4
-1.491, 7.617e-4
-1.490, 7.524e-4
-1.489, 7.401e-4
-1.488, 7.278e-4
-1.487, 7.216e-4
-1.486, 7.124e-4
-1.485, 7.000e-4
-1.484, 6.939e-4
-1.483, 6.784e-4
-1.482, 6.723e-4
-1.481, 6.630e-4
-1.480, 6.538e-4
-1.479, 6.414e-4
-1.478, 6.353e-4
-1.477, 6.260e-4
-1.476, 6.168e-4
-1.475, 6.106e-4
-1.474, 6.014e-4
-1.473, 5.921e-4
-1.472, 5.829e-4
-1.471, 5.767e-4
-1.470, 5.644e-4
-1.469, 5.613e-4
-1.468, 5.520e-4
-1.467, 5.428e-4
-1.466, 5.335e-4
-1.465, 5.274e-4
-1.464, 5.181e-4
-1.463, 5.089e-4
-1.462, 5.027e-4
-1.461, 4.965e-4
-1.460, 4.904e-4
-1.459, 4.811e-4
-1.458, 4.750e-4
-1.457, 4.657e-4
-1.456, 4.595e-4
-1.455, 4.534e-4
-1.454, 4.441e-4
-1.453, 4.380e-4
-1.452, 4.318e-4
-1.451, 4.256e-4
-1.450, 4.164e-4
-1.449, 4.133e-4
-1.448, 4.071e-4
-1.447, 3.979e-4
-1.446, 3.917e-4
-1.445, 3.855e-4
-1.444, 3.825e-4
-1.443, 3.732e-4
-1.442, 3.670e-4
-1.441, 3.609e-4
-1.440, 3.547e-4
-1.439, 3.485e-4
-1.438, 3.424e-4
-1.437, 3.393e-4
-1.436, 3.300e-4
-1.435, 3.270e-4
-1.434, 3.208e-4
-1.433, 3.177e-4
-1.432, 3.085e-4
-1.431, 3.085e-4
-1.430, 2.992e-4
-1.429, 2.961e-4
-1.428, 2.900e-4
-1.427, 2.869e-4
-1.426, 2.807e-4
-1.425, 2.746e-4
-1.424, 2.684e-4
-1.423, 2.653e-4
-1.422, 2.591e-4
-1.421, 2.561e-4
-1.420, 2.530e-4
-1.419, 2.468e-4
-1.418, 2.437e-4
-1.417, 2.376e-4
-1.416, 2.345e-4
-1.415, 2.283e-4
-1.414, 2.252e-4
-1.413, 2.191e-4
-1.412, 2.160e-4
-1.411, 2.129e-4
-1.410, 2.067e-4
-1.409, 2.036e-4
-1.408, 2.006e-4
-1.407, 1.975e-4
-1.406, 1.944e-4
-1.405, 1.882e-4
-1.404, 1.851e-4
-1.403, 1.821e-4
-1.402, 1.790e-4
-1.401, 1.759e-4
-1.400, 1.697e-4
-1.399, 1.697e-4
-1.398, 1.636e-4
-1.397, 1.605e-4
-1.396, 1.574e-4
-1.395, 1.574e-4
-1.394, 1.512e-4
-1.393, 1.481e-4
-1.392, 1.481e-4
-1.391, 1.420e-4
-1.390, 1.389e-4
-1.389, 1.358e-4
-1.388, 1.327e-4
-1.387, 1.327e-4
-1.386, 1.266e-4
-1.385, 1.266e-4
-1.384, 1.235e-4
-1.383, 1.204e-4
-1.382, 1.173e-4
-1.381, 1.142e-4
-1.380, 1.111e-4
-1.379, 1.081e-4
-1.378, 1.081e-4
-1.377, 1.050e-4
-1.376, 1.019e-4
-1.375, 1.019e-4
-1.374, 9.882e-5
-1.373, 9.573e-5
-1.372, 9.265e-5
-1.371, 9.265e-5
-1.370, 8.957e-5
-1.369, 8.648e-5
-1.368, 8.340e-5
-1.367, 8.340e-5
-1.366, 8.032e-5
-1.365, 7.723e-5
-1.364, 7.723e-5
-1.363, 7.415e-5
-1.362, 7.415e-5
-1.361, 7.107e-5
-1.360, 7.107e-5
-1.359, 6.798e-5
-1.358, 6.490e-5
-1.357, 6.490e-5
-1.356, 6.182e-5
-1.355, 5.873e-5
-1.354, 5.873e-5
-1.353, 5.873e-5
-1.352, 5.565e-5
-1.351, 5.565e-5
-1.350, 5.257e-5
-1.349, 4.949e-5
-1.348, 4.949e-5
-1.347, 4.949e-5
-1.346, 4.640e-5
-1.345, 4.640e-5
-1.344, 4.332e-5
-1.343, 4.332e-5
-1.342, 4.024e-5
-1.341, 4.024e-5
-1.340, 4.024e-5
-1.339, 3.715e-5
-1.338, 3.715e-5
-1.337, 3.715e-5
-1.336, 3.407e-5
-1.335, 3.407e-5
-1.334, 3.099e-5
-1.333, 3.099e-5
-1.332, 3.099e-5
-1.331, 3.099e-5
-1.330, 2.790e-5
-1.329, 2.790e-5
-1.328, 2.482e-5
-1.327, 2.482e-5
-1.326, 2.482e-5
-1.325, 2.174e-5
-1.324, 2.174e-5
-1.323, 2.174e-5
-1.322, 2.174e-5
-1.321, 1.865e-5
-1.320, 1.865e-5
-1.319, 1.557e-5
-1.318, 1.557e-5
-1.317, 1.557e-5
-1.316, 1.557e-5
-1.315, 1.249e-5
-1.314, 1.249e-5
-1.313, 1.249e-5
-1.312, 1.249e-5
-1.311, 1.249e-5
-1.310, 9.405e-6
-1.309, 9.405e-6
-1.308, 9.405e-6
-1.307, 9.405e-6
-1.306, 6.322e-6
-1.305, 6.322e-6
-1.304, 6.322e-6
-1.303, 6.322e-6
-1.302, 6.322e-6
-1.301, 3.239e-6
-1.300, 3.239e-6
-1.299, 3.239e-6
-1.298, 3.239e-6
-1.297, 3.239e-6
-1.296, 3.239e-6
-1.295, 1.559e-7
-1.294, 1.559e-7
-1.293, 1.559e-7
-1.292, 1.559e-7
-1.291, 1.559e-7
-1.290, 1.559e-7
-1.289, 1.559e-7
-1.288, -2.927e-6
-1.287, -2.927e-6
-1.286, -2.927e-6
-1.285, -2.927e-6
-1.284, -2.927e-6
-1.283, -2.927e-6
-1.282, -2.927e-6
-1.281, -2.927e-6
-1.280, -6.010e-6
-1.279, -6.010e-6
-1.278, -6.010e-6
-1.277, -6.010e-6
-1.276, -6.010e-6
-1.275, -6.010e-6
-1.274, -6.010e-6
-1.273, -6.010e-6
-1.272, -9.093e-6
-1.271, -9.093e-6
-1.270, -9.093e-6
-1.269, -9.093e-6
-1.268, -9.093e-6
-1.267, -9.093e-6
-1.266, -9.093e-6
-1.265, -9.093e-6
-1.264, -9.093e-6
-1.263, -1.218e-5
-1.262, -9.093e-6
-1.261, -9.093e-6
-1.260, -1.218e-5
-1.259, -9.093e-6
-1.258, -9.093e-6
-1.257, -1.218e-5
-1.256, -1.218e-5
-1.255, -1.218e-5
-1.254, -1.218e-5
-1.253, -1.218e-5
-1.252, -1.218e-5
-1.251, -1.218e-5
-1.250, -1.218e-5
-1.249, -1.218e-5
-1.248, -1.218e-5
-1.247, -1.218e-5
-1.246, -1.526e-5
-1.245, -1.526e-5
-1.244, -1.526e-5
-1.243, -1.526e-5
-1.242, -1.526e-5
-1.241, -1.526e-5
-1.240, -1.526e-5
-1.239, -1.526e-5
-1.238, -1.526e-5
-1.237, -1.526e-5
-1.236, -1.526e-5
-1.235, -1.526e-5
-1.234, -1.526e-5
-1.233, -1.526e-5
-1.232, -1.526e-5
-1.231, -1.526e-5
-1.230, -1.526e-5
-1.229, -1.834e-5
-1.228, -1.834e-5
-1.227, -1.526e-5
-1.226, -1.834e-5
-1.225, -1.834e-5
-1.224, -1.526e-5
-1.223, -1.834e-5
-1.222, -1.834e-5
-1.221, -1.834e-5
-1.220, -1.834e-5
-1.219, -1.834e-5
-1.218, -1.834e-5
-1.217, -1.834e-5
-1.216, -1.834e-5
-1.215, -1.834e-5
-1.214, -1.834e-5
-1.213, -1.834e-5
-1.212, -1.834e-5
-1.211, -1.834e-5
-1.210, -1.834e-5
-1.209, -1.834e-5
-1.208, -1.834e-5
-1.207, -1.834e-5
-1.206, -1.834e-5
-1.205, -1.834e-5
-1.204, -1.834e-5
-1.203, -2.143e-5
-1.202, -2.143e-5
-1.201, -2.143e-5
-1.200, -2.143e-5
-1.199, -2.143e-5
-1.198, -1.834e-5
-1.197, -2.143e-5
-1.196, -2.143e-5
-1.195, -2.143e-5
-1.194, -2.143e-5
-1.193, -2.143e-5
-1.192, -2.143e-5
-1.191, -2.143e-5
-1.190, -2.143e-5
-1.189, -2.143e-5
-1.188, -2.143e-5
-1.187, -2.143e-5
-1.186, -2.143e-5
-1.185, -2.143e-5
-1.184, -2.143e-5
-1.183, -2.143e-5
-1.182, -2.143e-5
-1.181, -2.143e-5
-1.180, -2.143e-5
-1.179, -2.143e-5
-1.178, -2.143e-5
-1.177, -2.143e-5
-1.176, -2.143e-5
-1.175, -2.143e-5
-1.174, -2.143e-5
-1.173, -2.143e-5
-1.172, -2.143e-5
-1.171, -2.143e-5
-1.170, -2.143e-5
-1.169, -2.451e-5
-1.168, -2.451e-5
-1.167, -2.451e-5
-1.166, -2.451e-5
-1.165, -2.143e-5
-1.164, -2.143e-5
-1.163, -2.451e-5
-1.162, -2.451e-5
-1.161, -2.451e-5
-1.160, -2.451e-5
-1.159, -2.451e-5
-1.158, -2.451e-5
-1.157, -2.451e-5
-1.156, -2.451e-5
-1.155, -2.451e-5
-1.154, -2.451e-5
-1.153, -2.451e-5
-1.152, -2.451e-5
-1.151, -2.451e-5
-1.150, -2.451e-5
-1.149, -2.451e-5
-1.148, -2.451e-5
-1.147, -2.451e-5
-1.146, -2.451e-5
-1.145, -2.451e-5
-1.144, -2.451e-5
-1.143, -2.451e-5
-1.142, -2.451e-5
-1.141, -2.451e-5
-1.140, -2.451e-5
-1.139, -2.451e-5
-1.138, -2.451e-5
-1.137, -2.451e-5
-1.136, -2.759e-5
-1.135, -2.759e-5
-1.134, -2.759e-5
-1.133, -2.759e-5
-1.132, -2.759e-5
-1.131, -2.759e-5
-1.130, -2.759e-5
-1.129, -2.759e-5
-1.128, -2.759e-5
-1.127, -2.759e-5
-1.126, -2.759e-5
-1.125, -2.759e-5
-1.124, -2.759e-5
-1.123, -2.759e-5
-1.122, -2.759e-5
-1.121, -2.759e-5
-1.120, -2.759e-5
-1.119, -2.759e-5
-1.118, -2.759e-5
-1.117, -2.759e-5
-1.116, -2.759e-5
-1.115, -2.759e-5
-1.114, -2.759e-5
-1.113, -2.759e-5
-1.112, -2.759e-5
-1.111, -2.759e-5
-1.110, -3.068e-5
-1.109, -3.068e-5
-1.108, -2.759e-5
-1.107, -2.759e-5
-1.106, -3.068e-5
-1.105, -3.068e-5
-1.104, -2.759e-5
-1.103, -3.068e-5
-1.102, -3.068e-5
-1.101, -3.068e-5
-1.100, -3.068e-5
-1.099, -3.068e-5
-1.098, -3.068e-5
-1.097, -3.068e-5
-1.096, -3.068e-5
-1.095, -3.068e-5
-1.094, -3.068e-5
-1.093, -3.376e-5
-1.092, -3.068e-5
-1.091, -3.068e-5
-1.090, -3.376e-5
-1.089, -3.376e-5
-1.088, -3.376e-5
-1.087, -3.376e-5
-1.086, -3.376e-5
-1.085, -3.376e-5
-1.084, -3.376e-5
-1.083, -3.376e-5
-1.082, -3.376e-5
-1.081, -3.376e-5
-1.080, -3.376e-5
-1.079, -3.376e-5
-1.078, -3.376e-5
-1.077, -3.376e-5
-1.076, -3.376e-5
-1.075, -3.376e-5
-1.074, -3.376e-5
-1.073, -3.684e-5
-1.072, -3.684e-5
-1.071, -3.376e-5
-1.070, -3.684e-5
-1.069, -3.684e-5
-1.068, -3.684e-5
-1.067, -3.684e-5
-1.066, -3.684e-5
-1.065, -3.684e-5
-1.064, -3.684e-5
-1.063, -3.684e-5
-1.062, -3.684e-5
-1.061, -3.684e-5
-1.060, -3.684e-5
-1.059, -3.684e-5
-1.058, -3.684e-5
-1.057, -3.992e-5
-1.056, -3.992e-5
-1.055, -3.992e-5
-1.054, -3.992e-5
-1.053, -3.992e-5
-1.052, -3.992e-5
-1.051, -3.992e-5
-1.050, -3.992e-5
-1.049, -3.992e-5
-1.048, -3.992e-5
-1.047, -3.992e-5
-1.046, -3.992e-5
-1.045, -4.301e-5
-1.044, -4.301e-5
-1.043, -4.301e-5
-1.042, -4.301e-5
-1.041, -4.301e-5
-1.040, -4.301e-5
-1.039, -4.301e-5
-1.038, -4.301e-5
-1.037, -4.301e-5
-1.036, -4.301e-5
-1.035, -4.301e-5
-1.034, -4.301e-5
-1.033, -4.609e-5
-1.032, -4.609e-5
-1.031, -4.609e-5
-1.030, -4.609e-5
-1.029, -4.609e-5
-1.028, -4.609e-5
-1.027, -4.609e-5
-1.026, -4.609e-5
-1.025, -4.609e-5
-1.024, -4.609e-5
-1.023, -4.917e-5
-1.022, -4.917e-5
-1.021, -4.917e-5
-1.020, -4.917e-5
-1.019, -4.917e-5
-1.018, -4.917e-5
-1.017, -4.917e-5
-1.016, -4.917e-5
-1.015, -4.917e-5
-1.014, -4.917e-5
-1.013, -5.226e-5
-1.012, -5.226e-5
-1.011, -5.226e-5
-1.010, -5.226e-5
-1.009, -5.226e-5
-1.008, -5.226e-5
-1.007, -5.226e-5
-1.006, -5.534e-5
-1.005, -5.534e-5
-1.004, -5.534e-5
-1.003, -5.534e-5
-1.002, -5.534e-5
-1.001, -5.534e-5
