Potential V vs RHE, Current mA cm-2
0.013299999999999867,-0.4384190318281749
0.012299999999999978,-4.014950669016974
0.011299999999999866,-7.37347529489657
0.010299999999999976,-10.601846481188586
0.009299999999999864,-13.567081365705702
0.008299999999999974,-16.22673860945197
0.007299999999999862,-19.197632339168546
0.006299999999999972,-22.027054938898623
0.00529999999999986,-25.167714024599
0.0042999999999999705,-28.308373110299385
0.0032999999999998586,-31.449032195999767
0.0022999999999999687,-34.67457395969205
0.0012999999999998568,-37.51814367242077
0.00029999999999996696,-40.220242255162994
-0.000700000000000145,-42.653545690930855
-0.0017000000000000348,-44.84634820572166
-0.0027000000000001467,-46.88353247752732
-0.0037000000000000366,-48.63777448935996
-0.0047000000000001485,-50.12322135421825
-0.005700000000000038,-51.990640270040096
-0.00670000000000015,-53.68829382987814
-0.00770000000000004,-55.7820665536784
-0.008700000000000152,-57.87583927747865
-0.009700000000000042,-59.9696120012789
-0.010700000000000154,-62.24729719406162
-0.011700000000000044,-64.42595259585376
-0.012700000000000156,-66.20848883368372
-0.013700000000000045,-68.13249620150016
-0.014700000000000157,-69.57550172736251
-0.015700000000000047,-70.74971210625048
-0.01670000000000016,-71.83903980714656
-0.01770000000000005,-72.67371947406694
-0.01870000000000016,-73.80548851395896
-0.01970000000000005,-74.89481621485504
-0.020700000000000163,-76.06902659374302
-0.021700000000000053,-77.55447345860131
-0.022700000000000164,-79.08236166245555
-0.023700000000000054,-80.65269120530574
-0.024700000000000166,-82.52011012112759
-0.025700000000000056,-83.75090895201016
-0.026700000000000168,-85.13732602587791
-0.027700000000000058,-86.14177104878208
-0.02870000000000017,-86.93400937670651
-0.02970000000000006,-87.58477657464444
-0.03070000000000017,-88.15066109459043
-0.03170000000000006,-88.63166293654454
-0.03270000000000017,-89.42390126446898
-0.03370000000000006,-90.03222712341093
-0.034700000000000175,-91.03667214631511
-0.035700000000000065,-92.2108825252031
-0.03670000000000018,-93.38509290409107
-0.03770000000000007,-94.70077441296557
-0.03870000000000018,-95.79010211386164
-0.03970000000000007,-96.79454713676581
-0.04070000000000018,-97.61507969068752
-0.04170000000000007,-98.13852287163759
-0.04270000000000018,-98.57708337459576
-0.04370000000000007,-98.83173140857146
-0.044700000000000184,-98.88831986056607
-0.045700000000000074,-99.35517458952152
-0.046700000000000186,-99.58152839749994
-0.047700000000000076,-100.31717827342976
-0.04870000000000019,-101.19429927934607
-0.04970000000000008,-102.11386162425833
-0.05070000000000019,-103.07586530816658
-0.05170000000000008,-104.02372187907615
-0.05270000000000019,-104.77351886800463
-0.05370000000000008,-105.5516100829304
-0.05470000000000019,-105.90528790789664
-0.05570000000000008,-106.07505326388046
-0.056700000000000195,-106.11749460287639
-0.057700000000000085,-106.0326119248845
-0.058700000000000196,-106.21652439386696
-0.059700000000000086,-106.2589657328629
-0.0607000000000002,-106.59849644483052
-0.06170000000000009,-107.30585209476303
-0.0627000000000002,-107.95661929270095
-0.06370000000000009,-108.60738649063886
-0.0647000000000002,-109.654272852539
-0.06570000000000009,-110.17771603348905
-0.0667000000000002,-110.82848323142699
-0.0677000000000001,-111.05483703940537
-0.0687000000000002,-111.01239570040943
-0.0697000000000001,-111.05483703940537
-0.07070000000000021,-110.96995436141347
-0.0717000000000001,-110.74360055343507
-0.07270000000000021,-110.78604189243102
-0.0737000000000001,-110.82848323142699
-0.07470000000000021,-111.3094850733811
-0.0757000000000001,-111.8753695933271
-0.07670000000000021,-112.48369545226906
-0.0777000000000001,-113.36081645818538
-0.07870000000000021,-113.88425963913545
-0.0797000000000001,-114.36526148108955
-0.08070000000000022,-114.57746817606933
-0.0817000000000001,-114.71893930605583
-0.08270000000000022,-114.67649796705987
-0.08370000000000011,-114.53502683707337
-0.08470000000000022,-114.1530547861098
-0.08570000000000011,-114.1530547861098
-0.08670000000000022,-114.05402499511925
-0.08770000000000011,-114.40770282008553
-0.08870000000000022,-114.88870466203963
-0.08970000000000011,-115.36970650399375
-0.09070000000000022,-116.02047370193165
-0.09170000000000011,-116.67124089986959
-0.09270000000000023,-117.10980140282774
-0.09370000000000012,-117.50592056678994
-0.09470000000000023,-117.54836190578591
-0.09570000000000012,-117.42103788879804
-0.09670000000000023,-117.25127253281424
-0.09770000000000012,-116.77027069086012
-0.09870000000000023,-116.62879956087362
-0.09970000000000012,-116.50147554388576
-0.10070000000000023,-116.58635822187767
-0.10170000000000012,-116.98247738583989
-0.10270000000000024,-117.25127253281424
-0.10370000000000013,-117.77471571376431
-0.10470000000000024,-118.51036558969413
-0.10570000000000013,-118.76501362366983
-0.10670000000000024,-119.16113278763203
-0.10770000000000013,-119.16113278763203
-0.10870000000000024,-118.94892609265229
-0.10970000000000013,-118.76501362366983
-0.11070000000000024,-118.46792425069816
-0.11170000000000013,-118.07180508673595
-0.11270000000000002,-117.98692240874406
-0.11370000000000013,-117.85959839175621
-0.11470000000000002,-118.07180508673595
-0.11570000000000014,-118.42548291170223
-0.11670000000000003,-118.94892609265229
-0.11770000000000014,-119.5996932905902
-0.11870000000000003,-119.95337111555646
-0.11970000000000014,-120.29290182752408
-0.12070000000000003,-120.51925563550247
-0.12170000000000014,-120.47681429650652
-0.12270000000000003,-120.25046048852812
-0.12370000000000014,-120.03825379354835
-0.12470000000000003,-119.55725195159425
-0.12570000000000014,-119.51481061259831
-0.12670000000000003,-119.38748659561045
-0.12770000000000015,-119.55725195159425
-0.12870000000000004,-119.9109297765605
-0.12970000000000015,-120.33534316652002
-0.13070000000000004,-120.9153747994647
-0.13170000000000015,-121.43881798041474
-0.13270000000000004,-121.73590735338641
-0.13370000000000015,-122.0471438393567
-0.13470000000000004,-122.0471438393567
-0.13570000000000015,-121.86323137037427
-0.13670000000000004,-121.52370065840667
-0.13770000000000016,-121.04269881645253
-0.13870000000000005,-120.85878634747009
-0.13970000000000016,-120.64657965249035
-0.14070000000000005,-120.68902099148629
-0.14170000000000016,-121.04269881645253
-0.14270000000000005,-121.38222952842017
-0.14370000000000016,-121.82079003137831
-0.14470000000000005,-122.48570434231489
-0.14570000000000016,-122.69791103729463
-0.14670000000000005,-123.09403020125686
-0.14770000000000016,-123.05158886226087
-0.14870000000000005,-122.74035237629057
-0.14970000000000017,-122.61302835930273
-0.15070000000000006,-122.21690919534053
-0.15170000000000017,-121.90567270937021
-0.15270000000000006,-121.77834869238235
-0.15370000000000017,-121.60858333639854
-0.15470000000000006,-121.86323137037427
-0.15570000000000017,-122.21690919534053
-0.15670000000000006,-122.65546969829869
-0.15770000000000017,-123.26379555724066
-0.15870000000000006,-123.65991472120285
-0.15970000000000018,-123.95700409417452
-0.16070000000000007,-124.09847522416102
-0.16170000000000018,-123.95700409417452
-0.16270000000000007,-123.70235606019881
-0.16370000000000018,-123.4760022522204
-0.16470000000000007,-123.00914752326493
-0.16570000000000018,-122.95255907127036
-0.16670000000000007,-122.78279371528653
-0.16770000000000018,-123.09403020125686
-0.16870000000000007,-123.532590704215
-0.16970000000000018,-123.99944543317046
-0.17070000000000007,-124.48044727512458
-0.17170000000000019,-125.00389045607463
-0.17270000000000008,-125.40000962003687
-0.1737000000000002,-125.71124610600715
-0.17470000000000008,-125.62636342801528
-0.1757000000000002,-125.44245095903281
-0.17670000000000008,-125.18780292505707
-0.1777000000000002,-124.70680108310299
-0.17870000000000008,-124.52288861412055
-0.1797000000000002,-124.43800593612862
-0.18070000000000008,-124.52288861412055
-0.1817000000000002,-124.87656643908679
-0.18270000000000008,-125.18780292505707
-0.1837000000000002,-125.71124610600715
-0.1847000000000001,-126.44689598193698
-0.1857000000000002,-126.75813246790726
-0.1867000000000001,-127.19669297086547
-0.1877000000000002,-127.09766317987489
-0.1887000000000001,-126.9278978238911
-0.1897000000000002,-126.75813246790726
-0.1907000000000001,-126.40445464294103
-0.1917000000000001,-126.09321815697072
-0.19269999999999998,-126.00833547897882
-0.1937000000000001,-125.96589413998288
-0.19469999999999998,-126.23468928695722
-0.1957000000000001,-126.57421999892482
-0.19669999999999999,-126.97033916288706
-0.1977000000000001,-127.66354769982091
-0.1987,-127.97478418579122
-0.1997000000000001,-128.28602067176152
-0.2007,-128.37090334975343
-0.2017000000000001,-128.28602067176152
-0.2027,-128.144549541775
-0.2037000000000001,-127.93234284679528
-0.2047,-127.36645832684925
-0.2057000000000001,-127.32401698785328
-0.2067,-127.09766317987489
-0.2077000000000001,-127.36645832684925
-0.2087,-127.76257749081147
-0.2097000000000001,-128.18699088077096
-0.2107,-128.89434653070347
-0.2117000000000001,-129.3753483726576
-0.2127,-129.75732042362114
-0.2137000000000001,-130.02611557059552
-0.2147,-130.02611557059552
-0.2157000000000001,-130.02611557059552
-0.2167,-129.7148790846252
-0.21770000000000012,-129.27631858166706
-0.2187,-129.19143590367514
-0.21970000000000012,-129.1489945646792
-0.2207,-129.33290703366166
-0.22170000000000012,-129.6299964066333
-0.2227,-130.11099824858744
-0.22370000000000012,-130.63444142953747
-0.2247,-131.37009130546733
-0.22570000000000012,-131.68132779143764
-0.2267,-132.24721231138363
-0.22770000000000012,-132.2896536503796
-0.22870000000000001,-132.16232963339172
-0.22970000000000013,-132.03500561640385
-0.23070000000000002,-131.68132779143764
-0.23170000000000013,-131.46912109645783
-0.23270000000000002,-131.5115624354538
-0.23370000000000013,-131.46912109645783
-0.23470000000000002,-131.80865180842545
-0.23570000000000013,-132.2896536503796
-0.23670000000000002,-132.89797950932152
-0.2376999999999999,-133.77510051523788
-0.23870000000000002,-134.17121967920008
-0.2396999999999999,-134.73710419914607
-0.24070000000000003,-134.94931089412586
-0.24169999999999991,-134.9917522331218
-0.24270000000000003,-134.94931089412586
-0.24369999999999992,-134.86442821613394
-0.24470000000000003,-134.5107503911677
-0.24569999999999992,-134.56733884316228
-0.24670000000000003,-134.5107503911677
-0.24769999999999992,-134.9068695551299
-0.24870000000000003,-135.47275407507593
-0.24969999999999992,-136.03863859502192
-0.25070000000000003,-136.74599424495443
-0.2516999999999999,-137.43920278188833
-0.25270000000000004,-138.00508730183432
-0.2536999999999999,-138.44364780479248
-0.25470000000000004,-138.57097182178035
-0.2556999999999999,-138.61341316077628
-0.25670000000000004,-138.48608914378846
-0.25769999999999993,-138.17485265781812
-0.25870000000000004,-138.27388244880868
-0.25969999999999993,-138.3163237878046
-0.26070000000000004,-138.61341316077628
-0.26169999999999993,-139.27832747171286
-0.26270000000000004,-139.9290946696508
-0.26369999999999993,-140.5798618675887
-0.26470000000000005,-141.47112998650366
-0.26569999999999994,-142.03701450644968
-0.26670000000000005,-142.8858412863687
-0.26769999999999994,-143.0273124163552
-0.26870000000000005,-143.16878354634173
-0.26969999999999994,-143.3102546763282
-0.27070000000000005,-143.16878354634173
-0.27169999999999994,-143.3102546763282
-0.27270000000000005,-143.3102546763282
-0.27369999999999994,-143.5931969363012
-0.27470000000000006,-144.15908145624724
-0.27569999999999995,-144.86643710617977
-0.27670000000000006,-145.7152638860988
-0.27769999999999995,-146.7055617960043
-0.27870000000000006,-147.55438857592333
-0.27969999999999995,-148.40321535584232
-0.28070000000000006,-148.82762874580186
-0.28169999999999995,-149.1105710057749
-0.28270000000000006,-149.25204213576137
-0.28369999999999995,-149.39351326574788
-0.28470000000000006,-149.25204213576137
-0.28569999999999995,-149.6764555257209
-0.28670000000000007,-149.95939778569388
-0.28769999999999996,-150.66675343562642
-0.28870000000000007,-151.5155802155454
-0.28969999999999996,-152.36440699546444
-0.29070000000000007,-153.35470490536997
-0.29169999999999996,-154.3450028152755
-0.29270000000000007,-155.33530072518104
-0.29369999999999996,-156.04265637511355
-0.2947000000000001,-156.60854089505958
-0.29569999999999996,-157.03295428501906
-0.2967000000000001,-157.31589654499206
-0.29769999999999996,-157.45736767497857
-0.2987000000000001,-157.7403099349516
-0.29969999999999997,-158.3061944548976
-0.3007000000000001,-159.01355010483013
-0.30169999999999997,-160.00384801473567
-0.3027000000000001,-160.99414592464117
-0.30369999999999997,-162.12591496453322
-0.3047000000000001,-163.54062626439824
-0.30569999999999997,-164.53092417430375
-0.3067000000000001,-165.5212220842093
-0.3077,-166.22857773414182
-0.3087000000000001,-166.79446225408785
-0.3097,-167.21887564404733
-0.3107000000000001,-167.6432890340068
-0.3117,-168.06770242396635
-0.3127000000000001,-168.77505807389886
-0.3137,-169.48241372383137
-0.3147000000000001,-170.47271163373694
-0.3157,-171.60448067362896
-0.3167000000000001,-172.87772084350746
-0.3177,-174.43390327335902
-0.3187000000000001,-175.56567231325104
-0.3197,-176.8389124831296
-0.3207000000000001,-177.82921039303508
-0.3217,-178.67803717295413
-0.3227000000000001,-179.38539282288664
-0.3237,-180.09274847281918
-0.3247000000000001,-180.5171618627787
-0.3257,-181.2245175127112
-0.3267000000000001,-181.79040203265723
-0.3277,-183.06364220253573
-0.3287000000000001,-184.47835350240078
-0.3297,-185.89306480226583
-0.3307000000000001,-187.44924723211736
-0.3317,-189.0054296619689
-0.3327000000000001,-190.42014096183394
-0.3337,-191.9763233916855
-0.3347000000000001,-192.966621301591
-0.3357,-193.9569192114965
-0.3367000000000001,-194.80574599141553
-0.3377,-195.51310164134807
-0.3387000000000001,-196.6448706812401
-0.3397,-197.63516859114563
-0.3407000000000001,-198.90840876102413
-0.3417,-200.4645911908757
-0.3427000000000001,-202.02077362072723
-0.3437,-203.71842718056527
-0.3447000000000001,-205.84049413036286
-0.3457,-207.3966765602144
-0.3467000000000001,-209.0943301200524
-0.3477,-210.50904141991748
-0.3487000000000001,-211.782281589796
-0.3497,-212.914050629688
-0.3507000000000001,-214.04581966958003
-0.3517,-215.03611757948556
-0.3527000000000001,-216.3093577493641
-0.3537,-217.72406904922914
-0.3547000000000001,-219.28025147908068
-0.3557,-221.11937616890526
-0.35670000000000013,-222.9585008587298
-0.3577,-225.08056780852735
-0.35870000000000013,-226.91969249835188
-0.3597,-228.75881718817644
-0.36070000000000013,-230.45647074801445
-0.3617,-231.729710917893
-0.3626999999999999,-233.1444222177581
-0.3637,-234.4176623876366
-0.3646999999999999,-235.54943142752862
-0.3657,-237.24708498736666
-0.3666999999999999,-238.5203251572452
-0.3677,-240.50092097705624
-0.3686999999999999,-242.62298792685377
-0.36970000000000003,-244.60358374666484
-0.3706999999999999,-246.8671218264489
-0.37170000000000003,-248.9891887762465
-0.3726999999999999,-251.111255726044
-0.37370000000000003,-253.09185154585506
-0.3746999999999999,-254.78950510569314
-0.37570000000000003,-256.4871586655312
-0.3766999999999999,-257.90186996539614
-0.37770000000000004,-259.17511013527474
-0.3786999999999999,-260.8727636951128
-0.37970000000000004,-262.57041725495077
-0.3806999999999999,-264.55101307476184
-0.38170000000000004,-266.6730800245594
-0.38269999999999993,-268.93661810434344
-0.38370000000000004,-271.05868505414105
-0.38469999999999993,-273.7466365238846
-0.38570000000000004,-275.86870347368216
-0.38669999999999993,-275.44429008372265
-0.38570000000000004,-269.64397375427603
-0.38469999999999993,-263.98512855481584
-0.38370000000000004,-258.60922561532874
-0.38269999999999993,-253.23332267584152
-0.38170000000000004,-248.14036199632744
-0.3806999999999999,-243.47181470677282
-0.37970000000000004,-239.0862096771912
-0.3786999999999999,-234.9835469075826
-0.37770000000000004,-231.0223552679605
-0.3766999999999999,-227.4855770182979
-0.37570000000000003,-224.37321215859478
-0.3746999999999999,-220.83643390893224
-0.37370000000000003,-217.58259791924263
-0.3726999999999999,-213.90434853959354
-0.37170000000000003,-210.22609915994445
-0.3706999999999999,-206.68932091028185
-0.36970000000000003,-203.01107153063276
-0.3686999999999999,-199.19135102099716
-0.3677,-196.0789861612941
-0.3666999999999999,-192.683679041618
-0.3657,-189.71278531190143
-0.3646999999999999,-186.88336271217133
-0.3637,-184.33688237241427
-0.3626999999999999,-181.93187316264374
-0.3617,-179.38539282288664
-0.36070000000000013,-176.6974413531431
-0.3597,-174.0094898833995
-0.35870000000000013,-171.18006728366944
-0.3577,-168.06770242396635
-0.35670000000000013,-164.81386643427678
-0.3557,-161.41855931460069
-0.3547000000000001,-158.5891367148706
-0.3537,-155.61824298515404
-0.3527000000000001,-152.93029151541046
-0.3517,-150.5252823056399
-0.3507000000000001,-148.26174422585584
-0.3497,-145.9982061460718
-0.3487000000000001,-144.01761032626072
-0.3477,-141.47112998650366
-0.3467000000000001,-139.3207688107088
-0.3457,-136.70355290595847
-0.3447000000000001,-133.8599831932298
-0.3437,-131.03056059349967
-0.3427000000000001,-128.01722552478716
-0.3417,-125.35756828104091
-0.3407000000000001,-122.69791103729463
-0.3397,-120.12313647154028
-0.3387000000000001,-117.90203973075215
-0.3377,-115.76582566795594
-0.3367000000000001,-113.92670097813141
-0.3357,-112.14416474030146
-0.3347000000000001,-110.00795067750525
-0.3337,-107.99906063169689
-0.3327000000000001,-105.63649276092228
-0.3317,-103.11830664716253
-0.3307000000000001,-100.54353208140815
-0.3297,-97.84143349866595
-0.3287000000000001,-95.08274646392913
-0.3277,-92.6918843671572
-0.3267000000000001,-90.07466846240689
-0.3257,-88.02333707760259
-0.3247000000000001,-86.09932970978613
-0.3237,-84.27435213296022
-0.3227000000000001,-82.61913991211814
-0.3217,-80.69513254430169
-0.3207000000000001,-78.85600785447714
-0.3197,-76.81882358267148
-0.3187000000000001,-74.49869705089283
-0.3177,-72.23515897110877
-0.3167000000000001,-69.74526708334632
-0.3157,-67.08560983960004
-0.3147000000000001,-64.90695443780788
-0.3137,-62.501945228037314
-0.3127000000000001,-60.54964363422357
-0.3117,-58.75296028339497
-0.3107000000000001,-56.97042404556503
-0.3097,-55.31521182472294
-0.3087000000000001,-53.82976495986464
-0.3077,-52.075522948032
-0.3067000000000001,-50.46275206618586
-0.30569999999999997,-48.2840966643937
-0.3047000000000001,-46.02055858460964
-0.30369999999999997,-43.70043205283099
-0.3027000000000001,-41.22468727806717
-0.30169999999999997,-38.98944342428042
-0.3007000000000001,-36.8532293614842
-0.29969999999999997,-34.8018979766799
-0.2987000000000001,-33.18912709483376
-0.29769999999999996,-31.49147353499572
-0.2967000000000001,-30.00602667013743
-0.29569999999999996,-28.789374952253496
-0.2947000000000001,-27.091721392415455
-0.29369999999999996,-25.60627452755716
-0.29270000000000007,-23.682267159740714
-0.29169999999999996,-21.67337711393236
-0.29070000000000007,-19.636192842126707
-0.28969999999999996,-17.48583166633185
-0.28870000000000007,-15.222293586547794
-0.28769999999999996,-13.217647674639037
-0.28670000000000007,-11.211587051430415
-0.28569999999999995,-9.641257508580225
-0.28470000000000006,-8.202496116617484
-0.28369999999999995,-6.806176063650692
-0.28270000000000006,-5.715433651454749
-0.28169999999999995,-4.3205283097878215
-0.28070000000000006,-2.968064307116847
-0.27969999999999995,-1.3980177065266295
-0.27870000000000006,0.43403342679859325
-0.27769999999999995,2.2663675023837886
-0.27670000000000006,4.272428125592412
-0.27569999999999995,6.540210339276065
-0.27470000000000006,8.328405422305472
-0.27369999999999994,10.248168656222326
-0.27270000000000005,11.730786098480884
-0.27169999999999994,13.127106151447675
-0.27070000000000005,14.472496597619326
-0.26969999999999994,15.618412750510005
