Jan. 7, 2025   21:05:33
Cyclic Voltammetry
File: c:/users/guazh/data/banditlqround7_x0exp772_r5/2025-01-07-exp791\exp791-2025-01-07t20_59_35-arkoh\exp791_cv_sr_100mvs_efin_-1400mv.bin
Data Source:  Experiment
Instrument Model:  CHI760E
Header: CV ran at 100 mVs
Note: 

Init E (V) = -1
High E (V) = -1
Low E (V) = -1.4
Final E (V) = -1
Init P/N = N
Scan Rate (V/s) = 0.1
Segment = 3
Sample Interval (V) = 0.001
Quiet Time (sec) = 2
Sensitivity (A/V) = 0.01
Comp R (ohm) = 1.3

Results:

Channel 1:
Segment 1:

Segment 2:

Segment 3:

Potential/V, Current/A

-1.000, -2.570e-5
-1.001, 1.537e-4
-1.002, 3.137e-4
-1.003, 4.895e-4
-1.004, 5.309e-4
-1.005, 6.754e-4
-1.006, 7.117e-4
-1.007, 7.608e-4
-1.008, 8.513e-4
-1.009, 8.245e-4
-1.010, 9.177e-4
-1.011, 9.108e-4
-1.012, 9.291e-4
-1.013, 9.947e-4
-1.014, 9.464e-4
-1.015, 1.021e-3
-1.016, 9.986e-4
-1.017, 1.005e-3
-1.018, 1.062e-3
-1.019, 1.008e-3
-1.020, 1.079e-3
-1.021, 1.055e-3
-1.022, 1.057e-3
-1.023, 1.112e-3
-1.024, 1.058e-3
-1.025, 1.126e-3
-1.026, 1.100e-3
-1.027, 1.096e-3
-1.028, 1.148e-3
-1.029, 1.086e-3
-1.030, 1.151e-3
-1.031, 1.123e-3
-1.032, 1.119e-3
-1.033, 1.168e-3
-1.034, 1.106e-3
-1.035, 1.171e-3
-1.036, 1.144e-3
-1.037, 1.138e-3
-1.038, 1.189e-3
-1.039, 1.129e-3
-1.040, 1.190e-3
-1.041, 1.161e-3
-1.042, 1.155e-3
-1.043, 1.205e-3
-1.044, 1.143e-3
-1.045, 1.203e-3
-1.046, 1.176e-3
-1.047, 1.169e-3
-1.048, 1.219e-3
-1.049, 1.157e-3
-1.050, 1.219e-3
-1.051, 1.190e-3
-1.052, 1.183e-3
-1.053, 1.231e-3
-1.054, 1.168e-3
-1.055, 1.228e-3
-1.056, 1.197e-3
-1.057, 1.189e-3
-1.058, 1.238e-3
-1.059, 1.174e-3
-1.060, 1.235e-3
-1.061, 1.205e-3
-1.062, 1.197e-3
-1.063, 1.246e-3
-1.064, 1.181e-3
-1.065, 1.242e-3
-1.066, 1.212e-3
-1.067, 1.203e-3
-1.068, 1.252e-3
-1.069, 1.188e-3
-1.070, 1.250e-3
-1.071, 1.221e-3
-1.072, 1.210e-3
-1.073, 1.257e-3
-1.074, 1.192e-3
-1.075, 1.254e-3
-1.076, 1.226e-3
-1.077, 1.214e-3
-1.078, 1.263e-3
-1.079, 1.200e-3
-1.080, 1.257e-3
-1.081, 1.230e-3
-1.082, 1.219e-3
-1.083, 1.268e-3
-1.084, 1.204e-3
-1.085, 1.261e-3
-1.086, 1.233e-3
-1.087, 1.221e-3
-1.088, 1.271e-3
-1.089, 1.207e-3
-1.090, 1.265e-3
-1.091, 1.237e-3
-1.092, 1.226e-3
-1.093, 1.277e-3
-1.094, 1.211e-3
-1.095, 1.270e-3
-1.096, 1.242e-3
-1.097, 1.229e-3
-1.098, 1.279e-3
-1.099, 1.213e-3
-1.100, 1.272e-3
-1.101, 1.244e-3
-1.102, 1.232e-3
-1.103, 1.282e-3
-1.104, 1.216e-3
-1.105, 1.276e-3
-1.106, 1.250e-3
-1.107, 1.238e-3
-1.108, 1.288e-3
-1.109, 1.221e-3
-1.110, 1.279e-3
-1.111, 1.252e-3
-1.112, 1.236e-3
-1.113, 1.288e-3
-1.114, 1.222e-3
-1.115, 1.280e-3
-1.116, 1.256e-3
-1.117, 1.243e-3
-1.118, 1.293e-3
-1.119, 1.224e-3
-1.120, 1.279e-3
-1.121, 1.256e-3
-1.122, 1.241e-3
-1.123, 1.294e-3
-1.124, 1.230e-3
-1.125, 1.286e-3
-1.126, 1.263e-3
-1.127, 1.249e-3
-1.128, 1.301e-3
-1.129, 1.237e-3
-1.130, 1.294e-3
-1.131, 1.269e-3
-1.132, 1.256e-3
-1.133, 1.308e-3
-1.134, 1.243e-3
-1.135, 1.301e-3
-1.136, 1.276e-3
-1.137, 1.263e-3
-1.138, 1.316e-3
-1.139, 1.249e-3
-1.140, 1.308e-3
-1.141, 1.283e-3
-1.142, 1.268e-3
-1.143, 1.322e-3
-1.144, 1.255e-3
-1.145, 1.314e-3
-1.146, 1.290e-3
-1.147, 1.272e-3
-1.148, 1.326e-3
-1.149, 1.260e-3
-1.150, 1.319e-3
-1.151, 1.297e-3
-1.152, 1.282e-3
-1.153, 1.338e-3
-1.154, 1.272e-3
-1.155, 1.333e-3
-1.156, 1.312e-3
-1.157, 1.296e-3
-1.158, 1.352e-3
-1.159, 1.284e-3
-1.160, 1.341e-3
-1.161, 1.322e-3
-1.162, 1.306e-3
-1.163, 1.362e-3
-1.164, 1.298e-3
-1.165, 1.354e-3
-1.166, 1.332e-3
-1.167, 1.316e-3
-1.168, 1.371e-3
-1.169, 1.308e-3
-1.170, 1.369e-3
-1.171, 1.350e-3
-1.172, 1.337e-3
-1.173, 1.395e-3
-1.174, 1.331e-3
-1.175, 1.391e-3
-1.176, 1.371e-3
-1.177, 1.357e-3
-1.178, 1.419e-3
-1.179, 1.358e-3
-1.180, 1.420e-3
-1.181, 1.397e-3
-1.182, 1.380e-3
-1.183, 1.441e-3
-1.184, 1.375e-3
-1.185, 1.436e-3
-1.186, 1.419e-3
-1.187, 1.405e-3
-1.188, 1.465e-3
-1.189, 1.403e-3
-1.190, 1.465e-3
-1.191, 1.451e-3
-1.192, 1.436e-3
-1.193, 1.498e-3
-1.194, 1.437e-3
-1.195, 1.499e-3
-1.196, 1.486e-3
-1.197, 1.470e-3
-1.198, 1.533e-3
-1.199, 1.475e-3
-1.200, 1.539e-3
-1.201, 1.527e-3
-1.202, 1.513e-3
-1.203, 1.576e-3
-1.204, 1.519e-3
-1.205, 1.584e-3
-1.206, 1.574e-3
-1.207, 1.566e-3
-1.208, 1.638e-3
-1.209, 1.581e-3
-1.210, 1.641e-3
-1.211, 1.629e-3
-1.212, 1.618e-3
-1.213, 1.681e-3
-1.214, 1.625e-3
-1.215, 1.692e-3
-1.216, 1.683e-3
-1.217, 1.677e-3
-1.218, 1.748e-3
-1.219, 1.694e-3
-1.220, 1.762e-3
-1.221, 1.757e-3
-1.222, 1.750e-3
-1.223, 1.824e-3
-1.224, 1.772e-3
-1.225, 1.842e-3
-1.226, 1.840e-3
-1.227, 1.834e-3
-1.228, 1.911e-3
-1.229, 1.868e-3
-1.230, 1.943e-3
-1.231, 1.941e-3
-1.232, 1.933e-3
-1.233, 2.008e-3
-1.234, 1.958e-3
-1.235, 2.031e-3
-1.236, 2.038e-3
-1.237, 2.039e-3
-1.238, 2.120e-3
-1.239, 2.076e-3
-1.240, 2.152e-3
-1.241, 2.160e-3
-1.242, 2.160e-3
-1.243, 2.239e-3
-1.244, 2.198e-3
-1.245, 2.274e-3
-1.246, 2.283e-3
-1.247, 2.284e-3
-1.248, 2.365e-3
-1.249, 2.323e-3
-1.250, 2.406e-3
-1.251, 2.420e-3
-1.252, 2.432e-3
-1.253, 2.524e-3
-1.254, 2.491e-3
-1.255, 2.583e-3
-1.256, 2.601e-3
-1.257, 2.615e-3
-1.258, 2.709e-3
-1.259, 2.679e-3
-1.260, 2.770e-3
-1.261, 2.783e-3
-1.262, 2.793e-3
-1.263, 2.888e-3
-1.264, 2.858e-3
-1.265, 2.955e-3
-1.266, 2.981e-3
-1.267, 3.000e-3
-1.268, 3.101e-3
-1.269, 3.078e-3
-1.270, 3.177e-3
-1.271, 3.211e-3
-1.272, 3.235e-3
-1.273, 3.342e-3
-1.274, 3.322e-3
-1.275, 3.423e-3
-1.276, 3.458e-3
-1.277, 3.482e-3
-1.278, 3.595e-3
-1.279, 3.583e-3
-1.280, 3.692e-3
-1.281, 3.733e-3
-1.282, 3.764e-3
-1.283, 3.884e-3
-1.284, 3.880e-3
-1.285, 3.993e-3
-1.286, 4.036e-3
-1.287, 4.069e-3
-1.288, 4.190e-3
-1.289, 4.186e-3
-1.290, 4.305e-3
-1.291, 4.356e-3
-1.292, 4.396e-3
-1.293, 4.524e-3
-1.294, 4.526e-3
-1.295, 4.644e-3
-1.296, 4.697e-3
-1.297, 4.746e-3
-1.298, 4.889e-3
-1.299, 4.897e-3
-1.300, 5.017e-3
-1.301, 5.074e-3
-1.302, 5.126e-3
-1.303, 5.265e-3
-1.304, 5.273e-3
-1.305, 5.408e-3
-1.306, 5.479e-3
-1.307, 5.534e-3
-1.308, 5.679e-3
-1.309, 5.698e-3
-1.310, 5.840e-3
-1.311, 5.914e-3
-1.312, 5.969e-3
-1.313, 6.121e-3
-1.314, 6.147e-3
-1.315, 6.293e-3
-1.316, 6.373e-3
-1.317, 6.441e-3
-1.318, 6.600e-3
-1.319, 6.628e-3
-1.320, 6.775e-3
-1.321, 6.861e-3
-1.322, 6.935e-3
-1.323, 7.096e-3
-1.324, 7.130e-3
-1.325, 7.282e-3
-1.326, 7.376e-3
-1.327, 7.451e-3
-1.328, 7.615e-3
-1.329, 7.656e-3
-1.330, 7.814e-3
-1.331, 7.911e-3
-1.332, 7.994e-3
-1.333, 8.168e-3
-1.334, 8.213e-3
-1.335, 8.386e-3
-1.336, 8.490e-3
-1.337, 8.569e-3
-1.338, 8.751e-3
-1.339, 8.803e-3
-1.340, 8.968e-3
-1.341, 9.075e-3
-1.342, 9.164e-3
-1.343, 9.343e-3
-1.344, 9.396e-3
-1.345, 9.569e-3
-1.346, 9.683e-3
-1.347, 9.785e-3
-1.348, 9.976e-3
-1.349, 1.004e-2
-1.350, 1.022e-2
-1.351, 1.033e-2
-1.352, 1.043e-2
-1.353, 1.063e-2
-1.354, 1.071e-2
-1.355, 1.088e-2
-1.356, 1.100e-2
-1.357, 1.110e-2
-1.358, 1.130e-2
-1.359, 1.137e-2
-1.360, 1.156e-2
-1.361, 1.170e-2
-1.362, 1.180e-2
-1.363, 1.199e-2
-1.364, 1.206e-2
-1.365, 1.226e-2
-1.366, 1.240e-2
-1.367, 1.252e-2
-1.368, 1.276e-2
-1.369, 1.284e-2
-1.370, 1.301e-2
-1.371, 1.314e-2
-1.372, 1.323e-2
-1.373, 1.341e-2
-1.374, 1.348e-2
-1.375, 1.368e-2
-1.376, 1.384e-2
-1.377, 1.395e-2
-1.378, 1.417e-2
-1.379, 1.424e-2
-1.380, 1.442e-2
-1.381, 1.457e-2
-1.382, 1.472e-2
-1.383, 1.494e-2
-1.384, 1.505e-2
-1.385, 1.524e-2
-1.386, 1.540e-2
-1.387, 1.554e-2
-1.388, 1.576e-2
-1.389, 1.585e-2
-1.390, 1.605e-2
-1.391, 1.618e-2
-1.392, 1.630e-2
-1.393, 1.650e-2
-1.394, 1.657e-2
-1.395, 1.677e-2
-1.396, 1.691e-2
-1.397, 1.709e-2
-1.398, 1.730e-2
-1.399, 1.737e-2
-1.400, 1.733e-2
-1.399, 1.705e-2
-1.398, 1.679e-2
-1.397, 1.662e-2
-1.396, 1.636e-2
-1.395, 1.621e-2
-1.394, 1.600e-2
-1.393, 1.579e-2
-1.392, 1.567e-2
-1.391, 1.539e-2
-1.390, 1.526e-2
-1.389, 1.509e-2
-1.388, 1.488e-2
-1.387, 1.478e-2
-1.386, 1.454e-2
-1.385, 1.441e-2
-1.384, 1.422e-2
-1.383, 1.399e-2
-1.382, 1.387e-2
-1.381, 1.363e-2
-1.380, 1.351e-2
-1.379, 1.334e-2
-1.378, 1.313e-2
-1.377, 1.302e-2
-1.376, 1.279e-2
-1.375, 1.267e-2
-1.374, 1.250e-2
-1.373, 1.230e-2
-1.372, 1.219e-2
-1.371, 1.197e-2
-1.370, 1.186e-2
-1.369, 1.171e-2
-1.368, 1.154e-2
-1.367, 1.145e-2
-1.366, 1.122e-2
-1.365, 1.111e-2
-1.364, 1.095e-2
-1.363, 1.076e-2
-1.362, 1.067e-2
-1.361, 1.045e-2
-1.360, 1.035e-2
-1.359, 1.019e-2
-1.358, 1.001e-2
-1.357, 9.919e-3
-1.356, 9.712e-3
-1.355, 9.618e-3
-1.354, 9.470e-3
-1.353, 9.274e-3
-1.352, 9.182e-3
-1.351, 8.974e-3
-1.350, 8.889e-3
-1.349, 8.756e-3
-1.348, 8.585e-3
-1.347, 8.507e-3
-1.346, 8.310e-3
-1.345, 8.220e-3
-1.344, 8.074e-3
-1.343, 7.898e-3
-1.342, 7.820e-3
-1.341, 7.622e-3
-1.340, 7.538e-3
-1.339, 7.407e-3
-1.338, 7.248e-3
-1.337, 7.186e-3
-1.336, 6.991e-3
-1.335, 6.899e-3
-1.334, 6.768e-3
-1.333, 6.613e-3
-1.332, 6.549e-3
-1.331, 6.362e-3
-1.330, 6.287e-3
-1.329, 6.163e-3
-1.328, 6.010e-3
-1.327, 5.956e-3
-1.326, 5.775e-3
-1.325, 5.702e-3
-1.324, 5.584e-3
-1.323, 5.431e-3
-1.322, 5.383e-3
-1.321, 5.212e-3
-1.320, 5.138e-3
-1.319, 5.022e-3
-1.318, 4.883e-3
-1.317, 4.842e-3
-1.316, 4.670e-3
-1.315, 4.609e-3
-1.314, 4.504e-3
-1.313, 4.368e-3
-1.312, 4.333e-3
-1.311, 4.168e-3
-1.310, 4.107e-3
-1.309, 4.007e-3
-1.308, 3.870e-3
-1.307, 3.836e-3
-1.306, 3.674e-3
-1.305, 3.618e-3
-1.304, 3.520e-3
-1.303, 3.393e-3
-1.302, 3.368e-3
-1.301, 3.215e-3
-1.300, 3.168e-3
-1.299, 3.079e-3
-1.298, 2.957e-3
-1.297, 2.935e-3
-1.296, 2.789e-3
-1.295, 2.744e-3
-1.294, 2.659e-3
-1.293, 2.541e-3
-1.292, 2.521e-3
-1.291, 2.373e-3
-1.290, 2.334e-3
-1.289, 2.252e-3
-1.288, 2.143e-3
-1.287, 2.132e-3
-1.286, 1.996e-3
-1.285, 1.963e-3
-1.284, 1.889e-3
-1.283, 1.782e-3
-1.282, 1.777e-3
-1.281, 1.644e-3
-1.280, 1.615e-3
-1.279, 1.548e-3
-1.278, 1.447e-3
-1.277, 1.445e-3
-1.276, 1.318e-3
-1.275, 1.296e-3
-1.274, 1.234e-3
-1.273, 1.137e-3
-1.272, 1.140e-3
-1.271, 1.016e-3
-1.270, 9.984e-4
-1.269, 9.415e-4
-1.268, 8.477e-4
-1.267, 8.559e-4
-1.266, 7.368e-4
-1.265, 7.232e-4
-1.264, 6.717e-4
-1.263, 5.836e-4
-1.262, 5.952e-4
-1.261, 4.826e-4
-1.260, 4.744e-4
-1.259, 4.257e-4
-1.258, 3.418e-4
-1.257, 3.562e-4
-1.256, 2.483e-4
-1.255, 2.444e-4
-1.254, 1.983e-4
-1.253, 1.205e-4
-1.252, 1.392e-4
-1.251, 3.782e-5
-1.250, 3.697e-5
-1.249, -2.320e-6
-1.248, -7.581e-5
-1.247, -5.308e-5
-1.246, -1.520e-4
-1.245, -1.495e-4
-1.244, -1.848e-4
-1.243, -2.571e-4
-1.242, -2.280e-4
-1.241, -3.247e-4
-1.240, -3.159e-4
-1.239, -3.465e-4
-1.238, -4.149e-4
-1.237, -3.829e-4
-1.236, -4.751e-4
-1.235, -4.640e-4
-1.234, -4.916e-4
-1.233, -5.576e-4
-1.232, -5.202e-4
-1.231, -6.085e-4
-1.230, -5.956e-4
-1.229, -6.250e-4
-1.228, -6.883e-4
-1.227, -6.476e-4
-1.226, -7.325e-4
-1.225, -7.172e-4
-1.224, -7.360e-4
-1.223, -7.959e-4
-1.222, -7.544e-4
-1.221, -8.365e-4
-1.220, -8.180e-4
-1.219, -8.350e-4
-1.218, -8.906e-4
-1.217, -8.467e-4
-1.216, -9.246e-4
-1.215, -9.041e-4
-1.214, -9.191e-4
-1.213, -9.734e-4
-1.212, -9.290e-4
-1.211, -1.005e-3
-1.210, -9.834e-4
-1.209, -9.962e-4
-1.208, -1.048e-3
-1.207, -1.001e-3
-1.206, -1.074e-3
-1.205, -1.049e-3
-1.204, -1.060e-3
-1.203, -1.111e-3
-1.202, -1.062e-3
-1.201, -1.135e-3
-1.200, -1.107e-3
-1.199, -1.115e-3
-1.198, -1.164e-3
-1.197, -1.111e-3
-1.196, -1.182e-3
-1.195, -1.155e-3
-1.194, -1.163e-3
-1.193, -1.216e-3
-1.192, -1.162e-3
-1.191, -1.230e-3
-1.190, -1.200e-3
-1.189, -1.203e-3
-1.188, -1.251e-3
-1.187, -1.193e-3
-1.186, -1.260e-3
-1.185, -1.232e-3
-1.184, -1.234e-3
-1.183, -1.282e-3
-1.182, -1.225e-3
-1.181, -1.292e-3
-1.180, -1.263e-3
-1.179, -1.264e-3
-1.178, -1.312e-3
-1.177, -1.254e-3
-1.176, -1.318e-3
-1.175, -1.286e-3
-1.174, -1.287e-3
-1.173, -1.332e-3
-1.172, -1.275e-3
-1.171, -1.340e-3
-1.170, -1.308e-3
-1.169, -1.308e-3
-1.168, -1.349e-3
-1.167, -1.289e-3
-1.166, -1.354e-3
-1.165, -1.320e-3
-1.164, -1.314e-3
-1.163, -1.358e-3
-1.162, -1.298e-3
-1.161, -1.362e-3
-1.160, -1.328e-3
-1.159, -1.328e-3
-1.158, -1.371e-3
-1.157, -1.310e-3
-1.156, -1.373e-3
-1.155, -1.340e-3
-1.154, -1.339e-3
-1.153, -1.383e-3
-1.152, -1.322e-3
-1.151, -1.384e-3
-1.150, -1.353e-3
-1.149, -1.349e-3
-1.148, -1.391e-3
-1.147, -1.328e-3
-1.146, -1.389e-3
-1.145, -1.355e-3
-1.144, -1.351e-3
-1.143, -1.394e-3
-1.142, -1.332e-3
-1.141, -1.392e-3
-1.140, -1.358e-3
-1.139, -1.352e-3
-1.138, -1.395e-3
-1.137, -1.334e-3
-1.136, -1.392e-3
-1.135, -1.359e-3
-1.134, -1.354e-3
-1.133, -1.397e-3
-1.132, -1.336e-3
-1.131, -1.397e-3
-1.130, -1.364e-3
-1.129, -1.358e-3
-1.128, -1.400e-3
-1.127, -1.338e-3
-1.126, -1.398e-3
-1.125, -1.365e-3
-1.124, -1.360e-3
-1.123, -1.403e-3
-1.122, -1.338e-3
-1.121, -1.399e-3
-1.120, -1.364e-3
-1.119, -1.357e-3
-1.118, -1.401e-3
-1.117, -1.338e-3
-1.116, -1.399e-3
-1.115, -1.367e-3
-1.114, -1.361e-3
-1.113, -1.405e-3
-1.112, -1.341e-3
-1.111, -1.400e-3
-1.110, -1.368e-3
-1.109, -1.360e-3
-1.108, -1.406e-3
-1.107, -1.345e-3
-1.106, -1.404e-3
-1.105, -1.374e-3
-1.104, -1.366e-3
-1.103, -1.410e-3
-1.102, -1.346e-3
-1.101, -1.406e-3
-1.100, -1.375e-3
-1.099, -1.367e-3
-1.098, -1.412e-3
-1.097, -1.351e-3
-1.096, -1.407e-3
-1.095, -1.371e-3
-1.094, -1.362e-3
-1.093, -1.407e-3
-1.092, -1.347e-3
-1.091, -1.411e-3
-1.090, -1.381e-3
-1.089, -1.372e-3
-1.088, -1.415e-3
-1.087, -1.353e-3
-1.086, -1.412e-3
-1.085, -1.380e-3
-1.084, -1.374e-3
-1.083, -1.420e-3
-1.082, -1.353e-3
-1.081, -1.416e-3
-1.080, -1.385e-3
-1.079, -1.378e-3
-1.078, -1.424e-3
-1.077, -1.360e-3
-1.076, -1.422e-3
-1.075, -1.394e-3
-1.074, -1.385e-3
-1.073, -1.432e-3
-1.072, -1.368e-3
-1.071, -1.429e-3
-1.070, -1.400e-3
-1.069, -1.394e-3
-1.068, -1.443e-3
-1.067, -1.380e-3
-1.066, -1.441e-3
-1.065, -1.414e-3
-1.064, -1.406e-3
-1.063, -1.452e-3
-1.062, -1.390e-3
-1.061, -1.449e-3
-1.060, -1.421e-3
-1.059, -1.416e-3
-1.058, -1.464e-3
-1.057, -1.403e-3
-1.056, -1.462e-3
-1.055, -1.436e-3
-1.054, -1.429e-3
-1.053, -1.478e-3
-1.052, -1.418e-3
-1.051, -1.480e-3
-1.050, -1.454e-3
-1.049, -1.449e-3
-1.048, -1.497e-3
-1.047, -1.437e-3
-1.046, -1.501e-3
-1.045, -1.475e-3
-1.044, -1.471e-3
-1.043, -1.521e-3
-1.042, -1.461e-3
-1.041, -1.524e-3
-1.040, -1.498e-3
-1.039, -1.494e-3
-1.038, -1.543e-3
-1.037, -1.483e-3
-1.036, -1.547e-3
-1.035, -1.524e-3
-1.034, -1.520e-3
-1.033, -1.570e-3
-1.032, -1.512e-3
-1.031, -1.577e-3
-1.030, -1.555e-3
-1.029, -1.551e-3
-1.028, -1.605e-3
-1.027, -1.548e-3
-1.026, -1.612e-3
-1.025, -1.589e-3
-1.024, -1.584e-3
-1.023, -1.633e-3
-1.022, -1.576e-3
-1.021, -1.641e-3
-1.020, -1.620e-3
-1.019, -1.618e-3
-1.018, -1.673e-3
-1.017, -1.619e-3
-1.016, -1.687e-3
-1.015, -1.666e-3
-1.014, -1.663e-3
-1.013, -1.718e-3
-1.012, -1.665e-3
-1.011, -1.731e-3
-1.010, -1.712e-3
-1.009, -1.710e-3
-1.008, -1.765e-3
-1.007, -1.711e-3
-1.006, -1.777e-3
-1.005, -1.761e-3
-1.004, -1.765e-3
-1.003, -1.826e-3
-1.002, -1.772e-3
-1.001, -1.842e-3
