Aug. 31, 2024   04:30:31
Linear Sweep Voltammetry
File: c:/users/guazh/data/20240829_batch_215_500/2024-08-29-exp226\1acid_1ac-2024-08-31t04_27_25-lsvinphos\1acid_1ac_lsv_50mvs_efin_-2100mv.bin
Data Source:  Experiment
Instrument Model:  CHI760E
Header: LSV ran at 50 mVs with Efin at -2100mV
Note: 

Init E (V) = -0.6
Final E (V) = -2.1
Scan Rate (V/s) = 0.05
Sample Interval (V) = 0.001
Quiet Time (sec) = 2
Sensitivity (A/V) = 1e-4
Comp R (ohm) = 7.9

Results:

Channel 1:
Ep = -1.950V
ip = 6.852e-4A
Ah = 9.680e-4C

Potential/V, Current/A

-0.600, 4.689e-6
-0.601, 4.814e-6
-0.602, 4.882e-6
-0.603, 4.929e-6
-0.604, 4.973e-6
-0.605, 5.012e-6
-0.606, 5.050e-6
-0.607, 5.086e-6
-0.608, 5.120e-6
-0.609, 5.155e-6
-0.610, 5.187e-6
-0.611, 5.221e-6
-0.612, 5.256e-6
-0.613, 5.287e-6
-0.614, 5.321e-6
-0.615, 5.354e-6
-0.616, 5.386e-6
-0.617, 5.418e-6
-0.618, 5.450e-6
-0.619, 5.482e-6
-0.620, 5.514e-6
-0.621, 5.547e-6
-0.622, 5.579e-6
-0.623, 5.611e-6
-0.624, 5.645e-6
-0.625, 5.675e-6
-0.626, 5.706e-6
-0.627, 5.740e-6
-0.628, 5.773e-6
-0.629, 5.806e-6
-0.630, 5.839e-6
-0.631, 5.870e-6
-0.632, 5.901e-6
-0.633, 5.932e-6
-0.634, 5.962e-6
-0.635, 5.996e-6
-0.636, 6.028e-6
-0.637, 6.059e-6
-0.638, 6.093e-6
-0.639, 6.124e-6
-0.640, 6.156e-6
-0.641, 6.188e-6
-0.642, 6.217e-6
-0.643, 6.249e-6
-0.644, 6.282e-6
-0.645, 6.314e-6
-0.646, 6.347e-6
-0.647, 6.379e-6
-0.648, 6.411e-6
-0.649, 6.444e-6
-0.650, 6.475e-6
-0.651, 6.508e-6
-0.652, 6.539e-6
-0.653, 6.572e-6
-0.654, 6.606e-6
-0.655, 6.636e-6
-0.656, 6.668e-6
-0.657, 6.700e-6
-0.658, 6.729e-6
-0.659, 6.763e-6
-0.660, 6.794e-6
-0.661, 6.824e-6
-0.662, 6.856e-6
-0.663, 6.884e-6
-0.664, 6.916e-6
-0.665, 6.946e-6
-0.666, 6.980e-6
-0.667, 7.009e-6
-0.668, 7.038e-6
-0.669, 7.068e-6
-0.670, 7.098e-6
-0.671, 7.129e-6
-0.672, 7.157e-6
-0.673, 7.186e-6
-0.674, 7.216e-6
-0.675, 7.245e-6
-0.676, 7.272e-6
-0.677, 7.299e-6
-0.678, 7.328e-6
-0.679, 7.355e-6
-0.680, 7.383e-6
-0.681, 7.410e-6
-0.682, 7.437e-6
-0.683, 7.464e-6
-0.684, 7.493e-6
-0.685, 7.518e-6
-0.686, 7.543e-6
-0.687, 7.570e-6
-0.688, 7.594e-6
-0.689, 7.623e-6
-0.690, 7.647e-6
-0.691, 7.672e-6
-0.692, 7.698e-6
-0.693, 7.722e-6
-0.694, 7.749e-6
-0.695, 7.772e-6
-0.696, 7.794e-6
-0.697, 7.818e-6
-0.698, 7.841e-6
-0.699, 7.866e-6
-0.700, 7.888e-6
-0.701, 7.911e-6
-0.702, 7.933e-6
-0.703, 7.953e-6
-0.704, 7.976e-6
-0.705, 7.998e-6
-0.706, 8.018e-6
-0.707, 8.036e-6
-0.708, 8.055e-6
-0.709, 8.075e-6
-0.710, 8.095e-6
-0.711, 8.111e-6
-0.712, 8.128e-6
-0.713, 8.146e-6
-0.714, 8.162e-6
-0.715, 8.180e-6
-0.716, 8.199e-6
-0.717, 8.216e-6
-0.718, 8.233e-6
-0.719, 8.250e-6
-0.720, 8.265e-6
-0.721, 8.280e-6
-0.722, 8.294e-6
-0.723, 8.308e-6
-0.724, 8.321e-6
-0.725, 8.331e-6
-0.726, 8.344e-6
-0.727, 8.355e-6
-0.728, 8.365e-6
-0.729, 8.376e-6
-0.730, 8.386e-6
-0.731, 8.397e-6
-0.732, 8.407e-6
-0.733, 8.417e-6
-0.734, 8.426e-6
-0.735, 8.434e-6
-0.736, 8.442e-6
-0.737, 8.451e-6
-0.738, 8.458e-6
-0.739, 8.466e-6
-0.740, 8.472e-6
-0.741, 8.479e-6
-0.742, 8.488e-6
-0.743, 8.493e-6
-0.744, 8.496e-6
-0.745, 8.500e-6
-0.746, 8.503e-6
-0.747, 8.508e-6
-0.748, 8.512e-6
-0.749, 8.515e-6
-0.750, 8.515e-6
-0.751, 8.519e-6
-0.752, 8.521e-6
-0.753, 8.523e-6
-0.754, 8.524e-6
-0.755, 8.524e-6
-0.756, 8.526e-6
-0.757, 8.525e-6
-0.758, 8.526e-6
-0.759, 8.525e-6
-0.760, 8.522e-6
-0.761, 8.524e-6
-0.762, 8.521e-6
-0.763, 8.520e-6
-0.764, 8.518e-6
-0.765, 8.517e-6
-0.766, 8.515e-6
-0.767, 8.513e-6
-0.768, 8.511e-6
-0.769, 8.508e-6
-0.770, 8.502e-6
-0.771, 8.497e-6
-0.772, 8.493e-6
-0.773, 8.489e-6
-0.774, 8.485e-6
-0.775, 8.479e-6
-0.776, 8.473e-6
-0.777, 8.467e-6
-0.778, 8.460e-6
-0.779, 8.456e-6
-0.780, 8.449e-6
-0.781, 8.444e-6
-0.782, 8.438e-6
-0.783, 8.431e-6
-0.784, 8.425e-6
-0.785, 8.416e-6
-0.786, 8.408e-6
-0.787, 8.404e-6
-0.788, 8.395e-6
-0.789, 8.387e-6
-0.790, 8.379e-6
-0.791, 8.371e-6
-0.792, 8.364e-6
-0.793, 8.358e-6
-0.794, 8.350e-6
-0.795, 8.342e-6
-0.796, 8.333e-6
-0.797, 8.326e-6
-0.798, 8.316e-6
-0.799, 8.307e-6
-0.800, 8.299e-6
-0.801, 8.290e-6
-0.802, 8.280e-6
-0.803, 8.272e-6
-0.804, 8.264e-6
-0.805, 8.254e-6
-0.806, 8.245e-6
-0.807, 8.237e-6
-0.808, 8.227e-6
-0.809, 8.219e-6
-0.810, 8.208e-6
-0.811, 8.199e-6
-0.812, 8.190e-6
-0.813, 8.180e-6
-0.814, 8.171e-6
-0.815, 8.162e-6
-0.816, 8.153e-6
-0.817, 8.145e-6
-0.818, 8.132e-6
-0.819, 8.128e-6
-0.820, 8.121e-6
-0.821, 8.108e-6
-0.822, 8.100e-6
-0.823, 8.090e-6
-0.824, 8.080e-6
-0.825, 8.072e-6
-0.826, 8.064e-6
-0.827, 8.056e-6
-0.828, 8.047e-6
-0.829, 8.037e-6
-0.830, 8.028e-6
-0.831, 8.018e-6
-0.832, 8.013e-6
-0.833, 8.004e-6
-0.834, 7.995e-6
-0.835, 7.987e-6
-0.836, 7.979e-6
-0.837, 7.970e-6
-0.838, 7.964e-6
-0.839, 7.959e-6
-0.840, 7.949e-6
-0.841, 7.941e-6
-0.842, 7.932e-6
-0.843, 7.924e-6
-0.844, 7.918e-6
-0.845, 7.911e-6
-0.846, 7.904e-6
-0.847, 7.898e-6
-0.848, 7.890e-6
-0.849, 7.880e-6
-0.850, 7.870e-6
-0.851, 7.866e-6
-0.852, 7.860e-6
-0.853, 7.852e-6
-0.854, 7.846e-6
-0.855, 7.839e-6
-0.856, 7.832e-6
-0.857, 7.827e-6
-0.858, 7.819e-6
-0.859, 7.814e-6
-0.860, 7.807e-6
-0.861, 7.800e-6
-0.862, 7.794e-6
-0.863, 7.788e-6
-0.864, 7.783e-6
-0.865, 7.776e-6
-0.866, 7.771e-6
-0.867, 7.767e-6
-0.868, 7.762e-6
-0.869, 7.756e-6
-0.870, 7.751e-6
-0.871, 7.748e-6
-0.872, 7.742e-6
-0.873, 7.736e-6
-0.874, 7.731e-6
-0.875, 7.727e-6
-0.876, 7.722e-6
-0.877, 7.718e-6
-0.878, 7.714e-6
-0.879, 7.709e-6
-0.880, 7.707e-6
-0.881, 7.702e-6
-0.882, 7.699e-6
-0.883, 7.693e-6
-0.884, 7.690e-6
-0.885, 7.683e-6
-0.886, 7.681e-6
-0.887, 7.678e-6
-0.888, 7.675e-6
-0.889, 7.674e-6
-0.890, 7.670e-6
-0.891, 7.665e-6
-0.892, 7.661e-6
-0.893, 7.657e-6
-0.894, 7.656e-6
-0.895, 7.653e-6
-0.896, 7.652e-6
-0.897, 7.650e-6
-0.898, 7.646e-6
-0.899, 7.645e-6
-0.900, 7.642e-6
-0.901, 7.641e-6
-0.902, 7.639e-6
-0.903, 7.637e-6
-0.904, 7.634e-6
-0.905, 7.632e-6
-0.906, 7.631e-6
-0.907, 7.632e-6
-0.908, 7.629e-6
-0.909, 7.628e-6
-0.910, 7.626e-6
-0.911, 7.625e-6
-0.912, 7.624e-6
-0.913, 7.623e-6
-0.914, 7.622e-6
-0.915, 7.620e-6
-0.916, 7.620e-6
-0.917, 7.620e-6
-0.918, 7.620e-6
-0.919, 7.618e-6
-0.920, 7.617e-6
-0.921, 7.619e-6
-0.922, 7.620e-6
-0.923, 7.619e-6
-0.924, 7.620e-6
-0.925, 7.620e-6
-0.926, 7.621e-6
-0.927, 7.620e-6
-0.928, 7.621e-6
-0.929, 7.623e-6
-0.930, 7.623e-6
-0.931, 7.623e-6
-0.932, 7.622e-6
-0.933, 7.621e-6
-0.934, 7.623e-6
-0.935, 7.624e-6
-0.936, 7.624e-6
-0.937, 7.625e-6
-0.938, 7.626e-6
-0.939, 7.632e-6
-0.940, 7.633e-6
-0.941, 7.633e-6
-0.942, 7.633e-6
-0.943, 7.632e-6
-0.944, 7.632e-6
-0.945, 7.633e-6
-0.946, 7.632e-6
-0.947, 7.635e-6
-0.948, 7.636e-6
-0.949, 7.637e-6
-0.950, 7.638e-6
-0.951, 7.638e-6
-0.952, 7.642e-6
-0.953, 7.643e-6
-0.954, 7.643e-6
-0.955, 7.642e-6
-0.956, 7.643e-6
-0.957, 7.645e-6
-0.958, 7.646e-6
-0.959, 7.648e-6
-0.960, 7.650e-6
-0.961, 7.653e-6
-0.962, 7.653e-6
-0.963, 7.655e-6
-0.964, 7.656e-6
-0.965, 7.656e-6
-0.966, 7.657e-6
-0.967, 7.659e-6
-0.968, 7.660e-6
-0.969, 7.663e-6
-0.970, 7.664e-6
-0.971, 7.666e-6
-0.972, 7.668e-6
-0.973, 7.674e-6
-0.974, 7.676e-6
-0.975, 7.677e-6
-0.976, 7.679e-6
-0.977, 7.680e-6
-0.978, 7.681e-6
-0.979, 7.685e-6
-0.980, 7.685e-6
-0.981, 7.685e-6
-0.982, 7.688e-6
-0.983, 7.689e-6
-0.984, 7.691e-6
-0.985, 7.696e-6
-0.986, 7.698e-6
-0.987, 7.702e-6
-0.988, 7.703e-6
-0.989, 7.706e-6
-0.990, 7.709e-6
-0.991, 7.709e-6
-0.992, 7.712e-6
-0.993, 7.715e-6
-0.994, 7.716e-6
-0.995, 7.720e-6
-0.996, 7.722e-6
-0.997, 7.723e-6
-0.998, 7.727e-6
-0.999, 7.732e-6
-1.000, 7.734e-6
-1.001, 7.735e-6
-1.002, 7.737e-6
-1.003, 7.741e-6
-1.004, 7.743e-6
-1.005, 7.747e-6
-1.006, 7.750e-6
-1.007, 7.754e-6
-1.008, 7.756e-6
-1.009, 7.760e-6
-1.010, 7.763e-6
-1.011, 7.766e-6
-1.012, 7.771e-6
-1.013, 7.773e-6
-1.014, 7.778e-6
-1.015, 7.783e-6
-1.016, 7.785e-6
-1.017, 7.790e-6
-1.018, 7.794e-6
-1.019, 7.797e-6
-1.020, 7.802e-6
-1.021, 7.806e-6
-1.022, 7.810e-6
-1.023, 7.812e-6
-1.024, 7.819e-6
-1.025, 7.822e-6
-1.026, 7.827e-6
-1.027, 7.832e-6
-1.028, 7.835e-6
-1.029, 7.840e-6
-1.030, 7.848e-6
-1.031, 7.850e-6
-1.032, 7.855e-6
-1.033, 7.860e-6
-1.034, 7.864e-6
-1.035, 7.869e-6
-1.036, 7.875e-6
-1.037, 7.879e-6
-1.038, 7.886e-6
-1.039, 7.889e-6
-1.040, 7.896e-6
-1.041, 7.904e-6
-1.042, 7.909e-6
-1.043, 7.914e-6
-1.044, 7.920e-6
-1.045, 7.926e-6
-1.046, 7.933e-6
-1.047, 7.938e-6
-1.048, 7.943e-6
-1.049, 7.950e-6
-1.050, 7.959e-6
-1.051, 7.965e-6
-1.052, 7.971e-6
-1.053, 7.975e-6
-1.054, 7.981e-6
-1.055, 7.989e-6
-1.056, 7.994e-6
-1.057, 8.002e-6
-1.058, 8.007e-6
-1.059, 8.016e-6
-1.060, 8.022e-6
-1.061, 8.029e-6
-1.062, 8.039e-6
-1.063, 8.047e-6
-1.064, 8.052e-6
-1.065, 8.061e-6
-1.066, 8.068e-6
-1.067, 8.076e-6
-1.068, 8.083e-6
-1.069, 8.092e-6
-1.070, 8.100e-6
-1.071, 8.107e-6
-1.072, 8.118e-6
-1.073, 8.128e-6
-1.074, 8.135e-6
-1.075, 8.146e-6
-1.076, 8.157e-6
-1.077, 8.167e-6
-1.078, 8.177e-6
-1.079, 8.188e-6
-1.080, 8.198e-6
-1.081, 8.208e-6
-1.082, 8.220e-6
-1.083, 8.232e-6
-1.084, 8.242e-6
-1.085, 8.254e-6
-1.086, 8.266e-6
-1.087, 8.276e-6
-1.088, 8.288e-6
-1.089, 8.299e-6
-1.090, 8.309e-6
-1.091, 8.322e-6
-1.092, 8.334e-6
-1.093, 8.345e-6
-1.094, 8.358e-6
-1.095, 8.371e-6
-1.096, 8.383e-6
-1.097, 8.398e-6
-1.098, 8.409e-6
-1.099, 8.422e-6
-1.100, 8.438e-6
-1.101, 8.454e-6
-1.102, 8.466e-6
-1.103, 8.485e-6
-1.104, 8.506e-6
-1.105, 8.511e-6
-1.106, 8.521e-6
-1.107, 8.538e-6
-1.108, 8.551e-6
-1.109, 8.564e-6
-1.110, 8.577e-6
-1.111, 8.589e-6
-1.112, 8.604e-6
-1.113, 8.619e-6
-1.114, 8.634e-6
-1.115, 8.649e-6
-1.116, 8.663e-6
-1.117, 8.679e-6
-1.118, 8.698e-6
-1.119, 8.709e-6
-1.120, 8.724e-6
-1.121, 8.740e-6
-1.122, 8.753e-6
-1.123, 8.771e-6
-1.124, 8.787e-6
-1.125, 8.804e-6
-1.126, 8.821e-6
-1.127, 8.840e-6
-1.128, 8.854e-6
-1.129, 8.869e-6
-1.130, 8.889e-6
-1.131, 8.910e-6
-1.132, 8.928e-6
-1.133, 8.946e-6
-1.134, 8.963e-6
-1.135, 8.981e-6
-1.136, 9.000e-6
-1.137, 9.022e-6
-1.138, 9.038e-6
-1.139, 9.058e-6
-1.140, 9.079e-6
-1.141, 9.097e-6
-1.142, 9.117e-6
-1.143, 9.134e-6
-1.144, 9.151e-6
-1.145, 9.172e-6
-1.146, 9.191e-6
-1.147, 9.210e-6
-1.148, 9.231e-6
-1.149, 9.251e-6
-1.150, 9.277e-6
-1.151, 9.297e-6
-1.152, 9.318e-6
-1.153, 9.339e-6
-1.154, 9.359e-6
-1.155, 9.381e-6
-1.156, 9.403e-6
-1.157, 9.424e-6
-1.158, 9.451e-6
-1.159, 9.475e-6
-1.160, 9.496e-6
-1.161, 9.519e-6
-1.162, 9.540e-6
-1.163, 9.567e-6
-1.164, 9.591e-6
-1.165, 9.615e-6
-1.166, 9.640e-6
-1.167, 9.664e-6
-1.168, 9.686e-6
-1.169, 9.710e-6
-1.170, 9.739e-6
-1.171, 9.764e-6
-1.172, 9.787e-6
-1.173, 9.809e-6
-1.174, 9.833e-6
-1.175, 9.855e-6
-1.176, 9.880e-6
-1.177, 9.905e-6
-1.178, 9.934e-6
-1.179, 9.958e-6
-1.180, 9.979e-6
-1.181, 1.000e-5
-1.182, 1.003e-5
-1.183, 1.005e-5
-1.184, 1.008e-5
-1.185, 1.010e-5
-1.186, 1.012e-5
-1.187, 1.015e-5
-1.188, 1.018e-5
-1.189, 1.021e-5
-1.190, 1.023e-5
-1.191, 1.027e-5
-1.192, 1.029e-5
-1.193, 1.032e-5
-1.194, 1.034e-5
-1.195, 1.037e-5
-1.196, 1.040e-5
-1.197, 1.043e-5
-1.198, 1.046e-5
-1.199, 1.049e-5
-1.200, 1.052e-5
-1.201, 1.055e-5
-1.202, 1.058e-5
-1.203, 1.061e-5
-1.204, 1.063e-5
-1.205, 1.066e-5
-1.206, 1.069e-5
-1.207, 1.073e-5
-1.208, 1.076e-5
-1.209, 1.078e-5
-1.210, 1.080e-5
-1.211, 1.083e-5
-1.212, 1.086e-5
-1.213, 1.089e-5
-1.214, 1.093e-5
-1.215, 1.096e-5
-1.216, 1.099e-5
-1.217, 1.102e-5
-1.218, 1.105e-5
-1.219, 1.108e-5
-1.220, 1.110e-5
-1.221, 1.113e-5
-1.222, 1.117e-5
-1.223, 1.119e-5
-1.224, 1.123e-5
-1.225, 1.126e-5
-1.226, 1.130e-5
-1.227, 1.133e-5
-1.228, 1.136e-5
-1.229, 1.140e-5
-1.230, 1.144e-5
-1.231, 1.147e-5
-1.232, 1.150e-5
-1.233, 1.153e-5
-1.234, 1.156e-5
-1.235, 1.160e-5
-1.236, 1.164e-5
-1.237, 1.168e-5
-1.238, 1.171e-5
-1.239, 1.174e-5
-1.240, 1.178e-5
-1.241, 1.181e-5
-1.242, 1.185e-5
-1.243, 1.188e-5
-1.244, 1.191e-5
-1.245, 1.195e-5
-1.246, 1.198e-5
-1.247, 1.201e-5
-1.248, 1.204e-5
-1.249, 1.206e-5
-1.250, 1.209e-5
-1.251, 1.213e-5
-1.252, 1.217e-5
-1.253, 1.219e-5
-1.254, 1.223e-5
-1.255, 1.226e-5
-1.256, 1.229e-5
-1.257, 1.233e-5
-1.258, 1.237e-5
-1.259, 1.240e-5
-1.260, 1.244e-5
-1.261, 1.248e-5
-1.262, 1.251e-5
-1.263, 1.255e-5
-1.264, 1.260e-5
-1.265, 1.263e-5
-1.266, 1.266e-5
-1.267, 1.268e-5
-1.268, 1.271e-5
-1.269, 1.275e-5
-1.270, 1.278e-5
-1.271, 1.282e-5
-1.272, 1.287e-5
-1.273, 1.291e-5
-1.274, 1.295e-5
-1.275, 1.300e-5
-1.276, 1.305e-5
-1.277, 1.310e-5
-1.278, 1.314e-5
-1.279, 1.317e-5
-1.280, 1.321e-5
-1.281, 1.326e-5
-1.282, 1.328e-5
-1.283, 1.330e-5
-1.284, 1.334e-5
-1.285, 1.338e-5
-1.286, 1.343e-5
-1.287, 1.346e-5
-1.288, 1.350e-5
-1.289, 1.354e-5
-1.290, 1.356e-5
-1.291, 1.360e-5
-1.292, 1.363e-5
-1.293, 1.366e-5
-1.294, 1.368e-5
-1.295, 1.371e-5
-1.296, 1.375e-5
-1.297, 1.377e-5
-1.298, 1.379e-5
-1.299, 1.381e-5
-1.300, 1.384e-5
-1.301, 1.387e-5
-1.302, 1.390e-5
-1.303, 1.394e-5
-1.304, 1.397e-5
-1.305, 1.401e-5
-1.306, 1.405e-5
-1.307, 1.409e-5
-1.308, 1.412e-5
-1.309, 1.416e-5
-1.310, 1.422e-5
-1.311, 1.427e-5
-1.312, 1.432e-5
-1.313, 1.436e-5
-1.314, 1.442e-5
-1.315, 1.448e-5
-1.316, 1.455e-5
-1.317, 1.464e-5
-1.318, 1.473e-5
-1.319, 1.482e-5
-1.320, 1.490e-5
-1.321, 1.496e-5
-1.322, 1.502e-5
-1.323, 1.509e-5
-1.324, 1.512e-5
-1.325, 1.513e-5
-1.326, 1.512e-5
-1.327, 1.511e-5
-1.328, 1.514e-5
-1.329, 1.519e-5
-1.330, 1.523e-5
-1.331, 1.526e-5
-1.332, 1.528e-5
-1.333, 1.533e-5
-1.334, 1.538e-5
-1.335, 1.544e-5
-1.336, 1.548e-5
-1.337, 1.550e-5
-1.338, 1.553e-5
-1.339, 1.557e-5
-1.340, 1.562e-5
-1.341, 1.566e-5
-1.342, 1.570e-5
-1.343, 1.574e-5
-1.344, 1.579e-5
-1.345, 1.583e-5
-1.346, 1.588e-5
-1.347, 1.592e-5
-1.348, 1.596e-5
-1.349, 1.599e-5
-1.350, 1.603e-5
-1.351, 1.608e-5
-1.352, 1.613e-5
-1.353, 1.618e-5
-1.354, 1.624e-5
-1.355, 1.629e-5
-1.356, 1.634e-5
-1.357, 1.640e-5
-1.358, 1.647e-5
-1.359, 1.656e-5
-1.360, 1.665e-5
-1.361, 1.672e-5
-1.362, 1.678e-5
-1.363, 1.684e-5
-1.364, 1.690e-5
-1.365, 1.697e-5
-1.366, 1.705e-5
-1.367, 1.706e-5
-1.368, 1.709e-5
-1.369, 1.713e-5
-1.370, 1.718e-5
-1.371, 1.723e-5
-1.372, 1.729e-5
-1.373, 1.737e-5
-1.374, 1.744e-5
-1.375, 1.751e-5
-1.376, 1.756e-5
-1.377, 1.761e-5
-1.378, 1.769e-5
-1.379, 1.776e-5
-1.380, 1.784e-5
-1.381, 1.791e-5
-1.382, 1.800e-5
-1.383, 1.808e-5
-1.384, 1.817e-5
-1.385, 1.825e-5
-1.386, 1.835e-5
-1.387, 1.845e-5
-1.388, 1.854e-5
-1.389, 1.862e-5
-1.390, 1.870e-5
-1.391, 1.876e-5
-1.392, 1.882e-5
-1.393, 1.887e-5
-1.394, 1.897e-5
-1.395, 1.911e-5
-1.396, 1.923e-5
-1.397, 1.928e-5
-1.398, 1.932e-5
-1.399, 1.938e-5
-1.400, 1.946e-5
-1.401, 1.954e-5
-1.402, 1.963e-5
-1.403, 1.969e-5
-1.404, 1.971e-5
-1.405, 1.975e-5
-1.406, 1.982e-5
-1.407, 1.989e-5
-1.408, 1.996e-5
-1.409, 2.004e-5
-1.410, 2.011e-5
-1.411, 2.021e-5
-1.412, 2.032e-5
-1.413, 2.042e-5
-1.414, 2.048e-5
-1.415, 2.055e-5
-1.416, 2.066e-5
-1.417, 2.075e-5
-1.418, 2.084e-5
-1.419, 2.095e-5
-1.420, 2.101e-5
-1.421, 2.106e-5
-1.422, 2.111e-5
-1.423, 2.117e-5
-1.424, 2.128e-5
-1.425, 2.138e-5
-1.426, 2.145e-5
-1.427, 2.154e-5
-1.428, 2.162e-5
-1.429, 2.169e-5
-1.430, 2.177e-5
-1.431, 2.184e-5
-1.432, 2.194e-5
-1.433, 2.201e-5
-1.434, 2.206e-5
-1.435, 2.213e-5
-1.436, 2.218e-5
-1.437, 2.221e-5
-1.438, 2.223e-5
-1.439, 2.227e-5
-1.440, 2.234e-5
-1.441, 2.242e-5
-1.442, 2.252e-5
-1.443, 2.256e-5
-1.444, 2.260e-5
-1.445, 2.264e-5
-1.446, 2.267e-5
-1.447, 2.270e-5
-1.448, 2.279e-5
-1.449, 2.286e-5
-1.450, 2.292e-5
-1.451, 2.301e-5
-1.452, 2.309e-5
-1.453, 2.317e-5
-1.454, 2.327e-5
-1.455, 2.339e-5
-1.456, 2.351e-5
-1.457, 2.361e-5
-1.458, 2.370e-5
-1.459, 2.377e-5
-1.460, 2.387e-5
-1.461, 2.399e-5
-1.462, 2.411e-5
-1.463, 2.429e-5
-1.464, 2.441e-5
-1.465, 2.450e-5
-1.466, 2.456e-5
-1.467, 2.465e-5
-1.468, 2.480e-5
-1.469, 2.494e-5
-1.470, 2.505e-5
-1.471, 2.515e-5
-1.472, 2.528e-5
-1.473, 2.541e-5
-1.474, 2.551e-5
-1.475, 2.565e-5
-1.476, 2.576e-5
-1.477, 2.592e-5
-1.478, 2.602e-5
-1.479, 2.614e-5
-1.480, 2.629e-5
-1.481, 2.639e-5
-1.482, 2.652e-5
-1.483, 2.667e-5
-1.484, 2.681e-5
-1.485, 2.696e-5
-1.486, 2.706e-5
-1.487, 2.715e-5
-1.488, 2.728e-5
-1.489, 2.745e-5
-1.490, 2.761e-5
-1.491, 2.769e-5
-1.492, 2.778e-5
-1.493, 2.787e-5
-1.494, 2.799e-5
-1.495, 2.810e-5
-1.496, 2.823e-5
-1.497, 2.835e-5
-1.498, 2.848e-5
-1.499, 2.859e-5
-1.500, 2.875e-5
-1.501, 2.892e-5
-1.502, 2.910e-5
-1.503, 2.924e-5
-1.504, 2.945e-5
-1.505, 2.970e-5
-1.506, 2.982e-5
-1.507, 2.993e-5
-1.508, 3.006e-5
-1.509, 3.015e-5
-1.510, 3.023e-5
-1.511, 3.037e-5
-1.512, 3.060e-5
-1.513, 3.081e-5
-1.514, 3.092e-5
-1.515, 3.104e-5
-1.516, 3.117e-5
-1.517, 3.128e-5
-1.518, 3.144e-5
-1.519, 3.161e-5
-1.520, 3.179e-5
-1.521, 3.199e-5
-1.522, 3.220e-5
-1.523, 3.243e-5
-1.524, 3.251e-5
-1.525, 3.263e-5
-1.526, 3.274e-5
-1.527, 3.287e-5
-1.528, 3.296e-5
-1.529, 3.314e-5
-1.530, 3.345e-5
-1.531, 3.378e-5
-1.532, 3.385e-5
-1.533, 3.395e-5
-1.534, 3.404e-5
-1.535, 3.414e-5
-1.536, 3.424e-5
-1.537, 3.438e-5
-1.538, 3.456e-5
-1.539, 3.475e-5
-1.540, 3.493e-5
-1.541, 3.509e-5
-1.542, 3.525e-5
-1.543, 3.566e-5
-1.544, 3.587e-5
-1.545, 3.584e-5
-1.546, 3.596e-5
-1.547, 3.612e-5
-1.548, 3.635e-5
-1.549, 3.653e-5
-1.550, 3.671e-5
-1.551, 3.691e-5
-1.552, 3.723e-5
-1.553, 3.744e-5
-1.554, 3.773e-5
-1.555, 3.796e-5
-1.556, 3.802e-5
-1.557, 3.817e-5
-1.558, 3.827e-5
-1.559, 3.834e-5
-1.560, 3.851e-5
-1.561, 3.893e-5
-1.562, 3.884e-5
-1.563, 3.897e-5
-1.564, 3.922e-5
-1.565, 3.940e-5
-1.566, 3.973e-5
-1.567, 4.002e-5
-1.568, 4.034e-5
-1.569, 4.055e-5
-1.570, 4.063e-5
-1.571, 4.083e-5
-1.572, 4.106e-5
-1.573, 4.119e-5
-1.574, 4.130e-5
-1.575, 4.142e-5
-1.576, 4.167e-5
-1.577, 4.186e-5
-1.578, 4.211e-5
-1.579, 4.238e-5
-1.580, 4.258e-5
-1.581, 4.292e-5
-1.582, 4.307e-5
-1.583, 4.313e-5
-1.584, 4.338e-5
-1.585, 4.359e-5
-1.586, 4.388e-5
-1.587, 4.402e-5
-1.588, 4.414e-5
-1.589, 4.425e-5
-1.590, 4.441e-5
-1.591, 4.455e-5
-1.592, 4.472e-5
-1.593, 4.495e-5
-1.594, 4.520e-5
-1.595, 4.542e-5
-1.596, 4.565e-5
-1.597, 4.587e-5
-1.598, 4.609e-5
-1.599, 4.629e-5
-1.600, 4.659e-5
-1.601, 4.674e-5
-1.602, 4.700e-5
-1.603, 4.729e-5
-1.604, 4.752e-5
-1.605, 4.772e-5
-1.606, 4.802e-5
-1.607, 4.833e-5
-1.608, 4.858e-5
-1.609, 4.879e-5
-1.610, 4.899e-5
-1.611, 4.916e-5
-1.612, 4.934e-5
-1.613, 4.960e-5
-1.614, 4.984e-5
-1.615, 5.010e-5
-1.616, 5.033e-5
-1.617, 5.055e-5
-1.618, 5.081e-5
-1.619, 5.110e-5
-1.620, 5.138e-5
-1.621, 5.169e-5
-1.622, 5.200e-5
-1.623, 5.231e-5
-1.624, 5.264e-5
-1.625, 5.305e-5
-1.626, 5.353e-5
-1.627, 5.384e-5
-1.628, 5.414e-5
-1.629, 5.442e-5
-1.630, 5.474e-5
-1.631, 5.512e-5
-1.632, 5.553e-5
-1.633, 5.591e-5
-1.634, 5.624e-5
-1.635, 5.658e-5
-1.636, 5.689e-5
-1.637, 5.728e-5
-1.638, 5.767e-5
-1.639, 5.806e-5
-1.640, 5.844e-5
-1.641, 5.885e-5
-1.642, 5.928e-5
-1.643, 5.981e-5
-1.644, 6.028e-5
-1.645, 6.066e-5
-1.646, 6.100e-5
-1.647, 6.128e-5
-1.648, 6.154e-5
-1.649, 6.187e-5
-1.650, 6.225e-5
-1.651, 6.267e-5
-1.652, 6.309e-5
-1.653, 6.357e-5
-1.654, 6.400e-5
-1.655, 6.442e-5
-1.656, 6.493e-5
-1.657, 6.547e-5
-1.658, 6.590e-5
-1.659, 6.637e-5
-1.660, 6.681e-5
-1.661, 6.714e-5
-1.662, 6.757e-5
-1.663, 6.795e-5
-1.664, 6.842e-5
-1.665, 6.886e-5
-1.666, 6.936e-5
-1.667, 6.993e-5
-1.668, 7.049e-5
-1.669, 7.106e-5
-1.670, 7.156e-5
-1.671, 7.212e-5
-1.672, 7.268e-5
-1.673, 7.337e-5
-1.674, 7.396e-5
-1.675, 7.545e-5
-1.676, 7.644e-5
-1.677, 7.693e-5
-1.678, 7.719e-5
-1.679, 7.739e-5
-1.680, 7.780e-5
-1.681, 7.832e-5
-1.682, 7.885e-5
-1.683, 7.940e-5
-1.684, 8.006e-5
-1.685, 8.057e-5
-1.686, 8.106e-5
-1.687, 8.172e-5
-1.688, 8.232e-5
-1.689, 8.289e-5
-1.690, 8.353e-5
-1.691, 8.419e-5
-1.692, 8.487e-5
-1.693, 8.548e-5
-1.694, 8.621e-5
-1.695, 8.687e-5
-1.696, 8.757e-5
-1.697, 8.823e-5
-1.698, 8.906e-5
-1.699, 8.957e-5
-1.700, 9.036e-5
-1.701, 9.139e-5
-1.702, 9.194e-5
-1.703, 9.263e-5
-1.704, 9.342e-5
-1.705, 9.423e-5
-1.706, 9.487e-5
-1.707, 9.578e-5
-1.708, 9.668e-5
-1.709, 9.738e-5
-1.710, 9.811e-5
-1.711, 9.892e-5
-1.712, 9.988e-5
-1.713, 1.007e-4
-1.714, 1.016e-4
-1.715, 1.024e-4
-1.716, 1.033e-4
-1.717, 1.043e-4
-1.718, 1.052e-4
-1.719, 1.062e-4
-1.720, 1.071e-4
-1.721, 1.080e-4
-1.722, 1.091e-4
-1.723, 1.101e-4
-1.724, 1.113e-4
-1.725, 1.123e-4
-1.726, 1.132e-4
-1.727, 1.141e-4
-1.728, 1.151e-4
-1.729, 1.162e-4
-1.730, 1.173e-4
-1.731, 1.184e-4
-1.732, 1.195e-4
-1.733, 1.207e-4
-1.734, 1.218e-4
-1.735, 1.231e-4
-1.736, 1.244e-4
-1.737, 1.256e-4
-1.738, 1.268e-4
-1.739, 1.282e-4
-1.740, 1.295e-4
-1.741, 1.308e-4
-1.742, 1.322e-4
-1.743, 1.336e-4
-1.744, 1.350e-4
-1.745, 1.365e-4
-1.746, 1.381e-4
-1.747, 1.394e-4
-1.748, 1.410e-4
-1.749, 1.427e-4
-1.750, 1.441e-4
-1.751, 1.456e-4
-1.752, 1.472e-4
-1.753, 1.489e-4
-1.754, 1.506e-4
-1.755, 1.522e-4
-1.756, 1.539e-4
-1.757, 1.556e-4
-1.758, 1.572e-4
-1.759, 1.589e-4
-1.760, 1.606e-4
-1.761, 1.623e-4
-1.762, 1.638e-4
-1.763, 1.655e-4
-1.764, 1.674e-4
-1.765, 1.694e-4
-1.766, 1.712e-4
-1.767, 1.729e-4
-1.768, 1.747e-4
-1.769, 1.767e-4
-1.770, 1.787e-4
-1.771, 1.806e-4
-1.772, 1.826e-4
-1.773, 1.846e-4
-1.774, 1.865e-4
-1.775, 1.886e-4
-1.776, 1.908e-4
-1.777, 1.930e-4
-1.778, 1.950e-4
-1.779, 1.972e-4
-1.780, 1.993e-4
-1.781, 2.016e-4
-1.782, 2.038e-4
-1.783, 2.061e-4
-1.784, 2.083e-4
-1.785, 2.107e-4
-1.786, 2.131e-4
-1.787, 2.155e-4
-1.788, 2.179e-4
-1.789, 2.202e-4
-1.790, 2.226e-4
-1.791, 2.250e-4
-1.792, 2.275e-4
-1.793, 2.298e-4
-1.794, 2.321e-4
-1.795, 2.346e-4
-1.796, 2.374e-4
-1.797, 2.401e-4
-1.798, 2.428e-4
-1.799, 2.457e-4
-1.800, 2.483e-4
-1.801, 2.508e-4
-1.802, 2.533e-4
-1.803, 2.558e-4
-1.804, 2.585e-4
-1.805, 2.615e-4
-1.806, 2.641e-4
-1.807, 2.669e-4
-1.808, 2.698e-4
-1.809, 2.726e-4
-1.810, 2.756e-4
-1.811, 2.786e-4
-1.812, 2.816e-4
-1.813, 2.847e-4
-1.814, 2.876e-4
-1.815, 2.906e-4
-1.816, 2.938e-4
-1.817, 2.972e-4
-1.818, 3.008e-4
-1.819, 3.039e-4
-1.820, 3.067e-4
-1.821, 3.098e-4
-1.822, 3.128e-4
-1.823, 3.158e-4
-1.824, 3.190e-4
-1.825, 3.224e-4
-1.826, 3.258e-4
-1.827, 3.294e-4
-1.828, 3.328e-4
-1.829, 3.363e-4
-1.830, 3.398e-4
-1.831, 3.433e-4
-1.832, 3.469e-4
-1.833, 3.507e-4
-1.834, 3.544e-4
-1.835, 3.581e-4
-1.836, 3.617e-4
-1.837, 3.654e-4
-1.838, 3.693e-4
-1.839, 3.734e-4
-1.840, 3.775e-4
-1.841, 3.812e-4
-1.842, 3.848e-4
-1.843, 3.883e-4
-1.844, 3.921e-4
-1.845, 3.960e-4
-1.846, 4.000e-4
-1.847, 4.046e-4
-1.848, 4.091e-4
-1.849, 4.132e-4
-1.850, 4.170e-4
-1.851, 4.207e-4
-1.852, 4.246e-4
-1.853, 4.287e-4
-1.854, 4.329e-4
-1.855, 4.372e-4
-1.856, 4.415e-4
-1.857, 4.454e-4
-1.858, 4.496e-4
-1.859, 4.540e-4
-1.860, 4.580e-4
-1.861, 4.621e-4
-1.862, 4.667e-4
-1.863, 4.719e-4
-1.864, 4.767e-4
-1.865, 4.814e-4
-1.866, 4.859e-4
-1.867, 4.905e-4
-1.868, 4.954e-4
-1.869, 5.001e-4
-1.870, 5.046e-4
-1.871, 5.094e-4
-1.872, 5.142e-4
-1.873, 5.195e-4
-1.874, 5.242e-4
-1.875, 5.289e-4
-1.876, 5.338e-4
-1.877, 5.388e-4
-1.878, 5.441e-4
-1.879, 5.493e-4
-1.880, 5.545e-4
-1.881, 5.592e-4
-1.882, 5.637e-4
-1.883, 5.687e-4
-1.884, 5.739e-4
-1.885, 5.795e-4
-1.886, 5.850e-4
-1.887, 5.906e-4
-1.888, 5.955e-4
-1.889, 6.011e-4
-1.890, 6.056e-4
-1.891, 6.107e-4
-1.892, 6.164e-4
-1.893, 6.220e-4
-1.894, 6.275e-4
-1.895, 6.336e-4
-1.896, 6.392e-4
-1.897, 6.450e-4
-1.898, 6.511e-4
-1.899, 6.573e-4
-1.900, 6.634e-4
-1.901, 6.697e-4
-1.902, 6.757e-4
-1.903, 6.820e-4
-1.904, 6.884e-4
-1.905, 6.946e-4
-1.906, 7.009e-4
-1.907, 7.073e-4
-1.908, 7.137e-4
-1.909, 7.202e-4
-1.910, 7.270e-4
-1.911, 7.337e-4
-1.912, 7.405e-4
-1.913, 7.472e-4
-1.914, 7.536e-4
-1.915, 7.603e-4
-1.916, 7.670e-4
-1.917, 7.739e-4
-1.918, 7.808e-4
-1.919, 7.880e-4
-1.920, 7.950e-4
-1.921, 8.014e-4
-1.922, 8.085e-4
-1.923, 8.154e-4
-1.924, 8.225e-4
-1.925, 8.295e-4
-1.926, 8.369e-4
-1.927, 8.441e-4
-1.928, 8.515e-4
-1.929, 8.581e-4
-1.930, 8.655e-4
-1.931, 8.728e-4
-1.932, 8.803e-4
-1.933, 8.879e-4
-1.934, 8.953e-4
-1.935, 9.022e-4
-1.936, 9.093e-4
-1.937, 9.166e-4
-1.938, 9.239e-4
-1.939, 9.311e-4
-1.940, 9.379e-4
-1.941, 9.452e-4
-1.942, 9.529e-4
-1.943, 9.608e-4
-1.944, 9.685e-4
-1.945, 9.765e-4
-1.946, 9.837e-4
-1.947, 9.915e-4
-1.948, 9.995e-4
-1.949, 1.007e-3
-1.950, 1.011e-3
-1.951, 1.011e-3
-1.952, 1.011e-3
-1.953, 1.011e-3
-1.954, 1.011e-3
-1.955, 1.011e-3
-1.956, 1.011e-3
-1.957, 1.011e-3
-1.958, 1.011e-3
-1.959, 1.011e-3
-1.960, 1.011e-3
-1.961, 1.011e-3
-1.962, 1.011e-3
-1.963, 1.011e-3
-1.964, 1.011e-3
-1.965, 1.011e-3
-1.966, 1.011e-3
-1.967, 1.011e-3
-1.968, 1.011e-3
-1.969, 1.011e-3
-1.970, 1.011e-3
-1.971, 1.011e-3
-1.972, 1.011e-3
-1.973, 1.011e-3
-1.974, 1.011e-3
-1.975, 1.011e-3
-1.976, 1.011e-3
-1.977, 1.011e-3
-1.978, 1.011e-3
-1.979, 1.011e-3
-1.980, 1.011e-3
-1.981, 1.011e-3
-1.982, 1.011e-3
-1.983, 1.011e-3
-1.984, 1.011e-3
-1.985, 1.011e-3
-1.986, 1.011e-3
-1.987, 1.011e-3
-1.988, 1.011e-3
-1.989, 1.011e-3
-1.990, 1.011e-3
-1.991, 1.011e-3
-1.992, 1.011e-3
-1.993, 1.011e-3
-1.994, 1.011e-3
-1.995, 1.011e-3
-1.996, 1.011e-3
-1.997, 1.011e-3
-1.998, 1.011e-3
-1.999, 1.011e-3
-2.000, 1.011e-3
-2.001, 1.011e-3
-2.002, 1.011e-3
-2.003, 1.011e-3
-2.004, 1.011e-3
-2.005, 1.011e-3
-2.006, 1.011e-3
-2.007, 1.011e-3
-2.008, 1.011e-3
-2.009, 1.011e-3
-2.010, 1.011e-3
-2.011, 1.011e-3
-2.012, 1.011e-3
-2.013, 1.011e-3
-2.014, 1.011e-3
-2.015, 1.011e-3
-2.016, 1.011e-3
-2.017, 1.011e-3
-2.018, 1.011e-3
-2.019, 1.011e-3
-2.020, 1.011e-3
-2.021, 1.011e-3
-2.022, 1.011e-3
-2.023, 1.011e-3
-2.024, 1.011e-3
-2.025, 1.011e-3
-2.026, 1.011e-3
-2.027, 1.011e-3
-2.028, 1.011e-3
-2.029, 1.011e-3
-2.030, 1.011e-3
-2.031, 1.011e-3
-2.032, 1.011e-3
-2.033, 1.011e-3
-2.034, 1.011e-3
-2.035, 1.011e-3
-2.036, 1.011e-3
-2.037, 1.011e-3
-2.038, 1.011e-3
-2.039, 1.011e-3
-2.040, 1.011e-3
-2.041, 1.011e-3
-2.042, 1.011e-3
-2.043, 1.011e-3
-2.044, 1.011e-3
-2.045, 1.011e-3
-2.046, 1.011e-3
-2.047, 1.011e-3
-2.048, 1.011e-3
-2.049, 1.011e-3
-2.050, 1.011e-3
-2.051, 1.011e-3
-2.052, 1.011e-3
-2.053, 1.011e-3
-2.054, 1.011e-3
-2.055, 1.011e-3
-2.056, 1.011e-3
-2.057, 1.011e-3
-2.058, 1.011e-3
-2.059, 1.011e-3
-2.060, 1.011e-3
-2.061, 1.011e-3
-2.062, 1.011e-3
-2.063, 1.011e-3
-2.064, 1.011e-3
-2.065, 1.011e-3
-2.066, 1.011e-3
-2.067, 1.011e-3
-2.068, 1.011e-3
-2.069, 1.011e-3
-2.070, 1.011e-3
-2.071, 1.011e-3
-2.072, 1.011e-3
-2.073, 1.011e-3
-2.074, 1.011e-3
-2.075, 1.011e-3
-2.076, 1.011e-3
-2.077, 1.011e-3
-2.078, 1.011e-3
-2.079, 1.011e-3
-2.080, 1.011e-3
-2.081, 1.011e-3
-2.082, 1.011e-3
-2.083, 1.011e-3
-2.084, 1.011e-3
-2.085, 1.011e-3
-2.086, 1.011e-3
-2.087, 1.011e-3
-2.088, 1.011e-3
-2.089, 1.011e-3
-2.090, 1.011e-3
-2.091, 1.011e-3
-2.092, 1.011e-3
-2.093, 1.011e-3
-2.094, 1.011e-3
-2.095, 1.011e-3
-2.096, 1.011e-3
-2.097, 1.011e-3
-2.098, 1.011e-3
-2.099, 1.011e-3
