Apr. 19, 2025   02:22:32
Cyclic Voltammetry
File: c:/users/guazh/data/banditlqround7_x0exp590_r20/2025-04-16-exp1123\exp1123-2025-04-19t02_07_38-h2koh\exp1123_cv_sr_500mvs_efin_-1600mv.bin
Data Source:  Experiment
Instrument Model:  CHI760E
Header: CV ran at 500 mVs
Note: 

Init E (V) = -1
High E (V) = -1
Low E (V) = -1.6
Final E (V) = -1
Init P/N = N
Scan Rate (V/s) = 0.5
Segment = 3
Sample Interval (V) = 0.001
Quiet Time (sec) = 2
Sensitivity (A/V) = 0.01
Comp R (ohm) = 1.5

Results:

Channel 1:
Segment 1:

Segment 2:

Segment 3:

Potential/V, Current/A

-1.000, 4.024e-5
-1.001, 8.340e-5
-1.002, 9.573e-5
-1.003, 1.019e-4
-1.004, 1.111e-4
-1.005, 1.204e-4
-1.006, 1.266e-4
-1.007, 1.296e-4
-1.008, 1.266e-4
-1.009, 1.235e-4
-1.010, 1.173e-4
-1.011, 1.173e-4
-1.012, 1.235e-4
-1.013, 1.266e-4
-1.014, 1.327e-4
-1.015, 1.389e-4
-1.016, 1.358e-4
-1.017, 1.327e-4
-1.018, 1.266e-4
-1.019, 1.235e-4
-1.020, 1.235e-4
-1.021, 1.296e-4
-1.022, 1.358e-4
-1.023, 1.420e-4
-1.024, 1.389e-4
-1.025, 1.358e-4
-1.026, 1.327e-4
-1.027, 1.266e-4
-1.028, 1.296e-4
-1.029, 1.327e-4
-1.030, 1.358e-4
-1.031, 1.420e-4
-1.032, 1.420e-4
-1.033, 1.389e-4
-1.034, 1.358e-4
-1.035, 1.296e-4
-1.036, 1.296e-4
-1.037, 1.327e-4
-1.038, 1.389e-4
-1.039, 1.420e-4
-1.040, 1.451e-4
-1.041, 1.451e-4
-1.042, 1.389e-4
-1.043, 1.327e-4
-1.044, 1.296e-4
-1.045, 1.327e-4
-1.046, 1.358e-4
-1.047, 1.420e-4
-1.048, 1.451e-4
-1.049, 1.481e-4
-1.050, 1.420e-4
-1.051, 1.358e-4
-1.052, 1.327e-4
-1.053, 1.327e-4
-1.054, 1.358e-4
-1.055, 1.420e-4
-1.056, 1.481e-4
-1.057, 1.481e-4
-1.058, 1.451e-4
-1.059, 1.389e-4
-1.060, 1.358e-4
-1.061, 1.327e-4
-1.062, 1.358e-4
-1.063, 1.420e-4
-1.064, 1.451e-4
-1.065, 1.512e-4
-1.066, 1.481e-4
-1.067, 1.420e-4
-1.068, 1.389e-4
-1.069, 1.358e-4
-1.070, 1.358e-4
-1.071, 1.420e-4
-1.072, 1.451e-4
-1.073, 1.512e-4
-1.074, 1.512e-4
-1.075, 1.451e-4
-1.076, 1.420e-4
-1.077, 1.358e-4
-1.078, 1.358e-4
-1.079, 1.420e-4
-1.080, 1.451e-4
-1.081, 1.512e-4
-1.082, 1.512e-4
-1.083, 1.481e-4
-1.084, 1.420e-4
-1.085, 1.389e-4
-1.086, 1.358e-4
-1.087, 1.389e-4
-1.088, 1.451e-4
-1.089, 1.512e-4
-1.090, 1.512e-4
-1.091, 1.512e-4
-1.092, 1.451e-4
-1.093, 1.420e-4
-1.094, 1.389e-4
-1.095, 1.389e-4
-1.096, 1.420e-4
-1.097, 1.512e-4
-1.098, 1.543e-4
-1.099, 1.543e-4
-1.100, 1.481e-4
-1.101, 1.420e-4
-1.102, 1.389e-4
-1.103, 1.389e-4
-1.104, 1.420e-4
-1.105, 1.481e-4
-1.106, 1.512e-4
-1.107, 1.543e-4
-1.108, 1.512e-4
-1.109, 1.451e-4
-1.110, 1.389e-4
-1.111, 1.389e-4
-1.112, 1.420e-4
-1.113, 1.481e-4
-1.114, 1.512e-4
-1.115, 1.543e-4
-1.116, 1.512e-4
-1.117, 1.481e-4
-1.118, 1.420e-4
-1.119, 1.389e-4
-1.120, 1.420e-4
-1.121, 1.451e-4
-1.122, 1.512e-4
-1.123, 1.543e-4
-1.124, 1.574e-4
-1.125, 1.512e-4
-1.126, 1.451e-4
-1.127, 1.420e-4
-1.128, 1.389e-4
-1.129, 1.451e-4
-1.130, 1.512e-4
-1.131, 1.574e-4
-1.132, 1.574e-4
-1.133, 1.543e-4
-1.134, 1.481e-4
-1.135, 1.420e-4
-1.136, 1.420e-4
-1.137, 1.451e-4
-1.138, 1.481e-4
-1.139, 1.543e-4
-1.140, 1.574e-4
-1.141, 1.543e-4
-1.142, 1.512e-4
-1.143, 1.451e-4
-1.144, 1.420e-4
-1.145, 1.420e-4
-1.146, 1.481e-4
-1.147, 1.543e-4
-1.148, 1.574e-4
-1.149, 1.543e-4
-1.150, 1.543e-4
-1.151, 1.481e-4
-1.152, 1.420e-4
-1.153, 1.420e-4
-1.154, 1.481e-4
-1.155, 1.512e-4
-1.156, 1.574e-4
-1.157, 1.574e-4
-1.158, 1.543e-4
-1.159, 1.512e-4
-1.160, 1.451e-4
-1.161, 1.451e-4
-1.162, 1.451e-4
-1.163, 1.512e-4
-1.164, 1.574e-4
-1.165, 1.605e-4
-1.166, 1.574e-4
-1.167, 1.543e-4
-1.168, 1.481e-4
-1.169, 1.451e-4
-1.170, 1.451e-4
-1.171, 1.512e-4
-1.172, 1.574e-4
-1.173, 1.605e-4
-1.174, 1.605e-4
-1.175, 1.574e-4
-1.176, 1.512e-4
-1.177, 1.481e-4
-1.178, 1.481e-4
-1.179, 1.512e-4
-1.180, 1.543e-4
-1.181, 1.605e-4
-1.182, 1.636e-4
-1.183, 1.605e-4
-1.184, 1.543e-4
-1.185, 1.481e-4
-1.186, 1.481e-4
-1.187, 1.512e-4
-1.188, 1.543e-4
-1.189, 1.605e-4
-1.190, 1.636e-4
-1.191, 1.636e-4
-1.192, 1.574e-4
-1.193, 1.512e-4
-1.194, 1.481e-4
-1.195, 1.512e-4
-1.196, 1.574e-4
-1.197, 1.605e-4
-1.198, 1.666e-4
-1.199, 1.666e-4
-1.200, 1.605e-4
-1.201, 1.543e-4
-1.202, 1.512e-4
-1.203, 1.512e-4
-1.204, 1.543e-4
-1.205, 1.605e-4
-1.206, 1.666e-4
-1.207, 1.666e-4
-1.208, 1.636e-4
-1.209, 1.605e-4
-1.210, 1.543e-4
-1.211, 1.512e-4
-1.212, 1.574e-4
-1.213, 1.605e-4
-1.214, 1.666e-4
-1.215, 1.697e-4
-1.216, 1.697e-4
-1.217, 1.636e-4
-1.218, 1.605e-4
-1.219, 1.543e-4
-1.220, 1.574e-4
-1.221, 1.636e-4
-1.222, 1.697e-4
-1.223, 1.728e-4
-1.224, 1.697e-4
-1.225, 1.697e-4
-1.226, 1.636e-4
-1.227, 1.605e-4
-1.228, 1.605e-4
-1.229, 1.666e-4
-1.230, 1.697e-4
-1.231, 1.759e-4
-1.232, 1.759e-4
-1.233, 1.728e-4
-1.234, 1.697e-4
-1.235, 1.636e-4
-1.236, 1.636e-4
-1.237, 1.666e-4
-1.238, 1.697e-4
-1.239, 1.790e-4
-1.240, 1.790e-4
-1.241, 1.790e-4
-1.242, 1.728e-4
-1.243, 1.697e-4
-1.244, 1.666e-4
-1.245, 1.697e-4
-1.246, 1.759e-4
-1.247, 1.821e-4
-1.248, 1.851e-4
-1.249, 1.851e-4
-1.250, 1.821e-4
-1.251, 1.790e-4
-1.252, 1.728e-4
-1.253, 1.728e-4
-1.254, 1.759e-4
-1.255, 1.851e-4
-1.256, 1.882e-4
-1.257, 1.913e-4
-1.258, 1.882e-4
-1.259, 1.851e-4
-1.260, 1.821e-4
-1.261, 1.790e-4
-1.262, 1.821e-4
-1.263, 1.882e-4
-1.264, 1.944e-4
-1.265, 1.975e-4
-1.266, 1.975e-4
-1.267, 1.944e-4
-1.268, 1.882e-4
-1.269, 1.882e-4
-1.270, 1.882e-4
-1.271, 1.944e-4
-1.272, 2.006e-4
-1.273, 2.067e-4
-1.274, 2.067e-4
-1.275, 2.036e-4
-1.276, 2.006e-4
-1.277, 1.975e-4
-1.278, 1.975e-4
-1.279, 2.006e-4
-1.280, 2.098e-4
-1.281, 2.160e-4
-1.282, 2.160e-4
-1.283, 2.160e-4
-1.284, 2.098e-4
-1.285, 2.067e-4
-1.286, 2.067e-4
-1.287, 2.098e-4
-1.288, 2.160e-4
-1.289, 2.221e-4
-1.290, 2.283e-4
-1.291, 2.252e-4
-1.292, 2.252e-4
-1.293, 2.191e-4
-1.294, 2.191e-4
-1.295, 2.221e-4
-1.296, 2.283e-4
-1.297, 2.345e-4
-1.298, 2.406e-4
-1.299, 2.406e-4
-1.300, 2.376e-4
-1.301, 2.345e-4
-1.302, 2.314e-4
-1.303, 2.345e-4
-1.304, 2.406e-4
-1.305, 2.468e-4
-1.306, 2.530e-4
-1.307, 2.561e-4
-1.308, 2.561e-4
-1.309, 2.530e-4
-1.310, 2.499e-4
-1.311, 2.499e-4
-1.312, 2.530e-4
-1.313, 2.622e-4
-1.314, 2.684e-4
-1.315, 2.715e-4
-1.316, 2.746e-4
-1.317, 2.715e-4
-1.318, 2.684e-4
-1.319, 2.684e-4
-1.320, 2.715e-4
-1.321, 2.776e-4
-1.322, 2.838e-4
-1.323, 2.931e-4
-1.324, 2.961e-4
-1.325, 2.931e-4
-1.326, 2.931e-4
-1.327, 2.900e-4
-1.328, 2.931e-4
-1.329, 2.992e-4
-1.330, 3.054e-4
-1.331, 3.146e-4
-1.332, 3.177e-4
-1.333, 3.177e-4
-1.334, 3.177e-4
-1.335, 3.146e-4
-1.336, 3.177e-4
-1.337, 3.208e-4
-1.338, 3.300e-4
-1.339, 3.393e-4
-1.340, 3.455e-4
-1.341, 3.485e-4
-1.342, 3.455e-4
-1.343, 3.455e-4
-1.344, 3.455e-4
-1.345, 3.485e-4
-1.346, 3.578e-4
-1.347, 3.670e-4
-1.348, 3.732e-4
-1.349, 3.794e-4
-1.350, 3.794e-4
-1.351, 3.794e-4
-1.352, 3.763e-4
-1.353, 3.794e-4
-1.354, 3.886e-4
-1.355, 3.979e-4
-1.356, 4.071e-4
-1.357, 4.133e-4
-1.358, 4.133e-4
-1.359, 4.164e-4
-1.360, 4.133e-4
-1.361, 4.164e-4
-1.362, 4.225e-4
-1.363, 4.318e-4
-1.364, 4.441e-4
-1.365, 4.503e-4
-1.366, 4.565e-4
-1.367, 4.565e-4
-1.368, 4.565e-4
-1.369, 4.595e-4
-1.370, 4.657e-4
-1.371, 4.750e-4
-1.372, 4.873e-4
-1.373, 4.965e-4
-1.374, 5.027e-4
-1.375, 5.058e-4
-1.376, 5.058e-4
-1.377, 5.058e-4
-1.378, 5.120e-4
-1.379, 5.212e-4
-1.380, 5.335e-4
-1.381, 5.459e-4
-1.382, 5.520e-4
-1.383, 5.582e-4
-1.384, 5.582e-4
-1.385, 5.613e-4
-1.386, 5.644e-4
-1.387, 5.736e-4
-1.388, 5.859e-4
-1.389, 5.983e-4
-1.390, 6.106e-4
-1.391, 6.168e-4
-1.392, 6.168e-4
-1.393, 6.199e-4
-1.394, 6.229e-4
-1.395, 6.322e-4
-1.396, 6.445e-4
-1.397, 6.569e-4
-1.398, 6.692e-4
-1.399, 6.784e-4
-1.400, 6.815e-4
-1.401, 6.877e-4
-1.402, 6.908e-4
-1.403, 6.969e-4
-1.404, 7.093e-4
-1.405, 7.247e-4
-1.406, 7.370e-4
-1.407, 7.494e-4
-1.408, 7.555e-4
-1.409, 7.617e-4
-1.410, 7.648e-4
-1.411, 7.709e-4
-1.412, 7.833e-4
-1.413, 7.956e-4
-1.414, 8.141e-4
-1.415, 8.264e-4
-1.416, 8.357e-4
-1.417, 8.418e-4
-1.418, 8.480e-4
-1.419, 8.542e-4
-1.420, 8.665e-4
-1.421, 8.788e-4
-1.422, 8.973e-4
-1.423, 9.128e-4
-1.424, 9.251e-4
-1.425, 9.343e-4
-1.426, 9.374e-4
-1.427, 9.467e-4
-1.428, 9.559e-4
-1.429, 9.713e-4
-1.430, 9.868e-4
-1.431, 1.005e-3
-1.432, 1.021e-3
-1.433, 1.033e-3
-1.434, 1.039e-3
-1.435, 1.045e-3
-1.436, 1.058e-3
-1.437, 1.070e-3
-1.438, 1.088e-3
-1.439, 1.107e-3
-1.440, 1.122e-3
-1.441, 1.138e-3
-1.442, 1.147e-3
-1.443, 1.156e-3
-1.444, 1.169e-3
-1.445, 1.181e-3
-1.446, 1.199e-3
-1.447, 1.218e-3
-1.448, 1.236e-3
-1.449, 1.252e-3
-1.450, 1.264e-3
-1.451, 1.273e-3
-1.452, 1.286e-3
-1.453, 1.298e-3
-1.454, 1.317e-3
-1.455, 1.338e-3
-1.456, 1.360e-3
-1.457, 1.378e-3
-1.458, 1.394e-3
-1.459, 1.406e-3
-1.460, 1.418e-3
-1.461, 1.431e-3
-1.462, 1.449e-3
-1.463, 1.471e-3
-1.464, 1.492e-3
-1.465, 1.514e-3
-1.466, 1.532e-3
-1.467, 1.545e-3
-1.468, 1.557e-3
-1.469, 1.569e-3
-1.470, 1.588e-3
-1.471, 1.610e-3
-1.472, 1.634e-3
-1.473, 1.659e-3
-1.474, 1.677e-3
-1.475, 1.693e-3
-1.476, 1.708e-3
-1.477, 1.721e-3
-1.478, 1.739e-3
-1.479, 1.761e-3
-1.480, 1.785e-3
-1.481, 1.813e-3
-1.482, 1.835e-3
-1.483, 1.853e-3
-1.484, 1.872e-3
-1.485, 1.887e-3
-1.486, 1.906e-3
-1.487, 1.927e-3
-1.488, 1.952e-3
-1.489, 1.980e-3
-1.490, 2.004e-3
-1.491, 2.026e-3
-1.492, 2.047e-3
-1.493, 2.063e-3
-1.494, 2.078e-3
-1.495, 2.100e-3
-1.496, 2.128e-3
-1.497, 2.155e-3
-1.498, 2.183e-3
-1.499, 2.208e-3
-1.500, 2.229e-3
-1.501, 2.248e-3
-1.502, 2.266e-3
-1.503, 2.288e-3
-1.504, 2.312e-3
-1.505, 2.343e-3
-1.506, 2.374e-3
-1.507, 2.402e-3
-1.508, 2.430e-3
-1.509, 2.448e-3
-1.510, 2.470e-3
-1.511, 2.491e-3
-1.512, 2.516e-3
-1.513, 2.547e-3
-1.514, 2.581e-3
-1.515, 2.612e-3
-1.516, 2.639e-3
-1.517, 2.664e-3
-1.518, 2.686e-3
-1.519, 2.707e-3
-1.520, 2.732e-3
-1.521, 2.763e-3
-1.522, 2.797e-3
-1.523, 2.830e-3
-1.524, 2.864e-3
-1.525, 2.892e-3
-1.526, 2.914e-3
-1.527, 2.941e-3
-1.528, 2.966e-3
-1.529, 2.997e-3
-1.530, 3.034e-3
-1.531, 3.071e-3
-1.532, 3.108e-3
-1.533, 3.139e-3
-1.534, 3.167e-3
-1.535, 3.191e-3
-1.536, 3.222e-3
-1.537, 3.253e-3
-1.538, 3.287e-3
-1.539, 3.327e-3
-1.540, 3.364e-3
-1.541, 3.398e-3
-1.542, 3.432e-3
-1.543, 3.459e-3
-1.544, 3.484e-3
-1.545, 3.518e-3
-1.546, 3.552e-3
-1.547, 3.592e-3
-1.548, 3.635e-3
-1.549, 3.672e-3
-1.550, 3.706e-3
-1.551, 3.737e-3
-1.552, 3.768e-3
-1.553, 3.799e-3
-1.554, 3.836e-3
-1.555, 3.879e-3
-1.556, 3.922e-3
-1.557, 3.965e-3
-1.558, 4.005e-3
-1.559, 4.039e-3
-1.560, 4.070e-3
-1.561, 4.107e-3
-1.562, 4.144e-3
-1.563, 4.184e-3
-1.564, 4.233e-3
-1.565, 4.273e-3
-1.566, 4.320e-3
-1.567, 4.357e-3
-1.568, 4.391e-3
-1.569, 4.424e-3
-1.570, 4.464e-3
-1.571, 4.508e-3
-1.572, 4.554e-3
-1.573, 4.603e-3
-1.574, 4.649e-3
-1.575, 4.690e-3
-1.576, 4.730e-3
-1.577, 4.767e-3
-1.578, 4.807e-3
-1.579, 4.853e-3
-1.580, 4.902e-3
-1.581, 4.952e-3
-1.582, 5.004e-3
-1.583, 5.047e-3
-1.584, 5.090e-3
-1.585, 5.130e-3
-1.586, 5.171e-3
-1.587, 5.220e-3
-1.588, 5.269e-3
-1.589, 5.325e-3
-1.590, 5.380e-3
-1.591, 5.430e-3
-1.592, 5.476e-3
-1.593, 5.522e-3
-1.594, 5.565e-3
-1.595, 5.611e-3
-1.596, 5.664e-3
-1.597, 5.722e-3
-1.598, 5.778e-3
-1.599, 5.836e-3
-1.600, 5.806e-3
-1.599, 5.698e-3
-1.598, 5.614e-3
-1.597, 5.537e-3
-1.596, 5.470e-3
-1.595, 5.408e-3
-1.594, 5.349e-3
-1.593, 5.291e-3
-1.592, 5.229e-3
-1.591, 5.161e-3
-1.590, 5.093e-3
-1.589, 5.029e-3
-1.588, 4.967e-3
-1.587, 4.912e-3
-1.586, 4.856e-3
-1.585, 4.804e-3
-1.584, 4.745e-3
-1.583, 4.686e-3
-1.582, 4.625e-3
-1.581, 4.563e-3
-1.580, 4.505e-3
-1.579, 4.452e-3
-1.578, 4.403e-3
-1.577, 4.357e-3
-1.576, 4.307e-3
-1.575, 4.255e-3
-1.574, 4.196e-3
-1.573, 4.138e-3
-1.572, 4.082e-3
-1.571, 4.033e-3
-1.570, 3.987e-3
-1.569, 3.943e-3
-1.568, 3.900e-3
-1.567, 3.851e-3
-1.566, 3.799e-3
-1.565, 3.746e-3
-1.564, 3.694e-3
-1.563, 3.647e-3
-1.562, 3.604e-3
-1.561, 3.564e-3
-1.560, 3.527e-3
-1.559, 3.481e-3
-1.558, 3.432e-3
-1.557, 3.385e-3
-1.556, 3.336e-3
-1.555, 3.290e-3
-1.554, 3.253e-3
-1.553, 3.216e-3
-1.552, 3.182e-3
-1.551, 3.142e-3
-1.550, 3.099e-3
-1.549, 3.056e-3
-1.548, 3.009e-3
-1.547, 2.966e-3
-1.546, 2.932e-3
-1.545, 2.895e-3
-1.544, 2.864e-3
-1.543, 2.830e-3
-1.542, 2.793e-3
-1.541, 2.753e-3
-1.540, 2.713e-3
-1.539, 2.673e-3
-1.538, 2.636e-3
-1.537, 2.605e-3
-1.536, 2.578e-3
-1.535, 2.547e-3
-1.534, 2.513e-3
-1.533, 2.476e-3
-1.532, 2.439e-3
-1.531, 2.399e-3
-1.530, 2.365e-3
-1.529, 2.334e-3
-1.528, 2.309e-3
-1.527, 2.282e-3
-1.526, 2.254e-3
-1.525, 2.220e-3
-1.524, 2.186e-3
-1.523, 2.149e-3
-1.522, 2.118e-3
-1.521, 2.087e-3
-1.520, 2.066e-3
-1.519, 2.041e-3
-1.518, 2.017e-3
-1.517, 1.986e-3
-1.516, 1.955e-3
-1.515, 1.921e-3
-1.514, 1.890e-3
-1.513, 1.862e-3
-1.512, 1.841e-3
-1.511, 1.819e-3
-1.510, 1.798e-3
-1.509, 1.773e-3
-1.508, 1.742e-3
-1.507, 1.714e-3
-1.506, 1.684e-3
-1.505, 1.659e-3
-1.504, 1.637e-3
-1.503, 1.619e-3
-1.502, 1.600e-3
-1.501, 1.579e-3
-1.500, 1.551e-3
-1.499, 1.526e-3
-1.498, 1.499e-3
-1.497, 1.474e-3
-1.496, 1.452e-3
-1.495, 1.437e-3
-1.494, 1.421e-3
-1.493, 1.403e-3
-1.492, 1.381e-3
-1.491, 1.357e-3
-1.490, 1.329e-3
-1.489, 1.304e-3
-1.488, 1.286e-3
-1.487, 1.270e-3
-1.486, 1.258e-3
-1.485, 1.240e-3
-1.484, 1.221e-3
-1.483, 1.203e-3
-1.482, 1.178e-3
-1.481, 1.153e-3
-1.480, 1.135e-3
-1.479, 1.119e-3
-1.478, 1.110e-3
-1.477, 1.095e-3
-1.476, 1.079e-3
-1.475, 1.061e-3
-1.474, 1.039e-3
-1.473, 1.014e-3
-1.472, 9.991e-4
-1.471, 9.837e-4
-1.470, 9.713e-4
-1.469, 9.621e-4
-1.468, 9.498e-4
-1.467, 9.313e-4
-1.466, 9.128e-4
-1.465, 8.912e-4
-1.464, 8.758e-4
-1.463, 8.603e-4
-1.462, 8.511e-4
-1.461, 8.418e-4
-1.460, 8.295e-4
-1.459, 8.172e-4
-1.458, 7.987e-4
-1.457, 7.802e-4
-1.456, 7.586e-4
-1.455, 7.463e-4
-1.454, 7.370e-4
-1.453, 7.309e-4
-1.452, 7.216e-4
-1.451, 7.124e-4
-1.450, 6.969e-4
-1.449, 6.784e-4
-1.448, 6.599e-4
-1.447, 6.476e-4
-1.446, 6.353e-4
-1.445, 6.291e-4
-1.444, 6.229e-4
-1.443, 6.137e-4
-1.442, 6.014e-4
-1.441, 5.859e-4
-1.440, 5.705e-4
-1.439, 5.551e-4
-1.438, 5.428e-4
-1.437, 5.397e-4
-1.436, 5.335e-4
-1.435, 5.274e-4
-1.434, 5.150e-4
-1.433, 4.996e-4
-1.432, 4.842e-4
-1.431, 4.719e-4
-1.430, 4.626e-4
-1.429, 4.565e-4
-1.428, 4.503e-4
-1.427, 4.441e-4
-1.426, 4.380e-4
-1.425, 4.256e-4
-1.424, 4.133e-4
-1.423, 3.979e-4
-1.422, 3.855e-4
-1.421, 3.825e-4
-1.420, 3.763e-4
-1.419, 3.732e-4
-1.418, 3.670e-4
-1.417, 3.578e-4
-1.416, 3.455e-4
-1.415, 3.300e-4
-1.414, 3.208e-4
-1.413, 3.146e-4
-1.412, 3.085e-4
-1.411, 3.085e-4
-1.410, 3.023e-4
-1.409, 2.961e-4
-1.408, 2.838e-4
-1.407, 2.684e-4
-1.406, 2.591e-4
-1.405, 2.530e-4
-1.404, 2.499e-4
-1.403, 2.468e-4
-1.402, 2.437e-4
-1.401, 2.376e-4
-1.400, 2.283e-4
-1.399, 2.160e-4
-1.398, 2.067e-4
-1.397, 1.975e-4
-1.396, 1.944e-4
-1.395, 1.913e-4
-1.394, 1.913e-4
-1.393, 1.882e-4
-1.392, 1.790e-4
-1.391, 1.697e-4
-1.390, 1.574e-4
-1.389, 1.481e-4
-1.388, 1.420e-4
-1.387, 1.420e-4
-1.386, 1.420e-4
-1.385, 1.389e-4
-1.384, 1.327e-4
-1.383, 1.235e-4
-1.382, 1.142e-4
-1.381, 1.050e-4
-1.380, 9.882e-5
-1.379, 9.882e-5
-1.378, 9.882e-5
-1.377, 9.882e-5
-1.376, 9.265e-5
-1.375, 8.340e-5
-1.374, 7.415e-5
-1.373, 6.490e-5
-1.372, 6.182e-5
-1.371, 5.873e-5
-1.370, 5.873e-5
-1.369, 5.873e-5
-1.368, 5.565e-5
-1.367, 4.949e-5
-1.366, 4.024e-5
-1.365, 3.099e-5
-1.364, 2.482e-5
-1.363, 2.174e-5
-1.362, 2.174e-5
-1.361, 2.482e-5
-1.360, 2.174e-5
-1.359, 1.865e-5
-1.358, 9.405e-6
-1.357, 1.559e-7
-1.356, -9.093e-6
-1.355, -1.218e-5
-1.354, -9.093e-6
-1.353, -9.093e-6
-1.352, -6.010e-6
-1.351, -9.093e-6
-1.350, -1.834e-5
-1.349, -2.451e-5
-1.348, -3.684e-5
-1.347, -3.992e-5
-1.346, -3.992e-5
-1.345, -3.684e-5
-1.344, -3.376e-5
-1.343, -3.684e-5
-1.342, -4.301e-5
-1.341, -4.917e-5
-1.340, -5.842e-5
-1.339, -6.459e-5
-1.338, -6.459e-5
-1.337, -6.459e-5
-1.336, -5.842e-5
-1.335, -6.151e-5
-1.334, -6.459e-5
-1.333, -7.076e-5
-1.332, -8.000e-5
-1.331, -8.309e-5
-1.330, -8.925e-5
-1.329, -8.617e-5
-1.328, -8.309e-5
-1.327, -8.309e-5
-1.326, -8.309e-5
-1.325, -8.925e-5
-1.324, -9.542e-5
-1.323, -1.047e-4
-1.322, -1.078e-4
-1.321, -1.078e-4
-1.320, -1.047e-4
-1.319, -1.016e-4
-1.318, -1.016e-4
-1.317, -1.047e-4
-1.316, -1.139e-4
-1.315, -1.201e-4
-1.314, -1.263e-4
-1.313, -1.263e-4
-1.312, -1.232e-4
-1.311, -1.201e-4
-1.310, -1.170e-4
-1.309, -1.201e-4
-1.308, -1.263e-4
-1.307, -1.324e-4
-1.306, -1.386e-4
-1.305, -1.417e-4
-1.304, -1.386e-4
-1.303, -1.355e-4
-1.302, -1.324e-4
-1.301, -1.324e-4
-1.300, -1.386e-4
-1.299, -1.448e-4
-1.298, -1.509e-4
-1.297, -1.540e-4
-1.296, -1.509e-4
-1.295, -1.478e-4
-1.294, -1.448e-4
-1.293, -1.448e-4
-1.292, -1.478e-4
-1.291, -1.540e-4
-1.290, -1.632e-4
-1.289, -1.663e-4
-1.288, -1.632e-4
-1.287, -1.602e-4
-1.286, -1.571e-4
-1.285, -1.540e-4
-1.284, -1.571e-4
-1.283, -1.632e-4
-1.282, -1.694e-4
-1.281, -1.725e-4
-1.280, -1.756e-4
-1.279, -1.694e-4
-1.278, -1.663e-4
-1.277, -1.632e-4
-1.276, -1.632e-4
-1.275, -1.694e-4
-1.274, -1.756e-4
-1.273, -1.817e-4
-1.272, -1.817e-4
-1.271, -1.787e-4
-1.270, -1.756e-4
-1.269, -1.725e-4
-1.268, -1.725e-4
-1.267, -1.756e-4
-1.266, -1.787e-4
-1.265, -1.848e-4
-1.264, -1.879e-4
-1.263, -1.879e-4
-1.262, -1.848e-4
-1.261, -1.787e-4
-1.260, -1.787e-4
-1.259, -1.787e-4
-1.258, -1.817e-4
-1.257, -1.910e-4
-1.256, -1.941e-4
-1.255, -1.941e-4
-1.254, -1.910e-4
-1.253, -1.848e-4
-1.252, -1.817e-4
-1.251, -1.817e-4
-1.250, -1.848e-4
-1.249, -1.941e-4
-1.248, -1.972e-4
-1.247, -2.002e-4
-1.246, -1.972e-4
-1.245, -1.941e-4
-1.244, -1.879e-4
-1.243, -1.848e-4
-1.242, -1.879e-4
-1.241, -1.941e-4
-1.240, -2.002e-4
-1.239, -2.033e-4
-1.238, -2.033e-4
-1.237, -1.972e-4
-1.236, -1.941e-4
-1.235, -1.910e-4
-1.234, -1.910e-4
-1.233, -1.972e-4
-1.232, -2.002e-4
-1.231, -2.064e-4
-1.230, -2.064e-4
-1.229, -2.033e-4
-1.228, -1.972e-4
-1.227, -1.941e-4
-1.226, -1.910e-4
-1.225, -1.972e-4
-1.224, -2.002e-4
-1.223, -2.064e-4
-1.222, -2.095e-4
-1.221, -2.064e-4
-1.220, -2.002e-4
-1.219, -1.941e-4
-1.218, -1.941e-4
-1.217, -1.972e-4
-1.216, -2.002e-4
-1.215, -2.064e-4
-1.214, -2.095e-4
-1.213, -2.064e-4
-1.212, -2.033e-4
-1.211, -1.972e-4
-1.210, -1.972e-4
-1.209, -1.972e-4
-1.208, -2.033e-4
-1.207, -2.064e-4
-1.206, -2.095e-4
-1.205, -2.095e-4
-1.204, -2.064e-4
-1.203, -2.002e-4
-1.202, -1.972e-4
-1.201, -1.972e-4
-1.200, -2.002e-4
-1.199, -2.064e-4
-1.198, -2.095e-4
-1.197, -2.126e-4
-1.196, -2.095e-4
-1.195, -2.033e-4
-1.194, -1.972e-4
-1.193, -1.972e-4
-1.192, -2.002e-4
-1.191, -2.033e-4
-1.190, -2.095e-4
-1.189, -2.126e-4
-1.188, -2.126e-4
-1.187, -2.064e-4
-1.186, -2.002e-4
-1.185, -1.972e-4
-1.184, -2.002e-4
-1.183, -2.033e-4
-1.182, -2.095e-4
-1.181, -2.126e-4
-1.180, -2.126e-4
-1.179, -2.095e-4
-1.178, -2.033e-4
-1.177, -2.002e-4
-1.176, -1.972e-4
-1.175, -2.033e-4
-1.174, -2.064e-4
-1.173, -2.126e-4
-1.172, -2.126e-4
-1.171, -2.095e-4
-1.170, -2.064e-4
-1.169, -2.002e-4
-1.168, -1.972e-4
-1.167, -2.002e-4
-1.166, -2.064e-4
-1.165, -2.126e-4
-1.164, -2.126e-4
-1.163, -2.126e-4
-1.162, -2.064e-4
-1.161, -2.033e-4
-1.160, -1.972e-4
-1.159, -2.002e-4
-1.158, -2.033e-4
-1.157, -2.095e-4
-1.156, -2.126e-4
-1.155, -2.126e-4
-1.154, -2.095e-4
-1.153, -2.033e-4
-1.152, -1.972e-4
-1.151, -2.002e-4
-1.150, -2.033e-4
-1.149, -2.064e-4
-1.148, -2.126e-4
-1.147, -2.126e-4
-1.146, -2.095e-4
-1.145, -2.064e-4
-1.144, -2.002e-4
-1.143, -1.972e-4
-1.142, -2.002e-4
-1.141, -2.064e-4
-1.140, -2.126e-4
-1.139, -2.157e-4
-1.138, -2.126e-4
-1.137, -2.064e-4
-1.136, -2.033e-4
-1.135, -2.002e-4
-1.134, -2.002e-4
-1.133, -2.033e-4
-1.132, -2.095e-4
-1.131, -2.157e-4
-1.130, -2.157e-4
-1.129, -2.095e-4
-1.128, -2.064e-4
-1.127, -2.002e-4
-1.126, -2.002e-4
-1.125, -2.033e-4
-1.124, -2.095e-4
-1.123, -2.126e-4
-1.122, -2.157e-4
-1.121, -2.126e-4
-1.120, -2.064e-4
-1.119, -2.002e-4
-1.118, -2.002e-4
-1.117, -2.002e-4
-1.116, -2.064e-4
-1.115, -2.126e-4
-1.114, -2.157e-4
-1.113, -2.157e-4
-1.112, -2.095e-4
-1.111, -2.033e-4
-1.110, -2.002e-4
-1.109, -2.002e-4
-1.108, -2.064e-4
-1.107, -2.126e-4
-1.106, -2.157e-4
-1.105, -2.157e-4
-1.104, -2.126e-4
-1.103, -2.064e-4
-1.102, -2.033e-4
-1.101, -2.002e-4
-1.100, -2.064e-4
-1.099, -2.126e-4
-1.098, -2.157e-4
-1.097, -2.187e-4
-1.096, -2.157e-4
-1.095, -2.095e-4
-1.094, -2.033e-4
-1.093, -2.033e-4
-1.092, -2.033e-4
-1.091, -2.095e-4
-1.090, -2.157e-4
-1.089, -2.187e-4
-1.088, -2.157e-4
-1.087, -2.126e-4
-1.086, -2.064e-4
-1.085, -2.033e-4
-1.084, -2.064e-4
-1.083, -2.095e-4
-1.082, -2.157e-4
-1.081, -2.218e-4
-1.080, -2.187e-4
-1.079, -2.157e-4
-1.078, -2.126e-4
-1.077, -2.064e-4
-1.076, -2.064e-4
-1.075, -2.095e-4
-1.074, -2.157e-4
-1.073, -2.218e-4
-1.072, -2.218e-4
-1.071, -2.187e-4
-1.070, -2.157e-4
-1.069, -2.095e-4
-1.068, -2.064e-4
-1.067, -2.095e-4
-1.066, -2.157e-4
-1.065, -2.218e-4
-1.064, -2.218e-4
-1.063, -2.218e-4
-1.062, -2.187e-4
-1.061, -2.095e-4
-1.060, -2.095e-4
-1.059, -2.095e-4
-1.058, -2.157e-4
-1.057, -2.187e-4
-1.056, -2.218e-4
-1.055, -2.249e-4
-1.054, -2.187e-4
-1.053, -2.157e-4
-1.052, -2.095e-4
-1.051, -2.095e-4
-1.050, -2.126e-4
-1.049, -2.187e-4
-1.048, -2.249e-4
-1.047, -2.249e-4
-1.046, -2.249e-4
-1.045, -2.187e-4
-1.044, -2.126e-4
-1.043, -2.126e-4
-1.042, -2.157e-4
-1.041, -2.187e-4
-1.040, -2.249e-4
-1.039, -2.280e-4
-1.038, -2.280e-4
-1.037, -2.218e-4
-1.036, -2.157e-4
-1.035, -2.126e-4
-1.034, -2.126e-4
-1.033, -2.187e-4
-1.032, -2.249e-4
-1.031, -2.280e-4
-1.030, -2.311e-4
-1.029, -2.249e-4
-1.028, -2.218e-4
-1.027, -2.157e-4
-1.026, -2.157e-4
-1.025, -2.187e-4
-1.024, -2.249e-4
-1.023, -2.311e-4
-1.022, -2.342e-4
-1.021, -2.280e-4
-1.020, -2.249e-4
-1.019, -2.187e-4
-1.018, -2.157e-4
-1.017, -2.187e-4
-1.016, -2.249e-4
-1.015, -2.311e-4
-1.014, -2.342e-4
-1.013, -2.342e-4
-1.012, -2.280e-4
-1.011, -2.249e-4
-1.010, -2.187e-4
-1.009, -2.218e-4
-1.008, -2.249e-4
-1.007, -2.311e-4
-1.006, -2.372e-4
-1.005, -2.372e-4
-1.004, -2.342e-4
-1.003, -2.280e-4
-1.002, -2.218e-4
-1.001, -2.218e-4
