Sept. 12, 2024   03:36:54
Cyclic Voltammetry
File: c:/users/guazh/data/20240903_batch_252_500/2024-09-03-exp330\exp330-2024-09-12t03_17_29-h2koh\exp330_cv_sr_300mvs_efin_-1800mv.bin
Data Source:  Experiment
Instrument Model:  CHI760E
Header: CV ran at 300 mVs
Note: 

Init E (V) = -1
High E (V) = -1
Low E (V) = -1.8
Final E (V) = -1
Init P/N = N
Scan Rate (V/s) = 0.3
Segment = 3
Sample Interval (V) = 0.001
Quiet Time (sec) = 2
Sensitivity (A/V) = 0.01
Comp R (ohm) = 2.9

Results:

Channel 1:
Segment 1:

Segment 2:

Segment 3:

Potential/V, Current/A

-1.000, 1.559e-7
-1.001, 1.559e-7
-1.002, 3.239e-6
-1.003, 3.239e-6
-1.004, 3.239e-6
-1.005, 3.239e-6
-1.006, 3.239e-6
-1.007, 3.239e-6
-1.008, 3.239e-6
-1.009, 3.239e-6
-1.010, 3.239e-6
-1.011, 3.239e-6
-1.012, 3.239e-6
-1.013, 3.239e-6
-1.014, 3.239e-6
-1.015, 3.239e-6
-1.016, 3.239e-6
-1.017, 3.239e-6
-1.018, 3.239e-6
-1.019, 3.239e-6
-1.020, 3.239e-6
-1.021, 3.239e-6
-1.022, 3.239e-6
-1.023, 3.239e-6
-1.024, 3.239e-6
-1.025, 6.322e-6
-1.026, 3.239e-6
-1.027, 6.322e-6
-1.028, 3.239e-6
-1.029, 6.322e-6
-1.030, 3.239e-6
-1.031, 3.239e-6
-1.032, 6.322e-6
-1.033, 6.322e-6
-1.034, 6.322e-6
-1.035, 6.322e-6
-1.036, 6.322e-6
-1.037, 6.322e-6
-1.038, 6.322e-6
-1.039, 6.322e-6
-1.040, 6.322e-6
-1.041, 6.322e-6
-1.042, 6.322e-6
-1.043, 3.239e-6
-1.044, 6.322e-6
-1.045, 6.322e-6
-1.046, 6.322e-6
-1.047, 6.322e-6
-1.048, 6.322e-6
-1.049, 6.322e-6
-1.050, 6.322e-6
-1.051, 6.322e-6
-1.052, 6.322e-6
-1.053, 6.322e-6
-1.054, 6.322e-6
-1.055, 6.322e-6
-1.056, 6.322e-6
-1.057, 6.322e-6
-1.058, 6.322e-6
-1.059, 6.322e-6
-1.060, 6.322e-6
-1.061, 6.322e-6
-1.062, 6.322e-6
-1.063, 6.322e-6
-1.064, 6.322e-6
-1.065, 6.322e-6
-1.066, 6.322e-6
-1.067, 6.322e-6
-1.068, 6.322e-6
-1.069, 6.322e-6
-1.070, 6.322e-6
-1.071, 6.322e-6
-1.072, 6.322e-6
-1.073, 6.322e-6
-1.074, 6.322e-6
-1.075, 6.322e-6
-1.076, 6.322e-6
-1.077, 6.322e-6
-1.078, 6.322e-6
-1.079, 6.322e-6
-1.080, 6.322e-6
-1.081, 6.322e-6
-1.082, 6.322e-6
-1.083, 6.322e-6
-1.084, 6.322e-6
-1.085, 6.322e-6
-1.086, 6.322e-6
-1.087, 6.322e-6
-1.088, 6.322e-6
-1.089, 6.322e-6
-1.090, 6.322e-6
-1.091, 6.322e-6
-1.092, 6.322e-6
-1.093, 6.322e-6
-1.094, 6.322e-6
-1.095, 6.322e-6
-1.096, 6.322e-6
-1.097, 6.322e-6
-1.098, 9.405e-6
-1.099, 9.405e-6
-1.100, 6.322e-6
-1.101, 6.322e-6
-1.102, 9.405e-6
-1.103, 6.322e-6
-1.104, 6.322e-6
-1.105, 6.322e-6
-1.106, 6.322e-6
-1.107, 6.322e-6
-1.108, 6.322e-6
-1.109, 6.322e-6
-1.110, 6.322e-6
-1.111, 6.322e-6
-1.112, 6.322e-6
-1.113, 6.322e-6
-1.114, 9.405e-6
-1.115, 9.405e-6
-1.116, 9.405e-6
-1.117, 9.405e-6
-1.118, 6.322e-6
-1.119, 9.405e-6
-1.120, 9.405e-6
-1.121, 6.322e-6
-1.122, 9.405e-6
-1.123, 9.405e-6
-1.124, 9.405e-6
-1.125, 9.405e-6
-1.126, 6.322e-6
-1.127, 9.405e-6
-1.128, 9.405e-6
-1.129, 9.405e-6
-1.130, 9.405e-6
-1.131, 9.405e-6
-1.132, 9.405e-6
-1.133, 9.405e-6
-1.134, 9.405e-6
-1.135, 9.405e-6
-1.136, 9.405e-6
-1.137, 9.405e-6
-1.138, 9.405e-6
-1.139, 9.405e-6
-1.140, 9.405e-6
-1.141, 9.405e-6
-1.142, 9.405e-6
-1.143, 9.405e-6
-1.144, 9.405e-6
-1.145, 9.405e-6
-1.146, 9.405e-6
-1.147, 9.405e-6
-1.148, 9.405e-6
-1.149, 9.405e-6
-1.150, 9.405e-6
-1.151, 9.405e-6
-1.152, 9.405e-6
-1.153, 9.405e-6
-1.154, 9.405e-6
-1.155, 9.405e-6
-1.156, 9.405e-6
-1.157, 9.405e-6
-1.158, 9.405e-6
-1.159, 9.405e-6
-1.160, 9.405e-6
-1.161, 9.405e-6
-1.162, 9.405e-6
-1.163, 9.405e-6
-1.164, 9.405e-6
-1.165, 9.405e-6
-1.166, 9.405e-6
-1.167, 9.405e-6
-1.168, 9.405e-6
-1.169, 9.405e-6
-1.170, 9.405e-6
-1.171, 9.405e-6
-1.172, 9.405e-6
-1.173, 9.405e-6
-1.174, 9.405e-6
-1.175, 9.405e-6
-1.176, 9.405e-6
-1.177, 9.405e-6
-1.178, 9.405e-6
-1.179, 9.405e-6
-1.180, 9.405e-6
-1.181, 9.405e-6
-1.182, 9.405e-6
-1.183, 9.405e-6
-1.184, 9.405e-6
-1.185, 9.405e-6
-1.186, 9.405e-6
-1.187, 9.405e-6
-1.188, 9.405e-6
-1.189, 9.405e-6
-1.190, 9.405e-6
-1.191, 9.405e-6
-1.192, 9.405e-6
-1.193, 9.405e-6
-1.194, 9.405e-6
-1.195, 9.405e-6
-1.196, 9.405e-6
-1.197, 9.405e-6
-1.198, 9.405e-6
-1.199, 9.405e-6
-1.200, 9.405e-6
-1.201, 9.405e-6
-1.202, 9.405e-6
-1.203, 9.405e-6
-1.204, 9.405e-6
-1.205, 9.405e-6
-1.206, 9.405e-6
-1.207, 9.405e-6
-1.208, 9.405e-6
-1.209, 9.405e-6
-1.210, 1.249e-5
-1.211, 9.405e-6
-1.212, 9.405e-6
-1.213, 9.405e-6
-1.214, 9.405e-6
-1.215, 1.249e-5
-1.216, 9.405e-6
-1.217, 9.405e-6
-1.218, 9.405e-6
-1.219, 9.405e-6
-1.220, 1.249e-5
-1.221, 1.249e-5
-1.222, 1.249e-5
-1.223, 9.405e-6
-1.224, 9.405e-6
-1.225, 9.405e-6
-1.226, 1.249e-5
-1.227, 1.249e-5
-1.228, 1.249e-5
-1.229, 1.249e-5
-1.230, 1.249e-5
-1.231, 1.249e-5
-1.232, 1.249e-5
-1.233, 1.249e-5
-1.234, 1.249e-5
-1.235, 1.249e-5
-1.236, 1.249e-5
-1.237, 1.249e-5
-1.238, 1.249e-5
-1.239, 9.405e-6
-1.240, 1.249e-5
-1.241, 1.249e-5
-1.242, 1.249e-5
-1.243, 1.249e-5
-1.244, 1.249e-5
-1.245, 1.249e-5
-1.246, 1.249e-5
-1.247, 1.249e-5
-1.248, 1.249e-5
-1.249, 1.249e-5
-1.250, 1.249e-5
-1.251, 1.249e-5
-1.252, 1.249e-5
-1.253, 1.249e-5
-1.254, 1.249e-5
-1.255, 1.249e-5
-1.256, 1.249e-5
-1.257, 1.249e-5
-1.258, 1.249e-5
-1.259, 1.249e-5
-1.260, 1.249e-5
-1.261, 1.249e-5
-1.262, 1.249e-5
-1.263, 1.249e-5
-1.264, 1.249e-5
-1.265, 1.249e-5
-1.266, 1.249e-5
-1.267, 1.249e-5
-1.268, 1.249e-5
-1.269, 1.249e-5
-1.270, 1.249e-5
-1.271, 1.249e-5
-1.272, 1.249e-5
-1.273, 1.249e-5
-1.274, 1.249e-5
-1.275, 1.249e-5
-1.276, 1.249e-5
-1.277, 1.249e-5
-1.278, 1.249e-5
-1.279, 1.249e-5
-1.280, 1.249e-5
-1.281, 1.249e-5
-1.282, 1.249e-5
-1.283, 1.249e-5
-1.284, 1.249e-5
-1.285, 1.249e-5
-1.286, 1.249e-5
-1.287, 1.249e-5
-1.288, 1.249e-5
-1.289, 1.249e-5
-1.290, 1.249e-5
-1.291, 1.249e-5
-1.292, 1.249e-5
-1.293, 1.249e-5
-1.294, 1.557e-5
-1.295, 1.557e-5
-1.296, 1.249e-5
-1.297, 1.557e-5
-1.298, 1.557e-5
-1.299, 1.249e-5
-1.300, 1.557e-5
-1.301, 1.557e-5
-1.302, 1.249e-5
-1.303, 1.249e-5
-1.304, 1.557e-5
-1.305, 1.557e-5
-1.306, 1.557e-5
-1.307, 1.557e-5
-1.308, 1.557e-5
-1.309, 1.557e-5
-1.310, 1.557e-5
-1.311, 1.557e-5
-1.312, 1.557e-5
-1.313, 1.557e-5
-1.314, 1.557e-5
-1.315, 1.557e-5
-1.316, 1.557e-5
-1.317, 1.557e-5
-1.318, 1.557e-5
-1.319, 1.557e-5
-1.320, 1.557e-5
-1.321, 1.557e-5
-1.322, 1.557e-5
-1.323, 1.557e-5
-1.324, 1.557e-5
-1.325, 1.557e-5
-1.326, 1.557e-5
-1.327, 1.557e-5
-1.328, 1.557e-5
-1.329, 1.557e-5
-1.330, 1.557e-5
-1.331, 1.557e-5
-1.332, 1.557e-5
-1.333, 1.557e-5
-1.334, 1.557e-5
-1.335, 1.557e-5
-1.336, 1.865e-5
-1.337, 1.557e-5
-1.338, 1.557e-5
-1.339, 1.557e-5
-1.340, 1.865e-5
-1.341, 1.865e-5
-1.342, 1.557e-5
-1.343, 1.865e-5
-1.344, 1.865e-5
-1.345, 1.865e-5
-1.346, 1.865e-5
-1.347, 1.865e-5
-1.348, 1.865e-5
-1.349, 1.865e-5
-1.350, 1.865e-5
-1.351, 1.865e-5
-1.352, 1.865e-5
-1.353, 1.865e-5
-1.354, 1.865e-5
-1.355, 1.865e-5
-1.356, 1.865e-5
-1.357, 1.865e-5
-1.358, 1.865e-5
-1.359, 1.865e-5
-1.360, 1.865e-5
-1.361, 1.865e-5
-1.362, 1.865e-5
-1.363, 1.865e-5
-1.364, 1.865e-5
-1.365, 2.174e-5
-1.366, 2.174e-5
-1.367, 1.865e-5
-1.368, 1.865e-5
-1.369, 1.865e-5
-1.370, 2.174e-5
-1.371, 2.174e-5
-1.372, 2.174e-5
-1.373, 2.174e-5
-1.374, 2.174e-5
-1.375, 2.174e-5
-1.376, 2.174e-5
-1.377, 2.174e-5
-1.378, 2.174e-5
-1.379, 2.174e-5
-1.380, 2.174e-5
-1.381, 2.174e-5
-1.382, 2.174e-5
-1.383, 2.174e-5
-1.384, 2.174e-5
-1.385, 2.482e-5
-1.386, 2.174e-5
-1.387, 2.482e-5
-1.388, 2.482e-5
-1.389, 2.482e-5
-1.390, 2.482e-5
-1.391, 2.482e-5
-1.392, 2.482e-5
-1.393, 2.482e-5
-1.394, 2.482e-5
-1.395, 2.482e-5
-1.396, 2.482e-5
-1.397, 2.482e-5
-1.398, 2.482e-5
-1.399, 2.482e-5
-1.400, 2.790e-5
-1.401, 2.482e-5
-1.402, 2.790e-5
-1.403, 2.790e-5
-1.404, 2.790e-5
-1.405, 2.790e-5
-1.406, 2.790e-5
-1.407, 2.790e-5
-1.408, 2.790e-5
-1.409, 2.790e-5
-1.410, 2.790e-5
-1.411, 2.790e-5
-1.412, 3.099e-5
-1.413, 3.099e-5
-1.414, 3.099e-5
-1.415, 3.099e-5
-1.416, 3.099e-5
-1.417, 3.099e-5
-1.418, 3.099e-5
-1.419, 3.099e-5
-1.420, 3.099e-5
-1.421, 3.099e-5
-1.422, 3.099e-5
-1.423, 3.099e-5
-1.424, 3.099e-5
-1.425, 3.407e-5
-1.426, 3.407e-5
-1.427, 3.407e-5
-1.428, 3.407e-5
-1.429, 3.407e-5
-1.430, 3.407e-5
-1.431, 3.407e-5
-1.432, 3.407e-5
-1.433, 3.407e-5
-1.434, 3.715e-5
-1.435, 3.407e-5
-1.436, 3.715e-5
-1.437, 3.715e-5
-1.438, 3.715e-5
-1.439, 3.715e-5
-1.440, 3.715e-5
-1.441, 3.715e-5
-1.442, 4.024e-5
-1.443, 4.024e-5
-1.444, 4.024e-5
-1.445, 4.024e-5
-1.446, 4.024e-5
-1.447, 4.024e-5
-1.448, 4.024e-5
-1.449, 4.024e-5
-1.450, 4.024e-5
-1.451, 4.332e-5
-1.452, 4.332e-5
-1.453, 4.332e-5
-1.454, 4.332e-5
-1.455, 4.332e-5
-1.456, 4.332e-5
-1.457, 4.332e-5
-1.458, 4.640e-5
-1.459, 4.332e-5
-1.460, 4.640e-5
-1.461, 4.640e-5
-1.462, 4.640e-5
-1.463, 4.640e-5
-1.464, 4.640e-5
-1.465, 4.640e-5
-1.466, 4.640e-5
-1.467, 4.949e-5
-1.468, 4.949e-5
-1.469, 4.949e-5
-1.470, 4.949e-5
-1.471, 4.949e-5
-1.472, 4.949e-5
-1.473, 5.257e-5
-1.474, 5.257e-5
-1.475, 5.257e-5
-1.476, 5.257e-5
-1.477, 5.257e-5
-1.478, 5.257e-5
-1.479, 5.257e-5
-1.480, 5.565e-5
-1.481, 5.565e-5
-1.482, 5.565e-5
-1.483, 5.565e-5
-1.484, 5.565e-5
-1.485, 5.873e-5
-1.486, 5.565e-5
-1.487, 5.873e-5
-1.488, 5.873e-5
-1.489, 5.873e-5
-1.490, 5.873e-5
-1.491, 6.182e-5
-1.492, 6.182e-5
-1.493, 6.182e-5
-1.494, 6.182e-5
-1.495, 6.182e-5
-1.496, 6.182e-5
-1.497, 6.490e-5
-1.498, 6.490e-5
-1.499, 6.490e-5
-1.500, 6.490e-5
-1.501, 6.490e-5
-1.502, 6.798e-5
-1.503, 6.798e-5
-1.504, 6.798e-5
-1.505, 7.107e-5
-1.506, 7.107e-5
-1.507, 7.107e-5
-1.508, 7.107e-5
-1.509, 7.107e-5
-1.510, 7.415e-5
-1.511, 7.415e-5
-1.512, 7.415e-5
-1.513, 7.415e-5
-1.514, 7.415e-5
-1.515, 7.415e-5
-1.516, 7.415e-5
-1.517, 7.723e-5
-1.518, 7.723e-5
-1.519, 7.723e-5
-1.520, 8.032e-5
-1.521, 8.032e-5
-1.522, 8.340e-5
-1.523, 8.340e-5
-1.524, 8.340e-5
-1.525, 8.340e-5
-1.526, 8.648e-5
-1.527, 8.648e-5
-1.528, 8.648e-5
-1.529, 8.648e-5
-1.530, 8.957e-5
-1.531, 8.957e-5
-1.532, 8.957e-5
-1.533, 8.957e-5
-1.534, 9.265e-5
-1.535, 9.265e-5
-1.536, 9.265e-5
-1.537, 9.573e-5
-1.538, 9.573e-5
-1.539, 9.573e-5
-1.540, 9.882e-5
-1.541, 9.882e-5
-1.542, 1.019e-4
-1.543, 9.882e-5
-1.544, 1.019e-4
-1.545, 1.050e-4
-1.546, 1.050e-4
-1.547, 1.050e-4
-1.548, 1.050e-4
-1.549, 1.081e-4
-1.550, 1.081e-4
-1.551, 1.111e-4
-1.552, 1.111e-4
-1.553, 1.142e-4
-1.554, 1.142e-4
-1.555, 1.173e-4
-1.556, 1.173e-4
-1.557, 1.173e-4
-1.558, 1.204e-4
-1.559, 1.204e-4
-1.560, 1.235e-4
-1.561, 1.235e-4
-1.562, 1.266e-4
-1.563, 1.266e-4
-1.564, 1.296e-4
-1.565, 1.296e-4
-1.566, 1.327e-4
-1.567, 1.327e-4
-1.568, 1.358e-4
-1.569, 1.358e-4
-1.570, 1.389e-4
-1.571, 1.389e-4
-1.572, 1.420e-4
-1.573, 1.451e-4
-1.574, 1.451e-4
-1.575, 1.481e-4
-1.576, 1.481e-4
-1.577, 1.512e-4
-1.578, 1.543e-4
-1.579, 1.543e-4
-1.580, 1.574e-4
-1.581, 1.605e-4
-1.582, 1.636e-4
-1.583, 1.636e-4
-1.584, 1.666e-4
-1.585, 1.697e-4
-1.586, 1.697e-4
-1.587, 1.728e-4
-1.588, 1.790e-4
-1.589, 1.790e-4
-1.590, 1.821e-4
-1.591, 1.851e-4
-1.592, 1.882e-4
-1.593, 1.913e-4
-1.594, 1.913e-4
-1.595, 1.975e-4
-1.596, 2.006e-4
-1.597, 2.036e-4
-1.598, 2.067e-4
-1.599, 2.067e-4
-1.600, 2.129e-4
-1.601, 2.160e-4
-1.602, 2.191e-4
-1.603, 2.221e-4
-1.604, 2.252e-4
-1.605, 2.283e-4
-1.606, 2.314e-4
-1.607, 2.376e-4
-1.608, 2.406e-4
-1.609, 2.437e-4
-1.610, 2.499e-4
-1.611, 2.530e-4
-1.612, 2.591e-4
-1.613, 2.622e-4
-1.614, 2.653e-4
-1.615, 2.715e-4
-1.616, 2.746e-4
-1.617, 2.807e-4
-1.618, 2.838e-4
-1.619, 2.900e-4
-1.620, 2.961e-4
-1.621, 3.023e-4
-1.622, 3.054e-4
-1.623, 3.115e-4
-1.624, 3.177e-4
-1.625, 3.239e-4
-1.626, 3.300e-4
-1.627, 3.362e-4
-1.628, 3.424e-4
-1.629, 3.485e-4
-1.630, 3.547e-4
-1.631, 3.609e-4
-1.632, 3.670e-4
-1.633, 3.732e-4
-1.634, 3.825e-4
-1.635, 3.886e-4
-1.636, 3.979e-4
-1.637, 4.040e-4
-1.638, 4.133e-4
-1.639, 4.195e-4
-1.640, 4.287e-4
-1.641, 4.380e-4
-1.642, 4.441e-4
-1.643, 4.534e-4
-1.644, 4.626e-4
-1.645, 4.719e-4
-1.646, 4.811e-4
-1.647, 4.904e-4
-1.648, 4.996e-4
-1.649, 5.120e-4
-1.650, 5.212e-4
-1.651, 5.335e-4
-1.652, 5.428e-4
-1.653, 5.520e-4
-1.654, 5.644e-4
-1.655, 5.767e-4
-1.656, 5.859e-4
-1.657, 5.983e-4
-1.658, 6.106e-4
-1.659, 6.229e-4
-1.660, 6.353e-4
-1.661, 6.476e-4
-1.662, 6.630e-4
-1.663, 6.754e-4
-1.664, 6.877e-4
-1.665, 7.031e-4
-1.666, 7.154e-4
-1.667, 7.309e-4
-1.668, 7.432e-4
-1.669, 7.586e-4
-1.670, 7.740e-4
-1.671, 7.894e-4
-1.672, 8.079e-4
-1.673, 8.264e-4
-1.674, 8.418e-4
-1.675, 8.573e-4
-1.676, 8.758e-4
-1.677, 8.912e-4
-1.678, 9.097e-4
-1.679, 9.251e-4
-1.680, 9.436e-4
-1.681, 9.621e-4
-1.682, 9.806e-4
-1.683, 1.002e-3
-1.684, 1.021e-3
-1.685, 1.042e-3
-1.686, 1.064e-3
-1.687, 1.082e-3
-1.688, 1.104e-3
-1.689, 1.129e-3
-1.690, 1.150e-3
-1.691, 1.172e-3
-1.692, 1.193e-3
-1.693, 1.215e-3
-1.694, 1.240e-3
-1.695, 1.261e-3
-1.696, 1.286e-3
-1.697, 1.310e-3
-1.698, 1.332e-3
-1.699, 1.360e-3
-1.700, 1.384e-3
-1.701, 1.406e-3
-1.702, 1.434e-3
-1.703, 1.462e-3
-1.704, 1.486e-3
-1.705, 1.514e-3
-1.706, 1.542e-3
-1.707, 1.566e-3
-1.708, 1.594e-3
-1.709, 1.622e-3
-1.710, 1.650e-3
-1.711, 1.680e-3
-1.712, 1.711e-3
-1.713, 1.739e-3
-1.714, 1.773e-3
-1.715, 1.801e-3
-1.716, 1.832e-3
-1.717, 1.862e-3
-1.718, 1.893e-3
-1.719, 1.921e-3
-1.720, 1.958e-3
-1.721, 1.986e-3
-1.722, 2.017e-3
-1.723, 2.054e-3
-1.724, 2.087e-3
-1.725, 2.121e-3
-1.726, 2.155e-3
-1.727, 2.192e-3
-1.728, 2.226e-3
-1.729, 2.257e-3
-1.730, 2.294e-3
-1.731, 2.328e-3
-1.732, 2.365e-3
-1.733, 2.405e-3
-1.734, 2.445e-3
-1.735, 2.482e-3
-1.736, 2.522e-3
-1.737, 2.559e-3
-1.738, 2.593e-3
-1.739, 2.630e-3
-1.740, 2.667e-3
-1.741, 2.701e-3
-1.742, 2.744e-3
-1.743, 2.784e-3
-1.744, 2.824e-3
-1.745, 2.871e-3
-1.746, 2.914e-3
-1.747, 2.960e-3
-1.748, 3.006e-3
-1.749, 3.049e-3
-1.750, 3.096e-3
-1.751, 3.139e-3
-1.752, 3.179e-3
-1.753, 3.225e-3
-1.754, 3.274e-3
-1.755, 3.311e-3
-1.756, 3.355e-3
-1.757, 3.401e-3
-1.758, 3.441e-3
-1.759, 3.484e-3
-1.760, 3.533e-3
-1.761, 3.570e-3
-1.762, 3.614e-3
-1.763, 3.666e-3
-1.764, 3.700e-3
-1.765, 3.743e-3
-1.766, 3.792e-3
-1.767, 3.829e-3
-1.768, 3.879e-3
-1.769, 3.925e-3
-1.770, 3.968e-3
-1.771, 4.021e-3
-1.772, 4.067e-3
-1.773, 4.110e-3
-1.774, 4.165e-3
-1.775, 4.212e-3
-1.776, 4.261e-3
-1.777, 4.313e-3
-1.778, 4.360e-3
-1.779, 4.415e-3
-1.780, 4.464e-3
-1.781, 4.508e-3
-1.782, 4.563e-3
-1.783, 4.622e-3
-1.784, 4.674e-3
-1.785, 4.730e-3
-1.786, 4.788e-3
-1.787, 4.838e-3
-1.788, 4.890e-3
-1.789, 4.945e-3
-1.790, 4.992e-3
-1.791, 5.041e-3
-1.792, 5.100e-3
-1.793, 5.152e-3
-1.794, 5.198e-3
-1.795, 5.257e-3
-1.796, 5.312e-3
-1.797, 5.356e-3
-1.798, 5.411e-3
-1.799, 5.473e-3
-1.800, 5.491e-3
-1.799, 5.457e-3
-1.798, 5.439e-3
-1.797, 5.414e-3
-1.796, 5.377e-3
-1.795, 5.349e-3
-1.794, 5.325e-3
-1.793, 5.288e-3
-1.792, 5.248e-3
-1.791, 5.211e-3
-1.790, 5.171e-3
-1.789, 5.124e-3
-1.788, 5.081e-3
-1.787, 5.044e-3
-1.786, 5.001e-3
-1.785, 4.961e-3
-1.784, 4.918e-3
-1.783, 4.875e-3
-1.782, 4.841e-3
-1.781, 4.801e-3
-1.780, 4.757e-3
-1.779, 4.727e-3
-1.778, 4.696e-3
-1.777, 4.662e-3
-1.776, 4.634e-3
-1.775, 4.600e-3
-1.774, 4.563e-3
-1.773, 4.529e-3
-1.772, 4.486e-3
-1.771, 4.446e-3
-1.770, 4.409e-3
-1.769, 4.369e-3
-1.768, 4.332e-3
-1.767, 4.298e-3
-1.766, 4.255e-3
-1.765, 4.221e-3
-1.764, 4.184e-3
-1.763, 4.138e-3
-1.762, 4.101e-3
-1.761, 4.058e-3
-1.760, 4.011e-3
-1.759, 3.971e-3
-1.758, 3.928e-3
-1.757, 3.888e-3
-1.756, 3.851e-3
-1.755, 3.811e-3
-1.754, 3.774e-3
-1.753, 3.740e-3
-1.752, 3.700e-3
-1.751, 3.660e-3
-1.750, 3.626e-3
-1.749, 3.586e-3
-1.748, 3.549e-3
-1.747, 3.515e-3
-1.746, 3.481e-3
-1.745, 3.444e-3
-1.744, 3.410e-3
-1.743, 3.379e-3
-1.742, 3.342e-3
-1.741, 3.308e-3
-1.740, 3.268e-3
-1.739, 3.231e-3
-1.738, 3.194e-3
-1.737, 3.160e-3
-1.736, 3.123e-3
-1.735, 3.089e-3
-1.734, 3.056e-3
-1.733, 3.022e-3
-1.732, 2.988e-3
-1.731, 2.957e-3
-1.730, 2.923e-3
-1.729, 2.886e-3
-1.728, 2.858e-3
-1.727, 2.827e-3
-1.726, 2.793e-3
-1.725, 2.760e-3
-1.724, 2.732e-3
-1.723, 2.698e-3
-1.722, 2.664e-3
-1.721, 2.630e-3
-1.720, 2.599e-3
-1.719, 2.565e-3
-1.718, 2.534e-3
-1.717, 2.504e-3
-1.716, 2.470e-3
-1.715, 2.439e-3
-1.714, 2.411e-3
-1.713, 2.380e-3
-1.712, 2.353e-3
-1.711, 2.325e-3
-1.710, 2.294e-3
-1.709, 2.266e-3
-1.708, 2.238e-3
-1.707, 2.208e-3
-1.706, 2.180e-3
-1.705, 2.152e-3
-1.704, 2.121e-3
-1.703, 2.097e-3
-1.702, 2.069e-3
-1.701, 2.038e-3
-1.700, 2.013e-3
-1.699, 1.986e-3
-1.698, 1.958e-3
-1.697, 1.933e-3
-1.696, 1.902e-3
-1.695, 1.878e-3
-1.694, 1.853e-3
-1.693, 1.825e-3
-1.692, 1.801e-3
-1.691, 1.773e-3
-1.690, 1.748e-3
-1.689, 1.724e-3
-1.688, 1.699e-3
-1.687, 1.674e-3
-1.686, 1.650e-3
-1.685, 1.628e-3
-1.684, 1.603e-3
-1.683, 1.582e-3
-1.682, 1.557e-3
-1.681, 1.532e-3
-1.680, 1.511e-3
-1.679, 1.486e-3
-1.678, 1.465e-3
-1.677, 1.446e-3
-1.676, 1.421e-3
-1.675, 1.403e-3
-1.674, 1.381e-3
-1.673, 1.360e-3
-1.672, 1.338e-3
-1.671, 1.320e-3
-1.670, 1.298e-3
-1.669, 1.280e-3
-1.668, 1.261e-3
-1.667, 1.240e-3
-1.666, 1.221e-3
-1.665, 1.203e-3
-1.664, 1.181e-3
-1.663, 1.162e-3
-1.662, 1.144e-3
-1.661, 1.129e-3
-1.660, 1.107e-3
-1.659, 1.092e-3
-1.658, 1.076e-3
-1.657, 1.061e-3
-1.656, 1.039e-3
-1.655, 1.024e-3
-1.654, 1.008e-3
-1.653, 9.898e-4
-1.652, 9.744e-4
-1.651, 9.559e-4
-1.650, 9.405e-4
-1.649, 9.251e-4
-1.648, 9.097e-4
-1.647, 8.943e-4
-1.646, 8.788e-4
-1.645, 8.634e-4
-1.644, 8.511e-4
-1.643, 8.357e-4
-1.642, 8.233e-4
-1.641, 8.079e-4
-1.640, 7.956e-4
-1.639, 7.802e-4
-1.638, 7.679e-4
-1.637, 7.555e-4
-1.636, 7.432e-4
-1.635, 7.309e-4
-1.634, 7.185e-4
-1.633, 7.062e-4
-1.632, 6.939e-4
-1.631, 6.784e-4
-1.630, 6.692e-4
-1.629, 6.569e-4
-1.628, 6.445e-4
-1.627, 6.322e-4
-1.626, 6.229e-4
-1.625, 6.106e-4
-1.624, 5.983e-4
-1.623, 5.890e-4
-1.622, 5.798e-4
-1.621, 5.674e-4
-1.620, 5.582e-4
-1.619, 5.489e-4
-1.618, 5.397e-4
-1.617, 5.274e-4
-1.616, 5.181e-4
-1.615, 5.120e-4
-1.614, 5.027e-4
-1.613, 4.935e-4
-1.612, 4.842e-4
-1.611, 4.750e-4
-1.610, 4.657e-4
-1.609, 4.565e-4
-1.608, 4.503e-4
-1.607, 4.410e-4
-1.606, 4.349e-4
-1.605, 4.256e-4
-1.604, 4.195e-4
-1.603, 4.102e-4
-1.602, 4.010e-4
-1.601, 3.948e-4
-1.600, 3.886e-4
-1.599, 3.825e-4
-1.598, 3.732e-4
-1.597, 3.670e-4
-1.596, 3.609e-4
-1.595, 3.547e-4
-1.594, 3.485e-4
-1.593, 3.424e-4
-1.592, 3.362e-4
-1.591, 3.270e-4
-1.590, 3.239e-4
-1.589, 3.177e-4
-1.588, 3.115e-4
-1.587, 3.054e-4
-1.586, 2.992e-4
-1.585, 2.931e-4
-1.584, 2.900e-4
-1.583, 2.838e-4
-1.582, 2.776e-4
-1.581, 2.715e-4
-1.580, 2.684e-4
-1.579, 2.622e-4
-1.578, 2.591e-4
-1.577, 2.530e-4
-1.576, 2.499e-4
-1.575, 2.437e-4
-1.574, 2.376e-4
-1.573, 2.345e-4
-1.572, 2.314e-4
-1.571, 2.252e-4
-1.570, 2.221e-4
-1.569, 2.191e-4
-1.568, 2.129e-4
-1.567, 2.098e-4
-1.566, 2.067e-4
-1.565, 2.036e-4
-1.564, 1.975e-4
-1.563, 1.944e-4
-1.562, 1.913e-4
-1.561, 1.882e-4
-1.560, 1.851e-4
-1.559, 1.821e-4
-1.558, 1.790e-4
-1.557, 1.759e-4
-1.556, 1.728e-4
-1.555, 1.697e-4
-1.554, 1.636e-4
-1.553, 1.605e-4
-1.552, 1.574e-4
-1.551, 1.574e-4
-1.550, 1.543e-4
-1.549, 1.512e-4
-1.548, 1.481e-4
-1.547, 1.451e-4
-1.546, 1.420e-4
-1.545, 1.420e-4
-1.544, 1.389e-4
-1.543, 1.358e-4
-1.542, 1.327e-4
-1.541, 1.296e-4
-1.540, 1.266e-4
-1.539, 1.266e-4
-1.538, 1.235e-4
-1.537, 1.204e-4
-1.536, 1.173e-4
-1.535, 1.173e-4
-1.534, 1.142e-4
-1.533, 1.111e-4
-1.532, 1.111e-4
-1.531, 1.081e-4
-1.530, 1.050e-4
-1.529, 1.050e-4
-1.528, 1.019e-4
-1.527, 9.882e-5
-1.526, 9.882e-5
-1.525, 9.882e-5
-1.524, 9.573e-5
-1.523, 9.265e-5
-1.522, 9.265e-5
-1.521, 8.957e-5
-1.520, 8.957e-5
-1.519, 8.648e-5
-1.518, 8.648e-5
-1.517, 8.340e-5
-1.516, 8.340e-5
-1.515, 8.032e-5
-1.514, 8.032e-5
-1.513, 7.723e-5
-1.512, 7.723e-5
-1.511, 7.415e-5
-1.510, 7.415e-5
-1.509, 7.415e-5
-1.508, 7.107e-5
-1.507, 7.107e-5
-1.506, 6.798e-5
-1.505, 6.798e-5
-1.504, 6.490e-5
-1.503, 6.490e-5
-1.502, 6.182e-5
-1.501, 6.182e-5
-1.500, 6.182e-5
-1.499, 5.873e-5
-1.498, 5.873e-5
-1.497, 5.873e-5
-1.496, 5.565e-5
-1.495, 5.565e-5
-1.494, 5.565e-5
-1.493, 5.257e-5
-1.492, 5.257e-5
-1.491, 5.257e-5
-1.490, 5.257e-5
-1.489, 5.257e-5
-1.488, 4.949e-5
-1.487, 4.949e-5
-1.486, 4.640e-5
-1.485, 4.640e-5
-1.484, 4.640e-5
-1.483, 4.640e-5
-1.482, 4.332e-5
-1.481, 4.332e-5
-1.480, 4.332e-5
-1.479, 4.024e-5
-1.478, 4.024e-5
-1.477, 4.024e-5
-1.476, 4.024e-5
-1.475, 4.024e-5
-1.474, 3.715e-5
-1.473, 3.715e-5
-1.472, 3.715e-5
-1.471, 3.715e-5
-1.470, 3.407e-5
-1.469, 3.407e-5
-1.468, 3.407e-5
-1.467, 3.407e-5
-1.466, 3.099e-5
-1.465, 3.099e-5
-1.464, 3.099e-5
-1.463, 3.099e-5
-1.462, 3.099e-5
-1.461, 2.790e-5
-1.460, 2.790e-5
-1.459, 2.790e-5
-1.458, 2.790e-5
-1.457, 2.790e-5
-1.456, 2.482e-5
-1.455, 2.790e-5
-1.454, 2.482e-5
-1.453, 2.482e-5
-1.452, 2.482e-5
-1.451, 2.482e-5
-1.450, 2.482e-5
-1.449, 2.174e-5
-1.448, 2.174e-5
-1.447, 2.174e-5
-1.446, 2.174e-5
-1.445, 2.174e-5
-1.444, 2.174e-5
-1.443, 2.174e-5
-1.442, 2.174e-5
-1.441, 1.865e-5
-1.440, 1.865e-5
-1.439, 1.865e-5
-1.438, 1.865e-5
-1.437, 1.865e-5
-1.436, 1.865e-5
-1.435, 1.865e-5
-1.434, 1.557e-5
-1.433, 1.557e-5
-1.432, 1.557e-5
-1.431, 1.557e-5
-1.430, 1.557e-5
-1.429, 1.557e-5
-1.428, 1.557e-5
-1.427, 1.557e-5
-1.426, 1.557e-5
-1.425, 1.557e-5
-1.424, 1.557e-5
-1.423, 1.557e-5
-1.422, 1.249e-5
-1.421, 1.249e-5
-1.420, 1.249e-5
-1.419, 1.249e-5
-1.418, 1.249e-5
-1.417, 1.249e-5
-1.416, 1.249e-5
-1.415, 1.249e-5
-1.414, 1.249e-5
-1.413, 1.249e-5
-1.412, 1.249e-5
-1.411, 9.405e-6
-1.410, 9.405e-6
-1.409, 9.405e-6
-1.408, 9.405e-6
-1.407, 9.405e-6
-1.406, 9.405e-6
-1.405, 9.405e-6
-1.404, 9.405e-6
-1.403, 9.405e-6
-1.402, 9.405e-6
-1.401, 9.405e-6
-1.400, 9.405e-6
-1.399, 6.322e-6
-1.398, 6.322e-6
-1.397, 9.405e-6
-1.396, 6.322e-6
-1.395, 6.322e-6
-1.394, 6.322e-6
-1.393, 6.322e-6
-1.392, 6.322e-6
-1.391, 6.322e-6
-1.390, 6.322e-6
-1.389, 6.322e-6
-1.388, 6.322e-6
-1.387, 6.322e-6
-1.386, 6.322e-6
-1.385, 6.322e-6
-1.384, 3.239e-6
-1.383, 3.239e-6
-1.382, 3.239e-6
-1.381, 6.322e-6
-1.380, 3.239e-6
-1.379, 3.239e-6
-1.378, 6.322e-6
-1.377, 3.239e-6
-1.376, 3.239e-6
-1.375, 3.239e-6
-1.374, 3.239e-6
-1.373, 3.239e-6
-1.372, 3.239e-6
-1.371, 3.239e-6
-1.370, 3.239e-6
-1.369, 3.239e-6
-1.368, 3.239e-6
-1.367, 3.239e-6
-1.366, 3.239e-6
-1.365, 3.239e-6
-1.364, 3.239e-6
-1.363, 3.239e-6
-1.362, 3.239e-6
-1.361, 3.239e-6
-1.360, 1.559e-7
-1.359, 1.559e-7
-1.358, 1.559e-7
-1.357, 3.239e-6
-1.356, 1.559e-7
-1.355, 3.239e-6
-1.354, 1.559e-7
-1.353, 1.559e-7
-1.352, 3.239e-6
-1.351, 1.559e-7
-1.350, 1.559e-7
-1.349, 1.559e-7
-1.348, 1.559e-7
-1.347, 1.559e-7
-1.346, 1.559e-7
-1.345, 1.559e-7
-1.344, 1.559e-7
-1.343, 1.559e-7
-1.342, 1.559e-7
-1.341, 1.559e-7
-1.340, 1.559e-7
-1.339, 1.559e-7
-1.338, 1.559e-7
-1.337, 1.559e-7
-1.336, 1.559e-7
-1.335, 1.559e-7
-1.334, 1.559e-7
-1.333, 1.559e-7
-1.332, 1.559e-7
-1.331, 1.559e-7
-1.330, 1.559e-7
-1.329, 1.559e-7
-1.328, 1.559e-7
-1.327, 1.559e-7
-1.326, -2.927e-6
-1.325, 1.559e-7
-1.324, 1.559e-7
-1.323, 1.559e-7
-1.322, 1.559e-7
-1.321, -2.927e-6
-1.320, 1.559e-7
-1.319, 1.559e-7
-1.318, 1.559e-7
-1.317, -2.927e-6
-1.316, -2.927e-6
-1.315, -2.927e-6
-1.314, 1.559e-7
-1.313, -2.927e-6
-1.312, -2.927e-6
-1.311, -2.927e-6
-1.310, 1.559e-7
-1.309, -2.927e-6
-1.308, -2.927e-6
-1.307, -2.927e-6
-1.306, -2.927e-6
-1.305, -2.927e-6
-1.304, -2.927e-6
-1.303, -2.927e-6
-1.302, -2.927e-6
-1.301, -2.927e-6
-1.300, -2.927e-6
-1.299, -2.927e-6
-1.298, -2.927e-6
-1.297, -2.927e-6
-1.296, -2.927e-6
-1.295, -2.927e-6
-1.294, -2.927e-6
-1.293, -2.927e-6
-1.292, -2.927e-6
-1.291, -2.927e-6
-1.290, -2.927e-6
-1.289, -2.927e-6
-1.288, -2.927e-6
-1.287, -2.927e-6
-1.286, -2.927e-6
-1.285, -2.927e-6
-1.284, -2.927e-6
-1.283, -2.927e-6
-1.282, -2.927e-6
-1.281, -2.927e-6
-1.280, -2.927e-6
-1.279, -2.927e-6
-1.278, -2.927e-6
-1.277, -2.927e-6
-1.276, -2.927e-6
-1.275, -2.927e-6
-1.274, -2.927e-6
-1.273, -2.927e-6
-1.272, -2.927e-6
-1.271, -2.927e-6
-1.270, -2.927e-6
-1.269, -2.927e-6
-1.268, -2.927e-6
-1.267, -2.927e-6
-1.266, -2.927e-6
-1.265, -2.927e-6
-1.264, -2.927e-6
-1.263, -2.927e-6
-1.262, -2.927e-6
-1.261, -6.010e-6
-1.260, -2.927e-6
-1.259, -6.010e-6
-1.258, -2.927e-6
-1.257, -2.927e-6
-1.256, -2.927e-6
-1.255, -2.927e-6
-1.254, -6.010e-6
-1.253, -2.927e-6
-1.252, -2.927e-6
-1.251, -2.927e-6
-1.250, -2.927e-6
-1.249, -6.010e-6
-1.248, -2.927e-6
-1.247, -2.927e-6
-1.246, -2.927e-6
-1.245, -6.010e-6
-1.244, -6.010e-6
-1.243, -6.010e-6
-1.242, -6.010e-6
-1.241, -2.927e-6
-1.240, -2.927e-6
-1.239, -2.927e-6
-1.238, -2.927e-6
-1.237, -2.927e-6
-1.236, -6.010e-6
-1.235, -2.927e-6
-1.234, -6.010e-6
-1.233, -2.927e-6
-1.232, -6.010e-6
-1.231, -6.010e-6
-1.230, -6.010e-6
-1.229, -6.010e-6
-1.228, -6.010e-6
-1.227, -6.010e-6
-1.226, -6.010e-6
-1.225, -6.010e-6
-1.224, -6.010e-6
-1.223, -6.010e-6
-1.222, -6.010e-6
-1.221, -2.927e-6
-1.220, -6.010e-6
-1.219, -6.010e-6
-1.218, -6.010e-6
-1.217, -6.010e-6
-1.216, -6.010e-6
-1.215, -6.010e-6
-1.214, -6.010e-6
-1.213, -6.010e-6
-1.212, -6.010e-6
-1.211, -6.010e-6
-1.210, -6.010e-6
-1.209, -6.010e-6
-1.208, -6.010e-6
-1.207, -6.010e-6
-1.206, -6.010e-6
-1.205, -6.010e-6
-1.204, -6.010e-6
-1.203, -6.010e-6
-1.202, -6.010e-6
-1.201, -6.010e-6
-1.200, -6.010e-6
-1.199, -6.010e-6
-1.198, -6.010e-6
-1.197, -6.010e-6
-1.196, -6.010e-6
-1.195, -6.010e-6
-1.194, -6.010e-6
-1.193, -6.010e-6
-1.192, -6.010e-6
-1.191, -6.010e-6
-1.190, -6.010e-6
-1.189, -6.010e-6
-1.188, -6.010e-6
-1.187, -6.010e-6
-1.186, -6.010e-6
-1.185, -6.010e-6
-1.184, -6.010e-6
-1.183, -6.010e-6
-1.182, -6.010e-6
-1.181, -6.010e-6
-1.180, -6.010e-6
-1.179, -6.010e-6
-1.178, -6.010e-6
-1.177, -6.010e-6
-1.176, -6.010e-6
-1.175, -6.010e-6
-1.174, -6.010e-6
-1.173, -6.010e-6
-1.172, -6.010e-6
-1.171, -6.010e-6
-1.170, -6.010e-6
-1.169, -6.010e-6
-1.168, -6.010e-6
-1.167, -6.010e-6
-1.166, -6.010e-6
-1.165, -6.010e-6
-1.164, -6.010e-6
-1.163, -6.010e-6
-1.162, -6.010e-6
-1.161, -6.010e-6
-1.160, -6.010e-6
-1.159, -6.010e-6
-1.158, -6.010e-6
-1.157, -6.010e-6
-1.156, -6.010e-6
-1.155, -6.010e-6
-1.154, -6.010e-6
-1.153, -6.010e-6
-1.152, -6.010e-6
-1.151, -6.010e-6
-1.150, -6.010e-6
-1.149, -6.010e-6
-1.148, -6.010e-6
-1.147, -6.010e-6
-1.146, -6.010e-6
-1.145, -6.010e-6
-1.144, -6.010e-6
-1.143, -6.010e-6
-1.142, -6.010e-6
-1.141, -6.010e-6
-1.140, -6.010e-6
-1.139, -6.010e-6
-1.138, -6.010e-6
-1.137, -6.010e-6
-1.136, -6.010e-6
-1.135, -6.010e-6
-1.134, -6.010e-6
-1.133, -6.010e-6
-1.132, -6.010e-6
-1.131, -6.010e-6
-1.130, -6.010e-6
-1.129, -6.010e-6
-1.128, -6.010e-6
-1.127, -6.010e-6
-1.126, -6.010e-6
-1.125, -9.093e-6
-1.124, -9.093e-6
-1.123, -9.093e-6
-1.122, -6.010e-6
-1.121, -9.093e-6
-1.120, -6.010e-6
-1.119, -6.010e-6
-1.118, -6.010e-6
-1.117, -9.093e-6
-1.116, -9.093e-6
-1.115, -6.010e-6
-1.114, -9.093e-6
-1.113, -9.093e-6
-1.112, -9.093e-6
-1.111, -9.093e-6
-1.110, -9.093e-6
-1.109, -9.093e-6
-1.108, -9.093e-6
-1.107, -9.093e-6
-1.106, -9.093e-6
-1.105, -9.093e-6
-1.104, -9.093e-6
-1.103, -9.093e-6
-1.102, -9.093e-6
-1.101, -9.093e-6
-1.100, -9.093e-6
-1.099, -9.093e-6
-1.098, -9.093e-6
-1.097, -9.093e-6
-1.096, -9.093e-6
-1.095, -9.093e-6
-1.094, -9.093e-6
-1.093, -9.093e-6
-1.092, -9.093e-6
-1.091, -9.093e-6
-1.090, -9.093e-6
-1.089, -9.093e-6
-1.088, -9.093e-6
-1.087, -9.093e-6
-1.086, -9.093e-6
-1.085, -9.093e-6
-1.084, -9.093e-6
-1.083, -9.093e-6
-1.082, -9.093e-6
-1.081, -9.093e-6
-1.080, -9.093e-6
-1.079, -9.093e-6
-1.078, -9.093e-6
-1.077, -9.093e-6
-1.076, -9.093e-6
-1.075, -9.093e-6
-1.074, -9.093e-6
-1.073, -9.093e-6
-1.072, -9.093e-6
-1.071, -9.093e-6
-1.070, -9.093e-6
-1.069, -9.093e-6
-1.068, -9.093e-6
-1.067, -9.093e-6
-1.066, -9.093e-6
-1.065, -9.093e-6
-1.064, -9.093e-6
-1.063, -9.093e-6
-1.062, -9.093e-6
-1.061, -9.093e-6
-1.060, -9.093e-6
-1.059, -9.093e-6
-1.058, -9.093e-6
-1.057, -9.093e-6
-1.056, -1.218e-5
-1.055, -9.093e-6
-1.054, -9.093e-6
-1.053, -9.093e-6
-1.052, -9.093e-6
-1.051, -9.093e-6
-1.050, -9.093e-6
-1.049, -9.093e-6
-1.048, -9.093e-6
-1.047, -9.093e-6
-1.046, -9.093e-6
-1.045, -9.093e-6
-1.044, -1.218e-5
-1.043, -1.218e-5
-1.042, -1.218e-5
-1.041, -1.218e-5
-1.040, -9.093e-6
-1.039, -1.218e-5
-1.038, -1.218e-5
-1.037, -1.218e-5
-1.036, -1.218e-5
-1.035, -1.218e-5
-1.034, -1.218e-5
-1.033, -1.218e-5
-1.032, -1.218e-5
-1.031, -1.218e-5
-1.030, -1.218e-5
-1.029, -1.218e-5
-1.028, -1.218e-5
-1.027, -1.218e-5
-1.026, -1.218e-5
-1.025, -1.218e-5
-1.024, -1.218e-5
-1.023, -1.218e-5
-1.022, -1.218e-5
-1.021, -1.218e-5
-1.020, -1.218e-5
-1.019, -1.218e-5
-1.018, -1.218e-5
-1.017, -1.218e-5
-1.016, -1.218e-5
-1.015, -1.218e-5
-1.014, -1.218e-5
-1.013, -1.218e-5
-1.012, -1.218e-5
-1.011, -1.218e-5
-1.010, -1.218e-5
-1.009, -1.526e-5
-1.008, -1.218e-5
-1.007, -1.218e-5
-1.006, -1.218e-5
-1.005, -1.526e-5
-1.004, -1.526e-5
-1.003, -1.526e-5
-1.002, -1.526e-5
-1.001, -1.526e-5
