Apr. 3, 2025   17:03:29
Linear Sweep Voltammetry
File: c:/users/guazh/data/banditlqround7_x0exp518_r20/2025-03-28-exp1031\regeneratedgce-2025-04-03t16_58_51-lsvinkoh\regeneratedgce_lsv_50mvs_efin_-1900mv.bin
Data Source:  Experiment
Instrument Model:  CHI760E
Header: LSV ran at 50 mVs with Efin at -1900mV
Note: 

Init E (V) = -0.6
Final E (V) = -1.9
Scan Rate (V/s) = 0.05
Sample Interval (V) = 0.001
Quiet Time (sec) = 2
Sensitivity (A/V) = 1e-4
Comp R (ohm) = 2.0

Results:

Channel 1:

Potential/V, Current/A

-0.600, 2.562e-7
-0.601, 4.128e-7
-0.602, 4.441e-7
-0.603, 4.584e-7
-0.604, 4.695e-7
-0.605, 4.801e-7
-0.606, 4.910e-7
-0.607, 4.963e-7
-0.608, 5.024e-7
-0.609, 5.098e-7
-0.610, 5.159e-7
-0.611, 5.237e-7
-0.612, 5.295e-7
-0.613, 5.325e-7
-0.614, 5.399e-7
-0.615, 5.471e-7
-0.616, 5.513e-7
-0.617, 5.551e-7
-0.618, 5.586e-7
-0.619, 5.626e-7
-0.620, 5.689e-7
-0.621, 5.740e-7
-0.622, 5.777e-7
-0.623, 5.802e-7
-0.624, 5.835e-7
-0.625, 5.903e-7
-0.626, 5.937e-7
-0.627, 5.972e-7
-0.628, 6.000e-7
-0.629, 6.030e-7
-0.630, 6.089e-7
-0.631, 6.123e-7
-0.632, 6.134e-7
-0.633, 6.182e-7
-0.634, 6.208e-7
-0.635, 6.272e-7
-0.636, 6.317e-7
-0.637, 6.324e-7
-0.638, 6.360e-7
-0.639, 6.382e-7
-0.640, 6.435e-7
-0.641, 6.477e-7
-0.642, 6.492e-7
-0.643, 6.527e-7
-0.644, 6.555e-7
-0.645, 6.587e-7
-0.646, 6.650e-7
-0.647, 6.660e-7
-0.648, 6.665e-7
-0.649, 6.702e-7
-0.650, 6.748e-7
-0.651, 6.793e-7
-0.652, 6.809e-7
-0.653, 6.835e-7
-0.654, 6.879e-7
-0.655, 6.924e-7
-0.656, 6.958e-7
-0.657, 6.979e-7
-0.658, 6.982e-7
-0.659, 7.013e-7
-0.660, 7.063e-7
-0.661, 7.087e-7
-0.662, 7.114e-7
-0.663, 7.133e-7
-0.664, 7.154e-7
-0.665, 7.210e-7
-0.666, 7.266e-7
-0.667, 7.261e-7
-0.668, 7.287e-7
-0.669, 7.289e-7
-0.670, 7.335e-7
-0.671, 7.365e-7
-0.672, 7.390e-7
-0.673, 7.412e-7
-0.674, 7.419e-7
-0.675, 7.476e-7
-0.676, 7.524e-7
-0.677, 7.513e-7
-0.678, 7.536e-7
-0.679, 7.568e-7
-0.680, 7.603e-7
-0.681, 7.656e-7
-0.682, 7.655e-7
-0.683, 7.688e-7
-0.684, 7.707e-7
-0.685, 7.741e-7
-0.686, 7.790e-7
-0.687, 7.789e-7
-0.688, 7.802e-7
-0.689, 7.832e-7
-0.690, 7.858e-7
-0.691, 7.907e-7
-0.692, 7.930e-7
-0.693, 7.935e-7
-0.694, 7.972e-7
-0.695, 8.025e-7
-0.696, 8.053e-7
-0.697, 8.065e-7
-0.698, 8.082e-7
-0.699, 8.104e-7
-0.700, 8.152e-7
-0.701, 8.170e-7
-0.702, 8.204e-7
-0.703, 8.203e-7
-0.704, 8.232e-7
-0.705, 8.282e-7
-0.706, 8.307e-7
-0.707, 8.328e-7
-0.708, 8.346e-7
-0.709, 8.358e-7
-0.710, 8.405e-7
-0.711, 8.445e-7
-0.712, 8.454e-7
-0.713, 8.471e-7
-0.714, 8.480e-7
-0.715, 8.541e-7
-0.716, 8.560e-7
-0.717, 8.578e-7
-0.718, 8.604e-7
-0.719, 8.621e-7
-0.720, 8.659e-7
-0.721, 8.694e-7
-0.722, 8.701e-7
-0.723, 8.728e-7
-0.724, 8.747e-7
-0.725, 8.783e-7
-0.726, 8.809e-7
-0.727, 8.834e-7
-0.728, 8.840e-7
-0.729, 8.882e-7
-0.730, 8.918e-7
-0.731, 8.955e-7
-0.732, 8.963e-7
-0.733, 8.964e-7
-0.734, 9.004e-7
-0.735, 9.026e-7
-0.736, 9.060e-7
-0.737, 9.083e-7
-0.738, 9.094e-7
-0.739, 9.130e-7
-0.740, 9.173e-7
-0.741, 9.192e-7
-0.742, 9.221e-7
-0.743, 9.238e-7
-0.744, 9.250e-7
-0.745, 9.299e-7
-0.746, 9.304e-7
-0.747, 9.319e-7
-0.748, 9.350e-7
-0.749, 9.365e-7
-0.750, 9.410e-7
-0.751, 9.438e-7
-0.752, 9.444e-7
-0.753, 9.476e-7
-0.754, 9.484e-7
-0.755, 9.545e-7
-0.756, 9.583e-7
-0.757, 9.579e-7
-0.758, 9.618e-7
-0.759, 9.617e-7
-0.760, 9.657e-7
-0.761, 9.697e-7
-0.762, 9.682e-7
-0.763, 9.719e-7
-0.764, 9.737e-7
-0.765, 9.770e-7
-0.766, 9.815e-7
-0.767, 9.821e-7
-0.768, 9.872e-7
-0.769, 9.881e-7
-0.770, 9.907e-7
-0.771, 9.935e-7
-0.772, 9.937e-7
-0.773, 9.960e-7
-0.774, 9.987e-7
-0.775, 1.002e-6
-0.776, 1.004e-6
-0.777, 1.006e-6
-0.778, 1.007e-6
-0.779, 1.010e-6
-0.780, 1.015e-6
-0.781, 1.016e-6
-0.782, 1.019e-6
-0.783, 1.020e-6
-0.784, 1.022e-6
-0.785, 1.026e-6
-0.786, 1.029e-6
-0.787, 1.031e-6
-0.788, 1.032e-6
-0.789, 1.034e-6
-0.790, 1.039e-6
-0.791, 1.040e-6
-0.792, 1.042e-6
-0.793, 1.045e-6
-0.794, 1.046e-6
-0.795, 1.051e-6
-0.796, 1.055e-6
-0.797, 1.054e-6
-0.798, 1.058e-6
-0.799, 1.059e-6
-0.800, 1.063e-6
-0.801, 1.067e-6
-0.802, 1.067e-6
-0.803, 1.069e-6
-0.804, 1.071e-6
-0.805, 1.074e-6
-0.806, 1.078e-6
-0.807, 1.079e-6
-0.808, 1.081e-6
-0.809, 1.083e-6
-0.810, 1.086e-6
-0.811, 1.090e-6
-0.812, 1.089e-6
-0.813, 1.091e-6
-0.814, 1.094e-6
-0.815, 1.099e-6
-0.816, 1.100e-6
-0.817, 1.102e-6
-0.818, 1.103e-6
-0.819, 1.111e-6
-0.820, 1.114e-6
-0.821, 1.114e-6
-0.822, 1.117e-6
-0.823, 1.117e-6
-0.824, 1.119e-6
-0.825, 1.124e-6
-0.826, 1.127e-6
-0.827, 1.128e-6
-0.828, 1.129e-6
-0.829, 1.131e-6
-0.830, 1.135e-6
-0.831, 1.136e-6
-0.832, 1.138e-6
-0.833, 1.142e-6
-0.834, 1.144e-6
-0.835, 1.150e-6
-0.836, 1.153e-6
-0.837, 1.153e-6
-0.838, 1.155e-6
-0.839, 1.157e-6
-0.840, 1.161e-6
-0.841, 1.164e-6
-0.842, 1.163e-6
-0.843, 1.167e-6
-0.844, 1.169e-6
-0.845, 1.174e-6
-0.846, 1.179e-6
-0.847, 1.177e-6
-0.848, 1.180e-6
-0.849, 1.183e-6
-0.850, 1.186e-6
-0.851, 1.191e-6
-0.852, 1.192e-6
-0.853, 1.192e-6
-0.854, 1.196e-6
-0.855, 1.200e-6
-0.856, 1.202e-6
-0.857, 1.203e-6
-0.858, 1.206e-6
-0.859, 1.209e-6
-0.860, 1.213e-6
-0.861, 1.216e-6
-0.862, 1.218e-6
-0.863, 1.220e-6
-0.864, 1.222e-6
-0.865, 1.225e-6
-0.866, 1.227e-6
-0.867, 1.229e-6
-0.868, 1.232e-6
-0.869, 1.233e-6
-0.870, 1.239e-6
-0.871, 1.243e-6
-0.872, 1.241e-6
-0.873, 1.245e-6
-0.874, 1.247e-6
-0.875, 1.252e-6
-0.876, 1.254e-6
-0.877, 1.255e-6
-0.878, 1.257e-6
-0.879, 1.259e-6
-0.880, 1.264e-6
-0.881, 1.267e-6
-0.882, 1.268e-6
-0.883, 1.270e-6
-0.884, 1.274e-6
-0.885, 1.278e-6
-0.886, 1.282e-6
-0.887, 1.281e-6
-0.888, 1.285e-6
-0.889, 1.288e-6
-0.890, 1.291e-6
-0.891, 1.296e-6
-0.892, 1.297e-6
-0.893, 1.299e-6
-0.894, 1.302e-6
-0.895, 1.307e-6
-0.896, 1.309e-6
-0.897, 1.312e-6
-0.898, 1.312e-6
-0.899, 1.314e-6
-0.900, 1.320e-6
-0.901, 1.321e-6
-0.902, 1.325e-6
-0.903, 1.328e-6
-0.904, 1.330e-6
-0.905, 1.336e-6
-0.906, 1.338e-6
-0.907, 1.340e-6
-0.908, 1.342e-6
-0.909, 1.344e-6
-0.910, 1.351e-6
-0.911, 1.352e-6
-0.912, 1.353e-6
-0.913, 1.356e-6
-0.914, 1.358e-6
-0.915, 1.363e-6
-0.916, 1.366e-6
-0.917, 1.367e-6
-0.918, 1.370e-6
-0.919, 1.372e-6
-0.920, 1.377e-6
-0.921, 1.381e-6
-0.922, 1.382e-6
-0.923, 1.386e-6
-0.924, 1.389e-6
-0.925, 1.393e-6
-0.926, 1.397e-6
-0.927, 1.398e-6
-0.928, 1.400e-6
-0.929, 1.403e-6
-0.930, 1.407e-6
-0.931, 1.411e-6
-0.932, 1.413e-6
-0.933, 1.415e-6
-0.934, 1.420e-6
-0.935, 1.425e-6
-0.936, 1.427e-6
-0.937, 1.430e-6
-0.938, 1.432e-6
-0.939, 1.437e-6
-0.940, 1.443e-6
-0.941, 1.446e-6
-0.942, 1.448e-6
-0.943, 1.450e-6
-0.944, 1.454e-6
-0.945, 1.459e-6
-0.946, 1.463e-6
-0.947, 1.468e-6
-0.948, 1.471e-6
-0.949, 1.475e-6
-0.950, 1.481e-6
-0.951, 1.486e-6
-0.952, 1.488e-6
-0.953, 1.493e-6
-0.954, 1.496e-6
-0.955, 1.501e-6
-0.956, 1.506e-6
-0.957, 1.508e-6
-0.958, 1.511e-6
-0.959, 1.517e-6
-0.960, 1.523e-6
-0.961, 1.528e-6
-0.962, 1.529e-6
-0.963, 1.534e-6
-0.964, 1.540e-6
-0.965, 1.545e-6
-0.966, 1.550e-6
-0.967, 1.551e-6
-0.968, 1.556e-6
-0.969, 1.559e-6
-0.970, 1.565e-6
-0.971, 1.569e-6
-0.972, 1.573e-6
-0.973, 1.579e-6
-0.974, 1.581e-6
-0.975, 1.585e-6
-0.976, 1.590e-6
-0.977, 1.594e-6
-0.978, 1.596e-6
-0.979, 1.600e-6
-0.980, 1.607e-6
-0.981, 1.609e-6
-0.982, 1.613e-6
-0.983, 1.615e-6
-0.984, 1.619e-6
-0.985, 1.625e-6
-0.986, 1.629e-6
-0.987, 1.633e-6
-0.988, 1.635e-6
-0.989, 1.637e-6
-0.990, 1.643e-6
-0.991, 1.647e-6
-0.992, 1.650e-6
-0.993, 1.654e-6
-0.994, 1.656e-6
-0.995, 1.663e-6
-0.996, 1.666e-6
-0.997, 1.668e-6
-0.998, 1.673e-6
-0.999, 1.675e-6
-1.000, 1.680e-6
-1.001, 1.687e-6
-1.002, 1.688e-6
-1.003, 1.691e-6
-1.004, 1.696e-6
-1.005, 1.700e-6
-1.006, 1.705e-6
-1.007, 1.706e-6
-1.008, 1.710e-6
-1.009, 1.715e-6
-1.010, 1.720e-6
-1.011, 1.727e-6
-1.012, 1.729e-6
-1.013, 1.731e-6
-1.014, 1.736e-6
-1.015, 1.740e-6
-1.016, 1.745e-6
-1.017, 1.747e-6
-1.018, 1.750e-6
-1.019, 1.755e-6
-1.020, 1.760e-6
-1.021, 1.763e-6
-1.022, 1.766e-6
-1.023, 1.769e-6
-1.024, 1.776e-6
-1.025, 1.779e-6
-1.026, 1.783e-6
-1.027, 1.786e-6
-1.028, 1.789e-6
-1.029, 1.792e-6
-1.030, 1.801e-6
-1.031, 1.803e-6
-1.032, 1.806e-6
-1.033, 1.810e-6
-1.034, 1.813e-6
-1.035, 1.819e-6
-1.036, 1.824e-6
-1.037, 1.826e-6
-1.038, 1.830e-6
-1.039, 1.832e-6
-1.040, 1.840e-6
-1.041, 1.845e-6
-1.042, 1.846e-6
-1.043, 1.851e-6
-1.044, 1.856e-6
-1.045, 1.860e-6
-1.046, 1.865e-6
-1.047, 1.867e-6
-1.048, 1.870e-6
-1.049, 1.876e-6
-1.050, 1.881e-6
-1.051, 1.888e-6
-1.052, 1.890e-6
-1.053, 1.892e-6
-1.054, 1.895e-6
-1.055, 1.902e-6
-1.056, 1.906e-6
-1.057, 1.910e-6
-1.058, 1.912e-6
-1.059, 1.915e-6
-1.060, 1.922e-6
-1.061, 1.925e-6
-1.062, 1.929e-6
-1.063, 1.931e-6
-1.064, 1.936e-6
-1.065, 1.942e-6
-1.066, 1.945e-6
-1.067, 1.947e-6
-1.068, 1.952e-6
-1.069, 1.955e-6
-1.070, 1.961e-6
-1.071, 1.964e-6
-1.072, 1.968e-6
-1.073, 1.971e-6
-1.074, 1.975e-6
-1.075, 1.981e-6
-1.076, 1.987e-6
-1.077, 1.987e-6
-1.078, 1.992e-6
-1.079, 1.994e-6
-1.080, 2.001e-6
-1.081, 2.006e-6
-1.082, 2.007e-6
-1.083, 2.010e-6
-1.084, 2.012e-6
-1.085, 2.018e-6
-1.086, 2.023e-6
-1.087, 2.024e-6
-1.088, 2.030e-6
-1.089, 2.035e-6
-1.090, 2.038e-6
-1.091, 2.044e-6
-1.092, 2.046e-6
-1.093, 2.048e-6
-1.094, 2.053e-6
-1.095, 2.058e-6
-1.096, 2.063e-6
-1.097, 2.066e-6
-1.098, 2.069e-6
-1.099, 2.071e-6
-1.100, 2.077e-6
-1.101, 2.082e-6
-1.102, 2.086e-6
-1.103, 2.088e-6
-1.104, 2.091e-6
-1.105, 2.100e-6
-1.106, 2.103e-6
-1.107, 2.105e-6
-1.108, 2.109e-6
-1.109, 2.111e-6
-1.110, 2.117e-6
-1.111, 2.120e-6
-1.112, 2.124e-6
-1.113, 2.129e-6
-1.114, 2.132e-6
-1.115, 2.137e-6
-1.116, 2.141e-6
-1.117, 2.142e-6
-1.118, 2.146e-6
-1.119, 2.147e-6
-1.120, 2.154e-6
-1.121, 2.160e-6
-1.122, 2.162e-6
-1.123, 2.163e-6
-1.124, 2.166e-6
-1.125, 2.171e-6
-1.126, 2.177e-6
-1.127, 2.178e-6
-1.128, 2.180e-6
-1.129, 2.184e-6
-1.130, 2.187e-6
-1.131, 2.193e-6
-1.132, 2.195e-6
-1.133, 2.199e-6
-1.134, 2.203e-6
-1.135, 2.206e-6
-1.136, 2.210e-6
-1.137, 2.212e-6
-1.138, 2.214e-6
-1.139, 2.217e-6
-1.140, 2.222e-6
-1.141, 2.226e-6
-1.142, 2.229e-6
-1.143, 2.231e-6
-1.144, 2.234e-6
-1.145, 2.239e-6
-1.146, 2.245e-6
-1.147, 2.246e-6
-1.148, 2.249e-6
-1.149, 2.251e-6
-1.150, 2.257e-6
-1.151, 2.262e-6
-1.152, 2.264e-6
-1.153, 2.268e-6
-1.154, 2.268e-6
-1.155, 2.273e-6
-1.156, 2.279e-6
-1.157, 2.281e-6
-1.158, 2.285e-6
-1.159, 2.286e-6
-1.160, 2.291e-6
-1.161, 2.297e-6
-1.162, 2.299e-6
-1.163, 2.302e-6
-1.164, 2.305e-6
-1.165, 2.309e-6
-1.166, 2.314e-6
-1.167, 2.314e-6
-1.168, 2.317e-6
-1.169, 2.321e-6
-1.170, 2.325e-6
-1.171, 2.331e-6
-1.172, 2.333e-6
-1.173, 2.335e-6
-1.174, 2.339e-6
-1.175, 2.344e-6
-1.176, 2.349e-6
-1.177, 2.352e-6
-1.178, 2.358e-6
-1.179, 2.360e-6
-1.180, 2.363e-6
-1.181, 2.368e-6
-1.182, 2.370e-6
-1.183, 2.372e-6
-1.184, 2.374e-6
-1.185, 2.380e-6
-1.186, 2.384e-6
-1.187, 2.386e-6
-1.188, 2.388e-6
-1.189, 2.393e-6
-1.190, 2.401e-6
-1.191, 2.405e-6
-1.192, 2.404e-6
-1.193, 2.408e-6
-1.194, 2.410e-6
-1.195, 2.415e-6
-1.196, 2.419e-6
-1.197, 2.421e-6
-1.198, 2.424e-6
-1.199, 2.426e-6
-1.200, 2.431e-6
-1.201, 2.437e-6
-1.202, 2.438e-6
-1.203, 2.442e-6
-1.204, 2.444e-6
-1.205, 2.448e-6
-1.206, 2.454e-6
-1.207, 2.457e-6
-1.208, 2.458e-6
-1.209, 2.463e-6
-1.210, 2.466e-6
-1.211, 2.471e-6
-1.212, 2.473e-6
-1.213, 2.475e-6
-1.214, 2.478e-6
-1.215, 2.482e-6
-1.216, 2.488e-6
-1.217, 2.491e-6
-1.218, 2.492e-6
-1.219, 2.497e-6
-1.220, 2.504e-6
-1.221, 2.508e-6
-1.222, 2.513e-6
-1.223, 2.515e-6
-1.224, 2.518e-6
-1.225, 2.523e-6
-1.226, 2.527e-6
-1.227, 2.531e-6
-1.228, 2.534e-6
-1.229, 2.545e-6
-1.230, 2.548e-6
-1.231, 2.550e-6
-1.232, 2.552e-6
-1.233, 2.557e-6
-1.234, 2.559e-6
-1.235, 2.565e-6
-1.236, 2.571e-6
-1.237, 2.572e-6
-1.238, 2.576e-6
-1.239, 2.581e-6
-1.240, 2.586e-6
-1.241, 2.593e-6
-1.242, 2.595e-6
-1.243, 2.600e-6
-1.244, 2.602e-6
-1.245, 2.606e-6
-1.246, 2.614e-6
-1.247, 2.616e-6
-1.248, 2.620e-6
-1.249, 2.626e-6
-1.250, 2.632e-6
-1.251, 2.639e-6
-1.252, 2.643e-6
-1.253, 2.644e-6
-1.254, 2.648e-6
-1.255, 2.655e-6
-1.256, 2.659e-6
-1.257, 2.664e-6
-1.258, 2.668e-6
-1.259, 2.671e-6
-1.260, 2.676e-6
-1.261, 2.681e-6
-1.262, 2.684e-6
-1.263, 2.686e-6
-1.264, 2.690e-6
-1.265, 2.698e-6
-1.266, 2.702e-6
-1.267, 2.707e-6
-1.268, 2.709e-6
-1.269, 2.710e-6
-1.270, 2.716e-6
-1.271, 2.720e-6
-1.272, 2.722e-6
-1.273, 2.727e-6
-1.274, 2.727e-6
-1.275, 2.732e-6
-1.276, 2.738e-6
-1.277, 2.740e-6
-1.278, 2.744e-6
-1.279, 2.746e-6
-1.280, 2.754e-6
-1.281, 2.759e-6
-1.282, 2.757e-6
-1.283, 2.761e-6
-1.284, 2.761e-6
-1.285, 2.765e-6
-1.286, 2.769e-6
-1.287, 2.770e-6
-1.288, 2.771e-6
-1.289, 2.774e-6
-1.290, 2.777e-6
-1.291, 2.781e-6
-1.292, 2.781e-6
-1.293, 2.781e-6
-1.294, 2.782e-6
-1.295, 2.785e-6
-1.296, 2.790e-6
-1.297, 2.789e-6
-1.298, 2.788e-6
-1.299, 2.788e-6
-1.300, 2.791e-6
-1.301, 2.794e-6
-1.302, 2.793e-6
-1.303, 2.793e-6
-1.304, 2.792e-6
-1.305, 2.794e-6
-1.306, 2.796e-6
-1.307, 2.795e-6
-1.308, 2.795e-6
-1.309, 2.792e-6
-1.310, 2.795e-6
-1.311, 2.795e-6
-1.312, 2.795e-6
-1.313, 2.795e-6
-1.314, 2.794e-6
-1.315, 2.794e-6
-1.316, 2.796e-6
-1.317, 2.791e-6
-1.318, 2.792e-6
-1.319, 2.788e-6
-1.320, 2.791e-6
-1.321, 2.794e-6
-1.322, 2.791e-6
-1.323, 2.790e-6
-1.324, 2.791e-6
-1.325, 2.792e-6
-1.326, 2.792e-6
-1.327, 2.790e-6
-1.328, 2.791e-6
-1.329, 2.791e-6
-1.330, 2.793e-6
-1.331, 2.798e-6
-1.332, 2.798e-6
-1.333, 2.796e-6
-1.334, 2.798e-6
-1.335, 2.799e-6
-1.336, 2.804e-6
-1.337, 2.805e-6
-1.338, 2.806e-6
-1.339, 2.808e-6
-1.340, 2.812e-6
-1.341, 2.816e-6
-1.342, 2.820e-6
-1.343, 2.819e-6
-1.344, 2.823e-6
-1.345, 2.830e-6
-1.346, 2.832e-6
-1.347, 2.834e-6
-1.348, 2.838e-6
-1.349, 2.841e-6
-1.350, 2.847e-6
-1.351, 2.853e-6
-1.352, 2.855e-6
-1.353, 2.863e-6
-1.354, 2.862e-6
-1.355, 2.868e-6
-1.356, 2.873e-6
-1.357, 2.878e-6
-1.358, 2.883e-6
-1.359, 2.884e-6
-1.360, 2.889e-6
-1.361, 2.896e-6
-1.362, 2.895e-6
-1.363, 2.900e-6
-1.364, 2.904e-6
-1.365, 2.908e-6
-1.366, 2.916e-6
-1.367, 2.920e-6
-1.368, 2.921e-6
-1.369, 2.927e-6
-1.370, 2.933e-6
-1.371, 2.938e-6
-1.372, 2.942e-6
-1.373, 2.943e-6
-1.374, 2.948e-6
-1.375, 2.953e-6
-1.376, 2.958e-6
-1.377, 2.964e-6
-1.378, 2.964e-6
-1.379, 2.968e-6
-1.380, 2.974e-6
-1.381, 2.980e-6
-1.382, 2.984e-6
-1.383, 2.988e-6
-1.384, 2.989e-6
-1.385, 2.995e-6
-1.386, 2.999e-6
-1.387, 3.003e-6
-1.388, 3.006e-6
-1.389, 3.008e-6
-1.390, 3.015e-6
-1.391, 3.020e-6
-1.392, 3.025e-6
-1.393, 3.028e-6
-1.394, 3.029e-6
-1.395, 3.037e-6
-1.396, 3.043e-6
-1.397, 3.046e-6
-1.398, 3.049e-6
-1.399, 3.052e-6
-1.400, 3.057e-6
-1.401, 3.067e-6
-1.402, 3.067e-6
-1.403, 3.071e-6
-1.404, 3.077e-6
-1.405, 3.082e-6
-1.406, 3.092e-6
-1.407, 3.094e-6
-1.408, 3.097e-6
-1.409, 3.102e-6
-1.410, 3.105e-6
-1.411, 3.114e-6
-1.412, 3.118e-6
-1.413, 3.118e-6
-1.414, 3.124e-6
-1.415, 3.130e-6
-1.416, 3.137e-6
-1.417, 3.143e-6
-1.418, 3.145e-6
-1.419, 3.152e-6
-1.420, 3.160e-6
-1.421, 3.167e-6
-1.422, 3.171e-6
-1.423, 3.173e-6
-1.424, 3.178e-6
-1.425, 3.187e-6
-1.426, 3.192e-6
-1.427, 3.196e-6
-1.428, 3.199e-6
-1.429, 3.203e-6
-1.430, 3.212e-6
-1.431, 3.218e-6
-1.432, 3.223e-6
-1.433, 3.229e-6
-1.434, 3.232e-6
-1.435, 3.239e-6
-1.436, 3.247e-6
-1.437, 3.251e-6
-1.438, 3.255e-6
-1.439, 3.258e-6
-1.440, 3.268e-6
-1.441, 3.274e-6
-1.442, 3.279e-6
-1.443, 3.282e-6
-1.444, 3.287e-6
-1.445, 3.292e-6
-1.446, 3.303e-6
-1.447, 3.309e-6
-1.448, 3.314e-6
-1.449, 3.320e-6
-1.450, 3.326e-6
-1.451, 3.336e-6
-1.452, 3.343e-6
-1.453, 3.348e-6
-1.454, 3.353e-6
-1.455, 3.361e-6
-1.456, 3.369e-6
-1.457, 3.376e-6
-1.458, 3.379e-6
-1.459, 3.387e-6
-1.460, 3.395e-6
-1.461, 3.403e-6
-1.462, 3.411e-6
-1.463, 3.413e-6
-1.464, 3.420e-6
-1.465, 3.428e-6
-1.466, 3.436e-6
-1.467, 3.442e-6
-1.468, 3.448e-6
-1.469, 3.455e-6
-1.470, 3.465e-6
-1.471, 3.474e-6
-1.472, 3.481e-6
-1.473, 3.487e-6
-1.474, 3.493e-6
-1.475, 3.501e-6
-1.476, 3.512e-6
-1.477, 3.516e-6
-1.478, 3.526e-6
-1.479, 3.533e-6
-1.480, 3.541e-6
-1.481, 3.555e-6
-1.482, 3.563e-6
-1.483, 3.570e-6
-1.484, 3.578e-6
-1.485, 3.587e-6
-1.486, 3.598e-6
-1.487, 3.604e-6
-1.488, 3.612e-6
-1.489, 3.622e-6
-1.490, 3.630e-6
-1.491, 3.642e-6
-1.492, 3.651e-6
-1.493, 3.657e-6
-1.494, 3.668e-6
-1.495, 3.677e-6
-1.496, 3.688e-6
-1.497, 3.699e-6
-1.498, 3.704e-6
-1.499, 3.716e-6
-1.500, 3.725e-6
-1.501, 3.738e-6
-1.502, 3.749e-6
-1.503, 3.756e-6
-1.504, 3.764e-6
-1.505, 3.779e-6
-1.506, 3.790e-6
-1.507, 3.802e-6
-1.508, 3.812e-6
-1.509, 3.821e-6
-1.510, 3.837e-6
-1.511, 3.850e-6
-1.512, 3.859e-6
-1.513, 3.869e-6
-1.514, 3.880e-6
-1.515, 3.893e-6
-1.516, 3.910e-6
-1.517, 3.920e-6
-1.518, 3.933e-6
-1.519, 3.943e-6
-1.520, 3.954e-6
-1.521, 3.970e-6
-1.522, 3.982e-6
-1.523, 3.994e-6
-1.524, 4.009e-6
-1.525, 4.023e-6
-1.526, 4.040e-6
-1.527, 4.051e-6
-1.528, 4.063e-6
-1.529, 4.077e-6
-1.530, 4.090e-6
-1.531, 4.107e-6
-1.532, 4.122e-6
-1.533, 4.134e-6
-1.534, 4.149e-6
-1.535, 4.163e-6
-1.536, 4.182e-6
-1.537, 4.198e-6
-1.538, 4.209e-6
-1.539, 4.226e-6
-1.540, 4.241e-6
-1.541, 4.258e-6
-1.542, 4.277e-6
-1.543, 4.291e-6
-1.544, 4.307e-6
-1.545, 4.327e-6
-1.546, 4.346e-6
-1.547, 4.363e-6
-1.548, 4.379e-6
-1.549, 4.396e-6
-1.550, 4.416e-6
-1.551, 4.434e-6
-1.552, 4.452e-6
-1.553, 4.470e-6
-1.554, 4.487e-6
-1.555, 4.511e-6
-1.556, 4.533e-6
-1.557, 4.552e-6
-1.558, 4.572e-6
-1.559, 4.588e-6
-1.560, 4.608e-6
-1.561, 4.634e-6
-1.562, 4.654e-6
-1.563, 4.673e-6
-1.564, 4.692e-6
-1.565, 4.715e-6
-1.566, 4.742e-6
-1.567, 4.762e-6
-1.568, 4.784e-6
-1.569, 4.808e-6
-1.570, 4.831e-6
-1.571, 4.857e-6
-1.572, 4.880e-6
-1.573, 4.898e-6
-1.574, 4.925e-6
-1.575, 4.950e-6
-1.576, 4.978e-6
-1.577, 5.004e-6
-1.578, 5.027e-6
-1.579, 5.054e-6
-1.580, 5.082e-6
-1.581, 5.110e-6
-1.582, 5.139e-6
-1.583, 5.162e-6
-1.584, 5.188e-6
-1.585, 5.220e-6
-1.586, 5.251e-6
-1.587, 5.285e-6
-1.588, 5.315e-6
-1.589, 5.340e-6
-1.590, 5.373e-6
-1.591, 5.404e-6
-1.592, 5.435e-6
-1.593, 5.468e-6
-1.594, 5.502e-6
-1.595, 5.537e-6
-1.596, 5.576e-6
-1.597, 5.607e-6
-1.598, 5.642e-6
-1.599, 5.676e-6
-1.600, 5.714e-6
-1.601, 5.756e-6
-1.602, 5.793e-6
-1.603, 5.829e-6
-1.604, 5.868e-6
-1.605, 5.903e-6
-1.606, 5.945e-6
-1.607, 5.986e-6
-1.608, 6.026e-6
-1.609, 6.072e-6
-1.610, 6.116e-6
-1.611, 6.167e-6
-1.612, 6.214e-6
-1.613, 6.257e-6
-1.614, 6.306e-6
-1.615, 6.352e-6
-1.616, 6.406e-6
-1.617, 6.461e-6
-1.618, 6.510e-6
-1.619, 6.565e-6
-1.620, 6.621e-6
-1.621, 6.681e-6
-1.622, 6.740e-6
-1.623, 6.803e-6
-1.624, 6.885e-6
-1.625, 6.944e-6
-1.626, 6.992e-6
-1.627, 7.052e-6
-1.628, 7.115e-6
-1.629, 7.180e-6
-1.630, 7.251e-6
-1.631, 7.321e-6
-1.632, 7.394e-6
-1.633, 7.470e-6
-1.634, 7.541e-6
-1.635, 7.623e-6
-1.636, 7.706e-6
-1.637, 7.787e-6
-1.638, 7.878e-6
-1.639, 7.974e-6
-1.640, 8.057e-6
-1.641, 8.155e-6
-1.642, 8.255e-6
-1.643, 8.353e-6
-1.644, 8.455e-6
-1.645, 8.558e-6
-1.646, 8.666e-6
-1.647, 8.779e-6
-1.648, 8.891e-6
-1.649, 9.006e-6
-1.650, 9.121e-6
-1.651, 9.250e-6
-1.652, 9.372e-6
-1.653, 9.497e-6
-1.654, 9.631e-6
-1.655, 9.770e-6
-1.656, 9.913e-6
-1.657, 1.006e-5
-1.658, 1.019e-5
-1.659, 1.034e-5
-1.660, 1.049e-5
-1.661, 1.065e-5
-1.662, 1.082e-5
-1.663, 1.099e-5
-1.664, 1.116e-5
-1.665, 1.134e-5
-1.666, 1.151e-5
-1.667, 1.168e-5
-1.668, 1.186e-5
-1.669, 1.205e-5
-1.670, 1.225e-5
-1.671, 1.246e-5
-1.672, 1.268e-5
-1.673, 1.291e-5
-1.674, 1.313e-5
-1.675, 1.337e-5
-1.676, 1.362e-5
-1.677, 1.387e-5
-1.678, 1.413e-5
-1.679, 1.439e-5
-1.680, 1.466e-5
-1.681, 1.495e-5
-1.682, 1.524e-5
-1.683, 1.554e-5
-1.684, 1.585e-5
-1.685, 1.616e-5
-1.686, 1.649e-5
-1.687, 1.683e-5
-1.688, 1.717e-5
-1.689, 1.752e-5
-1.690, 1.789e-5
-1.691, 1.827e-5
-1.692, 1.865e-5
-1.693, 1.904e-5
-1.694, 1.945e-5
-1.695, 1.987e-5
-1.696, 2.030e-5
-1.697, 2.075e-5
-1.698, 2.120e-5
-1.699, 2.167e-5
-1.700, 2.215e-5
-1.701, 2.265e-5
-1.702, 2.316e-5
-1.703, 2.369e-5
-1.704, 2.423e-5
-1.705, 2.479e-5
-1.706, 2.536e-5
-1.707, 2.594e-5
-1.708, 2.654e-5
-1.709, 2.716e-5
-1.710, 2.778e-5
-1.711, 2.842e-5
-1.712, 2.910e-5
-1.713, 2.979e-5
-1.714, 3.050e-5
-1.715, 3.123e-5
-1.716, 3.198e-5
-1.717, 3.276e-5
-1.718, 3.355e-5
-1.719, 3.436e-5
-1.720, 3.519e-5
-1.721, 3.604e-5
-1.722, 3.693e-5
-1.723, 3.783e-5
-1.724, 3.877e-5
-1.725, 3.973e-5
-1.726, 4.073e-5
-1.727, 4.174e-5
-1.728, 4.278e-5
-1.729, 4.383e-5
-1.730, 4.492e-5
-1.731, 4.605e-5
-1.732, 4.720e-5
-1.733, 4.839e-5
-1.734, 4.961e-5
-1.735, 5.086e-5
-1.736, 5.216e-5
-1.737, 5.350e-5
-1.738, 5.486e-5
-1.739, 5.627e-5
-1.740, 5.769e-5
-1.741, 5.916e-5
-1.742, 6.068e-5
-1.743, 6.222e-5
-1.744, 6.382e-5
-1.745, 6.545e-5
-1.746, 6.712e-5
-1.747, 6.885e-5
-1.748, 7.062e-5
-1.749, 7.246e-5
-1.750, 7.433e-5
-1.751, 7.624e-5
-1.752, 7.821e-5
-1.753, 8.024e-5
-1.754, 8.230e-5
-1.755, 8.444e-5
-1.756, 8.665e-5
-1.757, 8.892e-5
-1.758, 9.123e-5
-1.759, 9.359e-5
-1.760, 9.605e-5
-1.761, 9.858e-5
-1.762, 1.012e-4
-1.763, 1.038e-4
-1.764, 1.064e-4
-1.765, 1.091e-4
-1.766, 1.120e-4
-1.767, 1.149e-4
-1.768, 1.180e-4
-1.769, 1.211e-4
-1.770, 1.243e-4
-1.771, 1.275e-4
-1.772, 1.307e-4
-1.773, 1.340e-4
-1.774, 1.376e-4
-1.775, 1.412e-4
-1.776, 1.449e-4
-1.777, 1.487e-4
-1.778, 1.527e-4
-1.779, 1.568e-4
-1.780, 1.610e-4
-1.781, 1.652e-4
-1.782, 1.694e-4
-1.783, 1.738e-4
-1.784, 1.784e-4
-1.785, 1.832e-4
-1.786, 1.881e-4
-1.787, 1.931e-4
-1.788, 1.983e-4
-1.789, 2.035e-4
-1.790, 2.089e-4
-1.791, 2.143e-4
-1.792, 2.200e-4
-1.793, 2.260e-4
-1.794, 2.321e-4
-1.795, 2.376e-4
-1.796, 2.432e-4
-1.797, 2.493e-4
-1.798, 2.559e-4
-1.799, 2.626e-4
-1.800, 2.696e-4
-1.801, 2.768e-4
-1.802, 2.842e-4
-1.803, 2.917e-4
-1.804, 2.995e-4
-1.805, 3.076e-4
-1.806, 3.159e-4
-1.807, 3.243e-4
-1.808, 3.330e-4
-1.809, 3.419e-4
-1.810, 3.511e-4
-1.811, 3.605e-4
-1.812, 3.703e-4
-1.813, 3.803e-4
-1.814, 3.905e-4
-1.815, 4.009e-4
-1.816, 4.115e-4
-1.817, 4.226e-4
-1.818, 4.339e-4
-1.819, 4.458e-4
-1.820, 4.578e-4
-1.821, 4.702e-4
-1.822, 4.829e-4
-1.823, 4.959e-4
-1.824, 5.091e-4
-1.825, 5.226e-4
-1.826, 5.365e-4
-1.827, 5.508e-4
-1.828, 5.655e-4
-1.829, 5.806e-4
-1.830, 5.964e-4
-1.831, 6.123e-4
-1.832, 6.286e-4
-1.833, 6.454e-4
-1.834, 6.627e-4
-1.835, 6.804e-4
-1.836, 6.985e-4
-1.837, 7.169e-4
-1.838, 7.358e-4
-1.839, 7.552e-4
-1.840, 7.750e-4
-1.841, 7.953e-4
-1.842, 8.162e-4
-1.843, 8.377e-4
-1.844, 8.596e-4
-1.845, 8.821e-4
-1.846, 9.048e-4
-1.847, 9.280e-4
-1.848, 9.520e-4
-1.849, 9.764e-4
-1.850, 1.001e-3
-1.851, 1.011e-3
-1.852, 1.011e-3
-1.853, 1.011e-3
-1.854, 1.011e-3
-1.855, 1.011e-3
-1.856, 1.011e-3
-1.857, 1.011e-3
-1.858, 1.011e-3
-1.859, 1.011e-3
-1.860, 1.011e-3
-1.861, 1.011e-3
-1.862, 1.011e-3
-1.863, 1.011e-3
-1.864, 1.011e-3
-1.865, 1.011e-3
-1.866, 1.011e-3
-1.867, 1.011e-3
-1.868, 1.011e-3
-1.869, 1.011e-3
-1.870, 1.011e-3
-1.871, 1.011e-3
-1.872, 1.011e-3
-1.873, 1.011e-3
-1.874, 1.011e-3
-1.875, 1.011e-3
-1.876, 1.011e-3
-1.877, 1.011e-3
-1.878, 1.011e-3
-1.879, 1.011e-3
-1.880, 1.011e-3
-1.881, 1.011e-3
-1.882, 1.011e-3
-1.883, 1.011e-3
-1.884, 1.011e-3
-1.885, 1.011e-3
-1.886, 1.011e-3
-1.887, 1.011e-3
-1.888, 1.011e-3
-1.889, 1.011e-3
-1.890, 1.011e-3
-1.891, 1.011e-3
-1.892, 1.011e-3
-1.893, 1.011e-3
-1.894, 1.011e-3
-1.895, 1.011e-3
-1.896, 1.011e-3
-1.897, 1.011e-3
-1.898, 1.011e-3
-1.899, 1.011e-3
