Potential V vs RHE, Current mA cm-2
0.013299999999999867,0.3903188476327636
0.012299999999999978,-2.4446211261667834
0.011299999999999866,-4.887827541033701
0.010299999999999976,-7.155609754717355
0.009299999999999864,-9.24938247851761
0.008299999999999974,-11.1677310011346
0.007299999999999862,-12.99978213445982
0.006299999999999972,-14.65640906660178
0.00529999999999986,-16.311621287443874
0.0042999999999999705,-17.839509491298113
0.0032999999999998586,-19.409839034148305
0.0022999999999999687,-20.89528589900659
0.0012999999999998568,-22.33829142486893
0.00029999999999996696,-23.767149837732617
-0.000700000000000145,-25.0828313466071
-0.0017000000000000348,-26.34192440348698
-0.0027000000000001467,-27.530281895373616
-0.0037000000000000366,-28.619609596269694
-0.0047000000000001485,-29.66649595816982
-0.005700000000000038,-30.670940981073993
-0.00670000000000015,-31.717827342974125
-0.00770000000000004,-32.66568391388369
-0.008700000000000152,-33.712570275783825
-0.009700000000000042,-34.717015298688004
-0.010700000000000154,-35.721460321592176
-0.011700000000000044,-36.6834640055004
-0.012700000000000156,-37.56058501141672
-0.013700000000000045,-38.42355890433439
-0.014700000000000157,-39.173355893262865
-0.015700000000000047,-39.86656443019674
-0.01670000000000016,-40.559772967130606
-0.01770000000000005,-41.267128617063115
-0.01870000000000016,-41.96033715399699
-0.01970000000000005,-42.653545690930855
-0.020700000000000163,-43.36090134086337
-0.021700000000000053,-44.054109877797245
-0.022700000000000164,-44.80390686672572
-0.023700000000000054,-45.497115403659585
-0.024700000000000166,-46.147882601597495
-0.025700000000000056,-46.713767121543505
-0.026700000000000168,-47.23721030249357
-0.027700000000000058,-47.76065348344364
-0.02870000000000017,-48.1992139864018
-0.02970000000000006,-48.76509850634781
-0.03070000000000017,-49.24610034830193
-0.03170000000000006,-49.81198486824794
-0.03270000000000017,-50.335428049198
-0.03370000000000006,-50.90131256914402
-0.034700000000000175,-51.46719708909004
-0.035700000000000065,-51.990640270040096
-0.03670000000000018,-52.514083450990164
-0.03770000000000007,-52.91020261495237
-0.03870000000000018,-53.348763117910536
-0.03970000000000007,-53.68829382987814
-0.04070000000000018,-54.0419716548444
-0.04170000000000007,-54.480532157802564
-0.04270000000000018,-54.876651321764776
-0.04370000000000007,-55.357653163718886
-0.044700000000000184,-55.7820665536784
-0.045700000000000074,-56.22062705663656
-0.046700000000000186,-56.70162889859067
-0.047700000000000076,-57.05530672355693
-0.04870000000000019,-57.45142588751914
-0.04970000000000008,-57.7485152604908
-0.05070000000000019,-58.017310407465146
-0.05170000000000008,-58.31439978043681
-0.05270000000000019,-58.62563626640712
-0.05370000000000008,-58.92272563937878
-0.05470000000000019,-59.23396212534908
-0.05570000000000008,-59.587639950315335
-0.056700000000000195,-59.92717066228296
-0.057700000000000085,-60.32328982624517
-0.058700000000000196,-60.67696765121143
-0.059700000000000086,-61.01649836317903
-0.0607000000000002,-61.242852171157445
-0.06170000000000009,-61.49750020513315
-0.0627000000000002,-61.72385401311155
-0.06370000000000009,-61.89361936909536
-0.0647000000000002,-62.16241451606972
-0.06570000000000009,-62.37462121104946
-0.0667000000000002,-62.64341635802381
-0.0677000000000001,-62.94050573099548
-0.0687000000000002,-63.251742216965795
-0.0697000000000001,-63.59127292893339
-0.07070000000000021,-63.860068075907755
-0.0717000000000001,-64.0722747708875
-0.07270000000000021,-64.29862857886593
-0.0737000000000001,-64.51083527384567
-0.07470000000000021,-64.63815929083353
-0.0757000000000001,-64.77963042082003
-0.07670000000000021,-64.94939577680383
-0.0777000000000001,-65.11916113278764
-0.07870000000000021,-65.38795627976201
-0.0797000000000001,-65.64260431373769
-0.08070000000000022,-65.95384079970802
-0.0817000000000001,-66.20848883368372
-0.08270000000000022,-66.39240130266617
-0.08370000000000011,-66.60460799764593
-0.08470000000000022,-66.73193201463377
-0.08570000000000011,-66.87340314462028
-0.08670000000000022,-66.9582858226122
-0.08770000000000011,-67.08560983960004
-0.08870000000000022,-67.21293385658788
-0.08970000000000011,-67.43928766456631
-0.09070000000000022,-67.6090530205501
-0.09170000000000011,-67.82125971552985
-0.09270000000000023,-68.04761352350828
-0.09370000000000012,-68.25982021848802
-0.09470000000000023,-68.44373268747047
-0.09570000000000012,-68.52861536546239
-0.09670000000000023,-68.65593938245023
-0.09770000000000012,-68.74082206044213
-0.09870000000000023,-68.78326339943808
-0.09970000000000012,-68.91058741642594
-0.10070000000000023,-69.0096172074165
-0.10170000000000012,-69.1793825634003
-0.10270000000000024,-69.39158925838004
-0.10370000000000013,-69.57550172736251
-0.10470000000000024,-69.78770842234226
-0.10570000000000013,-69.91503243933012
-0.10670000000000024,-70.09894490831257
-0.10770000000000013,-70.18382758630447
-0.10870000000000024,-70.26871026429637
-0.10970000000000013,-70.31115160329232
-0.11070000000000024,-70.39603428128423
-0.11170000000000013,-70.43847562028017
-0.11270000000000002,-70.57994675026669
-0.11370000000000013,-70.74971210625048
-0.11470000000000002,-70.91947746223428
-0.11570000000000014,-71.1458312702127
-0.11670000000000003,-71.27315528720055
-0.11770000000000014,-71.4004793041884
-0.11870000000000003,-71.52780332117625
-0.11970000000000014,-71.58439177317086
-0.12070000000000003,-71.66927445116276
-0.12170000000000014,-71.66927445116276
-0.12270000000000003,-71.75415712915466
-0.12370000000000014,-71.83903980714656
-0.12470000000000003,-71.96636382413442
-0.12570000000000014,-72.10783495412092
-0.12670000000000003,-72.27760031010472
-0.12770000000000015,-72.44736566608852
-0.12870000000000004,-72.57468968307639
-0.12970000000000015,-72.75860215205884
-0.13070000000000004,-72.80104349105478
-0.13170000000000015,-72.8859261690467
-0.13270000000000004,-72.92836750804264
-0.13370000000000015,-72.92836750804264
-0.13470000000000004,-73.01325018603454
-0.13570000000000015,-73.09813286402644
-0.13670000000000004,-73.23960399401295
-0.13770000000000016,-73.3669280110008
-0.13870000000000005,-73.53669336698461
-0.13970000000000016,-73.72060583596706
-0.14070000000000005,-73.80548851395896
-0.14170000000000016,-73.93281253094682
-0.14270000000000005,-73.97525386994278
-0.14370000000000016,-74.0176952089387
-0.14470000000000005,-74.06013654793468
-0.14570000000000016,-74.06013654793468
-0.14670000000000005,-74.14501922592657
-0.14770000000000016,-74.20160767792116
-0.14870000000000005,-74.37137303390499
-0.14970000000000017,-74.49869705089283
-0.15070000000000006,-74.66846240687663
-0.15170000000000017,-74.8523748758591
-0.15270000000000006,-74.97969889284694
-0.15370000000000017,-75.06458157083884
-0.15470000000000006,-75.1070229098348
-0.15570000000000017,-75.19190558782671
-0.15670000000000006,-75.19190558782671
-0.15770000000000017,-75.2484940398213
-0.15870000000000006,-75.33337671781321
-0.15970000000000018,-75.46070073480107
-0.16070000000000007,-75.5880247517889
-0.16170000000000018,-75.71534876877676
-0.16270000000000007,-75.94170257675518
-0.16370000000000018,-76.06902659374302
-0.16470000000000007,-76.23879194972683
-0.16570000000000018,-76.29538040172143
-0.16670000000000007,-76.38026307971333
-0.16770000000000018,-76.42270441870929
-0.16870000000000007,-76.46514575770523
-0.16970000000000018,-76.50758709670117
-0.17070000000000007,-76.5924697746931
-0.17170000000000019,-76.7622351306769
-0.17270000000000008,-76.9037062606634
-0.1737000000000002,-77.0734716166472
-0.17470000000000008,-77.28567831162695
-0.1757000000000002,-77.42714944161345
-0.17670000000000008,-77.59691479759726
-0.1777000000000002,-77.63935613659322
-0.17870000000000008,-77.7242388145851
-0.1797000000000002,-77.80912149257702
-0.18070000000000008,-77.86570994457162
-0.1817000000000002,-77.99303396155948
-0.18270000000000008,-78.12035797854733
-0.1837000000000002,-78.29012333453113
-0.1847000000000001,-78.47403580351359
-0.1857000000000002,-78.64380115949739
-0.1867000000000001,-78.85600785447714
-0.1877000000000002,-79.0399203234596
-0.1887000000000001,-79.16724434044745
-0.1897000000000002,-79.25212701843935
-0.1907000000000001,-79.33700969643127
-0.1917000000000001,-79.37945103542721
-0.19269999999999998,-79.52092216541372
-0.1937000000000001,-79.60580484340561
-0.19469999999999998,-79.7755701993894
-0.1957000000000001,-79.94533555537322
-0.19669999999999999,-80.17168936335163
-0.1977000000000001,-80.38389605833139
-0.1987,-80.56780852731384
-0.1997000000000001,-80.73757388329766
-0.2007,-80.86489790028548
-0.2017000000000001,-80.99222191727335
-0.2027,-81.04881036926795
-0.2037000000000001,-81.13369304725985
-0.2047,-81.26101706424771
-0.2057000000000001,-81.3458997422396
-0.2067,-81.57225355021802
-0.2077000000000001,-81.78446024519776
-0.2087,-82.03910827917348
-0.2097000000000001,-82.30790342614785
-0.2107,-82.47766878213164
-0.2117000000000001,-82.746463929106
-0.2127,-82.87378794609386
-0.2137000000000001,-83.0011119630817
-0.2147,-83.18502443206415
-0.2157000000000001,-83.39723112704392
-0.2167,-83.56699648302772
-0.21770000000000012,-83.75090895201016
-0.2187,-84.00555698598588
-0.21970000000000012,-84.27435213296022
-0.2207,-84.57144150593189
-0.22170000000000012,-84.84023665290624
-0.2227,-85.052443347886
-0.22370000000000012,-85.27879715586442
-0.2247,-85.44856251184822
-0.22570000000000012,-85.61832786783202
-0.2267,-85.75979899781852
-0.22770000000000012,-85.97200569279828
-0.22870000000000001,-86.18421238777805
-0.22970000000000013,-86.41056619575643
-0.23070000000000002,-86.7076555687281
-0.23170000000000013,-86.97645071570246
-0.23270000000000002,-87.27354008867411
-0.23370000000000013,-87.54233523564847
-0.23470000000000002,-87.85357172161878
-0.23570000000000013,-88.06577841659853
-0.23670000000000002,-88.27798511157829
-0.2376999999999999,-88.46189758056073
-0.23870000000000002,-88.63166293654454
-0.2396999999999999,-88.9004580835189
-0.24070000000000003,-89.11266477849867
-0.24169999999999991,-89.46634260346492
-0.24270000000000003,-89.72099063744062
-0.24369999999999992,-90.07466846240689
-0.24470000000000003,-90.47078762636909
-0.24569999999999992,-90.68299432134886
-0.24670000000000003,-91.03667214631511
-0.24769999999999992,-91.24887884129487
-0.24870000000000003,-91.56011532726518
-0.24969999999999992,-91.77232202224494
-0.25070000000000003,-92.04111716921928
-0.2516999999999999,-92.29576520319499
-0.25270000000000004,-92.56456035016936
-0.2536999999999999,-92.94653240113291
-0.25470000000000004,-93.34265156509512
-0.2556999999999999,-93.69632939006138
-0.25670000000000004,-94.13488989301955
-0.25769999999999993,-94.47442060498715
-0.25870000000000004,-94.8280984299534
-0.25969999999999993,-95.12518780292505
-0.26070000000000004,-95.43642428889537
-0.26169999999999993,-95.69107232287108
-0.26270000000000004,-96.04475014783733
-0.26369999999999993,-96.35598663380765
-0.26470000000000005,-96.73795868477121
-0.26569999999999994,-97.17651918772938
-0.26670000000000005,-97.61507969068752
-0.26769999999999994,-98.13852287163759
-0.26870000000000005,-98.5346420355998
-0.26969999999999994,-98.97320253855796
-0.27070000000000005,-99.35517458952152
-0.27169999999999994,-99.66641107549184
-0.27270000000000005,-100.06253023945405
-0.27369999999999994,-100.40206095142165
-0.27470000000000006,-100.79818011538387
-0.27569999999999995,-101.23674061834203
-0.27670000000000006,-101.71774246029614
-0.27769999999999995,-102.19874430225026
-0.27870000000000006,-102.72218748320032
-0.27969999999999995,-103.24563066415038
-0.28070000000000006,-103.68419116710854
-0.28169999999999995,-104.16519300906265
-0.28270000000000006,-104.5471650600262
-0.28369999999999995,-104.98572556298437
-0.28470000000000006,-105.42428606594254
-0.28569999999999995,-105.86284656890071
-0.28670000000000007,-106.30140707185885
-0.28769999999999996,-106.68337912282242
-0.28870000000000007,-107.20682230377247
-0.28969999999999996,-107.73026548472255
-0.29070000000000007,-108.3102971176672
-0.29169999999999996,-108.83374029861727
-0.29270000000000007,-109.35718347956733
-0.29369999999999996,-109.8240382085228
-0.2947000000000001,-110.3050400504769
-0.29569999999999996,-110.70115921443913
-0.2967000000000001,-111.18216105639323
-0.29769999999999996,-111.6207215593514
-0.2987000000000001,-112.10172340130552
-0.29969999999999997,-112.66760792125153
-0.3007000000000001,-113.23349244119754
-0.30169999999999997,-113.84181830013951
-0.3027000000000001,-114.4925854980774
-0.30369999999999997,-115.01602867902749
-0.3047000000000001,-115.62435453796945
-0.30569999999999997,-116.14779771891952
-0.3067000000000001,-116.67124089986959
-0.3077,-117.19468408081964
-0.3087000000000001,-117.63324458377778
-0.3097,-118.1991291037238
-0.3107000000000001,-118.72257228467387
-0.3117,-119.38748659561045
-0.3127000000000001,-119.99581245455242
-0.3137,-120.64657965249035
-0.3147000000000001,-121.33978818942418
-0.3157,-121.96226116136481
-0.3167000000000001,-122.57058702030677
-0.3177,-123.1364715402528
-0.3187000000000001,-123.74479739919475
-0.3197,-124.31068191914078
-0.3207000000000001,-124.87656643908679
-0.3217,-125.5273336370247
-0.3227000000000001,-126.19224794796128
-0.3237,-127.012780501883
-0.3247000000000001,-127.76257749081147
-0.3257,-128.5831100447332
-0.3267000000000001,-129.41778971165354
-0.3277,-130.19588092657932
-0.3287000000000001,-130.9456779155078
-0.3297,-131.63888645244168
-0.3307000000000001,-132.33209498937555
-0.3317,-132.99700930031207
-0.3327000000000001,-133.69021783724597
-0.3337,-134.38342637417986
-0.3347000000000001,-135.2181060411002
-0.3357,-135.99619725602597
-0.3367000000000001,-136.83087692294635
-0.3377,-137.70799792886265
-0.3387000000000001,-138.48608914378846
-0.3397,-139.4056514887007
-0.3407000000000001,-140.14130136463055
-0.3417,-140.89109835355902
-0.3427000000000001,-141.61260111649017
-0.3437,-142.4614278964092
-0.3447000000000001,-143.16878354634173
-0.3457,-144.01761032626072
-0.3467000000000001,-144.86643710617977
-0.3477,-145.7152638860988
-0.3487000000000001,-146.5640906660178
-0.3497,-147.55438857592333
-0.3507000000000001,-148.40321535584232
-0.3517,-149.25204213576137
-0.3527000000000001,-150.1008689156804
-0.3537,-150.94969569559944
-0.3547000000000001,-151.7985224755184
-0.3557,-152.64734925543743
-0.35670000000000013,-153.49617603535648
-0.3577,-154.486473945262
-0.35870000000000013,-155.47677185516753
-0.3597,-156.46706976507306
-0.36070000000000013,-157.59883880496508
-0.3617,-158.5891367148706
-0.3626999999999999,-159.57943462477613
-0.3637,-160.5697325346817
-0.3646999999999999,-161.5600304445872
-0.3657,-162.40885722450622
-0.3666999999999999,-163.39915513441173
-0.3677,-164.38945304431726
-0.3686999999999999,-165.3797509542228
-0.36970000000000003,-166.51151999411482
-0.3706999999999999,-167.50181790402033
-0.37170000000000003,-168.63358694391238
-0.3726999999999999,-169.7653559838044
-0.37370000000000003,-170.75565389370993
-0.3746999999999999,-171.74595180361547
-0.37570000000000003,-172.87772084350746
-0.3766999999999999,-173.86801875341303
-0.37770000000000004,-174.85831666331853
-0.3786999999999999,-175.84861457322407
-0.37970000000000004,-176.98038361311612
-0.3806999999999999,-177.9706815230216
-0.38170000000000004,-179.10245056291362
-0.38269999999999993,-180.37569073279218
-0.38370000000000004,-181.5074597726842
-0.38469999999999993,-182.78069994256273
-0.38570000000000004,-183.91246898245475
-0.38669999999999993,-183.20511333252225
-0.38570000000000004,-178.81950830294062
-0.38469999999999993,-174.99978779330505
-0.38370000000000004,-171.32153841365593
-0.38269999999999993,-168.06770242396635
-0.38170000000000004,-164.81386643427678
-0.3806999999999999,-161.84297270456022
-0.37970000000000004,-159.01355010483013
-0.3786999999999999,-156.46706976507306
-0.37770000000000004,-153.77911829532948
-0.3766999999999999,-151.37410908555893
-0.37570000000000003,-148.96909987578834
-0.3746999999999999,-146.4226195360313
-0.37370000000000003,-144.01761032626072
-0.3726999999999999,-141.61260111649017
-0.37170000000000003,-139.36321014970477
-0.3706999999999999,-137.08552495692206
-0.36970000000000003,-134.86442821613394
-0.3686999999999999,-132.6857728143418
-0.3677,-130.63444142953747
-0.3666999999999999,-128.5831100447332
-0.3657,-126.61666133792076
-0.3646999999999999,-124.62191840511109
-0.3637,-122.65546969829869
-0.3626999999999999,-120.64657965249035
-0.3617,-118.59524826768603
-0.36070000000000013,-116.58635822187767
-0.3597,-114.57746817606933
-0.35870000000000013,-112.62516658225556
-0.3577,-110.70115921443913
-0.35670000000000013,-108.87618163761321
-0.3557,-107.07949828678463
-0.3547000000000001,-105.38184472694657
-0.3537,-103.64174982811258
-0.3527000000000001,-101.88750781627995
-0.3517,-100.14741291744595
-0.3507000000000001,-98.364876679616
-0.3497,-96.52575198979144
-0.3487000000000001,-94.7432157519615
-0.3477,-92.94653240113291
-0.3467000000000001,-91.24887884129487
-0.3457,-89.55122528145681
-0.3447000000000001,-87.89601306061473
-0.3437,-86.32568351776455
-0.3427000000000001,-84.75535397491434
-0.3417,-83.18502443206415
-0.3407000000000001,-81.61469488921396
-0.3397,-80.00192400736783
-0.3387000000000001,-78.38915312552167
-0.3377,-76.71979379168094
-0.3367000000000001,-75.06458157083884
-0.3357,-73.49425202798865
-0.3347000000000001,-71.8814811461425
-0.3337,-70.39603428128423
-0.3327000000000001,-68.96717586842054
-0.3317,-67.52417034255821
-0.3307000000000001,-66.08116481669586
-0.3297,-64.63815929083353
-0.3287000000000001,-63.251742216965795
-0.3277,-61.7662953521075
-0.3267000000000001,-60.28084848724921
-0.3257,-58.79540162239092
-0.3247000000000001,-57.26751341853669
-0.3237,-55.838655005673
-0.3227000000000001,-54.39564947981066
-0.3217,-53.03752663194023
-0.3207000000000001,-51.73599223606439
-0.3197,-50.42031072718991
-0.3187000000000001,-49.16121767031002
-0.3177,-47.84553616143554
-0.3167000000000001,-46.501560426563756
-0.3157,-45.10099623969737
-0.3147000000000001,-43.75702050482558
-0.3137,-42.39889765695515
-0.3127000000000001,-40.99833347008877
-0.3117,-39.739240413208876
-0.3107000000000001,-38.42355890433439
-0.3097,-37.249348525446415
-0.3087000000000001,-36.03269680756248
-0.3077,-34.85848642867451
-0.3067000000000001,-33.670128936787876
-0.30569999999999997,-32.45347721890394
-0.3047000000000001,-31.23682550102001
-0.30369999999999997,-30.00602667013743
-0.3027000000000001,-28.746933613257543
-0.30169999999999997,-27.487840556377662
-0.3007000000000001,-26.257041725495082
-0.29969999999999997,-25.04039000761115
-0.2987000000000001,-23.951062306715073
-0.29769999999999996,-22.819293266823045
-0.2967000000000001,-21.729965565926964
-0.29569999999999996,-20.683079204026836
-0.2947000000000001,-19.579604390132108
-0.29369999999999996,-18.49027668923603
-0.29270000000000007,-17.358507649344002
-0.29169999999999996,-16.22673860945197
-0.29070000000000007,-15.094969569559943
-0.28969999999999996,-13.960371107068182
-0.28870000000000007,-12.869628694872238
-0.28769999999999996,-11.73503023238048
-0.28670000000000007,-10.731999920776168
-0.28569999999999995,-9.728969609171857
-0.28470000000000006,-8.769795347863363
-0.28369999999999995,-7.809206375255003
-0.28270000000000006,-6.806176063650692
-0.28169999999999995,-5.847001802342197
-0.28070000000000006,-4.800115440442069
-0.27969999999999995,-3.7532290785419424
-0.27870000000000006,-2.706342716641815
-0.27769999999999995,-1.7033124050375041
-0.27670000000000006,-0.6564260431373771
-0.27569999999999995,0.3031726315610774
-0.27470000000000006,1.219056727093702
-0.27369999999999994,2.0909433012005243
-0.27270000000000005,2.963820173217252
-0.27169999999999994,3.8366970452339793
-0.27070000000000005,4.752015256246658
-0.26969999999999994,5.581036077967569
-0.26870000000000005,6.540210339276065
-0.26769999999999994,7.49938460058456
-0.26670000000000005,8.503829623488736
-0.26569999999999994,9.419147834501414
-0.26470000000000005,10.334466045514093
