Potential V vs RHE, Current mA cm-2
0.013299999999999867,0.3903188476327636
0.012299999999999978,-2.226755585987568
0.011299999999999866,-4.538393849967037
0.010299999999999976,-6.54445447317566
0.009299999999999864,-8.332649556205066
0.008299999999999974,-10.078403300238522
0.007299999999999862,-11.691174182084664
0.006299999999999972,-13.30535977523067
0.00529999999999986,-14.826174422585586
0.0042999999999999705,-16.269179948447924
0.0032999999999998586,-17.584861457322408
0.0022999999999999687,-18.759071836210385
0.0012999999999998568,-19.890840876102416
0.00029999999999996696,-20.89528589900659
-0.000700000000000145,-21.899730921910766
-0.0017000000000000348,-22.989058622806844
-0.0027000000000001467,-24.035944984706973
-0.0037000000000000366,-25.0828313466071
-0.0047000000000001485,-26.002393691519377
-0.005700000000000038,-26.822926245441096
-0.00670000000000015,-27.615164573365515
-0.00770000000000004,-28.265931771303435
-0.008700000000000152,-28.959140308237306
-0.009700000000000042,-29.751378636161718
-0.010700000000000154,-30.529469851087494
-0.011700000000000044,-31.321708179011907
-0.012700000000000156,-31.972475376949827
-0.013700000000000045,-32.62324257488775
-0.014700000000000157,-33.18912709483376
-0.015700000000000047,-33.670128936787876
-0.01670000000000016,-34.236013456733886
-0.01770000000000005,-34.75945663768395
-0.01870000000000016,-35.42437094862052
-0.01970000000000005,-35.99025546856653
-0.020700000000000163,-36.5985813275085
-0.021700000000000053,-37.164465847454515
-0.022700000000000164,-37.60302635041268
-0.023700000000000054,-37.99914551437489
-0.024700000000000166,-38.33867622634249
-0.025700000000000056,-38.777236729300654
-0.026700000000000168,-39.21579723225882
-0.027700000000000058,-39.739240413208876
-0.02870000000000017,-40.220242255162994
-0.02970000000000006,-40.65880275812115
-0.03070000000000017,-40.99833347008877
-0.03170000000000006,-41.30956995605907
-0.03270000000000017,-41.52177665103883
-0.03370000000000006,-41.87545447600508
-0.034700000000000175,-42.186690961975394
-0.035700000000000065,-42.6111043519349
-0.03670000000000018,-43.04966485489307
-0.03770000000000007,-43.40334267985933
-0.03870000000000018,-43.70043205283099
-0.03970000000000007,-43.96922719980534
-0.04070000000000018,-44.181433894785094
-0.04170000000000007,-44.4077877027635
-0.04270000000000018,-44.619994397743255
-0.04370000000000007,-45.01611356170547
-0.044700000000000184,-45.36979138667173
-0.045700000000000074,-45.70932209863933
-0.046700000000000186,-46.02055858460964
-0.047700000000000076,-46.19032394059345
-0.04870000000000019,-46.37423640957591
-0.04970000000000008,-46.501560426563756
-0.05070000000000019,-46.713767121543505
-0.05170000000000008,-47.02500360751382
-0.05270000000000019,-47.27965164148953
-0.05370000000000008,-47.633329466455784
-0.05470000000000019,-47.84553616143554
-0.05570000000000008,-48.029448630417996
-0.056700000000000195,-48.156772647405845
-0.057700000000000085,-48.24165532539775
-0.058700000000000196,-48.36897934238561
-0.059700000000000086,-48.55289181136806
-0.0607000000000002,-48.80753984534376
-0.06170000000000009,-49.118776331314066
-0.0627000000000002,-49.33098302629383
-0.06370000000000009,-49.458307043281685
-0.0647000000000002,-49.59977817326819
-0.06570000000000009,-49.642219512264134
-0.0667000000000002,-49.72710219025603
-0.0677000000000001,-49.85442620724389
-0.0687000000000002,-50.024191563227696
-0.0697000000000001,-50.2505453712061
-0.07070000000000021,-50.46275206618586
-0.0717000000000001,-50.60422319617236
-0.07270000000000021,-50.68910587416426
-0.0737000000000001,-50.77398855215617
-0.07470000000000021,-50.77398855215617
-0.0757000000000001,-50.90131256914402
-0.07670000000000021,-51.071077925127824
-0.0777000000000001,-51.29743173310623
-0.07870000000000021,-51.55207976708194
-0.0797000000000001,-51.69355089706845
-0.08070000000000022,-51.82087491405629
-0.0817000000000001,-51.86331625305225
-0.08270000000000022,-51.86331625305225
-0.08370000000000011,-51.90575759204819
-0.08470000000000022,-52.033081609036046
-0.08570000000000011,-52.2169940780185
-0.08670000000000022,-52.386759434002315
-0.08770000000000011,-52.55652478998611
-0.08870000000000022,-52.64140746797801
-0.08970000000000011,-52.64140746797801
-0.09070000000000022,-52.59896612898206
-0.09170000000000011,-52.64140746797801
-0.09270000000000023,-52.74043725896857
-0.09370000000000012,-52.86776127595642
-0.09470000000000023,-53.03752663194023
-0.09570000000000012,-53.22143910092268
-0.09670000000000023,-53.348763117910536
-0.09770000000000012,-53.348763117910536
-0.09870000000000023,-53.348763117910536
-0.09970000000000012,-53.348763117910536
-0.10070000000000023,-53.433645795902436
-0.10170000000000012,-53.518528473894335
-0.10270000000000024,-53.68829382987814
-0.10370000000000013,-53.82976495986464
-0.10470000000000024,-53.9570889768525
-0.10570000000000013,-53.9570889768525
-0.10670000000000024,-53.9570889768525
-0.10770000000000013,-53.91464763785655
-0.10870000000000024,-53.91464763785655
-0.10970000000000013,-54.0419716548444
-0.11070000000000024,-54.1268543328363
-0.11170000000000013,-54.31076680181876
-0.11270000000000002,-54.39564947981066
-0.11370000000000013,-54.480532157802564
-0.11470000000000002,-54.43809081880661
-0.11570000000000014,-54.43809081880661
-0.11670000000000003,-54.43809081880661
-0.11770000000000014,-54.480532157802564
-0.11870000000000003,-54.60785617479041
-0.11970000000000014,-54.73518019177827
-0.12070000000000003,-54.876651321764776
-0.12170000000000014,-55.003975338752625
-0.12270000000000003,-55.003975338752625
-0.12370000000000014,-55.003975338752625
-0.12470000000000003,-54.961533999756675
-0.12570000000000014,-55.003975338752625
-0.12670000000000003,-55.13129935574048
-0.12770000000000015,-55.25862337272834
-0.12870000000000004,-55.442535841710786
-0.12970000000000015,-55.56985985869864
-0.13070000000000004,-55.56985985869864
-0.13170000000000015,-55.56985985869864
-0.13270000000000004,-55.527418519702685
-0.13370000000000015,-55.527418519702685
-0.13470000000000004,-55.612301197694585
-0.13570000000000015,-55.73962521468245
-0.13670000000000004,-55.9235376836649
-0.13770000000000016,-56.05086170065276
-0.13870000000000005,-56.093303039648696
-0.13970000000000016,-56.093303039648696
-0.14070000000000005,-56.05086170065276
-0.14170000000000016,-56.05086170065276
-0.14270000000000005,-56.093303039648696
-0.14370000000000016,-56.22062705663656
-0.14470000000000005,-56.404539525619015
-0.14570000000000016,-56.53186354260687
-0.14670000000000005,-56.65918755959472
-0.14770000000000016,-56.65918755959472
-0.14870000000000005,-56.61674622059877
-0.14970000000000017,-56.61674622059877
-0.15070000000000006,-56.65918755959472
-0.15170000000000017,-56.786511576582576
-0.15270000000000006,-56.97042404556503
-0.15370000000000017,-57.14018940154883
-0.15470000000000006,-57.22507207954074
-0.15570000000000017,-57.30995475753264
-0.15670000000000006,-57.26751341853669
-0.15770000000000017,-57.30995475753264
-0.15870000000000006,-57.352396096528594
-0.15970000000000018,-57.45142588751914
-0.16070000000000007,-57.62119124350295
-0.16170000000000018,-57.79095659948675
-0.16270000000000007,-57.93242772947325
-0.16370000000000018,-58.05975174646111
-0.16470000000000007,-58.10219308545706
-0.16570000000000018,-58.10219308545706
-0.16670000000000007,-58.10219308545706
-0.16770000000000018,-58.18707576344896
-0.16870000000000007,-58.31439978043681
-0.16970000000000018,-58.498312249419264
-0.17070000000000007,-58.62563626640712
-0.17170000000000019,-58.79540162239092
-0.17270000000000008,-58.79540162239092
-0.1737000000000002,-58.83784296138688
-0.17470000000000008,-58.880284300382826
-0.1757000000000002,-58.92272563937878
-0.17670000000000008,-59.10663810836124
-0.1777000000000002,-59.27640346434504
-0.17870000000000008,-59.44616882032884
-0.1797000000000002,-59.6300812893113
-0.18070000000000008,-59.757405306299155
-0.1817000000000002,-59.757405306299155
-0.18270000000000008,-59.7998466452951
-0.1837000000000002,-59.884729323287
-0.1847000000000001,-60.06864179226946
-0.1857000000000002,-60.28084848724921
-0.1867000000000001,-60.45061384323302
-0.1877000000000002,-60.63452631221547
-0.1887000000000001,-60.761850329203334
-0.1897000000000002,-60.84673300719523
-0.1907000000000001,-60.889174346191176
-0.1917000000000001,-60.974057024183075
-0.19269999999999998,-61.11552815416958
-0.1937000000000001,-61.28529351015339
-0.19469999999999998,-61.49750020513315
-0.1957000000000001,-61.72385401311155
-0.19669999999999999,-61.89361936909536
-0.1977000000000001,-61.97850204708726
-0.1987,-62.06338472507916
-0.1997000000000001,-62.16241451606972
-0.2007,-62.24729719406162
-0.2017000000000001,-62.459503889041365
-0.2027,-62.72829903601572
-0.2037000000000001,-63.02538840898739
-0.2047,-63.251742216965795
-0.2057000000000001,-63.37906623395363
-0.2067,-63.5063902509415
-0.2077000000000001,-63.54883158993744
-0.2087,-63.732744058919906
-0.2097000000000001,-63.944950753899654
-0.2107,-64.15715744887942
-0.2117000000000001,-64.46839393484973
-0.2127,-64.68060062982947
-0.2137000000000001,-64.90695443780788
-0.2147,-65.03427845479574
-0.2157000000000001,-65.20404381077954
-0.2167,-65.34551494076604
-0.21770000000000012,-65.5577216357458
-0.2187,-65.82651678272015
-0.21970000000000012,-66.08116481669586
-0.2207,-66.39240130266617
-0.22170000000000012,-66.64704933664189
-0.2227,-66.77437335362974
-0.22370000000000012,-66.87340314462028
-0.2247,-67.04316850060408
-0.22570000000000012,-67.25537519558385
-0.2267,-67.52417034255821
-0.22770000000000012,-67.86370105452582
-0.22870000000000001,-68.21737887949207
-0.22970000000000013,-68.57105670445833
-0.23070000000000002,-68.82570473843404
-0.23170000000000013,-69.0096172074165
-0.23270000000000002,-69.22182390239624
-0.23370000000000013,-69.4906190493706
-0.23470000000000002,-69.74526708334632
-0.23570000000000013,-70.05650356931662
-0.23670000000000002,-70.39603428128423
-0.2376999999999999,-70.70727076725453
-0.23870000000000002,-71.0043601402262
-0.2396999999999999,-71.2307139482046
-0.24070000000000003,-71.4004793041884
-0.24169999999999991,-71.6268331121668
-0.24270000000000003,-71.8814811461425
-0.24369999999999992,-72.27760031010472
-0.24470000000000003,-72.57468968307639
-0.24569999999999992,-72.92836750804264
-0.24670000000000003,-73.2820453330089
-0.24769999999999992,-73.49425202798865
-0.24870000000000003,-73.72060583596706
-0.24969999999999992,-73.93281253094682
-0.25070000000000003,-74.20160767792116
-0.2516999999999999,-74.58357972888473
-0.25270000000000004,-75.02214023184291
-0.2536999999999999,-75.50314207379701
-0.25470000000000004,-75.8992612377592
-0.2556999999999999,-76.19635061073087
-0.25670000000000004,-76.50758709670117
-0.25769999999999993,-76.67735245268499
-0.25870000000000004,-77.03103027765125
-0.25969999999999993,-77.42714944161345
-0.26070000000000004,-77.80912149257702
-0.26169999999999993,-78.29012333453113
-0.26270000000000004,-78.68624249849334
-0.26369999999999993,-79.0399203234596
-0.26470000000000005,-79.33700969643127
-0.26569999999999994,-79.64824618240156
-0.26670000000000005,-80.00192400736783
-0.26769999999999994,-80.38389605833139
-0.26870000000000005,-80.86489790028548
-0.26969999999999994,-81.3458997422396
-0.27070000000000005,-81.82690158419373
-0.27169999999999994,-82.26546208715187
-0.27270000000000005,-82.6615812511141
-0.27369999999999994,-83.0011119630817
-0.27470000000000006,-83.31234844905201
-0.27569999999999995,-83.70846761301424
-0.27670000000000006,-84.18946945496833
-0.27769999999999995,-84.6563241839238
-0.27870000000000006,-85.23635581686847
-0.27969999999999995,-85.75979899781852
-0.28070000000000006,-86.14177104878208
-0.28169999999999995,-86.49544887374834
-0.28270000000000006,-86.84912669871461
-0.28369999999999995,-87.23109874967815
-0.28470000000000006,-87.75454193062824
-0.28569999999999995,-88.23554377258235
-0.28670000000000007,-88.8438696315243
-0.28769999999999996,-89.32487147347842
-0.28870000000000007,-89.80587331543254
-0.28969999999999996,-90.24443381839069
-0.29070000000000007,-90.6405529823529
-0.29169999999999996,-91.12155482430701
-0.29270000000000007,-91.60255666626112
-0.29369999999999996,-92.16844118620713
-0.2947000000000001,-92.81920838414506
-0.29569999999999996,-93.34265156509512
-0.2967000000000001,-93.90853608504113
-0.29769999999999996,-94.4319792659912
-0.2987000000000001,-94.87053976894937
-0.29969999999999997,-95.39398294989942
-0.3007000000000001,-95.87498479185354
-0.30169999999999997,-96.52575198979144
-0.3027000000000001,-97.17651918772938
-0.30369999999999997,-97.88387483766188
-0.3047000000000001,-98.5346420355998
-0.30569999999999997,-99.10052655554581
-0.3067000000000001,-99.62396973649588
-0.3077,-100.14741291744595
-0.3087000000000001,-100.670856098396
-0.3097,-101.32162329633393
-0.3107000000000001,-102.07142028526239
-0.3117,-102.76462882219626
-0.3127000000000001,-103.45783735913014
-0.3137,-104.06616321807209
-0.3147000000000001,-104.58960639902216
-0.3157,-105.16963803196683
-0.3167000000000001,-105.7779638909088
-0.3177,-106.4287310888467
-0.3187000000000001,-107.12193962578058
-0.3197,-107.914177953705
-0.3207000000000001,-108.64982782963483
-0.3217,-109.35718347956733
-0.3227000000000001,-109.9655093385093
-0.3237,-110.57383519745127
-0.3247000000000001,-111.18216105639323
-0.3257,-111.8753695933271
-0.3267000000000001,-112.71004926024747
-0.3277,-113.48814047517324
-0.3287000000000001,-114.3228201420936
-0.3297,-115.15749980901398
-0.3307000000000001,-115.85070834594785
-0.3317,-116.58635822187767
-0.3327000000000001,-117.29371387181018
-0.3337,-117.94448106974811
-0.3347000000000001,-118.59524826768603
-0.3357,-119.2884568046199
-0.3367000000000001,-120.12313647154028
-0.3377,-120.95781613846064
-0.3387000000000001,-121.82079003137831
-0.3397,-122.69791103729463
-0.3407000000000001,-123.532590704215
-0.3417,-124.43800593612862
-0.3427000000000001,-125.44245095903281
-0.3437,-126.44689598193698
-0.3447000000000001,-127.57866502182902
-0.3457,-128.5831100447332
-0.3467000000000001,-129.50267238964545
-0.3477,-130.42223473455772
-0.3487000000000001,-131.32764996647134
-0.3497,-132.16232963339172
-0.3507000000000001,-133.08189197830401
-0.3517,-133.9873072102176
-0.3527000000000001,-135.03419357211774
-0.3537,-136.08107993401788
-0.3547000000000001,-137.04308361792607
-0.3557,-137.9626459628384
-0.35670000000000013,-138.88220830775063
-0.3577,-139.70274086167237
-0.35870000000000013,-140.53742052859275
-0.3597,-141.47112998650366
-0.36070000000000013,-142.6028990263957
-0.3617,-143.73466806628772
-0.3626999999999999,-144.72496597619326
-0.3637,-145.85673501608528
-0.3646999999999999,-146.8470329259908
-0.3657,-147.83733083589632
-0.3666999999999999,-148.82762874580186
-0.3677,-149.8179266557074
-0.3686999999999999,-150.94969569559944
-0.36970000000000003,-152.22293586547795
-0.3706999999999999,-153.35470490536997
-0.37170000000000003,-154.486473945262
-0.3726999999999999,-155.47677185516753
-0.37370000000000003,-156.60854089505958
-0.3746999999999999,-157.7403099349516
-0.37570000000000003,-159.01355010483013
-0.3766999999999999,-160.28679027470866
-0.37770000000000004,-161.5600304445872
-0.3786999999999999,-162.97474174445222
-0.37970000000000004,-164.24798191433075
-0.3806999999999999,-165.5212220842093
-0.38170000000000004,-166.79446225408785
-0.38269999999999993,-167.92623129397984
-0.38370000000000004,-169.19947146385837
-0.38469999999999993,-170.47271163373694
-0.38570000000000004,-171.74595180361547
-0.38669999999999993,-171.18006728366944
-0.38570000000000004,-167.07740451406085
-0.38469999999999993,-163.39915513441173
-0.38370000000000004,-160.14531914472215
-0.38269999999999993,-156.89148315503257
-0.38170000000000004,-154.0620605553025
-0.3806999999999999,-151.23263795557244
-0.37970000000000004,-148.54468648582886
-0.3786999999999999,-146.1396772760583
-0.37770000000000004,-143.73466806628772
-0.3766999999999999,-141.3721001955131
-0.37570000000000003,-139.0095323247385
-0.3746999999999999,-136.74599424495443
-0.37370000000000003,-134.5107503911677
-0.3726999999999999,-132.37453632837148
-0.37170000000000003,-130.42223473455772
-0.3706999999999999,-128.4982273667413
-0.36970000000000003,-126.61666133792076
-0.3686999999999999,-124.74924242209892
-0.3677,-122.78279371528653
-0.3666999999999999,-120.77390366947817
-0.3657,-118.82160207566443
-0.3646999999999999,-116.89759470784797
-0.3637,-115.05847001802343
-0.3626999999999999,-113.31837511918944
-0.3617,-111.57828022035544
-0.36070000000000013,-109.8240382085228
-0.3597,-107.99906063169689
-0.35870000000000013,-106.15993594187235
-0.3577,-104.33495836504645
-0.35670000000000013,-102.4958336752219
-0.3557,-100.75573877638791
-0.3547000000000001,-99.10052655554581
-0.3537,-97.4877556736997
-0.3527000000000001,-95.87498479185354
-0.3517,-94.30465524900335
-0.3507000000000001,-92.6070016891653
-0.3497,-90.89520101632861
-0.3487000000000001,-89.19754745649055
-0.3477,-87.54233523564847
-0.3467000000000001,-86.05688837079018
-0.3457,-84.61388284492786
-0.3447000000000001,-83.22746577106011
-0.3437,-81.74201890620182
-0.3427000000000001,-80.17168936335163
-0.3417,-78.64380115949739
-0.3407000000000001,-77.03103027765125
-0.3397,-75.54558341279296
-0.3387000000000001,-74.14501922592657
-0.3377,-72.75860215205884
-0.3367000000000001,-71.4004793041884
-0.3357,-70.01406223032066
-0.3347000000000001,-68.57105670445833
-0.3337,-67.17049251759194
-0.3327000000000001,-65.64260431373769
-0.3317,-64.25618723986996
-0.3307000000000001,-62.855623053003576
-0.3297,-61.53994154412909
-0.3287000000000001,-60.36573116524111
-0.3277,-59.06419676936528
-0.3267000000000001,-57.7485152604908
-0.3257,-56.404539525619015
-0.3247000000000001,-54.961533999756675
-0.3237,-53.603411151886235
-0.3227000000000001,-52.30187675601041
-0.3217,-51.028636586131874
-0.3207000000000001,-49.81198486824794
-0.3197,-48.68021582835591
-0.3187000000000001,-47.46356411047198
-0.3177,-46.147882601597495
-0.3167000000000001,-44.80390686672572
-0.3157,-43.44578401885527
-0.3147000000000001,-42.229132300971344
-0.3137,-41.04077480908471
-0.3127000000000001,-39.90900576919269
-0.3117,-38.90456074628851
-0.3107000000000001,-37.77279170639648
-0.3097,-36.5985813275085
-0.3087000000000001,-35.38192960962457
-0.3077,-34.10868943974604
-0.3067000000000001,-32.93447906085806
-0.30569999999999997,-31.802710020966025
-0.3047000000000001,-30.7558236590659
-0.30369999999999997,-29.751378636161718
-0.3027000000000001,-28.704492274261593
-0.30169999999999997,-27.700047251357418
-0.3007000000000001,-26.525836872469437
-0.29969999999999997,-25.337479380582806
-0.2987000000000001,-24.24815167968673
-0.29769999999999996,-23.1163826397947
-0.2967000000000001,-22.111937616890522
-0.29569999999999996,-21.2065223849769
-0.2947000000000001,-20.244518701068674
-0.29369999999999996,-19.28251501716045
-0.29270000000000007,-18.23562865526032
-0.29169999999999996,-17.146300954364243
-0.29070000000000007,-16.056973253468165
-0.28969999999999996,-15.05252823056399
-0.28870000000000007,-14.13438059695158
-0.28769999999999996,-13.261503724934855
-0.28670000000000007,-12.390041564217992
-0.28569999999999995,-11.517164692201263
-0.28470000000000006,-10.557990430892769
-0.28369999999999995,-9.55496011928846
-0.28270000000000006,-8.508073757388331
-0.28169999999999995,-7.5474847847799715
-0.28070000000000006,-6.6760226240631075
-0.27969999999999995,-5.80314575204638
-0.27870000000000006,-5.017980980621284
-0.27769999999999995,-4.1889601589003735
-0.27670000000000006,-3.361354048479327
-0.27569999999999995,-2.4446211261667834
-0.27470000000000006,-1.4854468648582886
-0.27369999999999994,-0.5692798270656908
-0.27270000000000005,0.3467457395969205
-0.27169999999999994,1.0881959318561862
-0.27070000000000005,1.8730777610213083
-0.26969999999999994,2.5705304318547717
-0.26870000000000005,3.313253864283916
-0.26769999999999994,4.184716025000778
-0.26670000000000005,5.101448947313322
-0.26569999999999994,5.9729111080301855
