Dec. 20, 2024   11:18:32
Linear Sweep Voltammetry
File: c:/users/guazh/data/banditlqround7_x0exp667_r5/2024-12-16-exp710\1acid_2ac-2024-12-20t11_15_18-lsvinphos\1acid_2ac_lsv_50mvs_efin_-2300mv.bin
Data Source:  Experiment
Instrument Model:  CHI760E
Header: LSV ran at 50 mVs with Efin at -2300mV
Note: 

Init E (V) = -0.6
Final E (V) = -2.3
Scan Rate (V/s) = 0.05
Sample Interval (V) = 0.001
Quiet Time (sec) = 2
Sensitivity (A/V) = 1e-4
Comp R (ohm) = 8.7

Results:

Channel 1:
Ep = -2.046V
ip = 8.393e-4A
Ah = 1.266e-3C

Potential/V, Current/A

-0.600, 2.785e-6
-0.601, 2.896e-6
-0.602, 2.938e-6
-0.603, 2.971e-6
-0.604, 3.002e-6
-0.605, 3.038e-6
-0.606, 3.070e-6
-0.607, 3.098e-6
-0.608, 3.126e-6
-0.609, 3.157e-6
-0.610, 3.188e-6
-0.611, 3.221e-6
-0.612, 3.248e-6
-0.613, 3.274e-6
-0.614, 3.305e-6
-0.615, 3.340e-6
-0.616, 3.371e-6
-0.617, 3.400e-6
-0.618, 3.428e-6
-0.619, 3.458e-6
-0.620, 3.492e-6
-0.621, 3.523e-6
-0.622, 3.552e-6
-0.623, 3.580e-6
-0.624, 3.611e-6
-0.625, 3.646e-6
-0.626, 3.678e-6
-0.627, 3.708e-6
-0.628, 3.738e-6
-0.629, 3.768e-6
-0.630, 3.803e-6
-0.631, 3.836e-6
-0.632, 3.866e-6
-0.633, 3.896e-6
-0.634, 3.926e-6
-0.635, 3.962e-6
-0.636, 3.997e-6
-0.637, 4.025e-6
-0.638, 4.057e-6
-0.639, 4.087e-6
-0.640, 4.123e-6
-0.641, 4.157e-6
-0.642, 4.185e-6
-0.643, 4.215e-6
-0.644, 4.246e-6
-0.645, 4.282e-6
-0.646, 4.316e-6
-0.647, 4.348e-6
-0.648, 4.378e-6
-0.649, 4.412e-6
-0.650, 4.446e-6
-0.651, 4.483e-6
-0.652, 4.515e-6
-0.653, 4.547e-6
-0.654, 4.579e-6
-0.655, 4.615e-6
-0.656, 4.651e-6
-0.657, 4.684e-6
-0.658, 4.714e-6
-0.659, 4.748e-6
-0.660, 4.783e-6
-0.661, 4.819e-6
-0.662, 4.852e-6
-0.663, 4.882e-6
-0.664, 4.914e-6
-0.665, 4.952e-6
-0.666, 4.989e-6
-0.667, 5.021e-6
-0.668, 5.052e-6
-0.669, 5.085e-6
-0.670, 5.121e-6
-0.671, 5.156e-6
-0.672, 5.187e-6
-0.673, 5.220e-6
-0.674, 5.252e-6
-0.675, 5.289e-6
-0.676, 5.325e-6
-0.677, 5.356e-6
-0.678, 5.387e-6
-0.679, 5.419e-6
-0.680, 5.455e-6
-0.681, 5.491e-6
-0.682, 5.521e-6
-0.683, 5.553e-6
-0.684, 5.585e-6
-0.685, 5.622e-6
-0.686, 5.656e-6
-0.687, 5.685e-6
-0.688, 5.715e-6
-0.689, 5.747e-6
-0.690, 5.782e-6
-0.691, 5.819e-6
-0.692, 5.848e-6
-0.693, 5.877e-6
-0.694, 5.906e-6
-0.695, 5.937e-6
-0.696, 5.969e-6
-0.697, 5.999e-6
-0.698, 6.029e-6
-0.699, 6.058e-6
-0.700, 6.092e-6
-0.701, 6.125e-6
-0.702, 6.151e-6
-0.703, 6.177e-6
-0.704, 6.205e-6
-0.705, 6.236e-6
-0.706, 6.265e-6
-0.707, 6.293e-6
-0.708, 6.320e-6
-0.709, 6.348e-6
-0.710, 6.380e-6
-0.711, 6.409e-6
-0.712, 6.434e-6
-0.713, 6.459e-6
-0.714, 6.484e-6
-0.715, 6.514e-6
-0.716, 6.542e-6
-0.717, 6.567e-6
-0.718, 6.592e-6
-0.719, 6.616e-6
-0.720, 6.644e-6
-0.721, 6.671e-6
-0.722, 6.693e-6
-0.723, 6.715e-6
-0.724, 6.738e-6
-0.725, 6.764e-6
-0.726, 6.789e-6
-0.727, 6.810e-6
-0.728, 6.831e-6
-0.729, 6.853e-6
-0.730, 6.876e-6
-0.731, 6.900e-6
-0.732, 6.918e-6
-0.733, 6.936e-6
-0.734, 6.956e-6
-0.735, 6.978e-6
-0.736, 7.000e-6
-0.737, 7.015e-6
-0.738, 7.031e-6
-0.739, 7.049e-6
-0.740, 7.070e-6
-0.741, 7.088e-6
-0.742, 7.105e-6
-0.743, 7.119e-6
-0.744, 7.135e-6
-0.745, 7.153e-6
-0.746, 7.170e-6
-0.747, 7.182e-6
-0.748, 7.195e-6
-0.749, 7.209e-6
-0.750, 7.225e-6
-0.751, 7.240e-6
-0.752, 7.251e-6
-0.753, 7.261e-6
-0.754, 7.270e-6
-0.755, 7.286e-6
-0.756, 7.300e-6
-0.757, 7.307e-6
-0.758, 7.315e-6
-0.759, 7.325e-6
-0.760, 7.337e-6
-0.761, 7.349e-6
-0.762, 7.356e-6
-0.763, 7.362e-6
-0.764, 7.369e-6
-0.765, 7.378e-6
-0.766, 7.387e-6
-0.767, 7.392e-6
-0.768, 7.399e-6
-0.769, 7.404e-6
-0.770, 7.411e-6
-0.771, 7.418e-6
-0.772, 7.421e-6
-0.773, 7.424e-6
-0.774, 7.428e-6
-0.775, 7.434e-6
-0.776, 7.439e-6
-0.777, 7.439e-6
-0.778, 7.441e-6
-0.779, 7.443e-6
-0.780, 7.446e-6
-0.781, 7.451e-6
-0.782, 7.451e-6
-0.783, 7.449e-6
-0.784, 7.450e-6
-0.785, 7.454e-6
-0.786, 7.454e-6
-0.787, 7.452e-6
-0.788, 7.451e-6
-0.789, 7.448e-6
-0.790, 7.450e-6
-0.791, 7.450e-6
-0.792, 7.446e-6
-0.793, 7.443e-6
-0.794, 7.439e-6
-0.795, 7.440e-6
-0.796, 7.439e-6
-0.797, 7.433e-6
-0.798, 7.429e-6
-0.799, 7.423e-6
-0.800, 7.424e-6
-0.801, 7.421e-6
-0.802, 7.414e-6
-0.803, 7.407e-6
-0.804, 7.403e-6
-0.805, 7.400e-6
-0.806, 7.396e-6
-0.807, 7.390e-6
-0.808, 7.382e-6
-0.809, 7.377e-6
-0.810, 7.373e-6
-0.811, 7.370e-6
-0.812, 7.361e-6
-0.813, 7.352e-6
-0.814, 7.344e-6
-0.815, 7.341e-6
-0.816, 7.336e-6
-0.817, 7.326e-6
-0.818, 7.317e-6
-0.819, 7.311e-6
-0.820, 7.309e-6
-0.821, 7.301e-6
-0.822, 7.290e-6
-0.823, 7.279e-6
-0.824, 7.271e-6
-0.825, 7.265e-6
-0.826, 7.259e-6
-0.827, 7.249e-6
-0.828, 7.237e-6
-0.829, 7.229e-6
-0.830, 7.223e-6
-0.831, 7.216e-6
-0.832, 7.205e-6
-0.833, 7.194e-6
-0.834, 7.184e-6
-0.835, 7.178e-6
-0.836, 7.169e-6
-0.837, 7.158e-6
-0.838, 7.146e-6
-0.839, 7.136e-6
-0.840, 7.128e-6
-0.841, 7.122e-6
-0.842, 7.109e-6
-0.843, 7.097e-6
-0.844, 7.086e-6
-0.845, 7.079e-6
-0.846, 7.072e-6
-0.847, 7.058e-6
-0.848, 7.046e-6
-0.849, 7.036e-6
-0.850, 7.027e-6
-0.851, 7.021e-6
-0.852, 7.009e-6
-0.853, 6.996e-6
-0.854, 6.984e-6
-0.855, 6.978e-6
-0.856, 6.970e-6
-0.857, 6.957e-6
-0.858, 6.944e-6
-0.859, 6.933e-6
-0.860, 6.926e-6
-0.861, 6.917e-6
-0.862, 6.904e-6
-0.863, 6.892e-6
-0.864, 6.882e-6
-0.865, 6.876e-6
-0.866, 6.867e-6
-0.867, 6.855e-6
-0.868, 6.843e-6
-0.869, 6.832e-6
-0.870, 6.826e-6
-0.871, 6.820e-6
-0.872, 6.804e-6
-0.873, 6.792e-6
-0.874, 6.781e-6
-0.875, 6.773e-6
-0.876, 6.766e-6
-0.877, 6.754e-6
-0.878, 6.741e-6
-0.879, 6.730e-6
-0.880, 6.722e-6
-0.881, 6.715e-6
-0.882, 6.702e-6
-0.883, 6.691e-6
-0.884, 6.681e-6
-0.885, 6.673e-6
-0.886, 6.665e-6
-0.887, 6.653e-6
-0.888, 6.641e-6
-0.889, 6.632e-6
-0.890, 6.624e-6
-0.891, 6.616e-6
-0.892, 6.605e-6
-0.893, 6.594e-6
-0.894, 6.584e-6
-0.895, 6.577e-6
-0.896, 6.569e-6
-0.897, 6.559e-6
-0.898, 6.547e-6
-0.899, 6.537e-6
-0.900, 6.530e-6
-0.901, 6.522e-6
-0.902, 6.511e-6
-0.903, 6.499e-6
-0.904, 6.490e-6
-0.905, 6.484e-6
-0.906, 6.477e-6
-0.907, 6.466e-6
-0.908, 6.457e-6
-0.909, 6.447e-6
-0.910, 6.440e-6
-0.911, 6.434e-6
-0.912, 6.423e-6
-0.913, 6.413e-6
-0.914, 6.403e-6
-0.915, 6.397e-6
-0.916, 6.391e-6
-0.917, 6.380e-6
-0.918, 6.370e-6
-0.919, 6.360e-6
-0.920, 6.355e-6
-0.921, 6.350e-6
-0.922, 6.340e-6
-0.923, 6.329e-6
-0.924, 6.320e-6
-0.925, 6.314e-6
-0.926, 6.309e-6
-0.927, 6.297e-6
-0.928, 6.289e-6
-0.929, 6.281e-6
-0.930, 6.275e-6
-0.931, 6.269e-6
-0.932, 6.260e-6
-0.933, 6.250e-6
-0.934, 6.242e-6
-0.935, 6.238e-6
-0.936, 6.233e-6
-0.937, 6.224e-6
-0.938, 6.214e-6
-0.939, 6.207e-6
-0.940, 6.203e-6
-0.941, 6.198e-6
-0.942, 6.190e-6
-0.943, 6.181e-6
-0.944, 6.173e-6
-0.945, 6.169e-6
-0.946, 6.165e-6
-0.947, 6.156e-6
-0.948, 6.149e-6
-0.949, 6.140e-6
-0.950, 6.137e-6
-0.951, 6.133e-6
-0.952, 6.123e-6
-0.953, 6.115e-6
-0.954, 6.108e-6
-0.955, 6.103e-6
-0.956, 6.099e-6
-0.957, 6.091e-6
-0.958, 6.082e-6
-0.959, 6.074e-6
-0.960, 6.071e-6
-0.961, 6.068e-6
-0.962, 6.059e-6
-0.963, 6.051e-6
-0.964, 6.044e-6
-0.965, 6.039e-6
-0.966, 6.036e-6
-0.967, 6.029e-6
-0.968, 6.020e-6
-0.969, 6.014e-6
-0.970, 6.009e-6
-0.971, 6.005e-6
-0.972, 5.998e-6
-0.973, 5.992e-6
-0.974, 5.985e-6
-0.975, 5.982e-6
-0.976, 5.977e-6
-0.977, 5.970e-6
-0.978, 5.962e-6
-0.979, 5.957e-6
-0.980, 5.954e-6
-0.981, 5.948e-6
-0.982, 5.943e-6
-0.983, 5.935e-6
-0.984, 5.929e-6
-0.985, 5.928e-6
-0.986, 5.925e-6
-0.987, 5.918e-6
-0.988, 5.912e-6
-0.989, 5.905e-6
-0.990, 5.905e-6
-0.991, 5.901e-6
-0.992, 5.894e-6
-0.993, 5.887e-6
-0.994, 5.883e-6
-0.995, 5.880e-6
-0.996, 5.877e-6
-0.997, 5.870e-6
-0.998, 5.864e-6
-0.999, 5.858e-6
-1.000, 5.856e-6
-1.001, 5.854e-6
-1.002, 5.847e-6
-1.003, 5.841e-6
-1.004, 5.835e-6
-1.005, 5.832e-6
-1.006, 5.830e-6
-1.007, 5.823e-6
-1.008, 5.818e-6
-1.009, 5.812e-6
-1.010, 5.808e-6
-1.011, 5.807e-6
-1.012, 5.800e-6
-1.013, 5.793e-6
-1.014, 5.788e-6
-1.015, 5.785e-6
-1.016, 5.783e-6
-1.017, 5.779e-6
-1.018, 5.771e-6
-1.019, 5.766e-6
-1.020, 5.765e-6
-1.021, 5.762e-6
-1.022, 5.756e-6
-1.023, 5.749e-6
-1.024, 5.746e-6
-1.025, 5.745e-6
-1.026, 5.742e-6
-1.027, 5.736e-6
-1.028, 5.729e-6
-1.029, 5.725e-6
-1.030, 5.723e-6
-1.031, 5.721e-6
-1.032, 5.715e-6
-1.033, 5.709e-6
-1.034, 5.704e-6
-1.035, 5.703e-6
-1.036, 5.701e-6
-1.037, 5.696e-6
-1.038, 5.690e-6
-1.039, 5.685e-6
-1.040, 5.684e-6
-1.041, 5.682e-6
-1.042, 5.676e-6
-1.043, 5.672e-6
-1.044, 5.667e-6
-1.045, 5.665e-6
-1.046, 5.663e-6
-1.047, 5.659e-6
-1.048, 5.653e-6
-1.049, 5.649e-6
-1.050, 5.648e-6
-1.051, 5.647e-6
-1.052, 5.641e-6
-1.053, 5.635e-6
-1.054, 5.632e-6
-1.055, 5.630e-6
-1.056, 5.630e-6
-1.057, 5.625e-6
-1.058, 5.618e-6
-1.059, 5.614e-6
-1.060, 5.614e-6
-1.061, 5.613e-6
-1.062, 5.608e-6
-1.063, 5.604e-6
-1.064, 5.599e-6
-1.065, 5.598e-6
-1.066, 5.598e-6
-1.067, 5.592e-6
-1.068, 5.587e-6
-1.069, 5.583e-6
-1.070, 5.583e-6
-1.071, 5.582e-6
-1.072, 5.577e-6
-1.073, 5.572e-6
-1.074, 5.568e-6
-1.075, 5.570e-6
-1.076, 5.568e-6
-1.077, 5.562e-6
-1.078, 5.557e-6
-1.079, 5.553e-6
-1.080, 5.552e-6
-1.081, 5.552e-6
-1.082, 5.548e-6
-1.083, 5.543e-6
-1.084, 5.540e-6
-1.085, 5.538e-6
-1.086, 5.538e-6
-1.087, 5.532e-6
-1.088, 5.530e-6
-1.089, 5.527e-6
-1.090, 5.525e-6
-1.091, 5.524e-6
-1.092, 5.520e-6
-1.093, 5.515e-6
-1.094, 5.512e-6
-1.095, 5.514e-6
-1.096, 5.512e-6
-1.097, 5.508e-6
-1.098, 5.503e-6
-1.099, 5.501e-6
-1.100, 5.500e-6
-1.101, 5.498e-6
-1.102, 5.496e-6
-1.103, 5.491e-6
-1.104, 5.488e-6
-1.105, 5.488e-6
-1.106, 5.487e-6
-1.107, 5.483e-6
-1.108, 5.479e-6
-1.109, 5.475e-6
-1.110, 5.477e-6
-1.111, 5.477e-6
-1.112, 5.472e-6
-1.113, 5.469e-6
-1.114, 5.467e-6
-1.115, 5.466e-6
-1.116, 5.465e-6
-1.117, 5.461e-6
-1.118, 5.457e-6
-1.119, 5.454e-6
-1.120, 5.456e-6
-1.121, 5.457e-6
-1.122, 5.451e-6
-1.123, 5.449e-6
-1.124, 5.445e-6
-1.125, 5.445e-6
-1.126, 5.446e-6
-1.127, 5.444e-6
-1.128, 5.440e-6
-1.129, 5.437e-6
-1.130, 5.437e-6
-1.131, 5.438e-6
-1.132, 5.434e-6
-1.133, 5.431e-6
-1.134, 5.429e-6
-1.135, 5.430e-6
-1.136, 5.430e-6
-1.137, 5.427e-6
-1.138, 5.422e-6
-1.139, 5.421e-6
-1.140, 5.422e-6
-1.141, 5.422e-6
-1.142, 5.420e-6
-1.143, 5.417e-6
-1.144, 5.413e-6
-1.145, 5.415e-6
-1.146, 5.415e-6
-1.147, 5.412e-6
-1.148, 5.410e-6
-1.149, 5.407e-6
-1.150, 5.408e-6
-1.151, 5.408e-6
-1.152, 5.406e-6
-1.153, 5.403e-6
-1.154, 5.399e-6
-1.155, 5.400e-6
-1.156, 5.402e-6
-1.157, 5.398e-6
-1.158, 5.397e-6
-1.159, 5.393e-6
-1.160, 5.395e-6
-1.161, 5.397e-6
-1.162, 5.393e-6
-1.163, 5.391e-6
-1.164, 5.388e-6
-1.165, 5.389e-6
-1.166, 5.392e-6
-1.167, 5.388e-6
-1.168, 5.386e-6
-1.169, 5.385e-6
-1.170, 5.384e-6
-1.171, 5.386e-6
-1.172, 5.383e-6
-1.173, 5.381e-6
-1.174, 5.379e-6
-1.175, 5.380e-6
-1.176, 5.382e-6
-1.177, 5.379e-6
-1.178, 5.379e-6
-1.179, 5.375e-6
-1.180, 5.376e-6
-1.181, 5.378e-6
-1.182, 5.376e-6
-1.183, 5.372e-6
-1.184, 5.371e-6
-1.185, 5.372e-6
-1.186, 5.373e-6
-1.187, 5.371e-6
-1.188, 5.367e-6
-1.189, 5.366e-6
-1.190, 5.369e-6
-1.191, 5.370e-6
-1.192, 5.368e-6
-1.193, 5.367e-6
-1.194, 5.364e-6
-1.195, 5.365e-6
-1.196, 5.367e-6
-1.197, 5.366e-6
-1.198, 5.364e-6
-1.199, 5.362e-6
-1.200, 5.364e-6
-1.201, 5.366e-6
-1.202, 5.363e-6
-1.203, 5.362e-6
-1.204, 5.361e-6
-1.205, 5.362e-6
-1.206, 5.363e-6
-1.207, 5.360e-6
-1.208, 5.358e-6
-1.209, 5.358e-6
-1.210, 5.358e-6
-1.211, 5.361e-6
-1.212, 5.359e-6
-1.213, 5.357e-6
-1.214, 5.356e-6
-1.215, 5.356e-6
-1.216, 5.360e-6
-1.217, 5.359e-6
-1.218, 5.356e-6
-1.219, 5.354e-6
-1.220, 5.355e-6
-1.221, 5.357e-6
-1.222, 5.356e-6
-1.223, 5.355e-6
-1.224, 5.353e-6
-1.225, 5.356e-6
-1.226, 5.358e-6
-1.227, 5.357e-6
-1.228, 5.355e-6
-1.229, 5.358e-6
-1.230, 5.358e-6
-1.231, 5.360e-6
-1.232, 5.357e-6
-1.233, 5.356e-6
-1.234, 5.355e-6
-1.235, 5.357e-6
-1.236, 5.358e-6
-1.237, 5.356e-6
-1.238, 5.356e-6
-1.239, 5.355e-6
-1.240, 5.356e-6
-1.241, 5.359e-6
-1.242, 5.358e-6
-1.243, 5.356e-6
-1.244, 5.356e-6
-1.245, 5.358e-6
-1.246, 5.360e-6
-1.247, 5.359e-6
-1.248, 5.357e-6
-1.249, 5.357e-6
-1.250, 5.357e-6
-1.251, 5.361e-6
-1.252, 5.360e-6
-1.253, 5.358e-6
-1.254, 5.358e-6
-1.255, 5.360e-6
-1.256, 5.362e-6
-1.257, 5.362e-6
-1.258, 5.358e-6
-1.259, 5.359e-6
-1.260, 5.362e-6
-1.261, 5.364e-6
-1.262, 5.363e-6
-1.263, 5.360e-6
-1.264, 5.360e-6
-1.265, 5.363e-6
-1.266, 5.365e-6
-1.267, 5.365e-6
-1.268, 5.365e-6
-1.269, 5.363e-6
-1.270, 5.366e-6
-1.271, 5.368e-6
-1.272, 5.367e-6
-1.273, 5.366e-6
-1.274, 5.365e-6
-1.275, 5.368e-6
-1.276, 5.371e-6
-1.277, 5.370e-6
-1.278, 5.370e-6
-1.279, 5.368e-6
-1.280, 5.372e-6
-1.281, 5.377e-6
-1.282, 5.374e-6
-1.283, 5.371e-6
-1.284, 5.371e-6
-1.285, 5.374e-6
-1.286, 5.378e-6
-1.287, 5.377e-6
-1.288, 5.376e-6
-1.289, 5.376e-6
-1.290, 5.378e-6
-1.291, 5.381e-6
-1.292, 5.380e-6
-1.293, 5.379e-6
-1.294, 5.379e-6
-1.295, 5.381e-6
-1.296, 5.385e-6
-1.297, 5.385e-6
-1.298, 5.382e-6
-1.299, 5.383e-6
-1.300, 5.385e-6
-1.301, 5.388e-6
-1.302, 5.388e-6
-1.303, 5.386e-6
-1.304, 5.386e-6
-1.305, 5.390e-6
-1.306, 5.392e-6
-1.307, 5.393e-6
-1.308, 5.392e-6
-1.309, 5.390e-6
-1.310, 5.394e-6
-1.311, 5.398e-6
-1.312, 5.397e-6
-1.313, 5.397e-6
-1.314, 5.395e-6
-1.315, 5.398e-6
-1.316, 5.401e-6
-1.317, 5.401e-6
-1.318, 5.400e-6
-1.319, 5.400e-6
-1.320, 5.403e-6
-1.321, 5.408e-6
-1.322, 5.407e-6
-1.323, 5.405e-6
-1.324, 5.405e-6
-1.325, 5.408e-6
-1.326, 5.413e-6
-1.327, 5.413e-6
-1.328, 5.410e-6
-1.329, 5.410e-6
-1.330, 5.413e-6
-1.331, 5.418e-6
-1.332, 5.418e-6
-1.333, 5.417e-6
-1.334, 5.417e-6
-1.335, 5.421e-6
-1.336, 5.423e-6
-1.337, 5.424e-6
-1.338, 5.423e-6
-1.339, 5.423e-6
-1.340, 5.426e-6
-1.341, 5.431e-6
-1.342, 5.430e-6
-1.343, 5.429e-6
-1.344, 5.429e-6
-1.345, 5.433e-6
-1.346, 5.436e-6
-1.347, 5.438e-6
-1.348, 5.435e-6
-1.349, 5.435e-6
-1.350, 5.441e-6
-1.351, 5.443e-6
-1.352, 5.444e-6
-1.353, 5.444e-6
-1.354, 5.442e-6
-1.355, 5.446e-6
-1.356, 5.451e-6
-1.357, 5.451e-6
-1.358, 5.452e-6
-1.359, 5.450e-6
-1.360, 5.454e-6
-1.361, 5.459e-6
-1.362, 5.458e-6
-1.363, 5.459e-6
-1.364, 5.458e-6
-1.365, 5.461e-6
-1.366, 5.467e-6
-1.367, 5.466e-6
-1.368, 5.466e-6
-1.369, 5.467e-6
-1.370, 5.471e-6
-1.371, 5.475e-6
-1.372, 5.475e-6
-1.373, 5.476e-6
-1.374, 5.476e-6
-1.375, 5.479e-6
-1.376, 5.484e-6
-1.377, 5.486e-6
-1.378, 5.485e-6
-1.379, 5.484e-6
-1.380, 5.489e-6
-1.381, 5.493e-6
-1.382, 5.496e-6
-1.383, 5.496e-6
-1.384, 5.495e-6
-1.385, 5.499e-6
-1.386, 5.503e-6
-1.387, 5.505e-6
-1.388, 5.504e-6
-1.389, 5.506e-6
-1.390, 5.509e-6
-1.391, 5.514e-6
-1.392, 5.515e-6
-1.393, 5.515e-6
-1.394, 5.515e-6
-1.395, 5.521e-6
-1.396, 5.526e-6
-1.397, 5.525e-6
-1.398, 5.526e-6
-1.399, 5.527e-6
-1.400, 5.531e-6
-1.401, 5.538e-6
-1.402, 5.538e-6
-1.403, 5.538e-6
-1.404, 5.539e-6
-1.405, 5.542e-6
-1.406, 5.548e-6
-1.407, 5.550e-6
-1.408, 5.550e-6
-1.409, 5.552e-6
-1.410, 5.554e-6
-1.411, 5.561e-6
-1.412, 5.561e-6
-1.413, 5.562e-6
-1.414, 5.563e-6
-1.415, 5.566e-6
-1.416, 5.573e-6
-1.417, 5.574e-6
-1.418, 5.573e-6
-1.419, 5.575e-6
-1.420, 5.579e-6
-1.421, 5.585e-6
-1.422, 5.587e-6
-1.423, 5.588e-6
-1.424, 5.588e-6
-1.425, 5.593e-6
-1.426, 5.599e-6
-1.427, 5.601e-6
-1.428, 5.601e-6
-1.429, 5.602e-6
-1.430, 5.608e-6
-1.431, 5.613e-6
-1.432, 5.615e-6
-1.433, 5.616e-6
-1.434, 5.619e-6
-1.435, 5.623e-6
-1.436, 5.629e-6
-1.437, 5.631e-6
-1.438, 5.631e-6
-1.439, 5.632e-6
-1.440, 5.638e-6
-1.441, 5.646e-6
-1.442, 5.647e-6
-1.443, 5.648e-6
-1.444, 5.650e-6
-1.445, 5.654e-6
-1.446, 5.662e-6
-1.447, 5.663e-6
-1.448, 5.663e-6
-1.449, 5.666e-6
-1.450, 5.670e-6
-1.451, 5.678e-6
-1.452, 5.680e-6
-1.453, 5.683e-6
-1.454, 5.683e-6
-1.455, 5.688e-6
-1.456, 5.695e-6
-1.457, 5.699e-6
-1.458, 5.700e-6
-1.459, 5.703e-6
-1.460, 5.709e-6
-1.461, 5.716e-6
-1.462, 5.719e-6
-1.463, 5.720e-6
-1.464, 5.723e-6
-1.465, 5.730e-6
-1.466, 5.737e-6
-1.467, 5.742e-6
-1.468, 5.742e-6
-1.469, 5.742e-6
-1.470, 5.751e-6
-1.471, 5.758e-6
-1.472, 5.762e-6
-1.473, 5.765e-6
-1.474, 5.766e-6
-1.475, 5.773e-6
-1.476, 5.781e-6
-1.477, 5.785e-6
-1.478, 5.788e-6
-1.479, 5.789e-6
-1.480, 5.796e-6
-1.481, 5.805e-6
-1.482, 5.808e-6
-1.483, 5.811e-6
-1.484, 5.815e-6
-1.485, 5.823e-6
-1.486, 5.833e-6
-1.487, 5.835e-6
-1.488, 5.837e-6
-1.489, 5.841e-6
-1.490, 5.845e-6
-1.491, 5.856e-6
-1.492, 5.861e-6
-1.493, 5.862e-6
-1.494, 5.866e-6
-1.495, 5.873e-6
-1.496, 5.883e-6
-1.497, 5.886e-6
-1.498, 5.889e-6
-1.499, 5.892e-6
-1.500, 5.899e-6
-1.501, 5.909e-6
-1.502, 5.913e-6
-1.503, 5.916e-6
-1.504, 5.919e-6
-1.505, 5.927e-6
-1.506, 5.936e-6
-1.507, 5.941e-6
-1.508, 5.945e-6
-1.509, 5.947e-6
-1.510, 5.957e-6
-1.511, 5.968e-6
-1.512, 5.974e-6
-1.513, 5.977e-6
-1.514, 5.980e-6
-1.515, 5.991e-6
-1.516, 6.001e-6
-1.517, 6.007e-6
-1.518, 6.012e-6
-1.519, 6.015e-6
-1.520, 6.026e-6
-1.521, 6.039e-6
-1.522, 6.044e-6
-1.523, 6.050e-6
-1.524, 6.054e-6
-1.525, 6.063e-6
-1.526, 6.076e-6
-1.527, 6.083e-6
-1.528, 6.087e-6
-1.529, 6.094e-6
-1.530, 6.103e-6
-1.531, 6.116e-6
-1.532, 6.125e-6
-1.533, 6.129e-6
-1.534, 6.135e-6
-1.535, 6.144e-6
-1.536, 6.160e-6
-1.537, 6.169e-6
-1.538, 6.172e-6
-1.539, 6.179e-6
-1.540, 6.189e-6
-1.541, 6.201e-6
-1.542, 6.211e-6
-1.543, 6.215e-6
-1.544, 6.223e-6
-1.545, 6.235e-6
-1.546, 6.247e-6
-1.547, 6.257e-6
-1.548, 6.263e-6
-1.549, 6.271e-6
-1.550, 6.283e-6
-1.551, 6.297e-6
-1.552, 6.309e-6
-1.553, 6.315e-6
-1.554, 6.322e-6
-1.555, 6.336e-6
-1.556, 6.351e-6
-1.557, 6.362e-6
-1.558, 6.371e-6
-1.559, 6.379e-6
-1.560, 6.391e-6
-1.561, 6.408e-6
-1.562, 6.419e-6
-1.563, 6.428e-6
-1.564, 6.435e-6
-1.565, 6.448e-6
-1.566, 6.465e-6
-1.567, 6.477e-6
-1.568, 6.485e-6
-1.569, 6.496e-6
-1.570, 6.508e-6
-1.571, 6.526e-6
-1.572, 6.538e-6
-1.573, 6.547e-6
-1.574, 6.559e-6
-1.575, 6.574e-6
-1.576, 6.592e-6
-1.577, 6.604e-6
-1.578, 6.612e-6
-1.579, 6.623e-6
-1.580, 6.639e-6
-1.581, 6.658e-6
-1.582, 6.672e-6
-1.583, 6.681e-6
-1.584, 6.693e-6
-1.585, 6.708e-6
-1.586, 6.726e-6
-1.587, 6.744e-6
-1.588, 6.757e-6
-1.589, 6.764e-6
-1.590, 6.781e-6
-1.591, 6.802e-6
-1.592, 6.816e-6
-1.593, 6.827e-6
-1.594, 6.839e-6
-1.595, 6.856e-6
-1.596, 6.876e-6
-1.597, 6.890e-6
-1.598, 6.903e-6
-1.599, 6.915e-6
-1.600, 6.934e-6
-1.601, 6.956e-6
-1.602, 6.970e-6
-1.603, 6.983e-6
-1.604, 6.996e-6
-1.605, 7.014e-6
-1.606, 7.037e-6
-1.607, 7.053e-6
-1.608, 7.066e-6
-1.609, 7.080e-6
-1.610, 7.099e-6
-1.611, 7.122e-6
-1.612, 7.140e-6
-1.613, 7.156e-6
-1.614, 7.169e-6
-1.615, 7.187e-6
-1.616, 7.211e-6
-1.617, 7.230e-6
-1.618, 7.242e-6
-1.619, 7.258e-6
-1.620, 7.279e-6
-1.621, 7.301e-6
-1.622, 7.321e-6
-1.623, 7.335e-6
-1.624, 7.352e-6
-1.625, 7.372e-6
-1.626, 7.396e-6
-1.627, 7.417e-6
-1.628, 7.433e-6
-1.629, 7.449e-6
-1.630, 7.472e-6
-1.631, 7.497e-6
-1.632, 7.518e-6
-1.633, 7.536e-6
-1.634, 7.550e-6
-1.635, 7.575e-6
-1.636, 7.601e-6
-1.637, 7.622e-6
-1.638, 7.644e-6
-1.639, 7.670e-6
-1.640, 7.689e-6
-1.641, 7.716e-6
-1.642, 7.738e-6
-1.643, 7.758e-6
-1.644, 7.777e-6
-1.645, 7.800e-6
-1.646, 7.831e-6
-1.647, 7.851e-6
-1.648, 7.873e-6
-1.649, 7.894e-6
-1.650, 7.918e-6
-1.651, 7.950e-6
-1.652, 7.976e-6
-1.653, 7.994e-6
-1.654, 8.016e-6
-1.655, 8.041e-6
-1.656, 8.073e-6
-1.657, 8.100e-6
-1.658, 8.120e-6
-1.659, 8.144e-6
-1.660, 8.171e-6
-1.661, 8.205e-6
-1.662, 8.237e-6
-1.663, 8.258e-6
-1.664, 8.283e-6
-1.665, 8.318e-6
-1.666, 8.347e-6
-1.667, 8.375e-6
-1.668, 8.398e-6
-1.669, 8.423e-6
-1.670, 8.456e-6
-1.671, 8.490e-6
-1.672, 8.522e-6
-1.673, 8.547e-6
-1.674, 8.573e-6
-1.675, 8.604e-6
-1.676, 8.640e-6
-1.677, 8.672e-6
-1.678, 8.701e-6
-1.679, 8.726e-6
-1.680, 8.762e-6
-1.681, 8.803e-6
-1.682, 8.834e-6
-1.683, 8.864e-6
-1.684, 8.894e-6
-1.685, 8.931e-6
-1.686, 8.972e-6
-1.687, 9.007e-6
-1.688, 9.038e-6
-1.689, 9.073e-6
-1.690, 9.113e-6
-1.691, 9.154e-6
-1.692, 9.194e-6
-1.693, 9.226e-6
-1.694, 9.262e-6
-1.695, 9.302e-6
-1.696, 9.348e-6
-1.697, 9.387e-6
-1.698, 9.423e-6
-1.699, 9.460e-6
-1.700, 9.503e-6
-1.701, 9.550e-6
-1.702, 9.598e-6
-1.703, 9.635e-6
-1.704, 9.675e-6
-1.705, 9.724e-6
-1.706, 9.774e-6
-1.707, 9.825e-6
-1.708, 9.864e-6
-1.709, 9.908e-6
-1.710, 9.961e-6
-1.711, 1.002e-5
-1.712, 1.006e-5
-1.713, 1.011e-5
-1.714, 1.016e-5
-1.715, 1.021e-5
-1.716, 1.027e-5
-1.717, 1.033e-5
-1.718, 1.038e-5
-1.719, 1.043e-5
-1.720, 1.049e-5
-1.721, 1.056e-5
-1.722, 1.062e-5
-1.723, 1.067e-5
-1.724, 1.073e-5
-1.725, 1.079e-5
-1.726, 1.087e-5
-1.727, 1.093e-5
-1.728, 1.099e-5
-1.729, 1.106e-5
-1.730, 1.113e-5
-1.731, 1.121e-5
-1.732, 1.128e-5
-1.733, 1.135e-5
-1.734, 1.142e-5
-1.735, 1.150e-5
-1.736, 1.158e-5
-1.737, 1.167e-5
-1.738, 1.174e-5
-1.739, 1.182e-5
-1.740, 1.191e-5
-1.741, 1.200e-5
-1.742, 1.208e-5
-1.743, 1.216e-5
-1.744, 1.225e-5
-1.745, 1.235e-5
-1.746, 1.245e-5
-1.747, 1.255e-5
-1.748, 1.265e-5
-1.749, 1.274e-5
-1.750, 1.285e-5
-1.751, 1.296e-5
-1.752, 1.308e-5
-1.753, 1.319e-5
-1.754, 1.330e-5
-1.755, 1.342e-5
-1.756, 1.355e-5
-1.757, 1.368e-5
-1.758, 1.380e-5
-1.759, 1.392e-5
-1.760, 1.406e-5
-1.761, 1.420e-5
-1.762, 1.434e-5
-1.763, 1.448e-5
-1.764, 1.463e-5
-1.765, 1.478e-5
-1.766, 1.494e-5
-1.767, 1.510e-5
-1.768, 1.526e-5
-1.769, 1.543e-5
-1.770, 1.560e-5
-1.771, 1.578e-5
-1.772, 1.597e-5
-1.773, 1.616e-5
-1.774, 1.635e-5
-1.775, 1.654e-5
-1.776, 1.675e-5
-1.777, 1.696e-5
-1.778, 1.717e-5
-1.779, 1.738e-5
-1.780, 1.761e-5
-1.781, 1.785e-5
-1.782, 1.809e-5
-1.783, 1.832e-5
-1.784, 1.857e-5
-1.785, 1.883e-5
-1.786, 1.910e-5
-1.787, 1.938e-5
-1.788, 1.965e-5
-1.789, 1.993e-5
-1.790, 2.022e-5
-1.791, 2.053e-5
-1.792, 2.085e-5
-1.793, 2.117e-5
-1.794, 2.150e-5
-1.795, 2.184e-5
-1.796, 2.219e-5
-1.797, 2.255e-5
-1.798, 2.292e-5
-1.799, 2.328e-5
-1.800, 2.367e-5
-1.801, 2.408e-5
-1.802, 2.450e-5
-1.803, 2.492e-5
-1.804, 2.534e-5
-1.805, 2.579e-5
-1.806, 2.626e-5
-1.807, 2.673e-5
-1.808, 2.721e-5
-1.809, 2.770e-5
-1.810, 2.820e-5
-1.811, 2.874e-5
-1.812, 2.929e-5
-1.813, 2.983e-5
-1.814, 3.040e-5
-1.815, 3.099e-5
-1.816, 3.159e-5
-1.817, 3.221e-5
-1.818, 3.284e-5
-1.819, 3.347e-5
-1.820, 3.415e-5
-1.821, 3.484e-5
-1.822, 3.555e-5
-1.823, 3.627e-5
-1.824, 3.702e-5
-1.825, 3.779e-5
-1.826, 3.858e-5
-1.827, 3.939e-5
-1.828, 4.022e-5
-1.829, 4.105e-5
-1.830, 4.193e-5
-1.831, 4.284e-5
-1.832, 4.374e-5
-1.833, 4.467e-5
-1.834, 4.562e-5
-1.835, 4.660e-5
-1.836, 4.764e-5
-1.837, 4.870e-5
-1.838, 4.975e-5
-1.839, 5.084e-5
-1.840, 5.195e-5
-1.841, 5.311e-5
-1.842, 5.430e-5
-1.843, 5.551e-5
-1.844, 5.674e-5
-1.845, 5.801e-5
-1.846, 5.931e-5
-1.847, 6.064e-5
-1.848, 6.199e-5
-1.849, 6.339e-5
-1.850, 6.482e-5
-1.851, 6.629e-5
-1.852, 6.780e-5
-1.853, 6.934e-5
-1.854, 7.090e-5
-1.855, 7.251e-5
-1.856, 7.418e-5
-1.857, 7.585e-5
-1.858, 7.755e-5
-1.859, 7.931e-5
-1.860, 8.111e-5
-1.861, 8.296e-5
-1.862, 8.485e-5
-1.863, 8.678e-5
-1.864, 8.877e-5
-1.865, 9.079e-5
-1.866, 9.285e-5
-1.867, 9.497e-5
-1.868, 9.713e-5
-1.869, 9.930e-5
-1.870, 1.015e-4
-1.871, 1.038e-4
-1.872, 1.062e-4
-1.873, 1.085e-4
-1.874, 1.109e-4
-1.875, 1.134e-4
-1.876, 1.159e-4
-1.877, 1.185e-4
-1.878, 1.212e-4
-1.879, 1.239e-4
-1.880, 1.266e-4
-1.881, 1.294e-4
-1.882, 1.322e-4
-1.883, 1.351e-4
-1.884, 1.381e-4
-1.885, 1.410e-4
-1.886, 1.441e-4
-1.887, 1.472e-4
-1.888, 1.503e-4
-1.889, 1.535e-4
-1.890, 1.567e-4
-1.891, 1.600e-4
-1.892, 1.634e-4
-1.893, 1.668e-4
-1.894, 1.702e-4
-1.895, 1.737e-4
-1.896, 1.772e-4
-1.897, 1.807e-4
-1.898, 1.843e-4
-1.899, 1.879e-4
-1.900, 1.916e-4
-1.901, 1.952e-4
-1.902, 1.990e-4
-1.903, 2.027e-4
-1.904, 2.064e-4
-1.905, 2.101e-4
-1.906, 2.139e-4
-1.907, 2.177e-4
-1.908, 2.215e-4
-1.909, 2.253e-4
-1.910, 2.291e-4
-1.911, 2.329e-4
-1.912, 2.367e-4
-1.913, 2.404e-4
-1.914, 2.441e-4
-1.915, 2.478e-4
-1.916, 2.515e-4
-1.917, 2.551e-4
-1.918, 2.587e-4
-1.919, 2.623e-4
-1.920, 2.658e-4
-1.921, 2.694e-4
-1.922, 2.729e-4
-1.923, 2.765e-4
-1.924, 2.800e-4
-1.925, 2.836e-4
-1.926, 2.872e-4
-1.927, 2.909e-4
-1.928, 2.945e-4
-1.929, 2.982e-4
-1.930, 3.019e-4
-1.931, 3.056e-4
-1.932, 3.095e-4
-1.933, 3.133e-4
-1.934, 3.171e-4
-1.935, 3.210e-4
-1.936, 3.250e-4
-1.937, 3.290e-4
-1.938, 3.330e-4
-1.939, 3.371e-4
-1.940, 3.412e-4
-1.941, 3.454e-4
-1.942, 3.497e-4
-1.943, 3.539e-4
-1.944, 3.582e-4
-1.945, 3.625e-4
-1.946, 3.670e-4
-1.947, 3.714e-4
-1.948, 3.759e-4
-1.949, 3.804e-4
-1.950, 3.849e-4
-1.951, 3.896e-4
-1.952, 3.943e-4
-1.953, 3.990e-4
-1.954, 4.037e-4
-1.955, 4.085e-4
-1.956, 4.133e-4
-1.957, 4.182e-4
-1.958, 4.231e-4
-1.959, 4.281e-4
-1.960, 4.331e-4
-1.961, 4.382e-4
-1.962, 4.432e-4
-1.963, 4.484e-4
-1.964, 4.535e-4
-1.965, 4.587e-4
-1.966, 4.640e-4
-1.967, 4.693e-4
-1.968, 4.746e-4
-1.969, 4.800e-4
-1.970, 4.855e-4
-1.971, 4.909e-4
-1.972, 4.964e-4
-1.973, 5.020e-4
-1.974, 5.076e-4
-1.975, 5.132e-4
-1.976, 5.189e-4
-1.977, 5.247e-4
-1.978, 5.305e-4
-1.979, 5.364e-4
-1.980, 5.422e-4
-1.981, 5.482e-4
-1.982, 5.542e-4
-1.983, 5.602e-4
-1.984, 5.663e-4
-1.985, 5.723e-4
-1.986, 5.785e-4
-1.987, 5.847e-4
-1.988, 5.910e-4
-1.989, 5.973e-4
-1.990, 6.036e-4
-1.991, 6.099e-4
-1.992, 6.164e-4
-1.993, 6.228e-4
-1.994, 6.294e-4
-1.995, 6.360e-4
-1.996, 6.425e-4
-1.997, 6.489e-4
-1.998, 6.555e-4
-1.999, 6.621e-4
-2.000, 6.688e-4
-2.001, 6.755e-4
-2.002, 6.823e-4
-2.003, 6.892e-4
-2.004, 6.960e-4
-2.005, 7.030e-4
-2.006, 7.099e-4
-2.007, 7.169e-4
-2.008, 7.240e-4
-2.009, 7.312e-4
-2.010, 7.384e-4
-2.011, 7.456e-4
-2.012, 7.529e-4
-2.013, 7.602e-4
-2.014, 7.674e-4
-2.015, 7.747e-4
-2.016, 7.822e-4
-2.017, 7.897e-4
-2.018, 7.972e-4
-2.019, 8.048e-4
-2.020, 8.123e-4
-2.021, 8.200e-4
-2.022, 8.277e-4
-2.023, 8.354e-4
-2.024, 8.432e-4
-2.025, 8.510e-4
-2.026, 8.588e-4
-2.027, 8.667e-4
-2.028, 8.747e-4
-2.029, 8.825e-4
-2.030, 8.904e-4
-2.031, 8.983e-4
-2.032, 9.064e-4
-2.033, 9.145e-4
-2.034, 9.227e-4
-2.035, 9.309e-4
-2.036, 9.392e-4
-2.037, 9.474e-4
-2.038, 9.556e-4
-2.039, 9.638e-4
-2.040, 9.722e-4
-2.041, 9.806e-4
-2.042, 9.890e-4
-2.043, 9.975e-4
-2.044, 1.006e-3
-2.045, 1.011e-3
-2.046, 1.011e-3
-2.047, 1.011e-3
-2.048, 1.011e-3
-2.049, 1.011e-3
-2.050, 1.011e-3
-2.051, 1.011e-3
-2.052, 1.011e-3
-2.053, 1.011e-3
-2.054, 1.011e-3
-2.055, 1.011e-3
-2.056, 1.011e-3
-2.057, 1.011e-3
-2.058, 1.011e-3
-2.059, 1.011e-3
-2.060, 1.011e-3
-2.061, 1.011e-3
-2.062, 1.011e-3
-2.063, 1.011e-3
-2.064, 1.011e-3
-2.065, 1.011e-3
-2.066, 1.011e-3
-2.067, 1.011e-3
-2.068, 1.011e-3
-2.069, 1.011e-3
-2.070, 1.011e-3
-2.071, 1.011e-3
-2.072, 1.011e-3
-2.073, 1.011e-3
-2.074, 1.011e-3
-2.075, 1.011e-3
-2.076, 1.011e-3
-2.077, 1.011e-3
-2.078, 1.011e-3
-2.079, 1.011e-3
-2.080, 1.011e-3
-2.081, 1.011e-3
-2.082, 1.011e-3
-2.083, 1.011e-3
-2.084, 1.011e-3
-2.085, 1.011e-3
-2.086, 1.011e-3
-2.087, 1.011e-3
-2.088, 1.011e-3
-2.089, 1.011e-3
-2.090, 1.011e-3
-2.091, 1.011e-3
-2.092, 1.011e-3
-2.093, 1.011e-3
-2.094, 1.011e-3
-2.095, 1.011e-3
-2.096, 1.011e-3
-2.097, 1.011e-3
-2.098, 1.011e-3
-2.099, 1.011e-3
-2.100, 1.011e-3
-2.101, 1.011e-3
-2.102, 1.011e-3
-2.103, 1.011e-3
-2.104, 1.011e-3
-2.105, 1.011e-3
-2.106, 1.011e-3
-2.107, 1.011e-3
-2.108, 1.011e-3
-2.109, 1.011e-3
-2.110, 1.011e-3
-2.111, 1.011e-3
-2.112, 1.011e-3
-2.113, 1.011e-3
-2.114, 1.011e-3
-2.115, 1.011e-3
-2.116, 1.011e-3
-2.117, 1.011e-3
-2.118, 1.011e-3
-2.119, 1.011e-3
-2.120, 1.011e-3
-2.121, 1.011e-3
-2.122, 1.011e-3
-2.123, 1.011e-3
-2.124, 1.011e-3
-2.125, 1.011e-3
-2.126, 1.011e-3
-2.127, 1.011e-3
-2.128, 1.011e-3
-2.129, 1.011e-3
-2.130, 1.011e-3
-2.131, 1.011e-3
-2.132, 1.011e-3
-2.133, 1.011e-3
-2.134, 1.011e-3
-2.135, 1.011e-3
-2.136, 1.011e-3
-2.137, 1.011e-3
-2.138, 1.011e-3
-2.139, 1.011e-3
-2.140, 1.011e-3
-2.141, 1.011e-3
-2.142, 1.011e-3
-2.143, 1.011e-3
-2.144, 1.011e-3
-2.145, 1.011e-3
-2.146, 1.011e-3
-2.147, 1.011e-3
-2.148, 1.011e-3
-2.149, 1.011e-3
-2.150, 1.011e-3
-2.151, 1.011e-3
-2.152, 1.011e-3
-2.153, 1.011e-3
-2.154, 1.011e-3
-2.155, 1.011e-3
-2.156, 1.011e-3
-2.157, 1.011e-3
-2.158, 1.011e-3
-2.159, 1.011e-3
-2.160, 1.011e-3
-2.161, 1.011e-3
-2.162, 1.011e-3
-2.163, 1.011e-3
-2.164, 1.011e-3
-2.165, 1.011e-3
-2.166, 1.011e-3
-2.167, 1.011e-3
-2.168, 1.011e-3
-2.169, 1.011e-3
-2.170, 1.011e-3
-2.171, 1.011e-3
-2.172, 1.011e-3
-2.173, 1.011e-3
-2.174, 1.011e-3
-2.175, 1.011e-3
-2.176, 1.011e-3
-2.177, 1.011e-3
-2.178, 1.011e-3
-2.179, 1.011e-3
-2.180, 1.011e-3
-2.181, 1.011e-3
-2.182, 1.011e-3
-2.183, 1.011e-3
-2.184, 1.011e-3
-2.185, 1.011e-3
-2.186, 1.011e-3
-2.187, 1.011e-3
-2.188, 1.011e-3
-2.189, 1.011e-3
-2.190, 1.011e-3
-2.191, 1.011e-3
-2.192, 1.011e-3
-2.193, 1.011e-3
-2.194, 1.011e-3
-2.195, 1.011e-3
-2.196, 1.011e-3
-2.197, 1.011e-3
-2.198, 1.011e-3
-2.199, 1.011e-3
-2.200, 1.011e-3
-2.201, 1.011e-3
-2.202, 1.011e-3
-2.203, 1.011e-3
-2.204, 1.011e-3
-2.205, 1.011e-3
-2.206, 1.011e-3
-2.207, 1.011e-3
-2.208, 1.011e-3
-2.209, 1.011e-3
-2.210, 1.011e-3
-2.211, 1.011e-3
-2.212, 1.011e-3
-2.213, 1.011e-3
-2.214, 1.011e-3
-2.215, 1.011e-3
-2.216, 1.011e-3
-2.217, 1.011e-3
-2.218, 1.011e-3
-2.219, 1.011e-3
-2.220, 1.011e-3
-2.221, 1.011e-3
-2.222, 1.011e-3
-2.223, 1.011e-3
-2.224, 1.011e-3
-2.225, 1.011e-3
-2.226, 1.011e-3
-2.227, 1.011e-3
-2.228, 1.011e-3
-2.229, 1.011e-3
-2.230, 1.011e-3
-2.231, 1.011e-3
-2.232, 1.011e-3
-2.233, 1.011e-3
-2.234, 1.011e-3
-2.235, 1.011e-3
-2.236, 1.011e-3
-2.237, 1.011e-3
-2.238, 1.011e-3
-2.239, 1.011e-3
-2.240, 1.011e-3
-2.241, 1.011e-3
-2.242, 1.011e-3
-2.243, 1.011e-3
-2.244, 1.011e-3
-2.245, 1.011e-3
-2.246, 1.011e-3
-2.247, 1.011e-3
-2.248, 1.011e-3
-2.249, 1.011e-3
-2.250, 1.011e-3
-2.251, 1.011e-3
-2.252, 1.011e-3
-2.253, 1.011e-3
-2.254, 1.011e-3
-2.255, 1.011e-3
-2.256, 1.011e-3
-2.257, 1.011e-3
-2.258, 1.011e-3
-2.259, 1.011e-3
-2.260, 1.011e-3
-2.261, 1.011e-3
-2.262, 1.011e-3
-2.263, 1.011e-3
-2.264, 1.011e-3
-2.265, 1.011e-3
-2.266, 1.011e-3
-2.267, 1.011e-3
-2.268, 1.011e-3
-2.269, 1.011e-3
-2.270, 1.011e-3
-2.271, 1.011e-3
-2.272, 1.011e-3
-2.273, 1.011e-3
-2.274, 1.011e-3
-2.275, 1.011e-3
-2.276, 1.011e-3
-2.277, 1.011e-3
-2.278, 1.011e-3
-2.279, 1.011e-3
-2.280, 1.011e-3
-2.281, 1.011e-3
-2.282, 1.011e-3
-2.283, 1.011e-3
-2.284, 1.011e-3
-2.285, 1.011e-3
-2.286, 1.011e-3
-2.287, 1.011e-3
-2.288, 1.011e-3
-2.289, 1.011e-3
-2.290, 1.011e-3
-2.291, 1.011e-3
-2.292, 1.011e-3
-2.293, 1.011e-3
-2.294, 1.011e-3
-2.295, 1.011e-3
-2.296, 1.011e-3
-2.297, 1.011e-3
-2.298, 1.011e-3
-2.299, 1.011e-3
