Potential V vs RHE, Current mA cm-2
0.013299999999999867,-0.014189554337646317
0.012299999999999978,-0.039145061667265564
0.011299999999999866,-0.05237261232100365
0.010299999999999976,-0.06373274405891989
0.009299999999999864,-0.07233418876209932
0.008299999999999974,-0.07756862057159995
0.007299999999999862,-0.08004436534636378
0.006299999999999972,-0.08424605790696293
0.00529999999999986,-0.09006052134940823
0.0042999999999999705,-0.09458759750897636
0.0032999999999998586,-0.09669551734577525
0.0022999999999999687,-0.09720481341372668
0.0012999999999998568,-0.0999069119964689
0.00029999999999996696,-0.1040378689920748
-0.000700000000000145,-0.10717852807777517
-0.0017000000000000348,-0.10798491351869824
-0.0027000000000001467,-0.10846591536065237
-0.0037000000000000366,-0.1097957439825255
-0.0047000000000001485,-0.11320519821520024
-0.005700000000000038,-0.11613365060592087
-0.00670000000000015,-0.11637415152689792
-0.00770000000000004,-0.11603462081493031
-0.008700000000000152,-0.11712394851582639
-0.009700000000000042,-0.12050510852250383
-0.010700000000000154,-0.12317891287924874
-0.011700000000000044,-0.12336282534823118
-0.012700000000000156,-0.12264132258530001
-0.013700000000000045,-0.12340526668722714
-0.014700000000000157,-0.12653177865992887
-0.015700000000000047,-0.12880946385271158
-0.01670000000000016,-0.12834260912375614
-0.01770000000000005,-0.12767769481281957
-0.01870000000000016,-0.12848408025374264
-0.01970000000000005,-0.1308042067855213
-0.020700000000000163,-0.13370436495024463
-0.021700000000000053,-0.13323751022128916
-0.022700000000000164,-0.13224721231138362
-0.023700000000000054,-0.1330535977523067
-0.024700000000000166,-0.13562837231806107
-0.025700000000000056,-0.1382172939968141
-0.026700000000000168,-0.13721284897390992
-0.027700000000000058,-0.13647719909798006
-0.02870000000000017,-0.13731187876490047
-0.02970000000000006,-0.13983006487866023
-0.03070000000000017,-0.1421784856364362
-0.03170000000000006,-0.14113159927453606
-0.03270000000000017,-0.1403535080596103
-0.03370000000000006,-0.14175407224647668
-0.034700000000000175,-0.1437346680662877
-0.035700000000000065,-0.14599820614607179
-0.03670000000000018,-0.14500790823616627
-0.03770000000000007,-0.14415908145624726
-0.03870000000000018,-0.14500790823616627
-0.03970000000000007,-0.14741291744593682
-0.04070000000000018,-0.14939351326574787
-0.04170000000000007,-0.14882762874580185
-0.04270000000000018,-0.14769585970590982
-0.04370000000000007,-0.14854468648582883
-0.044700000000000184,-0.1508082245656129
-0.045700000000000074,-0.15250587812545094
-0.046700000000000186,-0.15236440699546444
-0.047700000000000076,-0.1509496956955994
-0.04870000000000019,-0.15236440699546444
-0.04970000000000008,-0.15476941620523502
-0.05070000000000019,-0.15646706976507307
-0.05170000000000008,-0.1551938295951945
-0.05270000000000019,-0.1543450028152755
-0.05370000000000008,-0.1551938295951945
-0.05470000000000019,-0.15774030993495158
-0.05570000000000008,-0.15986237688474914
-0.056700000000000195,-0.1585891367148706
-0.057700000000000085,-0.1583061944548976
-0.058700000000000196,-0.1585891367148706
-0.059700000000000086,-0.16127708818461417
-0.0607000000000002,-0.16311621287443873
-0.06170000000000009,-0.1622673860945197
-0.0627000000000002,-0.16127708818461417
-0.06370000000000009,-0.1625503283544927
-0.0647000000000002,-0.16467239530429026
-0.06570000000000009,-0.16651151999411481
-0.0667000000000002,-0.16523827982423628
-0.0677000000000001,-0.16438945304431726
-0.0687000000000002,-0.1656626932141958
-0.0697000000000001,-0.16778476016399335
-0.07070000000000021,-0.1694824137238314
-0.0717000000000001,-0.16820917355395287
-0.07270000000000021,-0.16778476016399335
-0.0737000000000001,-0.16905800033387192
-0.07470000000000021,-0.17103859615368294
-0.0757000000000001,-0.172736249713521
-0.07670000000000021,-0.17174595180361546
-0.0777000000000001,-0.17089712502369644
-0.07870000000000021,-0.17202889406358848
-0.0797000000000001,-0.17457537440334553
-0.08070000000000022,-0.17599008570321056
-0.0817000000000001,-0.17514125892329155
-0.08270000000000022,-0.17415096101338604
-0.08370000000000011,-0.17514125892329155
-0.08470000000000022,-0.17768773926304862
-0.08570000000000011,-0.17896097943292713
-0.08670000000000022,-0.1782536237829946
-0.08770000000000011,-0.17754626813306212
-0.08870000000000022,-0.17881950830294063
-0.08970000000000011,-0.1808001041227517
-0.09070000000000022,-0.18193187316264373
-0.09170000000000011,-0.18150745977268423
-0.09270000000000023,-0.1806586329927652
-0.09370000000000012,-0.18150745977268423
-0.09470000000000023,-0.18391246898245475
-0.09570000000000012,-0.1844783535024008
-0.09670000000000023,-0.18391246898245475
-0.09770000000000012,-0.18334658446250876
-0.09870000000000023,-0.1844783535024008
-0.09970000000000012,-0.18688336271217135
-0.10070000000000023,-0.18801513175206336
-0.10170000000000012,-0.18702483384215784
-0.10270000000000024,-0.18645894932221183
-0.10370000000000013,-0.18716630497214437
-0.10470000000000024,-0.18971278531190142
-0.10570000000000013,-0.19098602548177993
-0.10670000000000024,-0.19013719870186094
-0.10770000000000013,-0.18928837192194192
-0.10870000000000024,-0.19027866983184744
-0.10970000000000013,-0.19254220791163149
-0.11070000000000024,-0.1936739769515235
-0.11170000000000013,-0.19254220791163149
-0.11270000000000002,-0.19155191000172597
-0.11370000000000013,-0.1933910346915505
-0.11470000000000002,-0.19523015938137506
-0.11570000000000014,-0.19622045729128057
-0.11670000000000003,-0.19593751503130757
-0.11770000000000014,-0.19466427486142904
-0.11870000000000003,-0.19579604390132105
-0.11970000000000014,-0.19791811085111863
-0.12070000000000003,-0.19919135102099716
-0.12170000000000014,-0.19834252424107812
-0.12270000000000003,-0.1973522263311726
-0.12370000000000014,-0.19820105311109162
-0.12470000000000003,-0.2007475334508487
-0.12570000000000014,-0.20159636023076774
-0.12670000000000003,-0.2007475334508487
-0.12770000000000015,-0.19989870667092968
-0.12870000000000004,-0.20060606232086217
-0.12970000000000015,-0.20315254266061927
-0.13070000000000004,-0.2035769560505788
-0.13170000000000015,-0.20301107153063278
-0.13270000000000004,-0.20244518701068673
-0.13370000000000015,-0.20329401379060577
-0.13470000000000004,-0.20569902300037635
-0.13570000000000015,-0.20598196526034934
-0.13670000000000004,-0.20527460961041682
-0.13770000000000016,-0.20428431170051128
-0.13870000000000005,-0.20541608074040332
-0.13970000000000016,-0.2075381476902009
-0.14070000000000005,-0.20838697447011992
-0.14170000000000016,-0.2073966765602144
-0.14270000000000005,-0.2065478497802954
-0.14370000000000016,-0.20725520543022788
-0.14470000000000005,-0.20966021463999845
-0.14570000000000016,-0.21050904141991747
-0.14670000000000005,-0.20909433012005244
-0.14770000000000016,-0.20852844560010642
-0.14870000000000005,-0.20923580125003893
-0.14970000000000017,-0.211782281589796
-0.15070000000000006,-0.212065223849769
-0.15170000000000017,-0.21135786819983648
-0.15270000000000006,-0.21008462802995795
-0.15370000000000017,-0.21121639706985
-0.15470000000000006,-0.21333846401964754
-0.15570000000000017,-0.21362140627962053
-0.15670000000000006,-0.21305552175967452
-0.15770000000000017,-0.2116408104598095
-0.15870000000000006,-0.21305552175967452
-0.15970000000000018,-0.2151775887094721
-0.16070000000000007,-0.2153190598394586
-0.16170000000000018,-0.21489464644949907
-0.16270000000000007,-0.21347993514963404
-0.16370000000000018,-0.21489464644949907
-0.16470000000000007,-0.21715818452928315
-0.16570000000000018,-0.21715818452928315
-0.16670000000000007,-0.2160264154893911
-0.16770000000000018,-0.2151775887094721
-0.16870000000000007,-0.21630935774936413
-0.16970000000000018,-0.21843142469916169
-0.17070000000000007,-0.21857289582914816
-0.17170000000000019,-0.21758259791924262
-0.17270000000000008,-0.21687524226931013
-0.1737000000000002,-0.21729965565926962
-0.17470000000000008,-0.2198461359990267
-0.1757000000000002,-0.2204120205189727
-0.17670000000000008,-0.2189973092191077
-0.1777000000000002,-0.21828995356917516
-0.17870000000000008,-0.2189973092191077
-0.1797000000000002,-0.22097790503891873
-0.18070000000000008,-0.22168526068885125
-0.1817000000000002,-0.22055349164895924
-0.18270000000000008,-0.21970466486904017
-0.1837000000000002,-0.22111937616890526
-0.1847000000000001,-0.22267555859875673
-0.1857000000000002,-0.22338291424868928
-0.1867000000000001,-0.22196820294882427
-0.1877000000000002,-0.22111937616890526
-0.1887000000000001,-0.22225114520879727
-0.1897000000000002,-0.2245146832885813
-0.1907000000000001,-0.22493909667854084
-0.1917000000000001,-0.2235243853786758
-0.19269999999999998,-0.2229585008587298
-0.1937000000000001,-0.22409026989862182
-0.19469999999999998,-0.22592939458844638
-0.1957000000000001,-0.22635380797840585
-0.19669999999999999,-0.22536351006850036
-0.1977000000000001,-0.22493909667854084
-0.1987,-0.22578792345845985
-0.1997000000000001,-0.2279099904082574
-0.2007,-0.2281929326682304
-0.2017000000000001,-0.22748557701829786
-0.2027,-0.22649527910839237
-0.2037000000000001,-0.22776851927827088
-0.2047,-0.22989058622806843
-0.2057000000000001,-0.23031499961802795
-0.2067,-0.22946617283810894
-0.2077000000000001,-0.22833440379821693
-0.2087,-0.23031499961802795
-0.2097000000000001,-0.232578537697812
-0.2107,-0.23243706656782553
-0.2117000000000001,-0.23158823978790652
-0.2127,-0.23116382639794697
-0.2137000000000001,-0.23272000882779853
-0.2147,-0.2354079602975421
-0.2157000000000001,-0.23625678707746112
-0.2167,-0.2345591335176231
-0.21770000000000012,-0.23399324899767707
-0.2187,-0.2354079602975421
-0.21970000000000012,-0.23781296950731265
-0.2207,-0.2382373828972722
-0.22170000000000012,-0.23724708498736666
-0.2227,-0.23668120046742064
-0.22370000000000012,-0.2386617962872317
-0.2247,-0.24064239210704275
-0.22570000000000012,-0.24149121888696176
-0.2267,-0.24064239210704275
-0.22770000000000012,-0.2397935653271237
-0.22870000000000001,-0.24191563227692126
-0.22970000000000013,-0.24389622809673234
-0.23070000000000002,-0.24446211261667833
-0.23170000000000013,-0.24361328583675934
-0.23270000000000002,-0.24304740131681332
-0.23370000000000013,-0.24545241052658387
-0.23470000000000002,-0.24729153521640837
-0.23570000000000013,-0.2482818331263139
-0.23670000000000002,-0.24729153521640837
-0.2376999999999999,-0.2468671218264489
-0.23870000000000002,-0.24913065990623293
-0.2396999999999999,-0.2512527268560305
-0.24070000000000003,-0.25167714024599
-0.24169999999999991,-0.250828313466071
-0.24270000000000003,-0.25096978459605745
-0.24369999999999992,-0.25309185154585506
-0.24470000000000003,-0.25563833188561214
-0.24569999999999992,-0.25592127414558513
-0.24670000000000003,-0.25507244736566614
-0.24769999999999992,-0.2547895051056931
-0.24870000000000003,-0.25705304318547717
-0.24969999999999992,-0.25959952352523424
-0.25070000000000003,-0.25974099465522077
-0.2516999999999999,-0.25988246578520724
-0.25270000000000004,-0.25974099465522077
-0.2536999999999999,-0.2622874749949778
-0.25470000000000004,-0.26440954194477534
-0.2556999999999999,-0.2653998398546809
-0.25670000000000004,-0.26455101307476186
-0.25769999999999993,-0.26440954194477534
-0.25870000000000004,-0.26738043567449193
-0.25969999999999993,-0.2695025026242895
-0.26070000000000004,-0.27049280053419505
-0.26169999999999993,-0.269643973754276
-0.26270000000000004,-0.2700683871442355
-0.26369999999999993,-0.2724733963540061
-0.26470000000000005,-0.27530281895373615
-0.26569999999999994,-0.27615164573365514
-0.26670000000000005,-0.27615164573365514
-0.26769999999999994,-0.27601017460366867
-0.26870000000000005,-0.27898106833338526
-0.26969999999999994,-0.2815275486731423
-0.27070000000000005,-0.28251784658304785
-0.27169999999999994,-0.2820934331930883
-0.27270000000000005,-0.28251784658304785
-0.27369999999999994,-0.2856302114427509
-0.27470000000000006,-0.2883181629124945
-0.27569999999999995,-0.2888840474324405
-0.27670000000000006,-0.28930846082239997
-0.27769999999999995,-0.28959140308237297
-0.27870000000000006,-0.2929867102020491
-0.27969999999999995,-0.2955331905418062
-0.28070000000000006,-0.2966649595816982
-0.28169999999999995,-0.2969479018416712
-0.28270000000000006,-0.2973723152316307
-0.28369999999999995,-0.3009090934812933
-0.28470000000000006,-0.3035970449510369
-0.28569999999999995,-0.3047288139909289
-0.28670000000000007,-0.30487028512091535
-0.28769999999999996,-0.3061435252907939
-0.28870000000000007,-0.30897294789052404
-0.28969999999999996,-0.3125097261401866
-0.29070000000000007,-0.31378296631006514
-0.29169999999999996,-0.31434885083001113
-0.29270000000000007,-0.3156220909998897
-0.29369999999999996,-0.3188759269895793
-0.2947000000000001,-0.3221297629792688
-0.29569999999999996,-0.3236859454091204
-0.2967000000000001,-0.3236859454091204
-0.29769999999999996,-0.3256665412289314
-0.2987000000000001,-0.3287789060886345
-0.29969999999999997,-0.3320327420783241
-0.3007000000000001,-0.3340133378981352
-0.30169999999999997,-0.3345792224180812
-0.3027000000000001,-0.33613540484793275
-0.30369999999999997,-0.3396721830975953
-0.3047000000000001,-0.3433504324772444
-0.30569999999999997,-0.3456139705570285
-0.3067000000000001,-0.3456139705570285
-0.3077,-0.347453095246853
-0.3087000000000001,-0.3511313446265021
-0.3097,-0.35509253626612425
-0.3107000000000001,-0.35693166095594875
-0.3117,-0.3577804877358678
-0.3127000000000001,-0.35990255468566534
-0.3137,-0.3640052174552739
-0.3147000000000001,-0.36839082248485555
-0.3157,-0.37022994717468005
-0.3167000000000001,-0.3715031873445586
-0.3177,-0.37362525429435617
-0.3187000000000001,-0.37744497480399175
-0.3197,-0.38168910870358685
-0.3207000000000001,-0.3835282333934114
-0.3217,-0.38522588695324944
-0.3227000000000001,-0.3869235405130875
-0.3237,-0.3917335589326287
-0.3247000000000001,-0.3959776928322238
-0.3257,-0.39809975978202133
-0.3267000000000001,-0.39951447108188637
-0.3277,-0.40262683594158943
-0.3287000000000001,-0.406729498711198
-0.3297,-0.4111151037407797
-0.3307000000000001,-0.41352011295055024
-0.3317,-0.4149348242504153
-0.3327000000000001,-0.41847160250007787
-0.3337,-0.4218669096197539
-0.3347000000000001,-0.4271013414292546
-0.3357,-0.4299307640289846
-0.3367000000000001,-0.4316284175888227
-0.3377,-0.43474078244852576
-0.3387000000000001,-0.4385605029581614
-0.3397,-0.44393640589764854
-0.3407000000000001,-0.4463414151074191
-0.3417,-0.44818053979724365
-0.3427000000000001,-0.4514343757869332
-0.3437,-0.4562443942064743
-0.3447000000000001,-0.46119588375600196
-0.3457,-0.464308248615705
-0.3467000000000001,-0.4655814887855836
-0.3477,-0.4692597381652327
-0.3487000000000001,-0.47463564110471984
-0.3497,-0.47887977500431494
-0.3507000000000001,-0.4826994955139505
-0.3517,-0.4842556779438021
-0.3527000000000001,-0.4877924561934647
-0.3537,-0.4927439457429922
-0.3547000000000001,-0.49741249303254687
-0.3557,-0.501090742412196
-0.35670000000000013,-0.503071338232007
-0.3577,-0.5066081164816696
-0.35870000000000013,-0.5119840194211568
-0.3597,-0.5176428646206169
-0.36070000000000013,-0.521038171740293
-0.3617,-0.5227358253001311
-0.3626999999999999,-0.5264140746797802
-0.3637,-0.5312240930993213
-0.3646999999999999,-0.537307351688741
-0.3657,-0.540136774288471
-0.3666999999999999,-0.5421173701082821
-0.3677,-0.5462200328778907
-0.3686999999999999,-0.5513129935574048
-0.36970000000000003,-0.557537723276811
-0.3706999999999999,-0.5599427324865814
-0.37170000000000003,-0.562347741696352
-0.3726999999999999,-0.5658845199460147
-0.37370000000000003,-0.5712604228855018
-0.3746999999999999,-0.5767777969549754
-0.37570000000000003,-0.579748690684692
-0.3766999999999999,-0.5827195844144085
-0.37770000000000004,-0.5861148915340847
-0.3786999999999999,-0.5916322656035584
-0.37970000000000004,-0.5970081685430455
-0.3806999999999999,-0.6006864179226945
-0.38170000000000004,-0.6032328982624516
-0.38269999999999993,-0.6071940899020738
-0.38370000000000004,-0.6131358773615069
-0.38469999999999993,-0.6183703091710075
-0.38570000000000004,-0.6216241451606972
-0.38669999999999993,-0.6238876832404812
-0.38770000000000004,-0.6278488748801032
-0.38869999999999993,-0.63364919120955
-0.38970000000000005,-0.6394495075389965
-0.39069999999999994,-0.6422789301387266
-0.39170000000000005,-0.6452498238684432
-0.39269999999999994,-0.6493524866380518
-0.39370000000000005,-0.6555772163574579
-0.39469999999999994,-0.6608116481669587
-0.39570000000000005,-0.6647728398065808
-0.39669999999999994,-0.6677437335362972
-0.39770000000000005,-0.6717049251759195
-0.39869999999999994,-0.6784955394152716
-0.39970000000000006,-0.6840129134847454
-0.40069999999999995,-0.6876911628643944
-0.40170000000000006,-0.6906620565941108
-0.40269999999999995,-0.6950476616236926
-0.40370000000000006,-0.7016968047330582
-0.40469999999999995,-0.7072141788025319
-0.40570000000000006,-0.7113168415721405
-0.40669999999999995,-0.7141462641718705
-0.40770000000000006,-0.7188148114614252
-0.40869999999999995,-0.7256054257007774
-0.40970000000000006,-0.73197162655017
-0.41069999999999995,-0.7355084047998326
-0.41170000000000007,-0.7387622407895221
-0.41269999999999996,-0.7434307880790767
-0.41370000000000007,-0.749938460058456
-0.41469999999999996,-0.7568705454277946
-0.41570000000000007,-0.7601243814174842
-0.41669999999999996,-0.7639441019271197
-0.41770000000000007,-0.7693200048666069
-0.41869999999999996,-0.7756862057159997
-0.4197000000000001,-0.7830427044752977
-0.42069999999999996,-0.7871453672449065
-0.4217000000000001,-0.7908236166245554
-0.42269999999999996,-0.7957751061740831
-0.4237000000000001,-0.8032730760633678
-0.42469999999999997,-0.809497805782774
-0.4257000000000001,-0.8141663530723287
-0.42669999999999997,-0.8178446024519777
-0.4277000000000001,-0.8240693321713839
-0.42869999999999997,-0.8314258309306821
-0.4297000000000001,-0.8384993874300073
-0.43069999999999997,-0.8430264635895753
-0.4317000000000001,-0.8475535397491435
-0.4327,-0.8530709138186172
-0.4337000000000001,-0.8608518259678749
-0.4347,-0.8682083247271731
-0.4357000000000001,-0.8728768720167276
-0.4367,-0.8771210059163228
-0.4377000000000001,-0.8830627933757559
-0.4387,-0.8911266477849867
-0.4397000000000001,-0.8987660888042578
-0.4407,-0.9037175783537855
-0.4417000000000001,-0.908669067903313
-0.4427,-0.9150352687527057
-0.4437000000000001,-0.9236650076818825
-0.4447,-0.9315873909611266
-0.4457000000000001,-0.9359729959907083
-0.4467,-0.9420562545801279
-0.4477000000000001,-0.9494127533394261
-0.4487,-0.9577595500086299
-0.4497000000000001,-0.9661063466778336
-0.4507,-0.9719066630072802
-0.4517000000000001,-0.9775655082067403
-0.4527,-0.9854878914859844
-0.4537000000000001,-0.9932688036352422
-0.4547,-1.0014741291744595
-0.4557000000000001,-1.0069915032439332
-0.4567,-1.0125088773134068
-0.4577000000000001,-1.0207142028526242
-0.4587,-1.0294854129117872
-0.4597000000000001,-1.0374077961910315
-0.4607,-1.0440569393003971
-0.4617000000000001,-1.0504231401497897
-0.4627,-1.0583455234290338
-0.4637000000000001,-1.0683899736580758
-0.4647,-1.078010010497158
-0.4657000000000001,-1.0842347402165642
-0.4667,-1.0908838833259298
-0.4677000000000001,-1.098240382085228
-0.4687,-1.1082848323142698
-0.4697000000000001,-1.117904869153352
-0.4707,-1.1248369545226906
-0.4717000000000001,-1.1316275687620427
-0.4727,-1.1405402499511925
-0.4737000000000001,-1.1519994114800993
-0.4747,-1.160912092669249
-0.4757000000000001,-1.1682685914285473
-0.4767,-1.1756250901878456
-0.4777000000000001,-1.1848207136369682
-0.4787,-1.1958554617759156
-0.4797000000000001,-1.206324325394917
-0.4807,-1.2133978818942421
-0.48170000000000013,-1.2218861496934323
-0.4827,-1.2320720710524604
-0.48370000000000013,-1.242399463541475
-0.4847,-1.2525853849005035
-0.48570000000000013,-1.2609321815697072
-0.4867,-1.2712595740587218
-0.4876999999999999,-1.280596668637831
-0.4887,-1.2924802435566976
-0.4896999999999999,-1.3035149916956446
-0.4907,-1.3120032594948348
-0.4916999999999999,-1.3213403540739443
-0.4927,-1.3315262754329726
-0.4936999999999999,-1.3455319173016365
