Aug. 8, 2024   22:21:14
Cyclic Voltammetry
File: c:/users/guazh/data/20240802_batch_500/2024-08-02-exp58\exp58-2024-08-08t22_08_52-h2koh\exp58_cv_50mvs_efin_-1600mv.bin
Data Source:  Experiment
Instrument Model:  CHI760E
Header: CV ran at 50 mVs
Note: 

Init E (V) = -1
High E (V) = -1
Low E (V) = -1.6
Final E (V) = -1
Init P/N = N
Scan Rate (V/s) = 0.05
Segment = 7
Sample Interval (V) = 0.001
Quiet Time (sec) = 60
Sensitivity (A/V) = 0.001
Comp R (ohm) = 2.2

Results:

Channel 1:
Segment 1:

Segment 2:

Segment 3:

Segment 4:

Segment 5:

Segment 6:

Segment 7:

Potential/V, Current/A

-1.000, 6.196e-8
-1.001, 1.285e-6
-1.002, 1.975e-6
-1.003, 2.470e-6
-1.004, 2.777e-6
-1.005, 2.920e-6
-1.006, 3.142e-6
-1.007, 3.496e-6
-1.008, 3.834e-6
-1.009, 3.947e-6
-1.010, 3.986e-6
-1.011, 4.138e-6
-1.012, 4.422e-6
-1.013, 4.691e-6
-1.014, 4.756e-6
-1.015, 4.773e-6
-1.016, 4.897e-6
-1.017, 5.113e-6
-1.018, 5.397e-6
-1.019, 5.418e-6
-1.020, 5.417e-6
-1.021, 5.523e-6
-1.022, 5.719e-6
-1.023, 5.972e-6
-1.024, 6.034e-6
-1.025, 5.963e-6
-1.026, 6.079e-6
-1.027, 6.268e-6
-1.028, 6.505e-6
-1.029, 6.517e-6
-1.030, 6.468e-6
-1.031, 6.582e-6
-1.032, 6.745e-6
-1.033, 6.957e-6
-1.034, 7.002e-6
-1.035, 6.927e-6
-1.036, 6.995e-6
-1.037, 7.195e-6
-1.038, 7.400e-6
-1.039, 7.427e-6
-1.040, 7.327e-6
-1.041, 7.424e-6
-1.042, 7.604e-6
-1.043, 7.795e-6
-1.044, 7.819e-6
-1.045, 7.752e-6
-1.046, 7.820e-6
-1.047, 7.998e-6
-1.048, 8.172e-6
-1.049, 8.183e-6
-1.050, 8.134e-6
-1.051, 8.199e-6
-1.052, 8.398e-6
-1.053, 8.556e-6
-1.054, 8.532e-6
-1.055, 8.505e-6
-1.056, 8.538e-6
-1.057, 8.745e-6
-1.058, 8.907e-6
-1.059, 8.902e-6
-1.060, 8.825e-6
-1.061, 8.914e-6
-1.062, 9.091e-6
-1.063, 9.266e-6
-1.064, 9.222e-6
-1.065, 9.171e-6
-1.066, 9.243e-6
-1.067, 9.411e-6
-1.068, 9.576e-6
-1.069, 9.559e-6
-1.070, 9.468e-6
-1.071, 9.534e-6
-1.072, 9.724e-6
-1.073, 9.885e-6
-1.074, 9.859e-6
-1.075, 9.834e-6
-1.076, 9.858e-6
-1.077, 1.008e-5
-1.078, 1.020e-5
-1.079, 1.020e-5
-1.080, 1.009e-5
-1.081, 1.016e-5
-1.082, 1.039e-5
-1.083, 1.050e-5
-1.084, 1.045e-5
-1.085, 1.040e-5
-1.086, 1.045e-5
-1.087, 1.065e-5
-1.088, 1.078e-5
-1.089, 1.076e-5
-1.090, 1.072e-5
-1.091, 1.073e-5
-1.092, 1.092e-5
-1.093, 1.104e-5
-1.094, 1.106e-5
-1.095, 1.100e-5
-1.096, 1.102e-5
-1.097, 1.120e-5
-1.098, 1.135e-5
-1.099, 1.128e-5
-1.100, 1.126e-5
-1.101, 1.131e-5
-1.102, 1.148e-5
-1.103, 1.160e-5
-1.104, 1.158e-5
-1.105, 1.151e-5
-1.106, 1.156e-5
-1.107, 1.172e-5
-1.108, 1.187e-5
-1.109, 1.184e-5
-1.110, 1.173e-5
-1.111, 1.181e-5
-1.112, 1.199e-5
-1.113, 1.211e-5
-1.114, 1.207e-5
-1.115, 1.201e-5
-1.116, 1.205e-5
-1.117, 1.222e-5
-1.118, 1.235e-5
-1.119, 1.232e-5
-1.120, 1.226e-5
-1.121, 1.228e-5
-1.122, 1.250e-5
-1.123, 1.258e-5
-1.124, 1.255e-5
-1.125, 1.249e-5
-1.126, 1.251e-5
-1.127, 1.273e-5
-1.128, 1.282e-5
-1.129, 1.280e-5
-1.130, 1.275e-5
-1.131, 1.276e-5
-1.132, 1.297e-5
-1.133, 1.304e-5
-1.134, 1.303e-5
-1.135, 1.296e-5
-1.136, 1.299e-5
-1.137, 1.315e-5
-1.138, 1.328e-5
-1.139, 1.326e-5
-1.140, 1.315e-5
-1.141, 1.323e-5
-1.142, 1.340e-5
-1.143, 1.355e-5
-1.144, 1.346e-5
-1.145, 1.339e-5
-1.146, 1.348e-5
-1.147, 1.361e-5
-1.148, 1.377e-5
-1.149, 1.370e-5
-1.150, 1.363e-5
-1.151, 1.370e-5
-1.152, 1.389e-5
-1.153, 1.398e-5
-1.154, 1.394e-5
-1.155, 1.385e-5
-1.156, 1.393e-5
-1.157, 1.412e-5
-1.158, 1.422e-5
-1.159, 1.419e-5
-1.160, 1.408e-5
-1.161, 1.416e-5
-1.162, 1.436e-5
-1.163, 1.447e-5
-1.164, 1.441e-5
-1.165, 1.435e-5
-1.166, 1.441e-5
-1.167, 1.458e-5
-1.168, 1.471e-5
-1.169, 1.463e-5
-1.170, 1.461e-5
-1.171, 1.466e-5
-1.172, 1.483e-5
-1.173, 1.494e-5
-1.174, 1.489e-5
-1.175, 1.485e-5
-1.176, 1.489e-5
-1.177, 1.508e-5
-1.178, 1.521e-5
-1.179, 1.515e-5
-1.180, 1.508e-5
-1.181, 1.516e-5
-1.182, 1.537e-5
-1.183, 1.546e-5
-1.184, 1.543e-5
-1.185, 1.534e-5
-1.186, 1.546e-5
-1.187, 1.559e-5
-1.188, 1.575e-5
-1.189, 1.568e-5
-1.190, 1.561e-5
-1.191, 1.571e-5
-1.192, 1.586e-5
-1.193, 1.600e-5
-1.194, 1.595e-5
-1.195, 1.591e-5
-1.196, 1.600e-5
-1.197, 1.618e-5
-1.198, 1.629e-5
-1.199, 1.626e-5
-1.200, 1.620e-5
-1.201, 1.629e-5
-1.202, 1.648e-5
-1.203, 1.661e-5
-1.204, 1.654e-5
-1.205, 1.653e-5
-1.206, 1.661e-5
-1.207, 1.682e-5
-1.208, 1.693e-5
-1.209, 1.690e-5
-1.210, 1.688e-5
-1.211, 1.697e-5
-1.212, 1.716e-5
-1.213, 1.730e-5
-1.214, 1.724e-5
-1.215, 1.724e-5
-1.216, 1.732e-5
-1.217, 1.750e-5
-1.218, 1.766e-5
-1.219, 1.758e-5
-1.220, 1.759e-5
-1.221, 1.769e-5
-1.222, 1.790e-5
-1.223, 1.804e-5
-1.224, 1.796e-5
-1.225, 1.798e-5
-1.226, 1.809e-5
-1.227, 1.828e-5
-1.228, 1.848e-5
-1.229, 1.847e-5
-1.230, 1.841e-5
-1.231, 1.857e-5
-1.232, 1.874e-5
-1.233, 1.888e-5
-1.234, 1.887e-5
-1.235, 1.884e-5
-1.236, 1.899e-5
-1.237, 1.920e-5
-1.238, 1.933e-5
-1.239, 1.934e-5
-1.240, 1.933e-5
-1.241, 1.950e-5
-1.242, 1.974e-5
-1.243, 1.987e-5
-1.244, 1.987e-5
-1.245, 1.986e-5
-1.246, 2.001e-5
-1.247, 2.027e-5
-1.248, 2.040e-5
-1.249, 2.040e-5
-1.250, 2.045e-5
-1.251, 2.058e-5
-1.252, 2.083e-5
-1.253, 2.096e-5
-1.254, 2.098e-5
-1.255, 2.104e-5
-1.256, 2.116e-5
-1.257, 2.142e-5
-1.258, 2.158e-5
-1.259, 2.159e-5
-1.260, 2.165e-5
-1.261, 2.182e-5
-1.262, 2.209e-5
-1.263, 2.227e-5
-1.264, 2.228e-5
-1.265, 2.232e-5
-1.266, 2.251e-5
-1.267, 2.279e-5
-1.268, 2.294e-5
-1.269, 2.301e-5
-1.270, 2.301e-5
-1.271, 2.326e-5
-1.272, 2.352e-5
-1.273, 2.370e-5
-1.274, 2.375e-5
-1.275, 2.380e-5
-1.276, 2.398e-5
-1.277, 2.427e-5
-1.278, 2.445e-5
-1.279, 2.449e-5
-1.280, 2.462e-5
-1.281, 2.482e-5
-1.282, 2.510e-5
-1.283, 2.529e-5
-1.284, 2.539e-5
-1.285, 2.543e-5
-1.286, 2.564e-5
-1.287, 2.597e-5
-1.288, 2.615e-5
-1.289, 2.624e-5
-1.290, 2.635e-5
-1.291, 2.656e-5
-1.292, 2.688e-5
-1.293, 2.709e-5
-1.294, 2.719e-5
-1.295, 2.729e-5
-1.296, 2.752e-5
-1.297, 2.784e-5
-1.298, 2.810e-5
-1.299, 2.818e-5
-1.300, 2.830e-5
-1.301, 2.856e-5
-1.302, 2.893e-5
-1.303, 2.914e-5
-1.304, 2.927e-5
-1.305, 2.938e-5
-1.306, 2.968e-5
-1.307, 3.010e-5
-1.308, 3.025e-5
-1.309, 3.040e-5
-1.310, 3.053e-5
-1.311, 3.084e-5
-1.312, 3.118e-5
-1.313, 3.143e-5
-1.314, 3.160e-5
-1.315, 3.172e-5
-1.316, 3.206e-5
-1.317, 3.240e-5
-1.318, 3.268e-5
-1.319, 3.282e-5
-1.320, 3.299e-5
-1.321, 3.328e-5
-1.322, 3.372e-5
-1.323, 3.393e-5
-1.324, 3.417e-5
-1.325, 3.432e-5
-1.326, 3.464e-5
-1.327, 3.509e-5
-1.328, 3.532e-5
-1.329, 3.554e-5
-1.330, 3.571e-5
-1.331, 3.604e-5
-1.332, 3.646e-5
-1.333, 3.676e-5
-1.334, 3.698e-5
-1.335, 3.716e-5
-1.336, 3.749e-5
-1.337, 3.793e-5
-1.338, 3.826e-5
-1.339, 3.843e-5
-1.340, 3.863e-5
-1.341, 3.899e-5
-1.342, 3.945e-5
-1.343, 3.978e-5
-1.344, 3.994e-5
-1.345, 4.018e-5
-1.346, 4.052e-5
-1.347, 4.097e-5
-1.348, 4.135e-5
-1.349, 4.152e-5
-1.350, 4.174e-5
-1.351, 4.214e-5
-1.352, 4.258e-5
-1.353, 4.289e-5
-1.354, 4.318e-5
-1.355, 4.336e-5
-1.356, 4.375e-5
-1.357, 4.420e-5
-1.358, 4.449e-5
-1.359, 4.474e-5
-1.360, 4.492e-5
-1.361, 4.527e-5
-1.362, 4.573e-5
-1.363, 4.606e-5
-1.364, 4.625e-5
-1.365, 4.649e-5
-1.366, 4.687e-5
-1.367, 4.733e-5
-1.368, 4.763e-5
-1.369, 4.781e-5
-1.370, 4.806e-5
-1.371, 4.840e-5
-1.372, 4.894e-5
-1.373, 4.925e-5
-1.374, 4.951e-5
-1.375, 4.976e-5
-1.376, 5.011e-5
-1.377, 5.061e-5
-1.378, 5.096e-5
-1.379, 5.113e-5
-1.380, 5.137e-5
-1.381, 5.183e-5
-1.382, 5.227e-5
-1.383, 5.262e-5
-1.384, 5.282e-5
-1.385, 5.309e-5
-1.386, 5.349e-5
-1.387, 5.398e-5
-1.388, 5.441e-5
-1.389, 5.462e-5
-1.390, 5.498e-5
-1.391, 5.543e-5
-1.392, 5.594e-5
-1.393, 5.636e-5
-1.394, 5.655e-5
-1.395, 5.686e-5
-1.396, 5.735e-5
-1.397, 5.786e-5
-1.398, 5.825e-5
-1.399, 5.855e-5
-1.400, 5.894e-5
-1.401, 5.945e-5
-1.402, 6.006e-5
-1.403, 6.049e-5
-1.404, 6.079e-5
-1.405, 6.117e-5
-1.406, 6.169e-5
-1.407, 6.236e-5
-1.408, 6.291e-5
-1.409, 6.328e-5
-1.410, 6.368e-5
-1.411, 6.430e-5
-1.412, 6.501e-5
-1.413, 6.549e-5
-1.414, 6.582e-5
-1.415, 6.630e-5
-1.416, 6.692e-5
-1.417, 6.763e-5
-1.418, 6.826e-5
-1.419, 6.861e-5
-1.420, 6.910e-5
-1.421, 6.972e-5
-1.422, 7.042e-5
-1.423, 7.097e-5
-1.424, 7.142e-5
-1.425, 7.195e-5
-1.426, 7.271e-5
-1.427, 7.347e-5
-1.428, 7.410e-5
-1.429, 7.460e-5
-1.430, 7.512e-5
-1.431, 7.585e-5
-1.432, 7.663e-5
-1.433, 7.726e-5
-1.434, 7.780e-5
-1.435, 7.828e-5
-1.436, 7.899e-5
-1.437, 7.983e-5
-1.438, 8.056e-5
-1.439, 8.128e-5
-1.440, 8.192e-5
-1.441, 8.287e-5
-1.442, 8.369e-5
-1.443, 8.432e-5
-1.444, 8.496e-5
-1.445, 8.558e-5
-1.446, 8.644e-5
-1.447, 8.728e-5
-1.448, 8.802e-5
-1.449, 8.860e-5
-1.450, 8.920e-5
-1.451, 9.008e-5
-1.452, 9.108e-5
-1.453, 9.181e-5
-1.454, 9.243e-5
-1.455, 9.319e-5
-1.456, 9.413e-5
-1.457, 9.514e-5
-1.458, 9.619e-5
-1.459, 9.697e-5
-1.460, 9.779e-5
-1.461, 9.873e-5
-1.462, 9.978e-5
-1.463, 1.008e-4
-1.464, 1.016e-4
-1.465, 1.025e-4
-1.466, 1.036e-4
-1.467, 1.048e-4
-1.468, 1.058e-4
-1.469, 1.067e-4
-1.470, 1.078e-4
-1.471, 1.091e-4
-1.472, 1.104e-4
-1.473, 1.115e-4
-1.474, 1.126e-4
-1.475, 1.136e-4
-1.476, 1.149e-4
-1.477, 1.163e-4
-1.478, 1.177e-4
-1.479, 1.191e-4
-1.480, 1.205e-4
-1.481, 1.221e-4
-1.482, 1.237e-4
-1.483, 1.250e-4
-1.484, 1.263e-4
-1.485, 1.278e-4
-1.486, 1.293e-4
-1.487, 1.311e-4
-1.488, 1.327e-4
-1.489, 1.340e-4
-1.490, 1.355e-4
-1.491, 1.372e-4
-1.492, 1.389e-4
-1.493, 1.406e-4
-1.494, 1.421e-4
-1.495, 1.437e-4
-1.496, 1.454e-4
-1.497, 1.473e-4
-1.498, 1.492e-4
-1.499, 1.509e-4
-1.500, 1.527e-4
-1.501, 1.547e-4
-1.502, 1.568e-4
-1.503, 1.588e-4
-1.504, 1.607e-4
-1.505, 1.628e-4
-1.506, 1.651e-4
-1.507, 1.675e-4
-1.508, 1.699e-4
-1.509, 1.721e-4
-1.510, 1.743e-4
-1.511, 1.770e-4
-1.512, 1.795e-4
-1.513, 1.820e-4
-1.514, 1.843e-4
-1.515, 1.866e-4
-1.516, 1.893e-4
-1.517, 1.919e-4
-1.518, 1.946e-4
-1.519, 1.973e-4
-1.520, 1.998e-4
-1.521, 2.027e-4
-1.522, 2.057e-4
-1.523, 2.086e-4
-1.524, 2.113e-4
-1.525, 2.140e-4
-1.526, 2.171e-4
-1.527, 2.202e-4
-1.528, 2.233e-4
-1.529, 2.265e-4
-1.530, 2.296e-4
-1.531, 2.329e-4
-1.532, 2.361e-4
-1.533, 2.391e-4
-1.534, 2.423e-4
-1.535, 2.457e-4
-1.536, 2.492e-4
-1.537, 2.530e-4
-1.538, 2.564e-4
-1.539, 2.599e-4
-1.540, 2.632e-4
-1.541, 2.668e-4
-1.542, 2.704e-4
-1.543, 2.738e-4
-1.544, 2.772e-4
-1.545, 2.809e-4
-1.546, 2.848e-4
-1.547, 2.886e-4
-1.548, 2.924e-4
-1.549, 2.962e-4
-1.550, 2.999e-4
-1.551, 3.039e-4
-1.552, 3.079e-4
-1.553, 3.119e-4
-1.554, 3.157e-4
-1.555, 3.198e-4
-1.556, 3.240e-4
-1.557, 3.284e-4
-1.558, 3.325e-4
-1.559, 3.368e-4
-1.560, 3.410e-4
-1.561, 3.455e-4
-1.562, 3.502e-4
-1.563, 3.546e-4
-1.564, 3.592e-4
-1.565, 3.637e-4
-1.566, 3.684e-4
-1.567, 3.732e-4
-1.568, 3.781e-4
-1.569, 3.830e-4
-1.570, 3.877e-4
-1.571, 3.927e-4
-1.572, 3.977e-4
-1.573, 4.023e-4
-1.574, 4.066e-4
-1.575, 4.114e-4
-1.576, 4.165e-4
-1.577, 4.212e-4
-1.578, 4.259e-4
-1.579, 4.305e-4
-1.580, 4.355e-4
-1.581, 4.404e-4
-1.582, 4.455e-4
-1.583, 4.510e-4
-1.584, 4.566e-4
-1.585, 4.621e-4
-1.586, 4.677e-4
-1.587, 4.731e-4
-1.588, 4.783e-4
-1.589, 4.834e-4
-1.590, 4.888e-4
-1.591, 4.945e-4
-1.592, 4.999e-4
-1.593, 5.049e-4
-1.594, 5.103e-4
-1.595, 5.160e-4
-1.596, 5.216e-4
-1.597, 5.272e-4
-1.598, 5.327e-4
-1.599, 5.379e-4
-1.600, 5.359e-4
-1.599, 5.308e-4
-1.598, 5.264e-4
-1.597, 5.219e-4
-1.596, 5.171e-4
-1.595, 5.123e-4
-1.594, 5.078e-4
-1.593, 5.029e-4
-1.592, 4.980e-4
-1.591, 4.938e-4
-1.590, 4.891e-4
-1.589, 4.844e-4
-1.588, 4.800e-4
-1.587, 4.752e-4
-1.586, 4.703e-4
-1.585, 4.656e-4
-1.584, 4.612e-4
-1.583, 4.571e-4
-1.582, 4.526e-4
-1.581, 4.481e-4
-1.580, 4.438e-4
-1.579, 4.398e-4
-1.578, 4.356e-4
-1.577, 4.311e-4
-1.576, 4.272e-4
-1.575, 4.229e-4
-1.574, 4.186e-4
-1.573, 4.145e-4
-1.572, 4.103e-4
-1.571, 4.057e-4
-1.570, 4.012e-4
-1.569, 3.975e-4
-1.568, 3.936e-4
-1.567, 3.895e-4
-1.566, 3.853e-4
-1.565, 3.815e-4
-1.564, 3.780e-4
-1.563, 3.740e-4
-1.562, 3.703e-4
-1.561, 3.662e-4
-1.560, 3.624e-4
-1.559, 3.587e-4
-1.558, 3.551e-4
-1.557, 3.516e-4
-1.556, 3.477e-4
-1.555, 3.440e-4
-1.554, 3.406e-4
-1.553, 3.373e-4
-1.552, 3.337e-4
-1.551, 3.299e-4
-1.550, 3.264e-4
-1.549, 3.232e-4
-1.548, 3.197e-4
-1.547, 3.163e-4
-1.546, 3.128e-4
-1.545, 3.094e-4
-1.544, 3.062e-4
-1.543, 3.029e-4
-1.542, 2.996e-4
-1.541, 2.961e-4
-1.540, 2.926e-4
-1.539, 2.897e-4
-1.538, 2.867e-4
-1.537, 2.835e-4
-1.536, 2.800e-4
-1.535, 2.768e-4
-1.534, 2.738e-4
-1.533, 2.707e-4
-1.532, 2.676e-4
-1.531, 2.643e-4
-1.530, 2.613e-4
-1.529, 2.585e-4
-1.528, 2.557e-4
-1.527, 2.527e-4
-1.526, 2.496e-4
-1.525, 2.465e-4
-1.524, 2.437e-4
-1.523, 2.410e-4
-1.522, 2.381e-4
-1.521, 2.350e-4
-1.520, 2.321e-4
-1.519, 2.294e-4
-1.518, 2.266e-4
-1.517, 2.239e-4
-1.516, 2.211e-4
-1.515, 2.183e-4
-1.514, 2.157e-4
-1.513, 2.133e-4
-1.512, 2.109e-4
-1.511, 2.081e-4
-1.510, 2.054e-4
-1.509, 2.029e-4
-1.508, 2.006e-4
-1.507, 1.980e-4
-1.506, 1.953e-4
-1.505, 1.926e-4
-1.504, 1.904e-4
-1.503, 1.880e-4
-1.502, 1.855e-4
-1.501, 1.830e-4
-1.500, 1.806e-4
-1.499, 1.784e-4
-1.498, 1.763e-4
-1.497, 1.739e-4
-1.496, 1.715e-4
-1.495, 1.691e-4
-1.494, 1.670e-4
-1.493, 1.649e-4
-1.492, 1.625e-4
-1.491, 1.600e-4
-1.490, 1.577e-4
-1.489, 1.557e-4
-1.488, 1.536e-4
-1.487, 1.513e-4
-1.486, 1.490e-4
-1.485, 1.468e-4
-1.484, 1.449e-4
-1.483, 1.430e-4
-1.482, 1.409e-4
-1.481, 1.386e-4
-1.480, 1.365e-4
-1.479, 1.347e-4
-1.478, 1.329e-4
-1.477, 1.308e-4
-1.476, 1.287e-4
-1.475, 1.267e-4
-1.474, 1.250e-4
-1.473, 1.232e-4
-1.472, 1.213e-4
-1.471, 1.193e-4
-1.470, 1.174e-4
-1.469, 1.158e-4
-1.468, 1.141e-4
-1.467, 1.122e-4
-1.466, 1.103e-4
-1.465, 1.085e-4
-1.464, 1.070e-4
-1.463, 1.054e-4
-1.462, 1.036e-4
-1.461, 1.019e-4
-1.460, 1.002e-4
-1.459, 9.886e-5
-1.458, 9.744e-5
-1.457, 9.577e-5
-1.456, 9.407e-5
-1.455, 9.249e-5
-1.454, 9.109e-5
-1.453, 8.969e-5
-1.452, 8.807e-5
-1.451, 8.622e-5
-1.450, 8.474e-5
-1.449, 8.347e-5
-1.448, 8.218e-5
-1.447, 8.061e-5
-1.446, 7.901e-5
-1.445, 7.760e-5
-1.444, 7.629e-5
-1.443, 7.502e-5
-1.442, 7.363e-5
-1.441, 7.204e-5
-1.440, 7.074e-5
-1.439, 6.961e-5
-1.438, 6.841e-5
-1.437, 6.708e-5
-1.436, 6.561e-5
-1.435, 6.427e-5
-1.434, 6.317e-5
-1.433, 6.201e-5
-1.432, 6.073e-5
-1.431, 5.937e-5
-1.430, 5.811e-5
-1.429, 5.714e-5
-1.428, 5.611e-5
-1.427, 5.480e-5
-1.426, 5.355e-5
-1.425, 5.234e-5
-1.424, 5.147e-5
-1.423, 5.052e-5
-1.422, 4.934e-5
-1.421, 4.809e-5
-1.420, 4.699e-5
-1.419, 4.611e-5
-1.418, 4.528e-5
-1.417, 4.414e-5
-1.416, 4.294e-5
-1.415, 4.195e-5
-1.414, 4.109e-5
-1.413, 4.031e-5
-1.412, 3.926e-5
-1.411, 3.812e-5
-1.410, 3.721e-5
-1.409, 3.643e-5
-1.408, 3.570e-5
-1.407, 3.469e-5
-1.406, 3.359e-5
-1.405, 3.278e-5
-1.404, 3.206e-5
-1.403, 3.135e-5
-1.402, 3.041e-5
-1.401, 2.936e-5
-1.400, 2.855e-5
-1.399, 2.793e-5
-1.398, 2.722e-5
-1.397, 2.635e-5
-1.396, 2.537e-5
-1.395, 2.456e-5
-1.394, 2.399e-5
-1.393, 2.339e-5
-1.392, 2.254e-5
-1.391, 2.165e-5
-1.390, 2.088e-5
-1.389, 2.038e-5
-1.388, 1.982e-5
-1.387, 1.901e-5
-1.386, 1.814e-5
-1.385, 1.747e-5
-1.384, 1.705e-5
-1.383, 1.655e-5
-1.382, 1.575e-5
-1.381, 1.502e-5
-1.380, 1.436e-5
-1.379, 1.394e-5
-1.378, 1.349e-5
-1.377, 1.269e-5
-1.376, 1.193e-5
-1.375, 1.135e-5
-1.374, 1.092e-5
-1.373, 1.055e-5
-1.372, 9.871e-6
-1.371, 9.140e-6
-1.370, 8.604e-6
-1.369, 8.243e-6
-1.368, 7.869e-6
-1.367, 7.210e-6
-1.366, 6.491e-6
-1.365, 6.054e-6
-1.364, 5.707e-6
-1.363, 5.362e-6
-1.362, 4.747e-6
-1.361, 4.050e-6
-1.360, 3.629e-6
-1.359, 3.335e-6
-1.358, 2.992e-6
-1.357, 2.430e-6
-1.356, 1.748e-6
-1.355, 1.364e-6
-1.354, 1.101e-6
-1.353, 7.802e-7
-1.352, 2.376e-7
-1.351, -4.008e-7
-1.350, -8.171e-7
-1.349, -1.005e-6
-1.348, -1.291e-6
-1.347, -1.845e-6
-1.346, -2.411e-6
-1.345, -2.799e-6
-1.344, -2.999e-6
-1.343, -3.252e-6
-1.342, -3.826e-6
-1.341, -4.320e-6
-1.340, -4.703e-6
-1.339, -4.924e-6
-1.338, -5.138e-6
-1.337, -5.709e-6
-1.336, -6.197e-6
-1.335, -6.548e-6
-1.334, -6.738e-6
-1.333, -6.896e-6
-1.332, -7.430e-6
-1.331, -7.952e-6
-1.330, -8.285e-6
-1.329, -8.453e-6
-1.328, -8.590e-6
-1.327, -9.099e-6
-1.326, -9.634e-6
-1.325, -9.885e-6
-1.324, -9.991e-6
-1.323, -1.022e-5
-1.322, -1.066e-5
-1.321, -1.115e-5
-1.320, -1.143e-5
-1.319, -1.159e-5
-1.318, -1.179e-5
-1.317, -1.223e-5
-1.316, -1.270e-5
-1.315, -1.301e-5
-1.314, -1.312e-5
-1.313, -1.334e-5
-1.312, -1.378e-5
-1.311, -1.427e-5
-1.310, -1.462e-5
-1.309, -1.468e-5
-1.308, -1.492e-5
-1.307, -1.537e-5
-1.306, -1.580e-5
-1.305, -1.615e-5
-1.304, -1.620e-5
-1.303, -1.638e-5
-1.302, -1.687e-5
-1.301, -1.730e-5
-1.300, -1.760e-5
-1.299, -1.775e-5
-1.298, -1.791e-5
-1.297, -1.843e-5
-1.296, -1.887e-5
-1.295, -1.917e-5
-1.294, -1.934e-5
-1.293, -1.952e-5
-1.292, -2.001e-5
-1.291, -2.050e-5
-1.290, -2.077e-5
-1.289, -2.097e-5
-1.288, -2.116e-5
-1.287, -2.162e-5
-1.286, -2.213e-5
-1.285, -2.240e-5
-1.284, -2.255e-5
-1.283, -2.281e-5
-1.282, -2.323e-5
-1.281, -2.373e-5
-1.280, -2.411e-5
-1.279, -2.423e-5
-1.278, -2.451e-5
-1.277, -2.490e-5
-1.276, -2.542e-5
-1.275, -2.568e-5
-1.274, -2.584e-5
-1.273, -2.608e-5
-1.272, -2.647e-5
-1.271, -2.695e-5
-1.270, -2.725e-5
-1.269, -2.738e-5
-1.268, -2.761e-5
-1.267, -2.805e-5
-1.266, -2.852e-5
-1.265, -2.880e-5
-1.264, -2.887e-5
-1.263, -2.904e-5
-1.262, -2.948e-5
-1.261, -2.987e-5
-1.260, -3.011e-5
-1.259, -3.012e-5
-1.258, -3.030e-5
-1.257, -3.064e-5
-1.256, -3.099e-5
-1.255, -3.115e-5
-1.254, -3.120e-5
-1.253, -3.127e-5
-1.252, -3.154e-5
-1.251, -3.193e-5
-1.250, -3.200e-5
-1.249, -3.202e-5
-1.248, -3.201e-5
-1.247, -3.228e-5
-1.246, -3.258e-5
-1.245, -3.264e-5
-1.244, -3.255e-5
-1.243, -3.257e-5
-1.242, -3.282e-5
-1.241, -3.309e-5
-1.240, -3.307e-5
-1.239, -3.295e-5
-1.238, -3.297e-5
-1.237, -3.313e-5
-1.236, -3.336e-5
-1.235, -3.337e-5
-1.234, -3.314e-5
-1.233, -3.312e-5
-1.232, -3.321e-5
-1.231, -3.338e-5
-1.230, -3.338e-5
-1.229, -3.326e-5
-1.228, -3.319e-5
-1.227, -3.328e-5
-1.226, -3.337e-5
-1.225, -3.332e-5
-1.224, -3.300e-5
-1.223, -3.291e-5
-1.222, -3.299e-5
-1.221, -3.306e-5
-1.220, -3.292e-5
-1.219, -3.270e-5
-1.218, -3.251e-5
-1.217, -3.261e-5
-1.216, -3.262e-5
-1.215, -3.248e-5
-1.214, -3.218e-5
-1.213, -3.201e-5
-1.212, -3.203e-5
-1.211, -3.207e-5
-1.210, -3.191e-5
-1.209, -3.159e-5
-1.208, -3.143e-5
-1.207, -3.139e-5
-1.206, -3.149e-5
-1.205, -3.132e-5
-1.204, -3.103e-5
-1.203, -3.089e-5
-1.202, -3.088e-5
-1.201, -3.100e-5
-1.200, -3.083e-5
-1.199, -3.053e-5
-1.198, -3.044e-5
-1.197, -3.052e-5
-1.196, -3.065e-5
-1.195, -3.056e-5
-1.194, -3.034e-5
-1.193, -3.025e-5
-1.192, -3.032e-5
-1.191, -3.049e-5
-1.190, -3.048e-5
-1.189, -3.022e-5
-1.188, -3.019e-5
-1.187, -3.034e-5
-1.186, -3.049e-5
-1.185, -3.049e-5
-1.184, -3.031e-5
-1.183, -3.035e-5
-1.182, -3.053e-5
-1.181, -3.071e-5
-1.180, -3.074e-5
-1.179, -3.062e-5
-1.178, -3.065e-5
-1.177, -3.091e-5
-1.176, -3.113e-5
-1.175, -3.116e-5
-1.174, -3.106e-5
-1.173, -3.106e-5
-1.172, -3.131e-5
-1.171, -3.158e-5
-1.170, -3.165e-5
-1.169, -3.158e-5
-1.168, -3.159e-5
-1.167, -3.189e-5
-1.166, -3.219e-5
-1.165, -3.229e-5
-1.164, -3.220e-5
-1.163, -3.227e-5
-1.162, -3.257e-5
-1.161, -3.290e-5
-1.160, -3.296e-5
-1.159, -3.292e-5
-1.158, -3.305e-5
-1.157, -3.332e-5
-1.156, -3.363e-5
-1.155, -3.378e-5
-1.154, -3.369e-5
-1.153, -3.388e-5
-1.152, -3.415e-5
-1.151, -3.450e-5
-1.150, -3.465e-5
-1.149, -3.460e-5
-1.148, -3.475e-5
-1.147, -3.513e-5
-1.146, -3.548e-5
-1.145, -3.564e-5
-1.144, -3.557e-5
-1.143, -3.569e-5
-1.142, -3.611e-5
-1.141, -3.642e-5
-1.140, -3.657e-5
-1.139, -3.658e-5
-1.138, -3.673e-5
-1.137, -3.709e-5
-1.136, -3.745e-5
-1.135, -3.766e-5
-1.134, -3.769e-5
-1.133, -3.781e-5
-1.132, -3.820e-5
-1.131, -3.862e-5
-1.130, -3.879e-5
-1.129, -3.883e-5
-1.128, -3.900e-5
-1.127, -3.941e-5
-1.126, -3.982e-5
-1.125, -3.999e-5
-1.124, -4.005e-5
-1.123, -4.028e-5
-1.122, -4.072e-5
-1.121, -4.112e-5
-1.120, -4.129e-5
-1.119, -4.139e-5
-1.118, -4.160e-5
-1.117, -4.202e-5
-1.116, -4.250e-5
-1.115, -4.277e-5
-1.114, -4.281e-5
-1.113, -4.310e-5
-1.112, -4.351e-5
-1.111, -4.395e-5
-1.110, -4.417e-5
-1.109, -4.424e-5
-1.108, -4.452e-5
-1.107, -4.501e-5
-1.106, -4.546e-5
-1.105, -4.570e-5
-1.104, -4.580e-5
-1.103, -4.608e-5
-1.102, -4.662e-5
-1.101, -4.705e-5
-1.100, -4.728e-5
-1.099, -4.739e-5
-1.098, -4.763e-5
-1.097, -4.822e-5
-1.096, -4.867e-5
-1.095, -4.889e-5
-1.094, -4.906e-5
-1.093, -4.932e-5
-1.092, -4.988e-5
-1.091, -5.036e-5
-1.090, -5.061e-5
-1.089, -5.077e-5
-1.088, -5.104e-5
-1.087, -5.157e-5
-1.086, -5.211e-5
-1.085, -5.236e-5
-1.084, -5.251e-5
-1.083, -5.282e-5
-1.082, -5.335e-5
-1.081, -5.388e-5
-1.080, -5.409e-5
-1.079, -5.429e-5
-1.078, -5.462e-5
-1.077, -5.512e-5
-1.076, -5.567e-5
-1.075, -5.601e-5
-1.074, -5.614e-5
-1.073, -5.648e-5
-1.072, -5.700e-5
-1.071, -5.749e-5
-1.070, -5.782e-5
-1.069, -5.793e-5
-1.068, -5.826e-5
-1.067, -5.884e-5
-1.066, -5.936e-5
-1.065, -5.969e-5
-1.064, -5.978e-5
-1.063, -6.011e-5
-1.062, -6.071e-5
-1.061, -6.117e-5
-1.060, -6.144e-5
-1.059, -6.160e-5
-1.058, -6.194e-5
-1.057, -6.252e-5
-1.056, -6.302e-5
-1.055, -6.327e-5
-1.054, -6.344e-5
-1.053, -6.373e-5
-1.052, -6.429e-5
-1.051, -6.479e-5
-1.050, -6.503e-5
-1.049, -6.520e-5
-1.048, -6.552e-5
-1.047, -6.604e-5
-1.046, -6.657e-5
-1.045, -6.677e-5
-1.044, -6.695e-5
-1.043, -6.725e-5
-1.042, -6.777e-5
-1.041, -6.829e-5
-1.040, -6.853e-5
-1.039, -6.866e-5
-1.038, -6.902e-5
-1.037, -6.948e-5
-1.036, -6.999e-5
-1.035, -7.028e-5
-1.034, -7.032e-5
-1.033, -7.066e-5
-1.032, -7.115e-5
-1.031, -7.167e-5
-1.030, -7.191e-5
-1.029, -7.203e-5
-1.028, -7.232e-5
-1.027, -7.284e-5
-1.026, -7.334e-5
-1.025, -7.357e-5
-1.024, -7.376e-5
-1.023, -7.405e-5
-1.022, -7.457e-5
-1.021, -7.504e-5
-1.020, -7.531e-5
-1.019, -7.540e-5
-1.018, -7.573e-5
-1.017, -7.628e-5
-1.016, -7.669e-5
-1.015, -7.696e-5
-1.014, -7.711e-5
-1.013, -7.737e-5
-1.012, -7.785e-5
-1.011, -7.839e-5
-1.010, -7.861e-5
-1.009, -7.879e-5
-1.008, -7.903e-5
-1.007, -7.963e-5
-1.006, -8.013e-5
-1.005, -8.032e-5
-1.004, -8.042e-5
-1.003, -8.077e-5
-1.002, -8.131e-5
-1.001, -8.188e-5
-1.000, -7.462e-5
-1.001, -6.707e-5
-1.002, -6.251e-5
-1.003, -5.897e-5
-1.004, -5.583e-5
-1.005, -5.274e-5
-1.006, -4.982e-5
-1.007, -4.724e-5
-1.008, -4.512e-5
-1.009, -4.306e-5
-1.010, -4.074e-5
-1.011, -3.858e-5
-1.012, -3.666e-5
-1.013, -3.505e-5
-1.014, -3.350e-5
-1.015, -3.167e-5
-1.016, -2.997e-5
-1.017, -2.841e-5
-1.018, -2.713e-5
-1.019, -2.594e-5
-1.020, -2.439e-5
-1.021, -2.294e-5
-1.022, -2.171e-5
-1.023, -2.071e-5
-1.024, -1.966e-5
-1.025, -1.843e-5
-1.026, -1.719e-5
-1.027, -1.621e-5
-1.028, -1.535e-5
-1.029, -1.455e-5
-1.030, -1.348e-5
-1.031, -1.240e-5
-1.032, -1.159e-5
-1.033, -1.095e-5
-1.034, -1.023e-5
-1.035, -9.358e-6
-1.036, -8.404e-6
-1.037, -7.681e-6
-1.038, -7.167e-6
-1.039, -6.589e-6
-1.040, -5.799e-6
-1.041, -4.962e-6
-1.042, -4.344e-6
-1.043, -3.970e-6
-1.044, -3.456e-6
-1.045, -2.719e-6
-1.046, -2.009e-6
-1.047, -1.495e-6
-1.048, -1.158e-6
-1.049, -7.559e-7
-1.050, -8.504e-8
-1.051, 5.414e-7
-1.052, 9.815e-7
-1.053, 1.253e-6
-1.054, 1.587e-6
-1.055, 2.166e-6
-1.056, 2.766e-6
-1.057, 3.154e-6
-1.058, 3.363e-6
-1.059, 3.616e-6
-1.060, 4.144e-6
-1.061, 4.659e-6
-1.062, 5.027e-6
-1.063, 5.171e-6
-1.064, 5.431e-6
-1.065, 5.868e-6
-1.066, 6.380e-6
-1.067, 6.651e-6
-1.068, 6.793e-6
-1.069, 6.968e-6
-1.070, 7.389e-6
-1.071, 7.873e-6
-1.072, 8.084e-6
-1.073, 8.170e-6
-1.074, 8.335e-6
-1.075, 8.776e-6
-1.076, 9.199e-6
-1.077, 9.383e-6
-1.078, 9.431e-6
-1.079, 9.598e-6
-1.080, 9.886e-6
-1.081, 1.030e-5
-1.082, 1.053e-5
-1.083, 1.049e-5
-1.084, 1.063e-5
-1.085, 1.096e-5
-1.086, 1.134e-5
-1.087, 1.148e-5
-1.088, 1.147e-5
-1.089, 1.157e-5
-1.090, 1.192e-5
-1.091, 1.224e-5
-1.092, 1.239e-5
-1.093, 1.231e-5
-1.094, 1.244e-5
-1.095, 1.275e-5
-1.096, 1.302e-5
-1.097, 1.314e-5
-1.098, 1.311e-5
-1.099, 1.316e-5
-1.100, 1.347e-5
-1.101, 1.374e-5
-1.102, 1.384e-5
-1.103, 1.380e-5
-1.104, 1.385e-5
-1.105, 1.411e-5
-1.106, 1.442e-5
-1.107, 1.447e-5
-1.108, 1.439e-5
-1.109, 1.446e-5
-1.110, 1.469e-5
-1.111, 1.501e-5
-1.112, 1.502e-5
-1.113, 1.496e-5
-1.114, 1.504e-5
-1.115, 1.527e-5
-1.116, 1.555e-5
-1.117, 1.555e-5
-1.118, 1.546e-5
-1.119, 1.553e-5
-1.120, 1.577e-5
-1.121, 1.601e-5
-1.122, 1.605e-5
-1.123, 1.589e-5
-1.124, 1.601e-5
-1.125, 1.617e-5
-1.126, 1.646e-5
-1.127, 1.652e-5
-1.128, 1.636e-5
-1.129, 1.641e-5
-1.130, 1.662e-5
-1.131, 1.685e-5
-1.132, 1.693e-5
-1.133, 1.677e-5
-1.134, 1.684e-5
-1.135, 1.706e-5
-1.136, 1.726e-5
-1.137, 1.728e-5
-1.138, 1.719e-5
-1.139, 1.720e-5
-1.140, 1.740e-5
-1.141, 1.764e-5
-1.142, 1.764e-5
-1.143, 1.756e-5
-1.144, 1.755e-5
-1.145, 1.777e-5
-1.146, 1.803e-5
-1.147, 1.800e-5
-1.148, 1.794e-5
-1.149, 1.791e-5
-1.150, 1.811e-5
-1.151, 1.837e-5
-1.152, 1.838e-5
-1.153, 1.824e-5
-1.154, 1.831e-5
-1.155, 1.846e-5
-1.156, 1.872e-5
-1.157, 1.870e-5
-1.158, 1.859e-5
-1.159, 1.864e-5
-1.160, 1.879e-5
-1.161, 1.906e-5
-1.162, 1.904e-5
-1.163, 1.893e-5
-1.164, 1.897e-5
-1.165, 1.918e-5
-1.166, 1.941e-5
-1.167, 1.945e-5
-1.168, 1.929e-5
-1.169, 1.933e-5
-1.170, 1.953e-5
-1.171, 1.973e-5
-1.172, 1.980e-5
-1.173, 1.964e-5
-1.174, 1.964e-5
-1.175, 1.989e-5
-1.176, 2.011e-5
-1.177, 2.012e-5
-1.178, 2.003e-5
-1.179, 2.003e-5
-1.180, 2.024e-5
-1.181, 2.046e-5
-1.182, 2.044e-5
-1.183, 2.038e-5
-1.184, 2.037e-5
-1.185, 2.060e-5
-1.186, 2.081e-5
-1.187, 2.079e-5
-1.188, 2.069e-5
-1.189, 2.067e-5
-1.190, 2.092e-5
-1.191, 2.117e-5
-1.192, 2.111e-5
-1.193, 2.101e-5
-1.194, 2.104e-5
-1.195, 2.126e-5
-1.196, 2.149e-5
-1.197, 2.147e-5
-1.198, 2.134e-5
-1.199, 2.142e-5
-1.200, 2.160e-5
-1.201, 2.182e-5
-1.202, 2.179e-5
-1.203, 2.170e-5
-1.204, 2.175e-5
-1.205, 2.197e-5
-1.206, 2.213e-5
-1.207, 2.215e-5
-1.208, 2.201e-5
-1.209, 2.204e-5
-1.210, 2.229e-5
-1.211, 2.251e-5
-1.212, 2.246e-5
-1.213, 2.238e-5
-1.214, 2.238e-5
-1.215, 2.265e-5
-1.216, 2.281e-5
-1.217, 2.280e-5
-1.218, 2.273e-5
-1.219, 2.274e-5
-1.220, 2.300e-5
-1.221, 2.317e-5
-1.222, 2.316e-5
-1.223, 2.305e-5
-1.224, 2.307e-5
-1.225, 2.332e-5
-1.226, 2.352e-5
-1.227, 2.348e-5
-1.228, 2.343e-5
-1.229, 2.354e-5
-1.230, 2.372e-5
-1.231, 2.391e-5
-1.232, 2.387e-5
-1.233, 2.376e-5
-1.234, 2.386e-5
-1.235, 2.405e-5
-1.236, 2.430e-5
-1.237, 2.427e-5
-1.238, 2.415e-5
-1.239, 2.424e-5
-1.240, 2.444e-5
-1.241, 2.467e-5
-1.242, 2.471e-5
-1.243, 2.456e-5
-1.244, 2.466e-5
-1.245, 2.491e-5
-1.246, 2.512e-5
-1.247, 2.510e-5
-1.248, 2.500e-5
-1.249, 2.508e-5
-1.250, 2.536e-5
-1.251, 2.556e-5
-1.252, 2.555e-5
-1.253, 2.546e-5
-1.254, 2.556e-5
-1.255, 2.584e-5
-1.256, 2.606e-5
-1.257, 2.606e-5
-1.258, 2.598e-5
-1.259, 2.607e-5
-1.260, 2.636e-5
-1.261, 2.657e-5
-1.262, 2.655e-5
-1.263, 2.655e-5
-1.264, 2.662e-5
-1.265, 2.693e-5
-1.266, 2.717e-5
-1.267, 2.716e-5
-1.268, 2.714e-5
-1.269, 2.728e-5
-1.270, 2.757e-5
-1.271, 2.785e-5
-1.272, 2.782e-5
-1.273, 2.781e-5
-1.274, 2.795e-5
-1.275, 2.821e-5
-1.276, 2.855e-5
-1.277, 2.849e-5
-1.278, 2.851e-5
-1.279, 2.865e-5
-1.280, 2.904e-5
-1.281, 2.929e-5
-1.282, 2.932e-5
-1.283, 2.927e-5
-1.284, 2.948e-5
-1.285, 2.980e-5
-1.286, 3.008e-5
-1.287, 3.013e-5
-1.288, 3.011e-5
-1.289, 3.033e-5
-1.290, 3.072e-5
-1.291, 3.099e-5
-1.292, 3.103e-5
-1.293, 3.108e-5
-1.294, 3.126e-5
-1.295, 3.164e-5
-1.296, 3.193e-5
-1.297, 3.196e-5
-1.298, 3.203e-5
-1.299, 3.224e-5
-1.300, 3.262e-5
-1.301, 3.294e-5
-1.302, 3.300e-5
-1.303, 3.307e-5
-1.304, 3.329e-5
-1.305, 3.368e-5
-1.306, 3.405e-5
-1.307, 3.410e-5
-1.308, 3.418e-5
-1.309, 3.443e-5
-1.310, 3.487e-5
-1.311, 3.520e-5
-1.312, 3.528e-5
-1.313, 3.536e-5
-1.314, 3.565e-5
-1.315, 3.604e-5
-1.316, 3.649e-5
-1.317, 3.655e-5
-1.318, 3.667e-5
-1.319, 3.700e-5
-1.320, 3.738e-5
-1.321, 3.777e-5
-1.322, 3.790e-5
-1.323, 3.802e-5
-1.324, 3.836e-5
-1.325, 3.880e-5
-1.326, 3.921e-5
-1.327, 3.935e-5
-1.328, 3.946e-5
-1.329, 3.982e-5
-1.330, 4.036e-5
-1.331, 4.071e-5
-1.332, 4.086e-5
-1.333, 4.104e-5
-1.334, 4.137e-5
-1.335, 4.187e-5
-1.336, 4.227e-5
-1.337, 4.249e-5
-1.338, 4.270e-5
-1.339, 4.306e-5
-1.340, 4.361e-5
-1.341, 4.403e-5
-1.342, 4.422e-5
-1.343, 4.444e-5
-1.344, 4.480e-5
-1.345, 4.535e-5
-1.346, 4.579e-5
-1.347, 4.603e-5
-1.348, 4.624e-5
-1.349, 4.659e-5
-1.350, 4.724e-5
-1.351, 4.767e-5
-1.352, 4.791e-5
-1.353, 4.815e-5
-1.354, 4.856e-5
-1.355, 4.916e-5
-1.356, 4.964e-5
-1.357, 4.992e-5
-1.358, 5.014e-5
-1.359, 5.064e-5
-1.360, 5.123e-5
-1.361, 5.168e-5
-1.362, 5.203e-5
-1.363, 5.229e-5
-1.364, 5.280e-5
-1.365, 5.337e-5
-1.366, 5.388e-5
-1.367, 5.428e-5
-1.368, 5.452e-5
-1.369, 5.502e-5
-1.370, 5.576e-5
-1.371, 5.626e-5
-1.372, 5.660e-5
-1.373, 5.686e-5
-1.374, 5.739e-5
-1.375, 5.812e-5
-1.376, 5.860e-5
-1.377, 5.901e-5
-1.378, 5.937e-5
-1.379, 5.994e-5
-1.380, 6.060e-5
-1.381, 6.120e-5
-1.382, 6.163e-5
-1.383, 6.201e-5
-1.384, 6.259e-5
-1.385, 6.328e-5
-1.386, 6.394e-5
-1.387, 6.434e-5
-1.388, 6.475e-5
-1.389, 6.541e-5
-1.390, 6.614e-5
-1.391, 6.676e-5
-1.392, 6.719e-5
-1.393, 6.757e-5
-1.394, 6.826e-5
-1.395, 6.901e-5
-1.396, 6.969e-5
-1.397, 7.013e-5
-1.398, 7.059e-5
-1.399, 7.128e-5
-1.400, 7.209e-5
-1.401, 7.280e-5
-1.402, 7.328e-5
-1.403, 7.374e-5
-1.404, 7.444e-5
-1.405, 7.527e-5
-1.406, 7.598e-5
-1.407, 7.658e-5
-1.408, 7.712e-5
-1.409, 7.781e-5
-1.410, 7.871e-5
-1.411, 7.943e-5
-1.412, 8.001e-5
-1.413, 8.054e-5
-1.414, 8.129e-5
-1.415, 8.224e-5
-1.416, 8.298e-5
-1.417, 8.356e-5
-1.418, 8.419e-5
-1.419, 8.495e-5
-1.420, 8.595e-5
-1.421, 8.673e-5
-1.422, 8.734e-5
-1.423, 8.798e-5
-1.424, 8.881e-5
-1.425, 8.982e-5
-1.426, 9.069e-5
-1.427, 9.133e-5
-1.428, 9.199e-5
-1.429, 9.288e-5
-1.430, 9.391e-5
-1.431, 9.485e-5
-1.432, 9.549e-5
-1.433, 9.627e-5
-1.434, 9.722e-5
-1.435, 9.830e-5
-1.436, 9.926e-5
-1.437, 1.000e-4
-1.438, 1.008e-4
-1.439, 1.018e-4
-1.440, 1.029e-4
-1.441, 1.039e-4
-1.442, 1.047e-4
-1.443, 1.054e-4
-1.444, 1.064e-4
-1.445, 1.076e-4
-1.446, 1.087e-4
-1.447, 1.095e-4
-1.448, 1.103e-4
-1.449, 1.114e-4
-1.450, 1.126e-4
-1.451, 1.136e-4
-1.452, 1.145e-4
-1.453, 1.154e-4
-1.454, 1.165e-4
-1.455, 1.178e-4
-1.456, 1.188e-4
-1.457, 1.198e-4
-1.458, 1.207e-4
-1.459, 1.219e-4
-1.460, 1.233e-4
-1.461, 1.244e-4
-1.462, 1.253e-4
-1.463, 1.264e-4
-1.464, 1.276e-4
-1.465, 1.291e-4
-1.466, 1.302e-4
-1.467, 1.313e-4
-1.468, 1.324e-4
-1.469, 1.337e-4
-1.470, 1.351e-4
-1.471, 1.365e-4
-1.472, 1.376e-4
-1.473, 1.387e-4
-1.474, 1.401e-4
-1.475, 1.416e-4
-1.476, 1.430e-4
-1.477, 1.441e-4
-1.478, 1.453e-4
-1.479, 1.469e-4
-1.480, 1.484e-4
-1.481, 1.498e-4
-1.482, 1.513e-4
-1.483, 1.526e-4
-1.484, 1.542e-4
-1.485, 1.559e-4
-1.486, 1.574e-4
-1.487, 1.587e-4
-1.488, 1.600e-4
-1.489, 1.616e-4
-1.490, 1.633e-4
-1.491, 1.649e-4
-1.492, 1.663e-4
-1.493, 1.678e-4
-1.494, 1.695e-4
-1.495, 1.713e-4
-1.496, 1.728e-4
-1.497, 1.744e-4
-1.498, 1.759e-4
-1.499, 1.777e-4
-1.500, 1.796e-4
-1.501, 1.813e-4
-1.502, 1.828e-4
-1.503, 1.845e-4
-1.504, 1.862e-4
-1.505, 1.883e-4
-1.506, 1.901e-4
-1.507, 1.917e-4
-1.508, 1.934e-4
-1.509, 1.954e-4
-1.510, 1.976e-4
-1.511, 1.994e-4
-1.512, 2.012e-4
-1.513, 2.030e-4
-1.514, 2.052e-4
-1.515, 2.072e-4
-1.516, 2.092e-4
-1.517, 2.110e-4
-1.518, 2.128e-4
-1.519, 2.148e-4
-1.520, 2.170e-4
-1.521, 2.191e-4
-1.522, 2.208e-4
-1.523, 2.229e-4
-1.524, 2.251e-4
-1.525, 2.274e-4
-1.526, 2.295e-4
-1.527, 2.315e-4
-1.528, 2.335e-4
-1.529, 2.359e-4
-1.530, 2.380e-4
-1.531, 2.403e-4
-1.532, 2.422e-4
-1.533, 2.440e-4
-1.534, 2.462e-4
-1.535, 2.486e-4
-1.536, 2.507e-4
-1.537, 2.527e-4
-1.538, 2.547e-4
-1.539, 2.570e-4
-1.540, 2.595e-4
-1.541, 2.616e-4
-1.542, 2.638e-4
-1.543, 2.659e-4
-1.544, 2.683e-4
-1.545, 2.707e-4
-1.546, 2.731e-4
-1.547, 2.754e-4
-1.548, 2.777e-4
-1.549, 2.801e-4
-1.550, 2.826e-4
-1.551, 2.851e-4
-1.552, 2.872e-4
-1.553, 2.897e-4
-1.554, 2.924e-4
-1.555, 2.951e-4
-1.556, 2.976e-4
-1.557, 3.000e-4
-1.558, 3.025e-4
-1.559, 3.052e-4
-1.560, 3.079e-4
-1.561, 3.107e-4
-1.562, 3.132e-4
-1.563, 3.157e-4
-1.564, 3.187e-4
-1.565, 3.216e-4
-1.566, 3.244e-4
-1.567, 3.271e-4
-1.568, 3.299e-4
-1.569, 3.330e-4
-1.570, 3.361e-4
-1.571, 3.391e-4
-1.572, 3.418e-4
-1.573, 3.447e-4
-1.574, 3.478e-4
-1.575, 3.510e-4
-1.576, 3.541e-4
-1.577, 3.569e-4
-1.578, 3.596e-4
-1.579, 3.627e-4
-1.580, 3.661e-4
-1.581, 3.694e-4
-1.582, 3.724e-4
-1.583, 3.754e-4
-1.584, 3.789e-4
-1.585, 3.824e-4
-1.586, 3.855e-4
-1.587, 3.887e-4
-1.588, 3.920e-4
-1.589, 3.957e-4
-1.590, 3.991e-4
-1.591, 4.027e-4
-1.592, 4.059e-4
-1.593, 4.093e-4
-1.594, 4.130e-4
-1.595, 4.167e-4
-1.596, 4.204e-4
-1.597, 4.238e-4
-1.598, 4.274e-4
-1.599, 4.314e-4
-1.600, 4.280e-4
-1.599, 4.218e-4
-1.598, 4.167e-4
-1.597, 4.120e-4
-1.596, 4.073e-4
-1.595, 4.028e-4
-1.594, 3.981e-4
-1.593, 3.935e-4
-1.592, 3.889e-4
-1.591, 3.845e-4
-1.590, 3.804e-4
-1.589, 3.760e-4
-1.588, 3.713e-4
-1.587, 3.669e-4
-1.586, 3.630e-4
-1.585, 3.591e-4
-1.584, 3.548e-4
-1.583, 3.507e-4
-1.582, 3.466e-4
-1.581, 3.427e-4
-1.580, 3.389e-4
-1.579, 3.350e-4
-1.578, 3.311e-4
-1.577, 3.270e-4
-1.576, 3.234e-4
-1.575, 3.199e-4
-1.574, 3.161e-4
-1.573, 3.121e-4
-1.572, 3.083e-4
-1.571, 3.050e-4
-1.570, 3.015e-4
-1.569, 2.980e-4
-1.568, 2.944e-4
-1.567, 2.909e-4
-1.566, 2.875e-4
-1.565, 2.844e-4
-1.564, 2.810e-4
-1.563, 2.775e-4
-1.562, 2.740e-4
-1.561, 2.708e-4
-1.560, 2.678e-4
-1.559, 2.647e-4
-1.558, 2.614e-4
-1.557, 2.584e-4
-1.556, 2.552e-4
-1.555, 2.522e-4
-1.554, 2.493e-4
-1.553, 2.461e-4
-1.552, 2.432e-4
-1.551, 2.403e-4
-1.550, 2.375e-4
-1.549, 2.346e-4
-1.548, 2.315e-4
-1.547, 2.284e-4
-1.546, 2.258e-4
-1.545, 2.232e-4
-1.544, 2.204e-4
-1.543, 2.174e-4
-1.542, 2.147e-4
-1.541, 2.122e-4
-1.540, 2.097e-4
-1.539, 2.069e-4
-1.538, 2.042e-4
-1.537, 2.015e-4
-1.536, 1.991e-4
-1.535, 1.967e-4
-1.534, 1.942e-4
-1.533, 1.916e-4
-1.532, 1.890e-4
-1.531, 1.867e-4
-1.530, 1.845e-4
-1.529, 1.821e-4
-1.528, 1.795e-4
-1.527, 1.774e-4
-1.526, 1.752e-4
-1.525, 1.732e-4
-1.524, 1.709e-4
-1.523, 1.685e-4
-1.522, 1.662e-4
-1.521, 1.641e-4
-1.520, 1.621e-4
-1.519, 1.599e-4
-1.518, 1.576e-4
-1.517, 1.554e-4
-1.516, 1.535e-4
-1.515, 1.516e-4
-1.514, 1.495e-4
-1.513, 1.473e-4
-1.512, 1.453e-4
-1.511, 1.435e-4
-1.510, 1.417e-4
-1.509, 1.398e-4
-1.508, 1.377e-4
-1.507, 1.357e-4
-1.506, 1.340e-4
-1.505, 1.324e-4
-1.504, 1.306e-4
-1.503, 1.285e-4
-1.502, 1.266e-4
-1.501, 1.251e-4
-1.500, 1.235e-4
-1.499, 1.217e-4
-1.498, 1.199e-4
-1.497, 1.181e-4
-1.496, 1.166e-4
-1.495, 1.152e-4
-1.494, 1.136e-4
-1.493, 1.118e-4
-1.492, 1.101e-4
-1.491, 1.087e-4
-1.490, 1.074e-4
-1.489, 1.058e-4
-1.488, 1.041e-4
-1.487, 1.025e-4
-1.486, 1.012e-4
-1.485, 9.983e-5
-1.484, 9.831e-5
-1.483, 9.672e-5
-1.482, 9.526e-5
-1.481, 9.396e-5
-1.480, 9.274e-5
-1.479, 9.133e-5
-1.478, 8.968e-5
-1.477, 8.829e-5
-1.476, 8.698e-5
-1.475, 8.583e-5
-1.474, 8.447e-5
-1.473, 8.290e-5
-1.472, 8.163e-5
-1.471, 8.045e-5
-1.470, 7.932e-5
-1.469, 7.801e-5
-1.468, 7.658e-5
-1.467, 7.529e-5
-1.466, 7.421e-5
-1.465, 7.316e-5
-1.464, 7.198e-5
-1.463, 7.059e-5
-1.462, 6.934e-5
-1.461, 6.836e-5
-1.460, 6.740e-5
-1.459, 6.622e-5
-1.458, 6.490e-5
-1.457, 6.378e-5
-1.456, 6.286e-5
-1.455, 6.193e-5
-1.454, 6.084e-5
-1.453, 5.960e-5
-1.452, 5.851e-5
-1.451, 5.757e-5
-1.450, 5.679e-5
-1.449, 5.573e-5
-1.448, 5.458e-5
-1.447, 5.349e-5
-1.446, 5.265e-5
-1.445, 5.194e-5
-1.444, 5.094e-5
-1.443, 4.979e-5
-1.442, 4.881e-5
-1.441, 4.798e-5
-1.440, 4.731e-5
-1.439, 4.635e-5
-1.438, 4.525e-5
-1.437, 4.440e-5
-1.436, 4.363e-5
-1.435, 4.296e-5
-1.434, 4.208e-5
-1.433, 4.102e-5
-1.432, 4.018e-5
-1.431, 3.946e-5
-1.430, 3.879e-5
-1.429, 3.802e-5
-1.428, 3.703e-5
-1.427, 3.617e-5
-1.426, 3.559e-5
-1.425, 3.499e-5
-1.424, 3.422e-5
-1.423, 3.324e-5
-1.422, 3.244e-5
-1.421, 3.187e-5
-1.420, 3.129e-5
-1.419, 3.055e-5
-1.418, 2.968e-5
-1.417, 2.889e-5
-1.416, 2.842e-5
-1.415, 2.793e-5
-1.414, 2.717e-5
-1.413, 2.634e-5
-1.412, 2.560e-5
-1.411, 2.508e-5
-1.410, 2.461e-5
-1.409, 2.392e-5
-1.408, 2.307e-5
-1.407, 2.236e-5
-1.406, 2.188e-5
-1.405, 2.149e-5
-1.404, 2.088e-5
-1.403, 2.001e-5
-1.402, 1.941e-5
-1.401, 1.896e-5
-1.400, 1.856e-5
-1.399, 1.792e-5
-1.398, 1.716e-5
-1.397, 1.661e-5
-1.396, 1.620e-5
-1.395, 1.583e-5
-1.394, 1.523e-5
-1.393, 1.446e-5
-1.392, 1.392e-5
-1.391, 1.353e-5
-1.390, 1.320e-5
-1.389, 1.265e-5
-1.388, 1.196e-5
-1.387, 1.141e-5
-1.386, 1.112e-5
-1.385, 1.077e-5
-1.384, 1.030e-5
-1.383, 9.571e-6
-1.382, 9.067e-6
-1.381, 8.827e-6
-1.380, 8.554e-6
-1.379, 8.061e-6
-1.378, 7.425e-6
-1.377, 6.933e-6
-1.376, 6.697e-6
-1.375, 6.400e-6
-1.374, 5.925e-6
-1.373, 5.377e-6
-1.372, 4.894e-6
-1.371, 4.625e-6
-1.370, 4.408e-6
-1.369, 3.867e-6
-1.368, 3.321e-6
-1.367, 2.879e-6
-1.366, 2.653e-6
-1.365, 2.484e-6
-1.364, 2.028e-6
-1.363, 1.458e-6
-1.362, 1.027e-6
-1.361, 8.226e-7
-1.360, 6.539e-7
-1.359, 2.395e-7
-1.358, -3.356e-7
-1.357, -6.849e-7
-1.356, -8.822e-7
-1.355, -1.087e-6
-1.354, -1.439e-6
-1.353, -1.996e-6
-1.352, -2.341e-6
-1.351, -2.506e-6
-1.350, -2.687e-6
-1.349, -3.065e-6
-1.348, -3.539e-6
-1.347, -3.914e-6
-1.346, -3.999e-6
-1.345, -4.215e-6
-1.344, -4.541e-6
-1.343, -4.972e-6
-1.342, -5.303e-6
-1.341, -5.362e-6
-1.340, -5.498e-6
-1.339, -5.859e-6
-1.338, -6.346e-6
-1.337, -6.707e-6
-1.336, -6.756e-6
-1.335, -6.908e-6
-1.334, -7.254e-6
-1.333, -7.657e-6
-1.332, -7.996e-6
-1.331, -8.066e-6
-1.330, -8.186e-6
-1.329, -8.516e-6
-1.328, -8.927e-6
-1.327, -9.230e-6
-1.326, -9.372e-6
-1.325, -9.373e-6
-1.324, -9.744e-6
-1.323, -1.016e-5
-1.322, -1.040e-5
-1.321, -1.050e-5
-1.320, -1.056e-5
-1.319, -1.088e-5
-1.318, -1.127e-5
-1.317, -1.157e-5
-1.316, -1.160e-5
-1.315, -1.168e-5
-1.314, -1.197e-5
-1.313, -1.237e-5
-1.312, -1.261e-5
-1.311, -1.267e-5
-1.310, -1.276e-5
-1.309, -1.301e-5
-1.308, -1.344e-5
-1.307, -1.367e-5
-1.306, -1.370e-5
-1.305, -1.381e-5
-1.304, -1.407e-5
-1.303, -1.446e-5
-1.302, -1.467e-5
-1.301, -1.471e-5
-1.300, -1.472e-5
-1.299, -1.504e-5
-1.298, -1.544e-5
-1.297, -1.569e-5
-1.296, -1.567e-5
-1.295, -1.577e-5
-1.294, -1.607e-5
-1.293, -1.644e-5
-1.292, -1.665e-5
-1.291, -1.668e-5
-1.290, -1.671e-5
-1.289, -1.702e-5
-1.288, -1.737e-5
-1.287, -1.756e-5
-1.286, -1.761e-5
-1.285, -1.763e-5
-1.284, -1.791e-5
-1.283, -1.830e-5
-1.282, -1.846e-5
-1.281, -1.851e-5
-1.280, -1.856e-5
-1.279, -1.882e-5
-1.278, -1.920e-5
-1.277, -1.940e-5
-1.276, -1.937e-5
-1.275, -1.941e-5
-1.274, -1.970e-5
-1.273, -2.006e-5
-1.272, -2.021e-5
-1.271, -2.026e-5
-1.270, -2.029e-5
-1.269, -2.055e-5
-1.268, -2.090e-5
-1.267, -2.109e-5
-1.266, -2.108e-5
-1.265, -2.112e-5
-1.264, -2.136e-5
-1.263, -2.170e-5
-1.262, -2.195e-5
-1.261, -2.184e-5
-1.260, -2.193e-5
-1.259, -2.215e-5
-1.258, -2.250e-5
-1.257, -2.271e-5
-1.256, -2.262e-5
-1.255, -2.263e-5
-1.254, -2.295e-5
-1.253, -2.323e-5
-1.252, -2.336e-5
-1.251, -2.334e-5
-1.250, -2.328e-5
-1.249, -2.359e-5
-1.248, -2.385e-5
-1.247, -2.398e-5
-1.246, -2.395e-5
-1.245, -2.387e-5
-1.244, -2.409e-5
-1.243, -2.438e-5
-1.242, -2.453e-5
-1.241, -2.444e-5
-1.240, -2.433e-5
-1.239, -2.452e-5
-1.238, -2.480e-5
-1.237, -2.485e-5
-1.236, -2.477e-5
-1.235, -2.470e-5
-1.234, -2.482e-5
-1.233, -2.508e-5
-1.232, -2.510e-5
-1.231, -2.496e-5
-1.230, -2.487e-5
-1.229, -2.515e-5
-1.228, -2.532e-5
-1.227, -2.537e-5
-1.226, -2.519e-5
-1.225, -2.508e-5
-1.224, -2.518e-5
-1.223, -2.541e-5
-1.222, -2.551e-5
-1.221, -2.528e-5
-1.220, -2.517e-5
-1.219, -2.531e-5
-1.218, -2.551e-5
-1.217, -2.559e-5
-1.216, -2.540e-5
-1.215, -2.530e-5
-1.214, -2.544e-5
-1.213, -2.565e-5
-1.212, -2.572e-5
-1.211, -2.557e-5
-1.210, -2.543e-5
-1.209, -2.561e-5
-1.208, -2.585e-5
-1.207, -2.586e-5
-1.206, -2.578e-5
-1.205, -2.565e-5
-1.204, -2.586e-5
-1.203, -2.607e-5
-1.202, -2.613e-5
-1.201, -2.606e-5
-1.200, -2.592e-5
-1.199, -2.612e-5
-1.198, -2.636e-5
-1.197, -2.644e-5
-1.196, -2.634e-5
-1.195, -2.627e-5
-1.194, -2.648e-5
-1.193, -2.677e-5
-1.192, -2.683e-5
-1.191, -2.676e-5
-1.190, -2.673e-5
-1.189, -2.694e-5
-1.188, -2.723e-5
-1.187, -2.733e-5
-1.186, -2.728e-5
-1.185, -2.726e-5
-1.184, -2.744e-5
-1.183, -2.777e-5
-1.182, -2.792e-5
-1.181, -2.784e-5
-1.180, -2.780e-5
-1.179, -2.808e-5
-1.178, -2.842e-5
-1.177, -2.856e-5
-1.176, -2.851e-5
-1.175, -2.848e-5
-1.174, -2.877e-5
-1.173, -2.908e-5
-1.172, -2.925e-5
-1.171, -2.924e-5
-1.170, -2.921e-5
-1.169, -2.957e-5
-1.168, -2.981e-5
-1.167, -3.001e-5
-1.166, -3.001e-5
-1.165, -3.000e-5
-1.164, -3.032e-5
-1.163, -3.070e-5
-1.162, -3.085e-5
-1.161, -3.089e-5
-1.160, -3.090e-5
-1.159, -3.119e-5
-1.158, -3.160e-5
-1.157, -3.172e-5
-1.156, -3.176e-5
-1.155, -3.183e-5
-1.154, -3.212e-5
-1.153, -3.253e-5
-1.152, -3.272e-5
-1.151, -3.274e-5
-1.150, -3.280e-5
-1.149, -3.315e-5
-1.148, -3.350e-5
-1.147, -3.373e-5
-1.146, -3.380e-5
-1.145, -3.390e-5
-1.144, -3.416e-5
-1.143, -3.452e-5
-1.142, -3.481e-5
-1.141, -3.479e-5
-1.140, -3.490e-5
-1.139, -3.526e-5
-1.138, -3.565e-5
-1.137, -3.591e-5
-1.136, -3.591e-5
-1.135, -3.600e-5
-1.134, -3.647e-5
-1.133, -3.683e-5
-1.132, -3.706e-5
-1.131, -3.719e-5
-1.130, -3.724e-5
-1.129, -3.765e-5
-1.128, -3.806e-5
-1.127, -3.832e-5
-1.126, -3.845e-5
-1.125, -3.852e-5
-1.124, -3.895e-5
-1.123, -3.941e-5
-1.122, -3.965e-5
-1.121, -3.981e-5
-1.120, -4.002e-5
-1.119, -4.028e-5
-1.118, -4.076e-5
-1.117, -4.103e-5
-1.116, -4.115e-5
-1.115, -4.130e-5
-1.114, -4.172e-5
-1.113, -4.217e-5
-1.112, -4.247e-5
-1.111, -4.256e-5
-1.110, -4.280e-5
-1.109, -4.318e-5
-1.108, -4.373e-5
-1.107, -4.396e-5
-1.106, -4.409e-5
-1.105, -4.426e-5
-1.104, -4.468e-5
-1.103, -4.519e-5
-1.102, -4.551e-5
-1.101, -4.562e-5
-1.100, -4.582e-5
-1.099, -4.626e-5
-1.098, -4.672e-5
-1.097, -4.713e-5
-1.096, -4.739e-5
-1.095, -4.754e-5
-1.094, -4.800e-5
-1.093, -4.849e-5
-1.092, -4.881e-5
-1.091, -4.898e-5
-1.090, -4.915e-5
-1.089, -4.965e-5
-1.088, -5.017e-5
-1.087, -5.050e-5
-1.086, -5.068e-5
-1.085, -5.084e-5
-1.084, -5.136e-5
-1.083, -5.187e-5
-1.082, -5.226e-5
-1.081, -5.243e-5
-1.080, -5.259e-5
-1.079, -5.309e-5
-1.078, -5.368e-5
-1.077, -5.392e-5
-1.076, -5.414e-5
-1.075, -5.440e-5
-1.074, -5.489e-5
-1.073, -5.543e-5
-1.072, -5.579e-5
-1.071, -5.596e-5
-1.070, -5.618e-5
-1.069, -5.669e-5
-1.068, -5.722e-5
-1.067, -5.760e-5
-1.066, -5.779e-5
-1.065, -5.801e-5
-1.064, -5.851e-5
-1.063, -5.907e-5
-1.062, -5.951e-5
-1.061, -5.965e-5
-1.060, -5.989e-5
-1.059, -6.040e-5
-1.058, -6.097e-5
-1.057, -6.135e-5
-1.056, -6.147e-5
-1.055, -6.174e-5
-1.054, -6.230e-5
-1.053, -6.280e-5
-1.052, -6.315e-5
-1.051, -6.337e-5
-1.050, -6.360e-5
-1.049, -6.413e-5
-1.048, -6.460e-5
-1.047, -6.503e-5
-1.046, -6.518e-5
-1.045, -6.536e-5
-1.044, -6.588e-5
-1.043, -6.646e-5
-1.042, -6.679e-5
-1.041, -6.697e-5
-1.040, -6.718e-5
-1.039, -6.768e-5
-1.038, -6.822e-5
-1.037, -6.855e-5
-1.036, -6.874e-5
-1.035, -6.894e-5
-1.034, -6.938e-5
-1.033, -6.998e-5
-1.032, -7.028e-5
-1.031, -7.040e-5
-1.030, -7.067e-5
-1.029, -7.116e-5
-1.028, -7.169e-5
-1.027, -7.201e-5
-1.026, -7.216e-5
-1.025, -7.243e-5
-1.024, -7.295e-5
-1.023, -7.345e-5
-1.022, -7.379e-5
-1.021, -7.393e-5
-1.020, -7.411e-5
-1.019, -7.459e-5
-1.018, -7.515e-5
-1.017, -7.555e-5
-1.016, -7.571e-5
-1.015, -7.592e-5
-1.014, -7.646e-5
-1.013, -7.697e-5
-1.012, -7.733e-5
-1.011, -7.754e-5
-1.010, -7.774e-5
-1.009, -7.837e-5
-1.008, -7.885e-5
-1.007, -7.925e-5
-1.006, -7.948e-5
-1.005, -7.963e-5
-1.004, -8.018e-5
-1.003, -8.078e-5
-1.002, -8.118e-5
-1.001, -8.134e-5
-1.000, -7.361e-5
-1.001, -6.572e-5
-1.002, -6.095e-5
-1.003, -5.710e-5
-1.004, -5.355e-5
-1.005, -5.043e-5
-1.006, -4.785e-5
-1.007, -4.548e-5
-1.008, -4.309e-5
-1.009, -4.067e-5
-1.010, -3.843e-5
-1.011, -3.660e-5
-1.012, -3.490e-5
-1.013, -3.311e-5
-1.014, -3.117e-5
-1.015, -2.942e-5
-1.016, -2.805e-5
-1.017, -2.675e-5
-1.018, -2.529e-5
-1.019, -2.374e-5
-1.020, -2.229e-5
-1.021, -2.118e-5
-1.022, -2.015e-5
-1.023, -1.898e-5
-1.024, -1.762e-5
-1.025, -1.643e-5
-1.026, -1.553e-5
-1.027, -1.474e-5
-1.028, -1.375e-5
-1.029, -1.263e-5
-1.030, -1.162e-5
-1.031, -1.084e-5
-1.032, -1.026e-5
-1.033, -9.383e-6
-1.034, -8.372e-6
-1.035, -7.541e-6
-1.036, -6.896e-6
-1.037, -6.398e-6
-1.038, -5.673e-6
-1.039, -4.819e-6
-1.040, -4.077e-6
-1.041, -3.595e-6
-1.042, -3.135e-6
-1.043, -2.537e-6
-1.044, -1.783e-6
-1.045, -1.134e-6
-1.046, -7.579e-7
-1.047, -3.702e-7
-1.048, 1.152e-7
-1.049, 8.068e-7
-1.050, 1.444e-6
-1.051, 1.716e-6
-1.052, 1.992e-6
-1.053, 2.454e-6
-1.054, 3.082e-6
-1.055, 3.619e-6
-1.056, 3.847e-6
-1.057, 4.086e-6
-1.058, 4.476e-6
-1.059, 5.038e-6
-1.060, 5.507e-6
-1.061, 5.715e-6
-1.062, 5.860e-6
-1.063, 6.262e-6
-1.064, 6.752e-6
-1.065, 7.164e-6
-1.066, 7.339e-6
-1.067, 7.424e-6
-1.068, 7.773e-6
-1.069, 8.238e-6
-1.070, 8.583e-6
-1.071, 8.778e-6
-1.072, 8.810e-6
-1.073, 9.093e-6
-1.074, 9.572e-6
-1.075, 9.912e-6
-1.076, 1.003e-5
-1.077, 1.002e-5
-1.078, 1.028e-5
-1.079, 1.073e-5
-1.080, 1.098e-5
-1.081, 1.106e-5
-1.082, 1.109e-5
-1.083, 1.132e-5
-1.084, 1.170e-5
-1.085, 1.193e-5
-1.086, 1.203e-5
-1.087, 1.203e-5
-1.088, 1.218e-5
-1.089, 1.255e-5
-1.090, 1.281e-5
-1.091, 1.284e-5
-1.092, 1.281e-5
-1.093, 1.297e-5
-1.094, 1.333e-5
-1.095, 1.355e-5
-1.096, 1.352e-5
-1.097, 1.348e-5
-1.098, 1.368e-5
-1.099, 1.396e-5
-1.100, 1.421e-5
-1.101, 1.418e-5
-1.102, 1.413e-5
-1.103, 1.426e-5
-1.104, 1.454e-5
-1.105, 1.476e-5
-1.106, 1.472e-5
-1.107, 1.463e-5
-1.108, 1.478e-5
-1.109, 1.506e-5
-1.110, 1.524e-5
-1.111, 1.519e-5
-1.112, 1.509e-5
-1.113, 1.525e-5
-1.114, 1.555e-5
-1.115, 1.568e-5
-1.116, 1.564e-5
-1.117, 1.551e-5
-1.118, 1.564e-5
-1.119, 1.589e-5
-1.120, 1.607e-5
-1.121, 1.605e-5
-1.122, 1.591e-5
-1.123, 1.600e-5
-1.124, 1.627e-5
-1.125, 1.643e-5
-1.126, 1.635e-5
-1.127, 1.627e-5
-1.128, 1.634e-5
-1.129, 1.662e-5
-1.130, 1.672e-5
-1.131, 1.665e-5
-1.132, 1.655e-5
-1.133, 1.663e-5
-1.134, 1.691e-5
-1.135, 1.704e-5
-1.136, 1.693e-5
-1.137, 1.685e-5
-1.138, 1.692e-5
-1.139, 1.719e-5
-1.140, 1.731e-5
-1.141, 1.721e-5
-1.142, 1.713e-5
-1.143, 1.724e-5
-1.144, 1.742e-5
-1.145, 1.755e-5
-1.146, 1.747e-5
-1.147, 1.738e-5
-1.148, 1.746e-5
-1.149, 1.769e-5
-1.150, 1.784e-5
-1.151, 1.774e-5
-1.152, 1.763e-5
-1.153, 1.772e-5
-1.154, 1.796e-5
-1.155, 1.805e-5
-1.156, 1.804e-5
-1.157, 1.788e-5
-1.158, 1.795e-5
-1.159, 1.823e-5
-1.160, 1.828e-5
-1.161, 1.825e-5
-1.162, 1.815e-5
-1.163, 1.822e-5
-1.164, 1.848e-5
-1.165, 1.858e-5
-1.166, 1.851e-5
-1.167, 1.842e-5
-1.168, 1.848e-5
-1.169, 1.871e-5
-1.170, 1.883e-5
-1.171, 1.877e-5
-1.172, 1.865e-5
-1.173, 1.876e-5
-1.174, 1.900e-5
-1.175, 1.913e-5
-1.176, 1.903e-5
-1.177, 1.895e-5
-1.178, 1.907e-5
-1.179, 1.927e-5
-1.180, 1.940e-5
-1.181, 1.928e-5
-1.182, 1.919e-5
-1.183, 1.931e-5
-1.184, 1.954e-5
-1.185, 1.964e-5
-1.186, 1.958e-5
-1.187, 1.943e-5
-1.188, 1.956e-5
-1.189, 1.981e-5
-1.190, 1.991e-5
-1.191, 1.989e-5
-1.192, 1.971e-5
-1.193, 1.981e-5
-1.194, 2.008e-5
-1.195, 2.016e-5
-1.196, 2.012e-5
-1.197, 1.997e-5
-1.198, 2.008e-5
-1.199, 2.036e-5
-1.200, 2.044e-5
-1.201, 2.038e-5
-1.202, 2.027e-5
-1.203, 2.037e-5
-1.204, 2.062e-5
-1.205, 2.071e-5
-1.206, 2.065e-5
-1.207, 2.059e-5
-1.208, 2.062e-5
-1.209, 2.090e-5
-1.210, 2.103e-5
-1.211, 2.095e-5
-1.212, 2.086e-5
-1.213, 2.090e-5
-1.214, 2.115e-5
-1.215, 2.128e-5
-1.216, 2.123e-5
-1.217, 2.110e-5
-1.218, 2.123e-5
-1.219, 2.146e-5
-1.220, 2.158e-5
-1.221, 2.151e-5
-1.222, 2.143e-5
-1.223, 2.157e-5
-1.224, 2.178e-5
-1.225, 2.186e-5
-1.226, 2.183e-5
-1.227, 2.170e-5
-1.228, 2.188e-5
-1.229, 2.220e-5
-1.230, 2.225e-5
-1.231, 2.223e-5
-1.232, 2.205e-5
-1.233, 2.218e-5
-1.234, 2.243e-5
-1.235, 2.254e-5
-1.236, 2.256e-5
-1.237, 2.240e-5
-1.238, 2.251e-5
-1.239, 2.282e-5
-1.240, 2.290e-5
-1.241, 2.286e-5
-1.242, 2.280e-5
-1.243, 2.289e-5
-1.244, 2.319e-5
-1.245, 2.328e-5
-1.246, 2.326e-5
-1.247, 2.317e-5
-1.248, 2.324e-5
-1.249, 2.357e-5
-1.250, 2.369e-5
-1.251, 2.362e-5
-1.252, 2.359e-5
-1.253, 2.365e-5
-1.254, 2.399e-5
-1.255, 2.412e-5
-1.256, 2.406e-5
-1.257, 2.399e-5
-1.258, 2.415e-5
-1.259, 2.438e-5
-1.260, 2.458e-5
-1.261, 2.454e-5
-1.262, 2.448e-5
-1.263, 2.463e-5
-1.264, 2.493e-5
-1.265, 2.506e-5
-1.266, 2.509e-5
-1.267, 2.498e-5
-1.268, 2.514e-5
-1.269, 2.546e-5
-1.270, 2.562e-5
-1.271, 2.560e-5
-1.272, 2.554e-5
-1.273, 2.573e-5
-1.274, 2.607e-5
-1.275, 2.623e-5
-1.276, 2.620e-5
-1.277, 2.618e-5
-1.278, 2.636e-5
-1.279, 2.671e-5
-1.280, 2.691e-5
-1.281, 2.689e-5
-1.282, 2.688e-5
-1.283, 2.702e-5
-1.284, 2.742e-5
-1.285, 2.758e-5
-1.286, 2.759e-5
-1.287, 2.765e-5
-1.288, 2.777e-5
-1.289, 2.812e-5
-1.290, 2.833e-5
-1.291, 2.839e-5
-1.292, 2.839e-5
-1.293, 2.858e-5
-1.294, 2.895e-5
-1.295, 2.920e-5
-1.296, 2.924e-5
-1.297, 2.924e-5
-1.298, 2.945e-5
-1.299, 2.979e-5
-1.300, 3.007e-5
-1.301, 3.006e-5
-1.302, 3.009e-5
-1.303, 3.034e-5
-1.304, 3.075e-5
-1.305, 3.096e-5
-1.306, 3.107e-5
-1.307, 3.108e-5
-1.308, 3.132e-5
-1.309, 3.174e-5
-1.310, 3.198e-5
-1.311, 3.207e-5
-1.312, 3.209e-5
-1.313, 3.234e-5
-1.314, 3.279e-5
-1.315, 3.305e-5
-1.316, 3.318e-5
-1.317, 3.318e-5
-1.318, 3.350e-5
-1.319, 3.394e-5
-1.320, 3.417e-5
-1.321, 3.427e-5
-1.322, 3.435e-5
-1.323, 3.463e-5
-1.324, 3.512e-5
-1.325, 3.539e-5
-1.326, 3.551e-5
-1.327, 3.562e-5
-1.328, 3.590e-5
-1.329, 3.638e-5
-1.330, 3.669e-5
-1.331, 3.684e-5
-1.332, 3.694e-5
-1.333, 3.725e-5
-1.334, 3.772e-5
-1.335, 3.809e-5
-1.336, 3.820e-5
-1.337, 3.834e-5
-1.338, 3.872e-5
-1.339, 3.919e-5
-1.340, 3.953e-5
-1.341, 3.968e-5
-1.342, 3.981e-5
-1.343, 4.018e-5
-1.344, 4.066e-5
-1.345, 4.105e-5
-1.346, 4.125e-5
-1.347, 4.137e-5
-1.348, 4.176e-5
-1.349, 4.230e-5
-1.350, 4.267e-5
-1.351, 4.286e-5
-1.352, 4.305e-5
-1.353, 4.345e-5
-1.354, 4.400e-5
-1.355, 4.444e-5
-1.356, 4.467e-5
-1.357, 4.484e-5
-1.358, 4.523e-5
-1.359, 4.582e-5
-1.360, 4.619e-5
-1.361, 4.640e-5
-1.362, 4.662e-5
-1.363, 4.700e-5
-1.364, 4.760e-5
-1.365, 4.802e-5
-1.366, 4.829e-5
-1.367, 4.850e-5
-1.368, 4.893e-5
-1.369, 4.950e-5
-1.370, 4.998e-5
-1.371, 5.022e-5
-1.372, 5.047e-5
-1.373, 5.088e-5
-1.374, 5.152e-5
-1.375, 5.202e-5
-1.376, 5.220e-5
-1.377, 5.252e-5
-1.378, 5.295e-5
-1.379, 5.356e-5
-1.380, 5.406e-5
-1.381, 5.432e-5
-1.382, 5.464e-5
-1.383, 5.512e-5
-1.384, 5.576e-5
-1.385, 5.624e-5
-1.386, 5.655e-5
-1.387, 5.678e-5
-1.388, 5.730e-5
-1.389, 5.798e-5
-1.390, 5.842e-5
-1.391, 5.879e-5
-1.392, 5.910e-5
-1.393, 5.961e-5
-1.394, 6.030e-5
-1.395, 6.080e-5
-1.396, 6.116e-5
-1.397, 6.142e-5
-1.398, 6.199e-5
-1.399, 6.267e-5
-1.400, 6.321e-5
-1.401, 6.353e-5
-1.402, 6.389e-5
-1.403, 6.443e-5
-1.404, 6.516e-5
-1.405, 6.568e-5
-1.406, 6.603e-5
-1.407, 6.645e-5
-1.408, 6.698e-5
-1.409, 6.772e-5
-1.410, 6.833e-5
-1.411, 6.869e-5
-1.412, 6.904e-5
-1.413, 6.960e-5
-1.414, 7.037e-5
-1.415, 7.104e-5
-1.416, 7.136e-5
-1.417, 7.186e-5
-1.418, 7.252e-5
-1.419, 7.332e-5
-1.420, 7.395e-5
-1.421, 7.441e-5
-1.422, 7.483e-5
-1.423, 7.549e-5
-1.424, 7.621e-5
-1.425, 7.687e-5
-1.426, 7.731e-5
-1.427, 7.773e-5
-1.428, 7.844e-5
-1.429, 7.928e-5
-1.430, 7.996e-5
-1.431, 8.041e-5
-1.432, 8.090e-5
-1.433, 8.164e-5
-1.434, 8.250e-5
-1.435, 8.317e-5
-1.436, 8.369e-5
-1.437, 8.420e-5
-1.438, 8.491e-5
-1.439, 8.583e-5
-1.440, 8.656e-5
-1.441, 8.709e-5
-1.442, 8.762e-5
-1.443, 8.842e-5
-1.444, 8.938e-5
-1.445, 9.019e-5
-1.446, 9.070e-5
-1.447, 9.135e-5
-1.448, 9.211e-5
-1.449, 9.306e-5
-1.450, 9.387e-5
-1.451, 9.444e-5
-1.452, 9.513e-5
-1.453, 9.597e-5
-1.454, 9.699e-5
-1.455, 9.792e-5
-1.456, 9.852e-5
-1.457, 9.917e-5
-1.458, 1.001e-4
-1.459, 1.011e-4
-1.460, 1.020e-4
-1.461, 1.028e-4
-1.462, 1.035e-4
-1.463, 1.045e-4
-1.464, 1.055e-4
-1.465, 1.065e-4
-1.466, 1.072e-4
-1.467, 1.078e-4
-1.468, 1.089e-4
-1.469, 1.099e-4
-1.470, 1.109e-4
-1.471, 1.117e-4
-1.472, 1.124e-4
-1.473, 1.135e-4
-1.474, 1.147e-4
-1.475, 1.156e-4
-1.476, 1.165e-4
-1.477, 1.174e-4
-1.478, 1.184e-4
-1.479, 1.197e-4
-1.480, 1.207e-4
-1.481, 1.216e-4
-1.482, 1.224e-4
-1.483, 1.235e-4
-1.484, 1.248e-4
-1.485, 1.259e-4
-1.486, 1.267e-4
-1.487, 1.276e-4
-1.488, 1.288e-4
-1.489, 1.301e-4
-1.490, 1.312e-4
-1.491, 1.322e-4
-1.492, 1.332e-4
-1.493, 1.343e-4
-1.494, 1.357e-4
-1.495, 1.370e-4
-1.496, 1.380e-4
-1.497, 1.391e-4
-1.498, 1.404e-4
-1.499, 1.417e-4
-1.500, 1.431e-4
-1.501, 1.441e-4
-1.502, 1.452e-4
-1.503, 1.466e-4
-1.504, 1.480e-4
-1.505, 1.494e-4
-1.506, 1.505e-4
-1.507, 1.517e-4
-1.508, 1.531e-4
-1.509, 1.546e-4
-1.510, 1.560e-4
-1.511, 1.572e-4
-1.512, 1.583e-4
-1.513, 1.597e-4
-1.514, 1.613e-4
-1.515, 1.628e-4
-1.516, 1.639e-4
-1.517, 1.652e-4
-1.518, 1.667e-4
-1.519, 1.684e-4
-1.520, 1.698e-4
-1.521, 1.711e-4
-1.522, 1.725e-4
-1.523, 1.740e-4
-1.524, 1.757e-4
-1.525, 1.772e-4
-1.526, 1.785e-4
-1.527, 1.800e-4
-1.528, 1.816e-4
-1.529, 1.835e-4
-1.530, 1.851e-4
-1.531, 1.865e-4
-1.532, 1.879e-4
-1.533, 1.897e-4
-1.534, 1.917e-4
-1.535, 1.933e-4
-1.536, 1.948e-4
-1.537, 1.963e-4
-1.538, 1.980e-4
-1.539, 1.999e-4
-1.540, 2.017e-4
-1.541, 2.031e-4
-1.542, 2.048e-4
-1.543, 2.067e-4
-1.544, 2.087e-4
-1.545, 2.105e-4
-1.546, 2.121e-4
-1.547, 2.138e-4
-1.548, 2.158e-4
-1.549, 2.178e-4
-1.550, 2.197e-4
-1.551, 2.215e-4
-1.552, 2.232e-4
-1.553, 2.252e-4
-1.554, 2.274e-4
-1.555, 2.294e-4
-1.556, 2.313e-4
-1.557, 2.331e-4
-1.558, 2.351e-4
-1.559, 2.375e-4
-1.560, 2.396e-4
-1.561, 2.416e-4
-1.562, 2.437e-4
-1.563, 2.460e-4
-1.564, 2.485e-4
-1.565, 2.506e-4
-1.566, 2.527e-4
-1.567, 2.549e-4
-1.568, 2.572e-4
-1.569, 2.598e-4
-1.570, 2.622e-4
-1.571, 2.644e-4
-1.572, 2.666e-4
-1.573, 2.690e-4
-1.574, 2.717e-4
-1.575, 2.742e-4
-1.576, 2.764e-4
-1.577, 2.788e-4
-1.578, 2.814e-4
-1.579, 2.840e-4
-1.580, 2.867e-4
-1.581, 2.892e-4
-1.582, 2.917e-4
-1.583, 2.945e-4
-1.584, 2.974e-4
-1.585, 3.002e-4
-1.586, 3.027e-4
-1.587, 3.054e-4
-1.588, 3.084e-4
-1.589, 3.114e-4
-1.590, 3.145e-4
-1.591, 3.172e-4
-1.592, 3.202e-4
-1.593, 3.234e-4
-1.594, 3.265e-4
-1.595, 3.299e-4
-1.596, 3.331e-4
-1.597, 3.362e-4
-1.598, 3.395e-4
-1.599, 3.430e-4
-1.600, 3.390e-4
-1.599, 3.329e-4
-1.598, 3.281e-4
-1.597, 3.241e-4
-1.596, 3.201e-4
-1.595, 3.162e-4
-1.594, 3.120e-4
-1.593, 3.079e-4
-1.592, 3.042e-4
-1.591, 3.006e-4
-1.590, 2.969e-4
-1.589, 2.932e-4
-1.588, 2.894e-4
-1.587, 2.860e-4
-1.586, 2.827e-4
-1.585, 2.792e-4
-1.584, 2.755e-4
-1.583, 2.721e-4
-1.582, 2.690e-4
-1.581, 2.657e-4
-1.580, 2.624e-4
-1.579, 2.590e-4
-1.578, 2.556e-4
-1.577, 2.525e-4
-1.576, 2.496e-4
-1.575, 2.466e-4
-1.574, 2.433e-4
-1.573, 2.401e-4
-1.572, 2.373e-4
-1.571, 2.345e-4
-1.570, 2.315e-4
-1.569, 2.285e-4
-1.568, 2.256e-4
-1.567, 2.229e-4
-1.566, 2.202e-4
-1.565, 2.175e-4
-1.564, 2.147e-4
-1.563, 2.117e-4
-1.562, 2.093e-4
-1.561, 2.068e-4
-1.560, 2.043e-4
-1.559, 2.015e-4
-1.558, 1.988e-4
-1.557, 1.964e-4
-1.556, 1.942e-4
-1.555, 1.917e-4
-1.554, 1.891e-4
-1.553, 1.866e-4
-1.552, 1.844e-4
-1.551, 1.822e-4
-1.550, 1.799e-4
-1.549, 1.775e-4
-1.548, 1.751e-4
-1.547, 1.730e-4
-1.546, 1.709e-4
-1.545, 1.688e-4
-1.544, 1.664e-4
-1.543, 1.642e-4
-1.542, 1.622e-4
-1.541, 1.602e-4
-1.540, 1.582e-4
-1.539, 1.560e-4
-1.538, 1.539e-4
-1.537, 1.520e-4
-1.536, 1.502e-4
-1.535, 1.483e-4
-1.534, 1.462e-4
-1.533, 1.442e-4
-1.532, 1.423e-4
-1.531, 1.408e-4
-1.530, 1.389e-4
-1.529, 1.367e-4
-1.528, 1.349e-4
-1.527, 1.334e-4
-1.526, 1.318e-4
-1.525, 1.300e-4
-1.524, 1.281e-4
-1.523, 1.263e-4
-1.522, 1.247e-4
-1.521, 1.233e-4
-1.520, 1.217e-4
-1.519, 1.198e-4
-1.518, 1.181e-4
-1.517, 1.168e-4
-1.516, 1.154e-4
-1.515, 1.138e-4
-1.514, 1.121e-4
-1.513, 1.104e-4
-1.512, 1.091e-4
-1.511, 1.078e-4
-1.510, 1.063e-4
-1.509, 1.047e-4
-1.508, 1.032e-4
-1.507, 1.018e-4
-1.506, 1.006e-4
-1.505, 9.927e-5
-1.504, 9.771e-5
-1.503, 9.620e-5
-1.502, 9.505e-5
-1.501, 9.394e-5
-1.500, 9.263e-5
-1.499, 9.115e-5
-1.498, 8.972e-5
-1.497, 8.859e-5
-1.496, 8.757e-5
-1.495, 8.634e-5
-1.494, 8.489e-5
-1.493, 8.365e-5
-1.492, 8.254e-5
-1.491, 8.152e-5
-1.490, 8.039e-5
-1.489, 7.902e-5
-1.488, 7.778e-5
-1.487, 7.680e-5
-1.486, 7.583e-5
-1.485, 7.466e-5
-1.484, 7.333e-5
-1.483, 7.216e-5
-1.482, 7.124e-5
-1.481, 7.033e-5
-1.480, 6.924e-5
-1.479, 6.802e-5
-1.478, 6.692e-5
-1.477, 6.602e-5
-1.476, 6.521e-5
-1.475, 6.419e-5
-1.474, 6.302e-5
-1.473, 6.191e-5
-1.472, 6.111e-5
-1.471, 6.034e-5
-1.470, 5.934e-5
-1.469, 5.821e-5
-1.468, 5.731e-5
-1.467, 5.652e-5
-1.466, 5.579e-5
-1.465, 5.488e-5
-1.464, 5.384e-5
-1.463, 5.285e-5
-1.462, 5.207e-5
-1.461, 5.146e-5
-1.460, 5.057e-5
-1.459, 4.950e-5
-1.458, 4.862e-5
-1.457, 4.789e-5
-1.456, 4.734e-5
-1.455, 4.646e-5
-1.454, 4.544e-5
-1.453, 4.462e-5
-1.452, 4.397e-5
-1.451, 4.338e-5
-1.450, 4.261e-5
-1.449, 4.162e-5
-1.448, 4.085e-5
-1.447, 4.026e-5
-1.446, 3.969e-5
-1.445, 3.873e-5
-1.444, 3.790e-5
-1.443, 3.722e-5
-1.442, 3.673e-5
-1.441, 3.619e-5
-1.440, 3.554e-5
-1.439, 3.463e-5
-1.438, 3.388e-5
-1.437, 3.335e-5
-1.436, 3.284e-5
-1.435, 3.214e-5
-1.434, 3.128e-5
-1.433, 3.057e-5
-1.432, 3.008e-5
-1.431, 2.966e-5
-1.430, 2.898e-5
-1.429, 2.822e-5
-1.428, 2.753e-5
-1.427, 2.706e-5
-1.426, 2.669e-5
-1.425, 2.602e-5
-1.424, 2.530e-5
-1.423, 2.468e-5
-1.422, 2.423e-5
-1.421, 2.385e-5
-1.420, 2.324e-5
-1.419, 2.245e-5
-1.418, 2.192e-5
-1.417, 2.149e-5
-1.416, 2.120e-5
-1.415, 2.061e-5
-1.414, 1.986e-5
-1.413, 1.934e-5
-1.412, 1.895e-5
-1.411, 1.865e-5
-1.410, 1.811e-5
-1.409, 1.738e-5
-1.408, 1.689e-5
-1.407, 1.653e-5
-1.406, 1.619e-5
-1.405, 1.574e-5
-1.404, 1.505e-5
-1.403, 1.453e-5
-1.402, 1.427e-5
-1.401, 1.397e-5
-1.400, 1.358e-5
-1.399, 1.290e-5
-1.398, 1.239e-5
-1.397, 1.215e-5
-1.396, 1.188e-5
-1.395, 1.140e-5
-1.394, 1.082e-5
-1.393, 1.035e-5
-1.392, 1.013e-5
-1.391, 9.851e-6
-1.390, 9.390e-6
-1.389, 8.790e-6
-1.388, 8.371e-6
-1.387, 8.102e-6
-1.386, 7.919e-6
-1.385, 7.467e-6
-1.384, 6.954e-6
-1.383, 6.463e-6
-1.382, 6.283e-6
-1.381, 6.145e-6
-1.380, 5.728e-6
-1.379, 5.131e-6
-1.378, 4.765e-6
-1.377, 4.632e-6
-1.376, 4.465e-6
-1.375, 4.046e-6
-1.374, 3.490e-6
-1.373, 3.182e-6
-1.372, 3.027e-6
-1.371, 2.852e-6
-1.370, 2.496e-6
-1.369, 1.968e-6
-1.368, 1.673e-6
-1.367, 1.537e-6
-1.366, 1.373e-6
-1.365, 1.027e-6
-1.364, 5.523e-7
-1.363, 1.892e-7
-1.362, 1.093e-7
-1.361, -2.486e-8
-1.360, -3.554e-7
-1.359, -7.855e-7
-1.358, -1.143e-6
-1.357, -1.186e-6
-1.356, -1.275e-6
-1.355, -1.653e-6
-1.354, -2.065e-6
-1.353, -2.378e-6
-1.352, -2.448e-6
-1.351, -2.543e-6
-1.350, -2.867e-6
-1.349, -3.289e-6
-1.348, -3.562e-6
-1.347, -3.637e-6
-1.346, -3.669e-6
-1.345, -4.034e-6
-1.344, -4.399e-6
-1.343, -4.689e-6
-1.342, -4.722e-6
-1.341, -4.779e-6
-1.340, -5.101e-6
-1.339, -5.472e-6
-1.338, -5.742e-6
-1.337, -5.804e-6
-1.336, -5.833e-6
-1.335, -6.136e-6
-1.334, -6.532e-6
-1.333, -6.703e-6
-1.332, -6.743e-6
-1.331, -6.809e-6
-1.330, -7.073e-6
-1.329, -7.466e-6
-1.328, -7.696e-6
-1.327, -7.675e-6
-1.326, -7.758e-6
-1.325, -7.993e-6
-1.324, -8.400e-6
-1.323, -8.615e-6
-1.322, -8.584e-6
-1.321, -8.612e-6
-1.320, -8.860e-6
-1.319, -9.194e-6
-1.318, -9.415e-6
-1.317, -9.329e-6
-1.316, -9.374e-6
-1.315, -9.692e-6
-1.314, -9.996e-6
-1.313, -1.020e-5
-1.312, -1.018e-5
-1.311, -1.020e-5
-1.310, -1.046e-5
-1.309, -1.076e-5
-1.308, -1.098e-5
-1.307, -1.096e-5
-1.306, -1.093e-5
-1.305, -1.120e-5
-1.304, -1.153e-5
-1.303, -1.171e-5
-1.302, -1.171e-5
-1.301, -1.167e-5
-1.300, -1.193e-5
-1.299, -1.230e-5
-1.298, -1.241e-5
-1.297, -1.244e-5
-1.296, -1.237e-5
-1.295, -1.266e-5
-1.294, -1.298e-5
-1.293, -1.309e-5
-1.292, -1.311e-5
-1.291, -1.309e-5
-1.290, -1.335e-5
-1.289, -1.364e-5
-1.288, -1.377e-5
-1.287, -1.376e-5
-1.286, -1.372e-5
-1.285, -1.396e-5
-1.284, -1.426e-5
-1.283, -1.441e-5
-1.282, -1.433e-5
-1.281, -1.436e-5
-1.280, -1.462e-5
-1.279, -1.488e-5
-1.278, -1.505e-5
-1.277, -1.496e-5
-1.276, -1.495e-5
-1.275, -1.521e-5
-1.274, -1.551e-5
-1.273, -1.565e-5
-1.272, -1.558e-5
-1.271, -1.549e-5
-1.270, -1.583e-5
-1.269, -1.607e-5
-1.268, -1.620e-5
-1.267, -1.613e-5
-1.266, -1.610e-5
-1.265, -1.638e-5
-1.264, -1.661e-5
-1.263, -1.675e-5
-1.262, -1.670e-5
-1.261, -1.661e-5
-1.260, -1.686e-5
-1.259, -1.715e-5
-1.258, -1.725e-5
-1.257, -1.719e-5
-1.256, -1.712e-5
-1.255, -1.739e-5
-1.254, -1.765e-5
-1.253, -1.775e-5
-1.252, -1.769e-5
-1.251, -1.765e-5
-1.250, -1.788e-5
-1.249, -1.814e-5
-1.248, -1.819e-5
-1.247, -1.814e-5
-1.246, -1.809e-5
-1.245, -1.832e-5
-1.244, -1.856e-5
-1.243, -1.871e-5
-1.242, -1.857e-5
-1.241, -1.857e-5
-1.240, -1.879e-5
-1.239, -1.904e-5
-1.238, -1.913e-5
-1.237, -1.903e-5
-1.236, -1.900e-5
-1.235, -1.927e-5
-1.234, -1.951e-5
-1.233, -1.958e-5
-1.232, -1.948e-5
-1.231, -1.945e-5
-1.230, -1.970e-5
-1.229, -2.005e-5
-1.228, -2.008e-5
-1.227, -1.998e-5
-1.226, -1.992e-5
-1.225, -2.022e-5
-1.224, -2.040e-5
-1.223, -2.051e-5
-1.222, -2.043e-5
-1.221, -2.038e-5
-1.220, -2.063e-5
-1.219, -2.084e-5
-1.218, -2.093e-5
-1.217, -2.082e-5
-1.216, -2.080e-5
-1.215, -2.099e-5
-1.214, -2.132e-5
-1.213, -2.134e-5
-1.212, -2.120e-5
-1.211, -2.124e-5
-1.210, -2.143e-5
-1.209, -2.172e-5
-1.208, -2.175e-5
-1.207, -2.165e-5
-1.206, -2.170e-5
-1.205, -2.186e-5
-1.204, -2.215e-5
-1.203, -2.224e-5
-1.202, -2.213e-5
-1.201, -2.213e-5
-1.200, -2.233e-5
-1.199, -2.260e-5
-1.198, -2.268e-5
-1.197, -2.255e-5
-1.196, -2.257e-5
-1.195, -2.280e-5
-1.194, -2.304e-5
-1.193, -2.318e-5
-1.192, -2.301e-5
-1.191, -2.305e-5
-1.190, -2.329e-5
-1.189, -2.356e-5
-1.188, -2.363e-5
-1.187, -2.359e-5
-1.186, -2.358e-5
-1.185, -2.386e-5
-1.184, -2.412e-5
-1.183, -2.418e-5
-1.182, -2.410e-5
-1.181, -2.411e-5
-1.180, -2.442e-5
-1.179, -2.473e-5
-1.178, -2.481e-5
-1.177, -2.476e-5
-1.176, -2.480e-5
-1.175, -2.505e-5
-1.174, -2.535e-5
-1.173, -2.544e-5
-1.172, -2.537e-5
-1.171, -2.548e-5
-1.170, -2.571e-5
-1.169, -2.607e-5
-1.168, -2.609e-5
-1.167, -2.606e-5
-1.166, -2.615e-5
-1.165, -2.644e-5
-1.164, -2.680e-5
-1.163, -2.688e-5
-1.162, -2.683e-5
-1.161, -2.695e-5
-1.160, -2.718e-5
-1.159, -2.753e-5
-1.158, -2.766e-5
-1.157, -2.761e-5
-1.156, -2.770e-5
-1.155, -2.802e-5
-1.154, -2.833e-5
-1.153, -2.850e-5
-1.152, -2.845e-5
-1.151, -2.858e-5
-1.150, -2.891e-5
-1.149, -2.920e-5
-1.148, -2.936e-5
-1.147, -2.936e-5
-1.146, -2.948e-5
-1.145, -2.976e-5
-1.144, -3.014e-5
-1.143, -3.028e-5
-1.142, -3.029e-5
-1.141, -3.036e-5
-1.140, -3.074e-5
-1.139, -3.112e-5
-1.138, -3.121e-5
-1.137, -3.127e-5
-1.136, -3.139e-5
-1.135, -3.171e-5
-1.134, -3.213e-5
-1.133, -3.225e-5
-1.132, -3.227e-5
-1.131, -3.244e-5
-1.130, -3.275e-5
-1.129, -3.317e-5
-1.128, -3.335e-5
-1.127, -3.338e-5
-1.126, -3.356e-5
-1.125, -3.389e-5
-1.124, -3.433e-5
-1.123, -3.450e-5
-1.122, -3.452e-5
-1.121, -3.474e-5
-1.120, -3.507e-5
-1.119, -3.550e-5
-1.118, -3.574e-5
-1.117, -3.571e-5
-1.116, -3.591e-5
-1.115, -3.630e-5
-1.114, -3.672e-5
-1.113, -3.698e-5
-1.112, -3.697e-5
-1.111, -3.719e-5
-1.110, -3.761e-5
-1.109, -3.801e-5
-1.108, -3.824e-5
-1.107, -3.831e-5
-1.106, -3.852e-5
-1.105, -3.898e-5
-1.104, -3.934e-5
-1.103, -3.962e-5
-1.102, -3.971e-5
-1.101, -3.990e-5
-1.100, -4.034e-5
-1.099, -4.076e-5
-1.098, -4.103e-5
-1.097, -4.109e-5
-1.096, -4.133e-5
-1.095, -4.173e-5
-1.094, -4.230e-5
-1.093, -4.247e-5
-1.092, -4.260e-5
-1.091, -4.285e-5
-1.090, -4.328e-5
-1.089, -4.378e-5
-1.088, -4.402e-5
-1.087, -4.410e-5
-1.086, -4.439e-5
-1.085, -4.482e-5
-1.084, -4.534e-5
-1.083, -4.560e-5
-1.082, -4.570e-5
-1.081, -4.599e-5
-1.080, -4.646e-5
-1.079, -4.694e-5
-1.078, -4.724e-5
-1.077, -4.729e-5
-1.076, -4.764e-5
-1.075, -4.820e-5
-1.074, -4.864e-5
-1.073, -4.893e-5
-1.072, -4.903e-5
-1.071, -4.931e-5
-1.070, -4.982e-5
-1.069, -5.029e-5
-1.068, -5.064e-5
-1.067, -5.077e-5
-1.066, -5.103e-5
-1.065, -5.159e-5
-1.064, -5.203e-5
-1.063, -5.233e-5
-1.062, -5.250e-5
-1.061, -5.280e-5
-1.060, -5.333e-5
-1.059, -5.385e-5
-1.058, -5.414e-5
-1.057, -5.429e-5
-1.056, -5.455e-5
-1.055, -5.510e-5
-1.054, -5.561e-5
-1.053, -5.582e-5
-1.052, -5.597e-5
-1.051, -5.629e-5
-1.050, -5.682e-5
-1.049, -5.736e-5
-1.048, -5.761e-5
-1.047, -5.774e-5
-1.046, -5.807e-5
-1.045, -5.855e-5
-1.044, -5.906e-5
-1.043, -5.932e-5
-1.042, -5.944e-5
-1.041, -5.973e-5
-1.040, -6.017e-5
-1.039, -6.074e-5
-1.038, -6.104e-5
-1.037, -6.114e-5
-1.036, -6.138e-5
-1.035, -6.195e-5
-1.034, -6.244e-5
-1.033, -6.270e-5
-1.032, -6.275e-5
-1.031, -6.305e-5
-1.030, -6.358e-5
-1.029, -6.402e-5
-1.028, -6.430e-5
-1.027, -6.444e-5
-1.026, -6.466e-5
-1.025, -6.516e-5
-1.024, -6.572e-5
-1.023, -6.597e-5
-1.022, -6.609e-5
-1.021, -6.631e-5
-1.020, -6.681e-5
-1.019, -6.732e-5
-1.018, -6.756e-5
-1.017, -6.769e-5
-1.016, -6.791e-5
-1.015, -6.843e-5
-1.014, -6.902e-5
-1.013, -6.921e-5
-1.012, -6.935e-5
-1.011, -6.967e-5
-1.010, -7.015e-5
-1.009, -7.071e-5
-1.008, -7.094e-5
-1.007, -7.108e-5
-1.006, -7.137e-5
-1.005, -7.190e-5
-1.004, -7.245e-5
-1.003, -7.269e-5
-1.002, -7.275e-5
-1.001, -7.313e-5
