Sept. 29, 2024   11:48:06
Cyclic Voltammetry
File: c:/users/guazh/data/20240922_batch_417_500/2024-09-22-exp481\exp481-2024-09-29t11_26_27-h2koh\exp481_cv_sr_500mvs_efin_-1900mv.bin
Data Source:  Experiment
Instrument Model:  CHI760E
Header: CV ran at 500 mVs
Note: 

Init E (V) = -1
High E (V) = -1
Low E (V) = -1.9
Final E (V) = -1
Init P/N = N
Scan Rate (V/s) = 0.5
Segment = 3
Sample Interval (V) = 0.001
Quiet Time (sec) = 2
Sensitivity (A/V) = 0.01
Comp R (ohm) = 3.2

Results:

Channel 1:
Segment 1:

Segment 2:

Segment 3:

Potential/V, Current/A

-1.000, 3.239e-6
-1.001, 3.239e-6
-1.002, 3.239e-6
-1.003, 3.239e-6
-1.004, 3.239e-6
-1.005, 3.239e-6
-1.006, 3.239e-6
-1.007, 3.239e-6
-1.008, 3.239e-6
-1.009, 3.239e-6
-1.010, 3.239e-6
-1.011, 6.322e-6
-1.012, 3.239e-6
-1.013, 3.239e-6
-1.014, 3.239e-6
-1.015, 3.239e-6
-1.016, 3.239e-6
-1.017, 3.239e-6
-1.018, 3.239e-6
-1.019, 3.239e-6
-1.020, 3.239e-6
-1.021, 3.239e-6
-1.022, 3.239e-6
-1.023, 3.239e-6
-1.024, 3.239e-6
-1.025, 6.322e-6
-1.026, 3.239e-6
-1.027, 3.239e-6
-1.028, 6.322e-6
-1.029, 3.239e-6
-1.030, 6.322e-6
-1.031, 3.239e-6
-1.032, 6.322e-6
-1.033, 3.239e-6
-1.034, 3.239e-6
-1.035, 6.322e-6
-1.036, 6.322e-6
-1.037, 6.322e-6
-1.038, 3.239e-6
-1.039, 6.322e-6
-1.040, 6.322e-6
-1.041, 6.322e-6
-1.042, 6.322e-6
-1.043, 3.239e-6
-1.044, 6.322e-6
-1.045, 6.322e-6
-1.046, 6.322e-6
-1.047, 6.322e-6
-1.048, 6.322e-6
-1.049, 6.322e-6
-1.050, 6.322e-6
-1.051, 6.322e-6
-1.052, 6.322e-6
-1.053, 6.322e-6
-1.054, 6.322e-6
-1.055, 6.322e-6
-1.056, 6.322e-6
-1.057, 6.322e-6
-1.058, 6.322e-6
-1.059, 6.322e-6
-1.060, 6.322e-6
-1.061, 6.322e-6
-1.062, 6.322e-6
-1.063, 6.322e-6
-1.064, 6.322e-6
-1.065, 6.322e-6
-1.066, 6.322e-6
-1.067, 6.322e-6
-1.068, 6.322e-6
-1.069, 6.322e-6
-1.070, 6.322e-6
-1.071, 6.322e-6
-1.072, 6.322e-6
-1.073, 6.322e-6
-1.074, 6.322e-6
-1.075, 6.322e-6
-1.076, 6.322e-6
-1.077, 6.322e-6
-1.078, 6.322e-6
-1.079, 6.322e-6
-1.080, 6.322e-6
-1.081, 6.322e-6
-1.082, 6.322e-6
-1.083, 6.322e-6
-1.084, 6.322e-6
-1.085, 3.239e-6
-1.086, 6.322e-6
-1.087, 6.322e-6
-1.088, 6.322e-6
-1.089, 6.322e-6
-1.090, 6.322e-6
-1.091, 6.322e-6
-1.092, 6.322e-6
-1.093, 6.322e-6
-1.094, 6.322e-6
-1.095, 6.322e-6
-1.096, 6.322e-6
-1.097, 6.322e-6
-1.098, 9.405e-6
-1.099, 6.322e-6
-1.100, 6.322e-6
-1.101, 6.322e-6
-1.102, 6.322e-6
-1.103, 6.322e-6
-1.104, 6.322e-6
-1.105, 6.322e-6
-1.106, 6.322e-6
-1.107, 6.322e-6
-1.108, 6.322e-6
-1.109, 6.322e-6
-1.110, 6.322e-6
-1.111, 6.322e-6
-1.112, 6.322e-6
-1.113, 6.322e-6
-1.114, 6.322e-6
-1.115, 9.405e-6
-1.116, 6.322e-6
-1.117, 6.322e-6
-1.118, 6.322e-6
-1.119, 6.322e-6
-1.120, 6.322e-6
-1.121, 6.322e-6
-1.122, 6.322e-6
-1.123, 6.322e-6
-1.124, 9.405e-6
-1.125, 6.322e-6
-1.126, 9.405e-6
-1.127, 6.322e-6
-1.128, 6.322e-6
-1.129, 9.405e-6
-1.130, 6.322e-6
-1.131, 9.405e-6
-1.132, 6.322e-6
-1.133, 6.322e-6
-1.134, 9.405e-6
-1.135, 6.322e-6
-1.136, 9.405e-6
-1.137, 6.322e-6
-1.138, 6.322e-6
-1.139, 9.405e-6
-1.140, 9.405e-6
-1.141, 9.405e-6
-1.142, 9.405e-6
-1.143, 9.405e-6
-1.144, 6.322e-6
-1.145, 6.322e-6
-1.146, 6.322e-6
-1.147, 6.322e-6
-1.148, 9.405e-6
-1.149, 6.322e-6
-1.150, 9.405e-6
-1.151, 6.322e-6
-1.152, 9.405e-6
-1.153, 9.405e-6
-1.154, 6.322e-6
-1.155, 9.405e-6
-1.156, 6.322e-6
-1.157, 9.405e-6
-1.158, 6.322e-6
-1.159, 9.405e-6
-1.160, 6.322e-6
-1.161, 9.405e-6
-1.162, 9.405e-6
-1.163, 6.322e-6
-1.164, 9.405e-6
-1.165, 6.322e-6
-1.166, 9.405e-6
-1.167, 9.405e-6
-1.168, 9.405e-6
-1.169, 9.405e-6
-1.170, 9.405e-6
-1.171, 9.405e-6
-1.172, 9.405e-6
-1.173, 9.405e-6
-1.174, 9.405e-6
-1.175, 9.405e-6
-1.176, 9.405e-6
-1.177, 6.322e-6
-1.178, 9.405e-6
-1.179, 9.405e-6
-1.180, 9.405e-6
-1.181, 9.405e-6
-1.182, 9.405e-6
-1.183, 9.405e-6
-1.184, 9.405e-6
-1.185, 9.405e-6
-1.186, 9.405e-6
-1.187, 9.405e-6
-1.188, 9.405e-6
-1.189, 9.405e-6
-1.190, 9.405e-6
-1.191, 9.405e-6
-1.192, 9.405e-6
-1.193, 9.405e-6
-1.194, 9.405e-6
-1.195, 9.405e-6
-1.196, 9.405e-6
-1.197, 9.405e-6
-1.198, 9.405e-6
-1.199, 9.405e-6
-1.200, 9.405e-6
-1.201, 9.405e-6
-1.202, 9.405e-6
-1.203, 9.405e-6
-1.204, 9.405e-6
-1.205, 9.405e-6
-1.206, 9.405e-6
-1.207, 9.405e-6
-1.208, 9.405e-6
-1.209, 9.405e-6
-1.210, 9.405e-6
-1.211, 9.405e-6
-1.212, 9.405e-6
-1.213, 9.405e-6
-1.214, 9.405e-6
-1.215, 9.405e-6
-1.216, 9.405e-6
-1.217, 9.405e-6
-1.218, 9.405e-6
-1.219, 9.405e-6
-1.220, 9.405e-6
-1.221, 9.405e-6
-1.222, 9.405e-6
-1.223, 1.249e-5
-1.224, 9.405e-6
-1.225, 9.405e-6
-1.226, 9.405e-6
-1.227, 9.405e-6
-1.228, 9.405e-6
-1.229, 9.405e-6
-1.230, 9.405e-6
-1.231, 9.405e-6
-1.232, 9.405e-6
-1.233, 9.405e-6
-1.234, 9.405e-6
-1.235, 9.405e-6
-1.236, 9.405e-6
-1.237, 1.249e-5
-1.238, 9.405e-6
-1.239, 9.405e-6
-1.240, 9.405e-6
-1.241, 9.405e-6
-1.242, 9.405e-6
-1.243, 9.405e-6
-1.244, 9.405e-6
-1.245, 9.405e-6
-1.246, 9.405e-6
-1.247, 9.405e-6
-1.248, 9.405e-6
-1.249, 9.405e-6
-1.250, 9.405e-6
-1.251, 1.249e-5
-1.252, 9.405e-6
-1.253, 9.405e-6
-1.254, 1.249e-5
-1.255, 9.405e-6
-1.256, 1.249e-5
-1.257, 9.405e-6
-1.258, 9.405e-6
-1.259, 9.405e-6
-1.260, 9.405e-6
-1.261, 1.249e-5
-1.262, 9.405e-6
-1.263, 9.405e-6
-1.264, 9.405e-6
-1.265, 1.249e-5
-1.266, 9.405e-6
-1.267, 9.405e-6
-1.268, 9.405e-6
-1.269, 9.405e-6
-1.270, 1.249e-5
-1.271, 9.405e-6
-1.272, 1.249e-5
-1.273, 1.249e-5
-1.274, 1.249e-5
-1.275, 1.249e-5
-1.276, 9.405e-6
-1.277, 1.249e-5
-1.278, 9.405e-6
-1.279, 9.405e-6
-1.280, 9.405e-6
-1.281, 9.405e-6
-1.282, 1.249e-5
-1.283, 1.249e-5
-1.284, 1.249e-5
-1.285, 9.405e-6
-1.286, 9.405e-6
-1.287, 1.249e-5
-1.288, 1.249e-5
-1.289, 1.249e-5
-1.290, 9.405e-6
-1.291, 1.249e-5
-1.292, 9.405e-6
-1.293, 1.249e-5
-1.294, 1.249e-5
-1.295, 9.405e-6
-1.296, 1.249e-5
-1.297, 1.249e-5
-1.298, 1.249e-5
-1.299, 1.249e-5
-1.300, 1.249e-5
-1.301, 1.249e-5
-1.302, 9.405e-6
-1.303, 1.249e-5
-1.304, 1.249e-5
-1.305, 1.249e-5
-1.306, 1.249e-5
-1.307, 1.249e-5
-1.308, 1.249e-5
-1.309, 9.405e-6
-1.310, 1.249e-5
-1.311, 9.405e-6
-1.312, 1.249e-5
-1.313, 1.249e-5
-1.314, 1.249e-5
-1.315, 1.249e-5
-1.316, 1.249e-5
-1.317, 1.249e-5
-1.318, 1.249e-5
-1.319, 1.249e-5
-1.320, 1.249e-5
-1.321, 1.249e-5
-1.322, 1.249e-5
-1.323, 1.249e-5
-1.324, 1.249e-5
-1.325, 1.249e-5
-1.326, 1.249e-5
-1.327, 9.405e-6
-1.328, 9.405e-6
-1.329, 1.249e-5
-1.330, 1.249e-5
-1.331, 1.249e-5
-1.332, 1.249e-5
-1.333, 1.249e-5
-1.334, 1.249e-5
-1.335, 1.249e-5
-1.336, 1.249e-5
-1.337, 1.249e-5
-1.338, 1.249e-5
-1.339, 1.249e-5
-1.340, 1.249e-5
-1.341, 1.249e-5
-1.342, 1.249e-5
-1.343, 1.249e-5
-1.344, 1.249e-5
-1.345, 1.249e-5
-1.346, 1.249e-5
-1.347, 1.557e-5
-1.348, 1.249e-5
-1.349, 1.249e-5
-1.350, 1.557e-5
-1.351, 1.249e-5
-1.352, 1.249e-5
-1.353, 1.249e-5
-1.354, 1.249e-5
-1.355, 1.249e-5
-1.356, 1.249e-5
-1.357, 1.557e-5
-1.358, 1.249e-5
-1.359, 1.249e-5
-1.360, 1.249e-5
-1.361, 1.249e-5
-1.362, 1.557e-5
-1.363, 1.249e-5
-1.364, 1.557e-5
-1.365, 1.249e-5
-1.366, 1.249e-5
-1.367, 1.249e-5
-1.368, 1.249e-5
-1.369, 1.249e-5
-1.370, 1.249e-5
-1.371, 1.249e-5
-1.372, 1.249e-5
-1.373, 1.557e-5
-1.374, 1.557e-5
-1.375, 1.249e-5
-1.376, 1.557e-5
-1.377, 1.249e-5
-1.378, 1.557e-5
-1.379, 1.249e-5
-1.380, 1.557e-5
-1.381, 1.249e-5
-1.382, 1.249e-5
-1.383, 1.557e-5
-1.384, 1.249e-5
-1.385, 1.557e-5
-1.386, 1.249e-5
-1.387, 1.557e-5
-1.388, 1.557e-5
-1.389, 1.557e-5
-1.390, 1.557e-5
-1.391, 1.557e-5
-1.392, 1.557e-5
-1.393, 1.249e-5
-1.394, 1.557e-5
-1.395, 1.557e-5
-1.396, 1.249e-5
-1.397, 1.557e-5
-1.398, 1.249e-5
-1.399, 1.557e-5
-1.400, 1.557e-5
-1.401, 1.557e-5
-1.402, 1.249e-5
-1.403, 1.557e-5
-1.404, 1.557e-5
-1.405, 1.557e-5
-1.406, 1.557e-5
-1.407, 1.557e-5
-1.408, 1.557e-5
-1.409, 1.557e-5
-1.410, 1.557e-5
-1.411, 1.557e-5
-1.412, 1.249e-5
-1.413, 1.557e-5
-1.414, 1.557e-5
-1.415, 1.557e-5
-1.416, 1.557e-5
-1.417, 1.557e-5
-1.418, 1.557e-5
-1.419, 1.557e-5
-1.420, 1.557e-5
-1.421, 1.557e-5
-1.422, 1.557e-5
-1.423, 1.557e-5
-1.424, 1.557e-5
-1.425, 1.557e-5
-1.426, 1.557e-5
-1.427, 1.557e-5
-1.428, 1.557e-5
-1.429, 1.557e-5
-1.430, 1.557e-5
-1.431, 1.557e-5
-1.432, 1.865e-5
-1.433, 1.557e-5
-1.434, 1.557e-5
-1.435, 1.557e-5
-1.436, 1.865e-5
-1.437, 1.865e-5
-1.438, 1.557e-5
-1.439, 1.865e-5
-1.440, 1.865e-5
-1.441, 1.865e-5
-1.442, 1.557e-5
-1.443, 1.557e-5
-1.444, 1.865e-5
-1.445, 1.557e-5
-1.446, 1.865e-5
-1.447, 1.865e-5
-1.448, 1.865e-5
-1.449, 1.865e-5
-1.450, 1.865e-5
-1.451, 1.865e-5
-1.452, 1.865e-5
-1.453, 1.865e-5
-1.454, 1.865e-5
-1.455, 1.865e-5
-1.456, 1.865e-5
-1.457, 1.865e-5
-1.458, 1.865e-5
-1.459, 1.865e-5
-1.460, 1.865e-5
-1.461, 1.865e-5
-1.462, 1.865e-5
-1.463, 1.865e-5
-1.464, 1.865e-5
-1.465, 1.865e-5
-1.466, 1.865e-5
-1.467, 2.174e-5
-1.468, 1.865e-5
-1.469, 1.865e-5
-1.470, 2.174e-5
-1.471, 1.865e-5
-1.472, 2.174e-5
-1.473, 1.865e-5
-1.474, 1.865e-5
-1.475, 1.865e-5
-1.476, 1.865e-5
-1.477, 1.865e-5
-1.478, 1.865e-5
-1.479, 2.174e-5
-1.480, 1.865e-5
-1.481, 1.865e-5
-1.482, 2.174e-5
-1.483, 1.865e-5
-1.484, 2.174e-5
-1.485, 2.174e-5
-1.486, 2.174e-5
-1.487, 2.174e-5
-1.488, 2.174e-5
-1.489, 2.174e-5
-1.490, 2.174e-5
-1.491, 2.174e-5
-1.492, 1.865e-5
-1.493, 2.174e-5
-1.494, 2.174e-5
-1.495, 2.174e-5
-1.496, 2.174e-5
-1.497, 2.174e-5
-1.498, 2.174e-5
-1.499, 2.174e-5
-1.500, 2.174e-5
-1.501, 2.174e-5
-1.502, 2.174e-5
-1.503, 2.482e-5
-1.504, 2.174e-5
-1.505, 2.482e-5
-1.506, 2.174e-5
-1.507, 2.482e-5
-1.508, 2.482e-5
-1.509, 2.174e-5
-1.510, 2.174e-5
-1.511, 2.482e-5
-1.512, 2.482e-5
-1.513, 2.482e-5
-1.514, 2.482e-5
-1.515, 2.482e-5
-1.516, 2.482e-5
-1.517, 2.790e-5
-1.518, 2.482e-5
-1.519, 2.482e-5
-1.520, 2.482e-5
-1.521, 2.790e-5
-1.522, 2.790e-5
-1.523, 2.790e-5
-1.524, 2.790e-5
-1.525, 2.482e-5
-1.526, 2.790e-5
-1.527, 2.482e-5
-1.528, 2.790e-5
-1.529, 2.790e-5
-1.530, 2.790e-5
-1.531, 2.790e-5
-1.532, 2.790e-5
-1.533, 2.790e-5
-1.534, 2.790e-5
-1.535, 2.790e-5
-1.536, 2.790e-5
-1.537, 2.790e-5
-1.538, 2.790e-5
-1.539, 2.790e-5
-1.540, 3.099e-5
-1.541, 2.790e-5
-1.542, 2.790e-5
-1.543, 2.790e-5
-1.544, 2.790e-5
-1.545, 3.099e-5
-1.546, 2.790e-5
-1.547, 3.099e-5
-1.548, 2.790e-5
-1.549, 3.099e-5
-1.550, 3.099e-5
-1.551, 3.099e-5
-1.552, 3.099e-5
-1.553, 3.099e-5
-1.554, 3.099e-5
-1.555, 3.099e-5
-1.556, 3.099e-5
-1.557, 3.099e-5
-1.558, 3.099e-5
-1.559, 3.099e-5
-1.560, 3.099e-5
-1.561, 3.407e-5
-1.562, 3.407e-5
-1.563, 3.407e-5
-1.564, 3.407e-5
-1.565, 3.407e-5
-1.566, 3.407e-5
-1.567, 3.407e-5
-1.568, 3.407e-5
-1.569, 3.407e-5
-1.570, 3.407e-5
-1.571, 3.715e-5
-1.572, 3.407e-5
-1.573, 3.715e-5
-1.574, 3.715e-5
-1.575, 3.715e-5
-1.576, 3.715e-5
-1.577, 3.715e-5
-1.578, 4.024e-5
-1.579, 3.715e-5
-1.580, 4.024e-5
-1.581, 3.715e-5
-1.582, 4.024e-5
-1.583, 4.024e-5
-1.584, 4.024e-5
-1.585, 4.024e-5
-1.586, 4.024e-5
-1.587, 4.332e-5
-1.588, 4.332e-5
-1.589, 4.024e-5
-1.590, 4.332e-5
-1.591, 4.332e-5
-1.592, 4.332e-5
-1.593, 4.332e-5
-1.594, 4.332e-5
-1.595, 4.332e-5
-1.596, 4.332e-5
-1.597, 4.640e-5
-1.598, 4.640e-5
-1.599, 4.949e-5
-1.600, 4.640e-5
-1.601, 4.640e-5
-1.602, 4.640e-5
-1.603, 4.949e-5
-1.604, 4.949e-5
-1.605, 4.949e-5
-1.606, 4.949e-5
-1.607, 4.949e-5
-1.608, 5.257e-5
-1.609, 5.257e-5
-1.610, 5.257e-5
-1.611, 5.257e-5
-1.612, 5.565e-5
-1.613, 5.565e-5
-1.614, 5.565e-5
-1.615, 5.873e-5
-1.616, 5.873e-5
-1.617, 5.873e-5
-1.618, 5.873e-5
-1.619, 5.873e-5
-1.620, 6.182e-5
-1.621, 6.182e-5
-1.622, 6.182e-5
-1.623, 6.182e-5
-1.624, 6.182e-5
-1.625, 6.490e-5
-1.626, 6.182e-5
-1.627, 6.490e-5
-1.628, 6.490e-5
-1.629, 6.798e-5
-1.630, 6.798e-5
-1.631, 6.798e-5
-1.632, 7.107e-5
-1.633, 7.107e-5
-1.634, 7.415e-5
-1.635, 7.415e-5
-1.636, 7.415e-5
-1.637, 7.723e-5
-1.638, 7.723e-5
-1.639, 7.723e-5
-1.640, 8.032e-5
-1.641, 8.032e-5
-1.642, 8.340e-5
-1.643, 8.340e-5
-1.644, 8.648e-5
-1.645, 8.648e-5
-1.646, 8.957e-5
-1.647, 8.957e-5
-1.648, 9.265e-5
-1.649, 9.265e-5
-1.650, 9.573e-5
-1.651, 9.573e-5
-1.652, 9.882e-5
-1.653, 9.882e-5
-1.654, 9.882e-5
-1.655, 1.019e-4
-1.656, 1.050e-4
-1.657, 1.081e-4
-1.658, 1.111e-4
-1.659, 1.111e-4
-1.660, 1.142e-4
-1.661, 1.173e-4
-1.662, 1.204e-4
-1.663, 1.204e-4
-1.664, 1.235e-4
-1.665, 1.266e-4
-1.666, 1.266e-4
-1.667, 1.296e-4
-1.668, 1.296e-4
-1.669, 1.327e-4
-1.670, 1.358e-4
-1.671, 1.389e-4
-1.672, 1.420e-4
-1.673, 1.420e-4
-1.674, 1.481e-4
-1.675, 1.481e-4
-1.676, 1.512e-4
-1.677, 1.574e-4
-1.678, 1.605e-4
-1.679, 1.636e-4
-1.680, 1.666e-4
-1.681, 1.697e-4
-1.682, 1.728e-4
-1.683, 1.759e-4
-1.684, 1.821e-4
-1.685, 1.821e-4
-1.686, 1.882e-4
-1.687, 1.913e-4
-1.688, 1.944e-4
-1.689, 2.006e-4
-1.690, 2.036e-4
-1.691, 2.098e-4
-1.692, 2.160e-4
-1.693, 2.221e-4
-1.694, 2.252e-4
-1.695, 2.314e-4
-1.696, 2.345e-4
-1.697, 2.376e-4
-1.698, 2.437e-4
-1.699, 2.499e-4
-1.700, 2.561e-4
-1.701, 2.591e-4
-1.702, 2.653e-4
-1.703, 2.715e-4
-1.704, 2.807e-4
-1.705, 2.869e-4
-1.706, 2.931e-4
-1.707, 3.023e-4
-1.708, 3.085e-4
-1.709, 3.146e-4
-1.710, 3.208e-4
-1.711, 3.270e-4
-1.712, 3.331e-4
-1.713, 3.393e-4
-1.714, 3.485e-4
-1.715, 3.578e-4
-1.716, 3.640e-4
-1.717, 3.732e-4
-1.718, 3.825e-4
-1.719, 3.917e-4
-1.720, 3.979e-4
-1.721, 4.071e-4
-1.722, 4.164e-4
-1.723, 4.256e-4
-1.724, 4.380e-4
-1.725, 4.441e-4
-1.726, 4.534e-4
-1.727, 4.626e-4
-1.728, 4.750e-4
-1.729, 4.842e-4
-1.730, 4.965e-4
-1.731, 5.058e-4
-1.732, 5.181e-4
-1.733, 5.305e-4
-1.734, 5.428e-4
-1.735, 5.551e-4
-1.736, 5.674e-4
-1.737, 5.798e-4
-1.738, 5.921e-4
-1.739, 6.044e-4
-1.740, 6.199e-4
-1.741, 6.322e-4
-1.742, 6.476e-4
-1.743, 6.599e-4
-1.744, 6.723e-4
-1.745, 6.877e-4
-1.746, 7.031e-4
-1.747, 7.185e-4
-1.748, 7.339e-4
-1.749, 7.524e-4
-1.750, 7.679e-4
-1.751, 7.863e-4
-1.752, 8.018e-4
-1.753, 8.172e-4
-1.754, 8.357e-4
-1.755, 8.542e-4
-1.756, 8.727e-4
-1.757, 8.912e-4
-1.758, 9.097e-4
-1.759, 9.282e-4
-1.760, 9.467e-4
-1.761, 9.683e-4
-1.762, 9.868e-4
-1.763, 1.005e-3
-1.764, 1.030e-3
-1.765, 1.048e-3
-1.766, 1.073e-3
-1.767, 1.095e-3
-1.768, 1.116e-3
-1.769, 1.138e-3
-1.770, 1.159e-3
-1.771, 1.184e-3
-1.772, 1.203e-3
-1.773, 1.227e-3
-1.774, 1.255e-3
-1.775, 1.280e-3
-1.776, 1.304e-3
-1.777, 1.326e-3
-1.778, 1.354e-3
-1.779, 1.378e-3
-1.780, 1.403e-3
-1.781, 1.431e-3
-1.782, 1.458e-3
-1.783, 1.486e-3
-1.784, 1.514e-3
-1.785, 1.542e-3
-1.786, 1.569e-3
-1.787, 1.597e-3
-1.788, 1.628e-3
-1.789, 1.659e-3
-1.790, 1.687e-3
-1.791, 1.717e-3
-1.792, 1.748e-3
-1.793, 1.779e-3
-1.794, 1.810e-3
-1.795, 1.838e-3
-1.796, 1.872e-3
-1.797, 1.906e-3
-1.798, 1.939e-3
-1.799, 1.973e-3
-1.800, 2.004e-3
-1.801, 2.038e-3
-1.802, 2.069e-3
-1.803, 2.103e-3
-1.804, 2.137e-3
-1.805, 2.168e-3
-1.806, 2.205e-3
-1.807, 2.242e-3
-1.808, 2.279e-3
-1.809, 2.312e-3
-1.810, 2.346e-3
-1.811, 2.383e-3
-1.812, 2.423e-3
-1.813, 2.460e-3
-1.814, 2.497e-3
-1.815, 2.538e-3
-1.816, 2.578e-3
-1.817, 2.615e-3
-1.818, 2.652e-3
-1.819, 2.689e-3
-1.820, 2.729e-3
-1.821, 2.766e-3
-1.822, 2.809e-3
-1.823, 2.849e-3
-1.824, 2.892e-3
-1.825, 2.935e-3
-1.826, 2.978e-3
-1.827, 3.019e-3
-1.828, 3.062e-3
-1.829, 3.105e-3
-1.830, 3.145e-3
-1.831, 3.191e-3
-1.832, 3.234e-3
-1.833, 3.278e-3
-1.834, 3.321e-3
-1.835, 3.361e-3
-1.836, 3.407e-3
-1.837, 3.450e-3
-1.838, 3.493e-3
-1.839, 3.540e-3
-1.840, 3.586e-3
-1.841, 3.635e-3
-1.842, 3.681e-3
-1.843, 3.725e-3
-1.844, 3.771e-3
-1.845, 3.814e-3
-1.846, 3.863e-3
-1.847, 3.913e-3
-1.848, 3.962e-3
-1.849, 4.008e-3
-1.850, 4.054e-3
-1.851, 4.098e-3
-1.852, 4.141e-3
-1.853, 4.190e-3
-1.854, 4.239e-3
-1.855, 4.286e-3
-1.856, 4.338e-3
-1.857, 4.394e-3
-1.858, 4.449e-3
-1.859, 4.498e-3
-1.860, 4.538e-3
-1.861, 4.569e-3
-1.862, 4.600e-3
-1.863, 4.631e-3
-1.864, 4.671e-3
-1.865, 4.727e-3
-1.866, 4.788e-3
-1.867, 4.859e-3
-1.868, 4.924e-3
-1.869, 4.989e-3
-1.870, 5.041e-3
-1.871, 5.087e-3
-1.872, 5.127e-3
-1.873, 5.174e-3
-1.874, 5.226e-3
-1.875, 5.278e-3
-1.876, 5.325e-3
-1.877, 5.362e-3
-1.878, 5.396e-3
-1.879, 5.430e-3
-1.880, 5.476e-3
-1.881, 5.544e-3
-1.882, 5.621e-3
-1.883, 5.701e-3
-1.884, 5.772e-3
-1.885, 5.833e-3
-1.886, 5.886e-3
-1.887, 5.929e-3
-1.888, 5.972e-3
-1.889, 6.018e-3
-1.890, 6.065e-3
-1.891, 6.114e-3
-1.892, 6.157e-3
-1.893, 6.200e-3
-1.894, 6.243e-3
-1.895, 6.293e-3
-1.896, 6.354e-3
-1.897, 6.422e-3
-1.898, 6.496e-3
-1.899, 6.570e-3
-1.900, 6.610e-3
-1.899, 6.589e-3
-1.898, 6.561e-3
-1.897, 6.521e-3
-1.896, 6.475e-3
-1.895, 6.432e-3
-1.894, 6.385e-3
-1.893, 6.342e-3
-1.892, 6.302e-3
-1.891, 6.262e-3
-1.890, 6.225e-3
-1.889, 6.191e-3
-1.888, 6.160e-3
-1.887, 6.132e-3
-1.886, 6.105e-3
-1.885, 6.074e-3
-1.884, 6.043e-3
-1.883, 6.006e-3
-1.882, 5.963e-3
-1.881, 5.920e-3
-1.880, 5.873e-3
-1.879, 5.827e-3
-1.878, 5.781e-3
-1.877, 5.741e-3
-1.876, 5.704e-3
-1.875, 5.670e-3
-1.874, 5.636e-3
-1.873, 5.602e-3
-1.872, 5.568e-3
-1.871, 5.534e-3
-1.870, 5.500e-3
-1.869, 5.463e-3
-1.868, 5.426e-3
-1.867, 5.386e-3
-1.866, 5.343e-3
-1.865, 5.294e-3
-1.864, 5.251e-3
-1.863, 5.204e-3
-1.862, 5.164e-3
-1.861, 5.127e-3
-1.860, 5.090e-3
-1.859, 5.053e-3
-1.858, 5.016e-3
-1.857, 4.982e-3
-1.856, 4.945e-3
-1.855, 4.908e-3
-1.854, 4.865e-3
-1.853, 4.825e-3
-1.852, 4.782e-3
-1.851, 4.742e-3
-1.850, 4.699e-3
-1.849, 4.656e-3
-1.848, 4.612e-3
-1.847, 4.569e-3
-1.846, 4.532e-3
-1.845, 4.492e-3
-1.844, 4.455e-3
-1.843, 4.421e-3
-1.842, 4.384e-3
-1.841, 4.347e-3
-1.840, 4.307e-3
-1.839, 4.267e-3
-1.838, 4.230e-3
-1.837, 4.190e-3
-1.836, 4.153e-3
-1.835, 4.116e-3
-1.834, 4.082e-3
-1.833, 4.042e-3
-1.832, 4.005e-3
-1.831, 3.968e-3
-1.830, 3.931e-3
-1.829, 3.894e-3
-1.828, 3.860e-3
-1.827, 3.826e-3
-1.826, 3.792e-3
-1.825, 3.758e-3
-1.824, 3.725e-3
-1.823, 3.684e-3
-1.822, 3.647e-3
-1.821, 3.610e-3
-1.820, 3.573e-3
-1.819, 3.536e-3
-1.818, 3.503e-3
-1.817, 3.466e-3
-1.816, 3.432e-3
-1.815, 3.395e-3
-1.814, 3.361e-3
-1.813, 3.324e-3
-1.812, 3.290e-3
-1.811, 3.256e-3
-1.810, 3.225e-3
-1.809, 3.191e-3
-1.808, 3.154e-3
-1.807, 3.120e-3
-1.806, 3.086e-3
-1.805, 3.052e-3
-1.804, 3.019e-3
-1.803, 2.988e-3
-1.802, 2.954e-3
-1.801, 2.923e-3
-1.800, 2.889e-3
-1.799, 2.858e-3
-1.798, 2.827e-3
-1.797, 2.793e-3
-1.796, 2.766e-3
-1.795, 2.732e-3
-1.794, 2.704e-3
-1.793, 2.673e-3
-1.792, 2.642e-3
-1.791, 2.612e-3
-1.790, 2.584e-3
-1.789, 2.553e-3
-1.788, 2.522e-3
-1.787, 2.494e-3
-1.786, 2.464e-3
-1.785, 2.436e-3
-1.784, 2.408e-3
-1.783, 2.377e-3
-1.782, 2.349e-3
-1.781, 2.319e-3
-1.780, 2.291e-3
-1.779, 2.263e-3
-1.778, 2.235e-3
-1.777, 2.208e-3
-1.776, 2.183e-3
-1.775, 2.155e-3
-1.774, 2.128e-3
-1.773, 2.100e-3
-1.772, 2.072e-3
-1.771, 2.044e-3
-1.770, 2.020e-3
-1.769, 1.992e-3
-1.768, 1.970e-3
-1.767, 1.946e-3
-1.766, 1.918e-3
-1.765, 1.893e-3
-1.764, 1.865e-3
-1.763, 1.841e-3
-1.762, 1.816e-3
-1.761, 1.795e-3
-1.760, 1.767e-3
-1.759, 1.745e-3
-1.758, 1.721e-3
-1.757, 1.696e-3
-1.756, 1.671e-3
-1.755, 1.647e-3
-1.754, 1.625e-3
-1.753, 1.603e-3
-1.752, 1.582e-3
-1.751, 1.560e-3
-1.750, 1.536e-3
-1.749, 1.514e-3
-1.748, 1.492e-3
-1.747, 1.471e-3
-1.746, 1.449e-3
-1.745, 1.431e-3
-1.744, 1.412e-3
-1.743, 1.388e-3
-1.742, 1.369e-3
-1.741, 1.347e-3
-1.740, 1.326e-3
-1.739, 1.307e-3
-1.738, 1.289e-3
-1.737, 1.267e-3
-1.736, 1.249e-3
-1.735, 1.230e-3
-1.734, 1.212e-3
-1.733, 1.193e-3
-1.732, 1.175e-3
-1.731, 1.156e-3
-1.730, 1.141e-3
-1.729, 1.122e-3
-1.728, 1.107e-3
-1.727, 1.088e-3
-1.726, 1.070e-3
-1.725, 1.055e-3
-1.724, 1.036e-3
-1.723, 1.021e-3
-1.722, 1.002e-3
-1.721, 9.868e-4
-1.720, 9.713e-4
-1.719, 9.559e-4
-1.718, 9.436e-4
-1.717, 9.251e-4
-1.716, 9.128e-4
-1.715, 8.973e-4
-1.714, 8.819e-4
-1.713, 8.665e-4
-1.712, 8.511e-4
-1.711, 8.418e-4
-1.710, 8.264e-4
-1.709, 8.141e-4
-1.708, 7.987e-4
-1.707, 7.863e-4
-1.706, 7.740e-4
-1.705, 7.617e-4
-1.704, 7.494e-4
-1.703, 7.339e-4
-1.702, 7.216e-4
-1.701, 7.093e-4
-1.700, 6.969e-4
-1.699, 6.846e-4
-1.698, 6.723e-4
-1.697, 6.630e-4
-1.696, 6.507e-4
-1.695, 6.384e-4
-1.694, 6.291e-4
-1.693, 6.168e-4
-1.692, 6.075e-4
-1.691, 5.952e-4
-1.690, 5.859e-4
-1.689, 5.736e-4
-1.688, 5.644e-4
-1.687, 5.520e-4
-1.686, 5.428e-4
-1.685, 5.335e-4
-1.684, 5.243e-4
-1.683, 5.150e-4
-1.682, 5.058e-4
-1.681, 4.965e-4
-1.680, 4.873e-4
-1.679, 4.780e-4
-1.678, 4.719e-4
-1.677, 4.595e-4
-1.676, 4.534e-4
-1.675, 4.441e-4
-1.674, 4.349e-4
-1.673, 4.287e-4
-1.672, 4.195e-4
-1.671, 4.133e-4
-1.670, 4.040e-4
-1.669, 3.979e-4
-1.668, 3.886e-4
-1.667, 3.825e-4
-1.666, 3.763e-4
-1.665, 3.670e-4
-1.664, 3.609e-4
-1.663, 3.547e-4
-1.662, 3.485e-4
-1.661, 3.424e-4
-1.660, 3.331e-4
-1.659, 3.300e-4
-1.658, 3.208e-4
-1.657, 3.177e-4
-1.656, 3.085e-4
-1.655, 3.023e-4
-1.654, 2.961e-4
-1.653, 2.900e-4
-1.652, 2.869e-4
-1.651, 2.807e-4
-1.650, 2.776e-4
-1.649, 2.715e-4
-1.648, 2.653e-4
-1.647, 2.622e-4
-1.646, 2.561e-4
-1.645, 2.530e-4
-1.644, 2.468e-4
-1.643, 2.406e-4
-1.642, 2.376e-4
-1.641, 2.314e-4
-1.640, 2.283e-4
-1.639, 2.221e-4
-1.638, 2.191e-4
-1.637, 2.160e-4
-1.636, 2.098e-4
-1.635, 2.067e-4
-1.634, 2.036e-4
-1.633, 1.975e-4
-1.632, 1.944e-4
-1.631, 1.913e-4
-1.630, 1.882e-4
-1.629, 1.821e-4
-1.628, 1.790e-4
-1.627, 1.759e-4
-1.626, 1.759e-4
-1.625, 1.697e-4
-1.624, 1.666e-4
-1.623, 1.605e-4
-1.622, 1.605e-4
-1.621, 1.574e-4
-1.620, 1.543e-4
-1.619, 1.512e-4
-1.618, 1.481e-4
-1.617, 1.451e-4
-1.616, 1.420e-4
-1.615, 1.389e-4
-1.614, 1.358e-4
-1.613, 1.327e-4
-1.612, 1.296e-4
-1.611, 1.266e-4
-1.610, 1.266e-4
-1.609, 1.235e-4
-1.608, 1.204e-4
-1.607, 1.173e-4
-1.606, 1.142e-4
-1.605, 1.142e-4
-1.604, 1.111e-4
-1.603, 1.081e-4
-1.602, 1.081e-4
-1.601, 1.050e-4
-1.600, 1.019e-4
-1.599, 9.882e-5
-1.598, 9.882e-5
-1.597, 9.573e-5
-1.596, 9.573e-5
-1.595, 9.265e-5
-1.594, 8.957e-5
-1.593, 8.957e-5
-1.592, 8.648e-5
-1.591, 8.648e-5
-1.590, 8.340e-5
-1.589, 8.032e-5
-1.588, 8.032e-5
-1.587, 7.723e-5
-1.586, 7.723e-5
-1.585, 7.415e-5
-1.584, 7.415e-5
-1.583, 7.107e-5
-1.582, 7.107e-5
-1.581, 7.107e-5
-1.580, 6.490e-5
-1.579, 6.798e-5
-1.578, 6.490e-5
-1.577, 6.490e-5
-1.576, 6.182e-5
-1.575, 6.182e-5
-1.574, 6.182e-5
-1.573, 5.873e-5
-1.572, 5.873e-5
-1.571, 5.565e-5
-1.570, 5.565e-5
-1.569, 5.565e-5
-1.568, 5.257e-5
-1.567, 5.257e-5
-1.566, 4.949e-5
-1.565, 4.949e-5
-1.564, 4.949e-5
-1.563, 4.640e-5
-1.562, 4.949e-5
-1.561, 4.640e-5
-1.560, 4.640e-5
-1.559, 4.640e-5
-1.558, 4.332e-5
-1.557, 4.332e-5
-1.556, 4.332e-5
-1.555, 4.332e-5
-1.554, 4.024e-5
-1.553, 4.024e-5
-1.552, 3.715e-5
-1.551, 3.715e-5
-1.550, 3.715e-5
-1.549, 3.407e-5
-1.548, 3.407e-5
-1.547, 3.407e-5
-1.546, 3.407e-5
-1.545, 3.407e-5
-1.544, 3.099e-5
-1.543, 3.407e-5
-1.542, 3.099e-5
-1.541, 3.407e-5
-1.540, 3.099e-5
-1.539, 3.099e-5
-1.538, 2.790e-5
-1.537, 2.790e-5
-1.536, 2.790e-5
-1.535, 2.482e-5
-1.534, 2.790e-5
-1.533, 2.482e-5
-1.532, 2.482e-5
-1.531, 2.482e-5
-1.530, 2.482e-5
-1.529, 2.482e-5
-1.528, 2.174e-5
-1.527, 2.482e-5
-1.526, 2.482e-5
-1.525, 2.174e-5
-1.524, 2.174e-5
-1.523, 2.174e-5
-1.522, 2.174e-5
-1.521, 1.865e-5
-1.520, 2.174e-5
-1.519, 1.865e-5
-1.518, 1.865e-5
-1.517, 1.865e-5
-1.516, 1.865e-5
-1.515, 1.557e-5
-1.514, 1.865e-5
-1.513, 1.865e-5
-1.512, 1.865e-5
-1.511, 1.557e-5
-1.510, 1.557e-5
-1.509, 1.557e-5
-1.508, 1.557e-5
-1.507, 1.249e-5
-1.506, 1.249e-5
-1.505, 1.557e-5
-1.504, 1.249e-5
-1.503, 1.249e-5
-1.502, 1.249e-5
-1.501, 1.249e-5
-1.500, 1.249e-5
-1.499, 1.249e-5
-1.498, 1.249e-5
-1.497, 1.249e-5
-1.496, 1.249e-5
-1.495, 9.405e-6
-1.494, 1.249e-5
-1.493, 9.405e-6
-1.492, 9.405e-6
-1.491, 9.405e-6
-1.490, 9.405e-6
-1.489, 9.405e-6
-1.488, 9.405e-6
-1.487, 9.405e-6
-1.486, 9.405e-6
-1.485, 9.405e-6
-1.484, 9.405e-6
-1.483, 6.322e-6
-1.482, 9.405e-6
-1.481, 6.322e-6
-1.480, 9.405e-6
-1.479, 9.405e-6
-1.478, 6.322e-6
-1.477, 6.322e-6
-1.476, 6.322e-6
-1.475, 6.322e-6
-1.474, 6.322e-6
-1.473, 6.322e-6
-1.472, 6.322e-6
-1.471, 3.239e-6
-1.470, 6.322e-6
-1.469, 6.322e-6
-1.468, 6.322e-6
-1.467, 6.322e-6
-1.466, 6.322e-6
-1.465, 3.239e-6
-1.464, 3.239e-6
-1.463, 3.239e-6
-1.462, 3.239e-6
-1.461, 6.322e-6
-1.460, 3.239e-6
-1.459, 3.239e-6
-1.458, 3.239e-6
-1.457, 3.239e-6
-1.456, 3.239e-6
-1.455, 3.239e-6
-1.454, 3.239e-6
-1.453, 3.239e-6
-1.452, 3.239e-6
-1.451, 3.239e-6
-1.450, 1.559e-7
-1.449, 3.239e-6
-1.448, 3.239e-6
-1.447, 3.239e-6
-1.446, 3.239e-6
-1.445, 3.239e-6
-1.444, 3.239e-6
-1.443, 1.559e-7
-1.442, 3.239e-6
-1.441, 1.559e-7
-1.440, 1.559e-7
-1.439, 1.559e-7
-1.438, 1.559e-7
-1.437, 3.239e-6
-1.436, 1.559e-7
-1.435, 1.559e-7
-1.434, 3.239e-6
-1.433, 1.559e-7
-1.432, 1.559e-7
-1.431, 1.559e-7
-1.430, 3.239e-6
-1.429, 1.559e-7
-1.428, 1.559e-7
-1.427, 1.559e-7
-1.426, 1.559e-7
-1.425, 1.559e-7
-1.424, 1.559e-7
-1.423, 1.559e-7
-1.422, 1.559e-7
-1.421, 1.559e-7
-1.420, 1.559e-7
-1.419, 1.559e-7
-1.418, 1.559e-7
-1.417, -2.927e-6
-1.416, 1.559e-7
-1.415, 1.559e-7
-1.414, 1.559e-7
-1.413, 1.559e-7
-1.412, 1.559e-7
-1.411, 1.559e-7
-1.410, 1.559e-7
-1.409, 1.559e-7
-1.408, 1.559e-7
-1.407, -2.927e-6
-1.406, 1.559e-7
-1.405, 1.559e-7
-1.404, 1.559e-7
-1.403, 1.559e-7
-1.402, 1.559e-7
-1.401, 1.559e-7
-1.400, -2.927e-6
-1.399, -2.927e-6
-1.398, -2.927e-6
-1.397, 1.559e-7
-1.396, 1.559e-7
-1.395, -2.927e-6
-1.394, -2.927e-6
-1.393, -2.927e-6
-1.392, 1.559e-7
-1.391, -2.927e-6
-1.390, -2.927e-6
-1.389, -2.927e-6
-1.388, 1.559e-7
-1.387, 1.559e-7
-1.386, -2.927e-6
-1.385, -2.927e-6
-1.384, -2.927e-6
-1.383, 1.559e-7
-1.382, -2.927e-6
-1.381, -2.927e-6
-1.380, -2.927e-6
-1.379, -2.927e-6
-1.378, 1.559e-7
-1.377, -2.927e-6
-1.376, 1.559e-7
-1.375, -2.927e-6
-1.374, -2.927e-6
-1.373, 1.559e-7
-1.372, -2.927e-6
-1.371, -2.927e-6
-1.370, -2.927e-6
-1.369, -2.927e-6
-1.368, -2.927e-6
-1.367, -2.927e-6
-1.366, -2.927e-6
-1.365, -2.927e-6
-1.364, -2.927e-6
-1.363, -2.927e-6
-1.362, -2.927e-6
-1.361, -2.927e-6
-1.360, -2.927e-6
-1.359, 1.559e-7
-1.358, -2.927e-6
-1.357, -2.927e-6
-1.356, -2.927e-6
-1.355, -2.927e-6
-1.354, -2.927e-6
-1.353, -2.927e-6
-1.352, -2.927e-6
-1.351, -2.927e-6
-1.350, -2.927e-6
-1.349, -2.927e-6
-1.348, -2.927e-6
-1.347, -2.927e-6
-1.346, -2.927e-6
-1.345, -2.927e-6
-1.344, -2.927e-6
-1.343, -2.927e-6
-1.342, -2.927e-6
-1.341, -2.927e-6
-1.340, -2.927e-6
-1.339, -2.927e-6
-1.338, -2.927e-6
-1.337, -2.927e-6
-1.336, -2.927e-6
-1.335, -2.927e-6
-1.334, -2.927e-6
-1.333, -2.927e-6
-1.332, -2.927e-6
-1.331, -2.927e-6
-1.330, -2.927e-6
-1.329, -2.927e-6
-1.328, -2.927e-6
-1.327, -2.927e-6
-1.326, -2.927e-6
-1.325, -6.010e-6
-1.324, -2.927e-6
-1.323, -2.927e-6
-1.322, -2.927e-6
-1.321, -2.927e-6
-1.320, -2.927e-6
-1.319, -2.927e-6
-1.318, -2.927e-6
-1.317, -2.927e-6
-1.316, -2.927e-6
-1.315, -2.927e-6
-1.314, -2.927e-6
-1.313, -2.927e-6
-1.312, -2.927e-6
-1.311, -2.927e-6
-1.310, -2.927e-6
-1.309, -2.927e-6
-1.308, -2.927e-6
-1.307, -2.927e-6
-1.306, -2.927e-6
-1.305, -2.927e-6
-1.304, -2.927e-6
-1.303, -2.927e-6
-1.302, -2.927e-6
-1.301, -2.927e-6
-1.300, -2.927e-6
-1.299, -6.010e-6
-1.298, -2.927e-6
-1.297, -2.927e-6
-1.296, -2.927e-6
-1.295, -2.927e-6
-1.294, -2.927e-6
-1.293, -2.927e-6
-1.292, -2.927e-6
-1.291, -2.927e-6
-1.290, -2.927e-6
-1.289, -2.927e-6
-1.288, -2.927e-6
-1.287, -2.927e-6
-1.286, -2.927e-6
-1.285, -2.927e-6
-1.284, -2.927e-6
-1.283, -2.927e-6
-1.282, -2.927e-6
-1.281, -2.927e-6
-1.280, -6.010e-6
-1.279, -2.927e-6
-1.278, -2.927e-6
-1.277, -2.927e-6
-1.276, -2.927e-6
-1.275, -6.010e-6
-1.274, -2.927e-6
-1.273, -2.927e-6
-1.272, -2.927e-6
-1.271, -2.927e-6
-1.270, -2.927e-6
-1.269, -2.927e-6
-1.268, -6.010e-6
-1.267, -2.927e-6
-1.266, -6.010e-6
-1.265, -2.927e-6
-1.264, -6.010e-6
-1.263, -2.927e-6
-1.262, -2.927e-6
-1.261, -2.927e-6
-1.260, -2.927e-6
-1.259, -2.927e-6
-1.258, -2.927e-6
-1.257, -2.927e-6
-1.256, -2.927e-6
-1.255, -2.927e-6
-1.254, -6.010e-6
-1.253, -2.927e-6
-1.252, -6.010e-6
-1.251, -2.927e-6
-1.250, -2.927e-6
-1.249, -6.010e-6
-1.248, -2.927e-6
-1.247, -6.010e-6
-1.246, -2.927e-6
-1.245, -6.010e-6
-1.244, -2.927e-6
-1.243, -2.927e-6
-1.242, -6.010e-6
-1.241, -2.927e-6
-1.240, -2.927e-6
-1.239, -6.010e-6
-1.238, -2.927e-6
-1.237, -2.927e-6
-1.236, -2.927e-6
-1.235, -6.010e-6
-1.234, -2.927e-6
-1.233, -6.010e-6
-1.232, -2.927e-6
-1.231, -2.927e-6
-1.230, -6.010e-6
-1.229, -2.927e-6
-1.228, -6.010e-6
-1.227, -6.010e-6
-1.226, -6.010e-6
-1.225, -6.010e-6
-1.224, -6.010e-6
-1.223, -6.010e-6
-1.222, -2.927e-6
-1.221, -6.010e-6
-1.220, -2.927e-6
-1.219, -6.010e-6
-1.218, -6.010e-6
-1.217, -2.927e-6
-1.216, -6.010e-6
-1.215, -2.927e-6
-1.214, -6.010e-6
-1.213, -6.010e-6
-1.212, -6.010e-6
-1.211, -6.010e-6
-1.210, -6.010e-6
-1.209, -6.010e-6
-1.208, -2.927e-6
-1.207, -6.010e-6
-1.206, -6.010e-6
-1.205, -2.927e-6
-1.204, -6.010e-6
-1.203, -2.927e-6
-1.202, -6.010e-6
-1.201, -2.927e-6
-1.200, -6.010e-6
-1.199, -6.010e-6
-1.198, -6.010e-6
-1.197, -6.010e-6
-1.196, -2.927e-6
-1.195, -6.010e-6
-1.194, -2.927e-6
-1.193, -6.010e-6
-1.192, -6.010e-6
-1.191, -6.010e-6
-1.190, -6.010e-6
-1.189, -2.927e-6
-1.188, -6.010e-6
-1.187, -2.927e-6
-1.186, -6.010e-6
-1.185, -6.010e-6
-1.184, -2.927e-6
-1.183, -6.010e-6
-1.182, -6.010e-6
-1.181, -6.010e-6
-1.180, -2.927e-6
-1.179, -2.927e-6
-1.178, -6.010e-6
-1.177, -2.927e-6
-1.176, -6.010e-6
-1.175, -6.010e-6
-1.174, -6.010e-6
-1.173, -6.010e-6
-1.172, -6.010e-6
-1.171, -6.010e-6
-1.170, -6.010e-6
-1.169, -6.010e-6
-1.168, -2.927e-6
-1.167, -6.010e-6
-1.166, -6.010e-6
-1.165, -6.010e-6
-1.164, -6.010e-6
-1.163, -2.927e-6
-1.162, -6.010e-6
-1.161, -6.010e-6
-1.160, -6.010e-6
-1.159, -6.010e-6
-1.158, -6.010e-6
-1.157, -6.010e-6
-1.156, -2.927e-6
-1.155, -6.010e-6
-1.154, -6.010e-6
-1.153, -6.010e-6
-1.152, -6.010e-6
-1.151, -6.010e-6
-1.150, -6.010e-6
-1.149, -6.010e-6
-1.148, -6.010e-6
-1.147, -6.010e-6
-1.146, -6.010e-6
-1.145, -6.010e-6
-1.144, -6.010e-6
-1.143, -6.010e-6
-1.142, -6.010e-6
-1.141, -6.010e-6
-1.140, -6.010e-6
-1.139, -6.010e-6
-1.138, -6.010e-6
-1.137, -6.010e-6
-1.136, -6.010e-6
-1.135, -6.010e-6
-1.134, -6.010e-6
-1.133, -6.010e-6
-1.132, -6.010e-6
-1.131, -6.010e-6
-1.130, -6.010e-6
-1.129, -6.010e-6
-1.128, -6.010e-6
-1.127, -6.010e-6
-1.126, -6.010e-6
-1.125, -6.010e-6
-1.124, -6.010e-6
-1.123, -6.010e-6
-1.122, -6.010e-6
-1.121, -6.010e-6
-1.120, -6.010e-6
-1.119, -6.010e-6
-1.118, -6.010e-6
-1.117, -6.010e-6
-1.116, -6.010e-6
-1.115, -6.010e-6
-1.114, -6.010e-6
-1.113, -6.010e-6
-1.112, -6.010e-6
-1.111, -6.010e-6
-1.110, -6.010e-6
-1.109, -6.010e-6
-1.108, -6.010e-6
-1.107, -6.010e-6
-1.106, -6.010e-6
-1.105, -6.010e-6
-1.104, -6.010e-6
-1.103, -6.010e-6
-1.102, -6.010e-6
-1.101, -6.010e-6
-1.100, -6.010e-6
-1.099, -6.010e-6
-1.098, -6.010e-6
-1.097, -6.010e-6
-1.096, -6.010e-6
-1.095, -6.010e-6
-1.094, -6.010e-6
-1.093, -6.010e-6
-1.092, -6.010e-6
-1.091, -6.010e-6
-1.090, -6.010e-6
-1.089, -6.010e-6
-1.088, -6.010e-6
-1.087, -6.010e-6
-1.086, -6.010e-6
-1.085, -6.010e-6
-1.084, -6.010e-6
-1.083, -6.010e-6
-1.082, -6.010e-6
-1.081, -6.010e-6
-1.080, -6.010e-6
-1.079, -6.010e-6
-1.078, -6.010e-6
-1.077, -6.010e-6
-1.076, -6.010e-6
-1.075, -6.010e-6
-1.074, -6.010e-6
-1.073, -6.010e-6
-1.072, -6.010e-6
-1.071, -6.010e-6
-1.070, -6.010e-6
-1.069, -6.010e-6
-1.068, -6.010e-6
-1.067, -6.010e-6
-1.066, -6.010e-6
-1.065, -9.093e-6
-1.064, -6.010e-6
-1.063, -6.010e-6
-1.062, -6.010e-6
-1.061, -6.010e-6
-1.060, -6.010e-6
-1.059, -6.010e-6
-1.058, -6.010e-6
-1.057, -6.010e-6
-1.056, -6.010e-6
-1.055, -6.010e-6
-1.054, -6.010e-6
-1.053, -9.093e-6
-1.052, -6.010e-6
-1.051, -6.010e-6
-1.050, -6.010e-6
-1.049, -6.010e-6
-1.048, -6.010e-6
-1.047, -6.010e-6
-1.046, -6.010e-6
-1.045, -6.010e-6
-1.044, -6.010e-6
-1.043, -6.010e-6
-1.042, -6.010e-6
-1.041, -6.010e-6
-1.040, -6.010e-6
-1.039, -9.093e-6
-1.038, -6.010e-6
-1.037, -6.010e-6
-1.036, -6.010e-6
-1.035, -6.010e-6
-1.034, -6.010e-6
-1.033, -6.010e-6
-1.032, -9.093e-6
-1.031, -6.010e-6
-1.030, -6.010e-6
-1.029, -6.010e-6
-1.028, -6.010e-6
-1.027, -6.010e-6
-1.026, -6.010e-6
-1.025, -6.010e-6
-1.024, -6.010e-6
-1.023, -9.093e-6
-1.022, -6.010e-6
-1.021, -6.010e-6
-1.020, -9.093e-6
-1.019, -6.010e-6
-1.018, -9.093e-6
-1.017, -6.010e-6
-1.016, -6.010e-6
-1.015, -9.093e-6
-1.014, -6.010e-6
-1.013, -9.093e-6
-1.012, -6.010e-6
-1.011, -9.093e-6
-1.010, -6.010e-6
-1.009, -6.010e-6
-1.008, -9.093e-6
-1.007, -6.010e-6
-1.006, -9.093e-6
-1.005, -6.010e-6
-1.004, -6.010e-6
-1.003, -6.010e-6
-1.002, -9.093e-6
-1.001, -9.093e-6
