July 12, 2024   11:24:38
Cyclic Voltammetry
File: c:/users/guazh/data/20240709_batch67/2024-07-10-exp21\exp21-2024-07-12t10_59_42-h2koh\exp21_cv_sr_400mvs_efin_-2000mv.bin
Data Source:  Experiment
Instrument Model:  CHI760E
Header: CV ran at 400 mVs
Note: 

Init E (V) = -1
High E (V) = -1
Low E (V) = -2
Final E (V) = -1
Init P/N = N
Scan Rate (V/s) = 0.4
Segment = 3
Sample Interval (V) = 0.001
Quiet Time (sec) = 2
Sensitivity (A/V) = 0.01
Comp R (ohm) = 1.7

Results:

Channel 1:
Segment 1:

Segment 2:

Segment 3:

Potential/V, Current/A

-1.000, 1.559e-7
-1.001, 3.239e-6
-1.002, 1.559e-7
-1.003, 1.559e-7
-1.004, 3.239e-6
-1.005, 3.239e-6
-1.006, 3.239e-6
-1.007, 1.559e-7
-1.008, 3.239e-6
-1.009, 3.239e-6
-1.010, 3.239e-6
-1.011, 3.239e-6
-1.012, 3.239e-6
-1.013, 3.239e-6
-1.014, 3.239e-6
-1.015, 3.239e-6
-1.016, 1.559e-7
-1.017, 3.239e-6
-1.018, 3.239e-6
-1.019, 3.239e-6
-1.020, 3.239e-6
-1.021, 3.239e-6
-1.022, 3.239e-6
-1.023, 3.239e-6
-1.024, 3.239e-6
-1.025, 3.239e-6
-1.026, 3.239e-6
-1.027, 3.239e-6
-1.028, 3.239e-6
-1.029, 3.239e-6
-1.030, 3.239e-6
-1.031, 3.239e-6
-1.032, 3.239e-6
-1.033, 3.239e-6
-1.034, 3.239e-6
-1.035, 3.239e-6
-1.036, 3.239e-6
-1.037, 3.239e-6
-1.038, 3.239e-6
-1.039, 3.239e-6
-1.040, 3.239e-6
-1.041, 3.239e-6
-1.042, 3.239e-6
-1.043, 3.239e-6
-1.044, 3.239e-6
-1.045, 3.239e-6
-1.046, 3.239e-6
-1.047, 3.239e-6
-1.048, 3.239e-6
-1.049, 3.239e-6
-1.050, 3.239e-6
-1.051, 3.239e-6
-1.052, 3.239e-6
-1.053, 3.239e-6
-1.054, 3.239e-6
-1.055, 3.239e-6
-1.056, 3.239e-6
-1.057, 3.239e-6
-1.058, 3.239e-6
-1.059, 3.239e-6
-1.060, 3.239e-6
-1.061, 3.239e-6
-1.062, 3.239e-6
-1.063, 3.239e-6
-1.064, 3.239e-6
-1.065, 3.239e-6
-1.066, 3.239e-6
-1.067, 3.239e-6
-1.068, 3.239e-6
-1.069, 3.239e-6
-1.070, 3.239e-6
-1.071, 3.239e-6
-1.072, 3.239e-6
-1.073, 3.239e-6
-1.074, 3.239e-6
-1.075, 3.239e-6
-1.076, 3.239e-6
-1.077, 3.239e-6
-1.078, 3.239e-6
-1.079, 3.239e-6
-1.080, 6.322e-6
-1.081, 3.239e-6
-1.082, 6.322e-6
-1.083, 3.239e-6
-1.084, 3.239e-6
-1.085, 3.239e-6
-1.086, 3.239e-6
-1.087, 3.239e-6
-1.088, 6.322e-6
-1.089, 3.239e-6
-1.090, 3.239e-6
-1.091, 3.239e-6
-1.092, 6.322e-6
-1.093, 3.239e-6
-1.094, 3.239e-6
-1.095, 6.322e-6
-1.096, 3.239e-6
-1.097, 3.239e-6
-1.098, 3.239e-6
-1.099, 3.239e-6
-1.100, 3.239e-6
-1.101, 3.239e-6
-1.102, 3.239e-6
-1.103, 3.239e-6
-1.104, 6.322e-6
-1.105, 6.322e-6
-1.106, 6.322e-6
-1.107, 3.239e-6
-1.108, 6.322e-6
-1.109, 3.239e-6
-1.110, 3.239e-6
-1.111, 3.239e-6
-1.112, 3.239e-6
-1.113, 6.322e-6
-1.114, 6.322e-6
-1.115, 3.239e-6
-1.116, 6.322e-6
-1.117, 3.239e-6
-1.118, 6.322e-6
-1.119, 3.239e-6
-1.120, 3.239e-6
-1.121, 3.239e-6
-1.122, 6.322e-6
-1.123, 6.322e-6
-1.124, 3.239e-6
-1.125, 6.322e-6
-1.126, 3.239e-6
-1.127, 6.322e-6
-1.128, 3.239e-6
-1.129, 6.322e-6
-1.130, 6.322e-6
-1.131, 6.322e-6
-1.132, 6.322e-6
-1.133, 3.239e-6
-1.134, 3.239e-6
-1.135, 6.322e-6
-1.136, 3.239e-6
-1.137, 3.239e-6
-1.138, 6.322e-6
-1.139, 6.322e-6
-1.140, 6.322e-6
-1.141, 6.322e-6
-1.142, 6.322e-6
-1.143, 6.322e-6
-1.144, 6.322e-6
-1.145, 6.322e-6
-1.146, 6.322e-6
-1.147, 6.322e-6
-1.148, 6.322e-6
-1.149, 6.322e-6
-1.150, 6.322e-6
-1.151, 6.322e-6
-1.152, 6.322e-6
-1.153, 6.322e-6
-1.154, 6.322e-6
-1.155, 6.322e-6
-1.156, 6.322e-6
-1.157, 6.322e-6
-1.158, 6.322e-6
-1.159, 6.322e-6
-1.160, 6.322e-6
-1.161, 6.322e-6
-1.162, 6.322e-6
-1.163, 6.322e-6
-1.164, 6.322e-6
-1.165, 6.322e-6
-1.166, 6.322e-6
-1.167, 3.239e-6
-1.168, 6.322e-6
-1.169, 6.322e-6
-1.170, 6.322e-6
-1.171, 6.322e-6
-1.172, 6.322e-6
-1.173, 6.322e-6
-1.174, 6.322e-6
-1.175, 6.322e-6
-1.176, 6.322e-6
-1.177, 6.322e-6
-1.178, 6.322e-6
-1.179, 6.322e-6
-1.180, 6.322e-6
-1.181, 6.322e-6
-1.182, 6.322e-6
-1.183, 6.322e-6
-1.184, 6.322e-6
-1.185, 6.322e-6
-1.186, 6.322e-6
-1.187, 6.322e-6
-1.188, 6.322e-6
-1.189, 6.322e-6
-1.190, 6.322e-6
-1.191, 6.322e-6
-1.192, 6.322e-6
-1.193, 6.322e-6
-1.194, 6.322e-6
-1.195, 6.322e-6
-1.196, 6.322e-6
-1.197, 6.322e-6
-1.198, 6.322e-6
-1.199, 6.322e-6
-1.200, 6.322e-6
-1.201, 6.322e-6
-1.202, 6.322e-6
-1.203, 6.322e-6
-1.204, 6.322e-6
-1.205, 6.322e-6
-1.206, 6.322e-6
-1.207, 6.322e-6
-1.208, 6.322e-6
-1.209, 6.322e-6
-1.210, 6.322e-6
-1.211, 6.322e-6
-1.212, 6.322e-6
-1.213, 6.322e-6
-1.214, 6.322e-6
-1.215, 6.322e-6
-1.216, 6.322e-6
-1.217, 6.322e-6
-1.218, 6.322e-6
-1.219, 6.322e-6
-1.220, 6.322e-6
-1.221, 6.322e-6
-1.222, 6.322e-6
-1.223, 6.322e-6
-1.224, 6.322e-6
-1.225, 6.322e-6
-1.226, 6.322e-6
-1.227, 6.322e-6
-1.228, 6.322e-6
-1.229, 6.322e-6
-1.230, 6.322e-6
-1.231, 6.322e-6
-1.232, 6.322e-6
-1.233, 6.322e-6
-1.234, 6.322e-6
-1.235, 6.322e-6
-1.236, 6.322e-6
-1.237, 9.405e-6
-1.238, 6.322e-6
-1.239, 6.322e-6
-1.240, 6.322e-6
-1.241, 6.322e-6
-1.242, 6.322e-6
-1.243, 6.322e-6
-1.244, 6.322e-6
-1.245, 6.322e-6
-1.246, 6.322e-6
-1.247, 6.322e-6
-1.248, 6.322e-6
-1.249, 6.322e-6
-1.250, 6.322e-6
-1.251, 6.322e-6
-1.252, 6.322e-6
-1.253, 6.322e-6
-1.254, 9.405e-6
-1.255, 9.405e-6
-1.256, 6.322e-6
-1.257, 9.405e-6
-1.258, 6.322e-6
-1.259, 6.322e-6
-1.260, 6.322e-6
-1.261, 9.405e-6
-1.262, 9.405e-6
-1.263, 6.322e-6
-1.264, 6.322e-6
-1.265, 9.405e-6
-1.266, 6.322e-6
-1.267, 6.322e-6
-1.268, 9.405e-6
-1.269, 6.322e-6
-1.270, 9.405e-6
-1.271, 6.322e-6
-1.272, 9.405e-6
-1.273, 6.322e-6
-1.274, 9.405e-6
-1.275, 9.405e-6
-1.276, 9.405e-6
-1.277, 6.322e-6
-1.278, 9.405e-6
-1.279, 6.322e-6
-1.280, 9.405e-6
-1.281, 9.405e-6
-1.282, 9.405e-6
-1.283, 6.322e-6
-1.284, 9.405e-6
-1.285, 9.405e-6
-1.286, 9.405e-6
-1.287, 9.405e-6
-1.288, 9.405e-6
-1.289, 9.405e-6
-1.290, 9.405e-6
-1.291, 9.405e-6
-1.292, 9.405e-6
-1.293, 9.405e-6
-1.294, 9.405e-6
-1.295, 9.405e-6
-1.296, 9.405e-6
-1.297, 9.405e-6
-1.298, 9.405e-6
-1.299, 9.405e-6
-1.300, 9.405e-6
-1.301, 9.405e-6
-1.302, 9.405e-6
-1.303, 9.405e-6
-1.304, 9.405e-6
-1.305, 9.405e-6
-1.306, 9.405e-6
-1.307, 9.405e-6
-1.308, 9.405e-6
-1.309, 9.405e-6
-1.310, 9.405e-6
-1.311, 9.405e-6
-1.312, 9.405e-6
-1.313, 9.405e-6
-1.314, 9.405e-6
-1.315, 9.405e-6
-1.316, 9.405e-6
-1.317, 9.405e-6
-1.318, 9.405e-6
-1.319, 9.405e-6
-1.320, 9.405e-6
-1.321, 9.405e-6
-1.322, 9.405e-6
-1.323, 9.405e-6
-1.324, 9.405e-6
-1.325, 9.405e-6
-1.326, 9.405e-6
-1.327, 9.405e-6
-1.328, 9.405e-6
-1.329, 9.405e-6
-1.330, 9.405e-6
-1.331, 9.405e-6
-1.332, 9.405e-6
-1.333, 9.405e-6
-1.334, 9.405e-6
-1.335, 9.405e-6
-1.336, 9.405e-6
-1.337, 9.405e-6
-1.338, 9.405e-6
-1.339, 9.405e-6
-1.340, 9.405e-6
-1.341, 9.405e-6
-1.342, 9.405e-6
-1.343, 9.405e-6
-1.344, 9.405e-6
-1.345, 9.405e-6
-1.346, 9.405e-6
-1.347, 9.405e-6
-1.348, 9.405e-6
-1.349, 9.405e-6
-1.350, 9.405e-6
-1.351, 9.405e-6
-1.352, 9.405e-6
-1.353, 9.405e-6
-1.354, 9.405e-6
-1.355, 9.405e-6
-1.356, 9.405e-6
-1.357, 9.405e-6
-1.358, 9.405e-6
-1.359, 9.405e-6
-1.360, 9.405e-6
-1.361, 9.405e-6
-1.362, 9.405e-6
-1.363, 9.405e-6
-1.364, 9.405e-6
-1.365, 9.405e-6
-1.366, 9.405e-6
-1.367, 9.405e-6
-1.368, 9.405e-6
-1.369, 1.249e-5
-1.370, 9.405e-6
-1.371, 9.405e-6
-1.372, 9.405e-6
-1.373, 9.405e-6
-1.374, 9.405e-6
-1.375, 9.405e-6
-1.376, 9.405e-6
-1.377, 9.405e-6
-1.378, 9.405e-6
-1.379, 9.405e-6
-1.380, 9.405e-6
-1.381, 9.405e-6
-1.382, 1.249e-5
-1.383, 9.405e-6
-1.384, 1.249e-5
-1.385, 9.405e-6
-1.386, 9.405e-6
-1.387, 9.405e-6
-1.388, 9.405e-6
-1.389, 9.405e-6
-1.390, 9.405e-6
-1.391, 9.405e-6
-1.392, 9.405e-6
-1.393, 9.405e-6
-1.394, 9.405e-6
-1.395, 1.249e-5
-1.396, 1.249e-5
-1.397, 1.249e-5
-1.398, 1.249e-5
-1.399, 1.249e-5
-1.400, 9.405e-6
-1.401, 9.405e-6
-1.402, 1.249e-5
-1.403, 1.249e-5
-1.404, 9.405e-6
-1.405, 9.405e-6
-1.406, 1.249e-5
-1.407, 9.405e-6
-1.408, 1.249e-5
-1.409, 1.249e-5
-1.410, 1.249e-5
-1.411, 9.405e-6
-1.412, 1.249e-5
-1.413, 9.405e-6
-1.414, 1.249e-5
-1.415, 1.249e-5
-1.416, 1.249e-5
-1.417, 9.405e-6
-1.418, 1.249e-5
-1.419, 1.249e-5
-1.420, 9.405e-6
-1.421, 1.249e-5
-1.422, 1.249e-5
-1.423, 1.249e-5
-1.424, 1.249e-5
-1.425, 1.249e-5
-1.426, 1.249e-5
-1.427, 1.249e-5
-1.428, 1.249e-5
-1.429, 1.249e-5
-1.430, 1.249e-5
-1.431, 1.249e-5
-1.432, 1.249e-5
-1.433, 1.249e-5
-1.434, 1.249e-5
-1.435, 1.249e-5
-1.436, 1.249e-5
-1.437, 1.249e-5
-1.438, 1.249e-5
-1.439, 1.249e-5
-1.440, 1.249e-5
-1.441, 1.249e-5
-1.442, 1.249e-5
-1.443, 1.249e-5
-1.444, 1.249e-5
-1.445, 1.249e-5
-1.446, 1.249e-5
-1.447, 1.249e-5
-1.448, 1.249e-5
-1.449, 1.249e-5
-1.450, 1.249e-5
-1.451, 1.249e-5
-1.452, 1.249e-5
-1.453, 1.249e-5
-1.454, 1.249e-5
-1.455, 1.249e-5
-1.456, 1.249e-5
-1.457, 1.249e-5
-1.458, 1.249e-5
-1.459, 1.249e-5
-1.460, 1.249e-5
-1.461, 1.249e-5
-1.462, 1.249e-5
-1.463, 1.249e-5
-1.464, 1.249e-5
-1.465, 1.249e-5
-1.466, 1.249e-5
-1.467, 1.249e-5
-1.468, 1.249e-5
-1.469, 1.249e-5
-1.470, 1.249e-5
-1.471, 1.249e-5
-1.472, 1.249e-5
-1.473, 1.249e-5
-1.474, 1.249e-5
-1.475, 1.557e-5
-1.476, 1.249e-5
-1.477, 1.557e-5
-1.478, 1.249e-5
-1.479, 1.249e-5
-1.480, 1.249e-5
-1.481, 1.249e-5
-1.482, 1.557e-5
-1.483, 1.249e-5
-1.484, 1.249e-5
-1.485, 1.249e-5
-1.486, 1.249e-5
-1.487, 1.249e-5
-1.488, 1.557e-5
-1.489, 1.557e-5
-1.490, 1.557e-5
-1.491, 1.557e-5
-1.492, 1.557e-5
-1.493, 1.249e-5
-1.494, 1.557e-5
-1.495, 1.557e-5
-1.496, 1.557e-5
-1.497, 1.557e-5
-1.498, 1.557e-5
-1.499, 1.557e-5
-1.500, 1.557e-5
-1.501, 1.557e-5
-1.502, 1.557e-5
-1.503, 1.557e-5
-1.504, 1.557e-5
-1.505, 1.557e-5
-1.506, 1.557e-5
-1.507, 1.557e-5
-1.508, 1.557e-5
-1.509, 1.557e-5
-1.510, 1.557e-5
-1.511, 1.557e-5
-1.512, 1.557e-5
-1.513, 1.557e-5
-1.514, 1.557e-5
-1.515, 1.557e-5
-1.516, 1.557e-5
-1.517, 1.557e-5
-1.518, 1.557e-5
-1.519, 1.557e-5
-1.520, 1.557e-5
-1.521, 1.557e-5
-1.522, 1.865e-5
-1.523, 1.865e-5
-1.524, 1.865e-5
-1.525, 1.865e-5
-1.526, 1.865e-5
-1.527, 1.865e-5
-1.528, 1.865e-5
-1.529, 1.865e-5
-1.530, 1.865e-5
-1.531, 1.865e-5
-1.532, 1.865e-5
-1.533, 1.865e-5
-1.534, 1.865e-5
-1.535, 1.865e-5
-1.536, 1.865e-5
-1.537, 1.865e-5
-1.538, 1.865e-5
-1.539, 1.865e-5
-1.540, 1.865e-5
-1.541, 1.865e-5
-1.542, 2.174e-5
-1.543, 1.865e-5
-1.544, 1.865e-5
-1.545, 1.865e-5
-1.546, 2.174e-5
-1.547, 1.865e-5
-1.548, 2.174e-5
-1.549, 2.174e-5
-1.550, 2.174e-5
-1.551, 2.174e-5
-1.552, 2.174e-5
-1.553, 2.174e-5
-1.554, 2.174e-5
-1.555, 2.174e-5
-1.556, 2.174e-5
-1.557, 2.174e-5
-1.558, 2.174e-5
-1.559, 2.174e-5
-1.560, 2.174e-5
-1.561, 2.174e-5
-1.562, 2.482e-5
-1.563, 2.174e-5
-1.564, 2.174e-5
-1.565, 2.174e-5
-1.566, 2.482e-5
-1.567, 2.482e-5
-1.568, 2.482e-5
-1.569, 2.482e-5
-1.570, 2.482e-5
-1.571, 2.482e-5
-1.572, 2.482e-5
-1.573, 2.482e-5
-1.574, 2.482e-5
-1.575, 2.482e-5
-1.576, 2.482e-5
-1.577, 2.482e-5
-1.578, 2.482e-5
-1.579, 2.790e-5
-1.580, 2.790e-5
-1.581, 2.790e-5
-1.582, 2.790e-5
-1.583, 2.790e-5
-1.584, 2.790e-5
-1.585, 2.790e-5
-1.586, 2.790e-5
-1.587, 2.790e-5
-1.588, 3.099e-5
-1.589, 3.099e-5
-1.590, 3.099e-5
-1.591, 3.099e-5
-1.592, 3.099e-5
-1.593, 3.099e-5
-1.594, 3.099e-5
-1.595, 3.099e-5
-1.596, 3.099e-5
-1.597, 3.099e-5
-1.598, 3.407e-5
-1.599, 3.099e-5
-1.600, 3.407e-5
-1.601, 3.407e-5
-1.602, 3.407e-5
-1.603, 3.407e-5
-1.604, 3.407e-5
-1.605, 3.407e-5
-1.606, 3.407e-5
-1.607, 3.407e-5
-1.608, 3.715e-5
-1.609, 3.715e-5
-1.610, 3.715e-5
-1.611, 3.715e-5
-1.612, 3.715e-5
-1.613, 3.715e-5
-1.614, 3.715e-5
-1.615, 4.024e-5
-1.616, 4.024e-5
-1.617, 4.024e-5
-1.618, 4.024e-5
-1.619, 4.024e-5
-1.620, 4.024e-5
-1.621, 4.024e-5
-1.622, 4.332e-5
-1.623, 4.332e-5
-1.624, 4.332e-5
-1.625, 4.332e-5
-1.626, 4.332e-5
-1.627, 4.332e-5
-1.628, 4.640e-5
-1.629, 4.640e-5
-1.630, 4.640e-5
-1.631, 4.640e-5
-1.632, 4.640e-5
-1.633, 4.640e-5
-1.634, 4.640e-5
-1.635, 4.949e-5
-1.636, 4.949e-5
-1.637, 4.949e-5
-1.638, 4.949e-5
-1.639, 5.257e-5
-1.640, 5.257e-5
-1.641, 5.257e-5
-1.642, 5.257e-5
-1.643, 5.565e-5
-1.644, 5.565e-5
-1.645, 5.565e-5
-1.646, 5.565e-5
-1.647, 5.565e-5
-1.648, 5.873e-5
-1.649, 5.873e-5
-1.650, 5.873e-5
-1.651, 5.873e-5
-1.652, 6.182e-5
-1.653, 6.182e-5
-1.654, 6.182e-5
-1.655, 6.490e-5
-1.656, 6.490e-5
-1.657, 6.490e-5
-1.658, 6.490e-5
-1.659, 6.798e-5
-1.660, 6.490e-5
-1.661, 6.798e-5
-1.662, 6.798e-5
-1.663, 7.107e-5
-1.664, 7.107e-5
-1.665, 7.107e-5
-1.666, 7.107e-5
-1.667, 7.415e-5
-1.668, 7.415e-5
-1.669, 7.723e-5
-1.670, 7.723e-5
-1.671, 7.723e-5
-1.672, 7.723e-5
-1.673, 7.723e-5
-1.674, 8.032e-5
-1.675, 8.340e-5
-1.676, 8.340e-5
-1.677, 8.340e-5
-1.678, 8.340e-5
-1.679, 8.648e-5
-1.680, 8.648e-5
-1.681, 8.957e-5
-1.682, 8.957e-5
-1.683, 9.265e-5
-1.684, 9.265e-5
-1.685, 9.265e-5
-1.686, 9.573e-5
-1.687, 9.573e-5
-1.688, 9.882e-5
-1.689, 9.882e-5
-1.690, 1.019e-4
-1.691, 1.019e-4
-1.692, 1.019e-4
-1.693, 1.050e-4
-1.694, 1.050e-4
-1.695, 1.081e-4
-1.696, 1.111e-4
-1.697, 1.111e-4
-1.698, 1.142e-4
-1.699, 1.142e-4
-1.700, 1.173e-4
-1.701, 1.173e-4
-1.702, 1.204e-4
-1.703, 1.204e-4
-1.704, 1.235e-4
-1.705, 1.235e-4
-1.706, 1.266e-4
-1.707, 1.266e-4
-1.708, 1.296e-4
-1.709, 1.327e-4
-1.710, 1.358e-4
-1.711, 1.358e-4
-1.712, 1.389e-4
-1.713, 1.420e-4
-1.714, 1.420e-4
-1.715, 1.451e-4
-1.716, 1.481e-4
-1.717, 1.512e-4
-1.718, 1.512e-4
-1.719, 1.543e-4
-1.720, 1.543e-4
-1.721, 1.605e-4
-1.722, 1.636e-4
-1.723, 1.636e-4
-1.724, 1.666e-4
-1.725, 1.697e-4
-1.726, 1.728e-4
-1.727, 1.759e-4
-1.728, 1.790e-4
-1.729, 1.821e-4
-1.730, 1.851e-4
-1.731, 1.882e-4
-1.732, 1.913e-4
-1.733, 1.913e-4
-1.734, 1.975e-4
-1.735, 2.006e-4
-1.736, 2.036e-4
-1.737, 2.067e-4
-1.738, 2.098e-4
-1.739, 2.129e-4
-1.740, 2.160e-4
-1.741, 2.221e-4
-1.742, 2.252e-4
-1.743, 2.283e-4
-1.744, 2.314e-4
-1.745, 2.376e-4
-1.746, 2.406e-4
-1.747, 2.437e-4
-1.748, 2.499e-4
-1.749, 2.530e-4
-1.750, 2.591e-4
-1.751, 2.622e-4
-1.752, 2.684e-4
-1.753, 2.715e-4
-1.754, 2.776e-4
-1.755, 2.807e-4
-1.756, 2.869e-4
-1.757, 2.900e-4
-1.758, 2.961e-4
-1.759, 3.023e-4
-1.760, 3.054e-4
-1.761, 3.115e-4
-1.762, 3.208e-4
-1.763, 3.270e-4
-1.764, 3.300e-4
-1.765, 3.393e-4
-1.766, 3.424e-4
-1.767, 3.485e-4
-1.768, 3.547e-4
-1.769, 3.640e-4
-1.770, 3.701e-4
-1.771, 3.763e-4
-1.772, 3.855e-4
-1.773, 3.917e-4
-1.774, 3.979e-4
-1.775, 4.071e-4
-1.776, 4.164e-4
-1.777, 4.225e-4
-1.778, 4.318e-4
-1.779, 4.380e-4
-1.780, 4.472e-4
-1.781, 4.534e-4
-1.782, 4.657e-4
-1.783, 4.719e-4
-1.784, 4.842e-4
-1.785, 4.935e-4
-1.786, 4.996e-4
-1.787, 5.120e-4
-1.788, 5.212e-4
-1.789, 5.335e-4
-1.790, 5.428e-4
-1.791, 5.551e-4
-1.792, 5.644e-4
-1.793, 5.767e-4
-1.794, 5.859e-4
-1.795, 5.983e-4
-1.796, 6.106e-4
-1.797, 6.229e-4
-1.798, 6.353e-4
-1.799, 6.476e-4
-1.800, 6.599e-4
-1.801, 6.723e-4
-1.802, 6.877e-4
-1.803, 7.031e-4
-1.804, 7.154e-4
-1.805, 7.278e-4
-1.806, 7.432e-4
-1.807, 7.555e-4
-1.808, 7.740e-4
-1.809, 7.894e-4
-1.810, 8.079e-4
-1.811, 8.233e-4
-1.812, 8.388e-4
-1.813, 8.542e-4
-1.814, 8.696e-4
-1.815, 8.881e-4
-1.816, 9.066e-4
-1.817, 9.251e-4
-1.818, 9.436e-4
-1.819, 9.621e-4
-1.820, 9.775e-4
-1.821, 9.991e-4
-1.822, 1.018e-3
-1.823, 1.039e-3
-1.824, 1.061e-3
-1.825, 1.079e-3
-1.826, 1.098e-3
-1.827, 1.119e-3
-1.828, 1.144e-3
-1.829, 1.166e-3
-1.830, 1.190e-3
-1.831, 1.212e-3
-1.832, 1.233e-3
-1.833, 1.255e-3
-1.834, 1.280e-3
-1.835, 1.304e-3
-1.836, 1.332e-3
-1.837, 1.357e-3
-1.838, 1.381e-3
-1.839, 1.406e-3
-1.840, 1.428e-3
-1.841, 1.458e-3
-1.842, 1.486e-3
-1.843, 1.514e-3
-1.844, 1.542e-3
-1.845, 1.569e-3
-1.846, 1.597e-3
-1.847, 1.625e-3
-1.848, 1.656e-3
-1.849, 1.687e-3
-1.850, 1.717e-3
-1.851, 1.748e-3
-1.852, 1.776e-3
-1.853, 1.804e-3
-1.854, 1.838e-3
-1.855, 1.869e-3
-1.856, 1.906e-3
-1.857, 1.939e-3
-1.858, 1.970e-3
-1.859, 2.001e-3
-1.860, 2.035e-3
-1.861, 2.069e-3
-1.862, 2.106e-3
-1.863, 2.140e-3
-1.864, 2.177e-3
-1.865, 2.211e-3
-1.866, 2.245e-3
-1.867, 2.279e-3
-1.868, 2.316e-3
-1.869, 2.359e-3
-1.870, 2.399e-3
-1.871, 2.436e-3
-1.872, 2.473e-3
-1.873, 2.510e-3
-1.874, 2.547e-3
-1.875, 2.590e-3
-1.876, 2.633e-3
-1.877, 2.676e-3
-1.878, 2.713e-3
-1.879, 2.753e-3
-1.880, 2.790e-3
-1.881, 2.834e-3
-1.882, 2.880e-3
-1.883, 2.923e-3
-1.884, 2.969e-3
-1.885, 3.009e-3
-1.886, 3.046e-3
-1.887, 3.089e-3
-1.888, 3.136e-3
-1.889, 3.182e-3
-1.890, 3.231e-3
-1.891, 3.274e-3
-1.892, 3.318e-3
-1.893, 3.358e-3
-1.894, 3.401e-3
-1.895, 3.450e-3
-1.896, 3.503e-3
-1.897, 3.552e-3
-1.898, 3.598e-3
-1.899, 3.641e-3
-1.900, 3.688e-3
-1.901, 3.737e-3
-1.902, 3.789e-3
-1.903, 3.842e-3
-1.904, 3.894e-3
-1.905, 3.940e-3
-1.906, 3.987e-3
-1.907, 4.036e-3
-1.908, 4.088e-3
-1.909, 4.144e-3
-1.910, 4.199e-3
-1.911, 4.249e-3
-1.912, 4.298e-3
-1.913, 4.344e-3
-1.914, 4.394e-3
-1.915, 4.449e-3
-1.916, 4.508e-3
-1.917, 4.560e-3
-1.918, 4.612e-3
-1.919, 4.665e-3
-1.920, 4.714e-3
-1.921, 4.770e-3
-1.922, 4.831e-3
-1.923, 4.890e-3
-1.924, 4.949e-3
-1.925, 5.004e-3
-1.926, 5.056e-3
-1.927, 5.115e-3
-1.928, 5.174e-3
-1.929, 5.235e-3
-1.930, 5.297e-3
-1.931, 5.356e-3
-1.932, 5.411e-3
-1.933, 5.463e-3
-1.934, 5.522e-3
-1.935, 5.584e-3
-1.936, 5.648e-3
-1.937, 5.710e-3
-1.938, 5.766e-3
-1.939, 5.818e-3
-1.940, 5.873e-3
-1.941, 5.932e-3
-1.942, 5.994e-3
-1.943, 6.058e-3
-1.944, 6.120e-3
-1.945, 6.179e-3
-1.946, 6.234e-3
-1.947, 6.293e-3
-1.948, 6.358e-3
-1.949, 6.428e-3
-1.950, 6.496e-3
-1.951, 6.561e-3
-1.952, 6.623e-3
-1.953, 6.684e-3
-1.954, 6.746e-3
-1.955, 6.814e-3
-1.956, 6.885e-3
-1.957, 6.953e-3
-1.958, 7.017e-3
-1.959, 7.073e-3
-1.960, 7.134e-3
-1.961, 7.202e-3
-1.962, 7.273e-3
-1.963, 7.344e-3
-1.964, 7.412e-3
-1.965, 7.474e-3
-1.966, 7.529e-3
-1.967, 7.588e-3
-1.968, 7.656e-3
-1.969, 7.730e-3
-1.970, 7.800e-3
-1.971, 7.871e-3
-1.972, 7.936e-3
-1.973, 8.001e-3
-1.974, 8.069e-3
-1.975, 8.146e-3
-1.976, 8.223e-3
-1.977, 8.300e-3
-1.978, 8.368e-3
-1.979, 8.432e-3
-1.980, 8.497e-3
-1.981, 8.565e-3
-1.982, 8.642e-3
-1.983, 8.719e-3
-1.984, 8.793e-3
-1.985, 8.861e-3
-1.986, 8.926e-3
-1.987, 8.994e-3
-1.988, 9.068e-3
-1.989, 9.142e-3
-1.990, 9.216e-3
-1.991, 9.280e-3
-1.992, 9.342e-3
-1.993, 9.404e-3
-1.994, 9.471e-3
-1.995, 9.549e-3
-1.996, 9.632e-3
-1.997, 9.712e-3
-1.998, 9.786e-3
-1.999, 9.857e-3
-2.000, 9.882e-3
-1.999, 9.832e-3
-1.998, 9.786e-3
-1.997, 9.740e-3
-1.996, 9.690e-3
-1.995, 9.632e-3
-1.994, 9.573e-3
-1.993, 9.515e-3
-1.992, 9.459e-3
-1.991, 9.407e-3
-1.990, 9.354e-3
-1.989, 9.293e-3
-1.988, 9.222e-3
-1.987, 9.154e-3
-1.986, 9.092e-3
-1.985, 9.037e-3
-1.984, 8.984e-3
-1.983, 8.929e-3
-1.982, 8.870e-3
-1.981, 8.809e-3
-1.980, 8.750e-3
-1.979, 8.698e-3
-1.978, 8.651e-3
-1.977, 8.602e-3
-1.976, 8.553e-3
-1.975, 8.494e-3
-1.974, 8.432e-3
-1.973, 8.374e-3
-1.972, 8.321e-3
-1.971, 8.275e-3
-1.970, 8.223e-3
-1.969, 8.167e-3
-1.968, 8.106e-3
-1.967, 8.044e-3
-1.966, 7.982e-3
-1.965, 7.927e-3
-1.964, 7.874e-3
-1.963, 7.819e-3
-1.962, 7.754e-3
-1.961, 7.689e-3
-1.960, 7.625e-3
-1.959, 7.569e-3
-1.958, 7.520e-3
-1.957, 7.474e-3
-1.956, 7.421e-3
-1.955, 7.360e-3
-1.954, 7.298e-3
-1.953, 7.239e-3
-1.952, 7.190e-3
-1.951, 7.144e-3
-1.950, 7.094e-3
-1.949, 7.042e-3
-1.948, 6.986e-3
-1.947, 6.928e-3
-1.946, 6.872e-3
-1.945, 6.823e-3
-1.944, 6.777e-3
-1.943, 6.728e-3
-1.942, 6.675e-3
-1.941, 6.617e-3
-1.940, 6.561e-3
-1.939, 6.512e-3
-1.938, 6.465e-3
-1.937, 6.419e-3
-1.936, 6.370e-3
-1.935, 6.314e-3
-1.934, 6.259e-3
-1.933, 6.200e-3
-1.932, 6.151e-3
-1.931, 6.105e-3
-1.930, 6.058e-3
-1.929, 6.006e-3
-1.928, 5.954e-3
-1.927, 5.898e-3
-1.926, 5.846e-3
-1.925, 5.799e-3
-1.924, 5.756e-3
-1.923, 5.710e-3
-1.922, 5.661e-3
-1.921, 5.608e-3
-1.920, 5.556e-3
-1.919, 5.507e-3
-1.918, 5.463e-3
-1.917, 5.423e-3
-1.916, 5.377e-3
-1.915, 5.328e-3
-1.914, 5.275e-3
-1.913, 5.223e-3
-1.912, 5.177e-3
-1.911, 5.130e-3
-1.910, 5.084e-3
-1.909, 5.035e-3
-1.908, 4.982e-3
-1.907, 4.933e-3
-1.906, 4.884e-3
-1.905, 4.841e-3
-1.904, 4.801e-3
-1.903, 4.757e-3
-1.902, 4.714e-3
-1.901, 4.665e-3
-1.900, 4.619e-3
-1.899, 4.579e-3
-1.898, 4.538e-3
-1.897, 4.501e-3
-1.896, 4.458e-3
-1.895, 4.415e-3
-1.894, 4.372e-3
-1.893, 4.329e-3
-1.892, 4.289e-3
-1.891, 4.249e-3
-1.890, 4.209e-3
-1.889, 4.165e-3
-1.888, 4.119e-3
-1.887, 4.073e-3
-1.886, 4.027e-3
-1.885, 3.990e-3
-1.884, 3.950e-3
-1.883, 3.906e-3
-1.882, 3.863e-3
-1.881, 3.820e-3
-1.880, 3.777e-3
-1.879, 3.737e-3
-1.878, 3.706e-3
-1.877, 3.669e-3
-1.876, 3.635e-3
-1.875, 3.595e-3
-1.874, 3.552e-3
-1.873, 3.515e-3
-1.872, 3.478e-3
-1.871, 3.444e-3
-1.870, 3.407e-3
-1.869, 3.373e-3
-1.868, 3.333e-3
-1.867, 3.293e-3
-1.866, 3.253e-3
-1.865, 3.219e-3
-1.864, 3.185e-3
-1.863, 3.151e-3
-1.862, 3.114e-3
-1.861, 3.074e-3
-1.860, 3.037e-3
-1.859, 3.003e-3
-1.858, 2.972e-3
-1.857, 2.941e-3
-1.856, 2.911e-3
-1.855, 2.874e-3
-1.854, 2.837e-3
-1.853, 2.803e-3
-1.852, 2.772e-3
-1.851, 2.744e-3
-1.850, 2.713e-3
-1.849, 2.679e-3
-1.848, 2.645e-3
-1.847, 2.608e-3
-1.846, 2.578e-3
-1.845, 2.547e-3
-1.844, 2.519e-3
-1.843, 2.488e-3
-1.842, 2.457e-3
-1.841, 2.423e-3
-1.840, 2.390e-3
-1.839, 2.362e-3
-1.838, 2.337e-3
-1.837, 2.309e-3
-1.836, 2.282e-3
-1.835, 2.251e-3
-1.834, 2.220e-3
-1.833, 2.192e-3
-1.832, 2.164e-3
-1.831, 2.140e-3
-1.830, 2.112e-3
-1.829, 2.087e-3
-1.828, 2.060e-3
-1.827, 2.029e-3
-1.826, 2.001e-3
-1.825, 1.976e-3
-1.824, 1.955e-3
-1.823, 1.930e-3
-1.822, 1.902e-3
-1.821, 1.875e-3
-1.820, 1.847e-3
-1.819, 1.822e-3
-1.818, 1.801e-3
-1.817, 1.776e-3
-1.816, 1.754e-3
-1.815, 1.730e-3
-1.814, 1.702e-3
-1.813, 1.677e-3
-1.812, 1.656e-3
-1.811, 1.637e-3
-1.810, 1.616e-3
-1.809, 1.591e-3
-1.808, 1.569e-3
-1.807, 1.545e-3
-1.806, 1.523e-3
-1.805, 1.505e-3
-1.804, 1.483e-3
-1.803, 1.462e-3
-1.802, 1.440e-3
-1.801, 1.418e-3
-1.800, 1.397e-3
-1.799, 1.378e-3
-1.798, 1.360e-3
-1.797, 1.341e-3
-1.796, 1.323e-3
-1.795, 1.304e-3
-1.794, 1.280e-3
-1.793, 1.261e-3
-1.792, 1.243e-3
-1.791, 1.227e-3
-1.790, 1.212e-3
-1.789, 1.193e-3
-1.788, 1.175e-3
-1.787, 1.156e-3
-1.786, 1.138e-3
-1.785, 1.122e-3
-1.784, 1.110e-3
-1.783, 1.092e-3
-1.782, 1.076e-3
-1.781, 1.058e-3
-1.780, 1.042e-3
-1.779, 1.024e-3
-1.778, 1.011e-3
-1.777, 9.960e-4
-1.776, 9.837e-4
-1.775, 9.652e-4
-1.774, 9.498e-4
-1.773, 9.343e-4
-1.772, 9.220e-4
-1.771, 9.066e-4
-1.770, 8.912e-4
-1.769, 8.788e-4
-1.768, 8.665e-4
-1.767, 8.511e-4
-1.766, 8.357e-4
-1.765, 8.233e-4
-1.764, 8.110e-4
-1.763, 7.987e-4
-1.762, 7.863e-4
-1.761, 7.740e-4
-1.760, 7.586e-4
-1.759, 7.494e-4
-1.758, 7.370e-4
-1.757, 7.247e-4
-1.756, 7.154e-4
-1.755, 7.031e-4
-1.754, 6.908e-4
-1.753, 6.784e-4
-1.752, 6.692e-4
-1.751, 6.599e-4
-1.750, 6.476e-4
-1.749, 6.384e-4
-1.748, 6.260e-4
-1.747, 6.137e-4
-1.746, 6.044e-4
-1.745, 5.952e-4
-1.744, 5.859e-4
-1.743, 5.767e-4
-1.742, 5.674e-4
-1.741, 5.551e-4
-1.740, 5.459e-4
-1.739, 5.397e-4
-1.738, 5.305e-4
-1.737, 5.212e-4
-1.736, 5.150e-4
-1.735, 5.027e-4
-1.734, 4.965e-4
-1.733, 4.873e-4
-1.732, 4.780e-4
-1.731, 4.719e-4
-1.730, 4.657e-4
-1.729, 4.565e-4
-1.728, 4.472e-4
-1.727, 4.380e-4
-1.726, 4.318e-4
-1.725, 4.256e-4
-1.724, 4.195e-4
-1.723, 4.133e-4
-1.722, 4.040e-4
-1.721, 3.979e-4
-1.720, 3.886e-4
-1.719, 3.825e-4
-1.718, 3.763e-4
-1.717, 3.701e-4
-1.716, 3.640e-4
-1.715, 3.578e-4
-1.714, 3.516e-4
-1.713, 3.455e-4
-1.712, 3.393e-4
-1.711, 3.331e-4
-1.710, 3.270e-4
-1.709, 3.208e-4
-1.708, 3.146e-4
-1.707, 3.085e-4
-1.706, 3.054e-4
-1.705, 2.992e-4
-1.704, 2.961e-4
-1.703, 2.900e-4
-1.702, 2.838e-4
-1.701, 2.776e-4
-1.700, 2.746e-4
-1.699, 2.684e-4
-1.698, 2.653e-4
-1.697, 2.591e-4
-1.696, 2.561e-4
-1.695, 2.499e-4
-1.694, 2.468e-4
-1.693, 2.406e-4
-1.692, 2.376e-4
-1.691, 2.345e-4
-1.690, 2.283e-4
-1.689, 2.252e-4
-1.688, 2.221e-4
-1.687, 2.160e-4
-1.686, 2.129e-4
-1.685, 2.098e-4
-1.684, 2.067e-4
-1.683, 2.036e-4
-1.682, 1.975e-4
-1.681, 1.944e-4
-1.680, 1.913e-4
-1.679, 1.851e-4
-1.678, 1.851e-4
-1.677, 1.821e-4
-1.676, 1.759e-4
-1.675, 1.728e-4
-1.674, 1.697e-4
-1.673, 1.666e-4
-1.672, 1.636e-4
-1.671, 1.605e-4
-1.670, 1.605e-4
-1.669, 1.574e-4
-1.668, 1.543e-4
-1.667, 1.512e-4
-1.666, 1.451e-4
-1.665, 1.451e-4
-1.664, 1.420e-4
-1.663, 1.389e-4
-1.662, 1.358e-4
-1.661, 1.358e-4
-1.660, 1.296e-4
-1.659, 1.296e-4
-1.658, 1.266e-4
-1.657, 1.235e-4
-1.656, 1.204e-4
-1.655, 1.204e-4
-1.654, 1.173e-4
-1.653, 1.142e-4
-1.652, 1.142e-4
-1.651, 1.111e-4
-1.650, 1.081e-4
-1.649, 1.050e-4
-1.648, 1.050e-4
-1.647, 1.019e-4
-1.646, 1.019e-4
-1.645, 9.882e-5
-1.644, 9.882e-5
-1.643, 9.573e-5
-1.642, 9.265e-5
-1.641, 9.265e-5
-1.640, 8.957e-5
-1.639, 8.648e-5
-1.638, 8.648e-5
-1.637, 8.340e-5
-1.636, 8.340e-5
-1.635, 8.032e-5
-1.634, 8.032e-5
-1.633, 7.723e-5
-1.632, 7.723e-5
-1.631, 7.723e-5
-1.630, 7.415e-5
-1.629, 7.107e-5
-1.628, 7.107e-5
-1.627, 6.798e-5
-1.626, 6.798e-5
-1.625, 6.490e-5
-1.624, 6.490e-5
-1.623, 6.490e-5
-1.622, 6.182e-5
-1.621, 6.182e-5
-1.620, 5.873e-5
-1.619, 5.873e-5
-1.618, 5.873e-5
-1.617, 5.565e-5
-1.616, 5.565e-5
-1.615, 5.565e-5
-1.614, 5.565e-5
-1.613, 5.257e-5
-1.612, 4.949e-5
-1.611, 4.949e-5
-1.610, 4.949e-5
-1.609, 4.949e-5
-1.608, 4.640e-5
-1.607, 4.640e-5
-1.606, 4.332e-5
-1.605, 4.332e-5
-1.604, 4.332e-5
-1.603, 4.332e-5
-1.602, 4.024e-5
-1.601, 4.024e-5
-1.600, 4.024e-5
-1.599, 3.715e-5
-1.598, 4.024e-5
-1.597, 3.715e-5
-1.596, 3.715e-5
-1.595, 3.407e-5
-1.594, 3.407e-5
-1.593, 3.407e-5
-1.592, 3.407e-5
-1.591, 3.407e-5
-1.590, 3.099e-5
-1.589, 3.099e-5
-1.588, 3.099e-5
-1.587, 3.099e-5
-1.586, 2.790e-5
-1.585, 3.099e-5
-1.584, 2.790e-5
-1.583, 2.790e-5
-1.582, 2.482e-5
-1.581, 2.482e-5
-1.580, 2.482e-5
-1.579, 2.482e-5
-1.578, 2.482e-5
-1.577, 2.482e-5
-1.576, 2.174e-5
-1.575, 2.174e-5
-1.574, 2.174e-5
-1.573, 2.174e-5
-1.572, 2.174e-5
-1.571, 1.865e-5
-1.570, 2.174e-5
-1.569, 1.865e-5
-1.568, 1.865e-5
-1.567, 1.865e-5
-1.566, 1.865e-5
-1.565, 1.865e-5
-1.564, 1.865e-5
-1.563, 1.557e-5
-1.562, 1.557e-5
-1.561, 1.557e-5
-1.560, 1.557e-5
-1.559, 1.557e-5
-1.558, 1.557e-5
-1.557, 1.557e-5
-1.556, 1.249e-5
-1.555, 1.557e-5
-1.554, 1.249e-5
-1.553, 1.249e-5
-1.552, 1.249e-5
-1.551, 1.249e-5
-1.550, 1.249e-5
-1.549, 1.249e-5
-1.548, 1.249e-5
-1.547, 1.249e-5
-1.546, 9.405e-6
-1.545, 9.405e-6
-1.544, 9.405e-6
-1.543, 9.405e-6
-1.542, 9.405e-6
-1.541, 9.405e-6
-1.540, 9.405e-6
-1.539, 9.405e-6
-1.538, 9.405e-6
-1.537, 6.322e-6
-1.536, 6.322e-6
-1.535, 6.322e-6
-1.534, 6.322e-6
-1.533, 6.322e-6
-1.532, 6.322e-6
-1.531, 6.322e-6
-1.530, 6.322e-6
-1.529, 6.322e-6
-1.528, 6.322e-6
-1.527, 6.322e-6
-1.526, 6.322e-6
-1.525, 6.322e-6
-1.524, 6.322e-6
-1.523, 6.322e-6
-1.522, 6.322e-6
-1.521, 6.322e-6
-1.520, 3.239e-6
-1.519, 3.239e-6
-1.518, 6.322e-6
-1.517, 3.239e-6
-1.516, 3.239e-6
-1.515, 3.239e-6
-1.514, 3.239e-6
-1.513, 3.239e-6
-1.512, 3.239e-6
-1.511, 3.239e-6
-1.510, 3.239e-6
-1.509, 3.239e-6
-1.508, 3.239e-6
-1.507, 3.239e-6
-1.506, 3.239e-6
-1.505, 3.239e-6
-1.504, 3.239e-6
-1.503, 1.559e-7
-1.502, 1.559e-7
-1.501, 3.239e-6
-1.500, 1.559e-7
-1.499, 1.559e-7
-1.498, 1.559e-7
-1.497, 1.559e-7
-1.496, 1.559e-7
-1.495, 1.559e-7
-1.494, 1.559e-7
-1.493, 1.559e-7
-1.492, 1.559e-7
-1.491, 1.559e-7
-1.490, 1.559e-7
-1.489, 1.559e-7
-1.488, 1.559e-7
-1.487, 1.559e-7
-1.486, 1.559e-7
-1.485, 1.559e-7
-1.484, 1.559e-7
-1.483, 1.559e-7
-1.482, 1.559e-7
-1.481, 1.559e-7
-1.480, 1.559e-7
-1.479, 1.559e-7
-1.478, 1.559e-7
-1.477, 1.559e-7
-1.476, 1.559e-7
-1.475, 1.559e-7
-1.474, 1.559e-7
-1.473, -2.927e-6
-1.472, 1.559e-7
-1.471, 1.559e-7
-1.470, 1.559e-7
-1.469, 1.559e-7
-1.468, 1.559e-7
-1.467, -2.927e-6
-1.466, 1.559e-7
-1.465, -2.927e-6
-1.464, -2.927e-6
-1.463, -2.927e-6
-1.462, -2.927e-6
-1.461, -2.927e-6
-1.460, -2.927e-6
-1.459, -2.927e-6
-1.458, 1.559e-7
-1.457, -2.927e-6
-1.456, -2.927e-6
-1.455, -2.927e-6
-1.454, -2.927e-6
-1.453, -2.927e-6
-1.452, -2.927e-6
-1.451, -2.927e-6
-1.450, -2.927e-6
-1.449, -2.927e-6
-1.448, -2.927e-6
-1.447, -2.927e-6
-1.446, -2.927e-6
-1.445, -2.927e-6
-1.444, -2.927e-6
-1.443, -2.927e-6
-1.442, -2.927e-6
-1.441, -2.927e-6
-1.440, -2.927e-6
-1.439, -2.927e-6
-1.438, -2.927e-6
-1.437, -2.927e-6
-1.436, -2.927e-6
-1.435, -2.927e-6
-1.434, -2.927e-6
-1.433, -2.927e-6
-1.432, -2.927e-6
-1.431, -2.927e-6
-1.430, -2.927e-6
-1.429, -2.927e-6
-1.428, -2.927e-6
-1.427, -2.927e-6
-1.426, -2.927e-6
-1.425, -2.927e-6
-1.424, -6.010e-6
-1.423, -2.927e-6
-1.422, -2.927e-6
-1.421, -2.927e-6
-1.420, -2.927e-6
-1.419, -2.927e-6
-1.418, -2.927e-6
-1.417, -6.010e-6
-1.416, -2.927e-6
-1.415, -2.927e-6
-1.414, -2.927e-6
-1.413, -2.927e-6
-1.412, -2.927e-6
-1.411, -2.927e-6
-1.410, -2.927e-6
-1.409, -2.927e-6
-1.408, -2.927e-6
-1.407, -6.010e-6
-1.406, -2.927e-6
-1.405, -2.927e-6
-1.404, -2.927e-6
-1.403, -2.927e-6
-1.402, -2.927e-6
-1.401, -2.927e-6
-1.400, -6.010e-6
-1.399, -6.010e-6
-1.398, -2.927e-6
-1.397, -2.927e-6
-1.396, -2.927e-6
-1.395, -2.927e-6
-1.394, -2.927e-6
-1.393, -2.927e-6
-1.392, -2.927e-6
-1.391, -2.927e-6
-1.390, -2.927e-6
-1.389, -2.927e-6
-1.388, -2.927e-6
-1.387, -6.010e-6
-1.386, -2.927e-6
-1.385, -6.010e-6
-1.384, -2.927e-6
-1.383, -2.927e-6
-1.382, -2.927e-6
-1.381, -6.010e-6
-1.380, -2.927e-6
-1.379, -2.927e-6
-1.378, -2.927e-6
-1.377, -2.927e-6
-1.376, -2.927e-6
-1.375, -2.927e-6
-1.374, -6.010e-6
-1.373, -2.927e-6
-1.372, -2.927e-6
-1.371, -2.927e-6
-1.370, -6.010e-6
-1.369, -2.927e-6
-1.368, -6.010e-6
-1.367, -2.927e-6
-1.366, -6.010e-6
-1.365, -2.927e-6
-1.364, -6.010e-6
-1.363, -6.010e-6
-1.362, -2.927e-6
-1.361, -2.927e-6
-1.360, -6.010e-6
-1.359, -6.010e-6
-1.358, -2.927e-6
-1.357, -6.010e-6
-1.356, -2.927e-6
-1.355, -6.010e-6
-1.354, -6.010e-6
-1.353, -6.010e-6
-1.352, -2.927e-6
-1.351, -6.010e-6
-1.350, -6.010e-6
-1.349, -2.927e-6
-1.348, -2.927e-6
-1.347, -6.010e-6
-1.346, -6.010e-6
-1.345, -6.010e-6
-1.344, -6.010e-6
-1.343, -2.927e-6
-1.342, -6.010e-6
-1.341, -6.010e-6
-1.340, -6.010e-6
-1.339, -2.927e-6
-1.338, -2.927e-6
-1.337, -6.010e-6
-1.336, -2.927e-6
-1.335, -6.010e-6
-1.334, -2.927e-6
-1.333, -6.010e-6
-1.332, -2.927e-6
-1.331, -6.010e-6
-1.330, -6.010e-6
-1.329, -2.927e-6
-1.328, -6.010e-6
-1.327, -6.010e-6
-1.326, -6.010e-6
-1.325, -6.010e-6
-1.324, -6.010e-6
-1.323, -2.927e-6
-1.322, -6.010e-6
-1.321, -2.927e-6
-1.320, -6.010e-6
-1.319, -6.010e-6
-1.318, -2.927e-6
-1.317, -6.010e-6
-1.316, -6.010e-6
-1.315, -6.010e-6
-1.314, -6.010e-6
-1.313, -2.927e-6
-1.312, -6.010e-6
-1.311, -6.010e-6
-1.310, -6.010e-6
-1.309, -6.010e-6
-1.308, -2.927e-6
-1.307, -6.010e-6
-1.306, -2.927e-6
-1.305, -2.927e-6
-1.304, -2.927e-6
-1.303, -6.010e-6
-1.302, -6.010e-6
-1.301, -2.927e-6
-1.300, -6.010e-6
-1.299, -6.010e-6
-1.298, -6.010e-6
-1.297, -6.010e-6
-1.296, -6.010e-6
-1.295, -2.927e-6
-1.294, -6.010e-6
-1.293, -6.010e-6
-1.292, -2.927e-6
-1.291, -2.927e-6
-1.290, -6.010e-6
-1.289, -6.010e-6
-1.288, -6.010e-6
-1.287, -6.010e-6
-1.286, -6.010e-6
-1.285, -2.927e-6
-1.284, -2.927e-6
-1.283, -6.010e-6
-1.282, -6.010e-6
-1.281, -2.927e-6
-1.280, -6.010e-6
-1.279, -6.010e-6
-1.278, -2.927e-6
-1.277, -6.010e-6
-1.276, -6.010e-6
-1.275, -6.010e-6
-1.274, -6.010e-6
-1.273, -6.010e-6
-1.272, -6.010e-6
-1.271, -2.927e-6
-1.270, -6.010e-6
-1.269, -6.010e-6
-1.268, -2.927e-6
-1.267, -6.010e-6
-1.266, -6.010e-6
-1.265, -6.010e-6
-1.264, -6.010e-6
-1.263, -6.010e-6
-1.262, -2.927e-6
-1.261, -6.010e-6
-1.260, -6.010e-6
-1.259, -6.010e-6
-1.258, -2.927e-6
-1.257, -6.010e-6
-1.256, -6.010e-6
-1.255, -6.010e-6
-1.254, -2.927e-6
-1.253, -6.010e-6
-1.252, -6.010e-6
-1.251, -6.010e-6
-1.250, -2.927e-6
-1.249, -6.010e-6
-1.248, -2.927e-6
-1.247, -2.927e-6
-1.246, -6.010e-6
-1.245, -2.927e-6
-1.244, -6.010e-6
-1.243, -6.010e-6
-1.242, -6.010e-6
-1.241, -6.010e-6
-1.240, -6.010e-6
-1.239, -6.010e-6
-1.238, -6.010e-6
-1.237, -6.010e-6
-1.236, -6.010e-6
-1.235, -6.010e-6
-1.234, -6.010e-6
-1.233, -6.010e-6
-1.232, -2.927e-6
-1.231, -2.927e-6
-1.230, -2.927e-6
-1.229, -6.010e-6
-1.228, -6.010e-6
-1.227, -6.010e-6
-1.226, -6.010e-6
-1.225, -6.010e-6
-1.224, -2.927e-6
-1.223, -6.010e-6
-1.222, -6.010e-6
-1.221, -2.927e-6
-1.220, -6.010e-6
-1.219, -6.010e-6
-1.218, -6.010e-6
-1.217, -6.010e-6
-1.216, -6.010e-6
-1.215, -6.010e-6
-1.214, -6.010e-6
-1.213, -6.010e-6
-1.212, -2.927e-6
-1.211, -2.927e-6
-1.210, -6.010e-6
-1.209, -6.010e-6
-1.208, -6.010e-6
-1.207, -6.010e-6
-1.206, -6.010e-6
-1.205, -6.010e-6
-1.204, -2.927e-6
-1.203, -6.010e-6
-1.202, -6.010e-6
-1.201, -6.010e-6
-1.200, -6.010e-6
-1.199, -6.010e-6
-1.198, -6.010e-6
-1.197, -6.010e-6
-1.196, -6.010e-6
-1.195, -6.010e-6
-1.194, -6.010e-6
-1.193, -2.927e-6
-1.192, -6.010e-6
-1.191, -2.927e-6
-1.190, -6.010e-6
-1.189, -2.927e-6
-1.188, -6.010e-6
-1.187, -6.010e-6
-1.186, -6.010e-6
-1.185, -6.010e-6
-1.184, -6.010e-6
-1.183, -2.927e-6
-1.182, -6.010e-6
-1.181, -6.010e-6
-1.180, -6.010e-6
-1.179, -6.010e-6
-1.178, -6.010e-6
-1.177, -6.010e-6
-1.176, -6.010e-6
-1.175, -6.010e-6
-1.174, -6.010e-6
-1.173, -6.010e-6
-1.172, -6.010e-6
-1.171, -6.010e-6
-1.170, -6.010e-6
-1.169, -6.010e-6
-1.168, -6.010e-6
-1.167, -6.010e-6
-1.166, -6.010e-6
-1.165, -6.010e-6
-1.164, -6.010e-6
-1.163, -6.010e-6
-1.162, -6.010e-6
-1.161, -6.010e-6
-1.160, -6.010e-6
-1.159, -6.010e-6
-1.158, -2.927e-6
-1.157, -2.927e-6
-1.156, -6.010e-6
-1.155, -6.010e-6
-1.154, -6.010e-6
-1.153, -6.010e-6
-1.152, -6.010e-6
-1.151, -6.010e-6
-1.150, -2.927e-6
-1.149, -6.010e-6
-1.148, -2.927e-6
-1.147, -6.010e-6
-1.146, -6.010e-6
-1.145, -6.010e-6
-1.144, -6.010e-6
-1.143, -6.010e-6
-1.142, -6.010e-6
-1.141, -2.927e-6
-1.140, -6.010e-6
-1.139, -6.010e-6
-1.138, -6.010e-6
-1.137, -6.010e-6
-1.136, -6.010e-6
-1.135, -6.010e-6
-1.134, -6.010e-6
-1.133, -6.010e-6
-1.132, -6.010e-6
-1.131, -6.010e-6
-1.130, -6.010e-6
-1.129, -6.010e-6
-1.128, -2.927e-6
-1.127, -6.010e-6
-1.126, -6.010e-6
-1.125, -6.010e-6
-1.124, -6.010e-6
-1.123, -6.010e-6
-1.122, -6.010e-6
-1.121, -2.927e-6
-1.120, -6.010e-6
-1.119, -6.010e-6
-1.118, -6.010e-6
-1.117, -6.010e-6
-1.116, -6.010e-6
-1.115, -6.010e-6
-1.114, -6.010e-6
-1.113, -6.010e-6
-1.112, -6.010e-6
-1.111, -2.927e-6
-1.110, -6.010e-6
-1.109, -6.010e-6
-1.108, -6.010e-6
-1.107, -6.010e-6
-1.106, -6.010e-6
-1.105, -6.010e-6
-1.104, -6.010e-6
-1.103, -6.010e-6
-1.102, -6.010e-6
-1.101, -6.010e-6
-1.100, -6.010e-6
-1.099, -6.010e-6
-1.098, -6.010e-6
-1.097, -6.010e-6
-1.096, -6.010e-6
-1.095, -6.010e-6
-1.094, -6.010e-6
-1.093, -6.010e-6
-1.092, -6.010e-6
-1.091, -2.927e-6
-1.090, -6.010e-6
-1.089, -6.010e-6
-1.088, -6.010e-6
-1.087, -6.010e-6
-1.086, -6.010e-6
-1.085, -6.010e-6
-1.084, -6.010e-6
-1.083, -6.010e-6
-1.082, -6.010e-6
-1.081, -6.010e-6
-1.080, -6.010e-6
-1.079, -6.010e-6
-1.078, -6.010e-6
-1.077, -6.010e-6
-1.076, -2.927e-6
-1.075, -6.010e-6
-1.074, -6.010e-6
-1.073, -6.010e-6
-1.072, -6.010e-6
-1.071, -6.010e-6
-1.070, -6.010e-6
-1.069, -6.010e-6
-1.068, -6.010e-6
-1.067, -6.010e-6
-1.066, -6.010e-6
-1.065, -6.010e-6
-1.064, -6.010e-6
-1.063, -6.010e-6
-1.062, -6.010e-6
-1.061, -6.010e-6
-1.060, -6.010e-6
-1.059, -6.010e-6
-1.058, -6.010e-6
-1.057, -6.010e-6
-1.056, -2.927e-6
-1.055, -6.010e-6
-1.054, -2.927e-6
-1.053, -6.010e-6
-1.052, -6.010e-6
-1.051, -6.010e-6
-1.050, -6.010e-6
-1.049, -6.010e-6
-1.048, -6.010e-6
-1.047, -6.010e-6
-1.046, -6.010e-6
-1.045, -6.010e-6
-1.044, -6.010e-6
-1.043, -6.010e-6
-1.042, -6.010e-6
-1.041, -6.010e-6
-1.040, -6.010e-6
-1.039, -2.927e-6
-1.038, -6.010e-6
-1.037, -6.010e-6
-1.036, -6.010e-6
-1.035, -6.010e-6
-1.034, -6.010e-6
-1.033, -6.010e-6
-1.032, -6.010e-6
-1.031, -6.010e-6
-1.030, -2.927e-6
-1.029, -6.010e-6
-1.028, -6.010e-6
-1.027, -6.010e-6
-1.026, -6.010e-6
-1.025, -6.010e-6
-1.024, -6.010e-6
-1.023, -6.010e-6
-1.022, -6.010e-6
-1.021, -6.010e-6
-1.020, -6.010e-6
-1.019, -6.010e-6
-1.018, -6.010e-6
-1.017, -6.010e-6
-1.016, -6.010e-6
-1.015, -6.010e-6
-1.014, -6.010e-6
-1.013, -6.010e-6
-1.012, -6.010e-6
-1.011, -6.010e-6
-1.010, -6.010e-6
-1.009, -6.010e-6
-1.008, -6.010e-6
-1.007, -6.010e-6
-1.006, -6.010e-6
-1.005, -6.010e-6
-1.004, -6.010e-6
-1.003, -6.010e-6
-1.002, -6.010e-6
-1.001, -6.010e-6
