Sept. 21, 2024   07:58:56
Linear Sweep Voltammetry
File: c:/users/guazh/data/20240903_batch_400_500/2024-09-20-exp406\1acid_3ac-2024-09-21t07_55_46-lsvinphos\1acid_3ac_lsv_50mvs_efin_-2300mv.bin
Data Source:  Experiment
Instrument Model:  CHI760E
Header: LSV ran at 50 mVs with Efin at -2300mV
Note: 

Init E (V) = -0.6
Final E (V) = -2.3
Scan Rate (V/s) = 0.05
Sample Interval (V) = 0.001
Quiet Time (sec) = 2
Sensitivity (A/V) = 1e-4
Comp R (ohm) = 10.3

Results:

Channel 1:
Ep = -1.880V
ip = 7.654e-4A
Ah = 1.057e-3C

Potential/V, Current/A

-0.600, 4.105e-6
-0.601, 4.203e-6
-0.602, 4.248e-6
-0.603, 4.287e-6
-0.604, 4.324e-6
-0.605, 4.358e-6
-0.606, 4.392e-6
-0.607, 4.427e-6
-0.608, 4.462e-6
-0.609, 4.496e-6
-0.610, 4.531e-6
-0.611, 4.564e-6
-0.612, 4.597e-6
-0.613, 4.630e-6
-0.614, 4.663e-6
-0.615, 4.698e-6
-0.616, 4.730e-6
-0.617, 4.763e-6
-0.618, 4.795e-6
-0.619, 4.829e-6
-0.620, 4.863e-6
-0.621, 4.894e-6
-0.622, 4.926e-6
-0.623, 4.959e-6
-0.624, 4.993e-6
-0.625, 5.026e-6
-0.626, 5.058e-6
-0.627, 5.091e-6
-0.628, 5.124e-6
-0.629, 5.155e-6
-0.630, 5.189e-6
-0.631, 5.220e-6
-0.632, 5.252e-6
-0.633, 5.286e-6
-0.634, 5.319e-6
-0.635, 5.351e-6
-0.636, 5.382e-6
-0.637, 5.412e-6
-0.638, 5.445e-6
-0.639, 5.477e-6
-0.640, 5.511e-6
-0.641, 5.543e-6
-0.642, 5.575e-6
-0.643, 5.607e-6
-0.644, 5.639e-6
-0.645, 5.669e-6
-0.646, 5.700e-6
-0.647, 5.731e-6
-0.648, 5.763e-6
-0.649, 5.796e-6
-0.650, 5.826e-6
-0.651, 5.857e-6
-0.652, 5.885e-6
-0.653, 5.915e-6
-0.654, 5.944e-6
-0.655, 5.973e-6
-0.656, 6.003e-6
-0.657, 6.034e-6
-0.658, 6.063e-6
-0.659, 6.095e-6
-0.660, 6.124e-6
-0.661, 6.152e-6
-0.662, 6.179e-6
-0.663, 6.206e-6
-0.664, 6.233e-6
-0.665, 6.261e-6
-0.666, 6.290e-6
-0.667, 6.318e-6
-0.668, 6.347e-6
-0.669, 6.372e-6
-0.670, 6.401e-6
-0.671, 6.427e-6
-0.672, 6.453e-6
-0.673, 6.479e-6
-0.674, 6.505e-6
-0.675, 6.533e-6
-0.676, 6.557e-6
-0.677, 6.581e-6
-0.678, 6.608e-6
-0.679, 6.632e-6
-0.680, 6.656e-6
-0.681, 6.680e-6
-0.682, 6.703e-6
-0.683, 6.727e-6
-0.684, 6.750e-6
-0.685, 6.773e-6
-0.686, 6.796e-6
-0.687, 6.818e-6
-0.688, 6.840e-6
-0.689, 6.860e-6
-0.690, 6.882e-6
-0.691, 6.904e-6
-0.692, 6.924e-6
-0.693, 6.943e-6
-0.694, 6.963e-6
-0.695, 6.983e-6
-0.696, 7.001e-6
-0.697, 7.018e-6
-0.698, 7.037e-6
-0.699, 7.055e-6
-0.700, 7.073e-6
-0.701, 7.091e-6
-0.702, 7.108e-6
-0.703, 7.124e-6
-0.704, 7.140e-6
-0.705, 7.156e-6
-0.706, 7.171e-6
-0.707, 7.186e-6
-0.708, 7.200e-6
-0.709, 7.213e-6
-0.710, 7.228e-6
-0.711, 7.240e-6
-0.712, 7.252e-6
-0.713, 7.266e-6
-0.714, 7.278e-6
-0.715, 7.290e-6
-0.716, 7.301e-6
-0.717, 7.313e-6
-0.718, 7.324e-6
-0.719, 7.333e-6
-0.720, 7.344e-6
-0.721, 7.354e-6
-0.722, 7.361e-6
-0.723, 7.372e-6
-0.724, 7.380e-6
-0.725, 7.388e-6
-0.726, 7.396e-6
-0.727, 7.403e-6
-0.728, 7.410e-6
-0.729, 7.417e-6
-0.730, 7.426e-6
-0.731, 7.432e-6
-0.732, 7.438e-6
-0.733, 7.443e-6
-0.734, 7.449e-6
-0.735, 7.453e-6
-0.736, 7.458e-6
-0.737, 7.462e-6
-0.738, 7.466e-6
-0.739, 7.469e-6
-0.740, 7.475e-6
-0.741, 7.477e-6
-0.742, 7.480e-6
-0.743, 7.482e-6
-0.744, 7.484e-6
-0.745, 7.487e-6
-0.746, 7.488e-6
-0.747, 7.489e-6
-0.748, 7.490e-6
-0.749, 7.492e-6
-0.750, 7.494e-6
-0.751, 7.494e-6
-0.752, 7.494e-6
-0.753, 7.495e-6
-0.754, 7.494e-6
-0.755, 7.495e-6
-0.756, 7.495e-6
-0.757, 7.492e-6
-0.758, 7.491e-6
-0.759, 7.491e-6
-0.760, 7.490e-6
-0.761, 7.488e-6
-0.762, 7.485e-6
-0.763, 7.484e-6
-0.764, 7.482e-6
-0.765, 7.479e-6
-0.766, 7.478e-6
-0.767, 7.474e-6
-0.768, 7.475e-6
-0.769, 7.473e-6
-0.770, 7.469e-6
-0.771, 7.466e-6
-0.772, 7.460e-6
-0.773, 7.459e-6
-0.774, 7.455e-6
-0.775, 7.453e-6
-0.776, 7.448e-6
-0.777, 7.445e-6
-0.778, 7.440e-6
-0.779, 7.437e-6
-0.780, 7.433e-6
-0.781, 7.428e-6
-0.782, 7.424e-6
-0.783, 7.422e-6
-0.784, 7.417e-6
-0.785, 7.414e-6
-0.786, 7.407e-6
-0.787, 7.402e-6
-0.788, 7.399e-6
-0.789, 7.393e-6
-0.790, 7.391e-6
-0.791, 7.385e-6
-0.792, 7.380e-6
-0.793, 7.378e-6
-0.794, 7.373e-6
-0.795, 7.370e-6
-0.796, 7.364e-6
-0.797, 7.359e-6
-0.798, 7.355e-6
-0.799, 7.351e-6
-0.800, 7.346e-6
-0.801, 7.341e-6
-0.802, 7.335e-6
-0.803, 7.332e-6
-0.804, 7.327e-6
-0.805, 7.321e-6
-0.806, 7.318e-6
-0.807, 7.313e-6
-0.808, 7.309e-6
-0.809, 7.305e-6
-0.810, 7.300e-6
-0.811, 7.295e-6
-0.812, 7.291e-6
-0.813, 7.285e-6
-0.814, 7.281e-6
-0.815, 7.277e-6
-0.816, 7.273e-6
-0.817, 7.269e-6
-0.818, 7.264e-6
-0.819, 7.264e-6
-0.820, 7.261e-6
-0.821, 7.255e-6
-0.822, 7.251e-6
-0.823, 7.247e-6
-0.824, 7.243e-6
-0.825, 7.240e-6
-0.826, 7.235e-6
-0.827, 7.230e-6
-0.828, 7.226e-6
-0.829, 7.222e-6
-0.830, 7.218e-6
-0.831, 7.213e-6
-0.832, 7.211e-6
-0.833, 7.207e-6
-0.834, 7.203e-6
-0.835, 7.199e-6
-0.836, 7.196e-6
-0.837, 7.192e-6
-0.838, 7.189e-6
-0.839, 7.185e-6
-0.840, 7.182e-6
-0.841, 7.179e-6
-0.842, 7.174e-6
-0.843, 7.173e-6
-0.844, 7.168e-6
-0.845, 7.166e-6
-0.846, 7.162e-6
-0.847, 7.158e-6
-0.848, 7.157e-6
-0.849, 7.153e-6
-0.850, 7.150e-6
-0.851, 7.147e-6
-0.852, 7.144e-6
-0.853, 7.142e-6
-0.854, 7.141e-6
-0.855, 7.137e-6
-0.856, 7.134e-6
-0.857, 7.131e-6
-0.858, 7.129e-6
-0.859, 7.127e-6
-0.860, 7.126e-6
-0.861, 7.123e-6
-0.862, 7.120e-6
-0.863, 7.117e-6
-0.864, 7.116e-6
-0.865, 7.115e-6
-0.866, 7.112e-6
-0.867, 7.109e-6
-0.868, 7.107e-6
-0.869, 7.105e-6
-0.870, 7.104e-6
-0.871, 7.104e-6
-0.872, 7.099e-6
-0.873, 7.098e-6
-0.874, 7.096e-6
-0.875, 7.095e-6
-0.876, 7.095e-6
-0.877, 7.092e-6
-0.878, 7.091e-6
-0.879, 7.087e-6
-0.880, 7.086e-6
-0.881, 7.085e-6
-0.882, 7.083e-6
-0.883, 7.083e-6
-0.884, 7.080e-6
-0.885, 7.077e-6
-0.886, 7.076e-6
-0.887, 7.076e-6
-0.888, 7.074e-6
-0.889, 7.073e-6
-0.890, 7.071e-6
-0.891, 7.070e-6
-0.892, 7.069e-6
-0.893, 7.068e-6
-0.894, 7.066e-6
-0.895, 7.066e-6
-0.896, 7.065e-6
-0.897, 7.064e-6
-0.898, 7.062e-6
-0.899, 7.063e-6
-0.900, 7.060e-6
-0.901, 7.058e-6
-0.902, 7.058e-6
-0.903, 7.057e-6
-0.904, 7.055e-6
-0.905, 7.055e-6
-0.906, 7.053e-6
-0.907, 7.051e-6
-0.908, 7.051e-6
-0.909, 7.050e-6
-0.910, 7.049e-6
-0.911, 7.048e-6
-0.912, 7.047e-6
-0.913, 7.047e-6
-0.914, 7.045e-6
-0.915, 7.045e-6
-0.916, 7.044e-6
-0.917, 7.041e-6
-0.918, 7.041e-6
-0.919, 7.038e-6
-0.920, 7.037e-6
-0.921, 7.037e-6
-0.922, 7.035e-6
-0.923, 7.036e-6
-0.924, 7.033e-6
-0.925, 7.032e-6
-0.926, 7.031e-6
-0.927, 7.029e-6
-0.928, 7.029e-6
-0.929, 7.026e-6
-0.930, 7.026e-6
-0.931, 7.025e-6
-0.932, 7.022e-6
-0.933, 7.021e-6
-0.934, 7.021e-6
-0.935, 7.020e-6
-0.936, 7.018e-6
-0.937, 7.016e-6
-0.938, 7.015e-6
-0.939, 7.014e-6
-0.940, 7.013e-6
-0.941, 7.012e-6
-0.942, 7.011e-6
-0.943, 7.008e-6
-0.944, 7.006e-6
-0.945, 7.006e-6
-0.946, 7.005e-6
-0.947, 7.002e-6
-0.948, 7.002e-6
-0.949, 7.000e-6
-0.950, 6.998e-6
-0.951, 6.996e-6
-0.952, 6.993e-6
-0.953, 6.992e-6
-0.954, 6.991e-6
-0.955, 6.990e-6
-0.956, 6.988e-6
-0.957, 6.985e-6
-0.958, 6.983e-6
-0.959, 6.982e-6
-0.960, 6.980e-6
-0.961, 6.980e-6
-0.962, 6.976e-6
-0.963, 6.975e-6
-0.964, 6.974e-6
-0.965, 6.970e-6
-0.966, 6.970e-6
-0.967, 6.967e-6
-0.968, 6.965e-6
-0.969, 6.962e-6
-0.970, 6.960e-6
-0.971, 6.958e-6
-0.972, 6.955e-6
-0.973, 6.955e-6
-0.974, 6.953e-6
-0.975, 6.950e-6
-0.976, 6.946e-6
-0.977, 6.945e-6
-0.978, 6.941e-6
-0.979, 6.939e-6
-0.980, 6.937e-6
-0.981, 6.935e-6
-0.982, 6.932e-6
-0.983, 6.929e-6
-0.984, 6.927e-6
-0.985, 6.925e-6
-0.986, 6.923e-6
-0.987, 6.921e-6
-0.988, 6.918e-6
-0.989, 6.915e-6
-0.990, 6.914e-6
-0.991, 6.910e-6
-0.992, 6.905e-6
-0.993, 6.903e-6
-0.994, 6.901e-6
-0.995, 6.899e-6
-0.996, 6.896e-6
-0.997, 6.891e-6
-0.998, 6.891e-6
-0.999, 6.887e-6
-1.000, 6.885e-6
-1.001, 6.882e-6
-1.002, 6.878e-6
-1.003, 6.876e-6
-1.004, 6.873e-6
-1.005, 6.870e-6
-1.006, 6.868e-6
-1.007, 6.863e-6
-1.008, 6.860e-6
-1.009, 6.856e-6
-1.010, 6.853e-6
-1.011, 6.852e-6
-1.012, 6.848e-6
-1.013, 6.843e-6
-1.014, 6.841e-6
-1.015, 6.837e-6
-1.016, 6.833e-6
-1.017, 6.830e-6
-1.018, 6.826e-6
-1.019, 6.823e-6
-1.020, 6.820e-6
-1.021, 6.816e-6
-1.022, 6.813e-6
-1.023, 6.809e-6
-1.024, 6.806e-6
-1.025, 6.804e-6
-1.026, 6.799e-6
-1.027, 6.795e-6
-1.028, 6.792e-6
-1.029, 6.787e-6
-1.030, 6.785e-6
-1.031, 6.779e-6
-1.032, 6.775e-6
-1.033, 6.774e-6
-1.034, 6.768e-6
-1.035, 6.764e-6
-1.036, 6.761e-6
-1.037, 6.755e-6
-1.038, 6.754e-6
-1.039, 6.750e-6
-1.040, 6.745e-6
-1.041, 6.742e-6
-1.042, 6.737e-6
-1.043, 6.734e-6
-1.044, 6.731e-6
-1.045, 6.726e-6
-1.046, 6.722e-6
-1.047, 6.718e-6
-1.048, 6.714e-6
-1.049, 6.711e-6
-1.050, 6.707e-6
-1.051, 6.704e-6
-1.052, 6.699e-6
-1.053, 6.696e-6
-1.054, 6.693e-6
-1.055, 6.689e-6
-1.056, 6.689e-6
-1.057, 6.683e-6
-1.058, 6.678e-6
-1.059, 6.673e-6
-1.060, 6.669e-6
-1.061, 6.667e-6
-1.062, 6.663e-6
-1.063, 6.659e-6
-1.064, 6.655e-6
-1.065, 6.652e-6
-1.066, 6.649e-6
-1.067, 6.646e-6
-1.068, 6.643e-6
-1.069, 6.638e-6
-1.070, 6.636e-6
-1.071, 6.633e-6
-1.072, 6.628e-6
-1.073, 6.626e-6
-1.074, 6.623e-6
-1.075, 6.621e-6
-1.076, 6.619e-6
-1.077, 6.614e-6
-1.078, 6.612e-6
-1.079, 6.608e-6
-1.080, 6.606e-6
-1.081, 6.603e-6
-1.082, 6.601e-6
-1.083, 6.600e-6
-1.084, 6.596e-6
-1.085, 6.595e-6
-1.086, 6.593e-6
-1.087, 6.589e-6
-1.088, 6.588e-6
-1.089, 6.586e-6
-1.090, 6.585e-6
-1.091, 6.584e-6
-1.092, 6.582e-6
-1.093, 6.580e-6
-1.094, 6.580e-6
-1.095, 6.578e-6
-1.096, 6.576e-6
-1.097, 6.575e-6
-1.098, 6.574e-6
-1.099, 6.573e-6
-1.100, 6.574e-6
-1.101, 6.574e-6
-1.102, 6.572e-6
-1.103, 6.573e-6
-1.104, 6.578e-6
-1.105, 6.579e-6
-1.106, 6.574e-6
-1.107, 6.572e-6
-1.108, 6.573e-6
-1.109, 6.570e-6
-1.110, 6.572e-6
-1.111, 6.572e-6
-1.112, 6.571e-6
-1.113, 6.572e-6
-1.114, 6.573e-6
-1.115, 6.575e-6
-1.116, 6.576e-6
-1.117, 6.577e-6
-1.118, 6.580e-6
-1.119, 6.581e-6
-1.120, 6.586e-6
-1.121, 6.586e-6
-1.122, 6.586e-6
-1.123, 6.590e-6
-1.124, 6.592e-6
-1.125, 6.594e-6
-1.126, 6.600e-6
-1.127, 6.601e-6
-1.128, 6.604e-6
-1.129, 6.607e-6
-1.130, 6.610e-6
-1.131, 6.615e-6
-1.132, 6.617e-6
-1.133, 6.622e-6
-1.134, 6.625e-6
-1.135, 6.627e-6
-1.136, 6.632e-6
-1.137, 6.635e-6
-1.138, 6.640e-6
-1.139, 6.646e-6
-1.140, 6.652e-6
-1.141, 6.656e-6
-1.142, 6.661e-6
-1.143, 6.666e-6
-1.144, 6.670e-6
-1.145, 6.676e-6
-1.146, 6.683e-6
-1.147, 6.687e-6
-1.148, 6.693e-6
-1.149, 6.698e-6
-1.150, 6.704e-6
-1.151, 6.711e-6
-1.152, 6.717e-6
-1.153, 6.725e-6
-1.154, 6.730e-6
-1.155, 6.737e-6
-1.156, 6.743e-6
-1.157, 6.749e-6
-1.158, 6.757e-6
-1.159, 6.763e-6
-1.160, 6.771e-6
-1.161, 6.777e-6
-1.162, 6.783e-6
-1.163, 6.792e-6
-1.164, 6.800e-6
-1.165, 6.807e-6
-1.166, 6.816e-6
-1.167, 6.822e-6
-1.168, 6.828e-6
-1.169, 6.835e-6
-1.170, 6.842e-6
-1.171, 6.851e-6
-1.172, 6.858e-6
-1.173, 6.866e-6
-1.174, 6.873e-6
-1.175, 6.880e-6
-1.176, 6.888e-6
-1.177, 6.894e-6
-1.178, 6.903e-6
-1.179, 6.909e-6
-1.180, 6.917e-6
-1.181, 6.924e-6
-1.182, 6.932e-6
-1.183, 6.939e-6
-1.184, 6.947e-6
-1.185, 6.955e-6
-1.186, 6.963e-6
-1.187, 6.969e-6
-1.188, 6.977e-6
-1.189, 6.985e-6
-1.190, 6.994e-6
-1.191, 7.003e-6
-1.192, 7.009e-6
-1.193, 7.018e-6
-1.194, 7.024e-6
-1.195, 7.033e-6
-1.196, 7.041e-6
-1.197, 7.049e-6
-1.198, 7.057e-6
-1.199, 7.064e-6
-1.200, 7.072e-6
-1.201, 7.083e-6
-1.202, 7.089e-6
-1.203, 7.097e-6
-1.204, 7.106e-6
-1.205, 7.112e-6
-1.206, 7.121e-6
-1.207, 7.128e-6
-1.208, 7.137e-6
-1.209, 7.147e-6
-1.210, 7.156e-6
-1.211, 7.165e-6
-1.212, 7.173e-6
-1.213, 7.181e-6
-1.214, 7.191e-6
-1.215, 7.201e-6
-1.216, 7.210e-6
-1.217, 7.218e-6
-1.218, 7.227e-6
-1.219, 7.236e-6
-1.220, 7.245e-6
-1.221, 7.254e-6
-1.222, 7.263e-6
-1.223, 7.273e-6
-1.224, 7.281e-6
-1.225, 7.291e-6
-1.226, 7.298e-6
-1.227, 7.308e-6
-1.228, 7.318e-6
-1.229, 7.330e-6
-1.230, 7.340e-6
-1.231, 7.347e-6
-1.232, 7.358e-6
-1.233, 7.368e-6
-1.234, 7.375e-6
-1.235, 7.387e-6
-1.236, 7.397e-6
-1.237, 7.405e-6
-1.238, 7.415e-6
-1.239, 7.422e-6
-1.240, 7.432e-6
-1.241, 7.443e-6
-1.242, 7.451e-6
-1.243, 7.463e-6
-1.244, 7.474e-6
-1.245, 7.484e-6
-1.246, 7.496e-6
-1.247, 7.505e-6
-1.248, 7.516e-6
-1.249, 7.524e-6
-1.250, 7.535e-6
-1.251, 7.545e-6
-1.252, 7.556e-6
-1.253, 7.566e-6
-1.254, 7.576e-6
-1.255, 7.586e-6
-1.256, 7.597e-6
-1.257, 7.607e-6
-1.258, 7.619e-6
-1.259, 7.630e-6
-1.260, 7.641e-6
-1.261, 7.650e-6
-1.262, 7.660e-6
-1.263, 7.670e-6
-1.264, 7.679e-6
-1.265, 7.691e-6
-1.266, 7.701e-6
-1.267, 7.713e-6
-1.268, 7.723e-6
-1.269, 7.732e-6
-1.270, 7.745e-6
-1.271, 7.755e-6
-1.272, 7.767e-6
-1.273, 7.778e-6
-1.274, 7.787e-6
-1.275, 7.799e-6
-1.276, 7.812e-6
-1.277, 7.823e-6
-1.278, 7.834e-6
-1.279, 7.843e-6
-1.280, 7.858e-6
-1.281, 7.868e-6
-1.282, 7.876e-6
-1.283, 7.888e-6
-1.284, 7.897e-6
-1.285, 7.907e-6
-1.286, 7.920e-6
-1.287, 7.934e-6
-1.288, 7.944e-6
-1.289, 7.953e-6
-1.290, 7.965e-6
-1.291, 7.976e-6
-1.292, 7.988e-6
-1.293, 7.999e-6
-1.294, 8.009e-6
-1.295, 8.019e-6
-1.296, 8.032e-6
-1.297, 8.043e-6
-1.298, 8.053e-6
-1.299, 8.061e-6
-1.300, 8.072e-6
-1.301, 8.082e-6
-1.302, 8.093e-6
-1.303, 8.105e-6
-1.304, 8.114e-6
-1.305, 8.126e-6
-1.306, 8.136e-6
-1.307, 8.145e-6
-1.308, 8.156e-6
-1.309, 8.169e-6
-1.310, 8.184e-6
-1.311, 8.197e-6
-1.312, 8.206e-6
-1.313, 8.217e-6
-1.314, 8.231e-6
-1.315, 8.247e-6
-1.316, 8.258e-6
-1.317, 8.268e-6
-1.318, 8.280e-6
-1.319, 8.292e-6
-1.320, 8.305e-6
-1.321, 8.317e-6
-1.322, 8.326e-6
-1.323, 8.339e-6
-1.324, 8.351e-6
-1.325, 8.361e-6
-1.326, 8.373e-6
-1.327, 8.384e-6
-1.328, 8.397e-6
-1.329, 8.411e-6
-1.330, 8.426e-6
-1.331, 8.440e-6
-1.332, 8.451e-6
-1.333, 8.462e-6
-1.334, 8.473e-6
-1.335, 8.484e-6
-1.336, 8.496e-6
-1.337, 8.509e-6
-1.338, 8.524e-6
-1.339, 8.538e-6
-1.340, 8.551e-6
-1.341, 8.563e-6
-1.342, 8.575e-6
-1.343, 8.589e-6
-1.344, 8.601e-6
-1.345, 8.614e-6
-1.346, 8.625e-6
-1.347, 8.639e-6
-1.348, 8.651e-6
-1.349, 8.663e-6
-1.350, 8.679e-6
-1.351, 8.691e-6
-1.352, 8.706e-6
-1.353, 8.718e-6
-1.354, 8.729e-6
-1.355, 8.742e-6
-1.356, 8.756e-6
-1.357, 8.770e-6
-1.358, 8.787e-6
-1.359, 8.802e-6
-1.360, 8.818e-6
-1.361, 8.832e-6
-1.362, 8.842e-6
-1.363, 8.855e-6
-1.364, 8.869e-6
-1.365, 8.884e-6
-1.366, 8.901e-6
-1.367, 8.913e-6
-1.368, 8.928e-6
-1.369, 8.945e-6
-1.370, 8.959e-6
-1.371, 8.974e-6
-1.372, 8.989e-6
-1.373, 9.004e-6
-1.374, 9.021e-6
-1.375, 9.038e-6
-1.376, 9.056e-6
-1.377, 9.072e-6
-1.378, 9.089e-6
-1.379, 9.105e-6
-1.380, 9.121e-6
-1.381, 9.132e-6
-1.382, 9.150e-6
-1.383, 9.171e-6
-1.384, 9.188e-6
-1.385, 9.207e-6
-1.386, 9.223e-6
-1.387, 9.240e-6
-1.388, 9.258e-6
-1.389, 9.275e-6
-1.390, 9.293e-6
-1.391, 9.309e-6
-1.392, 9.328e-6
-1.393, 9.348e-6
-1.394, 9.362e-6
-1.395, 9.378e-6
-1.396, 9.396e-6
-1.397, 9.413e-6
-1.398, 9.434e-6
-1.399, 9.453e-6
-1.400, 9.473e-6
-1.401, 9.493e-6
-1.402, 9.511e-6
-1.403, 9.531e-6
-1.404, 9.550e-6
-1.405, 9.575e-6
-1.406, 9.595e-6
-1.407, 9.611e-6
-1.408, 9.630e-6
-1.409, 9.652e-6
-1.410, 9.673e-6
-1.411, 9.694e-6
-1.412, 9.715e-6
-1.413, 9.739e-6
-1.414, 9.758e-6
-1.415, 9.780e-6
-1.416, 9.803e-6
-1.417, 9.824e-6
-1.418, 9.847e-6
-1.419, 9.874e-6
-1.420, 9.900e-6
-1.421, 9.920e-6
-1.422, 9.945e-6
-1.423, 9.969e-6
-1.424, 9.993e-6
-1.425, 1.002e-5
-1.426, 1.004e-5
-1.427, 1.007e-5
-1.428, 1.009e-5
-1.429, 1.012e-5
-1.430, 1.015e-5
-1.431, 1.018e-5
-1.432, 1.020e-5
-1.433, 1.023e-5
-1.434, 1.025e-5
-1.435, 1.028e-5
-1.436, 1.031e-5
-1.437, 1.033e-5
-1.438, 1.036e-5
-1.439, 1.039e-5
-1.440, 1.042e-5
-1.441, 1.045e-5
-1.442, 1.048e-5
-1.443, 1.050e-5
-1.444, 1.053e-5
-1.445, 1.056e-5
-1.446, 1.060e-5
-1.447, 1.063e-5
-1.448, 1.066e-5
-1.449, 1.070e-5
-1.450, 1.073e-5
-1.451, 1.076e-5
-1.452, 1.079e-5
-1.453, 1.082e-5
-1.454, 1.086e-5
-1.455, 1.089e-5
-1.456, 1.092e-5
-1.457, 1.096e-5
-1.458, 1.100e-5
-1.459, 1.104e-5
-1.460, 1.107e-5
-1.461, 1.110e-5
-1.462, 1.114e-5
-1.463, 1.118e-5
-1.464, 1.122e-5
-1.465, 1.126e-5
-1.466, 1.130e-5
-1.467, 1.134e-5
-1.468, 1.137e-5
-1.469, 1.141e-5
-1.470, 1.146e-5
-1.471, 1.150e-5
-1.472, 1.154e-5
-1.473, 1.159e-5
-1.474, 1.162e-5
-1.475, 1.167e-5
-1.476, 1.172e-5
-1.477, 1.176e-5
-1.478, 1.181e-5
-1.479, 1.186e-5
-1.480, 1.191e-5
-1.481, 1.197e-5
-1.482, 1.201e-5
-1.483, 1.206e-5
-1.484, 1.210e-5
-1.485, 1.216e-5
-1.486, 1.221e-5
-1.487, 1.226e-5
-1.488, 1.231e-5
-1.489, 1.236e-5
-1.490, 1.241e-5
-1.491, 1.247e-5
-1.492, 1.253e-5
-1.493, 1.259e-5
-1.494, 1.265e-5
-1.495, 1.270e-5
-1.496, 1.275e-5
-1.497, 1.282e-5
-1.498, 1.289e-5
-1.499, 1.295e-5
-1.500, 1.301e-5
-1.501, 1.308e-5
-1.502, 1.315e-5
-1.503, 1.322e-5
-1.504, 1.328e-5
-1.505, 1.336e-5
-1.506, 1.344e-5
-1.507, 1.351e-5
-1.508, 1.359e-5
-1.509, 1.368e-5
-1.510, 1.376e-5
-1.511, 1.383e-5
-1.512, 1.390e-5
-1.513, 1.398e-5
-1.514, 1.406e-5
-1.515, 1.414e-5
-1.516, 1.422e-5
-1.517, 1.431e-5
-1.518, 1.439e-5
-1.519, 1.449e-5
-1.520, 1.458e-5
-1.521, 1.467e-5
-1.522, 1.476e-5
-1.523, 1.485e-5
-1.524, 1.496e-5
-1.525, 1.505e-5
-1.526, 1.516e-5
-1.527, 1.526e-5
-1.528, 1.536e-5
-1.529, 1.547e-5
-1.530, 1.558e-5
-1.531, 1.569e-5
-1.532, 1.580e-5
-1.533, 1.591e-5
-1.534, 1.603e-5
-1.535, 1.614e-5
-1.536, 1.626e-5
-1.537, 1.638e-5
-1.538, 1.651e-5
-1.539, 1.664e-5
-1.540, 1.676e-5
-1.541, 1.689e-5
-1.542, 1.702e-5
-1.543, 1.716e-5
-1.544, 1.730e-5
-1.545, 1.744e-5
-1.546, 1.758e-5
-1.547, 1.772e-5
-1.548, 1.787e-5
-1.549, 1.802e-5
-1.550, 1.817e-5
-1.551, 1.832e-5
-1.552, 1.847e-5
-1.553, 1.863e-5
-1.554, 1.880e-5
-1.555, 1.898e-5
-1.556, 1.914e-5
-1.557, 1.931e-5
-1.558, 1.948e-5
-1.559, 1.967e-5
-1.560, 1.984e-5
-1.561, 2.003e-5
-1.562, 2.021e-5
-1.563, 2.041e-5
-1.564, 2.061e-5
-1.565, 2.081e-5
-1.566, 2.102e-5
-1.567, 2.123e-5
-1.568, 2.144e-5
-1.569, 2.164e-5
-1.570, 2.185e-5
-1.571, 2.207e-5
-1.572, 2.228e-5
-1.573, 2.252e-5
-1.574, 2.277e-5
-1.575, 2.301e-5
-1.576, 2.325e-5
-1.577, 2.350e-5
-1.578, 2.375e-5
-1.579, 2.400e-5
-1.580, 2.427e-5
-1.581, 2.454e-5
-1.582, 2.481e-5
-1.583, 2.509e-5
-1.584, 2.536e-5
-1.585, 2.565e-5
-1.586, 2.594e-5
-1.587, 2.624e-5
-1.588, 2.653e-5
-1.589, 2.685e-5
-1.590, 2.717e-5
-1.591, 2.748e-5
-1.592, 2.780e-5
-1.593, 2.812e-5
-1.594, 2.846e-5
-1.595, 2.881e-5
-1.596, 2.915e-5
-1.597, 2.951e-5
-1.598, 2.987e-5
-1.599, 3.023e-5
-1.600, 3.060e-5
-1.601, 3.098e-5
-1.602, 3.136e-5
-1.603, 3.177e-5
-1.604, 3.217e-5
-1.605, 3.259e-5
-1.606, 3.301e-5
-1.607, 3.343e-5
-1.608, 3.386e-5
-1.609, 3.430e-5
-1.610, 3.475e-5
-1.611, 3.521e-5
-1.612, 3.567e-5
-1.613, 3.613e-5
-1.614, 3.660e-5
-1.615, 3.710e-5
-1.616, 3.760e-5
-1.617, 3.811e-5
-1.618, 3.861e-5
-1.619, 3.913e-5
-1.620, 3.966e-5
-1.621, 4.018e-5
-1.622, 4.073e-5
-1.623, 4.130e-5
-1.624, 4.186e-5
-1.625, 4.244e-5
-1.626, 4.302e-5
-1.627, 4.359e-5
-1.628, 4.417e-5
-1.629, 4.478e-5
-1.630, 4.540e-5
-1.631, 4.603e-5
-1.632, 4.666e-5
-1.633, 4.732e-5
-1.634, 4.798e-5
-1.635, 4.866e-5
-1.636, 4.934e-5
-1.637, 5.002e-5
-1.638, 5.074e-5
-1.639, 5.146e-5
-1.640, 5.217e-5
-1.641, 5.290e-5
-1.642, 5.363e-5
-1.643, 5.437e-5
-1.644, 5.513e-5
-1.645, 5.590e-5
-1.646, 5.667e-5
-1.647, 5.743e-5
-1.648, 5.822e-5
-1.649, 5.903e-5
-1.650, 5.984e-5
-1.651, 6.066e-5
-1.652, 6.149e-5
-1.653, 6.233e-5
-1.654, 6.319e-5
-1.655, 6.405e-5
-1.656, 6.492e-5
-1.657, 6.579e-5
-1.658, 6.668e-5
-1.659, 6.758e-5
-1.660, 6.847e-5
-1.661, 6.939e-5
-1.662, 7.032e-5
-1.663, 7.127e-5
-1.664, 7.222e-5
-1.665, 7.317e-5
-1.666, 7.412e-5
-1.667, 7.508e-5
-1.668, 7.605e-5
-1.669, 7.704e-5
-1.670, 7.804e-5
-1.671, 7.905e-5
-1.672, 8.008e-5
-1.673, 8.110e-5
-1.674, 8.212e-5
-1.675, 8.314e-5
-1.676, 8.419e-5
-1.677, 8.524e-5
-1.678, 8.629e-5
-1.679, 8.736e-5
-1.680, 8.845e-5
-1.681, 8.951e-5
-1.682, 9.057e-5
-1.683, 9.164e-5
-1.684, 9.274e-5
-1.685, 9.384e-5
-1.686, 9.495e-5
-1.687, 9.608e-5
-1.688, 9.721e-5
-1.689, 9.834e-5
-1.690, 9.949e-5
-1.691, 1.006e-4
-1.692, 1.018e-4
-1.693, 1.029e-4
-1.694, 1.041e-4
-1.695, 1.053e-4
-1.696, 1.064e-4
-1.697, 1.076e-4
-1.698, 1.088e-4
-1.699, 1.100e-4
-1.700, 1.112e-4
-1.701, 1.124e-4
-1.702, 1.136e-4
-1.703, 1.149e-4
-1.704, 1.161e-4
-1.705, 1.173e-4
-1.706, 1.186e-4
-1.707, 1.199e-4
-1.708, 1.211e-4
-1.709, 1.224e-4
-1.710, 1.238e-4
-1.711, 1.251e-4
-1.712, 1.265e-4
-1.713, 1.279e-4
-1.714, 1.293e-4
-1.715, 1.308e-4
-1.716, 1.323e-4
-1.717, 1.338e-4
-1.718, 1.354e-4
-1.719, 1.370e-4
-1.720, 1.387e-4
-1.721, 1.405e-4
-1.722, 1.423e-4
-1.723, 1.442e-4
-1.724, 1.462e-4
-1.725, 1.482e-4
-1.726, 1.503e-4
-1.727, 1.525e-4
-1.728, 1.548e-4
-1.729, 1.571e-4
-1.730, 1.595e-4
-1.731, 1.620e-4
-1.732, 1.646e-4
-1.733, 1.673e-4
-1.734, 1.700e-4
-1.735, 1.728e-4
-1.736, 1.757e-4
-1.737, 1.787e-4
-1.738, 1.817e-4
-1.739, 1.848e-4
-1.740, 1.880e-4
-1.741, 1.912e-4
-1.742, 1.946e-4
-1.743, 1.979e-4
-1.744, 2.013e-4
-1.745, 2.048e-4
-1.746, 2.084e-4
-1.747, 2.120e-4
-1.748, 2.157e-4
-1.749, 2.195e-4
-1.750, 2.233e-4
-1.751, 2.272e-4
-1.752, 2.311e-4
-1.753, 2.350e-4
-1.754, 2.390e-4
-1.755, 2.431e-4
-1.756, 2.472e-4
-1.757, 2.514e-4
-1.758, 2.556e-4
-1.759, 2.599e-4
-1.760, 2.642e-4
-1.761, 2.686e-4
-1.762, 2.731e-4
-1.763, 2.776e-4
-1.764, 2.821e-4
-1.765, 2.867e-4
-1.766, 2.913e-4
-1.767, 2.960e-4
-1.768, 3.007e-4
-1.769, 3.055e-4
-1.770, 3.103e-4
-1.771, 3.151e-4
-1.772, 3.200e-4
-1.773, 3.250e-4
-1.774, 3.299e-4
-1.775, 3.350e-4
-1.776, 3.400e-4
-1.777, 3.451e-4
-1.778, 3.502e-4
-1.779, 3.554e-4
-1.780, 3.606e-4
-1.781, 3.659e-4
-1.782, 3.712e-4
-1.783, 3.765e-4
-1.784, 3.819e-4
-1.785, 3.873e-4
-1.786, 3.928e-4
-1.787, 3.982e-4
-1.788, 4.037e-4
-1.789, 4.093e-4
-1.790, 4.148e-4
-1.791, 4.204e-4
-1.792, 4.261e-4
-1.793, 4.318e-4
-1.794, 4.375e-4
-1.795, 4.432e-4
-1.796, 4.489e-4
-1.797, 4.547e-4
-1.798, 4.605e-4
-1.799, 4.663e-4
-1.800, 4.723e-4
-1.801, 4.782e-4
-1.802, 4.841e-4
-1.803, 4.901e-4
-1.804, 4.960e-4
-1.805, 5.021e-4
-1.806, 5.081e-4
-1.807, 5.141e-4
-1.808, 5.202e-4
-1.809, 5.263e-4
-1.810, 5.325e-4
-1.811, 5.387e-4
-1.812, 5.449e-4
-1.813, 5.511e-4
-1.814, 5.573e-4
-1.815, 5.636e-4
-1.816, 5.698e-4
-1.817, 5.761e-4
-1.818, 5.825e-4
-1.819, 5.888e-4
-1.820, 5.952e-4
-1.821, 6.017e-4
-1.822, 6.082e-4
-1.823, 6.146e-4
-1.824, 6.211e-4
-1.825, 6.275e-4
-1.826, 6.340e-4
-1.827, 6.406e-4
-1.828, 6.472e-4
-1.829, 6.538e-4
-1.830, 6.603e-4
-1.831, 6.669e-4
-1.832, 6.736e-4
-1.833, 6.803e-4
-1.834, 6.870e-4
-1.835, 6.937e-4
-1.836, 7.005e-4
-1.837, 7.072e-4
-1.838, 7.140e-4
-1.839, 7.208e-4
-1.840, 7.276e-4
-1.841, 7.345e-4
-1.842, 7.413e-4
-1.843, 7.482e-4
-1.844, 7.551e-4
-1.845, 7.620e-4
-1.846, 7.689e-4
-1.847, 7.759e-4
-1.848, 7.829e-4
-1.849, 7.899e-4
-1.850, 7.969e-4
-1.851, 8.040e-4
-1.852, 8.110e-4
-1.853, 8.182e-4
-1.854, 8.253e-4
-1.855, 8.325e-4
-1.856, 8.397e-4
-1.857, 8.468e-4
-1.858, 8.541e-4
-1.859, 8.613e-4
-1.860, 8.686e-4
-1.861, 8.759e-4
-1.862, 8.832e-4
-1.863, 8.905e-4
-1.864, 8.978e-4
-1.865, 9.052e-4
-1.866, 9.126e-4
-1.867, 9.200e-4
-1.868, 9.274e-4
-1.869, 9.348e-4
-1.870, 9.423e-4
-1.871, 9.497e-4
-1.872, 9.572e-4
-1.873, 9.647e-4
-1.874, 9.722e-4
-1.875, 9.797e-4
-1.876, 9.872e-4
-1.877, 9.947e-4
-1.878, 1.002e-3
-1.879, 1.009e-3
-1.880, 1.011e-3
-1.881, 1.011e-3
-1.882, 1.011e-3
-1.883, 1.011e-3
-1.884, 1.011e-3
-1.885, 1.011e-3
-1.886, 1.011e-3
-1.887, 1.011e-3
-1.888, 1.011e-3
-1.889, 1.011e-3
-1.890, 1.011e-3
-1.891, 1.011e-3
-1.892, 1.011e-3
-1.893, 1.011e-3
-1.894, 1.011e-3
-1.895, 1.011e-3
-1.896, 1.011e-3
-1.897, 1.011e-3
-1.898, 1.011e-3
-1.899, 1.011e-3
-1.900, 1.011e-3
-1.901, 1.011e-3
-1.902, 1.011e-3
-1.903, 1.011e-3
-1.904, 1.011e-3
-1.905, 1.011e-3
-1.906, 1.011e-3
-1.907, 1.011e-3
-1.908, 1.011e-3
-1.909, 1.011e-3
-1.910, 1.011e-3
-1.911, 1.011e-3
-1.912, 1.011e-3
-1.913, 1.011e-3
-1.914, 1.011e-3
-1.915, 1.011e-3
-1.916, 1.011e-3
-1.917, 1.011e-3
-1.918, 1.011e-3
-1.919, 1.011e-3
-1.920, 1.011e-3
-1.921, 1.011e-3
-1.922, 1.011e-3
-1.923, 1.011e-3
-1.924, 1.011e-3
-1.925, 1.011e-3
-1.926, 1.011e-3
-1.927, 1.011e-3
-1.928, 1.011e-3
-1.929, 1.011e-3
-1.930, 1.011e-3
-1.931, 1.011e-3
-1.932, 1.011e-3
-1.933, 1.011e-3
-1.934, 1.011e-3
-1.935, 1.011e-3
-1.936, 1.011e-3
-1.937, 1.011e-3
-1.938, 1.011e-3
-1.939, 1.011e-3
-1.940, 1.011e-3
-1.941, 1.011e-3
-1.942, 1.011e-3
-1.943, 1.011e-3
-1.944, 1.011e-3
-1.945, 1.011e-3
-1.946, 1.011e-3
-1.947, 1.011e-3
-1.948, 1.011e-3
-1.949, 1.011e-3
-1.950, 1.011e-3
-1.951, 1.011e-3
-1.952, 1.011e-3
-1.953, 1.011e-3
-1.954, 1.011e-3
-1.955, 1.011e-3
-1.956, 1.011e-3
-1.957, 1.011e-3
-1.958, 1.011e-3
-1.959, 1.011e-3
-1.960, 1.011e-3
-1.961, 1.011e-3
-1.962, 1.011e-3
-1.963, 1.011e-3
-1.964, 1.011e-3
-1.965, 1.011e-3
-1.966, 1.011e-3
-1.967, 1.011e-3
-1.968, 1.011e-3
-1.969, 1.011e-3
-1.970, 1.011e-3
-1.971, 1.011e-3
-1.972, 1.011e-3
-1.973, 1.011e-3
-1.974, 1.011e-3
-1.975, 1.011e-3
-1.976, 1.011e-3
-1.977, 1.011e-3
-1.978, 1.011e-3
-1.979, 1.011e-3
-1.980, 1.011e-3
-1.981, 1.011e-3
-1.982, 1.011e-3
-1.983, 1.011e-3
-1.984, 1.011e-3
-1.985, 1.011e-3
-1.986, 1.011e-3
-1.987, 1.011e-3
-1.988, 1.011e-3
-1.989, 1.011e-3
-1.990, 1.011e-3
-1.991, 1.011e-3
-1.992, 1.011e-3
-1.993, 1.011e-3
-1.994, 1.011e-3
-1.995, 1.011e-3
-1.996, 1.011e-3
-1.997, 1.011e-3
-1.998, 1.011e-3
-1.999, 1.011e-3
-2.000, 1.011e-3
-2.001, 1.011e-3
-2.002, 1.011e-3
-2.003, 1.011e-3
-2.004, 1.011e-3
-2.005, 1.011e-3
-2.006, 1.011e-3
-2.007, 1.011e-3
-2.008, 1.011e-3
-2.009, 1.011e-3
-2.010, 1.011e-3
-2.011, 1.011e-3
-2.012, 1.011e-3
-2.013, 1.011e-3
-2.014, 1.011e-3
-2.015, 1.011e-3
-2.016, 1.011e-3
-2.017, 1.011e-3
-2.018, 1.011e-3
-2.019, 1.011e-3
-2.020, 1.011e-3
-2.021, 1.011e-3
-2.022, 1.011e-3
-2.023, 1.011e-3
-2.024, 1.011e-3
-2.025, 1.011e-3
-2.026, 1.011e-3
-2.027, 1.011e-3
-2.028, 1.011e-3
-2.029, 1.011e-3
-2.030, 1.011e-3
-2.031, 1.011e-3
-2.032, 1.011e-3
-2.033, 1.011e-3
-2.034, 1.011e-3
-2.035, 1.011e-3
-2.036, 1.011e-3
-2.037, 1.011e-3
-2.038, 1.011e-3
-2.039, 1.011e-3
-2.040, 1.011e-3
-2.041, 1.011e-3
-2.042, 1.011e-3
-2.043, 1.011e-3
-2.044, 1.011e-3
-2.045, 1.011e-3
-2.046, 1.011e-3
-2.047, 1.011e-3
-2.048, 1.011e-3
-2.049, 1.011e-3
-2.050, 1.011e-3
-2.051, 1.011e-3
-2.052, 1.011e-3
-2.053, 1.011e-3
-2.054, 1.011e-3
-2.055, 1.011e-3
-2.056, 1.011e-3
-2.057, 1.011e-3
-2.058, 1.011e-3
-2.059, 1.011e-3
-2.060, 1.011e-3
-2.061, 1.011e-3
-2.062, 1.011e-3
-2.063, 1.011e-3
-2.064, 1.011e-3
-2.065, 1.011e-3
-2.066, 1.011e-3
-2.067, 1.011e-3
-2.068, 1.011e-3
-2.069, 1.011e-3
-2.070, 1.011e-3
-2.071, 1.011e-3
-2.072, 1.011e-3
-2.073, 1.011e-3
-2.074, 1.011e-3
-2.075, 1.011e-3
-2.076, 1.011e-3
-2.077, 1.011e-3
-2.078, 1.011e-3
-2.079, 1.011e-3
-2.080, 1.011e-3
-2.081, 1.011e-3
-2.082, 1.011e-3
-2.083, 1.011e-3
-2.084, 1.011e-3
-2.085, 1.011e-3
-2.086, 1.011e-3
-2.087, 1.011e-3
-2.088, 1.011e-3
-2.089, 1.011e-3
-2.090, 1.011e-3
-2.091, 1.011e-3
-2.092, 1.011e-3
-2.093, 1.011e-3
-2.094, 1.011e-3
-2.095, 1.011e-3
-2.096, 1.011e-3
-2.097, 1.011e-3
-2.098, 1.011e-3
-2.099, 1.011e-3
-2.100, 1.011e-3
-2.101, 1.011e-3
-2.102, 1.011e-3
-2.103, 1.011e-3
-2.104, 1.011e-3
-2.105, 1.011e-3
-2.106, 1.011e-3
-2.107, 1.011e-3
-2.108, 1.011e-3
-2.109, 1.011e-3
-2.110, 1.011e-3
-2.111, 1.011e-3
-2.112, 1.011e-3
-2.113, 1.011e-3
-2.114, 1.011e-3
-2.115, 1.011e-3
-2.116, 1.011e-3
-2.117, 1.011e-3
-2.118, 1.011e-3
-2.119, 1.011e-3
-2.120, 1.011e-3
-2.121, 1.011e-3
-2.122, 1.011e-3
-2.123, 1.011e-3
-2.124, 1.011e-3
-2.125, 1.011e-3
-2.126, 1.011e-3
-2.127, 1.011e-3
-2.128, 1.011e-3
-2.129, 1.011e-3
-2.130, 1.011e-3
-2.131, 1.011e-3
-2.132, 1.011e-3
-2.133, 1.011e-3
-2.134, 1.011e-3
-2.135, 1.011e-3
-2.136, 1.011e-3
-2.137, 1.011e-3
-2.138, 1.011e-3
-2.139, 1.011e-3
-2.140, 1.011e-3
-2.141, 1.011e-3
-2.142, 1.011e-3
-2.143, 1.011e-3
-2.144, 1.011e-3
-2.145, 1.011e-3
-2.146, 1.011e-3
-2.147, 1.011e-3
-2.148, 1.011e-3
-2.149, 1.011e-3
-2.150, 1.011e-3
-2.151, 1.011e-3
-2.152, 1.011e-3
-2.153, 1.011e-3
-2.154, 1.011e-3
-2.155, 1.011e-3
-2.156, 1.011e-3
-2.157, 1.011e-3
-2.158, 1.011e-3
-2.159, 1.011e-3
-2.160, 1.011e-3
-2.161, 1.011e-3
-2.162, 1.011e-3
-2.163, 1.011e-3
-2.164, 1.011e-3
-2.165, 1.011e-3
-2.166, 1.011e-3
-2.167, 1.011e-3
-2.168, 1.011e-3
-2.169, 1.011e-3
-2.170, 1.011e-3
-2.171, 1.011e-3
-2.172, 1.011e-3
-2.173, 1.011e-3
-2.174, 1.011e-3
-2.175, 1.011e-3
-2.176, 1.011e-3
-2.177, 1.011e-3
-2.178, 1.011e-3
-2.179, 1.011e-3
-2.180, 1.011e-3
-2.181, 1.011e-3
-2.182, 1.011e-3
-2.183, 1.011e-3
-2.184, 1.011e-3
-2.185, 1.011e-3
-2.186, 1.011e-3
-2.187, 1.011e-3
-2.188, 1.011e-3
-2.189, 1.011e-3
-2.190, 1.011e-3
-2.191, 1.011e-3
-2.192, 1.011e-3
-2.193, 1.011e-3
-2.194, 1.011e-3
-2.195, 1.011e-3
-2.196, 1.011e-3
-2.197, 1.011e-3
-2.198, 1.011e-3
-2.199, 1.011e-3
-2.200, 1.011e-3
-2.201, 1.011e-3
-2.202, 1.011e-3
-2.203, 1.011e-3
-2.204, 1.011e-3
-2.205, 1.011e-3
-2.206, 1.011e-3
-2.207, 1.011e-3
-2.208, 1.011e-3
-2.209, 1.011e-3
-2.210, 1.011e-3
-2.211, 1.011e-3
-2.212, 1.011e-3
-2.213, 1.011e-3
-2.214, 1.011e-3
-2.215, 1.011e-3
-2.216, 1.011e-3
-2.217, 1.011e-3
-2.218, 1.011e-3
-2.219, 1.011e-3
-2.220, 1.011e-3
-2.221, 1.011e-3
-2.222, 1.011e-3
-2.223, 1.011e-3
-2.224, 1.011e-3
-2.225, 1.011e-3
-2.226, 1.011e-3
-2.227, 1.011e-3
-2.228, 1.011e-3
-2.229, 1.011e-3
-2.230, 1.011e-3
-2.231, 1.011e-3
-2.232, 1.011e-3
-2.233, 1.011e-3
-2.234, 1.011e-3
-2.235, 1.011e-3
-2.236, 1.011e-3
-2.237, 1.011e-3
-2.238, 1.011e-3
-2.239, 1.011e-3
-2.240, 1.011e-3
-2.241, 1.011e-3
-2.242, 1.011e-3
-2.243, 1.011e-3
-2.244, 1.011e-3
-2.245, 1.011e-3
-2.246, 1.011e-3
-2.247, 1.011e-3
-2.248, 1.011e-3
-2.249, 1.011e-3
-2.250, 1.011e-3
-2.251, 1.011e-3
-2.252, 1.011e-3
-2.253, 1.011e-3
-2.254, 1.011e-3
-2.255, 1.011e-3
-2.256, 1.011e-3
-2.257, 1.011e-3
-2.258, 1.011e-3
-2.259, 1.011e-3
-2.260, 1.011e-3
-2.261, 1.011e-3
-2.262, 1.011e-3
-2.263, 1.011e-3
-2.264, 1.011e-3
-2.265, 1.011e-3
-2.266, 1.011e-3
-2.267, 1.011e-3
-2.268, 1.011e-3
-2.269, 1.011e-3
-2.270, 1.011e-3
-2.271, 1.011e-3
-2.272, 1.011e-3
-2.273, 1.011e-3
-2.274, 1.011e-3
-2.275, 1.011e-3
-2.276, 1.011e-3
-2.277, 1.011e-3
-2.278, 1.011e-3
-2.279, 1.011e-3
-2.280, 1.011e-3
-2.281, 1.011e-3
-2.282, 1.011e-3
-2.283, 1.011e-3
-2.284, 1.011e-3
-2.285, 1.011e-3
-2.286, 1.011e-3
-2.287, 1.011e-3
-2.288, 1.011e-3
-2.289, 1.011e-3
-2.290, 1.011e-3
-2.291, 1.011e-3
-2.292, 1.011e-3
-2.293, 1.011e-3
-2.294, 1.011e-3
-2.295, 1.011e-3
-2.296, 1.011e-3
-2.297, 1.011e-3
-2.298, 1.011e-3
-2.299, 1.011e-3
