Potential V vs RHE, Current mA cm-2
0.4132999999999999,0.008539197405985362
0.4122999999999999,0.006695828582261218
0.4112999999999999,0.005967252262830724
0.4102999999999999,0.005554156563270134
0.4092999999999999,0.005182087491405629
0.4082999999999999,0.004880753984534376
0.4072999999999999,0.004566688075964338
0.4062999999999999,0.004327601866287147
0.4052999999999999,0.004119639305206987
0.4042999999999999,0.003921579723225882
0.4032999999999999,0.0037305936977441016
0.4022999999999999,0.0035282899818634018
0.4012999999999999,0.0033528657806801364
0.4002999999999999,0.0032113946506936333
0.3992999999999999,0.003050117562509019
0.3982999999999999,0.0028845963404248096
0.3972999999999999,0.0027035132940420857
0.3962999999999999,0.0025521391849565264
0.3952999999999999,0.002440376992267188
0.3942999999999999,0.0023003205735805496
0.39329999999999987,0.0021531905983945858
0.39229999999999987,0.002008890045808352
0.39129999999999987,0.0018603453593225234
0.39029999999999987,0.001765559702231566
0.38929999999999987,0.0016566269321419578
0.38829999999999987,0.0015278882038542395
0.38729999999999987,0.0013876903140376145
0.38629999999999987,0.0012732401698785328
0.38529999999999986,0.0011643073997889253
0.38429999999999986,0.001077727068237185
0.38329999999999986,0.0009689357692775636
0.38229999999999986,0.0008461388284492785
0.38129999999999986,0.0007428649035591307
0.38029999999999986,0.0006605287059069856
0.37929999999999986,0.0005585280211867165
0.37829999999999986,0.0004566688075964338
0.37729999999999986,0.0003505654601065561
0.37629999999999986,0.00025012095781613847
0.37529999999999986,0.00018037569073279218
0.37429999999999986,9.938346881551882e-05
0.37329999999999985,1.7033124050375042e-05
0.37229999999999985,-0.00010859323937764022
0.37129999999999985,-0.00017415096101338603
0.37029999999999985,-0.00025648715866553114
0.36929999999999985,-0.00032495918557899894
0.36829999999999985,-0.0003849429446932765
0.36729999999999985,-0.0004965636662526279
0.36629999999999985,-0.0005886613718738418
0.36529999999999985,-0.0006487866021181059
0.36429999999999985,-0.0007282933771705209
0.36329999999999985,-0.0007911065588845286
0.36229999999999984,-0.0009139034997128136
0.36129999999999984,-0.0009962396973649589
0.36029999999999984,-0.0010464619485101678
0.35929999999999984,-0.0011065871787544316
0.35829999999999984,-0.0011623268039691141
0.35729999999999984,-0.0012531512694204494
0.35629999999999984,-0.0013452489750416634
0.35529999999999984,-0.0013885391408175335
0.35429999999999984,-0.0014571526388609877
0.35329999999999984,-0.0015080822456561291
0.35229999999999984,-0.0016042826140469516
0.35129999999999983,-0.001697653559838044
0.35029999999999983,-0.0017245330745354797
0.34929999999999983,-0.0017627302796318356
0.34829999999999983,-0.0018348805559249527
0.34729999999999983,-0.001959375150313076
0.34629999999999983,-0.002034354849205923
0.34529999999999983,-0.0020612343639033583
0.34429999999999983,-0.0020994315689997142
0.3432999999999998,-0.0021772406904922914
0.3422999999999998,-0.002240902698986218
0.3412999999999998,-0.002321541243078525
0.3402999999999998,-0.002358323736875016
0.3392999999999998,-0.0023922768080717766
0.3382999999999998,-0.0024474505487665135
0.3372999999999998,-0.002547895051056931
0.3362999999999998,-0.002591751101352747
0.3352999999999998,-0.0026426807081478885
0.3342999999999998,-0.0026950250262428948
0.3332999999999998,-0.0027346369426391156
0.3322999999999998,-0.0028265931771303435
0.3312999999999998,-0.0028789374952253497
0.3302999999999998,-0.00290440229862292
0.3292999999999998,-0.0029539171941181963
0.3282999999999998,-0.0030119203574126632
0.3272999999999998,-0.003085485345005645
0.3262999999999998,-0.003157635621298762
0.3252999999999999,-0.0031845151359961976
0.3242999999999999,-0.003238274165391069
0.3232999999999999,-0.0032623242574887743
0.3222999999999999,-0.0033556952032798675
0.3212999999999999,-0.0034193572117737934
0.3202999999999999,-0.003439163169971904
0.3192999999999999,-0.0034915074880669107
0.3182999999999999,-0.003516972291464481
0.3172999999999999,-0.0036089285259557086
0.3162999999999999,-0.0036725905344496355
0.3152999999999999,-0.00367966409094896
0.3142999999999999,-0.003732008409043967
0.3132999999999999,-0.0037829380158391082
0.3122999999999999,-0.003849429446932765
0.3112999999999999,-0.003913091455426691
0.3102999999999999,-0.003921579723225882
0.3092999999999999,-0.003964021062221833
0.3082999999999999,-0.004019194802916569
0.3072999999999999,-0.004087100945310091
0.3062999999999999,-0.0041394452634050975
0.3052999999999999,-0.004180471891101184
0.3042999999999999,-0.004196033715399699
0.3032999999999999,-0.00424413389959511
0.3022999999999999,-0.004313454753288497
0.3012999999999999,-0.004367213782683368
0.3002999999999999,-0.004406825699079589
0.2992999999999999,-0.004422387523378105
0.2982999999999999,-0.00446341415107419
0.2972999999999999,-0.004528490870867982
0.2962999999999999,-0.004604885281060694
0.2952999999999999,-0.004621861816659075
0.2942999999999999,-0.004636008929657725
0.2932999999999999,-0.004672791423454216
0.2922999999999999,-0.0047392828545478735
0.2912999999999999,-0.0047817241935438235
0.2902999999999999,-0.004810018419541124
0.2892999999999999,-0.004843971490737885
0.2882999999999999,-0.004872265716735186
0.2872999999999999,-0.004933098302629383
0.2862999999999999,-0.004986857332024254
0.2852999999999999,-0.00500807800152223
0.2842999999999999,-0.005032128093619936
0.2832999999999999,-0.005051934051818046
0.2822999999999999,-0.005132572595910353
0.2812999999999999,-0.005197649315704145
0.2802999999999999,-0.0052018934496037405
0.2792999999999999,-0.005220284696501985
0.2782999999999999,-0.005237261232100367
0.2772999999999999,-0.005307996797093618
0.2762999999999999,-0.005354682269989164
0.2752999999999999,-0.005378732362086869
0.2742999999999999,-0.00540419716548444
0.2732999999999999,-0.005425417834982416
0.2722999999999999,-0.005486250420876613
0.2712999999999999,-0.0055654742536690545
0.2702999999999999,-0.0055654742536690545
0.2692999999999999,-0.0055838655005673
0.26829999999999987,-0.005617818571764061
0.26729999999999987,-0.005675821735058527
0.26629999999999987,-0.005736654320952724
0.26529999999999987,-0.0057451425887519135
0.26429999999999987,-0.005770607392149484
0.26329999999999987,-0.005784754505148136
0.26229999999999987,-0.005849831224941926
0.26129999999999987,-0.005902175543036933
0.26029999999999986,-0.005920566789935178
0.25929999999999986,-0.005930469769034234
0.25829999999999986,-0.005970081685430455
0.25729999999999986,-0.0060280848487249215
0.25629999999999986,-0.006081843878119792
0.25529999999999986,-0.006088917434619118
0.25429999999999986,-0.006104479258917633
0.25329999999999986,-0.006156823577012639
0.25229999999999986,-0.0061950207821089955
0.25129999999999986,-0.006244535677604272
0.25029999999999986,-0.006271415192301708
0.24929999999999986,-0.006295465284399413
0.24829999999999985,-0.006316685953897388
0.24729999999999985,-0.006360542004193204
0.24629999999999985,-0.006410056899688482
0.24529999999999985,-0.006459571795183757
0.24429999999999985,-0.006470889485582678
0.24329999999999985,-0.006470889485582678
0.24229999999999985,-0.006540210339276065
0.24129999999999985,-0.006605287059069856
0.24029999999999985,-0.006598213502570531
0.23929999999999985,-0.006642069552866348
0.23829999999999985,-0.006643484264166213
0.23729999999999984,-0.006688755025761894
0.23629999999999984,-0.006751002322955954
0.23529999999999984,-0.0067651494359546056
0.23429999999999984,-0.0067863701054525815
0.23329999999999984,-0.006813249620150017
0.23229999999999984,-0.0068288114444485315
0.23129999999999984,-0.00692076767893976
0.23029999999999984,-0.00693208536933868
0.22929999999999984,-0.006947647193637195
0.22829999999999984,-0.006950476616236925
0.22729999999999984,-0.006992917955232876
0.22629999999999983,-0.007048091695927613
0.22529999999999983,-0.007073556499325183
0.22429999999999983,-0.007084874189724104
0.22329999999999983,-0.00712307139482046
0.22229999999999983,-0.007159853888616951
0.22129999999999983,-0.007213612918011821
0.22029999999999983,-0.007243321855308988
0.21929999999999983,-0.0072447365666088535
0.21829999999999983,-0.0072744455039060185
0.21729999999999983,-0.00730273972990332
0.21629999999999983,-0.007362157604497651
0.21529999999999982,-0.007384792985295492
0.21429999999999982,-0.007394695964394547
0.21329999999999982,-0.007410257788693061
0.21229999999999982,-0.007476749219786719
0.21129999999999982,-0.007517775847482805
0.21029999999999982,-0.007536167094381051
0.20929999999999982,-0.007553143629979431
0.20829999999999982,-0.007557387763879026
0.20729999999999982,-0.0076125615045737624
0.20629999999999982,-0.007677638224367554
0.20529999999999982,-0.007693200048666069
0.20429999999999982,-0.007711591295564315
0.20329999999999981,-0.007713006006864179
0.2022999999999998,-0.007763935613659322
0.2012999999999998,-0.007821938776953788
0.20029999999999992,-0.007831841756052843
0.19929999999999992,-0.007850233002951089
0.19829999999999992,-0.007870038961149198
0.19729999999999992,-0.0078983331871465
0.19629999999999992,-0.007966239329540022
0.19529999999999992,-0.00799877768943692
0.19429999999999992,-0.008052536718831788
0.19329999999999992,-0.008082245656128955
0.19229999999999992,-0.008079416233529224
0.19129999999999991,-0.00814873708722261
0.1902999999999999,-0.008152981221122206
0.1892999999999999,-0.008171372468020452
0.1882999999999999,-0.008182690158419373
0.1872999999999999,-0.008232205053914648
0.1862999999999999,-0.00828030523811006
0.1852999999999999,-0.008304355330207765
0.1842999999999999,-0.008318502443206416
0.1832999999999999,-0.008341137824004256
0.1822999999999999,-0.008358114359602637
0.1812999999999999,-0.00843450876979535
0.1802999999999999,-0.008465632418392379
0.1792999999999999,-0.008445826460194268
0.1782999999999999,-0.008479779531391032
0.1772999999999999,-0.008512317891287926
0.1762999999999999,-0.008564662209382932
0.1752999999999999,-0.008607103548378882
0.1742999999999999,-0.008595785857979963
0.1732999999999999,-0.008629738929176723
0.1722999999999999,-0.00867076555687281
0.1712999999999999,-0.008697645071570247
0.1702999999999999,-0.008730183431467142
0.1692999999999999,-0.008740086410566197
0.1682999999999999,-0.008749989389665251
0.1672999999999999,-0.008799504285160529
0.1662999999999999,-0.008865995716254184
0.1652999999999999,-0.008885801674452295
0.1642999999999999,-0.008894289942251485
0.1632999999999999,-0.008902778210050675
0.1622999999999999,-0.008950878394246088
0.1612999999999999,-0.008997563867141633
0.1602999999999999,-0.00901029626884042
0.1592999999999999,-0.009030102227038529
0.15829999999999989,-0.009040005206137586
0.15729999999999988,-0.009075372988634211
0.15629999999999988,-0.009143279131027731
0.15529999999999988,-0.009174402779624762
0.15429999999999988,-0.009197038160422603
0.15329999999999988,-0.009201282294322198
0.15229999999999988,-0.00923523536551896
0.15129999999999988,-0.009287579683613966
0.15029999999999988,-0.009307385641812075
0.14929999999999988,-0.009325776888710322
0.14829999999999988,-0.009337094579109242
0.14729999999999988,-0.009368218227706273
0.14629999999999987,-0.0094318802362002
0.14529999999999987,-0.00946300388479723
0.14429999999999987,-0.009464418596097096
0.14329999999999987,-0.00950261580119345
0.14229999999999987,-0.009546471851489267
0.14129999999999987,-0.009584669056585622
0.14029999999999987,-0.009618622127782386
0.13929999999999987,-0.009610133859983196
0.13829999999999987,-0.00964833106507955
0.13729999999999987,-0.009679454713676582
0.13629999999999987,-0.009728969609171858
0.13529999999999986,-0.009777069793367269
0.13429999999999986,-0.009765752102968348
0.13329999999999986,-0.009788387483766188
0.13229999999999986,-0.00982516997756268
0.13129999999999986,-0.009863367182659035
0.13029999999999986,-0.009883173140857146
0.12929999999999986,-0.0099213703459535
0.12829999999999986,-0.009932688036352423
0.12729999999999986,-0.009972299952748644
0.12629999999999986,-0.01003313253864284
0.12529999999999986,-0.010048694362941356
0.12429999999999986,-0.010068500321139465
0.12329999999999985,-0.010081232722838252
0.12229999999999985,-0.010106697526235822
0.12129999999999985,-0.010171774246029613
0.12029999999999985,-0.010204312605926509
0.11929999999999985,-0.010225533275424485
0.11829999999999985,-0.010235436254523542
0.11729999999999985,-0.010290609995218277
0.11629999999999985,-0.0103302219116145
0.11529999999999985,-0.010371248539310585
0.11429999999999985,-0.010375492673210179
0.11329999999999985,-0.010392469208808559
0.11229999999999984,-0.010402372187907615
0.11129999999999984,-0.010466034196401542
0.11029999999999984,-0.010502816690198032
0.10929999999999984,-0.010515549091896819
0.10829999999999984,-0.010532525627495199
0.10729999999999984,-0.010557990430892767
0.10629999999999984,-0.01062023772808683
0.10529999999999984,-0.010666923200982377
0.10429999999999984,-0.010689558581780218
0.10329999999999984,-0.010702290983479001
0.10229999999999984,-0.010726341075576708
0.10129999999999983,-0.010790003084070635
0.10029999999999983,-0.010828200289166992
0.09929999999999983,-0.010812638464868476
0.09829999999999983,-0.010855079803864428
0.09729999999999983,-0.010874885762062537
0.09629999999999983,-0.010939962481856328
0.09529999999999983,-0.010980989109552414
0.09429999999999983,-0.010986647954751875
0.09329999999999983,-0.01099938035645066
0.09229999999999983,-0.011029089293747827
0.09129999999999983,-0.01109133659094189
0.09029999999999982,-0.011153583888135948
0.08929999999999982,-0.011153583888135948
0.08829999999999982,-0.011180463402833385
0.08729999999999982,-0.01121300176273028
0.08629999999999982,-0.011245540122627176
0.08529999999999982,-0.011312031553720835
0.08429999999999982,-0.011320519821520023
0.08329999999999982,-0.011331837511918944
0.08229999999999982,-0.011378522984814489
0.08129999999999982,-0.011440770282008551
0.08029999999999982,-0.011478967487104906
0.07929999999999982,-0.011504432290502478
0.07829999999999981,-0.01152989709390005
0.07729999999999981,-0.011553947185997754
0.07629999999999981,-0.01160912092669249
0.07529999999999992,-0.011644488709189117
0.07429999999999992,-0.011657221110887902
0.07329999999999992,-0.011686930048185069
0.07229999999999992,-0.011705321295083315
0.07129999999999992,-0.01176898330357724
0.07029999999999992,-0.011811424642573193
0.06929999999999992,-0.011817083487772651
0.06829999999999992,-0.011865183671968062
0.06729999999999992,-0.011884989630166173
0.06629999999999991,-0.011952895772559695
0.06529999999999991,-0.011996751822855511
0.06429999999999991,-0.01200241066805497
0.06329999999999991,-0.012029290182752408
0.06229999999999991,-0.012047681429650653
0.06129999999999991,-0.012104269881645254
0.06029999999999991,-0.012149540643240935
0.05929999999999991,-0.012176420157938371
0.05829999999999991,-0.012197640827436346
0.05729999999999991,-0.012230179187333243
0.056299999999999906,-0.012288182350627709
0.055299999999999905,-0.01234477080262231
0.054299999999999904,-0.01235608849302123
0.0532999999999999,-0.012374479739919475
0.0522999999999999,-0.012409847522416103
0.0512999999999999,-0.012466435974410705
0.0502999999999999,-0.01252160971510544
0.0492999999999999,-0.012534342116804225
0.0482999999999999,-0.012551318652402605
0.0472999999999999,-0.012585271723599366
0.0462999999999999,-0.012623468928695722
0.045299999999999896,-0.012698448627588569
0.044299999999999895,-0.01271825458578668
0.043299999999999894,-0.012733816410085195
0.04229999999999989,-0.01275503707958317
0.04129999999999989,-0.012827187355876287
0.04029999999999989,-0.01292055830166738
0.03929999999999989,-0.012916314167767784
0.03829999999999989,-0.012930461280766433
0.03729999999999989,-0.01295168195026441
0.03629999999999989,-0.013013929247458473
0.03529999999999989,-0.013069102988153208
0.034299999999999886,-0.01311154432714916
0.033299999999999885,-0.01312569144014781
0.032299999999999884,-0.013141253264446326
0.031299999999999883,-0.013224721231138364
0.030299999999999883,-0.013288383239632289
0.02929999999999988,-0.013311018620430128
0.02829999999999988,-0.013336483423827702
0.02729999999999988,-0.01335628938202581
0.02629999999999988,-0.013415707256620142
0.025299999999999878,-0.013492101666812856
0.024299999999999877,-0.013494931089412587
0.023299999999999876,-0.013530298871909211
0.022299999999999875,-0.01355010483010732
0.021299999999999875,-0.013612352127301384
0.020299999999999874,-0.01367884355839504
0.019299999999999873,-0.013684502403594501
0.018299999999999872,-0.01370996720699207
0.01729999999999987,-0.013745334989488696
0.01629999999999987,-0.01379202046238424
0.01529999999999987,-0.013889635542074931
0.014299999999999868,-0.01390378265507358
0.013299999999999867,-0.013923588613271691
0.012299999999999978,-0.013971688797467102
0.011299999999999866,-0.014001397734764267
0.010299999999999976,-0.014070718588457654
0.009299999999999864,-0.014110330504853877
0.008299999999999974,-0.014121648195252797
0.007299999999999862,-0.014147112998650365
0.006299999999999972,-0.014217848563643616
0.00529999999999986,-0.01427443701563822
0.0042999999999999705,-0.014316878354634173
0.0032999999999998586,-0.014331025467632824
0.0022999999999999687,-0.014373466806628774
0.0012999999999998568,-0.014415908145624722
0.00029999999999996696,-0.014486643710617976
-0.000700000000000145,-0.014514937936615275
-0.0017000000000000348,-0.014529085049613928
-0.0027000000000001467,-0.014557379275611227
-0.0037000000000000366,-0.014628114840604478
-0.0047000000000001485,-0.01469885040559773
-0.005700000000000038,-0.014741291744593682
-0.00670000000000015,-0.014755438857592333
-0.00770000000000004,-0.014783733083589632
-0.008700000000000152,-0.014840321535584235
-0.009700000000000042,-0.014911057100577486
-0.010700000000000154,-0.014981792665570736
-0.011700000000000044,-0.014995939778569388
-0.012700000000000156,-0.01501008689156804
-0.013700000000000045,-0.015066675343562642
-0.014700000000000157,-0.015137410908555892
-0.015700000000000047,-0.015165705134553195
-0.01670000000000016,-0.015193999360550494
-0.01770000000000005,-0.015222293586547794
-0.01870000000000016,-0.015278882038542396
-0.01970000000000005,-0.015349617603535646
-0.020700000000000163,-0.015349617603535646
-0.021700000000000053,-0.015392058942531598
-0.022700000000000164,-0.015406206055530251
-0.023700000000000054,-0.01546279450752485
-0.024700000000000166,-0.015561824298515404
-0.025700000000000056,-0.015575971411514053
-0.026700000000000168,-0.015590118524512706
-0.027700000000000058,-0.015632559863508654
-0.02870000000000017,-0.01568914831550326
-0.02970000000000006,-0.01575988388049651
-0.03070000000000017,-0.01578817810649381
-0.03170000000000006,-0.01580232521949246
-0.03270000000000017,-0.01583061944548976
-0.03370000000000006,-0.015873060784485714
-0.034700000000000175,-0.015929649236480315
-0.035700000000000065,-0.015986237688474913
-0.03670000000000018,-0.016014531914472215
-0.03770000000000007,-0.016028679027470863
-0.03870000000000018,-0.01608526747946547
-0.03970000000000007,-0.01614185593146007
-0.04070000000000018,-0.016170150157457368
-0.04170000000000007,-0.01618429727045602
-0.04270000000000018,-0.016212591496453318
-0.04370000000000007,-0.01625503283544927
-0.044700000000000184,-0.016311621287443873
-0.045700000000000074,-0.016354062626439823
-0.046700000000000186,-0.016368209739438477
-0.047700000000000076,-0.016396503965435776
-0.04870000000000019,-0.01646723953042903
-0.04970000000000008,-0.016552122208420932
-0.05070000000000019,-0.01659456354741688
-0.05170000000000008,-0.01660871066041553
-0.05270000000000019,-0.01660871066041553
-0.05370000000000008,-0.01665115199941148
-0.05470000000000019,-0.01673603467740338
-0.05570000000000008,-0.016764328903400686
-0.056700000000000195,-0.016792623129397985
-0.057700000000000085,-0.016820917355395284
-0.058700000000000196,-0.016849211581392583
-0.059700000000000086,-0.01693409425938449
-0.0607000000000002,-0.016962388485381792
