Potential V vs RHE, Current mA cm-2
0.4132999999999999,-0.015929649236480315
0.4122999999999999,-0.01731606631034805
0.4112999999999999,-0.01769803836131161
0.4102999999999999,-0.017881950830294063
0.4092999999999999,-0.018009274847281917
0.4082999999999999,-0.01816489309026707
0.4072999999999999,-0.018306364220253574
0.4062999999999999,-0.01847612957623738
0.4052999999999999,-0.018603453593225232
0.4042999999999999,-0.018674189158218484
0.4032999999999999,-0.018730777610213082
0.4022999999999999,-0.018801513175206338
0.4012999999999999,-0.018886395853198238
0.4002999999999999,-0.018985425644188793
0.3992999999999999,-0.019070308322180696
0.3982999999999999,-0.0191834852261699
0.3972999999999999,-0.0192683679041618
0.3962999999999999,-0.019381544808151
0.3952999999999999,-0.019466427486142905
0.3942999999999999,-0.019523015938137503
0.39329999999999987,-0.01959375150313076
0.39229999999999987,-0.01965033995512536
0.39129999999999987,-0.01969278129412131
0.39029999999999987,-0.019763516859114563
0.38929999999999987,-0.019820105311109164
0.38829999999999987,-0.019890840876102416
0.38729999999999987,-0.01997572355409432
0.38629999999999987,-0.02008890045808352
0.38529999999999986,-0.02015963602307677
0.38429999999999986,-0.020216224475071376
0.38329999999999986,-0.020315254266061927
0.38229999999999986,-0.02038598983105518
0.38129999999999986,-0.020442578283049778
0.38029999999999986,-0.020513313848043033
0.37929999999999986,-0.020541608074040336
0.37829999999999986,-0.020569902300037635
0.37729999999999986,-0.020626490752032236
0.37629999999999986,-0.02071137343002414
0.37529999999999986,-0.02079625610801604
0.37429999999999986,-0.020895285899006594
0.37329999999999985,-0.020980168576998495
0.37229999999999985,-0.021079198367989046
0.37129999999999985,-0.021093345480987697
0.37029999999999985,-0.0211782281589796
0.36929999999999985,-0.02124896372397285
0.36829999999999985,-0.0212631108369715
0.36729999999999985,-0.021319699288966102
0.36629999999999985,-0.021362140627962056
0.36529999999999985,-0.021432876192955305
0.36429999999999985,-0.02150361175794856
0.36329999999999985,-0.02157434732294181
0.36229999999999984,-0.021687524226931015
0.36129999999999984,-0.021758259791924264
0.36029999999999984,-0.021828995356917517
0.35929999999999984,-0.02185728958291482
0.35829999999999984,-0.021913878034909417
0.35729999999999984,-0.021956319373905367
0.35629999999999984,-0.022012907825899968
0.35529999999999984,-0.02205534916489592
0.35429999999999984,-0.022111937616890523
0.35329999999999984,-0.022196820294882423
0.35229999999999984,-0.022253408746877028
0.35129999999999983,-0.022366585650866227
0.35029999999999983,-0.02242317410286083
0.34929999999999983,-0.022465615441856785
0.34829999999999983,-0.022522203893851383
0.34729999999999983,-0.022564645232847336
0.34629999999999983,-0.022607086571843286
0.34529999999999983,-0.022663675023837888
0.34429999999999983,-0.022691969249835187
0.3432999999999998,-0.02277685192782709
0.3422999999999998,-0.02280514615382439
0.3412999999999998,-0.022904175944814944
0.3402999999999998,-0.022960764396809545
0.3392999999999998,-0.023017352848804146
0.3382999999999998,-0.0230880884137974
0.3372999999999998,-0.023158823978790648
0.3362999999999998,-0.023215412430785252
0.3352999999999998,-0.02327200088277985
0.3342999999999998,-0.023286147995778505
0.3332999999999998,-0.023342736447773106
0.3322999999999998,-0.023399324899767704
0.3312999999999998,-0.02345591335176231
0.3302999999999998,-0.02355494314275286
0.3292999999999998,-0.023625678707746112
0.3282999999999998,-0.023696414272739365
0.3272999999999998,-0.02373885561173532
0.3262999999999998,-0.023767149837732617
0.3252999999999999,-0.023795444063729916
0.3242999999999999,-0.02385203251572452
0.3232999999999999,-0.02393691519371642
0.3222999999999999,-0.02400765075870967
0.3212999999999999,-0.024078386323702922
0.3202999999999999,-0.024106680549700225
0.3192999999999999,-0.024149121888696175
0.3182999999999999,-0.02417741611469348
0.3172999999999999,-0.024191563227692125
0.3162999999999999,-0.02427644590568403
0.3152999999999999,-0.02433303435767863
0.3142999999999999,-0.02438962280967323
0.3132999999999999,-0.02447450548766513
0.3122999999999999,-0.024488652600663786
0.3112999999999999,-0.024545241052658383
0.3102999999999999,-0.02457353527865569
0.3092999999999999,-0.02461597661765164
0.3082999999999999,-0.02467256506964624
0.3072999999999999,-0.024700859295643543
0.3062999999999999,-0.024785741973635443
0.3052999999999999,-0.024842330425630044
0.3042999999999999,-0.024870624651627343
0.3032999999999999,-0.024955507329619247
0.3022999999999999,-0.0249979486686152
0.3012999999999999,-0.0250545371206098
0.3002999999999999,-0.025139419798601705
0.2992999999999999,-0.025181861137597652
0.2982999999999999,-0.025238449589592253
0.2972999999999999,-0.025280890928588207
0.2962999999999999,-0.025337479380582808
0.2952999999999999,-0.02537992071957876
0.2942999999999999,-0.02540821494557606
0.2932999999999999,-0.02547895051056931
0.2922999999999999,-0.02553553896256391
0.2912999999999999,-0.025577980301559864
0.2902999999999999,-0.025634568753554465
0.2892999999999999,-0.025677010092550415
0.2882999999999999,-0.02573359854454502
0.2872999999999999,-0.025790186996539618
0.2862999999999999,-0.02587506967453152
0.2852999999999999,-0.025988246578520724
0.2842999999999999,-0.026044835030515325
0.2832999999999999,-0.026087276369511275
0.2822999999999999,-0.026115570595508578
0.2812999999999999,-0.026172159047503182
0.2802999999999999,-0.026186306160501827
0.2792999999999999,-0.02621460038649913
0.2782999999999999,-0.02629948306449103
0.2772999999999999,-0.026370218629484285
0.2762999999999999,-0.026440954194477534
0.2752999999999999,-0.026511689759470786
0.2742999999999999,-0.02656827821146539
0.2732999999999999,-0.02662486666345999
0.2722999999999999,-0.026639013776458643
0.2712999999999999,-0.026709749341451892
0.2702999999999999,-0.02673804356744919
0.2692999999999999,-0.026752190680447843
0.26829999999999987,-0.02682292624544109
0.26729999999999987,-0.026879514697435696
0.26629999999999987,-0.02695025026242895
0.26529999999999987,-0.0270209858274222
0.26429999999999987,-0.0270775742794168
0.26329999999999987,-0.027134162731411407
0.26229999999999987,-0.027176604070407354
0.26129999999999987,-0.027204898296404656
0.26029999999999986,-0.02727563386139791
0.25929999999999986,-0.02727563386139791
0.25829999999999986,-0.027332222313392506
0.25729999999999986,-0.02738881076538711
0.25629999999999986,-0.02743125210438306
0.25529999999999986,-0.027487840556377662
0.25429999999999986,-0.027572723234369562
0.25329999999999986,-0.027657605912361466
0.25229999999999986,-0.027714194364356067
0.25129999999999986,-0.02775663570335202
0.25029999999999986,-0.027813224155346622
0.24929999999999986,-0.027855665494342572
0.24829999999999985,-0.027898106833338522
0.24729999999999985,-0.027940548172334476
0.24629999999999985,-0.027997136624329073
0.24529999999999985,-0.02806787218932233
0.24429999999999985,-0.028124460641316927
0.24329999999999985,-0.02820934331930883
0.24229999999999985,-0.02829422599730073
0.24129999999999985,-0.028364961562293983
0.24029999999999985,-0.028407402901289937
0.23929999999999985,-0.028449844240285887
0.23829999999999985,-0.028463991353284535
0.23729999999999984,-0.02850643269228049
0.23629999999999984,-0.028577168257273744
0.23529999999999984,-0.02860546248327104
0.23429999999999984,-0.028662050935265648
0.23329999999999984,-0.028746933613257548
0.23229999999999984,-0.02880352206525215
0.23129999999999984,-0.028874257630245398
0.23029999999999984,-0.028916698969241348
0.22929999999999984,-0.0289591403082373
0.22829999999999984,-0.02902987587323055
0.22729999999999984,-0.029058170099227856
0.22629999999999983,-0.029143052777219756
0.22529999999999983,-0.02921378834221301
0.22429999999999983,-0.02922793545521166
0.22329999999999983,-0.029284523907206258
0.22229999999999983,-0.029341112359200863
0.22129999999999983,-0.029440142150191414
0.22029999999999983,-0.02953917194118197
0.21929999999999983,-0.02959576039317657
0.21829999999999983,-0.02966649595816982
0.21729999999999983,-0.02972308441016442
0.21629999999999983,-0.029751378636161722
0.21529999999999982,-0.029807967088156324
0.21429999999999982,-0.029850408427152274
0.21329999999999982,-0.029906996879146875
0.21229999999999982,-0.029977732444140127
0.21129999999999982,-0.030048468009133376
0.21029999999999982,-0.03011920357412663
0.20929999999999982,-0.03018993913911988
0.20829999999999982,-0.030260674704113137
0.20729999999999982,-0.030345557382105034
0.20629999999999982,-0.030416292947098293
0.20529999999999982,-0.030487028512091542
0.20429999999999982,-0.030529469851087492
0.20329999999999981,-0.03058605830308209
0.2022999999999998,-0.030628499642078044
0.2012999999999998,-0.030699235207071292
0.20029999999999992,-0.030741676546067253
0.19929999999999992,-0.03082655922405915
0.19829999999999992,-0.0309255890150497
0.19729999999999992,-0.03099632458004295
0.19629999999999992,-0.031067060145036202
0.19529999999999992,-0.031123648597030807
0.19429999999999992,-0.03126511972701731
0.19329999999999992,-0.031350002405009215
0.19229999999999992,-0.03136414951800787
0.19129999999999991,-0.031420737970002464
0.1902999999999999,-0.03147732642199706
0.1892999999999999,-0.03151976776099302
0.1882999999999999,-0.03160465043898492
0.1872999999999999,-0.03168953311697682
0.1862999999999999,-0.03177441579496872
0.1852999999999999,-0.03185929847296063
0.1842999999999999,-0.03194418115095252
0.1832999999999999,-0.03204321094194308
0.1822999999999999,-0.03212809361993498
0.1812999999999999,-0.03219882918492823
0.1802999999999999,-0.032255417636922835
0.1792999999999999,-0.03228371186292014
0.1782999999999999,-0.03235444742791339
0.1772999999999999,-0.03241103587990799
0.1762999999999999,-0.03248177144490124
0.1752999999999999,-0.03256665412289315
0.1742999999999999,-0.032623242574887745
0.1732999999999999,-0.032722272365878304
0.1722999999999999,-0.03279300793087155
0.1712999999999999,-0.03289203772186211
0.1702999999999999,-0.032991067512852655
0.1692999999999999,-0.033090097303843206
0.1682999999999999,-0.033174979981835113
0.1672999999999999,-0.03324571554682836
0.1662999999999999,-0.033288156885824316
0.1652999999999999,-0.033344745337818914
0.1642999999999999,-0.03337303956381622
0.1632999999999999,-0.033457922241808116
0.1622999999999999,-0.033542804919800016
0.1612999999999999,-0.033655981823789226
0.1602999999999999,-0.033712570275783824
0.1592999999999999,-0.033797452953775724
0.15829999999999989,-0.033924776970763584
0.15729999999999988,-0.03405210098775143
0.15629999999999988,-0.03415113077874199
0.15529999999999988,-0.03423601345673389
0.15429999999999988,-0.034278454795729836
0.15329999999999988,-0.034349190360723085
0.15229999999999988,-0.03440577881271769
0.15129999999999988,-0.0344906614907096
0.15029999999999988,-0.034561397055702846
0.14929999999999988,-0.0346887210726907
0.14829999999999988,-0.0348301922026772
0.14729999999999988,-0.034915074880669104
0.14629999999999987,-0.03504239889765696
0.14529999999999987,-0.03514142868864751
0.14429999999999987,-0.03526875270563536
0.14329999999999987,-0.03539607672262322
0.14229999999999987,-0.03548095940061512
0.14129999999999987,-0.03553754785260972
0.14029999999999987,-0.03560828341760297
0.13929999999999987,-0.03563657764360027
0.13829999999999987,-0.03576390166058813
0.13729999999999987,-0.03591951990357328
0.13629999999999987,-0.036131726598553036
0.13529999999999986,-0.036301491954536844
0.13429999999999986,-0.03641466885852604
0.13329999999999986,-0.036457110197522
0.13229999999999986,-0.0365136986495166
0.13129999999999986,-0.0365136986495166
0.13029999999999986,-0.036598581327508505
0.12929999999999986,-0.03664102266650445
0.12829999999999986,-0.036740052457495
0.12729999999999986,-0.036881523587481514
0.12629999999999986,-0.03698055337847206
0.12529999999999986,-0.03707958316946261
0.12429999999999986,-0.03717861296045316
0.12329999999999985,-0.03727764275144372
0.12229999999999985,-0.037320084090439666
0.12129999999999985,-0.037390819655432915
0.12029999999999985,-0.03744740810742752
0.11929999999999985,-0.037518143672420776
0.11829999999999985,-0.03756058501141672
0.11729999999999985,-0.03765961480240728
0.11629999999999985,-0.03778693881939513
0.11529999999999985,-0.037885968610385685
0.11429999999999985,-0.03798499840137624
0.11329999999999985,-0.03809817530536544
0.11229999999999984,-0.03819720509635599
0.11129999999999984,-0.03832452911334384
0.11029999999999984,-0.038423558904334396
0.10929999999999984,-0.038494294469327645
0.10829999999999984,-0.0385367358083236
0.10729999999999984,-0.03857917714731955
0.10629999999999984,-0.038621618486315505
0.10529999999999984,-0.038692354051308754
0.10429999999999984,-0.038777236729300654
0.10329999999999984,-0.03894700208528446
0.10229999999999984,-0.03913091455426691
0.10129999999999983,-0.03927238568425342
0.10029999999999983,-0.039328974136248016
0.09929999999999983,-0.03937141547524397
0.09829999999999983,-0.039442151040237225
0.09729999999999983,-0.03947044526623452
0.09629999999999983,-0.03951288660523048
0.09529999999999983,-0.03956947505722508
0.09429999999999983,-0.03964021062221833
0.09329999999999983,-0.03975338752620753
0.09229999999999983,-0.03992315288219133
0.09129999999999983,-0.04009291823817514
0.09029999999999982,-0.040220242255163
0.08929999999999982,-0.040276830707157596
0.08829999999999982,-0.04031927204615354
0.08729999999999982,-0.040361713385149496
0.08629999999999982,-0.04040415472414544
0.08529999999999982,-0.0404465960631414
0.08429999999999982,-0.04051733162813465
0.08329999999999982,-0.0406163614191252
0.08229999999999982,-0.04075783254911171
0.08129999999999982,-0.04091345079209686
0.08029999999999982,-0.04097003924409146
0.07929999999999982,-0.04104077480908471
0.07829999999999981,-0.04105492192208336
0.07729999999999981,-0.04111151037407796
0.07629999999999981,-0.04121054016506852
0.07529999999999992,-0.04130956995605907
0.07429999999999992,-0.04149348242504153
0.07329999999999992,-0.04170568912002128
0.07229999999999992,-0.04184716025000779
0.07129999999999992,-0.041988631379994285
0.07029999999999992,-0.04203107271899024
0.06929999999999992,-0.04205936694498754
0.06829999999999992,-0.04208766117098484
0.06729999999999992,-0.042130102509980796
0.06629999999999991,-0.042200838074974045
0.06529999999999991,-0.04228572075296595
0.06429999999999991,-0.04239889765695515
0.06329999999999991,-0.042568663012938955
0.06229999999999991,-0.04271013414292545
0.06129999999999991,-0.042837458159913314
0.06029999999999991,-0.04290819372490656
0.05929999999999991,-0.04297892928989981
0.05829999999999991,-0.04307795908089037
0.05729999999999991,-0.04313454753288497
0.056299999999999906,-0.043191135984879565
0.055299999999999905,-0.04326187154987282
0.054299999999999904,-0.04331846000186742
0.0532999999999999,-0.043403342679859326
0.0522999999999999,-0.04353066669684717
0.0512999999999999,-0.04365799071383503
0.0502999999999999,-0.043827756069818834
0.0492999999999999,-0.04399752142580264
0.0482999999999999,-0.044138992555789146
0.0472999999999999,-0.04425216945977835
0.0462999999999999,-0.044308757911772946
0.045299999999999896,-0.0443229050247716
0.044299999999999895,-0.04436534636376756
0.043299999999999894,-0.0444077877027635
0.04229999999999989,-0.04445022904175945
0.04129999999999989,-0.044577553058747305
0.04029999999999989,-0.044733171301732454
0.03929999999999989,-0.04488878954471761
0.03829999999999989,-0.04501611356170547
0.03729999999999989,-0.04512929046569467
0.03629999999999989,-0.045242467369683875
0.03529999999999989,-0.045313202934677124
0.034299999999999886,-0.04541223272566768
0.033299999999999885,-0.04548296829066093
0.032299999999999884,-0.04552540962965688
0.031299999999999883,-0.04558199808165148
0.030299999999999883,-0.045624439420647436
0.02929999999999988,-0.045695174985640685
0.02829999999999988,-0.046006411471611
0.02729999999999988,-0.04621861816659075
0.02629999999999988,-0.046303500844582644
0.025299999999999878,-0.046430824861570505
0.024299999999999877,-0.04655814887855836
0.023299999999999876,-0.04665717866954891
0.022299999999999875,-0.04667132578254756
0.021299999999999875,-0.046699620008544857
0.020299999999999874,-0.04672791423454216
0.019299999999999873,-0.04679864979953541
0.018299999999999872,-0.046869385364528664
0.01729999999999987,-0.046982562268517866
0.01629999999999987,-0.04715232762450167
0.01529999999999987,-0.047251357415492225
0.014299999999999868,-0.04739282854547873
0.013299999999999867,-0.047520152562466576
0.012299999999999978,-0.04770406503144904
0.011299999999999866,-0.04784553616143554
0.010299999999999976,-0.048001154404420696
0.009299999999999864,-0.0481143313084099
0.008299999999999974,-0.04821336109940045
0.007299999999999862,-0.04821336109940045
0.006299999999999972,-0.048185066873403154
0.00529999999999986,-0.048185066873403154
0.0042999999999999705,-0.04832653800338965
0.0032999999999998586,-0.04848215624637481
0.0022999999999999687,-0.04865192160235861
0.0012999999999998568,-0.048736804280350515
0.00029999999999996696,-0.048750951393349166
-0.000700000000000145,-0.04879339273234512
-0.0017000000000000348,-0.04883583407134107
-0.0027000000000001467,-0.04890656963633432
-0.0037000000000000366,-0.049005599427324874
-0.0047000000000001485,-0.04907633499231812
-0.005700000000000038,-0.04921780612230463
-0.00670000000000015,-0.049288541687297883
-0.00770000000000004,-0.04934513013929248
-0.008700000000000152,-0.049458307043281684
-0.009700000000000042,-0.049543189721273584
-0.010700000000000154,-0.04961392528626684
-0.011700000000000044,-0.049741249303254687
-0.012700000000000156,-0.049811984868247935
-0.013700000000000045,-0.049925161772237145
-0.014700000000000157,-0.0501090742412196
-0.015700000000000047,-0.05026469248420476
-0.01670000000000016,-0.050462752066185855
-0.01770000000000005,-0.05056178185717641
-0.01870000000000016,-0.05061837030917101
-0.01970000000000005,-0.05063251742216966
-0.020700000000000163,-0.05063251742216966
-0.021700000000000053,-0.050674958761165616
-0.022700000000000164,-0.05075984143915752
-0.023700000000000054,-0.05088716545614537
-0.024700000000000166,-0.05107107792512782
-0.025700000000000056,-0.05121254905511433
-0.026700000000000168,-0.05133987307210218
-0.027700000000000058,-0.05146719708909004
-0.02870000000000017,-0.05152378554108464
-0.02970000000000006,-0.051580373993079236
-0.03070000000000017,-0.051665256671071136
-0.03170000000000006,-0.051693550897068445
-0.03270000000000017,-0.051778433575060345
-0.03370000000000006,-0.05189161047904954
-0.034700000000000175,-0.051948198931044146
-0.035700000000000065,-0.0520189344960374
-0.03670000000000018,-0.05208967006103065
-0.03770000000000007,-0.05225943541701446
-0.03870000000000018,-0.05255652478998611
-0.03970000000000007,-0.05265555458097666
-0.04070000000000018,-0.05266970169397532
-0.04170000000000007,-0.05266970169397532
-0.04270000000000018,-0.05274043725896857
-0.04370000000000007,-0.05279702571096317
-0.044700000000000184,-0.05279702571096317
-0.045700000000000074,-0.052896055501953726
-0.046700000000000186,-0.05299508529294428
-0.047700000000000076,-0.05312240930993213
-0.04870000000000019,-0.05327802755291729
-0.04970000000000008,-0.053348763117910536
-0.05070000000000019,-0.05346194002189974
-0.05170000000000008,-0.053575116925888934
-0.05270000000000019,-0.053702440942876795
-0.05370000000000008,-0.053858059185861944
-0.05470000000000019,-0.05391464763785655
-0.05570000000000008,-0.053957088976852495
-0.056700000000000195,-0.05398538320284981
-0.057700000000000085,-0.05401367742884709
-0.058700000000000196,-0.05409856010683901
-0.059700000000000086,-0.054240031236825505
-0.0607000000000002,-0.054395649479810654
-0.06170000000000009,-0.054622003287789066
-0.0627000000000002,-0.05476347441777557
-0.06370000000000009,-0.05483420998276882
-0.0647000000000002,-0.05490494554776207
-0.06570000000000009,-0.054975681112755324
-0.0667000000000002,-0.05504641667774857
-0.0677000000000001,-0.055088858016744534
