Potential V vs RHE, Current mA cm-2
0.013299999999999867,1.655212220842093
0.012299999999999978,1.0881959318561862
0.011299999999999866,0.7393281253094681
0.010299999999999976,0.5647527509061226
0.009299999999999864,0.43403342679859325
0.008299999999999974,0.3467457395969205
0.007299999999999862,0.2594580523952477
0.006299999999999972,0.08502414912188871
0.00529999999999986,-0.1330535977523067
0.0042999999999999705,-0.30755823659065895
0.0032999999999998586,-0.3947044526623452
0.0022999999999999687,-0.4384190318281749
0.0012999999999998568,-0.4384190318281749
0.00029999999999996696,-0.5255652478998613
-0.000700000000000145,-0.7001406223032067
-0.0017000000000000348,-0.8745745255765657
-0.0027000000000001467,-1.0054353208140816
-0.0037000000000000366,-1.0490084288499246
-0.0047000000000001485,-1.0490084288499246
-0.005700000000000038,-1.0490084288499246
-0.00670000000000015,-1.1798692240874404
-0.00770000000000004,-1.3107300193249565
-0.008700000000000152,-1.5293029151541047
-0.009700000000000042,-1.6156003044458718
-0.010700000000000154,-1.6156003044458718
-0.011700000000000044,-1.6156003044458718
-0.012700000000000156,-1.6594563547416883
-0.013700000000000045,-1.7910245056291363
-0.014700000000000157,-1.9650339955125358
-0.015700000000000047,-2.095187435100119
-0.01670000000000016,-2.1390434853959355
-0.01770000000000005,-2.1828995356917518
-0.01870000000000016,-2.1828995356917518
-0.01970000000000005,-2.226755585987568
-0.020700000000000163,-2.4007650758709675
-0.021700000000000053,-2.576189277054232
-0.022700000000000164,-2.706342716641815
-0.023700000000000054,-2.7501987669376318
-0.024700000000000166,-2.706342716641815
-0.025700000000000056,-2.7501987669376318
-0.026700000000000168,-2.8803522065252145
-0.027700000000000058,-3.0119203574126634
-0.02870000000000017,-3.2297858975918787
-0.02970000000000006,-3.273641947887695
-0.03070000000000017,-3.317497998183511
-0.03170000000000006,-3.317497998183511
-0.03270000000000017,-3.361354048479327
-0.03370000000000006,-3.4915074880669104
-0.034700000000000175,-3.7093730282461257
-0.035700000000000065,-3.884797229429391
-0.03670000000000018,-3.927238568425342
-0.03770000000000007,-3.927238568425342
-0.03870000000000018,-3.927238568425342
-0.03970000000000007,-4.0588067193127895
-0.04070000000000018,-4.23281620919619
-0.04170000000000007,-4.406825699079589
-0.04270000000000018,-4.538393849967037
-0.04370000000000007,-4.626105950558669
-0.044700000000000184,-4.626105950558669
-0.045700000000000074,-4.668547289554621
-0.046700000000000186,-4.756259390146253
-0.047700000000000076,-4.9302688800296535
-0.04870000000000019,-5.149549131508733
-0.04970000000000008,-5.279702571096316
-0.05070000000000019,-5.279702571096316
-0.05170000000000008,-5.323558621392133
-0.05270000000000019,-5.367414671687949
-0.05370000000000008,-5.5414241615713475
-0.05470000000000019,-5.715433651454749
-0.05570000000000008,-5.890857852638012
-0.056700000000000195,-6.021011292225596
-0.057700000000000085,-6.021011292225596
-0.058700000000000196,-6.021011292225596
-0.059700000000000086,-6.152579443113044
-0.0607000000000002,-6.326588932996443
-0.06170000000000009,-6.54445447317566
-0.0627000000000002,-6.719878674358924
-0.06370000000000009,-6.806176063650692
-0.0647000000000002,-6.806176063650692
-0.06570000000000009,-6.850032113946507
-0.0667000000000002,-6.93774421453814
-0.0677000000000001,-7.155609754717355
-0.0687000000000002,-7.37347529489657
-0.0697000000000001,-7.5474847847799715
-0.07070000000000021,-7.591340835075788
-0.0717000000000001,-7.591340835075788
-0.07270000000000021,-7.679052935667419
-0.0737000000000001,-7.853062425550818
-0.07470000000000021,-8.11478401602585
-0.0757000000000001,-8.288793505909249
-0.07670000000000021,-8.376505606500881
-0.0777000000000001,-8.4203616567967
-0.07870000000000021,-8.464217707092514
-0.0797000000000001,-8.594371146680096
-0.08070000000000022,-8.769795347863363
-0.0817000000000001,-8.987660888042578
-0.08270000000000022,-9.11781432763016
-0.08370000000000011,-9.205526428221793
-0.08470000000000022,-9.24938247851761
-0.08570000000000011,-9.335679867809377
-0.08670000000000022,-9.467248018696827
-0.08770000000000011,-9.641257508580225
-0.08870000000000022,-9.902979099055257
-0.08970000000000011,-10.078403300238522
-0.09070000000000022,-10.164700689530287
-0.09170000000000011,-10.208556739826104
-0.09270000000000023,-10.25241279012192
-0.09370000000000012,-10.42642228000532
-0.09470000000000023,-10.688143870480351
-0.09570000000000012,-10.863568071663616
-0.09670000000000023,-11.037577561547016
-0.09770000000000012,-11.081433611842833
-0.09870000000000023,-11.081433611842833
-0.09970000000000012,-11.1677310011346
-0.10070000000000023,-11.385596541313816
-0.10170000000000012,-11.647318131788847
-0.10270000000000024,-11.86659838326793
-0.10370000000000013,-11.952895772559694
-0.10470000000000024,-11.952895772559694
-0.10570000000000013,-11.996751822855511
-0.10670000000000024,-12.12831997374296
-0.10770000000000013,-12.346185513922174
-0.10870000000000024,-12.607907104397206
-0.10970000000000013,-12.781916594280606
-0.11070000000000024,-12.869628694872238
-0.11170000000000013,-12.913484745168056
-0.11270000000000002,-12.955926084164007
-0.11370000000000013,-13.175206335643086
-0.11470000000000002,-13.436927926118118
-0.11570000000000014,-13.654793466297335
-0.11670000000000003,-13.784946905884919
-0.11770000000000014,-13.828802956180734
-0.11870000000000003,-13.828802956180734
-0.11970000000000014,-13.960371107068182
-0.12070000000000003,-14.217848563643619
-0.12170000000000014,-14.444202371622024
-0.12270000000000003,-14.61396772760583
-0.12370000000000014,-14.69885040559773
-0.12470000000000003,-14.741291744593681
-0.12570000000000014,-14.826174422585586
-0.12670000000000003,-14.967645552572087
-0.12770000000000015,-15.137410908555893
-0.12870000000000004,-15.3920589425316
-0.12970000000000015,-15.533530072518102
-0.13070000000000004,-15.618412750510005
-0.13170000000000015,-15.660854089505953
-0.13270000000000004,-15.74573676749786
-0.13370000000000015,-15.91550212348166
-0.13470000000000004,-16.22673860945197
-0.13570000000000015,-16.438945304431726
-0.13670000000000004,-16.622857773414182
-0.13770000000000016,-16.665299112410132
-0.13870000000000005,-16.665299112410132
-0.13970000000000016,-16.792623129397985
-0.14070000000000005,-17.018976937376394
-0.14170000000000016,-17.231183632356142
-0.14270000000000005,-17.40094898833995
-0.14370000000000016,-17.48583166633185
-0.14470000000000005,-17.48583166633185
-0.14570000000000016,-17.542420118326454
-0.14670000000000005,-17.669744135314307
-0.14770000000000016,-17.881950830294063
-0.14870000000000005,-18.10830463827247
-0.14970000000000017,-18.23562865526032
-0.15070000000000006,-18.27806999425627
-0.15170000000000017,-18.27806999425627
-0.15270000000000006,-18.320511333252224
-0.15370000000000017,-18.49027668923603
-0.15470000000000006,-18.759071836210385
-0.15570000000000017,-18.97127853119014
-0.15670000000000006,-19.112749661176647
-0.15770000000000017,-19.197632339168546
-0.15870000000000006,-19.155191000172596
-0.15970000000000018,-19.2400736781645
-0.16070000000000007,-19.49472171214021
-0.16170000000000018,-19.721075520118614
-0.16270000000000007,-19.93328221509837
-0.16370000000000018,-20.01816489309027
-0.16470000000000007,-20.06060623208622
-0.16570000000000018,-20.10304757108217
-0.16670000000000007,-20.244518701068674
-0.16770000000000018,-20.414284057052477
-0.16870000000000007,-20.683079204026836
-0.16970000000000018,-20.810403221014692
-0.17070000000000007,-20.89528589900659
-0.17170000000000019,-20.89528589900659
-0.17270000000000008,-20.93772723800254
-0.1737000000000002,-21.107492593986347
-0.17470000000000008,-21.333846401964752
-0.1757000000000002,-21.54605309694451
-0.17670000000000008,-21.729965565926964
-0.1777000000000002,-21.814848243918867
-0.17870000000000008,-21.772406904922917
-0.1797000000000002,-21.857289582914817
-0.18070000000000008,-22.027054938898623
-0.1817000000000002,-22.295850085872978
-0.18270000000000008,-22.46561544185678
-0.1837000000000002,-22.550498119848687
-0.1847000000000001,-22.508056780852733
-0.1857000000000002,-22.508056780852733
-0.1867000000000001,-22.592939458844636
-0.1877000000000002,-22.776851927827092
-0.1887000000000001,-22.989058622806844
-0.1897000000000002,-23.15882397879065
-0.1907000000000001,-23.15882397879065
-0.1917000000000001,-23.15882397879065
-0.19269999999999998,-23.15882397879065
-0.1937000000000001,-23.300295108777156
-0.19469999999999998,-23.51250180375691
-0.1957000000000001,-23.724708498736668
-0.19669999999999999,-23.823738289727217
-0.1977000000000001,-23.823738289727217
-0.1987,-23.724708498736668
-0.1997000000000001,-23.682267159740714
-0.2007,-23.823738289727217
-0.2017000000000001,-24.035944984706973
-0.2027,-24.24815167968673
-0.2037000000000001,-24.290593018682678
-0.2047,-24.24815167968673
-0.2057000000000001,-24.20571034069078
-0.2067,-24.290593018682678
-0.2077000000000001,-24.474505487665134
-0.2087,-24.771594860636792
-0.2097000000000001,-24.95550732961925
-0.2107,-24.997948668615198
-0.2117000000000001,-24.95550732961925
-0.2127,-24.9130659906233
-0.2137000000000001,-25.04039000761115
-0.2147,-25.295038041586857
-0.2157000000000001,-25.478950510569312
-0.2167,-25.521391849565262
-0.21770000000000012,-25.43650917157336
-0.2187,-25.337479380582806
-0.21970000000000012,-25.39406783257741
-0.2207,-25.521391849565262
-0.22170000000000012,-25.691157205549064
-0.2227,-25.77603988354097
-0.22370000000000012,-25.73359854454502
-0.2247,-25.691157205549064
-0.22570000000000012,-25.648715866553115
-0.2267,-25.648715866553115
-0.22770000000000012,-25.73359854454502
-0.22870000000000001,-25.86092256153287
-0.22970000000000013,-25.91751101352747
-0.23070000000000002,-25.86092256153287
-0.23170000000000013,-25.77603988354097
-0.23270000000000002,-25.691157205549064
-0.23370000000000013,-25.691157205549064
-0.23470000000000002,-25.81848122253692
-0.23570000000000013,-25.959952352523427
-0.23670000000000002,-26.002393691519377
-0.2376999999999999,-25.91751101352747
-0.23870000000000002,-25.81848122253692
-0.2396999999999999,-25.77603988354097
-0.24070000000000003,-25.86092256153287
-0.24169999999999991,-26.044835030515326
-0.24270000000000003,-26.087276369511276
-0.24369999999999992,-26.044835030515326
-0.24470000000000003,-25.91751101352747
-0.24569999999999992,-25.86092256153287
-0.24670000000000003,-25.86092256153287
-0.24769999999999992,-25.959952352523427
-0.24870000000000003,-26.044835030515326
-0.24969999999999992,-26.044835030515326
-0.25070000000000003,-26.002393691519377
-0.2516999999999999,-25.91751101352747
-0.25270000000000004,-25.81848122253692
-0.2536999999999999,-25.81848122253692
-0.25470000000000004,-25.91751101352747
-0.2556999999999999,-26.002393691519377
-0.25670000000000004,-26.002393691519377
-0.25769999999999993,-25.959952352523427
-0.25870000000000004,-25.73359854454502
-0.25969999999999993,-25.648715866553115
-0.26070000000000004,-25.691157205549064
-0.26169999999999993,-25.77603988354097
-0.26270000000000004,-25.86092256153287
-0.26369999999999993,-25.86092256153287
-0.26470000000000005,-25.691157205549064
-0.26569999999999994,-25.563833188561212
-0.26670000000000005,-25.478950510569312
-0.26769999999999994,-25.563833188561212
-0.26870000000000005,-25.648715866553115
-0.26969999999999994,-25.648715866553115
-0.27070000000000005,-25.521391849565262
-0.27169999999999994,-25.337479380582806
-0.27270000000000005,-25.210155363594954
-0.27369999999999994,-25.167714024599
-0.27470000000000006,-25.252596702590903
-0.27569999999999995,-25.295038041586857
-0.27670000000000006,-25.252596702590903
-0.27769999999999995,-25.12527268560305
-0.27870000000000006,-24.95550732961925
-0.27969999999999995,-24.814036199632742
-0.28070000000000006,-24.870624651627345
-0.28169999999999995,-24.9130659906233
-0.28270000000000006,-24.95550732961925
-0.28369999999999995,-24.814036199632742
-0.28470000000000006,-24.64427084364894
-0.28569999999999995,-24.474505487665134
-0.28670000000000007,-24.34718147067728
-0.28769999999999996,-24.389622809673234
-0.28870000000000007,-24.474505487665134
-0.28969999999999996,-24.432064148669184
-0.29070000000000007,-24.24815167968673
-0.29169999999999996,-24.035944984706973
-0.29270000000000007,-23.86617962872317
-0.29369999999999996,-23.86617962872317
-0.2947000000000001,-23.993503645711023
-0.29569999999999996,-23.993503645711023
-0.2967000000000001,-23.86617962872317
-0.29769999999999996,-23.682267159740714
-0.2987000000000001,-23.47006046476096
-0.29969999999999997,-23.427619125765005
-0.3007000000000001,-23.427619125765005
-0.30169999999999997,-23.47006046476096
-0.3027000000000001,-23.51250180375691
-0.30369999999999997,-23.385177786769056
-0.3047000000000001,-23.2012653177866
-0.30569999999999997,-23.031499961802798
-0.3067000000000001,-23.031499961802798
-0.3077,-23.15882397879065
-0.3087000000000001,-23.300295108777156
-0.3097,-23.342736447773106
-0.3107000000000001,-23.300295108777156
-0.3117,-23.073941300798747
-0.3127000000000001,-22.946617283810895
-0.3137,-22.946617283810895
-0.3147000000000001,-23.073941300798747
-0.3157,-23.1163826397947
-0.3167000000000001,-23.073941300798747
-0.3177,-22.946617283810895
-0.3187000000000001,-22.72026347583249
-0.3197,-22.63538079784059
-0.3207000000000001,-22.72026347583249
-0.3217,-22.861734605818995
-0.3227000000000001,-22.904175944814945
-0.3237,-22.819293266823045
-0.3247000000000001,-22.67782213683654
-0.3257,-22.550498119848687
-0.3267000000000001,-22.508056780852733
-0.3277,-22.550498119848687
-0.3287000000000001,-22.72026347583249
-0.3297,-22.776851927827092
-0.3307000000000001,-22.63538079784059
-0.3317,-22.46561544185678
-0.3327000000000001,-22.295850085872978
-0.3337,-22.33829142486893
-0.3347000000000001,-22.46561544185678
-0.3357,-22.508056780852733
-0.3367000000000001,-22.508056780852733
-0.3377,-22.38073276386488
-0.3387000000000001,-22.196820294882425
-0.3397,-22.15437895588647
-0.3407000000000001,-22.253408746877028
-0.3417,-22.295850085872978
-0.3427000000000001,-22.38073276386488
-0.3437,-22.33829142486893
-0.3447000000000001,-22.196820294882425
-0.3457,-22.069496277894572
-0.3467000000000001,-22.027054938898623
-0.3477,-22.111937616890522
-0.3487000000000001,-22.295850085872978
-0.3497,-22.38073276386488
-0.3507000000000001,-22.33829142486893
-0.3517,-22.196820294882425
-0.3527000000000001,-22.15437895588647
-0.3537,-22.295850085872978
-0.3547000000000001,-22.46561544185678
-0.3557,-22.550498119848687
-0.35670000000000013,-22.550498119848687
-0.3577,-22.508056780852733
-0.35870000000000013,-22.42317410286083
-0.3597,-22.42317410286083
-0.36070000000000013,-22.550498119848687
-0.3617,-22.67782213683654
-0.3626999999999999,-22.72026347583249
-0.3637,-22.776851927827092
-0.3646999999999999,-22.67782213683654
-0.3657,-22.63538079784059
-0.3666999999999999,-22.63538079784059
-0.3677,-22.72026347583249
-0.3686999999999999,-22.904175944814945
-0.36970000000000003,-22.989058622806844
-0.3706999999999999,-22.989058622806844
-0.37170000000000003,-22.904175944814945
-0.3726999999999999,-22.861734605818995
-0.37370000000000003,-22.989058622806844
-0.3746999999999999,-23.2012653177866
-0.37570000000000003,-23.427619125765005
-0.3766999999999999,-23.51250180375691
-0.37770000000000004,-23.47006046476096
-0.3786999999999999,-23.300295108777156
-0.37970000000000004,-23.300295108777156
-0.3806999999999999,-23.47006046476096
-0.38170000000000004,-23.639825820744765
-0.38269999999999993,-23.767149837732617
-0.38370000000000004,-23.724708498736668
-0.38469999999999993,-23.597384481748815
-0.38570000000000004,-23.55494314275286
-0.38669999999999993,-23.597384481748815
-0.38770000000000004,-23.767149837732617
-0.38869999999999993,-23.951062306715073
-0.38970000000000005,-24.035944984706973
-0.39069999999999994,-24.035944984706973
-0.39170000000000005,-23.951062306715073
-0.39269999999999994,-23.908620967719123
-0.39370000000000005,-23.951062306715073
-0.39469999999999994,-24.120827662698876
-0.39570000000000005,-24.290593018682678
-0.39669999999999994,-24.290593018682678
-0.39770000000000005,-24.290593018682678
-0.39869999999999994,-24.20571034069078
-0.39970000000000006,-24.290593018682678
-0.40069999999999995,-24.474505487665134
-0.40170000000000006,-24.686712182644893
-0.40269999999999995,-24.771594860636792
-0.40370000000000006,-24.771594860636792
-0.40469999999999995,-24.686712182644893
-0.40570000000000006,-24.64427084364894
-0.40669999999999995,-24.729153521640843
-0.40770000000000006,-24.9130659906233
-0.40869999999999995,-25.04039000761115
-0.40970000000000006,-25.12527268560305
-0.41069999999999995,-25.04039000761115
-0.41170000000000007,-24.95550732961925
-0.41269999999999996,-24.95550732961925
-0.41370000000000007,-25.04039000761115
-0.41469999999999996,-25.210155363594954
-0.41570000000000007,-25.337479380582806
-0.41669999999999996,-25.39406783257741
-0.41770000000000007,-25.295038041586857
-0.41869999999999996,-25.167714024599
-0.4197000000000001,-25.167714024599
-0.42069999999999996,-25.295038041586857
-0.4217000000000001,-25.478950510569312
-0.42269999999999996,-25.563833188561212
-0.4237000000000001,-25.563833188561212
-0.42469999999999997,-25.521391849565262
-0.4257000000000001,-25.478950510569312
-0.42669999999999997,-25.563833188561212
-0.4277000000000001,-25.691157205549064
-0.42869999999999997,-25.81848122253692
-0.4297000000000001,-25.91751101352747
-0.43069999999999997,-25.86092256153287
-0.4317000000000001,-25.81848122253692
-0.4327,-25.81848122253692
-0.4337000000000001,-25.91751101352747
-0.4347,-26.044835030515326
-0.4357000000000001,-26.21460038649913
-0.4367,-26.29948306449103
-0.4377000000000001,-26.21460038649913
-0.4387,-26.129717708507226
-0.4397000000000001,-26.17215904750318
-0.4407,-26.29948306449103
-0.4417000000000001,-26.525836872469437
-0.4427,-26.61071955046134
-0.4437000000000001,-26.65316088945729
-0.4447,-26.525836872469437
-0.4457000000000001,-26.440954194477534
-0.4467,-26.483395533473487
-0.4477000000000001,-26.568278211465387
-0.4487,-26.738043567449193
-0.4497000000000001,-26.780484906445146
-0.4507,-26.69560222845324
-0.4517000000000001,-26.568278211465387
-0.4527,-26.483395533473487
-0.4537000000000001,-26.568278211465387
-0.4547,-26.69560222845324
-0.4557000000000001,-26.780484906445146
-0.4567,-26.822926245441096
-0.4577000000000001,-26.780484906445146
-0.4587,-26.738043567449193
-0.4597000000000001,-26.738043567449193
-0.4607,-26.822926245441096
-0.4617000000000001,-27.00683871442355
-0.4627,-27.134162731411404
-0.4637000000000001,-27.176604070407354
-0.4647,-27.091721392415455
-0.4657000000000001,-27.00683871442355
-0.4667,-27.091721392415455
-0.4677000000000001,-27.261486748399253
-0.4687,-27.43125210438306
-0.4697000000000001,-27.487840556377662
-0.4707,-27.38881076538711
-0.4717000000000001,-27.303928087395207
-0.4727,-27.303928087395207
-0.4737000000000001,-27.43125210438306
-0.4747,-27.65760591236147
-0.4757000000000001,-27.827371268345274
-0.4767,-27.912253946337174
-0.4777000000000001,-27.912253946337174
-0.4787,-27.869812607341224
-0.4797000000000001,-27.954695285333123
-0.4807,-28.13860775431558
-0.48170000000000013,-28.308373110299385
-0.4827,-28.435697127287238
-0.48370000000000013,-28.53472691827779
-0.4847,-28.577168257273744
-0.48570000000000013,-28.662050935265643
-0.4867,-28.18104909331153
-0.48570000000000013,-27.134162731411404
-0.4847,-26.38436574248293
-0.48370000000000013,-25.691157205549064
-0.4827,-24.997948668615198
-0.48170000000000013,-24.34718147067728
-0.4807,-23.767149837732617
-0.4797000000000001,-23.342736447773106
-0.4787,-22.989058622806844
-0.4777000000000001,-22.67782213683654
-0.4767,-22.253408746877028
-0.4757000000000001,-21.814848243918867
-0.4747,-21.376287740960702
-0.4737000000000001,-21.022609915994444
-0.4727,-20.89528589900659
-0.4717000000000001,-20.810403221014692
-0.4707,-20.626490752032236
-0.4697000000000001,-20.414284057052477
-0.4687,-20.10304757108217
-0.4677000000000001,-19.93328221509837
-0.4667,-19.848399537106463
