Potential V vs RHE, Current mA cm-2
0.013299999999999867,6.322344799096849
0.012299999999999978,5.3631705377883545
0.011299999999999866,4.402581565179994
0.010299999999999976,3.4872633541673155
0.009299999999999864,2.70209858274222
0.008299999999999974,2.004645911908757
0.007299999999999862,1.3934906303670611
0.006299999999999972,0.6520404381077953
0.00529999999999986,-0.04582249900262853
0.0042999999999999705,-0.6564260431373771
0.0032999999999998586,-1.1798692240874404
0.0022999999999999687,-1.6156003044458718
0.0012999999999998568,-2.226755585987568
0.00029999999999996696,-2.794054817233447
-0.000700000000000145,-3.273641947887695
-0.0017000000000000348,-3.7093730282461257
-0.0027000000000001467,-4.102662769608606
-0.0037000000000000366,-4.582249900262854
-0.0047000000000001485,-5.105693081212917
-0.005700000000000038,-5.497568111275533
-0.00670000000000015,-5.847001802342197
-0.00770000000000004,-6.196435493408861
-0.008700000000000152,-6.632166573767292
-0.009700000000000042,-7.067897654125724
-0.010700000000000154,-7.461187395488204
-0.011700000000000044,-7.7653503249591855
-0.012700000000000156,-8.070927965730034
-0.013700000000000045,-8.464217707092514
-0.014700000000000157,-8.899948787450944
-0.015700000000000047,-9.205526428221793
-0.01670000000000016,-9.511104068992642
-0.01770000000000005,-9.772825659467674
-0.01870000000000016,-10.164700689530287
-0.01970000000000005,-10.557990430892769
-0.020700000000000163,-10.863568071663616
-0.021700000000000053,-11.123874950838783
-0.022700000000000164,-11.385596541313816
-0.023700000000000054,-11.73503023238048
-0.024700000000000166,-12.12831997374296
-0.025700000000000056,-12.432482903213943
-0.026700000000000168,-12.694204493688973
-0.027700000000000058,-12.955926084164007
-0.02870000000000017,-13.261503724934855
-0.02970000000000006,-13.654793466297335
-0.03070000000000017,-13.916515056772363
-0.03170000000000006,-14.13438059695158
-0.03270000000000017,-14.401761032626075
-0.03370000000000006,-14.69885040559773
-0.034700000000000175,-15.05252823056399
-0.035700000000000065,-15.349617603535648
-0.03670000000000018,-15.575971411514052
-0.03770000000000007,-15.78817810649381
-0.03870000000000018,-16.141855931460068
-0.03970000000000007,-16.495533756426326
-0.04070000000000018,-16.835064468393938
-0.04170000000000007,-17.061418276372343
-0.04270000000000018,-17.231183632356142
-0.04370000000000007,-17.584861457322408
-0.044700000000000184,-17.924392169290012
-0.045700000000000074,-18.19318731626437
-0.046700000000000186,-18.44783535024008
-0.047700000000000076,-18.674189158218486
-0.04870000000000019,-18.97127853119014
-0.04970000000000008,-19.367397695152352
-0.05070000000000019,-19.678634181122664
-0.05170000000000008,-19.890840876102416
-0.05270000000000019,-20.10304757108217
-0.05370000000000008,-20.456725396048434
-0.05470000000000019,-20.810403221014692
-0.05570000000000008,-21.107492593986347
-0.056700000000000195,-21.333846401964752
-0.057700000000000085,-21.58849443594046
-0.058700000000000196,-21.857289582914817
-0.059700000000000086,-22.196820294882425
-0.0607000000000002,-22.508056780852733
-0.06170000000000009,-22.776851927827092
-0.0627000000000002,-23.073941300798747
-0.06370000000000009,-23.47006046476096
-0.0647000000000002,-23.908620967719123
-0.06570000000000009,-24.20571034069078
-0.0667000000000002,-24.432064148669184
-0.0677000000000001,-24.601829504652986
-0.0687000000000002,-24.870624651627345
-0.0697000000000001,-25.167714024599
-0.07070000000000021,-25.478950510569312
-0.0717000000000001,-25.73359854454502
-0.07270000000000021,-26.087276369511276
-0.0737000000000001,-26.483395533473487
-0.07470000000000021,-26.822926245441096
-0.0757000000000001,-27.134162731411404
-0.07670000000000021,-27.34636942639116
-0.0777000000000001,-27.572723234369565
-0.07870000000000021,-27.912253946337174
-0.0797000000000001,-28.308373110299385
-0.08070000000000022,-28.662050935265643
-0.0817000000000001,-28.91669896924135
-0.08270000000000022,-29.18549411621571
-0.08370000000000011,-29.525024828183312
-0.08470000000000022,-29.921143992145527
-0.08570000000000011,-30.232380478115836
-0.08670000000000022,-30.444587173095588
-0.08770000000000011,-30.71338232006995
-0.08870000000000022,-31.095354371033505
-0.08970000000000011,-31.49147353499572
-0.09070000000000022,-31.84515135996197
-0.09170000000000011,-32.09979939393769
-0.09270000000000023,-32.32615320191609
-0.09370000000000012,-32.66568391388369
-0.09470000000000023,-33.01936173884996
-0.09570000000000012,-33.373039563816214
-0.09670000000000023,-33.627687597791926
-0.09770000000000012,-33.89648274476628
-0.09870000000000023,-34.278454795729836
-0.09970000000000012,-34.67457395969205
-0.10070000000000023,-34.98581044566235
-0.10170000000000012,-35.198017140642115
-0.10270000000000024,-35.46681228761647
-0.10370000000000013,-35.806342999584075
-0.10470000000000024,-36.20246216354629
-0.10570000000000013,-36.55613998851254
-0.10670000000000024,-36.81078802248826
-0.10770000000000013,-37.122024508458566
-0.10870000000000024,-37.41911388143023
-0.10970000000000013,-37.81523304539243
-0.11070000000000024,-38.211352209354644
-0.11170000000000013,-38.522588695324956
-0.11270000000000002,-38.777236729300654
-0.11370000000000013,-39.173355893262865
-0.11470000000000002,-39.61191639622103
-0.11570000000000014,-39.90900576919269
-0.11670000000000003,-40.26268359415894
-0.11770000000000014,-40.51733162813464
-0.11870000000000003,-40.828568114104954
-0.11970000000000014,-41.182245939071215
-0.12070000000000003,-41.56421799003478
-0.12170000000000014,-41.91789581500104
-0.12270000000000003,-42.229132300971344
-0.12370000000000014,-42.6111043519349
-0.12470000000000003,-43.007223515897124
-0.12570000000000014,-43.31846000186743
-0.12670000000000003,-43.53066669684718
-0.12770000000000015,-43.84190318281749
-0.12870000000000004,-44.223875233781044
-0.12970000000000015,-44.66243573673921
-0.13070000000000004,-45.05855490070142
-0.13170000000000015,-45.36979138667173
-0.13270000000000004,-45.624439420647434
-0.13370000000000015,-45.93567590661774
-0.13470000000000004,-46.2327652795894
-0.13570000000000015,-46.501560426563756
-0.13670000000000004,-46.75620846053947
-0.13770000000000016,-47.10988628550572
-0.13870000000000005,-47.590888127459834
-0.13970000000000016,-48.029448630417996
-0.14070000000000005,-48.36897934238561
-0.14170000000000016,-48.63777448935996
-0.14270000000000005,-48.89242252333566
-0.14370000000000016,-49.24610034830193
-0.14470000000000005,-49.642219512264134
-0.14570000000000016,-49.98175022423175
-0.14670000000000005,-50.2505453712061
-0.14770000000000016,-50.50519340518181
-0.14870000000000005,-50.90131256914402
-0.14970000000000017,-51.29743173310623
-0.15070000000000006,-51.69355089706845
-0.15170000000000017,-51.948198931044146
-0.15270000000000006,-52.2169940780185
-0.15370000000000017,-52.64140746797801
-0.15470000000000006,-52.995085292944275
-0.15570000000000017,-53.348763117910536
-0.15670000000000006,-53.518528473894335
-0.15770000000000017,-53.7873236208687
-0.15870000000000006,-54.26832546282281
-0.15970000000000018,-54.791768643772876
-0.16070000000000007,-55.17374069473642
-0.16170000000000018,-55.400094502714836
-0.16270000000000007,-55.612301197694585
-0.16370000000000018,-55.9235376836649
-0.16470000000000007,-56.30550973462846
-0.16570000000000018,-56.70162889859067
-0.16670000000000007,-57.012865384560975
-0.16770000000000018,-57.352396096528594
-0.16870000000000007,-57.7485152604908
-0.16970000000000018,-58.14463442445301
-0.17070000000000007,-58.54075358841522
-0.17170000000000019,-58.79540162239092
-0.17270000000000008,-59.10663810836124
-0.1737000000000002,-59.502757272323436
-0.17470000000000008,-59.884729323287
-0.1757000000000002,-60.32328982624517
-0.17670000000000008,-60.71940899020737
-0.1777000000000002,-61.15796949316553
-0.17870000000000008,-61.49750020513315
-0.1797000000000002,-61.7662953521075
-0.18070000000000008,-62.02094338608321
-0.1817000000000002,-62.28973853305756
-0.18270000000000008,-62.58682790602922
-0.1837000000000002,-62.98294706999144
-0.1847000000000001,-63.421507572949594
-0.1857000000000002,-63.81762673691181
-0.1867000000000001,-64.0722747708875
-0.1877000000000002,-64.38351125685783
-0.1887000000000001,-64.68060062982947
-0.1897000000000002,-65.0767197937917
-0.1907000000000001,-65.4728389577539
-0.1917000000000001,-65.82651678272015
-0.19269999999999998,-66.20848883368372
-0.1937000000000001,-66.73193201463377
-0.19469999999999998,-67.21293385658788
-0.1957000000000001,-67.6090530205501
-0.19669999999999999,-67.82125971552985
-0.1977000000000001,-68.0900548625042
-0.1987,-68.57105670445833
-0.1997000000000001,-69.0944998854084
-0.2007,-69.4906190493706
-0.2017000000000001,-69.74526708334632
-0.2027,-70.01406223032066
-0.2037000000000001,-70.48091695927613
-0.2047,-70.96191880123024
-0.2057000000000001,-71.44292064318435
-0.2067,-71.83903980714656
-0.2077000000000001,-72.15027629311687
-0.2087,-72.48980700508447
-0.2097000000000001,-72.8859261690467
-0.2107,-73.2820453330089
-0.2117000000000001,-73.62157604497652
-0.2127,-73.93281253094682
-0.2137000000000001,-74.32893169490903
-0.2147,-74.66846240687663
-0.2157000000000001,-75.06458157083884
-0.2167,-75.37581805680915
-0.21770000000000012,-75.63046609078486
-0.2187,-75.85681989876326
-0.21970000000000012,-76.19635061073087
-0.2207,-76.55002843569714
-0.22170000000000012,-76.86126492166746
-0.2227,-77.20079563363505
-0.22370000000000012,-77.68179747558916
-0.2247,-78.29012333453113
-0.22570000000000012,-78.72868383748929
-0.2267,-79.0399203234596
-0.22770000000000012,-79.37945103542721
-0.22870000000000001,-79.90289421637728
-0.22970000000000013,-80.34145471933543
-0.23070000000000002,-80.69513254430169
-0.23170000000000013,-81.09125170826391
-0.23270000000000002,-81.57225355021802
-0.23370000000000013,-81.99666694017753
-0.23470000000000002,-82.47766878213164
-0.23570000000000013,-82.78890526810196
-0.23670000000000002,-83.04355330207765
-0.2376999999999999,-83.39723112704392
-0.23870000000000002,-84.00555698598588
-0.2396999999999999,-84.57144150593189
-0.24070000000000003,-85.01000200889004
-0.24169999999999991,-85.44856251184822
-0.24270000000000003,-85.88712301480638
-0.24369999999999992,-86.32568351776455
-0.24470000000000003,-86.75009690772404
-0.24569999999999992,-87.14621607168625
-0.24670000000000003,-87.45745255765657
-0.24769999999999992,-87.66965925263632
-0.24870000000000003,-87.75454193062824
-0.24969999999999992,-88.06577841659853
-0.25070000000000003,-88.4194562415648
-0.2516999999999999,-88.7589869535324
-0.25270000000000004,-89.07022343950271
-0.2536999999999999,-89.94734444541903
-0.25470000000000004,-90.6405529823529
-0.2556999999999999,-91.07911348531105
-0.25670000000000004,-91.24887884129487
-0.25769999999999993,-91.46108553627462
-0.25870000000000004,-92.16844118620713
-0.25969999999999993,-93.30021022609918
-0.26070000000000004,-94.30465524900335
-0.26169999999999993,-94.55930328297906
-0.26270000000000004,-94.38953792699526
-0.26369999999999993,-94.17733123201549
-0.26470000000000005,-94.26221391000739
-0.26569999999999994,-94.91298110794531
-0.26670000000000005,-95.91742613084948
-0.26769999999999994,-96.65307600677932
-0.26870000000000005,-97.17651918772938
-0.26969999999999994,-97.57263835169158
-0.27070000000000005,-97.6575210296835
-0.27169999999999994,-97.92631617665783
-0.27270000000000005,-98.3082882276214
-0.27369999999999994,-98.83173140857146
-0.27470000000000006,-99.35517458952152
-0.27569999999999995,-99.75129375348374
-0.27670000000000006,-100.02008890045809
-0.27769999999999995,-100.35961961242569
-0.27870000000000006,-100.670856098396
-0.27969999999999995,-100.98209258436633
-0.28070000000000006,-101.27918195733798
-0.28169999999999995,-101.71774246029614
-0.28270000000000006,-102.1563029632543
-0.28369999999999995,-102.63730480520842
-0.28470000000000006,-103.20318932515443
-0.28569999999999995,-103.7266325061045
-0.28670000000000007,-104.02372187907615
-0.28769999999999996,-104.2925170260505
-0.28870000000000007,-104.68863619001272
-0.28969999999999996,-105.16963803196683
-0.29070000000000007,-105.63649276092228
-0.29169999999999996,-106.07505326388046
-0.29270000000000007,-106.4287310888467
-0.29369999999999996,-106.86729159180487
-0.2947000000000001,-107.39073477275493
-0.29569999999999996,-107.78685393671715
-0.2967000000000001,-108.04150197069285
-0.29769999999999996,-108.1688259876807
-0.2987000000000001,-108.39517979565912
-0.29969999999999997,-108.91862297660917
-0.3007000000000001,-109.52694883555114
-0.30169999999999997,-109.9655093385093
-0.3027000000000001,-110.26259871148096
-0.30369999999999997,-110.70115921443913
-0.3047000000000001,-111.26704373438514
-0.30569999999999997,-111.83292825433115
-0.3067000000000001,-112.31393009628526
-0.3077,-112.83737327723534
-0.3087000000000001,-113.31837511918944
-0.3097,-113.75693562214758
-0.3107000000000001,-114.23793746410173
-0.3117,-114.53502683707337
-0.3127000000000001,-114.80382198404773
-0.3137,-115.15749980901398
-0.3147000000000001,-115.62435453796945
-0.3157,-116.24682750991008
-0.3167000000000001,-116.72782935186417
-0.3177,-117.10980140282774
-0.3187000000000001,-117.59080324478184
-0.3197,-117.94448106974811
-0.3207000000000001,-118.29815889471436
-0.3217,-118.38304157270628
-0.3227000000000001,-118.51036558969413
-0.3237,-118.72257228467387
-0.3247000000000001,-119.03380877064419
-0.3257,-119.51481061259831
-0.3267000000000001,-119.99581245455242
-0.3277,-120.47681429650652
-0.3287000000000001,-120.9153747994647
-0.3297,-121.2549055114323
-0.3307000000000001,-121.52370065840667
-0.3317,-121.69346601439047
-0.3327000000000001,-121.86323137037427
-0.3337,-122.17446785634456
-0.3347000000000001,-122.78279371528653
-0.3357,-123.3062368962366
-0.3367000000000001,-123.74479739919475
-0.3377,-124.05603388516508
-0.3387000000000001,-124.31068191914078
-0.3397,-124.48044727512458
-0.3407000000000001,-124.48044727512458
-0.3417,-124.39556459713268
-0.3427000000000001,-124.57947706611512
-0.3437,-125.23024426405304
-0.3447000000000001,-126.09321815697072
-0.3457,-126.75813246790726
-0.3467000000000001,-127.09766317987489
-0.3477,-127.09766317987489
-0.3487000000000001,-127.012780501883
-0.3497,-127.14010451887084
-0.3507000000000001,-127.53622368283307
-0.3517,-128.01722552478716
-0.3527000000000001,-128.4982273667413
-0.3537,-128.85190519170752
-0.3547000000000001,-129.10655322568326
-0.3557,-129.2338772426711
-0.35670000000000013,-129.33290703366166
-0.3577,-129.3753483726576
-0.35870000000000013,-129.5451137286414
-0.3597,-129.9412328926036
-0.36070000000000013,-130.32320494356716
-0.3617,-130.67688276853346
-0.3626999999999999,-130.67688276853346
-0.3637,-130.46467607355368
-0.3646999999999999,-130.46467607355368
-0.3657,-130.8042067855213
-0.3666999999999999,-131.28520862747538
-0.3677,-131.72376913043357
-0.3686999999999999,-132.11988829439576
-0.36970000000000003,-132.47356611936203
-0.3706999999999999,-132.516007458358
-0.37170000000000003,-132.37453632837148
-0.3726999999999999,-132.41697766736743
-0.37370000000000003,-132.6857728143418
-0.3746999999999999,-132.89797950932152
-0.37570000000000003,-132.99700930031207
-0.3766999999999999,-132.89797950932152
-0.37770000000000004,-132.89797950932152
-0.3786999999999999,-133.2516573342878
-0.37970000000000004,-133.73265917624192
-0.3806999999999999,-134.17121967920008
-0.38170000000000004,-134.38342637417986
-0.38269999999999993,-134.38342637417986
-0.38370000000000004,-134.38342637417986
-0.38469999999999993,-134.34098503518388
-0.38570000000000004,-134.46830905217172
-0.38669999999999993,-134.69466286015015
-0.38770000000000004,-135.03419357211774
-0.38869999999999993,-135.387871397084
-0.38970000000000005,-135.47275407507593
-0.39069999999999994,-135.6142252050624
-0.39170000000000005,-135.34543005808808
-0.39269999999999994,-134.9917522331218
-0.39370000000000005,-134.73710419914607
-0.39469999999999994,-134.73710419914607
-0.39570000000000005,-134.82198687713802
-0.39669999999999994,-134.69466286015015
-0.39770000000000005,-134.5107503911677
-0.39869999999999994,-134.38342637417986
-0.39970000000000006,-134.256102357192
-0.40069999999999995,-133.9873072102176
-0.40170000000000006,-133.8599831932298
-0.40269999999999995,-133.8599831932298
-0.40370000000000006,-133.8599831932298
-0.40469999999999995,-133.94486587122168
-0.40570000000000006,-134.08633700120816
-0.40669999999999995,-133.94486587122168
-0.40770000000000006,-133.60533515925405
-0.40869999999999995,-133.46386402926754
-0.40970000000000006,-133.46386402926754
-0.41069999999999995,-133.29409867328377
-0.41170000000000007,-133.2516573342878
-0.41269999999999996,-133.08189197830401
-0.41370000000000007,-132.99700930031207
-0.41469999999999996,-132.81309683132966
-0.41570000000000007,-132.516007458358
-0.41669999999999996,-132.07744695539984
-0.41770000000000007,-131.5964451134457
-0.41869999999999996,-131.24276728847948
-0.4197000000000001,-131.03056059349967
-0.42069999999999996,-130.9456779155078
-0.4217000000000001,-130.8042067855213
-0.42269999999999996,-130.46467607355368
-0.4237000000000001,-130.06855690959148
-0.42469999999999997,-129.8563502146117
-0.4257000000000001,-129.67243774562928
-0.42669999999999997,-129.41778971165354
-0.4277000000000001,-129.1489945646792
-0.42869999999999997,-129.10655322568326
-0.4297000000000001,-129.10655322568326
-0.43069999999999997,-128.85190519170752
-0.4317000000000001,-128.5831100447332
-0.4327,-128.144549541775
-0.4337000000000001,-127.88990150779931
-0.4347,-127.76257749081147
-0.4357000000000001,-127.57866502182902
-0.4367,-127.36645832684925
-0.4377000000000001,-127.09766317987489
-0.4387,-127.05522184087894
-0.4397000000000001,-126.9278978238911
-0.4407,-126.5317786599289
-0.4417000000000001,-126.27713062595316
-0.4427,-126.27713062595316
-0.4437000000000001,-126.36201330394509
-0.4447,-126.23468928695722
-0.4457000000000001,-125.96589413998288
-0.4467,-125.88101146199097
-0.4477000000000001,-125.71124610600715
-0.4487,-124.7916837610949
-0.4497000000000001,-124.09847522416102
-0.4507,-122.48570434231489
-0.4517000000000001,-122.25935053433648
-0.4527,-123.78723873819072
-0.4537000000000001,-125.04633179507057
-0.4547,-125.40000962003687
-0.4557000000000001,-124.05603388516508
-0.4567,-122.25935053433648
-0.4577000000000001,-120.73146233048222
-0.4587,-120.33534316652002
-0.4597000000000001,-120.64657965249035
-0.4607,-122.08958517835266
-0.4617000000000001,-123.74479739919475
-0.4627,-124.52288861412055
-0.4637000000000001,-124.52288861412055
-0.4647,-123.57503204321095
-0.4657000000000001,-122.57058702030677
-0.4667,-121.65102467539451
-0.4677000000000001,-121.00025747745659
-0.4687,-121.33978818942418
-0.4697000000000001,-122.65546969829869
-0.4707,-123.91456275517855
-0.4717000000000001,-123.70235606019881
-0.4727,-122.61302835930273
-0.4737000000000001,-122.08958517835266
-0.4747,-122.42911589032028
-0.4757000000000001,-123.3062368962366
-0.4767,-124.09847522416102
-0.4777000000000001,-124.14091656315696
-0.4787,-123.70235606019881
-0.4797000000000001,-123.39111957422851
-0.4807,-123.4760022522204
-0.48170000000000013,-123.99944543317046
-0.4827,-124.62191840511109
-0.48370000000000013,-125.14536158606113
-0.4847,-125.35756828104091
-0.48570000000000013,-125.35756828104091
-0.4867,-124.43800593612862
-0.48570000000000013,-121.90567270937021
-0.4847,-119.81189998556997
-0.48370000000000013,-118.1991291037238
-0.4827,-116.77027069086012
-0.48170000000000013,-115.28482382600184
-0.4807,-113.67205294415571
-0.4797000000000001,-112.22904741829338
-0.4787,-110.70115921443913
-0.4777000000000001,-108.91862297660917
-0.4767,-106.99461560879273
-0.4757000000000001,-105.33940338795064
-0.4747,-103.89639786208829
-0.4737000000000001,-102.76462882219626
-0.4727,-101.54797710431234
-0.4717000000000001,-100.18985425644189
-0.4707,-98.7892900695755
-0.4697000000000001,-97.44531433470372
-0.4687,-95.95986746984543
-0.4677000000000001,-94.601744621975
-0.4667,-93.17288620911131
-0.4657000000000001,-91.81476336124088
-0.4647,-90.6405529823529
