Potential V vs RHE, Current mA cm-2
0.013299999999999867,-0.41719836233019936
0.012299999999999978,-2.8492285579281837
0.011299999999999866,-5.109937215112512
0.010299999999999976,-7.16268331121668
0.009299999999999864,-8.626909506576993
0.008299999999999974,-9.902979099055257
0.007299999999999862,-11.324763955419618
0.006299999999999972,-12.30798830882582
0.00529999999999986,-13.018173381358068
0.0042999999999999705,-13.974518220066832
0.0032999999999998586,-14.727144631595033
0.0022999999999999687,-15.123263795557243
0.0012999999999998568,-15.759883880496508
0.00029999999999996696,-16.410651078434423
-0.000700000000000145,-16.70774045140608
-0.0017000000000000348,-17.00482982437774
-0.0027000000000001467,-17.542420118326454
-0.0037000000000000366,-17.797068152302163
-0.0047000000000001485,-17.853656604296763
-0.005700000000000038,-18.23562865526032
-0.00670000000000015,-18.53271802823198
-0.00770000000000004,-18.504423802234676
-0.008700000000000152,-18.744924723211735
-0.009700000000000042,-19.084455435179343
-0.010700000000000154,-19.070308322180697
-0.011700000000000044,-19.112749661176647
-0.012700000000000156,-19.466427486142905
-0.013700000000000045,-19.523015938137508
-0.014700000000000157,-19.423986147146955
-0.015700000000000047,-19.65033995512536
-0.01670000000000016,-19.834252424107817
-0.01770000000000005,-19.69278129412131
-0.01870000000000016,-19.834252424107817
-0.01970000000000005,-20.07475334508487
-0.020700000000000163,-19.97572355409432
-0.021700000000000053,-19.947429328097016
-0.022700000000000164,-20.244518701068674
-0.023700000000000054,-20.25866581406732
-0.024700000000000166,-20.117194684080822
-0.025700000000000056,-20.301107153063278
-0.026700000000000168,-20.414284057052477
-0.027700000000000058,-20.244518701068674
-0.02870000000000017,-20.34354849205923
-0.02970000000000006,-20.584049413036283
-0.03070000000000017,-20.47087250904708
-0.03170000000000006,-20.42843117005113
-0.03270000000000017,-20.69722631702549
-0.03370000000000006,-20.711373430024135
-0.034700000000000175,-20.541608074040333
-0.035700000000000065,-20.69722631702549
-0.03670000000000018,-20.79625610801604
-0.03770000000000007,-20.598196526034933
-0.03870000000000018,-20.711373430024135
-0.03970000000000007,-20.90943301200524
-0.04070000000000018,-20.79625610801604
-0.04170000000000007,-20.75381476902009
-0.04270000000000018,-21.008462802995794
-0.04370000000000007,-21.008462802995794
-0.044700000000000184,-20.86699167300929
-0.045700000000000074,-21.022609915994444
-0.046700000000000186,-21.121639706984997
-0.047700000000000076,-20.93772723800254
-0.04870000000000019,-21.050904141991744
-0.04970000000000008,-21.277257949970153
-0.05070000000000019,-21.13578681998365
-0.05170000000000008,-21.093345480987697
-0.05270000000000019,-21.319699288966106
-0.05370000000000008,-21.30555217596745
-0.05470000000000019,-21.149933932982297
-0.05570000000000008,-21.291405062968803
-0.056700000000000195,-21.376287740960702
-0.057700000000000085,-21.1782281589796
-0.058700000000000196,-21.248963723972853
-0.059700000000000086,-21.461170418952605
-0.0607000000000002,-21.333846401964752
-0.06170000000000009,-21.30555217596745
-0.0627000000000002,-21.560200209943158
-0.06370000000000009,-21.503611757948562
-0.0647000000000002,-21.347993514963402
-0.06570000000000009,-21.531905983945855
-0.0667000000000002,-21.602641548939108
-0.0677000000000001,-21.376287740960702
-0.0687000000000002,-21.447023305953955
-0.0697000000000001,-21.67337711393236
-0.07070000000000021,-21.54605309694451
-0.0717000000000001,-21.47531753195126
-0.07270000000000021,-21.729965565926964
-0.0737000000000001,-21.68752422693101
-0.07470000000000021,-21.531905983945855
-0.0757000000000001,-21.71581845292831
-0.07670000000000021,-21.800701130920213
-0.0777000000000001,-21.574347322941808
-0.07870000000000021,-21.645082887935057
-0.0797000000000001,-21.857289582914817
-0.08070000000000022,-21.758259791924264
-0.0817000000000001,-21.701671339929664
-0.08270000000000022,-21.92802514790807
-0.08370000000000011,-21.899730921910766
-0.08470000000000022,-21.729965565926964
-0.08570000000000011,-21.92802514790807
-0.08670000000000022,-22.055349164895922
-0.08770000000000011,-21.800701130920213
-0.08870000000000022,-21.885583808912116
-0.08970000000000011,-22.083643390893226
-0.09070000000000022,-21.94217226090672
-0.09170000000000011,-21.91387803490942
-0.09270000000000023,-22.15437895588647
-0.09370000000000012,-22.111937616890522
-0.09470000000000023,-21.94217226090672
-0.09570000000000012,-22.126084729889175
-0.09670000000000023,-22.253408746877028
-0.09770000000000012,-22.04120205189727
-0.09870000000000023,-22.083643390893226
-0.09970000000000012,-22.281702972874328
-0.10070000000000023,-22.15437895588647
-0.10170000000000012,-22.097790503891872
-0.10270000000000024,-22.36658565086623
-0.10370000000000013,-22.33829142486893
-0.10470000000000024,-22.182673181883775
-0.10570000000000013,-22.36658565086623
-0.10670000000000024,-22.479762554855434
-0.10770000000000013,-22.281702972874328
-0.10870000000000024,-22.352438537867577
-0.10970000000000013,-22.536351006850033
-0.11070000000000024,-22.39487987686353
-0.11170000000000013,-22.309997198871628
-0.11270000000000002,-22.578792345845983
-0.11370000000000013,-22.578792345845983
-0.11470000000000002,-22.42317410286083
-0.11570000000000014,-22.607086571843286
-0.11670000000000003,-22.72026347583249
-0.11770000000000014,-22.536351006850033
-0.11870000000000003,-22.607086571843286
-0.11970000000000014,-22.80514615382439
-0.12070000000000003,-22.649527910839236
-0.12170000000000014,-22.592939458844636
-0.12270000000000003,-22.84758749282034
-0.12370000000000014,-22.84758749282034
-0.12470000000000003,-22.691969249835186
-0.12570000000000014,-22.890028831816295
-0.12670000000000003,-23.017352848804148
-0.12770000000000015,-22.80514615382439
-0.12870000000000004,-22.87588171881764
-0.12970000000000015,-23.102235526796047
-0.13070000000000004,-22.946617283810895
-0.13170000000000015,-22.87588171881764
-0.13270000000000004,-23.1163826397947
-0.13370000000000015,-23.1163826397947
-0.13470000000000004,-22.989058622806844
-0.13570000000000015,-23.1729710917893
-0.13670000000000004,-23.300295108777156
-0.13770000000000016,-23.102235526796047
-0.13870000000000005,-23.1729710917893
-0.13970000000000016,-23.41347201276636
-0.14070000000000005,-23.257853769781203
-0.14170000000000016,-23.1729710917893
-0.14270000000000005,-23.427619125765005
-0.14370000000000016,-23.41347201276636
-0.14470000000000005,-23.272000882779853
-0.14570000000000016,-23.48420757775961
-0.14670000000000005,-23.61153159474746
-0.14770000000000016,-23.427619125765005
-0.14870000000000005,-23.49835469075826
-0.14970000000000017,-23.724708498736668
-0.15070000000000006,-23.61153159474746
-0.15170000000000017,-23.51250180375691
-0.15270000000000006,-23.767149837732617
-0.15370000000000017,-23.767149837732617
-0.15470000000000006,-23.639825820744765
-0.15570000000000017,-23.852032515724517
-0.15670000000000006,-23.993503645711023
-0.15770000000000017,-23.809591176728567
-0.15870000000000006,-23.894473854720466
-0.15970000000000018,-24.120827662698876
-0.16070000000000007,-24.00765075870967
-0.16170000000000018,-23.951062306715073
-0.16270000000000007,-24.191563227692125
-0.16370000000000018,-24.21985745368943
-0.16470000000000007,-24.120827662698876
-0.16570000000000018,-24.31888724467998
-0.16670000000000007,-24.474505487665134
-0.16770000000000018,-24.304740131681328
-0.16870000000000007,-24.40376992267188
-0.16970000000000018,-24.65841795664759
-0.17070000000000007,-24.587682391654337
-0.17170000000000019,-24.531093939659737
-0.17270000000000008,-24.771594860636792
-0.1737000000000002,-24.771594860636792
-0.17470000000000008,-24.67256506964624
-0.1757000000000002,-24.884771764625995
-0.17670000000000008,-25.06868423360845
-0.1777000000000002,-24.927213103621945
-0.17870000000000008,-25.04039000761115
-0.1797000000000002,-25.295038041586857
-0.18070000000000008,-25.210155363594954
-0.1817000000000002,-25.196008250596304
-0.18270000000000008,-25.478950510569312
-0.1837000000000002,-25.49309762356796
-0.1847000000000001,-25.40821494557606
-0.1857000000000002,-25.677010092550415
-0.1867000000000001,-25.875069674531517
-0.1877000000000002,-25.761892770542314
-0.1887000000000001,-25.889216787530174
-0.1897000000000002,-26.15801193450453
-0.1907000000000001,-26.101423482509926
-0.1917000000000001,-26.087276369511276
-0.19269999999999998,-26.426807081478888
-0.1937000000000001,-26.469248420474838
-0.19469999999999998,-26.356071516485635
-0.1957000000000001,-26.62486666345999
-0.19669999999999999,-26.851220471438396
-0.1977000000000001,-26.766337793446493
-0.1987,-26.95025026242895
-0.1997000000000001,-27.233192522401957
-0.2007,-27.204898296404657
-0.2017000000000001,-27.219045409403304
-0.2027,-27.572723234369565
-0.2037000000000001,-27.65760591236147
-0.2047,-27.58687034736821
-0.2057000000000001,-27.841518381343924
-0.2067,-28.09616641531963
-0.2077000000000001,-28.039577963325023
-0.2087,-28.265931771303435
-0.2097000000000001,-28.647903822266994
-0.2107,-28.676198048264297
-0.2117000000000001,-28.775227839254843
-0.2127,-29.171347003217054
-0.2137000000000001,-29.31281813320356
-0.2147,-29.31281813320356
-0.2157000000000001,-29.694790184167122
-0.2167,-29.96358533114148
-0.21770000000000012,-29.906996879146874
-0.2187,-30.10505646112798
-0.21970000000000012,-30.45873428609424
-0.2207,-30.45873428609424
-0.22170000000000012,-30.529469851087494
-0.2227,-30.91144190205105
-0.22370000000000012,-31.010471693041605
-0.2247,-30.968030354045652
-0.22570000000000012,-31.321708179011907
-0.2267,-31.661238890979522
-0.22770000000000012,-31.675386003978172
-0.22870000000000001,-31.94418115095253
-0.22970000000000013,-32.41103587990799
-0.23070000000000002,-32.51006567089854
-0.23170000000000013,-32.6373896878864
-0.23270000000000002,-33.06180307784591
-0.23370000000000013,-33.245715546828364
-0.23470000000000002,-33.330598224820264
-0.23570000000000013,-33.76915872777842
-0.23670000000000002,-34.15113077874198
-0.2376999999999999,-34.193572117737936
-0.23870000000000002,-34.5755441687015
-0.2396999999999999,-35.183870027643465
-0.24070000000000003,-35.353635383627264
-0.24169999999999991,-35.56584207860703
-0.24270000000000003,-36.00440258156518
-0.24369999999999992,-36.21660927654494
-0.24470000000000003,-36.329786180534136
-0.24569999999999992,-36.81078802248826
-0.24670000000000003,-37.26349563844507
-0.24769999999999992,-37.34837831643697
-0.24870000000000003,-37.702056141403226
-0.24969999999999992,-38.253793548350586
-0.25070000000000003,-38.46600024333035
-0.2516999999999999,-38.74894250330336
-0.25270000000000004,-39.314827023249364
-0.2536999999999999,-39.58362217022373
-0.25470000000000004,-39.696799074212926
-0.2556999999999999,-40.177800916167044
-0.25670000000000004,-40.68709698411846
-0.25769999999999993,-40.92759790509552
-0.25870000000000004,-41.352011295055014
-0.25969999999999993,-41.96033715399699
-0.26070000000000004,-42.214985187972694
-0.26169999999999993,-42.540368786941656
-0.26270000000000004,-43.19113598487957
-0.26369999999999993,-43.53066669684718
-0.26470000000000005,-43.74287339182693
-0.26569999999999994,-44.33705213777025
-0.26670000000000005,-44.93123088371356
-0.26769999999999994,-45.22832025668522
-0.26870000000000005,-45.75176343763528
-0.26969999999999994,-46.41667774857186
-0.27070000000000005,-46.81279691253406
-0.27169999999999994,-47.23721030249357
-0.27270000000000005,-48.001154404420696
-0.27369999999999994,-48.41142068138156
-0.27470000000000006,-48.65192160235861
-0.27569999999999995,-49.31683591329518
-0.27670000000000006,-49.967603111233096
-0.27769999999999995,-50.335428049198
-0.27870000000000006,-50.97204813413727
-0.27969999999999995,-51.73599223606439
-0.28070000000000006,-52.2169940780185
-0.28169999999999995,-52.79702571096317
-0.28270000000000006,-53.63170537788354
-0.28369999999999995,-54.1551485588336
-0.28470000000000006,-54.62200328778906
-0.28569999999999995,-55.442535841710786
-0.28670000000000007,-56.26306839563251
-0.28769999999999996,-56.72992312458797
-0.28870000000000007,-57.45142588751914
-0.28969999999999996,-58.34269400643411
-0.29070000000000007,-58.894431413381476
-0.29169999999999996,-59.51690438532209
-0.29270000000000007,-60.46476095623167
-0.29369999999999996,-61.18626371916283
-0.2947000000000001,-61.66726556111695
-0.29569999999999996,-62.501945228037314
-0.2967000000000001,-63.364919120955
-0.29769999999999996,-63.902509414903705
-0.2987000000000001,-64.72304196882543
-0.29969999999999997,-65.7557812177269
-0.3007000000000001,-66.46313686765943
-0.30169999999999997,-67.18463963059058
-0.3027000000000001,-68.23152599249072
-0.30369999999999997,-68.99547009441784
-0.3047000000000001,-69.5189132753679
-0.30569999999999997,-70.32529871629096
-0.3067000000000001,-71.15997838321134
-0.3077,-71.83903980714656
-0.3087000000000001,-72.80104349105478
-0.3097,-73.97525386994278
-0.3107000000000001,-74.75334508486853
-0.3117,-75.57387763879026
-0.3127000000000001,-76.71979379168094
-0.3137,-77.62520902359456
-0.3147000000000001,-78.37500601252303
-0.3157,-79.42189237442317
-0.3167000000000001,-80.48292584932193
-0.3177,-81.24686995124905
-0.3187000000000001,-82.30790342614785
-0.3197,-83.53870225703042
-0.3207000000000001,-84.44411748894404
-0.3217,-85.36367983385631
-0.3227000000000001,-86.63692000373486
-0.3237,-87.71210059163228
-0.3247000000000001,-88.65995716254186
-0.3257,-89.83416754142982
-0.3267000000000001,-90.93764235532454
-0.3277,-91.82891047423954
-0.3287000000000001,-93.10215064411805
-0.3297,-94.47442060498715
-0.3307000000000001,-95.52130696688728
-0.3317,-96.5681933287874
-0.3327000000000001,-97.92631617665783
-0.3337,-99.02979099055257
-0.3347000000000001,-100.02008890045809
-0.3357,-101.34991752233122
-0.3367000000000001,-102.5807163532138
-0.3377,-103.45783735913014
-0.3387000000000001,-104.58960639902216
-0.3397,-106.0326119248845
-0.3407000000000001,-107.19267519077383
-0.3417,-108.46591536065236
-0.3427000000000001,-110.06453912949985
-0.3437,-111.35192641237703
-0.3447000000000001,-112.41295988727582
-0.3457,-113.85596541313815
-0.3467000000000001,-115.2706767130032
-0.3477,-116.33171018790196
-0.3487000000000001,-117.5200676797886
-0.3497,-118.99136743164823
-0.3507000000000001,-120.22216626253082
-0.3517,-121.56614199740261
-0.3527000000000001,-123.29208978323796
-0.3537,-124.7916837610949
-0.3547000000000001,-125.98004125298151
-0.3557,-127.52207656983438
-0.35670000000000013,-129.02167054769134
-0.3577,-130.2241751525766
-0.35870000000000013,-131.58229800044708
-0.3597,-133.09603909130266
-0.36070000000000013,-134.42586771317576
-0.3617,-135.86887323903812
-0.3626999999999999,-137.65140947686808
-0.3637,-139.23588613271693
-0.3646999999999999,-140.56571475459003
-0.3657,-142.17848563643616
-0.3666999999999999,-143.87613919627424
-0.3677,-145.14937936615277
-0.3686999999999999,-146.8470329259908
-0.36970000000000003,-148.54468648582886
-0.3706999999999999,-149.95939778569388
-0.37170000000000003,-151.5155802155454
-0.3726999999999999,-153.49617603535648
-0.37370000000000003,-155.05235846520802
-0.3746999999999999,-156.60854089505958
-0.37570000000000003,-158.4476655848841
-0.3766999999999999,-160.28679027470866
-0.37770000000000004,-161.70150157457368
-0.3786999999999999,-163.39915513441173
-0.37970000000000004,-165.2382798242363
-0.3806999999999999,-166.79446225408785
-0.38170000000000004,-168.49211581392586
-0.38269999999999993,-170.47271163373694
-0.38370000000000004,-172.17036519357498
-0.38469999999999993,-173.72654762342648
-0.38570000000000004,-175.56567231325104
-0.38669999999999993,-174.71684553333202
-0.38570000000000004,-170.61418276372342
-0.38469999999999993,-167.21887564404733
-0.38370000000000004,-164.67239530429026
-0.38269999999999993,-161.9844438345467
-0.38170000000000004,-159.72090575476264
-0.3806999999999999,-157.59883880496508
-0.37970000000000004,-155.33530072518104
-0.3786999999999999,-153.07176264539694
-0.37770000000000004,-151.37410908555893
-0.3766999999999999,-149.6764555257209
-0.37570000000000003,-147.6958597059098
-0.3746999999999999,-145.7152638860988
-0.37370000000000003,-143.87613919627424
-0.3726999999999999,-141.89554337646317
-0.37170000000000003,-139.81591776566157
-0.3706999999999999,-138.14655843182084
-0.36970000000000003,-136.37816930698955
-0.3686999999999999,-134.46830905217172
-0.3677,-132.99700930031207
-0.3666999999999999,-131.46912109645783
-0.3657,-129.5451137286414
-0.3646999999999999,-127.80501882980741
-0.3637,-126.20639506095993
-0.3626999999999999,-124.38141748413402
-0.3617,-122.66961681129733
-0.36070000000000013,-121.31149396342688
-0.3597,-119.67042885558345
-0.35870000000000013,-117.73227437476834
-0.3577,-116.14779771891952
-0.35670000000000013,-114.53502683707337
-0.3557,-112.56857813026097
-0.3547000000000001,-110.88507168342157
-0.3537,-109.30059502757274
-0.3527000000000001,-107.37658765975628
-0.3517,-105.69308121291688
-0.3507000000000001,-104.4056939300397
-0.3497,-102.94854129117871
-0.3487000000000001,-101.26503484433933
-0.3477,-99.94935333546483
-0.3467000000000001,-98.59123048759442
-0.3457,-96.95016537975096
-0.3447000000000001,-95.43642428889537
-0.3437,-94.00756587603168
-0.3427000000000001,-92.29576520319499
-0.3417,-90.68299432134886
-0.3407000000000001,-89.43804837746762
-0.3397,-87.93845439961068
-0.3387000000000001,-86.29738929176723
-0.3377,-84.95341355689546
-0.3367000000000001,-83.63773204802096
-0.3357,-82.03910827917348
-0.3347000000000001,-80.58195564031249
-0.3337,-79.22383279244205
-0.3327000000000001,-77.56862057159996
-0.3317,-76.0407323677457
-0.3307000000000001,-74.93725755385098
-0.3297,-73.57913470598055
-0.3287000000000001,-71.98051093713306
-0.3277,-70.76385921924914
-0.3267000000000001,-69.56135461436386
-0.3257,-68.07590774950557
-0.3247000000000001,-66.77437335362974
-0.3237,-65.5577216357458
-0.3227000000000001,-64.05812765788886
-0.3217,-62.60097501902788
-0.3207000000000001,-61.58238288312505
-0.3197,-60.35158405224246
-0.3187000000000001,-58.92272563937878
-0.3177,-57.8051037124854
-0.3167000000000001,-56.72992312458797
-0.3157,-55.30106471172429
-0.3147000000000001,-54.09856010683901
-0.3137,-52.995085292944275
-0.3127000000000001,-51.580373993079235
-0.3117,-50.2505453712061
-0.3107000000000001,-49.30268880029653
-0.3097,-48.156772647405845
-0.3087000000000001,-46.81279691253406
-0.3077,-45.80835188962989
-0.3067000000000001,-44.83220109272301
-0.30569999999999997,-43.544813809845834
-0.3047000000000001,-42.4696332219484
-0.30369999999999997,-41.55007087703613
-0.3027000000000001,-40.27683070715759
-0.30169999999999997,-39.08847321527096
-0.3007000000000001,-38.253793548350586
-0.29969999999999997,-37.192760073451815
-0.2987000000000001,-35.97610835556789
-0.29769999999999996,-35.04239889765696
-0.2967000000000001,-34.13698366574334
-0.29569999999999996,-32.87789060886345
-0.2947000000000001,-31.901739811956578
-0.29369999999999996,-31.067060145036205
-0.29270000000000007,-29.892849766148224
-0.29169999999999996,-28.789374952253496
-0.29070000000000007,-28.039577963325023
-0.28969999999999996,-27.06342716641815
-0.28870000000000007,-25.91751101352747
-0.28769999999999996,-25.12527268560305
-0.28670000000000007,-24.31888724467998
-0.28569999999999995,-23.187118204787954
-0.28470000000000006,-22.281702972874328
-0.28369999999999995,-21.58849443594046
-0.28270000000000006,-20.555755187038983
-0.28169999999999995,-19.523015938137508
-0.28070000000000006,-18.858101627200938
-0.27969999999999995,-17.995127734283265
-0.27870000000000006,-16.97653559838044
-0.27769999999999995,-16.325768400442524
-0.27670000000000006,-15.604265637511356
-0.27569999999999995,-14.57152638860988
-0.27470000000000006,-13.784946905884919
-0.27369999999999994,-13.175206335643086
-0.27270000000000005,-12.247155722931621
-0.27169999999999994,-11.351643470117054
-0.27070000000000005,-10.798491351869824
-0.26969999999999994,-10.026058982143516
-0.26870000000000005,-9.06971414343475
-0.26769999999999994,-8.481194242690894
