Potential V vs RHE, Current mA cm-2
0.013299999999999867,-0.1766974413531431
0.012299999999999978,-3.2297858975918787
0.011299999999999866,-6.152579443113044
0.010299999999999976,-8.943804837746763
0.009299999999999864,-11.56102074249708
0.008299999999999974,-14.090524546655764
0.007299999999999862,-16.495533756426326
0.006299999999999972,-18.674189158218486
0.00529999999999986,-20.810403221014692
0.0042999999999999705,-22.861734605818995
0.0032999999999998586,-24.729153521640843
0.0022999999999999687,-26.69560222845324
0.0012999999999998568,-28.478138466283188
0.00029999999999996696,-30.274821817111786
-0.000700000000000145,-32.05735805494172
-0.0017000000000000348,-33.755011614779775
-0.0027000000000001467,-35.42437094862052
-0.0037000000000000366,-37.037141830466666
-0.0047000000000001485,-38.522588695324956
-0.005700000000000038,-39.95144710818864
-0.00670000000000015,-41.267128617063115
-0.00770000000000004,-42.526221673943
-0.008700000000000152,-43.75702050482558
-0.009700000000000042,-44.84634820572166
-0.010700000000000154,-46.062999923605595
-0.011700000000000044,-47.15232762450167
-0.012700000000000156,-48.24165532539775
-0.013700000000000045,-49.373424365289786
-0.014700000000000157,-50.42031072718991
-0.015700000000000047,-51.424755750094086
-0.01670000000000016,-52.514083450990164
-0.01770000000000005,-53.433645795902436
-0.01870000000000016,-54.39564947981066
-0.01970000000000005,-55.17374069473642
-0.020700000000000163,-55.96597902266086
-0.021700000000000053,-56.74407023758662
-0.022700000000000164,-57.45142588751914
-0.023700000000000054,-58.10219308545706
-0.024700000000000166,-58.75296028339497
-0.025700000000000056,-59.403727481332886
-0.026700000000000168,-60.11108313126541
-0.027700000000000058,-60.761850329203334
-0.02870000000000017,-61.412617527141244
-0.02970000000000006,-62.11997317707376
-0.03070000000000017,-62.68585769701977
-0.03170000000000006,-63.251742216965795
-0.03270000000000017,-63.77518539791585
-0.03370000000000006,-64.25618723986996
-0.034700000000000175,-64.63815929083353
-0.035700000000000065,-65.0767197937917
-0.03670000000000018,-65.43039761875795
-0.03770000000000007,-65.82651678272015
-0.03870000000000018,-66.20848883368372
-0.03970000000000007,-66.64704933664189
-0.04070000000000018,-67.128051178596
-0.04170000000000007,-67.6090530205501
-0.04270000000000018,-68.04761352350828
-0.04370000000000007,-68.48617402646643
-0.044700000000000184,-68.86814607742998
-0.045700000000000074,-69.30670658038814
-0.046700000000000186,-69.61794306635846
-0.047700000000000076,-69.87259110033416
-0.04870000000000019,-70.18382758630447
-0.04970000000000008,-70.39603428128423
-0.05070000000000019,-70.62238808926263
-0.05170000000000008,-70.87703612323833
-0.05270000000000019,-71.18827260920865
-0.05370000000000008,-71.48536198218031
-0.05470000000000019,-71.7965984681506
-0.05570000000000008,-72.05124650212633
-0.056700000000000195,-72.44736566608852
-0.057700000000000085,-72.67371947406694
-0.058700000000000196,-72.97080884703858
-0.059700000000000086,-73.15472131602105
-0.0607000000000002,-73.2820453330089
-0.06170000000000009,-73.45181068899271
-0.0627000000000002,-73.62157604497652
-0.06370000000000009,-73.72060583596706
-0.0647000000000002,-73.93281253094682
-0.06570000000000009,-74.0176952089387
-0.0667000000000002,-74.24404901691713
-0.0677000000000001,-74.45625571189689
-0.0687000000000002,-74.66846240687663
-0.0697000000000001,-74.93725755385098
-0.07070000000000021,-75.06458157083884
-0.0717000000000001,-75.2484940398213
-0.07270000000000021,-75.4182593958051
-0.0737000000000001,-75.46070073480107
-0.07470000000000021,-75.54558341279296
-0.0757000000000001,-75.63046609078486
-0.07670000000000021,-75.6729074297808
-0.0777000000000001,-75.77193722077136
-0.07870000000000021,-75.81437855976732
-0.0797000000000001,-75.94170257675518
-0.08070000000000022,-76.06902659374302
-0.0817000000000001,-76.19635061073087
-0.08270000000000022,-76.38026307971333
-0.08370000000000011,-76.55002843569714
-0.08470000000000022,-76.63491111368903
-0.08570000000000011,-76.81882358267148
-0.08670000000000022,-76.9037062606634
-0.08770000000000011,-77.03103027765125
-0.08870000000000022,-77.11591295564315
-0.08970000000000011,-77.1583542946391
-0.09070000000000022,-77.243236972631
-0.09170000000000011,-77.38470810261751
-0.09270000000000023,-77.51203211960537
-0.09370000000000012,-77.68179747558916
-0.09470000000000023,-77.86570994457162
-0.09570000000000012,-78.03547530055542
-0.09670000000000023,-78.24768199553519
-0.09770000000000012,-78.43159446451764
-0.09870000000000023,-78.60135982050144
-0.09970000000000012,-78.64380115949739
-0.10070000000000023,-78.68624249849334
-0.10170000000000012,-78.77112517648524
-0.10270000000000024,-78.8135665154812
-0.10370000000000013,-78.85600785447714
-0.10470000000000024,-78.9550376454677
-0.10570000000000013,-79.0399203234596
-0.10670000000000024,-79.20968567944341
-0.10770000000000013,-79.2945683574353
-0.10870000000000024,-79.47848082641775
-0.10970000000000013,-79.64824618240156
-0.11070000000000024,-79.86045287738132
-0.11170000000000013,-79.94533555537322
-0.11270000000000002,-80.08680668535972
-0.11370000000000013,-80.08680668535972
-0.11470000000000002,-80.12924802435568
-0.11570000000000014,-80.12924802435568
-0.11670000000000003,-80.08680668535972
-0.11770000000000014,-80.12924802435568
-0.11870000000000003,-80.12924802435568
-0.11970000000000014,-80.25657204134353
-0.12070000000000003,-80.38389605833139
-0.12170000000000014,-80.52536718831789
-0.12270000000000003,-80.61024986630979
-0.12370000000000014,-80.7800152222936
-0.12470000000000003,-80.86489790028548
-0.12570000000000014,-80.99222191727335
-0.12670000000000003,-81.04881036926795
-0.12770000000000015,-81.13369304725985
-0.12870000000000004,-81.30345840324367
-0.12970000000000015,-81.47322375922747
-0.13070000000000004,-81.57225355021802
-0.13170000000000015,-81.61469488921396
-0.13270000000000004,-81.69957756720586
-0.13370000000000015,-81.78446024519776
-0.13470000000000004,-81.91178426218562
-0.13570000000000015,-81.99666694017753
-0.13670000000000004,-82.18057940915998
-0.13770000000000016,-82.26546208715187
-0.13870000000000005,-82.35034476514379
-0.13970000000000016,-82.35034476514379
-0.14070000000000005,-82.30790342614785
-0.14170000000000016,-82.35034476514379
-0.14270000000000005,-82.35034476514379
-0.14370000000000016,-82.35034476514379
-0.14470000000000005,-82.43522744313569
-0.14570000000000016,-82.43522744313569
-0.14670000000000005,-82.52011012112759
-0.14770000000000016,-82.6615812511141
-0.14870000000000005,-82.78890526810196
-0.14970000000000017,-82.95867062408576
-0.15070000000000006,-83.04355330207765
-0.15170000000000017,-83.18502443206415
-0.15270000000000006,-83.22746577106011
-0.15370000000000017,-83.22746577106011
-0.15470000000000006,-83.22746577106011
-0.15570000000000017,-83.22746577106011
-0.15670000000000006,-83.14258309306821
-0.15770000000000017,-83.18502443206415
-0.15870000000000006,-83.14258309306821
-0.15970000000000018,-83.22746577106011
-0.16070000000000007,-83.26990711005605
-0.16170000000000018,-83.39723112704392
-0.16270000000000007,-83.56699648302772
-0.16370000000000018,-83.70846761301424
-0.16470000000000007,-83.87823296899803
-0.16570000000000018,-84.00555698598588
-0.16670000000000007,-84.04799832498183
-0.16770000000000018,-84.09043966397778
-0.16870000000000007,-84.13288100297372
-0.16970000000000018,-84.09043966397778
-0.17070000000000007,-84.18946945496833
-0.17170000000000019,-84.23191079396429
-0.17270000000000008,-84.31679347195619
-0.1737000000000002,-84.40167614994809
-0.17470000000000008,-84.52900016693594
-0.1757000000000002,-84.61388284492786
-0.17670000000000008,-84.84023665290624
-0.1777000000000002,-84.92511933089816
-0.17870000000000008,-85.052443347886
-0.1797000000000002,-85.09488468688197
-0.18070000000000008,-85.13732602587791
-0.1817000000000002,-85.17976736487385
-0.18270000000000008,-85.17976736487385
-0.1837000000000002,-85.17976736487385
-0.1847000000000001,-85.27879715586442
-0.1857000000000002,-85.32123849486035
-0.1867000000000001,-85.44856251184822
-0.1877000000000002,-85.61832786783202
-0.1887000000000001,-85.80224033681448
-0.1897000000000002,-85.97200569279828
-0.1907000000000001,-86.09932970978613
-0.1917000000000001,-86.28324217876859
-0.19269999999999998,-86.36812485676049
-0.1937000000000001,-86.36812485676049
-0.19469999999999998,-86.41056619575643
-0.1957000000000001,-86.41056619575643
-0.19669999999999999,-86.32568351776455
-0.1977000000000001,-86.41056619575643
-0.1987,-86.41056619575643
-0.1997000000000001,-86.49544887374834
-0.2007,-86.66521422973216
-0.2017000000000001,-86.80668535971866
-0.2027,-86.89156803771054
-0.2037000000000001,-87.10377473269031
-0.2047,-87.18865741068221
-0.2057000000000001,-87.33012854066871
-0.2067,-87.37256987966467
-0.2077000000000001,-87.45745255765657
-0.2087,-87.54233523564847
-0.2097000000000001,-87.58477657464444
-0.2107,-87.66965925263632
-0.2117000000000001,-87.79698326962418
-0.2127,-87.93845439961068
-0.2137000000000001,-88.15066109459043
-0.2147,-88.32042645057423
-0.2157000000000001,-88.54678025855264
-0.2167,-88.80142829252836
-0.21770000000000012,-88.94289942251486
-0.2187,-89.11266477849867
-0.21970000000000012,-89.19754745649055
-0.2207,-89.28243013448247
-0.22170000000000012,-89.32487147347842
-0.2227,-89.42390126446898
-0.22370000000000012,-89.50878394246087
-0.2247,-89.67854929844468
-0.22570000000000012,-89.76343197643658
-0.2267,-89.98978578441499
-0.22770000000000012,-90.20199247939475
-0.22870000000000001,-90.41419917437449
-0.22970000000000013,-90.7254356603448
-0.23070000000000002,-90.93764235532454
-0.23170000000000013,-91.16399616330297
-0.23270000000000002,-91.37620285828272
-0.23370000000000013,-91.41864419727867
-0.23470000000000002,-91.56011532726518
-0.23570000000000013,-91.64499800525708
-0.23670000000000002,-91.64499800525708
-0.2376999999999999,-91.77232202224494
-0.23870000000000002,-91.85720470023682
-0.2396999999999999,-92.04111716921928
-0.24070000000000003,-92.2108825252031
-0.24169999999999991,-92.42308922018285
-0.24270000000000003,-92.64944302816124
-0.24369999999999992,-92.90409106213696
-0.24470000000000003,-93.13044487011537
-0.24569999999999992,-93.38509290409107
-0.24670000000000003,-93.55485826007487
-0.24769999999999992,-93.73877072905732
-0.24870000000000003,-93.90853608504113
-0.24969999999999992,-94.03586010202899
-0.25070000000000003,-94.21977257101145
-0.2516999999999999,-94.47442060498715
-0.25270000000000004,-94.70077441296557
-0.2536999999999999,-95.04030512493317
-0.25470000000000004,-95.35154161090348
-0.2556999999999999,-95.74766077486568
-0.25670000000000004,-96.04475014783733
-0.25769999999999993,-96.35598663380765
-0.25870000000000004,-96.61063466778336
-0.25969999999999993,-96.87942981475771
-0.26070000000000004,-97.09163650973747
-0.26169999999999993,-97.36043165671182
-0.26270000000000004,-97.57263835169158
-0.26369999999999993,-97.78484504667132
-0.26470000000000005,-98.05364019364569
-0.26569999999999994,-98.3082882276214
-0.26670000000000005,-98.74684873057957
-0.26769999999999994,-99.14296789454177
-0.26870000000000005,-99.53908705850398
-0.26969999999999994,-100.02008890045809
-0.27070000000000005,-100.40206095142165
-0.27169999999999994,-100.75573877638791
-0.27270000000000005,-101.15185794035013
-0.27369999999999994,-101.44894731332178
-0.27470000000000006,-101.71774246029614
-0.27569999999999995,-102.02897894626645
-0.27670000000000006,-102.24118564124619
-0.27769999999999995,-102.59486346621246
-0.27870000000000006,-102.84951150018817
-0.27969999999999995,-103.24563066415038
-0.28070000000000006,-103.68419116710854
-0.28169999999999995,-104.06616321807209
-0.28270000000000006,-104.50472372103027
-0.28369999999999995,-104.94328422398843
-0.28470000000000006,-105.38184472694657
-0.28569999999999995,-105.86284656890071
-0.28670000000000007,-106.34384841085482
-0.28769999999999996,-106.73996757481702
-0.28870000000000007,-107.16438096477653
-0.28969999999999996,-107.56050012873874
-0.29070000000000007,-108.04150197069285
-0.29169999999999996,-108.48006247365102
-0.29270000000000007,-109.00350565460108
-0.29369999999999996,-109.52694883555114
-0.2947000000000001,-110.1352746944931
-0.29569999999999996,-110.70115921443913
-0.2967000000000001,-111.35192641237703
-0.29769999999999996,-111.91781093232305
-0.2987000000000001,-112.48369545226906
-0.29969999999999997,-113.00713863321914
-0.3007000000000001,-113.53058181416918
-0.30169999999999997,-114.11061344711386
-0.3027000000000001,-114.57746817606933
-0.30369999999999997,-115.05847001802343
-0.3047000000000001,-115.62435453796945
-0.30569999999999997,-116.10535637992358
-0.3067000000000001,-116.72782935186417
-0.3077,-117.3785965498021
-0.3087000000000001,-118.07180508673595
-0.3097,-118.82160207566443
-0.3107000000000001,-119.47236927360234
-0.3117,-120.12313647154028
-0.3127000000000001,-120.73146233048222
-0.3137,-121.33978818942418
-0.3147000000000001,-122.00470250036076
-0.3157,-122.65546969829869
-0.3167000000000001,-123.26379555724066
-0.3177,-123.95700409417452
-0.3187000000000001,-124.48044727512458
-0.3197,-125.23024426405304
-0.3207000000000001,-125.88101146199097
-0.3217,-126.57421999892482
-0.3227000000000001,-127.28157564885734
-0.3237,-128.05966686378312
-0.3247000000000001,-128.752875400717
-0.3257,-129.50267238964545
-0.3267000000000001,-130.19588092657932
-0.3277,-130.90323657651186
-0.3287000000000001,-131.63888645244168
-0.3297,-132.2896536503796
-0.3307000000000001,-133.12433331729994
-0.3317,-133.8599831932298
-0.3327000000000001,-134.69466286015015
-0.3337,-135.6142252050624
-0.3347000000000001,-136.47719909798008
-0.3357,-137.43920278188833
-0.3367000000000001,-138.44364780479248
-0.3377,-139.36321014970477
-0.3387000000000001,-140.325213833613
-0.3397,-141.18818772653066
-0.3407000000000001,-142.03701450644968
-0.3417,-142.8858412863687
-0.3427000000000001,-143.73466806628772
-0.3437,-144.58349484620675
-0.3447000000000001,-145.43232162612577
-0.3457,-146.4226195360313
-0.3467000000000001,-147.4129174459368
-0.3477,-148.40321535584232
-0.3487000000000001,-149.53498439573437
-0.3497,-150.5252823056399
-0.3507000000000001,-151.65705134553193
-0.3517,-152.64734925543743
-0.3527000000000001,-153.77911829532948
-0.3537,-154.76941620523502
-0.3547000000000001,-155.75971411514055
-0.3557,-156.75001202504606
-0.35670000000000013,-157.7403099349516
-0.3577,-158.73060784485713
-0.35870000000000013,-159.72090575476264
-0.3597,-160.8526747946547
-0.36070000000000013,-161.9844438345467
-0.3617,-163.11621287443873
-0.3626999999999999,-164.24798191433075
-0.3637,-165.5212220842093
-0.3646999999999999,-166.51151999411482
-0.3657,-167.78476016399335
-0.3666999999999999,-168.91652920388537
-0.3677,-170.0482982437774
-0.3686999999999999,-171.03859615368293
-0.36970000000000003,-172.17036519357498
-0.3706999999999999,-173.44360536345349
-0.37170000000000003,-174.57537440334553
-0.3726999999999999,-175.84861457322407
-0.37370000000000003,-177.1218547431026
-0.3746999999999999,-178.53656604296762
-0.37570000000000003,-179.95127734283267
-0.3766999999999999,-181.36598864269772
-0.37770000000000004,-182.78069994256273
-0.3786999999999999,-184.19541124242778
-0.37970000000000004,-185.6101225422928
-0.3806999999999999,-186.88336271217133
-0.38170000000000004,-188.29807401203638
-0.38269999999999993,-189.71278531190143
-0.38370000000000004,-191.12749661176645
-0.38469999999999993,-192.54220791163152
-0.38570000000000004,-193.9569192114965
-0.38669999999999993,-193.249563561564
-0.38570000000000004,-188.58101627200938
-0.38469999999999993,-184.33688237241427
-0.38370000000000004,-180.37569073279218
-0.38269999999999993,-176.4144990931701
-0.38170000000000004,-172.87772084350746
-0.3806999999999999,-169.3409425938449
-0.37970000000000004,-165.8041643441823
-0.3786999999999999,-162.5503283544927
-0.37770000000000004,-159.29649236480313
-0.3766999999999999,-156.18412750510007
-0.37570000000000003,-153.07176264539694
-0.3746999999999999,-150.24234004566688
-0.37370000000000003,-147.55438857592333
-0.3726999999999999,-144.86643710617977
-0.37170000000000003,-142.17848563643616
-0.3706999999999999,-139.70274086167237
-0.36970000000000003,-137.2694374259045
-0.3686999999999999,-134.69466286015015
-0.3677,-132.2896536503796
-0.3666999999999999,-129.75732042362114
-0.3657,-127.36645832684925
-0.3646999999999999,-124.9614491170787
-0.3637,-122.57058702030677
-0.3626999999999999,-120.33534316652002
-0.3617,-118.02936374774
-0.36070000000000013,-115.85070834594785
-0.3597,-113.75693562214758
-0.35870000000000013,-111.7056042373433
-0.3577,-109.69671419153494
-0.35670000000000013,-107.8292952757131
-0.3557,-105.82040522990474
-0.3547000000000001,-103.93883920108425
-0.3537,-101.92994915527588
-0.3527000000000001,-99.93520622246619
-0.3517,-98.01119885464975
-0.3507000000000001,-96.00230880884139
-0.3497,-94.07830144102493
-0.3487000000000001,-92.2108825252031
-0.3477,-90.28687515738663
-0.3467000000000001,-88.5043389195567
-0.3457,-86.7076555687281
-0.3447000000000001,-85.01000200889004
-0.3437,-83.31234844905201
-0.3427000000000001,-81.51566509822342
-0.3417,-79.7755701993894
-0.3407000000000001,-78.03547530055542
-0.3397,-76.29538040172143
-0.3387000000000001,-74.49869705089283
-0.3377,-72.75860215205884
-0.3367000000000001,-70.96191880123024
-0.3357,-69.22182390239624
-0.3347000000000001,-67.48172900356225
-0.3337,-65.91139946071206
-0.3327000000000001,-64.29862857886593
-0.3317,-62.72829903601572
-0.3307000000000001,-61.15796949316553
-0.3297,-59.67252262830725
-0.3287000000000001,-58.10219308545706
-0.3277,-56.57430488160282
-0.3267000000000001,-54.961533999756675
-0.3257,-53.39120445690648
-0.3247000000000001,-51.73599223606439
-0.3237,-50.0807800152223
-0.3227000000000001,-48.55289181136806
-0.3217,-46.982562268517874
-0.3207000000000001,-45.497115403659585
-0.3197,-44.011668538801295
-0.3187000000000001,-42.568663012938956
-0.3177,-41.182245939071215
-0.3167000000000001,-39.82412309120078
-0.3157,-38.42355890433439
-0.3147000000000001,-37.07958316946261
-0.3137,-35.594136304604326
-0.3127000000000001,-34.15113077874198
-0.3117,-32.70812525287965
-0.3107000000000001,-31.23682550102001
-0.3097,-29.793819975157668
-0.3087000000000001,-28.435697127287238
-0.3077,-27.00683871442355
-0.3067000000000001,-25.691157205549064
-0.30569999999999997,-24.34718147067728
-0.3047000000000001,-23.1163826397947
-0.30369999999999997,-21.857289582914817
-0.3027000000000001,-20.541608074040333
-0.30169999999999997,-19.28251501716045
-0.3007000000000001,-18.009274847281915
-0.29969999999999997,-16.70774045140608
-0.2987000000000001,-15.3920589425316
-0.29769999999999996,-14.090524546655764
-0.2967000000000001,-12.73806054398479
-0.29569999999999996,-11.473308641905447
-0.2947000000000001,-10.120844639234473
-0.29369999999999996,-8.943804837746763
-0.29270000000000007,-7.809206375255003
-0.29169999999999996,-6.588310523471475
-0.29070000000000007,-5.497568111275533
-0.28969999999999996,-4.364384360083638
-0.28870000000000007,-3.2297858975918787
-0.28769999999999996,-2.095187435100119
-0.28670000000000007,-0.9181476336124089
-0.28569999999999995,0.2594580523952477
-0.28470000000000006,1.4812027309586933
-0.28369999999999995,2.70209858274222
-0.28270000000000006,3.8791383842299307
-0.28169999999999995,5.01373684672169
-0.28070000000000006,6.14833530921345
-0.27969999999999995,7.15136562081776
-0.27870000000000006,8.198251982717888
-0.27769999999999995,9.201282294322198
-0.27670000000000006,10.160456555630693
-0.27569999999999995,11.20734291753082
-0.27470000000000006,12.166517178839316
-0.27369999999999994,13.257259591035258
-0.27270000000000005,14.345172580631472
-0.27169999999999994,15.349617603535648
-0.27070000000000005,16.481386643427676
-0.26969999999999994,17.528273005327804
-0.26870000000000005,18.53271802823198
-0.26769999999999994,19.579604390132108
-0.26670000000000005,20.584049413036283
-0.26569999999999994,21.503611757948562
-0.26470000000000005,22.42317410286083
