May 1, 2025   18:16:24
Cyclic Voltammetry
File: c:/users/guazh/data/banditlqround7_x0exp1108_r5/2025-04-30-exp1209\exp1209-2025-05-01t18_10_01-arkoh\exp1209_cv_sr_200mvs_efin_-1400mv.bin
Data Source:  Experiment
Instrument Model:  CHI760E
Header: CV ran at 200 mVs
Note: 

Init E (V) = -1
High E (V) = -1
Low E (V) = -1.4
Final E (V) = -1
Init P/N = N
Scan Rate (V/s) = 0.2
Segment = 3
Sample Interval (V) = 0.001
Quiet Time (sec) = 2
Sensitivity (A/V) = 0.01
Comp R (ohm) = 0.9

Results:

Channel 1:
Segment 1:

Segment 2:

Segment 3:

Potential/V, Current/A

-1.000, 2.949e-5
-1.001, 2.014e-4
-1.002, 3.612e-4
-1.003, 5.063e-4
-1.004, 6.098e-4
-1.005, 7.000e-4
-1.006, 8.005e-4
-1.007, 8.700e-4
-1.008, 9.202e-4
-1.009, 9.878e-4
-1.010, 1.041e-3
-1.011, 1.069e-3
-1.012, 1.114e-3
-1.013, 1.160e-3
-1.014, 1.181e-3
-1.015, 1.202e-3
-1.016, 1.240e-3
-1.017, 1.258e-3
-1.018, 1.262e-3
-1.019, 1.289e-3
-1.020, 1.310e-3
-1.021, 1.308e-3
-1.022, 1.325e-3
-1.023, 1.349e-3
-1.024, 1.348e-3
-1.025, 1.351e-3
-1.026, 1.376e-3
-1.027, 1.380e-3
-1.028, 1.373e-3
-1.029, 1.389e-3
-1.030, 1.402e-3
-1.031, 1.392e-3
-1.032, 1.402e-3
-1.033, 1.419e-3
-1.034, 1.412e-3
-1.035, 1.410e-3
-1.036, 1.431e-3
-1.037, 1.432e-3
-1.038, 1.422e-3
-1.039, 1.435e-3
-1.040, 1.443e-3
-1.041, 1.431e-3
-1.042, 1.438e-3
-1.043, 1.455e-3
-1.044, 1.447e-3
-1.045, 1.444e-3
-1.046, 1.463e-3
-1.047, 1.464e-3
-1.048, 1.452e-3
-1.049, 1.463e-3
-1.050, 1.470e-3
-1.051, 1.456e-3
-1.052, 1.464e-3
-1.053, 1.478e-3
-1.054, 1.470e-3
-1.055, 1.467e-3
-1.056, 1.485e-3
-1.057, 1.485e-3
-1.058, 1.475e-3
-1.059, 1.486e-3
-1.060, 1.493e-3
-1.061, 1.480e-3
-1.062, 1.488e-3
-1.063, 1.504e-3
-1.064, 1.494e-3
-1.065, 1.491e-3
-1.066, 1.507e-3
-1.067, 1.506e-3
-1.068, 1.495e-3
-1.069, 1.505e-3
-1.070, 1.511e-3
-1.071, 1.497e-3
-1.072, 1.502e-3
-1.073, 1.517e-3
-1.074, 1.508e-3
-1.075, 1.506e-3
-1.076, 1.524e-3
-1.077, 1.520e-3
-1.078, 1.509e-3
-1.079, 1.522e-3
-1.080, 1.527e-3
-1.081, 1.511e-3
-1.082, 1.516e-3
-1.083, 1.532e-3
-1.084, 1.523e-3
-1.085, 1.518e-3
-1.086, 1.536e-3
-1.087, 1.533e-3
-1.088, 1.522e-3
-1.089, 1.535e-3
-1.090, 1.541e-3
-1.091, 1.525e-3
-1.092, 1.530e-3
-1.093, 1.545e-3
-1.094, 1.538e-3
-1.095, 1.534e-3
-1.096, 1.550e-3
-1.097, 1.548e-3
-1.098, 1.536e-3
-1.099, 1.550e-3
-1.100, 1.559e-3
-1.101, 1.541e-3
-1.102, 1.547e-3
-1.103, 1.561e-3
-1.104, 1.551e-3
-1.105, 1.549e-3
-1.106, 1.566e-3
-1.107, 1.563e-3
-1.108, 1.551e-3
-1.109, 1.564e-3
-1.110, 1.573e-3
-1.111, 1.558e-3
-1.112, 1.561e-3
-1.113, 1.575e-3
-1.114, 1.566e-3
-1.115, 1.562e-3
-1.116, 1.581e-3
-1.117, 1.579e-3
-1.118, 1.568e-3
-1.119, 1.581e-3
-1.120, 1.589e-3
-1.121, 1.575e-3
-1.122, 1.580e-3
-1.123, 1.593e-3
-1.124, 1.583e-3
-1.125, 1.577e-3
-1.126, 1.596e-3
-1.127, 1.596e-3
-1.128, 1.585e-3
-1.129, 1.598e-3
-1.130, 1.606e-3
-1.131, 1.593e-3
-1.132, 1.598e-3
-1.133, 1.612e-3
-1.134, 1.601e-3
-1.135, 1.597e-3
-1.136, 1.615e-3
-1.137, 1.615e-3
-1.138, 1.604e-3
-1.139, 1.618e-3
-1.140, 1.627e-3
-1.141, 1.612e-3
-1.142, 1.617e-3
-1.143, 1.633e-3
-1.144, 1.622e-3
-1.145, 1.617e-3
-1.146, 1.634e-3
-1.147, 1.634e-3
-1.148, 1.625e-3
-1.149, 1.638e-3
-1.150, 1.647e-3
-1.151, 1.633e-3
-1.152, 1.638e-3
-1.153, 1.655e-3
-1.154, 1.644e-3
-1.155, 1.638e-3
-1.156, 1.656e-3
-1.157, 1.655e-3
-1.158, 1.645e-3
-1.159, 1.660e-3
-1.160, 1.669e-3
-1.161, 1.656e-3
-1.162, 1.661e-3
-1.163, 1.677e-3
-1.164, 1.669e-3
-1.165, 1.662e-3
-1.166, 1.680e-3
-1.167, 1.680e-3
-1.168, 1.671e-3
-1.169, 1.686e-3
-1.170, 1.696e-3
-1.171, 1.683e-3
-1.172, 1.689e-3
-1.173, 1.705e-3
-1.174, 1.697e-3
-1.175, 1.693e-3
-1.176, 1.710e-3
-1.177, 1.712e-3
-1.178, 1.705e-3
-1.179, 1.719e-3
-1.180, 1.730e-3
-1.181, 1.718e-3
-1.182, 1.725e-3
-1.183, 1.743e-3
-1.184, 1.738e-3
-1.185, 1.734e-3
-1.186, 1.751e-3
-1.187, 1.751e-3
-1.188, 1.744e-3
-1.189, 1.759e-3
-1.190, 1.772e-3
-1.191, 1.762e-3
-1.192, 1.770e-3
-1.193, 1.788e-3
-1.194, 1.782e-3
-1.195, 1.781e-3
-1.196, 1.801e-3
-1.197, 1.802e-3
-1.198, 1.796e-3
-1.199, 1.815e-3
-1.200, 1.829e-3
-1.201, 1.821e-3
-1.202, 1.830e-3
-1.203, 1.849e-3
-1.204, 1.845e-3
-1.205, 1.844e-3
-1.206, 1.868e-3
-1.207, 1.871e-3
-1.208, 1.863e-3
-1.209, 1.882e-3
-1.210, 1.898e-3
-1.211, 1.892e-3
-1.212, 1.905e-3
-1.213, 1.925e-3
-1.214, 1.923e-3
-1.215, 1.924e-3
-1.216, 1.949e-3
-1.217, 1.955e-3
-1.218, 1.950e-3
-1.219, 1.968e-3
-1.220, 1.986e-3
-1.221, 1.982e-3
-1.222, 1.998e-3
-1.223, 2.025e-3
-1.224, 2.027e-3
-1.225, 2.034e-3
-1.226, 2.062e-3
-1.227, 2.072e-3
-1.228, 2.072e-3
-1.229, 2.099e-3
-1.230, 2.118e-3
-1.231, 2.114e-3
-1.232, 2.128e-3
-1.233, 2.153e-3
-1.234, 2.153e-3
-1.235, 2.158e-3
-1.236, 2.185e-3
-1.237, 2.192e-3
-1.238, 2.189e-3
-1.239, 2.214e-3
-1.240, 2.238e-3
-1.241, 2.239e-3
-1.242, 2.258e-3
-1.243, 2.291e-3
-1.244, 2.298e-3
-1.245, 2.307e-3
-1.246, 2.337e-3
-1.247, 2.350e-3
-1.248, 2.356e-3
-1.249, 2.387e-3
-1.250, 2.414e-3
-1.251, 2.417e-3
-1.252, 2.444e-3
-1.253, 2.487e-3
-1.254, 2.499e-3
-1.255, 2.514e-3
-1.256, 2.545e-3
-1.257, 2.560e-3
-1.258, 2.568e-3
-1.259, 2.602e-3
-1.260, 2.634e-3
-1.261, 2.640e-3
-1.262, 2.665e-3
-1.263, 2.704e-3
-1.264, 2.719e-3
-1.265, 2.739e-3
-1.266, 2.779e-3
-1.267, 2.798e-3
-1.268, 2.806e-3
-1.269, 2.840e-3
-1.270, 2.876e-3
-1.271, 2.893e-3
-1.272, 2.923e-3
-1.273, 2.966e-3
-1.274, 2.984e-3
-1.275, 3.007e-3
-1.276, 3.053e-3
-1.277, 3.077e-3
-1.278, 3.092e-3
-1.279, 3.134e-3
-1.280, 3.176e-3
-1.281, 3.197e-3
-1.282, 3.234e-3
-1.283, 3.281e-3
-1.284, 3.309e-3
-1.285, 3.339e-3
-1.286, 3.393e-3
-1.287, 3.422e-3
-1.288, 3.439e-3
-1.289, 3.486e-3
-1.290, 3.532e-3
-1.291, 3.558e-3
-1.292, 3.603e-3
-1.293, 3.657e-3
-1.294, 3.691e-3
-1.295, 3.732e-3
-1.296, 3.791e-3
-1.297, 3.828e-3
-1.298, 3.861e-3
-1.299, 3.919e-3
-1.300, 3.977e-3
-1.301, 4.010e-3
-1.302, 4.061e-3
-1.303, 4.124e-3
-1.304, 4.163e-3
-1.305, 4.207e-3
-1.306, 4.274e-3
-1.307, 4.325e-3
-1.308, 4.359e-3
-1.309, 4.418e-3
-1.310, 4.479e-3
-1.311, 4.517e-3
-1.312, 4.575e-3
-1.313, 4.648e-3
-1.314, 4.698e-3
-1.315, 4.749e-3
-1.316, 4.823e-3
-1.317, 4.877e-3
-1.318, 4.914e-3
-1.319, 4.971e-3
-1.320, 5.030e-3
-1.321, 5.078e-3
-1.322, 5.146e-3
-1.323, 5.229e-3
-1.324, 5.284e-3
-1.325, 5.342e-3
-1.326, 5.423e-3
-1.327, 5.487e-3
-1.328, 5.540e-3
-1.329, 5.614e-3
-1.330, 5.689e-3
-1.331, 5.743e-3
-1.332, 5.818e-3
-1.333, 5.905e-3
-1.334, 5.969e-3
-1.335, 6.034e-3
-1.336, 6.124e-3
-1.337, 6.200e-3
-1.338, 6.267e-3
-1.339, 6.350e-3
-1.340, 6.428e-3
-1.341, 6.491e-3
-1.342, 6.581e-3
-1.343, 6.678e-3
-1.344, 6.752e-3
-1.345, 6.826e-3
-1.346, 6.922e-3
-1.347, 7.000e-3
-1.348, 7.070e-3
-1.349, 7.164e-3
-1.350, 7.251e-3
-1.351, 7.313e-3
-1.352, 7.393e-3
-1.353, 7.495e-3
-1.354, 7.577e-3
-1.355, 7.667e-3
-1.356, 7.780e-3
-1.357, 7.871e-3
-1.358, 7.946e-3
-1.359, 8.048e-3
-1.360, 8.148e-3
-1.361, 8.223e-3
-1.362, 8.307e-3
-1.363, 8.411e-3
-1.364, 8.498e-3
-1.365, 8.593e-3
-1.366, 8.715e-3
-1.367, 8.821e-3
-1.368, 8.905e-3
-1.369, 9.014e-3
-1.370, 9.120e-3
-1.371, 9.205e-3
-1.372, 9.301e-3
-1.373, 9.408e-3
-1.374, 9.502e-3
-1.375, 9.604e-3
-1.376, 9.730e-3
-1.377, 9.842e-3
-1.378, 9.936e-3
-1.379, 1.005e-2
-1.380, 1.017e-2
-1.381, 1.026e-2
-1.382, 1.038e-2
-1.383, 1.050e-2
-1.384, 1.060e-2
-1.385, 1.071e-2
-1.386, 1.085e-2
-1.387, 1.096e-2
-1.388, 1.107e-2
-1.389, 1.120e-2
-1.390, 1.133e-2
-1.391, 1.143e-2
-1.392, 1.155e-2
-1.393, 1.168e-2
-1.394, 1.179e-2
-1.395, 1.191e-2
-1.396, 1.205e-2
-1.397, 1.217e-2
-1.398, 1.228e-2
-1.399, 1.241e-2
-1.400, 1.235e-2
-1.399, 1.206e-2
-1.398, 1.182e-2
-1.397, 1.164e-2
-1.396, 1.145e-2
-1.395, 1.129e-2
-1.394, 1.114e-2
-1.393, 1.098e-2
-1.392, 1.082e-2
-1.391, 1.070e-2
-1.390, 1.058e-2
-1.389, 1.044e-2
-1.388, 1.030e-2
-1.387, 1.017e-2
-1.386, 1.003e-2
-1.385, 9.883e-3
-1.384, 9.765e-3
-1.383, 9.640e-3
-1.382, 9.505e-3
-1.381, 9.401e-3
-1.380, 9.293e-3
-1.379, 9.157e-3
-1.378, 9.034e-3
-1.377, 8.921e-3
-1.376, 8.792e-3
-1.375, 8.671e-3
-1.374, 8.575e-3
-1.373, 8.459e-3
-1.372, 8.322e-3
-1.371, 8.210e-3
-1.370, 8.096e-3
-1.369, 7.957e-3
-1.368, 7.838e-3
-1.367, 7.726e-3
-1.366, 7.590e-3
-1.365, 7.471e-3
-1.364, 7.380e-3
-1.363, 7.277e-3
-1.362, 7.158e-3
-1.361, 7.065e-3
-1.360, 6.969e-3
-1.359, 6.853e-3
-1.358, 6.746e-3
-1.357, 6.645e-3
-1.356, 6.524e-3
-1.355, 6.410e-3
-1.354, 6.322e-3
-1.353, 6.216e-3
-1.352, 6.100e-3
-1.351, 6.005e-3
-1.350, 5.912e-3
-1.349, 5.799e-3
-1.348, 5.696e-3
-1.347, 5.600e-3
-1.346, 5.483e-3
-1.345, 5.375e-3
-1.344, 5.297e-3
-1.343, 5.201e-3
-1.342, 5.088e-3
-1.341, 5.002e-3
-1.340, 4.917e-3
-1.339, 4.812e-3
-1.338, 4.720e-3
-1.337, 4.634e-3
-1.336, 4.528e-3
-1.335, 4.425e-3
-1.334, 4.353e-3
-1.333, 4.266e-3
-1.332, 4.165e-3
-1.331, 4.086e-3
-1.330, 4.010e-3
-1.329, 3.909e-3
-1.328, 3.824e-3
-1.327, 3.746e-3
-1.326, 3.646e-3
-1.325, 3.552e-3
-1.324, 3.485e-3
-1.323, 3.404e-3
-1.322, 3.309e-3
-1.321, 3.238e-3
-1.320, 3.169e-3
-1.319, 3.078e-3
-1.318, 3.002e-3
-1.317, 2.937e-3
-1.316, 2.847e-3
-1.315, 2.763e-3
-1.314, 2.704e-3
-1.313, 2.629e-3
-1.312, 2.543e-3
-1.311, 2.477e-3
-1.310, 2.413e-3
-1.309, 2.324e-3
-1.308, 2.255e-3
-1.307, 2.196e-3
-1.306, 2.113e-3
-1.305, 2.035e-3
-1.304, 1.982e-3
-1.303, 1.913e-3
-1.302, 1.832e-3
-1.301, 1.776e-3
-1.300, 1.719e-3
-1.299, 1.639e-3
-1.298, 1.575e-3
-1.297, 1.526e-3
-1.296, 1.453e-3
-1.295, 1.380e-3
-1.294, 1.333e-3
-1.293, 1.272e-3
-1.292, 1.200e-3
-1.291, 1.154e-3
-1.290, 1.103e-3
-1.289, 1.030e-3
-1.288, 9.744e-4
-1.287, 9.313e-4
-1.286, 8.657e-4
-1.285, 8.024e-4
-1.284, 7.633e-4
-1.283, 7.087e-4
-1.282, 6.411e-4
-1.281, 5.995e-4
-1.280, 5.558e-4
-1.279, 4.896e-4
-1.278, 4.417e-4
-1.277, 4.078e-4
-1.276, 3.486e-4
-1.275, 2.927e-4
-1.274, 2.599e-4
-1.273, 2.119e-4
-1.272, 1.517e-4
-1.271, 1.160e-4
-1.270, 8.008e-5
-1.269, 2.078e-5
-1.268, -2.256e-5
-1.267, -5.018e-5
-1.266, -1.018e-4
-1.265, -1.517e-4
-1.264, -1.761e-4
-1.263, -2.173e-4
-1.262, -2.717e-4
-1.261, -3.004e-4
-1.260, -3.313e-4
-1.259, -3.822e-4
-1.258, -4.169e-4
-1.257, -4.379e-4
-1.256, -4.825e-4
-1.255, -5.272e-4
-1.254, -5.473e-4
-1.253, -5.804e-4
-1.252, -6.286e-4
-1.251, -6.516e-4
-1.250, -6.762e-4
-1.249, -7.234e-4
-1.248, -7.535e-4
-1.247, -7.708e-4
-1.246, -8.118e-4
-1.245, -8.482e-4
-1.244, -8.631e-4
-1.243, -8.916e-4
-1.242, -9.351e-4
-1.241, -9.530e-4
-1.240, -9.701e-4
-1.239, -1.012e-3
-1.238, -1.037e-3
-1.237, -1.047e-3
-1.236, -1.080e-3
-1.235, -1.112e-3
-1.234, -1.121e-3
-1.233, -1.147e-3
-1.232, -1.183e-3
-1.231, -1.197e-3
-1.230, -1.210e-3
-1.229, -1.250e-3
-1.228, -1.273e-3
-1.227, -1.280e-3
-1.226, -1.310e-3
-1.225, -1.336e-3
-1.224, -1.339e-3
-1.223, -1.358e-3
-1.222, -1.393e-3
-1.221, -1.401e-3
-1.220, -1.411e-3
-1.219, -1.443e-3
-1.218, -1.461e-3
-1.217, -1.463e-3
-1.216, -1.486e-3
-1.215, -1.508e-3
-1.214, -1.507e-3
-1.213, -1.521e-3
-1.212, -1.553e-3
-1.211, -1.559e-3
-1.210, -1.565e-3
-1.209, -1.595e-3
-1.208, -1.609e-3
-1.207, -1.611e-3
-1.206, -1.635e-3
-1.205, -1.654e-3
-1.204, -1.653e-3
-1.203, -1.666e-3
-1.202, -1.694e-3
-1.201, -1.698e-3
-1.200, -1.699e-3
-1.199, -1.726e-3
-1.198, -1.737e-3
-1.197, -1.732e-3
-1.196, -1.753e-3
-1.195, -1.770e-3
-1.194, -1.763e-3
-1.193, -1.774e-3
-1.192, -1.798e-3
-1.191, -1.799e-3
-1.190, -1.800e-3
-1.189, -1.824e-3
-1.188, -1.833e-3
-1.187, -1.827e-3
-1.186, -1.846e-3
-1.185, -1.862e-3
-1.184, -1.853e-3
-1.183, -1.859e-3
-1.182, -1.882e-3
-1.181, -1.880e-3
-1.180, -1.880e-3
-1.179, -1.904e-3
-1.178, -1.912e-3
-1.177, -1.905e-3
-1.176, -1.919e-3
-1.175, -1.934e-3
-1.174, -1.926e-3
-1.173, -1.930e-3
-1.172, -1.950e-3
-1.171, -1.948e-3
-1.170, -1.947e-3
-1.169, -1.968e-3
-1.168, -1.973e-3
-1.167, -1.964e-3
-1.166, -1.978e-3
-1.165, -1.993e-3
-1.164, -1.985e-3
-1.163, -1.988e-3
-1.162, -2.007e-3
-1.161, -2.002e-3
-1.160, -1.998e-3
-1.159, -2.020e-3
-1.158, -2.024e-3
-1.157, -2.014e-3
-1.156, -2.027e-3
-1.155, -2.039e-3
-1.154, -2.028e-3
-1.153, -2.033e-3
-1.152, -2.048e-3
-1.151, -2.042e-3
-1.150, -2.037e-3
-1.149, -2.056e-3
-1.148, -2.061e-3
-1.147, -2.051e-3
-1.146, -2.064e-3
-1.145, -2.076e-3
-1.144, -2.064e-3
-1.143, -2.067e-3
-1.142, -2.084e-3
-1.141, -2.077e-3
-1.140, -2.071e-3
-1.139, -2.088e-3
-1.138, -2.091e-3
-1.137, -2.081e-3
-1.136, -2.092e-3
-1.135, -2.103e-3
-1.134, -2.093e-3
-1.133, -2.096e-3
-1.132, -2.113e-3
-1.131, -2.104e-3
-1.130, -2.097e-3
-1.129, -2.114e-3
-1.128, -2.117e-3
-1.127, -2.105e-3
-1.126, -2.118e-3
-1.125, -2.127e-3
-1.124, -2.116e-3
-1.123, -2.121e-3
-1.122, -2.138e-3
-1.121, -2.129e-3
-1.120, -2.120e-3
-1.119, -2.138e-3
-1.118, -2.142e-3
-1.117, -2.128e-3
-1.116, -2.140e-3
-1.115, -2.149e-3
-1.114, -2.136e-3
-1.113, -2.142e-3
-1.112, -2.157e-3
-1.111, -2.147e-3
-1.110, -2.137e-3
-1.109, -2.151e-3
-1.108, -2.153e-3
-1.107, -2.139e-3
-1.106, -2.150e-3
-1.105, -2.160e-3
-1.104, -2.145e-3
-1.103, -2.146e-3
-1.102, -2.163e-3
-1.101, -2.155e-3
-1.100, -2.145e-3
-1.099, -2.159e-3
-1.098, -2.160e-3
-1.097, -2.148e-3
-1.096, -2.159e-3
-1.095, -2.170e-3
-1.094, -2.157e-3
-1.093, -2.155e-3
-1.092, -2.171e-3
-1.091, -2.162e-3
-1.090, -2.154e-3
-1.089, -2.167e-3
-1.088, -2.167e-3
-1.087, -2.152e-3
-1.086, -2.164e-3
-1.085, -2.173e-3
-1.084, -2.160e-3
-1.083, -2.159e-3
-1.082, -2.174e-3
-1.081, -2.165e-3
-1.080, -2.157e-3
-1.079, -2.172e-3
-1.078, -2.174e-3
-1.077, -2.159e-3
-1.076, -2.171e-3
-1.075, -2.183e-3
-1.074, -2.170e-3
-1.073, -2.172e-3
-1.072, -2.187e-3
-1.071, -2.179e-3
-1.070, -2.169e-3
-1.069, -2.181e-3
-1.068, -2.182e-3
-1.067, -2.166e-3
-1.066, -2.179e-3
-1.065, -2.186e-3
-1.064, -2.168e-3
-1.063, -2.166e-3
-1.062, -2.181e-3
-1.061, -2.170e-3
-1.060, -2.161e-3
-1.059, -2.176e-3
-1.058, -2.176e-3
-1.057, -2.161e-3
-1.056, -2.172e-3
-1.055, -2.186e-3
-1.054, -2.178e-3
-1.053, -2.181e-3
-1.052, -2.197e-3
-1.051, -2.190e-3
-1.050, -2.181e-3
-1.049, -2.195e-3
-1.048, -2.197e-3
-1.047, -2.183e-3
-1.046, -2.194e-3
-1.045, -2.204e-3
-1.044, -2.189e-3
-1.043, -2.189e-3
-1.042, -2.208e-3
-1.041, -2.202e-3
-1.040, -2.195e-3
-1.039, -2.209e-3
-1.038, -2.209e-3
-1.037, -2.194e-3
-1.036, -2.206e-3
-1.035, -2.217e-3
-1.034, -2.206e-3
-1.033, -2.207e-3
-1.032, -2.223e-3
-1.031, -2.218e-3
-1.030, -2.211e-3
-1.029, -2.225e-3
-1.028, -2.224e-3
-1.027, -2.210e-3
-1.026, -2.222e-3
-1.025, -2.235e-3
-1.024, -2.224e-3
-1.023, -2.227e-3
-1.022, -2.245e-3
-1.021, -2.240e-3
-1.020, -2.235e-3
-1.019, -2.247e-3
-1.018, -2.247e-3
-1.017, -2.232e-3
-1.016, -2.243e-3
-1.015, -2.256e-3
-1.014, -2.246e-3
-1.013, -2.247e-3
-1.012, -2.267e-3
-1.011, -2.262e-3
-1.010, -2.259e-3
-1.009, -2.274e-3
-1.008, -2.274e-3
-1.007, -2.264e-3
-1.006, -2.277e-3
-1.005, -2.289e-3
-1.004, -2.279e-3
-1.003, -2.281e-3
-1.002, -2.299e-3
-1.001, -2.294e-3
