Dec. 25, 2024   03:14:30
Linear Sweep Voltammetry
File: c:/users/guazh/data/banditlqround7_x0exp136_r20/2024-12-24-exp733\regeneratedgce-2024-12-25t03_09_57-lsvinkoh\regeneratedgce_lsv_50mvs_efin_-1900mv.bin
Data Source:  Experiment
Instrument Model:  CHI760E
Header: LSV ran at 50 mVs with Efin at -1900mV
Note: 

Init E (V) = -0.6
Final E (V) = -1.9
Scan Rate (V/s) = 0.05
Sample Interval (V) = 0.001
Quiet Time (sec) = 2
Sensitivity (A/V) = 1e-4
Comp R (ohm) = 1.4

Results:

Channel 1:
Ep = -1.811V
ip = 9.990e-4A
Ah = 7.979e-4C

Potential/V, Current/A

-0.600, -3.018e-7
-0.601, -1.656e-7
-0.602, -1.297e-7
-0.603, -1.120e-7
-0.604, -9.602e-8
-0.605, -8.418e-8
-0.606, -6.928e-8
-0.607, -5.626e-8
-0.608, -4.678e-8
-0.609, -3.682e-8
-0.610, -2.686e-8
-0.611, -1.433e-8
-0.612, -4.755e-9
-0.613, 5.722e-10
-0.614, 1.142e-8
-0.615, 1.961e-8
-0.616, 2.958e-8
-0.617, 3.915e-8
-0.618, 4.201e-8
-0.619, 4.822e-8
-0.620, 5.651e-8
-0.621, 6.450e-8
-0.622, 7.388e-8
-0.623, 7.674e-8
-0.624, 8.325e-8
-0.625, 9.233e-8
-0.626, 1.001e-7
-0.627, 1.072e-7
-0.628, 1.132e-7
-0.629, 1.173e-7
-0.630, 1.241e-7
-0.631, 1.327e-7
-0.632, 1.390e-7
-0.633, 1.428e-7
-0.634, 1.475e-7
-0.635, 1.544e-7
-0.636, 1.630e-7
-0.637, 1.678e-7
-0.638, 1.724e-7
-0.639, 1.773e-7
-0.640, 1.819e-7
-0.641, 1.919e-7
-0.642, 1.957e-7
-0.643, 1.992e-7
-0.644, 2.042e-7
-0.645, 2.093e-7
-0.646, 2.179e-7
-0.647, 2.229e-7
-0.648, 2.259e-7
-0.649, 2.319e-7
-0.650, 2.363e-7
-0.651, 2.443e-7
-0.652, 2.498e-7
-0.653, 2.513e-7
-0.654, 2.571e-7
-0.655, 2.621e-7
-0.656, 2.700e-7
-0.657, 2.760e-7
-0.658, 2.770e-7
-0.659, 2.830e-7
-0.660, 2.875e-7
-0.661, 2.954e-7
-0.662, 2.994e-7
-0.663, 3.008e-7
-0.664, 3.065e-7
-0.665, 3.115e-7
-0.666, 3.208e-7
-0.667, 3.239e-7
-0.668, 3.255e-7
-0.669, 3.282e-7
-0.670, 3.343e-7
-0.671, 3.416e-7
-0.672, 3.455e-7
-0.673, 3.485e-7
-0.674, 3.514e-7
-0.675, 3.579e-7
-0.676, 3.631e-7
-0.677, 3.672e-7
-0.678, 3.707e-7
-0.679, 3.722e-7
-0.680, 3.780e-7
-0.681, 3.847e-7
-0.682, 3.873e-7
-0.683, 3.906e-7
-0.684, 3.941e-7
-0.685, 3.992e-7
-0.686, 4.052e-7
-0.687, 4.078e-7
-0.688, 4.110e-7
-0.689, 4.144e-7
-0.690, 4.181e-7
-0.691, 4.270e-7
-0.692, 4.295e-7
-0.693, 4.302e-7
-0.694, 4.345e-7
-0.695, 4.386e-7
-0.696, 4.443e-7
-0.697, 4.491e-7
-0.698, 4.494e-7
-0.699, 4.527e-7
-0.700, 4.588e-7
-0.701, 4.651e-7
-0.702, 4.678e-7
-0.703, 4.693e-7
-0.704, 4.733e-7
-0.705, 4.768e-7
-0.706, 4.833e-7
-0.707, 4.867e-7
-0.708, 4.879e-7
-0.709, 4.906e-7
-0.710, 4.957e-7
-0.711, 5.011e-7
-0.712, 5.056e-7
-0.713, 5.065e-7
-0.714, 5.082e-7
-0.715, 5.139e-7
-0.716, 5.213e-7
-0.717, 5.241e-7
-0.718, 5.259e-7
-0.719, 5.285e-7
-0.720, 5.325e-7
-0.721, 5.400e-7
-0.722, 5.419e-7
-0.723, 5.449e-7
-0.724, 5.477e-7
-0.725, 5.515e-7
-0.726, 5.585e-7
-0.727, 5.604e-7
-0.728, 5.620e-7
-0.729, 5.656e-7
-0.730, 5.690e-7
-0.731, 5.757e-7
-0.732, 5.784e-7
-0.733, 5.786e-7
-0.734, 5.823e-7
-0.735, 5.866e-7
-0.736, 5.933e-7
-0.737, 5.960e-7
-0.738, 5.962e-7
-0.739, 6.006e-7
-0.740, 6.050e-7
-0.741, 6.096e-7
-0.742, 6.125e-7
-0.743, 6.148e-7
-0.744, 6.171e-7
-0.745, 6.224e-7
-0.746, 6.274e-7
-0.747, 6.302e-7
-0.748, 6.313e-7
-0.749, 6.337e-7
-0.750, 6.391e-7
-0.751, 6.436e-7
-0.752, 6.462e-7
-0.753, 6.488e-7
-0.754, 6.508e-7
-0.755, 6.562e-7
-0.756, 6.628e-7
-0.757, 6.636e-7
-0.758, 6.661e-7
-0.759, 6.677e-7
-0.760, 6.716e-7
-0.761, 6.778e-7
-0.762, 6.791e-7
-0.763, 6.822e-7
-0.764, 6.847e-7
-0.765, 6.888e-7
-0.766, 6.957e-7
-0.767, 6.964e-7
-0.768, 6.998e-7
-0.769, 7.039e-7
-0.770, 7.054e-7
-0.771, 7.122e-7
-0.772, 7.153e-7
-0.773, 7.147e-7
-0.774, 7.174e-7
-0.775, 7.219e-7
-0.776, 7.279e-7
-0.777, 7.309e-7
-0.778, 7.313e-7
-0.779, 7.328e-7
-0.780, 7.371e-7
-0.781, 7.430e-7
-0.782, 7.467e-7
-0.783, 7.468e-7
-0.784, 7.500e-7
-0.785, 7.559e-7
-0.786, 7.595e-7
-0.787, 7.627e-7
-0.788, 7.641e-7
-0.789, 7.661e-7
-0.790, 7.711e-7
-0.791, 7.758e-7
-0.792, 7.775e-7
-0.793, 7.799e-7
-0.794, 7.824e-7
-0.795, 7.870e-7
-0.796, 7.925e-7
-0.797, 7.932e-7
-0.798, 7.969e-7
-0.799, 7.994e-7
-0.800, 8.044e-7
-0.801, 8.103e-7
-0.802, 8.112e-7
-0.803, 8.129e-7
-0.804, 8.159e-7
-0.805, 8.206e-7
-0.806, 8.271e-7
-0.807, 8.288e-7
-0.808, 8.298e-7
-0.809, 8.312e-7
-0.810, 8.358e-7
-0.811, 8.427e-7
-0.812, 8.460e-7
-0.813, 8.471e-7
-0.814, 8.493e-7
-0.815, 8.537e-7
-0.816, 8.580e-7
-0.817, 8.605e-7
-0.818, 8.610e-7
-0.819, 8.683e-7
-0.820, 8.735e-7
-0.821, 8.767e-7
-0.822, 8.781e-7
-0.823, 8.800e-7
-0.824, 8.822e-7
-0.825, 8.873e-7
-0.826, 8.920e-7
-0.827, 8.936e-7
-0.828, 8.961e-7
-0.829, 8.978e-7
-0.830, 9.033e-7
-0.831, 9.085e-7
-0.832, 9.108e-7
-0.833, 9.133e-7
-0.834, 9.149e-7
-0.835, 9.202e-7
-0.836, 9.247e-7
-0.837, 9.270e-7
-0.838, 9.296e-7
-0.839, 9.321e-7
-0.840, 9.361e-7
-0.841, 9.423e-7
-0.842, 9.432e-7
-0.843, 9.453e-7
-0.844, 9.488e-7
-0.845, 9.529e-7
-0.846, 9.595e-7
-0.847, 9.614e-7
-0.848, 9.606e-7
-0.849, 9.647e-7
-0.850, 9.681e-7
-0.851, 9.749e-7
-0.852, 9.774e-7
-0.853, 9.781e-7
-0.854, 9.811e-7
-0.855, 9.855e-7
-0.856, 9.913e-7
-0.857, 9.932e-7
-0.858, 9.953e-7
-0.859, 9.988e-7
-0.860, 1.003e-6
-0.861, 1.009e-6
-0.862, 1.010e-6
-0.863, 1.012e-6
-0.864, 1.016e-6
-0.865, 1.021e-6
-0.866, 1.026e-6
-0.867, 1.029e-6
-0.868, 1.029e-6
-0.869, 1.032e-6
-0.870, 1.040e-6
-0.871, 1.048e-6
-0.872, 1.047e-6
-0.873, 1.050e-6
-0.874, 1.051e-6
-0.875, 1.057e-6
-0.876, 1.062e-6
-0.877, 1.065e-6
-0.878, 1.067e-6
-0.879, 1.067e-6
-0.880, 1.074e-6
-0.881, 1.081e-6
-0.882, 1.081e-6
-0.883, 1.084e-6
-0.884, 1.087e-6
-0.885, 1.092e-6
-0.886, 1.097e-6
-0.887, 1.099e-6
-0.888, 1.100e-6
-0.889, 1.103e-6
-0.890, 1.108e-6
-0.891, 1.113e-6
-0.892, 1.116e-6
-0.893, 1.117e-6
-0.894, 1.121e-6
-0.895, 1.126e-6
-0.896, 1.131e-6
-0.897, 1.134e-6
-0.898, 1.135e-6
-0.899, 1.138e-6
-0.900, 1.145e-6
-0.901, 1.147e-6
-0.902, 1.150e-6
-0.903, 1.154e-6
-0.904, 1.156e-6
-0.905, 1.160e-6
-0.906, 1.166e-6
-0.907, 1.168e-6
-0.908, 1.170e-6
-0.909, 1.173e-6
-0.910, 1.179e-6
-0.911, 1.183e-6
-0.912, 1.184e-6
-0.913, 1.188e-6
-0.914, 1.189e-6
-0.915, 1.196e-6
-0.916, 1.201e-6
-0.917, 1.202e-6
-0.918, 1.207e-6
-0.919, 1.208e-6
-0.920, 1.213e-6
-0.921, 1.220e-6
-0.922, 1.221e-6
-0.923, 1.224e-6
-0.924, 1.227e-6
-0.925, 1.232e-6
-0.926, 1.238e-6
-0.927, 1.238e-6
-0.928, 1.242e-6
-0.929, 1.246e-6
-0.930, 1.250e-6
-0.931, 1.256e-6
-0.932, 1.257e-6
-0.933, 1.258e-6
-0.934, 1.263e-6
-0.935, 1.267e-6
-0.936, 1.271e-6
-0.937, 1.276e-6
-0.938, 1.277e-6
-0.939, 1.280e-6
-0.940, 1.286e-6
-0.941, 1.292e-6
-0.942, 1.295e-6
-0.943, 1.296e-6
-0.944, 1.299e-6
-0.945, 1.306e-6
-0.946, 1.310e-6
-0.947, 1.314e-6
-0.948, 1.316e-6
-0.949, 1.318e-6
-0.950, 1.325e-6
-0.951, 1.330e-6
-0.952, 1.331e-6
-0.953, 1.336e-6
-0.954, 1.338e-6
-0.955, 1.344e-6
-0.956, 1.350e-6
-0.957, 1.353e-6
-0.958, 1.355e-6
-0.959, 1.358e-6
-0.960, 1.364e-6
-0.961, 1.371e-6
-0.962, 1.372e-6
-0.963, 1.374e-6
-0.964, 1.378e-6
-0.965, 1.384e-6
-0.966, 1.390e-6
-0.967, 1.392e-6
-0.968, 1.394e-6
-0.969, 1.399e-6
-0.970, 1.403e-6
-0.971, 1.410e-6
-0.972, 1.412e-6
-0.973, 1.416e-6
-0.974, 1.419e-6
-0.975, 1.425e-6
-0.976, 1.432e-6
-0.977, 1.433e-6
-0.978, 1.435e-6
-0.979, 1.439e-6
-0.980, 1.444e-6
-0.981, 1.451e-6
-0.982, 1.454e-6
-0.983, 1.455e-6
-0.984, 1.459e-6
-0.985, 1.466e-6
-0.986, 1.472e-6
-0.987, 1.474e-6
-0.988, 1.477e-6
-0.989, 1.480e-6
-0.990, 1.488e-6
-0.991, 1.493e-6
-0.992, 1.496e-6
-0.993, 1.499e-6
-0.994, 1.502e-6
-0.995, 1.509e-6
-0.996, 1.514e-6
-0.997, 1.518e-6
-0.998, 1.522e-6
-0.999, 1.524e-6
-1.000, 1.531e-6
-1.001, 1.537e-6
-1.002, 1.540e-6
-1.003, 1.543e-6
-1.004, 1.546e-6
-1.005, 1.552e-6
-1.006, 1.560e-6
-1.007, 1.563e-6
-1.008, 1.566e-6
-1.009, 1.571e-6
-1.010, 1.575e-6
-1.011, 1.583e-6
-1.012, 1.587e-6
-1.013, 1.587e-6
-1.014, 1.593e-6
-1.015, 1.599e-6
-1.016, 1.606e-6
-1.017, 1.608e-6
-1.018, 1.611e-6
-1.019, 1.616e-6
-1.020, 1.623e-6
-1.021, 1.629e-6
-1.022, 1.633e-6
-1.023, 1.636e-6
-1.024, 1.643e-6
-1.025, 1.650e-6
-1.026, 1.654e-6
-1.027, 1.657e-6
-1.028, 1.661e-6
-1.029, 1.665e-6
-1.030, 1.673e-6
-1.031, 1.678e-6
-1.032, 1.681e-6
-1.033, 1.685e-6
-1.034, 1.689e-6
-1.035, 1.695e-6
-1.036, 1.703e-6
-1.037, 1.706e-6
-1.038, 1.711e-6
-1.039, 1.714e-6
-1.040, 1.722e-6
-1.041, 1.729e-6
-1.042, 1.729e-6
-1.043, 1.735e-6
-1.044, 1.738e-6
-1.045, 1.746e-6
-1.046, 1.752e-6
-1.047, 1.755e-6
-1.048, 1.759e-6
-1.049, 1.764e-6
-1.050, 1.771e-6
-1.051, 1.778e-6
-1.052, 1.781e-6
-1.053, 1.784e-6
-1.054, 1.788e-6
-1.055, 1.795e-6
-1.056, 1.803e-6
-1.057, 1.806e-6
-1.058, 1.807e-6
-1.059, 1.815e-6
-1.060, 1.821e-6
-1.061, 1.828e-6
-1.062, 1.832e-6
-1.063, 1.836e-6
-1.064, 1.839e-6
-1.065, 1.847e-6
-1.066, 1.853e-6
-1.067, 1.857e-6
-1.068, 1.861e-6
-1.069, 1.866e-6
-1.070, 1.873e-6
-1.071, 1.879e-6
-1.072, 1.882e-6
-1.073, 1.887e-6
-1.074, 1.891e-6
-1.075, 1.901e-6
-1.076, 1.906e-6
-1.077, 1.909e-6
-1.078, 1.913e-6
-1.079, 1.917e-6
-1.080, 1.924e-6
-1.081, 1.931e-6
-1.082, 1.934e-6
-1.083, 1.939e-6
-1.084, 1.941e-6
-1.085, 1.948e-6
-1.086, 1.956e-6
-1.087, 1.957e-6
-1.088, 1.963e-6
-1.089, 1.967e-6
-1.090, 1.974e-6
-1.091, 1.981e-6
-1.092, 1.985e-6
-1.093, 1.987e-6
-1.094, 1.992e-6
-1.095, 2.000e-6
-1.096, 2.006e-6
-1.097, 2.010e-6
-1.098, 2.014e-6
-1.099, 2.018e-6
-1.100, 2.025e-6
-1.101, 2.033e-6
-1.102, 2.036e-6
-1.103, 2.039e-6
-1.104, 2.045e-6
-1.105, 2.052e-6
-1.106, 2.059e-6
-1.107, 2.063e-6
-1.108, 2.065e-6
-1.109, 2.069e-6
-1.110, 2.078e-6
-1.111, 2.084e-6
-1.112, 2.087e-6
-1.113, 2.091e-6
-1.114, 2.095e-6
-1.115, 2.104e-6
-1.116, 2.109e-6
-1.117, 2.112e-6
-1.118, 2.116e-6
-1.119, 2.121e-6
-1.120, 2.129e-6
-1.121, 2.135e-6
-1.122, 2.138e-6
-1.123, 2.142e-6
-1.124, 2.147e-6
-1.125, 2.155e-6
-1.126, 2.162e-6
-1.127, 2.164e-6
-1.128, 2.168e-6
-1.129, 2.173e-6
-1.130, 2.179e-6
-1.131, 2.187e-6
-1.132, 2.189e-6
-1.133, 2.191e-6
-1.134, 2.197e-6
-1.135, 2.204e-6
-1.136, 2.211e-6
-1.137, 2.214e-6
-1.138, 2.217e-6
-1.139, 2.222e-6
-1.140, 2.229e-6
-1.141, 2.236e-6
-1.142, 2.238e-6
-1.143, 2.242e-6
-1.144, 2.245e-6
-1.145, 2.253e-6
-1.146, 2.260e-6
-1.147, 2.263e-6
-1.148, 2.266e-6
-1.149, 2.270e-6
-1.150, 2.279e-6
-1.151, 2.285e-6
-1.152, 2.290e-6
-1.153, 2.292e-6
-1.154, 2.296e-6
-1.155, 2.305e-6
-1.156, 2.311e-6
-1.157, 2.314e-6
-1.158, 2.318e-6
-1.159, 2.322e-6
-1.160, 2.330e-6
-1.161, 2.337e-6
-1.162, 2.338e-6
-1.163, 2.342e-6
-1.164, 2.347e-6
-1.165, 2.354e-6
-1.166, 2.363e-6
-1.167, 2.364e-6
-1.168, 2.368e-6
-1.169, 2.375e-6
-1.170, 2.380e-6
-1.171, 2.389e-6
-1.172, 2.392e-6
-1.173, 2.394e-6
-1.174, 2.400e-6
-1.175, 2.406e-6
-1.176, 2.414e-6
-1.177, 2.416e-6
-1.178, 2.421e-6
-1.179, 2.425e-6
-1.180, 2.433e-6
-1.181, 2.438e-6
-1.182, 2.442e-6
-1.183, 2.443e-6
-1.184, 2.449e-6
-1.185, 2.457e-6
-1.186, 2.462e-6
-1.187, 2.466e-6
-1.188, 2.469e-6
-1.189, 2.473e-6
-1.190, 2.481e-6
-1.191, 2.487e-6
-1.192, 2.490e-6
-1.193, 2.494e-6
-1.194, 2.497e-6
-1.195, 2.506e-6
-1.196, 2.512e-6
-1.197, 2.515e-6
-1.198, 2.519e-6
-1.199, 2.522e-6
-1.200, 2.531e-6
-1.201, 2.537e-6
-1.202, 2.540e-6
-1.203, 2.544e-6
-1.204, 2.549e-6
-1.205, 2.556e-6
-1.206, 2.562e-6
-1.207, 2.566e-6
-1.208, 2.569e-6
-1.209, 2.575e-6
-1.210, 2.580e-6
-1.211, 2.586e-6
-1.212, 2.589e-6
-1.213, 2.592e-6
-1.214, 2.597e-6
-1.215, 2.605e-6
-1.216, 2.613e-6
-1.217, 2.615e-6
-1.218, 2.617e-6
-1.219, 2.624e-6
-1.220, 2.630e-6
-1.221, 2.637e-6
-1.222, 2.640e-6
-1.223, 2.642e-6
-1.224, 2.646e-6
-1.225, 2.654e-6
-1.226, 2.659e-6
-1.227, 2.662e-6
-1.228, 2.665e-6
-1.229, 2.677e-6
-1.230, 2.682e-6
-1.231, 2.685e-6
-1.232, 2.687e-6
-1.233, 2.691e-6
-1.234, 2.693e-6
-1.235, 2.701e-6
-1.236, 2.707e-6
-1.237, 2.708e-6
-1.238, 2.712e-6
-1.239, 2.714e-6
-1.240, 2.721e-6
-1.241, 2.728e-6
-1.242, 2.729e-6
-1.243, 2.733e-6
-1.244, 2.736e-6
-1.245, 2.742e-6
-1.246, 2.749e-6
-1.247, 2.751e-6
-1.248, 2.752e-6
-1.249, 2.757e-6
-1.250, 2.764e-6
-1.251, 2.769e-6
-1.252, 2.772e-6
-1.253, 2.771e-6
-1.254, 2.777e-6
-1.255, 2.785e-6
-1.256, 2.789e-6
-1.257, 2.792e-6
-1.258, 2.792e-6
-1.259, 2.797e-6
-1.260, 2.803e-6
-1.261, 2.808e-6
-1.262, 2.810e-6
-1.263, 2.810e-6
-1.264, 2.814e-6
-1.265, 2.822e-6
-1.266, 2.825e-6
-1.267, 2.826e-6
-1.268, 2.829e-6
-1.269, 2.830e-6
-1.270, 2.837e-6
-1.271, 2.842e-6
-1.272, 2.842e-6
-1.273, 2.845e-6
-1.274, 2.847e-6
-1.275, 2.854e-6
-1.276, 2.858e-6
-1.277, 2.856e-6
-1.278, 2.860e-6
-1.279, 2.863e-6
-1.280, 2.871e-6
-1.281, 2.875e-6
-1.282, 2.873e-6
-1.283, 2.875e-6
-1.284, 2.876e-6
-1.285, 2.882e-6
-1.286, 2.887e-6
-1.287, 2.886e-6
-1.288, 2.888e-6
-1.289, 2.891e-6
-1.290, 2.895e-6
-1.291, 2.900e-6
-1.292, 2.902e-6
-1.293, 2.901e-6
-1.294, 2.904e-6
-1.295, 2.911e-6
-1.296, 2.914e-6
-1.297, 2.914e-6
-1.298, 2.915e-6
-1.299, 2.919e-6
-1.300, 2.924e-6
-1.301, 2.927e-6
-1.302, 2.930e-6
-1.303, 2.929e-6
-1.304, 2.931e-6
-1.305, 2.939e-6
-1.306, 2.941e-6
-1.307, 2.943e-6
-1.308, 2.942e-6
-1.309, 2.945e-6
-1.310, 2.951e-6
-1.311, 2.954e-6
-1.312, 2.956e-6
-1.313, 2.958e-6
-1.314, 2.959e-6
-1.315, 2.965e-6
-1.316, 2.969e-6
-1.317, 2.968e-6
-1.318, 2.970e-6
-1.319, 2.973e-6
-1.320, 2.978e-6
-1.321, 2.984e-6
-1.322, 2.983e-6
-1.323, 2.985e-6
-1.324, 2.988e-6
-1.325, 2.993e-6
-1.326, 2.996e-6
-1.327, 2.994e-6
-1.328, 2.996e-6
-1.329, 2.999e-6
-1.330, 3.003e-6
-1.331, 3.008e-6
-1.332, 3.009e-6
-1.333, 3.009e-6
-1.334, 3.012e-6
-1.335, 3.016e-6
-1.336, 3.019e-6
-1.337, 3.020e-6
-1.338, 3.020e-6
-1.339, 3.021e-6
-1.340, 3.027e-6
-1.341, 3.030e-6
-1.342, 3.031e-6
-1.343, 3.030e-6
-1.344, 3.033e-6
-1.345, 3.038e-6
-1.346, 3.039e-6
-1.347, 3.040e-6
-1.348, 3.039e-6
-1.349, 3.041e-6
-1.350, 3.049e-6
-1.351, 3.052e-6
-1.352, 3.049e-6
-1.353, 3.051e-6
-1.354, 3.051e-6
-1.355, 3.058e-6
-1.356, 3.061e-6
-1.357, 3.060e-6
-1.358, 3.062e-6
-1.359, 3.063e-6
-1.360, 3.071e-6
-1.361, 3.075e-6
-1.362, 3.071e-6
-1.363, 3.074e-6
-1.364, 3.076e-6
-1.365, 3.080e-6
-1.366, 3.085e-6
-1.367, 3.083e-6
-1.368, 3.084e-6
-1.369, 3.087e-6
-1.370, 3.094e-6
-1.371, 3.098e-6
-1.372, 3.098e-6
-1.373, 3.097e-6
-1.374, 3.101e-6
-1.375, 3.107e-6
-1.376, 3.109e-6
-1.377, 3.111e-6
-1.378, 3.110e-6
-1.379, 3.114e-6
-1.380, 3.119e-6
-1.381, 3.122e-6
-1.382, 3.124e-6
-1.383, 3.127e-6
-1.384, 3.129e-6
-1.385, 3.135e-6
-1.386, 3.136e-6
-1.387, 3.138e-6
-1.388, 3.140e-6
-1.389, 3.140e-6
-1.390, 3.147e-6
-1.391, 3.151e-6
-1.392, 3.149e-6
-1.393, 3.151e-6
-1.394, 3.154e-6
-1.395, 3.161e-6
-1.396, 3.166e-6
-1.397, 3.166e-6
-1.398, 3.168e-6
-1.399, 3.169e-6
-1.400, 3.176e-6
-1.401, 3.180e-6
-1.402, 3.180e-6
-1.403, 3.180e-6
-1.404, 3.184e-6
-1.405, 3.191e-6
-1.406, 3.196e-6
-1.407, 3.196e-6
-1.408, 3.198e-6
-1.409, 3.202e-6
-1.410, 3.207e-6
-1.411, 3.213e-6
-1.412, 3.212e-6
-1.413, 3.211e-6
-1.414, 3.217e-6
-1.415, 3.223e-6
-1.416, 3.228e-6
-1.417, 3.230e-6
-1.418, 3.230e-6
-1.419, 3.235e-6
-1.420, 3.240e-6
-1.421, 3.244e-6
-1.422, 3.247e-6
-1.423, 3.248e-6
-1.424, 3.251e-6
-1.425, 3.259e-6
-1.426, 3.262e-6
-1.427, 3.265e-6
-1.428, 3.266e-6
-1.429, 3.271e-6
-1.430, 3.279e-6
-1.431, 3.281e-6
-1.432, 3.285e-6
-1.433, 3.289e-6
-1.434, 3.296e-6
-1.435, 3.303e-6
-1.436, 3.307e-6
-1.437, 3.306e-6
-1.438, 3.309e-6
-1.439, 3.313e-6
-1.440, 3.322e-6
-1.441, 3.328e-6
-1.442, 3.330e-6
-1.443, 3.334e-6
-1.444, 3.338e-6
-1.445, 3.346e-6
-1.446, 3.353e-6
-1.447, 3.355e-6
-1.448, 3.355e-6
-1.449, 3.361e-6
-1.450, 3.369e-6
-1.451, 3.377e-6
-1.452, 3.377e-6
-1.453, 3.380e-6
-1.454, 3.387e-6
-1.455, 3.397e-6
-1.456, 3.403e-6
-1.457, 3.403e-6
-1.458, 3.405e-6
-1.459, 3.413e-6
-1.460, 3.421e-6
-1.461, 3.428e-6
-1.462, 3.431e-6
-1.463, 3.434e-6
-1.464, 3.439e-6
-1.465, 3.450e-6
-1.466, 3.454e-6
-1.467, 3.458e-6
-1.468, 3.460e-6
-1.469, 3.468e-6
-1.470, 3.476e-6
-1.471, 3.484e-6
-1.472, 3.487e-6
-1.473, 3.492e-6
-1.474, 3.499e-6
-1.475, 3.509e-6
-1.476, 3.516e-6
-1.477, 3.518e-6
-1.478, 3.523e-6
-1.479, 3.530e-6
-1.480, 3.540e-6
-1.481, 3.549e-6
-1.482, 3.552e-6
-1.483, 3.558e-6
-1.484, 3.564e-6
-1.485, 3.578e-6
-1.486, 3.587e-6
-1.487, 3.586e-6
-1.488, 3.592e-6
-1.489, 3.603e-6
-1.490, 3.613e-6
-1.491, 3.622e-6
-1.492, 3.628e-6
-1.493, 3.630e-6
-1.494, 3.642e-6
-1.495, 3.651e-6
-1.496, 3.660e-6
-1.497, 3.666e-6
-1.498, 3.673e-6
-1.499, 3.682e-6
-1.500, 3.694e-6
-1.501, 3.702e-6
-1.502, 3.709e-6
-1.503, 3.714e-6
-1.504, 3.724e-6
-1.505, 3.738e-6
-1.506, 3.744e-6
-1.507, 3.753e-6
-1.508, 3.760e-6
-1.509, 3.770e-6
-1.510, 3.787e-6
-1.511, 3.798e-6
-1.512, 3.804e-6
-1.513, 3.813e-6
-1.514, 3.823e-6
-1.515, 3.839e-6
-1.516, 3.851e-6
-1.517, 3.859e-6
-1.518, 3.865e-6
-1.519, 3.878e-6
-1.520, 3.892e-6
-1.521, 3.905e-6
-1.522, 3.912e-6
-1.523, 3.922e-6
-1.524, 3.936e-6
-1.525, 3.951e-6
-1.526, 3.965e-6
-1.527, 3.972e-6
-1.528, 3.984e-6
-1.529, 3.997e-6
-1.530, 4.011e-6
-1.531, 4.027e-6
-1.532, 4.038e-6
-1.533, 4.049e-6
-1.534, 4.064e-6
-1.535, 4.081e-6
-1.536, 4.097e-6
-1.537, 4.107e-6
-1.538, 4.117e-6
-1.539, 4.135e-6
-1.540, 4.153e-6
-1.541, 4.166e-6
-1.542, 4.180e-6
-1.543, 4.191e-6
-1.544, 4.206e-6
-1.545, 4.229e-6
-1.546, 4.243e-6
-1.547, 4.256e-6
-1.548, 4.271e-6
-1.549, 4.289e-6
-1.550, 4.313e-6
-1.551, 4.329e-6
-1.552, 4.343e-6
-1.553, 4.360e-6
-1.554, 4.377e-6
-1.555, 4.403e-6
-1.556, 4.422e-6
-1.557, 4.436e-6
-1.558, 4.455e-6
-1.559, 4.475e-6
-1.560, 4.500e-6
-1.561, 4.524e-6
-1.562, 4.541e-6
-1.563, 4.561e-6
-1.564, 4.581e-6
-1.565, 4.608e-6
-1.566, 4.634e-6
-1.567, 4.650e-6
-1.568, 4.672e-6
-1.569, 4.697e-6
-1.570, 4.723e-6
-1.571, 4.750e-6
-1.572, 4.770e-6
-1.573, 4.793e-6
-1.574, 4.820e-6
-1.575, 4.851e-6
-1.576, 4.877e-6
-1.577, 4.901e-6
-1.578, 4.924e-6
-1.579, 4.955e-6
-1.580, 4.993e-6
-1.581, 5.018e-6
-1.582, 5.047e-6
-1.583, 5.074e-6
-1.584, 5.104e-6
-1.585, 5.143e-6
-1.586, 5.174e-6
-1.587, 5.206e-6
-1.588, 5.238e-6
-1.589, 5.269e-6
-1.590, 5.311e-6
-1.591, 5.346e-6
-1.592, 5.380e-6
-1.593, 5.414e-6
-1.594, 5.450e-6
-1.595, 5.496e-6
-1.596, 5.538e-6
-1.597, 5.571e-6
-1.598, 5.610e-6
-1.599, 5.653e-6
-1.600, 5.702e-6
-1.601, 5.746e-6
-1.602, 5.786e-6
-1.603, 5.827e-6
-1.604, 5.872e-6
-1.605, 5.921e-6
-1.606, 5.975e-6
-1.607, 6.019e-6
-1.608, 6.064e-6
-1.609, 6.119e-6
-1.610, 6.176e-6
-1.611, 6.230e-6
-1.612, 6.284e-6
-1.613, 6.341e-6
-1.614, 6.402e-6
-1.615, 6.468e-6
-1.616, 6.531e-6
-1.617, 6.596e-6
-1.618, 6.656e-6
-1.619, 6.728e-6
-1.620, 6.805e-6
-1.621, 6.876e-6
-1.622, 6.949e-6
-1.623, 7.022e-6
-1.624, 7.103e-6
-1.625, 7.192e-6
-1.626, 7.272e-6
-1.627, 7.356e-6
-1.628, 7.443e-6
-1.629, 7.535e-6
-1.630, 7.636e-6
-1.631, 7.735e-6
-1.632, 7.834e-6
-1.633, 7.934e-6
-1.634, 8.034e-6
-1.635, 8.146e-6
-1.636, 8.267e-6
-1.637, 8.385e-6
-1.638, 8.517e-6
-1.639, 8.653e-6
-1.640, 8.781e-6
-1.641, 8.920e-6
-1.642, 9.058e-6
-1.643, 9.191e-6
-1.644, 9.342e-6
-1.645, 9.504e-6
-1.646, 9.662e-6
-1.647, 9.820e-6
-1.648, 9.994e-6
-1.649, 1.017e-5
-1.650, 1.036e-5
-1.651, 1.056e-5
-1.652, 1.076e-5
-1.653, 1.096e-5
-1.654, 1.118e-5
-1.655, 1.141e-5
-1.656, 1.165e-5
-1.657, 1.189e-5
-1.658, 1.212e-5
-1.659, 1.238e-5
-1.660, 1.266e-5
-1.661, 1.295e-5
-1.662, 1.324e-5
-1.663, 1.354e-5
-1.664, 1.387e-5
-1.665, 1.421e-5
-1.666, 1.456e-5
-1.667, 1.493e-5
-1.668, 1.531e-5
-1.669, 1.572e-5
-1.670, 1.615e-5
-1.671, 1.659e-5
-1.672, 1.705e-5
-1.673, 1.753e-5
-1.674, 1.802e-5
-1.675, 1.855e-5
-1.676, 1.910e-5
-1.677, 1.967e-5
-1.678, 2.027e-5
-1.679, 2.090e-5
-1.680, 2.157e-5
-1.681, 2.225e-5
-1.682, 2.295e-5
-1.683, 2.371e-5
-1.684, 2.450e-5
-1.685, 2.532e-5
-1.686, 2.617e-5
-1.687, 2.706e-5
-1.688, 2.799e-5
-1.689, 2.896e-5
-1.690, 2.999e-5
-1.691, 3.107e-5
-1.692, 3.218e-5
-1.693, 3.333e-5
-1.694, 3.454e-5
-1.695, 3.582e-5
-1.696, 3.715e-5
-1.697, 3.852e-5
-1.698, 3.996e-5
-1.699, 4.147e-5
-1.700, 4.303e-5
-1.701, 4.463e-5
-1.702, 4.632e-5
-1.703, 4.809e-5
-1.704, 4.991e-5
-1.705, 5.182e-5
-1.706, 5.379e-5
-1.707, 5.587e-5
-1.708, 5.803e-5
-1.709, 6.029e-5
-1.710, 6.264e-5
-1.711, 6.507e-5
-1.712, 6.755e-5
-1.713, 7.009e-5
-1.714, 7.277e-5
-1.715, 7.553e-5
-1.716, 7.836e-5
-1.717, 8.130e-5
-1.718, 8.437e-5
-1.719, 8.748e-5
-1.720, 9.067e-5
-1.721, 9.399e-5
-1.722, 9.742e-5
-1.723, 1.009e-4
-1.724, 1.046e-4
-1.725, 1.083e-4
-1.726, 1.122e-4
-1.727, 1.159e-4
-1.728, 1.197e-4
-1.729, 1.237e-4
-1.730, 1.279e-4
-1.731, 1.323e-4
-1.732, 1.369e-4
-1.733, 1.414e-4
-1.734, 1.458e-4
-1.735, 1.505e-4
-1.736, 1.552e-4
-1.737, 1.601e-4
-1.738, 1.651e-4
-1.739, 1.704e-4
-1.740, 1.759e-4
-1.741, 1.814e-4
-1.742, 1.869e-4
-1.743, 1.925e-4
-1.744, 1.984e-4
-1.745, 2.043e-4
-1.746, 2.104e-4
-1.747, 2.166e-4
-1.748, 2.226e-4
-1.749, 2.291e-4
-1.750, 2.357e-4
-1.751, 2.426e-4
-1.752, 2.495e-4
-1.753, 2.561e-4
-1.754, 2.629e-4
-1.755, 2.700e-4
-1.756, 2.774e-4
-1.757, 2.854e-4
-1.758, 2.934e-4
-1.759, 3.014e-4
-1.760, 3.096e-4
-1.761, 3.174e-4
-1.762, 3.257e-4
-1.763, 3.349e-4
-1.764, 3.441e-4
-1.765, 3.533e-4
-1.766, 3.627e-4
-1.767, 3.720e-4
-1.768, 3.815e-4
-1.769, 3.910e-4
-1.770, 4.002e-4
-1.771, 4.104e-4
-1.772, 4.205e-4
-1.773, 4.311e-4
-1.774, 4.416e-4
-1.775, 4.524e-4
-1.776, 4.637e-4
-1.777, 4.750e-4
-1.778, 4.869e-4
-1.779, 4.991e-4
-1.780, 5.113e-4
-1.781, 5.239e-4
-1.782, 5.368e-4
-1.783, 5.499e-4
-1.784, 5.630e-4
-1.785, 5.762e-4
-1.786, 5.900e-4
-1.787, 6.042e-4
-1.788, 6.181e-4
-1.789, 6.322e-4
-1.790, 6.474e-4
-1.791, 6.628e-4
-1.792, 6.773e-4
-1.793, 6.920e-4
-1.794, 7.073e-4
-1.795, 7.234e-4
-1.796, 7.397e-4
-1.797, 7.564e-4
-1.798, 7.737e-4
-1.799, 7.916e-4
-1.800, 8.103e-4
-1.801, 8.285e-4
-1.802, 8.462e-4
-1.803, 8.647e-4
-1.804, 8.847e-4
-1.805, 9.044e-4
-1.806, 9.240e-4
-1.807, 9.435e-4
-1.808, 9.639e-4
-1.809, 9.858e-4
-1.810, 1.006e-3
-1.811, 1.011e-3
-1.812, 1.011e-3
-1.813, 1.011e-3
-1.814, 1.011e-3
-1.815, 1.011e-3
-1.816, 1.011e-3
-1.817, 1.011e-3
-1.818, 1.011e-3
-1.819, 1.011e-3
-1.820, 1.011e-3
-1.821, 1.011e-3
-1.822, 1.011e-3
-1.823, 1.011e-3
-1.824, 1.011e-3
-1.825, 1.011e-3
-1.826, 1.011e-3
-1.827, 1.011e-3
-1.828, 1.011e-3
-1.829, 1.011e-3
-1.830, 1.011e-3
-1.831, 1.011e-3
-1.832, 1.011e-3
-1.833, 1.011e-3
-1.834, 1.011e-3
-1.835, 1.011e-3
-1.836, 1.011e-3
-1.837, 1.011e-3
-1.838, 1.011e-3
-1.839, 1.011e-3
-1.840, 1.011e-3
-1.841, 1.011e-3
-1.842, 1.011e-3
-1.843, 1.011e-3
-1.844, 1.011e-3
-1.845, 1.011e-3
-1.846, 1.011e-3
-1.847, 1.011e-3
-1.848, 1.011e-3
-1.849, 1.011e-3
-1.850, 1.011e-3
-1.851, 1.011e-3
-1.852, 1.011e-3
-1.853, 1.011e-3
-1.854, 1.011e-3
-1.855, 1.011e-3
-1.856, 1.011e-3
-1.857, 1.011e-3
-1.858, 1.011e-3
-1.859, 1.011e-3
-1.860, 1.011e-3
-1.861, 1.011e-3
-1.862, 1.011e-3
-1.863, 1.011e-3
-1.864, 1.011e-3
-1.865, 1.011e-3
-1.866, 1.011e-3
-1.867, 1.011e-3
-1.868, 1.011e-3
-1.869, 1.011e-3
-1.870, 1.011e-3
-1.871, 1.011e-3
-1.872, 1.011e-3
-1.873, 1.011e-3
-1.874, 1.011e-3
-1.875, 1.011e-3
-1.876, 1.011e-3
-1.877, 1.011e-3
-1.878, 1.011e-3
-1.879, 1.011e-3
-1.880, 1.011e-3
-1.881, 1.011e-3
-1.882, 1.011e-3
-1.883, 1.011e-3
-1.884, 1.011e-3
-1.885, 1.011e-3
-1.886, 1.011e-3
-1.887, 1.011e-3
-1.888, 1.011e-3
-1.889, 1.011e-3
-1.890, 1.011e-3
-1.891, 1.011e-3
-1.892, 1.011e-3
-1.893, 1.011e-3
-1.894, 1.011e-3
-1.895, 1.011e-3
-1.896, 1.011e-3
-1.897, 1.011e-3
-1.898, 1.011e-3
-1.899, 1.011e-3
