Potential V vs RHE, Current mA cm-2
0.05339999999999995,-0.018023421960280565
0.05239999999999995,-0.01928251501716045
0.051399999999999946,-0.019805958198110513
0.050399999999999945,-0.020173783136075422
0.049399999999999944,-0.02052746096104168
0.04839999999999994,-0.020895285899006594
0.04739999999999994,-0.02122066949797555
0.04639999999999994,-0.021517758870947205
0.04539999999999994,-0.021814848243918866
0.04439999999999994,-0.022126084729889174
0.04339999999999994,-0.02245146832885813
0.04239999999999994,-0.02276270481482844
0.04139999999999994,-0.023017352848804146
0.040399999999999936,-0.02327200088277985
0.039399999999999935,-0.02359738448174881
0.038399999999999934,-0.02393691519371642
0.03739999999999993,-0.024219857453689427
0.03639999999999993,-0.02447450548766513
0.03539999999999993,-0.02475744774763814
0.03439999999999993,-0.0250545371206098
0.03339999999999993,-0.02537992071957876
0.03239999999999993,-0.025691157205549067
0.03139999999999993,-0.02594580523952477
0.030399999999999927,-0.02624289461249643
0.029399999999999926,-0.02655413109846674
0.028399999999999925,-0.026865367584437045
0.027399999999999924,-0.027162456957408702
0.026399999999999924,-0.027445399217381712
0.025399999999999923,-0.02772834147735472
0.024399999999999922,-0.028039577963325023
0.02339999999999992,-0.028379108675292634
0.02239999999999992,-0.028704492274261594
0.02139999999999992,-0.028973287421235953
0.020399999999999918,-0.029284523907206258
0.019399999999999917,-0.02959576039317657
0.018399999999999916,-0.029949438218142825
0.017399999999999916,-0.030260674704113137
0.016399999999999915,-0.030529469851087492
0.015399999999999914,-0.03082655922405915
0.014399999999999913,-0.031137795710029458
0.013399999999999912,-0.031505620647994365
0.012399999999999911,-0.03181685713396468
0.01139999999999991,-0.03209979939393768
0.01039999999999991,-0.032425182992906636
0.009399999999999908,-0.032736419478876955
0.008399999999999908,-0.033090097303843206
0.007399999999999907,-0.03344377512880947
0.006399999999999906,-0.03375501161477978
0.005399999999999905,-0.03408039521374873
0.004399999999999904,-0.03443407303871499
0.003399999999999903,-0.03478775086368125
0.002399999999999902,-0.035127281575648865
0.0013999999999999013,-0.03543851806161917
0.00039999999999990044,-0.03576390166058813
-0.0006000000000001005,-0.03614587371155169
-0.0016000000000001013,-0.0365136986495166
-0.0026000000000001022,-0.036881523587481514
-0.003600000000000103,-0.037221054299449115
-0.004600000000000104,-0.03756058501141672
-0.005600000000000105,-0.03791426283638299
-0.006600000000000106,-0.03832452911334384
-0.007600000000000107,-0.0386782069383101
-0.008600000000000108,-0.03903188476327636
-0.009600000000000108,-0.03935726836224532
-0.01060000000000011,-0.03975338752620753
-0.01160000000000011,-0.04016365380316839
-0.012600000000000111,-0.040531478741133296
-0.013600000000000112,-0.040885156566099555
-0.014600000000000113,-0.04126712861706312
-0.015600000000000114,-0.041620806442029375
-0.016600000000000115,-0.04204521983198889
-0.017600000000000116,-0.04242719188295245
-0.018600000000000116,-0.04279501682091736
-0.019600000000000117,-0.04316284175888227
-0.020600000000000118,-0.04355896092284448
-0.02160000000000012,-0.04401166853880129
-0.02260000000000012,-0.0444077877027635
-0.02360000000000012,-0.04474731841473111
-0.024600000000000122,-0.045143437578693324
-0.025600000000000123,-0.04555370385565418
-0.026600000000000124,-0.04597811724561369
-0.027600000000000124,-0.0463742364095759
-0.028600000000000125,-0.04674206134754081
-0.029600000000000126,-0.04715232762450167
-0.030600000000000127,-0.04756259390146254
-0.03160000000000013,-0.048029448630418
-0.03260000000000013,-0.048439714907378854
-0.03360000000000013,-0.048821686958342415
-0.03460000000000002,-0.04924610034830192
-0.03560000000000002,-0.04967051373826144
-0.03660000000000002,-0.050094927128220945
-0.03760000000000002,-0.050533487631179104
-0.03860000000000002,-0.05094375390813997
-0.039600000000000024,-0.05135402018510083
-0.040600000000000025,-0.051764286462061694
-0.041600000000000026,-0.052231141191017155
-0.04260000000000003,-0.052683848806973965
-0.04360000000000003,-0.05309411508393482
-0.04460000000000003,-0.053504381360895685
-0.04560000000000003,-0.053957088976852495
-0.04660000000000003,-0.05442394370580796
-0.04760000000000003,-0.05486250420876612
-0.04860000000000003,-0.055272770485726985
-0.04960000000000003,-0.05568303676268785
-0.050600000000000034,-0.05613574437864466
-0.051600000000000035,-0.05661674622059877
-0.052600000000000036,-0.057069453836555574
-0.053600000000000037,-0.057493867226515095
-0.05460000000000004,-0.057904133503475945
-0.05560000000000004,-0.05834269400643411
-0.05660000000000004,-0.05880954873538958
-0.05760000000000004,-0.059248109238347745
-0.05860000000000004,-0.05964422840230994
-0.05960000000000004,-0.06008278890526811
-0.06060000000000004,-0.060521349408226274
-0.061600000000000044,-0.06100235125018039
-0.06260000000000004,-0.06146920597913584
-0.06360000000000005,-0.06189361936909534
-0.06460000000000005,-0.06231803275905486
-0.06560000000000005,-0.06278488748801032
-0.06660000000000005,-0.0632800364429631
-0.06760000000000005,-0.06374689117191855
-0.06860000000000005,-0.06417130456187807
-0.06960000000000005,-0.06462401217783488
-0.07060000000000005,-0.06507671979379169
-0.07160000000000005,-0.0655577216357458
-0.07260000000000005,-0.06602457636470126
-0.07360000000000005,-0.06646313686765942
-0.07460000000000006,-0.06688755025761894
-0.07560000000000006,-0.06734025787357575
-0.07660000000000006,-0.06782125971552985
-0.07760000000000006,-0.06831640867048261
-0.07860000000000006,-0.06872667494744349
-0.07960000000000006,-0.06912279411140569
-0.08060000000000006,-0.06958964884036115
-0.08160000000000006,-0.07007065068231526
-0.08260000000000006,-0.07053750541127073
-0.08360000000000006,-0.07096191880123023
-0.08460000000000006,-0.07141462641718704
-0.08560000000000006,-0.07185318692014521
-0.08660000000000007,-0.07233418876209932
-0.08760000000000007,-0.0727727492650575
-0.08860000000000007,-0.07319716265501701
-0.08960000000000007,-0.07363572315797516
-0.09060000000000007,-0.07407428366093333
-0.09160000000000007,-0.07455528550288744
-0.09260000000000007,-0.07500799311884425
-0.09360000000000007,-0.0754182593958051
-0.09460000000000007,-0.07584267278576462
-0.09560000000000007,-0.07628123328872279
-0.09660000000000007,-0.0767339409046796
-0.09760000000000008,-0.0771583542946391
-0.09860000000000008,-0.07758276768459862
-0.09960000000000008,-0.07800718107455813
-0.10060000000000008,-0.07841744735151898
-0.10160000000000008,-0.0788984491934731
-0.10260000000000008,-0.0793511568094299
-0.10360000000000008,-0.07973312886039347
-0.10460000000000008,-0.08008680668535972
-0.10560000000000008,-0.08048292584932194
-0.10660000000000008,-0.08094978057827738
-0.10760000000000008,-0.0813741939682369
-0.10860000000000009,-0.08178446024519778
-0.10960000000000009,-0.08219472652215863
-0.11060000000000009,-0.08257669857312219
-0.11160000000000009,-0.0830011119630817
-0.11260000000000009,-0.08341137824004256
-0.11360000000000009,-0.08375090895201018
-0.11460000000000009,-0.08411873388997508
-0.11560000000000009,-0.08451485305393729
-0.11660000000000009,-0.08492511933089815
-0.1176000000000001,-0.08533538560785901
-0.1186000000000001,-0.08568906343282526
-0.1196000000000001,-0.08604274125779153
-0.1206000000000001,-0.08643886042175375
-0.1216000000000001,-0.08680668535971865
-0.1226000000000001,-0.08718865741068221
-0.1236000000000001,-0.08751404100965117
-0.1246000000000001,-0.08782527749562147
-0.1256000000000001,-0.08817895532058774
-0.1266000000000001,-0.08854678025855263
-0.1276000000000001,-0.08891460519651756
-0.1286000000000001,-0.08925413590848516
-0.1296000000000001,-0.08957951950745412
-0.1306000000000001,-0.08990490310642309
-0.1316000000000001,-0.09028687515738665
-0.1326000000000001,-0.0906405529823529
-0.1336000000000001,-0.0909517894683232
-0.1346000000000001,-0.09124887884129487
-0.1356000000000001,-0.09156011532726518
-0.1366000000000001,-0.09191379315223143
-0.1376000000000001,-0.09222502963820174
-0.1386000000000001,-0.09253626612417204
-0.1396000000000001,-0.09281920838414506
-0.1406000000000001,-0.09311629775711672
-0.14160000000000011,-0.09345582846908432
-0.14260000000000012,-0.09376706495505463
-0.14360000000000012,-0.09402171298903034
-0.14460000000000012,-0.09429050813600469
-0.14560000000000012,-0.09455930328297905
-0.14660000000000012,-0.09488468688194801
-0.14760000000000012,-0.09515348202892236
-0.14860000000000012,-0.09539398294989941
-0.14960000000000012,-0.09566277809687378
-0.15060000000000012,-0.09590327901785084
-0.15160000000000012,-0.0962003683908225
-0.15260000000000012,-0.0964833106507955
-0.15360000000000013,-0.09669551734577525
-0.15460000000000013,-0.09692187115375367
-0.15560000000000013,-0.09714822496173206
-0.15660000000000013,-0.09740287299570777
-0.15760000000000013,-0.09765752102968349
-0.15860000000000013,-0.09785558061166459
-0.15960000000000002,-0.09806778730664434
-0.16060000000000002,-0.09827999400162409
-0.16160000000000002,-0.09854878914859845
-0.16260000000000002,-0.09876099584357821
-0.16360000000000002,-0.09894490831256067
-0.16460000000000002,-0.09912882078154311
-0.16560000000000002,-0.09938346881551882
-0.16660000000000003,-0.09962396973649587
-0.16760000000000003,-0.09980788220547833
-0.16860000000000003,-0.09997764756146214
-0.16960000000000003,-0.1001332658044473
-0.17060000000000003,-0.10031717827342976
-0.17160000000000003,-0.10052938496840952
-0.17260000000000003,-0.10071329743739196
-0.17360000000000003,-0.10086891568037712
-0.17460000000000003,-0.10102453392336228
-0.17560000000000003,-0.10116600505334877
-0.17660000000000003,-0.10137821174832852
-0.17760000000000004,-0.10153382999131368
-0.17860000000000004,-0.10167530112130019
-0.17960000000000004,-0.10181677225128669
-0.18060000000000004,-0.1019299491552759
-0.18160000000000004,-0.10211386162425835
-0.18260000000000004,-0.10228362698024217
-0.18360000000000004,-0.10239680388423136
-0.18460000000000004,-0.10250998078822056
-0.18560000000000004,-0.10262315769220977
-0.18660000000000004,-0.10279292304819357
-0.18760000000000004,-0.10293439417818008
-0.18860000000000005,-0.10299098263017467
-0.18960000000000005,-0.10309001242116521
-0.19060000000000005,-0.10321733643815308
-0.19160000000000005,-0.10335880756813957
-0.19260000000000005,-0.10350027869812609
-0.19360000000000005,-0.10359930848911664
-0.19460000000000005,-0.10368419116710853
-0.19560000000000005,-0.10379736807109774
-0.19660000000000005,-0.10391054497508695
-0.19760000000000005,-0.10402372187907614
-0.19860000000000005,-0.10410860455706805
-0.19960000000000006,-0.10416519300906264
-0.20060000000000006,-0.10426422280005321
-0.20160000000000006,-0.10437739970404242
-0.20260000000000006,-0.10449057660803161
-0.20360000000000006,-0.10457545928602352
-0.20460000000000006,-0.10461790062501947
-0.20560000000000006,-0.10471693041601002
-0.20660000000000006,-0.10480181309400192
-0.20760000000000006,-0.10491498999799112
-0.20860000000000006,-0.10497157844998573
-0.20960000000000006,-0.10502816690198033
-0.21060000000000006,-0.10509890246697358
-0.21160000000000007,-0.10521207937096277
-0.21260000000000007,-0.10529696204895468
-0.21360000000000007,-0.10535355050094929
-0.21460000000000007,-0.10541013895294389
-0.21560000000000007,-0.10548087451793714
-0.21660000000000007,-0.105608198534925
-0.21760000000000007,-0.10570722832591554
-0.21860000000000007,-0.10574966966491149
-0.21960000000000007,-0.10579211100390745
-0.22060000000000007,-0.1058345523429034
-0.22160000000000007,-0.10593358213389395
-0.22260000000000008,-0.10601846481188584
-0.22360000000000008,-0.10604675903788315
-0.22460000000000008,-0.10610334748987776
-0.22560000000000008,-0.10615993594187234
-0.22660000000000008,-0.10623067150686559
-0.22760000000000008,-0.10632970129785616
-0.22860000000000008,-0.10634384841085481
-0.22960000000000008,-0.10641458397584806
-0.23060000000000008,-0.10645702531484401
-0.23160000000000008,-0.10655605510583457
-0.23260000000000008,-0.10661264355782916
-0.23360000000000009,-0.10665508489682511
-0.2346000000000001,-0.10668337912282241
-0.2356000000000001,-0.10673996757481702
-0.2366000000000001,-0.10682485025280893
-0.2376000000000001,-0.10692388004379948
-0.2386000000000001,-0.10695217426979677
-0.2396000000000001,-0.10698046849579408
-0.2406000000000001,-0.10703705694778867
-0.2416000000000001,-0.10712193962578058
-0.2426000000000001,-0.10722096941677112
-0.2436000000000001,-0.10726341075576709
-0.2446000000000001,-0.10727755786876574
-0.2456000000000001,-0.10733414632076034
-0.2466000000000001,-0.10743317611175088
-0.2476000000000001,-0.10751805878974278
-0.2486000000000001,-0.10756050012873873
-0.2496000000000001,-0.10758879435473605
-0.2506000000000001,-0.10764538280673064
-0.2516000000000001,-0.10774441259772119
-0.2526000000000001,-0.10781514816271445
-0.2536000000000001,-0.1078575895017104
-0.2546000000000001,-0.10790003084070635
-0.2556000000000001,-0.10797076640569962
-0.2566000000000001,-0.10806979619669015
-0.2576000000000001,-0.10812638464868475
-0.2586000000000001,-0.10815467887468207
-0.2596000000000001,-0.10821126732667666
-0.2606000000000001,-0.10826785577867125
-0.2616000000000001,-0.1083668855696618
-0.2626000000000001,-0.10846591536065237
-0.2636000000000001,-0.10849420958664967
-0.2646000000000001,-0.10856494515164292
-0.2656000000000001,-0.10860738649063886
-0.2666000000000001,-0.10870641628162941
-0.2676000000000001,-0.10881959318561862
-0.2686000000000001,-0.10886203452461457
-0.2696000000000001,-0.10893277008960783
-0.2706000000000001,-0.10898935854160242
-0.2716000000000001,-0.10910253544559163
-0.2726000000000001,-0.10920156523658218
-0.2736000000000001,-0.10924400657557813
-0.2746000000000001,-0.1093147421405714
-0.2756000000000001,-0.10939962481856329
-0.2766000000000001,-0.10949865460955385
-0.2776000000000001,-0.10961183151354303
-0.2786000000000001,-0.10965427285253901
-0.2796000000000001,-0.10972500841753224
-0.2806000000000001,-0.10980989109552414
-0.28160000000000013,-0.10995136222551065
-0.28260000000000013,-0.11006453912949986
-0.28360000000000013,-0.1101069804684958
-0.2846,-0.11017771603348907
-0.2856,-0.1102484515984823
-0.2866,-0.1103899227284688
-0.2876,-0.11050309963245801
-0.2886,-0.11057383519745125
-0.2896,-0.11064457076244452
-0.2906,-0.11072945344043642
-0.2916,-0.11087092457042293
-0.2926,-0.11098410147441214
-0.2936,-0.11106898415240402
-0.29460000000000003,-0.11116801394339458
-0.29560000000000003,-0.11125289662138649
-0.29660000000000003,-0.11139436775137299
-0.29760000000000003,-0.11152169176836085
-0.29860000000000003,-0.11160657444635275
-0.29960000000000003,-0.1117056042373433
-0.30060000000000003,-0.1117904869153352
-0.30160000000000003,-0.11194610515832035
-0.30260000000000004,-0.11208757628830686
-0.30360000000000004,-0.11217245896629877
-0.30460000000000004,-0.11227148875728932
-0.30560000000000004,-0.11238466566127853
-0.30660000000000004,-0.11255443101726233
-0.30760000000000004,-0.11271004926024747
-0.30860000000000004,-0.11280907905123803
-0.30960000000000004,-0.11290810884222857
-0.31060000000000004,-0.11302128574621777
-0.31160000000000004,-0.1131910511022016
-0.31260000000000004,-0.1133325222321881
-0.31360000000000005,-0.1134456991361773
-0.31460000000000005,-0.11355887604016648
-0.31560000000000005,-0.11368620005715435
-0.31660000000000005,-0.11385596541313814
-0.31760000000000005,-0.11402573076912197
-0.31860000000000005,-0.11415305478610982
-0.31960000000000005,-0.1143228201420936
-0.32060000000000005,-0.11446429127208012
-0.32160000000000005,-0.11463405662806392
-0.32260000000000005,-0.11481796909704638
-0.32360000000000005,-0.11495944022703289
-0.32460000000000006,-0.11508676424402071
-0.32560000000000006,-0.11525652960000454
-0.32660000000000006,-0.1154687362949843
-0.32760000000000006,-0.11566679587696539
-0.32860000000000006,-0.1158365612329492
-0.32960000000000006,-0.11600632658893299
-0.33060000000000006,-0.11617609194491682
-0.33160000000000006,-0.11643073997889253
-0.33260000000000006,-0.11664294667387226
-0.33360000000000006,-0.11682685914285473
-0.33460000000000006,-0.11701077161183718
-0.33560000000000006,-0.11719468408081965
-0.33660000000000007,-0.11743518500179671
-0.33760000000000007,-0.11767568592277375
-0.33860000000000007,-0.11787374550475484
-0.33960000000000007,-0.11807180508673595
-0.34060000000000007,-0.11825571755571843
-0.34160000000000007,-0.11851036558969412
-0.34260000000000007,-0.11876501362366983
-0.34360000000000007,-0.11896307320565094
-0.3446000000000001,-0.11917527990063068
-0.3456000000000001,-0.1194016337086091
-0.3466000000000001,-0.11967042885558345
-0.34759999999999996,-0.11995337111555646
-0.3486000000000001,-0.1201938720365335
-0.34959999999999997,-0.12042022584451192
-0.3506000000000001,-0.12064657965249034
-0.35159999999999997,-0.12095781613846063
-0.3526000000000001,-0.12124075839843364
-0.35359999999999997,-0.1214529650934134
-0.3546000000000001,-0.12170761312738912
-0.35559999999999997,-0.12194811404836617
-0.3566000000000001,-0.12223105630833916
-0.3576,-0.12254229279430948
-0.3586000000000001,-0.12282523505428247
-0.3596,-0.12309403020125685
-0.3606000000000001,-0.12337697246122986
-0.3616,-0.12368820894720017
-0.3626000000000001,-0.12404188677216642
-0.3636,-0.12433897614513807
-0.3646000000000001,-0.12462191840511107
-0.3656,-0.12491900777808274
-0.3666000000000001,-0.1252443913770517
-0.3676,-0.1255839220890193
-0.3686000000000001,-0.1258668643489923
-0.3696,-0.12619224794796124
-0.3706000000000001,-0.12653177865992887
-0.3716,-0.12691375071089245
-0.3726000000000001,-0.1272674285358587
-0.3736,-0.1276069592478263
-0.3746000000000001,-0.1279464899597939
-0.3756,-0.12825772644576422
-0.3766000000000001,-0.12866799272272508
-0.3776,-0.12904996477368866
-0.3786000000000001,-0.1293753483726576
-0.3796,-0.1297148790846252
-0.3806000000000001,-0.13011099824858743
-0.3816,-0.13053541163854693
-0.3826000000000001,-0.13094567791550782
-0.3836,-0.13132764996647137
-0.3846000000000001,-0.13170962201743494
-0.3856,-0.1320915940683985
-0.3866000000000001,-0.13250186034535932
-0.3876,-0.13292627373531885
-0.3886000000000001,-0.1333082457862824
-0.3896,-0.13371851206324328
-0.3906000000000001,-0.1341146312272055
-0.3916,-0.1345956330691596
-0.3926000000000001,-0.1350483406851164
-0.3936,-0.1354586069620773
-0.3946000000000001,-0.13588302035203678
-0.3956,-0.13632158085499493
-0.3966000000000001,-0.13677428847095174
-0.3976,-0.1372694374259045
-0.3986000000000001,-0.13770799792886268
-0.3996,-0.13814655843182086
-0.4006000000000001,-0.13861341316077627
-0.4016,-0.13910856211572906
-0.4026000000000001,-0.13963200529667913
-0.4036,-0.1400847129126359
-0.4046000000000001,-0.14052327341559406
-0.4056,-0.14103256948354553
-0.40660000000000013,-0.14147112998650369
-0.4076,-0.1420370145064497
-0.40860000000000013,-0.1424614278964092
-0.4096,-0.14302731241635522
-0.41060000000000013,-0.1434517258063147
-0.4116,-0.14401761032626076
-0.41260000000000013,-0.14444202371622025
-0.4136,-0.14500790823616627
-0.41460000000000014,-0.14543232162612577
-0.4156,-0.14599820614607179
-0.41660000000000014,-0.1465640906660178
-0.4176,-0.14712997518596382
-0.41860000000000014,-0.14755438857592332
-0.41960000000000003,-0.14812027309586934
-0.42060000000000014,-0.14854468648582883
-0.42160000000000003,-0.14925204213576138
-0.42260000000000014,-0.1498179266557074
-0.42360000000000003,-0.1502423400456669
-0.42460000000000014,-0.1508082245656129
-0.42560000000000003,-0.1512326379555724
-0.42660000000000015,-0.15193999360550495
-0.42760000000000004,-0.15250587812545094
-0.42860000000000015,-0.15293029151541046
-0.42960000000000004,-0.15349617603535648
-0.43060000000000015,-0.1540620605553025
-0.43160000000000004,-0.15462794507524852
-0.43260000000000015,-0.1551938295951945
-0.43360000000000004,-0.15561824298515403
-0.43460000000000015,-0.15618412750510002
-0.43560000000000004,-0.15675001202504607
