Mar. 4, 2025   09:39:17
Cyclic Voltammetry
File: c:/users/guazh/data/banditlqround7_x0exp169_r20_3/2025-03-03-exp866\exp866-2025-03-04t09_28_59-arkoh\exp866_cv_sr_300mvs_efin_-1500mv.bin
Data Source:  Experiment
Instrument Model:  CHI760E
Header: CV ran at 300 mVs
Note: 

Init E (V) = -1
High E (V) = -1
Low E (V) = -1.5
Final E (V) = -1
Init P/N = N
Scan Rate (V/s) = 0.3
Segment = 3
Sample Interval (V) = 0.001
Quiet Time (sec) = 2
Sensitivity (A/V) = 0.01
Comp R (ohm) = 1.8

Results:

Channel 1:
Segment 1:

Segment 2:

Segment 3:

Potential/V, Current/A

-1.000, 3.099e-5
-1.001, 9.265e-5
-1.002, 1.235e-4
-1.003, 1.451e-4
-1.004, 1.666e-4
-1.005, 1.821e-4
-1.006, 1.851e-4
-1.007, 1.851e-4
-1.008, 1.882e-4
-1.009, 1.944e-4
-1.010, 2.036e-4
-1.011, 2.006e-4
-1.012, 1.975e-4
-1.013, 1.975e-4
-1.014, 2.036e-4
-1.015, 2.098e-4
-1.016, 2.067e-4
-1.017, 2.036e-4
-1.018, 2.006e-4
-1.019, 2.067e-4
-1.020, 2.129e-4
-1.021, 2.098e-4
-1.022, 2.067e-4
-1.023, 2.036e-4
-1.024, 2.098e-4
-1.025, 2.160e-4
-1.026, 2.129e-4
-1.027, 2.098e-4
-1.028, 2.067e-4
-1.029, 2.129e-4
-1.030, 2.191e-4
-1.031, 2.160e-4
-1.032, 2.098e-4
-1.033, 2.098e-4
-1.034, 2.160e-4
-1.035, 2.191e-4
-1.036, 2.191e-4
-1.037, 2.129e-4
-1.038, 2.098e-4
-1.039, 2.160e-4
-1.040, 2.221e-4
-1.041, 2.221e-4
-1.042, 2.160e-4
-1.043, 2.129e-4
-1.044, 2.191e-4
-1.045, 2.252e-4
-1.046, 2.221e-4
-1.047, 2.160e-4
-1.048, 2.160e-4
-1.049, 2.191e-4
-1.050, 2.252e-4
-1.051, 2.221e-4
-1.052, 2.160e-4
-1.053, 2.160e-4
-1.054, 2.191e-4
-1.055, 2.252e-4
-1.056, 2.221e-4
-1.057, 2.160e-4
-1.058, 2.160e-4
-1.059, 2.221e-4
-1.060, 2.252e-4
-1.061, 2.221e-4
-1.062, 2.160e-4
-1.063, 2.160e-4
-1.064, 2.191e-4
-1.065, 2.252e-4
-1.066, 2.221e-4
-1.067, 2.191e-4
-1.068, 2.191e-4
-1.069, 2.221e-4
-1.070, 2.283e-4
-1.071, 2.252e-4
-1.072, 2.191e-4
-1.073, 2.191e-4
-1.074, 2.221e-4
-1.075, 2.283e-4
-1.076, 2.252e-4
-1.077, 2.191e-4
-1.078, 2.160e-4
-1.079, 2.221e-4
-1.080, 2.252e-4
-1.081, 2.252e-4
-1.082, 2.191e-4
-1.083, 2.191e-4
-1.084, 2.252e-4
-1.085, 2.283e-4
-1.086, 2.252e-4
-1.087, 2.191e-4
-1.088, 2.191e-4
-1.089, 2.252e-4
-1.090, 2.283e-4
-1.091, 2.283e-4
-1.092, 2.221e-4
-1.093, 2.221e-4
-1.094, 2.252e-4
-1.095, 2.314e-4
-1.096, 2.283e-4
-1.097, 2.252e-4
-1.098, 2.221e-4
-1.099, 2.283e-4
-1.100, 2.314e-4
-1.101, 2.314e-4
-1.102, 2.252e-4
-1.103, 2.221e-4
-1.104, 2.283e-4
-1.105, 2.314e-4
-1.106, 2.314e-4
-1.107, 2.252e-4
-1.108, 2.221e-4
-1.109, 2.283e-4
-1.110, 2.345e-4
-1.111, 2.314e-4
-1.112, 2.252e-4
-1.113, 2.252e-4
-1.114, 2.283e-4
-1.115, 2.345e-4
-1.116, 2.314e-4
-1.117, 2.252e-4
-1.118, 2.252e-4
-1.119, 2.283e-4
-1.120, 2.345e-4
-1.121, 2.314e-4
-1.122, 2.252e-4
-1.123, 2.221e-4
-1.124, 2.283e-4
-1.125, 2.345e-4
-1.126, 2.314e-4
-1.127, 2.252e-4
-1.128, 2.252e-4
-1.129, 2.283e-4
-1.130, 2.345e-4
-1.131, 2.314e-4
-1.132, 2.283e-4
-1.133, 2.252e-4
-1.134, 2.314e-4
-1.135, 2.345e-4
-1.136, 2.314e-4
-1.137, 2.283e-4
-1.138, 2.252e-4
-1.139, 2.314e-4
-1.140, 2.376e-4
-1.141, 2.345e-4
-1.142, 2.314e-4
-1.143, 2.314e-4
-1.144, 2.376e-4
-1.145, 2.437e-4
-1.146, 2.406e-4
-1.147, 2.345e-4
-1.148, 2.345e-4
-1.149, 2.406e-4
-1.150, 2.468e-4
-1.151, 2.437e-4
-1.152, 2.406e-4
-1.153, 2.376e-4
-1.154, 2.437e-4
-1.155, 2.468e-4
-1.156, 2.468e-4
-1.157, 2.406e-4
-1.158, 2.406e-4
-1.159, 2.437e-4
-1.160, 2.468e-4
-1.161, 2.468e-4
-1.162, 2.406e-4
-1.163, 2.406e-4
-1.164, 2.437e-4
-1.165, 2.499e-4
-1.166, 2.499e-4
-1.167, 2.437e-4
-1.168, 2.437e-4
-1.169, 2.499e-4
-1.170, 2.530e-4
-1.171, 2.530e-4
-1.172, 2.499e-4
-1.173, 2.468e-4
-1.174, 2.530e-4
-1.175, 2.591e-4
-1.176, 2.561e-4
-1.177, 2.530e-4
-1.178, 2.530e-4
-1.179, 2.591e-4
-1.180, 2.653e-4
-1.181, 2.622e-4
-1.182, 2.591e-4
-1.183, 2.561e-4
-1.184, 2.622e-4
-1.185, 2.684e-4
-1.186, 2.684e-4
-1.187, 2.622e-4
-1.188, 2.622e-4
-1.189, 2.684e-4
-1.190, 2.746e-4
-1.191, 2.746e-4
-1.192, 2.684e-4
-1.193, 2.684e-4
-1.194, 2.746e-4
-1.195, 2.807e-4
-1.196, 2.807e-4
-1.197, 2.746e-4
-1.198, 2.746e-4
-1.199, 2.807e-4
-1.200, 2.869e-4
-1.201, 2.869e-4
-1.202, 2.838e-4
-1.203, 2.838e-4
-1.204, 2.900e-4
-1.205, 2.992e-4
-1.206, 2.992e-4
-1.207, 2.931e-4
-1.208, 2.931e-4
-1.209, 3.023e-4
-1.210, 3.085e-4
-1.211, 3.085e-4
-1.212, 3.054e-4
-1.213, 3.054e-4
-1.214, 3.115e-4
-1.215, 3.208e-4
-1.216, 3.208e-4
-1.217, 3.177e-4
-1.218, 3.177e-4
-1.219, 3.239e-4
-1.220, 3.300e-4
-1.221, 3.300e-4
-1.222, 3.300e-4
-1.223, 3.300e-4
-1.224, 3.362e-4
-1.225, 3.455e-4
-1.226, 3.455e-4
-1.227, 3.424e-4
-1.228, 3.455e-4
-1.229, 3.578e-4
-1.230, 3.640e-4
-1.231, 3.640e-4
-1.232, 3.609e-4
-1.233, 3.640e-4
-1.234, 3.732e-4
-1.235, 3.825e-4
-1.236, 3.825e-4
-1.237, 3.794e-4
-1.238, 3.825e-4
-1.239, 3.917e-4
-1.240, 3.979e-4
-1.241, 4.010e-4
-1.242, 3.979e-4
-1.243, 4.040e-4
-1.244, 4.133e-4
-1.245, 4.225e-4
-1.246, 4.256e-4
-1.247, 4.256e-4
-1.248, 4.287e-4
-1.249, 4.380e-4
-1.250, 4.503e-4
-1.251, 4.565e-4
-1.252, 4.565e-4
-1.253, 4.595e-4
-1.254, 4.719e-4
-1.255, 4.842e-4
-1.256, 4.904e-4
-1.257, 4.904e-4
-1.258, 4.935e-4
-1.259, 5.058e-4
-1.260, 5.181e-4
-1.261, 5.212e-4
-1.262, 5.243e-4
-1.263, 5.274e-4
-1.264, 5.397e-4
-1.265, 5.520e-4
-1.266, 5.582e-4
-1.267, 5.582e-4
-1.268, 5.644e-4
-1.269, 5.767e-4
-1.270, 5.921e-4
-1.271, 5.983e-4
-1.272, 5.983e-4
-1.273, 6.075e-4
-1.274, 6.199e-4
-1.275, 6.353e-4
-1.276, 6.414e-4
-1.277, 6.445e-4
-1.278, 6.507e-4
-1.279, 6.661e-4
-1.280, 6.815e-4
-1.281, 6.908e-4
-1.282, 6.969e-4
-1.283, 7.031e-4
-1.284, 7.185e-4
-1.285, 7.370e-4
-1.286, 7.432e-4
-1.287, 7.494e-4
-1.288, 7.586e-4
-1.289, 7.740e-4
-1.290, 7.894e-4
-1.291, 8.018e-4
-1.292, 8.079e-4
-1.293, 8.203e-4
-1.294, 8.388e-4
-1.295, 8.573e-4
-1.296, 8.665e-4
-1.297, 8.727e-4
-1.298, 8.881e-4
-1.299, 9.066e-4
-1.300, 9.251e-4
-1.301, 9.374e-4
-1.302, 9.467e-4
-1.303, 9.590e-4
-1.304, 9.806e-4
-1.305, 9.991e-4
-1.306, 1.014e-3
-1.307, 1.027e-3
-1.308, 1.039e-3
-1.309, 1.064e-3
-1.310, 1.085e-3
-1.311, 1.104e-3
-1.312, 1.116e-3
-1.313, 1.132e-3
-1.314, 1.156e-3
-1.315, 1.178e-3
-1.316, 1.193e-3
-1.317, 1.206e-3
-1.318, 1.218e-3
-1.319, 1.243e-3
-1.320, 1.264e-3
-1.321, 1.283e-3
-1.322, 1.292e-3
-1.323, 1.310e-3
-1.324, 1.332e-3
-1.325, 1.360e-3
-1.326, 1.378e-3
-1.327, 1.397e-3
-1.328, 1.415e-3
-1.329, 1.440e-3
-1.330, 1.465e-3
-1.331, 1.483e-3
-1.332, 1.499e-3
-1.333, 1.520e-3
-1.334, 1.545e-3
-1.335, 1.573e-3
-1.336, 1.594e-3
-1.337, 1.613e-3
-1.338, 1.634e-3
-1.339, 1.662e-3
-1.340, 1.693e-3
-1.341, 1.717e-3
-1.342, 1.736e-3
-1.343, 1.758e-3
-1.344, 1.785e-3
-1.345, 1.810e-3
-1.346, 1.832e-3
-1.347, 1.847e-3
-1.348, 1.865e-3
-1.349, 1.893e-3
-1.350, 1.921e-3
-1.351, 1.943e-3
-1.352, 1.964e-3
-1.353, 1.989e-3
-1.354, 2.020e-3
-1.355, 2.050e-3
-1.356, 2.075e-3
-1.357, 2.100e-3
-1.358, 2.128e-3
-1.359, 2.161e-3
-1.360, 2.195e-3
-1.361, 2.223e-3
-1.362, 2.251e-3
-1.363, 2.282e-3
-1.364, 2.322e-3
-1.365, 2.356e-3
-1.366, 2.386e-3
-1.367, 2.411e-3
-1.368, 2.439e-3
-1.369, 2.473e-3
-1.370, 2.510e-3
-1.371, 2.538e-3
-1.372, 2.559e-3
-1.373, 2.584e-3
-1.374, 2.618e-3
-1.375, 2.655e-3
-1.376, 2.686e-3
-1.377, 2.710e-3
-1.378, 2.738e-3
-1.379, 2.775e-3
-1.380, 2.812e-3
-1.381, 2.840e-3
-1.382, 2.864e-3
-1.383, 2.892e-3
-1.384, 2.926e-3
-1.385, 2.960e-3
-1.386, 2.991e-3
-1.387, 3.019e-3
-1.388, 3.049e-3
-1.389, 3.086e-3
-1.390, 3.120e-3
-1.391, 3.148e-3
-1.392, 3.176e-3
-1.393, 3.207e-3
-1.394, 3.244e-3
-1.395, 3.281e-3
-1.396, 3.314e-3
-1.397, 3.345e-3
-1.398, 3.379e-3
-1.399, 3.422e-3
-1.400, 3.466e-3
-1.401, 3.506e-3
-1.402, 3.540e-3
-1.403, 3.577e-3
-1.404, 3.617e-3
-1.405, 3.657e-3
-1.406, 3.688e-3
-1.407, 3.715e-3
-1.408, 3.743e-3
-1.409, 3.774e-3
-1.410, 3.811e-3
-1.411, 3.842e-3
-1.412, 3.866e-3
-1.413, 3.894e-3
-1.414, 3.931e-3
-1.415, 3.971e-3
-1.416, 4.002e-3
-1.417, 4.027e-3
-1.418, 4.054e-3
-1.419, 4.091e-3
-1.420, 4.132e-3
-1.421, 4.162e-3
-1.422, 4.196e-3
-1.423, 4.230e-3
-1.424, 4.270e-3
-1.425, 4.320e-3
-1.426, 4.363e-3
-1.427, 4.403e-3
-1.428, 4.446e-3
-1.429, 4.492e-3
-1.430, 4.538e-3
-1.431, 4.575e-3
-1.432, 4.619e-3
-1.433, 4.665e-3
-1.434, 4.714e-3
-1.435, 4.770e-3
-1.436, 4.813e-3
-1.437, 4.853e-3
-1.438, 4.896e-3
-1.439, 4.945e-3
-1.440, 4.998e-3
-1.441, 5.047e-3
-1.442, 5.084e-3
-1.443, 5.121e-3
-1.444, 5.164e-3
-1.445, 5.208e-3
-1.446, 5.245e-3
-1.447, 5.275e-3
-1.448, 5.312e-3
-1.449, 5.352e-3
-1.450, 5.393e-3
-1.451, 5.430e-3
-1.452, 5.460e-3
-1.453, 5.494e-3
-1.454, 5.528e-3
-1.455, 5.565e-3
-1.456, 5.590e-3
-1.457, 5.621e-3
-1.458, 5.651e-3
-1.459, 5.692e-3
-1.460, 5.735e-3
-1.461, 5.775e-3
-1.462, 5.818e-3
-1.463, 5.858e-3
-1.464, 5.907e-3
-1.465, 5.957e-3
-1.466, 6.003e-3
-1.467, 6.046e-3
-1.468, 6.089e-3
-1.469, 6.139e-3
-1.470, 6.188e-3
-1.471, 6.231e-3
-1.472, 6.274e-3
-1.473, 6.311e-3
-1.474, 6.364e-3
-1.475, 6.413e-3
-1.476, 6.459e-3
-1.477, 6.499e-3
-1.478, 6.543e-3
-1.479, 6.589e-3
-1.480, 6.641e-3
-1.481, 6.678e-3
-1.482, 6.718e-3
-1.483, 6.764e-3
-1.484, 6.811e-3
-1.485, 6.860e-3
-1.486, 6.906e-3
-1.487, 6.953e-3
-1.488, 6.999e-3
-1.489, 7.051e-3
-1.490, 7.110e-3
-1.491, 7.153e-3
-1.492, 7.199e-3
-1.493, 7.239e-3
-1.494, 7.289e-3
-1.495, 7.332e-3
-1.496, 7.366e-3
-1.497, 7.400e-3
-1.498, 7.434e-3
-1.499, 7.477e-3
-1.500, 7.458e-3
-1.499, 7.356e-3
-1.498, 7.279e-3
-1.497, 7.215e-3
-1.496, 7.165e-3
-1.495, 7.110e-3
-1.494, 7.057e-3
-1.493, 6.999e-3
-1.492, 6.946e-3
-1.491, 6.897e-3
-1.490, 6.845e-3
-1.489, 6.786e-3
-1.488, 6.724e-3
-1.487, 6.660e-3
-1.486, 6.607e-3
-1.485, 6.555e-3
-1.484, 6.499e-3
-1.483, 6.432e-3
-1.482, 6.364e-3
-1.481, 6.308e-3
-1.480, 6.256e-3
-1.479, 6.194e-3
-1.478, 6.120e-3
-1.477, 6.052e-3
-1.476, 5.988e-3
-1.475, 5.929e-3
-1.474, 5.861e-3
-1.473, 5.799e-3
-1.472, 5.738e-3
-1.471, 5.685e-3
-1.470, 5.636e-3
-1.469, 5.581e-3
-1.468, 5.525e-3
-1.467, 5.473e-3
-1.466, 5.423e-3
-1.465, 5.374e-3
-1.464, 5.325e-3
-1.463, 5.266e-3
-1.462, 5.217e-3
-1.461, 5.180e-3
-1.460, 5.140e-3
-1.459, 5.087e-3
-1.458, 5.026e-3
-1.457, 4.973e-3
-1.456, 4.924e-3
-1.455, 4.868e-3
-1.454, 4.810e-3
-1.453, 4.745e-3
-1.452, 4.690e-3
-1.451, 4.637e-3
-1.450, 4.594e-3
-1.449, 4.542e-3
-1.448, 4.483e-3
-1.447, 4.431e-3
-1.446, 4.387e-3
-1.445, 4.354e-3
-1.444, 4.310e-3
-1.443, 4.267e-3
-1.442, 4.233e-3
-1.441, 4.199e-3
-1.440, 4.172e-3
-1.439, 4.132e-3
-1.438, 4.088e-3
-1.437, 4.045e-3
-1.436, 4.005e-3
-1.435, 3.968e-3
-1.434, 3.925e-3
-1.433, 3.879e-3
-1.432, 3.842e-3
-1.431, 3.802e-3
-1.430, 3.765e-3
-1.429, 3.721e-3
-1.428, 3.672e-3
-1.427, 3.629e-3
-1.426, 3.592e-3
-1.425, 3.555e-3
-1.424, 3.509e-3
-1.423, 3.462e-3
-1.422, 3.416e-3
-1.421, 3.379e-3
-1.420, 3.345e-3
-1.419, 3.305e-3
-1.418, 3.259e-3
-1.417, 3.219e-3
-1.416, 3.188e-3
-1.415, 3.157e-3
-1.414, 3.117e-3
-1.413, 3.074e-3
-1.412, 3.037e-3
-1.411, 3.006e-3
-1.410, 2.978e-3
-1.409, 2.938e-3
-1.408, 2.898e-3
-1.407, 2.861e-3
-1.406, 2.830e-3
-1.405, 2.803e-3
-1.404, 2.769e-3
-1.403, 2.735e-3
-1.402, 2.704e-3
-1.401, 2.679e-3
-1.400, 2.655e-3
-1.399, 2.621e-3
-1.398, 2.587e-3
-1.397, 2.553e-3
-1.396, 2.525e-3
-1.395, 2.497e-3
-1.394, 2.460e-3
-1.393, 2.417e-3
-1.392, 2.380e-3
-1.391, 2.353e-3
-1.390, 2.328e-3
-1.389, 2.294e-3
-1.388, 2.260e-3
-1.387, 2.229e-3
-1.386, 2.208e-3
-1.385, 2.183e-3
-1.384, 2.149e-3
-1.383, 2.115e-3
-1.382, 2.084e-3
-1.381, 2.060e-3
-1.380, 2.035e-3
-1.379, 2.004e-3
-1.378, 1.970e-3
-1.377, 1.943e-3
-1.376, 1.921e-3
-1.375, 1.899e-3
-1.374, 1.872e-3
-1.373, 1.838e-3
-1.372, 1.810e-3
-1.371, 1.788e-3
-1.370, 1.767e-3
-1.369, 1.739e-3
-1.368, 1.708e-3
-1.367, 1.684e-3
-1.366, 1.662e-3
-1.365, 1.643e-3
-1.364, 1.616e-3
-1.363, 1.582e-3
-1.362, 1.554e-3
-1.361, 1.532e-3
-1.360, 1.517e-3
-1.359, 1.492e-3
-1.358, 1.465e-3
-1.357, 1.443e-3
-1.356, 1.425e-3
-1.355, 1.409e-3
-1.354, 1.384e-3
-1.353, 1.360e-3
-1.352, 1.335e-3
-1.351, 1.320e-3
-1.350, 1.304e-3
-1.349, 1.280e-3
-1.348, 1.255e-3
-1.347, 1.230e-3
-1.346, 1.215e-3
-1.345, 1.199e-3
-1.344, 1.178e-3
-1.343, 1.150e-3
-1.342, 1.125e-3
-1.341, 1.107e-3
-1.340, 1.088e-3
-1.339, 1.064e-3
-1.338, 1.039e-3
-1.337, 1.014e-3
-1.336, 9.991e-4
-1.335, 9.868e-4
-1.334, 9.652e-4
-1.333, 9.405e-4
-1.332, 9.220e-4
-1.331, 9.128e-4
-1.330, 9.035e-4
-1.329, 8.881e-4
-1.328, 8.665e-4
-1.327, 8.511e-4
-1.326, 8.388e-4
-1.325, 8.295e-4
-1.324, 8.110e-4
-1.323, 7.894e-4
-1.322, 7.709e-4
-1.321, 7.617e-4
-1.320, 7.524e-4
-1.319, 7.339e-4
-1.318, 7.154e-4
-1.317, 6.969e-4
-1.316, 6.877e-4
-1.315, 6.754e-4
-1.314, 6.569e-4
-1.313, 6.353e-4
-1.312, 6.168e-4
-1.311, 6.075e-4
-1.310, 5.952e-4
-1.309, 5.798e-4
-1.308, 5.582e-4
-1.307, 5.428e-4
-1.306, 5.335e-4
-1.305, 5.243e-4
-1.304, 5.058e-4
-1.303, 4.842e-4
-1.302, 4.719e-4
-1.301, 4.626e-4
-1.300, 4.534e-4
-1.299, 4.380e-4
-1.298, 4.195e-4
-1.297, 4.071e-4
-1.296, 4.010e-4
-1.295, 3.948e-4
-1.294, 3.825e-4
-1.293, 3.640e-4
-1.292, 3.516e-4
-1.291, 3.455e-4
-1.290, 3.393e-4
-1.289, 3.270e-4
-1.288, 3.115e-4
-1.287, 2.992e-4
-1.286, 2.931e-4
-1.285, 2.869e-4
-1.284, 2.746e-4
-1.283, 2.591e-4
-1.282, 2.468e-4
-1.281, 2.437e-4
-1.280, 2.376e-4
-1.279, 2.252e-4
-1.278, 2.098e-4
-1.277, 1.975e-4
-1.276, 1.944e-4
-1.275, 1.882e-4
-1.274, 1.790e-4
-1.273, 1.636e-4
-1.272, 1.543e-4
-1.271, 1.512e-4
-1.270, 1.451e-4
-1.269, 1.358e-4
-1.268, 1.204e-4
-1.267, 1.111e-4
-1.266, 1.081e-4
-1.265, 1.050e-4
-1.264, 9.573e-5
-1.263, 8.032e-5
-1.262, 7.107e-5
-1.261, 6.798e-5
-1.260, 6.490e-5
-1.259, 5.873e-5
-1.258, 4.332e-5
-1.257, 3.407e-5
-1.256, 3.099e-5
-1.255, 3.099e-5
-1.254, 2.174e-5
-1.253, 9.405e-6
-1.252, 1.559e-7
-1.251, -2.927e-6
-1.250, -2.927e-6
-1.249, -1.218e-5
-1.248, -2.143e-5
-1.247, -3.068e-5
-1.246, -3.068e-5
-1.245, -3.068e-5
-1.244, -3.992e-5
-1.243, -5.226e-5
-1.242, -5.842e-5
-1.241, -5.842e-5
-1.240, -5.842e-5
-1.239, -6.767e-5
-1.238, -7.692e-5
-1.237, -8.309e-5
-1.236, -8.309e-5
-1.235, -8.309e-5
-1.234, -9.234e-5
-1.233, -1.016e-4
-1.232, -1.078e-4
-1.231, -1.078e-4
-1.230, -1.078e-4
-1.229, -1.139e-4
-1.228, -1.232e-4
-1.227, -1.293e-4
-1.226, -1.293e-4
-1.225, -1.263e-4
-1.224, -1.324e-4
-1.223, -1.417e-4
-1.222, -1.478e-4
-1.221, -1.448e-4
-1.220, -1.448e-4
-1.219, -1.509e-4
-1.218, -1.602e-4
-1.217, -1.663e-4
-1.216, -1.632e-4
-1.215, -1.632e-4
-1.214, -1.663e-4
-1.213, -1.756e-4
-1.212, -1.787e-4
-1.211, -1.787e-4
-1.210, -1.756e-4
-1.209, -1.817e-4
-1.208, -1.910e-4
-1.207, -1.941e-4
-1.206, -1.941e-4
-1.205, -1.879e-4
-1.204, -1.941e-4
-1.203, -2.033e-4
-1.202, -2.033e-4
-1.201, -2.033e-4
-1.200, -2.002e-4
-1.199, -2.033e-4
-1.198, -2.126e-4
-1.197, -2.157e-4
-1.196, -2.126e-4
-1.195, -2.095e-4
-1.194, -2.157e-4
-1.193, -2.218e-4
-1.192, -2.249e-4
-1.191, -2.218e-4
-1.190, -2.187e-4
-1.189, -2.218e-4
-1.188, -2.311e-4
-1.187, -2.311e-4
-1.186, -2.280e-4
-1.185, -2.249e-4
-1.184, -2.311e-4
-1.183, -2.372e-4
-1.182, -2.403e-4
-1.181, -2.372e-4
-1.180, -2.342e-4
-1.179, -2.372e-4
-1.178, -2.434e-4
-1.177, -2.465e-4
-1.176, -2.434e-4
-1.175, -2.403e-4
-1.174, -2.434e-4
-1.173, -2.496e-4
-1.172, -2.527e-4
-1.171, -2.496e-4
-1.170, -2.434e-4
-1.169, -2.496e-4
-1.168, -2.557e-4
-1.167, -2.588e-4
-1.166, -2.527e-4
-1.165, -2.496e-4
-1.164, -2.557e-4
-1.163, -2.588e-4
-1.162, -2.619e-4
-1.161, -2.588e-4
-1.160, -2.527e-4
-1.159, -2.588e-4
-1.158, -2.650e-4
-1.157, -2.650e-4
-1.156, -2.619e-4
-1.155, -2.588e-4
-1.154, -2.619e-4
-1.153, -2.681e-4
-1.152, -2.681e-4
-1.151, -2.650e-4
-1.150, -2.619e-4
-1.149, -2.650e-4
-1.148, -2.712e-4
-1.147, -2.712e-4
-1.146, -2.650e-4
-1.145, -2.619e-4
-1.144, -2.650e-4
-1.143, -2.712e-4
-1.142, -2.742e-4
-1.141, -2.712e-4
-1.140, -2.681e-4
-1.139, -2.681e-4
-1.138, -2.742e-4
-1.137, -2.773e-4
-1.136, -2.742e-4
-1.135, -2.681e-4
-1.134, -2.712e-4
-1.133, -2.773e-4
-1.132, -2.804e-4
-1.131, -2.742e-4
-1.130, -2.712e-4
-1.129, -2.742e-4
-1.128, -2.804e-4
-1.127, -2.835e-4
-1.126, -2.773e-4
-1.125, -2.712e-4
-1.124, -2.773e-4
-1.123, -2.804e-4
-1.122, -2.835e-4
-1.121, -2.773e-4
-1.120, -2.742e-4
-1.119, -2.773e-4
-1.118, -2.835e-4
-1.117, -2.835e-4
-1.116, -2.804e-4
-1.115, -2.742e-4
-1.114, -2.773e-4
-1.113, -2.866e-4
-1.112, -2.866e-4
-1.111, -2.835e-4
-1.110, -2.773e-4
-1.109, -2.804e-4
-1.108, -2.866e-4
-1.107, -2.866e-4
-1.106, -2.835e-4
-1.105, -2.804e-4
-1.104, -2.804e-4
-1.103, -2.866e-4
-1.102, -2.897e-4
-1.101, -2.866e-4
-1.100, -2.804e-4
-1.099, -2.835e-4
-1.098, -2.897e-4
-1.097, -2.927e-4
-1.096, -2.866e-4
-1.095, -2.804e-4
-1.094, -2.835e-4
-1.093, -2.897e-4
-1.092, -2.927e-4
-1.091, -2.866e-4
-1.090, -2.804e-4
-1.089, -2.835e-4
-1.088, -2.897e-4
-1.087, -2.927e-4
-1.086, -2.866e-4
-1.085, -2.835e-4
-1.084, -2.866e-4
-1.083, -2.897e-4
-1.082, -2.927e-4
-1.081, -2.866e-4
-1.080, -2.835e-4
-1.079, -2.866e-4
-1.078, -2.927e-4
-1.077, -2.927e-4
-1.076, -2.897e-4
-1.075, -2.866e-4
-1.074, -2.897e-4
-1.073, -2.958e-4
-1.072, -2.958e-4
-1.071, -2.927e-4
-1.070, -2.866e-4
-1.069, -2.897e-4
-1.068, -2.958e-4
-1.067, -2.989e-4
-1.066, -2.927e-4
-1.065, -2.897e-4
-1.064, -2.927e-4
-1.063, -2.989e-4
-1.062, -2.989e-4
-1.061, -2.927e-4
-1.060, -2.897e-4
-1.059, -2.927e-4
-1.058, -2.958e-4
-1.057, -2.989e-4
-1.056, -2.927e-4
-1.055, -2.897e-4
-1.054, -2.927e-4
-1.053, -2.958e-4
-1.052, -2.989e-4
-1.051, -2.927e-4
-1.050, -2.897e-4
-1.049, -2.927e-4
-1.048, -2.958e-4
-1.047, -2.989e-4
-1.046, -2.927e-4
-1.045, -2.897e-4
-1.044, -2.927e-4
-1.043, -2.989e-4
-1.042, -3.020e-4
-1.041, -2.958e-4
-1.040, -2.927e-4
-1.039, -2.958e-4
-1.038, -3.020e-4
-1.037, -3.020e-4
-1.036, -2.989e-4
-1.035, -2.927e-4
-1.034, -2.958e-4
-1.033, -3.020e-4
-1.032, -3.051e-4
-1.031, -2.989e-4
-1.030, -2.927e-4
-1.029, -2.958e-4
-1.028, -3.020e-4
-1.027, -3.051e-4
-1.026, -2.989e-4
-1.025, -2.927e-4
-1.024, -2.958e-4
-1.023, -3.020e-4
-1.022, -3.020e-4
-1.021, -2.958e-4
-1.020, -2.927e-4
-1.019, -2.958e-4
-1.018, -3.020e-4
-1.017, -3.051e-4
-1.016, -2.989e-4
-1.015, -2.958e-4
-1.014, -2.989e-4
-1.013, -3.051e-4
-1.012, -3.082e-4
-1.011, -3.020e-4
-1.010, -2.989e-4
-1.009, -3.020e-4
-1.008, -3.051e-4
-1.007, -3.112e-4
-1.006, -3.051e-4
-1.005, -2.989e-4
-1.004, -3.020e-4
-1.003, -3.082e-4
-1.002, -3.112e-4
-1.001, -3.051e-4
