Dec. 10, 2024   05:07:37
Linear Sweep Voltammetry
File: c:/users/guazh/data/banditlqround7_x0exp59_r20/2024-12-09-exp614\1acid_1ac-2024-12-10t05_04_29-lsvinphos\1acid_1ac_lsv_50mvs_efin_-2100mv.bin
Data Source:  Experiment
Instrument Model:  CHI760E
Header: LSV ran at 50 mVs with Efin at -2100mV
Note: 

Init E (V) = -0.6
Final E (V) = -2.1
Scan Rate (V/s) = 0.05
Sample Interval (V) = 0.001
Quiet Time (sec) = 2
Sensitivity (A/V) = 1e-4
Comp R (ohm) = 7.8

Results:

Channel 1:
Ep = -2.042V
ip = 8.365e-4A
Ah = 1.165e-3C

Potential/V, Current/A

-0.600, 1.802e-6
-0.601, 1.874e-6
-0.602, 1.903e-6
-0.603, 1.927e-6
-0.604, 1.949e-6
-0.605, 1.968e-6
-0.606, 1.989e-6
-0.607, 2.011e-6
-0.608, 2.034e-6
-0.609, 2.054e-6
-0.610, 2.074e-6
-0.611, 2.095e-6
-0.612, 2.115e-6
-0.613, 2.137e-6
-0.614, 2.159e-6
-0.615, 2.179e-6
-0.616, 2.198e-6
-0.617, 2.219e-6
-0.618, 2.241e-6
-0.619, 2.262e-6
-0.620, 2.283e-6
-0.621, 2.304e-6
-0.622, 2.326e-6
-0.623, 2.350e-6
-0.624, 2.373e-6
-0.625, 2.394e-6
-0.626, 2.416e-6
-0.627, 2.438e-6
-0.628, 2.462e-6
-0.629, 2.485e-6
-0.630, 2.507e-6
-0.631, 2.531e-6
-0.632, 2.554e-6
-0.633, 2.582e-6
-0.634, 2.604e-6
-0.635, 2.628e-6
-0.636, 2.653e-6
-0.637, 2.676e-6
-0.638, 2.703e-6
-0.639, 2.728e-6
-0.640, 2.752e-6
-0.641, 2.777e-6
-0.642, 2.802e-6
-0.643, 2.829e-6
-0.644, 2.855e-6
-0.645, 2.880e-6
-0.646, 2.906e-6
-0.647, 2.932e-6
-0.648, 2.961e-6
-0.649, 2.988e-6
-0.650, 3.012e-6
-0.651, 3.040e-6
-0.652, 3.067e-6
-0.653, 3.096e-6
-0.654, 3.126e-6
-0.655, 3.151e-6
-0.656, 3.180e-6
-0.657, 3.207e-6
-0.658, 3.237e-6
-0.659, 3.265e-6
-0.660, 3.293e-6
-0.661, 3.321e-6
-0.662, 3.350e-6
-0.663, 3.381e-6
-0.664, 3.412e-6
-0.665, 3.441e-6
-0.666, 3.471e-6
-0.667, 3.500e-6
-0.668, 3.531e-6
-0.669, 3.561e-6
-0.670, 3.591e-6
-0.671, 3.620e-6
-0.672, 3.652e-6
-0.673, 3.686e-6
-0.674, 3.716e-6
-0.675, 3.746e-6
-0.676, 3.777e-6
-0.677, 3.808e-6
-0.678, 3.843e-6
-0.679, 3.875e-6
-0.680, 3.905e-6
-0.681, 3.936e-6
-0.682, 3.968e-6
-0.683, 4.002e-6
-0.684, 4.035e-6
-0.685, 4.066e-6
-0.686, 4.098e-6
-0.687, 4.130e-6
-0.688, 4.164e-6
-0.689, 4.196e-6
-0.690, 4.227e-6
-0.691, 4.258e-6
-0.692, 4.292e-6
-0.693, 4.325e-6
-0.694, 4.361e-6
-0.695, 4.392e-6
-0.696, 4.426e-6
-0.697, 4.460e-6
-0.698, 4.496e-6
-0.699, 4.532e-6
-0.700, 4.565e-6
-0.701, 4.597e-6
-0.702, 4.632e-6
-0.703, 4.666e-6
-0.704, 4.702e-6
-0.705, 4.736e-6
-0.706, 4.768e-6
-0.707, 4.803e-6
-0.708, 4.839e-6
-0.709, 4.874e-6
-0.710, 4.907e-6
-0.711, 4.940e-6
-0.712, 4.974e-6
-0.713, 5.011e-6
-0.714, 5.047e-6
-0.715, 5.080e-6
-0.716, 5.114e-6
-0.717, 5.148e-6
-0.718, 5.184e-6
-0.719, 5.218e-6
-0.720, 5.252e-6
-0.721, 5.285e-6
-0.722, 5.319e-6
-0.723, 5.355e-6
-0.724, 5.390e-6
-0.725, 5.421e-6
-0.726, 5.455e-6
-0.727, 5.487e-6
-0.728, 5.524e-6
-0.729, 5.560e-6
-0.730, 5.591e-6
-0.731, 5.624e-6
-0.732, 5.656e-6
-0.733, 5.690e-6
-0.734, 5.723e-6
-0.735, 5.756e-6
-0.736, 5.788e-6
-0.737, 5.821e-6
-0.738, 5.854e-6
-0.739, 5.887e-6
-0.740, 5.916e-6
-0.741, 5.945e-6
-0.742, 5.975e-6
-0.743, 6.009e-6
-0.744, 6.041e-6
-0.745, 6.071e-6
-0.746, 6.101e-6
-0.747, 6.131e-6
-0.748, 6.161e-6
-0.749, 6.190e-6
-0.750, 6.218e-6
-0.751, 6.245e-6
-0.752, 6.273e-6
-0.753, 6.304e-6
-0.754, 6.333e-6
-0.755, 6.362e-6
-0.756, 6.390e-6
-0.757, 6.416e-6
-0.758, 6.445e-6
-0.759, 6.473e-6
-0.760, 6.497e-6
-0.761, 6.524e-6
-0.762, 6.550e-6
-0.763, 6.578e-6
-0.764, 6.604e-6
-0.765, 6.628e-6
-0.766, 6.652e-6
-0.767, 6.676e-6
-0.768, 6.701e-6
-0.769, 6.727e-6
-0.770, 6.748e-6
-0.771, 6.771e-6
-0.772, 6.793e-6
-0.773, 6.816e-6
-0.774, 6.841e-6
-0.775, 6.860e-6
-0.776, 6.879e-6
-0.777, 6.900e-6
-0.778, 6.919e-6
-0.779, 6.940e-6
-0.780, 6.959e-6
-0.781, 6.978e-6
-0.782, 6.995e-6
-0.783, 7.014e-6
-0.784, 7.033e-6
-0.785, 7.050e-6
-0.786, 7.066e-6
-0.787, 7.082e-6
-0.788, 7.099e-6
-0.789, 7.116e-6
-0.790, 7.131e-6
-0.791, 7.144e-6
-0.792, 7.158e-6
-0.793, 7.174e-6
-0.794, 7.188e-6
-0.795, 7.201e-6
-0.796, 7.213e-6
-0.797, 7.224e-6
-0.798, 7.237e-6
-0.799, 7.249e-6
-0.800, 7.259e-6
-0.801, 7.268e-6
-0.802, 7.277e-6
-0.803, 7.289e-6
-0.804, 7.299e-6
-0.805, 7.307e-6
-0.806, 7.315e-6
-0.807, 7.322e-6
-0.808, 7.330e-6
-0.809, 7.339e-6
-0.810, 7.345e-6
-0.811, 7.351e-6
-0.812, 7.356e-6
-0.813, 7.363e-6
-0.814, 7.370e-6
-0.815, 7.374e-6
-0.816, 7.376e-6
-0.817, 7.380e-6
-0.818, 7.384e-6
-0.819, 7.391e-6
-0.820, 7.395e-6
-0.821, 7.395e-6
-0.822, 7.398e-6
-0.823, 7.400e-6
-0.824, 7.402e-6
-0.825, 7.401e-6
-0.826, 7.403e-6
-0.827, 7.401e-6
-0.828, 7.404e-6
-0.829, 7.404e-6
-0.830, 7.403e-6
-0.831, 7.400e-6
-0.832, 7.400e-6
-0.833, 7.398e-6
-0.834, 7.398e-6
-0.835, 7.395e-6
-0.836, 7.391e-6
-0.837, 7.388e-6
-0.838, 7.386e-6
-0.839, 7.385e-6
-0.840, 7.380e-6
-0.841, 7.375e-6
-0.842, 7.371e-6
-0.843, 7.366e-6
-0.844, 7.364e-6
-0.845, 7.360e-6
-0.846, 7.352e-6
-0.847, 7.347e-6
-0.848, 7.342e-6
-0.849, 7.338e-6
-0.850, 7.331e-6
-0.851, 7.324e-6
-0.852, 7.317e-6
-0.853, 7.310e-6
-0.854, 7.305e-6
-0.855, 7.296e-6
-0.856, 7.288e-6
-0.857, 7.281e-6
-0.858, 7.273e-6
-0.859, 7.267e-6
-0.860, 7.258e-6
-0.861, 7.249e-6
-0.862, 7.241e-6
-0.863, 7.232e-6
-0.864, 7.225e-6
-0.865, 7.217e-6
-0.866, 7.206e-6
-0.867, 7.196e-6
-0.868, 7.188e-6
-0.869, 7.180e-6
-0.870, 7.170e-6
-0.871, 7.160e-6
-0.872, 7.150e-6
-0.873, 7.140e-6
-0.874, 7.132e-6
-0.875, 7.122e-6
-0.876, 7.109e-6
-0.877, 7.099e-6
-0.878, 7.089e-6
-0.879, 7.079e-6
-0.880, 7.069e-6
-0.881, 7.057e-6
-0.882, 7.044e-6
-0.883, 7.035e-6
-0.884, 7.027e-6
-0.885, 7.015e-6
-0.886, 7.003e-6
-0.887, 6.991e-6
-0.888, 6.981e-6
-0.889, 6.971e-6
-0.890, 6.960e-6
-0.891, 6.948e-6
-0.892, 6.936e-6
-0.893, 6.924e-6
-0.894, 6.915e-6
-0.895, 6.903e-6
-0.896, 6.892e-6
-0.897, 6.881e-6
-0.898, 6.870e-6
-0.899, 6.861e-6
-0.900, 6.848e-6
-0.901, 6.835e-6
-0.902, 6.825e-6
-0.903, 6.813e-6
-0.904, 6.803e-6
-0.905, 6.792e-6
-0.906, 6.778e-6
-0.907, 6.766e-6
-0.908, 6.754e-6
-0.909, 6.745e-6
-0.910, 6.734e-6
-0.911, 6.721e-6
-0.912, 6.711e-6
-0.913, 6.699e-6
-0.914, 6.689e-6
-0.915, 6.679e-6
-0.916, 6.665e-6
-0.917, 6.654e-6
-0.918, 6.645e-6
-0.919, 6.633e-6
-0.920, 6.624e-6
-0.921, 6.611e-6
-0.922, 6.600e-6
-0.923, 6.588e-6
-0.924, 6.579e-6
-0.925, 6.567e-6
-0.926, 6.556e-6
-0.927, 6.545e-6
-0.928, 6.533e-6
-0.929, 6.524e-6
-0.930, 6.512e-6
-0.931, 6.501e-6
-0.932, 6.490e-6
-0.933, 6.480e-6
-0.934, 6.471e-6
-0.935, 6.460e-6
-0.936, 6.448e-6
-0.937, 6.439e-6
-0.938, 6.426e-6
-0.939, 6.419e-6
-0.940, 6.408e-6
-0.941, 6.397e-6
-0.942, 6.387e-6
-0.943, 6.377e-6
-0.944, 6.368e-6
-0.945, 6.358e-6
-0.946, 6.348e-6
-0.947, 6.337e-6
-0.948, 6.328e-6
-0.949, 6.317e-6
-0.950, 6.308e-6
-0.951, 6.297e-6
-0.952, 6.287e-6
-0.953, 6.278e-6
-0.954, 6.270e-6
-0.955, 6.261e-6
-0.956, 6.250e-6
-0.957, 6.240e-6
-0.958, 6.232e-6
-0.959, 6.223e-6
-0.960, 6.216e-6
-0.961, 6.207e-6
-0.962, 6.196e-6
-0.963, 6.188e-6
-0.964, 6.181e-6
-0.965, 6.173e-6
-0.966, 6.164e-6
-0.967, 6.155e-6
-0.968, 6.146e-6
-0.969, 6.140e-6
-0.970, 6.131e-6
-0.971, 6.122e-6
-0.972, 6.113e-6
-0.973, 6.106e-6
-0.974, 6.098e-6
-0.975, 6.091e-6
-0.976, 6.081e-6
-0.977, 6.072e-6
-0.978, 6.062e-6
-0.979, 6.056e-6
-0.980, 6.049e-6
-0.981, 6.038e-6
-0.982, 6.031e-6
-0.983, 6.021e-6
-0.984, 6.016e-6
-0.985, 6.009e-6
-0.986, 5.999e-6
-0.987, 5.991e-6
-0.988, 5.982e-6
-0.989, 5.976e-6
-0.990, 5.970e-6
-0.991, 5.961e-6
-0.992, 5.953e-6
-0.993, 5.945e-6
-0.994, 5.940e-6
-0.995, 5.935e-6
-0.996, 5.926e-6
-0.997, 5.918e-6
-0.998, 5.912e-6
-0.999, 5.907e-6
-1.000, 5.901e-6
-1.001, 5.894e-6
-1.002, 5.886e-6
-1.003, 5.879e-6
-1.004, 5.874e-6
-1.005, 5.868e-6
-1.006, 5.861e-6
-1.007, 5.854e-6
-1.008, 5.847e-6
-1.009, 5.842e-6
-1.010, 5.835e-6
-1.011, 5.828e-6
-1.012, 5.821e-6
-1.013, 5.813e-6
-1.014, 5.808e-6
-1.015, 5.803e-6
-1.016, 5.795e-6
-1.017, 5.789e-6
-1.018, 5.782e-6
-1.019, 5.776e-6
-1.020, 5.771e-6
-1.021, 5.763e-6
-1.022, 5.757e-6
-1.023, 5.750e-6
-1.024, 5.748e-6
-1.025, 5.741e-6
-1.026, 5.734e-6
-1.027, 5.728e-6
-1.028, 5.721e-6
-1.029, 5.716e-6
-1.030, 5.713e-6
-1.031, 5.706e-6
-1.032, 5.698e-6
-1.033, 5.694e-6
-1.034, 5.688e-6
-1.035, 5.685e-6
-1.036, 5.678e-6
-1.037, 5.673e-6
-1.038, 5.667e-6
-1.039, 5.663e-6
-1.040, 5.659e-6
-1.041, 5.652e-6
-1.042, 5.647e-6
-1.043, 5.641e-6
-1.044, 5.637e-6
-1.045, 5.632e-6
-1.046, 5.628e-6
-1.047, 5.622e-6
-1.048, 5.615e-6
-1.049, 5.612e-6
-1.050, 5.609e-6
-1.051, 5.604e-6
-1.052, 5.598e-6
-1.053, 5.592e-6
-1.054, 5.589e-6
-1.055, 5.585e-6
-1.056, 5.580e-6
-1.057, 5.574e-6
-1.058, 5.569e-6
-1.059, 5.564e-6
-1.060, 5.561e-6
-1.061, 5.556e-6
-1.062, 5.551e-6
-1.063, 5.546e-6
-1.064, 5.543e-6
-1.065, 5.541e-6
-1.066, 5.534e-6
-1.067, 5.529e-6
-1.068, 5.524e-6
-1.069, 5.522e-6
-1.070, 5.519e-6
-1.071, 5.514e-6
-1.072, 5.508e-6
-1.073, 5.504e-6
-1.074, 5.500e-6
-1.075, 5.499e-6
-1.076, 5.494e-6
-1.077, 5.489e-6
-1.078, 5.485e-6
-1.079, 5.482e-6
-1.080, 5.479e-6
-1.081, 5.474e-6
-1.082, 5.470e-6
-1.083, 5.467e-6
-1.084, 5.463e-6
-1.085, 5.460e-6
-1.086, 5.456e-6
-1.087, 5.451e-6
-1.088, 5.448e-6
-1.089, 5.446e-6
-1.090, 5.444e-6
-1.091, 5.439e-6
-1.092, 5.435e-6
-1.093, 5.431e-6
-1.094, 5.430e-6
-1.095, 5.427e-6
-1.096, 5.423e-6
-1.097, 5.420e-6
-1.098, 5.415e-6
-1.099, 5.414e-6
-1.100, 5.411e-6
-1.101, 5.409e-6
-1.102, 5.405e-6
-1.103, 5.401e-6
-1.104, 5.399e-6
-1.105, 5.398e-6
-1.106, 5.394e-6
-1.107, 5.391e-6
-1.108, 5.387e-6
-1.109, 5.386e-6
-1.110, 5.384e-6
-1.111, 5.381e-6
-1.112, 5.378e-6
-1.113, 5.376e-6
-1.114, 5.374e-6
-1.115, 5.373e-6
-1.116, 5.369e-6
-1.117, 5.366e-6
-1.118, 5.364e-6
-1.119, 5.360e-6
-1.120, 5.360e-6
-1.121, 5.359e-6
-1.122, 5.354e-6
-1.123, 5.352e-6
-1.124, 5.349e-6
-1.125, 5.349e-6
-1.126, 5.347e-6
-1.127, 5.343e-6
-1.128, 5.342e-6
-1.129, 5.340e-6
-1.130, 5.338e-6
-1.131, 5.336e-6
-1.132, 5.333e-6
-1.133, 5.330e-6
-1.134, 5.328e-6
-1.135, 5.328e-6
-1.136, 5.326e-6
-1.137, 5.324e-6
-1.138, 5.321e-6
-1.139, 5.320e-6
-1.140, 5.320e-6
-1.141, 5.317e-6
-1.142, 5.315e-6
-1.143, 5.313e-6
-1.144, 5.311e-6
-1.145, 5.311e-6
-1.146, 5.310e-6
-1.147, 5.305e-6
-1.148, 5.305e-6
-1.149, 5.303e-6
-1.150, 5.303e-6
-1.151, 5.300e-6
-1.152, 5.299e-6
-1.153, 5.298e-6
-1.154, 5.296e-6
-1.155, 5.295e-6
-1.156, 5.294e-6
-1.157, 5.292e-6
-1.158, 5.290e-6
-1.159, 5.289e-6
-1.160, 5.289e-6
-1.161, 5.288e-6
-1.162, 5.285e-6
-1.163, 5.283e-6
-1.164, 5.283e-6
-1.165, 5.284e-6
-1.166, 5.283e-6
-1.167, 5.279e-6
-1.168, 5.279e-6
-1.169, 5.278e-6
-1.170, 5.278e-6
-1.171, 5.276e-6
-1.172, 5.274e-6
-1.173, 5.273e-6
-1.174, 5.273e-6
-1.175, 5.274e-6
-1.176, 5.272e-6
-1.177, 5.270e-6
-1.178, 5.270e-6
-1.179, 5.269e-6
-1.180, 5.270e-6
-1.181, 5.268e-6
-1.182, 5.266e-6
-1.183, 5.266e-6
-1.184, 5.265e-6
-1.185, 5.266e-6
-1.186, 5.264e-6
-1.187, 5.263e-6
-1.188, 5.262e-6
-1.189, 5.261e-6
-1.190, 5.263e-6
-1.191, 5.262e-6
-1.192, 5.261e-6
-1.193, 5.259e-6
-1.194, 5.259e-6
-1.195, 5.260e-6
-1.196, 5.260e-6
-1.197, 5.258e-6
-1.198, 5.258e-6
-1.199, 5.257e-6
-1.200, 5.258e-6
-1.201, 5.259e-6
-1.202, 5.256e-6
-1.203, 5.257e-6
-1.204, 5.257e-6
-1.205, 5.258e-6
-1.206, 5.257e-6
-1.207, 5.256e-6
-1.208, 5.255e-6
-1.209, 5.256e-6
-1.210, 5.257e-6
-1.211, 5.257e-6
-1.212, 5.256e-6
-1.213, 5.254e-6
-1.214, 5.255e-6
-1.215, 5.257e-6
-1.216, 5.257e-6
-1.217, 5.256e-6
-1.218, 5.256e-6
-1.219, 5.256e-6
-1.220, 5.257e-6
-1.221, 5.257e-6
-1.222, 5.257e-6
-1.223, 5.257e-6
-1.224, 5.257e-6
-1.225, 5.258e-6
-1.226, 5.258e-6
-1.227, 5.258e-6
-1.228, 5.258e-6
-1.229, 5.261e-6
-1.230, 5.262e-6
-1.231, 5.262e-6
-1.232, 5.261e-6
-1.233, 5.261e-6
-1.234, 5.261e-6
-1.235, 5.262e-6
-1.236, 5.262e-6
-1.237, 5.262e-6
-1.238, 5.263e-6
-1.239, 5.263e-6
-1.240, 5.264e-6
-1.241, 5.266e-6
-1.242, 5.265e-6
-1.243, 5.264e-6
-1.244, 5.265e-6
-1.245, 5.267e-6
-1.246, 5.268e-6
-1.247, 5.266e-6
-1.248, 5.268e-6
-1.249, 5.269e-6
-1.250, 5.270e-6
-1.251, 5.271e-6
-1.252, 5.269e-6
-1.253, 5.270e-6
-1.254, 5.271e-6
-1.255, 5.272e-6
-1.256, 5.274e-6
-1.257, 5.275e-6
-1.258, 5.272e-6
-1.259, 5.273e-6
-1.260, 5.275e-6
-1.261, 5.276e-6
-1.262, 5.277e-6
-1.263, 5.277e-6
-1.264, 5.277e-6
-1.265, 5.279e-6
-1.266, 5.280e-6
-1.267, 5.281e-6
-1.268, 5.282e-6
-1.269, 5.281e-6
-1.270, 5.283e-6
-1.271, 5.284e-6
-1.272, 5.284e-6
-1.273, 5.285e-6
-1.274, 5.284e-6
-1.275, 5.287e-6
-1.276, 5.289e-6
-1.277, 5.289e-6
-1.278, 5.288e-6
-1.279, 5.289e-6
-1.280, 5.292e-6
-1.281, 5.295e-6
-1.282, 5.293e-6
-1.283, 5.294e-6
-1.284, 5.294e-6
-1.285, 5.295e-6
-1.286, 5.297e-6
-1.287, 5.297e-6
-1.288, 5.297e-6
-1.289, 5.297e-6
-1.290, 5.300e-6
-1.291, 5.301e-6
-1.292, 5.300e-6
-1.293, 5.301e-6
-1.294, 5.301e-6
-1.295, 5.303e-6
-1.296, 5.305e-6
-1.297, 5.304e-6
-1.298, 5.305e-6
-1.299, 5.306e-6
-1.300, 5.306e-6
-1.301, 5.308e-6
-1.302, 5.308e-6
-1.303, 5.308e-6
-1.304, 5.307e-6
-1.305, 5.311e-6
-1.306, 5.313e-6
-1.307, 5.313e-6
-1.308, 5.313e-6
-1.309, 5.312e-6
-1.310, 5.314e-6
-1.311, 5.316e-6
-1.312, 5.315e-6
-1.313, 5.316e-6
-1.314, 5.315e-6
-1.315, 5.317e-6
-1.316, 5.318e-6
-1.317, 5.318e-6
-1.318, 5.320e-6
-1.319, 5.318e-6
-1.320, 5.320e-6
-1.321, 5.323e-6
-1.322, 5.322e-6
-1.323, 5.321e-6
-1.324, 5.322e-6
-1.325, 5.323e-6
-1.326, 5.326e-6
-1.327, 5.325e-6
-1.328, 5.324e-6
-1.329, 5.324e-6
-1.330, 5.325e-6
-1.331, 5.327e-6
-1.332, 5.326e-6
-1.333, 5.326e-6
-1.334, 5.326e-6
-1.335, 5.328e-6
-1.336, 5.328e-6
-1.337, 5.328e-6
-1.338, 5.328e-6
-1.339, 5.327e-6
-1.340, 5.329e-6
-1.341, 5.330e-6
-1.342, 5.331e-6
-1.343, 5.329e-6
-1.344, 5.330e-6
-1.345, 5.331e-6
-1.346, 5.332e-6
-1.347, 5.331e-6
-1.348, 5.331e-6
-1.349, 5.330e-6
-1.350, 5.332e-6
-1.351, 5.333e-6
-1.352, 5.334e-6
-1.353, 5.332e-6
-1.354, 5.331e-6
-1.355, 5.333e-6
-1.356, 5.335e-6
-1.357, 5.334e-6
-1.358, 5.334e-6
-1.359, 5.332e-6
-1.360, 5.333e-6
-1.361, 5.336e-6
-1.362, 5.334e-6
-1.363, 5.334e-6
-1.364, 5.334e-6
-1.365, 5.335e-6
-1.366, 5.336e-6
-1.367, 5.336e-6
-1.368, 5.336e-6
-1.369, 5.335e-6
-1.370, 5.336e-6
-1.371, 5.339e-6
-1.372, 5.338e-6
-1.373, 5.336e-6
-1.374, 5.336e-6
-1.375, 5.337e-6
-1.376, 5.339e-6
-1.377, 5.339e-6
-1.378, 5.337e-6
-1.379, 5.337e-6
-1.380, 5.339e-6
-1.381, 5.340e-6
-1.382, 5.341e-6
-1.383, 5.341e-6
-1.384, 5.340e-6
-1.385, 5.342e-6
-1.386, 5.342e-6
-1.387, 5.342e-6
-1.388, 5.342e-6
-1.389, 5.341e-6
-1.390, 5.343e-6
-1.391, 5.344e-6
-1.392, 5.344e-6
-1.393, 5.344e-6
-1.394, 5.343e-6
-1.395, 5.345e-6
-1.396, 5.347e-6
-1.397, 5.347e-6
-1.398, 5.348e-6
-1.399, 5.347e-6
-1.400, 5.348e-6
-1.401, 5.351e-6
-1.402, 5.350e-6
-1.403, 5.349e-6
-1.404, 5.350e-6
-1.405, 5.351e-6
-1.406, 5.355e-6
-1.407, 5.354e-6
-1.408, 5.354e-6
-1.409, 5.355e-6
-1.410, 5.356e-6
-1.411, 5.359e-6
-1.412, 5.358e-6
-1.413, 5.359e-6
-1.414, 5.360e-6
-1.415, 5.360e-6
-1.416, 5.363e-6
-1.417, 5.365e-6
-1.418, 5.364e-6
-1.419, 5.365e-6
-1.420, 5.367e-6
-1.421, 5.370e-6
-1.422, 5.372e-6
-1.423, 5.371e-6
-1.424, 5.371e-6
-1.425, 5.374e-6
-1.426, 5.377e-6
-1.427, 5.379e-6
-1.428, 5.379e-6
-1.429, 5.380e-6
-1.430, 5.383e-6
-1.431, 5.385e-6
-1.432, 5.387e-6
-1.433, 5.388e-6
-1.434, 5.390e-6
-1.435, 5.394e-6
-1.436, 5.396e-6
-1.437, 5.397e-6
-1.438, 5.399e-6
-1.439, 5.400e-6
-1.440, 5.403e-6
-1.441, 5.407e-6
-1.442, 5.409e-6
-1.443, 5.409e-6
-1.444, 5.411e-6
-1.445, 5.413e-6
-1.446, 5.418e-6
-1.447, 5.420e-6
-1.448, 5.423e-6
-1.449, 5.425e-6
-1.450, 5.426e-6
-1.451, 5.432e-6
-1.452, 5.436e-6
-1.453, 5.436e-6
-1.454, 5.439e-6
-1.455, 5.442e-6
-1.456, 5.447e-6
-1.457, 5.450e-6
-1.458, 5.452e-6
-1.459, 5.455e-6
-1.460, 5.458e-6
-1.461, 5.463e-6
-1.462, 5.468e-6
-1.463, 5.470e-6
-1.464, 5.473e-6
-1.465, 5.477e-6
-1.466, 5.482e-6
-1.467, 5.487e-6
-1.468, 5.490e-6
-1.469, 5.492e-6
-1.470, 5.497e-6
-1.471, 5.501e-6
-1.472, 5.507e-6
-1.473, 5.511e-6
-1.474, 5.513e-6
-1.475, 5.518e-6
-1.476, 5.525e-6
-1.477, 5.529e-6
-1.478, 5.533e-6
-1.479, 5.536e-6
-1.480, 5.541e-6
-1.481, 5.548e-6
-1.482, 5.551e-6
-1.483, 5.555e-6
-1.484, 5.562e-6
-1.485, 5.568e-6
-1.486, 5.575e-6
-1.487, 5.579e-6
-1.488, 5.582e-6
-1.489, 5.588e-6
-1.490, 5.592e-6
-1.491, 5.600e-6
-1.492, 5.608e-6
-1.493, 5.611e-6
-1.494, 5.614e-6
-1.495, 5.621e-6
-1.496, 5.630e-6
-1.497, 5.637e-6
-1.498, 5.641e-6
-1.499, 5.646e-6
-1.500, 5.651e-6
-1.501, 5.659e-6
-1.502, 5.668e-6
-1.503, 5.672e-6
-1.504, 5.679e-6
-1.505, 5.685e-6
-1.506, 5.693e-6
-1.507, 5.702e-6
-1.508, 5.707e-6
-1.509, 5.714e-6
-1.510, 5.721e-6
-1.511, 5.731e-6
-1.512, 5.739e-6
-1.513, 5.746e-6
-1.514, 5.753e-6
-1.515, 5.760e-6
-1.516, 5.771e-6
-1.517, 5.779e-6
-1.518, 5.787e-6
-1.519, 5.795e-6
-1.520, 5.802e-6
-1.521, 5.813e-6
-1.522, 5.823e-6
-1.523, 5.831e-6
-1.524, 5.839e-6
-1.525, 5.847e-6
-1.526, 5.859e-6
-1.527, 5.868e-6
-1.528, 5.877e-6
-1.529, 5.885e-6
-1.530, 5.894e-6
-1.531, 5.904e-6
-1.532, 5.915e-6
-1.533, 5.924e-6
-1.534, 5.932e-6
-1.535, 5.940e-6
-1.536, 5.952e-6
-1.537, 5.965e-6
-1.538, 5.975e-6
-1.539, 5.984e-6
-1.540, 5.995e-6
-1.541, 6.007e-6
-1.542, 6.022e-6
-1.543, 6.030e-6
-1.544, 6.041e-6
-1.545, 6.052e-6
-1.546, 6.066e-6
-1.547, 6.080e-6
-1.548, 6.089e-6
-1.549, 6.101e-6
-1.550, 6.113e-6
-1.551, 6.128e-6
-1.552, 6.141e-6
-1.553, 6.153e-6
-1.554, 6.163e-6
-1.555, 6.175e-6
-1.556, 6.190e-6
-1.557, 6.203e-6
-1.558, 6.215e-6
-1.559, 6.227e-6
-1.560, 6.238e-6
-1.561, 6.255e-6
-1.562, 6.270e-6
-1.563, 6.284e-6
-1.564, 6.297e-6
-1.565, 6.309e-6
-1.566, 6.328e-6
-1.567, 6.343e-6
-1.568, 6.358e-6
-1.569, 6.372e-6
-1.570, 6.387e-6
-1.571, 6.404e-6
-1.572, 6.423e-6
-1.573, 6.437e-6
-1.574, 6.452e-6
-1.575, 6.468e-6
-1.576, 6.485e-6
-1.577, 6.505e-6
-1.578, 6.520e-6
-1.579, 6.536e-6
-1.580, 6.551e-6
-1.581, 6.571e-6
-1.582, 6.593e-6
-1.583, 6.608e-6
-1.584, 6.625e-6
-1.585, 6.644e-6
-1.586, 6.663e-6
-1.587, 6.685e-6
-1.588, 6.704e-6
-1.589, 6.719e-6
-1.590, 6.738e-6
-1.591, 6.758e-6
-1.592, 6.779e-6
-1.593, 6.800e-6
-1.594, 6.817e-6
-1.595, 6.837e-6
-1.596, 6.859e-6
-1.597, 6.881e-6
-1.598, 6.901e-6
-1.599, 6.919e-6
-1.600, 6.939e-6
-1.601, 6.962e-6
-1.602, 6.986e-6
-1.603, 7.005e-6
-1.604, 7.025e-6
-1.605, 7.046e-6
-1.606, 7.069e-6
-1.607, 7.094e-6
-1.608, 7.116e-6
-1.609, 7.139e-6
-1.610, 7.159e-6
-1.611, 7.185e-6
-1.612, 7.212e-6
-1.613, 7.234e-6
-1.614, 7.257e-6
-1.615, 7.277e-6
-1.616, 7.304e-6
-1.617, 7.331e-6
-1.618, 7.353e-6
-1.619, 7.376e-6
-1.620, 7.401e-6
-1.621, 7.429e-6
-1.622, 7.459e-6
-1.623, 7.483e-6
-1.624, 7.509e-6
-1.625, 7.535e-6
-1.626, 7.563e-6
-1.627, 7.593e-6
-1.628, 7.619e-6
-1.629, 7.644e-6
-1.630, 7.671e-6
-1.631, 7.701e-6
-1.632, 7.734e-6
-1.633, 7.760e-6
-1.634, 7.789e-6
-1.635, 7.817e-6
-1.636, 7.848e-6
-1.637, 7.880e-6
-1.638, 7.913e-6
-1.639, 7.947e-6
-1.640, 7.973e-6
-1.641, 8.005e-6
-1.642, 8.037e-6
-1.643, 8.070e-6
-1.644, 8.100e-6
-1.645, 8.130e-6
-1.646, 8.166e-6
-1.647, 8.204e-6
-1.648, 8.239e-6
-1.649, 8.272e-6
-1.650, 8.306e-6
-1.651, 8.344e-6
-1.652, 8.382e-6
-1.653, 8.416e-6
-1.654, 8.452e-6
-1.655, 8.487e-6
-1.656, 8.527e-6
-1.657, 8.568e-6
-1.658, 8.603e-6
-1.659, 8.639e-6
-1.660, 8.677e-6
-1.661, 8.718e-6
-1.662, 8.763e-6
-1.663, 8.805e-6
-1.664, 8.846e-6
-1.665, 8.885e-6
-1.666, 8.927e-6
-1.667, 8.976e-6
-1.668, 9.021e-6
-1.669, 9.062e-6
-1.670, 9.106e-6
-1.671, 9.151e-6
-1.672, 9.201e-6
-1.673, 9.248e-6
-1.674, 9.293e-6
-1.675, 9.341e-6
-1.676, 9.388e-6
-1.677, 9.441e-6
-1.678, 9.491e-6
-1.679, 9.538e-6
-1.680, 9.589e-6
-1.681, 9.640e-6
-1.682, 9.694e-6
-1.683, 9.751e-6
-1.684, 9.802e-6
-1.685, 9.856e-6
-1.686, 9.913e-6
-1.687, 9.972e-6
-1.688, 1.003e-5
-1.689, 1.009e-5
-1.690, 1.014e-5
-1.691, 1.020e-5
-1.692, 1.026e-5
-1.693, 1.033e-5
-1.694, 1.039e-5
-1.695, 1.045e-5
-1.696, 1.051e-5
-1.697, 1.058e-5
-1.698, 1.065e-5
-1.699, 1.071e-5
-1.700, 1.078e-5
-1.701, 1.085e-5
-1.702, 1.093e-5
-1.703, 1.100e-5
-1.704, 1.107e-5
-1.705, 1.114e-5
-1.706, 1.121e-5
-1.707, 1.130e-5
-1.708, 1.138e-5
-1.709, 1.145e-5
-1.710, 1.153e-5
-1.711, 1.161e-5
-1.712, 1.170e-5
-1.713, 1.178e-5
-1.714, 1.186e-5
-1.715, 1.195e-5
-1.716, 1.203e-5
-1.717, 1.211e-5
-1.718, 1.221e-5
-1.719, 1.230e-5
-1.720, 1.239e-5
-1.721, 1.249e-5
-1.722, 1.259e-5
-1.723, 1.269e-5
-1.724, 1.279e-5
-1.725, 1.289e-5
-1.726, 1.300e-5
-1.727, 1.311e-5
-1.728, 1.322e-5
-1.729, 1.333e-5
-1.730, 1.344e-5
-1.731, 1.356e-5
-1.732, 1.368e-5
-1.733, 1.380e-5
-1.734, 1.392e-5
-1.735, 1.404e-5
-1.736, 1.416e-5
-1.737, 1.429e-5
-1.738, 1.443e-5
-1.739, 1.456e-5
-1.740, 1.469e-5
-1.741, 1.483e-5
-1.742, 1.498e-5
-1.743, 1.512e-5
-1.744, 1.527e-5
-1.745, 1.541e-5
-1.746, 1.557e-5
-1.747, 1.573e-5
-1.748, 1.588e-5
-1.749, 1.605e-5
-1.750, 1.621e-5
-1.751, 1.638e-5
-1.752, 1.656e-5
-1.753, 1.673e-5
-1.754, 1.690e-5
-1.755, 1.708e-5
-1.756, 1.726e-5
-1.757, 1.744e-5
-1.758, 1.764e-5
-1.759, 1.783e-5
-1.760, 1.802e-5
-1.761, 1.823e-5
-1.762, 1.844e-5
-1.763, 1.866e-5
-1.764, 1.887e-5
-1.765, 1.909e-5
-1.766, 1.931e-5
-1.767, 1.954e-5
-1.768, 1.978e-5
-1.769, 2.002e-5
-1.770, 2.026e-5
-1.771, 2.051e-5
-1.772, 2.077e-5
-1.773, 2.103e-5
-1.774, 2.130e-5
-1.775, 2.157e-5
-1.776, 2.185e-5
-1.777, 2.213e-5
-1.778, 2.242e-5
-1.779, 2.271e-5
-1.780, 2.301e-5
-1.781, 2.332e-5
-1.782, 2.364e-5
-1.783, 2.397e-5
-1.784, 2.430e-5
-1.785, 2.464e-5
-1.786, 2.499e-5
-1.787, 2.534e-5
-1.788, 2.571e-5
-1.789, 2.607e-5
-1.790, 2.644e-5
-1.791, 2.682e-5
-1.792, 2.722e-5
-1.793, 2.763e-5
-1.794, 2.802e-5
-1.795, 2.841e-5
-1.796, 2.881e-5
-1.797, 2.925e-5
-1.798, 2.970e-5
-1.799, 3.015e-5
-1.800, 3.060e-5
-1.801, 3.108e-5
-1.802, 3.157e-5
-1.803, 3.208e-5
-1.804, 3.258e-5
-1.805, 3.310e-5
-1.806, 3.363e-5
-1.807, 3.417e-5
-1.808, 3.473e-5
-1.809, 3.528e-5
-1.810, 3.584e-5
-1.811, 3.643e-5
-1.812, 3.702e-5
-1.813, 3.763e-5
-1.814, 3.825e-5
-1.815, 3.888e-5
-1.816, 3.954e-5
-1.817, 4.021e-5
-1.818, 4.089e-5
-1.819, 4.155e-5
-1.820, 4.223e-5
-1.821, 4.294e-5
-1.822, 4.367e-5
-1.823, 4.441e-5
-1.824, 4.517e-5
-1.825, 4.594e-5
-1.826, 4.672e-5
-1.827, 4.754e-5
-1.828, 4.837e-5
-1.829, 4.921e-5
-1.830, 5.005e-5
-1.831, 5.093e-5
-1.832, 5.181e-5
-1.833, 5.272e-5
-1.834, 5.363e-5
-1.835, 5.458e-5
-1.836, 5.552e-5
-1.837, 5.646e-5
-1.838, 5.744e-5
-1.839, 5.844e-5
-1.840, 5.945e-5
-1.841, 6.049e-5
-1.842, 6.154e-5
-1.843, 6.258e-5
-1.844, 6.368e-5
-1.845, 6.477e-5
-1.846, 6.588e-5
-1.847, 6.704e-5
-1.848, 6.823e-5
-1.849, 6.943e-5
-1.850, 7.067e-5
-1.851, 7.191e-5
-1.852, 7.315e-5
-1.853, 7.443e-5
-1.854, 7.572e-5
-1.855, 7.706e-5
-1.856, 7.844e-5
-1.857, 7.986e-5
-1.858, 8.129e-5
-1.859, 8.274e-5
-1.860, 8.422e-5
-1.861, 8.571e-5
-1.862, 8.726e-5
-1.863, 8.884e-5
-1.864, 9.044e-5
-1.865, 9.207e-5
-1.866, 9.362e-5
-1.867, 9.515e-5
-1.868, 9.678e-5
-1.869, 9.850e-5
-1.870, 1.002e-4
-1.871, 1.020e-4
-1.872, 1.039e-4
-1.873, 1.057e-4
-1.874, 1.076e-4
-1.875, 1.095e-4
-1.876, 1.115e-4
-1.877, 1.135e-4
-1.878, 1.156e-4
-1.879, 1.177e-4
-1.880, 1.198e-4
-1.881, 1.220e-4
-1.882, 1.242e-4
-1.883, 1.264e-4
-1.884, 1.287e-4
-1.885, 1.310e-4
-1.886, 1.334e-4
-1.887, 1.358e-4
-1.888, 1.382e-4
-1.889, 1.407e-4
-1.890, 1.432e-4
-1.891, 1.458e-4
-1.892, 1.483e-4
-1.893, 1.510e-4
-1.894, 1.536e-4
-1.895, 1.563e-4
-1.896, 1.591e-4
-1.897, 1.620e-4
-1.898, 1.647e-4
-1.899, 1.675e-4
-1.900, 1.705e-4
-1.901, 1.734e-4
-1.902, 1.764e-4
-1.903, 1.795e-4
-1.904, 1.826e-4
-1.905, 1.857e-4
-1.906, 1.889e-4
-1.907, 1.920e-4
-1.908, 1.952e-4
-1.909, 1.985e-4
-1.910, 2.018e-4
-1.911, 2.052e-4
-1.912, 2.087e-4
-1.913, 2.121e-4
-1.914, 2.157e-4
-1.915, 2.193e-4
-1.916, 2.230e-4
-1.917, 2.266e-4
-1.918, 2.303e-4
-1.919, 2.340e-4
-1.920, 2.377e-4
-1.921, 2.415e-4
-1.922, 2.453e-4
-1.923, 2.493e-4
-1.924, 2.533e-4
-1.925, 2.573e-4
-1.926, 2.613e-4
-1.927, 2.653e-4
-1.928, 2.694e-4
-1.929, 2.736e-4
-1.930, 2.777e-4
-1.931, 2.820e-4
-1.932, 2.864e-4
-1.933, 2.908e-4
-1.934, 2.953e-4
-1.935, 2.998e-4
-1.936, 3.041e-4
-1.937, 3.085e-4
-1.938, 3.130e-4
-1.939, 3.177e-4
-1.940, 3.224e-4
-1.941, 3.271e-4
-1.942, 3.318e-4
-1.943, 3.366e-4
-1.944, 3.415e-4
-1.945, 3.462e-4
-1.946, 3.510e-4
-1.947, 3.560e-4
-1.948, 3.608e-4
-1.949, 3.657e-4
-1.950, 3.708e-4
-1.951, 3.760e-4
-1.952, 3.812e-4
-1.953, 3.864e-4
-1.954, 3.916e-4
-1.955, 3.972e-4
-1.956, 4.027e-4
-1.957, 4.079e-4
-1.958, 4.133e-4
-1.959, 4.187e-4
-1.960, 4.241e-4
-1.961, 4.296e-4
-1.962, 4.353e-4
-1.963, 4.411e-4
-1.964, 4.468e-4
-1.965, 4.525e-4
-1.966, 4.582e-4
-1.967, 4.641e-4
-1.968, 4.699e-4
-1.969, 4.757e-4
-1.970, 4.818e-4
-1.971, 4.880e-4
-1.972, 4.942e-4
-1.973, 5.005e-4
-1.974, 5.068e-4
-1.975, 5.131e-4
-1.976, 5.194e-4
-1.977, 5.259e-4
-1.978, 5.320e-4
-1.979, 5.382e-4
-1.980, 5.446e-4
-1.981, 5.511e-4
-1.982, 5.576e-4
-1.983, 5.642e-4
-1.984, 5.708e-4
-1.985, 5.774e-4
-1.986, 5.840e-4
-1.987, 5.907e-4
-1.988, 5.976e-4
-1.989, 6.045e-4
-1.990, 6.113e-4
-1.991, 6.182e-4
-1.992, 6.252e-4
-1.993, 6.322e-4
-1.994, 6.393e-4
-1.995, 6.465e-4
-1.996, 6.537e-4
-1.997, 6.609e-4
-1.998, 6.682e-4
-1.999, 6.754e-4
-2.000, 6.827e-4
-2.001, 6.899e-4
-2.002, 6.974e-4
-2.003, 7.048e-4
-2.004, 7.122e-4
-2.005, 7.195e-4
-2.006, 7.270e-4
-2.007, 7.345e-4
-2.008, 7.420e-4
-2.009, 7.496e-4
-2.010, 7.572e-4
-2.011, 7.648e-4
-2.012, 7.724e-4
-2.013, 7.804e-4
-2.014, 7.882e-4
-2.015, 7.962e-4
-2.016, 8.042e-4
-2.017, 8.122e-4
-2.018, 8.201e-4
-2.019, 8.281e-4
-2.020, 8.358e-4
-2.021, 8.437e-4
-2.022, 8.517e-4
-2.023, 8.596e-4
-2.024, 8.676e-4
-2.025, 8.758e-4
-2.026, 8.840e-4
-2.027, 8.924e-4
-2.028, 9.005e-4
-2.029, 9.086e-4
-2.030, 9.170e-4
-2.031, 9.253e-4
-2.032, 9.335e-4
-2.033, 9.419e-4
-2.034, 9.510e-4
-2.035, 9.606e-4
-2.036, 9.695e-4
-2.037, 9.778e-4
-2.038, 9.862e-4
-2.039, 9.947e-4
-2.040, 1.003e-3
-2.041, 1.010e-3
-2.042, 1.011e-3
-2.043, 1.011e-3
-2.044, 1.011e-3
-2.045, 1.011e-3
-2.046, 1.011e-3
-2.047, 1.011e-3
-2.048, 1.011e-3
-2.049, 1.011e-3
-2.050, 1.011e-3
-2.051, 1.011e-3
-2.052, 1.011e-3
-2.053, 1.011e-3
-2.054, 1.011e-3
-2.055, 1.011e-3
-2.056, 1.011e-3
-2.057, 1.011e-3
-2.058, 1.011e-3
-2.059, 1.011e-3
-2.060, 1.011e-3
-2.061, 1.011e-3
-2.062, 1.011e-3
-2.063, 1.011e-3
-2.064, 1.011e-3
-2.065, 1.011e-3
-2.066, 1.011e-3
-2.067, 1.011e-3
-2.068, 1.011e-3
-2.069, 1.011e-3
-2.070, 1.011e-3
-2.071, 1.011e-3
-2.072, 1.011e-3
-2.073, 1.011e-3
-2.074, 1.011e-3
-2.075, 1.011e-3
-2.076, 1.011e-3
-2.077, 1.011e-3
-2.078, 1.011e-3
-2.079, 1.011e-3
-2.080, 1.011e-3
-2.081, 1.011e-3
-2.082, 1.011e-3
-2.083, 1.011e-3
-2.084, 1.011e-3
-2.085, 1.011e-3
-2.086, 1.011e-3
-2.087, 1.011e-3
-2.088, 1.011e-3
-2.089, 1.011e-3
-2.090, 1.011e-3
-2.091, 1.011e-3
-2.092, 1.011e-3
-2.093, 1.011e-3
-2.094, 1.011e-3
-2.095, 1.011e-3
-2.096, 1.011e-3
-2.097, 1.011e-3
-2.098, 1.011e-3
-2.099, 1.011e-3
