Potential V vs RHE, Current mA cm-2
0.013299999999999867,-0.288176691782508
0.012299999999999978,-0.7855891848150548
0.011299999999999866,-1.0416519300906264
0.010299999999999976,-1.2145296509341341
0.009299999999999864,-1.3506248779811505
0.008299999999999974,-1.4514937936615278
0.007299999999999862,-1.5307176264539697
0.006299999999999972,-1.6014531914472214
0.00529999999999986,-1.6651151999411482
0.0042999999999999705,-1.7287772084350748
0.0032999999999998586,-1.7853656604296764
0.0022999999999999687,-1.8306364220253575
0.0012999999999998568,-1.8773218949209036
0.00029999999999996696,-1.92117794521672
-0.000700000000000145,-1.9749369746115912
-0.0017000000000000348,-2.023037158807002
-0.0027000000000001467,-2.0555755187038987
-0.0037000000000000366,-2.095187435100119
-0.0047000000000001485,-2.1404581966958003
-0.005700000000000038,-2.1871436695913467
-0.00670000000000015,-2.2366585650866226
-0.00770000000000004,-2.272026347583249
-0.008700000000000152,-2.3130529752793345
-0.009700000000000042,-2.3653972933743415
-0.010700000000000154,-2.420571034069078
-0.011700000000000044,-2.465841795664759
-0.012700000000000156,-2.50545371206098
-0.013700000000000045,-2.5478950510569307
-0.014700000000000157,-2.5959952352523423
-0.015700000000000047,-2.6525836872469437
-0.01670000000000016,-2.70209858274222
-0.01770000000000005,-2.7530281895373614
-0.01870000000000016,-2.798298951133043
-0.01970000000000005,-2.8534726918277786
-0.020700000000000163,-2.9171347003217054
-0.021700000000000053,-2.975137863616172
-0.022700000000000164,-3.0274821817111786
-0.023700000000000054,-3.076997077206455
-0.024700000000000166,-3.1378296631006513
-0.025700000000000056,-3.207150516794038
-0.026700000000000168,-3.265153680088505
-0.027700000000000058,-3.323156843382971
-0.02870000000000017,-3.3854041405770325
-0.02970000000000006,-3.450480860370824
-0.03070000000000017,-3.5268752705635364
-0.03170000000000006,-3.593366701657193
-0.03270000000000017,-3.65702871015112
-0.03370000000000006,-3.7206907186450464
-0.034700000000000175,-3.784352727138973
-0.035700000000000065,-3.8593324260318203
-0.03670000000000018,-3.934312124924667
-0.03770000000000007,-3.9965594221187284
-0.03870000000000018,-4.068709698411845
-0.03970000000000007,-4.143689397304692
-0.04070000000000018,-4.2285720752965945
-0.04170000000000007,-4.307795908089036
-0.04270000000000018,-4.3728726278828285
-0.04370000000000007,-4.443608192876081
-0.044700000000000184,-4.521417314368658
-0.045700000000000074,-4.604885281060694
-0.046700000000000186,-4.685523825153001
-0.047700000000000076,-4.753429967546523
-0.04870000000000019,-4.82558024383964
-0.04970000000000008,-4.909048210531677
-0.05070000000000019,-4.985442620724389
-0.05170000000000008,-5.059007608317371
-0.05270000000000019,-5.135402018510083
-0.05370000000000008,-5.208967006103065
-0.05470000000000019,-5.2924349727951014
-0.05570000000000008,-5.3702440942876795
-0.056700000000000195,-5.452297349679851
-0.057700000000000085,-5.528691759872564
-0.058700000000000196,-5.59235376836649
-0.059700000000000086,-5.665918755959472
-0.0607000000000002,-5.750801433951374
-0.06170000000000009,-5.838513534543006
-0.0627000000000002,-5.913493233435854
-0.06370000000000009,-5.975740530629915
-0.0647000000000002,-6.0521349408226275
-0.06570000000000009,-6.128529351015339
-0.0667000000000002,-6.197850204708726
-0.0677000000000001,-6.262926924502518
-0.0687000000000002,-6.330833066896039
-0.0697000000000001,-6.398739209289561
-0.07070000000000021,-6.480792464681733
-0.0717000000000001,-6.54728389577539
-0.07270000000000021,-6.612360615569181
-0.0737000000000001,-6.670363778863648
-0.07470000000000021,-6.739684632557035
-0.0757000000000001,-6.809005486250422
-0.07670000000000021,-6.874082206044213
-0.0777000000000001,-6.927841235439085
-0.07870000000000021,-6.9915032439330105
-0.0797000000000001,-7.053750541127073
-0.08070000000000022,-7.1216566835205946
-0.0817000000000001,-7.183903980714656
-0.08270000000000022,-7.229174742310337
-0.08370000000000011,-7.28576319430494
-0.08470000000000022,-7.340936934999675
-0.08570000000000011,-7.401769520893872
-0.08670000000000022,-7.461187395488204
-0.08770000000000011,-7.500799311884425
-0.08870000000000022,-7.550314207379701
-0.08970000000000011,-7.605487948074437
-0.09070000000000022,-7.663491111368903
-0.09170000000000011,-7.717250140763775
-0.09270000000000023,-7.754032634560266
-0.09370000000000012,-7.789400417056893
-0.09470000000000023,-7.845988869051494
-0.09570000000000012,-7.888430208047444
-0.09670000000000023,-7.936530392242855
-0.09770000000000012,-7.966239329540022
-0.09870000000000023,-7.997362978137053
-0.09970000000000012,-8.046877873632328
-0.10070000000000023,-8.09497805782774
-0.10170000000000012,-8.136004685523828
-0.10270000000000024,-8.171372468020452
-0.10370000000000013,-8.194007848818291
-0.10470000000000024,-8.230790342614783
-0.10570000000000013,-8.276061104210465
-0.10670000000000024,-8.30859946410736
-0.10770000000000013,-8.338308401404527
-0.10870000000000024,-8.360943782202368
-0.10970000000000013,-8.397726275998858
-0.11070000000000024,-8.44016761499481
-0.11170000000000013,-8.46846184099211
-0.11270000000000002,-8.501000200889004
-0.11370000000000013,-8.520806159087115
-0.11470000000000002,-8.544856251184823
-0.11570000000000014,-8.578809322381582
-0.11670000000000003,-8.605688837079018
-0.11770000000000014,-8.628324217876859
-0.11870000000000003,-8.64813017607497
-0.11970000000000014,-8.672180268172674
-0.12070000000000003,-8.701889205469842
-0.12170000000000014,-8.733012854066871
-0.12270000000000003,-8.742915833165926
-0.12370000000000014,-8.758477657464443
-0.12470000000000003,-8.786771883461741
-0.12570000000000014,-8.809407264259583
-0.12670000000000003,-8.832042645057424
-0.12770000000000015,-8.843360335456342
-0.12870000000000004,-8.860336871054725
-0.12970000000000015,-8.8815575405527
-0.13070000000000004,-8.907022343950272
-0.13170000000000015,-8.928243013448247
-0.13270000000000004,-8.936731281247436
-0.13370000000000015,-8.94663426034649
-0.13470000000000004,-8.962196084645006
-0.13570000000000015,-8.979172620243387
-0.13670000000000004,-9.008881557540553
-0.13770000000000016,-9.020199247939473
-0.13870000000000005,-9.02161395923934
-0.13970000000000016,-9.04424934003718
-0.14070000000000005,-9.073958277334345
-0.14170000000000016,-9.08103183383367
-0.14270000000000005,-9.088105390332997
-0.14370000000000016,-9.08952010163286
-0.14470000000000005,-9.102252503331647
-0.14570000000000016,-9.131961440628812
-0.14670000000000005,-9.148937976227192
-0.14770000000000016,-9.146108553627464
-0.14870000000000005,-9.148937976227192
-0.14970000000000017,-9.153182110126787
-0.15070000000000006,-9.181476336124089
-0.15170000000000017,-9.189964603923277
-0.15270000000000006,-9.202697005622065
-0.15370000000000017,-9.201282294322198
-0.15470000000000006,-9.206941139521659
-0.15570000000000017,-9.232405942919229
-0.15670000000000006,-9.242308922018283
-0.15770000000000017,-9.233820654219095
-0.15870000000000006,-9.247967767217744
-0.15970000000000018,-9.257870746316799
-0.16070000000000007,-9.283335549714371
-0.16170000000000018,-9.297482662713021
-0.16270000000000007,-9.280506127114641
-0.16370000000000018,-9.283335549714371
-0.16470000000000007,-9.296067951413157
-0.16570000000000018,-9.307385641812077
-0.16670000000000007,-9.322947466110591
-0.16770000000000018,-9.318703332210998
-0.16870000000000007,-9.322947466110591
-0.16970000000000018,-9.334265156509511
-0.17070000000000007,-9.341338713008836
-0.17170000000000019,-9.354071114707622
-0.17270000000000008,-9.349826980808027
-0.1737000000000002,-9.352656403407758
-0.17470000000000008,-9.365388805106543
-0.1757000000000002,-9.373877072905733
-0.17670000000000008,-9.388024185904383
-0.1777000000000002,-9.379535918105192
-0.17870000000000008,-9.369632939006138
-0.1797000000000002,-9.376706495505463
-0.18070000000000008,-9.388024185904383
-0.1817000000000002,-9.392268319803978
-0.18270000000000008,-9.393683031103844
-0.1837000000000002,-9.389438897204249
-0.1847000000000001,-9.399341876303303
-0.1857000000000002,-9.410659566702224
-0.1867000000000001,-9.412074278002088
-0.1877000000000002,-9.413488989301953
-0.1887000000000001,-9.40924485540236
-0.1897000000000002,-9.413488989301953
-0.1907000000000001,-9.429050813600469
-0.1917000000000001,-9.434709658799928
-0.19269999999999998,-9.434709658799928
-0.1937000000000001,-9.430465524900336
-0.19469999999999998,-9.430465524900336
-0.1957000000000001,-9.44602734919885
-0.19669999999999999,-9.451686194398311
-0.1977000000000001,-9.441783215299255
-0.1987,-9.440368503999391
-0.1997000000000001,-9.441783215299255
-0.2007,-9.44602734919885
-0.2017000000000001,-9.4601744621975
-0.2027,-9.450271483098444
-0.2037000000000001,-9.447442060498714
-0.2047,-9.45451561699804
-0.2057000000000001,-9.461589173497366
-0.2067,-9.47432157519615
-0.2077000000000001,-9.467248018696827
-0.2087,-9.464418596097095
-0.2097000000000001,-9.470077441296555
-0.2107,-9.47149215259642
-0.2117000000000001,-9.475736286496016
-0.2127,-9.470077441296555
-0.2137000000000001,-9.475736286496016
-0.2147,-9.48563926559507
-0.2157000000000001,-9.506859935093045
-0.2167,-9.506859935093045
-0.21770000000000012,-9.501201089893586
-0.2187,-9.49129811079453
-0.21970000000000012,-9.502615801193452
-0.2207,-9.501201089893586
-0.22170000000000012,-9.505445223793181
-0.2227,-9.511104068992642
-0.22370000000000012,-9.501201089893586
-0.2247,-9.506859935093045
-0.22570000000000012,-9.521007048091697
-0.2267,-9.521007048091697
-0.22770000000000012,-9.522421759391563
-0.22870000000000001,-9.518177625491967
-0.22970000000000013,-9.516762914192102
-0.23070000000000002,-9.53656887239021
-0.23170000000000013,-9.546471851489269
-0.23270000000000002,-9.546471851489269
-0.23370000000000013,-9.542227717589672
-0.23470000000000002,-9.549301274088998
-0.23570000000000013,-9.566277809687378
-0.23670000000000002,-9.567692520987244
-0.2376999999999999,-9.567692520987244
-0.23870000000000002,-9.564863098387514
-0.2396999999999999,-9.566277809687378
-0.24070000000000003,-9.586083767885489
-0.24169999999999991,-9.600230880884139
-0.24270000000000003,-9.598816169584273
-0.24369999999999992,-9.610133859983193
-0.24470000000000003,-9.62003683908225
-0.24569999999999992,-9.622866261681981
-0.24670000000000003,-9.63701337468063
-0.24769999999999992,-9.63701337468063
-0.24870000000000003,-9.64550164247982
-0.24969999999999992,-9.65398991027901
-0.25070000000000003,-9.66813702327766
-0.2516999999999999,-9.690772404075501
-0.25270000000000004,-9.702090094474421
-0.2536999999999999,-9.704919517074153
-0.25470000000000004,-9.711993073573478
-0.2556999999999999,-9.723310763972396
-0.25670000000000004,-9.740287299570777
-0.25769999999999993,-9.745946144770238
-0.25870000000000004,-9.7516049899697
-0.25969999999999993,-9.769996236867943
-0.26070000000000004,-9.789802195066054
-0.26169999999999993,-9.8081934419643
-0.26270000000000004,-9.823755266262815
-0.26369999999999993,-9.830828822762141
-0.26470000000000005,-9.849220069660385
-0.26569999999999994,-9.876099584357823
-0.26670000000000005,-9.891661408656336
-0.26769999999999994,-9.898734965155663
-0.26870000000000005,-9.902979099055257
-0.26969999999999994,-9.921370345953502
-0.27070000000000005,-9.948249860650938
-0.27169999999999994,-9.968055818849047
-0.27270000000000005,-9.983617643147563
-0.27369999999999994,-10.003423601345673
-0.27470000000000006,-10.020400136944055
-0.27569999999999995,-10.040206095142164
-0.27670000000000006,-10.062841475940006
-0.27769999999999995,-10.071329743739195
-0.27870000000000006,-10.092550413237172
-0.27969999999999995,-10.109526948835553
-0.28070000000000006,-10.142065308732448
-0.28169999999999995,-10.173188957329478
-0.28270000000000006,-10.178847802528939
-0.28369999999999995,-10.184506647728398
-0.28470000000000006,-10.202897894626645
-0.28569999999999995,-10.231192120623945
-0.28670000000000007,-10.265145191820706
-0.28769999999999996,-10.280707016119223
-0.28870000000000007,-10.303342396917062
-0.28969999999999996,-10.331636622914363
-0.29070000000000007,-10.3585161376118
-0.29169999999999996,-10.385395652309235
-0.29270000000000007,-10.40661632180721
-0.29369999999999996,-10.422178146105725
-0.2947000000000001,-10.45471650600262
-0.29569999999999996,-10.490084288499247
-0.2967000000000001,-10.519793225796413
-0.29769999999999996,-10.541013895294387
-0.2987000000000001,-10.546672740493849
-0.29969999999999997,-10.574966966491148
-0.3007000000000001,-10.59760234728899
-0.30169999999999997,-10.632970129785615
-0.3027000000000001,-10.657020221883322
-0.30369999999999997,-10.675411468781567
-0.3047000000000001,-10.707949828678462
-0.30569999999999997,-10.74897645637455
-0.3067000000000001,-10.780100104971579
-0.3077,-10.80273548576942
-0.3087000000000001,-10.821126732667665
-0.3097,-10.855079803864427
-0.3107000000000001,-10.894691720260647
-0.3117,-10.928644791457408
-0.3127000000000001,-10.97108613045336
-0.3137,-10.995136222551066
-0.3147000000000001,-11.010698046849582
-0.3157,-11.060212942344856
-0.3167000000000001,-11.105483703940537
-0.3177,-11.13094850733811
-0.3187000000000001,-11.164901578534868
-0.3197,-11.197439938431765
-0.3207000000000001,-11.239881277427717
-0.3217,-11.286566750323264
-0.3227000000000001,-11.321934532819888
-0.3237,-11.367205294415568
-0.3247000000000001,-11.406817210811791
-0.3257,-11.463405662806393
-0.3267000000000001,-11.528482382600183
-0.3277,-11.570923721596136
-0.3287000000000001,-11.621853328391275
-0.3297,-11.681271202985608
-0.3307000000000001,-11.750592056678995
-0.3317,-11.825571755571842
-0.3327000000000001,-11.893477897965363
-0.3337,-11.979775287257132
-0.3347000000000001,-12.074560944348088
-0.3357,-12.191981982236886
-0.3367000000000001,-12.332038400923524
-0.3377,-12.47916837610949
-0.3387000000000001,-12.644689598193699
-0.3397,-12.865384560972643
-0.3407000000000001,-13.146912109645786
-0.3417,-13.494931089412585
-0.3427000000000001,-13.908026788973176
-0.3437,-14.387613919627421
-0.3447000000000001,-14.967645552572087
-0.3457,-15.618412750510005
-0.3467000000000001,-16.325768400442524
-0.3477,-17.07556538937099
-0.3487000000000001,-17.867803717295413
-0.3497,-18.688336271217132
-0.3507000000000001,-19.537163051136158
-0.3517,-20.400136944053827
-0.3527000000000001,-21.291405062968803
-0.3537,-22.182673181883775
-0.3547000000000001,-23.102235526796047
-0.3557,-24.035944984706973
-0.35670000000000013,-25.012095781613848
-0.3577,-26.016540804518023
-0.35870000000000013,-27.049280053419505
-0.3597,-28.12446064131693
-0.36070000000000013,-29.22793545521166
-0.3617,-30.402145834099635
-0.3626999999999999,-31.57635621298762
-0.3637,-32.821302156868846
-0.3646999999999999,-34.10868943974604
-0.3657,-35.48095940061512
-0.3666999999999999,-36.90981781347881
-0.3677,-38.33867622634249
-0.3686999999999999,-39.89485865619403
-0.36970000000000003,-41.43689397304693
-0.3706999999999999,-42.96478217690117
-0.37170000000000003,-44.591700171745956
-0.3726999999999999,-46.289353731584
-0.37370000000000003,-48.01530151741934
-0.3746999999999999,-49.76954352925199
-0.37570000000000003,-51.52378554108463
-0.3766999999999999,-53.30632177891458
-0.37770000000000004,-55.07471090374588
-0.3786999999999999,-56.857247141575826
-0.37970000000000004,-58.66807760540307
-0.3806999999999999,-60.45061384323302
-0.38170000000000004,-62.16241451606972
-0.38269999999999993,-63.860068075907755
-0.38370000000000004,-65.60016297474175
-0.38469999999999993,-67.17049251759194
-0.38570000000000004,-68.8115576254354
-0.38669999999999993,-69.30670658038814
-0.38570000000000004,-68.67008649544888
-0.38469999999999993,-68.03346641050962
-0.38370000000000004,-67.4675818905636
-0.38269999999999993,-67.01487427460678
-0.38170000000000004,-66.43484264166212
-0.3806999999999999,-65.6991927657323
-0.37970000000000004,-65.04842556779438
-0.3786999999999999,-64.32692280486322
-0.37770000000000004,-63.52053736394014
-0.3766999999999999,-62.68585769701977
-0.37570000000000003,-61.96435493408861
-0.3746999999999999,-61.10138104117093
-0.37370000000000003,-60.32328982624517
-0.3726999999999999,-59.54519861131939
-0.37170000000000003,-58.69637183140037
-0.3706999999999999,-58.017310407465146
-0.36970000000000003,-57.04115961055828
-0.3686999999999999,-56.06500881365141
-0.3677,-55.11715224274183
-0.3666999999999999,-54.31076680181876
-0.3657,-53.518528473894335
-0.3646999999999999,-52.86776127595642
-0.3637,-52.28772964301176
-0.3626999999999999,-51.410608637095436
-0.3617,-50.51934051818046
-0.36070000000000013,-49.642219512264134
-0.3597,-48.70851005435321
-0.35870000000000013,-47.84553616143554
-0.3577,-47.16647473750032
-0.35670000000000013,-46.628884443551605
-0.3557,-45.76591055063393
-0.3547000000000001,-44.88878954471762
-0.3537,-43.95508008680669
-0.3527000000000001,-43.134547532884966
-0.3517,-42.3281620919619
-0.3507000000000001,-41.620806442029384
-0.3497,-40.828568114104954
-0.3487000000000001,-40.05047689917919
-0.3477,-39.30067991025072
-0.3467000000000001,-38.5650300343209
-0.3457,-37.84352727138973
-0.3447000000000001,-37.32008409043967
-0.3437,-36.5136986495166
-0.3427000000000001,-35.707313208593526
-0.3417,-35.02825178465831
-0.3407000000000001,-34.278454795729836
-0.3397,-33.54280491980002
-0.3387000000000001,-32.79300793087155
-0.3377,-32.04321094194308
-0.3367000000000001,-31.20853127502271
-0.3357,-30.51532273808884
-0.3347000000000001,-29.878702653149578
-0.3337,-29.199641229214354
-0.3327000000000001,-28.53472691827779
-0.3317,-27.841518381343924
-0.3307000000000001,-27.120015618412754
-0.3297,-26.426807081478888
-0.3287000000000001,-25.747745657543668
-0.3277,-25.09697845960575
-0.3267000000000001,-24.460358374666487
-0.3257,-23.97935653271237
-0.3247000000000001,-23.257853769781203
-0.3237,-22.72026347583249
-0.3227000000000001,-22.168526068885125
-0.3217,-21.729965565926964
-0.3207000000000001,-21.2065223849769
-0.3197,-20.598196526034933
-0.3187000000000001,-20.07475334508487
-0.3177,-19.49472171214021
-0.3167000000000001,-18.985425644188794
-0.3157,-18.47612957623738
-0.3147000000000001,-18.009274847281915
-0.3137,-17.514125892329155
-0.3127000000000001,-17.018976937376394
-0.3117,-16.50968086942498
-0.3107000000000001,-16.014531914472215
-0.3097,-15.547677185516752
-0.3087000000000001,-15.05252823056399
-0.3077,-14.557379275611227
-0.3067000000000001,-14.06647445455806
-0.30569999999999997,-13.674599424495446
-0.3047000000000001,-13.27140670403391
-0.30369999999999997,-12.842749180174803
-0.3027000000000001,-12.423994635414752
-0.30169999999999997,-11.98260470985686
-0.3007000000000001,-11.559606031197214
-0.29969999999999997,-11.183292825433115
-0.2987000000000001,-10.770197125872524
-0.29769999999999996,-10.379736807109774
-0.2967000000000001,-9.99635004484635
-0.29569999999999996,-9.600230880884139
-0.2947000000000001,-9.228161809019635
-0.29369999999999996,-8.940975415147031
-0.29270000000000007,-8.631153640476589
-0.29169999999999996,-8.310014175407224
-0.29070000000000007,-7.971898174739481
-0.28969999999999996,-7.6337821740717375
-0.28870000000000007,-7.311227997702509
-0.28769999999999996,-7.063653520226129
-0.28670000000000007,-6.773637703753796
-0.28569999999999995,-6.477963042082004
-0.28470000000000006,-6.183703091710075
-0.28369999999999995,-5.8951019865376075
-0.28270000000000006,-5.630550973462847
-0.28169999999999995,-5.360341115188624
-0.28070000000000006,-5.221699407801851
-0.27969999999999995,-5.034957516219666
-0.27870000000000006,-4.778894770944094
-0.27769999999999995,-4.527076159568118
-0.27670000000000006,-4.289404661190791
-0.27569999999999995,-4.043244895014275
-0.27470000000000006,-3.818305798335734
-0.27369999999999994,-3.6315639067535495
-0.27270000000000005,-3.439163169971904
-0.27169999999999994,-3.2453477218903943
-0.27070000000000005,-3.0600205416080746
-0.26969999999999994,-2.9029875873230555
-0.26870000000000005,-2.7332222313392514
-0.26769999999999994,-2.5535538962563913
-0.26670000000000005,-2.3753002724733965
-0.26569999999999994,-2.202705493889862
-0.26470000000000005,-2.0329401379060577
