Potential V vs RHE, Current mA cm-2
0.4132999999999999,-0.009031516938338395
0.4122999999999999,-0.010866397494263347
0.4112999999999999,-0.011357302315316514
0.4102999999999999,-0.011602047370193167
0.4092999999999999,-0.011784545127875756
0.4082999999999999,-0.011910454433563745
0.4072999999999999,-0.012053340274850112
0.4062999999999999,-0.012197640827436346
0.4052999999999999,-0.012346185513922175
0.4042999999999999,-0.012501803756907329
0.4032999999999999,-0.012606492393097342
0.4022999999999999,-0.012721084008386408
0.4012999999999999,-0.01286396984967278
0.4002999999999999,-0.01296299964066333
0.3992999999999999,-0.013098811925450374
0.3982999999999999,-0.013153985666145111
0.3972999999999999,-0.013243112478036608
0.3962999999999999,-0.013374680628924057
0.3952999999999999,-0.01348785753291326
0.3942999999999999,-0.01358688732390381
0.39329999999999987,-0.013694405382693555
0.39229999999999987,-0.013769385081586403
0.39129999999999987,-0.013876903140376146
0.39029999999999987,-0.013958956395768317
0.38929999999999987,-0.014032521383361298
0.38829999999999987,-0.014115989350053336
0.38729999999999987,-0.014189554337646317
0.38629999999999987,-0.014316878354634173
0.38529999999999986,-0.014444202371622025
0.38429999999999986,-0.014514937936615275
0.38329999999999986,-0.014599820614607179
0.38229999999999986,-0.014670556179600431
0.38129999999999986,-0.014741291744593682
0.38029999999999986,-0.014826174422585584
0.37929999999999986,-0.014882762874580187
0.37829999999999986,-0.014981792665570736
0.37729999999999986,-0.015080822456561293
0.37629999999999986,-0.015165705134553195
0.37529999999999986,-0.015278882038542396
0.37429999999999986,-0.0153637647165343
0.37329999999999985,-0.015420353168528897
0.37229999999999985,-0.015476941620523503
0.37129999999999985,-0.015547677185516754
0.37029999999999985,-0.015632559863508654
0.36929999999999985,-0.015717442541500558
0.36829999999999985,-0.01575988388049651
0.36729999999999985,-0.01585891367148706
0.36629999999999985,-0.015943796349478963
0.36529999999999985,-0.016042826140469518
0.36429999999999985,-0.01611356170546277
0.36329999999999985,-0.016127708818461418
0.36229999999999984,-0.01618429727045602
0.36129999999999984,-0.016269179948447923
0.36029999999999984,-0.016368209739438477
0.35929999999999984,-0.016453092417430374
0.35829999999999984,-0.01650968086942498
0.35729999999999984,-0.01660871066041553
0.35629999999999984,-0.01670774045140608
0.35529999999999984,-0.016778476016399334
0.35429999999999984,-0.016849211581392583
0.35329999999999984,-0.016863358694391237
0.35229999999999984,-0.01691994714638584
0.35129999999999983,-0.01703312405037504
0.35029999999999983,-0.017132153841365592
0.34929999999999983,-0.017231183632356147
0.34829999999999983,-0.0173019191973494
0.34729999999999983,-0.0173868018753413
0.34629999999999983,-0.017429243214337253
0.34529999999999983,-0.017471684553333203
0.34429999999999983,-0.017556567231325104
0.3432999999999998,-0.017584861457322406
0.3422999999999998,-0.01765559702231566
0.3412999999999998,-0.017754626813306213
0.3402999999999998,-0.017867803717295416
0.3392999999999998,-0.017881950830294063
0.3382999999999998,-0.017952686395287316
0.3372999999999998,-0.018023421960280565
0.3362999999999998,-0.018080010412275173
0.3352999999999998,-0.01817904020326572
0.3342999999999998,-0.018235628655260322
0.3332999999999998,-0.018278069994256275
0.3322999999999998,-0.018362952672248176
0.3312999999999998,-0.018419541124242777
0.3302999999999998,-0.01849027668923603
0.3292999999999998,-0.01858930648022658
0.3282999999999998,-0.018645894932221182
0.3272999999999998,-0.018744924723211737
0.3262999999999998,-0.018773218949209036
0.3252999999999999,-0.01882980740120364
0.3242999999999999,-0.018900542966196893
0.3232999999999999,-0.018942984305192843
0.3222999999999999,-0.019042014096183394
0.3212999999999999,-0.0191551910001726
0.3202999999999999,-0.01922592656516585
0.3192999999999999,-0.01928251501716045
0.3182999999999999,-0.01928251501716045
0.3172999999999999,-0.019353250582153703
0.3162999999999999,-0.019438133260145606
0.3152999999999999,-0.01950886882513886
0.3142999999999999,-0.019607898616129407
0.3132999999999999,-0.01965033995512536
0.3122999999999999,-0.019749369746115915
0.3112999999999999,-0.019805958198110513
0.3102999999999999,-0.019834252424107815
0.3092999999999999,-0.019890840876102416
0.3082999999999999,-0.019947429328097017
0.3072999999999999,-0.02000401778009162
0.3062999999999999,-0.020103047571082173
0.3052999999999999,-0.02020207736207272
0.3042999999999999,-0.020315254266061927
0.3032999999999999,-0.020315254266061927
0.3022999999999999,-0.020357695605057877
0.3012999999999999,-0.020400136944053827
0.3002999999999999,-0.020470872509047083
0.2992999999999999,-0.02052746096104168
0.2982999999999999,-0.020612343639033585
0.2972999999999999,-0.02071137343002414
0.2962999999999999,-0.02078210899501739
0.2952999999999999,-0.02085284456001064
0.2942999999999999,-0.02088113878600794
0.2932999999999999,-0.020923580125003893
0.2922999999999999,-0.020980168576998495
0.2912999999999999,-0.021022609915994445
0.2902999999999999,-0.021121639706984996
0.2892999999999999,-0.0211782281589796
0.2882999999999999,-0.02119237527197825
0.2872999999999999,-0.021277257949970152
0.2862999999999999,-0.021347993514963404
0.2852999999999999,-0.021447023305953956
0.2842999999999999,-0.02153190598394586
0.2832999999999999,-0.021517758870947205
0.2822999999999999,-0.02158849443594046
0.2812999999999999,-0.02165923000093371
0.2802999999999999,-0.021729965565926962
0.2792999999999999,-0.021814848243918866
0.2782999999999999,-0.021828995356917517
0.2772999999999999,-0.02189973092191077
0.2762999999999999,-0.02199876071290132
0.2752999999999999,-0.02208364339089322
0.2742999999999999,-0.022154378955886473
0.2732999999999999,-0.022168526068885124
0.2722999999999999,-0.022210967407881078
0.2712999999999999,-0.02226755585987568
0.2702999999999999,-0.022366585650866227
0.2692999999999999,-0.02242317410286083
0.26829999999999987,-0.022493909667854084
0.26729999999999987,-0.022550498119848682
0.26629999999999987,-0.022635380797840585
0.26529999999999987,-0.02270611636283384
0.26429999999999987,-0.02273441058883114
0.26329999999999987,-0.02274855770182979
0.26229999999999987,-0.02280514615382439
0.26129999999999987,-0.022890028831816296
0.26029999999999986,-0.0230032057358055
0.25929999999999986,-0.023045647074801445
0.25829999999999986,-0.02310223552679605
0.25729999999999986,-0.023144676865792004
0.25629999999999986,-0.023172971091789302
0.25529999999999986,-0.023257853769781203
0.25429999999999986,-0.023300295108777156
0.25329999999999986,-0.023328589334774455
0.25229999999999986,-0.023441766238763657
0.25129999999999986,-0.023498354690758262
0.25029999999999986,-0.02356909025575151
0.24929999999999986,-0.023611531594747465
0.24829999999999985,-0.023625678707746112
0.24729999999999985,-0.023710561385738016
0.24629999999999985,-0.02373885561173532
0.24529999999999985,-0.02385203251572452
0.24429999999999985,-0.02393691519371642
0.24329999999999985,-0.02397935653271237
0.24229999999999985,-0.024050092097705623
0.24129999999999985,-0.024078386323702922
0.24029999999999985,-0.024120827662698876
0.23929999999999985,-0.024163269001694826
0.23829999999999985,-0.02420571034069078
0.23729999999999984,-0.02427644590568403
0.23629999999999984,-0.024375475696674583
0.23529999999999984,-0.024446211261667832
0.23429999999999984,-0.024488652600663786
0.23329999999999984,-0.024516946826661085
0.23229999999999984,-0.024559388165657038
0.23129999999999984,-0.024630123730650287
0.23029999999999984,-0.024700859295643543
0.22929999999999984,-0.02475744774763814
0.22829999999999984,-0.024814036199632745
0.22729999999999984,-0.024856477538628696
0.22629999999999983,-0.024927213103621948
0.22529999999999983,-0.024969654442617898
0.22429999999999983,-0.0250262428946125
0.22329999999999983,-0.0250828313466071
0.22229999999999983,-0.025139419798601705
0.22129999999999983,-0.025196008250596303
0.22029999999999983,-0.025266743815589552
0.21929999999999983,-0.025337479380582808
0.21829999999999983,-0.02535162649358146
0.21729999999999983,-0.02543650917157336
0.21629999999999983,-0.02547895051056931
0.21529999999999982,-0.025577980301559864
0.21429999999999982,-0.02562042164055581
0.21329999999999982,-0.025648715866553113
0.21229999999999982,-0.025705304318547718
0.21129999999999982,-0.02573359854454502
0.21029999999999982,-0.025818481222536924
0.20929999999999982,-0.025860922561532867
0.20829999999999982,-0.02591751101352747
0.20729999999999982,-0.02600239369151937
0.20629999999999982,-0.026073129256512624
0.20529999999999982,-0.02612971770850723
0.20429999999999982,-0.02620045327350048
0.20329999999999981,-0.026186306160501827
0.2022999999999998,-0.026257041725495082
0.2012999999999998,-0.02632777729048833
0.20029999999999992,-0.026398512855481584
0.19929999999999992,-0.026469248420474833
0.19829999999999992,-0.02649754264647214
0.19729999999999992,-0.02656827821146539
0.19629999999999992,-0.02662486666345999
0.19529999999999992,-0.026667308002455942
0.19429999999999992,-0.026780484906445145
0.19329999999999992,-0.026808779132442447
0.19229999999999992,-0.026837073358439746
0.19129999999999991,-0.02692195603643165
0.1902999999999999,-0.027006838714423546
0.1892999999999999,-0.0270775742794168
0.1882999999999999,-0.0270775742794168
0.1872999999999999,-0.027120015618412752
0.1862999999999999,-0.027162456957408702
0.1852999999999999,-0.02723319252240196
0.1842999999999999,-0.02727563386139791
0.1832999999999999,-0.02736051653938981
0.1822999999999999,-0.027445399217381712
0.1812999999999999,-0.02750198766937631
0.1802999999999999,-0.027572723234369562
0.1792999999999999,-0.027586870347368214
0.1782999999999999,-0.027615164573365516
0.1772999999999999,-0.027671753025360117
0.1762999999999999,-0.027714194364356067
0.1752999999999999,-0.027799077042347967
0.1742999999999999,-0.027841518381343924
0.1732999999999999,-0.027869812607341227
0.1722999999999999,-0.02796884239833177
0.1712999999999999,-0.02802543085032638
0.1702999999999999,-0.028082019302320977
0.1692999999999999,-0.02815275486731423
0.1682999999999999,-0.028166901980312884
0.1672999999999999,-0.028237637545306133
0.1662999999999999,-0.028280078884302083
0.1652999999999999,-0.028350814449295336
0.1642999999999999,-0.028421550014288588
0.1632999999999999,-0.028449844240285887
0.1622999999999999,-0.02854887403127644
0.1612999999999999,-0.02861960959626969
0.1602999999999999,-0.028647903822266993
0.1592999999999999,-0.028704492274261594
0.15829999999999989,-0.028732786500258897
0.15729999999999988,-0.02880352206525215
0.15629999999999988,-0.02888840474324405
0.15529999999999988,-0.02893084608224
0.15429999999999988,-0.029015728760231903
0.15329999999999988,-0.0290723172122265
0.15229999999999988,-0.02912890566422111
0.15129999999999988,-0.029171347003217055
0.15029999999999988,-0.029242082568210308
0.14929999999999988,-0.02927037679420761
0.14829999999999988,-0.029341112359200863
0.14729999999999988,-0.02941184792419411
0.14629999999999987,-0.029510877715184666
0.14529999999999987,-0.029609907506175218
0.14429999999999987,-0.02966649595816982
0.14329999999999987,-0.02970893729716577
0.14229999999999987,-0.029807967088156324
0.14129999999999987,-0.029850408427152274
0.14029999999999987,-0.029935291105144177
0.13929999999999987,-0.030034320896134725
0.13829999999999987,-0.030133350687125283
0.13729999999999987,-0.030246527591114486
0.13629999999999987,-0.030317263156107735
0.13529999999999986,-0.030416292947098293
0.13429999999999986,-0.030487028512091542
0.13329999999999986,-0.030571911190083446
0.13229999999999986,-0.0307275294330686
0.13129999999999986,-0.0308690005630551
0.13029999999999986,-0.031010471693041605
0.12929999999999986,-0.031123648597030807
0.12829999999999986,-0.031194384162024056
0.12729999999999986,-0.031350002405009215
0.12629999999999986,-0.03146317930899842
0.12529999999999986,-0.03163294466498222
0.12429999999999986,-0.03181685713396468
0.12329999999999985,-0.03194418115095252
0.12229999999999985,-0.032085652280939035
0.12129999999999985,-0.03224127052392419
0.12029999999999985,-0.03235444742791339
0.11929999999999985,-0.03248177144490124
0.11829999999999985,-0.03259494834889044
0.11729999999999985,-0.0327788608178729
0.11629999999999985,-0.032976920399854
0.11529999999999985,-0.03313253864283916
0.11429999999999985,-0.03325986265982701
0.11329999999999985,-0.03338718667681487
0.11229999999999984,-0.03351451069380272
0.11129999999999984,-0.033655981823789226
0.11029999999999984,-0.033797452953775724
0.10929999999999984,-0.033910629857764926
0.10829999999999984,-0.03408039521374873
0.10729999999999984,-0.03420771923073659
0.10629999999999984,-0.03436333747372174
0.10529999999999984,-0.0344906614907096
0.10429999999999984,-0.0346038383946988
0.10329999999999984,-0.03467457395969205
0.10229999999999984,-0.0347736037506826
0.10129999999999983,-0.03485848642867451
0.10029999999999983,-0.034999957558661005
0.09929999999999983,-0.03508484023665291
0.09829999999999983,-0.03521216425364076
0.09729999999999983,-0.03535363538362727
0.09629999999999983,-0.03545266517461782
0.09529999999999983,-0.035551694965608366
0.09429999999999983,-0.03560828341760297
0.09329999999999983,-0.035679018982596226
0.09229999999999983,-0.03577804877358678
0.09129999999999983,-0.03589122567757598
0.09029999999999982,-0.03599025546856653
0.08929999999999982,-0.03608928525955708
0.08829999999999982,-0.03614587371155169
0.08729999999999982,-0.03628734484153819
0.08629999999999982,-0.03637222751953009
0.08529999999999982,-0.036471257310520644
0.08429999999999982,-0.03655613998851255
0.08329999999999982,-0.036598581327508505
0.08229999999999982,-0.03671175823149771
0.08129999999999982,-0.03679664090948961
0.08029999999999982,-0.03689567070048015
0.07929999999999982,-0.0369664062654734
0.07829999999999981,-0.03703714183046666
0.07729999999999981,-0.03716446584745452
0.07629999999999981,-0.037305936977441015
0.07529999999999992,-0.03736252542943562
0.07429999999999992,-0.037390819655432915
0.07329999999999992,-0.037433260994428876
0.07229999999999992,-0.03754643789841807
0.07129999999999992,-0.03764546768940863
0.07029999999999992,-0.03771620325440188
0.06929999999999992,-0.03782938015839108
0.06829999999999992,-0.03791426283638299
0.06729999999999992,-0.037970851288377586
0.06629999999999991,-0.03802743974037219
0.06529999999999991,-0.038112322418364084
0.06429999999999991,-0.038154763757360044
0.06329999999999991,-0.03822549932235329
0.06229999999999991,-0.03829623488734655
0.06129999999999991,-0.038423558904334396
0.06029999999999991,-0.0385367358083236
0.05929999999999991,-0.0385650300343209
0.05829999999999991,-0.038635765599314156
0.05729999999999991,-0.038706501164307405
0.056299999999999906,-0.038763089616302
0.055299999999999905,-0.03884797229429391
0.054299999999999904,-0.03889041363328985
0.0532999999999999,-0.03897529631128176
0.0522999999999999,-0.03911676744126827
0.0512999999999999,-0.03920165011926016
0.0502999999999999,-0.03930067991025072
0.0492999999999999,-0.03935726836224532
0.0482999999999999,-0.03937141547524397
0.0472999999999999,-0.03947044526623452
0.0462999999999999,-0.039527033718229125
0.045299999999999896,-0.039597769283222374
0.044299999999999895,-0.039696799074212925
0.043299999999999894,-0.03975338752620753
0.04229999999999989,-0.03988071154319539
0.04129999999999989,-0.03999388844718459
0.04029999999999989,-0.04009291823817514
0.03929999999999989,-0.04009291823817514
0.03829999999999989,-0.04010706535117379
0.03729999999999989,-0.04019194802916569
0.03629999999999989,-0.040276830707157596
0.03529999999999989,-0.040361713385149496
0.034299999999999886,-0.04046074317614005
0.033299999999999885,-0.04051733162813465
0.032299999999999884,-0.04060221430612655
0.031299999999999883,-0.040715391210115755
0.030299999999999883,-0.04075783254911171
0.02929999999999988,-0.040800273888107655
0.02829999999999988,-0.04084271522710361
0.02729999999999988,-0.040927597905095515
0.02629999999999988,-0.04104077480908471
0.025299999999999878,-0.04112565748707661
0.024299999999999877,-0.04119639305206987
0.023299999999999876,-0.04128127573006177
0.022299999999999875,-0.041366158408053674
0.021299999999999875,-0.041451041086045574
0.020299999999999874,-0.04150762953804018
0.019299999999999873,-0.04152177665103883
0.018299999999999872,-0.04159251221603208
0.01729999999999987,-0.04169154200702263
0.01629999999999987,-0.04180471891101184
0.01529999999999987,-0.04188960158900373
0.014299999999999868,-0.04196033715399699
0.013299999999999867,-0.042002778492992936
0.012299999999999978,-0.04208766117098484
0.011299999999999866,-0.04214424962297945
0.010299999999999976,-0.04217254384897674
0.009299999999999864,-0.04224327941396999
0.008299999999999974,-0.04232816209196189
0.007299999999999862,-0.04245548610894975
0.006299999999999972,-0.04251207456094436
0.00529999999999986,-0.04261110435193491
0.0042999999999999705,-0.042667692803929506
0.0032999999999998586,-0.04271013414292545
0.0022999999999999687,-0.04279501682091736
0.0012999999999998568,-0.042837458159913314
0.00029999999999996696,-0.04287989949890925
-0.000700000000000145,-0.04297892928989981
-0.0017000000000000348,-0.04304966485489307
-0.0027000000000001467,-0.04316284175888227
-0.0037000000000000366,-0.04326187154987282
-0.0047000000000001485,-0.04333260711486608
-0.005700000000000038,-0.043389195566860675
-0.00670000000000015,-0.043403342679859326
-0.00770000000000004,-0.04344578401885528
-0.008700000000000152,-0.04353066669684717
-0.009700000000000042,-0.04362969648783773
-0.010700000000000154,-0.04372872627882829
-0.011700000000000044,-0.04379946184382154
-0.012700000000000156,-0.043870197408814794
-0.013700000000000045,-0.04395508008680669
-0.014700000000000157,-0.04401166853880129
-0.015700000000000047,-0.04401166853880129
-0.01670000000000016,-0.04406825699079589
-0.01770000000000005,-0.044138992555789146
-0.01870000000000016,-0.044223875233781046
-0.01970000000000005,-0.044308757911772946
-0.020700000000000163,-0.0444077877027635
-0.021700000000000053,-0.044506817493754056
-0.022700000000000164,-0.04456340594574865
-0.023700000000000054,-0.044577553058747305
-0.024700000000000166,-0.044662435736739205
-0.025700000000000056,-0.044690729962736514
-0.026700000000000168,-0.04471902418873381
-0.027700000000000058,-0.04483220109272301
-0.02870000000000017,-0.04493123088371357
-0.02970000000000006,-0.04505855490070142
-0.03070000000000017,-0.045100996239697363
-0.03170000000000006,-0.045115143352696015
-0.03270000000000017,-0.04515758469169197
-0.03370000000000006,-0.04522832025668522
-0.034700000000000175,-0.04527076159568117
-0.035700000000000065,-0.045313202934677124
-0.03670000000000018,-0.04538393849967037
-0.03770000000000007,-0.04545467406466363
-0.03870000000000018,-0.04552540962965688
-0.03970000000000007,-0.04559614519465013
-0.04070000000000018,-0.045666880759643376
-0.04170000000000007,-0.04572346921163799
-0.04270000000000018,-0.04578005766363259
-0.04370000000000007,-0.04583664611562719
-0.044700000000000184,-0.04587908745462314
-0.045700000000000074,-0.04593567590661774
-0.046700000000000186,-0.04597811724561369
-0.047700000000000076,-0.04603470569760829
-0.04870000000000019,-0.0461761768275948
-0.04970000000000008,-0.046232765279589395
-0.05070000000000019,-0.046303500844582644
-0.05170000000000008,-0.046345942183578605
-0.05270000000000019,-0.046360089296577256
-0.05370000000000008,-0.046416677748571854
-0.05470000000000019,-0.0464874133135651
-0.05570000000000008,-0.046515707539562405
-0.056700000000000195,-0.04660059021755431
-0.057700000000000085,-0.046699620008544857
-0.058700000000000196,-0.046784502686536764
-0.059700000000000086,-0.046869385364528664
-0.0607000000000002,-0.046897679590525966
-0.06170000000000009,-0.04694012092952192
-0.0627000000000002,-0.046996709381516524
-0.06370000000000009,-0.04703915072051247
-0.0647000000000002,-0.04712403339850437
-0.06570000000000009,-0.047166474737500325
-0.0667000000000002,-0.047251357415492225
