Apr. 16, 2025   19:30:16
Cyclic Voltammetry
File: c:/users/guazh/data/banditlqround7_x0exp590_r20/2025-04-16-exp1101\exp1101-2025-04-16t19_13_51-h2koh\exp1101_cv_sr_800mvs_efin_-1700mv.bin
Data Source:  Experiment
Instrument Model:  CHI760E
Header: CV ran at 800 mVs
Note: 

Init E (V) = -1
High E (V) = -1
Low E (V) = -1.7
Final E (V) = -1
Init P/N = N
Scan Rate (V/s) = 0.8
Segment = 3
Sample Interval (V) = 0.001
Quiet Time (sec) = 2
Sensitivity (A/V) = 0.01
Comp R (ohm) = 1.8

Results:

Channel 1:
Segment 1:

Segment 2:

Segment 3:

Potential/V, Current/A

-1.000, 1.865e-5
-1.001, 3.099e-5
-1.002, 3.099e-5
-1.003, 3.099e-5
-1.004, 3.099e-5
-1.005, 3.099e-5
-1.006, 3.407e-5
-1.007, 3.407e-5
-1.008, 3.407e-5
-1.009, 3.715e-5
-1.010, 3.407e-5
-1.011, 3.407e-5
-1.012, 3.715e-5
-1.013, 3.407e-5
-1.014, 3.715e-5
-1.015, 3.715e-5
-1.016, 3.715e-5
-1.017, 3.715e-5
-1.018, 4.024e-5
-1.019, 3.715e-5
-1.020, 3.715e-5
-1.021, 3.715e-5
-1.022, 4.024e-5
-1.023, 4.024e-5
-1.024, 3.715e-5
-1.025, 4.024e-5
-1.026, 4.024e-5
-1.027, 3.715e-5
-1.028, 4.024e-5
-1.029, 4.024e-5
-1.030, 4.024e-5
-1.031, 4.024e-5
-1.032, 4.024e-5
-1.033, 4.024e-5
-1.034, 4.024e-5
-1.035, 4.024e-5
-1.036, 4.024e-5
-1.037, 4.024e-5
-1.038, 4.024e-5
-1.039, 4.024e-5
-1.040, 4.024e-5
-1.041, 4.024e-5
-1.042, 4.332e-5
-1.043, 4.024e-5
-1.044, 4.024e-5
-1.045, 4.332e-5
-1.046, 4.332e-5
-1.047, 4.332e-5
-1.048, 4.332e-5
-1.049, 4.332e-5
-1.050, 4.332e-5
-1.051, 4.332e-5
-1.052, 4.332e-5
-1.053, 4.332e-5
-1.054, 4.332e-5
-1.055, 4.332e-5
-1.056, 4.332e-5
-1.057, 4.332e-5
-1.058, 4.332e-5
-1.059, 4.332e-5
-1.060, 4.332e-5
-1.061, 4.640e-5
-1.062, 4.332e-5
-1.063, 4.640e-5
-1.064, 4.332e-5
-1.065, 4.640e-5
-1.066, 4.640e-5
-1.067, 4.640e-5
-1.068, 4.640e-5
-1.069, 4.332e-5
-1.070, 4.640e-5
-1.071, 4.640e-5
-1.072, 4.640e-5
-1.073, 4.640e-5
-1.074, 4.640e-5
-1.075, 4.640e-5
-1.076, 4.640e-5
-1.077, 4.640e-5
-1.078, 4.640e-5
-1.079, 4.640e-5
-1.080, 4.640e-5
-1.081, 4.640e-5
-1.082, 4.640e-5
-1.083, 4.640e-5
-1.084, 4.949e-5
-1.085, 4.640e-5
-1.086, 4.949e-5
-1.087, 4.949e-5
-1.088, 4.949e-5
-1.089, 4.640e-5
-1.090, 4.949e-5
-1.091, 4.949e-5
-1.092, 4.949e-5
-1.093, 4.949e-5
-1.094, 4.949e-5
-1.095, 4.949e-5
-1.096, 4.949e-5
-1.097, 4.949e-5
-1.098, 4.949e-5
-1.099, 4.949e-5
-1.100, 4.949e-5
-1.101, 4.949e-5
-1.102, 5.257e-5
-1.103, 4.949e-5
-1.104, 4.949e-5
-1.105, 4.949e-5
-1.106, 4.949e-5
-1.107, 4.949e-5
-1.108, 4.949e-5
-1.109, 4.949e-5
-1.110, 4.949e-5
-1.111, 5.257e-5
-1.112, 4.949e-5
-1.113, 4.949e-5
-1.114, 4.949e-5
-1.115, 5.257e-5
-1.116, 5.257e-5
-1.117, 5.257e-5
-1.118, 4.949e-5
-1.119, 5.257e-5
-1.120, 5.257e-5
-1.121, 5.257e-5
-1.122, 5.257e-5
-1.123, 5.257e-5
-1.124, 5.257e-5
-1.125, 5.257e-5
-1.126, 5.257e-5
-1.127, 5.257e-5
-1.128, 5.257e-5
-1.129, 5.257e-5
-1.130, 5.257e-5
-1.131, 5.257e-5
-1.132, 5.257e-5
-1.133, 5.257e-5
-1.134, 5.257e-5
-1.135, 5.257e-5
-1.136, 5.257e-5
-1.137, 5.257e-5
-1.138, 5.257e-5
-1.139, 5.257e-5
-1.140, 5.257e-5
-1.141, 5.257e-5
-1.142, 5.257e-5
-1.143, 5.257e-5
-1.144, 5.257e-5
-1.145, 5.257e-5
-1.146, 5.257e-5
-1.147, 5.257e-5
-1.148, 5.257e-5
-1.149, 5.257e-5
-1.150, 5.257e-5
-1.151, 5.257e-5
-1.152, 5.257e-5
-1.153, 5.257e-5
-1.154, 5.257e-5
-1.155, 5.257e-5
-1.156, 5.565e-5
-1.157, 5.257e-5
-1.158, 5.257e-5
-1.159, 5.257e-5
-1.160, 5.565e-5
-1.161, 5.565e-5
-1.162, 5.257e-5
-1.163, 5.257e-5
-1.164, 5.257e-5
-1.165, 5.257e-5
-1.166, 5.257e-5
-1.167, 5.565e-5
-1.168, 5.565e-5
-1.169, 5.565e-5
-1.170, 5.565e-5
-1.171, 5.257e-5
-1.172, 5.565e-5
-1.173, 5.565e-5
-1.174, 5.257e-5
-1.175, 5.565e-5
-1.176, 5.565e-5
-1.177, 5.565e-5
-1.178, 5.565e-5
-1.179, 5.565e-5
-1.180, 5.565e-5
-1.181, 5.257e-5
-1.182, 5.565e-5
-1.183, 5.565e-5
-1.184, 5.565e-5
-1.185, 5.565e-5
-1.186, 5.565e-5
-1.187, 5.565e-5
-1.188, 5.257e-5
-1.189, 5.565e-5
-1.190, 5.565e-5
-1.191, 5.565e-5
-1.192, 5.257e-5
-1.193, 5.565e-5
-1.194, 5.565e-5
-1.195, 5.565e-5
-1.196, 5.565e-5
-1.197, 5.565e-5
-1.198, 5.565e-5
-1.199, 5.565e-5
-1.200, 5.565e-5
-1.201, 5.565e-5
-1.202, 5.565e-5
-1.203, 5.565e-5
-1.204, 5.565e-5
-1.205, 5.565e-5
-1.206, 5.565e-5
-1.207, 5.565e-5
-1.208, 5.565e-5
-1.209, 5.565e-5
-1.210, 5.565e-5
-1.211, 5.565e-5
-1.212, 5.565e-5
-1.213, 5.565e-5
-1.214, 5.565e-5
-1.215, 5.565e-5
-1.216, 5.565e-5
-1.217, 5.565e-5
-1.218, 5.565e-5
-1.219, 5.565e-5
-1.220, 5.565e-5
-1.221, 5.565e-5
-1.222, 5.565e-5
-1.223, 5.565e-5
-1.224, 5.565e-5
-1.225, 5.565e-5
-1.226, 5.565e-5
-1.227, 5.565e-5
-1.228, 5.565e-5
-1.229, 5.565e-5
-1.230, 5.565e-5
-1.231, 5.565e-5
-1.232, 5.565e-5
-1.233, 5.565e-5
-1.234, 5.565e-5
-1.235, 5.565e-5
-1.236, 5.565e-5
-1.237, 5.565e-5
-1.238, 5.873e-5
-1.239, 5.873e-5
-1.240, 5.565e-5
-1.241, 5.873e-5
-1.242, 5.873e-5
-1.243, 5.565e-5
-1.244, 5.873e-5
-1.245, 5.565e-5
-1.246, 5.873e-5
-1.247, 5.873e-5
-1.248, 5.873e-5
-1.249, 5.873e-5
-1.250, 5.873e-5
-1.251, 5.873e-5
-1.252, 5.873e-5
-1.253, 5.873e-5
-1.254, 5.873e-5
-1.255, 5.873e-5
-1.256, 5.873e-5
-1.257, 5.873e-5
-1.258, 5.873e-5
-1.259, 5.873e-5
-1.260, 5.873e-5
-1.261, 5.873e-5
-1.262, 5.873e-5
-1.263, 6.182e-5
-1.264, 5.873e-5
-1.265, 5.873e-5
-1.266, 5.873e-5
-1.267, 5.873e-5
-1.268, 5.873e-5
-1.269, 5.873e-5
-1.270, 5.873e-5
-1.271, 6.182e-5
-1.272, 5.873e-5
-1.273, 5.873e-5
-1.274, 5.873e-5
-1.275, 6.182e-5
-1.276, 6.182e-5
-1.277, 6.182e-5
-1.278, 6.182e-5
-1.279, 6.182e-5
-1.280, 6.182e-5
-1.281, 6.182e-5
-1.282, 6.182e-5
-1.283, 5.873e-5
-1.284, 6.182e-5
-1.285, 6.182e-5
-1.286, 6.182e-5
-1.287, 6.182e-5
-1.288, 6.182e-5
-1.289, 6.182e-5
-1.290, 6.182e-5
-1.291, 6.182e-5
-1.292, 6.182e-5
-1.293, 6.182e-5
-1.294, 6.182e-5
-1.295, 6.182e-5
-1.296, 6.182e-5
-1.297, 6.490e-5
-1.298, 6.490e-5
-1.299, 6.182e-5
-1.300, 6.490e-5
-1.301, 6.182e-5
-1.302, 6.490e-5
-1.303, 6.490e-5
-1.304, 6.490e-5
-1.305, 6.490e-5
-1.306, 6.182e-5
-1.307, 6.490e-5
-1.308, 6.490e-5
-1.309, 6.490e-5
-1.310, 6.490e-5
-1.311, 6.490e-5
-1.312, 6.490e-5
-1.313, 6.490e-5
-1.314, 6.490e-5
-1.315, 6.490e-5
-1.316, 6.490e-5
-1.317, 6.490e-5
-1.318, 6.490e-5
-1.319, 6.490e-5
-1.320, 6.490e-5
-1.321, 6.798e-5
-1.322, 6.490e-5
-1.323, 6.798e-5
-1.324, 6.798e-5
-1.325, 6.798e-5
-1.326, 6.798e-5
-1.327, 6.798e-5
-1.328, 6.798e-5
-1.329, 6.798e-5
-1.330, 6.798e-5
-1.331, 6.798e-5
-1.332, 6.798e-5
-1.333, 6.798e-5
-1.334, 6.798e-5
-1.335, 6.798e-5
-1.336, 6.798e-5
-1.337, 6.798e-5
-1.338, 6.798e-5
-1.339, 6.798e-5
-1.340, 6.798e-5
-1.341, 6.798e-5
-1.342, 7.107e-5
-1.343, 7.107e-5
-1.344, 7.107e-5
-1.345, 7.107e-5
-1.346, 7.107e-5
-1.347, 7.107e-5
-1.348, 6.798e-5
-1.349, 7.107e-5
-1.350, 7.107e-5
-1.351, 7.107e-5
-1.352, 7.107e-5
-1.353, 7.107e-5
-1.354, 7.107e-5
-1.355, 7.107e-5
-1.356, 7.415e-5
-1.357, 7.415e-5
-1.358, 7.107e-5
-1.359, 7.415e-5
-1.360, 7.415e-5
-1.361, 7.415e-5
-1.362, 7.415e-5
-1.363, 7.415e-5
-1.364, 7.415e-5
-1.365, 7.415e-5
-1.366, 7.415e-5
-1.367, 7.723e-5
-1.368, 7.415e-5
-1.369, 7.415e-5
-1.370, 7.723e-5
-1.371, 7.415e-5
-1.372, 7.723e-5
-1.373, 7.723e-5
-1.374, 7.723e-5
-1.375, 7.723e-5
-1.376, 7.723e-5
-1.377, 7.723e-5
-1.378, 7.723e-5
-1.379, 7.723e-5
-1.380, 8.032e-5
-1.381, 7.723e-5
-1.382, 8.032e-5
-1.383, 8.032e-5
-1.384, 8.032e-5
-1.385, 8.032e-5
-1.386, 8.032e-5
-1.387, 8.032e-5
-1.388, 8.032e-5
-1.389, 8.340e-5
-1.390, 8.340e-5
-1.391, 8.340e-5
-1.392, 8.340e-5
-1.393, 8.340e-5
-1.394, 8.340e-5
-1.395, 8.340e-5
-1.396, 8.648e-5
-1.397, 8.648e-5
-1.398, 8.648e-5
-1.399, 8.648e-5
-1.400, 8.648e-5
-1.401, 8.648e-5
-1.402, 8.648e-5
-1.403, 8.648e-5
-1.404, 8.648e-5
-1.405, 8.957e-5
-1.406, 8.957e-5
-1.407, 8.957e-5
-1.408, 8.957e-5
-1.409, 9.265e-5
-1.410, 9.265e-5
-1.411, 9.265e-5
-1.412, 9.265e-5
-1.413, 9.265e-5
-1.414, 9.265e-5
-1.415, 9.265e-5
-1.416, 9.573e-5
-1.417, 9.573e-5
-1.418, 9.573e-5
-1.419, 9.573e-5
-1.420, 9.573e-5
-1.421, 9.573e-5
-1.422, 9.882e-5
-1.423, 9.882e-5
-1.424, 9.882e-5
-1.425, 1.019e-4
-1.426, 1.019e-4
-1.427, 1.019e-4
-1.428, 1.050e-4
-1.429, 1.050e-4
-1.430, 1.050e-4
-1.431, 1.050e-4
-1.432, 1.050e-4
-1.433, 1.081e-4
-1.434, 1.050e-4
-1.435, 1.081e-4
-1.436, 1.111e-4
-1.437, 1.081e-4
-1.438, 1.111e-4
-1.439, 1.111e-4
-1.440, 1.111e-4
-1.441, 1.142e-4
-1.442, 1.142e-4
-1.443, 1.142e-4
-1.444, 1.173e-4
-1.445, 1.173e-4
-1.446, 1.173e-4
-1.447, 1.204e-4
-1.448, 1.204e-4
-1.449, 1.204e-4
-1.450, 1.235e-4
-1.451, 1.235e-4
-1.452, 1.235e-4
-1.453, 1.266e-4
-1.454, 1.266e-4
-1.455, 1.296e-4
-1.456, 1.296e-4
-1.457, 1.296e-4
-1.458, 1.327e-4
-1.459, 1.327e-4
-1.460, 1.358e-4
-1.461, 1.358e-4
-1.462, 1.389e-4
-1.463, 1.420e-4
-1.464, 1.420e-4
-1.465, 1.420e-4
-1.466, 1.451e-4
-1.467, 1.451e-4
-1.468, 1.481e-4
-1.469, 1.481e-4
-1.470, 1.481e-4
-1.471, 1.512e-4
-1.472, 1.512e-4
-1.473, 1.574e-4
-1.474, 1.574e-4
-1.475, 1.605e-4
-1.476, 1.605e-4
-1.477, 1.636e-4
-1.478, 1.636e-4
-1.479, 1.666e-4
-1.480, 1.697e-4
-1.481, 1.697e-4
-1.482, 1.728e-4
-1.483, 1.759e-4
-1.484, 1.790e-4
-1.485, 1.790e-4
-1.486, 1.821e-4
-1.487, 1.851e-4
-1.488, 1.882e-4
-1.489, 1.913e-4
-1.490, 1.944e-4
-1.491, 1.944e-4
-1.492, 1.975e-4
-1.493, 2.006e-4
-1.494, 2.036e-4
-1.495, 2.036e-4
-1.496, 2.098e-4
-1.497, 2.129e-4
-1.498, 2.129e-4
-1.499, 2.160e-4
-1.500, 2.191e-4
-1.501, 2.221e-4
-1.502, 2.252e-4
-1.503, 2.314e-4
-1.504, 2.314e-4
-1.505, 2.376e-4
-1.506, 2.406e-4
-1.507, 2.437e-4
-1.508, 2.468e-4
-1.509, 2.499e-4
-1.510, 2.530e-4
-1.511, 2.591e-4
-1.512, 2.622e-4
-1.513, 2.653e-4
-1.514, 2.684e-4
-1.515, 2.746e-4
-1.516, 2.807e-4
-1.517, 2.807e-4
-1.518, 2.869e-4
-1.519, 2.931e-4
-1.520, 2.961e-4
-1.521, 2.992e-4
-1.522, 3.054e-4
-1.523, 3.115e-4
-1.524, 3.146e-4
-1.525, 3.208e-4
-1.526, 3.270e-4
-1.527, 3.331e-4
-1.528, 3.362e-4
-1.529, 3.455e-4
-1.530, 3.485e-4
-1.531, 3.547e-4
-1.532, 3.609e-4
-1.533, 3.670e-4
-1.534, 3.732e-4
-1.535, 3.794e-4
-1.536, 3.855e-4
-1.537, 3.917e-4
-1.538, 3.979e-4
-1.539, 4.040e-4
-1.540, 4.102e-4
-1.541, 4.195e-4
-1.542, 4.256e-4
-1.543, 4.349e-4
-1.544, 4.410e-4
-1.545, 4.503e-4
-1.546, 4.565e-4
-1.547, 4.657e-4
-1.548, 4.719e-4
-1.549, 4.811e-4
-1.550, 4.904e-4
-1.551, 4.996e-4
-1.552, 5.089e-4
-1.553, 5.181e-4
-1.554, 5.274e-4
-1.555, 5.366e-4
-1.556, 5.489e-4
-1.557, 5.551e-4
-1.558, 5.674e-4
-1.559, 5.767e-4
-1.560, 5.890e-4
-1.561, 5.983e-4
-1.562, 6.106e-4
-1.563, 6.199e-4
-1.564, 6.322e-4
-1.565, 6.445e-4
-1.566, 6.569e-4
-1.567, 6.661e-4
-1.568, 6.815e-4
-1.569, 6.939e-4
-1.570, 7.062e-4
-1.571, 7.185e-4
-1.572, 7.339e-4
-1.573, 7.494e-4
-1.574, 7.617e-4
-1.575, 7.771e-4
-1.576, 7.894e-4
-1.577, 8.048e-4
-1.578, 8.233e-4
-1.579, 8.388e-4
-1.580, 8.542e-4
-1.581, 8.727e-4
-1.582, 8.881e-4
-1.583, 9.066e-4
-1.584, 9.220e-4
-1.585, 9.405e-4
-1.586, 9.590e-4
-1.587, 9.775e-4
-1.588, 9.960e-4
-1.589, 1.018e-3
-1.590, 1.036e-3
-1.591, 1.058e-3
-1.592, 1.076e-3
-1.593, 1.098e-3
-1.594, 1.119e-3
-1.595, 1.141e-3
-1.596, 1.162e-3
-1.597, 1.184e-3
-1.598, 1.209e-3
-1.599, 1.230e-3
-1.600, 1.255e-3
-1.601, 1.280e-3
-1.602, 1.304e-3
-1.603, 1.329e-3
-1.604, 1.354e-3
-1.605, 1.381e-3
-1.606, 1.406e-3
-1.607, 1.437e-3
-1.608, 1.462e-3
-1.609, 1.492e-3
-1.610, 1.520e-3
-1.611, 1.551e-3
-1.612, 1.582e-3
-1.613, 1.613e-3
-1.614, 1.643e-3
-1.615, 1.674e-3
-1.616, 1.705e-3
-1.617, 1.739e-3
-1.618, 1.773e-3
-1.619, 1.807e-3
-1.620, 1.844e-3
-1.621, 1.875e-3
-1.622, 1.915e-3
-1.623, 1.949e-3
-1.624, 1.986e-3
-1.625, 2.026e-3
-1.626, 2.063e-3
-1.627, 2.103e-3
-1.628, 2.143e-3
-1.629, 2.183e-3
-1.630, 2.223e-3
-1.631, 2.266e-3
-1.632, 2.306e-3
-1.633, 2.349e-3
-1.634, 2.396e-3
-1.635, 2.442e-3
-1.636, 2.488e-3
-1.637, 2.534e-3
-1.638, 2.581e-3
-1.639, 2.630e-3
-1.640, 2.679e-3
-1.641, 2.726e-3
-1.642, 2.775e-3
-1.643, 2.824e-3
-1.644, 2.880e-3
-1.645, 2.929e-3
-1.646, 2.985e-3
-1.647, 3.037e-3
-1.648, 3.093e-3
-1.649, 3.148e-3
-1.650, 3.204e-3
-1.651, 3.265e-3
-1.652, 3.324e-3
-1.653, 3.382e-3
-1.654, 3.441e-3
-1.655, 3.503e-3
-1.656, 3.564e-3
-1.657, 3.626e-3
-1.658, 3.688e-3
-1.659, 3.752e-3
-1.660, 3.817e-3
-1.661, 3.882e-3
-1.662, 3.947e-3
-1.663, 4.017e-3
-1.664, 4.085e-3
-1.665, 4.153e-3
-1.666, 4.224e-3
-1.667, 4.295e-3
-1.668, 4.366e-3
-1.669, 4.437e-3
-1.670, 4.511e-3
-1.671, 4.585e-3
-1.672, 4.659e-3
-1.673, 4.736e-3
-1.674, 4.813e-3
-1.675, 4.893e-3
-1.676, 4.970e-3
-1.677, 5.050e-3
-1.678, 5.127e-3
-1.679, 5.208e-3
-1.680, 5.291e-3
-1.681, 5.371e-3
-1.682, 5.454e-3
-1.683, 5.537e-3
-1.684, 5.624e-3
-1.685, 5.710e-3
-1.686, 5.793e-3
-1.687, 5.883e-3
-1.688, 5.966e-3
-1.689, 6.058e-3
-1.690, 6.151e-3
-1.691, 6.243e-3
-1.692, 6.336e-3
-1.693, 6.428e-3
-1.694, 6.521e-3
-1.695, 6.617e-3
-1.696, 6.712e-3
-1.697, 6.808e-3
-1.698, 6.903e-3
-1.699, 6.999e-3
-1.700, 7.030e-3
-1.699, 6.968e-3
-1.698, 6.909e-3
-1.697, 6.848e-3
-1.696, 6.789e-3
-1.695, 6.728e-3
-1.694, 6.666e-3
-1.693, 6.601e-3
-1.692, 6.536e-3
-1.691, 6.469e-3
-1.690, 6.404e-3
-1.689, 6.336e-3
-1.688, 6.271e-3
-1.687, 6.206e-3
-1.686, 6.142e-3
-1.685, 6.074e-3
-1.684, 6.006e-3
-1.683, 5.938e-3
-1.682, 5.870e-3
-1.681, 5.806e-3
-1.680, 5.741e-3
-1.679, 5.673e-3
-1.678, 5.608e-3
-1.677, 5.544e-3
-1.676, 5.476e-3
-1.675, 5.414e-3
-1.674, 5.349e-3
-1.673, 5.285e-3
-1.672, 5.220e-3
-1.671, 5.155e-3
-1.670, 5.090e-3
-1.669, 5.026e-3
-1.668, 4.961e-3
-1.667, 4.896e-3
-1.666, 4.834e-3
-1.665, 4.770e-3
-1.664, 4.708e-3
-1.663, 4.643e-3
-1.662, 4.582e-3
-1.661, 4.520e-3
-1.660, 4.458e-3
-1.659, 4.400e-3
-1.658, 4.341e-3
-1.657, 4.283e-3
-1.656, 4.221e-3
-1.655, 4.162e-3
-1.654, 4.104e-3
-1.653, 4.045e-3
-1.652, 3.984e-3
-1.651, 3.925e-3
-1.650, 3.866e-3
-1.649, 3.811e-3
-1.648, 3.752e-3
-1.647, 3.697e-3
-1.646, 3.641e-3
-1.645, 3.589e-3
-1.644, 3.533e-3
-1.643, 3.481e-3
-1.642, 3.429e-3
-1.641, 3.373e-3
-1.640, 3.324e-3
-1.639, 3.268e-3
-1.638, 3.216e-3
-1.637, 3.163e-3
-1.636, 3.111e-3
-1.635, 3.059e-3
-1.634, 3.012e-3
-1.633, 2.960e-3
-1.632, 2.914e-3
-1.631, 2.864e-3
-1.630, 2.815e-3
-1.629, 2.769e-3
-1.628, 2.723e-3
-1.627, 2.676e-3
-1.626, 2.630e-3
-1.625, 2.581e-3
-1.624, 2.538e-3
-1.623, 2.491e-3
-1.622, 2.445e-3
-1.621, 2.402e-3
-1.620, 2.359e-3
-1.619, 2.316e-3
-1.618, 2.275e-3
-1.617, 2.232e-3
-1.616, 2.192e-3
-1.615, 2.152e-3
-1.614, 2.112e-3
-1.613, 2.072e-3
-1.612, 2.032e-3
-1.611, 1.992e-3
-1.610, 1.955e-3
-1.609, 1.918e-3
-1.608, 1.881e-3
-1.607, 1.844e-3
-1.606, 1.807e-3
-1.605, 1.773e-3
-1.604, 1.736e-3
-1.603, 1.702e-3
-1.602, 1.668e-3
-1.601, 1.634e-3
-1.600, 1.600e-3
-1.599, 1.569e-3
-1.598, 1.536e-3
-1.597, 1.505e-3
-1.596, 1.471e-3
-1.595, 1.443e-3
-1.594, 1.412e-3
-1.593, 1.381e-3
-1.592, 1.354e-3
-1.591, 1.323e-3
-1.590, 1.295e-3
-1.589, 1.267e-3
-1.588, 1.240e-3
-1.587, 1.212e-3
-1.586, 1.187e-3
-1.585, 1.159e-3
-1.584, 1.135e-3
-1.583, 1.110e-3
-1.582, 1.085e-3
-1.581, 1.061e-3
-1.580, 1.036e-3
-1.579, 1.011e-3
-1.578, 9.898e-4
-1.577, 9.683e-4
-1.576, 9.436e-4
-1.575, 9.220e-4
-1.574, 9.004e-4
-1.573, 8.819e-4
-1.572, 8.603e-4
-1.571, 8.388e-4
-1.570, 8.172e-4
-1.569, 7.956e-4
-1.568, 7.771e-4
-1.567, 7.586e-4
-1.566, 7.401e-4
-1.565, 7.216e-4
-1.564, 7.062e-4
-1.563, 6.877e-4
-1.562, 6.692e-4
-1.561, 6.538e-4
-1.560, 6.384e-4
-1.559, 6.199e-4
-1.558, 6.044e-4
-1.557, 5.890e-4
-1.556, 5.736e-4
-1.555, 5.582e-4
-1.554, 5.459e-4
-1.553, 5.305e-4
-1.552, 5.150e-4
-1.551, 5.027e-4
-1.550, 4.904e-4
-1.549, 4.750e-4
-1.548, 4.626e-4
-1.547, 4.503e-4
-1.546, 4.380e-4
-1.545, 4.256e-4
-1.544, 4.133e-4
-1.543, 4.040e-4
-1.542, 3.917e-4
-1.541, 3.794e-4
-1.540, 3.701e-4
-1.539, 3.578e-4
-1.538, 3.485e-4
-1.537, 3.362e-4
-1.536, 3.270e-4
-1.535, 3.208e-4
-1.534, 3.085e-4
-1.533, 2.992e-4
-1.532, 2.900e-4
-1.531, 2.807e-4
-1.530, 2.746e-4
-1.529, 2.622e-4
-1.528, 2.530e-4
-1.527, 2.468e-4
-1.526, 2.376e-4
-1.525, 2.314e-4
-1.524, 2.252e-4
-1.523, 2.160e-4
-1.522, 2.098e-4
-1.521, 2.036e-4
-1.520, 1.944e-4
-1.519, 1.913e-4
-1.518, 1.821e-4
-1.517, 1.759e-4
-1.516, 1.666e-4
-1.515, 1.636e-4
-1.514, 1.574e-4
-1.513, 1.512e-4
-1.512, 1.451e-4
-1.511, 1.389e-4
-1.510, 1.327e-4
-1.509, 1.296e-4
-1.508, 1.235e-4
-1.507, 1.173e-4
-1.506, 1.142e-4
-1.505, 1.081e-4
-1.504, 1.019e-4
-1.503, 9.573e-5
-1.502, 9.265e-5
-1.501, 8.648e-5
-1.500, 8.340e-5
-1.499, 7.723e-5
-1.498, 7.415e-5
-1.497, 7.107e-5
-1.496, 6.798e-5
-1.495, 6.490e-5
-1.494, 5.873e-5
-1.493, 5.565e-5
-1.492, 5.257e-5
-1.491, 4.949e-5
-1.490, 4.332e-5
-1.489, 4.024e-5
-1.488, 3.715e-5
-1.487, 3.407e-5
-1.486, 3.099e-5
-1.485, 2.790e-5
-1.484, 2.482e-5
-1.483, 2.174e-5
-1.482, 1.865e-5
-1.481, 1.557e-5
-1.480, 1.249e-5
-1.479, 9.405e-6
-1.478, 6.322e-6
-1.477, 6.322e-6
-1.476, 3.239e-6
-1.475, 1.559e-7
-1.474, -2.927e-6
-1.473, -6.010e-6
-1.472, -9.093e-6
-1.471, -9.093e-6
-1.470, -1.218e-5
-1.469, -1.526e-5
-1.468, -1.526e-5
-1.467, -1.834e-5
-1.466, -2.143e-5
-1.465, -2.143e-5
-1.464, -2.759e-5
-1.463, -2.759e-5
-1.462, -3.068e-5
-1.461, -3.068e-5
-1.460, -3.068e-5
-1.459, -3.376e-5
-1.458, -3.376e-5
-1.457, -3.684e-5
-1.456, -3.992e-5
-1.455, -3.992e-5
-1.454, -4.301e-5
-1.453, -4.301e-5
-1.452, -4.609e-5
-1.451, -4.609e-5
-1.450, -4.917e-5
-1.449, -4.917e-5
-1.448, -4.917e-5
-1.447, -5.226e-5
-1.446, -5.226e-5
-1.445, -5.534e-5
-1.444, -5.534e-5
-1.443, -5.534e-5
-1.442, -5.842e-5
-1.441, -5.842e-5
-1.440, -6.151e-5
-1.439, -6.151e-5
-1.438, -6.151e-5
-1.437, -6.459e-5
-1.436, -6.151e-5
-1.435, -6.459e-5
-1.434, -6.459e-5
-1.433, -6.767e-5
-1.432, -6.767e-5
-1.431, -6.767e-5
-1.430, -6.767e-5
-1.429, -7.076e-5
-1.428, -7.076e-5
-1.427, -7.076e-5
-1.426, -7.076e-5
-1.425, -7.384e-5
-1.424, -7.384e-5
-1.423, -7.384e-5
-1.422, -7.384e-5
-1.421, -7.692e-5
-1.420, -7.692e-5
-1.419, -7.692e-5
-1.418, -7.692e-5
-1.417, -8.000e-5
-1.416, -8.000e-5
-1.415, -8.000e-5
-1.414, -8.000e-5
-1.413, -8.000e-5
-1.412, -8.000e-5
-1.411, -8.309e-5
-1.410, -8.309e-5
-1.409, -8.309e-5
-1.408, -8.309e-5
-1.407, -8.309e-5
-1.406, -8.617e-5
-1.405, -8.309e-5
-1.404, -8.617e-5
-1.403, -8.617e-5
-1.402, -8.617e-5
-1.401, -8.617e-5
-1.400, -8.925e-5
-1.399, -8.925e-5
-1.398, -8.925e-5
-1.397, -8.617e-5
-1.396, -8.925e-5
-1.395, -8.925e-5
-1.394, -8.925e-5
-1.393, -8.925e-5
-1.392, -8.925e-5
-1.391, -8.925e-5
-1.390, -8.925e-5
-1.389, -8.925e-5
-1.388, -8.925e-5
-1.387, -9.234e-5
-1.386, -8.925e-5
-1.385, -8.925e-5
-1.384, -9.234e-5
-1.383, -9.234e-5
-1.382, -9.234e-5
-1.381, -9.234e-5
-1.380, -9.234e-5
-1.379, -9.234e-5
-1.378, -9.234e-5
-1.377, -9.234e-5
-1.376, -9.234e-5
-1.375, -9.234e-5
-1.374, -9.542e-5
-1.373, -9.542e-5
-1.372, -9.234e-5
-1.371, -9.542e-5
-1.370, -9.542e-5
-1.369, -9.542e-5
-1.368, -9.542e-5
-1.367, -9.542e-5
-1.366, -9.542e-5
-1.365, -9.542e-5
-1.364, -9.234e-5
-1.363, -9.542e-5
-1.362, -9.234e-5
-1.361, -9.542e-5
-1.360, -9.234e-5
-1.359, -9.542e-5
-1.358, -9.542e-5
-1.357, -9.542e-5
-1.356, -9.542e-5
-1.355, -9.542e-5
-1.354, -9.542e-5
-1.353, -9.542e-5
-1.352, -9.542e-5
-1.351, -9.234e-5
-1.350, -9.234e-5
-1.349, -9.542e-5
-1.348, -9.542e-5
-1.347, -9.542e-5
-1.346, -9.542e-5
-1.345, -9.542e-5
-1.344, -9.234e-5
-1.343, -9.542e-5
-1.342, -9.542e-5
-1.341, -9.234e-5
-1.340, -9.542e-5
-1.339, -9.234e-5
-1.338, -9.234e-5
-1.337, -9.234e-5
-1.336, -9.542e-5
-1.335, -9.234e-5
-1.334, -9.234e-5
-1.333, -9.542e-5
-1.332, -9.234e-5
-1.331, -9.234e-5
-1.330, -9.542e-5
-1.329, -9.234e-5
-1.328, -9.542e-5
-1.327, -9.234e-5
-1.326, -9.234e-5
-1.325, -9.234e-5
-1.324, -9.234e-5
-1.323, -9.234e-5
-1.322, -9.234e-5
-1.321, -9.234e-5
-1.320, -9.542e-5
-1.319, -9.234e-5
-1.318, -9.234e-5
-1.317, -9.234e-5
-1.316, -9.234e-5
-1.315, -9.234e-5
-1.314, -9.234e-5
-1.313, -9.234e-5
-1.312, -9.234e-5
-1.311, -8.925e-5
-1.310, -9.234e-5
-1.309, -9.234e-5
-1.308, -9.234e-5
-1.307, -9.234e-5
-1.306, -8.925e-5
-1.305, -9.234e-5
-1.304, -8.925e-5
-1.303, -8.925e-5
-1.302, -8.925e-5
-1.301, -9.234e-5
-1.300, -8.925e-5
-1.299, -9.234e-5
-1.298, -8.925e-5
-1.297, -8.925e-5
-1.296, -8.925e-5
-1.295, -8.925e-5
-1.294, -8.925e-5
-1.293, -8.925e-5
-1.292, -8.925e-5
-1.291, -8.925e-5
-1.290, -8.925e-5
-1.289, -8.925e-5
-1.288, -8.925e-5
-1.287, -8.925e-5
-1.286, -8.925e-5
-1.285, -8.925e-5
-1.284, -8.925e-5
-1.283, -8.925e-5
-1.282, -8.617e-5
-1.281, -8.617e-5
-1.280, -8.617e-5
-1.279, -8.617e-5
-1.278, -8.617e-5
-1.277, -8.617e-5
-1.276, -8.617e-5
-1.275, -8.617e-5
-1.274, -8.617e-5
-1.273, -8.617e-5
-1.272, -8.617e-5
-1.271, -8.617e-5
-1.270, -8.617e-5
-1.269, -8.617e-5
-1.268, -8.617e-5
-1.267, -8.617e-5
-1.266, -8.617e-5
-1.265, -8.617e-5
-1.264, -8.617e-5
-1.263, -8.617e-5
-1.262, -8.617e-5
-1.261, -8.617e-5
-1.260, -8.617e-5
-1.259, -8.617e-5
-1.258, -8.617e-5
-1.257, -8.617e-5
-1.256, -8.617e-5
-1.255, -8.617e-5
-1.254, -8.617e-5
-1.253, -8.617e-5
-1.252, -8.617e-5
-1.251, -8.617e-5
-1.250, -8.617e-5
-1.249, -8.617e-5
-1.248, -8.617e-5
-1.247, -8.617e-5
-1.246, -8.617e-5
-1.245, -8.617e-5
-1.244, -8.617e-5
-1.243, -8.617e-5
-1.242, -8.617e-5
-1.241, -8.617e-5
-1.240, -8.617e-5
-1.239, -8.617e-5
-1.238, -8.617e-5
-1.237, -8.617e-5
-1.236, -8.617e-5
-1.235, -8.617e-5
-1.234, -8.617e-5
-1.233, -8.617e-5
-1.232, -8.617e-5
-1.231, -8.617e-5
-1.230, -8.309e-5
-1.229, -8.617e-5
-1.228, -8.617e-5
-1.227, -8.617e-5
-1.226, -8.617e-5
-1.225, -8.617e-5
-1.224, -8.617e-5
-1.223, -8.617e-5
-1.222, -8.617e-5
-1.221, -8.617e-5
-1.220, -8.617e-5
-1.219, -8.617e-5
-1.218, -8.617e-5
-1.217, -8.309e-5
-1.216, -8.617e-5
-1.215, -8.617e-5
-1.214, -8.617e-5
-1.213, -8.617e-5
-1.212, -8.617e-5
-1.211, -8.617e-5
-1.210, -8.617e-5
-1.209, -8.617e-5
-1.208, -8.617e-5
-1.207, -8.617e-5
-1.206, -8.617e-5
-1.205, -8.617e-5
-1.204, -8.925e-5
-1.203, -8.617e-5
-1.202, -8.617e-5
-1.201, -8.925e-5
-1.200, -8.617e-5
-1.199, -8.617e-5
-1.198, -8.925e-5
-1.197, -8.617e-5
-1.196, -8.925e-5
-1.195, -8.925e-5
-1.194, -8.925e-5
-1.193, -8.925e-5
-1.192, -8.925e-5
-1.191, -8.925e-5
-1.190, -8.925e-5
-1.189, -8.925e-5
-1.188, -8.925e-5
-1.187, -8.925e-5
-1.186, -8.925e-5
-1.185, -8.925e-5
-1.184, -8.925e-5
-1.183, -8.925e-5
-1.182, -8.925e-5
-1.181, -8.925e-5
-1.180, -8.925e-5
-1.179, -8.925e-5
-1.178, -8.925e-5
-1.177, -8.925e-5
-1.176, -9.234e-5
-1.175, -8.925e-5
-1.174, -9.234e-5
-1.173, -9.234e-5
-1.172, -9.234e-5
-1.171, -9.234e-5
-1.170, -9.234e-5
-1.169, -9.234e-5
-1.168, -9.234e-5
-1.167, -9.234e-5
-1.166, -9.234e-5
-1.165, -9.234e-5
-1.164, -9.234e-5
-1.163, -9.234e-5
-1.162, -9.234e-5
-1.161, -9.234e-5
-1.160, -9.234e-5
-1.159, -9.234e-5
-1.158, -9.234e-5
-1.157, -9.234e-5
-1.156, -9.234e-5
-1.155, -9.234e-5
-1.154, -9.234e-5
-1.153, -9.542e-5
-1.152, -9.542e-5
-1.151, -9.542e-5
-1.150, -9.234e-5
-1.149, -9.542e-5
-1.148, -9.234e-5
-1.147, -9.542e-5
-1.146, -9.542e-5
-1.145, -9.542e-5
-1.144, -9.542e-5
-1.143, -9.542e-5
-1.142, -9.542e-5
-1.141, -9.542e-5
-1.140, -9.542e-5
-1.139, -9.542e-5
-1.138, -9.542e-5
-1.137, -9.850e-5
-1.136, -9.850e-5
-1.135, -9.850e-5
-1.134, -9.850e-5
-1.133, -9.850e-5
-1.132, -9.850e-5
-1.131, -9.850e-5
-1.130, -9.850e-5
-1.129, -9.850e-5
-1.128, -1.016e-4
-1.127, -9.850e-5
-1.126, -9.850e-5
-1.125, -9.850e-5
-1.124, -1.016e-4
-1.123, -9.850e-5
-1.122, -1.016e-4
-1.121, -1.016e-4
-1.120, -1.016e-4
-1.119, -1.016e-4
-1.118, -1.016e-4
-1.117, -1.016e-4
-1.116, -1.016e-4
-1.115, -1.016e-4
-1.114, -1.016e-4
-1.113, -1.016e-4
-1.112, -1.016e-4
-1.111, -1.016e-4
-1.110, -1.016e-4
-1.109, -1.047e-4
-1.108, -1.016e-4
-1.107, -1.047e-4
-1.106, -1.047e-4
-1.105, -1.047e-4
-1.104, -1.047e-4
-1.103, -1.047e-4
-1.102, -1.047e-4
-1.101, -1.047e-4
-1.100, -1.047e-4
-1.099, -1.047e-4
-1.098, -1.047e-4
-1.097, -1.047e-4
-1.096, -1.047e-4
-1.095, -1.078e-4
-1.094, -1.078e-4
-1.093, -1.078e-4
-1.092, -1.078e-4
-1.091, -1.078e-4
-1.090, -1.078e-4
-1.089, -1.078e-4
-1.088, -1.078e-4
-1.087, -1.078e-4
-1.086, -1.078e-4
-1.085, -1.078e-4
-1.084, -1.078e-4
-1.083, -1.108e-4
-1.082, -1.078e-4
-1.081, -1.108e-4
-1.080, -1.108e-4
-1.079, -1.108e-4
-1.078, -1.108e-4
-1.077, -1.108e-4
-1.076, -1.108e-4
-1.075, -1.139e-4
-1.074, -1.108e-4
-1.073, -1.139e-4
-1.072, -1.139e-4
-1.071, -1.139e-4
-1.070, -1.139e-4
-1.069, -1.139e-4
-1.068, -1.139e-4
-1.067, -1.139e-4
-1.066, -1.139e-4
-1.065, -1.139e-4
-1.064, -1.139e-4
-1.063, -1.139e-4
-1.062, -1.170e-4
-1.061, -1.170e-4
-1.060, -1.170e-4
-1.059, -1.170e-4
-1.058, -1.170e-4
-1.057, -1.170e-4
-1.056, -1.170e-4
-1.055, -1.170e-4
-1.054, -1.170e-4
-1.053, -1.170e-4
-1.052, -1.170e-4
-1.051, -1.201e-4
-1.050, -1.201e-4
-1.049, -1.201e-4
-1.048, -1.201e-4
-1.047, -1.201e-4
-1.046, -1.201e-4
-1.045, -1.201e-4
-1.044, -1.201e-4
-1.043, -1.201e-4
-1.042, -1.201e-4
-1.041, -1.232e-4
-1.040, -1.232e-4
-1.039, -1.232e-4
-1.038, -1.232e-4
-1.037, -1.232e-4
-1.036, -1.232e-4
-1.035, -1.232e-4
-1.034, -1.232e-4
-1.033, -1.232e-4
-1.032, -1.232e-4
-1.031, -1.232e-4
-1.030, -1.232e-4
-1.029, -1.232e-4
-1.028, -1.232e-4
-1.027, -1.263e-4
-1.026, -1.263e-4
-1.025, -1.263e-4
-1.024, -1.263e-4
-1.023, -1.263e-4
-1.022, -1.263e-4
-1.021, -1.263e-4
-1.020, -1.263e-4
-1.019, -1.263e-4
-1.018, -1.263e-4
-1.017, -1.263e-4
-1.016, -1.263e-4
-1.015, -1.263e-4
-1.014, -1.293e-4
-1.013, -1.293e-4
-1.012, -1.293e-4
-1.011, -1.293e-4
-1.010, -1.293e-4
-1.009, -1.293e-4
-1.008, -1.293e-4
-1.007, -1.293e-4
-1.006, -1.293e-4
-1.005, -1.293e-4
-1.004, -1.293e-4
-1.003, -1.324e-4
-1.002, -1.293e-4
-1.001, -1.324e-4
