Potential V vs RHE, Current mA cm-2
0.05339999999999995,-0.05330632177891458
0.05239999999999995,-0.055088858016744534
0.051399999999999946,-0.0558103607796757
0.050399999999999945,-0.05643283375161631
0.049399999999999944,-0.057069453836555574
0.04839999999999994,-0.05762119124350294
0.04739999999999994,-0.058102193085457055
0.04639999999999994,-0.05858319492741117
0.04539999999999994,-0.059106638108361226
0.04439999999999994,-0.05965837551530859
0.04339999999999994,-0.0601393773572627
0.04239999999999994,-0.060606232086218174
0.04139999999999994,-0.061058939702174984
0.040399999999999936,-0.061554088657127755
0.039399999999999935,-0.06211997317707376
0.038399999999999934,-0.06264341635802383
0.03739999999999993,-0.06306782974798335
0.03639999999999993,-0.0635346844769388
0.03539999999999993,-0.06402983343189157
0.03439999999999993,-0.06458157083883892
0.03339999999999993,-0.06507671979379169
0.03239999999999993,-0.0655011331837512
0.03139999999999993,-0.06593969368670936
0.030399999999999927,-0.06640654841566482
0.029399999999999926,-0.06697243293561084
0.028399999999999925,-0.06746758189056361
0.027399999999999924,-0.0678637010545258
0.026399999999999924,-0.06830226155748398
0.025399999999999923,-0.06878326339943809
0.024399999999999922,-0.0692925594673895
0.02339999999999992,-0.06977356130934362
0.02239999999999992,-0.07016968047330582
0.02139999999999992,-0.07059409386326533
0.020399999999999918,-0.07106094859222079
0.019399999999999917,-0.07158439177317086
0.018399999999999916,-0.07205124650212633
0.017399999999999916,-0.07246151277908719
0.016399999999999915,-0.07282933771705208
0.015399999999999914,-0.0733103395590062
0.014399999999999913,-0.07380548851395898
0.013399999999999912,-0.07427234324291442
0.012399999999999911,-0.07468260951987529
0.01139999999999991,-0.0750504344578402
0.01039999999999991,-0.07548899496079836
0.009399999999999908,-0.07599829102874978
0.008399999999999908,-0.07640855730571063
0.007399999999999907,-0.07679052935667419
0.006399999999999906,-0.07717250140763775
0.005399999999999905,-0.07759691479759726
0.004399999999999904,-0.07809206375255001
0.003399999999999903,-0.07848818291651223
0.002399999999999902,-0.07885600785447715
0.0013999999999999013,-0.0792096856794434
0.00039999999999990044,-0.07961995195640426
-0.0006000000000001005,-0.08007265957236107
-0.0016000000000001013,-0.08048292584932194
-0.0026000000000001022,-0.08082245656128956
-0.003600000000000103,-0.0811478401602585
-0.004600000000000104,-0.08154395932422072
-0.005600000000000105,-0.08199666694017753
-0.006600000000000106,-0.08240693321713838
-0.007600000000000107,-0.08271816970310869
-0.008600000000000108,-0.083029406189079
-0.009600000000000108,-0.08336893690104662
-0.01060000000000011,-0.08376505606500882
-0.01160000000000011,-0.08414702811597238
-0.012600000000000111,-0.0844582646019427
-0.013600000000000112,-0.08472705974891705
-0.014600000000000113,-0.085052443347886
-0.015600000000000114,-0.08543441539884956
-0.016600000000000115,-0.08581638744981313
-0.017600000000000116,-0.08608518259678749
-0.018600000000000116,-0.08635397774376184
-0.019600000000000117,-0.0866510671167335
-0.020600000000000118,-0.08700474494169977
-0.02160000000000012,-0.08731598142767007
-0.02260000000000012,-0.08755648234864712
-0.02360000000000012,-0.08776868904362688
-0.024600000000000122,-0.08803748419060124
-0.025600000000000123,-0.08837701490256884
-0.026600000000000124,-0.0886741042755405
-0.027600000000000124,-0.08891460519651756
-0.028600000000000125,-0.0891268118914973
-0.029600000000000126,-0.08938145992547303
-0.030600000000000127,-0.08967854929844467
-0.03160000000000013,-0.08996149155841768
-0.03260000000000013,-0.09015955114039878
-0.03360000000000013,-0.0903293164963826
-0.03460000000000002,-0.09056981741735964
-0.03560000000000002,-0.09086690679033131
-0.03660000000000002,-0.09109326059830972
-0.03760000000000002,-0.0912630259542935
-0.03860000000000002,-0.09144693842327598
-0.039600000000000024,-0.09161670377925978
-0.040600000000000025,-0.09188549892623413
-0.041600000000000026,-0.09208355850821524
-0.04260000000000003,-0.09219673541220444
-0.04360000000000003,-0.0923523536551896
-0.04460000000000003,-0.09250797189817477
-0.04560000000000003,-0.09273432570615316
-0.04660000000000003,-0.09293238528813427
-0.04760000000000003,-0.09303141507912481
-0.04860000000000003,-0.09313044487011536
-0.04960000000000003,-0.09327191600010187
-0.050600000000000034,-0.09348412269508162
-0.051600000000000035,-0.09363974093806678
-0.052600000000000036,-0.09369632939006138
-0.053600000000000037,-0.09376706495505463
-0.05460000000000004,-0.09388024185904384
-0.05560000000000004,-0.09402171298903034
-0.05660000000000004,-0.09416318411901684
-0.05760000000000004,-0.09421977257101144
-0.05860000000000004,-0.0942622139100074
-0.05960000000000004,-0.0943470965879993
-0.06060000000000004,-0.09447442060498715
-0.061600000000000044,-0.09458759750897636
-0.06260000000000004,-0.09458759750897636
-0.06360000000000005,-0.09461589173497365
-0.06460000000000005,-0.09467248018696825
-0.06560000000000005,-0.0947432157519615
-0.06660000000000005,-0.09484224554295206
-0.06760000000000005,-0.09484224554295206
-0.06860000000000005,-0.09481395131695476
-0.06960000000000005,-0.09485639265595071
-0.07060000000000005,-0.09492712822094396
-0.07160000000000005,-0.09498371667293856
-0.07260000000000005,-0.09495542244694127
-0.07360000000000005,-0.09492712822094396
-0.07460000000000006,-0.09491298110794531
-0.07560000000000006,-0.0949695695599399
-0.07660000000000006,-0.09498371667293856
-0.07760000000000006,-0.09495542244694127
-0.07860000000000006,-0.09489883399494665
-0.07960000000000006,-0.09484224554295206
-0.08060000000000006,-0.09491298110794531
-0.08160000000000006,-0.09491298110794531
-0.08260000000000006,-0.09485639265595071
-0.08360000000000006,-0.0947715099779588
-0.08460000000000006,-0.09470077441296555
-0.08560000000000006,-0.0947432157519615
-0.08660000000000007,-0.09471492152596421
-0.08760000000000007,-0.0946300388479723
-0.08860000000000007,-0.0945451561699804
-0.08960000000000007,-0.09447442060498715
-0.09060000000000007,-0.0944602734919885
-0.09160000000000007,-0.09444612637898986
-0.09260000000000007,-0.09431880236200199
-0.09360000000000007,-0.09421977257101144
-0.09460000000000007,-0.09414903700601819
-0.09560000000000007,-0.09413488989301955
-0.09660000000000007,-0.09410659566702224
-0.09760000000000008,-0.09395097742403709
-0.09860000000000008,-0.09382365340704923
-0.09960000000000008,-0.09373877072905733
-0.10060000000000008,-0.09368218227706274
-0.10160000000000008,-0.09366803516406408
-0.10260000000000008,-0.09352656403407757
-0.10360000000000008,-0.09337094579109242
-0.10460000000000008,-0.09327191600010187
-0.10560000000000008,-0.09321532754810727
-0.10660000000000008,-0.09314459198311402
-0.10760000000000008,-0.09301726796612615
-0.10860000000000009,-0.09286164972314101
-0.10960000000000009,-0.09272017859315451
-0.11060000000000009,-0.09266359014115991
-0.11160000000000009,-0.09260700168916529
-0.11260000000000009,-0.09246553055917879
-0.11360000000000009,-0.09228161809019635
-0.11460000000000009,-0.09218258829920578
-0.11560000000000009,-0.09211185273421253
-0.11660000000000009,-0.09202697005622064
-0.1176000000000001,-0.09188549892623413
-0.1186000000000001,-0.09168743934425302
-0.1196000000000001,-0.09154596821426653
-0.1206000000000001,-0.09148937976227192
-0.1216000000000001,-0.09140449708428001
-0.1226000000000001,-0.09124887884129487
-0.1236000000000001,-0.09107911348531106
-0.1246000000000001,-0.0909234952423259
-0.1256000000000001,-0.090838612564334
-0.1266000000000001,-0.09075372988634212
-0.1276000000000001,-0.0905839645303583
-0.1286000000000001,-0.09042834628737315
-0.1296000000000001,-0.09025858093138935
-0.1306000000000001,-0.09015955114039878
-0.1316000000000001,-0.09010296268840419
-0.1326000000000001,-0.08991905021942173
-0.1336000000000001,-0.08973513775043927
-0.1346000000000001,-0.08957951950745412
-0.1356000000000001,-0.08948048971646357
-0.1366000000000001,-0.08942390126446896
-0.1376000000000001,-0.08923998879548652
-0.1386000000000001,-0.08905607632650406
-0.1396000000000001,-0.08891460519651756
-0.1406000000000001,-0.08882972251852565
-0.14160000000000011,-0.08873069272753512
-0.14260000000000012,-0.0885609273715513
-0.14360000000000012,-0.08836286778957018
-0.14460000000000012,-0.08823554377258234
-0.14560000000000012,-0.08813651398159178
-0.14660000000000012,-0.08807992552959719
-0.14760000000000012,-0.08792430728661203
-0.14860000000000012,-0.08774039481762959
-0.14960000000000012,-0.08759892368764308
-0.15060000000000012,-0.08749989389665253
-0.15160000000000012,-0.0874150112186606
-0.15260000000000012,-0.08728768720167276
-0.15360000000000013,-0.0871037747326903
-0.15460000000000013,-0.08694815648970515
-0.15560000000000013,-0.0868774209247119
-0.15660000000000013,-0.08677839113372135
-0.15760000000000013,-0.0866227728907362
-0.15860000000000013,-0.08645300753475238
-0.15960000000000002,-0.08629738929176724
-0.16060000000000002,-0.08622665372677399
-0.16160000000000002,-0.08612762393578344
-0.16260000000000002,-0.08595785857979962
-0.16360000000000002,-0.08578809322381582
-0.16460000000000002,-0.08564662209382931
-0.16560000000000002,-0.08560418075483338
-0.16660000000000003,-0.08556173941583743
-0.16760000000000003,-0.08533538560785901
-0.16860000000000003,-0.08516562025187521
-0.16960000000000003,-0.08501000200889006
-0.17060000000000003,-0.0849392664438968
-0.17160000000000003,-0.0848543837659049
-0.17260000000000003,-0.0846846184099211
-0.17360000000000003,-0.08452900016693596
-0.17460000000000003,-0.08440167614994809
-0.17560000000000003,-0.0842884992459589
-0.17660000000000003,-0.08424605790696293
-0.17760000000000004,-0.08410458677697644
-0.17860000000000004,-0.08393482142099262
-0.17960000000000004,-0.08380749740400478
-0.18060000000000004,-0.08373676183901152
-0.18160000000000004,-0.08368017338701693
-0.18260000000000004,-0.08353870225703043
-0.18360000000000004,-0.08338308401404526
-0.18460000000000004,-0.08326990711005607
-0.18560000000000004,-0.08318502443206416
-0.18660000000000004,-0.0831425830930682
-0.18760000000000004,-0.08301525907608036
-0.18860000000000005,-0.0828313466070979
-0.18960000000000005,-0.08270402259011005
-0.19060000000000005,-0.08264743413811544
-0.19160000000000005,-0.08259084568612084
-0.19260000000000005,-0.08246352166913298
-0.19360000000000005,-0.08226546208715188
-0.19460000000000005,-0.08215228518316267
-0.19560000000000005,-0.08208154961816942
-0.19660000000000005,-0.08201081405317617
-0.19760000000000005,-0.08191178426218561
-0.19860000000000005,-0.08174201890620184
-0.19960000000000006,-0.08160054777621531
-0.20060000000000006,-0.08154395932422072
-0.20160000000000006,-0.08150151798522477
-0.20260000000000006,-0.08138834108123556
-0.20360000000000006,-0.0812327228382504
-0.20460000000000006,-0.08110539882126255
-0.20560000000000006,-0.08106295748226659
-0.20660000000000006,-0.08099222191727334
-0.20760000000000006,-0.08087904501328413
-0.20860000000000006,-0.08075172099629631
-0.20960000000000006,-0.0806102498663098
-0.21060000000000006,-0.08055366141431519
-0.21160000000000007,-0.08052536718831789
-0.21260000000000007,-0.0804121902843287
-0.21360000000000007,-0.08027071915434218
-0.21460000000000007,-0.08015754225035297
-0.21560000000000007,-0.08008680668535972
-0.21660000000000007,-0.08008680668535972
-0.21760000000000007,-0.07998777689436919
-0.21860000000000007,-0.07984630576438266
-0.21960000000000007,-0.07976142308639078
-0.22060000000000007,-0.07967654040839886
-0.22160000000000007,-0.07964824618240157
-0.22260000000000008,-0.07956336350440966
-0.22360000000000008,-0.07942189237442315
-0.22460000000000008,-0.07930871547043396
-0.22560000000000008,-0.07923797990544071
-0.22660000000000008,-0.07922383279244205
-0.22760000000000008,-0.0791248030014515
-0.22860000000000008,-0.07899747898446366
-0.22960000000000008,-0.07888430208047445
-0.23060000000000008,-0.07884186074147849
-0.23160000000000008,-0.07879941940248254
-0.23260000000000008,-0.0787286838374893
-0.23360000000000009,-0.07858721270750278
-0.2346000000000001,-0.07848818291651223
-0.2356000000000001,-0.07847403580351359
-0.2366000000000001,-0.07841744735151898
-0.2376000000000001,-0.07834671178652573
-0.2386000000000001,-0.07821938776953788
-0.2396000000000001,-0.07809206375255001
-0.2406000000000001,-0.07807791663955138
-0.2416000000000001,-0.07804962241355407
-0.2426000000000001,-0.07799303396155947
-0.2436000000000001,-0.07786570994457162
-0.2446000000000001,-0.07775253304058242
-0.2456000000000001,-0.07772423881458512
-0.2466000000000001,-0.07771009170158645
-0.2476000000000001,-0.0776393561365932
-0.2486000000000001,-0.0774978850066067
-0.2496000000000001,-0.07741300232861481
-0.2506000000000001,-0.07738470810261751
-0.2516000000000001,-0.07738470810261751
-0.2526000000000001,-0.0772998254246256
-0.2536000000000001,-0.0771866485206364
-0.2546000000000001,-0.0770734716166472
-0.2556000000000001,-0.07704517739064991
-0.2566000000000001,-0.07705932450364854
-0.2576000000000001,-0.07697444182565666
-0.2586000000000001,-0.07686126492166745
-0.2596000000000001,-0.07677638224367554
-0.2606000000000001,-0.07674808801767824
-0.2616000000000001,-0.07674808801767824
-0.2626000000000001,-0.07669149956568365
-0.2636000000000001,-0.07656417554869578
-0.2646000000000001,-0.07649343998370253
-0.2656000000000001,-0.07645099864470659
-0.2666000000000001,-0.07643685153170793
-0.2676000000000001,-0.07640855730571063
-0.2686000000000001,-0.07629538040172142
-0.2696000000000001,-0.07619635061073088
-0.2706000000000001,-0.07619635061073088
-0.2716000000000001,-0.07618220349773222
-0.2726000000000001,-0.07613976215873627
-0.2736000000000001,-0.07602658525474706
-0.2746000000000001,-0.07594170257675517
-0.2756000000000001,-0.07591340835075787
-0.2766000000000001,-0.07592755546375651
-0.2776000000000001,-0.07587096701176191
-0.2786000000000001,-0.07575779010777271
-0.2796000000000001,-0.07567290742978082
-0.2806000000000001,-0.07565876031678216
-0.28160000000000013,-0.07567290742978082
-0.28260000000000013,-0.0756163189777862
-0.28360000000000013,-0.075503142073797
-0.2846,-0.07543240650880376
-0.2856,-0.07538996516980781
-0.2866,-0.0754182593958051
-0.2876,-0.07537581805680914
-0.2886,-0.07526264115281994
-0.2896,-0.07517775847482806
-0.2906,-0.07514946424883075
-0.2916,-0.07517775847482806
-0.2926,-0.07512117002283344
-0.2936,-0.07503628734484155
-0.29460000000000003,-0.07496555177984829
-0.29560000000000003,-0.0749089633278537
-0.29660000000000003,-0.07495140466684964
-0.29760000000000003,-0.07489481621485504
-0.29860000000000003,-0.07478163931086583
-0.29960000000000003,-0.07473919797186988
-0.30060000000000003,-0.07471090374587258
-0.30160000000000003,-0.07473919797186988
-0.30260000000000004,-0.07468260951987529
-0.30360000000000004,-0.07458357972888473
-0.30460000000000004,-0.07452699127689014
-0.30560000000000004,-0.07448454993789419
-0.30660000000000004,-0.07451284416389148
-0.30760000000000004,-0.07448454993789419
-0.30860000000000004,-0.07438552014690362
-0.30960000000000004,-0.07430063746891173
-0.31060000000000004,-0.07430063746891173
-0.31160000000000004,-0.07432893169490903
-0.31260000000000004,-0.07427234324291442
-0.31360000000000005,-0.07417331345192386
-0.31460000000000005,-0.07410257788693062
-0.31560000000000005,-0.07410257788693062
-0.31660000000000005,-0.07410257788693062
-0.31760000000000005,-0.07407428366093333
-0.31860000000000005,-0.07398940098294142
-0.31960000000000005,-0.07394695964394547
-0.32060000000000005,-0.07391866541794817
-0.32160000000000005,-0.07391866541794817
-0.32260000000000005,-0.07389037119195085
-0.32360000000000005,-0.07380548851395898
-0.32460000000000006,-0.07372060583596705
-0.32560000000000006,-0.07370645872296841
-0.32660000000000006,-0.07373475294896571
-0.32760000000000006,-0.07370645872296841
-0.32860000000000006,-0.0736215760449765
-0.32960000000000006,-0.07353669336698461
-0.33060000000000006,-0.0735083991409873
-0.33160000000000006,-0.07356498759298191
-0.33260000000000006,-0.07352254625398597
-0.33360000000000006,-0.07343766357599404
-0.33460000000000006,-0.07338107512399945
-0.33560000000000006,-0.0733669280110008
-0.33660000000000007,-0.07338107512399945
-0.33760000000000007,-0.0733669280110008
-0.33860000000000007,-0.0732537511070116
-0.33960000000000007,-0.07319716265501701
-0.34060000000000007,-0.07318301554201835
-0.34160000000000007,-0.07319716265501701
-0.34260000000000007,-0.07318301554201835
-0.34360000000000007,-0.0731122799770251
-0.3446000000000001,-0.0730556915250305
-0.3456000000000001,-0.0730273972990332
-0.3466000000000001,-0.0730556915250305
-0.34759999999999996,-0.07304154441203185
-0.3486000000000001,-0.07294251462104129
-0.34959999999999997,-0.0728859261690467
-0.3506000000000001,-0.07285763194304938
-0.35159999999999997,-0.0728859261690467
-0.3526000000000001,-0.0728859261690467
-0.35359999999999997,-0.07278689637805613
-0.3546000000000001,-0.07271616081306288
-0.35559999999999997,-0.07271616081306288
-0.3566000000000001,-0.07274445503906019
-0.3576,-0.07271616081306288
-0.3586000000000001,-0.07265957236106828
-0.3596,-0.07258883679607502
-0.3606000000000001,-0.07257468968307638
-0.3616,-0.07260298390907369
-0.3626000000000001,-0.07257468968307638
-0.3636,-0.07251810123108177
-0.3646000000000001,-0.07244736566608852
-0.3656,-0.07243321855308989
-0.3666000000000001,-0.07247565989208582
-0.3676,-0.07243321855308989
-0.3686000000000001,-0.07239077721409394
-0.3696,-0.07233418876209932
-0.3706000000000001,-0.07234833587509798
-0.3716,-0.07237663010109527
-0.3726000000000001,-0.07236248298809662
-0.3736,-0.07227760031010473
-0.3746000000000001,-0.07222101185811013
-0.3756,-0.07217857051911417
-0.3766000000000001,-0.07223515897110877
-0.3776,-0.07223515897110877
-0.3786000000000001,-0.07215027629311688
-0.3796,-0.07210783495412092
-0.3806000000000001,-0.07209368784112226
-0.3816,-0.07212198206711957
-0.3826000000000001,-0.07212198206711957
-0.3836,-0.07206539361512497
-0.3846000000000001,-0.07200880516313038
-0.3856,-0.07196636382413442
-0.3866000000000001,-0.07202295227612901
-0.3876,-0.07202295227612901
-0.3886000000000001,-0.07195221671113576
-0.3896,-0.07190977537213981
-0.3906000000000001,-0.07188148114614251
-0.3916,-0.07192392248513847
-0.3926000000000001,-0.07190977537213981
-0.3936,-0.07186733403314385
-0.3946000000000001,-0.07178245135515196
-0.3956,-0.0717965984681506
-0.3966000000000001,-0.07183903980714657
-0.3976,-0.07183903980714657
-0.3986000000000001,-0.07178245135515196
-0.3996,-0.07172586290315736
-0.4006000000000001,-0.07172586290315736
-0.4016,-0.07175415712915466
-0.4026000000000001,-0.07178245135515196
-0.4036,-0.07172586290315736
-0.4046000000000001,-0.07164098022516545
-0.4056,-0.0716268331121668
-0.40660000000000013,-0.07166927445116276
-0.4076,-0.07168342156416141
-0.40860000000000013,-0.0716268331121668
-0.4096,-0.07158439177317086
-0.41060000000000013,-0.07155609754717356
-0.4116,-0.0716268331121668
-0.41260000000000013,-0.07164098022516545
-0.4136,-0.0715702446601722
-0.41460000000000014,-0.07151365620817761
-0.4156,-0.07149950909517895
-0.41660000000000014,-0.07154195043417491
-0.4176,-0.07155609754717356
-0.41860000000000014,-0.07151365620817761
-0.41960000000000003,-0.07145706775618299
-0.42060000000000014,-0.0714287735301857
-0.42160000000000003,-0.07151365620817761
-0.42260000000000014,-0.07152780332117625
-0.42360000000000003,-0.07144292064318435
-0.42460000000000014,-0.07141462641718704
-0.42560000000000003,-0.07138633219118974
-0.42660000000000015,-0.0714287735301857
-0.42760000000000004,-0.07145706775618299
-0.42860000000000015,-0.07138633219118974
-0.42960000000000004,-0.0713438908521938
-0.43060000000000015,-0.0713438908521938
-0.43160000000000004,-0.07135803796519245
-0.43260000000000015,-0.07140047930418841
-0.43360000000000004,-0.0713438908521938
-0.43460000000000015,-0.07131559662619649
-0.43560000000000004,-0.07131559662619649
-0.43660000000000015,-0.07135803796519245
