Potential V vs RHE, Current mA cm-2
0.05339999999999995,0.40984186357090113
0.05239999999999995,0.3425016056973254
0.051399999999999946,0.29029875873230554
0.050399999999999945,0.25790186996539616
0.049399999999999944,0.23342736447773108
0.04839999999999994,0.212065223849769
0.04739999999999994,0.193249563561564
0.04639999999999994,0.17556567231325104
0.04539999999999994,0.1588720789748436
0.04439999999999994,0.1435931969363012
0.04339999999999994,0.12919143590367516
0.04239999999999994,0.11511505847001803
0.04139999999999994,0.10188750781627993
0.040399999999999936,0.08888631097052026
0.039399999999999935,0.07653588132269848
0.038399999999999934,0.06475133619482273
0.03739999999999993,0.05382976495986465
0.03639999999999993,0.04314869464588362
0.03539999999999993,0.032722272365878304
0.03439999999999993,0.022536351006850038
0.03339999999999993,0.013333654001227971
0.03239999999999993,0.003996559422118728
0.03139999999999993,-0.00560367145876541
0.030399999999999927,-0.014373466806628774
0.029399999999999926,-0.0230880884137974
0.028399999999999925,-0.03110950148403216
0.027399999999999924,-0.0388196780682966
0.026399999999999924,-0.04692597381652327
0.025399999999999923,-0.054791768643772866
0.024399999999999922,-0.06207753183807782
0.02339999999999992,-0.06895302875542189
0.02239999999999992,-0.07536167094381051
0.02139999999999992,-0.08247766878213163
0.020399999999999918,-0.08919754745649056
0.019399999999999917,-0.09569107232287108
0.018399999999999916,-0.10168944823429883
0.017399999999999916,-0.10743317611175088
0.016399999999999915,-0.1136720529441557
0.015399999999999914,-0.11974116442057671
0.014399999999999913,-0.12514536158606115
0.013399999999999912,-0.13059200009054156
0.012399999999999911,-0.13579813767404486
0.01139999999999991,-0.14101842237054685
0.01039999999999991,-0.1467055617960043
0.009399999999999908,-0.15165705134553195
0.008399999999999908,-0.15632559863508652
0.007399999999999907,-0.16113561705462764
0.006399999999999906,-0.1656626932141958
0.005399999999999905,-0.17061418276372342
0.004399999999999904,-0.17499978779330505
0.003399999999999903,-0.17910245056291366
0.002399999999999902,-0.18348805559249526
0.0013999999999999013,-0.18773218949209036
0.00039999999999990044,-0.1922592656516585
-0.0006000000000001005,-0.1966448706812401
-0.0016000000000001013,-0.20018164893090268
-0.0026000000000001022,-0.20428431170051128
-0.003600000000000103,-0.20838697447011992
-0.004600000000000104,-0.21220669497975553
-0.005600000000000105,-0.2164508288793506
-0.006600000000000106,-0.2199876071290132
-0.007600000000000107,-0.22366585650866228
-0.008600000000000108,-0.22748557701829786
-0.009600000000000108,-0.2313052975279335
-0.01060000000000011,-0.23484207577759608
-0.01160000000000011,-0.23837885402725867
-0.012600000000000111,-0.24248151679686727
-0.013600000000000112,-0.24615976617651636
-0.014600000000000113,-0.24927213103621945
-0.015600000000000114,-0.252808909285882
-0.016600000000000115,-0.2560627452755716
-0.017600000000000116,-0.2591751101352747
-0.018600000000000116,-0.2627118883849373
-0.019600000000000117,-0.2662486666345999
-0.020600000000000118,-0.269643973754276
-0.02160000000000012,-0.2731807520039386
-0.02260000000000012,-0.27572723234369567
-0.02360000000000012,-0.27940548172334473
-0.024600000000000122,-0.28308373110299384
-0.025600000000000123,-0.28619609596269696
-0.026600000000000124,-0.2894499319523865
-0.027600000000000124,-0.2924208256821031
-0.028600000000000125,-0.2955331905418062
-0.029600000000000126,-0.2996358533114148
-0.030600000000000127,-0.3028896893011043
-0.03160000000000013,-0.3058605830308209
-0.03260000000000013,-0.30897294789052404
-0.03360000000000013,-0.3122267838802136
-0.03460000000000002,-0.3159050332598627
-0.03560000000000002,-0.31930034037953875
-0.03660000000000002,-0.32241270523924187
-0.03760000000000002,-0.32580801235891793
-0.03860000000000002,-0.329203319478594
-0.039600000000000024,-0.33302303998822963
-0.040600000000000025,-0.33655981823789227
-0.041600000000000026,-0.3395307119676088
-0.04260000000000003,-0.3432089613472579
-0.04360000000000003,-0.346604268466934
-0.04460000000000003,-0.35042398897656957
-0.04560000000000003,-0.3541022383562187
-0.04660000000000003,-0.3572146032159218
-0.04760000000000003,-0.36060991033559786
-0.04860000000000003,-0.36442963084523344
-0.04960000000000003,-0.368249351354869
-0.050600000000000034,-0.37221054299449113
-0.051600000000000035,-0.3757473212441537
-0.052600000000000036,-0.37914262836382984
-0.053600000000000037,-0.38338676226342494
-0.05460000000000004,-0.387347953903047
-0.05560000000000004,-0.39116767441268263
-0.05660000000000004,-0.3949873949223182
-0.05760000000000004,-0.39838270204199433
-0.05860000000000004,-0.40290977820156243
-0.05960000000000004,-0.4075783254911171
-0.06060000000000004,-0.4112565748707662
-0.061600000000000044,-0.41550070877036127
-0.06260000000000004,-0.4196033715399699
-0.06360000000000005,-0.4242719188295245
-0.06460000000000005,-0.42879899498909263
-0.06560000000000005,-0.4327601866287147
-0.06660000000000005,-0.4375702050482558
-0.06760000000000005,-0.44167286781786447
-0.06860000000000005,-0.44619994397743257
-0.06960000000000005,-0.4514343757869332
-0.07060000000000005,-0.45610292307648787
-0.07160000000000005,-0.46077147036604243
-0.07260000000000005,-0.46544001765559706
-0.07360000000000005,-0.47053297833511115
-0.07460000000000006,-0.4761918235345713
-0.07560000000000006,-0.48114331308409897
-0.07660000000000006,-0.4862362737636131
-0.07760000000000006,-0.4913292344431272
-0.07860000000000006,-0.4964221951226413
-0.07960000000000006,-0.5023639825820745
-0.08060000000000006,-0.5080228277815346
-0.08160000000000006,-0.5131157884610488
-0.08260000000000006,-0.5186331625305225
-0.08360000000000006,-0.5245749499899556
-0.08460000000000006,-0.5305167374493888
-0.08560000000000006,-0.5367414671687949
-0.08660000000000007,-0.5422588412382686
-0.08760000000000007,-0.5482006286977017
-0.08860000000000007,-0.5547083006770809
-0.08960000000000007,-0.5612159726564601
-0.09060000000000007,-0.5678651157658258
-0.09160000000000007,-0.5739483743552454
-0.09260000000000007,-0.5798901618146786
-0.09360000000000007,-0.5871051894439903
-0.09460000000000007,-0.5940372748133289
-0.09560000000000007,-0.6009693601826676
-0.09660000000000007,-0.6077599744220198
-0.09760000000000008,-0.614267646401399
-0.09860000000000008,-0.6216241451606972
-0.09960000000000008,-0.6289806439199952
-0.10060000000000008,-0.6363371426792934
-0.10160000000000008,-0.6439765836985646
-0.10260000000000008,-0.6510501401978899
-0.10360000000000008,-0.6588310523471476
-0.10460000000000008,-0.6670363778863648
-0.10560000000000008,-0.674675818905636
-0.10660000000000008,-0.6830226155748397
-0.10760000000000008,-0.6906620565941108
-0.10860000000000009,-0.6988673821333282
-0.10960000000000009,-0.7077800633224779
-0.11060000000000009,-0.7162683311216681
-0.11160000000000009,-0.7247565989208583
-0.11260000000000009,-0.7332448667200485
-0.11360000000000009,-0.7418746056492252
-0.11460000000000009,-0.7519190558782669
-0.11560000000000009,-0.7613976215873628
-0.11660000000000009,-0.7697444182565665
-0.1176000000000001,-0.7787985705757027
-0.1186000000000001,-0.7882771362847985
-0.1196000000000001,-0.7980386442538671
-0.1206000000000001,-0.8080830944829089
-0.1216000000000001,-0.8172787179320317
-0.1226000000000001,-0.827181697031087
-0.1236000000000001,-0.8373676183901153
-0.1246000000000001,-0.8475535397491435
-0.1256000000000001,-0.8581638744981313
-0.1266000000000001,-0.8682083247271731
-0.1276000000000001,-0.8786771883461743
-0.1286000000000001,-0.8894289942251485
-0.1296000000000001,-0.9004637423640959
-0.1306000000000001,-0.911781432763016
-0.1316000000000001,-0.9225332386419903
-0.1326000000000001,-0.9335679867809377
-0.1336000000000001,-0.9453100905698175
-0.1346000000000001,-0.9570521943586974
-0.1356000000000001,-0.9687942981475771
-0.1366000000000001,-0.9806778730664433
-0.1376000000000001,-0.9921370345953502
-0.1386000000000001,-1.0048694362941357
-0.1396000000000001,-1.0176018379929208
-0.1406000000000001,-1.0297683551717602
-0.14160000000000011,-1.0422178146105725
-0.14260000000000012,-1.0545258029193985
-0.14360000000000012,-1.0675411468781568
-0.14460000000000012,-1.0809809042268743
-0.14560000000000012,-1.093996248185633
-0.14660000000000012,-1.1071530632743778
-0.14760000000000012,-1.1205928206230955
-0.14860000000000012,-1.1341740491017998
-0.14960000000000012,-1.1486041043604232
-0.15060000000000012,-1.1624682750991004
-0.15160000000000012,-1.176332445837778
-0.15260000000000012,-1.1904795588364285
-0.15360000000000013,-1.204909614095052
-0.15460000000000013,-1.2203299672635808
-0.15560000000000013,-1.2351844359121635
-0.15660000000000013,-1.2497559623007732
-0.15760000000000013,-1.2646104309493562
-0.15860000000000013,-1.280030784117885
-0.15960000000000002,-1.295734079546387
-0.16060000000000002,-1.311720317234862
-0.16160000000000002,-1.3269991992734043
-0.16260000000000002,-1.3431269080918657
-0.16360000000000002,-1.3593960880403138
-0.16460000000000002,-1.3762311525087079
-0.16560000000000002,-1.3937735726270342
-0.16660000000000003,-1.412306290655266
-0.16760000000000003,-1.4288584128636872
-0.16860000000000003,-1.4444202371622026
-0.16960000000000003,-1.462811484060448
-0.17060000000000003,-1.4797880196588282
-0.17160000000000003,-1.4967645552572086
-0.17260000000000003,-1.5151558021554543
-0.17360000000000003,-1.5335470490536998
-0.17460000000000003,-1.5519382959519452
-0.17560000000000003,-1.5703295428501907
-0.17660000000000003,-1.5887207897484361
-0.17760000000000004,-1.6071120366466816
-0.17860000000000004,-1.626917994844792
-0.17960000000000004,-1.6453092417430377
-0.18060000000000004,-1.6651151999411482
-0.18160000000000004,-1.6849211581392587
-0.18260000000000004,-1.7047271163373692
-0.18360000000000004,-1.7245330745354797
-0.18460000000000004,-1.7457537440334552
-0.18560000000000004,-1.7655597022315657
-0.18660000000000004,-1.7867803717295414
-0.18760000000000004,-1.8065863299276517
-0.18860000000000005,-1.8278069994256272
-0.18960000000000005,-1.850442380223468
-0.19060000000000005,-1.8716630497214433
-0.19160000000000005,-1.892883719219419
-0.19260000000000005,-1.9155191000172598
-0.19360000000000005,-1.9367397695152353
-0.19460000000000005,-1.959375150313076
-0.19560000000000005,-1.9820105311109162
-0.19660000000000005,-2.004645911908757
-0.19760000000000005,-2.0286960040064623
-0.19860000000000005,-2.051331384804303
-0.19960000000000006,-2.0753814769020087
-0.20060000000000006,-2.0994315689997145
-0.20160000000000006,-2.12348166109742
-0.20260000000000006,-2.1475317531951257
-0.20360000000000006,-2.1729965565926963
-0.20460000000000006,-2.197046648690402
-0.20560000000000006,-2.2225114520879723
-0.20660000000000006,-2.2479762554855434
-0.20760000000000006,-2.273441058883114
-0.20860000000000006,-2.298905862280684
-0.20960000000000006,-2.3243706656782552
-0.21060000000000006,-2.351250180375691
-0.21160000000000007,-2.3781296950731265
-0.21260000000000007,-2.4035944984706976
-0.21360000000000007,-2.4318887244679983
-0.21460000000000007,-2.4587682391654337
-0.21560000000000007,-2.4870624651627344
-0.21660000000000007,-2.5139419798601703
-0.21760000000000007,-2.543650917157336
-0.21860000000000007,-2.5719451431546365
-0.21960000000000007,-2.600239369151937
-0.22060000000000007,-2.6285335951492383
-0.22160000000000007,-2.658242532446404
-0.22260000000000008,-2.6865367584437045
-0.22360000000000008,-2.7162456957408705
-0.22460000000000008,-2.7473693443379013
-0.22560000000000008,-2.7770782816350668
-0.22660000000000008,-2.8067872189322327
-0.22760000000000008,-2.8379108675292635
-0.22860000000000008,-2.867619804826429
-0.22960000000000008,-2.900158164723325
-0.23060000000000008,-2.9312818133203558
-0.23160000000000008,-2.9624054619173865
-0.23260000000000008,-2.994943821814283
-0.23360000000000009,-3.0260674704113137
-0.2346000000000001,-3.0586058303082093
-0.2356000000000001,-3.09255890150497
-0.2366000000000001,-3.125097261401866
-0.2376000000000001,-3.1576356212987617
-0.2386000000000001,-3.1901739811956578
-0.2396000000000001,-3.2241270523924186
-0.2406000000000001,-3.2594948348890447
-0.2416000000000001,-3.2934479060858055
-0.2426000000000001,-3.3274009772825663
-0.2436000000000001,-3.361354048479327
-0.2446000000000001,-3.3967218309759533
-0.2456000000000001,-3.432089613472579
-0.2466000000000001,-3.4660426846693397
-0.2476000000000001,-3.5014104671659654
-0.2486000000000001,-3.536778249662592
-0.2496000000000001,-3.573560743459083
-0.2506000000000001,-3.608928525955709
-0.2516000000000001,-3.644296308452334
-0.2526000000000001,-3.681078802248825
-0.2536000000000001,-3.7178612960453163
-0.2546000000000001,-3.7532290785419424
-0.2556000000000001,-3.7900115723384333
-0.2566000000000001,-3.8267940661349247
-0.2576000000000001,-3.8635765599314156
-0.2586000000000001,-3.9003590537279056
-0.2596000000000001,-3.9371415475243974
-0.2606000000000001,-3.973924041320888
-0.2616000000000001,-4.01070653511738
-0.2626000000000001,-4.04748902891387
-0.2636000000000001,-4.084271522710361
-0.2646000000000001,-4.122468727806717
-0.2656000000000001,-4.159251221603208
-0.2666000000000001,-4.1960337153996985
-0.2676000000000001,-4.23281620919619
-0.2686000000000001,-4.269598702992681
-0.2696000000000001,-4.3063811967891725
-0.2706000000000001,-4.343163690585662
-0.2716000000000001,-4.379946184382153
-0.2726000000000001,-4.415313966878779
-0.2736000000000001,-4.45209646067527
-0.2746000000000001,-4.488878954471762
-0.2756000000000001,-4.524246736968387
-0.2766000000000001,-4.559614519465013
-0.2776000000000001,-4.594982301961639
-0.2786000000000001,-4.630350084458265
-0.2796000000000001,-4.664303155655026
-0.2806000000000001,-4.699670938151652
-0.28160000000000013,-4.733624009348413
-0.28260000000000013,-4.767577080545174
-0.28360000000000013,-4.801530151741935
-0.2846,-4.835483222938696
-0.2856,-4.868021582835592
-0.2866,-4.900559942732487
-0.2876,-4.933098302629383
-0.2886,-4.964221951226414
-0.2896,-4.995345599823445
-0.2906,-5.027883959720341
-0.2916,-5.057592897017507
-0.2926,-5.087301834314672
-0.2936,-5.117010771611838
-0.29460000000000003,-5.1467197089090035
-0.29560000000000003,-5.17642864620617
-0.29660000000000003,-5.203308160903605
-0.29760000000000003,-5.23018767560104
-0.29860000000000003,-5.258481901598341
-0.29960000000000003,-5.285361416295777
-0.30060000000000003,-5.312240930993213
-0.30160000000000003,-5.337705734390783
-0.30260000000000004,-5.3631705377883545
-0.30360000000000004,-5.38722062988606
-0.30460000000000004,-5.41268543328363
-0.30560000000000004,-5.4353208140814715
-0.30660000000000004,-5.459370906179177
-0.30760000000000004,-5.482006286977017
-0.30860000000000004,-5.504641667774858
-0.30960000000000004,-5.525862337272833
-0.31060000000000004,-5.548497718070673
-0.31160000000000004,-5.568303676268785
-0.31260000000000004,-5.58952434576676
-0.31360000000000005,-5.609330303964871
-0.31460000000000005,-5.629136262162981
-0.31560000000000005,-5.647527509061226
-0.31660000000000005,-5.665918755959472
-0.31760000000000005,-5.684310002857718
-0.31860000000000005,-5.702701249755963
-0.31960000000000005,-5.721092496654209
-0.32060000000000005,-5.7380690322525885
-0.32160000000000005,-5.75504556785097
-0.32260000000000005,-5.7706073921494845
-0.32360000000000005,-5.787583927747865
-0.32460000000000006,-5.80314575204638
-0.32560000000000006,-5.818707576344896
-0.32660000000000006,-5.832854689343546
-0.32760000000000006,-5.848416513642062
-0.32860000000000006,-5.8625636266407115
-0.32960000000000006,-5.876710739639362
-0.33060000000000006,-5.892272563937878
-0.33160000000000006,-5.906419676936528
-0.33260000000000006,-5.919152078635313
-0.33360000000000006,-5.933299191633965
-0.33460000000000006,-5.947446304632614
-0.33560000000000006,-5.961593417631265
-0.33660000000000007,-5.97432581933005
-0.33760000000000007,-5.987058221028835
-0.33860000000000007,-6.001205334027486
-0.33960000000000007,-6.015352447026135
-0.34060000000000007,-6.028084848724921
-0.34160000000000007,-6.042231961723571
-0.34260000000000007,-6.054964363422357
-0.34360000000000007,-6.069111476421008
-0.3446000000000001,-6.083258589419658
-0.3456000000000001,-6.097405702418309
-0.3466000000000001,-6.111552815416958
-0.34759999999999996,-6.124285217115744
-0.3486000000000001,-6.139847041414258
-0.34959999999999997,-6.155408865712774
-0.3506000000000001,-6.169555978711425
-0.35159999999999997,-6.18511780300994
-0.3526000000000001,-6.199264916008591
-0.35359999999999997,-6.214826740307106
-0.3546000000000001,-6.231803275905486
-0.35559999999999997,-6.247365100204002
-0.3566000000000001,-6.264341635802381
-0.3576,-6.281318171400763
-0.3586000000000001,-6.298294706999143
-0.3596,-6.316685953897389
-0.3606000000000001,-6.335077200795634
-0.3616,-6.3534684476938805
-0.3626000000000001,-6.371859694592125
-0.3636,-6.39025094149037
-0.3646000000000001,-6.410056899688482
-0.3656,-6.431277569186457
-0.3666000000000001,-6.451083527384568
-0.3676,-6.470889485582678
-0.3686000000000001,-6.493524866380518
-0.3696,-6.514745535878494
-0.3706000000000001,-6.537380916676335
-0.3716,-6.560016297474175
-0.3726000000000001,-6.582651678272015
-0.3736,-6.605287059069856
-0.3746000000000001,-6.629337151167562
-0.3756,-6.653387243265268
-0.3766000000000001,-6.677437335362973
-0.3776,-6.701487427460679
-0.3786000000000001,-6.72695223085825
-0.3796,-6.75241703425582
-0.3806000000000001,-6.777881837653391
-0.3816,-6.803346641050961
-0.3826000000000001,-6.828811444448532
-0.3836,-6.855690959145968
-0.3846000000000001,-6.882570473843404
-0.3856,-6.90944998854084
-0.3866000000000001,-6.936329503238276
-0.3876,-6.9646237292355755
-0.3886000000000001,-6.9915032439330105
-0.3896,-7.019797469930312
-0.3906000000000001,-7.048091695927613
-0.3916,-7.074971210625048
-0.3926000000000001,-7.103265436622349
-0.3936,-7.131559662619649
-0.3946000000000001,-7.159853888616951
-0.3956,-7.189562825914116
-0.3966000000000001,-7.217857051911418
-0.3976,-7.246151277908718
-0.3986000000000001,-7.274445503906019
-0.3996,-7.302739729903319
-0.4006000000000001,-7.332448667200485
-0.4016,-7.35932818189792
-0.4026000000000001,-7.389037119195086
-0.4036,-7.415916633892522
-0.4046000000000001,-7.445625571189688
-0.4056,-7.473919797186989
-0.40660000000000013,-7.50221402318429
-0.4076,-7.529093537881726
-0.40860000000000013,-7.557387763879025
-0.4096,-7.585681989876327
-0.41060000000000013,-7.613976215873627
-0.4116,-7.6408557305710625
-0.41260000000000013,-7.667735245268498
-0.4136,-7.694614759965935
-0.41460000000000014,-7.721494274663371
-0.4156,-7.748373789360806
-0.41660000000000014,-7.773838592758376
-0.4176,-7.799303396155947
-0.41860000000000014,-7.826182910853383
-0.41960000000000003,-7.851647714250955
-0.42060000000000014,-7.875697806348659
-0.42160000000000003,-7.901162609746229
-0.42260000000000014,-7.926627413143801
-0.42360000000000003,-7.949262793941642
-0.42460000000000014,-7.973312886039348
-0.42560000000000003,-7.997362978137053
-0.42660000000000015,-8.018583647635028
-0.42760000000000004,-8.04121902843287
-0.42860000000000015,-8.062439697930845
-0.42960000000000004,-8.085075078728684
-0.43060000000000015,-8.104881036926795
-0.43160000000000004,-8.12610170642477
-0.43260000000000015,-8.145907664622882
-0.43360000000000004,-8.164298911521126
-0.43460000000000015,-8.184104869719237
-0.43560000000000004,-8.202496116617484
-0.43660000000000015,-8.219472652215863
-0.43760000000000004,-8.236449187814243
-0.43860000000000016,-8.252011012112758
-0.43960000000000005,-8.26898754771114
-0.44060000000000016,-8.284549372009655
-0.44160000000000005,-8.298696485008303
-0.44260000000000016,-8.312843598006955
-0.44360000000000005,-8.326990711005607
-0.44460000000000016,-8.339723112704391
-0.44560000000000005,-8.352455514403177
-0.44660000000000016,-8.363773204802097
-0.44760000000000005,-8.373676183901154
-0.44860000000000017,-8.384993874300074
-0.44960000000000006,-8.393482142099263
-0.45060000000000017,-8.403385121198317
-0.45160000000000006,-8.410458677697642
