Aug. 16, 2024   17:07:21
Linear Sweep Voltammetry
File: c:/users/guazh/data/20240813_batch_94_500/2024-08-15-exp105\post-regen1-2024-08-16t17_04_07-lsvinphos\post-regen1_lsv_50mvs_efin_-2300mv.bin
Data Source:  Experiment
Instrument Model:  CHI760E
Header: LSV ran at 50 mVs with Efin at -2300mV
Note: 

Init E (V) = -0.6
Final E (V) = -2.3
Scan Rate (V/s) = 0.05
Sample Interval (V) = 0.001
Quiet Time (sec) = 2
Sensitivity (A/V) = 1e-4
Comp R (ohm) = 8.3

Results:

Channel 1:
Ep = -1.942V
ip = 5.403e-4A
Ah = 8.683e-4C

Potential/V, Current/A

-0.600, 3.540e-6
-0.601, 3.636e-6
-0.602, 3.690e-6
-0.603, 3.731e-6
-0.604, 3.769e-6
-0.605, 3.806e-6
-0.606, 3.841e-6
-0.607, 3.877e-6
-0.608, 3.910e-6
-0.609, 3.943e-6
-0.610, 3.974e-6
-0.611, 4.008e-6
-0.612, 4.040e-6
-0.613, 4.072e-6
-0.614, 4.105e-6
-0.615, 4.139e-6
-0.616, 4.170e-6
-0.617, 4.202e-6
-0.618, 4.234e-6
-0.619, 4.266e-6
-0.620, 4.300e-6
-0.621, 4.332e-6
-0.622, 4.363e-6
-0.623, 4.395e-6
-0.624, 4.429e-6
-0.625, 4.463e-6
-0.626, 4.495e-6
-0.627, 4.530e-6
-0.628, 4.563e-6
-0.629, 4.595e-6
-0.630, 4.630e-6
-0.631, 4.661e-6
-0.632, 4.695e-6
-0.633, 4.728e-6
-0.634, 4.763e-6
-0.635, 4.795e-6
-0.636, 4.829e-6
-0.637, 4.862e-6
-0.638, 4.894e-6
-0.639, 4.927e-6
-0.640, 4.963e-6
-0.641, 4.997e-6
-0.642, 5.032e-6
-0.643, 5.066e-6
-0.644, 5.100e-6
-0.645, 5.134e-6
-0.646, 5.168e-6
-0.647, 5.203e-6
-0.648, 5.238e-6
-0.649, 5.272e-6
-0.650, 5.307e-6
-0.651, 5.341e-6
-0.652, 5.376e-6
-0.653, 5.410e-6
-0.654, 5.445e-6
-0.655, 5.481e-6
-0.656, 5.515e-6
-0.657, 5.552e-6
-0.658, 5.585e-6
-0.659, 5.621e-6
-0.660, 5.654e-6
-0.661, 5.688e-6
-0.662, 5.723e-6
-0.663, 5.760e-6
-0.664, 5.795e-6
-0.665, 5.832e-6
-0.666, 5.867e-6
-0.667, 5.901e-6
-0.668, 5.933e-6
-0.669, 5.967e-6
-0.670, 6.002e-6
-0.671, 6.037e-6
-0.672, 6.072e-6
-0.673, 6.107e-6
-0.674, 6.142e-6
-0.675, 6.177e-6
-0.676, 6.210e-6
-0.677, 6.243e-6
-0.678, 6.279e-6
-0.679, 6.314e-6
-0.680, 6.349e-6
-0.681, 6.383e-6
-0.682, 6.417e-6
-0.683, 6.452e-6
-0.684, 6.486e-6
-0.685, 6.521e-6
-0.686, 6.557e-6
-0.687, 6.592e-6
-0.688, 6.626e-6
-0.689, 6.661e-6
-0.690, 6.696e-6
-0.691, 6.730e-6
-0.692, 6.766e-6
-0.693, 6.799e-6
-0.694, 6.833e-6
-0.695, 6.868e-6
-0.696, 6.902e-6
-0.697, 6.935e-6
-0.698, 6.968e-6
-0.699, 7.002e-6
-0.700, 7.035e-6
-0.701, 7.067e-6
-0.702, 7.102e-6
-0.703, 7.134e-6
-0.704, 7.169e-6
-0.705, 7.202e-6
-0.706, 7.232e-6
-0.707, 7.265e-6
-0.708, 7.296e-6
-0.709, 7.327e-6
-0.710, 7.360e-6
-0.711, 7.390e-6
-0.712, 7.422e-6
-0.713, 7.453e-6
-0.714, 7.484e-6
-0.715, 7.515e-6
-0.716, 7.544e-6
-0.717, 7.573e-6
-0.718, 7.605e-6
-0.719, 7.633e-6
-0.720, 7.664e-6
-0.721, 7.693e-6
-0.722, 7.723e-6
-0.723, 7.751e-6
-0.724, 7.781e-6
-0.725, 7.808e-6
-0.726, 7.836e-6
-0.727, 7.863e-6
-0.728, 7.891e-6
-0.729, 7.919e-6
-0.730, 7.947e-6
-0.731, 7.974e-6
-0.732, 8.000e-6
-0.733, 8.024e-6
-0.734, 8.049e-6
-0.735, 8.073e-6
-0.736, 8.097e-6
-0.737, 8.122e-6
-0.738, 8.146e-6
-0.739, 8.171e-6
-0.740, 8.195e-6
-0.741, 8.218e-6
-0.742, 8.243e-6
-0.743, 8.267e-6
-0.744, 8.289e-6
-0.745, 8.310e-6
-0.746, 8.329e-6
-0.747, 8.350e-6
-0.748, 8.370e-6
-0.749, 8.390e-6
-0.750, 8.411e-6
-0.751, 8.428e-6
-0.752, 8.449e-6
-0.753, 8.468e-6
-0.754, 8.486e-6
-0.755, 8.505e-6
-0.756, 8.523e-6
-0.757, 8.539e-6
-0.758, 8.556e-6
-0.759, 8.571e-6
-0.760, 8.587e-6
-0.761, 8.603e-6
-0.762, 8.617e-6
-0.763, 8.632e-6
-0.764, 8.646e-6
-0.765, 8.661e-6
-0.766, 8.674e-6
-0.767, 8.687e-6
-0.768, 8.702e-6
-0.769, 8.716e-6
-0.770, 8.727e-6
-0.771, 8.739e-6
-0.772, 8.751e-6
-0.773, 8.761e-6
-0.774, 8.773e-6
-0.775, 8.784e-6
-0.776, 8.793e-6
-0.777, 8.802e-6
-0.778, 8.811e-6
-0.779, 8.821e-6
-0.780, 8.828e-6
-0.781, 8.834e-6
-0.782, 8.843e-6
-0.783, 8.848e-6
-0.784, 8.854e-6
-0.785, 8.860e-6
-0.786, 8.865e-6
-0.787, 8.871e-6
-0.788, 8.877e-6
-0.789, 8.882e-6
-0.790, 8.888e-6
-0.791, 8.891e-6
-0.792, 8.894e-6
-0.793, 8.897e-6
-0.794, 8.899e-6
-0.795, 8.898e-6
-0.796, 8.894e-6
-0.797, 8.894e-6
-0.798, 8.896e-6
-0.799, 8.897e-6
-0.800, 8.901e-6
-0.801, 8.904e-6
-0.802, 8.905e-6
-0.803, 8.909e-6
-0.804, 8.912e-6
-0.805, 8.912e-6
-0.806, 8.913e-6
-0.807, 8.916e-6
-0.808, 8.916e-6
-0.809, 8.917e-6
-0.810, 8.916e-6
-0.811, 8.915e-6
-0.812, 8.914e-6
-0.813, 8.914e-6
-0.814, 8.916e-6
-0.815, 8.915e-6
-0.816, 8.912e-6
-0.817, 8.910e-6
-0.818, 8.907e-6
-0.819, 8.907e-6
-0.820, 8.908e-6
-0.821, 8.904e-6
-0.822, 8.900e-6
-0.823, 8.897e-6
-0.824, 8.893e-6
-0.825, 8.892e-6
-0.826, 8.889e-6
-0.827, 8.888e-6
-0.828, 8.883e-6
-0.829, 8.881e-6
-0.830, 8.877e-6
-0.831, 8.871e-6
-0.832, 8.866e-6
-0.833, 8.860e-6
-0.834, 8.855e-6
-0.835, 8.850e-6
-0.836, 8.845e-6
-0.837, 8.839e-6
-0.838, 8.837e-6
-0.839, 8.831e-6
-0.840, 8.826e-6
-0.841, 8.820e-6
-0.842, 8.815e-6
-0.843, 8.809e-6
-0.844, 8.804e-6
-0.845, 8.798e-6
-0.846, 8.792e-6
-0.847, 8.786e-6
-0.848, 8.780e-6
-0.849, 8.776e-6
-0.850, 8.772e-6
-0.851, 8.767e-6
-0.852, 8.763e-6
-0.853, 8.756e-6
-0.854, 8.751e-6
-0.855, 8.744e-6
-0.856, 8.738e-6
-0.857, 8.733e-6
-0.858, 8.727e-6
-0.859, 8.723e-6
-0.860, 8.719e-6
-0.861, 8.713e-6
-0.862, 8.706e-6
-0.863, 8.701e-6
-0.864, 8.696e-6
-0.865, 8.691e-6
-0.866, 8.683e-6
-0.867, 8.677e-6
-0.868, 8.670e-6
-0.869, 8.664e-6
-0.870, 8.658e-6
-0.871, 8.655e-6
-0.872, 8.650e-6
-0.873, 8.645e-6
-0.874, 8.639e-6
-0.875, 8.634e-6
-0.876, 8.629e-6
-0.877, 8.624e-6
-0.878, 8.619e-6
-0.879, 8.614e-6
-0.880, 8.611e-6
-0.881, 8.620e-6
-0.882, 8.637e-6
-0.883, 8.627e-6
-0.884, 8.620e-6
-0.885, 8.614e-6
-0.886, 8.609e-6
-0.887, 8.605e-6
-0.888, 8.600e-6
-0.889, 8.597e-6
-0.890, 8.592e-6
-0.891, 8.590e-6
-0.892, 8.587e-6
-0.893, 8.585e-6
-0.894, 8.580e-6
-0.895, 8.575e-6
-0.896, 8.571e-6
-0.897, 8.567e-6
-0.898, 8.561e-6
-0.899, 8.557e-6
-0.900, 8.553e-6
-0.901, 8.549e-6
-0.902, 8.547e-6
-0.903, 8.543e-6
-0.904, 8.539e-6
-0.905, 8.537e-6
-0.906, 8.533e-6
-0.907, 8.531e-6
-0.908, 8.529e-6
-0.909, 8.525e-6
-0.910, 8.523e-6
-0.911, 8.519e-6
-0.912, 8.516e-6
-0.913, 8.513e-6
-0.914, 8.511e-6
-0.915, 8.510e-6
-0.916, 8.508e-6
-0.917, 8.507e-6
-0.918, 8.507e-6
-0.919, 8.505e-6
-0.920, 8.504e-6
-0.921, 8.499e-6
-0.922, 8.499e-6
-0.923, 8.498e-6
-0.924, 8.497e-6
-0.925, 8.497e-6
-0.926, 8.496e-6
-0.927, 8.493e-6
-0.928, 8.492e-6
-0.929, 8.492e-6
-0.930, 8.491e-6
-0.931, 8.489e-6
-0.932, 8.489e-6
-0.933, 8.489e-6
-0.934, 8.494e-6
-0.935, 8.495e-6
-0.936, 8.494e-6
-0.937, 8.496e-6
-0.938, 8.494e-6
-0.939, 8.495e-6
-0.940, 8.493e-6
-0.941, 8.493e-6
-0.942, 8.495e-6
-0.943, 8.495e-6
-0.944, 8.499e-6
-0.945, 8.500e-6
-0.946, 8.500e-6
-0.947, 8.501e-6
-0.948, 8.501e-6
-0.949, 8.503e-6
-0.950, 8.503e-6
-0.951, 8.503e-6
-0.952, 8.504e-6
-0.953, 8.506e-6
-0.954, 8.506e-6
-0.955, 8.507e-6
-0.956, 8.506e-6
-0.957, 8.509e-6
-0.958, 8.507e-6
-0.959, 8.510e-6
-0.960, 8.510e-6
-0.961, 8.512e-6
-0.962, 8.512e-6
-0.963, 8.511e-6
-0.964, 8.511e-6
-0.965, 8.511e-6
-0.966, 8.513e-6
-0.967, 8.514e-6
-0.968, 8.516e-6
-0.969, 8.518e-6
-0.970, 8.518e-6
-0.971, 8.518e-6
-0.972, 8.519e-6
-0.973, 8.521e-6
-0.974, 8.523e-6
-0.975, 8.523e-6
-0.976, 8.524e-6
-0.977, 8.527e-6
-0.978, 8.526e-6
-0.979, 8.531e-6
-0.980, 8.534e-6
-0.981, 8.534e-6
-0.982, 8.537e-6
-0.983, 8.540e-6
-0.984, 8.541e-6
-0.985, 8.543e-6
-0.986, 8.546e-6
-0.987, 8.550e-6
-0.988, 8.552e-6
-0.989, 8.555e-6
-0.990, 8.558e-6
-0.991, 8.561e-6
-0.992, 8.565e-6
-0.993, 8.568e-6
-0.994, 8.571e-6
-0.995, 8.575e-6
-0.996, 8.575e-6
-0.997, 8.577e-6
-0.998, 8.580e-6
-0.999, 8.584e-6
-1.000, 8.587e-6
-1.001, 8.590e-6
-1.002, 8.594e-6
-1.003, 8.598e-6
-1.004, 8.603e-6
-1.005, 8.607e-6
-1.006, 8.609e-6
-1.007, 8.613e-6
-1.008, 8.616e-6
-1.009, 8.621e-6
-1.010, 8.623e-6
-1.011, 8.627e-6
-1.012, 8.631e-6
-1.013, 8.633e-6
-1.014, 8.639e-6
-1.015, 8.641e-6
-1.016, 8.645e-6
-1.017, 8.650e-6
-1.018, 8.654e-6
-1.019, 8.658e-6
-1.020, 8.662e-6
-1.021, 8.665e-6
-1.022, 8.671e-6
-1.023, 8.674e-6
-1.024, 8.683e-6
-1.025, 8.687e-6
-1.026, 8.690e-6
-1.027, 8.697e-6
-1.028, 8.702e-6
-1.029, 8.707e-6
-1.030, 8.714e-6
-1.031, 8.718e-6
-1.032, 8.723e-6
-1.033, 8.730e-6
-1.034, 8.733e-6
-1.035, 8.737e-6
-1.036, 8.741e-6
-1.037, 8.749e-6
-1.038, 8.755e-6
-1.039, 8.761e-6
-1.040, 8.766e-6
-1.041, 8.772e-6
-1.042, 8.777e-6
-1.043, 8.785e-6
-1.044, 8.791e-6
-1.045, 8.800e-6
-1.046, 8.806e-6
-1.047, 8.812e-6
-1.048, 8.821e-6
-1.049, 8.831e-6
-1.050, 8.839e-6
-1.051, 8.845e-6
-1.052, 8.853e-6
-1.053, 8.860e-6
-1.054, 8.866e-6
-1.055, 8.872e-6
-1.056, 8.878e-6
-1.057, 8.885e-6
-1.058, 8.892e-6
-1.059, 8.899e-6
-1.060, 8.905e-6
-1.061, 8.911e-6
-1.062, 8.923e-6
-1.063, 8.932e-6
-1.064, 8.943e-6
-1.065, 8.953e-6
-1.066, 8.964e-6
-1.067, 8.973e-6
-1.068, 8.982e-6
-1.069, 8.992e-6
-1.070, 9.000e-6
-1.071, 9.009e-6
-1.072, 9.019e-6
-1.073, 9.031e-6
-1.074, 9.039e-6
-1.075, 9.051e-6
-1.076, 9.064e-6
-1.077, 9.085e-6
-1.078, 9.099e-6
-1.079, 9.111e-6
-1.080, 9.118e-6
-1.081, 9.129e-6
-1.082, 9.141e-6
-1.083, 9.151e-6
-1.084, 9.162e-6
-1.085, 9.174e-6
-1.086, 9.187e-6
-1.087, 9.184e-6
-1.088, 9.182e-6
-1.089, 9.193e-6
-1.090, 9.203e-6
-1.091, 9.216e-6
-1.092, 9.230e-6
-1.093, 9.242e-6
-1.094, 9.256e-6
-1.095, 9.268e-6
-1.096, 9.280e-6
-1.097, 9.294e-6
-1.098, 9.306e-6
-1.099, 9.321e-6
-1.100, 9.332e-6
-1.101, 9.346e-6
-1.102, 9.360e-6
-1.103, 9.372e-6
-1.104, 9.386e-6
-1.105, 9.399e-6
-1.106, 9.411e-6
-1.107, 9.427e-6
-1.108, 9.441e-6
-1.109, 9.455e-6
-1.110, 9.471e-6
-1.111, 9.485e-6
-1.112, 9.501e-6
-1.113, 9.514e-6
-1.114, 9.531e-6
-1.115, 9.545e-6
-1.116, 9.560e-6
-1.117, 9.577e-6
-1.118, 9.593e-6
-1.119, 9.609e-6
-1.120, 9.625e-6
-1.121, 9.639e-6
-1.122, 9.655e-6
-1.123, 9.670e-6
-1.124, 9.688e-6
-1.125, 9.702e-6
-1.126, 9.720e-6
-1.127, 9.737e-6
-1.128, 9.754e-6
-1.129, 9.771e-6
-1.130, 9.787e-6
-1.131, 9.805e-6
-1.132, 9.823e-6
-1.133, 9.841e-6
-1.134, 9.858e-6
-1.135, 9.873e-6
-1.136, 9.890e-6
-1.137, 9.909e-6
-1.138, 9.925e-6
-1.139, 9.945e-6
-1.140, 9.962e-6
-1.141, 9.982e-6
-1.142, 9.999e-6
-1.143, 1.002e-5
-1.144, 1.004e-5
-1.145, 1.006e-5
-1.146, 1.007e-5
-1.147, 1.009e-5
-1.148, 1.011e-5
-1.149, 1.013e-5
-1.150, 1.015e-5
-1.151, 1.017e-5
-1.152, 1.019e-5
-1.153, 1.020e-5
-1.154, 1.022e-5
-1.155, 1.024e-5
-1.156, 1.026e-5
-1.157, 1.028e-5
-1.158, 1.030e-5
-1.159, 1.032e-5
-1.160, 1.034e-5
-1.161, 1.036e-5
-1.162, 1.038e-5
-1.163, 1.040e-5
-1.164, 1.042e-5
-1.165, 1.044e-5
-1.166, 1.046e-5
-1.167, 1.048e-5
-1.168, 1.050e-5
-1.169, 1.052e-5
-1.170, 1.054e-5
-1.171, 1.057e-5
-1.172, 1.059e-5
-1.173, 1.061e-5
-1.174, 1.063e-5
-1.175, 1.065e-5
-1.176, 1.068e-5
-1.177, 1.070e-5
-1.178, 1.072e-5
-1.179, 1.074e-5
-1.180, 1.077e-5
-1.181, 1.079e-5
-1.182, 1.081e-5
-1.183, 1.083e-5
-1.184, 1.086e-5
-1.185, 1.088e-5
-1.186, 1.091e-5
-1.187, 1.093e-5
-1.188, 1.094e-5
-1.189, 1.095e-5
-1.190, 1.097e-5
-1.191, 1.100e-5
-1.192, 1.102e-5
-1.193, 1.104e-5
-1.194, 1.106e-5
-1.195, 1.108e-5
-1.196, 1.111e-5
-1.197, 1.113e-5
-1.198, 1.116e-5
-1.199, 1.118e-5
-1.200, 1.120e-5
-1.201, 1.123e-5
-1.202, 1.125e-5
-1.203, 1.128e-5
-1.204, 1.130e-5
-1.205, 1.133e-5
-1.206, 1.135e-5
-1.207, 1.138e-5
-1.208, 1.140e-5
-1.209, 1.143e-5
-1.210, 1.146e-5
-1.211, 1.148e-5
-1.212, 1.151e-5
-1.213, 1.153e-5
-1.214, 1.156e-5
-1.215, 1.158e-5
-1.216, 1.161e-5
-1.217, 1.163e-5
-1.218, 1.166e-5
-1.219, 1.169e-5
-1.220, 1.172e-5
-1.221, 1.174e-5
-1.222, 1.177e-5
-1.223, 1.180e-5
-1.224, 1.182e-5
-1.225, 1.185e-5
-1.226, 1.188e-5
-1.227, 1.190e-5
-1.228, 1.193e-5
-1.229, 1.197e-5
-1.230, 1.199e-5
-1.231, 1.202e-5
-1.232, 1.204e-5
-1.233, 1.206e-5
-1.234, 1.209e-5
-1.235, 1.211e-5
-1.236, 1.214e-5
-1.237, 1.217e-5
-1.238, 1.220e-5
-1.239, 1.223e-5
-1.240, 1.225e-5
-1.241, 1.228e-5
-1.242, 1.231e-5
-1.243, 1.234e-5
-1.244, 1.237e-5
-1.245, 1.240e-5
-1.246, 1.243e-5
-1.247, 1.246e-5
-1.248, 1.249e-5
-1.249, 1.252e-5
-1.250, 1.255e-5
-1.251, 1.258e-5
-1.252, 1.261e-5
-1.253, 1.264e-5
-1.254, 1.267e-5
-1.255, 1.270e-5
-1.256, 1.273e-5
-1.257, 1.276e-5
-1.258, 1.279e-5
-1.259, 1.283e-5
-1.260, 1.286e-5
-1.261, 1.289e-5
-1.262, 1.292e-5
-1.263, 1.295e-5
-1.264, 1.298e-5
-1.265, 1.302e-5
-1.266, 1.307e-5
-1.267, 1.310e-5
-1.268, 1.313e-5
-1.269, 1.316e-5
-1.270, 1.319e-5
-1.271, 1.322e-5
-1.272, 1.325e-5
-1.273, 1.329e-5
-1.274, 1.332e-5
-1.275, 1.336e-5
-1.276, 1.339e-5
-1.277, 1.343e-5
-1.278, 1.346e-5
-1.279, 1.350e-5
-1.280, 1.353e-5
-1.281, 1.357e-5
-1.282, 1.360e-5
-1.283, 1.364e-5
-1.284, 1.367e-5
-1.285, 1.371e-5
-1.286, 1.374e-5
-1.287, 1.378e-5
-1.288, 1.381e-5
-1.289, 1.385e-5
-1.290, 1.388e-5
-1.291, 1.392e-5
-1.292, 1.395e-5
-1.293, 1.399e-5
-1.294, 1.403e-5
-1.295, 1.406e-5
-1.296, 1.410e-5
-1.297, 1.413e-5
-1.298, 1.417e-5
-1.299, 1.421e-5
-1.300, 1.424e-5
-1.301, 1.428e-5
-1.302, 1.432e-5
-1.303, 1.436e-5
-1.304, 1.439e-5
-1.305, 1.443e-5
-1.306, 1.447e-5
-1.307, 1.450e-5
-1.308, 1.454e-5
-1.309, 1.458e-5
-1.310, 1.462e-5
-1.311, 1.466e-5
-1.312, 1.470e-5
-1.313, 1.474e-5
-1.314, 1.477e-5
-1.315, 1.481e-5
-1.316, 1.485e-5
-1.317, 1.489e-5
-1.318, 1.493e-5
-1.319, 1.497e-5
-1.320, 1.501e-5
-1.321, 1.505e-5
-1.322, 1.509e-5
-1.323, 1.513e-5
-1.324, 1.517e-5
-1.325, 1.521e-5
-1.326, 1.525e-5
-1.327, 1.529e-5
-1.328, 1.533e-5
-1.329, 1.537e-5
-1.330, 1.541e-5
-1.331, 1.546e-5
-1.332, 1.550e-5
-1.333, 1.554e-5
-1.334, 1.558e-5
-1.335, 1.563e-5
-1.336, 1.567e-5
-1.337, 1.571e-5
-1.338, 1.576e-5
-1.339, 1.580e-5
-1.340, 1.584e-5
-1.341, 1.589e-5
-1.342, 1.593e-5
-1.343, 1.598e-5
-1.344, 1.603e-5
-1.345, 1.607e-5
-1.346, 1.612e-5
-1.347, 1.616e-5
-1.348, 1.621e-5
-1.349, 1.625e-5
-1.350, 1.630e-5
-1.351, 1.635e-5
-1.352, 1.639e-5
-1.353, 1.644e-5
-1.354, 1.649e-5
-1.355, 1.654e-5
-1.356, 1.659e-5
-1.357, 1.664e-5
-1.358, 1.669e-5
-1.359, 1.673e-5
-1.360, 1.678e-5
-1.361, 1.683e-5
-1.362, 1.688e-5
-1.363, 1.692e-5
-1.364, 1.697e-5
-1.365, 1.702e-5
-1.366, 1.708e-5
-1.367, 1.713e-5
-1.368, 1.718e-5
-1.369, 1.723e-5
-1.370, 1.728e-5
-1.371, 1.733e-5
-1.372, 1.739e-5
-1.373, 1.744e-5
-1.374, 1.749e-5
-1.375, 1.755e-5
-1.376, 1.760e-5
-1.377, 1.766e-5
-1.378, 1.771e-5
-1.379, 1.776e-5
-1.380, 1.782e-5
-1.381, 1.787e-5
-1.382, 1.793e-5
-1.383, 1.798e-5
-1.384, 1.804e-5
-1.385, 1.809e-5
-1.386, 1.815e-5
-1.387, 1.820e-5
-1.388, 1.826e-5
-1.389, 1.831e-5
-1.390, 1.837e-5
-1.391, 1.843e-5
-1.392, 1.849e-5
-1.393, 1.855e-5
-1.394, 1.861e-5
-1.395, 1.867e-5
-1.396, 1.873e-5
-1.397, 1.879e-5
-1.398, 1.885e-5
-1.399, 1.891e-5
-1.400, 1.898e-5
-1.401, 1.904e-5
-1.402, 1.910e-5
-1.403, 1.916e-5
-1.404, 1.923e-5
-1.405, 1.929e-5
-1.406, 1.935e-5
-1.407, 1.942e-5
-1.408, 1.948e-5
-1.409, 1.955e-5
-1.410, 1.961e-5
-1.411, 1.968e-5
-1.412, 1.975e-5
-1.413, 1.982e-5
-1.414, 1.988e-5
-1.415, 1.995e-5
-1.416, 2.002e-5
-1.417, 2.008e-5
-1.418, 2.015e-5
-1.419, 2.022e-5
-1.420, 2.029e-5
-1.421, 2.036e-5
-1.422, 2.043e-5
-1.423, 2.050e-5
-1.424, 2.057e-5
-1.425, 2.064e-5
-1.426, 2.072e-5
-1.427, 2.079e-5
-1.428, 2.087e-5
-1.429, 2.094e-5
-1.430, 2.101e-5
-1.431, 2.109e-5
-1.432, 2.117e-5
-1.433, 2.124e-5
-1.434, 2.133e-5
-1.435, 2.140e-5
-1.436, 2.148e-5
-1.437, 2.156e-5
-1.438, 2.164e-5
-1.439, 2.172e-5
-1.440, 2.180e-5
-1.441, 2.188e-5
-1.442, 2.196e-5
-1.443, 2.205e-5
-1.444, 2.213e-5
-1.445, 2.222e-5
-1.446, 2.230e-5
-1.447, 2.239e-5
-1.448, 2.248e-5
-1.449, 2.256e-5
-1.450, 2.265e-5
-1.451, 2.274e-5
-1.452, 2.283e-5
-1.453, 2.293e-5
-1.454, 2.302e-5
-1.455, 2.311e-5
-1.456, 2.320e-5
-1.457, 2.330e-5
-1.458, 2.339e-5
-1.459, 2.349e-5
-1.460, 2.358e-5
-1.461, 2.368e-5
-1.462, 2.378e-5
-1.463, 2.388e-5
-1.464, 2.398e-5
-1.465, 2.409e-5
-1.466, 2.419e-5
-1.467, 2.430e-5
-1.468, 2.440e-5
-1.469, 2.450e-5
-1.470, 2.461e-5
-1.471, 2.471e-5
-1.472, 2.482e-5
-1.473, 2.493e-5
-1.474, 2.504e-5
-1.475, 2.515e-5
-1.476, 2.526e-5
-1.477, 2.538e-5
-1.478, 2.549e-5
-1.479, 2.560e-5
-1.480, 2.572e-5
-1.481, 2.584e-5
-1.482, 2.595e-5
-1.483, 2.607e-5
-1.484, 2.619e-5
-1.485, 2.632e-5
-1.486, 2.644e-5
-1.487, 2.656e-5
-1.488, 2.669e-5
-1.489, 2.681e-5
-1.490, 2.694e-5
-1.491, 2.707e-5
-1.492, 2.719e-5
-1.493, 2.733e-5
-1.494, 2.746e-5
-1.495, 2.760e-5
-1.496, 2.773e-5
-1.497, 2.787e-5
-1.498, 2.801e-5
-1.499, 2.815e-5
-1.500, 2.829e-5
-1.501, 2.843e-5
-1.502, 2.858e-5
-1.503, 2.872e-5
-1.504, 2.887e-5
-1.505, 2.901e-5
-1.506, 2.916e-5
-1.507, 2.931e-5
-1.508, 2.946e-5
-1.509, 2.961e-5
-1.510, 2.977e-5
-1.511, 2.992e-5
-1.512, 3.007e-5
-1.513, 3.023e-5
-1.514, 3.038e-5
-1.515, 3.054e-5
-1.516, 3.071e-5
-1.517, 3.087e-5
-1.518, 3.104e-5
-1.519, 3.121e-5
-1.520, 3.137e-5
-1.521, 3.154e-5
-1.522, 3.171e-5
-1.523, 3.189e-5
-1.524, 3.206e-5
-1.525, 3.224e-5
-1.526, 3.243e-5
-1.527, 3.261e-5
-1.528, 3.279e-5
-1.529, 3.297e-5
-1.530, 3.315e-5
-1.531, 3.334e-5
-1.532, 3.352e-5
-1.533, 3.371e-5
-1.534, 3.390e-5
-1.535, 3.409e-5
-1.536, 3.428e-5
-1.537, 3.447e-5
-1.538, 3.467e-5
-1.539, 3.486e-5
-1.540, 3.507e-5
-1.541, 3.527e-5
-1.542, 3.547e-5
-1.543, 3.568e-5
-1.544, 3.588e-5
-1.545, 3.609e-5
-1.546, 3.630e-5
-1.547, 3.651e-5
-1.548, 3.672e-5
-1.549, 3.695e-5
-1.550, 3.717e-5
-1.551, 3.739e-5
-1.552, 3.761e-5
-1.553, 3.783e-5
-1.554, 3.806e-5
-1.555, 3.830e-5
-1.556, 3.854e-5
-1.557, 3.877e-5
-1.558, 3.901e-5
-1.559, 3.925e-5
-1.560, 3.949e-5
-1.561, 3.974e-5
-1.562, 4.000e-5
-1.563, 4.026e-5
-1.564, 4.051e-5
-1.565, 4.077e-5
-1.566, 4.104e-5
-1.567, 4.130e-5
-1.568, 4.157e-5
-1.569, 4.183e-5
-1.570, 4.211e-5
-1.571, 4.239e-5
-1.572, 4.267e-5
-1.573, 4.296e-5
-1.574, 4.325e-5
-1.575, 4.354e-5
-1.576, 4.382e-5
-1.577, 4.412e-5
-1.578, 4.443e-5
-1.579, 4.473e-5
-1.580, 4.505e-5
-1.581, 4.536e-5
-1.582, 4.567e-5
-1.583, 4.599e-5
-1.584, 4.631e-5
-1.585, 4.664e-5
-1.586, 4.697e-5
-1.587, 4.732e-5
-1.588, 4.767e-5
-1.589, 4.802e-5
-1.590, 4.837e-5
-1.591, 4.872e-5
-1.592, 4.908e-5
-1.593, 4.944e-5
-1.594, 4.980e-5
-1.595, 5.018e-5
-1.596, 5.056e-5
-1.597, 5.095e-5
-1.598, 5.134e-5
-1.599, 5.172e-5
-1.600, 5.212e-5
-1.601, 5.253e-5
-1.602, 5.295e-5
-1.603, 5.339e-5
-1.604, 5.381e-5
-1.605, 5.424e-5
-1.606, 5.468e-5
-1.607, 5.512e-5
-1.608, 5.558e-5
-1.609, 5.603e-5
-1.610, 5.649e-5
-1.611, 5.696e-5
-1.612, 5.743e-5
-1.613, 5.791e-5
-1.614, 5.839e-5
-1.615, 5.887e-5
-1.616, 5.937e-5
-1.617, 5.988e-5
-1.618, 6.040e-5
-1.619, 6.093e-5
-1.620, 6.145e-5
-1.621, 6.198e-5
-1.622, 6.252e-5
-1.623, 6.306e-5
-1.624, 6.362e-5
-1.625, 6.418e-5
-1.626, 6.476e-5
-1.627, 6.534e-5
-1.628, 6.592e-5
-1.629, 6.652e-5
-1.630, 6.712e-5
-1.631, 6.772e-5
-1.632, 6.833e-5
-1.633, 6.895e-5
-1.634, 6.957e-5
-1.635, 7.021e-5
-1.636, 7.082e-5
-1.637, 7.147e-5
-1.638, 7.214e-5
-1.639, 7.284e-5
-1.640, 7.353e-5
-1.641, 7.423e-5
-1.642, 7.493e-5
-1.643, 7.563e-5
-1.644, 7.634e-5
-1.645, 7.707e-5
-1.646, 7.780e-5
-1.647, 7.850e-5
-1.648, 7.919e-5
-1.649, 7.992e-5
-1.650, 8.015e-5
-1.651, 8.067e-5
-1.652, 8.145e-5
-1.653, 8.226e-5
-1.654, 8.306e-5
-1.655, 8.386e-5
-1.656, 8.465e-5
-1.657, 8.544e-5
-1.658, 8.630e-5
-1.659, 8.721e-5
-1.660, 8.813e-5
-1.661, 8.904e-5
-1.662, 8.995e-5
-1.663, 9.088e-5
-1.664, 9.180e-5
-1.665, 9.273e-5
-1.666, 9.366e-5
-1.667, 9.459e-5
-1.668, 9.554e-5
-1.669, 9.650e-5
-1.670, 9.746e-5
-1.671, 9.844e-5
-1.672, 9.943e-5
-1.673, 1.004e-4
-1.674, 1.014e-4
-1.675, 1.024e-4
-1.676, 1.035e-4
-1.677, 1.045e-4
-1.678, 1.055e-4
-1.679, 1.066e-4
-1.680, 1.076e-4
-1.681, 1.086e-4
-1.682, 1.096e-4
-1.683, 1.107e-4
-1.684, 1.118e-4
-1.685, 1.129e-4
-1.686, 1.141e-4
-1.687, 1.152e-4
-1.688, 1.163e-4
-1.689, 1.175e-4
-1.690, 1.187e-4
-1.691, 1.199e-4
-1.692, 1.210e-4
-1.693, 1.222e-4
-1.694, 1.234e-4
-1.695, 1.246e-4
-1.696, 1.258e-4
-1.697, 1.270e-4
-1.698, 1.283e-4
-1.699, 1.295e-4
-1.700, 1.308e-4
-1.701, 1.321e-4
-1.702, 1.334e-4
-1.703, 1.347e-4
-1.704, 1.360e-4
-1.705, 1.373e-4
-1.706, 1.387e-4
-1.707, 1.400e-4
-1.708, 1.414e-4
-1.709, 1.428e-4
-1.710, 1.442e-4
-1.711, 1.456e-4
-1.712, 1.470e-4
-1.713, 1.484e-4
-1.714, 1.498e-4
-1.715, 1.513e-4
-1.716, 1.527e-4
-1.717, 1.542e-4
-1.718, 1.557e-4
-1.719, 1.572e-4
-1.720, 1.588e-4
-1.721, 1.603e-4
-1.722, 1.618e-4
-1.723, 1.633e-4
-1.724, 1.649e-4
-1.725, 1.664e-4
-1.726, 1.680e-4
-1.727, 1.696e-4
-1.728, 1.712e-4
-1.729, 1.727e-4
-1.730, 1.743e-4
-1.731, 1.759e-4
-1.732, 1.776e-4
-1.733, 1.792e-4
-1.734, 1.809e-4
-1.735, 1.825e-4
-1.736, 1.842e-4
-1.737, 1.859e-4
-1.738, 1.876e-4
-1.739, 1.893e-4
-1.740, 1.911e-4
-1.741, 1.928e-4
-1.742, 1.946e-4
-1.743, 1.964e-4
-1.744, 1.982e-4
-1.745, 2.000e-4
-1.746, 2.018e-4
-1.747, 2.037e-4
-1.748, 2.055e-4
-1.749, 2.073e-4
-1.750, 2.091e-4
-1.751, 2.110e-4
-1.752, 2.129e-4
-1.753, 2.148e-4
-1.754, 2.166e-4
-1.755, 2.185e-4
-1.756, 2.204e-4
-1.757, 2.224e-4
-1.758, 2.243e-4
-1.759, 2.262e-4
-1.760, 2.282e-4
-1.761, 2.302e-4
-1.762, 2.323e-4
-1.763, 2.343e-4
-1.764, 2.363e-4
-1.765, 2.384e-4
-1.766, 2.405e-4
-1.767, 2.427e-4
-1.768, 2.448e-4
-1.769, 2.470e-4
-1.770, 2.492e-4
-1.771, 2.514e-4
-1.772, 2.536e-4
-1.773, 2.559e-4
-1.774, 2.583e-4
-1.775, 2.607e-4
-1.776, 2.631e-4
-1.777, 2.656e-4
-1.778, 2.682e-4
-1.779, 2.708e-4
-1.780, 2.735e-4
-1.781, 2.762e-4
-1.782, 2.790e-4
-1.783, 2.819e-4
-1.784, 2.849e-4
-1.785, 2.880e-4
-1.786, 2.911e-4
-1.787, 2.944e-4
-1.788, 2.978e-4
-1.789, 3.013e-4
-1.790, 3.050e-4
-1.791, 3.087e-4
-1.792, 3.125e-4
-1.793, 3.163e-4
-1.794, 3.202e-4
-1.795, 3.242e-4
-1.796, 3.282e-4
-1.797, 3.323e-4
-1.798, 3.365e-4
-1.799, 3.407e-4
-1.800, 3.448e-4
-1.801, 3.490e-4
-1.802, 3.532e-4
-1.803, 3.574e-4
-1.804, 3.617e-4
-1.805, 3.659e-4
-1.806, 3.702e-4
-1.807, 3.745e-4
-1.808, 3.787e-4
-1.809, 3.830e-4
-1.810, 3.872e-4
-1.811, 3.915e-4
-1.812, 3.957e-4
-1.813, 3.998e-4
-1.814, 4.039e-4
-1.815, 4.080e-4
-1.816, 4.122e-4
-1.817, 4.163e-4
-1.818, 4.205e-4
-1.819, 4.246e-4
-1.820, 4.288e-4
-1.821, 4.330e-4
-1.822, 4.372e-4
-1.823, 4.414e-4
-1.824, 4.456e-4
-1.825, 4.499e-4
-1.826, 4.541e-4
-1.827, 4.583e-4
-1.828, 4.625e-4
-1.829, 4.667e-4
-1.830, 4.710e-4
-1.831, 4.753e-4
-1.832, 4.795e-4
-1.833, 4.838e-4
-1.834, 4.881e-4
-1.835, 4.924e-4
-1.836, 4.967e-4
-1.837, 5.009e-4
-1.838, 5.052e-4
-1.839, 5.095e-4
-1.840, 5.138e-4
-1.841, 5.180e-4
-1.842, 5.224e-4
-1.843, 5.268e-4
-1.844, 5.311e-4
-1.845, 5.356e-4
-1.846, 5.400e-4
-1.847, 5.444e-4
-1.848, 5.488e-4
-1.849, 5.532e-4
-1.850, 5.577e-4
-1.851, 5.621e-4
-1.852, 5.666e-4
-1.853, 5.712e-4
-1.854, 5.757e-4
-1.855, 5.802e-4
-1.856, 5.847e-4
-1.857, 5.893e-4
-1.858, 5.938e-4
-1.859, 5.984e-4
-1.860, 6.030e-4
-1.861, 6.076e-4
-1.862, 6.122e-4
-1.863, 6.168e-4
-1.864, 6.214e-4
-1.865, 6.260e-4
-1.866, 6.306e-4
-1.867, 6.352e-4
-1.868, 6.398e-4
-1.869, 6.443e-4
-1.870, 6.488e-4
-1.871, 6.533e-4
-1.872, 6.580e-4
-1.873, 6.627e-4
-1.874, 6.674e-4
-1.875, 6.722e-4
-1.876, 6.769e-4
-1.877, 6.817e-4
-1.878, 6.864e-4
-1.879, 6.911e-4
-1.880, 6.958e-4
-1.881, 7.006e-4
-1.882, 7.055e-4
-1.883, 7.103e-4
-1.884, 7.151e-4
-1.885, 7.199e-4
-1.886, 7.248e-4
-1.887, 7.296e-4
-1.888, 7.344e-4
-1.889, 7.392e-4
-1.890, 7.440e-4
-1.891, 7.489e-4
-1.892, 7.537e-4
-1.893, 7.587e-4
-1.894, 7.637e-4
-1.895, 7.687e-4
-1.896, 7.738e-4
-1.897, 7.788e-4
-1.898, 7.837e-4
-1.899, 7.887e-4
-1.900, 7.938e-4
-1.901, 7.988e-4
-1.902, 8.038e-4
-1.903, 8.089e-4
-1.904, 8.140e-4
-1.905, 8.191e-4
-1.906, 8.242e-4
-1.907, 8.294e-4
-1.908, 8.346e-4
-1.909, 8.398e-4
-1.910, 8.450e-4
-1.911, 8.502e-4
-1.912, 8.554e-4
-1.913, 8.606e-4
-1.914, 8.658e-4
-1.915, 8.711e-4
-1.916, 8.763e-4
-1.917, 8.815e-4
-1.918, 8.867e-4
-1.919, 8.920e-4
-1.920, 8.974e-4
-1.921, 9.027e-4
-1.922, 9.081e-4
-1.923, 9.134e-4
-1.924, 9.188e-4
-1.925, 9.242e-4
-1.926, 9.296e-4
-1.927, 9.351e-4
-1.928, 9.405e-4
-1.929, 9.460e-4
-1.930, 9.514e-4
-1.931, 9.568e-4
-1.932, 9.622e-4
-1.933, 9.678e-4
-1.934, 9.732e-4
-1.935, 9.787e-4
-1.936, 9.842e-4
-1.937, 9.897e-4
-1.938, 9.953e-4
-1.939, 1.001e-3
-1.940, 1.007e-3
-1.941, 1.011e-3
-1.942, 1.011e-3
-1.943, 1.011e-3
-1.944, 1.011e-3
-1.945, 1.011e-3
-1.946, 1.011e-3
-1.947, 1.011e-3
-1.948, 1.011e-3
-1.949, 1.011e-3
-1.950, 1.011e-3
-1.951, 1.011e-3
-1.952, 1.011e-3
-1.953, 1.011e-3
-1.954, 1.011e-3
-1.955, 1.011e-3
-1.956, 1.011e-3
-1.957, 1.011e-3
-1.958, 1.011e-3
-1.959, 1.011e-3
-1.960, 1.011e-3
-1.961, 1.011e-3
-1.962, 1.011e-3
-1.963, 1.011e-3
-1.964, 1.011e-3
-1.965, 1.011e-3
-1.966, 1.011e-3
-1.967, 1.011e-3
-1.968, 1.011e-3
-1.969, 1.011e-3
-1.970, 1.011e-3
-1.971, 1.011e-3
-1.972, 1.011e-3
-1.973, 1.011e-3
-1.974, 1.011e-3
-1.975, 1.011e-3
-1.976, 1.011e-3
-1.977, 1.011e-3
-1.978, 1.011e-3
-1.979, 1.011e-3
-1.980, 1.011e-3
-1.981, 1.011e-3
-1.982, 1.011e-3
-1.983, 1.011e-3
-1.984, 1.011e-3
-1.985, 1.011e-3
-1.986, 1.011e-3
-1.987, 1.011e-3
-1.988, 1.011e-3
-1.989, 1.011e-3
-1.990, 1.011e-3
-1.991, 1.011e-3
-1.992, 1.011e-3
-1.993, 1.011e-3
-1.994, 1.011e-3
-1.995, 1.011e-3
-1.996, 1.011e-3
-1.997, 1.011e-3
-1.998, 1.011e-3
-1.999, 1.011e-3
-2.000, 1.011e-3
-2.001, 1.011e-3
-2.002, 1.011e-3
-2.003, 1.011e-3
-2.004, 1.011e-3
-2.005, 1.011e-3
-2.006, 1.011e-3
-2.007, 1.011e-3
-2.008, 1.011e-3
-2.009, 1.011e-3
-2.010, 1.011e-3
-2.011, 1.011e-3
-2.012, 1.011e-3
-2.013, 1.011e-3
-2.014, 1.011e-3
-2.015, 1.011e-3
-2.016, 1.011e-3
-2.017, 1.011e-3
-2.018, 1.011e-3
-2.019, 1.011e-3
-2.020, 1.011e-3
-2.021, 1.011e-3
-2.022, 1.011e-3
-2.023, 1.011e-3
-2.024, 1.011e-3
-2.025, 1.011e-3
-2.026, 1.011e-3
-2.027, 1.011e-3
-2.028, 1.011e-3
-2.029, 1.011e-3
-2.030, 1.011e-3
-2.031, 1.011e-3
-2.032, 1.011e-3
-2.033, 1.011e-3
-2.034, 1.011e-3
-2.035, 1.011e-3
-2.036, 1.011e-3
-2.037, 1.011e-3
-2.038, 1.011e-3
-2.039, 1.011e-3
-2.040, 1.011e-3
-2.041, 1.011e-3
-2.042, 1.011e-3
-2.043, 1.011e-3
-2.044, 1.011e-3
-2.045, 1.011e-3
-2.046, 1.011e-3
-2.047, 1.011e-3
-2.048, 1.011e-3
-2.049, 1.011e-3
-2.050, 1.011e-3
-2.051, 1.011e-3
-2.052, 1.011e-3
-2.053, 1.011e-3
-2.054, 1.011e-3
-2.055, 1.011e-3
-2.056, 1.011e-3
-2.057, 1.011e-3
-2.058, 1.011e-3
-2.059, 1.011e-3
-2.060, 1.011e-3
-2.061, 1.011e-3
-2.062, 1.011e-3
-2.063, 1.011e-3
-2.064, 1.011e-3
-2.065, 1.011e-3
-2.066, 1.011e-3
-2.067, 1.011e-3
-2.068, 1.011e-3
-2.069, 1.011e-3
-2.070, 1.011e-3
-2.071, 1.011e-3
-2.072, 1.011e-3
-2.073, 1.011e-3
-2.074, 1.011e-3
-2.075, 1.011e-3
-2.076, 1.011e-3
-2.077, 1.011e-3
-2.078, 1.011e-3
-2.079, 1.011e-3
-2.080, 1.011e-3
-2.081, 1.011e-3
-2.082, 1.011e-3
-2.083, 1.011e-3
-2.084, 1.011e-3
-2.085, 1.011e-3
-2.086, 1.011e-3
-2.087, 1.011e-3
-2.088, 1.011e-3
-2.089, 1.011e-3
-2.090, 1.011e-3
-2.091, 1.011e-3
-2.092, 1.011e-3
-2.093, 1.011e-3
-2.094, 1.011e-3
-2.095, 1.011e-3
-2.096, 1.011e-3
-2.097, 1.011e-3
-2.098, 1.011e-3
-2.099, 1.011e-3
-2.100, 1.011e-3
-2.101, 1.011e-3
-2.102, 1.011e-3
-2.103, 1.011e-3
-2.104, 1.011e-3
-2.105, 1.011e-3
-2.106, 1.011e-3
-2.107, 1.011e-3
-2.108, 1.011e-3
-2.109, 1.011e-3
-2.110, 1.011e-3
-2.111, 1.011e-3
-2.112, 1.011e-3
-2.113, 1.011e-3
-2.114, 1.011e-3
-2.115, 1.011e-3
-2.116, 1.011e-3
-2.117, 1.011e-3
-2.118, 1.011e-3
-2.119, 1.011e-3
-2.120, 1.011e-3
-2.121, 1.011e-3
-2.122, 1.011e-3
-2.123, 1.011e-3
-2.124, 1.011e-3
-2.125, 1.011e-3
-2.126, 1.011e-3
-2.127, 1.011e-3
-2.128, 1.011e-3
-2.129, 1.011e-3
-2.130, 1.011e-3
-2.131, 1.011e-3
-2.132, 1.011e-3
-2.133, 1.011e-3
-2.134, 1.011e-3
-2.135, 1.011e-3
-2.136, 1.011e-3
-2.137, 1.011e-3
-2.138, 1.011e-3
-2.139, 1.011e-3
-2.140, 1.011e-3
-2.141, 1.011e-3
-2.142, 1.011e-3
-2.143, 1.011e-3
-2.144, 1.011e-3
-2.145, 1.011e-3
-2.146, 1.011e-3
-2.147, 1.011e-3
-2.148, 1.011e-3
-2.149, 1.011e-3
-2.150, 1.011e-3
-2.151, 1.011e-3
-2.152, 1.011e-3
-2.153, 1.011e-3
-2.154, 1.011e-3
-2.155, 1.011e-3
-2.156, 1.011e-3
-2.157, 1.011e-3
-2.158, 1.011e-3
-2.159, 1.011e-3
-2.160, 1.011e-3
-2.161, 1.011e-3
-2.162, 1.011e-3
-2.163, 1.011e-3
-2.164, 1.011e-3
-2.165, 1.011e-3
-2.166, 1.011e-3
-2.167, 1.011e-3
-2.168, 1.011e-3
-2.169, 1.011e-3
-2.170, 1.011e-3
-2.171, 1.011e-3
-2.172, 1.011e-3
-2.173, 1.011e-3
-2.174, 1.011e-3
-2.175, 1.011e-3
-2.176, 1.011e-3
-2.177, 1.011e-3
-2.178, 1.011e-3
-2.179, 1.011e-3
-2.180, 1.011e-3
-2.181, 1.011e-3
-2.182, 1.011e-3
-2.183, 1.011e-3
-2.184, 1.011e-3
-2.185, 1.011e-3
-2.186, 1.011e-3
-2.187, 1.011e-3
-2.188, 1.011e-3
-2.189, 1.011e-3
-2.190, 1.011e-3
-2.191, 1.011e-3
-2.192, 1.011e-3
-2.193, 1.011e-3
-2.194, 1.011e-3
-2.195, 1.011e-3
-2.196, 1.011e-3
-2.197, 1.011e-3
-2.198, 1.011e-3
-2.199, 1.011e-3
-2.200, 1.011e-3
-2.201, 1.011e-3
-2.202, 1.011e-3
-2.203, 1.011e-3
-2.204, 1.011e-3
-2.205, 1.011e-3
-2.206, 1.011e-3
-2.207, 1.011e-3
-2.208, 1.011e-3
-2.209, 1.011e-3
-2.210, 1.011e-3
-2.211, 1.011e-3
-2.212, 1.011e-3
-2.213, 1.011e-3
-2.214, 1.011e-3
-2.215, 1.011e-3
-2.216, 1.011e-3
-2.217, 1.011e-3
-2.218, 1.011e-3
-2.219, 1.011e-3
-2.220, 1.011e-3
-2.221, 1.011e-3
-2.222, 1.011e-3
-2.223, 1.011e-3
-2.224, 1.011e-3
-2.225, 1.011e-3
-2.226, 1.011e-3
-2.227, 1.011e-3
-2.228, 1.011e-3
-2.229, 1.011e-3
-2.230, 1.011e-3
-2.231, 1.011e-3
-2.232, 1.011e-3
-2.233, 1.011e-3
-2.234, 1.011e-3
-2.235, 1.011e-3
-2.236, 1.011e-3
-2.237, 1.011e-3
-2.238, 1.011e-3
-2.239, 1.011e-3
-2.240, 1.011e-3
-2.241, 1.011e-3
-2.242, 1.011e-3
-2.243, 1.011e-3
-2.244, 1.011e-3
-2.245, 1.011e-3
-2.246, 1.011e-3
-2.247, 1.011e-3
-2.248, 1.011e-3
-2.249, 1.011e-3
-2.250, 1.011e-3
-2.251, 1.011e-3
-2.252, 1.011e-3
-2.253, 1.011e-3
-2.254, 1.011e-3
-2.255, 1.011e-3
-2.256, 1.011e-3
-2.257, 1.011e-3
-2.258, 1.011e-3
-2.259, 1.011e-3
-2.260, 1.011e-3
-2.261, 1.011e-3
-2.262, 1.011e-3
-2.263, 1.011e-3
-2.264, 1.011e-3
-2.265, 1.011e-3
-2.266, 1.011e-3
-2.267, 1.011e-3
-2.268, 1.011e-3
-2.269, 1.011e-3
-2.270, 1.011e-3
-2.271, 1.011e-3
-2.272, 1.011e-3
-2.273, 1.011e-3
-2.274, 1.011e-3
-2.275, 1.011e-3
-2.276, 1.011e-3
-2.277, 1.011e-3
-2.278, 1.011e-3
-2.279, 1.011e-3
-2.280, 1.011e-3
-2.281, 1.011e-3
-2.282, 1.011e-3
-2.283, 1.011e-3
-2.284, 1.011e-3
-2.285, 1.011e-3
-2.286, 1.011e-3
-2.287, 1.011e-3
-2.288, 1.011e-3
-2.289, 1.011e-3
-2.290, 1.011e-3
-2.291, 1.011e-3
-2.292, 1.011e-3
-2.293, 1.011e-3
-2.294, 1.011e-3
-2.295, 1.011e-3
-2.296, 1.011e-3
-2.297, 1.011e-3
-2.298, 1.011e-3
-2.299, 1.011e-3
