Potential V vs RHE, Current mA cm-2
0.013299999999999867,-0.037419113881430224
0.012299999999999978,-0.05122669616811298
0.011299999999999866,-0.05815878153745166
0.010299999999999976,-0.06240291543704677
0.009299999999999864,-0.06668949067563783
0.008299999999999974,-0.0693491479193841
0.007299999999999862,-0.07141462641718704
0.006299999999999972,-0.07465431529387798
0.00529999999999986,-0.07632367462771873
0.0042999999999999705,-0.07850233002951089
0.0032999999999998586,-0.08015754225035297
0.0022999999999999687,-0.0811478401602585
0.0012999999999998568,-0.08324161288405875
0.00029999999999996696,-0.08440167614994809
-0.000700000000000145,-0.0867359497947254
-0.0017000000000000348,-0.08758477657464442
-0.0027000000000001467,-0.0883911620155675
-0.0037000000000000366,-0.08987660888042578
-0.0047000000000001485,-0.0912630259542935
-0.005700000000000038,-0.09276261993215046
-0.00670000000000015,-0.09382365340704923
-0.00770000000000004,-0.09443197926599119
-0.008700000000000152,-0.0958608376788549
-0.009700000000000042,-0.09687942981475771
-0.010700000000000154,-0.09829414111462276
-0.011700000000000044,-0.09983617643147565
-0.012700000000000156,-0.10041620806442031
-0.013700000000000045,-0.10129332907033663
-0.014700000000000157,-0.10256656924021516
-0.015700000000000047,-0.10375492673210178
-0.01670000000000016,-0.10502816690198033
-0.01770000000000005,-0.1059477292468926
-0.01870000000000016,-0.1064287310888467
-0.01970000000000005,-0.10770197125872524
-0.020700000000000163,-0.1093430363665687
-0.021700000000000053,-0.10978159686952685
-0.022700000000000164,-0.11121045528239053
-0.023700000000000054,-0.11217245896629877
-0.024700000000000166,-0.11337496357118404
-0.025700000000000056,-0.11490285177503827
-0.026700000000000168,-0.1156950901029627
-0.027700000000000058,-0.11677027069086011
-0.02870000000000017,-0.11826986466871706
-0.02970000000000006,-0.11904795588364282
-0.03070000000000017,-0.12097196325145929
-0.03170000000000006,-0.12158028911040124
-0.03270000000000017,-0.12302329463626359
-0.03370000000000006,-0.12422579924114888
-0.034700000000000175,-0.1254424509590328
-0.035700000000000065,-0.1269844862758857
-0.03670000000000018,-0.12849822736674127
-0.03770000000000007,-0.12924802435566976
-0.03870000000000018,-0.13069102988153208
-0.03970000000000007,-0.13238868344137011
-0.04070000000000018,-0.1333082457862824
-0.04170000000000007,-0.1355010483010732
-0.04270000000000018,-0.13640646353298683
-0.04370000000000007,-0.13782117483285186
-0.044700000000000184,-0.13919344479372098
-0.045700000000000074,-0.1411457463875347
-0.046700000000000186,-0.1423199567664227
-0.047700000000000076,-0.1437346680662877
-0.04870000000000019,-0.14500790823616627
-0.04970000000000008,-0.14727144631595032
-0.05070000000000019,-0.14925204213576138
-0.05170000000000008,-0.1502423400456669
-0.05270000000000019,-0.15208146473549145
-0.05370000000000008,-0.15349617603535648
-0.05470000000000019,-0.15561824298515403
-0.05570000000000008,-0.15759883880496509
-0.056700000000000195,-0.15943796349478964
-0.057700000000000085,-0.16071120366466815
-0.058700000000000196,-0.16212591496453319
-0.059700000000000086,-0.16438945304431726
-0.0607000000000002,-0.16637004886412832
-0.06170000000000009,-0.16820917355395287
-0.0627000000000002,-0.1697653559838044
-0.06370000000000009,-0.17160448067362896
-0.0647000000000002,-0.1734436053634535
-0.06570000000000009,-0.17613155683319706
-0.0667000000000002,-0.1774047970030756
-0.0677000000000001,-0.17938539282288665
-0.0687000000000002,-0.18150745977268423
-0.0697000000000001,-0.18334658446250876
-0.07070000000000021,-0.1858930648022658
-0.0717000000000001,-0.18730777610213087
-0.07270000000000021,-0.18942984305192842
-0.0737000000000001,-0.1919763233916855
-0.07470000000000021,-0.19381544808151
-0.0757000000000001,-0.19636192842126707
-0.07670000000000021,-0.19834252424107812
-0.0777000000000001,-0.19961576441095666
-0.07870000000000021,-0.20258665814067325
-0.0797000000000001,-0.20485019622045733
-0.08070000000000022,-0.20697226317025488
-0.0817000000000001,-0.20937727238002546
-0.08270000000000022,-0.21121639706985
-0.08370000000000011,-0.21347993514963404
-0.08470000000000022,-0.2161678866193776
-0.08570000000000011,-0.21843142469916169
-0.08670000000000022,-0.2206949627789457
-0.08770000000000011,-0.2229585008587298
-0.08870000000000022,-0.2250805678085273
-0.08970000000000011,-0.22805146153824393
-0.09070000000000022,-0.22989058622806843
-0.09170000000000011,-0.23300295108777153
-0.09270000000000023,-0.23484207577759608
-0.09370000000000012,-0.23710561385738013
-0.09470000000000023,-0.24021797871708325
-0.09570000000000012,-0.2423400456668808
-0.09670000000000023,-0.2443206414866918
-0.09770000000000012,-0.2474330063463949
-0.09870000000000023,-0.24913065990623293
-0.09970000000000012,-0.2521015536359495
-0.10070000000000023,-0.2552139184956526
-0.10170000000000012,-0.2571945143154637
-0.10270000000000024,-0.25974099465522077
-0.10370000000000013,-0.2622874749949778
-0.10470000000000024,-0.26384365742482935
-0.10570000000000013,-0.26766337793446493
-0.10670000000000024,-0.269643973754276
-0.10770000000000013,-0.27162456957408704
-0.10870000000000024,-0.27487840556377663
-0.10970000000000013,-0.2765760591236147
-0.11070000000000024,-0.27982989511330425
-0.11170000000000013,-0.2819519620631018
-0.11270000000000002,-0.28379108675292636
-0.11370000000000013,-0.28676198048264295
-0.11470000000000002,-0.289025518562427
-0.11570000000000014,-0.29199641229214357
-0.11670000000000003,-0.2941184792419411
-0.11770000000000014,-0.2958161328017792
-0.11870000000000003,-0.29878702653149575
-0.11970000000000014,-0.3007676223513068
-0.12070000000000003,-0.3035970449510369
-0.12170000000000014,-0.3061435252907939
-0.12270000000000003,-0.30755823659065895
-0.12370000000000014,-0.30953883241047003
-0.12470000000000003,-0.3122267838802136
-0.12570000000000014,-0.3142073797000246
-0.12670000000000003,-0.31675386003978173
-0.12770000000000015,-0.31802710020966024
-0.12870000000000004,-0.31972475376949827
-0.12970000000000015,-0.32241270523924187
-0.13070000000000004,-0.3236859454091204
-0.13170000000000015,-0.3259494834889044
-0.13270000000000004,-0.32693978139880997
-0.13370000000000015,-0.32807155043870195
-0.13470000000000004,-0.32976920399854004
-0.13570000000000015,-0.3309009730384321
-0.13670000000000004,-0.33288156885824316
-0.13770000000000016,-0.33302303998822963
-0.13870000000000005,-0.3333059822482026
-0.13970000000000016,-0.3342962801581082
-0.14070000000000005,-0.3352865780680137
-0.14170000000000016,-0.33571099145797323
-0.14270000000000005,-0.3355695203279867
-0.14370000000000016,-0.33571099145797323
-0.14470000000000005,-0.3351451069380272
-0.14570000000000016,-0.33585246258795975
-0.14670000000000005,-0.3354280491980002
-0.14770000000000016,-0.3338718667681486
-0.14870000000000005,-0.3340133378981352
-0.14970000000000017,-0.33302303998822963
-0.15070000000000006,-0.33259862659827016
-0.15170000000000017,-0.33217421320831064
-0.15270000000000006,-0.33019361738849956
-0.15370000000000017,-0.32976920399854004
-0.15470000000000006,-0.32849596382866153
-0.15570000000000017,-0.32807155043870195
-0.15670000000000006,-0.32679831026882344
-0.15770000000000017,-0.32552507009894494
-0.15870000000000006,-0.3245347721890394
-0.15970000000000018,-0.32354447427913385
-0.16070000000000007,-0.3221297629792688
-0.16170000000000018,-0.3219882918492823
-0.16270000000000007,-0.32029063828944426
-0.16370000000000018,-0.31930034037953875
-0.16470000000000007,-0.3188759269895793
-0.16570000000000018,-0.3176026868197007
-0.16670000000000007,-0.3168953311697682
-0.16770000000000018,-0.31505620647994365
-0.16870000000000007,-0.3142073797000246
-0.16970000000000018,-0.31406590857003813
-0.17070000000000007,-0.3130756106601326
-0.17170000000000019,-0.3122267838802136
-0.17270000000000008,-0.31095354371033507
-0.1737000000000002,-0.3099632458004295
-0.17470000000000008,-0.3091144190205105
-0.1757000000000002,-0.308690005630551
-0.17670000000000008,-0.3079826499806185
-0.1777000000000002,-0.3067094098107399
-0.17870000000000008,-0.30628499642078044
-0.1797000000000002,-0.30529469851087493
-0.18070000000000008,-0.3051532273808884
-0.1817000000000002,-0.30458734286094236
-0.18270000000000008,-0.3028896893011043
-0.1837000000000002,-0.30232380478115833
-0.1847000000000001,-0.3018993913911988
-0.1857000000000002,-0.3016164491312258
-0.1867000000000001,-0.3006261512213203
-0.1877000000000002,-0.29977732444140126
-0.1887000000000001,-0.29949438218142826
-0.1897000000000002,-0.29906996879146874
-0.1907000000000001,-0.29878702653149575
-0.1917000000000001,-0.29822114201154976
-0.19269999999999998,-0.2973723152316307
-0.1937000000000001,-0.2973723152316307
-0.19469999999999998,-0.2962405461917387
-0.1957000000000001,-0.2963820173217252
-0.19669999999999999,-0.2962405461917387
-0.1977000000000001,-0.2944014215019141
-0.1987,-0.29454289263190064
-0.1997000000000001,-0.2941184792419411
-0.2007,-0.2944014215019141
-0.2017000000000001,-0.2938355369819681
-0.2027,-0.2927037679420761
-0.2037000000000001,-0.2924208256821031
-0.2047,-0.29227935455211657
-0.2057000000000001,-0.29199641229214357
-0.2067,-0.2927037679420761
-0.2077000000000001,-0.2917134700321706
-0.2087,-0.29128905664221105
-0.2097000000000001,-0.29128905664221105
-0.2107,-0.29100611438223806
-0.2117000000000001,-0.29100611438223806
-0.2127,-0.29058170099227854
-0.2137000000000001,-0.29044022986229207
-0.2147,-0.29044022986229207
-0.2157000000000001,-0.2914305277721975
-0.2167,-0.29100611438223806
-0.21770000000000012,-0.290157287602319
-0.2187,-0.29029875873230554
-0.21970000000000012,-0.29001581647233254
-0.2207,-0.29100611438223806
-0.22170000000000012,-0.29058170099227854
-0.2227,-0.29044022986229207
-0.22370000000000012,-0.29044022986229207
-0.2247,-0.290157287602319
-0.22570000000000012,-0.2911475855122245
-0.2267,-0.29086464325225153
-0.22770000000000012,-0.29044022986229207
-0.22870000000000001,-0.2911475855122245
-0.22970000000000013,-0.2911475855122245
-0.23070000000000002,-0.29128905664221105
-0.23170000000000013,-0.29199641229214357
-0.23270000000000002,-0.29199641229214357
-0.23370000000000013,-0.29199641229214357
-0.23470000000000002,-0.29256229681208956
-0.23570000000000013,-0.2931281813320356
-0.23670000000000002,-0.2932696524620221
-0.2376999999999999,-0.29397700811195465
-0.23870000000000002,-0.29369406585198166
-0.2396999999999999,-0.29425995037192765
-0.24070000000000003,-0.2958161328017792
-0.24169999999999991,-0.2963820173217252
-0.24270000000000003,-0.2962405461917387
-0.24369999999999992,-0.29708937297165766
-0.24470000000000003,-0.2976552574916037
-0.24569999999999992,-0.29822114201154976
-0.24670000000000003,-0.29878702653149575
-0.24769999999999992,-0.2992114399214552
-0.24870000000000003,-0.2999187955713878
-0.24969999999999992,-0.3007676223513068
-0.25070000000000003,-0.3021823336511718
-0.2516999999999999,-0.30260674704113133
-0.25270000000000004,-0.3031726315610774
-0.2536999999999999,-0.30430440060096936
-0.25470000000000004,-0.30571911190083445
-0.2556999999999999,-0.30628499642078044
-0.25670000000000004,-0.3071338232006995
-0.25769999999999993,-0.308124121110605
-0.25870000000000004,-0.30925589015049704
-0.25969999999999993,-0.3102461880604025
-0.26070000000000004,-0.31180237049025405
-0.26169999999999993,-0.3125097261401866
-0.26270000000000004,-0.3139244374400516
-0.26369999999999993,-0.31505620647994365
-0.26470000000000005,-0.31632944664982215
-0.26569999999999994,-0.3184515135996197
-0.26670000000000005,-0.31972475376949827
-0.26769999999999994,-0.3205735805494173
-0.26870000000000005,-0.3222712341092553
-0.26969999999999994,-0.32382741653910685
-0.27070000000000005,-0.32580801235891793
-0.27169999999999994,-0.32722272365878297
-0.27270000000000005,-0.32849596382866153
-0.27369999999999994,-0.3309009730384321
-0.27470000000000006,-0.33245715546828364
-0.27569999999999995,-0.3340133378981352
-0.27670000000000006,-0.3362768759779193
-0.27769999999999995,-0.33769158727778426
-0.27870000000000006,-0.3395307119676088
-0.27969999999999995,-0.3417942500473929
-0.28070000000000006,-0.34419925925716344
-0.28169999999999995,-0.346321326206961
-0.28270000000000006,-0.34844339315675854
-0.28369999999999995,-0.3502825178465831
-0.28470000000000006,-0.35311194044631317
-0.28569999999999995,-0.35551694965608377
-0.28670000000000007,-0.3582049011258273
-0.28769999999999996,-0.36060991033559786
-0.28870000000000007,-0.36244903502542236
-0.28969999999999996,-0.3658443421450985
-0.29070000000000007,-0.3688152358748151
-0.29169999999999996,-0.3715031873445586
-0.29270000000000007,-0.37433260994428874
-0.29369999999999996,-0.37716203254401875
-0.2947000000000001,-0.3806988107936814
-0.29569999999999996,-0.38338676226342494
-0.2967000000000001,-0.386782069383101
-0.29769999999999996,-0.38961149198283107
-0.2987000000000001,-0.39244091458256114
-0.29969999999999997,-0.3962606350921968
-0.3007000000000001,-0.4005047689917918
-0.30169999999999997,-0.40333419159152195
-0.3027000000000001,-0.40701244097117106
-0.30369999999999997,-0.41083216148080665
-0.3047000000000001,-0.41465188199044223
-0.30569999999999997,-0.4194619004099834
-0.3067000000000001,-0.4225742652696865
-0.3077,-0.4269598702992681
-0.3087000000000001,-0.4309210619388902
-0.3097,-0.43516519583848523
-0.3107000000000001,-0.4401166853880129
-0.3117,-0.443794934767662
-0.3127000000000001,-0.4484634820572166
-0.3137,-0.45341497160674427
-0.3147000000000001,-0.4585079322862584
-0.3157,-0.46374236409575903
-0.3167000000000001,-0.46812796912534066
-0.3177,-0.47293798754488175
-0.3187000000000001,-0.47831389048436895
-0.3197,-0.48397273568382904
-0.3207000000000001,-0.48977305201327564
-0.3217,-0.4954318972127358
-0.3227000000000001,-0.5012322135421824
-0.3237,-0.5064666453516832
-0.3247000000000001,-0.5128328462010757
-0.3257,-0.519340518180455
-0.3267000000000001,-0.5251408345099016
-0.3277,-0.5315070353592943
-0.3287000000000001,-0.537873236208687
-0.3297,-0.5446638504480392
-0.3307000000000001,-0.5518788780773508
-0.3317,-0.5579621366667705
-0.3327000000000001,-0.5653186354260686
-0.3337,-0.5722507207954074
-0.3347000000000001,-0.5794657484247191
-0.3357,-0.5872466605739768
-0.3367000000000001,-0.5941787459433153
-0.3377,-0.6029499560024787
-0.3387000000000001,-0.6095990991118443
-0.3397,-0.6186532514309806
-0.3407000000000001,-0.6268585769701978
-0.3417,-0.634780960249442
-0.3427000000000001,-0.6441180548285511
-0.3437,-0.6523233803677684
-0.3447000000000001,-0.6616604749468776
-0.3457,-0.6704316850060409
-0.3467000000000001,-0.6797687795851503
-0.3477,-0.6891058741642594
-0.3487000000000001,-0.6984429687433686
-0.3497,-0.7087703612323834
-0.3507000000000001,-0.7189562825914116
-0.3517,-0.7291422039504398
-0.3527000000000001,-0.7396110675694412
-0.3537,-0.7495140466684964
-0.3547000000000001,-0.7602658525474707
-0.3557,-0.77243236972631
-0.35670000000000013,-0.7834671178652574
-0.3577,-0.7939359814842585
-0.35870000000000013,-0.8055366141431518
-0.3597,-0.8174201890620182
-0.36070000000000013,-0.8295867062408576
-0.3617,-0.8420361656796699
-0.3626999999999999,-0.8546270962484687
-0.3637,-0.8663692000373485
-0.3646999999999999,-0.8796674862560799
-0.3657,-0.8933901858647707
-0.3666999999999999,-0.9062640586935425
-0.3677,-0.9199867583022334
-0.3686999999999999,-0.9335679867809377
-0.36970000000000003,-0.9481395131695476
-0.3706999999999999,-0.9629939818181305
-0.37170000000000003,-0.9772825659467672
-0.3726999999999999,-0.9918540923353774
-0.37370000000000003,-1.0068500321139466
-0.3746999999999999,-1.022411856412462
-0.37570000000000003,-1.0378322095809909
-0.3766999999999999,-1.0545258029193985
-0.37770000000000004,-1.0705120406078732
-0.3786999999999999,-1.0860738649063886
-0.37970000000000004,-1.1034748138947286
-0.3806999999999999,-1.1213001762730281
-0.38170000000000004,-1.138135240741422
-0.38269999999999993,-1.156102074249708
-0.38370000000000004,-1.1732200809780748
-0.38469999999999993,-1.1918942701362936
-0.38570000000000004,-1.2105684592945118
-0.38669999999999993,-1.2293841195827169
-0.38770000000000004,-1.248199779870922
-0.38869999999999993,-1.2672983824191
-0.38970000000000005,-1.2875287540071698
-0.39069999999999994,-1.3079005967252264
-0.39170000000000005,-1.328272439443283
-0.39269999999999994,-1.349634580071245
-0.39370000000000005,-1.3697234805293286
-0.39469999999999994,-1.3915100345472502
-0.39570000000000005,-1.4141454153450908
-0.39669999999999994,-1.4359319693630124
-0.39770000000000005,-1.4585673501608527
-0.39869999999999994,-1.4812027309586933
-0.39970000000000006,-1.505252823056399
-0.40069999999999995,-1.5293029151541047
-0.40170000000000006,-1.5519382959519452
-0.40269999999999995,-1.5774030993495158
-0.40370000000000006,-1.6014531914472214
-0.40469999999999995,-1.6283327061446573
-0.40570000000000006,-1.6523827982423631
-0.40669999999999995,-1.6792623129397986
-0.40770000000000006,-1.7061418276372344
-0.40869999999999995,-1.7316066310348048
-0.40970000000000006,-1.7599008570321055
-0.41069999999999995,-1.7867803717295414
-0.41170000000000007,-1.815074597726842
-0.41269999999999996,-1.8447835350240078
-0.41370000000000007,-1.8730777610213083
-0.41469999999999996,-1.9027866983184742
-0.41570000000000007,-1.9324956356156402
-0.41669999999999996,-1.963619284212671
-0.41770000000000007,-1.9947429328097017
-0.41869999999999996,-2.0244518701068674
-0.4197000000000001,-2.0569902300037635
-0.42069999999999996,-2.0895285899006595
-0.4217000000000001,-2.12348166109742
-0.42269999999999996,-2.156020020994316
-0.4237000000000001,-2.1899730921910767
-0.42469999999999997,-2.225340874687703
-0.4257000000000001,-2.2592939458844636
-0.42669999999999997,-2.2946617283810897
-0.4277000000000001,-2.33144422217758
-0.42869999999999997,-2.3682267159740715
-0.4297000000000001,-2.4050092097705624
-0.43069999999999997,-2.4417917035670533
-0.4317000000000001,-2.4814036199632743
-0.4327,-2.5196008250596305
-0.4337000000000001,-2.5592127414558514
-0.4347,-2.600239369151937
-0.4357000000000001,-2.639851285548158
-0.4367,-2.6822926245441097
-0.4377000000000001,-2.7247339635400607
-0.4387,-2.767175302536012
-0.4397000000000001,-2.811031352831828
-0.4407,-2.854887403127644
-0.4417000000000001,-2.8987434534234597
-0.4427,-2.945428926319006
-0.4437000000000001,-2.990699687914687
-0.4447,-3.0373851608102336
-0.4457000000000001,-3.0854853450056448
-0.4467,-3.1335855292010564
-0.4477000000000001,-3.1831004246963324
-0.4487,-3.232615320191609
-0.4497000000000001,-3.28354492698675
-0.4507,-3.3344745337818917
-0.4517000000000001,-3.386818851876898
-0.4527,-3.440577881271769
-0.4537000000000001,-3.4943369106666404
-0.4547,-3.5495106513613774
-0.4557000000000001,-3.6046843920561136
-0.4567,-3.661272844050715
-0.4577000000000001,-3.7192760073451816
-0.4587,-3.7772791706396474
-0.4597000000000001,-3.8366970452339793
-0.4607,-3.8975296311281755
-0.4617000000000001,-3.958362217022373
-0.4627,-4.020609514216435
-0.4637000000000001,-4.082856811410497
-0.4647,-4.147933531204288
-0.4657000000000001,-4.213010250998079
-0.4667,-4.279501682091736
-0.4677000000000001,-4.347407824485257
-0.4687,-4.415313966878779
-0.4697000000000001,-4.4846348205721664
-0.4707,-4.556785096865283
-0.4717000000000001,-4.6289353731583995
-0.4727,-4.702500360751382
-0.4737000000000001,-4.77748005964423
-0.4747,-4.852459758537076
-0.4757000000000001,-4.928854168729788
-0.4767,-5.00807800152223
-0.4777000000000001,-5.087301834314672
-0.4787,-5.167940378406978
-0.4797000000000001,-5.249993633799152
-0.4807,-5.333461600491188
-0.48170000000000013,-5.419758989782956
-0.4827,-5.504641667774858
-0.48370000000000013,-5.593768479666355
-0.4847,-5.682895291557853
-0.48570000000000013,-5.773436814749215
-0.4867,-5.773436814749215
-0.48570000000000013,-5.674407023758662
-0.4847,-5.5739625214682444
-0.48370000000000013,-5.474932730477692
-0.4827,-5.3759029394871405
-0.48170000000000013,-5.276873148496587
-0.4807,-5.1792580688059
-0.4797000000000001,-5.084472411714942
-0.4787,-4.9896867546239845
-0.4777000000000001,-4.896315808832893
-0.4767,-4.804359574341665
