Apr. 6, 2025   11:01:07
Linear Sweep Voltammetry
File: c:/users/guazh/data/banditlqround7_x0exp994_r5/2025-03-28-exp998\post-regen1-2025-04-06t10_57_54-lsvinphos\post-regen1_lsv_50mvs_efin_-2300mv.bin
Data Source:  Experiment
Instrument Model:  CHI760E
Header: LSV ran at 50 mVs with Efin at -2300mV
Note: 

Init E (V) = -0.6
Final E (V) = -2.3
Scan Rate (V/s) = 0.05
Sample Interval (V) = 0.001
Quiet Time (sec) = 2
Sensitivity (A/V) = 1e-4
Comp R (ohm) = 9.1

Results:

Channel 1:
Ep = -2.122V
ip = 6.181e-4A
Ah = 9.823e-4C

Potential/V, Current/A

-0.600, 1.340e-6
-0.601, 1.405e-6
-0.602, 1.434e-6
-0.603, 1.456e-6
-0.604, 1.474e-6
-0.605, 1.492e-6
-0.606, 1.510e-6
-0.607, 1.529e-6
-0.608, 1.547e-6
-0.609, 1.564e-6
-0.610, 1.580e-6
-0.611, 1.597e-6
-0.612, 1.613e-6
-0.613, 1.631e-6
-0.614, 1.648e-6
-0.615, 1.665e-6
-0.616, 1.681e-6
-0.617, 1.699e-6
-0.618, 1.717e-6
-0.619, 1.733e-6
-0.620, 1.750e-6
-0.621, 1.766e-6
-0.622, 1.784e-6
-0.623, 1.802e-6
-0.624, 1.819e-6
-0.625, 1.837e-6
-0.626, 1.856e-6
-0.627, 1.874e-6
-0.628, 1.892e-6
-0.629, 1.911e-6
-0.630, 1.929e-6
-0.631, 1.946e-6
-0.632, 1.965e-6
-0.633, 1.985e-6
-0.634, 2.003e-6
-0.635, 2.022e-6
-0.636, 2.041e-6
-0.637, 2.062e-6
-0.638, 2.081e-6
-0.639, 2.100e-6
-0.640, 2.120e-6
-0.641, 2.140e-6
-0.642, 2.160e-6
-0.643, 2.182e-6
-0.644, 2.200e-6
-0.645, 2.220e-6
-0.646, 2.239e-6
-0.647, 2.260e-6
-0.648, 2.281e-6
-0.649, 2.302e-6
-0.650, 2.322e-6
-0.651, 2.344e-6
-0.652, 2.367e-6
-0.653, 2.390e-6
-0.654, 2.412e-6
-0.655, 2.434e-6
-0.656, 2.455e-6
-0.657, 2.478e-6
-0.658, 2.500e-6
-0.659, 2.522e-6
-0.660, 2.547e-6
-0.661, 2.570e-6
-0.662, 2.594e-6
-0.663, 2.619e-6
-0.664, 2.642e-6
-0.665, 2.667e-6
-0.666, 2.693e-6
-0.667, 2.716e-6
-0.668, 2.740e-6
-0.669, 2.765e-6
-0.670, 2.790e-6
-0.671, 2.815e-6
-0.672, 2.841e-6
-0.673, 2.868e-6
-0.674, 2.894e-6
-0.675, 2.920e-6
-0.676, 2.946e-6
-0.677, 2.971e-6
-0.678, 2.999e-6
-0.679, 3.025e-6
-0.680, 3.052e-6
-0.681, 3.078e-6
-0.682, 3.107e-6
-0.683, 3.135e-6
-0.684, 3.164e-6
-0.685, 3.191e-6
-0.686, 3.218e-6
-0.687, 3.246e-6
-0.688, 3.276e-6
-0.689, 3.303e-6
-0.690, 3.332e-6
-0.691, 3.363e-6
-0.692, 3.392e-6
-0.693, 3.422e-6
-0.694, 3.451e-6
-0.695, 3.481e-6
-0.696, 3.510e-6
-0.697, 3.540e-6
-0.698, 3.571e-6
-0.699, 3.601e-6
-0.700, 3.632e-6
-0.701, 3.663e-6
-0.702, 3.695e-6
-0.703, 3.726e-6
-0.704, 3.757e-6
-0.705, 3.789e-6
-0.706, 3.819e-6
-0.707, 3.853e-6
-0.708, 3.886e-6
-0.709, 3.917e-6
-0.710, 3.948e-6
-0.711, 3.981e-6
-0.712, 4.013e-6
-0.713, 4.046e-6
-0.714, 4.078e-6
-0.715, 4.110e-6
-0.716, 4.143e-6
-0.717, 4.177e-6
-0.718, 4.209e-6
-0.719, 4.240e-6
-0.720, 4.273e-6
-0.721, 4.308e-6
-0.722, 4.340e-6
-0.723, 4.376e-6
-0.724, 4.409e-6
-0.725, 4.442e-6
-0.726, 4.477e-6
-0.727, 4.511e-6
-0.728, 4.547e-6
-0.729, 4.582e-6
-0.730, 4.616e-6
-0.731, 4.651e-6
-0.732, 4.686e-6
-0.733, 4.720e-6
-0.734, 4.754e-6
-0.735, 4.789e-6
-0.736, 4.824e-6
-0.737, 4.858e-6
-0.738, 4.893e-6
-0.739, 4.927e-6
-0.740, 4.961e-6
-0.741, 4.996e-6
-0.742, 5.031e-6
-0.743, 5.068e-6
-0.744, 5.102e-6
-0.745, 5.136e-6
-0.746, 5.170e-6
-0.747, 5.205e-6
-0.748, 5.242e-6
-0.749, 5.275e-6
-0.750, 5.310e-6
-0.751, 5.345e-6
-0.752, 5.379e-6
-0.753, 5.414e-6
-0.754, 5.447e-6
-0.755, 5.481e-6
-0.756, 5.517e-6
-0.757, 5.550e-6
-0.758, 5.586e-6
-0.759, 5.619e-6
-0.760, 5.652e-6
-0.761, 5.686e-6
-0.762, 5.717e-6
-0.763, 5.753e-6
-0.764, 5.786e-6
-0.765, 5.819e-6
-0.766, 5.852e-6
-0.767, 5.884e-6
-0.768, 5.916e-6
-0.769, 5.946e-6
-0.770, 5.976e-6
-0.771, 6.009e-6
-0.772, 6.039e-6
-0.773, 6.072e-6
-0.774, 6.104e-6
-0.775, 6.134e-6
-0.776, 6.164e-6
-0.777, 6.193e-6
-0.778, 6.221e-6
-0.779, 6.251e-6
-0.780, 6.278e-6
-0.781, 6.308e-6
-0.782, 6.338e-6
-0.783, 6.368e-6
-0.784, 6.396e-6
-0.785, 6.422e-6
-0.786, 6.450e-6
-0.787, 6.477e-6
-0.788, 6.506e-6
-0.789, 6.531e-6
-0.790, 6.558e-6
-0.791, 6.585e-6
-0.792, 6.610e-6
-0.793, 6.636e-6
-0.794, 6.662e-6
-0.795, 6.686e-6
-0.796, 6.710e-6
-0.797, 6.732e-6
-0.798, 6.757e-6
-0.799, 6.780e-6
-0.800, 6.802e-6
-0.801, 6.824e-6
-0.802, 6.846e-6
-0.803, 6.868e-6
-0.804, 6.887e-6
-0.805, 6.907e-6
-0.806, 6.928e-6
-0.807, 6.947e-6
-0.808, 6.967e-6
-0.809, 6.986e-6
-0.810, 7.003e-6
-0.811, 7.020e-6
-0.812, 7.038e-6
-0.813, 7.056e-6
-0.814, 7.072e-6
-0.815, 7.088e-6
-0.816, 7.104e-6
-0.817, 7.118e-6
-0.818, 7.134e-6
-0.819, 7.152e-6
-0.820, 7.167e-6
-0.821, 7.178e-6
-0.822, 7.191e-6
-0.823, 7.204e-6
-0.824, 7.215e-6
-0.825, 7.227e-6
-0.826, 7.238e-6
-0.827, 7.247e-6
-0.828, 7.258e-6
-0.829, 7.267e-6
-0.830, 7.274e-6
-0.831, 7.283e-6
-0.832, 7.293e-6
-0.833, 7.301e-6
-0.834, 7.307e-6
-0.835, 7.315e-6
-0.836, 7.321e-6
-0.837, 7.326e-6
-0.838, 7.333e-6
-0.839, 7.340e-6
-0.840, 7.344e-6
-0.841, 7.348e-6
-0.842, 7.351e-6
-0.843, 7.356e-6
-0.844, 7.359e-6
-0.845, 7.361e-6
-0.846, 7.365e-6
-0.847, 7.366e-6
-0.848, 7.369e-6
-0.849, 7.371e-6
-0.850, 7.370e-6
-0.851, 7.372e-6
-0.852, 7.370e-6
-0.853, 7.371e-6
-0.854, 7.370e-6
-0.855, 7.370e-6
-0.856, 7.367e-6
-0.857, 7.365e-6
-0.858, 7.364e-6
-0.859, 7.364e-6
-0.860, 7.360e-6
-0.861, 7.357e-6
-0.862, 7.353e-6
-0.863, 7.350e-6
-0.864, 7.347e-6
-0.865, 7.342e-6
-0.866, 7.338e-6
-0.867, 7.333e-6
-0.868, 7.329e-6
-0.869, 7.324e-6
-0.870, 7.319e-6
-0.871, 7.314e-6
-0.872, 7.307e-6
-0.873, 7.302e-6
-0.874, 7.295e-6
-0.875, 7.288e-6
-0.876, 7.284e-6
-0.877, 7.275e-6
-0.878, 7.268e-6
-0.879, 7.260e-6
-0.880, 7.253e-6
-0.881, 7.246e-6
-0.882, 7.237e-6
-0.883, 7.231e-6
-0.884, 7.223e-6
-0.885, 7.214e-6
-0.886, 7.206e-6
-0.887, 7.195e-6
-0.888, 7.187e-6
-0.889, 7.179e-6
-0.890, 7.169e-6
-0.891, 7.160e-6
-0.892, 7.149e-6
-0.893, 7.141e-6
-0.894, 7.132e-6
-0.895, 7.121e-6
-0.896, 7.113e-6
-0.897, 7.102e-6
-0.898, 7.092e-6
-0.899, 7.084e-6
-0.900, 7.073e-6
-0.901, 7.061e-6
-0.902, 7.051e-6
-0.903, 7.042e-6
-0.904, 7.032e-6
-0.905, 7.020e-6
-0.906, 7.010e-6
-0.907, 6.999e-6
-0.908, 6.989e-6
-0.909, 6.979e-6
-0.910, 6.969e-6
-0.911, 6.957e-6
-0.912, 6.946e-6
-0.913, 6.936e-6
-0.914, 6.925e-6
-0.915, 6.915e-6
-0.916, 6.903e-6
-0.917, 6.893e-6
-0.918, 6.882e-6
-0.919, 6.871e-6
-0.920, 6.861e-6
-0.921, 6.851e-6
-0.922, 6.839e-6
-0.923, 6.830e-6
-0.924, 6.819e-6
-0.925, 6.808e-6
-0.926, 6.798e-6
-0.927, 6.785e-6
-0.928, 6.776e-6
-0.929, 6.766e-6
-0.930, 6.753e-6
-0.931, 6.743e-6
-0.932, 6.732e-6
-0.933, 6.722e-6
-0.934, 6.713e-6
-0.935, 6.701e-6
-0.936, 6.692e-6
-0.937, 6.681e-6
-0.938, 6.671e-6
-0.939, 6.660e-6
-0.940, 6.650e-6
-0.941, 6.640e-6
-0.942, 6.630e-6
-0.943, 6.619e-6
-0.944, 6.610e-6
-0.945, 6.599e-6
-0.946, 6.589e-6
-0.947, 6.578e-6
-0.948, 6.570e-6
-0.949, 6.559e-6
-0.950, 6.549e-6
-0.951, 6.540e-6
-0.952, 6.530e-6
-0.953, 6.521e-6
-0.954, 6.511e-6
-0.955, 6.501e-6
-0.956, 6.492e-6
-0.957, 6.482e-6
-0.958, 6.473e-6
-0.959, 6.464e-6
-0.960, 6.455e-6
-0.961, 6.447e-6
-0.962, 6.437e-6
-0.963, 6.428e-6
-0.964, 6.420e-6
-0.965, 6.411e-6
-0.966, 6.402e-6
-0.967, 6.392e-6
-0.968, 6.385e-6
-0.969, 6.377e-6
-0.970, 6.367e-6
-0.971, 6.358e-6
-0.972, 6.349e-6
-0.973, 6.342e-6
-0.974, 6.334e-6
-0.975, 6.326e-6
-0.976, 6.317e-6
-0.977, 6.308e-6
-0.978, 6.301e-6
-0.979, 6.293e-6
-0.980, 6.284e-6
-0.981, 6.276e-6
-0.982, 6.268e-6
-0.983, 6.262e-6
-0.984, 6.255e-6
-0.985, 6.246e-6
-0.986, 6.239e-6
-0.987, 6.230e-6
-0.988, 6.225e-6
-0.989, 6.218e-6
-0.990, 6.212e-6
-0.991, 6.203e-6
-0.992, 6.196e-6
-0.993, 6.190e-6
-0.994, 6.184e-6
-0.995, 6.176e-6
-0.996, 6.170e-6
-0.997, 6.162e-6
-0.998, 6.156e-6
-0.999, 6.152e-6
-1.000, 6.144e-6
-1.001, 6.139e-6
-1.002, 6.131e-6
-1.003, 6.126e-6
-1.004, 6.120e-6
-1.005, 6.111e-6
-1.006, 6.106e-6
-1.007, 6.100e-6
-1.008, 6.094e-6
-1.009, 6.088e-6
-1.010, 6.081e-6
-1.011, 6.076e-6
-1.012, 6.069e-6
-1.013, 6.063e-6
-1.014, 6.058e-6
-1.015, 6.051e-6
-1.016, 6.045e-6
-1.017, 6.039e-6
-1.018, 6.034e-6
-1.019, 6.029e-6
-1.020, 6.023e-6
-1.021, 6.017e-6
-1.022, 6.011e-6
-1.023, 6.006e-6
-1.024, 6.003e-6
-1.025, 5.996e-6
-1.026, 5.990e-6
-1.027, 5.984e-6
-1.028, 5.980e-6
-1.029, 5.975e-6
-1.030, 5.971e-6
-1.031, 5.965e-6
-1.032, 5.960e-6
-1.033, 5.956e-6
-1.034, 5.951e-6
-1.035, 5.946e-6
-1.036, 5.943e-6
-1.037, 5.937e-6
-1.038, 5.933e-6
-1.039, 5.930e-6
-1.040, 5.925e-6
-1.041, 5.921e-6
-1.042, 5.916e-6
-1.043, 5.913e-6
-1.044, 5.909e-6
-1.045, 5.904e-6
-1.046, 5.901e-6
-1.047, 5.896e-6
-1.048, 5.893e-6
-1.049, 5.891e-6
-1.050, 5.885e-6
-1.051, 5.881e-6
-1.052, 5.878e-6
-1.053, 5.874e-6
-1.054, 5.871e-6
-1.055, 5.866e-6
-1.056, 5.864e-6
-1.057, 5.859e-6
-1.058, 5.855e-6
-1.059, 5.853e-6
-1.060, 5.849e-6
-1.061, 5.845e-6
-1.062, 5.842e-6
-1.063, 5.838e-6
-1.064, 5.835e-6
-1.065, 5.832e-6
-1.066, 5.828e-6
-1.067, 5.825e-6
-1.068, 5.820e-6
-1.069, 5.821e-6
-1.070, 5.817e-6
-1.071, 5.811e-6
-1.072, 5.807e-6
-1.073, 5.806e-6
-1.074, 5.803e-6
-1.075, 5.800e-6
-1.076, 5.798e-6
-1.077, 5.794e-6
-1.078, 5.792e-6
-1.079, 5.790e-6
-1.080, 5.786e-6
-1.081, 5.783e-6
-1.082, 5.780e-6
-1.083, 5.778e-6
-1.084, 5.777e-6
-1.085, 5.773e-6
-1.086, 5.770e-6
-1.087, 5.767e-6
-1.088, 5.766e-6
-1.089, 5.765e-6
-1.090, 5.760e-6
-1.091, 5.758e-6
-1.092, 5.754e-6
-1.093, 5.754e-6
-1.094, 5.752e-6
-1.095, 5.749e-6
-1.096, 5.747e-6
-1.097, 5.744e-6
-1.098, 5.742e-6
-1.099, 5.741e-6
-1.100, 5.737e-6
-1.101, 5.735e-6
-1.102, 5.734e-6
-1.103, 5.731e-6
-1.104, 5.731e-6
-1.105, 5.728e-6
-1.106, 5.725e-6
-1.107, 5.724e-6
-1.108, 5.723e-6
-1.109, 5.721e-6
-1.110, 5.719e-6
-1.111, 5.717e-6
-1.112, 5.714e-6
-1.113, 5.714e-6
-1.114, 5.713e-6
-1.115, 5.712e-6
-1.116, 5.710e-6
-1.117, 5.708e-6
-1.118, 5.707e-6
-1.119, 5.707e-6
-1.120, 5.704e-6
-1.121, 5.703e-6
-1.122, 5.702e-6
-1.123, 5.701e-6
-1.124, 5.699e-6
-1.125, 5.698e-6
-1.126, 5.697e-6
-1.127, 5.696e-6
-1.128, 5.694e-6
-1.129, 5.695e-6
-1.130, 5.693e-6
-1.131, 5.691e-6
-1.132, 5.690e-6
-1.133, 5.689e-6
-1.134, 5.690e-6
-1.135, 5.687e-6
-1.136, 5.686e-6
-1.137, 5.687e-6
-1.138, 5.686e-6
-1.139, 5.686e-6
-1.140, 5.684e-6
-1.141, 5.683e-6
-1.142, 5.682e-6
-1.143, 5.683e-6
-1.144, 5.682e-6
-1.145, 5.681e-6
-1.146, 5.680e-6
-1.147, 5.680e-6
-1.148, 5.680e-6
-1.149, 5.679e-6
-1.150, 5.679e-6
-1.151, 5.679e-6
-1.152, 5.679e-6
-1.153, 5.679e-6
-1.154, 5.679e-6
-1.155, 5.677e-6
-1.156, 5.677e-6
-1.157, 5.676e-6
-1.158, 5.677e-6
-1.159, 5.678e-6
-1.160, 5.676e-6
-1.161, 5.677e-6
-1.162, 5.676e-6
-1.163, 5.675e-6
-1.164, 5.676e-6
-1.165, 5.675e-6
-1.166, 5.675e-6
-1.167, 5.675e-6
-1.168, 5.676e-6
-1.169, 5.676e-6
-1.170, 5.675e-6
-1.171, 5.676e-6
-1.172, 5.675e-6
-1.173, 5.675e-6
-1.174, 5.676e-6
-1.175, 5.675e-6
-1.176, 5.677e-6
-1.177, 5.677e-6
-1.178, 5.678e-6
-1.179, 5.679e-6
-1.180, 5.678e-6
-1.181, 5.677e-6
-1.182, 5.678e-6
-1.183, 5.679e-6
-1.184, 5.680e-6
-1.185, 5.680e-6
-1.186, 5.679e-6
-1.187, 5.679e-6
-1.188, 5.680e-6
-1.189, 5.681e-6
-1.190, 5.682e-6
-1.191, 5.682e-6
-1.192, 5.682e-6
-1.193, 5.683e-6
-1.194, 5.685e-6
-1.195, 5.685e-6
-1.196, 5.684e-6
-1.197, 5.684e-6
-1.198, 5.685e-6
-1.199, 5.686e-6
-1.200, 5.687e-6
-1.201, 5.687e-6
-1.202, 5.687e-6
-1.203, 5.689e-6
-1.204, 5.690e-6
-1.205, 5.690e-6
-1.206, 5.691e-6
-1.207, 5.690e-6
-1.208, 5.692e-6
-1.209, 5.694e-6
-1.210, 5.694e-6
-1.211, 5.695e-6
-1.212, 5.695e-6
-1.213, 5.695e-6
-1.214, 5.697e-6
-1.215, 5.699e-6
-1.216, 5.700e-6
-1.217, 5.700e-6
-1.218, 5.701e-6
-1.219, 5.704e-6
-1.220, 5.703e-6
-1.221, 5.704e-6
-1.222, 5.705e-6
-1.223, 5.705e-6
-1.224, 5.706e-6
-1.225, 5.706e-6
-1.226, 5.707e-6
-1.227, 5.709e-6
-1.228, 5.710e-6
-1.229, 5.715e-6
-1.230, 5.715e-6
-1.231, 5.715e-6
-1.232, 5.716e-6
-1.233, 5.718e-6
-1.234, 5.720e-6
-1.235, 5.719e-6
-1.236, 5.720e-6
-1.237, 5.721e-6
-1.238, 5.723e-6
-1.239, 5.724e-6
-1.240, 5.725e-6
-1.241, 5.727e-6
-1.242, 5.728e-6
-1.243, 5.729e-6
-1.244, 5.731e-6
-1.245, 5.731e-6
-1.246, 5.732e-6
-1.247, 5.734e-6
-1.248, 5.735e-6
-1.249, 5.738e-6
-1.250, 5.738e-6
-1.251, 5.738e-6
-1.252, 5.740e-6
-1.253, 5.741e-6
-1.254, 5.744e-6
-1.255, 5.745e-6
-1.256, 5.746e-6
-1.257, 5.747e-6
-1.258, 5.749e-6
-1.259, 5.750e-6
-1.260, 5.751e-6
-1.261, 5.753e-6
-1.262, 5.754e-6
-1.263, 5.756e-6
-1.264, 5.759e-6
-1.265, 5.760e-6
-1.266, 5.760e-6
-1.267, 5.762e-6
-1.268, 5.765e-6
-1.269, 5.766e-6
-1.270, 5.768e-6
-1.271, 5.767e-6
-1.272, 5.770e-6
-1.273, 5.772e-6
-1.274, 5.774e-6
-1.275, 5.775e-6
-1.276, 5.776e-6
-1.277, 5.778e-6
-1.278, 5.781e-6
-1.279, 5.782e-6
-1.280, 5.785e-6
-1.281, 5.787e-6
-1.282, 5.787e-6
-1.283, 5.790e-6
-1.284, 5.792e-6
-1.285, 5.793e-6
-1.286, 5.795e-6
-1.287, 5.797e-6
-1.288, 5.799e-6
-1.289, 5.802e-6
-1.290, 5.802e-6
-1.291, 5.805e-6
-1.292, 5.807e-6
-1.293, 5.808e-6
-1.294, 5.811e-6
-1.295, 5.812e-6
-1.296, 5.815e-6
-1.297, 5.816e-6
-1.298, 5.818e-6
-1.299, 5.821e-6
-1.300, 5.824e-6
-1.301, 5.824e-6
-1.302, 5.828e-6
-1.303, 5.829e-6
-1.304, 5.833e-6
-1.305, 5.833e-6
-1.306, 5.836e-6
-1.307, 5.839e-6
-1.308, 5.841e-6
-1.309, 5.844e-6
-1.310, 5.847e-6
-1.311, 5.849e-6
-1.312, 5.851e-6
-1.313, 5.853e-6
-1.314, 5.857e-6
-1.315, 5.859e-6
-1.316, 5.861e-6
-1.317, 5.862e-6
-1.318, 5.865e-6
-1.319, 5.868e-6
-1.320, 5.871e-6
-1.321, 5.872e-6
-1.322, 5.874e-6
-1.323, 5.878e-6
-1.324, 5.882e-6
-1.325, 5.883e-6
-1.326, 5.886e-6
-1.327, 5.888e-6
-1.328, 5.891e-6
-1.329, 5.894e-6
-1.330, 5.897e-6
-1.331, 5.899e-6
-1.332, 5.902e-6
-1.333, 5.903e-6
-1.334, 5.908e-6
-1.335, 5.910e-6
-1.336, 5.913e-6
-1.337, 5.915e-6
-1.338, 5.917e-6
-1.339, 5.921e-6
-1.340, 5.923e-6
-1.341, 5.924e-6
-1.342, 5.928e-6
-1.343, 5.931e-6
-1.344, 5.937e-6
-1.345, 5.939e-6
-1.346, 5.941e-6
-1.347, 5.945e-6
-1.348, 5.946e-6
-1.349, 5.950e-6
-1.350, 5.954e-6
-1.351, 5.957e-6
-1.352, 5.960e-6
-1.353, 5.963e-6
-1.354, 5.968e-6
-1.355, 5.971e-6
-1.356, 5.974e-6
-1.357, 5.978e-6
-1.358, 5.982e-6
-1.359, 5.985e-6
-1.360, 5.989e-6
-1.361, 5.992e-6
-1.362, 5.995e-6
-1.363, 5.999e-6
-1.364, 6.004e-6
-1.365, 6.008e-6
-1.366, 6.012e-6
-1.367, 6.015e-6
-1.368, 6.019e-6
-1.369, 6.025e-6
-1.370, 6.028e-6
-1.371, 6.031e-6
-1.372, 6.035e-6
-1.373, 6.039e-6
-1.374, 6.044e-6
-1.375, 6.047e-6
-1.376, 6.052e-6
-1.377, 6.056e-6
-1.378, 6.060e-6
-1.379, 6.065e-6
-1.380, 6.070e-6
-1.381, 6.073e-6
-1.382, 6.078e-6
-1.383, 6.085e-6
-1.384, 6.089e-6
-1.385, 6.094e-6
-1.386, 6.097e-6
-1.387, 6.102e-6
-1.388, 6.105e-6
-1.389, 6.113e-6
-1.390, 6.118e-6
-1.391, 6.121e-6
-1.392, 6.126e-6
-1.393, 6.130e-6
-1.394, 6.136e-6
-1.395, 6.143e-6
-1.396, 6.146e-6
-1.397, 6.151e-6
-1.398, 6.156e-6
-1.399, 6.162e-6
-1.400, 6.167e-6
-1.401, 6.172e-6
-1.402, 6.176e-6
-1.403, 6.181e-6
-1.404, 6.188e-6
-1.405, 6.192e-6
-1.406, 6.196e-6
-1.407, 6.201e-6
-1.408, 6.208e-6
-1.409, 6.214e-6
-1.410, 6.218e-6
-1.411, 6.224e-6
-1.412, 6.229e-6
-1.413, 6.235e-6
-1.414, 6.242e-6
-1.415, 6.247e-6
-1.416, 6.251e-6
-1.417, 6.258e-6
-1.418, 6.262e-6
-1.419, 6.270e-6
-1.420, 6.276e-6
-1.421, 6.281e-6
-1.422, 6.289e-6
-1.423, 6.294e-6
-1.424, 6.302e-6
-1.425, 6.308e-6
-1.426, 6.313e-6
-1.427, 6.320e-6
-1.428, 6.326e-6
-1.429, 6.334e-6
-1.430, 6.340e-6
-1.431, 6.345e-6
-1.432, 6.353e-6
-1.433, 6.361e-6
-1.434, 6.370e-6
-1.435, 6.376e-6
-1.436, 6.382e-6
-1.437, 6.388e-6
-1.438, 6.395e-6
-1.439, 6.403e-6
-1.440, 6.410e-6
-1.441, 6.418e-6
-1.442, 6.423e-6
-1.443, 6.429e-6
-1.444, 6.439e-6
-1.445, 6.445e-6
-1.446, 6.452e-6
-1.447, 6.459e-6
-1.448, 6.465e-6
-1.449, 6.474e-6
-1.450, 6.481e-6
-1.451, 6.488e-6
-1.452, 6.495e-6
-1.453, 6.503e-6
-1.454, 6.511e-6
-1.455, 6.517e-6
-1.456, 6.524e-6
-1.457, 6.533e-6
-1.458, 6.538e-6
-1.459, 6.549e-6
-1.460, 6.557e-6
-1.461, 6.563e-6
-1.462, 6.571e-6
-1.463, 6.578e-6
-1.464, 6.586e-6
-1.465, 6.594e-6
-1.466, 6.601e-6
-1.467, 6.609e-6
-1.468, 6.615e-6
-1.469, 6.625e-6
-1.470, 6.632e-6
-1.471, 6.639e-6
-1.472, 6.648e-6
-1.473, 6.655e-6
-1.474, 6.664e-6
-1.475, 6.672e-6
-1.476, 6.678e-6
-1.477, 6.685e-6
-1.478, 6.693e-6
-1.479, 6.701e-6
-1.480, 6.709e-6
-1.481, 6.715e-6
-1.482, 6.723e-6
-1.483, 6.730e-6
-1.484, 6.739e-6
-1.485, 6.748e-6
-1.486, 6.755e-6
-1.487, 6.761e-6
-1.488, 6.768e-6
-1.489, 6.777e-6
-1.490, 6.785e-6
-1.491, 6.793e-6
-1.492, 6.799e-6
-1.493, 6.806e-6
-1.494, 6.816e-6
-1.495, 6.822e-6
-1.496, 6.829e-6
-1.497, 6.837e-6
-1.498, 6.845e-6
-1.499, 6.853e-6
-1.500, 6.860e-6
-1.501, 6.867e-6
-1.502, 6.875e-6
-1.503, 6.881e-6
-1.504, 6.890e-6
-1.505, 6.897e-6
-1.506, 6.903e-6
-1.507, 6.910e-6
-1.508, 6.918e-6
-1.509, 6.927e-6
-1.510, 6.936e-6
-1.511, 6.942e-6
-1.512, 6.950e-6
-1.513, 6.957e-6
-1.514, 6.965e-6
-1.515, 6.973e-6
-1.516, 6.980e-6
-1.517, 6.989e-6
-1.518, 6.997e-6
-1.519, 7.006e-6
-1.520, 7.014e-6
-1.521, 7.021e-6
-1.522, 7.029e-6
-1.523, 7.038e-6
-1.524, 7.048e-6
-1.525, 7.055e-6
-1.526, 7.064e-6
-1.527, 7.073e-6
-1.528, 7.081e-6
-1.529, 7.092e-6
-1.530, 7.100e-6
-1.531, 7.108e-6
-1.532, 7.118e-6
-1.533, 7.125e-6
-1.534, 7.137e-6
-1.535, 7.146e-6
-1.536, 7.155e-6
-1.537, 7.167e-6
-1.538, 7.175e-6
-1.539, 7.187e-6
-1.540, 7.197e-6
-1.541, 7.206e-6
-1.542, 7.218e-6
-1.543, 7.226e-6
-1.544, 7.238e-6
-1.545, 7.248e-6
-1.546, 7.258e-6
-1.547, 7.269e-6
-1.548, 7.279e-6
-1.549, 7.292e-6
-1.550, 7.304e-6
-1.551, 7.314e-6
-1.552, 7.324e-6
-1.553, 7.337e-6
-1.554, 7.349e-6
-1.555, 7.363e-6
-1.556, 7.373e-6
-1.557, 7.384e-6
-1.558, 7.397e-6
-1.559, 7.412e-6
-1.560, 7.425e-6
-1.561, 7.439e-6
-1.562, 7.451e-6
-1.563, 7.465e-6
-1.564, 7.480e-6
-1.565, 7.494e-6
-1.566, 7.508e-6
-1.567, 7.521e-6
-1.568, 7.537e-6
-1.569, 7.553e-6
-1.570, 7.567e-6
-1.571, 7.582e-6
-1.572, 7.598e-6
-1.573, 7.612e-6
-1.574, 7.632e-6
-1.575, 7.648e-6
-1.576, 7.662e-6
-1.577, 7.679e-6
-1.578, 7.695e-6
-1.579, 7.715e-6
-1.580, 7.732e-6
-1.581, 7.748e-6
-1.582, 7.767e-6
-1.583, 7.782e-6
-1.584, 7.802e-6
-1.585, 7.822e-6
-1.586, 7.839e-6
-1.587, 7.859e-6
-1.588, 7.880e-6
-1.589, 7.899e-6
-1.590, 7.919e-6
-1.591, 7.938e-6
-1.592, 7.958e-6
-1.593, 7.979e-6
-1.594, 7.988e-6
-1.595, 7.985e-6
-1.596, 7.999e-6
-1.597, 8.014e-6
-1.598, 8.033e-6
-1.599, 8.054e-6
-1.600, 8.073e-6
-1.601, 8.094e-6
-1.602, 8.114e-6
-1.603, 8.135e-6
-1.604, 8.159e-6
-1.605, 8.182e-6
-1.606, 8.207e-6
-1.607, 8.228e-6
-1.608, 8.251e-6
-1.609, 8.278e-6
-1.610, 8.301e-6
-1.611, 8.326e-6
-1.612, 8.350e-6
-1.613, 8.374e-6
-1.614, 8.400e-6
-1.615, 8.425e-6
-1.616, 8.450e-6
-1.617, 8.477e-6
-1.618, 8.502e-6
-1.619, 8.532e-6
-1.620, 8.558e-6
-1.621, 8.584e-6
-1.622, 8.610e-6
-1.623, 8.637e-6
-1.624, 8.666e-6
-1.625, 8.699e-6
-1.626, 8.725e-6
-1.627, 8.755e-6
-1.628, 8.784e-6
-1.629, 8.817e-6
-1.630, 8.847e-6
-1.631, 8.876e-6
-1.632, 8.904e-6
-1.633, 8.937e-6
-1.634, 8.971e-6
-1.635, 9.004e-6
-1.636, 9.035e-6
-1.637, 9.068e-6
-1.638, 9.104e-6
-1.639, 9.146e-6
-1.640, 9.177e-6
-1.641, 9.211e-6
-1.642, 9.244e-6
-1.643, 9.282e-6
-1.644, 9.319e-6
-1.645, 9.357e-6
-1.646, 9.391e-6
-1.647, 9.427e-6
-1.648, 9.465e-6
-1.649, 9.507e-6
-1.650, 9.546e-6
-1.651, 9.587e-6
-1.652, 9.627e-6
-1.653, 9.663e-6
-1.654, 9.710e-6
-1.655, 9.750e-6
-1.656, 9.790e-6
-1.657, 9.833e-6
-1.658, 9.875e-6
-1.659, 9.920e-6
-1.660, 9.964e-6
-1.661, 1.001e-5
-1.662, 1.005e-5
-1.663, 1.009e-5
-1.664, 1.014e-5
-1.665, 1.019e-5
-1.666, 1.023e-5
-1.667, 1.028e-5
-1.668, 1.033e-5
-1.669, 1.038e-5
-1.670, 1.043e-5
-1.671, 1.047e-5
-1.672, 1.049e-5
-1.673, 1.052e-5
-1.674, 1.057e-5
-1.675, 1.062e-5
-1.676, 1.067e-5
-1.677, 1.072e-5
-1.678, 1.077e-5
-1.679, 1.083e-5
-1.680, 1.086e-5
-1.681, 1.090e-5
-1.682, 1.095e-5
-1.683, 1.100e-5
-1.684, 1.106e-5
-1.685, 1.113e-5
-1.686, 1.119e-5
-1.687, 1.125e-5
-1.688, 1.131e-5
-1.689, 1.137e-5
-1.690, 1.143e-5
-1.691, 1.148e-5
-1.692, 1.154e-5
-1.693, 1.160e-5
-1.694, 1.166e-5
-1.695, 1.173e-5
-1.696, 1.180e-5
-1.697, 1.186e-5
-1.698, 1.193e-5
-1.699, 1.200e-5
-1.700, 1.206e-5
-1.701, 1.212e-5
-1.702, 1.219e-5
-1.703, 1.228e-5
-1.704, 1.235e-5
-1.705, 1.242e-5
-1.706, 1.250e-5
-1.707, 1.257e-5
-1.708, 1.264e-5
-1.709, 1.273e-5
-1.710, 1.280e-5
-1.711, 1.288e-5
-1.712, 1.297e-5
-1.713, 1.305e-5
-1.714, 1.314e-5
-1.715, 1.326e-5
-1.716, 1.334e-5
-1.717, 1.342e-5
-1.718, 1.347e-5
-1.719, 1.353e-5
-1.720, 1.362e-5
-1.721, 1.369e-5
-1.722, 1.377e-5
-1.723, 1.385e-5
-1.724, 1.395e-5
-1.725, 1.403e-5
-1.726, 1.412e-5
-1.727, 1.422e-5
-1.728, 1.433e-5
-1.729, 1.443e-5
-1.730, 1.453e-5
-1.731, 1.462e-5
-1.732, 1.472e-5
-1.733, 1.483e-5
-1.734, 1.493e-5
-1.735, 1.503e-5
-1.736, 1.514e-5
-1.737, 1.524e-5
-1.738, 1.536e-5
-1.739, 1.548e-5
-1.740, 1.561e-5
-1.741, 1.571e-5
-1.742, 1.586e-5
-1.743, 1.601e-5
-1.744, 1.614e-5
-1.745, 1.626e-5
-1.746, 1.637e-5
-1.747, 1.650e-5
-1.748, 1.663e-5
-1.749, 1.676e-5
-1.750, 1.687e-5
-1.751, 1.700e-5
-1.752, 1.715e-5
-1.753, 1.730e-5
-1.754, 1.743e-5
-1.755, 1.757e-5
-1.756, 1.771e-5
-1.757, 1.783e-5
-1.758, 1.797e-5
-1.759, 1.811e-5
-1.760, 1.823e-5
-1.761, 1.834e-5
-1.762, 1.846e-5
-1.763, 1.860e-5
-1.764, 1.876e-5
-1.765, 1.895e-5
-1.766, 1.912e-5
-1.767, 1.927e-5
-1.768, 1.937e-5
-1.769, 1.954e-5
-1.770, 1.973e-5
-1.771, 1.989e-5
-1.772, 2.007e-5
-1.773, 2.024e-5
-1.774, 2.041e-5
-1.775, 2.054e-5
-1.776, 2.071e-5
-1.777, 2.087e-5
-1.778, 2.106e-5
-1.779, 2.128e-5
-1.780, 2.150e-5
-1.781, 2.170e-5
-1.782, 2.188e-5
-1.783, 2.208e-5
-1.784, 2.229e-5
-1.785, 2.251e-5
-1.786, 2.271e-5
-1.787, 2.288e-5
-1.788, 2.312e-5
-1.789, 2.336e-5
-1.790, 2.358e-5
-1.791, 2.381e-5
-1.792, 2.408e-5
-1.793, 2.432e-5
-1.794, 2.455e-5
-1.795, 2.481e-5
-1.796, 2.507e-5
-1.797, 2.533e-5
-1.798, 2.560e-5
-1.799, 2.586e-5
-1.800, 2.612e-5
-1.801, 2.640e-5
-1.802, 2.670e-5
-1.803, 2.701e-5
-1.804, 2.730e-5
-1.805, 2.759e-5
-1.806, 2.788e-5
-1.807, 2.817e-5
-1.808, 2.848e-5
-1.809, 2.880e-5
-1.810, 2.909e-5
-1.811, 2.945e-5
-1.812, 2.981e-5
-1.813, 3.015e-5
-1.814, 3.051e-5
-1.815, 3.084e-5
-1.816, 3.118e-5
-1.817, 3.157e-5
-1.818, 3.198e-5
-1.819, 3.234e-5
-1.820, 3.268e-5
-1.821, 3.299e-5
-1.822, 3.337e-5
-1.823, 3.382e-5
-1.824, 3.425e-5
-1.825, 3.461e-5
-1.826, 3.498e-5
-1.827, 3.536e-5
-1.828, 3.582e-5
-1.829, 3.622e-5
-1.830, 3.667e-5
-1.831, 3.699e-5
-1.832, 3.741e-5
-1.833, 3.797e-5
-1.834, 3.853e-5
-1.835, 3.902e-5
-1.836, 3.951e-5
-1.837, 4.003e-5
-1.838, 4.054e-5
-1.839, 4.103e-5
-1.840, 4.155e-5
-1.841, 4.207e-5
-1.842, 4.262e-5
-1.843, 4.318e-5
-1.844, 4.374e-5
-1.845, 4.426e-5
-1.846, 4.487e-5
-1.847, 4.550e-5
-1.848, 4.607e-5
-1.849, 4.671e-5
-1.850, 4.736e-5
-1.851, 4.798e-5
-1.852, 4.870e-5
-1.853, 4.938e-5
-1.854, 5.002e-5
-1.855, 5.068e-5
-1.856, 5.129e-5
-1.857, 5.200e-5
-1.858, 5.275e-5
-1.859, 5.360e-5
-1.860, 5.437e-5
-1.861, 5.511e-5
-1.862, 5.592e-5
-1.863, 5.670e-5
-1.864, 5.750e-5
-1.865, 5.831e-5
-1.866, 5.914e-5
-1.867, 5.996e-5
-1.868, 6.081e-5
-1.869, 6.167e-5
-1.870, 6.270e-5
-1.871, 6.365e-5
-1.872, 6.457e-5
-1.873, 6.550e-5
-1.874, 6.645e-5
-1.875, 6.740e-5
-1.876, 6.827e-5
-1.877, 6.918e-5
-1.878, 7.030e-5
-1.879, 7.140e-5
-1.880, 7.247e-5
-1.881, 7.353e-5
-1.882, 7.461e-5
-1.883, 7.572e-5
-1.884, 7.681e-5
-1.885, 7.799e-5
-1.886, 7.917e-5
-1.887, 8.037e-5
-1.888, 8.170e-5
-1.889, 8.298e-5
-1.890, 8.430e-5
-1.891, 8.555e-5
-1.892, 8.682e-5
-1.893, 8.823e-5
-1.894, 8.955e-5
-1.895, 9.101e-5
-1.896, 9.246e-5
-1.897, 9.391e-5
-1.898, 9.541e-5
-1.899, 9.689e-5
-1.900, 9.845e-5
-1.901, 1.001e-4
-1.902, 1.016e-4
-1.903, 1.031e-4
-1.904, 1.048e-4
-1.905, 1.065e-4
-1.906, 1.082e-4
-1.907, 1.099e-4
-1.908, 1.116e-4
-1.909, 1.135e-4
-1.910, 1.154e-4
-1.911, 1.172e-4
-1.912, 1.190e-4
-1.913, 1.208e-4
-1.914, 1.228e-4
-1.915, 1.247e-4
-1.916, 1.266e-4
-1.917, 1.285e-4
-1.918, 1.307e-4
-1.919, 1.328e-4
-1.920, 1.349e-4
-1.921, 1.371e-4
-1.922, 1.392e-4
-1.923, 1.413e-4
-1.924, 1.435e-4
-1.925, 1.460e-4
-1.926, 1.482e-4
-1.927, 1.504e-4
-1.928, 1.527e-4
-1.929, 1.552e-4
-1.930, 1.576e-4
-1.931, 1.600e-4
-1.932, 1.626e-4
-1.933, 1.652e-4
-1.934, 1.677e-4
-1.935, 1.703e-4
-1.936, 1.729e-4
-1.937, 1.756e-4
-1.938, 1.782e-4
-1.939, 1.810e-4
-1.940, 1.838e-4
-1.941, 1.868e-4
-1.942, 1.897e-4
-1.943, 1.925e-4
-1.944, 1.953e-4
-1.945, 1.984e-4
-1.946, 2.015e-4
-1.947, 2.043e-4
-1.948, 2.072e-4
-1.949, 2.103e-4
-1.950, 2.133e-4
-1.951, 2.165e-4
-1.952, 2.197e-4
-1.953, 2.227e-4
-1.954, 2.259e-4
-1.955, 2.292e-4
-1.956, 2.324e-4
-1.957, 2.357e-4
-1.958, 2.391e-4
-1.959, 2.424e-4
-1.960, 2.455e-4
-1.961, 2.489e-4
-1.962, 2.522e-4
-1.963, 2.555e-4
-1.964, 2.588e-4
-1.965, 2.620e-4
-1.966, 2.650e-4
-1.967, 2.682e-4
-1.968, 2.714e-4
-1.969, 2.743e-4
-1.970, 2.772e-4
-1.971, 2.803e-4
-1.972, 2.833e-4
-1.973, 2.861e-4
-1.974, 2.889e-4
-1.975, 2.919e-4
-1.976, 2.948e-4
-1.977, 2.976e-4
-1.978, 3.006e-4
-1.979, 3.037e-4
-1.980, 3.067e-4
-1.981, 3.098e-4
-1.982, 3.130e-4
-1.983, 3.160e-4
-1.984, 3.191e-4
-1.985, 3.222e-4
-1.986, 3.255e-4
-1.987, 3.287e-4
-1.988, 3.319e-4
-1.989, 3.350e-4
-1.990, 3.381e-4
-1.991, 3.413e-4
-1.992, 3.445e-4
-1.993, 3.479e-4
-1.994, 3.515e-4
-1.995, 3.552e-4
-1.996, 3.585e-4
-1.997, 3.620e-4
-1.998, 3.659e-4
-1.999, 3.697e-4
-2.000, 3.733e-4
-2.001, 3.770e-4
-2.002, 3.807e-4
-2.003, 3.844e-4
-2.004, 3.882e-4
-2.005, 3.922e-4
-2.006, 3.961e-4
-2.007, 4.001e-4
-2.008, 4.040e-4
-2.009, 4.079e-4
-2.010, 4.117e-4
-2.011, 4.157e-4
-2.012, 4.197e-4
-2.013, 4.236e-4
-2.014, 4.276e-4
-2.015, 4.318e-4
-2.016, 4.361e-4
-2.017, 4.401e-4
-2.018, 4.442e-4
-2.019, 4.484e-4
-2.020, 4.526e-4
-2.021, 4.571e-4
-2.022, 4.615e-4
-2.023, 4.658e-4
-2.024, 4.702e-4
-2.025, 4.745e-4
-2.026, 4.787e-4
-2.027, 4.829e-4
-2.028, 4.875e-4
-2.029, 4.918e-4
-2.030, 4.964e-4
-2.031, 5.008e-4
-2.032, 5.053e-4
-2.033, 5.100e-4
-2.034, 5.148e-4
-2.035, 5.195e-4
-2.036, 5.242e-4
-2.037, 5.289e-4
-2.038, 5.336e-4
-2.039, 5.385e-4
-2.040, 5.435e-4
-2.041, 5.481e-4
-2.042, 5.528e-4
-2.043, 5.578e-4
-2.044, 5.625e-4
-2.045, 5.674e-4
-2.046, 5.723e-4
-2.047, 5.775e-4
-2.048, 5.827e-4
-2.049, 5.879e-4
-2.050, 5.929e-4
-2.051, 5.980e-4
-2.052, 6.032e-4
-2.053, 6.083e-4
-2.054, 6.136e-4
-2.055, 6.190e-4
-2.056, 6.245e-4
-2.057, 6.298e-4
-2.058, 6.349e-4
-2.059, 6.402e-4
-2.060, 6.455e-4
-2.061, 6.509e-4
-2.062, 6.560e-4
-2.063, 6.612e-4
-2.064, 6.665e-4
-2.065, 6.719e-4
-2.066, 6.775e-4
-2.067, 6.832e-4
-2.068, 6.885e-4
-2.069, 6.940e-4
-2.070, 6.995e-4
-2.071, 7.050e-4
-2.072, 7.106e-4
-2.073, 7.163e-4
-2.074, 7.220e-4
-2.075, 7.277e-4
-2.076, 7.332e-4
-2.077, 7.386e-4
-2.078, 7.442e-4
-2.079, 7.500e-4
-2.080, 7.562e-4
-2.081, 7.622e-4
-2.082, 7.678e-4
-2.083, 7.736e-4
-2.084, 7.794e-4
-2.085, 7.853e-4
-2.086, 7.911e-4
-2.087, 7.970e-4
-2.088, 8.029e-4
-2.089, 8.088e-4
-2.090, 8.145e-4
-2.091, 8.208e-4
-2.092, 8.270e-4
-2.093, 8.329e-4
-2.094, 8.388e-4
-2.095, 8.450e-4
-2.096, 8.510e-4
-2.097, 8.572e-4
-2.098, 8.634e-4
-2.099, 8.697e-4
-2.100, 8.756e-4
-2.101, 8.817e-4
-2.102, 8.878e-4
-2.103, 8.941e-4
-2.104, 9.005e-4
-2.105, 9.071e-4
-2.106, 9.136e-4
-2.107, 9.197e-4
-2.108, 9.259e-4
-2.109, 9.323e-4
-2.110, 9.387e-4
-2.111, 9.452e-4
-2.112, 9.517e-4
-2.113, 9.581e-4
-2.114, 9.646e-4
-2.115, 9.709e-4
-2.116, 9.774e-4
-2.117, 9.841e-4
-2.118, 9.909e-4
-2.119, 9.978e-4
-2.120, 1.004e-3
-2.121, 1.010e-3
-2.122, 1.011e-3
-2.123, 1.011e-3
-2.124, 1.011e-3
-2.125, 1.011e-3
-2.126, 1.011e-3
-2.127, 1.011e-3
-2.128, 1.011e-3
-2.129, 1.011e-3
-2.130, 1.011e-3
-2.131, 1.011e-3
-2.132, 1.011e-3
-2.133, 1.011e-3
-2.134, 1.011e-3
-2.135, 1.011e-3
-2.136, 1.011e-3
-2.137, 1.011e-3
-2.138, 1.011e-3
-2.139, 1.011e-3
-2.140, 1.011e-3
-2.141, 1.011e-3
-2.142, 1.011e-3
-2.143, 1.011e-3
-2.144, 1.011e-3
-2.145, 1.011e-3
-2.146, 1.011e-3
-2.147, 1.011e-3
-2.148, 1.011e-3
-2.149, 1.011e-3
-2.150, 1.011e-3
-2.151, 1.011e-3
-2.152, 1.011e-3
-2.153, 1.011e-3
-2.154, 1.011e-3
-2.155, 1.011e-3
-2.156, 1.011e-3
-2.157, 1.011e-3
-2.158, 1.011e-3
-2.159, 1.011e-3
-2.160, 1.011e-3
-2.161, 1.011e-3
-2.162, 1.011e-3
-2.163, 1.011e-3
-2.164, 1.011e-3
-2.165, 1.011e-3
-2.166, 1.011e-3
-2.167, 1.011e-3
-2.168, 1.011e-3
-2.169, 1.011e-3
-2.170, 1.011e-3
-2.171, 1.011e-3
-2.172, 1.011e-3
-2.173, 1.011e-3
-2.174, 1.011e-3
-2.175, 1.011e-3
-2.176, 1.011e-3
-2.177, 1.011e-3
-2.178, 1.011e-3
-2.179, 1.011e-3
-2.180, 1.011e-3
-2.181, 1.011e-3
-2.182, 1.011e-3
-2.183, 1.011e-3
-2.184, 1.011e-3
-2.185, 1.011e-3
-2.186, 1.011e-3
-2.187, 1.011e-3
-2.188, 1.011e-3
-2.189, 1.011e-3
-2.190, 1.011e-3
-2.191, 1.011e-3
-2.192, 1.011e-3
-2.193, 1.011e-3
-2.194, 1.011e-3
-2.195, 1.011e-3
-2.196, 1.011e-3
-2.197, 1.011e-3
-2.198, 1.011e-3
-2.199, 1.011e-3
-2.200, 1.011e-3
-2.201, 1.011e-3
-2.202, 1.011e-3
-2.203, 1.011e-3
-2.204, 1.011e-3
-2.205, 1.011e-3
-2.206, 1.011e-3
-2.207, 1.011e-3
-2.208, 1.011e-3
-2.209, 1.011e-3
-2.210, 1.011e-3
-2.211, 1.011e-3
-2.212, 1.011e-3
-2.213, 1.011e-3
-2.214, 1.011e-3
-2.215, 1.011e-3
-2.216, 1.011e-3
-2.217, 1.011e-3
-2.218, 1.011e-3
-2.219, 1.011e-3
-2.220, 1.011e-3
-2.221, 1.011e-3
-2.222, 1.011e-3
-2.223, 1.011e-3
-2.224, 1.011e-3
-2.225, 1.011e-3
-2.226, 1.011e-3
-2.227, 1.011e-3
-2.228, 1.011e-3
-2.229, 1.011e-3
-2.230, 1.011e-3
-2.231, 1.011e-3
-2.232, 1.011e-3
-2.233, 1.011e-3
-2.234, 1.011e-3
-2.235, 1.011e-3
-2.236, 1.011e-3
-2.237, 1.011e-3
-2.238, 1.011e-3
-2.239, 1.011e-3
-2.240, 1.011e-3
-2.241, 1.011e-3
-2.242, 1.011e-3
-2.243, 1.011e-3
-2.244, 1.011e-3
-2.245, 1.011e-3
-2.246, 1.011e-3
-2.247, 1.011e-3
-2.248, 1.011e-3
-2.249, 1.011e-3
-2.250, 1.011e-3
-2.251, 1.011e-3
-2.252, 1.011e-3
-2.253, 1.011e-3
-2.254, 1.011e-3
-2.255, 1.011e-3
-2.256, 1.011e-3
-2.257, 1.011e-3
-2.258, 1.011e-3
-2.259, 1.011e-3
-2.260, 1.011e-3
-2.261, 1.011e-3
-2.262, 1.011e-3
-2.263, 1.011e-3
-2.264, 1.011e-3
-2.265, 1.011e-3
-2.266, 1.011e-3
-2.267, 1.011e-3
-2.268, 1.011e-3
-2.269, 1.011e-3
-2.270, 1.011e-3
-2.271, 1.011e-3
-2.272, 1.011e-3
-2.273, 1.011e-3
-2.274, 1.011e-3
-2.275, 1.011e-3
-2.276, 1.011e-3
-2.277, 1.011e-3
-2.278, 1.011e-3
-2.279, 1.011e-3
-2.280, 1.011e-3
-2.281, 1.011e-3
-2.282, 1.011e-3
-2.283, 1.011e-3
-2.284, 1.011e-3
-2.285, 1.011e-3
-2.286, 1.011e-3
-2.287, 1.011e-3
-2.288, 1.011e-3
-2.289, 1.011e-3
-2.290, 1.011e-3
-2.291, 1.011e-3
-2.292, 1.011e-3
-2.293, 1.011e-3
-2.294, 1.011e-3
-2.295, 1.011e-3
-2.296, 1.011e-3
-2.297, 1.011e-3
-2.298, 1.011e-3
-2.299, 1.011e-3
