Aug. 24, 2024   12:59:55
Linear Sweep Voltammetry
File: c:/users/guazh/data/20240813_batch_94_500/2024-08-15-exp178\1acid_3ac-2024-08-24t12_56_43-lsvinphos\1acid_3ac_lsv_50mvs_efin_-2300mv.bin
Data Source:  Experiment
Instrument Model:  CHI760E
Header: LSV ran at 50 mVs with Efin at -2300mV
Note: 

Init E (V) = -0.6
Final E (V) = -2.3
Scan Rate (V/s) = 0.05
Sample Interval (V) = 0.001
Quiet Time (sec) = 2
Sensitivity (A/V) = 1e-4
Comp R (ohm) = 9.8

Results:

Channel 1:
Ep = -1.905V
ip = 5.921e-4A
Ah = 7.855e-4C

Potential/V, Current/A

-0.600, 1.761e-5
-0.601, 1.801e-5
-0.602, 1.817e-5
-0.603, 1.828e-5
-0.604, 1.836e-5
-0.605, 1.839e-5
-0.606, 1.840e-5
-0.607, 1.841e-5
-0.608, 1.840e-5
-0.609, 1.839e-5
-0.610, 1.840e-5
-0.611, 1.841e-5
-0.612, 1.840e-5
-0.613, 1.840e-5
-0.614, 1.840e-5
-0.615, 1.840e-5
-0.616, 1.839e-5
-0.617, 1.838e-5
-0.618, 1.842e-5
-0.619, 1.886e-5
-0.620, 1.895e-5
-0.621, 1.877e-5
-0.622, 1.837e-5
-0.623, 1.831e-5
-0.624, 1.829e-5
-0.625, 1.830e-5
-0.626, 1.832e-5
-0.627, 1.832e-5
-0.628, 1.834e-5
-0.629, 1.823e-5
-0.630, 1.822e-5
-0.631, 1.820e-5
-0.632, 1.820e-5
-0.633, 1.819e-5
-0.634, 1.819e-5
-0.635, 1.818e-5
-0.636, 1.816e-5
-0.637, 1.816e-5
-0.638, 1.813e-5
-0.639, 1.813e-5
-0.640, 1.812e-5
-0.641, 1.812e-5
-0.642, 1.811e-5
-0.643, 1.809e-5
-0.644, 1.810e-5
-0.645, 1.822e-5
-0.646, 1.821e-5
-0.647, 1.820e-5
-0.648, 1.821e-5
-0.649, 1.819e-5
-0.650, 1.816e-5
-0.651, 1.814e-5
-0.652, 1.813e-5
-0.653, 1.810e-5
-0.654, 1.813e-5
-0.655, 1.811e-5
-0.656, 1.809e-5
-0.657, 1.805e-5
-0.658, 1.802e-5
-0.659, 1.802e-5
-0.660, 1.800e-5
-0.661, 1.797e-5
-0.662, 1.797e-5
-0.663, 1.794e-5
-0.664, 1.792e-5
-0.665, 1.790e-5
-0.666, 1.789e-5
-0.667, 1.786e-5
-0.668, 1.783e-5
-0.669, 1.784e-5
-0.670, 1.782e-5
-0.671, 1.780e-5
-0.672, 1.783e-5
-0.673, 1.786e-5
-0.674, 1.784e-5
-0.675, 1.782e-5
-0.676, 1.780e-5
-0.677, 1.779e-5
-0.678, 1.775e-5
-0.679, 1.773e-5
-0.680, 1.775e-5
-0.681, 1.774e-5
-0.682, 1.772e-5
-0.683, 1.772e-5
-0.684, 1.770e-5
-0.685, 1.768e-5
-0.686, 1.770e-5
-0.687, 1.776e-5
-0.688, 1.772e-5
-0.689, 1.751e-5
-0.690, 1.742e-5
-0.691, 1.743e-5
-0.692, 1.752e-5
-0.693, 1.754e-5
-0.694, 1.752e-5
-0.695, 1.751e-5
-0.696, 1.750e-5
-0.697, 1.746e-5
-0.698, 1.742e-5
-0.699, 1.738e-5
-0.700, 1.738e-5
-0.701, 1.735e-5
-0.702, 1.728e-5
-0.703, 1.726e-5
-0.704, 1.723e-5
-0.705, 1.720e-5
-0.706, 1.718e-5
-0.707, 1.715e-5
-0.708, 1.712e-5
-0.709, 1.710e-5
-0.710, 1.708e-5
-0.711, 1.705e-5
-0.712, 1.702e-5
-0.713, 1.700e-5
-0.714, 1.697e-5
-0.715, 1.694e-5
-0.716, 1.692e-5
-0.717, 1.690e-5
-0.718, 1.688e-5
-0.719, 1.685e-5
-0.720, 1.683e-5
-0.721, 1.682e-5
-0.722, 1.680e-5
-0.723, 1.677e-5
-0.724, 1.675e-5
-0.725, 1.672e-5
-0.726, 1.671e-5
-0.727, 1.668e-5
-0.728, 1.665e-5
-0.729, 1.663e-5
-0.730, 1.660e-5
-0.731, 1.659e-5
-0.732, 1.657e-5
-0.733, 1.654e-5
-0.734, 1.653e-5
-0.735, 1.651e-5
-0.736, 1.648e-5
-0.737, 1.647e-5
-0.738, 1.644e-5
-0.739, 1.641e-5
-0.740, 1.639e-5
-0.741, 1.637e-5
-0.742, 1.635e-5
-0.743, 1.632e-5
-0.744, 1.629e-5
-0.745, 1.627e-5
-0.746, 1.625e-5
-0.747, 1.624e-5
-0.748, 1.621e-5
-0.749, 1.618e-5
-0.750, 1.616e-5
-0.751, 1.614e-5
-0.752, 1.612e-5
-0.753, 1.610e-5
-0.754, 1.608e-5
-0.755, 1.605e-5
-0.756, 1.604e-5
-0.757, 1.602e-5
-0.758, 1.600e-5
-0.759, 1.597e-5
-0.760, 1.595e-5
-0.761, 1.593e-5
-0.762, 1.591e-5
-0.763, 1.589e-5
-0.764, 1.587e-5
-0.765, 1.585e-5
-0.766, 1.583e-5
-0.767, 1.581e-5
-0.768, 1.579e-5
-0.769, 1.578e-5
-0.770, 1.576e-5
-0.771, 1.574e-5
-0.772, 1.572e-5
-0.773, 1.570e-5
-0.774, 1.568e-5
-0.775, 1.566e-5
-0.776, 1.565e-5
-0.777, 1.563e-5
-0.778, 1.561e-5
-0.779, 1.559e-5
-0.780, 1.557e-5
-0.781, 1.555e-5
-0.782, 1.553e-5
-0.783, 1.551e-5
-0.784, 1.550e-5
-0.785, 1.548e-5
-0.786, 1.546e-5
-0.787, 1.545e-5
-0.788, 1.543e-5
-0.789, 1.541e-5
-0.790, 1.539e-5
-0.791, 1.537e-5
-0.792, 1.535e-5
-0.793, 1.534e-5
-0.794, 1.532e-5
-0.795, 1.530e-5
-0.796, 1.529e-5
-0.797, 1.528e-5
-0.798, 1.526e-5
-0.799, 1.524e-5
-0.800, 1.524e-5
-0.801, 1.522e-5
-0.802, 1.520e-5
-0.803, 1.518e-5
-0.804, 1.516e-5
-0.805, 1.515e-5
-0.806, 1.513e-5
-0.807, 1.512e-5
-0.808, 1.510e-5
-0.809, 1.509e-5
-0.810, 1.507e-5
-0.811, 1.506e-5
-0.812, 1.505e-5
-0.813, 1.503e-5
-0.814, 1.502e-5
-0.815, 1.500e-5
-0.816, 1.499e-5
-0.817, 1.498e-5
-0.818, 1.497e-5
-0.819, 1.496e-5
-0.820, 1.496e-5
-0.821, 1.494e-5
-0.822, 1.493e-5
-0.823, 1.491e-5
-0.824, 1.490e-5
-0.825, 1.491e-5
-0.826, 1.490e-5
-0.827, 1.488e-5
-0.828, 1.487e-5
-0.829, 1.486e-5
-0.830, 1.486e-5
-0.831, 1.484e-5
-0.832, 1.484e-5
-0.833, 1.483e-5
-0.834, 1.482e-5
-0.835, 1.483e-5
-0.836, 1.482e-5
-0.837, 1.481e-5
-0.838, 1.480e-5
-0.839, 1.480e-5
-0.840, 1.479e-5
-0.841, 1.479e-5
-0.842, 1.478e-5
-0.843, 1.477e-5
-0.844, 1.477e-5
-0.845, 1.476e-5
-0.846, 1.476e-5
-0.847, 1.476e-5
-0.848, 1.475e-5
-0.849, 1.474e-5
-0.850, 1.473e-5
-0.851, 1.473e-5
-0.852, 1.472e-5
-0.853, 1.471e-5
-0.854, 1.472e-5
-0.855, 1.472e-5
-0.856, 1.475e-5
-0.857, 1.474e-5
-0.858, 1.473e-5
-0.859, 1.471e-5
-0.860, 1.470e-5
-0.861, 1.469e-5
-0.862, 1.470e-5
-0.863, 1.469e-5
-0.864, 1.469e-5
-0.865, 1.469e-5
-0.866, 1.468e-5
-0.867, 1.467e-5
-0.868, 1.467e-5
-0.869, 1.468e-5
-0.870, 1.468e-5
-0.871, 1.467e-5
-0.872, 1.467e-5
-0.873, 1.467e-5
-0.874, 1.467e-5
-0.875, 1.467e-5
-0.876, 1.467e-5
-0.877, 1.467e-5
-0.878, 1.468e-5
-0.879, 1.467e-5
-0.880, 1.468e-5
-0.881, 1.469e-5
-0.882, 1.469e-5
-0.883, 1.469e-5
-0.884, 1.469e-5
-0.885, 1.469e-5
-0.886, 1.470e-5
-0.887, 1.470e-5
-0.888, 1.470e-5
-0.889, 1.470e-5
-0.890, 1.469e-5
-0.891, 1.470e-5
-0.892, 1.471e-5
-0.893, 1.470e-5
-0.894, 1.471e-5
-0.895, 1.472e-5
-0.896, 1.473e-5
-0.897, 1.473e-5
-0.898, 1.473e-5
-0.899, 1.473e-5
-0.900, 1.474e-5
-0.901, 1.474e-5
-0.902, 1.475e-5
-0.903, 1.475e-5
-0.904, 1.477e-5
-0.905, 1.478e-5
-0.906, 1.478e-5
-0.907, 1.479e-5
-0.908, 1.478e-5
-0.909, 1.479e-5
-0.910, 1.480e-5
-0.911, 1.481e-5
-0.912, 1.482e-5
-0.913, 1.482e-5
-0.914, 1.483e-5
-0.915, 1.484e-5
-0.916, 1.484e-5
-0.917, 1.486e-5
-0.918, 1.488e-5
-0.919, 1.489e-5
-0.920, 1.490e-5
-0.921, 1.491e-5
-0.922, 1.493e-5
-0.923, 1.494e-5
-0.924, 1.495e-5
-0.925, 1.497e-5
-0.926, 1.499e-5
-0.927, 1.500e-5
-0.928, 1.502e-5
-0.929, 1.505e-5
-0.930, 1.507e-5
-0.931, 1.510e-5
-0.932, 1.512e-5
-0.933, 1.515e-5
-0.934, 1.516e-5
-0.935, 1.519e-5
-0.936, 1.522e-5
-0.937, 1.523e-5
-0.938, 1.525e-5
-0.939, 1.528e-5
-0.940, 1.531e-5
-0.941, 1.534e-5
-0.942, 1.537e-5
-0.943, 1.540e-5
-0.944, 1.543e-5
-0.945, 1.545e-5
-0.946, 1.549e-5
-0.947, 1.553e-5
-0.948, 1.555e-5
-0.949, 1.558e-5
-0.950, 1.563e-5
-0.951, 1.567e-5
-0.952, 1.571e-5
-0.953, 1.575e-5
-0.954, 1.579e-5
-0.955, 1.582e-5
-0.956, 1.586e-5
-0.957, 1.589e-5
-0.958, 1.593e-5
-0.959, 1.597e-5
-0.960, 1.602e-5
-0.961, 1.606e-5
-0.962, 1.609e-5
-0.963, 1.614e-5
-0.964, 1.619e-5
-0.965, 1.622e-5
-0.966, 1.627e-5
-0.967, 1.631e-5
-0.968, 1.636e-5
-0.969, 1.641e-5
-0.970, 1.646e-5
-0.971, 1.651e-5
-0.972, 1.655e-5
-0.973, 1.660e-5
-0.974, 1.665e-5
-0.975, 1.670e-5
-0.976, 1.674e-5
-0.977, 1.679e-5
-0.978, 1.686e-5
-0.979, 1.692e-5
-0.980, 1.696e-5
-0.981, 1.701e-5
-0.982, 1.706e-5
-0.983, 1.711e-5
-0.984, 1.716e-5
-0.985, 1.722e-5
-0.986, 1.728e-5
-0.987, 1.733e-5
-0.988, 1.738e-5
-0.989, 1.743e-5
-0.990, 1.748e-5
-0.991, 1.754e-5
-0.992, 1.760e-5
-0.993, 1.766e-5
-0.994, 1.771e-5
-0.995, 1.777e-5
-0.996, 1.783e-5
-0.997, 1.788e-5
-0.998, 1.794e-5
-0.999, 1.799e-5
-1.000, 1.805e-5
-1.001, 1.811e-5
-1.002, 1.818e-5
-1.003, 1.825e-5
-1.004, 1.831e-5
-1.005, 1.839e-5
-1.006, 1.845e-5
-1.007, 1.851e-5
-1.008, 1.857e-5
-1.009, 1.864e-5
-1.010, 1.871e-5
-1.011, 1.878e-5
-1.012, 1.886e-5
-1.013, 1.893e-5
-1.014, 1.900e-5
-1.015, 1.907e-5
-1.016, 1.914e-5
-1.017, 1.921e-5
-1.018, 1.927e-5
-1.019, 1.934e-5
-1.020, 1.942e-5
-1.021, 1.949e-5
-1.022, 1.955e-5
-1.023, 1.961e-5
-1.024, 1.971e-5
-1.025, 1.979e-5
-1.026, 1.987e-5
-1.027, 1.995e-5
-1.028, 2.002e-5
-1.029, 2.010e-5
-1.030, 2.019e-5
-1.031, 2.027e-5
-1.032, 2.035e-5
-1.033, 2.044e-5
-1.034, 2.052e-5
-1.035, 2.061e-5
-1.036, 2.070e-5
-1.037, 2.080e-5
-1.038, 2.090e-5
-1.039, 2.100e-5
-1.040, 2.110e-5
-1.041, 2.120e-5
-1.042, 2.130e-5
-1.043, 2.140e-5
-1.044, 2.151e-5
-1.045, 2.161e-5
-1.046, 2.172e-5
-1.047, 2.182e-5
-1.048, 2.193e-5
-1.049, 2.204e-5
-1.050, 2.216e-5
-1.051, 2.228e-5
-1.052, 2.240e-5
-1.053, 2.251e-5
-1.054, 2.263e-5
-1.055, 2.275e-5
-1.056, 2.287e-5
-1.057, 2.299e-5
-1.058, 2.313e-5
-1.059, 2.328e-5
-1.060, 2.339e-5
-1.061, 2.352e-5
-1.062, 2.366e-5
-1.063, 2.381e-5
-1.064, 2.394e-5
-1.065, 2.409e-5
-1.066, 2.425e-5
-1.067, 2.439e-5
-1.068, 2.455e-5
-1.069, 2.469e-5
-1.070, 2.484e-5
-1.071, 2.499e-5
-1.072, 2.515e-5
-1.073, 2.532e-5
-1.074, 2.549e-5
-1.075, 2.566e-5
-1.076, 2.584e-5
-1.077, 2.600e-5
-1.078, 2.616e-5
-1.079, 2.632e-5
-1.080, 2.650e-5
-1.081, 2.669e-5
-1.082, 2.688e-5
-1.083, 2.708e-5
-1.084, 2.726e-5
-1.085, 2.744e-5
-1.086, 2.763e-5
-1.087, 2.784e-5
-1.088, 2.804e-5
-1.089, 2.826e-5
-1.090, 2.846e-5
-1.091, 2.867e-5
-1.092, 2.889e-5
-1.093, 2.911e-5
-1.094, 2.932e-5
-1.095, 2.954e-5
-1.096, 2.977e-5
-1.097, 3.001e-5
-1.098, 3.024e-5
-1.099, 3.047e-5
-1.100, 3.071e-5
-1.101, 3.095e-5
-1.102, 3.121e-5
-1.103, 3.146e-5
-1.104, 3.171e-5
-1.105, 3.197e-5
-1.106, 3.222e-5
-1.107, 3.250e-5
-1.108, 3.278e-5
-1.109, 3.305e-5
-1.110, 3.332e-5
-1.111, 3.360e-5
-1.112, 3.388e-5
-1.113, 3.417e-5
-1.114, 3.446e-5
-1.115, 3.475e-5
-1.116, 3.504e-5
-1.117, 3.535e-5
-1.118, 3.566e-5
-1.119, 3.595e-5
-1.120, 3.624e-5
-1.121, 3.655e-5
-1.122, 3.685e-5
-1.123, 3.715e-5
-1.124, 3.746e-5
-1.125, 3.778e-5
-1.126, 3.810e-5
-1.127, 3.841e-5
-1.128, 3.870e-5
-1.129, 3.903e-5
-1.130, 3.937e-5
-1.131, 3.971e-5
-1.132, 4.002e-5
-1.133, 4.033e-5
-1.134, 4.066e-5
-1.135, 4.099e-5
-1.136, 4.133e-5
-1.137, 4.167e-5
-1.138, 4.200e-5
-1.139, 4.235e-5
-1.140, 4.272e-5
-1.141, 4.306e-5
-1.142, 4.336e-5
-1.143, 4.369e-5
-1.144, 4.403e-5
-1.145, 4.436e-5
-1.146, 4.471e-5
-1.147, 4.506e-5
-1.148, 4.537e-5
-1.149, 4.571e-5
-1.150, 4.603e-5
-1.151, 4.636e-5
-1.152, 4.669e-5
-1.153, 4.700e-5
-1.154, 4.732e-5
-1.155, 4.765e-5
-1.156, 4.800e-5
-1.157, 4.831e-5
-1.158, 4.862e-5
-1.159, 4.892e-5
-1.160, 4.926e-5
-1.161, 4.961e-5
-1.162, 4.994e-5
-1.163, 5.024e-5
-1.164, 5.052e-5
-1.165, 5.082e-5
-1.166, 5.110e-5
-1.167, 5.140e-5
-1.168, 5.174e-5
-1.169, 5.205e-5
-1.170, 5.235e-5
-1.171, 5.263e-5
-1.172, 5.291e-5
-1.173, 5.319e-5
-1.174, 5.348e-5
-1.175, 5.378e-5
-1.176, 5.407e-5
-1.177, 5.434e-5
-1.178, 5.462e-5
-1.179, 5.492e-5
-1.180, 5.523e-5
-1.181, 5.552e-5
-1.182, 5.581e-5
-1.183, 5.610e-5
-1.184, 5.638e-5
-1.185, 5.665e-5
-1.186, 5.689e-5
-1.187, 5.713e-5
-1.188, 5.742e-5
-1.189, 5.766e-5
-1.190, 5.790e-5
-1.191, 5.816e-5
-1.192, 5.842e-5
-1.193, 5.868e-5
-1.194, 5.893e-5
-1.195, 5.919e-5
-1.196, 5.943e-5
-1.197, 5.969e-5
-1.198, 5.994e-5
-1.199, 6.018e-5
-1.200, 6.045e-5
-1.201, 6.071e-5
-1.202, 6.096e-5
-1.203, 6.121e-5
-1.204, 6.146e-5
-1.205, 6.172e-5
-1.206, 6.198e-5
-1.207, 6.223e-5
-1.208, 6.246e-5
-1.209, 6.269e-5
-1.210, 6.292e-5
-1.211, 6.319e-5
-1.212, 6.343e-5
-1.213, 6.367e-5
-1.214, 6.391e-5
-1.215, 6.414e-5
-1.216, 6.436e-5
-1.217, 6.458e-5
-1.218, 6.479e-5
-1.219, 6.503e-5
-1.220, 6.526e-5
-1.221, 6.549e-5
-1.222, 6.572e-5
-1.223, 6.593e-5
-1.224, 6.617e-5
-1.225, 6.641e-5
-1.226, 6.663e-5
-1.227, 6.686e-5
-1.228, 6.707e-5
-1.229, 6.730e-5
-1.230, 6.750e-5
-1.231, 6.773e-5
-1.232, 6.796e-5
-1.233, 6.817e-5
-1.234, 6.839e-5
-1.235, 6.857e-5
-1.236, 6.878e-5
-1.237, 6.900e-5
-1.238, 6.922e-5
-1.239, 6.944e-5
-1.240, 6.964e-5
-1.241, 6.985e-5
-1.242, 7.004e-5
-1.243, 7.022e-5
-1.244, 7.045e-5
-1.245, 7.067e-5
-1.246, 7.083e-5
-1.247, 7.103e-5
-1.248, 7.122e-5
-1.249, 7.140e-5
-1.250, 7.161e-5
-1.251, 7.183e-5
-1.252, 7.206e-5
-1.253, 7.224e-5
-1.254, 7.243e-5
-1.255, 7.260e-5
-1.256, 7.278e-5
-1.257, 7.299e-5
-1.258, 7.312e-5
-1.259, 7.333e-5
-1.260, 7.352e-5
-1.261, 7.369e-5
-1.262, 7.384e-5
-1.263, 7.398e-5
-1.264, 7.417e-5
-1.265, 7.443e-5
-1.266, 7.464e-5
-1.267, 7.486e-5
-1.268, 7.506e-5
-1.269, 7.527e-5
-1.270, 7.547e-5
-1.271, 7.570e-5
-1.272, 7.592e-5
-1.273, 7.611e-5
-1.274, 7.632e-5
-1.275, 7.656e-5
-1.276, 7.676e-5
-1.277, 7.700e-5
-1.278, 7.724e-5
-1.279, 7.741e-5
-1.280, 7.760e-5
-1.281, 7.778e-5
-1.282, 7.795e-5
-1.283, 7.818e-5
-1.284, 7.837e-5
-1.285, 7.856e-5
-1.286, 7.880e-5
-1.287, 7.904e-5
-1.288, 7.927e-5
-1.289, 7.952e-5
-1.290, 7.981e-5
-1.291, 8.005e-5
-1.292, 8.021e-5
-1.293, 8.038e-5
-1.294, 8.056e-5
-1.295, 8.080e-5
-1.296, 8.107e-5
-1.297, 8.135e-5
-1.298, 8.157e-5
-1.299, 8.179e-5
-1.300, 8.203e-5
-1.301, 8.224e-5
-1.302, 8.246e-5
-1.303, 8.273e-5
-1.304, 8.302e-5
-1.305, 8.329e-5
-1.306, 8.355e-5
-1.307, 8.381e-5
-1.308, 8.409e-5
-1.309, 8.440e-5
-1.310, 8.463e-5
-1.311, 8.492e-5
-1.312, 8.516e-5
-1.313, 8.545e-5
-1.314, 8.571e-5
-1.315, 8.593e-5
-1.316, 8.628e-5
-1.317, 8.654e-5
-1.318, 8.673e-5
-1.319, 8.700e-5
-1.320, 8.731e-5
-1.321, 8.761e-5
-1.322, 8.787e-5
-1.323, 8.811e-5
-1.324, 8.834e-5
-1.325, 8.865e-5
-1.326, 8.889e-5
-1.327, 8.911e-5
-1.328, 8.934e-5
-1.329, 8.959e-5
-1.330, 8.985e-5
-1.331, 9.015e-5
-1.332, 9.043e-5
-1.333, 9.071e-5
-1.334, 9.102e-5
-1.335, 9.136e-5
-1.336, 9.161e-5
-1.337, 9.191e-5
-1.338, 9.218e-5
-1.339, 9.248e-5
-1.340, 9.276e-5
-1.341, 9.299e-5
-1.342, 9.327e-5
-1.343, 9.360e-5
-1.344, 9.387e-5
-1.345, 9.415e-5
-1.346, 9.441e-5
-1.347, 9.462e-5
-1.348, 9.490e-5
-1.349, 9.515e-5
-1.350, 9.539e-5
-1.351, 9.560e-5
-1.352, 9.589e-5
-1.353, 9.620e-5
-1.354, 9.657e-5
-1.355, 9.676e-5
-1.356, 9.697e-5
-1.357, 9.719e-5
-1.358, 9.749e-5
-1.359, 9.782e-5
-1.360, 9.820e-5
-1.361, 9.848e-5
-1.362, 9.879e-5
-1.363, 9.911e-5
-1.364, 9.935e-5
-1.365, 9.969e-5
-1.366, 1.000e-4
-1.367, 1.003e-4
-1.368, 1.005e-4
-1.369, 1.009e-4
-1.370, 1.012e-4
-1.371, 1.015e-4
-1.372, 1.019e-4
-1.373, 1.021e-4
-1.374, 1.025e-4
-1.375, 1.028e-4
-1.376, 1.031e-4
-1.377, 1.034e-4
-1.378, 1.037e-4
-1.379, 1.042e-4
-1.380, 1.046e-4
-1.381, 1.050e-4
-1.382, 1.053e-4
-1.383, 1.056e-4
-1.384, 1.060e-4
-1.385, 1.065e-4
-1.386, 1.069e-4
-1.387, 1.073e-4
-1.388, 1.076e-4
-1.389, 1.080e-4
-1.390, 1.084e-4
-1.391, 1.088e-4
-1.392, 1.091e-4
-1.393, 1.096e-4
-1.394, 1.101e-4
-1.395, 1.105e-4
-1.396, 1.109e-4
-1.397, 1.112e-4
-1.398, 1.115e-4
-1.399, 1.118e-4
-1.400, 1.123e-4
-1.401, 1.127e-4
-1.402, 1.130e-4
-1.403, 1.133e-4
-1.404, 1.138e-4
-1.405, 1.142e-4
-1.406, 1.147e-4
-1.407, 1.151e-4
-1.408, 1.154e-4
-1.409, 1.155e-4
-1.410, 1.159e-4
-1.411, 1.161e-4
-1.412, 1.164e-4
-1.413, 1.169e-4
-1.414, 1.171e-4
-1.415, 1.173e-4
-1.416, 1.175e-4
-1.417, 1.177e-4
-1.418, 1.181e-4
-1.419, 1.185e-4
-1.420, 1.188e-4
-1.421, 1.191e-4
-1.422, 1.193e-4
-1.423, 1.195e-4
-1.424, 1.197e-4
-1.425, 1.201e-4
-1.426, 1.205e-4
-1.427, 1.208e-4
-1.428, 1.208e-4
-1.429, 1.208e-4
-1.430, 1.210e-4
-1.431, 1.212e-4
-1.432, 1.212e-4
-1.433, 1.213e-4
-1.434, 1.215e-4
-1.435, 1.217e-4
-1.436, 1.218e-4
-1.437, 1.218e-4
-1.438, 1.218e-4
-1.439, 1.218e-4
-1.440, 1.218e-4
-1.441, 1.218e-4
-1.442, 1.219e-4
-1.443, 1.219e-4
-1.444, 1.218e-4
-1.445, 1.218e-4
-1.446, 1.218e-4
-1.447, 1.217e-4
-1.448, 1.215e-4
-1.449, 1.214e-4
-1.450, 1.214e-4
-1.451, 1.214e-4
-1.452, 1.213e-4
-1.453, 1.212e-4
-1.454, 1.211e-4
-1.455, 1.211e-4
-1.456, 1.211e-4
-1.457, 1.211e-4
-1.458, 1.211e-4
-1.459, 1.210e-4
-1.460, 1.210e-4
-1.461, 1.210e-4
-1.462, 1.209e-4
-1.463, 1.209e-4
-1.464, 1.209e-4
-1.465, 1.211e-4
-1.466, 1.212e-4
-1.467, 1.213e-4
-1.468, 1.214e-4
-1.469, 1.215e-4
-1.470, 1.217e-4
-1.471, 1.216e-4
-1.472, 1.216e-4
-1.473, 1.217e-4
-1.474, 1.220e-4
-1.475, 1.222e-4
-1.476, 1.223e-4
-1.477, 1.225e-4
-1.478, 1.228e-4
-1.479, 1.230e-4
-1.480, 1.231e-4
-1.481, 1.232e-4
-1.482, 1.234e-4
-1.483, 1.234e-4
-1.484, 1.235e-4
-1.485, 1.237e-4
-1.486, 1.239e-4
-1.487, 1.242e-4
-1.488, 1.243e-4
-1.489, 1.244e-4
-1.490, 1.243e-4
-1.491, 1.242e-4
-1.492, 1.242e-4
-1.493, 1.243e-4
-1.494, 1.242e-4
-1.495, 1.241e-4
-1.496, 1.241e-4
-1.497, 1.241e-4
-1.498, 1.244e-4
-1.499, 1.244e-4
-1.500, 1.245e-4
-1.501, 1.246e-4
-1.502, 1.249e-4
-1.503, 1.248e-4
-1.504, 1.247e-4
-1.505, 1.249e-4
-1.506, 1.249e-4
-1.507, 1.250e-4
-1.508, 1.249e-4
-1.509, 1.248e-4
-1.510, 1.251e-4
-1.511, 1.253e-4
-1.512, 1.252e-4
-1.513, 1.253e-4
-1.514, 1.256e-4
-1.515, 1.258e-4
-1.516, 1.260e-4
-1.517, 1.259e-4
-1.518, 1.262e-4
-1.519, 1.262e-4
-1.520, 1.258e-4
-1.521, 1.259e-4
-1.522, 1.260e-4
-1.523, 1.262e-4
-1.524, 1.263e-4
-1.525, 1.265e-4
-1.526, 1.267e-4
-1.527, 1.273e-4
-1.528, 1.276e-4
-1.529, 1.275e-4
-1.530, 1.274e-4
-1.531, 1.272e-4
-1.532, 1.273e-4
-1.533, 1.275e-4
-1.534, 1.277e-4
-1.535, 1.278e-4
-1.536, 1.279e-4
-1.537, 1.279e-4
-1.538, 1.282e-4
-1.539, 1.283e-4
-1.540, 1.286e-4
-1.541, 1.291e-4
-1.542, 1.294e-4
-1.543, 1.296e-4
-1.544, 1.296e-4
-1.545, 1.297e-4
-1.546, 1.300e-4
-1.547, 1.301e-4
-1.548, 1.302e-4
-1.549, 1.306e-4
-1.550, 1.310e-4
-1.551, 1.312e-4
-1.552, 1.311e-4
-1.553, 1.309e-4
-1.554, 1.310e-4
-1.555, 1.312e-4
-1.556, 1.317e-4
-1.557, 1.322e-4
-1.558, 1.326e-4
-1.559, 1.332e-4
-1.560, 1.338e-4
-1.561, 1.343e-4
-1.562, 1.351e-4
-1.563, 1.359e-4
-1.564, 1.361e-4
-1.565, 1.362e-4
-1.566, 1.364e-4
-1.567, 1.374e-4
-1.568, 1.379e-4
-1.569, 1.377e-4
-1.570, 1.378e-4
-1.571, 1.386e-4
-1.572, 1.393e-4
-1.573, 1.399e-4
-1.574, 1.400e-4
-1.575, 1.403e-4
-1.576, 1.407e-4
-1.577, 1.413e-4
-1.578, 1.419e-4
-1.579, 1.422e-4
-1.580, 1.422e-4
-1.581, 1.429e-4
-1.582, 1.433e-4
-1.583, 1.437e-4
-1.584, 1.446e-4
-1.585, 1.452e-4
-1.586, 1.456e-4
-1.587, 1.461e-4
-1.588, 1.468e-4
-1.589, 1.476e-4
-1.590, 1.477e-4
-1.591, 1.482e-4
-1.592, 1.488e-4
-1.593, 1.499e-4
-1.594, 1.500e-4
-1.595, 1.504e-4
-1.596, 1.505e-4
-1.597, 1.507e-4
-1.598, 1.511e-4
-1.599, 1.515e-4
-1.600, 1.520e-4
-1.601, 1.529e-4
-1.602, 1.538e-4
-1.603, 1.544e-4
-1.604, 1.552e-4
-1.605, 1.560e-4
-1.606, 1.568e-4
-1.607, 1.570e-4
-1.608, 1.574e-4
-1.609, 1.577e-4
-1.610, 1.583e-4
-1.611, 1.589e-4
-1.612, 1.593e-4
-1.613, 1.603e-4
-1.614, 1.613e-4
-1.615, 1.620e-4
-1.616, 1.626e-4
-1.617, 1.632e-4
-1.618, 1.638e-4
-1.619, 1.643e-4
-1.620, 1.653e-4
-1.621, 1.662e-4
-1.622, 1.671e-4
-1.623, 1.680e-4
-1.624, 1.683e-4
-1.625, 1.686e-4
-1.626, 1.694e-4
-1.627, 1.705e-4
-1.628, 1.710e-4
-1.629, 1.720e-4
-1.630, 1.734e-4
-1.631, 1.743e-4
-1.632, 1.753e-4
-1.633, 1.762e-4
-1.634, 1.768e-4
-1.635, 1.774e-4
-1.636, 1.783e-4
-1.637, 1.795e-4
-1.638, 1.807e-4
-1.639, 1.816e-4
-1.640, 1.827e-4
-1.641, 1.834e-4
-1.642, 1.840e-4
-1.643, 1.844e-4
-1.644, 1.856e-4
-1.645, 1.872e-4
-1.646, 1.881e-4
-1.647, 1.894e-4
-1.648, 1.899e-4
-1.649, 1.901e-4
-1.650, 1.914e-4
-1.651, 1.925e-4
-1.652, 1.936e-4
-1.653, 1.942e-4
-1.654, 1.948e-4
-1.655, 1.959e-4
-1.656, 1.970e-4
-1.657, 1.977e-4
-1.658, 1.992e-4
-1.659, 2.004e-4
-1.660, 2.015e-4
-1.661, 2.031e-4
-1.662, 2.054e-4
-1.663, 2.075e-4
-1.664, 2.090e-4
-1.665, 2.107e-4
-1.666, 2.123e-4
-1.667, 2.147e-4
-1.668, 2.173e-4
-1.669, 2.206e-4
-1.670, 2.231e-4
-1.671, 2.255e-4
-1.672, 2.290e-4
-1.673, 2.332e-4
-1.674, 2.323e-4
-1.675, 2.312e-4
-1.676, 2.305e-4
-1.677, 2.303e-4
-1.678, 2.320e-4
-1.679, 2.324e-4
-1.680, 2.329e-4
-1.681, 2.336e-4
-1.682, 2.355e-4
-1.683, 2.374e-4
-1.684, 2.373e-4
-1.685, 2.369e-4
-1.686, 2.365e-4
-1.687, 2.368e-4
-1.688, 2.374e-4
-1.689, 2.383e-4
-1.690, 2.391e-4
-1.691, 2.401e-4
-1.692, 2.408e-4
-1.693, 2.420e-4
-1.694, 2.430e-4
-1.695, 2.445e-4
-1.696, 2.460e-4
-1.697, 2.472e-4
-1.698, 2.480e-4
-1.699, 2.492e-4
-1.700, 2.503e-4
-1.701, 2.514e-4
-1.702, 2.523e-4
-1.703, 2.535e-4
-1.704, 2.546e-4
-1.705, 2.560e-4
-1.706, 2.573e-4
-1.707, 2.588e-4
-1.708, 2.598e-4
-1.709, 2.611e-4
-1.710, 2.628e-4
-1.711, 2.652e-4
-1.712, 2.670e-4
-1.713, 2.678e-4
-1.714, 2.685e-4
-1.715, 2.695e-4
-1.716, 2.704e-4
-1.717, 2.715e-4
-1.718, 2.725e-4
-1.719, 2.738e-4
-1.720, 2.750e-4
-1.721, 2.760e-4
-1.722, 2.771e-4
-1.723, 2.783e-4
-1.724, 2.794e-4
-1.725, 2.805e-4
-1.726, 2.820e-4
-1.727, 2.836e-4
-1.728, 2.849e-4
-1.729, 2.863e-4
-1.730, 2.878e-4
-1.731, 2.894e-4
-1.732, 2.910e-4
-1.733, 2.925e-4
-1.734, 2.943e-4
-1.735, 2.960e-4
-1.736, 2.971e-4
-1.737, 2.986e-4
-1.738, 3.004e-4
-1.739, 3.009e-4
-1.740, 3.016e-4
-1.741, 3.029e-4
-1.742, 3.044e-4
-1.743, 3.058e-4
-1.744, 3.077e-4
-1.745, 3.099e-4
-1.746, 3.119e-4
-1.747, 3.130e-4
-1.748, 3.137e-4
-1.749, 3.151e-4
-1.750, 3.168e-4
-1.751, 3.188e-4
-1.752, 3.207e-4
-1.753, 3.232e-4
-1.754, 3.257e-4
-1.755, 3.270e-4
-1.756, 3.280e-4
-1.757, 3.298e-4
-1.758, 3.318e-4
-1.759, 3.330e-4
-1.760, 3.347e-4
-1.761, 3.367e-4
-1.762, 3.387e-4
-1.763, 3.413e-4
-1.764, 3.438e-4
-1.765, 3.460e-4
-1.766, 3.484e-4
-1.767, 3.514e-4
-1.768, 3.548e-4
-1.769, 3.581e-4
-1.770, 3.604e-4
-1.771, 3.621e-4
-1.772, 3.642e-4
-1.773, 3.662e-4
-1.774, 3.689e-4
-1.775, 3.718e-4
-1.776, 3.745e-4
-1.777, 3.773e-4
-1.778, 3.799e-4
-1.779, 3.827e-4
-1.780, 3.860e-4
-1.781, 3.897e-4
-1.782, 3.932e-4
-1.783, 3.964e-4
-1.784, 3.995e-4
-1.785, 4.018e-4
-1.786, 4.038e-4
-1.787, 4.066e-4
-1.788, 4.096e-4
-1.789, 4.129e-4
-1.790, 4.164e-4
-1.791, 4.202e-4
-1.792, 4.238e-4
-1.793, 4.280e-4
-1.794, 4.325e-4
-1.795, 4.356e-4
-1.796, 4.383e-4
-1.797, 4.413e-4
-1.798, 4.445e-4
-1.799, 4.479e-4
-1.800, 4.515e-4
-1.801, 4.556e-4
-1.802, 4.598e-4
-1.803, 4.644e-4
-1.804, 4.690e-4
-1.805, 4.728e-4
-1.806, 4.754e-4
-1.807, 4.787e-4
-1.808, 4.828e-4
-1.809, 4.863e-4
-1.810, 4.904e-4
-1.811, 4.948e-4
-1.812, 4.992e-4
-1.813, 5.038e-4
-1.814, 5.081e-4
-1.815, 5.116e-4
-1.816, 5.154e-4
-1.817, 5.190e-4
-1.818, 5.229e-4
-1.819, 5.272e-4
-1.820, 5.318e-4
-1.821, 5.363e-4
-1.822, 5.412e-4
-1.823, 5.459e-4
-1.824, 5.506e-4
-1.825, 5.552e-4
-1.826, 5.601e-4
-1.827, 5.641e-4
-1.828, 5.685e-4
-1.829, 5.734e-4
-1.830, 5.790e-4
-1.831, 5.840e-4
-1.832, 5.884e-4
-1.833, 5.933e-4
-1.834, 5.976e-4
-1.835, 6.021e-4
-1.836, 6.069e-4
-1.837, 6.120e-4
-1.838, 6.173e-4
-1.839, 6.223e-4
-1.840, 6.277e-4
-1.841, 6.326e-4
-1.842, 6.369e-4
-1.843, 6.418e-4
-1.844, 6.473e-4
-1.845, 6.532e-4
-1.846, 6.589e-4
-1.847, 6.639e-4
-1.848, 6.695e-4
-1.849, 6.747e-4
-1.850, 6.790e-4
-1.851, 6.842e-4
-1.852, 6.902e-4
-1.853, 6.959e-4
-1.854, 7.012e-4
-1.855, 7.066e-4
-1.856, 7.123e-4
-1.857, 7.180e-4
-1.858, 7.233e-4
-1.859, 7.290e-4
-1.860, 7.350e-4
-1.861, 7.411e-4
-1.862, 7.473e-4
-1.863, 7.532e-4
-1.864, 7.589e-4
-1.865, 7.647e-4
-1.866, 7.704e-4
-1.867, 7.763e-4
-1.868, 7.823e-4
-1.869, 7.882e-4
-1.870, 7.942e-4
-1.871, 8.000e-4
-1.872, 8.061e-4
-1.873, 8.124e-4
-1.874, 8.186e-4
-1.875, 8.246e-4
-1.876, 8.309e-4
-1.877, 8.373e-4
-1.878, 8.433e-4
-1.879, 8.495e-4
-1.880, 8.558e-4
-1.881, 8.622e-4
-1.882, 8.687e-4
-1.883, 8.754e-4
-1.884, 8.820e-4
-1.885, 8.884e-4
-1.886, 8.946e-4
-1.887, 9.012e-4
-1.888, 9.082e-4
-1.889, 9.153e-4
-1.890, 9.219e-4
-1.891, 9.277e-4
-1.892, 9.339e-4
-1.893, 9.403e-4
-1.894, 9.468e-4
-1.895, 9.532e-4
-1.896, 9.599e-4
-1.897, 9.666e-4
-1.898, 9.731e-4
-1.899, 9.796e-4
-1.900, 9.862e-4
-1.901, 9.932e-4
-1.902, 1.000e-3
-1.903, 1.007e-3
-1.904, 1.011e-3
-1.905, 1.011e-3
-1.906, 1.011e-3
-1.907, 1.011e-3
-1.908, 1.011e-3
-1.909, 1.011e-3
-1.910, 1.011e-3
-1.911, 1.011e-3
-1.912, 1.011e-3
-1.913, 1.011e-3
-1.914, 1.011e-3
-1.915, 1.011e-3
-1.916, 1.011e-3
-1.917, 1.011e-3
-1.918, 1.011e-3
-1.919, 1.011e-3
-1.920, 1.011e-3
-1.921, 1.011e-3
-1.922, 1.011e-3
-1.923, 1.011e-3
-1.924, 1.011e-3
-1.925, 1.011e-3
-1.926, 1.011e-3
-1.927, 1.011e-3
-1.928, 1.011e-3
-1.929, 1.011e-3
-1.930, 1.011e-3
-1.931, 1.011e-3
-1.932, 1.011e-3
-1.933, 1.011e-3
-1.934, 1.011e-3
-1.935, 1.011e-3
-1.936, 1.011e-3
-1.937, 1.011e-3
-1.938, 1.011e-3
-1.939, 1.011e-3
-1.940, 1.011e-3
-1.941, 1.011e-3
-1.942, 1.011e-3
-1.943, 1.011e-3
-1.944, 1.011e-3
-1.945, 1.011e-3
-1.946, 1.011e-3
-1.947, 1.011e-3
-1.948, 1.011e-3
-1.949, 1.011e-3
-1.950, 1.011e-3
-1.951, 1.011e-3
-1.952, 1.011e-3
-1.953, 1.011e-3
-1.954, 1.011e-3
-1.955, 1.011e-3
-1.956, 1.011e-3
-1.957, 1.011e-3
-1.958, 1.011e-3
-1.959, 1.011e-3
-1.960, 1.011e-3
-1.961, 1.011e-3
-1.962, 1.011e-3
-1.963, 1.011e-3
-1.964, 1.011e-3
-1.965, 1.011e-3
-1.966, 1.011e-3
-1.967, 1.011e-3
-1.968, 1.011e-3
-1.969, 1.011e-3
-1.970, 1.011e-3
-1.971, 1.011e-3
-1.972, 1.011e-3
-1.973, 1.011e-3
-1.974, 1.011e-3
-1.975, 1.011e-3
-1.976, 1.011e-3
-1.977, 1.011e-3
-1.978, 1.011e-3
-1.979, 1.011e-3
-1.980, 1.011e-3
-1.981, 1.011e-3
-1.982, 1.011e-3
-1.983, 1.011e-3
-1.984, 1.011e-3
-1.985, 1.011e-3
-1.986, 1.011e-3
-1.987, 1.011e-3
-1.988, 1.011e-3
-1.989, 1.011e-3
-1.990, 1.011e-3
-1.991, 1.011e-3
-1.992, 1.011e-3
-1.993, 1.011e-3
-1.994, 1.011e-3
-1.995, 1.011e-3
-1.996, 1.011e-3
-1.997, 1.011e-3
-1.998, 1.011e-3
-1.999, 1.011e-3
-2.000, 1.011e-3
-2.001, 1.011e-3
-2.002, 1.011e-3
-2.003, 1.011e-3
-2.004, 1.011e-3
-2.005, 1.011e-3
-2.006, 1.011e-3
-2.007, 1.011e-3
-2.008, 1.011e-3
-2.009, 1.011e-3
-2.010, 1.011e-3
-2.011, 1.011e-3
-2.012, 1.011e-3
-2.013, 1.011e-3
-2.014, 1.011e-3
-2.015, 1.011e-3
-2.016, 1.011e-3
-2.017, 1.011e-3
-2.018, 1.011e-3
-2.019, 1.011e-3
-2.020, 1.011e-3
-2.021, 1.011e-3
-2.022, 1.011e-3
-2.023, 1.011e-3
-2.024, 1.011e-3
-2.025, 1.011e-3
-2.026, 1.011e-3
-2.027, 1.011e-3
-2.028, 1.011e-3
-2.029, 1.011e-3
-2.030, 1.011e-3
-2.031, 1.011e-3
-2.032, 1.011e-3
-2.033, 1.011e-3
-2.034, 1.011e-3
-2.035, 1.011e-3
-2.036, 1.011e-3
-2.037, 1.011e-3
-2.038, 1.011e-3
-2.039, 1.011e-3
-2.040, 1.011e-3
-2.041, 1.011e-3
-2.042, 1.011e-3
-2.043, 1.011e-3
-2.044, 1.011e-3
-2.045, 1.011e-3
-2.046, 1.011e-3
-2.047, 1.011e-3
-2.048, 1.011e-3
-2.049, 1.011e-3
-2.050, 1.011e-3
-2.051, 1.011e-3
-2.052, 1.011e-3
-2.053, 1.011e-3
-2.054, 1.011e-3
-2.055, 1.011e-3
-2.056, 1.011e-3
-2.057, 1.011e-3
-2.058, 1.011e-3
-2.059, 1.011e-3
-2.060, 1.011e-3
-2.061, 1.011e-3
-2.062, 1.011e-3
-2.063, 1.011e-3
-2.064, 1.011e-3
-2.065, 1.011e-3
-2.066, 1.011e-3
-2.067, 1.011e-3
-2.068, 1.011e-3
-2.069, 1.011e-3
-2.070, 1.011e-3
-2.071, 1.011e-3
-2.072, 1.011e-3
-2.073, 1.011e-3
-2.074, 1.011e-3
-2.075, 1.011e-3
-2.076, 1.011e-3
-2.077, 1.011e-3
-2.078, 1.011e-3
-2.079, 1.011e-3
-2.080, 1.011e-3
-2.081, 1.011e-3
-2.082, 1.011e-3
-2.083, 1.011e-3
-2.084, 1.011e-3
-2.085, 1.011e-3
-2.086, 1.011e-3
-2.087, 1.011e-3
-2.088, 1.011e-3
-2.089, 1.011e-3
-2.090, 1.011e-3
-2.091, 1.011e-3
-2.092, 1.011e-3
-2.093, 1.011e-3
-2.094, 1.011e-3
-2.095, 1.011e-3
-2.096, 1.011e-3
-2.097, 1.011e-3
-2.098, 1.011e-3
-2.099, 1.011e-3
-2.100, 1.011e-3
-2.101, 1.011e-3
-2.102, 1.011e-3
-2.103, 1.011e-3
-2.104, 1.011e-3
-2.105, 1.011e-3
-2.106, 1.011e-3
-2.107, 1.011e-3
-2.108, 1.011e-3
-2.109, 1.011e-3
-2.110, 1.011e-3
-2.111, 1.011e-3
-2.112, 1.011e-3
-2.113, 1.011e-3
-2.114, 1.011e-3
-2.115, 1.011e-3
-2.116, 1.011e-3
-2.117, 1.011e-3
-2.118, 1.011e-3
-2.119, 1.011e-3
-2.120, 1.011e-3
-2.121, 1.011e-3
-2.122, 1.011e-3
-2.123, 1.011e-3
-2.124, 1.011e-3
-2.125, 1.011e-3
-2.126, 1.011e-3
-2.127, 1.011e-3
-2.128, 1.011e-3
-2.129, 1.011e-3
-2.130, 1.011e-3
-2.131, 1.011e-3
-2.132, 1.011e-3
-2.133, 1.011e-3
-2.134, 1.011e-3
-2.135, 1.011e-3
-2.136, 1.011e-3
-2.137, 1.011e-3
-2.138, 1.011e-3
-2.139, 1.011e-3
-2.140, 1.011e-3
-2.141, 1.011e-3
-2.142, 1.011e-3
-2.143, 1.011e-3
-2.144, 1.011e-3
-2.145, 1.011e-3
-2.146, 1.011e-3
-2.147, 1.011e-3
-2.148, 1.011e-3
-2.149, 1.011e-3
-2.150, 1.011e-3
-2.151, 1.011e-3
-2.152, 1.011e-3
-2.153, 1.011e-3
-2.154, 1.011e-3
-2.155, 1.011e-3
-2.156, 1.011e-3
-2.157, 1.011e-3
-2.158, 1.011e-3
-2.159, 1.011e-3
-2.160, 1.011e-3
-2.161, 1.011e-3
-2.162, 1.011e-3
-2.163, 1.011e-3
-2.164, 1.011e-3
-2.165, 1.011e-3
-2.166, 1.011e-3
-2.167, 1.011e-3
-2.168, 1.011e-3
-2.169, 1.011e-3
-2.170, 1.011e-3
-2.171, 1.011e-3
-2.172, 1.011e-3
-2.173, 1.011e-3
-2.174, 1.011e-3
-2.175, 1.011e-3
-2.176, 1.011e-3
-2.177, 1.011e-3
-2.178, 1.011e-3
-2.179, 1.011e-3
-2.180, 1.011e-3
-2.181, 1.011e-3
-2.182, 1.011e-3
-2.183, 1.011e-3
-2.184, 1.011e-3
-2.185, 1.011e-3
-2.186, 1.011e-3
-2.187, 1.011e-3
-2.188, 1.011e-3
-2.189, 1.011e-3
-2.190, 1.011e-3
-2.191, 1.011e-3
-2.192, 1.011e-3
-2.193, 1.011e-3
-2.194, 1.011e-3
-2.195, 1.011e-3
-2.196, 1.011e-3
-2.197, 1.011e-3
-2.198, 1.011e-3
-2.199, 1.011e-3
-2.200, 1.011e-3
-2.201, 1.011e-3
-2.202, 1.011e-3
-2.203, 1.011e-3
-2.204, 1.011e-3
-2.205, 1.011e-3
-2.206, 1.011e-3
-2.207, 1.011e-3
-2.208, 1.011e-3
-2.209, 1.011e-3
-2.210, 1.011e-3
-2.211, 1.011e-3
-2.212, 1.011e-3
-2.213, 1.011e-3
-2.214, 1.011e-3
-2.215, 1.011e-3
-2.216, 1.011e-3
-2.217, 1.011e-3
-2.218, 1.011e-3
-2.219, 1.011e-3
-2.220, 1.011e-3
-2.221, 1.011e-3
-2.222, 1.011e-3
-2.223, 1.011e-3
-2.224, 1.011e-3
-2.225, 1.011e-3
-2.226, 1.011e-3
-2.227, 1.011e-3
-2.228, 1.011e-3
-2.229, 1.011e-3
-2.230, 1.011e-3
-2.231, 1.011e-3
-2.232, 1.011e-3
-2.233, 1.011e-3
-2.234, 1.011e-3
-2.235, 1.011e-3
-2.236, 1.011e-3
-2.237, 1.011e-3
-2.238, 1.011e-3
-2.239, 1.011e-3
-2.240, 1.011e-3
-2.241, 1.011e-3
-2.242, 1.011e-3
-2.243, 1.011e-3
-2.244, 1.011e-3
-2.245, 1.011e-3
-2.246, 1.011e-3
-2.247, 1.011e-3
-2.248, 1.011e-3
-2.249, 1.011e-3
-2.250, 1.011e-3
-2.251, 1.011e-3
-2.252, 1.011e-3
-2.253, 1.011e-3
-2.254, 1.011e-3
-2.255, 1.011e-3
-2.256, 1.011e-3
-2.257, 1.011e-3
-2.258, 1.011e-3
-2.259, 1.011e-3
-2.260, 1.011e-3
-2.261, 1.011e-3
-2.262, 1.011e-3
-2.263, 1.011e-3
-2.264, 1.011e-3
-2.265, 1.011e-3
-2.266, 1.011e-3
-2.267, 1.011e-3
-2.268, 1.011e-3
-2.269, 1.011e-3
-2.270, 1.011e-3
-2.271, 1.011e-3
-2.272, 1.011e-3
-2.273, 1.011e-3
-2.274, 1.011e-3
-2.275, 1.011e-3
-2.276, 1.011e-3
-2.277, 1.011e-3
-2.278, 1.011e-3
-2.279, 1.011e-3
-2.280, 1.011e-3
-2.281, 1.011e-3
-2.282, 1.011e-3
-2.283, 1.011e-3
-2.284, 1.011e-3
-2.285, 1.011e-3
-2.286, 1.011e-3
-2.287, 1.011e-3
-2.288, 1.011e-3
-2.289, 1.011e-3
-2.290, 1.011e-3
-2.291, 1.011e-3
-2.292, 1.011e-3
-2.293, 1.011e-3
-2.294, 1.011e-3
-2.295, 1.011e-3
-2.296, 1.011e-3
-2.297, 1.011e-3
-2.298, 1.011e-3
-2.299, 1.011e-3
