Potential V vs RHE, Current mA cm-2
0.013299999999999867,-0.5255652478998613
0.012299999999999978,-2.1390434853959355
0.011299999999999866,-3.361354048479327
0.010299999999999976,-4.364384360083638
0.009299999999999864,-5.279702571096316
0.008299999999999974,-6.064867342521412
0.007299999999999862,-6.806176063650692
0.006299999999999972,-7.461187395488204
0.00529999999999986,-7.940774526142452
0.0042999999999999705,-8.288793505909249
0.0032999999999998586,-8.55051509638428
0.0022999999999999687,-8.68208324727173
0.0012999999999998568,-8.85609273715513
0.00029999999999996696,-9.031516938338395
-0.000700000000000145,-9.24938247851761
-0.0017000000000000348,-9.511104068992642
-0.0027000000000001467,-9.685113558876042
-0.0037000000000000366,-9.81668170976349
-0.0047000000000001485,-9.81668170976349
-0.005700000000000038,-9.772825659467674
-0.00670000000000015,-9.772825659467674
-0.00770000000000004,-9.81668170976349
-0.008700000000000152,-9.946835149351072
-0.009700000000000042,-10.078403300238522
-0.010700000000000154,-10.25241279012192
-0.011700000000000044,-10.340124890713554
-0.012700000000000156,-10.340124890713554
-0.013700000000000045,-10.25241279012192
-0.014700000000000157,-10.208556739826104
-0.015700000000000047,-10.164700689530287
-0.01670000000000016,-10.25241279012192
-0.01770000000000005,-10.340124890713554
-0.01870000000000016,-10.42642228000532
-0.01970000000000005,-10.514134380596953
-0.020700000000000163,-10.42642228000532
-0.021700000000000053,-10.340124890713554
-0.022700000000000164,-10.208556739826104
-0.023700000000000054,-10.164700689530287
-0.024700000000000166,-10.164700689530287
-0.025700000000000056,-10.296268840417738
-0.026700000000000168,-10.42642228000532
-0.027700000000000058,-10.514134380596953
-0.02870000000000017,-10.514134380596953
-0.02970000000000006,-10.470278330301136
-0.03070000000000017,-10.382566229709504
-0.03170000000000006,-10.340124890713554
-0.03270000000000017,-10.296268840417738
-0.03370000000000006,-10.382566229709504
-0.034700000000000175,-10.42642228000532
-0.035700000000000065,-10.514134380596953
-0.03670000000000018,-10.557990430892769
-0.03770000000000007,-10.514134380596953
-0.03870000000000018,-10.42642228000532
-0.03970000000000007,-10.340124890713554
-0.04070000000000018,-10.340124890713554
-0.04170000000000007,-10.382566229709504
-0.04270000000000018,-10.514134380596953
-0.04370000000000007,-10.644287820184536
-0.044700000000000184,-10.644287820184536
-0.045700000000000074,-10.601846481188586
-0.046700000000000186,-10.514134380596953
-0.047700000000000076,-10.340124890713554
-0.04870000000000019,-10.296268840417738
-0.04970000000000008,-10.296268840417738
-0.05070000000000019,-10.340124890713554
-0.05170000000000008,-10.514134380596953
-0.05270000000000019,-10.557990430892769
-0.05370000000000008,-10.601846481188586
-0.05470000000000019,-10.514134380596953
-0.05570000000000008,-10.42642228000532
-0.056700000000000195,-10.382566229709504
-0.057700000000000085,-10.382566229709504
-0.058700000000000196,-10.42642228000532
-0.059700000000000086,-10.514134380596953
-0.0607000000000002,-10.601846481188586
-0.06170000000000009,-10.644287820184536
-0.0627000000000002,-10.601846481188586
-0.06370000000000009,-10.514134380596953
-0.0647000000000002,-10.382566229709504
-0.06570000000000009,-10.382566229709504
-0.0667000000000002,-10.42642228000532
-0.0677000000000001,-10.514134380596953
-0.0687000000000002,-10.601846481188586
-0.0697000000000001,-10.644287820184536
-0.07070000000000021,-10.601846481188586
-0.0717000000000001,-10.514134380596953
-0.07270000000000021,-10.382566229709504
-0.0737000000000001,-10.340124890713554
-0.07470000000000021,-10.382566229709504
-0.0757000000000001,-10.470278330301136
-0.07670000000000021,-10.557990430892769
-0.0777000000000001,-10.644287820184536
-0.07870000000000021,-10.644287820184536
-0.0797000000000001,-10.601846481188586
-0.08070000000000022,-10.514134380596953
-0.0817000000000001,-10.42642228000532
-0.08270000000000022,-10.42642228000532
-0.08370000000000011,-10.470278330301136
-0.08470000000000022,-10.557990430892769
-0.08570000000000011,-10.644287820184536
-0.08670000000000022,-10.688143870480351
-0.08770000000000011,-10.601846481188586
-0.08870000000000022,-10.514134380596953
-0.08970000000000011,-10.42642228000532
-0.09070000000000022,-10.382566229709504
-0.09170000000000011,-10.42642228000532
-0.09270000000000023,-10.514134380596953
-0.09370000000000012,-10.644287820184536
-0.09470000000000023,-10.731999920776168
-0.09570000000000012,-10.688143870480351
-0.09670000000000023,-10.601846481188586
-0.09770000000000012,-10.514134380596953
-0.09870000000000023,-10.42642228000532
-0.09970000000000012,-10.470278330301136
-0.10070000000000023,-10.514134380596953
-0.10170000000000012,-10.644287820184536
-0.10270000000000024,-10.731999920776168
-0.10370000000000013,-10.688143870480351
-0.10470000000000024,-10.644287820184536
-0.10570000000000013,-10.514134380596953
-0.10670000000000024,-10.470278330301136
-0.10770000000000013,-10.42642228000532
-0.10870000000000024,-10.514134380596953
-0.10970000000000013,-10.644287820184536
-0.11070000000000024,-10.731999920776168
-0.11170000000000013,-10.775855971071984
-0.11270000000000002,-10.731999920776168
-0.11370000000000013,-10.644287820184536
-0.11470000000000002,-10.514134380596953
-0.11570000000000014,-10.514134380596953
-0.11670000000000003,-10.557990430892769
-0.11770000000000014,-10.644287820184536
-0.11870000000000003,-10.775855971071984
-0.11970000000000014,-10.819712021367803
-0.12070000000000003,-10.819712021367803
-0.12170000000000014,-10.688143870480351
-0.12270000000000003,-10.601846481188586
-0.12370000000000014,-10.557990430892769
-0.12470000000000003,-10.601846481188586
-0.12570000000000014,-10.688143870480351
-0.12670000000000003,-10.819712021367803
-0.12770000000000015,-10.863568071663616
-0.12870000000000004,-10.863568071663616
-0.12970000000000015,-10.819712021367803
-0.13070000000000004,-10.731999920776168
-0.13170000000000015,-10.688143870480351
-0.13270000000000004,-10.644287820184536
-0.13370000000000015,-10.731999920776168
-0.13470000000000004,-10.863568071663616
-0.13570000000000015,-10.949865460955383
-0.13670000000000004,-10.993721511251199
-0.13770000000000016,-10.949865460955383
-0.13870000000000005,-10.863568071663616
-0.13970000000000016,-10.775855971071984
-0.14070000000000005,-10.731999920776168
-0.14170000000000016,-10.819712021367803
-0.14270000000000005,-10.906009410659568
-0.14370000000000016,-11.037577561547016
-0.14470000000000005,-11.123874950838783
-0.14570000000000016,-11.081433611842833
-0.14670000000000005,-10.993721511251199
-0.14770000000000016,-10.949865460955383
-0.14870000000000005,-10.906009410659568
-0.14970000000000017,-10.949865460955383
-0.15070000000000006,-11.037577561547016
-0.15170000000000017,-11.1677310011346
-0.15270000000000006,-11.255443101726232
-0.15370000000000017,-11.255443101726232
-0.15470000000000006,-11.211587051430415
-0.15570000000000017,-11.1677310011346
-0.15670000000000006,-11.123874950838783
-0.15770000000000017,-11.123874950838783
-0.15870000000000006,-11.211587051430415
-0.15970000000000018,-11.343155202317865
-0.16070000000000007,-11.473308641905447
-0.16170000000000018,-11.517164692201263
-0.16270000000000007,-11.473308641905447
-0.16370000000000018,-11.42945259160963
-0.16470000000000007,-11.385596541313816
-0.16570000000000018,-11.343155202317865
-0.16670000000000007,-11.42945259160963
-0.16770000000000018,-11.517164692201263
-0.16870000000000007,-11.691174182084664
-0.16970000000000018,-11.778886282676295
-0.17070000000000007,-11.778886282676295
-0.17170000000000019,-11.73503023238048
-0.17270000000000008,-11.647318131788847
-0.1737000000000002,-11.647318131788847
-0.17470000000000008,-11.691174182084664
-0.1757000000000002,-11.82274233297211
-0.17670000000000008,-11.996751822855511
-0.1777000000000002,-12.084463923447142
-0.17870000000000008,-12.12831997374296
-0.1797000000000002,-12.12831997374296
-0.18070000000000008,-12.084463923447142
-0.1817000000000002,-12.040607873151327
-0.18270000000000008,-12.040607873151327
-0.1837000000000002,-12.170761312738911
-0.1847000000000001,-12.346185513922174
-0.1857000000000002,-12.476338953509758
-0.1867000000000001,-12.56405105410139
-0.1877000000000002,-12.56405105410139
-0.1887000000000001,-12.520195003805576
-0.1897000000000002,-12.432482903213943
-0.1907000000000001,-12.432482903213943
-0.1917000000000001,-12.56405105410139
-0.19269999999999998,-12.781916594280606
-0.1937000000000001,-12.955926084164007
-0.19469999999999998,-13.087494235051453
-0.1957000000000001,-13.13135028534727
-0.19669999999999999,-13.087494235051453
-0.1977000000000001,-13.087494235051453
-0.1987,-13.087494235051453
-0.1997000000000001,-13.13135028534727
-0.2007,-13.30535977523067
-0.2017000000000001,-13.523225315409885
-0.2027,-13.654793466297335
-0.2037000000000001,-13.741090855589102
-0.2047,-13.784946905884919
-0.2057000000000001,-13.784946905884919
-0.2067,-13.828802956180734
-0.2077000000000001,-13.916515056772363
-0.2087,-14.046668496359947
-0.2097000000000001,-14.26028990263957
-0.2107,-14.444202371622024
-0.2117000000000001,-14.57152638860988
-0.2127,-14.61396772760583
-0.2137000000000001,-14.65640906660178
-0.2147,-14.65640906660178
-0.2157000000000001,-14.783733083589633
-0.2167,-14.925204213576137
-0.21770000000000012,-15.137410908555893
-0.2187,-15.349617603535648
-0.21970000000000012,-15.575971411514052
-0.2207,-15.618412750510005
-0.22170000000000012,-15.70329542850191
-0.2227,-15.70329542850191
-0.22370000000000012,-15.78817810649381
-0.2247,-15.972090575476265
-0.22570000000000012,-16.184297270456018
-0.2267,-16.396503965435777
-0.22770000000000012,-16.622857773414182
-0.22870000000000001,-16.792623129397985
-0.22970000000000013,-16.877505807389888
-0.23070000000000002,-16.962388485381787
-0.23170000000000013,-17.061418276372343
-0.23270000000000002,-17.188742293360193
-0.23370000000000013,-17.40094898833995
-0.23470000000000002,-17.71218547431026
-0.23570000000000013,-17.924392169290012
-0.23670000000000002,-18.15074597726842
-0.2376999999999999,-18.27806999425627
-0.23870000000000002,-18.40539401124413
-0.2396999999999999,-18.53271802823198
-0.24070000000000003,-18.759071836210385
-0.24169999999999991,-19.01371987018609
-0.24270000000000003,-19.3249563561564
-0.24369999999999992,-19.678634181122664
-0.24470000000000003,-19.93328221509837
-0.24569999999999992,-20.06060623208622
-0.24670000000000003,-20.202077362072725
-0.24769999999999992,-20.329401379060574
-0.24870000000000003,-20.499166735044383
-0.24969999999999992,-20.72552054302279
-0.25070000000000003,-21.065051254990397
-0.2516999999999999,-21.418729079956652
-0.25270000000000004,-21.772406904922917
-0.2536999999999999,-22.027054938898623
-0.25470000000000004,-22.295850085872978
-0.2556999999999999,-22.46561544185678
-0.25670000000000004,-22.67782213683654
-0.25769999999999993,-22.946617283810895
-0.25870000000000004,-23.300295108777156
-0.25969999999999993,-23.724708498736668
-0.26070000000000004,-24.078386323702922
-0.26169999999999993,-24.432064148669184
-0.26270000000000004,-24.686712182644893
-0.26369999999999993,-24.9130659906233
-0.26470000000000005,-25.12527268560305
-0.26569999999999994,-25.43650917157336
-0.26670000000000005,-25.77603988354097
-0.26769999999999994,-26.21460038649913
-0.26870000000000005,-26.65316088945729
-0.26969999999999994,-27.049280053419505
-0.27070000000000005,-27.34636942639116
-0.27169999999999994,-27.615164573365515
-0.27270000000000005,-27.912253946337174
-0.27369999999999994,-28.18104909331153
-0.27470000000000006,-28.577168257273744
-0.27569999999999995,-29.058170099227848
-0.27670000000000006,-29.581613280177915
-0.27769999999999995,-30.00602667013743
-0.27870000000000006,-30.444587173095588
-0.27969999999999995,-30.79826499806185
-0.28070000000000006,-31.095354371033505
-0.28169999999999995,-31.449032195999767
-0.28270000000000006,-31.84515135996197
-0.28369999999999995,-32.368594540912035
-0.28470000000000006,-32.892037721862096
-0.28569999999999995,-33.41548090281216
-0.28670000000000007,-33.93892408376223
-0.28769999999999996,-34.278454795729836
-0.28870000000000007,-34.632132620696105
-0.28969999999999996,-34.98581044566235
-0.29070000000000007,-35.42437094862052
-0.29169999999999996,-35.94781412957058
-0.29270000000000007,-36.5136986495166
-0.29369999999999996,-37.122024508458566
-0.2947000000000001,-37.687909028404576
-0.29569999999999996,-38.211352209354644
-0.2967000000000001,-38.6499127123128
-0.29769999999999996,-39.08847321527096
-0.2987000000000001,-39.56947505722508
-0.29969999999999997,-40.135359577171094
-0.3007000000000001,-40.743685436113054
-0.30169999999999997,-41.39445263405098
-0.3027000000000001,-42.00277849299294
-0.30369999999999997,-42.526221673943
-0.3047000000000001,-42.96478217690117
-0.30569999999999997,-43.44578401885527
-0.3067000000000001,-43.92678586080939
-0.3077,-44.4926703807554
-0.3087000000000001,-45.10099623969737
-0.3097,-45.79420477663124
-0.3107000000000001,-46.544001765559706
-0.3117,-47.19476896349763
-0.3127000000000001,-47.80309482243959
-0.3137,-48.36897934238561
-0.3147000000000001,-48.93486386233162
-0.3157,-49.59977817326819
-0.3167000000000001,-50.29298671020206
-0.3177,-51.028636586131874
-0.3187000000000001,-51.77843357506035
-0.3197,-52.471642111994214
-0.3207000000000001,-53.12240930993213
-0.3217,-53.68829382987814
-0.3227000000000001,-54.26832546282281
-0.3237,-54.876651321764776
-0.3247000000000001,-55.527418519702685
-0.3257,-56.30550973462846
-0.3267000000000001,-57.097748062552874
-0.3277,-57.87583927747865
-0.3287000000000001,-58.583194927411164
-0.3297,-59.27640346434504
-0.3307000000000001,-59.92717066228296
-0.3317,-60.63452631221547
-0.3327000000000001,-61.37017618814529
-0.3337,-62.16241451606972
-0.3347000000000001,-62.98294706999144
-0.3357,-63.81762673691181
-0.3367000000000001,-64.63815929083353
-0.3377,-65.34551494076604
-0.3387000000000001,-66.03872347769992
-0.3397,-66.73193201463377
-0.3407000000000001,-67.52417034255821
-0.3417,-68.30226155748396
-0.3427000000000001,-69.1793825634003
-0.3437,-70.05650356931662
-0.3447000000000001,-70.91947746223428
-0.3457,-71.66927445116276
-0.3467000000000001,-72.40492432709259
-0.3477,-73.15472131602105
-0.3487000000000001,-73.93281253094682
-0.3497,-74.80993353686314
-0.3507000000000001,-75.77193722077136
-0.3517,-76.71979379168094
-0.3527000000000001,-77.63935613659322
-0.3537,-78.47403580351359
-0.3547000000000001,-79.25212701843935
-0.3557,-80.04436534636378
-0.35670000000000013,-80.82245656128954
-0.3577,-81.65713622820991
-0.35870000000000013,-82.61913991211814
-0.3597,-83.56699648302772
-0.36070000000000013,-84.52900016693594
-0.3617,-85.49100385084417
-0.3626999999999999,-86.41056619575643
-0.3637,-87.23109874967815
-0.3646999999999999,-88.06577841659853
-0.3657,-88.9853407615108
-0.3666999999999999,-90.03222712341093
-0.3677,-90.99423080731917
-0.3686999999999999,-92.04111716921928
-0.36970000000000003,-93.03141507912481
-0.3706999999999999,-93.90853608504113
-0.37170000000000003,-94.8280984299534
-0.3726999999999999,-95.69107232287108
-0.37370000000000003,-96.65307600677932
-0.3746999999999999,-97.6575210296835
-0.37570000000000003,-98.7044073915836
-0.3766999999999999,-99.87861777047159
-0.37770000000000004,-100.98209258436633
-0.3786999999999999,-102.02897894626645
-0.37970000000000004,-102.93439417818009
-0.3806999999999999,-103.85395652309235
-0.38170000000000004,-104.81596020700057
-0.38269999999999993,-105.82040522990474
-0.38370000000000004,-106.90973293080083
-0.38469999999999993,-108.04150197069285
-0.38570000000000004,-109.13082967158894
-0.38669999999999993,-108.87618163761321
-0.38570000000000004,-106.47117242784265
-0.38469999999999993,-104.46228238203432
-0.38370000000000004,-102.63730480520842
-0.38269999999999993,-101.06697526235823
-0.38170000000000004,-99.70885241448778
-0.3806999999999999,-98.4497593576079
-0.37970000000000004,-97.26140186572127
-0.3786999999999999,-96.0871914868333
-0.37770000000000004,-94.87053976894937
-0.3766999999999999,-93.65388805106544
-0.37570000000000003,-92.3806478811869
-0.3746999999999999,-91.24887884129487
-0.37370000000000003,-90.15955114039879
-0.3726999999999999,-89.15510611749461
-0.37170000000000003,-88.10821975559449
-0.3706999999999999,-87.10377473269031
-0.36970000000000003,-86.05688837079018
-0.3686999999999999,-84.8826779919022
-0.3677,-83.70846761301424
-0.3666999999999999,-82.6615812511141
-0.3657,-81.61469488921396
-0.3646999999999999,-80.61024986630979
-0.3637,-79.60580484340561
-0.3626999999999999,-78.60135982050144
-0.3617,-77.51203211960537
-0.36070000000000013,-76.38026307971333
-0.3597,-75.2484940398213
-0.35870000000000013,-74.10257788693062
-0.3577,-73.0556915250305
-0.35670000000000013,-72.15027629311687
-0.3557,-71.2307139482046
-0.3547000000000001,-70.35359294228827
-0.3537,-69.43403059737601
-0.3527000000000001,-68.44373268747047
-0.3517,-67.43928766456631
-0.3507000000000001,-66.39240130266617
-0.3497,-65.43039761875795
-0.3487000000000001,-64.51083527384567
-0.3477,-63.633714267929356
-0.3467000000000001,-62.72829903601572
-0.3457,-61.80873669110345
-0.3447000000000001,-60.84673300719523
-0.3437,-59.7998466452951
-0.3427000000000001,-58.71051894439902
-0.3417,-57.7485152604908
-0.3407000000000001,-56.786511576582576
-0.3397,-56.008420361656796
-0.3387000000000001,-55.21618203373238
-0.3377,-54.43809081880661
-0.3367000000000001,-53.603411151886235
-0.3357,-52.74043725896857
-0.3347000000000001,-51.77843357506035
-0.3337,-50.81642989115212
-0.3327000000000001,-49.939308885235796
-0.3317,-49.16121767031002
-0.3307000000000001,-48.41142068138156
-0.3297,-47.67577080545174
-0.3287000000000001,-46.88353247752732
-0.3277,-46.02055858460964
-0.3267000000000001,-45.05855490070142
-0.3257,-44.096551216793195
-0.3247000000000001,-43.23357732387552
-0.3237,-42.39889765695515
-0.3227000000000001,-41.66324778102533
-0.3217,-40.91345079209687
-0.3207000000000001,-40.220242255162994
-0.3197,-39.47044526623452
-0.3187000000000001,-38.6499127123128
-0.3177,-37.81523304539243
-0.3167000000000001,-36.99470049147071
-0.3157,-36.20246216354629
-0.3147000000000001,-35.50925362661242
-0.3137,-34.90092776767045
-0.3127000000000001,-34.236013456733886
-0.3117,-33.54280491980002
-0.3107000000000001,-32.764713704874254
-0.3097,-31.972475376949827
-0.3087000000000001,-31.137795710029454
-0.3077,-30.402145834099635
-0.3067000000000001,-29.751378636161718
-0.30569999999999997,-29.18549411621571
-0.3047000000000001,-28.619609596269694
-0.30369999999999997,-28.011283737327723
-0.3027000000000001,-27.261486748399253
-0.30169999999999997,-26.483395533473487
-0.3007000000000001,-25.691157205549064
-0.29969999999999997,-24.997948668615198
-0.2987000000000001,-24.34718147067728
-0.29769999999999996,-23.724708498736668
-0.2967000000000001,-23.2012653177866
-0.29569999999999996,-22.63538079784059
-0.2947000000000001,-21.98461359990267
-0.29369999999999996,-21.333846401964752
-0.29270000000000007,-20.626490752032236
-0.29169999999999996,-19.97572355409432
-0.29070000000000007,-19.367397695152352
-0.28969999999999996,-18.843954514202288
-0.28870000000000007,-18.362952672248177
-0.28769999999999996,-17.881950830294063
-0.28670000000000007,-17.316066310348052
-0.28569999999999995,-16.750181790402035
-0.28470000000000006,-16.099414592464115
-0.28369999999999995,-15.448647394526201
-0.28270000000000006,-14.868615761581536
-0.28169999999999995,-14.345172580631472
-0.28070000000000006,-13.916515056772363
-0.27969999999999995,-13.47936926511407
-0.27870000000000006,-12.99978213445982
-0.27769999999999995,-12.432482903213943
-0.27670000000000006,-11.82274233297211
-0.27569999999999995,-11.211587051430415
-0.27470000000000006,-10.688143870480351
-0.27369999999999994,-10.208556739826104
-0.27270000000000005,-9.81668170976349
-0.27169999999999994,-9.423391968401008
-0.27070000000000005,-9.031516938338395
-0.26969999999999994,-8.594371146680096
-0.26870000000000005,-8.027071915434218
-0.26769999999999994,-7.461187395488204
