Potential V vs RHE, Current mA cm-2
0.013299999999999867,-0.26384365742482935
0.012299999999999978,-2.052746096104168
0.011299999999999866,-3.579219588658543
0.010299999999999976,-5.017980980621284
0.009299999999999864,-6.238876832404812
0.008299999999999974,-7.37347529489657
0.007299999999999862,-8.376505606500881
0.006299999999999972,-9.24938247851761
0.00529999999999986,-9.99069119964689
0.0042999999999999705,-10.644287820184536
0.0032999999999998586,-11.211587051430415
0.0022999999999999687,-11.691174182084664
0.0012999999999998568,-12.12831997374296
0.00029999999999996696,-12.520195003805576
-0.000700000000000145,-12.869628694872238
-0.0017000000000000348,-13.261503724934855
-0.0027000000000001467,-13.610937416001518
-0.0037000000000000366,-13.916515056772363
-0.0047000000000001485,-14.217848563643619
-0.005700000000000038,-14.486643710617974
-0.00670000000000015,-14.741291744593681
-0.00770000000000004,-14.925204213576137
-0.008700000000000152,-15.094969569559943
-0.009700000000000042,-15.179852247551842
-0.010700000000000154,-15.264734925543747
-0.011700000000000044,-15.307176264539699
-0.012700000000000156,-15.3920589425316
-0.013700000000000045,-15.448647394526201
-0.014700000000000157,-15.618412750510005
-0.015700000000000047,-15.70329542850191
-0.01670000000000016,-15.830619445489761
-0.01770000000000005,-15.972090575476265
-0.01870000000000016,-16.141855931460068
-0.01970000000000005,-16.22673860945197
-0.020700000000000163,-16.311621287443874
-0.021700000000000053,-16.311621287443874
-0.022700000000000164,-16.269179948447924
-0.023700000000000054,-16.269179948447924
-0.024700000000000166,-16.22673860945197
-0.025700000000000056,-16.184297270456018
-0.026700000000000168,-16.184297270456018
-0.027700000000000058,-16.22673860945197
-0.02870000000000017,-16.269179948447924
-0.02970000000000006,-16.311621287443874
-0.03070000000000017,-16.396503965435777
-0.03170000000000006,-16.53797509542228
-0.03270000000000017,-16.580416434418233
-0.03370000000000006,-16.622857773414182
-0.034700000000000175,-16.622857773414182
-0.035700000000000065,-16.622857773414182
-0.03670000000000018,-16.53797509542228
-0.03770000000000007,-16.495533756426326
-0.03870000000000018,-16.396503965435777
-0.03970000000000007,-16.354062626439823
-0.04070000000000018,-16.354062626439823
-0.04170000000000007,-16.396503965435777
-0.04270000000000018,-16.438945304431726
-0.04370000000000007,-16.53797509542228
-0.044700000000000184,-16.580416434418233
-0.045700000000000074,-16.70774045140608
-0.046700000000000186,-16.750181790402035
-0.047700000000000076,-16.792623129397985
-0.04870000000000019,-16.792623129397985
-0.04970000000000008,-16.792623129397985
-0.05070000000000019,-16.70774045140608
-0.05170000000000008,-16.665299112410132
-0.05270000000000019,-16.622857773414182
-0.05370000000000008,-16.580416434418233
-0.05470000000000019,-16.622857773414182
-0.05570000000000008,-16.665299112410132
-0.056700000000000195,-16.70774045140608
-0.057700000000000085,-16.750181790402035
-0.058700000000000196,-16.835064468393938
-0.059700000000000086,-16.835064468393938
-0.0607000000000002,-16.835064468393938
-0.06170000000000009,-16.792623129397985
-0.0627000000000002,-16.70774045140608
-0.06370000000000009,-16.665299112410132
-0.0647000000000002,-16.580416434418233
-0.06570000000000009,-16.495533756426326
-0.0667000000000002,-16.495533756426326
-0.0677000000000001,-16.495533756426326
-0.0687000000000002,-16.53797509542228
-0.0697000000000001,-16.580416434418233
-0.07070000000000021,-16.665299112410132
-0.0717000000000001,-16.750181790402035
-0.07270000000000021,-16.792623129397985
-0.0737000000000001,-16.835064468393938
-0.07470000000000021,-16.835064468393938
-0.0757000000000001,-16.835064468393938
-0.07670000000000021,-16.792623129397985
-0.0777000000000001,-16.750181790402035
-0.07870000000000021,-16.665299112410132
-0.0797000000000001,-16.622857773414182
-0.08070000000000022,-16.622857773414182
-0.0817000000000001,-16.622857773414182
-0.08270000000000022,-16.665299112410132
-0.08370000000000011,-16.750181790402035
-0.08470000000000022,-16.792623129397985
-0.08570000000000011,-16.877505807389888
-0.08670000000000022,-16.877505807389888
-0.08770000000000011,-16.919947146385837
-0.08870000000000022,-16.877505807389888
-0.08970000000000011,-16.835064468393938
-0.09070000000000022,-16.750181790402035
-0.09170000000000011,-16.70774045140608
-0.09270000000000023,-16.665299112410132
-0.09370000000000012,-16.665299112410132
-0.09470000000000023,-16.665299112410132
-0.09570000000000012,-16.70774045140608
-0.09670000000000023,-16.750181790402035
-0.09770000000000012,-16.792623129397985
-0.09870000000000023,-16.877505807389888
-0.09970000000000012,-16.919947146385837
-0.10070000000000023,-16.919947146385837
-0.10170000000000012,-16.919947146385837
-0.10270000000000024,-16.877505807389888
-0.10370000000000013,-16.835064468393938
-0.10470000000000024,-16.792623129397985
-0.10570000000000013,-16.70774045140608
-0.10670000000000024,-16.70774045140608
-0.10770000000000013,-16.70774045140608
-0.10870000000000024,-16.750181790402035
-0.10970000000000013,-16.792623129397985
-0.11070000000000024,-16.877505807389888
-0.11170000000000013,-16.919947146385837
-0.11270000000000002,-16.962388485381787
-0.11370000000000013,-17.018976937376394
-0.11470000000000002,-17.018976937376394
-0.11570000000000014,-17.018976937376394
-0.11670000000000003,-16.919947146385837
-0.11770000000000014,-16.877505807389888
-0.11870000000000003,-16.792623129397985
-0.11970000000000014,-16.792623129397985
-0.12070000000000003,-16.750181790402035
-0.12170000000000014,-16.792623129397985
-0.12270000000000003,-16.835064468393938
-0.12370000000000014,-16.877505807389888
-0.12470000000000003,-16.919947146385837
-0.12570000000000014,-16.962388485381787
-0.12670000000000003,-17.018976937376394
-0.12770000000000015,-17.061418276372343
-0.12870000000000004,-17.061418276372343
-0.12970000000000015,-17.018976937376394
-0.13070000000000004,-16.962388485381787
-0.13170000000000015,-16.877505807389888
-0.13270000000000004,-16.877505807389888
-0.13370000000000015,-16.835064468393938
-0.13470000000000004,-16.877505807389888
-0.13570000000000015,-16.919947146385837
-0.13670000000000004,-17.018976937376394
-0.13770000000000016,-17.061418276372343
-0.13870000000000005,-17.146300954364243
-0.13970000000000016,-17.146300954364243
-0.14070000000000005,-17.188742293360193
-0.14170000000000016,-17.188742293360193
-0.14270000000000005,-17.146300954364243
-0.14370000000000016,-17.103859615368293
-0.14470000000000005,-17.103859615368293
-0.14570000000000016,-17.061418276372343
-0.14670000000000005,-17.018976937376394
-0.14770000000000016,-17.061418276372343
-0.14870000000000005,-17.061418276372343
-0.14970000000000017,-17.103859615368293
-0.15070000000000006,-17.188742293360193
-0.15170000000000017,-17.316066310348052
-0.15270000000000006,-17.358507649344002
-0.15370000000000017,-17.40094898833995
-0.15470000000000006,-17.40094898833995
-0.15570000000000017,-17.40094898833995
-0.15670000000000006,-17.358507649344002
-0.15770000000000017,-17.358507649344002
-0.15870000000000006,-17.2736249713521
-0.15970000000000018,-17.2736249713521
-0.16070000000000007,-17.2736249713521
-0.16170000000000018,-17.316066310348052
-0.16270000000000007,-17.358507649344002
-0.16370000000000018,-17.4433903273359
-0.16470000000000007,-17.584861457322408
-0.16570000000000018,-17.669744135314307
-0.16670000000000007,-17.71218547431026
-0.16770000000000018,-17.75462681330621
-0.16870000000000007,-17.75462681330621
-0.16970000000000018,-17.75462681330621
-0.17070000000000007,-17.71218547431026
-0.17170000000000019,-17.669744135314307
-0.17270000000000008,-17.669744135314307
-0.1737000000000002,-17.669744135314307
-0.17470000000000008,-17.71218547431026
-0.1757000000000002,-17.797068152302163
-0.17670000000000008,-17.881950830294063
-0.1777000000000002,-17.966833508285966
-0.17870000000000008,-18.10830463827247
-0.1797000000000002,-18.19318731626437
-0.18070000000000008,-18.23562865526032
-0.1817000000000002,-18.27806999425627
-0.18270000000000008,-18.23562865526032
-0.1837000000000002,-18.23562865526032
-0.1847000000000001,-18.19318731626437
-0.1857000000000002,-18.19318731626437
-0.1867000000000001,-18.23562865526032
-0.1877000000000002,-18.27806999425627
-0.1887000000000001,-18.362952672248177
-0.1897000000000002,-18.44783535024008
-0.1907000000000001,-18.589306480226583
-0.1917000000000001,-18.716630497214435
-0.19269999999999998,-18.80151317520634
-0.1937000000000001,-18.88639585319824
-0.19469999999999998,-18.88639585319824
-0.1957000000000001,-18.97127853119014
-0.19669999999999999,-18.97127853119014
-0.1977000000000001,-18.97127853119014
-0.1987,-18.97127853119014
-0.1997000000000001,-18.97127853119014
-0.2007,-19.056161209182044
-0.2017000000000001,-19.155191000172596
-0.2027,-19.28251501716045
-0.2037000000000001,-19.409839034148305
-0.2047,-19.537163051136158
-0.2057000000000001,-19.678634181122664
-0.2067,-19.763516859114564
-0.2077000000000001,-19.890840876102416
-0.2087,-19.93328221509837
-0.2097000000000001,-19.97572355409432
-0.2107,-19.97572355409432
-0.2117000000000001,-20.01816489309027
-0.2127,-20.10304757108217
-0.2137000000000001,-20.159636023076775
-0.2147,-20.286960040064624
-0.2157000000000001,-20.456725396048434
-0.2167,-20.626490752032236
-0.21770000000000012,-20.76796188201874
-0.2187,-20.980168576998494
-0.21970000000000012,-21.107492593986347
-0.2207,-21.291405062968803
-0.22170000000000012,-21.376287740960702
-0.2227,-21.418729079956652
-0.22370000000000012,-21.503611757948562
-0.2247,-21.54605309694451
-0.22570000000000012,-21.63093577493641
-0.2267,-21.772406904922917
-0.22770000000000012,-21.857289582914817
-0.22870000000000001,-22.027054938898623
-0.22970000000000013,-22.196820294882425
-0.23070000000000002,-22.42317410286083
-0.23170000000000013,-22.63538079784059
-0.23270000000000002,-22.861734605818995
-0.23370000000000013,-23.031499961802798
-0.23470000000000002,-23.15882397879065
-0.23570000000000013,-23.300295108777156
-0.23670000000000002,-23.427619125765005
-0.2376999999999999,-23.55494314275286
-0.23870000000000002,-23.639825820744765
-0.2396999999999999,-23.767149837732617
-0.24070000000000003,-23.951062306715073
-0.24169999999999991,-24.16326900169483
-0.24270000000000003,-24.432064148669184
-0.24369999999999992,-24.64427084364894
-0.24470000000000003,-24.9130659906233
-0.24569999999999992,-25.167714024599
-0.24670000000000003,-25.39406783257741
-0.24769999999999992,-25.563833188561212
-0.24870000000000003,-25.77603988354097
-0.24969999999999992,-25.91751101352747
-0.25070000000000003,-26.087276369511276
-0.2516999999999999,-26.257041725495082
-0.25270000000000004,-26.440954194477534
-0.2536999999999999,-26.65316088945729
-0.25470000000000004,-26.907808923433
-0.2556999999999999,-27.219045409403304
-0.25670000000000004,-27.572723234369565
-0.25769999999999993,-27.869812607341224
-0.25870000000000004,-28.265931771303435
-0.25969999999999993,-28.577168257273744
-0.26070000000000004,-28.8742576302454
-0.26169999999999993,-29.18549411621571
-0.26270000000000004,-29.39770081119546
-0.26369999999999993,-29.66649595816982
-0.26470000000000005,-29.836261314153624
-0.26569999999999994,-30.10505646112798
-0.26670000000000005,-30.359704495103685
-0.26769999999999994,-30.670940981073993
-0.26870000000000005,-30.968030354045652
-0.26969999999999994,-31.321708179011907
-0.27070000000000005,-31.717827342974125
-0.27169999999999994,-32.09979939393769
-0.27270000000000005,-32.45347721890394
-0.27369999999999994,-32.84959638286615
-0.27470000000000006,-33.14668575583781
-0.27569999999999995,-33.45792224180811
-0.27670000000000006,-33.755011614779775
-0.27769999999999995,-34.10868943974604
-0.27870000000000006,-34.41992592571634
-0.27969999999999995,-34.75945663768395
-0.28070000000000006,-35.15557580164616
-0.28169999999999995,-35.594136304604326
-0.28270000000000006,-35.99025546856653
-0.28369999999999995,-36.47125731052064
-0.28470000000000006,-36.95225915247476
-0.28569999999999995,-37.376672542434264
-0.28670000000000007,-37.81523304539243
-0.28769999999999996,-38.253793548350586
-0.28870000000000007,-38.692354051308754
-0.28969999999999996,-39.046031876275016
-0.29070000000000007,-39.42800392723857
-0.29169999999999996,-39.82412309120078
-0.29270000000000007,-40.26268359415894
-0.29369999999999996,-40.743685436113054
-0.2947000000000001,-41.22468727806717
-0.29569999999999996,-41.74813045901723
-0.2967000000000001,-42.31401497896325
-0.29769999999999996,-42.92234083790521
-0.2987000000000001,-43.48822535785123
-0.29969999999999997,-44.011668538801295
-0.3007000000000001,-44.577553058747306
-0.30169999999999997,-45.05855490070142
-0.3027000000000001,-45.497115403659585
-0.30369999999999997,-45.97811724561369
-0.3047000000000001,-46.45911908756781
-0.30569999999999997,-46.94012092952192
-0.3067000000000001,-47.46356411047198
-0.3077,-47.987007291422046
-0.3087000000000001,-48.59533315036401
-0.3097,-49.20365900930597
-0.3107000000000001,-49.81198486824794
-0.3117,-50.46275206618586
-0.3127000000000001,-51.127666377122424
-0.3137,-51.77843357506035
-0.3147000000000001,-52.34431809500636
-0.3157,-52.995085292944275
-0.3167000000000001,-53.603411151886235
-0.3177,-54.16929567183226
-0.3187000000000001,-54.73518019177827
-0.3197,-55.357653163718886
-0.3207000000000001,-56.008420361656796
-0.3217,-56.65918755959472
-0.3227000000000001,-57.352396096528594
-0.3237,-58.05975174646111
-0.3247000000000001,-58.79540162239092
-0.3257,-59.502757272323436
-0.3267000000000001,-60.19596580925731
-0.3277,-60.84673300719523
-0.3287000000000001,-61.53994154412909
-0.3297,-62.16241451606972
-0.3307000000000001,-62.81318171400764
-0.3317,-63.46394891194555
-0.3327000000000001,-64.11471610988345
-0.3337,-64.82207175981598
-0.3347000000000001,-65.60016297474175
-0.3357,-66.34995996367022
-0.3367000000000001,-67.17049251759194
-0.3377,-68.0051721845123
-0.3387000000000001,-68.82570473843404
-0.3397,-69.6603844053544
-0.3407000000000001,-70.48091695927613
-0.3417,-71.27315528720055
-0.3427000000000001,-72.05124650212633
-0.3437,-72.84348483005074
-0.3447000000000001,-73.57913470598055
-0.3457,-74.37137303390499
-0.3467000000000001,-75.1070229098348
-0.3477,-75.8992612377592
-0.3487000000000001,-76.71979379168094
-0.3497,-77.59691479759726
-0.3507000000000001,-78.51647714250953
-0.3517,-79.42189237442317
-0.3527000000000001,-80.34145471933543
-0.3537,-81.21857572525175
-0.3547000000000001,-82.03910827917348
-0.3557,-82.87378794609386
-0.35670000000000013,-83.66602627401826
-0.3577,-84.44411748894404
-0.35870000000000013,-85.13732602587791
-0.3597,-85.97200569279828
-0.36070000000000013,-86.7076555687281
-0.3617,-87.58477657464444
-0.3626999999999999,-88.5043389195567
-0.3637,-89.46634260346492
-0.3646999999999999,-90.37175783537855
-0.3657,-91.33376151928677
-0.3666999999999999,-92.29576520319499
-0.3677,-93.25776888710321
-0.3686999999999999,-94.17733123201549
-0.36970000000000003,-95.04030512493317
-0.3706999999999999,-95.95986746984543
-0.37170000000000003,-96.87942981475771
-0.3726999999999999,-97.78484504667132
-0.37370000000000003,-98.74684873057957
-0.3746999999999999,-99.7937350924797
-0.37570000000000003,-100.84062145437981
-0.3766999999999999,-101.92994915527588
-0.37770000000000004,-103.01927685617197
-0.3786999999999999,-104.12275167006669
-0.37970000000000004,-105.16963803196683
-0.3806999999999999,-106.21652439386696
-0.38170000000000004,-107.16438096477653
-0.38269999999999993,-108.0839433096888
-0.38370000000000004,-109.04594699359701
-0.38469999999999993,-110.00795067750525
-0.38570000000000004,-110.92751302241753
-0.38669999999999993,-110.48895251945936
-0.38570000000000004,-107.87173661470905
-0.38469999999999993,-105.69308121291688
-0.38370000000000004,-103.7266325061045
-0.38269999999999993,-101.92994915527588
-0.38170000000000004,-100.35961961242569
-0.3806999999999999,-98.88831986056607
-0.37970000000000004,-97.4877556736997
-0.3786999999999999,-96.12963282582925
-0.37770000000000004,-94.87053976894937
-0.3766999999999999,-93.61144671206948
-0.37570000000000003,-92.3806478811869
-0.3746999999999999,-91.12155482430701
-0.37370000000000003,-89.98978578441499
-0.3726999999999999,-88.8438696315243
-0.37170000000000003,-87.71210059163228
-0.3706999999999999,-86.66521422973216
-0.36970000000000003,-85.57588652883607
-0.3686999999999999,-84.48655882793999
-0.3677,-83.43967246603985
-0.3666999999999999,-82.35034476514379
-0.3657,-81.26101706424771
-0.3646999999999999,-80.12924802435568
-0.3637,-78.99747898446365
-0.3626999999999999,-77.80912149257702
-0.3617,-76.63491111368903
-0.36070000000000013,-75.54558341279296
-0.3597,-74.45625571189689
-0.35870000000000013,-73.40936934999675
-0.3577,-72.40492432709259
-0.35670000000000013,-71.44292064318435
-0.3557,-70.48091695927613
-0.3547000000000001,-69.61794306635846
-0.3537,-68.65593938245023
-0.3527000000000001,-67.693935698542
-0.3517,-66.68949067563783
-0.3507000000000001,-65.68504565273366
-0.3497,-64.63815929083353
-0.3487000000000001,-63.633714267929356
-0.3477,-62.58682790602922
-0.3467000000000001,-61.63897133511965
-0.3457,-60.63452631221547
-0.3447000000000001,-59.67252262830725
-0.3437,-58.75296028339497
-0.3427000000000001,-57.8333979384827
-0.3417,-56.97042404556503
-0.3407000000000001,-56.05086170065276
-0.3397,-55.13129935574048
-0.3387000000000001,-54.2117370108282
-0.3377,-53.26388043991864
-0.3367000000000001,-52.30187675601041
-0.3357,-51.38231441109813
-0.3347000000000001,-50.42031072718991
-0.3337,-49.50074838227763
-0.3327000000000001,-48.63777448935996
-0.3317,-47.76065348344364
-0.3307000000000001,-46.982562268517874
-0.3297,-46.147882601597495
-0.3287000000000001,-45.36979138667173
-0.3277,-44.577553058747306
-0.3267000000000001,-43.79946184382153
-0.3257,-42.96478217690117
-0.3247000000000001,-42.087661170984845
-0.3237,-41.182245939071215
-0.3227000000000001,-40.30512493315489
-0.3217,-39.42800392723857
-0.3207000000000001,-38.5650300343209
-0.3197,-37.73035036740053
-0.3187000000000001,-36.89567070048016
-0.3177,-36.16002082455034
-0.3167000000000001,-35.38192960962457
-0.3157,-34.632132620696105
-0.3147000000000001,-33.93892408376223
-0.3137,-33.18912709483376
-0.3127000000000001,-32.49591855789989
-0.3117,-31.76026868197007
-0.3107000000000001,-30.968030354045652
-0.3097,-30.189939139119886
-0.3087000000000001,-29.39770081119546
-0.3077,-28.662050935265643
-0.3067000000000001,-27.869812607341224
-0.30569999999999997,-27.176604070407354
-0.3047000000000001,-26.483395533473487
-0.30369999999999997,-25.77603988354097
-0.3027000000000001,-25.12527268560305
-0.30169999999999997,-24.516946826661083
-0.3007000000000001,-23.86617962872317
-0.29969999999999997,-23.2012653177866
-0.2987000000000001,-22.508056780852733
-0.29769999999999996,-21.772406904922917
-0.2967000000000001,-21.065051254990397
-0.29569999999999996,-20.371842718056527
-0.2947000000000001,-19.636192842126707
-0.29369999999999996,-18.92883719219419
-0.29270000000000007,-18.23562865526032
-0.29169999999999996,-17.627302796318357
-0.29070000000000007,-17.103859615368293
-0.28969999999999996,-16.53797509542228
-0.28870000000000007,-16.014531914472215
-0.28769999999999996,-15.491088733522153
-0.28670000000000007,-14.925204213576137
-0.28569999999999995,-14.345172580631472
-0.28470000000000006,-13.741090855589102
-0.28369999999999995,-13.13135028534727
-0.28270000000000006,-12.520195003805576
-0.28169999999999995,-11.86659838326793
-0.28070000000000006,-11.255443101726232
-0.27969999999999995,-10.644287820184536
-0.27870000000000006,-10.120844639234473
-0.27769999999999995,-9.641257508580225
-0.27670000000000006,-9.11781432763016
-0.27569999999999995,-8.638227196975913
-0.27470000000000006,-8.202496116617484
-0.27369999999999994,-7.679052935667419
-0.27270000000000005,-7.199465805013171
-0.27169999999999994,-6.632166573767292
-0.27070000000000005,-6.064867342521412
-0.26969999999999994,-5.5414241615713475
-0.26870000000000005,-4.974124930325469
-0.26769999999999994,-4.450681749375406
