Dec. 17, 2024   10:00:47
Linear Sweep Voltammetry
File: c:/users/guazh/data/banditlqround7_x0exp667_r5/2024-12-16-exp679\post-regen1-2024-12-17t09_57_33-lsvinphos\post-regen1_lsv_50mvs_efin_-2300mv.bin
Data Source:  Experiment
Instrument Model:  CHI760E
Header: LSV ran at 50 mVs with Efin at -2300mV
Note: 

Init E (V) = -0.6
Final E (V) = -2.3
Scan Rate (V/s) = 0.05
Sample Interval (V) = 0.001
Quiet Time (sec) = 2
Sensitivity (A/V) = 1e-4
Comp R (ohm) = 8.5

Results:

Channel 1:
Ep = -1.846V
ip = 9.179e-4A
Ah = 1.019e-3C

Potential/V, Current/A

-0.600, 3.563e-6
-0.601, 3.661e-6
-0.602, 3.699e-6
-0.603, 3.731e-6
-0.604, 3.765e-6
-0.605, 3.795e-6
-0.606, 3.821e-6
-0.607, 3.846e-6
-0.608, 3.873e-6
-0.609, 3.906e-6
-0.610, 3.935e-6
-0.611, 3.960e-6
-0.612, 3.986e-6
-0.613, 4.012e-6
-0.614, 4.046e-6
-0.615, 4.076e-6
-0.616, 4.100e-6
-0.617, 4.127e-6
-0.618, 4.154e-6
-0.619, 4.185e-6
-0.620, 4.215e-6
-0.621, 4.241e-6
-0.622, 4.266e-6
-0.623, 4.295e-6
-0.624, 4.328e-6
-0.625, 4.360e-6
-0.626, 4.385e-6
-0.627, 4.415e-6
-0.628, 4.444e-6
-0.629, 4.478e-6
-0.630, 4.515e-6
-0.631, 4.542e-6
-0.632, 4.570e-6
-0.633, 4.599e-6
-0.634, 4.635e-6
-0.635, 4.671e-6
-0.636, 4.701e-6
-0.637, 4.730e-6
-0.638, 4.762e-6
-0.639, 4.798e-6
-0.640, 4.835e-6
-0.641, 4.864e-6
-0.642, 4.893e-6
-0.643, 4.925e-6
-0.644, 4.962e-6
-0.645, 4.999e-6
-0.646, 5.032e-6
-0.647, 5.063e-6
-0.648, 5.096e-6
-0.649, 5.133e-6
-0.650, 5.172e-6
-0.651, 5.205e-6
-0.652, 5.235e-6
-0.653, 5.270e-6
-0.654, 5.310e-6
-0.655, 5.349e-6
-0.656, 5.381e-6
-0.657, 5.414e-6
-0.658, 5.447e-6
-0.659, 5.487e-6
-0.660, 5.529e-6
-0.661, 5.562e-6
-0.662, 5.595e-6
-0.663, 5.631e-6
-0.664, 5.671e-6
-0.665, 5.711e-6
-0.666, 5.749e-6
-0.667, 5.783e-6
-0.668, 5.819e-6
-0.669, 5.858e-6
-0.670, 5.899e-6
-0.671, 5.932e-6
-0.672, 5.965e-6
-0.673, 6.002e-6
-0.674, 6.042e-6
-0.675, 6.085e-6
-0.676, 6.119e-6
-0.677, 6.153e-6
-0.678, 6.188e-6
-0.679, 6.228e-6
-0.680, 6.269e-6
-0.681, 6.306e-6
-0.682, 6.340e-6
-0.683, 6.377e-6
-0.684, 6.419e-6
-0.685, 6.461e-6
-0.686, 6.496e-6
-0.687, 6.530e-6
-0.688, 6.569e-6
-0.689, 6.610e-6
-0.690, 6.649e-6
-0.691, 6.687e-6
-0.692, 6.722e-6
-0.693, 6.755e-6
-0.694, 6.798e-6
-0.695, 6.839e-6
-0.696, 6.876e-6
-0.697, 6.908e-6
-0.698, 6.943e-6
-0.699, 6.985e-6
-0.700, 7.025e-6
-0.701, 7.061e-6
-0.702, 7.093e-6
-0.703, 7.128e-6
-0.704, 7.168e-6
-0.705, 7.207e-6
-0.706, 7.241e-6
-0.707, 7.274e-6
-0.708, 7.306e-6
-0.709, 7.344e-6
-0.710, 7.382e-6
-0.711, 7.416e-6
-0.712, 7.447e-6
-0.713, 7.479e-6
-0.714, 7.516e-6
-0.715, 7.552e-6
-0.716, 7.587e-6
-0.717, 7.616e-6
-0.718, 7.646e-6
-0.719, 7.682e-6
-0.720, 7.719e-6
-0.721, 7.748e-6
-0.722, 7.776e-6
-0.723, 7.806e-6
-0.724, 7.840e-6
-0.725, 7.873e-6
-0.726, 7.902e-6
-0.727, 7.928e-6
-0.728, 7.957e-6
-0.729, 7.986e-6
-0.730, 8.019e-6
-0.731, 8.047e-6
-0.732, 8.071e-6
-0.733, 8.096e-6
-0.734, 8.126e-6
-0.735, 8.156e-6
-0.736, 8.182e-6
-0.737, 8.205e-6
-0.738, 8.228e-6
-0.739, 8.256e-6
-0.740, 8.286e-6
-0.741, 8.306e-6
-0.742, 8.327e-6
-0.743, 8.348e-6
-0.744, 8.371e-6
-0.745, 8.397e-6
-0.746, 8.417e-6
-0.747, 8.436e-6
-0.748, 8.456e-6
-0.749, 8.477e-6
-0.750, 8.501e-6
-0.751, 8.518e-6
-0.752, 8.533e-6
-0.753, 8.551e-6
-0.754, 8.569e-6
-0.755, 8.591e-6
-0.756, 8.606e-6
-0.757, 8.617e-6
-0.758, 8.630e-6
-0.759, 8.647e-6
-0.760, 8.666e-6
-0.761, 8.680e-6
-0.762, 8.689e-6
-0.763, 8.701e-6
-0.764, 8.715e-6
-0.765, 8.731e-6
-0.766, 8.743e-6
-0.767, 8.752e-6
-0.768, 8.763e-6
-0.769, 8.775e-6
-0.770, 8.790e-6
-0.771, 8.798e-6
-0.772, 8.803e-6
-0.773, 8.808e-6
-0.774, 8.817e-6
-0.775, 8.829e-6
-0.776, 8.835e-6
-0.777, 8.839e-6
-0.778, 8.841e-6
-0.779, 8.847e-6
-0.780, 8.857e-6
-0.781, 8.861e-6
-0.782, 8.861e-6
-0.783, 8.863e-6
-0.784, 8.865e-6
-0.785, 8.872e-6
-0.786, 8.873e-6
-0.787, 8.873e-6
-0.788, 8.871e-6
-0.789, 8.876e-6
-0.790, 8.882e-6
-0.791, 8.881e-6
-0.792, 8.880e-6
-0.793, 8.879e-6
-0.794, 8.882e-6
-0.795, 8.887e-6
-0.796, 8.887e-6
-0.797, 8.881e-6
-0.798, 8.879e-6
-0.799, 8.878e-6
-0.800, 8.882e-6
-0.801, 8.881e-6
-0.802, 8.875e-6
-0.803, 8.872e-6
-0.804, 8.872e-6
-0.805, 8.872e-6
-0.806, 8.870e-6
-0.807, 8.864e-6
-0.808, 8.859e-6
-0.809, 8.859e-6
-0.810, 8.857e-6
-0.811, 8.854e-6
-0.812, 8.850e-6
-0.813, 8.845e-6
-0.814, 8.843e-6
-0.815, 8.842e-6
-0.816, 8.837e-6
-0.817, 8.831e-6
-0.818, 8.823e-6
-0.819, 8.824e-6
-0.820, 8.826e-6
-0.821, 8.821e-6
-0.822, 8.812e-6
-0.823, 8.803e-6
-0.824, 8.798e-6
-0.825, 8.796e-6
-0.826, 8.793e-6
-0.827, 8.785e-6
-0.828, 8.777e-6
-0.829, 8.771e-6
-0.830, 8.769e-6
-0.831, 8.763e-6
-0.832, 8.754e-6
-0.833, 8.745e-6
-0.834, 8.737e-6
-0.835, 8.737e-6
-0.836, 8.731e-6
-0.837, 8.721e-6
-0.838, 8.711e-6
-0.839, 8.706e-6
-0.840, 8.702e-6
-0.841, 8.698e-6
-0.842, 8.688e-6
-0.843, 8.678e-6
-0.844, 8.675e-6
-0.845, 8.672e-6
-0.846, 8.667e-6
-0.847, 8.656e-6
-0.848, 8.647e-6
-0.849, 8.641e-6
-0.850, 8.639e-6
-0.851, 8.634e-6
-0.852, 8.624e-6
-0.853, 8.613e-6
-0.854, 8.611e-6
-0.855, 8.608e-6
-0.856, 8.604e-6
-0.857, 8.595e-6
-0.858, 8.584e-6
-0.859, 8.581e-6
-0.860, 8.581e-6
-0.861, 8.576e-6
-0.862, 8.566e-6
-0.863, 8.556e-6
-0.864, 8.550e-6
-0.865, 8.549e-6
-0.866, 8.543e-6
-0.867, 8.533e-6
-0.868, 8.523e-6
-0.869, 8.518e-6
-0.870, 8.517e-6
-0.871, 8.516e-6
-0.872, 8.504e-6
-0.873, 8.495e-6
-0.874, 8.488e-6
-0.875, 8.484e-6
-0.876, 8.479e-6
-0.877, 8.467e-6
-0.878, 8.459e-6
-0.879, 8.452e-6
-0.880, 8.446e-6
-0.881, 8.444e-6
-0.882, 8.434e-6
-0.883, 8.424e-6
-0.884, 8.419e-6
-0.885, 8.418e-6
-0.886, 8.416e-6
-0.887, 8.404e-6
-0.888, 8.394e-6
-0.889, 8.391e-6
-0.890, 8.391e-6
-0.891, 8.386e-6
-0.892, 8.375e-6
-0.893, 8.369e-6
-0.894, 8.362e-6
-0.895, 8.359e-6
-0.896, 8.358e-6
-0.897, 8.349e-6
-0.898, 8.338e-6
-0.899, 8.331e-6
-0.900, 8.329e-6
-0.901, 8.325e-6
-0.902, 8.319e-6
-0.903, 8.311e-6
-0.904, 8.305e-6
-0.905, 8.304e-6
-0.906, 8.301e-6
-0.907, 8.294e-6
-0.908, 8.284e-6
-0.909, 8.280e-6
-0.910, 8.279e-6
-0.911, 8.275e-6
-0.912, 8.267e-6
-0.913, 8.261e-6
-0.914, 8.255e-6
-0.915, 8.255e-6
-0.916, 8.251e-6
-0.917, 8.243e-6
-0.918, 8.239e-6
-0.919, 8.233e-6
-0.920, 8.231e-6
-0.921, 8.230e-6
-0.922, 8.221e-6
-0.923, 8.217e-6
-0.924, 8.211e-6
-0.925, 8.210e-6
-0.926, 8.212e-6
-0.927, 8.207e-6
-0.928, 8.203e-6
-0.929, 8.193e-6
-0.930, 8.192e-6
-0.931, 8.190e-6
-0.932, 8.183e-6
-0.933, 8.174e-6
-0.934, 8.176e-6
-0.935, 8.175e-6
-0.936, 8.172e-6
-0.937, 8.168e-6
-0.938, 8.162e-6
-0.939, 8.161e-6
-0.940, 8.161e-6
-0.941, 8.162e-6
-0.942, 8.157e-6
-0.943, 8.150e-6
-0.944, 8.147e-6
-0.945, 8.147e-6
-0.946, 8.148e-6
-0.947, 8.142e-6
-0.948, 8.138e-6
-0.949, 8.134e-6
-0.950, 8.134e-6
-0.951, 8.134e-6
-0.952, 8.130e-6
-0.953, 8.123e-6
-0.954, 8.121e-6
-0.955, 8.123e-6
-0.956, 8.123e-6
-0.957, 8.123e-6
-0.958, 8.121e-6
-0.959, 8.117e-6
-0.960, 8.121e-6
-0.961, 8.128e-6
-0.962, 8.126e-6
-0.963, 8.123e-6
-0.964, 8.126e-6
-0.965, 8.129e-6
-0.966, 8.134e-6
-0.967, 8.134e-6
-0.968, 8.134e-6
-0.969, 8.128e-6
-0.970, 8.134e-6
-0.971, 8.138e-6
-0.972, 8.135e-6
-0.973, 8.134e-6
-0.974, 8.129e-6
-0.975, 8.127e-6
-0.976, 8.129e-6
-0.977, 8.128e-6
-0.978, 8.127e-6
-0.979, 8.123e-6
-0.980, 8.127e-6
-0.981, 8.129e-6
-0.982, 8.127e-6
-0.983, 8.126e-6
-0.984, 8.120e-6
-0.985, 8.124e-6
-0.986, 8.128e-6
-0.987, 8.127e-6
-0.988, 8.128e-6
-0.989, 8.128e-6
-0.990, 8.131e-6
-0.991, 8.134e-6
-0.992, 8.138e-6
-0.993, 8.132e-6
-0.994, 8.126e-6
-0.995, 8.129e-6
-0.996, 8.131e-6
-0.997, 8.133e-6
-0.998, 8.138e-6
-0.999, 8.136e-6
-1.000, 8.140e-6
-1.001, 8.147e-6
-1.002, 8.141e-6
-1.003, 8.141e-6
-1.004, 8.139e-6
-1.005, 8.137e-6
-1.006, 8.134e-6
-1.007, 8.128e-6
-1.008, 8.130e-6
-1.009, 8.130e-6
-1.010, 8.136e-6
-1.011, 8.144e-6
-1.012, 8.138e-6
-1.013, 8.131e-6
-1.014, 8.134e-6
-1.015, 8.132e-6
-1.016, 8.122e-6
-1.017, 8.130e-6
-1.018, 8.130e-6
-1.019, 8.136e-6
-1.020, 8.142e-6
-1.021, 8.146e-6
-1.022, 8.151e-6
-1.023, 8.150e-6
-1.024, 8.147e-6
-1.025, 8.153e-6
-1.026, 8.161e-6
-1.027, 8.162e-6
-1.028, 8.153e-6
-1.029, 8.148e-6
-1.030, 8.160e-6
-1.031, 8.165e-6
-1.032, 8.168e-6
-1.033, 8.160e-6
-1.034, 8.152e-6
-1.035, 8.160e-6
-1.036, 8.166e-6
-1.037, 8.162e-6
-1.038, 8.160e-6
-1.039, 8.160e-6
-1.040, 8.166e-6
-1.041, 8.183e-6
-1.042, 8.180e-6
-1.043, 8.181e-6
-1.044, 8.186e-6
-1.045, 8.182e-6
-1.046, 8.195e-6
-1.047, 8.205e-6
-1.048, 8.195e-6
-1.049, 8.190e-6
-1.050, 8.189e-6
-1.051, 8.194e-6
-1.052, 8.190e-6
-1.053, 8.184e-6
-1.054, 8.187e-6
-1.055, 8.195e-6
-1.056, 8.202e-6
-1.057, 8.201e-6
-1.058, 8.198e-6
-1.059, 8.198e-6
-1.060, 8.207e-6
-1.061, 8.201e-6
-1.062, 8.203e-6
-1.063, 8.204e-6
-1.064, 8.204e-6
-1.065, 8.202e-6
-1.066, 8.199e-6
-1.067, 8.211e-6
-1.068, 8.208e-6
-1.069, 8.209e-6
-1.070, 8.211e-6
-1.071, 8.215e-6
-1.072, 8.208e-6
-1.073, 8.197e-6
-1.074, 8.202e-6
-1.075, 8.214e-6
-1.076, 8.222e-6
-1.077, 8.217e-6
-1.078, 8.219e-6
-1.079, 8.214e-6
-1.080, 8.213e-6
-1.081, 8.227e-6
-1.082, 8.253e-6
-1.083, 8.260e-6
-1.084, 8.245e-6
-1.085, 8.246e-6
-1.086, 8.243e-6
-1.087, 8.238e-6
-1.088, 8.248e-6
-1.089, 8.264e-6
-1.090, 8.268e-6
-1.091, 8.263e-6
-1.092, 8.269e-6
-1.093, 8.278e-6
-1.094, 8.298e-6
-1.095, 8.309e-6
-1.096, 8.290e-6
-1.097, 8.298e-6
-1.098, 8.292e-6
-1.099, 8.281e-6
-1.100, 8.307e-6
-1.101, 8.313e-6
-1.102, 8.298e-6
-1.103, 8.286e-6
-1.104, 8.286e-6
-1.105, 8.309e-6
-1.106, 8.313e-6
-1.107, 8.313e-6
-1.108, 8.308e-6
-1.109, 8.310e-6
-1.110, 8.317e-6
-1.111, 8.314e-6
-1.112, 8.296e-6
-1.113, 8.284e-6
-1.114, 8.292e-6
-1.115, 8.302e-6
-1.116, 8.298e-6
-1.117, 8.293e-6
-1.118, 8.293e-6
-1.119, 8.292e-6
-1.120, 8.295e-6
-1.121, 8.296e-6
-1.122, 8.310e-6
-1.123, 8.309e-6
-1.124, 8.284e-6
-1.125, 8.283e-6
-1.126, 8.314e-6
-1.127, 8.336e-6
-1.128, 8.335e-6
-1.129, 8.322e-6
-1.130, 8.312e-6
-1.131, 8.292e-6
-1.132, 8.304e-6
-1.133, 8.291e-6
-1.134, 8.286e-6
-1.135, 8.314e-6
-1.136, 8.339e-6
-1.137, 8.324e-6
-1.138, 8.322e-6
-1.139, 8.328e-6
-1.140, 8.343e-6
-1.141, 8.356e-6
-1.142, 8.379e-6
-1.143, 8.402e-6
-1.144, 8.411e-6
-1.145, 8.392e-6
-1.146, 8.381e-6
-1.147, 8.381e-6
-1.148, 8.391e-6
-1.149, 8.399e-6
-1.150, 8.403e-6
-1.151, 8.407e-6
-1.152, 8.410e-6
-1.153, 8.398e-6
-1.154, 8.388e-6
-1.155, 8.401e-6
-1.156, 8.390e-6
-1.157, 8.396e-6
-1.158, 8.406e-6
-1.159, 8.393e-6
-1.160, 8.393e-6
-1.161, 8.415e-6
-1.162, 8.439e-6
-1.163, 8.447e-6
-1.164, 8.455e-6
-1.165, 8.463e-6
-1.166, 8.449e-6
-1.167, 8.459e-6
-1.168, 8.455e-6
-1.169, 8.465e-6
-1.170, 8.477e-6
-1.171, 8.487e-6
-1.172, 8.502e-6
-1.173, 8.484e-6
-1.174, 8.500e-6
-1.175, 8.513e-6
-1.176, 8.532e-6
-1.177, 8.534e-6
-1.178, 8.525e-6
-1.179, 8.511e-6
-1.180, 8.536e-6
-1.181, 8.560e-6
-1.182, 8.551e-6
-1.183, 8.532e-6
-1.184, 8.546e-6
-1.185, 8.564e-6
-1.186, 8.566e-6
-1.187, 8.556e-6
-1.188, 8.570e-6
-1.189, 8.573e-6
-1.190, 8.578e-6
-1.191, 8.590e-6
-1.192, 8.586e-6
-1.193, 8.597e-6
-1.194, 8.608e-6
-1.195, 8.628e-6
-1.196, 8.617e-6
-1.197, 8.597e-6
-1.198, 8.589e-6
-1.199, 8.598e-6
-1.200, 8.601e-6
-1.201, 8.624e-6
-1.202, 8.626e-6
-1.203, 8.636e-6
-1.204, 8.646e-6
-1.205, 8.652e-6
-1.206, 8.659e-6
-1.207, 8.660e-6
-1.208, 8.660e-6
-1.209, 8.668e-6
-1.210, 8.680e-6
-1.211, 8.702e-6
-1.212, 8.701e-6
-1.213, 8.685e-6
-1.214, 8.685e-6
-1.215, 8.699e-6
-1.216, 8.740e-6
-1.217, 8.751e-6
-1.218, 8.747e-6
-1.219, 8.758e-6
-1.220, 8.755e-6
-1.221, 8.768e-6
-1.222, 8.787e-6
-1.223, 8.804e-6
-1.224, 8.810e-6
-1.225, 8.820e-6
-1.226, 8.829e-6
-1.227, 8.859e-6
-1.228, 8.839e-6
-1.229, 8.817e-6
-1.230, 8.795e-6
-1.231, 8.810e-6
-1.232, 8.827e-6
-1.233, 8.804e-6
-1.234, 8.806e-6
-1.235, 8.817e-6
-1.236, 8.821e-6
-1.237, 8.830e-6
-1.238, 8.839e-6
-1.239, 8.854e-6
-1.240, 8.883e-6
-1.241, 8.901e-6
-1.242, 8.924e-6
-1.243, 8.908e-6
-1.244, 8.905e-6
-1.245, 8.925e-6
-1.246, 8.910e-6
-1.247, 8.909e-6
-1.248, 8.943e-6
-1.249, 8.958e-6
-1.250, 8.959e-6
-1.251, 8.970e-6
-1.252, 8.997e-6
-1.253, 9.021e-6
-1.254, 9.046e-6
-1.255, 9.028e-6
-1.256, 9.016e-6
-1.257, 9.019e-6
-1.258, 9.037e-6
-1.259, 9.022e-6
-1.260, 9.028e-6
-1.261, 9.032e-6
-1.262, 9.043e-6
-1.263, 9.033e-6
-1.264, 9.034e-6
-1.265, 9.036e-6
-1.266, 9.057e-6
-1.267, 9.071e-6
-1.268, 9.075e-6
-1.269, 9.071e-6
-1.270, 9.085e-6
-1.271, 9.113e-6
-1.272, 9.106e-6
-1.273, 9.127e-6
-1.274, 9.128e-6
-1.275, 9.139e-6
-1.276, 9.123e-6
-1.277, 9.125e-6
-1.278, 9.141e-6
-1.279, 9.143e-6
-1.280, 9.154e-6
-1.281, 9.174e-6
-1.282, 9.192e-6
-1.283, 9.189e-6
-1.284, 9.215e-6
-1.285, 9.231e-6
-1.286, 9.247e-6
-1.287, 9.246e-6
-1.288, 9.255e-6
-1.289, 9.266e-6
-1.290, 9.250e-6
-1.291, 9.235e-6
-1.292, 9.267e-6
-1.293, 9.290e-6
-1.294, 9.295e-6
-1.295, 9.298e-6
-1.296, 9.318e-6
-1.297, 9.322e-6
-1.298, 9.317e-6
-1.299, 9.346e-6
-1.300, 9.360e-6
-1.301, 9.392e-6
-1.302, 9.427e-6
-1.303, 9.428e-6
-1.304, 9.453e-6
-1.305, 9.467e-6
-1.306, 9.486e-6
-1.307, 9.511e-6
-1.308, 9.528e-6
-1.309, 9.530e-6
-1.310, 9.507e-6
-1.311, 9.532e-6
-1.312, 9.539e-6
-1.313, 9.534e-6
-1.314, 9.558e-6
-1.315, 9.577e-6
-1.316, 9.591e-6
-1.317, 9.587e-6
-1.318, 9.589e-6
-1.319, 9.591e-6
-1.320, 9.583e-6
-1.321, 9.595e-6
-1.322, 9.612e-6
-1.323, 9.631e-6
-1.324, 9.643e-6
-1.325, 9.688e-6
-1.326, 9.746e-6
-1.327, 9.765e-6
-1.328, 9.763e-6
-1.329, 9.785e-6
-1.330, 9.786e-6
-1.331, 9.791e-6
-1.332, 9.813e-6
-1.333, 9.844e-6
-1.334, 9.791e-6
-1.335, 9.791e-6
-1.336, 9.809e-6
-1.337, 9.806e-6
-1.338, 9.796e-6
-1.339, 9.805e-6
-1.340, 9.825e-6
-1.341, 9.853e-6
-1.342, 9.851e-6
-1.343, 9.851e-6
-1.344, 9.845e-6
-1.345, 9.871e-6
-1.346, 9.905e-6
-1.347, 9.930e-6
-1.348, 9.939e-6
-1.349, 9.931e-6
-1.350, 9.933e-6
-1.351, 9.971e-6
-1.352, 1.000e-5
-1.353, 1.002e-5
-1.354, 1.001e-5
-1.355, 1.003e-5
-1.356, 1.006e-5
-1.357, 1.008e-5
-1.358, 1.012e-5
-1.359, 1.014e-5
-1.360, 1.015e-5
-1.361, 1.017e-5
-1.362, 1.019e-5
-1.363, 1.020e-5
-1.364, 1.022e-5
-1.365, 1.023e-5
-1.366, 1.026e-5
-1.367, 1.028e-5
-1.368, 1.030e-5
-1.369, 1.032e-5
-1.370, 1.035e-5
-1.371, 1.037e-5
-1.372, 1.040e-5
-1.373, 1.040e-5
-1.374, 1.040e-5
-1.375, 1.042e-5
-1.376, 1.046e-5
-1.377, 1.050e-5
-1.378, 1.055e-5
-1.379, 1.059e-5
-1.380, 1.056e-5
-1.381, 1.060e-5
-1.382, 1.062e-5
-1.383, 1.064e-5
-1.384, 1.066e-5
-1.385, 1.070e-5
-1.386, 1.074e-5
-1.387, 1.078e-5
-1.388, 1.080e-5
-1.389, 1.083e-5
-1.390, 1.085e-5
-1.391, 1.091e-5
-1.392, 1.091e-5
-1.393, 1.092e-5
-1.394, 1.094e-5
-1.395, 1.094e-5
-1.396, 1.095e-5
-1.397, 1.095e-5
-1.398, 1.095e-5
-1.399, 1.097e-5
-1.400, 1.101e-5
-1.401, 1.103e-5
-1.402, 1.106e-5
-1.403, 1.113e-5
-1.404, 1.113e-5
-1.405, 1.116e-5
-1.406, 1.117e-5
-1.407, 1.119e-5
-1.408, 1.123e-5
-1.409, 1.124e-5
-1.410, 1.125e-5
-1.411, 1.130e-5
-1.412, 1.135e-5
-1.413, 1.135e-5
-1.414, 1.136e-5
-1.415, 1.139e-5
-1.416, 1.144e-5
-1.417, 1.148e-5
-1.418, 1.148e-5
-1.419, 1.148e-5
-1.420, 1.151e-5
-1.421, 1.154e-5
-1.422, 1.156e-5
-1.423, 1.159e-5
-1.424, 1.158e-5
-1.425, 1.158e-5
-1.426, 1.165e-5
-1.427, 1.165e-5
-1.428, 1.164e-5
-1.429, 1.166e-5
-1.430, 1.169e-5
-1.431, 1.173e-5
-1.432, 1.178e-5
-1.433, 1.181e-5
-1.434, 1.186e-5
-1.435, 1.187e-5
-1.436, 1.191e-5
-1.437, 1.195e-5
-1.438, 1.200e-5
-1.439, 1.205e-5
-1.440, 1.207e-5
-1.441, 1.207e-5
-1.442, 1.208e-5
-1.443, 1.210e-5
-1.444, 1.211e-5
-1.445, 1.210e-5
-1.446, 1.213e-5
-1.447, 1.219e-5
-1.448, 1.222e-5
-1.449, 1.223e-5
-1.450, 1.226e-5
-1.451, 1.232e-5
-1.452, 1.237e-5
-1.453, 1.238e-5
-1.454, 1.238e-5
-1.455, 1.242e-5
-1.456, 1.244e-5
-1.457, 1.250e-5
-1.458, 1.254e-5
-1.459, 1.254e-5
-1.460, 1.259e-5
-1.461, 1.263e-5
-1.462, 1.266e-5
-1.463, 1.268e-5
-1.464, 1.266e-5
-1.465, 1.272e-5
-1.466, 1.279e-5
-1.467, 1.286e-5
-1.468, 1.290e-5
-1.469, 1.297e-5
-1.470, 1.292e-5
-1.471, 1.292e-5
-1.472, 1.298e-5
-1.473, 1.302e-5
-1.474, 1.305e-5
-1.475, 1.306e-5
-1.476, 1.312e-5
-1.477, 1.316e-5
-1.478, 1.318e-5
-1.479, 1.321e-5
-1.480, 1.322e-5
-1.481, 1.326e-5
-1.482, 1.327e-5
-1.483, 1.330e-5
-1.484, 1.336e-5
-1.485, 1.338e-5
-1.486, 1.339e-5
-1.487, 1.342e-5
-1.488, 1.350e-5
-1.489, 1.355e-5
-1.490, 1.357e-5
-1.491, 1.364e-5
-1.492, 1.366e-5
-1.493, 1.371e-5
-1.494, 1.376e-5
-1.495, 1.379e-5
-1.496, 1.383e-5
-1.497, 1.390e-5
-1.498, 1.395e-5
-1.499, 1.402e-5
-1.500, 1.410e-5
-1.501, 1.412e-5
-1.502, 1.418e-5
-1.503, 1.420e-5
-1.504, 1.423e-5
-1.505, 1.426e-5
-1.506, 1.430e-5
-1.507, 1.438e-5
-1.508, 1.445e-5
-1.509, 1.452e-5
-1.510, 1.456e-5
-1.511, 1.457e-5
-1.512, 1.462e-5
-1.513, 1.464e-5
-1.514, 1.466e-5
-1.515, 1.480e-5
-1.516, 1.506e-5
-1.517, 1.506e-5
-1.518, 1.509e-5
-1.519, 1.513e-5
-1.520, 1.519e-5
-1.521, 1.524e-5
-1.522, 1.527e-5
-1.523, 1.530e-5
-1.524, 1.536e-5
-1.525, 1.539e-5
-1.526, 1.541e-5
-1.527, 1.546e-5
-1.528, 1.548e-5
-1.529, 1.553e-5
-1.530, 1.562e-5
-1.531, 1.573e-5
-1.532, 1.578e-5
-1.533, 1.586e-5
-1.534, 1.590e-5
-1.535, 1.598e-5
-1.536, 1.608e-5
-1.537, 1.614e-5
-1.538, 1.617e-5
-1.539, 1.627e-5
-1.540, 1.634e-5
-1.541, 1.641e-5
-1.542, 1.650e-5
-1.543, 1.655e-5
-1.544, 1.659e-5
-1.545, 1.667e-5
-1.546, 1.677e-5
-1.547, 1.686e-5
-1.548, 1.691e-5
-1.549, 1.704e-5
-1.550, 1.709e-5
-1.551, 1.713e-5
-1.552, 1.720e-5
-1.553, 1.733e-5
-1.554, 1.740e-5
-1.555, 1.751e-5
-1.556, 1.761e-5
-1.557, 1.770e-5
-1.558, 1.779e-5
-1.559, 1.787e-5
-1.560, 1.795e-5
-1.561, 1.807e-5
-1.562, 1.816e-5
-1.563, 1.829e-5
-1.564, 1.837e-5
-1.565, 1.849e-5
-1.566, 1.861e-5
-1.567, 1.869e-5
-1.568, 1.880e-5
-1.569, 1.891e-5
-1.570, 1.902e-5
-1.571, 1.909e-5
-1.572, 1.920e-5
-1.573, 1.931e-5
-1.574, 1.940e-5
-1.575, 1.957e-5
-1.576, 1.976e-5
-1.577, 1.984e-5
-1.578, 1.996e-5
-1.579, 2.011e-5
-1.580, 2.022e-5
-1.581, 2.040e-5
-1.582, 2.056e-5
-1.583, 2.066e-5
-1.584, 2.081e-5
-1.585, 2.096e-5
-1.586, 2.109e-5
-1.587, 2.127e-5
-1.588, 2.143e-5
-1.589, 2.161e-5
-1.590, 2.180e-5
-1.591, 2.196e-5
-1.592, 2.212e-5
-1.593, 2.228e-5
-1.594, 2.244e-5
-1.595, 2.260e-5
-1.596, 2.278e-5
-1.597, 2.301e-5
-1.598, 2.317e-5
-1.599, 2.338e-5
-1.600, 2.359e-5
-1.601, 2.379e-5
-1.602, 2.401e-5
-1.603, 2.424e-5
-1.604, 2.446e-5
-1.605, 2.466e-5
-1.606, 2.488e-5
-1.607, 2.512e-5
-1.608, 2.537e-5
-1.609, 2.560e-5
-1.610, 2.582e-5
-1.611, 2.612e-5
-1.612, 2.640e-5
-1.613, 2.668e-5
-1.614, 2.694e-5
-1.615, 2.718e-5
-1.616, 2.746e-5
-1.617, 2.776e-5
-1.618, 2.804e-5
-1.619, 2.835e-5
-1.620, 2.866e-5
-1.621, 2.896e-5
-1.622, 2.931e-5
-1.623, 2.966e-5
-1.624, 2.997e-5
-1.625, 3.030e-5
-1.626, 3.061e-5
-1.627, 3.099e-5
-1.628, 3.142e-5
-1.629, 3.177e-5
-1.630, 3.212e-5
-1.631, 3.248e-5
-1.632, 3.290e-5
-1.633, 3.332e-5
-1.634, 3.376e-5
-1.635, 3.416e-5
-1.636, 3.459e-5
-1.637, 3.503e-5
-1.638, 3.549e-5
-1.639, 3.601e-5
-1.640, 3.649e-5
-1.641, 3.696e-5
-1.642, 3.744e-5
-1.643, 3.796e-5
-1.644, 3.847e-5
-1.645, 3.896e-5
-1.646, 3.953e-5
-1.647, 4.010e-5
-1.648, 4.066e-5
-1.649, 4.124e-5
-1.650, 4.181e-5
-1.651, 4.236e-5
-1.652, 4.299e-5
-1.653, 4.364e-5
-1.654, 4.426e-5
-1.655, 4.491e-5
-1.656, 4.556e-5
-1.657, 4.617e-5
-1.658, 4.686e-5
-1.659, 4.757e-5
-1.660, 4.819e-5
-1.661, 4.886e-5
-1.662, 4.959e-5
-1.663, 5.033e-5
-1.664, 5.106e-5
-1.665, 5.183e-5
-1.666, 5.258e-5
-1.667, 5.339e-5
-1.668, 5.416e-5
-1.669, 5.494e-5
-1.670, 5.579e-5
-1.671, 5.659e-5
-1.672, 5.742e-5
-1.673, 5.830e-5
-1.674, 5.918e-5
-1.675, 6.006e-5
-1.676, 6.094e-5
-1.677, 6.186e-5
-1.678, 6.281e-5
-1.679, 6.375e-5
-1.680, 6.470e-5
-1.681, 6.566e-5
-1.682, 6.669e-5
-1.683, 6.777e-5
-1.684, 6.877e-5
-1.685, 6.974e-5
-1.686, 7.079e-5
-1.687, 7.186e-5
-1.688, 7.297e-5
-1.689, 7.406e-5
-1.690, 7.515e-5
-1.691, 7.636e-5
-1.692, 7.750e-5
-1.693, 7.874e-5
-1.694, 7.995e-5
-1.695, 8.115e-5
-1.696, 8.241e-5
-1.697, 8.371e-5
-1.698, 8.503e-5
-1.699, 8.639e-5
-1.700, 8.775e-5
-1.701, 8.910e-5
-1.702, 9.053e-5
-1.703, 9.210e-5
-1.704, 9.361e-5
-1.705, 9.515e-5
-1.706, 9.666e-5
-1.707, 9.821e-5
-1.708, 9.978e-5
-1.709, 1.014e-4
-1.710, 1.031e-4
-1.711, 1.048e-4
-1.712, 1.066e-4
-1.713, 1.084e-4
-1.714, 1.103e-4
-1.715, 1.121e-4
-1.716, 1.141e-4
-1.717, 1.160e-4
-1.718, 1.181e-4
-1.719, 1.202e-4
-1.720, 1.223e-4
-1.721, 1.245e-4
-1.722, 1.267e-4
-1.723, 1.291e-4
-1.724, 1.314e-4
-1.725, 1.339e-4
-1.726, 1.363e-4
-1.727, 1.389e-4
-1.728, 1.415e-4
-1.729, 1.442e-4
-1.730, 1.469e-4
-1.731, 1.496e-4
-1.732, 1.525e-4
-1.733, 1.555e-4
-1.734, 1.585e-4
-1.735, 1.616e-4
-1.736, 1.647e-4
-1.737, 1.680e-4
-1.738, 1.712e-4
-1.739, 1.746e-4
-1.740, 1.780e-4
-1.741, 1.815e-4
-1.742, 1.851e-4
-1.743, 1.887e-4
-1.744, 1.925e-4
-1.745, 1.962e-4
-1.746, 2.002e-4
-1.747, 2.041e-4
-1.748, 2.082e-4
-1.749, 2.122e-4
-1.750, 2.164e-4
-1.751, 2.207e-4
-1.752, 2.250e-4
-1.753, 2.295e-4
-1.754, 2.340e-4
-1.755, 2.386e-4
-1.756, 2.432e-4
-1.757, 2.479e-4
-1.758, 2.528e-4
-1.759, 2.577e-4
-1.760, 2.627e-4
-1.761, 2.677e-4
-1.762, 2.728e-4
-1.763, 2.781e-4
-1.764, 2.834e-4
-1.765, 2.888e-4
-1.766, 2.943e-4
-1.767, 2.998e-4
-1.768, 3.054e-4
-1.769, 3.112e-4
-1.770, 3.170e-4
-1.771, 3.229e-4
-1.772, 3.289e-4
-1.773, 3.350e-4
-1.774, 3.412e-4
-1.775, 3.475e-4
-1.776, 3.539e-4
-1.777, 3.604e-4
-1.778, 3.670e-4
-1.779, 3.736e-4
-1.780, 3.804e-4
-1.781, 3.873e-4
-1.782, 3.943e-4
-1.783, 4.014e-4
-1.784, 4.086e-4
-1.785, 4.158e-4
-1.786, 4.232e-4
-1.787, 4.307e-4
-1.788, 4.383e-4
-1.789, 4.460e-4
-1.790, 4.537e-4
-1.791, 4.616e-4
-1.792, 4.696e-4
-1.793, 4.776e-4
-1.794, 4.858e-4
-1.795, 4.941e-4
-1.796, 5.024e-4
-1.797, 5.109e-4
-1.798, 5.194e-4
-1.799, 5.281e-4
-1.800, 5.369e-4
-1.801, 5.456e-4
-1.802, 5.545e-4
-1.803, 5.635e-4
-1.804, 5.725e-4
-1.805, 5.816e-4
-1.806, 5.909e-4
-1.807, 6.001e-4
-1.808, 6.095e-4
-1.809, 6.190e-4
-1.810, 6.284e-4
-1.811, 6.380e-4
-1.812, 6.476e-4
-1.813, 6.574e-4
-1.814, 6.672e-4
-1.815, 6.771e-4
-1.816, 6.870e-4
-1.817, 6.970e-4
-1.818, 7.072e-4
-1.819, 7.174e-4
-1.820, 7.277e-4
-1.821, 7.381e-4
-1.822, 7.485e-4
-1.823, 7.590e-4
-1.824, 7.697e-4
-1.825, 7.804e-4
-1.826, 7.912e-4
-1.827, 8.021e-4
-1.828, 8.131e-4
-1.829, 8.242e-4
-1.830, 8.353e-4
-1.831, 8.465e-4
-1.832, 8.578e-4
-1.833, 8.692e-4
-1.834, 8.807e-4
-1.835, 8.923e-4
-1.836, 9.040e-4
-1.837, 9.157e-4
-1.838, 9.275e-4
-1.839, 9.395e-4
-1.840, 9.514e-4
-1.841, 9.635e-4
-1.842, 9.757e-4
-1.843, 9.879e-4
-1.844, 1.000e-3
-1.845, 1.010e-3
-1.846, 1.011e-3
-1.847, 1.011e-3
-1.848, 1.011e-3
-1.849, 1.011e-3
-1.850, 1.011e-3
-1.851, 1.011e-3
-1.852, 1.011e-3
-1.853, 1.011e-3
-1.854, 1.011e-3
-1.855, 1.011e-3
-1.856, 1.011e-3
-1.857, 1.011e-3
-1.858, 1.011e-3
-1.859, 1.011e-3
-1.860, 1.011e-3
-1.861, 1.011e-3
-1.862, 1.011e-3
-1.863, 1.011e-3
-1.864, 1.011e-3
-1.865, 1.011e-3
-1.866, 1.011e-3
-1.867, 1.011e-3
-1.868, 1.011e-3
-1.869, 1.011e-3
-1.870, 1.011e-3
-1.871, 1.011e-3
-1.872, 1.011e-3
-1.873, 1.011e-3
-1.874, 1.011e-3
-1.875, 1.011e-3
-1.876, 1.011e-3
-1.877, 1.011e-3
-1.878, 1.011e-3
-1.879, 1.011e-3
-1.880, 1.011e-3
-1.881, 1.011e-3
-1.882, 1.011e-3
-1.883, 1.011e-3
-1.884, 1.011e-3
-1.885, 1.011e-3
-1.886, 1.011e-3
-1.887, 1.011e-3
-1.888, 1.011e-3
-1.889, 1.011e-3
-1.890, 1.011e-3
-1.891, 1.011e-3
-1.892, 1.011e-3
-1.893, 1.011e-3
-1.894, 1.011e-3
-1.895, 1.011e-3
-1.896, 1.011e-3
-1.897, 1.011e-3
-1.898, 1.011e-3
-1.899, 1.011e-3
-1.900, 1.011e-3
-1.901, 1.011e-3
-1.902, 1.011e-3
-1.903, 1.011e-3
-1.904, 1.011e-3
-1.905, 1.011e-3
-1.906, 1.011e-3
-1.907, 1.011e-3
-1.908, 1.011e-3
-1.909, 1.011e-3
-1.910, 1.011e-3
-1.911, 1.011e-3
-1.912, 1.011e-3
-1.913, 1.011e-3
-1.914, 1.011e-3
-1.915, 1.011e-3
-1.916, 1.011e-3
-1.917, 1.011e-3
-1.918, 1.011e-3
-1.919, 1.011e-3
-1.920, 1.011e-3
-1.921, 1.011e-3
-1.922, 1.011e-3
-1.923, 1.011e-3
-1.924, 1.011e-3
-1.925, 1.011e-3
-1.926, 1.011e-3
-1.927, 1.011e-3
-1.928, 1.011e-3
-1.929, 1.011e-3
-1.930, 1.011e-3
-1.931, 1.011e-3
-1.932, 1.011e-3
-1.933, 1.011e-3
-1.934, 1.011e-3
-1.935, 1.011e-3
-1.936, 1.011e-3
-1.937, 1.011e-3
-1.938, 1.011e-3
-1.939, 1.011e-3
-1.940, 1.011e-3
-1.941, 1.011e-3
-1.942, 1.011e-3
-1.943, 1.011e-3
-1.944, 1.011e-3
-1.945, 1.011e-3
-1.946, 1.011e-3
-1.947, 1.011e-3
-1.948, 1.011e-3
-1.949, 1.011e-3
-1.950, 1.011e-3
-1.951, 1.011e-3
-1.952, 1.011e-3
-1.953, 1.011e-3
-1.954, 1.011e-3
-1.955, 1.011e-3
-1.956, 1.011e-3
-1.957, 1.011e-3
-1.958, 1.011e-3
-1.959, 1.011e-3
-1.960, 1.011e-3
-1.961, 1.011e-3
-1.962, 1.011e-3
-1.963, 1.011e-3
-1.964, 1.011e-3
-1.965, 1.011e-3
-1.966, 1.011e-3
-1.967, 1.011e-3
-1.968, 1.011e-3
-1.969, 1.011e-3
-1.970, 1.011e-3
-1.971, 1.011e-3
-1.972, 1.011e-3
-1.973, 1.011e-3
-1.974, 1.011e-3
-1.975, 1.011e-3
-1.976, 1.011e-3
-1.977, 1.011e-3
-1.978, 1.011e-3
-1.979, 1.011e-3
-1.980, 1.011e-3
-1.981, 1.011e-3
-1.982, 1.011e-3
-1.983, 1.011e-3
-1.984, 1.011e-3
-1.985, 1.011e-3
-1.986, 1.011e-3
-1.987, 1.011e-3
-1.988, 1.011e-3
-1.989, 1.011e-3
-1.990, 1.011e-3
-1.991, 1.011e-3
-1.992, 1.011e-3
-1.993, 1.011e-3
-1.994, 1.011e-3
-1.995, 1.011e-3
-1.996, 1.011e-3
-1.997, 1.011e-3
-1.998, 1.011e-3
-1.999, 1.011e-3
-2.000, 1.011e-3
-2.001, 1.011e-3
-2.002, 1.011e-3
-2.003, 1.011e-3
-2.004, 1.011e-3
-2.005, 1.011e-3
-2.006, 1.011e-3
-2.007, 1.011e-3
-2.008, 1.011e-3
-2.009, 1.011e-3
-2.010, 1.011e-3
-2.011, 1.011e-3
-2.012, 1.011e-3
-2.013, 1.011e-3
-2.014, 1.011e-3
-2.015, 1.011e-3
-2.016, 1.011e-3
-2.017, 1.011e-3
-2.018, 1.011e-3
-2.019, 1.011e-3
-2.020, 1.011e-3
-2.021, 1.011e-3
-2.022, 1.011e-3
-2.023, 1.011e-3
-2.024, 1.011e-3
-2.025, 1.011e-3
-2.026, 1.011e-3
-2.027, 1.011e-3
-2.028, 1.011e-3
-2.029, 1.011e-3
-2.030, 1.011e-3
-2.031, 1.011e-3
-2.032, 1.011e-3
-2.033, 1.011e-3
-2.034, 1.011e-3
-2.035, 1.011e-3
-2.036, 1.011e-3
-2.037, 1.011e-3
-2.038, 1.011e-3
-2.039, 1.011e-3
-2.040, 1.011e-3
-2.041, 1.011e-3
-2.042, 1.011e-3
-2.043, 1.011e-3
-2.044, 1.011e-3
-2.045, 1.011e-3
-2.046, 1.011e-3
-2.047, 1.011e-3
-2.048, 1.011e-3
-2.049, 1.011e-3
-2.050, 1.011e-3
-2.051, 1.011e-3
-2.052, 1.011e-3
-2.053, 1.011e-3
-2.054, 1.011e-3
-2.055, 1.011e-3
-2.056, 1.011e-3
-2.057, 1.011e-3
-2.058, 1.011e-3
-2.059, 1.011e-3
-2.060, 1.011e-3
-2.061, 1.011e-3
-2.062, 1.011e-3
-2.063, 1.011e-3
-2.064, 1.011e-3
-2.065, 1.011e-3
-2.066, 1.011e-3
-2.067, 1.011e-3
-2.068, 1.011e-3
-2.069, 1.011e-3
-2.070, 1.011e-3
-2.071, 1.011e-3
-2.072, 1.011e-3
-2.073, 1.011e-3
-2.074, 1.011e-3
-2.075, 1.011e-3
-2.076, 1.011e-3
-2.077, 1.011e-3
-2.078, 1.011e-3
-2.079, 1.011e-3
-2.080, 1.011e-3
-2.081, 1.011e-3
-2.082, 1.011e-3
-2.083, 1.011e-3
-2.084, 1.011e-3
-2.085, 1.011e-3
-2.086, 1.011e-3
-2.087, 1.011e-3
-2.088, 1.011e-3
-2.089, 1.011e-3
-2.090, 1.011e-3
-2.091, 1.011e-3
-2.092, 1.011e-3
-2.093, 1.011e-3
-2.094, 1.011e-3
-2.095, 1.011e-3
-2.096, 1.011e-3
-2.097, 1.011e-3
-2.098, 1.011e-3
-2.099, 1.011e-3
-2.100, 1.011e-3
-2.101, 1.011e-3
-2.102, 1.011e-3
-2.103, 1.011e-3
-2.104, 1.011e-3
-2.105, 1.011e-3
-2.106, 1.011e-3
-2.107, 1.011e-3
-2.108, 1.011e-3
-2.109, 1.011e-3
-2.110, 1.011e-3
-2.111, 1.011e-3
-2.112, 1.011e-3
-2.113, 1.011e-3
-2.114, 1.011e-3
-2.115, 1.011e-3
-2.116, 1.011e-3
-2.117, 1.011e-3
-2.118, 1.011e-3
-2.119, 1.011e-3
-2.120, 1.011e-3
-2.121, 1.011e-3
-2.122, 1.011e-3
-2.123, 1.011e-3
-2.124, 1.011e-3
-2.125, 1.011e-3
-2.126, 1.011e-3
-2.127, 1.011e-3
-2.128, 1.011e-3
-2.129, 1.011e-3
-2.130, 1.011e-3
-2.131, 1.011e-3
-2.132, 1.011e-3
-2.133, 1.011e-3
-2.134, 1.011e-3
-2.135, 1.011e-3
-2.136, 1.011e-3
-2.137, 1.011e-3
-2.138, 1.011e-3
-2.139, 1.011e-3
-2.140, 1.011e-3
-2.141, 1.011e-3
-2.142, 1.011e-3
-2.143, 1.011e-3
-2.144, 1.011e-3
-2.145, 1.011e-3
-2.146, 1.011e-3
-2.147, 1.011e-3
-2.148, 1.011e-3
-2.149, 1.011e-3
-2.150, 1.011e-3
-2.151, 1.011e-3
-2.152, 1.011e-3
-2.153, 1.011e-3
-2.154, 1.011e-3
-2.155, 1.011e-3
-2.156, 1.011e-3
-2.157, 1.011e-3
-2.158, 1.011e-3
-2.159, 1.011e-3
-2.160, 1.011e-3
-2.161, 1.011e-3
-2.162, 1.011e-3
-2.163, 1.011e-3
-2.164, 1.011e-3
-2.165, 1.011e-3
-2.166, 1.011e-3
-2.167, 1.011e-3
-2.168, 1.011e-3
-2.169, 1.011e-3
-2.170, 1.011e-3
-2.171, 1.011e-3
-2.172, 1.011e-3
-2.173, 1.011e-3
-2.174, 1.011e-3
-2.175, 1.011e-3
-2.176, 1.011e-3
-2.177, 1.011e-3
-2.178, 1.011e-3
-2.179, 1.011e-3
-2.180, 1.011e-3
-2.181, 1.011e-3
-2.182, 1.011e-3
-2.183, 1.011e-3
-2.184, 1.011e-3
-2.185, 1.011e-3
-2.186, 1.011e-3
-2.187, 1.011e-3
-2.188, 1.011e-3
-2.189, 1.011e-3
-2.190, 1.011e-3
-2.191, 1.011e-3
-2.192, 1.011e-3
-2.193, 1.011e-3
-2.194, 1.011e-3
-2.195, 1.011e-3
-2.196, 1.011e-3
-2.197, 1.011e-3
-2.198, 1.011e-3
-2.199, 1.011e-3
-2.200, 1.011e-3
-2.201, 1.011e-3
-2.202, 1.011e-3
-2.203, 1.011e-3
-2.204, 1.011e-3
-2.205, 1.011e-3
-2.206, 1.011e-3
-2.207, 1.011e-3
-2.208, 1.011e-3
-2.209, 1.011e-3
-2.210, 1.011e-3
-2.211, 1.011e-3
-2.212, 1.011e-3
-2.213, 1.011e-3
-2.214, 1.011e-3
-2.215, 1.011e-3
-2.216, 1.011e-3
-2.217, 1.011e-3
-2.218, 1.011e-3
-2.219, 1.011e-3
-2.220, 1.011e-3
-2.221, 1.011e-3
-2.222, 1.011e-3
-2.223, 1.011e-3
-2.224, 1.011e-3
-2.225, 1.011e-3
-2.226, 1.011e-3
-2.227, 1.011e-3
-2.228, 1.011e-3
-2.229, 1.011e-3
-2.230, 1.011e-3
-2.231, 1.011e-3
-2.232, 1.011e-3
-2.233, 1.011e-3
-2.234, 1.011e-3
-2.235, 1.011e-3
-2.236, 1.011e-3
-2.237, 1.011e-3
-2.238, 1.011e-3
-2.239, 1.011e-3
-2.240, 1.011e-3
-2.241, 1.011e-3
-2.242, 1.011e-3
-2.243, 1.011e-3
-2.244, 1.011e-3
-2.245, 1.011e-3
-2.246, 1.011e-3
-2.247, 1.011e-3
-2.248, 1.011e-3
-2.249, 1.011e-3
-2.250, 1.011e-3
-2.251, 1.011e-3
-2.252, 1.011e-3
-2.253, 1.011e-3
-2.254, 1.011e-3
-2.255, 1.011e-3
-2.256, 1.011e-3
-2.257, 1.011e-3
-2.258, 1.011e-3
-2.259, 1.011e-3
-2.260, 1.011e-3
-2.261, 1.011e-3
-2.262, 1.011e-3
-2.263, 1.011e-3
-2.264, 1.011e-3
-2.265, 1.011e-3
-2.266, 1.011e-3
-2.267, 1.011e-3
-2.268, 1.011e-3
-2.269, 1.011e-3
-2.270, 1.011e-3
-2.271, 1.011e-3
-2.272, 1.011e-3
-2.273, 1.011e-3
-2.274, 1.011e-3
-2.275, 1.011e-3
-2.276, 1.011e-3
-2.277, 1.011e-3
-2.278, 1.011e-3
-2.279, 1.011e-3
-2.280, 1.011e-3
-2.281, 1.011e-3
-2.282, 1.011e-3
-2.283, 1.011e-3
-2.284, 1.011e-3
-2.285, 1.011e-3
-2.286, 1.011e-3
-2.287, 1.011e-3
-2.288, 1.011e-3
-2.289, 1.011e-3
-2.290, 1.011e-3
-2.291, 1.011e-3
-2.292, 1.011e-3
-2.293, 1.011e-3
-2.294, 1.011e-3
-2.295, 1.011e-3
-2.296, 1.011e-3
-2.297, 1.011e-3
-2.298, 1.011e-3
-2.299, 1.011e-3
