Mar. 4, 2025   05:53:54
Linear Sweep Voltammetry
File: c:/users/guazh/data/banditlqround7_x0exp169_r20_3/2025-03-03-exp864\post-regen1-2025-03-04t05_50_41-lsvinphos\post-regen1_lsv_50mvs_efin_-2300mv.bin
Data Source:  Experiment
Instrument Model:  CHI760E
Header: LSV ran at 50 mVs with Efin at -2300mV
Note: 

Init E (V) = -0.6
Final E (V) = -2.3
Scan Rate (V/s) = 0.05
Sample Interval (V) = 0.001
Quiet Time (sec) = 2
Sensitivity (A/V) = 1e-4
Comp R (ohm) = 12.3

Results:

Channel 1:
Ep = -0.913V
ip = 1.414e-4A
Ah = 4.489e-4C

Ep = -1.231V
ip = 2.825e-4A
Ah = 6.369e-4C

Ep = -1.773V
ip = 3.262e-4A
Ah = 2.816e-4C

Potential/V, Current/A

-0.600, 1.808e-5
-0.601, 1.825e-5
-0.602, 1.825e-5
-0.603, 1.820e-5
-0.604, 1.823e-5
-0.605, 1.824e-5
-0.606, 1.826e-5
-0.607, 1.828e-5
-0.608, 1.832e-5
-0.609, 1.834e-5
-0.610, 1.837e-5
-0.611, 1.841e-5
-0.612, 1.844e-5
-0.613, 1.848e-5
-0.614, 1.852e-5
-0.615, 1.855e-5
-0.616, 1.859e-5
-0.617, 1.864e-5
-0.618, 1.867e-5
-0.619, 1.870e-5
-0.620, 1.872e-5
-0.621, 1.876e-5
-0.622, 1.881e-5
-0.623, 1.886e-5
-0.624, 1.891e-5
-0.625, 1.897e-5
-0.626, 1.903e-5
-0.627, 1.909e-5
-0.628, 1.916e-5
-0.629, 1.921e-5
-0.630, 1.925e-5
-0.631, 1.933e-5
-0.632, 1.942e-5
-0.633, 1.950e-5
-0.634, 1.958e-5
-0.635, 1.966e-5
-0.636, 1.976e-5
-0.637, 1.984e-5
-0.638, 1.992e-5
-0.639, 1.999e-5
-0.640, 2.006e-5
-0.641, 2.018e-5
-0.642, 2.029e-5
-0.643, 2.041e-5
-0.644, 2.052e-5
-0.645, 2.060e-5
-0.646, 2.073e-5
-0.647, 2.087e-5
-0.648, 2.100e-5
-0.649, 2.113e-5
-0.650, 2.127e-5
-0.651, 2.141e-5
-0.652, 2.154e-5
-0.653, 2.172e-5
-0.654, 2.189e-5
-0.655, 2.203e-5
-0.656, 2.220e-5
-0.657, 2.237e-5
-0.658, 2.256e-5
-0.659, 2.272e-5
-0.660, 2.288e-5
-0.661, 2.309e-5
-0.662, 2.329e-5
-0.663, 2.350e-5
-0.664, 2.369e-5
-0.665, 2.389e-5
-0.666, 2.414e-5
-0.667, 2.437e-5
-0.668, 2.460e-5
-0.669, 2.484e-5
-0.670, 2.508e-5
-0.671, 2.533e-5
-0.672, 2.559e-5
-0.673, 2.586e-5
-0.674, 2.613e-5
-0.675, 2.641e-5
-0.676, 2.671e-5
-0.677, 2.699e-5
-0.678, 2.731e-5
-0.679, 2.762e-5
-0.680, 2.790e-5
-0.681, 2.824e-5
-0.682, 2.858e-5
-0.683, 2.893e-5
-0.684, 2.928e-5
-0.685, 2.964e-5
-0.686, 2.999e-5
-0.687, 3.037e-5
-0.688, 3.076e-5
-0.689, 3.115e-5
-0.690, 3.155e-5
-0.691, 3.197e-5
-0.692, 3.243e-5
-0.693, 3.284e-5
-0.694, 3.332e-5
-0.695, 3.375e-5
-0.696, 3.421e-5
-0.697, 3.465e-5
-0.698, 3.513e-5
-0.699, 3.562e-5
-0.700, 3.608e-5
-0.701, 3.657e-5
-0.702, 3.706e-5
-0.703, 3.759e-5
-0.704, 3.813e-5
-0.705, 3.869e-5
-0.706, 3.921e-5
-0.707, 3.979e-5
-0.708, 4.039e-5
-0.709, 4.099e-5
-0.710, 4.159e-5
-0.711, 4.217e-5
-0.712, 4.285e-5
-0.713, 4.348e-5
-0.714, 4.409e-5
-0.715, 4.476e-5
-0.716, 4.540e-5
-0.717, 4.604e-5
-0.718, 4.679e-5
-0.719, 4.750e-5
-0.720, 4.825e-5
-0.721, 4.898e-5
-0.722, 4.968e-5
-0.723, 5.042e-5
-0.724, 5.118e-5
-0.725, 5.195e-5
-0.726, 5.274e-5
-0.727, 5.357e-5
-0.728, 5.445e-5
-0.729, 5.526e-5
-0.730, 5.610e-5
-0.731, 5.697e-5
-0.732, 5.790e-5
-0.733, 5.879e-5
-0.734, 5.969e-5
-0.735, 6.059e-5
-0.736, 6.151e-5
-0.737, 6.251e-5
-0.738, 6.350e-5
-0.739, 6.453e-5
-0.740, 6.551e-5
-0.741, 6.657e-5
-0.742, 6.769e-5
-0.743, 6.876e-5
-0.744, 6.989e-5
-0.745, 7.102e-5
-0.746, 7.208e-5
-0.747, 7.320e-5
-0.748, 7.434e-5
-0.749, 7.547e-5
-0.750, 7.667e-5
-0.751, 7.787e-5
-0.752, 7.908e-5
-0.753, 8.034e-5
-0.754, 8.163e-5
-0.755, 8.288e-5
-0.756, 8.411e-5
-0.757, 8.542e-5
-0.758, 8.677e-5
-0.759, 8.812e-5
-0.760, 8.944e-5
-0.761, 9.082e-5
-0.762, 9.224e-5
-0.763, 9.369e-5
-0.764, 9.516e-5
-0.765, 9.661e-5
-0.766, 9.801e-5
-0.767, 9.948e-5
-0.768, 1.010e-4
-0.769, 1.026e-4
-0.770, 1.041e-4
-0.771, 1.056e-4
-0.772, 1.071e-4
-0.773, 1.087e-4
-0.774, 1.102e-4
-0.775, 1.118e-4
-0.776, 1.134e-4
-0.777, 1.150e-4
-0.778, 1.165e-4
-0.779, 1.180e-4
-0.780, 1.195e-4
-0.781, 1.210e-4
-0.782, 1.226e-4
-0.783, 1.241e-4
-0.784, 1.256e-4
-0.785, 1.271e-4
-0.786, 1.285e-4
-0.787, 1.299e-4
-0.788, 1.314e-4
-0.789, 1.328e-4
-0.790, 1.341e-4
-0.791, 1.354e-4
-0.792, 1.367e-4
-0.793, 1.379e-4
-0.794, 1.391e-4
-0.795, 1.403e-4
-0.796, 1.415e-4
-0.797, 1.425e-4
-0.798, 1.436e-4
-0.799, 1.447e-4
-0.800, 1.457e-4
-0.801, 1.466e-4
-0.802, 1.475e-4
-0.803, 1.484e-4
-0.804, 1.492e-4
-0.805, 1.501e-4
-0.806, 1.508e-4
-0.807, 1.516e-4
-0.808, 1.522e-4
-0.809, 1.529e-4
-0.810, 1.535e-4
-0.811, 1.541e-4
-0.812, 1.547e-4
-0.813, 1.553e-4
-0.814, 1.557e-4
-0.815, 1.562e-4
-0.816, 1.566e-4
-0.817, 1.572e-4
-0.818, 1.576e-4
-0.819, 1.580e-4
-0.820, 1.583e-4
-0.821, 1.586e-4
-0.822, 1.590e-4
-0.823, 1.592e-4
-0.824, 1.594e-4
-0.825, 1.596e-4
-0.826, 1.598e-4
-0.827, 1.601e-4
-0.828, 1.602e-4
-0.829, 1.604e-4
-0.830, 1.606e-4
-0.831, 1.608e-4
-0.832, 1.609e-4
-0.833, 1.610e-4
-0.834, 1.613e-4
-0.835, 1.614e-4
-0.836, 1.614e-4
-0.837, 1.616e-4
-0.838, 1.618e-4
-0.839, 1.618e-4
-0.840, 1.618e-4
-0.841, 1.619e-4
-0.842, 1.619e-4
-0.843, 1.619e-4
-0.844, 1.620e-4
-0.845, 1.620e-4
-0.846, 1.620e-4
-0.847, 1.619e-4
-0.848, 1.619e-4
-0.849, 1.619e-4
-0.850, 1.620e-4
-0.851, 1.619e-4
-0.852, 1.619e-4
-0.853, 1.619e-4
-0.854, 1.620e-4
-0.855, 1.619e-4
-0.856, 1.618e-4
-0.857, 1.618e-4
-0.858, 1.619e-4
-0.859, 1.619e-4
-0.860, 1.618e-4
-0.861, 1.617e-4
-0.862, 1.616e-4
-0.863, 1.616e-4
-0.864, 1.617e-4
-0.865, 1.616e-4
-0.866, 1.614e-4
-0.867, 1.615e-4
-0.868, 1.615e-4
-0.869, 1.615e-4
-0.870, 1.615e-4
-0.871, 1.616e-4
-0.872, 1.617e-4
-0.873, 1.616e-4
-0.874, 1.615e-4
-0.875, 1.615e-4
-0.876, 1.615e-4
-0.877, 1.614e-4
-0.878, 1.615e-4
-0.879, 1.616e-4
-0.880, 1.617e-4
-0.881, 1.616e-4
-0.882, 1.615e-4
-0.883, 1.615e-4
-0.884, 1.617e-4
-0.885, 1.617e-4
-0.886, 1.616e-4
-0.887, 1.615e-4
-0.888, 1.613e-4
-0.889, 1.614e-4
-0.890, 1.616e-4
-0.891, 1.616e-4
-0.892, 1.616e-4
-0.893, 1.618e-4
-0.894, 1.618e-4
-0.895, 1.619e-4
-0.896, 1.618e-4
-0.897, 1.618e-4
-0.898, 1.618e-4
-0.899, 1.619e-4
-0.900, 1.619e-4
-0.901, 1.619e-4
-0.902, 1.621e-4
-0.903, 1.623e-4
-0.904, 1.624e-4
-0.905, 1.625e-4
-0.906, 1.626e-4
-0.907, 1.626e-4
-0.908, 1.627e-4
-0.909, 1.628e-4
-0.910, 1.630e-4
-0.911, 1.631e-4
-0.912, 1.632e-4
-0.913, 1.634e-4
-0.914, 1.636e-4
-0.915, 1.639e-4
-0.916, 1.638e-4
-0.917, 1.641e-4
-0.918, 1.642e-4
-0.919, 1.644e-4
-0.920, 1.646e-4
-0.921, 1.647e-4
-0.922, 1.649e-4
-0.923, 1.651e-4
-0.924, 1.653e-4
-0.925, 1.653e-4
-0.926, 1.655e-4
-0.927, 1.657e-4
-0.928, 1.660e-4
-0.929, 1.662e-4
-0.930, 1.664e-4
-0.931, 1.666e-4
-0.932, 1.668e-4
-0.933, 1.670e-4
-0.934, 1.673e-4
-0.935, 1.676e-4
-0.936, 1.678e-4
-0.937, 1.680e-4
-0.938, 1.684e-4
-0.939, 1.687e-4
-0.940, 1.690e-4
-0.941, 1.693e-4
-0.942, 1.695e-4
-0.943, 1.698e-4
-0.944, 1.701e-4
-0.945, 1.705e-4
-0.946, 1.707e-4
-0.947, 1.710e-4
-0.948, 1.716e-4
-0.949, 1.720e-4
-0.950, 1.722e-4
-0.951, 1.726e-4
-0.952, 1.731e-4
-0.953, 1.735e-4
-0.954, 1.738e-4
-0.955, 1.741e-4
-0.956, 1.745e-4
-0.957, 1.748e-4
-0.958, 1.751e-4
-0.959, 1.755e-4
-0.960, 1.757e-4
-0.961, 1.762e-4
-0.962, 1.767e-4
-0.963, 1.773e-4
-0.964, 1.779e-4
-0.965, 1.784e-4
-0.966, 1.788e-4
-0.967, 1.794e-4
-0.968, 1.799e-4
-0.969, 1.803e-4
-0.970, 1.809e-4
-0.971, 1.815e-4
-0.972, 1.820e-4
-0.973, 1.825e-4
-0.974, 1.831e-4
-0.975, 1.836e-4
-0.976, 1.841e-4
-0.977, 1.846e-4
-0.978, 1.851e-4
-0.979, 1.857e-4
-0.980, 1.861e-4
-0.981, 1.867e-4
-0.982, 1.873e-4
-0.983, 1.879e-4
-0.984, 1.887e-4
-0.985, 1.892e-4
-0.986, 1.898e-4
-0.987, 1.907e-4
-0.988, 1.915e-4
-0.989, 1.922e-4
-0.990, 1.929e-4
-0.991, 1.936e-4
-0.992, 1.943e-4
-0.993, 1.950e-4
-0.994, 1.957e-4
-0.995, 1.966e-4
-0.996, 1.974e-4
-0.997, 1.981e-4
-0.998, 1.989e-4
-0.999, 1.995e-4
-1.000, 2.004e-4
-1.001, 2.012e-4
-1.002, 2.018e-4
-1.003, 2.027e-4
-1.004, 2.034e-4
-1.005, 2.042e-4
-1.006, 2.052e-4
-1.007, 2.061e-4
-1.008, 2.071e-4
-1.009, 2.079e-4
-1.010, 2.086e-4
-1.011, 2.096e-4
-1.012, 2.105e-4
-1.013, 2.115e-4
-1.014, 2.123e-4
-1.015, 2.132e-4
-1.016, 2.140e-4
-1.017, 2.149e-4
-1.018, 2.157e-4
-1.019, 2.166e-4
-1.020, 2.175e-4
-1.021, 2.182e-4
-1.022, 2.191e-4
-1.023, 2.201e-4
-1.024, 2.211e-4
-1.025, 2.220e-4
-1.026, 2.231e-4
-1.027, 2.241e-4
-1.028, 2.251e-4
-1.029, 2.263e-4
-1.030, 2.275e-4
-1.031, 2.287e-4
-1.032, 2.298e-4
-1.033, 2.307e-4
-1.034, 2.320e-4
-1.035, 2.332e-4
-1.036, 2.344e-4
-1.037, 2.355e-4
-1.038, 2.367e-4
-1.039, 2.381e-4
-1.040, 2.393e-4
-1.041, 2.406e-4
-1.042, 2.420e-4
-1.043, 2.433e-4
-1.044, 2.445e-4
-1.045, 2.458e-4
-1.046, 2.473e-4
-1.047, 2.488e-4
-1.048, 2.500e-4
-1.049, 2.517e-4
-1.050, 2.532e-4
-1.051, 2.546e-4
-1.052, 2.563e-4
-1.053, 2.578e-4
-1.054, 2.594e-4
-1.055, 2.611e-4
-1.056, 2.625e-4
-1.057, 2.639e-4
-1.058, 2.655e-4
-1.059, 2.672e-4
-1.060, 2.689e-4
-1.061, 2.705e-4
-1.062, 2.723e-4
-1.063, 2.740e-4
-1.064, 2.758e-4
-1.065, 2.776e-4
-1.066, 2.795e-4
-1.067, 2.814e-4
-1.068, 2.833e-4
-1.069, 2.850e-4
-1.070, 2.868e-4
-1.071, 2.887e-4
-1.072, 2.907e-4
-1.073, 2.927e-4
-1.074, 2.947e-4
-1.075, 2.965e-4
-1.076, 2.986e-4
-1.077, 3.007e-4
-1.078, 3.025e-4
-1.079, 3.044e-4
-1.080, 3.065e-4
-1.081, 3.085e-4
-1.082, 3.105e-4
-1.083, 3.127e-4
-1.084, 3.151e-4
-1.085, 3.173e-4
-1.086, 3.193e-4
-1.087, 3.215e-4
-1.088, 3.237e-4
-1.089, 3.259e-4
-1.090, 3.282e-4
-1.091, 3.304e-4
-1.092, 3.328e-4
-1.093, 3.352e-4
-1.094, 3.375e-4
-1.095, 3.397e-4
-1.096, 3.420e-4
-1.097, 3.443e-4
-1.098, 3.465e-4
-1.099, 3.492e-4
-1.100, 3.517e-4
-1.101, 3.543e-4
-1.102, 3.569e-4
-1.103, 3.595e-4
-1.104, 3.621e-4
-1.105, 3.646e-4
-1.106, 3.672e-4
-1.107, 3.699e-4
-1.108, 3.725e-4
-1.109, 3.751e-4
-1.110, 3.775e-4
-1.111, 3.800e-4
-1.112, 3.826e-4
-1.113, 3.852e-4
-1.114, 3.879e-4
-1.115, 3.907e-4
-1.116, 3.935e-4
-1.117, 3.963e-4
-1.118, 3.989e-4
-1.119, 4.017e-4
-1.120, 4.045e-4
-1.121, 4.072e-4
-1.122, 4.098e-4
-1.123, 4.125e-4
-1.124, 4.151e-4
-1.125, 4.183e-4
-1.126, 4.211e-4
-1.127, 4.236e-4
-1.128, 4.262e-4
-1.129, 4.290e-4
-1.130, 4.322e-4
-1.131, 4.351e-4
-1.132, 4.378e-4
-1.133, 4.406e-4
-1.134, 4.433e-4
-1.135, 4.460e-4
-1.136, 4.489e-4
-1.137, 4.517e-4
-1.138, 4.545e-4
-1.139, 4.572e-4
-1.140, 4.602e-4
-1.141, 4.631e-4
-1.142, 4.664e-4
-1.143, 4.691e-4
-1.144, 4.720e-4
-1.145, 4.747e-4
-1.146, 4.772e-4
-1.147, 4.802e-4
-1.148, 4.832e-4
-1.149, 4.860e-4
-1.150, 4.891e-4
-1.151, 4.919e-4
-1.152, 4.943e-4
-1.153, 4.970e-4
-1.154, 4.998e-4
-1.155, 5.027e-4
-1.156, 5.056e-4
-1.157, 5.082e-4
-1.158, 5.111e-4
-1.159, 5.139e-4
-1.160, 5.166e-4
-1.161, 5.192e-4
-1.162, 5.218e-4
-1.163, 5.246e-4
-1.164, 5.274e-4
-1.165, 5.299e-4
-1.166, 5.325e-4
-1.167, 5.354e-4
-1.168, 5.379e-4
-1.169, 5.403e-4
-1.170, 5.424e-4
-1.171, 5.449e-4
-1.172, 5.471e-4
-1.173, 5.492e-4
-1.174, 5.515e-4
-1.175, 5.538e-4
-1.176, 5.561e-4
-1.177, 5.584e-4
-1.178, 5.604e-4
-1.179, 5.627e-4
-1.180, 5.649e-4
-1.181, 5.671e-4
-1.182, 5.691e-4
-1.183, 5.714e-4
-1.184, 5.736e-4
-1.185, 5.755e-4
-1.186, 5.775e-4
-1.187, 5.795e-4
-1.188, 5.813e-4
-1.189, 5.831e-4
-1.190, 5.850e-4
-1.191, 5.870e-4
-1.192, 5.887e-4
-1.193, 5.902e-4
-1.194, 5.919e-4
-1.195, 5.933e-4
-1.196, 5.948e-4
-1.197, 5.963e-4
-1.198, 5.978e-4
-1.199, 5.993e-4
-1.200, 6.007e-4
-1.201, 6.021e-4
-1.202, 6.035e-4
-1.203, 6.048e-4
-1.204, 6.059e-4
-1.205, 6.070e-4
-1.206, 6.080e-4
-1.207, 6.090e-4
-1.208, 6.101e-4
-1.209, 6.110e-4
-1.210, 6.117e-4
-1.211, 6.127e-4
-1.212, 6.138e-4
-1.213, 6.146e-4
-1.214, 6.153e-4
-1.215, 6.160e-4
-1.216, 6.165e-4
-1.217, 6.172e-4
-1.218, 6.175e-4
-1.219, 6.179e-4
-1.220, 6.182e-4
-1.221, 6.187e-4
-1.222, 6.191e-4
-1.223, 6.194e-4
-1.224, 6.197e-4
-1.225, 6.200e-4
-1.226, 6.202e-4
-1.227, 6.204e-4
-1.228, 6.204e-4
-1.229, 6.207e-4
-1.230, 6.207e-4
-1.231, 6.208e-4
-1.232, 6.206e-4
-1.233, 6.203e-4
-1.234, 6.201e-4
-1.235, 6.198e-4
-1.236, 6.194e-4
-1.237, 6.190e-4
-1.238, 6.188e-4
-1.239, 6.183e-4
-1.240, 6.178e-4
-1.241, 6.172e-4
-1.242, 6.166e-4
-1.243, 6.161e-4
-1.244, 6.154e-4
-1.245, 6.147e-4
-1.246, 6.139e-4
-1.247, 6.129e-4
-1.248, 6.120e-4
-1.249, 6.111e-4
-1.250, 6.101e-4
-1.251, 6.091e-4
-1.252, 6.080e-4
-1.253, 6.069e-4
-1.254, 6.059e-4
-1.255, 6.048e-4
-1.256, 6.036e-4
-1.257, 6.024e-4
-1.258, 6.011e-4
-1.259, 5.998e-4
-1.260, 5.986e-4
-1.261, 5.972e-4
-1.262, 5.956e-4
-1.263, 5.942e-4
-1.264, 5.929e-4
-1.265, 5.915e-4
-1.266, 5.902e-4
-1.267, 5.888e-4
-1.268, 5.872e-4
-1.269, 5.856e-4
-1.270, 5.840e-4
-1.271, 5.824e-4
-1.272, 5.808e-4
-1.273, 5.791e-4
-1.274, 5.779e-4
-1.275, 5.763e-4
-1.276, 5.747e-4
-1.277, 5.729e-4
-1.278, 5.710e-4
-1.279, 5.692e-4
-1.280, 5.674e-4
-1.281, 5.656e-4
-1.282, 5.636e-4
-1.283, 5.618e-4
-1.284, 5.600e-4
-1.285, 5.581e-4
-1.286, 5.561e-4
-1.287, 5.542e-4
-1.288, 5.524e-4
-1.289, 5.506e-4
-1.290, 5.487e-4
-1.291, 5.471e-4
-1.292, 5.454e-4
-1.293, 5.436e-4
-1.294, 5.417e-4
-1.295, 5.402e-4
-1.296, 5.383e-4
-1.297, 5.365e-4
-1.298, 5.349e-4
-1.299, 5.332e-4
-1.300, 5.316e-4
-1.301, 5.301e-4
-1.302, 5.284e-4
-1.303, 5.267e-4
-1.304, 5.250e-4
-1.305, 5.235e-4
-1.306, 5.220e-4
-1.307, 5.204e-4
-1.308, 5.187e-4
-1.309, 5.172e-4
-1.310, 5.157e-4
-1.311, 5.141e-4
-1.312, 5.126e-4
-1.313, 5.113e-4
-1.314, 5.099e-4
-1.315, 5.086e-4
-1.316, 5.073e-4
-1.317, 5.057e-4
-1.318, 5.045e-4
-1.319, 5.032e-4
-1.320, 5.020e-4
-1.321, 5.009e-4
-1.322, 4.997e-4
-1.323, 4.984e-4
-1.324, 4.974e-4
-1.325, 4.964e-4
-1.326, 4.952e-4
-1.327, 4.943e-4
-1.328, 4.933e-4
-1.329, 4.922e-4
-1.330, 4.911e-4
-1.331, 4.900e-4
-1.332, 4.890e-4
-1.333, 4.880e-4
-1.334, 4.870e-4
-1.335, 4.860e-4
-1.336, 4.852e-4
-1.337, 4.843e-4
-1.338, 4.835e-4
-1.339, 4.827e-4
-1.340, 4.817e-4
-1.341, 4.807e-4
-1.342, 4.799e-4
-1.343, 4.791e-4
-1.344, 4.783e-4
-1.345, 4.775e-4
-1.346, 4.766e-4
-1.347, 4.761e-4
-1.348, 4.753e-4
-1.349, 4.748e-4
-1.350, 4.740e-4
-1.351, 4.732e-4
-1.352, 4.725e-4
-1.353, 4.719e-4
-1.354, 4.714e-4
-1.355, 4.706e-4
-1.356, 4.700e-4
-1.357, 4.696e-4
-1.358, 4.690e-4
-1.359, 4.687e-4
-1.360, 4.683e-4
-1.361, 4.679e-4
-1.362, 4.674e-4
-1.363, 4.669e-4
-1.364, 4.665e-4
-1.365, 4.661e-4
-1.366, 4.659e-4
-1.367, 4.655e-4
-1.368, 4.649e-4
-1.369, 4.646e-4
-1.370, 4.643e-4
-1.371, 4.641e-4
-1.372, 4.637e-4
-1.373, 4.634e-4
-1.374, 4.632e-4
-1.375, 4.631e-4
-1.376, 4.631e-4
-1.377, 4.628e-4
-1.378, 4.624e-4
-1.379, 4.620e-4
-1.380, 4.617e-4
-1.381, 4.613e-4
-1.382, 4.611e-4
-1.383, 4.610e-4
-1.384, 4.610e-4
-1.385, 4.608e-4
-1.386, 4.602e-4
-1.387, 4.599e-4
-1.388, 4.597e-4
-1.389, 4.597e-4
-1.390, 4.593e-4
-1.391, 4.590e-4
-1.392, 4.589e-4
-1.393, 4.586e-4
-1.394, 4.584e-4
-1.395, 4.583e-4
-1.396, 4.581e-4
-1.397, 4.579e-4
-1.398, 4.579e-4
-1.399, 4.579e-4
-1.400, 4.579e-4
-1.401, 4.578e-4
-1.402, 4.578e-4
-1.403, 4.578e-4
-1.404, 4.578e-4
-1.405, 4.576e-4
-1.406, 4.573e-4
-1.407, 4.572e-4
-1.408, 4.571e-4
-1.409, 4.572e-4
-1.410, 4.573e-4
-1.411, 4.573e-4
-1.412, 4.573e-4
-1.413, 4.574e-4
-1.414, 4.575e-4
-1.415, 4.574e-4
-1.416, 4.574e-4
-1.417, 4.575e-4
-1.418, 4.576e-4
-1.419, 4.575e-4
-1.420, 4.577e-4
-1.421, 4.578e-4
-1.422, 4.578e-4
-1.423, 4.580e-4
-1.424, 4.583e-4
-1.425, 4.587e-4
-1.426, 4.589e-4
-1.427, 4.591e-4
-1.428, 4.592e-4
-1.429, 4.594e-4
-1.430, 4.597e-4
-1.431, 4.599e-4
-1.432, 4.600e-4
-1.433, 4.602e-4
-1.434, 4.604e-4
-1.435, 4.606e-4
-1.436, 4.607e-4
-1.437, 4.610e-4
-1.438, 4.611e-4
-1.439, 4.614e-4
-1.440, 4.617e-4
-1.441, 4.621e-4
-1.442, 4.624e-4
-1.443, 4.626e-4
-1.444, 4.628e-4
-1.445, 4.633e-4
-1.446, 4.637e-4
-1.447, 4.642e-4
-1.448, 4.646e-4
-1.449, 4.649e-4
-1.450, 4.651e-4
-1.451, 4.655e-4
-1.452, 4.659e-4
-1.453, 4.665e-4
-1.454, 4.668e-4
-1.455, 4.671e-4
-1.456, 4.674e-4
-1.457, 4.676e-4
-1.458, 4.679e-4
-1.459, 4.681e-4
-1.460, 4.686e-4
-1.461, 4.689e-4
-1.462, 4.692e-4
-1.463, 4.695e-4
-1.464, 4.699e-4
-1.465, 4.703e-4
-1.466, 4.707e-4
-1.467, 4.710e-4
-1.468, 4.716e-4
-1.469, 4.720e-4
-1.470, 4.723e-4
-1.471, 4.726e-4
-1.472, 4.730e-4
-1.473, 4.735e-4
-1.474, 4.740e-4
-1.475, 4.745e-4
-1.476, 4.752e-4
-1.477, 4.758e-4
-1.478, 4.765e-4
-1.479, 4.770e-4
-1.480, 4.774e-4
-1.481, 4.778e-4
-1.482, 4.783e-4
-1.483, 4.788e-4
-1.484, 4.793e-4
-1.485, 4.798e-4
-1.486, 4.806e-4
-1.487, 4.811e-4
-1.488, 4.812e-4
-1.489, 4.818e-4
-1.490, 4.823e-4
-1.491, 4.828e-4
-1.492, 4.832e-4
-1.493, 4.839e-4
-1.494, 4.845e-4
-1.495, 4.850e-4
-1.496, 4.858e-4
-1.497, 4.867e-4
-1.498, 4.873e-4
-1.499, 4.879e-4
-1.500, 4.886e-4
-1.501, 4.893e-4
-1.502, 4.898e-4
-1.503, 4.905e-4
-1.504, 4.911e-4
-1.505, 4.917e-4
-1.506, 4.924e-4
-1.507, 4.933e-4
-1.508, 4.939e-4
-1.509, 4.949e-4
-1.510, 4.956e-4
-1.511, 4.963e-4
-1.512, 4.972e-4
-1.513, 4.980e-4
-1.514, 4.985e-4
-1.515, 4.991e-4
-1.516, 4.999e-4
-1.517, 5.006e-4
-1.518, 5.015e-4
-1.519, 5.023e-4
-1.520, 5.030e-4
-1.521, 5.041e-4
-1.522, 5.050e-4
-1.523, 5.059e-4
-1.524, 5.070e-4
-1.525, 5.078e-4
-1.526, 5.086e-4
-1.527, 5.094e-4
-1.528, 5.102e-4
-1.529, 5.109e-4
-1.530, 5.117e-4
-1.531, 5.125e-4
-1.532, 5.133e-4
-1.533, 5.144e-4
-1.534, 5.155e-4
-1.535, 5.163e-4
-1.536, 5.171e-4
-1.537, 5.179e-4
-1.538, 5.187e-4
-1.539, 5.195e-4
-1.540, 5.203e-4
-1.541, 5.210e-4
-1.542, 5.219e-4
-1.543, 5.228e-4
-1.544, 5.234e-4
-1.545, 5.244e-4
-1.546, 5.252e-4
-1.547, 5.257e-4
-1.548, 5.266e-4
-1.549, 5.275e-4
-1.550, 5.280e-4
-1.551, 5.288e-4
-1.552, 5.296e-4
-1.553, 5.300e-4
-1.554, 5.306e-4
-1.555, 5.313e-4
-1.556, 5.320e-4
-1.557, 5.327e-4
-1.558, 5.333e-4
-1.559, 5.338e-4
-1.560, 5.343e-4
-1.561, 5.349e-4
-1.562, 5.357e-4
-1.563, 5.363e-4
-1.564, 5.372e-4
-1.565, 5.381e-4
-1.566, 5.389e-4
-1.567, 5.396e-4
-1.568, 5.402e-4
-1.569, 5.410e-4
-1.570, 5.417e-4
-1.571, 5.425e-4
-1.572, 5.434e-4
-1.573, 5.443e-4
-1.574, 5.451e-4
-1.575, 5.458e-4
-1.576, 5.462e-4
-1.577, 5.470e-4
-1.578, 5.477e-4
-1.579, 5.484e-4
-1.580, 5.492e-4
-1.581, 5.502e-4
-1.582, 5.509e-4
-1.583, 5.517e-4
-1.584, 5.527e-4
-1.585, 5.536e-4
-1.586, 5.545e-4
-1.587, 5.555e-4
-1.588, 5.564e-4
-1.589, 5.571e-4
-1.590, 5.579e-4
-1.591, 5.587e-4
-1.592, 5.595e-4
-1.593, 5.606e-4
-1.594, 5.616e-4
-1.595, 5.623e-4
-1.596, 5.627e-4
-1.597, 5.635e-4
-1.598, 5.643e-4
-1.599, 5.650e-4
-1.600, 5.657e-4
-1.601, 5.664e-4
-1.602, 5.670e-4
-1.603, 5.679e-4
-1.604, 5.688e-4
-1.605, 5.696e-4
-1.606, 5.703e-4
-1.607, 5.710e-4
-1.608, 5.720e-4
-1.609, 5.729e-4
-1.610, 5.737e-4
-1.611, 5.746e-4
-1.612, 5.752e-4
-1.613, 5.763e-4
-1.614, 5.772e-4
-1.615, 5.782e-4
-1.616, 5.790e-4
-1.617, 5.796e-4
-1.618, 5.801e-4
-1.619, 5.810e-4
-1.620, 5.818e-4
-1.621, 5.824e-4
-1.622, 5.831e-4
-1.623, 5.840e-4
-1.624, 5.850e-4
-1.625, 5.857e-4
-1.626, 5.862e-4
-1.627, 5.871e-4
-1.628, 5.880e-4
-1.629, 5.889e-4
-1.630, 5.901e-4
-1.631, 5.909e-4
-1.632, 5.914e-4
-1.633, 5.922e-4
-1.634, 5.928e-4
-1.635, 5.935e-4
-1.636, 5.947e-4
-1.637, 5.953e-4
-1.638, 5.959e-4
-1.639, 5.969e-4
-1.640, 5.978e-4
-1.641, 5.986e-4
-1.642, 5.993e-4
-1.643, 6.004e-4
-1.644, 6.020e-4
-1.645, 6.032e-4
-1.646, 6.045e-4
-1.647, 6.058e-4
-1.648, 6.067e-4
-1.649, 6.075e-4
-1.650, 6.083e-4
-1.651, 6.091e-4
-1.652, 6.100e-4
-1.653, 6.110e-4
-1.654, 6.120e-4
-1.655, 6.130e-4
-1.656, 6.140e-4
-1.657, 6.153e-4
-1.658, 6.163e-4
-1.659, 6.172e-4
-1.660, 6.179e-4
-1.661, 6.187e-4
-1.662, 6.198e-4
-1.663, 6.206e-4
-1.664, 6.216e-4
-1.665, 6.227e-4
-1.666, 6.240e-4
-1.667, 6.251e-4
-1.668, 6.260e-4
-1.669, 6.272e-4
-1.670, 6.285e-4
-1.671, 6.298e-4
-1.672, 6.312e-4
-1.673, 6.324e-4
-1.674, 6.340e-4
-1.675, 6.356e-4
-1.676, 6.371e-4
-1.677, 6.387e-4
-1.678, 6.402e-4
-1.679, 6.419e-4
-1.680, 6.434e-4
-1.681, 6.455e-4
-1.682, 6.472e-4
-1.683, 6.487e-4
-1.684, 6.504e-4
-1.685, 6.522e-4
-1.686, 6.539e-4
-1.687, 6.559e-4
-1.688, 6.577e-4
-1.689, 6.591e-4
-1.690, 6.584e-4
-1.691, 6.600e-4
-1.692, 6.619e-4
-1.693, 6.642e-4
-1.694, 6.664e-4
-1.695, 6.689e-4
-1.696, 6.716e-4
-1.697, 6.739e-4
-1.698, 6.796e-4
-1.699, 6.862e-4
-1.700, 6.889e-4
-1.701, 6.914e-4
-1.702, 6.940e-4
-1.703, 6.966e-4
-1.704, 6.995e-4
-1.705, 7.024e-4
-1.706, 7.041e-4
-1.707, 7.064e-4
-1.708, 7.091e-4
-1.709, 7.119e-4
-1.710, 7.149e-4
-1.711, 7.184e-4
-1.712, 7.219e-4
-1.713, 7.244e-4
-1.714, 7.268e-4
-1.715, 7.295e-4
-1.716, 7.326e-4
-1.717, 7.356e-4
-1.718, 7.388e-4
-1.719, 7.424e-4
-1.720, 7.470e-4
-1.721, 7.511e-4
-1.722, 7.553e-4
-1.723, 7.593e-4
-1.724, 7.632e-4
-1.725, 7.673e-4
-1.726, 7.712e-4
-1.727, 7.754e-4
-1.728, 7.796e-4
-1.729, 7.838e-4
-1.730, 7.878e-4
-1.731, 7.926e-4
-1.732, 7.972e-4
-1.733, 8.020e-4
-1.734, 8.065e-4
-1.735, 8.112e-4
-1.736, 8.147e-4
-1.737, 8.195e-4
-1.738, 8.243e-4
-1.739, 8.286e-4
-1.740, 8.332e-4
-1.741, 8.378e-4
-1.742, 8.430e-4
-1.743, 8.482e-4
-1.744, 8.535e-4
-1.745, 8.589e-4
-1.746, 8.640e-4
-1.747, 8.692e-4
-1.748, 8.747e-4
-1.749, 8.804e-4
-1.750, 8.857e-4
-1.751, 8.906e-4
-1.752, 8.960e-4
-1.753, 9.015e-4
-1.754, 9.068e-4
-1.755, 9.126e-4
-1.756, 9.182e-4
-1.757, 9.237e-4
-1.758, 9.286e-4
-1.759, 9.317e-4
-1.760, 9.362e-4
-1.761, 9.408e-4
-1.762, 9.467e-4
-1.763, 9.533e-4
-1.764, 9.596e-4
-1.765, 9.656e-4
-1.766, 9.719e-4
-1.767, 9.785e-4
-1.768, 9.852e-4
-1.769, 9.921e-4
-1.770, 9.992e-4
-1.771, 1.006e-3
-1.772, 1.011e-3
-1.773, 1.011e-3
-1.774, 1.011e-3
-1.775, 1.011e-3
-1.776, 1.011e-3
-1.777, 1.011e-3
-1.778, 1.011e-3
-1.779, 1.011e-3
-1.780, 1.011e-3
-1.781, 1.011e-3
-1.782, 1.011e-3
-1.783, 1.011e-3
-1.784, 1.011e-3
-1.785, 1.011e-3
-1.786, 1.011e-3
-1.787, 1.011e-3
-1.788, 1.011e-3
-1.789, 1.011e-3
-1.790, 1.011e-3
-1.791, 1.011e-3
-1.792, 1.011e-3
-1.793, 1.011e-3
-1.794, 1.011e-3
-1.795, 1.011e-3
-1.796, 1.011e-3
-1.797, 1.011e-3
-1.798, 1.011e-3
-1.799, 1.011e-3
-1.800, 1.011e-3
-1.801, 1.011e-3
-1.802, 1.011e-3
-1.803, 1.011e-3
-1.804, 1.011e-3
-1.805, 1.011e-3
-1.806, 1.011e-3
-1.807, 1.011e-3
-1.808, 1.011e-3
-1.809, 1.011e-3
-1.810, 1.011e-3
-1.811, 1.011e-3
-1.812, 1.011e-3
-1.813, 1.011e-3
-1.814, 1.011e-3
-1.815, 1.011e-3
-1.816, 1.011e-3
-1.817, 1.011e-3
-1.818, 1.011e-3
-1.819, 1.011e-3
-1.820, 1.011e-3
-1.821, 1.011e-3
-1.822, 1.011e-3
-1.823, 1.011e-3
-1.824, 1.011e-3
-1.825, 1.011e-3
-1.826, 1.011e-3
-1.827, 1.011e-3
-1.828, 1.011e-3
-1.829, 1.011e-3
-1.830, 1.011e-3
-1.831, 1.011e-3
-1.832, 1.011e-3
-1.833, 1.011e-3
-1.834, 1.011e-3
-1.835, 1.011e-3
-1.836, 1.011e-3
-1.837, 1.011e-3
-1.838, 1.011e-3
-1.839, 1.011e-3
-1.840, 1.011e-3
-1.841, 1.011e-3
-1.842, 1.011e-3
-1.843, 1.011e-3
-1.844, 1.011e-3
-1.845, 1.011e-3
-1.846, 1.011e-3
-1.847, 1.011e-3
-1.848, 1.011e-3
-1.849, 1.011e-3
-1.850, 1.011e-3
-1.851, 1.011e-3
-1.852, 1.011e-3
-1.853, 1.011e-3
-1.854, 1.011e-3
-1.855, 1.011e-3
-1.856, 1.011e-3
-1.857, 1.011e-3
-1.858, 1.011e-3
-1.859, 1.011e-3
-1.860, 1.011e-3
-1.861, 1.011e-3
-1.862, 1.011e-3
-1.863, 1.011e-3
-1.864, 1.011e-3
-1.865, 1.011e-3
-1.866, 1.011e-3
-1.867, 1.011e-3
-1.868, 1.011e-3
-1.869, 1.011e-3
-1.870, 1.011e-3
-1.871, 1.011e-3
-1.872, 1.011e-3
-1.873, 1.011e-3
-1.874, 1.011e-3
-1.875, 1.011e-3
-1.876, 1.011e-3
-1.877, 1.011e-3
-1.878, 1.011e-3
-1.879, 1.011e-3
-1.880, 1.011e-3
-1.881, 1.011e-3
-1.882, 1.011e-3
-1.883, 1.011e-3
-1.884, 1.011e-3
-1.885, 1.011e-3
-1.886, 1.011e-3
-1.887, 1.011e-3
-1.888, 1.011e-3
-1.889, 1.011e-3
-1.890, 1.011e-3
-1.891, 1.011e-3
-1.892, 1.011e-3
-1.893, 1.011e-3
-1.894, 1.011e-3
-1.895, 1.011e-3
-1.896, 1.011e-3
-1.897, 1.011e-3
-1.898, 1.011e-3
-1.899, 1.011e-3
-1.900, 1.011e-3
-1.901, 1.011e-3
-1.902, 1.011e-3
-1.903, 1.011e-3
-1.904, 1.011e-3
-1.905, 1.011e-3
-1.906, 1.011e-3
-1.907, 1.011e-3
-1.908, 1.011e-3
-1.909, 1.011e-3
-1.910, 1.011e-3
-1.911, 1.011e-3
-1.912, 1.011e-3
-1.913, 1.011e-3
-1.914, 1.011e-3
-1.915, 1.011e-3
-1.916, 1.011e-3
-1.917, 1.011e-3
-1.918, 1.011e-3
-1.919, 1.011e-3
-1.920, 1.011e-3
-1.921, 1.011e-3
-1.922, 1.011e-3
-1.923, 1.011e-3
-1.924, 1.011e-3
-1.925, 1.011e-3
-1.926, 1.011e-3
-1.927, 1.011e-3
-1.928, 1.011e-3
-1.929, 1.011e-3
-1.930, 1.011e-3
-1.931, 1.011e-3
-1.932, 1.011e-3
-1.933, 1.011e-3
-1.934, 1.011e-3
-1.935, 1.011e-3
-1.936, 1.011e-3
-1.937, 1.011e-3
-1.938, 1.011e-3
-1.939, 1.011e-3
-1.940, 1.011e-3
-1.941, 1.011e-3
-1.942, 1.011e-3
-1.943, 1.011e-3
-1.944, 1.011e-3
-1.945, 1.011e-3
-1.946, 1.011e-3
-1.947, 1.011e-3
-1.948, 1.011e-3
-1.949, 1.011e-3
-1.950, 1.011e-3
-1.951, 1.011e-3
-1.952, 1.011e-3
-1.953, 1.011e-3
-1.954, 1.011e-3
-1.955, 1.011e-3
-1.956, 1.011e-3
-1.957, 1.011e-3
-1.958, 1.011e-3
-1.959, 1.011e-3
-1.960, 1.011e-3
-1.961, 1.011e-3
-1.962, 1.011e-3
-1.963, 1.011e-3
-1.964, 1.011e-3
-1.965, 1.011e-3
-1.966, 1.011e-3
-1.967, 1.011e-3
-1.968, 1.011e-3
-1.969, 1.011e-3
-1.970, 1.011e-3
-1.971, 1.011e-3
-1.972, 1.011e-3
-1.973, 1.011e-3
-1.974, 1.011e-3
-1.975, 1.011e-3
-1.976, 1.011e-3
-1.977, 1.011e-3
-1.978, 1.011e-3
-1.979, 1.011e-3
-1.980, 1.011e-3
-1.981, 1.011e-3
-1.982, 1.011e-3
-1.983, 1.011e-3
-1.984, 1.011e-3
-1.985, 1.011e-3
-1.986, 1.011e-3
-1.987, 1.011e-3
-1.988, 1.011e-3
-1.989, 1.011e-3
-1.990, 1.011e-3
-1.991, 1.011e-3
-1.992, 1.011e-3
-1.993, 1.011e-3
-1.994, 1.011e-3
-1.995, 1.011e-3
-1.996, 1.011e-3
-1.997, 1.011e-3
-1.998, 1.011e-3
-1.999, 1.011e-3
-2.000, 1.011e-3
-2.001, 1.011e-3
-2.002, 1.011e-3
-2.003, 1.011e-3
-2.004, 1.011e-3
-2.005, 1.011e-3
-2.006, 1.011e-3
-2.007, 1.011e-3
-2.008, 1.011e-3
-2.009, 1.011e-3
-2.010, 1.011e-3
-2.011, 1.011e-3
-2.012, 1.011e-3
-2.013, 1.011e-3
-2.014, 1.011e-3
-2.015, 1.011e-3
-2.016, 1.011e-3
-2.017, 1.011e-3
-2.018, 1.011e-3
-2.019, 1.011e-3
-2.020, 1.011e-3
-2.021, 1.011e-3
-2.022, 1.011e-3
-2.023, 1.011e-3
-2.024, 1.011e-3
-2.025, 1.011e-3
-2.026, 1.011e-3
-2.027, 1.011e-3
-2.028, 1.011e-3
-2.029, 1.011e-3
-2.030, 1.011e-3
-2.031, 1.011e-3
-2.032, 1.011e-3
-2.033, 1.011e-3
-2.034, 1.011e-3
-2.035, 1.011e-3
-2.036, 1.011e-3
-2.037, 1.011e-3
-2.038, 1.011e-3
-2.039, 1.011e-3
-2.040, 1.011e-3
-2.041, 1.011e-3
-2.042, 1.011e-3
-2.043, 1.011e-3
-2.044, 1.011e-3
-2.045, 1.011e-3
-2.046, 1.011e-3
-2.047, 1.011e-3
-2.048, 1.011e-3
-2.049, 1.011e-3
-2.050, 1.011e-3
-2.051, 1.011e-3
-2.052, 1.011e-3
-2.053, 1.011e-3
-2.054, 1.011e-3
-2.055, 1.011e-3
-2.056, 1.011e-3
-2.057, 1.011e-3
-2.058, 1.011e-3
-2.059, 1.011e-3
-2.060, 1.011e-3
-2.061, 1.011e-3
-2.062, 1.011e-3
-2.063, 1.011e-3
-2.064, 1.011e-3
-2.065, 1.011e-3
-2.066, 1.011e-3
-2.067, 1.011e-3
-2.068, 1.011e-3
-2.069, 1.011e-3
-2.070, 1.011e-3
-2.071, 1.011e-3
-2.072, 1.011e-3
-2.073, 1.011e-3
-2.074, 1.011e-3
-2.075, 1.011e-3
-2.076, 1.011e-3
-2.077, 1.011e-3
-2.078, 1.011e-3
-2.079, 1.011e-3
-2.080, 1.011e-3
-2.081, 1.011e-3
-2.082, 1.011e-3
-2.083, 1.011e-3
-2.084, 1.011e-3
-2.085, 1.011e-3
-2.086, 1.011e-3
-2.087, 1.011e-3
-2.088, 1.011e-3
-2.089, 1.011e-3
-2.090, 1.011e-3
-2.091, 1.011e-3
-2.092, 1.011e-3
-2.093, 1.011e-3
-2.094, 1.011e-3
-2.095, 1.011e-3
-2.096, 1.011e-3
-2.097, 1.011e-3
-2.098, 1.011e-3
-2.099, 1.011e-3
-2.100, 1.011e-3
-2.101, 1.011e-3
-2.102, 1.011e-3
-2.103, 1.011e-3
-2.104, 1.011e-3
-2.105, 1.011e-3
-2.106, 1.011e-3
-2.107, 1.011e-3
-2.108, 1.011e-3
-2.109, 1.011e-3
-2.110, 1.011e-3
-2.111, 1.011e-3
-2.112, 1.011e-3
-2.113, 1.011e-3
-2.114, 1.011e-3
-2.115, 1.011e-3
-2.116, 1.011e-3
-2.117, 1.011e-3
-2.118, 1.011e-3
-2.119, 1.011e-3
-2.120, 1.011e-3
-2.121, 1.011e-3
-2.122, 1.011e-3
-2.123, 1.011e-3
-2.124, 1.011e-3
-2.125, 1.011e-3
-2.126, 1.011e-3
-2.127, 1.011e-3
-2.128, 1.011e-3
-2.129, 1.011e-3
-2.130, 1.011e-3
-2.131, 1.011e-3
-2.132, 1.011e-3
-2.133, 1.011e-3
-2.134, 1.011e-3
-2.135, 1.011e-3
-2.136, 1.011e-3
-2.137, 1.011e-3
-2.138, 1.011e-3
-2.139, 1.011e-3
-2.140, 1.011e-3
-2.141, 1.011e-3
-2.142, 1.011e-3
-2.143, 1.011e-3
-2.144, 1.011e-3
-2.145, 1.011e-3
-2.146, 1.011e-3
-2.147, 1.011e-3
-2.148, 1.011e-3
-2.149, 1.011e-3
-2.150, 1.011e-3
-2.151, 1.011e-3
-2.152, 1.011e-3
-2.153, 1.011e-3
-2.154, 1.011e-3
-2.155, 1.011e-3
-2.156, 1.011e-3
-2.157, 1.011e-3
-2.158, 1.011e-3
-2.159, 1.011e-3
-2.160, 1.011e-3
-2.161, 1.011e-3
-2.162, 1.011e-3
-2.163, 1.011e-3
-2.164, 1.011e-3
-2.165, 1.011e-3
-2.166, 1.011e-3
-2.167, 1.011e-3
-2.168, 1.011e-3
-2.169, 1.011e-3
-2.170, 1.011e-3
-2.171, 1.011e-3
-2.172, 1.011e-3
-2.173, 1.011e-3
-2.174, 1.011e-3
-2.175, 1.011e-3
-2.176, 1.011e-3
-2.177, 1.011e-3
-2.178, 1.011e-3
-2.179, 1.011e-3
-2.180, 1.011e-3
-2.181, 1.011e-3
-2.182, 1.011e-3
-2.183, 1.011e-3
-2.184, 1.011e-3
-2.185, 1.011e-3
-2.186, 1.011e-3
-2.187, 1.011e-3
-2.188, 1.011e-3
-2.189, 1.011e-3
-2.190, 1.011e-3
-2.191, 1.011e-3
-2.192, 1.011e-3
-2.193, 1.011e-3
-2.194, 1.011e-3
-2.195, 1.011e-3
-2.196, 1.011e-3
-2.197, 1.011e-3
-2.198, 1.011e-3
-2.199, 1.011e-3
-2.200, 1.011e-3
-2.201, 1.011e-3
-2.202, 1.011e-3
-2.203, 1.011e-3
-2.204, 1.011e-3
-2.205, 1.011e-3
-2.206, 1.011e-3
-2.207, 1.011e-3
-2.208, 1.011e-3
-2.209, 1.011e-3
-2.210, 1.011e-3
-2.211, 1.011e-3
-2.212, 1.011e-3
-2.213, 1.011e-3
-2.214, 1.011e-3
-2.215, 1.011e-3
-2.216, 1.011e-3
-2.217, 1.011e-3
-2.218, 1.011e-3
-2.219, 1.011e-3
-2.220, 1.011e-3
-2.221, 1.011e-3
-2.222, 1.011e-3
-2.223, 1.011e-3
-2.224, 1.011e-3
-2.225, 1.011e-3
-2.226, 1.011e-3
-2.227, 1.011e-3
-2.228, 1.011e-3
-2.229, 1.011e-3
-2.230, 1.011e-3
-2.231, 1.011e-3
-2.232, 1.011e-3
-2.233, 1.011e-3
-2.234, 1.011e-3
-2.235, 1.011e-3
-2.236, 1.011e-3
-2.237, 1.011e-3
-2.238, 1.011e-3
-2.239, 1.011e-3
-2.240, 1.011e-3
-2.241, 1.011e-3
-2.242, 1.011e-3
-2.243, 1.011e-3
-2.244, 1.011e-3
-2.245, 1.011e-3
-2.246, 1.011e-3
-2.247, 1.011e-3
-2.248, 1.011e-3
-2.249, 1.011e-3
-2.250, 1.011e-3
-2.251, 1.011e-3
-2.252, 1.011e-3
-2.253, 1.011e-3
-2.254, 1.011e-3
-2.255, 1.011e-3
-2.256, 1.011e-3
-2.257, 1.011e-3
-2.258, 1.011e-3
-2.259, 1.011e-3
-2.260, 1.011e-3
-2.261, 1.011e-3
-2.262, 1.011e-3
-2.263, 1.011e-3
-2.264, 1.011e-3
-2.265, 1.011e-3
-2.266, 1.011e-3
-2.267, 1.011e-3
-2.268, 1.011e-3
-2.269, 1.011e-3
-2.270, 1.011e-3
-2.271, 1.011e-3
-2.272, 1.011e-3
-2.273, 1.011e-3
-2.274, 1.011e-3
-2.275, 1.011e-3
-2.276, 1.011e-3
-2.277, 1.011e-3
-2.278, 1.011e-3
-2.279, 1.011e-3
-2.280, 1.011e-3
-2.281, 1.011e-3
-2.282, 1.011e-3
-2.283, 1.011e-3
-2.284, 1.011e-3
-2.285, 1.011e-3
-2.286, 1.011e-3
-2.287, 1.011e-3
-2.288, 1.011e-3
-2.289, 1.011e-3
-2.290, 1.011e-3
-2.291, 1.011e-3
-2.292, 1.011e-3
-2.293, 1.011e-3
-2.294, 1.011e-3
-2.295, 1.011e-3
-2.296, 1.011e-3
-2.297, 1.011e-3
-2.298, 1.011e-3
-2.299, 1.011e-3
