Dec. 12, 2024   20:53:41
Cyclic Voltammetry
File: c:/users/guazh/data/banditlqround7_x0exp59_r20/2024-12-09-exp641\exp641-2024-12-12t20_48_09-h2koh\exp641_cv_sr_50mvs_efin_-1400mv.bin
Data Source:  Experiment
Instrument Model:  CHI760E
Header: CV ran at 50 mVs
Note: 

Init E (V) = -1
High E (V) = -1
Low E (V) = -1.4
Final E (V) = -1
Init P/N = N
Scan Rate (V/s) = 0.05
Segment = 3
Sample Interval (V) = 0.001
Quiet Time (sec) = 2
Sensitivity (A/V) = 0.01
Comp R (ohm) = 1.2

Results:

Channel 1:
Segment 1:

Segment 2:

Segment 3:

Potential/V, Current/A

-1.000, -1.292e-4
-1.001, -1.995e-5
-1.002, 5.189e-5
-1.003, 1.015e-4
-1.004, 1.358e-4
-1.005, 1.601e-4
-1.006, 1.824e-4
-1.007, 2.033e-4
-1.008, 2.194e-4
-1.009, 2.316e-4
-1.010, 2.413e-4
-1.011, 2.519e-4
-1.012, 2.645e-4
-1.013, 2.742e-4
-1.014, 2.808e-4
-1.015, 2.866e-4
-1.016, 2.934e-4
-1.017, 3.024e-4
-1.018, 3.097e-4
-1.019, 3.140e-4
-1.020, 3.174e-4
-1.021, 3.228e-4
-1.022, 3.310e-4
-1.023, 3.371e-4
-1.024, 3.406e-4
-1.025, 3.431e-4
-1.026, 3.472e-4
-1.027, 3.529e-4
-1.028, 3.583e-4
-1.029, 3.600e-4
-1.030, 3.620e-4
-1.031, 3.659e-4
-1.032, 3.717e-4
-1.033, 3.762e-4
-1.034, 3.774e-4
-1.035, 3.782e-4
-1.036, 3.822e-4
-1.037, 3.871e-4
-1.038, 3.912e-4
-1.039, 3.927e-4
-1.040, 3.929e-4
-1.041, 3.962e-4
-1.042, 4.010e-4
-1.043, 4.043e-4
-1.044, 4.058e-4
-1.045, 4.055e-4
-1.046, 4.084e-4
-1.047, 4.126e-4
-1.048, 4.155e-4
-1.049, 4.166e-4
-1.050, 4.173e-4
-1.051, 4.193e-4
-1.052, 4.238e-4
-1.053, 4.262e-4
-1.054, 4.265e-4
-1.055, 4.265e-4
-1.056, 4.286e-4
-1.057, 4.327e-4
-1.058, 4.359e-4
-1.059, 4.362e-4
-1.060, 4.364e-4
-1.061, 4.379e-4
-1.062, 4.422e-4
-1.063, 4.452e-4
-1.064, 4.449e-4
-1.065, 4.461e-4
-1.066, 4.485e-4
-1.067, 4.512e-4
-1.068, 4.558e-4
-1.069, 4.551e-4
-1.070, 4.534e-4
-1.071, 4.550e-4
-1.072, 4.584e-4
-1.073, 4.612e-4
-1.074, 4.602e-4
-1.075, 4.606e-4
-1.076, 4.628e-4
-1.077, 4.658e-4
-1.078, 4.679e-4
-1.079, 4.681e-4
-1.080, 4.657e-4
-1.081, 4.679e-4
-1.082, 4.710e-4
-1.083, 4.734e-4
-1.084, 4.736e-4
-1.085, 4.720e-4
-1.086, 4.732e-4
-1.087, 4.768e-4
-1.088, 4.796e-4
-1.089, 4.806e-4
-1.090, 4.784e-4
-1.091, 4.786e-4
-1.092, 4.821e-4
-1.093, 4.839e-4
-1.094, 4.847e-4
-1.095, 4.830e-4
-1.096, 4.841e-4
-1.097, 4.878e-4
-1.098, 4.893e-4
-1.099, 4.879e-4
-1.100, 4.877e-4
-1.101, 4.891e-4
-1.102, 4.918e-4
-1.103, 4.936e-4
-1.104, 4.932e-4
-1.105, 4.931e-4
-1.106, 4.920e-4
-1.107, 4.945e-4
-1.108, 4.965e-4
-1.109, 4.944e-4
-1.110, 4.936e-4
-1.111, 4.961e-4
-1.112, 4.985e-4
-1.113, 5.002e-4
-1.114, 4.994e-4
-1.115, 4.975e-4
-1.116, 4.986e-4
-1.117, 5.005e-4
-1.118, 5.027e-4
-1.119, 5.022e-4
-1.120, 5.010e-4
-1.121, 5.014e-4
-1.122, 5.045e-4
-1.123, 5.067e-4
-1.124, 5.051e-4
-1.125, 5.031e-4
-1.126, 5.046e-4
-1.127, 5.063e-4
-1.128, 5.085e-4
-1.129, 5.076e-4
-1.130, 5.056e-4
-1.131, 5.076e-4
-1.132, 5.106e-4
-1.133, 5.121e-4
-1.134, 5.115e-4
-1.135, 5.097e-4
-1.136, 5.099e-4
-1.137, 5.137e-4
-1.138, 5.154e-4
-1.139, 5.141e-4
-1.140, 5.133e-4
-1.141, 5.146e-4
-1.142, 5.173e-4
-1.143, 5.202e-4
-1.144, 5.191e-4
-1.145, 5.180e-4
-1.146, 5.191e-4
-1.147, 5.210e-4
-1.148, 5.244e-4
-1.149, 5.217e-4
-1.150, 5.211e-4
-1.151, 5.246e-4
-1.152, 5.287e-4
-1.153, 5.305e-4
-1.154, 5.301e-4
-1.155, 5.291e-4
-1.156, 5.308e-4
-1.157, 5.311e-4
-1.158, 5.328e-4
-1.159, 5.322e-4
-1.160, 5.311e-4
-1.161, 5.334e-4
-1.162, 5.393e-4
-1.163, 5.410e-4
-1.164, 5.415e-4
-1.165, 5.392e-4
-1.166, 5.404e-4
-1.167, 5.445e-4
-1.168, 5.479e-4
-1.169, 5.498e-4
-1.170, 5.487e-4
-1.171, 5.496e-4
-1.172, 5.538e-4
-1.173, 5.567e-4
-1.174, 5.573e-4
-1.175, 5.569e-4
-1.176, 5.594e-4
-1.177, 5.643e-4
-1.178, 5.680e-4
-1.179, 5.686e-4
-1.180, 5.683e-4
-1.181, 5.700e-4
-1.182, 5.754e-4
-1.183, 5.791e-4
-1.184, 5.798e-4
-1.185, 5.798e-4
-1.186, 5.820e-4
-1.187, 5.866e-4
-1.188, 5.908e-4
-1.189, 5.922e-4
-1.190, 5.928e-4
-1.191, 5.965e-4
-1.192, 6.022e-4
-1.193, 6.069e-4
-1.194, 6.085e-4
-1.195, 6.094e-4
-1.196, 6.134e-4
-1.197, 6.177e-4
-1.198, 6.241e-4
-1.199, 6.263e-4
-1.200, 6.272e-4
-1.201, 6.306e-4
-1.202, 6.366e-4
-1.203, 6.433e-4
-1.204, 6.463e-4
-1.205, 6.476e-4
-1.206, 6.533e-4
-1.207, 6.605e-4
-1.208, 6.656e-4
-1.209, 6.693e-4
-1.210, 6.715e-4
-1.211, 6.778e-4
-1.212, 6.855e-4
-1.213, 6.913e-4
-1.214, 6.956e-4
-1.215, 6.990e-4
-1.216, 7.057e-4
-1.217, 7.146e-4
-1.218, 7.231e-4
-1.219, 7.286e-4
-1.220, 7.334e-4
-1.221, 7.396e-4
-1.222, 7.478e-4
-1.223, 7.570e-4
-1.224, 7.644e-4
-1.225, 7.723e-4
-1.226, 7.808e-4
-1.227, 7.903e-4
-1.228, 8.018e-4
-1.229, 8.124e-4
-1.230, 8.176e-4
-1.231, 8.278e-4
-1.232, 8.397e-4
-1.233, 8.524e-4
-1.234, 8.636e-4
-1.235, 8.722e-4
-1.236, 8.834e-4
-1.237, 8.971e-4
-1.238, 9.132e-4
-1.239, 9.218e-4
-1.240, 9.330e-4
-1.241, 9.488e-4
-1.242, 9.668e-4
-1.243, 9.835e-4
-1.244, 9.989e-4
-1.245, 1.011e-3
-1.246, 1.028e-3
-1.247, 1.049e-3
-1.248, 1.070e-3
-1.249, 1.087e-3
-1.250, 1.107e-3
-1.251, 1.129e-3
-1.252, 1.155e-3
-1.253, 1.177e-3
-1.254, 1.197e-3
-1.255, 1.221e-3
-1.256, 1.255e-3
-1.257, 1.288e-3
-1.258, 1.313e-3
-1.259, 1.331e-3
-1.260, 1.357e-3
-1.261, 1.386e-3
-1.262, 1.422e-3
-1.263, 1.461e-3
-1.264, 1.496e-3
-1.265, 1.533e-3
-1.266, 1.571e-3
-1.267, 1.612e-3
-1.268, 1.655e-3
-1.269, 1.696e-3
-1.270, 1.741e-3
-1.271, 1.789e-3
-1.272, 1.839e-3
-1.273, 1.894e-3
-1.274, 1.946e-3
-1.275, 1.998e-3
-1.276, 2.055e-3
-1.277, 2.117e-3
-1.278, 2.180e-3
-1.279, 2.244e-3
-1.280, 2.311e-3
-1.281, 2.379e-3
-1.282, 2.454e-3
-1.283, 2.530e-3
-1.284, 2.607e-3
-1.285, 2.681e-3
-1.286, 2.764e-3
-1.287, 2.850e-3
-1.288, 2.937e-3
-1.289, 3.023e-3
-1.290, 3.114e-3
-1.291, 3.202e-3
-1.292, 3.303e-3
-1.293, 3.402e-3
-1.294, 3.503e-3
-1.295, 3.602e-3
-1.296, 3.707e-3
-1.297, 3.817e-3
-1.298, 3.929e-3
-1.299, 4.036e-3
-1.300, 4.152e-3
-1.301, 4.289e-3
-1.302, 4.410e-3
-1.303, 4.525e-3
-1.304, 4.645e-3
-1.305, 4.789e-3
-1.306, 4.938e-3
-1.307, 5.058e-3
-1.308, 5.166e-3
-1.309, 5.250e-3
-1.310, 5.369e-3
-1.311, 5.510e-3
-1.312, 5.650e-3
-1.313, 5.788e-3
-1.314, 5.925e-3
-1.315, 6.066e-3
-1.316, 6.199e-3
-1.317, 6.336e-3
-1.318, 6.474e-3
-1.319, 6.606e-3
-1.320, 6.736e-3
-1.321, 6.875e-3
-1.322, 7.016e-3
-1.323, 7.165e-3
-1.324, 7.325e-3
-1.325, 7.455e-3
-1.326, 7.603e-3
-1.327, 7.752e-3
-1.328, 7.889e-3
-1.329, 8.029e-3
-1.330, 8.154e-3
-1.331, 8.291e-3
-1.332, 8.443e-3
-1.333, 8.595e-3
-1.334, 8.731e-3
-1.335, 8.887e-3
-1.336, 9.033e-3
-1.337, 9.185e-3
-1.338, 9.341e-3
-1.339, 9.491e-3
-1.340, 9.619e-3
-1.341, 9.761e-3
-1.342, 9.910e-3
-1.343, 1.006e-2
-1.344, 1.021e-2
-1.345, 1.036e-2
-1.346, 1.052e-2
-1.347, 1.067e-2
-1.348, 1.082e-2
-1.349, 1.097e-2
-1.350, 1.112e-2
-1.351, 1.128e-2
-1.352, 1.142e-2
-1.353, 1.156e-2
-1.354, 1.173e-2
-1.355, 1.191e-2
-1.356, 1.205e-2
-1.357, 1.220e-2
-1.358, 1.233e-2
-1.359, 1.246e-2
-1.360, 1.265e-2
-1.361, 1.281e-2
-1.362, 1.298e-2
-1.363, 1.311e-2
-1.364, 1.327e-2
-1.365, 1.340e-2
-1.366, 1.355e-2
-1.367, 1.374e-2
-1.368, 1.390e-2
-1.369, 1.406e-2
-1.370, 1.419e-2
-1.371, 1.430e-2
-1.372, 1.448e-2
-1.373, 1.467e-2
-1.374, 1.487e-2
-1.375, 1.501e-2
-1.376, 1.512e-2
-1.377, 1.527e-2
-1.378, 1.544e-2
-1.379, 1.559e-2
-1.380, 1.577e-2
-1.381, 1.590e-2
-1.382, 1.607e-2
-1.383, 1.623e-2
-1.384, 1.634e-2
-1.385, 1.650e-2
-1.386, 1.670e-2
-1.387, 1.685e-2
-1.388, 1.700e-2
-1.389, 1.715e-2
-1.390, 1.731e-2
-1.391, 1.747e-2
-1.392, 1.762e-2
-1.393, 1.777e-2
-1.394, 1.791e-2
-1.395, 1.805e-2
-1.396, 1.821e-2
-1.397, 1.835e-2
-1.398, 1.849e-2
-1.399, 1.869e-2
-1.400, 1.866e-2
-1.399, 1.844e-2
-1.398, 1.830e-2
-1.397, 1.815e-2
-1.396, 1.798e-2
-1.395, 1.785e-2
-1.394, 1.769e-2
-1.393, 1.755e-2
-1.392, 1.740e-2
-1.391, 1.722e-2
-1.390, 1.708e-2
-1.389, 1.691e-2
-1.388, 1.672e-2
-1.387, 1.658e-2
-1.386, 1.644e-2
-1.385, 1.628e-2
-1.384, 1.612e-2
-1.383, 1.596e-2
-1.382, 1.576e-2
-1.381, 1.563e-2
-1.380, 1.555e-2
-1.379, 1.540e-2
-1.378, 1.518e-2
-1.377, 1.503e-2
-1.376, 1.491e-2
-1.375, 1.470e-2
-1.374, 1.454e-2
-1.373, 1.440e-2
-1.372, 1.425e-2
-1.371, 1.410e-2
-1.370, 1.392e-2
-1.369, 1.376e-2
-1.368, 1.367e-2
-1.367, 1.350e-2
-1.366, 1.331e-2
-1.365, 1.315e-2
-1.364, 1.300e-2
-1.363, 1.287e-2
-1.362, 1.277e-2
-1.361, 1.274e-2
-1.360, 1.257e-2
-1.359, 1.248e-2
-1.358, 1.239e-2
-1.357, 1.228e-2
-1.356, 1.214e-2
-1.355, 1.197e-2
-1.354, 1.184e-2
-1.353, 1.165e-2
-1.352, 1.152e-2
-1.351, 1.138e-2
-1.350, 1.127e-2
-1.349, 1.114e-2
-1.348, 1.105e-2
-1.347, 1.093e-2
-1.346, 1.075e-2
-1.345, 1.063e-2
-1.344, 1.046e-2
-1.343, 1.034e-2
-1.342, 1.026e-2
-1.341, 1.015e-2
-1.340, 1.003e-2
-1.339, 9.914e-3
-1.338, 9.766e-3
-1.337, 9.644e-3
-1.336, 9.550e-3
-1.335, 9.395e-3
-1.334, 9.269e-3
-1.333, 9.150e-3
-1.332, 9.047e-3
-1.331, 8.959e-3
-1.330, 8.857e-3
-1.329, 8.737e-3
-1.328, 8.618e-3
-1.327, 8.514e-3
-1.326, 8.393e-3
-1.325, 8.254e-3
-1.324, 8.126e-3
-1.323, 8.012e-3
-1.322, 7.887e-3
-1.321, 7.761e-3
-1.320, 7.658e-3
-1.319, 7.586e-3
-1.318, 7.440e-3
-1.317, 7.302e-3
-1.316, 7.205e-3
-1.315, 7.098e-3
-1.314, 6.981e-3
-1.313, 6.871e-3
-1.312, 6.765e-3
-1.311, 6.650e-3
-1.310, 6.540e-3
-1.309, 6.434e-3
-1.308, 6.329e-3
-1.307, 6.227e-3
-1.306, 6.118e-3
-1.305, 6.019e-3
-1.304, 5.921e-3
-1.303, 5.821e-3
-1.302, 5.722e-3
-1.301, 5.622e-3
-1.300, 5.514e-3
-1.299, 5.423e-3
-1.298, 5.313e-3
-1.297, 5.217e-3
-1.296, 5.149e-3
-1.295, 5.048e-3
-1.294, 4.961e-3
-1.293, 4.846e-3
-1.292, 4.742e-3
-1.291, 4.651e-3
-1.290, 4.558e-3
-1.289, 4.478e-3
-1.288, 4.383e-3
-1.287, 4.302e-3
-1.286, 4.211e-3
-1.285, 4.123e-3
-1.284, 4.036e-3
-1.283, 3.946e-3
-1.282, 3.855e-3
-1.281, 3.774e-3
-1.280, 3.678e-3
-1.279, 3.598e-3
-1.278, 3.521e-3
-1.277, 3.439e-3
-1.276, 3.357e-3
-1.275, 3.273e-3
-1.274, 3.200e-3
-1.273, 3.131e-3
-1.272, 3.063e-3
-1.271, 2.990e-3
-1.270, 2.908e-3
-1.269, 2.837e-3
-1.268, 2.761e-3
-1.267, 2.692e-3
-1.266, 2.614e-3
-1.265, 2.540e-3
-1.264, 2.470e-3
-1.263, 2.410e-3
-1.262, 2.346e-3
-1.261, 2.275e-3
-1.260, 2.205e-3
-1.259, 2.142e-3
-1.258, 2.084e-3
-1.257, 2.020e-3
-1.256, 1.957e-3
-1.255, 1.893e-3
-1.254, 1.836e-3
-1.253, 1.780e-3
-1.252, 1.724e-3
-1.251, 1.667e-3
-1.250, 1.609e-3
-1.249, 1.554e-3
-1.248, 1.500e-3
-1.247, 1.451e-3
-1.246, 1.399e-3
-1.245, 1.348e-3
-1.244, 1.295e-3
-1.243, 1.246e-3
-1.242, 1.201e-3
-1.241, 1.159e-3
-1.240, 1.109e-3
-1.239, 1.066e-3
-1.238, 1.020e-3
-1.237, 9.794e-4
-1.236, 9.349e-4
-1.235, 8.913e-4
-1.234, 8.498e-4
-1.233, 8.115e-4
-1.232, 7.748e-4
-1.231, 7.360e-4
-1.230, 6.962e-4
-1.229, 6.575e-4
-1.228, 6.239e-4
-1.227, 5.919e-4
-1.226, 5.563e-4
-1.225, 5.201e-4
-1.224, 4.883e-4
-1.223, 4.604e-4
-1.222, 4.280e-4
-1.221, 3.985e-4
-1.220, 3.663e-4
-1.219, 3.370e-4
-1.218, 3.115e-4
-1.217, 2.856e-4
-1.216, 2.584e-4
-1.215, 2.304e-4
-1.214, 2.044e-4
-1.213, 1.816e-4
-1.212, 1.583e-4
-1.211, 1.338e-4
-1.210, 1.086e-4
-1.209, 8.650e-5
-1.208, 6.760e-5
-1.207, 4.742e-5
-1.206, 2.549e-5
-1.205, 3.500e-6
-1.204, -1.666e-5
-1.203, -3.380e-5
-1.202, -4.991e-5
-1.201, -6.957e-5
-1.200, -8.830e-5
-1.199, -1.055e-4
-1.198, -1.202e-4
-1.197, -1.346e-4
-1.196, -1.524e-4
-1.195, -1.693e-4
-1.194, -1.833e-4
-1.193, -1.958e-4
-1.192, -2.058e-4
-1.191, -2.210e-4
-1.190, -2.375e-4
-1.189, -2.509e-4
-1.188, -2.616e-4
-1.187, -2.714e-4
-1.186, -2.831e-4
-1.185, -2.957e-4
-1.184, -3.063e-4
-1.183, -3.160e-4
-1.182, -3.263e-4
-1.181, -3.366e-4
-1.180, -3.485e-4
-1.179, -3.588e-4
-1.178, -3.664e-4
-1.177, -3.745e-4
-1.176, -3.822e-4
-1.175, -3.924e-4
-1.174, -3.994e-4
-1.173, -4.047e-4
-1.172, -4.112e-4
-1.171, -4.206e-4
-1.170, -4.305e-4
-1.169, -4.382e-4
-1.168, -4.420e-4
-1.167, -4.470e-4
-1.166, -4.531e-4
-1.165, -4.614e-4
-1.164, -4.657e-4
-1.163, -4.694e-4
-1.162, -4.758e-4
-1.161, -4.837e-4
-1.160, -4.908e-4
-1.159, -4.955e-4
-1.158, -4.976e-4
-1.157, -5.017e-4
-1.156, -5.109e-4
-1.155, -5.173e-4
-1.154, -5.215e-4
-1.153, -5.246e-4
-1.152, -5.275e-4
-1.151, -5.352e-4
-1.150, -5.429e-4
-1.149, -5.483e-4
-1.148, -5.505e-4
-1.147, -5.487e-4
-1.146, -5.489e-4
-1.145, -5.560e-4
-1.144, -5.581e-4
-1.143, -5.582e-4
-1.142, -5.595e-4
-1.141, -5.634e-4
-1.140, -5.713e-4
-1.139, -5.760e-4
-1.138, -5.769e-4
-1.137, -5.797e-4
-1.136, -5.831e-4
-1.135, -5.876e-4
-1.134, -5.914e-4
-1.133, -5.915e-4
-1.132, -5.930e-4
-1.131, -5.961e-4
-1.130, -6.015e-4
-1.129, -6.040e-4
-1.128, -6.046e-4
-1.127, -6.057e-4
-1.126, -6.102e-4
-1.125, -6.149e-4
-1.124, -6.171e-4
-1.123, -6.172e-4
-1.122, -6.170e-4
-1.121, -6.197e-4
-1.120, -6.236e-4
-1.119, -6.265e-4
-1.118, -6.273e-4
-1.117, -6.292e-4
-1.116, -6.325e-4
-1.115, -6.350e-4
-1.114, -6.389e-4
-1.113, -6.393e-4
-1.112, -6.395e-4
-1.111, -6.431e-4
-1.110, -6.494e-4
-1.109, -6.546e-4
-1.108, -6.527e-4
-1.107, -6.521e-4
-1.106, -6.546e-4
-1.105, -6.581e-4
-1.104, -6.603e-4
-1.103, -6.613e-4
-1.102, -6.622e-4
-1.101, -6.649e-4
-1.100, -6.696e-4
-1.099, -6.715e-4
-1.098, -6.721e-4
-1.097, -6.738e-4
-1.096, -6.763e-4
-1.095, -6.803e-4
-1.094, -6.829e-4
-1.093, -6.818e-4
-1.092, -6.836e-4
-1.091, -6.857e-4
-1.090, -6.891e-4
-1.089, -6.935e-4
-1.088, -6.944e-4
-1.087, -6.960e-4
-1.086, -6.974e-4
-1.085, -7.002e-4
-1.084, -7.037e-4
-1.083, -7.027e-4
-1.082, -7.049e-4
-1.081, -7.108e-4
-1.080, -7.158e-4
-1.079, -7.204e-4
-1.078, -7.170e-4
-1.077, -7.164e-4
-1.076, -7.203e-4
-1.075, -7.266e-4
-1.074, -7.286e-4
-1.073, -7.312e-4
-1.072, -7.331e-4
-1.071, -7.393e-4
-1.070, -7.442e-4
-1.069, -7.427e-4
-1.068, -7.420e-4
-1.067, -7.438e-4
-1.066, -7.472e-4
-1.065, -7.525e-4
-1.064, -7.561e-4
-1.063, -7.572e-4
-1.062, -7.599e-4
-1.061, -7.637e-4
-1.060, -7.695e-4
-1.059, -7.723e-4
-1.058, -7.724e-4
-1.057, -7.733e-4
-1.056, -7.775e-4
-1.055, -7.836e-4
-1.054, -7.861e-4
-1.053, -7.872e-4
-1.052, -7.893e-4
-1.051, -7.936e-4
-1.050, -7.987e-4
-1.049, -7.989e-4
-1.048, -8.016e-4
-1.047, -8.036e-4
-1.046, -8.091e-4
-1.045, -8.146e-4
-1.044, -8.184e-4
-1.043, -8.187e-4
-1.042, -8.205e-4
-1.041, -8.255e-4
-1.040, -8.312e-4
-1.039, -8.362e-4
-1.038, -8.379e-4
-1.037, -8.385e-4
-1.036, -8.444e-4
-1.035, -8.527e-4
-1.034, -8.570e-4
-1.033, -8.599e-4
-1.032, -8.632e-4
-1.031, -8.696e-4
-1.030, -8.772e-4
-1.029, -8.816e-4
-1.028, -8.810e-4
-1.027, -8.807e-4
-1.026, -8.865e-4
-1.025, -8.919e-4
-1.024, -8.968e-4
-1.023, -8.981e-4
-1.022, -8.984e-4
-1.021, -9.015e-4
-1.020, -9.088e-4
-1.019, -9.158e-4
-1.018, -9.188e-4
-1.017, -9.220e-4
-1.016, -9.259e-4
-1.015, -9.326e-4
-1.014, -9.384e-4
-1.013, -9.417e-4
-1.012, -9.436e-4
-1.011, -9.501e-4
-1.010, -9.566e-4
-1.009, -9.626e-4
-1.008, -9.639e-4
-1.007, -9.687e-4
-1.006, -9.745e-4
-1.005, -9.825e-4
-1.004, -9.862e-4
-1.003, -9.889e-4
-1.002, -9.921e-4
-1.001, -9.986e-4
