Dec. 12, 2024   20:53:05
Cyclic Voltammetry
File: c:/users/guazh/data/banditlqround7_x0exp59_r20/2024-12-09-exp641\exp641-2024-12-12t20_48_09-h2koh\exp641_cv_50mvs_efin_-1400mv.bin
Data Source:  Experiment
Instrument Model:  CHI760E
Header: CV ran at 50 mVs
Note: 

Init E (V) = -1
High E (V) = -1
Low E (V) = -1.4
Final E (V) = -1
Init P/N = N
Scan Rate (V/s) = 0.05
Segment = 7
Sample Interval (V) = 0.001
Quiet Time (sec) = 60
Sensitivity (A/V) = 0.001
Comp R (ohm) = 1.2

Results:

Channel 1:
Segment 1:

Segment 2:

Segment 3:

Segment 4:

Segment 5:

Segment 6:

Segment 7:

Potential/V, Current/A

-1.000, 5.152e-5
-1.001, 1.606e-4
-1.002, 2.238e-4
-1.003, 2.613e-4
-1.004, 2.850e-4
-1.005, 3.025e-4
-1.006, 3.183e-4
-1.007, 3.317e-4
-1.008, 3.390e-4
-1.009, 3.433e-4
-1.010, 3.494e-4
-1.011, 3.565e-4
-1.012, 3.640e-4
-1.013, 3.667e-4
-1.014, 3.680e-4
-1.015, 3.719e-4
-1.016, 3.775e-4
-1.017, 3.832e-4
-1.018, 3.847e-4
-1.019, 3.852e-4
-1.020, 3.878e-4
-1.021, 3.923e-4
-1.022, 3.973e-4
-1.023, 3.994e-4
-1.024, 3.998e-4
-1.025, 4.014e-4
-1.026, 4.056e-4
-1.027, 4.098e-4
-1.028, 4.115e-4
-1.029, 4.107e-4
-1.030, 4.126e-4
-1.031, 4.178e-4
-1.032, 4.216e-4
-1.033, 4.239e-4
-1.034, 4.239e-4
-1.035, 4.262e-4
-1.036, 4.314e-4
-1.037, 4.345e-4
-1.038, 4.354e-4
-1.039, 4.356e-4
-1.040, 4.370e-4
-1.041, 4.416e-4
-1.042, 4.462e-4
-1.043, 4.478e-4
-1.044, 4.487e-4
-1.045, 4.505e-4
-1.046, 4.553e-4
-1.047, 4.600e-4
-1.048, 4.607e-4
-1.049, 4.609e-4
-1.050, 4.632e-4
-1.051, 4.671e-4
-1.052, 4.728e-4
-1.053, 4.749e-4
-1.054, 4.758e-4
-1.055, 4.796e-4
-1.056, 4.836e-4
-1.057, 4.877e-4
-1.058, 4.896e-4
-1.059, 4.893e-4
-1.060, 4.922e-4
-1.061, 4.965e-4
-1.062, 5.022e-4
-1.063, 5.062e-4
-1.064, 5.063e-4
-1.065, 5.089e-4
-1.066, 5.141e-4
-1.067, 5.187e-4
-1.068, 5.218e-4
-1.069, 5.239e-4
-1.070, 5.273e-4
-1.071, 5.328e-4
-1.072, 5.361e-4
-1.073, 5.377e-4
-1.074, 5.387e-4
-1.075, 5.413e-4
-1.076, 5.477e-4
-1.077, 5.529e-4
-1.078, 5.558e-4
-1.079, 5.579e-4
-1.080, 5.603e-4
-1.081, 5.653e-4
-1.082, 5.702e-4
-1.083, 5.720e-4
-1.084, 5.730e-4
-1.085, 5.758e-4
-1.086, 5.825e-4
-1.087, 5.885e-4
-1.088, 5.909e-4
-1.089, 5.924e-4
-1.090, 5.953e-4
-1.091, 6.007e-4
-1.092, 6.064e-4
-1.093, 6.084e-4
-1.094, 6.102e-4
-1.095, 6.140e-4
-1.096, 6.191e-4
-1.097, 6.251e-4
-1.098, 6.273e-4
-1.099, 6.284e-4
-1.100, 6.319e-4
-1.101, 6.375e-4
-1.102, 6.433e-4
-1.103, 6.461e-4
-1.104, 6.468e-4
-1.105, 6.506e-4
-1.106, 6.558e-4
-1.107, 6.613e-4
-1.108, 6.645e-4
-1.109, 6.645e-4
-1.110, 6.685e-4
-1.111, 6.741e-4
-1.112, 6.796e-4
-1.113, 6.847e-4
-1.114, 6.852e-4
-1.115, 6.886e-4
-1.116, 6.932e-4
-1.117, 6.979e-4
-1.118, 7.004e-4
-1.119, 7.016e-4
-1.120, 7.041e-4
-1.121, 7.106e-4
-1.122, 7.161e-4
-1.123, 7.183e-4
-1.124, 7.191e-4
-1.125, 7.221e-4
-1.126, 7.273e-4
-1.127, 7.328e-4
-1.128, 7.344e-4
-1.129, 7.356e-4
-1.130, 7.389e-4
-1.131, 7.442e-4
-1.132, 7.501e-4
-1.133, 7.507e-4
-1.134, 7.518e-4
-1.135, 7.548e-4
-1.136, 7.602e-4
-1.137, 7.648e-4
-1.138, 7.656e-4
-1.139, 7.666e-4
-1.140, 7.701e-4
-1.141, 7.738e-4
-1.142, 7.799e-4
-1.143, 7.825e-4
-1.144, 7.840e-4
-1.145, 7.878e-4
-1.146, 7.919e-4
-1.147, 7.960e-4
-1.148, 7.980e-4
-1.149, 7.973e-4
-1.150, 8.001e-4
-1.151, 8.053e-4
-1.152, 8.091e-4
-1.153, 8.115e-4
-1.154, 8.107e-4
-1.155, 8.133e-4
-1.156, 8.192e-4
-1.157, 8.230e-4
-1.158, 8.249e-4
-1.159, 8.269e-4
-1.160, 8.280e-4
-1.161, 8.320e-4
-1.162, 8.367e-4
-1.163, 8.380e-4
-1.164, 8.385e-4
-1.165, 8.400e-4
-1.166, 8.447e-4
-1.167, 8.498e-4
-1.168, 8.518e-4
-1.169, 8.518e-4
-1.170, 8.545e-4
-1.171, 8.588e-4
-1.172, 8.631e-4
-1.173, 8.636e-4
-1.174, 8.640e-4
-1.175, 8.666e-4
-1.176, 8.713e-4
-1.177, 8.767e-4
-1.178, 8.791e-4
-1.179, 8.783e-4
-1.180, 8.810e-4
-1.181, 8.843e-4
-1.182, 8.886e-4
-1.183, 8.911e-4
-1.184, 8.917e-4
-1.185, 8.943e-4
-1.186, 8.993e-4
-1.187, 9.031e-4
-1.188, 9.041e-4
-1.189, 9.039e-4
-1.190, 9.076e-4
-1.191, 9.132e-4
-1.192, 9.167e-4
-1.193, 9.191e-4
-1.194, 9.182e-4
-1.195, 9.223e-4
-1.196, 9.284e-4
-1.197, 9.327e-4
-1.198, 9.360e-4
-1.199, 9.374e-4
-1.200, 9.395e-4
-1.201, 9.470e-4
-1.202, 9.522e-4
-1.203, 9.533e-4
-1.204, 9.544e-4
-1.205, 9.569e-4
-1.206, 9.632e-4
-1.207, 9.694e-4
-1.208, 9.711e-4
-1.209, 9.730e-4
-1.210, 9.774e-4
-1.211, 9.841e-4
-1.212, 9.910e-4
-1.213, 9.978e-4
-1.214, 1.001e-3
-1.215, 1.004e-3
-1.216, 1.007e-3
-1.217, 1.014e-3
-1.218, 1.018e-3
-1.219, 1.020e-3
-1.220, 1.027e-3
-1.221, 1.033e-3
-1.222, 1.041e-3
-1.223, 1.046e-3
-1.224, 1.049e-3
-1.225, 1.054e-3
-1.226, 1.061e-3
-1.227, 1.068e-3
-1.228, 1.073e-3
-1.229, 1.080e-3
-1.230, 1.083e-3
-1.231, 1.092e-3
-1.232, 1.100e-3
-1.233, 1.106e-3
-1.234, 1.110e-3
-1.235, 1.116e-3
-1.236, 1.124e-3
-1.237, 1.132e-3
-1.238, 1.137e-3
-1.239, 1.142e-3
-1.240, 1.150e-3
-1.241, 1.162e-3
-1.242, 1.171e-3
-1.243, 1.178e-3
-1.244, 1.183e-3
-1.245, 1.188e-3
-1.246, 1.200e-3
-1.247, 1.210e-3
-1.248, 1.215e-3
-1.249, 1.221e-3
-1.250, 1.232e-3
-1.251, 1.244e-3
-1.252, 1.256e-3
-1.253, 1.264e-3
-1.254, 1.270e-3
-1.255, 1.277e-3
-1.256, 1.288e-3
-1.257, 1.301e-3
-1.258, 1.310e-3
-1.259, 1.316e-3
-1.260, 1.329e-3
-1.261, 1.340e-3
-1.262, 1.353e-3
-1.263, 1.363e-3
-1.264, 1.372e-3
-1.265, 1.384e-3
-1.266, 1.397e-3
-1.267, 1.410e-3
-1.268, 1.423e-3
-1.269, 1.432e-3
-1.270, 1.445e-3
-1.271, 1.459e-3
-1.272, 1.471e-3
-1.273, 1.483e-3
-1.274, 1.494e-3
-1.275, 1.507e-3
-1.276, 1.525e-3
-1.277, 1.540e-3
-1.278, 1.554e-3
-1.279, 1.565e-3
-1.280, 1.580e-3
-1.281, 1.597e-3
-1.282, 1.613e-3
-1.283, 1.627e-3
-1.284, 1.640e-3
-1.285, 1.656e-3
-1.286, 1.676e-3
-1.287, 1.694e-3
-1.288, 1.710e-3
-1.289, 1.725e-3
-1.290, 1.743e-3
-1.291, 1.762e-3
-1.292, 1.782e-3
-1.293, 1.799e-3
-1.294, 1.816e-3
-1.295, 1.837e-3
-1.296, 1.860e-3
-1.297, 1.883e-3
-1.298, 1.903e-3
-1.299, 1.921e-3
-1.300, 1.943e-3
-1.301, 1.968e-3
-1.302, 1.993e-3
-1.303, 2.015e-3
-1.304, 2.037e-3
-1.305, 2.063e-3
-1.306, 2.094e-3
-1.307, 2.123e-3
-1.308, 2.150e-3
-1.309, 2.176e-3
-1.310, 2.207e-3
-1.311, 2.242e-3
-1.312, 2.275e-3
-1.313, 2.309e-3
-1.314, 2.338e-3
-1.315, 2.374e-3
-1.316, 2.414e-3
-1.317, 2.457e-3
-1.318, 2.498e-3
-1.319, 2.543e-3
-1.320, 2.589e-3
-1.321, 2.641e-3
-1.322, 2.693e-3
-1.323, 2.747e-3
-1.324, 2.803e-3
-1.325, 2.865e-3
-1.326, 2.934e-3
-1.327, 3.004e-3
-1.328, 3.080e-3
-1.329, 3.160e-3
-1.330, 3.249e-3
-1.331, 3.349e-3
-1.332, 3.459e-3
-1.333, 3.584e-3
-1.334, 3.723e-3
-1.335, 3.867e-3
-1.336, 4.033e-3
-1.337, 4.205e-3
-1.338, 4.390e-3
-1.339, 4.593e-3
-1.340, 4.844e-3
-1.341, 5.115e-3
-1.342, 5.396e-3
-1.343, 5.688e-3
-1.344, 5.997e-3
-1.345, 6.318e-3
-1.346, 6.637e-3
-1.347, 6.969e-3
-1.348, 7.308e-3
-1.349, 7.651e-3
-1.350, 8.000e-3
-1.351, 8.336e-3
-1.352, 8.681e-3
-1.353, 9.019e-3
-1.354, 9.341e-3
-1.355, 9.660e-3
-1.356, 9.991e-3
-1.357, 1.011e-2
-1.358, 1.011e-2
-1.359, 1.011e-2
-1.360, 1.011e-2
-1.361, 1.011e-2
-1.362, 1.011e-2
-1.363, 1.011e-2
-1.364, 1.011e-2
-1.365, 1.011e-2
-1.366, 1.011e-2
-1.367, 1.011e-2
-1.368, 1.011e-2
-1.369, 1.011e-2
-1.370, 1.011e-2
-1.371, 1.011e-2
-1.372, 1.011e-2
-1.373, 1.011e-2
-1.374, 1.011e-2
-1.375, 1.011e-2
-1.376, 1.011e-2
-1.377, 1.011e-2
-1.378, 1.011e-2
-1.379, 1.011e-2
-1.380, 1.011e-2
-1.381, 1.011e-2
-1.382, 1.011e-2
-1.383, 1.011e-2
-1.384, 1.011e-2
-1.385, 1.011e-2
-1.386, 1.011e-2
-1.387, 1.011e-2
-1.388, 1.011e-2
-1.389, 1.011e-2
-1.390, 1.011e-2
-1.391, 1.011e-2
-1.392, 1.011e-2
-1.393, 1.011e-2
-1.394, 1.011e-2
-1.395, 1.011e-2
-1.396, 1.011e-2
-1.397, 1.011e-2
-1.398, 1.011e-2
-1.399, 1.011e-2
-1.400, 1.011e-2
-1.399, 1.011e-2
-1.398, 1.011e-2
-1.397, 1.011e-2
-1.396, 1.011e-2
-1.395, 1.011e-2
-1.394, 1.011e-2
-1.393, 1.011e-2
-1.392, 1.011e-2
-1.391, 1.011e-2
-1.390, 1.011e-2
-1.389, 1.011e-2
-1.388, 1.011e-2
-1.387, 1.011e-2
-1.386, 1.011e-2
-1.385, 1.011e-2
-1.384, 1.011e-2
-1.383, 1.011e-2
-1.382, 1.011e-2
-1.381, 1.011e-2
-1.380, 1.011e-2
-1.379, 1.011e-2
-1.378, 1.011e-2
-1.377, 1.011e-2
-1.376, 1.011e-2
-1.375, 1.011e-2
-1.374, 1.011e-2
-1.373, 1.011e-2
-1.372, 1.011e-2
-1.371, 1.011e-2
-1.370, 1.011e-2
-1.369, 1.011e-2
-1.368, 1.011e-2
-1.367, 1.011e-2
-1.366, 1.011e-2
-1.365, 1.011e-2
-1.364, 1.011e-2
-1.363, 1.011e-2
-1.362, 1.011e-2
-1.361, 1.011e-2
-1.360, 1.011e-2
-1.359, 1.011e-2
-1.358, 1.011e-2
-1.357, 1.011e-2
-1.356, 1.011e-2
-1.355, 1.011e-2
-1.354, 1.011e-2
-1.353, 1.011e-2
-1.352, 1.011e-2
-1.351, 1.011e-2
-1.350, 1.011e-2
-1.349, 1.011e-2
-1.348, 1.011e-2
-1.347, 1.011e-2
-1.346, 1.011e-2
-1.345, 1.011e-2
-1.344, 1.011e-2
-1.343, 1.011e-2
-1.342, 1.011e-2
-1.341, 1.011e-2
-1.340, 1.011e-2
-1.339, 1.011e-2
-1.338, 1.011e-2
-1.337, 1.011e-2
-1.336, 1.011e-2
-1.335, 1.011e-2
-1.334, 1.010e-2
-1.333, 1.002e-2
-1.332, 9.895e-3
-1.331, 9.763e-3
-1.330, 9.642e-3
-1.329, 9.503e-3
-1.328, 9.383e-3
-1.327, 9.243e-3
-1.326, 9.109e-3
-1.325, 8.987e-3
-1.324, 8.865e-3
-1.323, 8.740e-3
-1.322, 8.604e-3
-1.321, 8.473e-3
-1.320, 8.345e-3
-1.319, 8.221e-3
-1.318, 8.098e-3
-1.317, 7.973e-3
-1.316, 7.845e-3
-1.315, 7.730e-3
-1.314, 7.612e-3
-1.313, 7.490e-3
-1.312, 7.372e-3
-1.311, 7.252e-3
-1.310, 7.127e-3
-1.309, 7.020e-3
-1.308, 6.899e-3
-1.307, 6.781e-3
-1.306, 6.669e-3
-1.305, 6.554e-3
-1.304, 6.449e-3
-1.303, 6.341e-3
-1.302, 6.229e-3
-1.301, 6.116e-3
-1.300, 6.006e-3
-1.299, 5.888e-3
-1.298, 5.775e-3
-1.297, 5.672e-3
-1.296, 5.570e-3
-1.295, 5.471e-3
-1.294, 5.369e-3
-1.293, 5.267e-3
-1.292, 5.159e-3
-1.291, 5.061e-3
-1.290, 4.961e-3
-1.289, 4.864e-3
-1.288, 4.769e-3
-1.287, 4.668e-3
-1.286, 4.569e-3
-1.285, 4.478e-3
-1.284, 4.391e-3
-1.283, 4.296e-3
-1.282, 4.207e-3
-1.281, 4.114e-3
-1.280, 4.021e-3
-1.279, 3.931e-3
-1.278, 3.844e-3
-1.277, 3.762e-3
-1.276, 3.676e-3
-1.275, 3.590e-3
-1.274, 3.506e-3
-1.273, 3.424e-3
-1.272, 3.331e-3
-1.271, 3.248e-3
-1.270, 3.170e-3
-1.269, 3.095e-3
-1.268, 3.016e-3
-1.267, 2.939e-3
-1.266, 2.861e-3
-1.265, 2.789e-3
-1.264, 2.720e-3
-1.263, 2.649e-3
-1.262, 2.579e-3
-1.261, 2.506e-3
-1.260, 2.433e-3
-1.259, 2.364e-3
-1.258, 2.298e-3
-1.257, 2.228e-3
-1.256, 2.151e-3
-1.255, 2.082e-3
-1.254, 2.021e-3
-1.253, 1.962e-3
-1.252, 1.900e-3
-1.251, 1.842e-3
-1.250, 1.784e-3
-1.249, 1.729e-3
-1.248, 1.669e-3
-1.247, 1.608e-3
-1.246, 1.549e-3
-1.245, 1.495e-3
-1.244, 1.442e-3
-1.243, 1.392e-3
-1.242, 1.340e-3
-1.241, 1.286e-3
-1.240, 1.238e-3
-1.239, 1.189e-3
-1.238, 1.141e-3
-1.237, 1.091e-3
-1.236, 1.043e-3
-1.235, 9.978e-4
-1.234, 9.559e-4
-1.233, 9.156e-4
-1.232, 8.726e-4
-1.231, 8.295e-4
-1.230, 7.886e-4
-1.229, 7.474e-4
-1.228, 7.095e-4
-1.227, 6.697e-4
-1.226, 6.304e-4
-1.225, 5.946e-4
-1.224, 5.624e-4
-1.223, 5.287e-4
-1.222, 4.924e-4
-1.221, 4.567e-4
-1.220, 4.238e-4
-1.219, 3.950e-4
-1.218, 3.652e-4
-1.217, 3.329e-4
-1.216, 3.016e-4
-1.215, 2.729e-4
-1.214, 2.468e-4
-1.213, 2.209e-4
-1.212, 1.921e-4
-1.211, 1.633e-4
-1.210, 1.384e-4
-1.209, 1.160e-4
-1.208, 9.400e-5
-1.207, 6.822e-5
-1.206, 4.291e-5
-1.205, 2.158e-5
-1.204, 1.574e-6
-1.203, -1.806e-5
-1.202, -4.092e-5
-1.201, -6.328e-5
-1.200, -8.129e-5
-1.199, -9.801e-5
-1.198, -1.159e-4
-1.197, -1.359e-4
-1.196, -1.557e-4
-1.195, -1.723e-4
-1.194, -1.862e-4
-1.193, -2.016e-4
-1.192, -2.183e-4
-1.191, -2.361e-4
-1.190, -2.511e-4
-1.189, -2.627e-4
-1.188, -2.757e-4
-1.187, -2.911e-4
-1.186, -3.054e-4
-1.185, -3.175e-4
-1.184, -3.270e-4
-1.183, -3.388e-4
-1.182, -3.539e-4
-1.181, -3.676e-4
-1.180, -3.783e-4
-1.179, -3.862e-4
-1.178, -3.965e-4
-1.177, -4.093e-4
-1.176, -4.208e-4
-1.175, -4.298e-4
-1.174, -4.358e-4
-1.173, -4.436e-4
-1.172, -4.555e-4
-1.171, -4.658e-4
-1.170, -4.740e-4
-1.169, -4.808e-4
-1.168, -4.867e-4
-1.167, -4.968e-4
-1.166, -5.060e-4
-1.165, -5.125e-4
-1.164, -5.178e-4
-1.163, -5.242e-4
-1.162, -5.331e-4
-1.161, -5.422e-4
-1.160, -5.473e-4
-1.159, -5.514e-4
-1.158, -5.567e-4
-1.157, -5.642e-4
-1.156, -5.736e-4
-1.155, -5.778e-4
-1.154, -5.795e-4
-1.153, -5.852e-4
-1.152, -5.907e-4
-1.151, -5.985e-4
-1.150, -6.041e-4
-1.149, -6.062e-4
-1.148, -6.105e-4
-1.147, -6.176e-4
-1.146, -6.229e-4
-1.145, -6.273e-4
-1.144, -6.282e-4
-1.143, -6.318e-4
-1.142, -6.380e-4
-1.141, -6.449e-4
-1.140, -6.483e-4
-1.139, -6.507e-4
-1.138, -6.527e-4
-1.137, -6.576e-4
-1.136, -6.624e-4
-1.135, -6.664e-4
-1.134, -6.686e-4
-1.133, -6.713e-4
-1.132, -6.763e-4
-1.131, -6.802e-4
-1.130, -6.825e-4
-1.129, -6.841e-4
-1.128, -6.857e-4
-1.127, -6.925e-4
-1.126, -6.985e-4
-1.125, -7.008e-4
-1.124, -7.014e-4
-1.123, -7.029e-4
-1.122, -7.077e-4
-1.121, -7.132e-4
-1.120, -7.153e-4
-1.119, -7.159e-4
-1.118, -7.180e-4
-1.117, -7.232e-4
-1.116, -7.275e-4
-1.115, -7.294e-4
-1.114, -7.289e-4
-1.113, -7.310e-4
-1.112, -7.353e-4
-1.111, -7.412e-4
-1.110, -7.437e-4
-1.109, -7.439e-4
-1.108, -7.458e-4
-1.107, -7.510e-4
-1.106, -7.560e-4
-1.105, -7.589e-4
-1.104, -7.586e-4
-1.103, -7.610e-4
-1.102, -7.658e-4
-1.101, -7.713e-4
-1.100, -7.735e-4
-1.099, -7.717e-4
-1.098, -7.734e-4
-1.097, -7.786e-4
-1.096, -7.847e-4
-1.095, -7.881e-4
-1.094, -7.882e-4
-1.093, -7.899e-4
-1.092, -7.945e-4
-1.091, -7.991e-4
-1.090, -8.012e-4
-1.089, -8.031e-4
-1.088, -8.039e-4
-1.087, -8.106e-4
-1.086, -8.174e-4
-1.085, -8.196e-4
-1.084, -8.186e-4
-1.083, -8.209e-4
-1.082, -8.281e-4
-1.081, -8.303e-4
-1.080, -8.304e-4
-1.079, -8.310e-4
-1.078, -8.350e-4
-1.077, -8.403e-4
-1.076, -8.468e-4
-1.075, -8.514e-4
-1.074, -8.519e-4
-1.073, -8.546e-4
-1.072, -8.581e-4
-1.071, -8.629e-4
-1.070, -8.628e-4
-1.069, -8.629e-4
-1.068, -8.677e-4
-1.067, -8.755e-4
-1.066, -8.818e-4
-1.065, -8.858e-4
-1.064, -8.861e-4
-1.063, -8.898e-4
-1.062, -8.954e-4
-1.061, -9.000e-4
-1.060, -9.028e-4
-1.059, -9.040e-4
-1.058, -9.065e-4
-1.057, -9.131e-4
-1.056, -9.183e-4
-1.055, -9.226e-4
-1.054, -9.242e-4
-1.053, -9.282e-4
-1.052, -9.342e-4
-1.051, -9.382e-4
-1.050, -9.434e-4
-1.049, -9.456e-4
-1.048, -9.472e-4
-1.047, -9.528e-4
-1.046, -9.600e-4
-1.045, -9.626e-4
-1.044, -9.653e-4
-1.043, -9.682e-4
-1.042, -9.746e-4
-1.041, -9.811e-4
-1.040, -9.837e-4
-1.039, -9.857e-4
-1.038, -9.890e-4
-1.037, -9.945e-4
-1.036, -1.001e-3
-1.035, -1.004e-3
-1.034, -1.006e-3
-1.033, -1.010e-3
-1.032, -1.015e-3
-1.031, -1.022e-3
-1.030, -1.028e-3
-1.029, -1.029e-3
-1.028, -1.034e-3
-1.027, -1.041e-3
-1.026, -1.047e-3
-1.025, -1.050e-3
-1.024, -1.053e-3
-1.023, -1.057e-3
-1.022, -1.065e-3
-1.021, -1.070e-3
-1.020, -1.074e-3
-1.019, -1.075e-3
-1.018, -1.079e-3
-1.017, -1.087e-3
-1.016, -1.093e-3
-1.015, -1.097e-3
-1.014, -1.100e-3
-1.013, -1.102e-3
-1.012, -1.110e-3
-1.011, -1.116e-3
-1.010, -1.120e-3
-1.009, -1.122e-3
-1.008, -1.123e-3
-1.007, -1.130e-3
-1.006, -1.137e-3
-1.005, -1.142e-3
-1.004, -1.147e-3
-1.003, -1.150e-3
-1.002, -1.156e-3
-1.001, -1.161e-3
-1.000, -1.024e-3
-1.001, -7.979e-4
-1.002, -6.506e-4
-1.003, -5.450e-4
-1.004, -4.642e-4
-1.005, -3.969e-4
-1.006, -3.391e-4
-1.007, -2.910e-4
-1.008, -2.520e-4
-1.009, -2.168e-4
-1.010, -1.830e-4
-1.011, -1.511e-4
-1.012, -1.231e-4
-1.013, -1.010e-4
-1.014, -7.969e-5
-1.015, -5.730e-5
-1.016, -3.549e-5
-1.017, -1.533e-5
-1.018, -2.922e-7
-1.019, 1.432e-5
-1.020, 3.130e-5
-1.021, 4.719e-5
-1.022, 6.202e-5
-1.023, 7.286e-5
-1.024, 8.377e-5
-1.025, 9.647e-5
-1.026, 1.093e-4
-1.027, 1.200e-4
-1.028, 1.283e-4
-1.029, 1.356e-4
-1.030, 1.463e-4
-1.031, 1.579e-4
-1.032, 1.660e-4
-1.033, 1.727e-4
-1.034, 1.792e-4
-1.035, 1.872e-4
-1.036, 1.974e-4
-1.037, 2.044e-4
-1.038, 2.091e-4
-1.039, 2.142e-4
-1.040, 2.207e-4
-1.041, 2.299e-4
-1.042, 2.361e-4
-1.043, 2.403e-4
-1.044, 2.448e-4
-1.045, 2.505e-4
-1.046, 2.581e-4
-1.047, 2.641e-4
-1.048, 2.667e-4
-1.049, 2.702e-4
-1.050, 2.759e-4
-1.051, 2.826e-4
-1.052, 2.882e-4
-1.053, 2.897e-4
-1.054, 2.929e-4
-1.055, 2.981e-4
-1.056, 3.046e-4
-1.057, 3.092e-4
-1.058, 3.105e-4
-1.059, 3.124e-4
-1.060, 3.174e-4
-1.061, 3.233e-4
-1.062, 3.272e-4
-1.063, 3.286e-4
-1.064, 3.305e-4
-1.065, 3.348e-4
-1.066, 3.402e-4
-1.067, 3.439e-4
-1.068, 3.451e-4
-1.069, 3.465e-4
-1.070, 3.505e-4
-1.071, 3.564e-4
-1.072, 3.593e-4
-1.073, 3.603e-4
-1.074, 3.615e-4
-1.075, 3.649e-4
-1.076, 3.702e-4
-1.077, 3.725e-4
-1.078, 3.728e-4
-1.079, 3.742e-4
-1.080, 3.771e-4
-1.081, 3.822e-4
-1.082, 3.855e-4
-1.083, 3.847e-4
-1.084, 3.855e-4
-1.085, 3.879e-4
-1.086, 3.928e-4
-1.087, 3.958e-4
-1.088, 3.956e-4
-1.089, 3.962e-4
-1.090, 3.988e-4
-1.091, 4.036e-4
-1.092, 4.061e-4
-1.093, 4.051e-4
-1.094, 4.054e-4
-1.095, 4.092e-4
-1.096, 4.130e-4
-1.097, 4.151e-4
-1.098, 4.142e-4
-1.099, 4.146e-4
-1.100, 4.176e-4
-1.101, 4.214e-4
-1.102, 4.238e-4
-1.103, 4.230e-4
-1.104, 4.218e-4
-1.105, 4.240e-4
-1.106, 4.280e-4
-1.107, 4.295e-4
-1.108, 4.296e-4
-1.109, 4.292e-4
-1.110, 4.317e-4
-1.111, 4.352e-4
-1.112, 4.366e-4
-1.113, 4.362e-4
-1.114, 4.359e-4
-1.115, 4.385e-4
-1.116, 4.428e-4
-1.117, 4.440e-4
-1.118, 4.428e-4
-1.119, 4.431e-4
-1.120, 4.442e-4
-1.121, 4.480e-4
-1.122, 4.496e-4
-1.123, 4.485e-4
-1.124, 4.477e-4
-1.125, 4.497e-4
-1.126, 4.544e-4
-1.127, 4.567e-4
-1.128, 4.550e-4
-1.129, 4.546e-4
-1.130, 4.564e-4
-1.131, 4.600e-4
-1.132, 4.620e-4
-1.133, 4.607e-4
-1.134, 4.612e-4
-1.135, 4.636e-4
-1.136, 4.669e-4
-1.137, 4.689e-4
-1.138, 4.673e-4
-1.139, 4.670e-4
-1.140, 4.704e-4
-1.141, 4.738e-4
-1.142, 4.758e-4
-1.143, 4.753e-4
-1.144, 4.752e-4
-1.145, 4.788e-4
-1.146, 4.827e-4
-1.147, 4.843e-4
-1.148, 4.844e-4
-1.149, 4.834e-4
-1.150, 4.864e-4
-1.151, 4.913e-4
-1.152, 4.931e-4
-1.153, 4.931e-4
-1.154, 4.927e-4
-1.155, 4.960e-4
-1.156, 5.011e-4
-1.157, 5.034e-4
-1.158, 5.038e-4
-1.159, 5.048e-4
-1.160, 5.075e-4
-1.161, 5.130e-4
-1.162, 5.163e-4
-1.163, 5.164e-4
-1.164, 5.179e-4
-1.165, 5.204e-4
-1.166, 5.263e-4
-1.167, 5.303e-4
-1.168, 5.303e-4
-1.169, 5.326e-4
-1.170, 5.366e-4
-1.171, 5.422e-4
-1.172, 5.460e-4
-1.173, 5.472e-4
-1.174, 5.506e-4
-1.175, 5.557e-4
-1.176, 5.614e-4
-1.177, 5.662e-4
-1.178, 5.686e-4
-1.179, 5.706e-4
-1.180, 5.767e-4
-1.181, 5.827e-4
-1.182, 5.873e-4
-1.183, 5.903e-4
-1.184, 5.937e-4
-1.185, 6.001e-4
-1.186, 6.076e-4
-1.187, 6.123e-4
-1.188, 6.158e-4
-1.189, 6.199e-4
-1.190, 6.275e-4
-1.191, 6.360e-4
-1.192, 6.423e-4
-1.193, 6.466e-4
-1.194, 6.517e-4
-1.195, 6.602e-4
-1.196, 6.696e-4
-1.197, 6.770e-4
-1.198, 6.842e-4
-1.199, 6.905e-4
-1.200, 6.988e-4
-1.201, 7.102e-4
-1.202, 7.188e-4
-1.203, 7.240e-4
-1.204, 7.316e-4
-1.205, 7.440e-4
-1.206, 7.553e-4
-1.207, 7.656e-4
-1.208, 7.736e-4
-1.209, 7.825e-4
-1.210, 7.943e-4
-1.211, 8.084e-4
-1.212, 8.206e-4
-1.213, 8.301e-4
-1.214, 8.406e-4
-1.215, 8.551e-4
-1.216, 8.700e-4
-1.217, 8.843e-4
-1.218, 8.970e-4
-1.219, 9.098e-4
-1.220, 9.266e-4
-1.221, 9.443e-4
-1.222, 9.607e-4
-1.223, 9.740e-4
-1.224, 9.887e-4
-1.225, 1.008e-3
-1.226, 1.028e-3
-1.227, 1.046e-3
-1.228, 1.062e-3
-1.229, 1.082e-3
-1.230, 1.104e-3
-1.231, 1.128e-3
-1.232, 1.153e-3
-1.233, 1.176e-3
-1.234, 1.196e-3
-1.235, 1.216e-3
-1.236, 1.246e-3
-1.237, 1.271e-3
-1.238, 1.292e-3
-1.239, 1.318e-3
-1.240, 1.347e-3
-1.241, 1.377e-3
-1.242, 1.407e-3
-1.243, 1.436e-3
-1.244, 1.467e-3
-1.245, 1.500e-3
-1.246, 1.536e-3
-1.247, 1.570e-3
-1.248, 1.602e-3
-1.249, 1.637e-3
-1.250, 1.673e-3
-1.251, 1.713e-3
-1.252, 1.754e-3
-1.253, 1.792e-3
-1.254, 1.832e-3
-1.255, 1.877e-3
-1.256, 1.923e-3
-1.257, 1.968e-3
-1.258, 2.013e-3
-1.259, 2.059e-3
-1.260, 2.109e-3
-1.261, 2.158e-3
-1.262, 2.208e-3
-1.263, 2.260e-3
-1.264, 2.310e-3
-1.265, 2.367e-3
-1.266, 2.429e-3
-1.267, 2.486e-3
-1.268, 2.544e-3
-1.269, 2.604e-3
-1.270, 2.669e-3
-1.271, 2.736e-3
-1.272, 2.800e-3
-1.273, 2.864e-3
-1.274, 2.931e-3
-1.275, 3.005e-3
-1.276, 3.080e-3
-1.277, 3.154e-3
-1.278, 3.226e-3
-1.279, 3.304e-3
-1.280, 3.391e-3
-1.281, 3.488e-3
-1.282, 3.573e-3
-1.283, 3.654e-3
-1.284, 3.732e-3
-1.285, 3.815e-3
-1.286, 3.902e-3
-1.287, 3.982e-3
-1.288, 4.070e-3
-1.289, 4.167e-3
-1.290, 4.265e-3
-1.291, 4.364e-3
-1.292, 4.470e-3
-1.293, 4.569e-3
-1.294, 4.669e-3
-1.295, 4.771e-3
-1.296, 4.872e-3
-1.297, 4.963e-3
-1.298, 5.069e-3
-1.299, 5.182e-3
-1.300, 5.294e-3
-1.301, 5.405e-3
-1.302, 5.517e-3
-1.303, 5.625e-3
-1.304, 5.733e-3
-1.305, 5.844e-3
-1.306, 5.967e-3
-1.307, 6.092e-3
-1.308, 6.210e-3
-1.309, 6.329e-3
-1.310, 6.452e-3
-1.311, 6.577e-3
-1.312, 6.706e-3
-1.313, 6.832e-3
-1.314, 6.967e-3
-1.315, 7.100e-3
-1.316, 7.230e-3
-1.317, 7.349e-3
-1.318, 7.478e-3
-1.319, 7.608e-3
-1.320, 7.735e-3
-1.321, 7.870e-3
-1.322, 8.005e-3
-1.323, 8.138e-3
-1.324, 8.273e-3
-1.325, 8.410e-3
-1.326, 8.542e-3
-1.327, 8.669e-3
-1.328, 8.799e-3
-1.329, 8.929e-3
-1.330, 9.070e-3
-1.331, 9.209e-3
-1.332, 9.348e-3
-1.333, 9.488e-3
-1.334, 9.630e-3
-1.335, 9.774e-3
-1.336, 9.915e-3
-1.337, 1.005e-2
-1.338, 1.011e-2
-1.339, 1.011e-2
-1.340, 1.011e-2
-1.341, 1.011e-2
-1.342, 1.011e-2
-1.343, 1.011e-2
-1.344, 1.011e-2
-1.345, 1.011e-2
-1.346, 1.011e-2
-1.347, 1.011e-2
-1.348, 1.011e-2
-1.349, 1.011e-2
-1.350, 1.011e-2
-1.351, 1.011e-2
-1.352, 1.011e-2
-1.353, 1.011e-2
-1.354, 1.011e-2
-1.355, 1.011e-2
-1.356, 1.011e-2
-1.357, 1.011e-2
-1.358, 1.011e-2
-1.359, 1.011e-2
-1.360, 1.011e-2
-1.361, 1.011e-2
-1.362, 1.011e-2
-1.363, 1.011e-2
-1.364, 1.011e-2
-1.365, 1.011e-2
-1.366, 1.011e-2
-1.367, 1.011e-2
-1.368, 1.011e-2
-1.369, 1.011e-2
-1.370, 1.011e-2
-1.371, 1.011e-2
-1.372, 1.011e-2
-1.373, 1.011e-2
-1.374, 1.011e-2
-1.375, 1.011e-2
-1.376, 1.011e-2
-1.377, 1.011e-2
-1.378, 1.011e-2
-1.379, 1.011e-2
-1.380, 1.011e-2
-1.381, 1.011e-2
-1.382, 1.011e-2
-1.383, 1.011e-2
-1.384, 1.011e-2
-1.385, 1.011e-2
-1.386, 1.011e-2
-1.387, 1.011e-2
-1.388, 1.011e-2
-1.389, 1.011e-2
-1.390, 1.011e-2
-1.391, 1.011e-2
-1.392, 1.011e-2
-1.393, 1.011e-2
-1.394, 1.011e-2
-1.395, 1.011e-2
-1.396, 1.011e-2
-1.397, 1.011e-2
-1.398, 1.011e-2
-1.399, 1.011e-2
-1.400, 1.011e-2
-1.399, 1.011e-2
-1.398, 1.011e-2
-1.397, 1.011e-2
-1.396, 1.011e-2
-1.395, 1.011e-2
-1.394, 1.011e-2
-1.393, 1.011e-2
-1.392, 1.011e-2
-1.391, 1.011e-2
-1.390, 1.011e-2
-1.389, 1.011e-2
-1.388, 1.011e-2
-1.387, 1.011e-2
-1.386, 1.011e-2
-1.385, 1.011e-2
-1.384, 1.011e-2
-1.383, 1.011e-2
-1.382, 1.011e-2
-1.381, 1.011e-2
-1.380, 1.011e-2
-1.379, 1.011e-2
-1.378, 1.011e-2
-1.377, 1.011e-2
-1.376, 1.011e-2
-1.375, 1.011e-2
-1.374, 1.011e-2
-1.373, 1.011e-2
-1.372, 1.011e-2
-1.371, 1.011e-2
-1.370, 1.011e-2
-1.369, 1.011e-2
-1.368, 1.011e-2
-1.367, 1.011e-2
-1.366, 1.011e-2
-1.365, 1.011e-2
-1.364, 1.011e-2
-1.363, 1.011e-2
-1.362, 1.011e-2
-1.361, 1.011e-2
-1.360, 1.011e-2
-1.359, 1.011e-2
-1.358, 1.011e-2
-1.357, 1.011e-2
-1.356, 1.011e-2
-1.355, 1.011e-2
-1.354, 1.011e-2
-1.353, 1.011e-2
-1.352, 1.011e-2
-1.351, 1.011e-2
-1.350, 1.011e-2
-1.349, 1.011e-2
-1.348, 1.011e-2
-1.347, 1.011e-2
-1.346, 1.011e-2
-1.345, 1.011e-2
-1.344, 1.011e-2
-1.343, 1.011e-2
-1.342, 1.011e-2
-1.341, 1.011e-2
-1.340, 1.011e-2
-1.339, 1.011e-2
-1.338, 1.010e-2
-1.337, 9.969e-3
-1.336, 9.836e-3
-1.335, 9.717e-3
-1.334, 9.574e-3
-1.333, 9.443e-3
-1.332, 9.299e-3
-1.331, 9.171e-3
-1.330, 9.045e-3
-1.329, 8.945e-3
-1.328, 8.824e-3
-1.327, 8.716e-3
-1.326, 8.614e-3
-1.325, 8.533e-3
-1.324, 8.444e-3
-1.323, 8.318e-3
-1.322, 8.188e-3
-1.321, 8.085e-3
-1.320, 7.981e-3
-1.319, 7.887e-3
-1.318, 7.755e-3
-1.317, 7.618e-3
-1.316, 7.481e-3
-1.315, 7.344e-3
-1.314, 7.231e-3
-1.313, 7.110e-3
-1.312, 6.994e-3
-1.311, 6.892e-3
-1.310, 6.776e-3
-1.309, 6.665e-3
-1.308, 6.549e-3
-1.307, 6.442e-3
-1.306, 6.326e-3
-1.305, 6.214e-3
-1.304, 6.123e-3
-1.303, 6.027e-3
-1.302, 5.915e-3
-1.301, 5.812e-3
-1.300, 5.706e-3
-1.299, 5.604e-3
-1.298, 5.510e-3
-1.297, 5.414e-3
-1.296, 5.317e-3
-1.295, 5.222e-3
-1.294, 5.129e-3
-1.293, 5.037e-3
-1.292, 4.927e-3
-1.291, 4.832e-3
-1.290, 4.740e-3
-1.289, 4.647e-3
-1.288, 4.552e-3
-1.287, 4.454e-3
-1.286, 4.358e-3
-1.285, 4.266e-3
-1.284, 4.177e-3
-1.283, 4.091e-3
-1.282, 4.003e-3
-1.281, 3.914e-3
-1.280, 3.828e-3
-1.279, 3.748e-3
-1.278, 3.665e-3
-1.277, 3.580e-3
-1.276, 3.496e-3
-1.275, 3.415e-3
-1.274, 3.340e-3
-1.273, 3.260e-3
-1.272, 3.176e-3
-1.271, 3.101e-3
-1.270, 3.041e-3
-1.269, 2.974e-3
-1.268, 2.893e-3
-1.267, 2.813e-3
-1.266, 2.742e-3
-1.265, 2.673e-3
-1.264, 2.601e-3
-1.263, 2.527e-3
-1.262, 2.455e-3
-1.261, 2.388e-3
-1.260, 2.332e-3
-1.259, 2.267e-3
-1.258, 2.201e-3
-1.257, 2.131e-3
-1.256, 2.063e-3
-1.255, 2.001e-3
-1.254, 1.937e-3
-1.253, 1.877e-3
-1.252, 1.816e-3
-1.251, 1.758e-3
-1.250, 1.706e-3
-1.249, 1.650e-3
-1.248, 1.592e-3
-1.247, 1.533e-3
-1.246, 1.477e-3
-1.245, 1.428e-3
-1.244, 1.377e-3
-1.243, 1.327e-3
-1.242, 1.275e-3
-1.241, 1.228e-3
-1.240, 1.184e-3
-1.239, 1.136e-3
-1.238, 1.087e-3
-1.237, 1.039e-3
-1.236, 9.946e-4
-1.235, 9.551e-4
-1.234, 9.146e-4
-1.233, 8.721e-4
-1.232, 8.288e-4
-1.231, 7.874e-4
-1.230, 7.507e-4
-1.229, 7.112e-4
-1.228, 6.735e-4
-1.227, 6.352e-4
-1.226, 6.003e-4
-1.225, 5.666e-4
-1.224, 5.358e-4
-1.223, 5.015e-4
-1.222, 4.666e-4
-1.221, 4.340e-4
-1.220, 4.042e-4
-1.219, 3.748e-4
-1.218, 3.456e-4
-1.217, 3.151e-4
-1.216, 2.868e-4
-1.215, 2.607e-4
-1.214, 2.358e-4
-1.213, 2.090e-4
-1.212, 1.818e-4
-1.211, 1.578e-4
-1.210, 1.355e-4
-1.209, 1.137e-4
-1.208, 9.160e-5
-1.207, 6.703e-5
-1.206, 4.503e-5
-1.205, 2.548e-5
-1.204, 7.388e-6
-1.203, -1.255e-5
-1.202, -3.495e-5
-1.201, -5.466e-5
-1.200, -7.055e-5
-1.199, -8.628e-5
-1.198, -1.048e-4
-1.197, -1.236e-4
-1.196, -1.410e-4
-1.195, -1.548e-4
-1.194, -1.677e-4
-1.193, -1.849e-4
-1.192, -2.006e-4
-1.191, -2.160e-4
-1.190, -2.278e-4
-1.189, -2.391e-4
-1.188, -2.531e-4
-1.187, -2.677e-4
-1.186, -2.798e-4
-1.185, -2.912e-4
-1.184, -3.013e-4
-1.183, -3.147e-4
-1.182, -3.286e-4
-1.181, -3.383e-4
-1.180, -3.457e-4
-1.179, -3.530e-4
-1.178, -3.649e-4
-1.177, -3.764e-4
-1.176, -3.850e-4
-1.175, -3.922e-4
-1.174, -4.000e-4
-1.173, -4.088e-4
-1.172, -4.198e-4
-1.171, -4.279e-4
-1.170, -4.319e-4
-1.169, -4.369e-4
-1.168, -4.444e-4
-1.167, -4.535e-4
-1.166, -4.616e-4
-1.165, -4.667e-4
-1.164, -4.720e-4
-1.163, -4.793e-4
-1.162, -4.875e-4
-1.161, -4.949e-4
-1.160, -4.980e-4
-1.159, -5.022e-4
-1.158, -5.086e-4
-1.157, -5.158e-4
-1.156, -5.218e-4
-1.155, -5.241e-4
-1.154, -5.278e-4
-1.153, -5.338e-4
-1.152, -5.403e-4
-1.151, -5.457e-4
-1.150, -5.484e-4
-1.149, -5.506e-4
-1.148, -5.565e-4
-1.147, -5.628e-4
-1.146, -5.670e-4
-1.145, -5.690e-4
-1.144, -5.706e-4
-1.143, -5.761e-4
-1.142, -5.825e-4
-1.141, -5.863e-4
-1.140, -5.876e-4
-1.139, -5.892e-4
-1.138, -5.928e-4
-1.137, -5.995e-4
-1.136, -6.022e-4
-1.135, -6.042e-4
-1.134, -6.054e-4
-1.133, -6.084e-4
-1.132, -6.132e-4
-1.131, -6.173e-4
-1.130, -6.183e-4
-1.129, -6.199e-4
-1.128, -6.233e-4
-1.127, -6.293e-4
-1.126, -6.323e-4
-1.125, -6.328e-4
-1.124, -6.335e-4
-1.123, -6.369e-4
-1.122, -6.409e-4
-1.121, -6.453e-4
-1.120, -6.439e-4
-1.119, -6.448e-4
-1.118, -6.494e-4
-1.117, -6.539e-4
-1.116, -6.565e-4
-1.115, -6.551e-4
-1.114, -6.564e-4
-1.113, -6.632e-4
-1.112, -6.690e-4
-1.111, -6.716e-4
-1.110, -6.721e-4
-1.109, -6.735e-4
-1.108, -6.762e-4
-1.107, -6.794e-4
-1.106, -6.813e-4
-1.105, -6.818e-4
-1.104, -6.818e-4
-1.103, -6.859e-4
-1.102, -6.925e-4
-1.101, -6.943e-4
-1.100, -6.942e-4
-1.099, -6.949e-4
-1.098, -6.991e-4
-1.097, -7.047e-4
-1.096, -7.054e-4
-1.095, -7.064e-4
-1.094, -7.082e-4
-1.093, -7.107e-4
-1.092, -7.158e-4
-1.091, -7.191e-4
-1.090, -7.196e-4
-1.089, -7.217e-4
-1.088, -7.266e-4
-1.087, -7.333e-4
-1.086, -7.361e-4
-1.085, -7.351e-4
-1.084, -7.347e-4
-1.083, -7.364e-4
-1.082, -7.408e-4
-1.081, -7.456e-4
-1.080, -7.468e-4
-1.079, -7.495e-4
-1.078, -7.547e-4
-1.077, -7.592e-4
-1.076, -7.633e-4
-1.075, -7.647e-4
-1.074, -7.657e-4
-1.073, -7.699e-4
-1.072, -7.739e-4
-1.071, -7.781e-4
-1.070, -7.793e-4
-1.069, -7.808e-4
-1.068, -7.861e-4
-1.067, -7.917e-4
-1.066, -7.958e-4
-1.065, -7.971e-4
-1.064, -7.984e-4
-1.063, -8.037e-4
-1.062, -8.088e-4
-1.061, -8.106e-4
-1.060, -8.127e-4
-1.059, -8.160e-4
-1.058, -8.198e-4
-1.057, -8.269e-4
-1.056, -8.302e-4
-1.055, -8.319e-4
-1.054, -8.336e-4
-1.053, -8.373e-4
-1.052, -8.435e-4
-1.051, -8.483e-4
-1.050, -8.489e-4
-1.049, -8.515e-4
-1.048, -8.556e-4
-1.047, -8.637e-4
-1.046, -8.684e-4
-1.045, -8.693e-4
-1.044, -8.719e-4
-1.043, -8.782e-4
-1.042, -8.835e-4
-1.041, -8.875e-4
-1.040, -8.896e-4
-1.039, -8.910e-4
-1.038, -8.963e-4
-1.037, -9.031e-4
-1.036, -9.073e-4
-1.035, -9.107e-4
-1.034, -9.147e-4
-1.033, -9.233e-4
-1.032, -9.271e-4
-1.031, -9.307e-4
-1.030, -9.322e-4
-1.029, -9.356e-4
-1.028, -9.423e-4
-1.027, -9.504e-4
-1.026, -9.532e-4
-1.025, -9.569e-4
-1.024, -9.614e-4
-1.023, -9.673e-4
-1.022, -9.747e-4
-1.021, -9.780e-4
-1.020, -9.815e-4
-1.019, -9.865e-4
-1.018, -9.925e-4
-1.017, -9.997e-4
-1.016, -1.003e-3
-1.015, -1.008e-3
-1.014, -1.012e-3
-1.013, -1.019e-3
-1.012, -1.027e-3
-1.011, -1.031e-3
-1.010, -1.034e-3
-1.009, -1.038e-3
-1.008, -1.045e-3
-1.007, -1.054e-3
-1.006, -1.059e-3
-1.005, -1.061e-3
-1.004, -1.065e-3
-1.003, -1.071e-3
-1.002, -1.078e-3
-1.001, -1.084e-3
-1.000, -9.537e-4
-1.001, -7.396e-4
-1.002, -5.986e-4
-1.003, -4.961e-4
-1.004, -4.149e-4
-1.005, -3.478e-4
-1.006, -2.931e-4
-1.007, -2.480e-4
-1.008, -2.105e-4
-1.009, -1.748e-4
-1.010, -1.416e-4
-1.011, -1.123e-4
-1.012, -8.726e-5
-1.013, -6.610e-5
-1.014, -4.408e-5
-1.015, -2.173e-5
-1.016, -2.255e-6
-1.017, 1.377e-5
-1.018, 2.776e-5
-1.019, 4.368e-5
-1.020, 6.079e-5
-1.021, 7.460e-5
-1.022, 8.638e-5
-1.023, 9.717e-5
-1.024, 1.099e-4
-1.025, 1.230e-4
-1.026, 1.331e-4
-1.027, 1.407e-4
-1.028, 1.480e-4
-1.029, 1.571e-4
-1.030, 1.678e-4
-1.031, 1.779e-4
-1.032, 1.837e-4
-1.033, 1.896e-4
-1.034, 1.972e-4
-1.035, 2.063e-4
-1.036, 2.145e-4
-1.037, 2.182e-4
-1.038, 2.228e-4
-1.039, 2.292e-4
-1.040, 2.363e-4
-1.041, 2.433e-4
-1.042, 2.463e-4
-1.043, 2.498e-4
-1.044, 2.557e-4
-1.045, 2.628e-4
-1.046, 2.691e-4
-1.047, 2.721e-4
-1.048, 2.741e-4
-1.049, 2.788e-4
-1.050, 2.857e-4
-1.051, 2.912e-4
-1.052, 2.934e-4
-1.053, 2.948e-4
-1.054, 2.990e-4
-1.055, 3.057e-4
-1.056, 3.096e-4
-1.057, 3.117e-4
-1.058, 3.129e-4
-1.059, 3.167e-4
-1.060, 3.228e-4
-1.061, 3.261e-4
-1.062, 3.275e-4
-1.063, 3.288e-4
-1.064, 3.316e-4
-1.065, 3.373e-4
-1.066, 3.411e-4
-1.067, 3.416e-4
-1.068, 3.433e-4
-1.069, 3.458e-4
-1.070, 3.511e-4
-1.071, 3.553e-4
-1.072, 3.557e-4
-1.073, 3.564e-4
-1.074, 3.585e-4
-1.075, 3.646e-4
-1.076, 3.683e-4
-1.077, 3.670e-4
-1.078, 3.672e-4
-1.079, 3.703e-4
-1.080, 3.744e-4
-1.081, 3.774e-4
-1.082, 3.773e-4
-1.083, 3.776e-4
-1.084, 3.797e-4
-1.085, 3.836e-4
-1.086, 3.871e-4
-1.087, 3.865e-4
-1.088, 3.865e-4
-1.089, 3.891e-4
-1.090, 3.928e-4
-1.091, 3.950e-4
-1.092, 3.960e-4
-1.093, 3.953e-4
-1.094, 3.978e-4
-1.095, 4.015e-4
-1.096, 4.039e-4
-1.097, 4.037e-4
-1.098, 4.022e-4
-1.099, 4.039e-4
-1.100, 4.088e-4
-1.101, 4.113e-4
-1.102, 4.109e-4
-1.103, 4.106e-4
-1.104, 4.117e-4
-1.105, 4.161e-4
-1.106, 4.182e-4
-1.107, 4.169e-4
-1.108, 4.161e-4
-1.109, 4.171e-4
-1.110, 4.212e-4
-1.111, 4.239e-4
-1.112, 4.224e-4
-1.113, 4.218e-4
-1.114, 4.237e-4
-1.115, 4.266e-4
-1.116, 4.297e-4
-1.117, 4.283e-4
-1.118, 4.268e-4
-1.119, 4.278e-4
-1.120, 4.309e-4
-1.121, 4.333e-4
-1.122, 4.333e-4
-1.123, 4.327e-4
-1.124, 4.348e-4
-1.125, 4.378e-4
-1.126, 4.403e-4
-1.127, 4.415e-4
-1.128, 4.398e-4
-1.129, 4.424e-4
-1.130, 4.454e-4
-1.131, 4.479e-4
-1.132, 4.482e-4
-1.133, 4.462e-4
-1.134, 4.467e-4
-1.135, 4.494e-4
-1.136, 4.503e-4
-1.137, 4.504e-4
-1.138, 4.507e-4
-1.139, 4.528e-4
-1.140, 4.575e-4
-1.141, 4.591e-4
-1.142, 4.581e-4
-1.143, 4.577e-4
-1.144, 4.593e-4
-1.145, 4.634e-4
-1.146, 4.686e-4
-1.147, 4.663e-4
-1.148, 4.663e-4
-1.149, 4.675e-4
-1.150, 4.712e-4
-1.151, 4.742e-4
-1.152, 4.737e-4
-1.153, 4.742e-4
-1.154, 4.768e-4
-1.155, 4.804e-4
-1.156, 4.835e-4
-1.157, 4.833e-4
-1.158, 4.837e-4
-1.159, 4.868e-4
-1.160, 4.907e-4
-1.161, 4.935e-4
-1.162, 4.943e-4
-1.163, 4.948e-4
-1.164, 4.997e-4
-1.165, 5.040e-4
-1.166, 5.072e-4
-1.167, 5.068e-4
-1.168, 5.075e-4
-1.169, 5.113e-4
-1.170, 5.167e-4
-1.171, 5.203e-4
-1.172, 5.215e-4
-1.173, 5.218e-4
-1.174, 5.264e-4
-1.175, 5.326e-4
-1.176, 5.358e-4
-1.177, 5.388e-4
-1.178, 5.416e-4
-1.179, 5.456e-4
-1.180, 5.522e-4
-1.181, 5.560e-4
-1.182, 5.581e-4
-1.183, 5.616e-4
-1.184, 5.662e-4
-1.185, 5.737e-4
-1.186, 5.785e-4
-1.187, 5.804e-4
-1.188, 5.841e-4
-1.189, 5.899e-4
-1.190, 5.979e-4
-1.191, 6.036e-4
-1.192, 6.065e-4
-1.193, 6.112e-4
-1.194, 6.181e-4
-1.195, 6.262e-4
-1.196, 6.340e-4
-1.197, 6.376e-4
-1.198, 6.429e-4
-1.199, 6.511e-4
-1.200, 6.598e-4
-1.201, 6.669e-4
-1.202, 6.723e-4
-1.203, 6.798e-4
-1.204, 6.898e-4
-1.205, 7.005e-4
-1.206, 7.093e-4
-1.207, 7.153e-4
-1.208, 7.223e-4
-1.209, 7.327e-4
-1.210, 7.439e-4
-1.211, 7.550e-4
-1.212, 7.673e-4
-1.213, 7.755e-4
-1.214, 7.869e-4
-1.215, 8.015e-4
-1.216, 8.139e-4
-1.217, 8.236e-4
-1.218, 8.328e-4
-1.219, 8.451e-4
-1.220, 8.616e-4
-1.221, 8.759e-4
-1.222, 8.879e-4
-1.223, 9.022e-4
-1.224, 9.190e-4
-1.225, 9.389e-4
-1.226, 9.559e-4
-1.227, 9.691e-4
-1.228, 9.842e-4
-1.229, 1.005e-3
-1.230, 1.023e-3
-1.231, 1.043e-3
-1.232, 1.059e-3
-1.233, 1.079e-3
-1.234, 1.100e-3
-1.235, 1.125e-3
-1.236, 1.148e-3
-1.237, 1.169e-3
-1.238, 1.191e-3
-1.239, 1.216e-3
-1.240, 1.243e-3
-1.241, 1.270e-3
-1.242, 1.294e-3
-1.243, 1.320e-3
-1.244, 1.351e-3
-1.245, 1.388e-3
-1.246, 1.420e-3
-1.247, 1.447e-3
-1.248, 1.478e-3
-1.249, 1.510e-3
-1.250, 1.546e-3
-1.251, 1.580e-3
-1.252, 1.614e-3
-1.253, 1.649e-3
-1.254, 1.688e-3
-1.255, 1.732e-3
-1.256, 1.773e-3
-1.257, 1.815e-3
-1.258, 1.857e-3
-1.259, 1.903e-3
-1.260, 1.951e-3
-1.261, 1.997e-3
-1.262, 2.043e-3
-1.263, 2.091e-3
-1.264, 2.143e-3
-1.265, 2.199e-3
-1.266, 2.255e-3
-1.267, 2.309e-3
-1.268, 2.365e-3
-1.269, 2.424e-3
-1.270, 2.485e-3
-1.271, 2.546e-3
-1.272, 2.606e-3
-1.273, 2.670e-3
-1.274, 2.737e-3
-1.275, 2.807e-3
-1.276, 2.877e-3
-1.277, 2.945e-3
-1.278, 3.016e-3
-1.279, 3.093e-3
-1.280, 3.173e-3
-1.281, 3.247e-3
-1.282, 3.324e-3
-1.283, 3.403e-3
-1.284, 3.488e-3
-1.285, 3.574e-3
-1.286, 3.660e-3
-1.287, 3.745e-3
-1.288, 3.828e-3
-1.289, 3.917e-3
-1.290, 4.009e-3
-1.291, 4.100e-3
-1.292, 4.198e-3
-1.293, 4.297e-3
-1.294, 4.376e-3
-1.295, 4.472e-3
-1.296, 4.570e-3
-1.297, 4.667e-3
-1.298, 4.773e-3
-1.299, 4.893e-3
-1.300, 5.009e-3
-1.301, 5.114e-3
-1.302, 5.217e-3
-1.303, 5.321e-3
-1.304, 5.431e-3
-1.305, 5.542e-3
-1.306, 5.653e-3
-1.307, 5.763e-3
-1.308, 5.877e-3
-1.309, 5.994e-3
-1.310, 6.112e-3
-1.311, 6.250e-3
-1.312, 6.376e-3
-1.313, 6.487e-3
-1.314, 6.605e-3
-1.315, 6.735e-3
-1.316, 6.861e-3
-1.317, 6.987e-3
-1.318, 7.113e-3
-1.319, 7.242e-3
-1.320, 7.374e-3
-1.321, 7.486e-3
-1.322, 7.610e-3
-1.323, 7.742e-3
-1.324, 7.883e-3
-1.325, 8.017e-3
-1.326, 8.148e-3
-1.327, 8.284e-3
-1.328, 8.415e-3
-1.329, 8.552e-3
-1.330, 8.686e-3
-1.331, 8.818e-3
-1.332, 8.952e-3
-1.333, 9.084e-3
-1.334, 9.229e-3
-1.335, 9.371e-3
-1.336, 9.507e-3
-1.337, 9.645e-3
-1.338, 9.783e-3
-1.339, 9.922e-3
-1.340, 1.005e-2
-1.341, 1.011e-2
-1.342, 1.011e-2
-1.343, 1.011e-2
-1.344, 1.011e-2
-1.345, 1.011e-2
-1.346, 1.011e-2
-1.347, 1.011e-2
-1.348, 1.011e-2
-1.349, 1.011e-2
-1.350, 1.011e-2
-1.351, 1.011e-2
-1.352, 1.011e-2
-1.353, 1.011e-2
-1.354, 1.011e-2
-1.355, 1.011e-2
-1.356, 1.011e-2
-1.357, 1.011e-2
-1.358, 1.011e-2
-1.359, 1.011e-2
-1.360, 1.011e-2
-1.361, 1.011e-2
-1.362, 1.011e-2
-1.363, 1.011e-2
-1.364, 1.011e-2
-1.365, 1.011e-2
-1.366, 1.011e-2
-1.367, 1.011e-2
-1.368, 1.011e-2
-1.369, 1.011e-2
-1.370, 1.011e-2
-1.371, 1.011e-2
-1.372, 1.011e-2
-1.373, 1.011e-2
-1.374, 1.011e-2
-1.375, 1.011e-2
-1.376, 1.011e-2
-1.377, 1.011e-2
-1.378, 1.011e-2
-1.379, 1.011e-2
-1.380, 1.011e-2
-1.381, 1.011e-2
-1.382, 1.011e-2
-1.383, 1.011e-2
-1.384, 1.011e-2
-1.385, 1.011e-2
-1.386, 1.011e-2
-1.387, 1.011e-2
-1.388, 1.011e-2
-1.389, 1.011e-2
-1.390, 1.011e-2
-1.391, 1.011e-2
-1.392, 1.011e-2
-1.393, 1.011e-2
-1.394, 1.011e-2
-1.395, 1.011e-2
-1.396, 1.011e-2
-1.397, 1.011e-2
-1.398, 1.011e-2
-1.399, 1.011e-2
-1.400, 1.011e-2
-1.399, 1.011e-2
-1.398, 1.011e-2
-1.397, 1.011e-2
-1.396, 1.011e-2
-1.395, 1.011e-2
-1.394, 1.011e-2
-1.393, 1.011e-2
-1.392, 1.011e-2
-1.391, 1.011e-2
-1.390, 1.011e-2
-1.389, 1.011e-2
-1.388, 1.011e-2
-1.387, 1.011e-2
-1.386, 1.011e-2
-1.385, 1.011e-2
-1.384, 1.011e-2
-1.383, 1.011e-2
-1.382, 1.011e-2
-1.381, 1.011e-2
-1.380, 1.011e-2
-1.379, 1.011e-2
-1.378, 1.011e-2
-1.377, 1.011e-2
-1.376, 1.011e-2
-1.375, 1.011e-2
-1.374, 1.011e-2
-1.373, 1.011e-2
-1.372, 1.011e-2
-1.371, 1.011e-2
-1.370, 1.011e-2
-1.369, 1.011e-2
-1.368, 1.011e-2
-1.367, 1.011e-2
-1.366, 1.011e-2
-1.365, 1.011e-2
-1.364, 1.011e-2
-1.363, 1.011e-2
-1.362, 1.011e-2
-1.361, 1.011e-2
-1.360, 1.011e-2
-1.359, 1.011e-2
-1.358, 1.011e-2
-1.357, 1.011e-2
-1.356, 1.011e-2
-1.355, 1.011e-2
-1.354, 1.011e-2
-1.353, 1.011e-2
-1.352, 1.011e-2
-1.351, 1.011e-2
-1.350, 1.011e-2
-1.349, 1.011e-2
-1.348, 1.011e-2
-1.347, 1.011e-2
-1.346, 1.011e-2
-1.345, 1.011e-2
-1.344, 1.011e-2
-1.343, 1.011e-2
-1.342, 1.011e-2
-1.341, 1.011e-2
-1.340, 1.011e-2
-1.339, 1.011e-2
-1.338, 1.002e-2
-1.337, 9.897e-3
-1.336, 9.794e-3
-1.335, 9.655e-3
-1.334, 9.522e-3
-1.333, 9.391e-3
-1.332, 9.265e-3
-1.331, 9.130e-3
-1.330, 9.010e-3
-1.329, 8.885e-3
-1.328, 8.763e-3
-1.327, 8.649e-3
-1.326, 8.548e-3
-1.325, 8.420e-3
-1.324, 8.298e-3
-1.323, 8.171e-3
-1.322, 8.042e-3
-1.321, 7.924e-3
-1.320, 7.803e-3
-1.319, 7.682e-3
-1.318, 7.576e-3
-1.317, 7.464e-3
-1.316, 7.354e-3
-1.315, 7.241e-3
-1.314, 7.122e-3
-1.313, 7.010e-3
-1.312, 6.911e-3
-1.311, 6.809e-3
-1.310, 6.700e-3
-1.309, 6.611e-3
-1.308, 6.490e-3
-1.307, 6.374e-3
-1.306, 6.264e-3
-1.305, 6.162e-3
-1.304, 6.055e-3
-1.303, 5.946e-3
-1.302, 5.841e-3
-1.301, 5.740e-3
-1.300, 5.634e-3
-1.299, 5.533e-3
-1.298, 5.438e-3
-1.297, 5.346e-3
-1.296, 5.263e-3
-1.295, 5.161e-3
-1.294, 5.063e-3
-1.293, 4.962e-3
-1.292, 4.868e-3
-1.291, 4.773e-3
-1.290, 4.676e-3
-1.289, 4.586e-3
-1.288, 4.503e-3
-1.287, 4.416e-3
-1.286, 4.325e-3
-1.285, 4.236e-3
-1.284, 4.150e-3
-1.283, 4.058e-3
-1.282, 3.969e-3
-1.281, 3.881e-3
-1.280, 3.795e-3
-1.279, 3.707e-3
-1.278, 3.621e-3
-1.277, 3.542e-3
-1.276, 3.468e-3
-1.275, 3.388e-3
-1.274, 3.307e-3
-1.273, 3.227e-3
-1.272, 3.147e-3
-1.271, 3.074e-3
-1.270, 2.998e-3
-1.269, 2.924e-3
-1.268, 2.845e-3
-1.267, 2.773e-3
-1.266, 2.705e-3
-1.265, 2.634e-3
-1.264, 2.563e-3
-1.263, 2.486e-3
-1.262, 2.423e-3
-1.261, 2.358e-3
-1.260, 2.292e-3
-1.259, 2.226e-3
-1.258, 2.163e-3
-1.257, 2.097e-3
-1.256, 2.034e-3
-1.255, 1.979e-3
-1.254, 1.917e-3
-1.253, 1.857e-3
-1.252, 1.796e-3
-1.251, 1.740e-3
-1.250, 1.682e-3
-1.249, 1.625e-3
-1.248, 1.568e-3
-1.247, 1.511e-3
-1.246, 1.461e-3
-1.245, 1.412e-3
-1.244, 1.360e-3
-1.243, 1.308e-3
-1.242, 1.261e-3
-1.241, 1.211e-3
-1.240, 1.167e-3
-1.239, 1.119e-3
-1.238, 1.070e-3
-1.237, 1.028e-3
-1.236, 9.859e-4
-1.235, 9.438e-4
-1.234, 9.015e-4
-1.233, 8.581e-4
-1.232, 8.256e-4
-1.231, 7.878e-4
-1.230, 7.502e-4
-1.229, 7.058e-4
-1.228, 6.673e-4
-1.227, 6.345e-4
-1.226, 5.993e-4
-1.225, 5.652e-4
-1.224, 5.315e-4
-1.223, 4.926e-4
-1.222, 4.605e-4
-1.221, 4.334e-4
-1.220, 4.042e-4
-1.219, 3.721e-4
-1.218, 3.410e-4
-1.217, 3.130e-4
-1.216, 2.872e-4
-1.215, 2.599e-4
-1.214, 2.313e-4
-1.213, 2.047e-4
-1.212, 1.803e-4
-1.211, 1.575e-4
-1.210, 1.350e-4
-1.209, 1.100e-4
-1.208, 8.570e-5
-1.207, 6.274e-5
-1.206, 4.402e-5
-1.205, 2.499e-5
-1.204, 3.334e-6
-1.203, -1.932e-5
-1.202, -3.871e-5
-1.201, -5.581e-5
-1.200, -7.168e-5
-1.199, -8.981e-5
-1.198, -1.097e-4
-1.197, -1.265e-4
-1.196, -1.408e-4
-1.195, -1.551e-4
-1.194, -1.703e-4
-1.193, -1.879e-4
-1.192, -2.020e-4
-1.191, -2.137e-4
-1.190, -2.252e-4
-1.189, -2.392e-4
-1.188, -2.557e-4
-1.187, -2.681e-4
-1.186, -2.793e-4
-1.185, -2.901e-4
-1.184, -3.021e-4
-1.183, -3.159e-4
-1.182, -3.275e-4
-1.181, -3.359e-4
-1.180, -3.439e-4
-1.179, -3.534e-4
-1.178, -3.648e-4
-1.177, -3.753e-4
-1.176, -3.817e-4
-1.175, -3.889e-4
-1.174, -3.984e-4
-1.173, -4.101e-4
-1.172, -4.195e-4
-1.171, -4.245e-4
-1.170, -4.303e-4
-1.169, -4.389e-4
-1.168, -4.456e-4
-1.167, -4.524e-4
-1.166, -4.576e-4
-1.165, -4.635e-4
-1.164, -4.705e-4
-1.163, -4.794e-4
-1.162, -4.855e-4
-1.161, -4.892e-4
-1.160, -4.928e-4
-1.159, -4.994e-4
-1.158, -5.069e-4
-1.157, -5.117e-4
-1.156, -5.160e-4
-1.155, -5.195e-4
-1.154, -5.264e-4
-1.153, -5.352e-4
-1.152, -5.384e-4
-1.151, -5.404e-4
-1.150, -5.427e-4
-1.149, -5.483e-4
-1.148, -5.548e-4
-1.147, -5.589e-4
-1.146, -5.603e-4
-1.145, -5.641e-4
-1.144, -5.685e-4
-1.143, -5.741e-4
-1.142, -5.760e-4
-1.141, -5.763e-4
-1.140, -5.797e-4
-1.139, -5.850e-4
-1.138, -5.907e-4
-1.137, -5.950e-4
-1.136, -5.957e-4
-1.135, -5.980e-4
-1.134, -6.035e-4
-1.133, -6.071e-4
-1.132, -6.088e-4
-1.131, -6.081e-4
-1.130, -6.097e-4
-1.129, -6.147e-4
-1.128, -6.195e-4
-1.127, -6.236e-4
-1.126, -6.258e-4
-1.125, -6.271e-4
-1.124, -6.316e-4
-1.123, -6.353e-4
-1.122, -6.373e-4
-1.121, -6.376e-4
-1.120, -6.374e-4
-1.119, -6.415e-4
-1.118, -6.474e-4
-1.117, -6.491e-4
-1.116, -6.522e-4
-1.115, -6.530e-4
-1.114, -6.559e-4
-1.113, -6.608e-4
-1.112, -6.600e-4
-1.111, -6.592e-4
-1.110, -6.577e-4
-1.109, -6.616e-4
-1.108, -6.687e-4
-1.107, -6.722e-4
-1.106, -6.715e-4
-1.105, -6.729e-4
-1.104, -6.754e-4
-1.103, -6.811e-4
-1.102, -6.833e-4
-1.101, -6.832e-4
-1.100, -6.847e-4
-1.099, -6.889e-4
-1.098, -6.925e-4
-1.097, -6.948e-4
-1.096, -6.950e-4
-1.095, -6.960e-4
-1.094, -7.005e-4
-1.093, -7.047e-4
-1.092, -7.064e-4
-1.091, -7.064e-4
-1.090, -7.085e-4
-1.089, -7.132e-4
-1.088, -7.174e-4
-1.087, -7.199e-4
-1.086, -7.198e-4
-1.085, -7.201e-4
-1.084, -7.252e-4
-1.083, -7.305e-4
-1.082, -7.324e-4
-1.081, -7.330e-4
-1.080, -7.336e-4
-1.079, -7.376e-4
-1.078, -7.441e-4
-1.077, -7.463e-4
-1.076, -7.475e-4
-1.075, -7.498e-4
-1.074, -7.534e-4
-1.073, -7.584e-4
-1.072, -7.602e-4
-1.071, -7.613e-4
-1.070, -7.632e-4
-1.069, -7.679e-4
-1.068, -7.740e-4
-1.067, -7.765e-4
-1.066, -7.769e-4
-1.065, -7.795e-4
-1.064, -7.840e-4
-1.063, -7.889e-4
-1.062, -7.906e-4
-1.061, -7.918e-4
-1.060, -7.958e-4
-1.059, -8.003e-4
-1.058, -8.056e-4
-1.057, -8.085e-4
-1.056, -8.086e-4
-1.055, -8.122e-4
-1.054, -8.179e-4
-1.053, -8.231e-4
-1.052, -8.265e-4
-1.051, -8.284e-4
-1.050, -8.314e-4
-1.049, -8.365e-4
-1.048, -8.412e-4
-1.047, -8.446e-4
-1.046, -8.455e-4
-1.045, -8.505e-4
-1.044, -8.560e-4
-1.043, -8.620e-4
-1.042, -8.643e-4
-1.041, -8.655e-4
-1.040, -8.681e-4
-1.039, -8.747e-4
-1.038, -8.809e-4
-1.037, -8.837e-4
-1.036, -8.865e-4
-1.035, -8.899e-4
-1.034, -8.963e-4
-1.033, -9.011e-4
-1.032, -9.033e-4
-1.031, -9.063e-4
-1.030, -9.098e-4
-1.029, -9.162e-4
-1.028, -9.241e-4
-1.027, -9.288e-4
-1.026, -9.301e-4
-1.025, -9.333e-4
-1.024, -9.403e-4
-1.023, -9.490e-4
-1.022, -9.559e-4
-1.021, -9.554e-4
-1.020, -9.579e-4
-1.019, -9.644e-4
-1.018, -9.719e-4
-1.017, -9.772e-4
-1.016, -9.790e-4
-1.015, -9.837e-4
-1.014, -9.909e-4
-1.013, -9.978e-4
-1.012, -1.003e-3
-1.011, -1.005e-3
-1.010, -1.008e-3
-1.009, -1.016e-3
-1.008, -1.023e-3
-1.007, -1.030e-3
-1.006, -1.033e-3
-1.005, -1.036e-3
-1.004, -1.048e-3
-1.003, -1.057e-3
-1.002, -1.061e-3
-1.001, -1.063e-3
