Potential V vs RHE, Current mA cm-2
0.013299999999999867,0.8264743413811545
0.012299999999999978,-1.7910245056291363
0.011299999999999866,-4.1889601589003735
0.010299999999999976,-6.414301033588076
0.009299999999999864,-8.464217707092514
0.008299999999999974,-10.382566229709504
0.007299999999999862,-12.258473413330542
0.006299999999999972,-14.046668496359947
0.00529999999999986,-15.830619445489761
0.0042999999999999705,-17.542420118326454
0.0032999999999998586,-19.197632339168546
0.0022999999999999687,-20.85284456001064
0.0012999999999998568,-22.46561544185678
0.00029999999999996696,-24.078386323702922
-0.000700000000000145,-25.563833188561212
-0.0017000000000000348,-27.049280053419505
-0.0027000000000001467,-28.308373110299385
-0.0037000000000000366,-29.525024828183312
-0.0047000000000001485,-30.71338232006995
-0.005700000000000038,-31.887592698957924
-0.00670000000000015,-32.93447906085806
-0.00770000000000004,-34.02380676175414
-0.008700000000000152,-35.11313446265021
-0.009700000000000042,-36.20246216354629
-0.010700000000000154,-37.291789864442364
-0.011700000000000044,-38.33867622634249
-0.012700000000000156,-39.34312124924667
-0.013700000000000045,-40.34756627215084
-0.014700000000000157,-41.267128617063115
-0.015700000000000047,-42.130102509980794
-0.01670000000000016,-42.92234083790521
-0.01770000000000005,-43.70043205283099
-0.01870000000000016,-44.4926703807554
-0.01970000000000005,-45.143437578693316
-0.020700000000000163,-45.89323456762179
-0.021700000000000053,-46.586443104555656
-0.022700000000000164,-47.32209298048547
-0.023700000000000054,-48.029448630417996
-0.024700000000000166,-48.72265716735186
-0.025700000000000056,-49.41586570428573
-0.026700000000000168,-50.12322135421825
-0.027700000000000058,-50.77398855215617
-0.02870000000000017,-51.38231441109813
-0.02970000000000006,-51.90575759204819
-0.03070000000000017,-52.42920077299826
-0.03170000000000006,-52.91020261495237
-0.03270000000000017,-53.348763117910536
-0.03370000000000006,-53.82976495986464
-0.034700000000000175,-54.31076680181876
-0.035700000000000065,-54.73518019177827
-0.03670000000000018,-55.21618203373238
-0.03770000000000007,-55.73962521468245
-0.03870000000000018,-56.22062705663656
-0.03970000000000007,-56.74407023758662
-0.04070000000000018,-57.182630740544774
-0.04170000000000007,-57.62119124350295
-0.04270000000000018,-58.017310407465146
-0.04370000000000007,-58.35684111943277
-0.044700000000000184,-58.66807760540307
-0.045700000000000074,-58.97931409137338
-0.046700000000000186,-59.23396212534908
-0.047700000000000076,-59.54519861131939
-0.04870000000000019,-59.7998466452951
-0.04970000000000008,-60.15352447026136
-0.05070000000000019,-60.54964363422357
-0.05170000000000008,-60.889174346191176
-0.05270000000000019,-61.28529351015339
-0.05370000000000008,-61.63897133511965
-0.05470000000000019,-61.97850204708726
-0.05570000000000008,-62.28973853305756
-0.056700000000000195,-62.501945228037314
-0.057700000000000085,-62.77074037501168
-0.058700000000000196,-62.94050573099548
-0.059700000000000086,-63.11027108697928
-0.0607000000000002,-63.3366248949577
-0.06170000000000009,-63.54883158993744
-0.0627000000000002,-63.81762673691181
-0.06370000000000009,-64.0722747708875
-0.0647000000000002,-64.38351125685783
-0.06570000000000009,-64.63815929083353
-0.0667000000000002,-64.99183711579978
-0.0677000000000001,-65.20404381077954
-0.0687000000000002,-65.4728389577539
-0.0697000000000001,-65.64260431373769
-0.07070000000000021,-65.82651678272015
-0.0717000000000001,-65.95384079970802
-0.07270000000000021,-66.08116481669586
-0.0737000000000001,-66.20848883368372
-0.07470000000000021,-66.39240130266617
-0.0757000000000001,-66.56216665864997
-0.07670000000000021,-66.77437335362974
-0.0777000000000001,-67.04316850060408
-0.07870000000000021,-67.2978165345798
-0.0797000000000001,-67.6090530205501
-0.08070000000000022,-67.82125971552985
-0.0817000000000001,-68.04761352350828
-0.08270000000000022,-68.25982021848802
-0.08370000000000011,-68.34470289647993
-0.08470000000000022,-68.48617402646643
-0.08570000000000011,-68.61349804345427
-0.08670000000000022,-68.69838072144618
-0.08770000000000011,-68.82570473843404
-0.08870000000000022,-68.96717586842054
-0.08970000000000011,-69.1793825634003
-0.09070000000000022,-69.39158925838004
-0.09170000000000011,-69.6603844053544
-0.09270000000000023,-69.87259110033416
-0.09370000000000012,-70.14138624730852
-0.09470000000000023,-70.31115160329232
-0.09570000000000012,-70.48091695927613
-0.09670000000000023,-70.62238808926263
-0.09770000000000012,-70.66482942825859
-0.09870000000000023,-70.79215344524643
-0.09970000000000012,-70.87703612323833
-0.10070000000000023,-71.0043601402262
-0.10170000000000012,-71.18827260920865
-0.10270000000000024,-71.31559662619651
-0.10370000000000013,-71.52780332117625
-0.10470000000000024,-71.75415712915466
-0.10570000000000013,-71.96636382413442
-0.10670000000000024,-72.19271763211282
-0.10770000000000013,-72.40492432709259
-0.10870000000000024,-72.57468968307639
-0.10970000000000013,-72.71616081306288
-0.11070000000000024,-72.84348483005074
-0.11170000000000013,-72.92836750804264
-0.11270000000000002,-73.0556915250305
-0.11370000000000013,-73.15472131602105
-0.11470000000000002,-73.23960399401295
-0.11570000000000014,-73.40936934999675
-0.11670000000000003,-73.53669336698461
-0.11770000000000014,-73.72060583596706
-0.11870000000000003,-73.89037119195086
-0.11970000000000014,-74.14501922592657
-0.12070000000000003,-74.28649035591307
-0.12170000000000014,-74.41381437290093
-0.12270000000000003,-74.54113838988879
-0.12370000000000014,-74.58357972888473
-0.12470000000000003,-74.66846240687663
-0.12570000000000014,-74.76749219786718
-0.12670000000000003,-74.80993353686314
-0.12770000000000015,-74.89481621485504
-0.12870000000000004,-74.97969889284694
-0.12970000000000015,-75.14946424883075
-0.13070000000000004,-75.29093537881725
-0.13170000000000015,-75.50314207379701
-0.13270000000000004,-75.6729074297808
-0.13370000000000015,-75.85681989876326
-0.13470000000000004,-76.02658525474708
-0.13570000000000015,-76.19635061073087
-0.13670000000000004,-76.29538040172143
-0.13770000000000016,-76.42270441870929
-0.13870000000000005,-76.55002843569714
-0.13970000000000016,-76.5924697746931
-0.14070000000000005,-76.67735245268499
-0.14170000000000016,-76.7622351306769
-0.14270000000000005,-76.98858893865528
-0.14370000000000016,-77.11591295564315
-0.14470000000000005,-77.28567831162695
-0.14570000000000016,-77.46959078060941
-0.14670000000000005,-77.68179747558916
-0.14770000000000016,-77.86570994457162
-0.14870000000000005,-78.03547530055542
-0.14970000000000017,-78.16279931754329
-0.15070000000000006,-78.24768199553519
-0.15170000000000017,-78.33256467352709
-0.15270000000000006,-78.38915312552167
-0.15370000000000017,-78.47403580351359
-0.15470000000000006,-78.51647714250953
-0.15570000000000017,-78.64380115949739
-0.15670000000000006,-78.8135665154812
-0.15770000000000017,-78.9550376454677
-0.15870000000000006,-79.16724434044745
-0.15970000000000018,-79.42189237442317
-0.16070000000000007,-79.64824618240156
-0.16170000000000018,-79.86045287738132
-0.16270000000000007,-80.04436534636378
-0.16370000000000018,-80.17168936335163
-0.16470000000000007,-80.29901338033947
-0.16570000000000018,-80.38389605833139
-0.16670000000000007,-80.38389605833139
-0.16770000000000018,-80.46877873632329
-0.16870000000000007,-80.56780852731384
-0.16970000000000018,-80.73757388329766
-0.17070000000000007,-80.90733923928146
-0.17170000000000019,-81.21857572525175
-0.17270000000000008,-81.43078242023151
-0.1737000000000002,-81.69957756720586
-0.17470000000000008,-81.86934292318966
-0.1757000000000002,-82.03910827917348
-0.17670000000000008,-82.18057940915998
-0.1777000000000002,-82.26546208715187
-0.17870000000000008,-82.30790342614785
-0.1797000000000002,-82.30790342614785
-0.18070000000000008,-82.39278610413973
-0.1817000000000002,-82.47766878213164
-0.18270000000000008,-82.6615812511141
-0.1837000000000002,-82.8313466070979
-0.1847000000000001,-83.0011119630817
-0.1857000000000002,-83.26990711005605
-0.1867000000000001,-83.56699648302772
-0.1877000000000002,-83.70846761301424
-0.1887000000000001,-83.87823296899803
-0.1897000000000002,-83.96311564698992
-0.1907000000000001,-84.04799832498183
-0.1917000000000001,-84.13288100297372
-0.19269999999999998,-84.18946945496833
-0.1937000000000001,-84.31679347195619
-0.19469999999999998,-84.40167614994809
-0.1957000000000001,-84.52900016693594
-0.19669999999999999,-84.7129126359184
-0.1977000000000001,-84.92511933089816
-0.1987,-85.13732602587791
-0.1997000000000001,-85.36367983385631
-0.2007,-85.53344518984011
-0.2017000000000001,-85.70321054582392
-0.2027,-85.88712301480638
-0.2037000000000001,-85.97200569279828
-0.2047,-86.05688837079018
-0.2057000000000001,-86.14177104878208
-0.2067,-86.22665372677399
-0.2077000000000001,-86.32568351776455
-0.2087,-86.41056619575643
-0.2097000000000001,-86.58033155174023
-0.2107,-86.80668535971866
-0.2117000000000001,-86.97645071570246
-0.2127,-87.18865741068221
-0.2137000000000001,-87.33012854066871
-0.2147,-87.49989389665252
-0.2157000000000001,-87.71210059163228
-0.2167,-87.85357172161878
-0.21770000000000012,-87.93845439961068
-0.2187,-88.06577841659853
-0.21970000000000012,-88.10821975559449
-0.2207,-88.23554377258235
-0.22170000000000012,-88.37701490256885
-0.2227,-88.5043389195567
-0.22370000000000012,-88.6741042755405
-0.2247,-88.9004580835189
-0.22570000000000012,-89.07022343950271
-0.2267,-89.36731281247435
-0.22770000000000012,-89.59366662045278
-0.22870000000000001,-89.89075599342443
-0.22970000000000013,-90.15955114039879
-0.23070000000000002,-90.32931649638259
-0.23170000000000013,-90.41419917437449
-0.23270000000000002,-90.59811164335694
-0.23370000000000013,-90.6405529823529
-0.23470000000000002,-90.7254356603448
-0.23570000000000013,-90.85275967733266
-0.23670000000000002,-90.99423080731917
-0.2376999999999999,-91.24887884129487
-0.23870000000000002,-91.46108553627462
-0.2396999999999999,-91.77232202224494
-0.24070000000000003,-92.04111716921928
-0.24169999999999991,-92.33820654219093
-0.24270000000000003,-92.4655305591788
-0.24369999999999992,-92.64944302816124
-0.24470000000000003,-92.73432570615316
-0.24569999999999992,-92.7767670451491
-0.24670000000000003,-92.81920838414506
-0.24769999999999992,-92.86164972314101
-0.24870000000000003,-92.90409106213696
-0.24969999999999992,-93.13044487011537
-0.25070000000000003,-93.34265156509512
-0.2516999999999999,-93.61144671206948
-0.25270000000000004,-93.90853608504113
-0.2536999999999999,-94.21977257101145
-0.25470000000000004,-94.47442060498715
-0.2556999999999999,-94.70077441296557
-0.25670000000000004,-94.8280984299534
-0.25769999999999993,-94.91298110794531
-0.25870000000000004,-95.04030512493317
-0.25969999999999993,-95.12518780292505
-0.26070000000000004,-95.30910027190752
-0.26169999999999993,-95.47886562789132
-0.26270000000000004,-95.79010211386164
-0.26369999999999993,-96.0871914868333
-0.26470000000000005,-96.35598663380765
-0.26569999999999994,-96.61063466778336
-0.26670000000000005,-96.92187115375367
-0.26769999999999994,-97.17651918772938
-0.26870000000000005,-97.4877556736997
-0.26969999999999994,-97.57263835169158
-0.27070000000000005,-97.69996236867944
-0.27169999999999994,-97.84143349866595
-0.27270000000000005,-97.96875751565379
-0.27369999999999994,-98.05364019364569
-0.27470000000000006,-98.18096421063355
-0.27569999999999995,-98.40731801861195
-0.27670000000000006,-98.66196605258766
-0.27769999999999995,-98.93076119956201
-0.27870000000000006,-99.18540923353773
-0.27969999999999995,-99.49664571950804
-0.28070000000000006,-99.70885241448778
-0.28169999999999995,-99.93520622246619
-0.28270000000000006,-100.06253023945405
-0.28369999999999995,-100.23229559543785
-0.28470000000000006,-100.35961961242569
-0.28569999999999995,-100.54353208140815
-0.28670000000000007,-100.62841475940007
-0.28769999999999996,-100.84062145437981
-0.28870000000000007,-101.02453392336226
-0.28969999999999996,-101.3640646353299
-0.29070000000000007,-101.6753011213002
-0.29169999999999996,-102.02897894626645
-0.29270000000000007,-102.3260683192381
-0.29369999999999996,-102.59486346621246
-0.2947000000000001,-102.89195283918411
-0.29569999999999996,-103.16074798615847
-0.2967000000000001,-103.41539602013418
-0.29769999999999996,-103.64174982811258
-0.2987000000000001,-103.81151518409638
-0.29969999999999997,-103.93883920108425
-0.3007000000000001,-104.12275167006669
-0.30169999999999997,-104.33495836504645
-0.3027000000000001,-104.5471650600262
-0.30369999999999997,-104.85840154599651
-0.3047000000000001,-105.11304957997223
-0.30569999999999997,-105.38184472694657
-0.3067000000000001,-105.73552255191284
-0.3077,-106.0326119248845
-0.3087000000000001,-106.30140707185885
-0.3097,-106.51361376683862
-0.3107000000000001,-106.73996757481702
-0.3117,-106.90973293080083
-0.3127000000000001,-107.07949828678463
-0.3137,-107.26341075576708
-0.3147000000000001,-107.47561745074682
-0.3157,-107.73026548472255
-0.3167000000000001,-108.0839433096888
-0.3177,-108.48006247365102
-0.3187000000000001,-108.87618163761321
-0.3197,-109.35718347956733
-0.3207000000000001,-109.78159686952685
-0.3217,-110.17771603348905
-0.3227000000000001,-110.48895251945936
-0.3237,-110.78604189243102
-0.3247000000000001,-111.05483703940537
-0.3257,-111.3094850733811
-0.3267000000000001,-111.57828022035544
-0.3277,-111.91781093232305
-0.3287000000000001,-112.31393009628526
-0.3297,-112.75249059924342
-0.3307000000000001,-113.23349244119754
-0.3317,-113.75693562214758
-0.3327000000000001,-114.23793746410173
-0.3337,-114.71893930605583
-0.3347000000000001,-115.15749980901398
-0.3357,-115.4970305209816
-0.3367000000000001,-115.8931496849438
-0.3377,-116.20438617091412
-0.3387000000000001,-116.54391688288172
-0.3397,-116.89759470784797
-0.3407000000000001,-117.3785965498021
-0.3417,-117.77471571376431
-0.3427000000000001,-118.3406002337103
-0.3437,-118.90648475365633
-0.3447000000000001,-119.51481061259831
-0.3457,-120.16557781053622
-0.3467000000000001,-120.81634500847414
-0.3477,-121.38222952842017
-0.3487000000000001,-122.00470250036076
-0.3497,-122.57058702030677
-0.3507000000000001,-123.17891287924873
-0.3517,-123.74479739919475
-0.3527000000000001,-124.35312325813672
-0.3537,-124.91900777808273
-0.3547000000000001,-125.5273336370247
-0.3557,-126.14980660896532
-0.35670000000000013,-126.80057380690324
-0.3577,-127.53622368283307
-0.35870000000000013,-128.2294322197669
-0.3597,-129.02167054769134
-0.36070000000000013,-129.79976176261712
-0.3617,-130.59200009054155
-0.3626999999999999,-131.28520862747538
-0.3637,-132.07744695539984
-0.3646999999999999,-132.81309683132966
-0.3657,-133.52045248126214
-0.3666999999999999,-134.29854369618792
-0.3677,-135.1332233631083
-0.3686999999999999,-135.95375591703004
-0.36970000000000003,-136.83087692294635
-0.3706999999999999,-137.75043926785864
-0.37170000000000003,-138.7548842907628
-0.3726999999999999,-139.74518220066832
-0.37370000000000003,-140.74962722357247
-0.3746999999999999,-141.75407224647665
-0.37570000000000003,-142.7443701563822
-0.3766999999999999,-143.73466806628772
-0.37770000000000004,-144.72496597619326
-0.3786999999999999,-145.7152638860988
-0.37970000000000004,-146.8470329259908
-0.3806999999999999,-147.83733083589632
-0.38170000000000004,-148.96909987578834
-0.38269999999999993,-150.24234004566688
-0.38370000000000004,-151.5155802155454
-0.38469999999999993,-152.78882038542397
-0.38570000000000004,-154.203531685289
-0.38669999999999993,-153.77911829532948
-0.38570000000000004,-149.95939778569388
-0.38469999999999993,-146.7055617960043
-0.38370000000000004,-143.5931969363012
-0.38269999999999993,-140.66474454558062
-0.38170000000000004,-137.92020462384244
-0.3806999999999999,-135.3029887190921
-0.37970000000000004,-132.7706554923337
-0.3786999999999999,-130.42223473455772
-0.37770000000000004,-128.18699088077096
-0.3766999999999999,-126.09321815697072
-0.37570000000000003,-124.09847522416102
-0.3746999999999999,-122.17446785634456
-0.37370000000000003,-120.39193161851462
-0.3726999999999999,-118.63768960668197
-0.37170000000000003,-116.89759470784797
-0.3706999999999999,-115.10091135701937
-0.36970000000000003,-113.31837511918944
-0.3686999999999999,-111.57828022035544
-0.3677,-109.8240382085228
-0.3666999999999999,-108.0839433096888
-0.3657,-106.51361376683862
-0.3646999999999999,-104.85840154599651
-0.3637,-103.37295468113824
-0.3626999999999999,-101.92994915527588
-0.3617,-100.45864940341626
-0.36070000000000013,-99.10052655554581
-0.3597,-97.69996236867944
-0.35870000000000013,-96.27110395581576
-0.3577,-94.87053976894937
-0.35670000000000013,-93.34265156509512
-0.3557,-91.85720470023682
-0.3547000000000001,-90.41419917437449
-0.3537,-88.9004580835189
-0.3527000000000001,-87.45745255765657
-0.3517,-86.05688837079018
-0.3507000000000001,-84.75535397491434
-0.3497,-83.48211380503581
-0.3487000000000001,-82.22302074815593
-0.3477,-80.99222191727335
-0.3467000000000001,-79.81801153838538
-0.3457,-78.55891848150549
-0.3447000000000001,-77.34226676362155
-0.3437,-76.02658525474708
-0.3427000000000001,-74.62602106788069
-0.3417,-73.3669280110008
-0.3407000000000001,-71.96636382413442
-0.3397,-70.66482942825859
-0.3387000000000001,-69.39158925838004
-0.3377,-68.0900548625042
-0.3367000000000001,-66.91584448361623
-0.3357,-65.7274869917296
-0.3347000000000001,-64.55327661284163
-0.3337,-63.46394891194555
-0.3327000000000001,-62.28973853305756
-0.3317,-61.11552815416958
-0.3307000000000001,-59.884729323287
-0.3297,-58.66807760540307
-0.3287000000000001,-57.408984548523186
-0.3277,-56.1781857176406
-0.3267000000000001,-54.834209982768826
-0.3257,-53.64585249088219
-0.3247000000000001,-52.42920077299826
-0.3237,-51.21254905511432
-0.3227000000000001,-50.12322135421825
-0.3217,-48.93486386233162
-0.3207000000000001,-47.84553616143554
-0.3197,-46.713767121543505
-0.3187000000000001,-45.624439420647434
-0.3177,-44.45022904175945
-0.3167000000000001,-43.31846000186743
-0.3157,-42.087661170984845
-0.3147000000000001,-40.91345079209687
-0.3137,-39.654357735216976
-0.3127000000000001,-38.522588695324956
-0.3117,-37.334231203438314
-0.3107000000000001,-36.244903502542236
-0.3097,-35.11313446265021
-0.3087000000000001,-34.06624810075008
-0.3077,-33.01936173884996
-0.3067000000000001,-32.05735805494172
-0.30569999999999997,-30.968030354045652
-0.3047000000000001,-29.921143992145527
-0.30369999999999997,-28.789374952253496
-0.3027000000000001,-27.65760591236147
-0.30169999999999997,-26.525836872469437
-0.3007000000000001,-25.337479380582806
-0.29969999999999997,-24.20571034069078
-0.2987000000000001,-23.1163826397947
-0.29769999999999996,-22.027054938898623
-0.2967000000000001,-21.022609915994444
-0.29569999999999996,-20.01816489309027
-0.2947000000000001,-19.056161209182044
-0.29369999999999996,-18.15074597726842
-0.29270000000000007,-17.146300954364243
-0.29169999999999996,-16.184297270456018
-0.29070000000000007,-15.137410908555893
-0.28969999999999996,-14.090524546655764
-0.28870000000000007,-13.043638184755638
-0.28769999999999996,-11.996751822855511
-0.28670000000000007,-10.906009410659568
-0.28569999999999995,-9.946835149351072
-0.28470000000000006,-8.85609273715513
-0.28369999999999995,-7.940774526142452
-0.28270000000000006,-7.024041603829907
-0.28169999999999995,-6.152579443113044
-0.28070000000000006,-5.279702571096316
-0.27969999999999995,-4.406825699079589
-0.27870000000000006,-3.4915074880669104
-0.27769999999999995,-2.618630616050183
-0.27670000000000006,-1.7033124050375041
-0.27569999999999995,-0.7001406223032067
-0.27470000000000006,0.2594580523952477
-0.27369999999999994,1.2626298351295453
-0.27270000000000005,2.178655401792157
-0.27169999999999994,3.0939736128048354
-0.27070000000000005,4.01070653511738
-0.26969999999999994,4.795871306542475
-0.26870000000000005,5.581036077967569
-0.26769999999999994,6.366200849392665
-0.26670000000000005,7.195221671113577
-0.26569999999999994,7.980386442538672
-0.26470000000000005,8.764136502663902
