Dec. 25, 2024   01:47:14
Cyclic Voltammetry
File: c:/users/guazh/data/banditlqround7_x0exp136_r20/2024-12-24-exp733\exp733-2024-12-25t01_38_41-h2koh\exp733_cv_50mvs_efin_-1500mv.bin
Data Source:  Experiment
Instrument Model:  CHI760E
Header: CV ran at 50 mVs
Note: 

Init E (V) = -1
High E (V) = -1
Low E (V) = -1.5
Final E (V) = -1
Init P/N = N
Scan Rate (V/s) = 0.05
Segment = 7
Sample Interval (V) = 0.001
Quiet Time (sec) = 60
Sensitivity (A/V) = 0.001
Comp R (ohm) = 1.3

Results:

Channel 1:
Segment 1:

Segment 2:

Segment 3:

Segment 4:

Segment 5:

Segment 6:

Segment 7:

Potential/V, Current/A

-1.000, 2.903e-5
-1.001, 6.214e-5
-1.002, 7.093e-5
-1.003, 7.286e-5
-1.004, 7.451e-5
-1.005, 7.581e-5
-1.006, 7.860e-5
-1.007, 7.873e-5
-1.008, 7.826e-5
-1.009, 7.734e-5
-1.010, 7.849e-5
-1.011, 8.016e-5
-1.012, 8.017e-5
-1.013, 7.870e-5
-1.014, 7.842e-5
-1.015, 8.011e-5
-1.016, 8.103e-5
-1.017, 8.063e-5
-1.018, 7.955e-5
-1.019, 7.903e-5
-1.020, 8.050e-5
-1.021, 8.143e-5
-1.022, 8.119e-5
-1.023, 7.989e-5
-1.024, 7.963e-5
-1.025, 8.061e-5
-1.026, 8.185e-5
-1.027, 8.127e-5
-1.028, 8.012e-5
-1.029, 7.921e-5
-1.030, 8.072e-5
-1.031, 8.197e-5
-1.032, 8.118e-5
-1.033, 8.003e-5
-1.034, 7.969e-5
-1.035, 8.119e-5
-1.036, 8.217e-5
-1.037, 8.131e-5
-1.038, 7.994e-5
-1.039, 7.985e-5
-1.040, 8.054e-5
-1.041, 8.203e-5
-1.042, 8.140e-5
-1.043, 7.995e-5
-1.044, 7.979e-5
-1.045, 8.074e-5
-1.046, 8.201e-5
-1.047, 8.153e-5
-1.048, 7.999e-5
-1.049, 7.987e-5
-1.050, 8.082e-5
-1.051, 8.171e-5
-1.052, 8.157e-5
-1.053, 7.991e-5
-1.054, 7.971e-5
-1.055, 8.107e-5
-1.056, 8.191e-5
-1.057, 8.137e-5
-1.058, 8.003e-5
-1.059, 7.958e-5
-1.060, 8.110e-5
-1.061, 8.194e-5
-1.062, 8.165e-5
-1.063, 8.022e-5
-1.064, 7.960e-5
-1.065, 8.096e-5
-1.066, 8.188e-5
-1.067, 8.140e-5
-1.068, 8.026e-5
-1.069, 7.979e-5
-1.070, 8.130e-5
-1.071, 8.241e-5
-1.072, 8.175e-5
-1.073, 8.053e-5
-1.074, 7.972e-5
-1.075, 8.149e-5
-1.076, 8.241e-5
-1.077, 8.136e-5
-1.078, 7.999e-5
-1.079, 7.989e-5
-1.080, 8.103e-5
-1.081, 8.225e-5
-1.082, 8.210e-5
-1.083, 8.045e-5
-1.084, 8.009e-5
-1.085, 8.134e-5
-1.086, 8.199e-5
-1.087, 8.190e-5
-1.088, 8.027e-5
-1.089, 8.053e-5
-1.090, 8.173e-5
-1.091, 8.246e-5
-1.092, 8.242e-5
-1.093, 8.036e-5
-1.094, 8.044e-5
-1.095, 8.176e-5
-1.096, 8.251e-5
-1.097, 8.202e-5
-1.098, 8.089e-5
-1.099, 8.063e-5
-1.100, 8.240e-5
-1.101, 8.301e-5
-1.102, 8.235e-5
-1.103, 8.115e-5
-1.104, 8.096e-5
-1.105, 8.217e-5
-1.106, 8.348e-5
-1.107, 8.259e-5
-1.108, 8.156e-5
-1.109, 8.085e-5
-1.110, 8.292e-5
-1.111, 8.390e-5
-1.112, 8.296e-5
-1.113, 8.177e-5
-1.114, 8.179e-5
-1.115, 8.274e-5
-1.116, 8.465e-5
-1.117, 8.350e-5
-1.118, 8.220e-5
-1.119, 8.199e-5
-1.120, 8.314e-5
-1.121, 8.449e-5
-1.122, 8.418e-5
-1.123, 8.238e-5
-1.124, 8.240e-5
-1.125, 8.421e-5
-1.126, 8.533e-5
-1.127, 8.522e-5
-1.128, 8.346e-5
-1.129, 8.329e-5
-1.130, 8.475e-5
-1.131, 8.564e-5
-1.132, 8.489e-5
-1.133, 8.384e-5
-1.134, 8.400e-5
-1.135, 8.582e-5
-1.136, 8.631e-5
-1.137, 8.616e-5
-1.138, 8.488e-5
-1.139, 8.491e-5
-1.140, 8.647e-5
-1.141, 8.724e-5
-1.142, 8.660e-5
-1.143, 8.576e-5
-1.144, 8.578e-5
-1.145, 8.742e-5
-1.146, 8.850e-5
-1.147, 8.755e-5
-1.148, 8.702e-5
-1.149, 8.677e-5
-1.150, 8.835e-5
-1.151, 9.003e-5
-1.152, 8.896e-5
-1.153, 8.788e-5
-1.154, 8.841e-5
-1.155, 8.959e-5
-1.156, 9.112e-5
-1.157, 9.050e-5
-1.158, 8.948e-5
-1.159, 8.988e-5
-1.160, 9.125e-5
-1.161, 9.266e-5
-1.162, 9.214e-5
-1.163, 9.097e-5
-1.164, 9.166e-5
-1.165, 9.299e-5
-1.166, 9.440e-5
-1.167, 9.424e-5
-1.168, 9.308e-5
-1.169, 9.352e-5
-1.170, 9.530e-5
-1.171, 9.656e-5
-1.172, 9.609e-5
-1.173, 9.519e-5
-1.174, 9.641e-5
-1.175, 9.803e-5
-1.176, 9.951e-5
-1.177, 9.944e-5
-1.178, 9.886e-5
-1.179, 9.864e-5
-1.180, 1.009e-4
-1.181, 1.020e-4
-1.182, 1.018e-4
-1.183, 1.013e-4
-1.184, 1.020e-4
-1.185, 1.040e-4
-1.186, 1.056e-4
-1.187, 1.054e-4
-1.188, 1.051e-4
-1.189, 1.056e-4
-1.190, 1.082e-4
-1.191, 1.098e-4
-1.192, 1.095e-4
-1.193, 1.093e-4
-1.194, 1.104e-4
-1.195, 1.125e-4
-1.196, 1.143e-4
-1.197, 1.144e-4
-1.198, 1.142e-4
-1.199, 1.156e-4
-1.200, 1.178e-4
-1.201, 1.200e-4
-1.202, 1.204e-4
-1.203, 1.203e-4
-1.204, 1.220e-4
-1.205, 1.241e-4
-1.206, 1.263e-4
-1.207, 1.273e-4
-1.208, 1.272e-4
-1.209, 1.293e-4
-1.210, 1.323e-4
-1.211, 1.344e-4
-1.212, 1.353e-4
-1.213, 1.359e-4
-1.214, 1.377e-4
-1.215, 1.411e-4
-1.216, 1.430e-4
-1.217, 1.441e-4
-1.218, 1.448e-4
-1.219, 1.472e-4
-1.220, 1.512e-4
-1.221, 1.541e-4
-1.222, 1.555e-4
-1.223, 1.567e-4
-1.224, 1.594e-4
-1.225, 1.632e-4
-1.226, 1.664e-4
-1.227, 1.680e-4
-1.228, 1.701e-4
-1.229, 1.739e-4
-1.230, 1.775e-4
-1.231, 1.814e-4
-1.232, 1.835e-4
-1.233, 1.859e-4
-1.234, 1.891e-4
-1.235, 1.937e-4
-1.236, 1.984e-4
-1.237, 2.009e-4
-1.238, 2.030e-4
-1.239, 2.079e-4
-1.240, 2.129e-4
-1.241, 2.183e-4
-1.242, 2.214e-4
-1.243, 2.246e-4
-1.244, 2.296e-4
-1.245, 2.352e-4
-1.246, 2.411e-4
-1.247, 2.452e-4
-1.248, 2.490e-4
-1.249, 2.544e-4
-1.250, 2.613e-4
-1.251, 2.678e-4
-1.252, 2.732e-4
-1.253, 2.774e-4
-1.254, 2.844e-4
-1.255, 2.916e-4
-1.256, 2.980e-4
-1.257, 3.038e-4
-1.258, 3.102e-4
-1.259, 3.173e-4
-1.260, 3.265e-4
-1.261, 3.343e-4
-1.262, 3.415e-4
-1.263, 3.487e-4
-1.264, 3.560e-4
-1.265, 3.661e-4
-1.266, 3.756e-4
-1.267, 3.836e-4
-1.268, 3.997e-4
-1.269, 4.029e-4
-1.270, 4.133e-4
-1.271, 4.243e-4
-1.272, 4.327e-4
-1.273, 4.418e-4
-1.274, 4.558e-4
-1.275, 4.678e-4
-1.276, 4.775e-4
-1.277, 4.873e-4
-1.278, 4.988e-4
-1.279, 5.118e-4
-1.280, 5.255e-4
-1.281, 5.380e-4
-1.282, 5.503e-4
-1.283, 5.634e-4
-1.284, 5.776e-4
-1.285, 5.941e-4
-1.286, 6.095e-4
-1.287, 6.242e-4
-1.288, 6.369e-4
-1.289, 6.518e-4
-1.290, 6.669e-4
-1.291, 6.859e-4
-1.292, 7.023e-4
-1.293, 7.176e-4
-1.294, 7.354e-4
-1.295, 7.547e-4
-1.296, 7.732e-4
-1.297, 7.896e-4
-1.298, 8.082e-4
-1.299, 8.281e-4
-1.300, 8.482e-4
-1.301, 8.686e-4
-1.302, 8.878e-4
-1.303, 9.085e-4
-1.304, 9.293e-4
-1.305, 9.531e-4
-1.306, 9.770e-4
-1.307, 9.982e-4
-1.308, 1.016e-3
-1.309, 1.046e-3
-1.310, 1.069e-3
-1.311, 1.093e-3
-1.312, 1.116e-3
-1.313, 1.139e-3
-1.314, 1.163e-3
-1.315, 1.191e-3
-1.316, 1.218e-3
-1.317, 1.244e-3
-1.318, 1.270e-3
-1.319, 1.298e-3
-1.320, 1.329e-3
-1.321, 1.358e-3
-1.322, 1.382e-3
-1.323, 1.413e-3
-1.324, 1.440e-3
-1.325, 1.475e-3
-1.326, 1.505e-3
-1.327, 1.536e-3
-1.328, 1.562e-3
-1.329, 1.595e-3
-1.330, 1.629e-3
-1.331, 1.661e-3
-1.332, 1.693e-3
-1.333, 1.724e-3
-1.334, 1.760e-3
-1.335, 1.797e-3
-1.336, 1.832e-3
-1.337, 1.862e-3
-1.338, 1.898e-3
-1.339, 1.934e-3
-1.340, 1.970e-3
-1.341, 2.009e-3
-1.342, 2.044e-3
-1.343, 2.082e-3
-1.344, 2.123e-3
-1.345, 2.166e-3
-1.346, 2.194e-3
-1.347, 2.225e-3
-1.348, 2.265e-3
-1.349, 2.301e-3
-1.350, 2.351e-3
-1.351, 2.380e-3
-1.352, 2.411e-3
-1.353, 2.448e-3
-1.354, 2.493e-3
-1.355, 2.536e-3
-1.356, 2.580e-3
-1.357, 2.614e-3
-1.358, 2.653e-3
-1.359, 2.695e-3
-1.360, 2.737e-3
-1.361, 2.781e-3
-1.362, 2.823e-3
-1.363, 2.862e-3
-1.364, 2.905e-3
-1.365, 2.945e-3
-1.366, 2.989e-3
-1.367, 3.036e-3
-1.368, 3.079e-3
-1.369, 3.120e-3
-1.370, 3.149e-3
-1.371, 3.171e-3
-1.372, 3.249e-3
-1.373, 3.297e-3
-1.374, 3.345e-3
-1.375, 3.382e-3
-1.376, 3.406e-3
-1.377, 3.457e-3
-1.378, 3.498e-3
-1.379, 3.542e-3
-1.380, 3.582e-3
-1.381, 3.621e-3
-1.382, 3.665e-3
-1.383, 3.712e-3
-1.384, 3.751e-3
-1.385, 3.796e-3
-1.386, 3.847e-3
-1.387, 3.889e-3
-1.388, 3.935e-3
-1.389, 3.971e-3
-1.390, 4.020e-3
-1.391, 4.071e-3
-1.392, 4.116e-3
-1.393, 4.195e-3
-1.394, 4.250e-3
-1.395, 4.285e-3
-1.396, 4.309e-3
-1.397, 4.351e-3
-1.398, 4.403e-3
-1.399, 4.462e-3
-1.400, 4.507e-3
-1.401, 4.561e-3
-1.402, 4.605e-3
-1.403, 4.643e-3
-1.404, 4.717e-3
-1.405, 4.750e-3
-1.406, 4.794e-3
-1.407, 4.831e-3
-1.408, 4.882e-3
-1.409, 4.931e-3
-1.410, 4.988e-3
-1.411, 5.036e-3
-1.412, 5.100e-3
-1.413, 5.163e-3
-1.414, 5.188e-3
-1.415, 5.237e-3
-1.416, 5.288e-3
-1.417, 5.341e-3
-1.418, 5.402e-3
-1.419, 5.443e-3
-1.420, 5.478e-3
-1.421, 5.510e-3
-1.422, 5.553e-3
-1.423, 5.594e-3
-1.424, 5.635e-3
-1.425, 5.677e-3
-1.426, 5.740e-3
-1.427, 5.789e-3
-1.428, 5.833e-3
-1.429, 5.886e-3
-1.430, 5.934e-3
-1.431, 5.975e-3
-1.432, 6.038e-3
-1.433, 6.085e-3
-1.434, 6.151e-3
-1.435, 6.181e-3
-1.436, 6.217e-3
-1.437, 6.297e-3
-1.438, 6.334e-3
-1.439, 6.400e-3
-1.440, 6.454e-3
-1.441, 6.501e-3
-1.442, 6.543e-3
-1.443, 6.594e-3
-1.444, 6.630e-3
-1.445, 6.678e-3
-1.446, 6.717e-3
-1.447, 6.769e-3
-1.448, 6.808e-3
-1.449, 6.913e-3
-1.450, 6.949e-3
-1.451, 6.974e-3
-1.452, 7.048e-3
-1.453, 7.040e-3
-1.454, 7.077e-3
-1.455, 7.118e-3
-1.456, 7.210e-3
-1.457, 7.239e-3
-1.458, 7.297e-3
-1.459, 7.329e-3
-1.460, 7.389e-3
-1.461, 7.440e-3
-1.462, 7.559e-3
-1.463, 7.565e-3
-1.464, 7.641e-3
-1.465, 7.707e-3
-1.466, 7.811e-3
-1.467, 7.907e-3
-1.468, 7.941e-3
-1.469, 7.996e-3
-1.470, 8.052e-3
-1.471, 8.086e-3
-1.472, 8.075e-3
-1.473, 8.094e-3
-1.474, 8.205e-3
-1.475, 8.236e-3
-1.476, 8.287e-3
-1.477, 8.344e-3
-1.478, 8.370e-3
-1.479, 8.394e-3
-1.480, 8.399e-3
-1.481, 8.437e-3
-1.482, 8.456e-3
-1.483, 8.482e-3
-1.484, 8.495e-3
-1.485, 8.519e-3
-1.486, 8.643e-3
-1.487, 8.735e-3
-1.488, 8.812e-3
-1.489, 8.817e-3
-1.490, 8.773e-3
-1.491, 8.848e-3
-1.492, 8.870e-3
-1.493, 8.925e-3
-1.494, 8.985e-3
-1.495, 9.047e-3
-1.496, 9.049e-3
-1.497, 9.058e-3
-1.498, 9.086e-3
-1.499, 9.141e-3
-1.500, 9.130e-3
-1.499, 9.089e-3
-1.498, 9.023e-3
-1.497, 8.943e-3
-1.496, 8.862e-3
-1.495, 8.805e-3
-1.494, 8.762e-3
-1.493, 8.669e-3
-1.492, 8.610e-3
-1.491, 8.588e-3
-1.490, 8.566e-3
-1.489, 8.479e-3
-1.488, 8.416e-3
-1.487, 8.347e-3
-1.486, 8.318e-3
-1.485, 8.207e-3
-1.484, 8.096e-3
-1.483, 8.005e-3
-1.482, 8.062e-3
-1.481, 7.943e-3
-1.480, 7.849e-3
-1.479, 7.810e-3
-1.478, 7.703e-3
-1.477, 7.663e-3
-1.476, 7.551e-3
-1.475, 7.622e-3
-1.474, 7.601e-3
-1.473, 7.512e-3
-1.472, 7.409e-3
-1.471, 7.315e-3
-1.470, 7.252e-3
-1.469, 7.206e-3
-1.468, 7.138e-3
-1.467, 7.063e-3
-1.466, 7.049e-3
-1.465, 6.987e-3
-1.464, 6.934e-3
-1.463, 6.883e-3
-1.462, 6.827e-3
-1.461, 6.722e-3
-1.460, 6.640e-3
-1.459, 6.580e-3
-1.458, 6.568e-3
-1.457, 6.553e-3
-1.456, 6.489e-3
-1.455, 6.370e-3
-1.454, 6.322e-3
-1.453, 6.264e-3
-1.452, 6.176e-3
-1.451, 6.116e-3
-1.450, 6.049e-3
-1.449, 6.008e-3
-1.448, 5.972e-3
-1.447, 5.946e-3
-1.446, 5.878e-3
-1.445, 5.837e-3
-1.444, 5.795e-3
-1.443, 5.771e-3
-1.442, 5.754e-3
-1.441, 5.735e-3
-1.440, 5.669e-3
-1.439, 5.618e-3
-1.438, 5.567e-3
-1.437, 5.475e-3
-1.436, 5.424e-3
-1.435, 5.416e-3
-1.434, 5.374e-3
-1.433, 5.331e-3
-1.432, 5.254e-3
-1.431, 5.211e-3
-1.430, 5.164e-3
-1.429, 5.191e-3
-1.428, 5.108e-3
-1.427, 5.068e-3
-1.426, 5.004e-3
-1.425, 4.971e-3
-1.424, 4.952e-3
-1.423, 4.889e-3
-1.422, 4.808e-3
-1.421, 4.764e-3
-1.420, 4.703e-3
-1.419, 4.651e-3
-1.418, 4.631e-3
-1.417, 4.587e-3
-1.416, 4.540e-3
-1.415, 4.489e-3
-1.414, 4.421e-3
-1.413, 4.374e-3
-1.412, 4.323e-3
-1.411, 4.262e-3
-1.410, 4.209e-3
-1.409, 4.160e-3
-1.408, 4.108e-3
-1.407, 4.089e-3
-1.406, 4.051e-3
-1.405, 3.982e-3
-1.404, 3.966e-3
-1.403, 3.915e-3
-1.402, 3.866e-3
-1.401, 3.818e-3
-1.400, 3.774e-3
-1.399, 3.738e-3
-1.398, 3.688e-3
-1.397, 3.641e-3
-1.396, 3.601e-3
-1.395, 3.554e-3
-1.394, 3.511e-3
-1.393, 3.465e-3
-1.392, 3.418e-3
-1.391, 3.375e-3
-1.390, 3.336e-3
-1.389, 3.289e-3
-1.388, 3.243e-3
-1.387, 3.200e-3
-1.386, 3.157e-3
-1.385, 3.118e-3
-1.384, 3.086e-3
-1.383, 3.048e-3
-1.382, 3.007e-3
-1.381, 2.979e-3
-1.380, 2.939e-3
-1.379, 2.899e-3
-1.378, 2.927e-3
-1.377, 2.880e-3
-1.376, 2.831e-3
-1.375, 2.791e-3
-1.374, 2.745e-3
-1.373, 2.709e-3
-1.372, 2.658e-3
-1.371, 2.619e-3
-1.370, 2.575e-3
-1.369, 2.547e-3
-1.368, 2.506e-3
-1.367, 2.471e-3
-1.366, 2.443e-3
-1.365, 2.407e-3
-1.364, 2.365e-3
-1.363, 2.363e-3
-1.362, 2.310e-3
-1.361, 2.268e-3
-1.360, 2.232e-3
-1.359, 2.192e-3
-1.358, 2.154e-3
-1.357, 2.119e-3
-1.356, 2.090e-3
-1.355, 2.058e-3
-1.354, 2.032e-3
-1.353, 1.995e-3
-1.352, 1.955e-3
-1.351, 1.920e-3
-1.350, 1.893e-3
-1.349, 1.866e-3
-1.348, 1.833e-3
-1.347, 1.796e-3
-1.346, 1.766e-3
-1.345, 1.734e-3
-1.344, 1.703e-3
-1.343, 1.673e-3
-1.342, 1.638e-3
-1.341, 1.609e-3
-1.340, 1.581e-3
-1.339, 1.553e-3
-1.338, 1.530e-3
-1.337, 1.495e-3
-1.336, 1.477e-3
-1.335, 1.462e-3
-1.334, 1.424e-3
-1.333, 1.392e-3
-1.332, 1.365e-3
-1.331, 1.339e-3
-1.330, 1.310e-3
-1.329, 1.285e-3
-1.328, 1.260e-3
-1.327, 1.233e-3
-1.326, 1.208e-3
-1.325, 1.183e-3
-1.324, 1.160e-3
-1.323, 1.141e-3
-1.322, 1.120e-3
-1.321, 1.092e-3
-1.320, 1.071e-3
-1.319, 1.040e-3
-1.318, 1.020e-3
-1.317, 9.969e-4
-1.316, 9.782e-4
-1.315, 9.561e-4
-1.314, 9.308e-4
-1.313, 9.081e-4
-1.312, 8.889e-4
-1.311, 8.674e-4
-1.310, 8.515e-4
-1.309, 8.297e-4
-1.308, 8.103e-4
-1.307, 7.888e-4
-1.306, 7.682e-4
-1.305, 7.559e-4
-1.304, 7.357e-4
-1.303, 7.144e-4
-1.302, 6.957e-4
-1.301, 6.787e-4
-1.300, 6.619e-4
-1.299, 6.440e-4
-1.298, 6.266e-4
-1.297, 6.103e-4
-1.296, 5.949e-4
-1.295, 5.772e-4
-1.294, 5.621e-4
-1.293, 5.451e-4
-1.292, 5.325e-4
-1.291, 5.177e-4
-1.290, 5.038e-4
-1.289, 4.900e-4
-1.288, 4.731e-4
-1.287, 4.585e-4
-1.286, 4.454e-4
-1.285, 4.320e-4
-1.284, 4.186e-4
-1.283, 4.040e-4
-1.282, 3.912e-4
-1.281, 3.786e-4
-1.280, 3.673e-4
-1.279, 3.574e-4
-1.278, 3.460e-4
-1.277, 3.296e-4
-1.276, 3.194e-4
-1.275, 3.098e-4
-1.274, 2.990e-4
-1.273, 2.866e-4
-1.272, 2.764e-4
-1.271, 2.665e-4
-1.270, 2.600e-4
-1.269, 2.478e-4
-1.268, 2.361e-4
-1.267, 2.279e-4
-1.266, 2.188e-4
-1.265, 2.112e-4
-1.264, 2.103e-4
-1.263, 1.960e-4
-1.262, 1.860e-4
-1.261, 1.783e-4
-1.260, 1.706e-4
-1.259, 1.629e-4
-1.258, 1.550e-4
-1.257, 1.464e-4
-1.256, 1.405e-4
-1.255, 1.342e-4
-1.254, 1.271e-4
-1.253, 1.191e-4
-1.252, 1.125e-4
-1.251, 1.069e-4
-1.250, 1.013e-4
-1.249, 9.482e-5
-1.248, 8.831e-5
-1.247, 8.236e-5
-1.246, 7.773e-5
-1.245, 7.336e-5
-1.244, 6.773e-5
-1.243, 6.152e-5
-1.242, 5.653e-5
-1.241, 5.258e-5
-1.240, 4.892e-5
-1.239, 4.372e-5
-1.238, 3.793e-5
-1.237, 3.364e-5
-1.236, 3.059e-5
-1.235, 2.728e-5
-1.234, 2.290e-5
-1.233, 1.797e-5
-1.232, 1.440e-5
-1.231, 1.170e-5
-1.230, 9.037e-6
-1.229, 4.225e-6
-1.228, 1.517e-7
-1.227, -3.180e-6
-1.226, -5.127e-6
-1.225, -7.180e-6
-1.224, -9.850e-6
-1.223, -1.425e-5
-1.222, -1.698e-5
-1.221, -1.823e-5
-1.220, -2.036e-5
-1.219, -2.312e-5
-1.218, -2.674e-5
-1.217, -2.942e-5
-1.216, -3.048e-5
-1.215, -3.176e-5
-1.214, -3.440e-5
-1.213, -3.935e-5
-1.212, -4.195e-5
-1.211, -4.156e-5
-1.210, -4.176e-5
-1.209, -4.409e-5
-1.208, -4.680e-5
-1.207, -4.854e-5
-1.206, -4.921e-5
-1.205, -4.963e-5
-1.204, -5.182e-5
-1.203, -5.522e-5
-1.202, -5.680e-5
-1.201, -5.745e-5
-1.200, -5.652e-5
-1.199, -5.773e-5
-1.198, -6.069e-5
-1.197, -6.227e-5
-1.196, -6.295e-5
-1.195, -6.324e-5
-1.194, -6.470e-5
-1.193, -6.684e-5
-1.192, -6.741e-5
-1.191, -6.785e-5
-1.190, -6.794e-5
-1.189, -6.903e-5
-1.188, -7.139e-5
-1.187, -7.231e-5
-1.186, -7.194e-5
-1.185, -7.209e-5
-1.184, -7.296e-5
-1.183, -7.510e-5
-1.182, -7.619e-5
-1.181, -7.562e-5
-1.180, -7.516e-5
-1.179, -7.635e-5
-1.178, -7.864e-5
-1.177, -7.934e-5
-1.176, -7.829e-5
-1.175, -7.810e-5
-1.174, -7.919e-5
-1.173, -8.071e-5
-1.172, -8.164e-5
-1.171, -8.077e-5
-1.170, -8.045e-5
-1.169, -8.164e-5
-1.168, -8.385e-5
-1.167, -9.117e-5
-1.166, -8.587e-5
-1.165, -8.382e-5
-1.164, -8.430e-5
-1.163, -8.550e-5
-1.162, -8.588e-5
-1.161, -8.504e-5
-1.160, -8.421e-5
-1.159, -8.525e-5
-1.158, -8.717e-5
-1.157, -8.720e-5
-1.156, -8.625e-5
-1.155, -8.557e-5
-1.154, -8.672e-5
-1.153, -8.849e-5
-1.152, -8.842e-5
-1.151, -8.812e-5
-1.150, -8.757e-5
-1.149, -8.800e-5
-1.148, -8.941e-5
-1.147, -8.894e-5
-1.146, -8.853e-5
-1.145, -8.906e-5
-1.144, -8.901e-5
-1.143, -9.028e-5
-1.142, -9.044e-5
-1.141, -8.941e-5
-1.140, -8.888e-5
-1.139, -9.002e-5
-1.138, -9.126e-5
-1.137, -9.171e-5
-1.136, -9.060e-5
-1.135, -8.999e-5
-1.134, -9.090e-5
-1.133, -9.215e-5
-1.132, -9.201e-5
-1.131, -9.128e-5
-1.130, -9.056e-5
-1.129, -9.189e-5
-1.128, -9.320e-5
-1.127, -9.339e-5
-1.126, -9.245e-5
-1.125, -9.158e-5
-1.124, -9.243e-5
-1.123, -9.383e-5
-1.122, -9.358e-5
-1.121, -9.279e-5
-1.120, -9.162e-5
-1.119, -9.285e-5
-1.118, -9.423e-5
-1.117, -9.414e-5
-1.116, -9.320e-5
-1.115, -9.294e-5
-1.114, -9.301e-5
-1.113, -9.537e-5
-1.112, -9.675e-5
-1.111, -9.424e-5
-1.110, -9.354e-5
-1.109, -9.430e-5
-1.108, -9.579e-5
-1.107, -9.597e-5
-1.106, -9.496e-5
-1.105, -9.430e-5
-1.104, -9.462e-5
-1.103, -9.657e-5
-1.102, -9.655e-5
-1.101, -9.486e-5
-1.100, -9.499e-5
-1.099, -9.644e-5
-1.098, -9.781e-5
-1.097, -9.796e-5
-1.096, -9.595e-5
-1.095, -9.539e-5
-1.094, -9.630e-5
-1.093, -9.772e-5
-1.092, -9.766e-5
-1.091, -9.628e-5
-1.090, -9.535e-5
-1.089, -9.717e-5
-1.088, -9.827e-5
-1.087, -9.815e-5
-1.086, -9.732e-5
-1.085, -9.648e-5
-1.084, -9.752e-5
-1.083, -9.843e-5
-1.082, -9.893e-5
-1.081, -9.831e-5
-1.080, -9.717e-5
-1.079, -9.818e-5
-1.078, -9.976e-5
-1.077, -9.965e-5
-1.076, -9.844e-5
-1.075, -9.837e-5
-1.074, -9.920e-5
-1.073, -1.003e-4
-1.072, -9.982e-5
-1.071, -9.938e-5
-1.070, -9.947e-5
-1.069, -1.001e-4
-1.068, -1.020e-4
-1.067, -1.024e-4
-1.066, -1.007e-4
-1.065, -9.954e-5
-1.064, -1.013e-4
-1.063, -1.029e-4
-1.062, -1.029e-4
-1.061, -1.013e-4
-1.060, -1.005e-4
-1.059, -1.018e-4
-1.058, -1.034e-4
-1.057, -1.040e-4
-1.056, -1.025e-4
-1.055, -1.020e-4
-1.054, -1.032e-4
-1.053, -1.046e-4
-1.052, -1.046e-4
-1.051, -1.036e-4
-1.050, -1.032e-4
-1.049, -1.047e-4
-1.048, -1.060e-4
-1.047, -1.061e-4
-1.046, -1.051e-4
-1.045, -1.041e-4
-1.044, -1.057e-4
-1.043, -1.075e-4
-1.042, -1.076e-4
-1.041, -1.067e-4
-1.040, -1.061e-4
-1.039, -1.075e-4
-1.038, -1.090e-4
-1.037, -1.087e-4
-1.036, -1.083e-4
-1.035, -1.081e-4
-1.034, -1.091e-4
-1.033, -1.114e-4
-1.032, -1.107e-4
-1.031, -1.101e-4
-1.030, -1.103e-4
-1.029, -1.114e-4
-1.028, -1.132e-4
-1.027, -1.133e-4
-1.026, -1.126e-4
-1.025, -1.124e-4
-1.024, -1.144e-4
-1.023, -1.158e-4
-1.022, -1.164e-4
-1.021, -1.153e-4
-1.020, -1.153e-4
-1.019, -1.170e-4
-1.018, -1.193e-4
-1.017, -1.198e-4
-1.016, -1.187e-4
-1.015, -1.184e-4
-1.014, -1.200e-4
-1.013, -1.215e-4
-1.012, -1.233e-4
-1.011, -1.226e-4
-1.010, -1.226e-4
-1.009, -1.246e-4
-1.008, -1.263e-4
-1.007, -1.266e-4
-1.006, -1.268e-4
-1.005, -1.267e-4
-1.004, -1.287e-4
-1.003, -1.310e-4
-1.002, -1.318e-4
-1.001, -1.319e-4
-1.000, -6.647e-5
-1.001, 9.341e-7
-1.002, 2.272e-5
-1.003, 3.348e-5
-1.004, 4.178e-5
-1.005, 4.658e-5
-1.006, 4.909e-5
-1.007, 5.081e-5
-1.008, 5.297e-5
-1.009, 5.615e-5
-1.010, 5.897e-5
-1.011, 5.895e-5
-1.012, 5.973e-5
-1.013, 6.121e-5
-1.014, 6.372e-5
-1.015, 6.579e-5
-1.016, 6.595e-5
-1.017, 6.540e-5
-1.018, 6.612e-5
-1.019, 6.738e-5
-1.020, 6.907e-5
-1.021, 6.966e-5
-1.022, 6.870e-5
-1.023, 6.960e-5
-1.024, 7.139e-5
-1.025, 7.195e-5
-1.026, 7.128e-5
-1.027, 7.076e-5
-1.028, 7.153e-5
-1.029, 7.307e-5
-1.030, 7.439e-5
-1.031, 7.391e-5
-1.032, 7.276e-5
-1.033, 7.241e-5
-1.034, 7.399e-5
-1.035, 7.555e-5
-1.036, 7.471e-5
-1.037, 7.346e-5
-1.038, 7.373e-5
-1.039, 7.557e-5
-1.040, 7.607e-5
-1.041, 7.565e-5
-1.042, 7.448e-5
-1.043, 7.478e-5
-1.044, 7.661e-5
-1.045, 7.714e-5
-1.046, 7.597e-5
-1.047, 7.509e-5
-1.048, 7.488e-5
-1.049, 7.717e-5
-1.050, 7.799e-5
-1.051, 7.688e-5
-1.052, 7.559e-5
-1.053, 7.535e-5
-1.054, 7.711e-5
-1.055, 7.782e-5
-1.056, 7.652e-5
-1.057, 7.593e-5
-1.058, 7.638e-5
-1.059, 7.721e-5
-1.060, 7.815e-5
-1.061, 7.708e-5
-1.062, 7.615e-5
-1.063, 7.655e-5
-1.064, 7.738e-5
-1.065, 7.810e-5
-1.066, 7.743e-5
-1.067, 7.616e-5
-1.068, 7.678e-5
-1.069, 7.763e-5
-1.070, 7.832e-5
-1.071, 7.744e-5
-1.072, 7.615e-5
-1.073, 7.669e-5
-1.074, 7.791e-5
-1.075, 7.908e-5
-1.076, 7.831e-5
-1.077, 7.634e-5
-1.078, 7.700e-5
-1.079, 7.850e-5
-1.080, 7.831e-5
-1.081, 7.737e-5
-1.082, 7.656e-5
-1.083, 7.705e-5
-1.084, 7.847e-5
-1.085, 7.845e-5
-1.086, 7.781e-5
-1.087, 7.681e-5
-1.088, 7.704e-5
-1.089, 7.824e-5
-1.090, 7.917e-5
-1.091, 7.770e-5
-1.092, 7.717e-5
-1.093, 7.716e-5
-1.094, 7.846e-5
-1.095, 7.921e-5
-1.096, 7.785e-5
-1.097, 7.722e-5
-1.098, 7.746e-5
-1.099, 7.862e-5
-1.100, 7.952e-5
-1.101, 7.819e-5
-1.102, 7.713e-5
-1.103, 7.782e-5
-1.104, 7.876e-5
-1.105, 7.982e-5
-1.106, 7.878e-5
-1.107, 7.728e-5
-1.108, 7.803e-5
-1.109, 7.908e-5
-1.110, 7.952e-5
-1.111, 7.889e-5
-1.112, 7.756e-5
-1.113, 7.791e-5
-1.114, 7.966e-5
-1.115, 8.008e-5
-1.116, 7.947e-5
-1.117, 7.766e-5
-1.118, 7.840e-5
-1.119, 7.941e-5
-1.120, 7.969e-5
-1.121, 7.871e-5
-1.122, 7.884e-5
-1.123, 7.950e-5
-1.124, 8.043e-5
-1.125, 8.065e-5
-1.126, 7.894e-5
-1.127, 7.860e-5
-1.128, 7.897e-5
-1.129, 8.068e-5
-1.130, 8.115e-5
-1.131, 7.988e-5
-1.132, 7.920e-5
-1.133, 7.940e-5
-1.134, 8.085e-5
-1.135, 8.188e-5
-1.136, 8.047e-5
-1.137, 7.977e-5
-1.138, 8.021e-5
-1.139, 8.161e-5
-1.140, 8.261e-5
-1.141, 8.112e-5
-1.142, 8.042e-5
-1.143, 8.134e-5
-1.144, 8.232e-5
-1.145, 8.306e-5
-1.146, 8.214e-5
-1.147, 8.107e-5
-1.148, 8.165e-5
-1.149, 8.313e-5
-1.150, 8.397e-5
-1.151, 8.223e-5
-1.152, 8.185e-5
-1.153, 8.379e-5
-1.154, 8.525e-5
-1.155, 8.497e-5
-1.156, 8.448e-5
-1.157, 8.313e-5
-1.158, 8.381e-5
-1.159, 8.549e-5
-1.160, 8.604e-5
-1.161, 8.522e-5
-1.162, 8.440e-5
-1.163, 8.514e-5
-1.164, 8.714e-5
-1.165, 8.784e-5
-1.166, 8.690e-5
-1.167, 8.637e-5
-1.168, 8.661e-5
-1.169, 8.863e-5
-1.170, 8.968e-5
-1.171, 8.855e-5
-1.172, 8.846e-5
-1.173, 8.932e-5
-1.174, 9.087e-5
-1.175, 9.159e-5
-1.176, 9.071e-5
-1.177, 9.083e-5
-1.178, 9.170e-5
-1.179, 9.306e-5
-1.180, 9.451e-5
-1.181, 9.355e-5
-1.182, 9.319e-5
-1.183, 9.421e-5
-1.184, 9.589e-5
-1.185, 9.699e-5
-1.186, 9.689e-5
-1.187, 9.614e-5
-1.188, 9.697e-5
-1.189, 9.795e-5
-1.190, 1.012e-4
-1.191, 1.018e-4
-1.192, 1.003e-4
-1.193, 1.016e-4
-1.194, 1.040e-4
-1.195, 1.051e-4
-1.196, 1.042e-4
-1.197, 1.040e-4
-1.198, 1.059e-4
-1.199, 1.082e-4
-1.200, 1.094e-4
-1.201, 1.100e-4
-1.202, 1.099e-4
-1.203, 1.114e-4
-1.204, 1.142e-4
-1.205, 1.152e-4
-1.206, 1.158e-4
-1.207, 1.157e-4
-1.208, 1.170e-4
-1.209, 1.208e-4
-1.210, 1.227e-4
-1.211, 1.230e-4
-1.212, 1.237e-4
-1.213, 1.249e-4
-1.214, 1.277e-4
-1.215, 1.301e-4
-1.216, 1.307e-4
-1.217, 1.324e-4
-1.218, 1.341e-4
-1.219, 1.374e-4
-1.220, 1.398e-4
-1.221, 1.402e-4
-1.222, 1.412e-4
-1.223, 1.449e-4
-1.224, 1.484e-4
-1.225, 1.514e-4
-1.226, 1.522e-4
-1.227, 1.539e-4
-1.228, 1.574e-4
-1.229, 1.619e-4
-1.230, 1.642e-4
-1.231, 1.664e-4
-1.232, 1.682e-4
-1.233, 1.716e-4
-1.234, 1.769e-4
-1.235, 1.809e-4
-1.236, 1.820e-4
-1.237, 1.841e-4
-1.238, 1.880e-4
-1.239, 1.941e-4
-1.240, 2.074e-4
-1.241, 2.037e-4
-1.242, 2.041e-4
-1.243, 2.082e-4
-1.244, 2.140e-4
-1.245, 2.183e-4
-1.246, 2.216e-4
-1.247, 2.252e-4
-1.248, 2.309e-4
-1.249, 2.377e-4
-1.250, 2.430e-4
-1.251, 2.464e-4
-1.252, 2.480e-4
-1.253, 2.574e-4
-1.254, 2.659e-4
-1.255, 2.713e-4
-1.256, 2.749e-4
-1.257, 2.794e-4
-1.258, 2.868e-4
-1.259, 2.937e-4
-1.260, 3.010e-4
-1.261, 3.068e-4
-1.262, 3.122e-4
-1.263, 3.218e-4
-1.264, 3.308e-4
-1.265, 3.413e-4
-1.266, 3.470e-4
-1.267, 3.535e-4
-1.268, 3.622e-4
-1.269, 3.746e-4
-1.270, 3.811e-4
-1.271, 3.887e-4
-1.272, 3.976e-4
-1.273, 4.079e-4
-1.274, 4.195e-4
-1.275, 4.300e-4
-1.276, 4.402e-4
-1.277, 4.518e-4
-1.278, 4.607e-4
-1.279, 4.723e-4
-1.280, 4.837e-4
-1.281, 4.952e-4
-1.282, 5.079e-4
-1.283, 5.201e-4
-1.284, 5.340e-4
-1.285, 5.457e-4
-1.286, 5.599e-4
-1.287, 5.717e-4
-1.288, 5.855e-4
-1.289, 6.014e-4
-1.290, 6.156e-4
-1.291, 6.302e-4
-1.292, 6.437e-4
-1.293, 6.595e-4
-1.294, 6.762e-4
-1.295, 6.932e-4
-1.296, 7.067e-4
-1.297, 7.243e-4
-1.298, 7.407e-4
-1.299, 7.605e-4
-1.300, 7.809e-4
-1.301, 7.948e-4
-1.302, 8.125e-4
-1.303, 8.362e-4
-1.304, 8.576e-4
-1.305, 8.758e-4
-1.306, 8.929e-4
-1.307, 9.124e-4
-1.308, 9.357e-4
-1.309, 9.623e-4
-1.310, 9.816e-4
-1.311, 1.003e-3
-1.312, 1.024e-3
-1.313, 1.046e-3
-1.314, 1.073e-3
-1.315, 1.097e-3
-1.316, 1.116e-3
-1.317, 1.136e-3
-1.318, 1.163e-3
-1.319, 1.190e-3
-1.320, 1.213e-3
-1.321, 1.238e-3
-1.322, 1.265e-3
-1.323, 1.296e-3
-1.324, 1.321e-3
-1.325, 1.339e-3
-1.326, 1.366e-3
-1.327, 1.406e-3
-1.328, 1.440e-3
-1.329, 1.472e-3
-1.330, 1.492e-3
-1.331, 1.520e-3
-1.332, 1.548e-3
-1.333, 1.585e-3
-1.334, 1.608e-3
-1.335, 1.640e-3
-1.336, 1.670e-3
-1.337, 1.700e-3
-1.338, 1.736e-3
-1.339, 1.768e-3
-1.340, 1.804e-3
-1.341, 1.830e-3
-1.342, 1.859e-3
-1.343, 1.907e-3
-1.344, 1.939e-3
-1.345, 1.970e-3
-1.346, 2.009e-3
-1.347, 2.037e-3
-1.348, 2.077e-3
-1.349, 2.117e-3
-1.350, 2.149e-3
-1.351, 2.172e-3
-1.352, 2.216e-3
-1.353, 2.260e-3
-1.354, 2.302e-3
-1.355, 2.345e-3
-1.356, 2.379e-3
-1.357, 2.406e-3
-1.358, 2.449e-3
-1.359, 2.490e-3
-1.360, 2.522e-3
-1.361, 2.560e-3
-1.362, 2.602e-3
-1.363, 2.647e-3
-1.364, 2.688e-3
-1.365, 2.734e-3
-1.366, 2.770e-3
-1.367, 2.811e-3
-1.368, 2.847e-3
-1.369, 2.875e-3
-1.370, 2.926e-3
-1.371, 2.975e-3
-1.372, 3.014e-3
-1.373, 3.046e-3
-1.374, 3.108e-3
-1.375, 3.157e-3
-1.376, 3.182e-3
-1.377, 3.234e-3
-1.378, 3.280e-3
-1.379, 3.327e-3
-1.380, 3.368e-3
-1.381, 3.408e-3
-1.382, 3.453e-3
-1.383, 3.488e-3
-1.384, 3.558e-3
-1.385, 3.597e-3
-1.386, 3.638e-3
-1.387, 3.688e-3
-1.388, 3.724e-3
-1.389, 3.772e-3
-1.390, 3.830e-3
-1.391, 3.895e-3
-1.392, 3.937e-3
-1.393, 3.981e-3
-1.394, 4.011e-3
-1.395, 4.046e-3
-1.396, 4.090e-3
-1.397, 4.162e-3
-1.398, 4.212e-3
-1.399, 4.260e-3
-1.400, 4.301e-3
-1.401, 4.351e-3
-1.402, 4.399e-3
-1.403, 4.432e-3
-1.404, 4.497e-3
-1.405, 4.539e-3
-1.406, 4.587e-3
-1.407, 4.633e-3
-1.408, 4.674e-3
-1.409, 4.713e-3
-1.410, 4.774e-3
-1.411, 4.828e-3
-1.412, 4.888e-3
-1.413, 4.952e-3
-1.414, 4.982e-3
-1.415, 5.021e-3
-1.416, 5.077e-3
-1.417, 5.129e-3
-1.418, 5.165e-3
-1.419, 5.195e-3
-1.420, 5.241e-3
-1.421, 5.301e-3
-1.422, 5.363e-3
-1.423, 5.404e-3
-1.424, 5.462e-3
-1.425, 5.496e-3
-1.426, 5.539e-3
-1.427, 5.583e-3
-1.428, 5.665e-3
-1.429, 5.722e-3
-1.430, 5.767e-3
-1.431, 5.810e-3
-1.432, 5.876e-3
-1.433, 5.939e-3
-1.434, 6.013e-3
-1.435, 6.053e-3
-1.436, 6.107e-3
-1.437, 6.158e-3
-1.438, 6.211e-3
-1.439, 6.242e-3
-1.440, 6.287e-3
-1.441, 6.343e-3
-1.442, 6.382e-3
-1.443, 6.456e-3
-1.444, 6.475e-3
-1.445, 6.556e-3
-1.446, 6.595e-3
-1.447, 6.614e-3
-1.448, 6.680e-3
-1.449, 6.726e-3
-1.450, 6.745e-3
-1.451, 6.815e-3
-1.452, 6.839e-3
-1.453, 6.886e-3
-1.454, 6.936e-3
-1.455, 7.026e-3
-1.456, 7.019e-3
-1.457, 7.063e-3
-1.458, 7.112e-3
-1.459, 7.158e-3
-1.460, 7.182e-3
-1.461, 7.300e-3
-1.462, 7.401e-3
-1.463, 7.425e-3
-1.464, 7.503e-3
-1.465, 7.516e-3
-1.466, 7.544e-3
-1.467, 7.568e-3
-1.468, 7.603e-3
-1.469, 7.622e-3
-1.470, 7.676e-3
-1.471, 7.691e-3
-1.472, 7.833e-3
-1.473, 7.888e-3
-1.474, 7.934e-3
-1.475, 8.035e-3
-1.476, 8.077e-3
-1.477, 8.111e-3
-1.478, 8.144e-3
-1.479, 8.139e-3
-1.480, 8.248e-3
-1.481, 8.245e-3
-1.482, 8.313e-3
-1.483, 8.398e-3
-1.484, 8.429e-3
-1.485, 8.417e-3
-1.486, 8.484e-3
-1.487, 8.474e-3
-1.488, 8.551e-3
-1.489, 8.572e-3
-1.490, 8.600e-3
-1.491, 8.630e-3
-1.492, 8.689e-3
-1.493, 8.724e-3
-1.494, 8.734e-3
-1.495, 8.807e-3
-1.496, 8.847e-3
-1.497, 8.909e-3
-1.498, 8.989e-3
-1.499, 9.220e-3
-1.500, 9.160e-3
-1.499, 9.202e-3
-1.498, 9.142e-3
-1.497, 9.029e-3
-1.496, 8.993e-3
-1.495, 8.901e-3
-1.494, 8.854e-3
-1.493, 8.734e-3
-1.492, 8.690e-3
-1.491, 8.605e-3
-1.490, 8.540e-3
-1.489, 8.465e-3
-1.488, 8.380e-3
-1.487, 8.351e-3
-1.486, 8.259e-3
-1.485, 8.198e-3
-1.484, 8.074e-3
-1.483, 7.983e-3
-1.482, 7.868e-3
-1.481, 7.830e-3
-1.480, 7.739e-3
-1.479, 7.676e-3
-1.478, 7.606e-3
-1.477, 7.662e-3
-1.476, 7.564e-3
-1.475, 7.502e-3
-1.474, 7.440e-3
-1.473, 7.431e-3
-1.472, 7.328e-3
-1.471, 7.348e-3
-1.470, 7.315e-3
-1.469, 7.223e-3
-1.468, 7.248e-3
-1.467, 7.186e-3
-1.466, 7.083e-3
-1.465, 7.035e-3
-1.464, 6.979e-3
-1.463, 6.898e-3
-1.462, 6.800e-3
-1.461, 6.735e-3
-1.460, 6.671e-3
-1.459, 6.628e-3
-1.458, 6.570e-3
-1.457, 6.464e-3
-1.456, 6.414e-3
-1.455, 6.341e-3
-1.454, 6.287e-3
-1.453, 6.235e-3
-1.452, 6.237e-3
-1.451, 6.168e-3
-1.450, 6.116e-3
-1.449, 6.047e-3
-1.448, 5.955e-3
-1.447, 5.882e-3
-1.446, 5.809e-3
-1.445, 5.737e-3
-1.444, 5.670e-3
-1.443, 5.615e-3
-1.442, 5.610e-3
-1.441, 5.539e-3
-1.440, 5.522e-3
-1.439, 5.476e-3
-1.438, 5.428e-3
-1.437, 5.360e-3
-1.436, 5.312e-3
-1.435, 5.299e-3
-1.434, 5.259e-3
-1.433, 5.230e-3
-1.432, 5.201e-3
-1.431, 5.172e-3
-1.430, 5.089e-3
-1.429, 5.065e-3
-1.428, 4.971e-3
-1.427, 4.878e-3
-1.426, 4.839e-3
-1.425, 4.776e-3
-1.424, 4.728e-3
-1.423, 4.663e-3
-1.422, 4.600e-3
-1.421, 4.537e-3
-1.420, 4.527e-3
-1.419, 4.467e-3
-1.418, 4.418e-3
-1.417, 4.378e-3
-1.416, 4.308e-3
-1.415, 4.258e-3
-1.414, 4.210e-3
-1.413, 4.170e-3
-1.412, 4.134e-3
-1.411, 4.090e-3
-1.410, 4.038e-3
-1.409, 4.012e-3
-1.408, 3.952e-3
-1.407, 3.922e-3
-1.406, 3.860e-3
-1.405, 3.807e-3
-1.404, 3.758e-3
-1.403, 3.711e-3
-1.402, 3.652e-3
-1.401, 3.596e-3
-1.400, 3.547e-3
-1.399, 3.512e-3
-1.398, 3.510e-3
-1.397, 3.442e-3
-1.396, 3.388e-3
-1.395, 3.343e-3
-1.394, 3.306e-3
-1.393, 3.253e-3
-1.392, 3.217e-3
-1.391, 3.179e-3
-1.390, 3.143e-3
-1.389, 3.098e-3
-1.388, 3.056e-3
-1.387, 3.004e-3
-1.386, 2.982e-3
-1.385, 2.932e-3
-1.384, 2.941e-3
-1.383, 2.895e-3
-1.382, 2.856e-3
-1.381, 2.843e-3
-1.380, 2.792e-3
-1.379, 2.748e-3
-1.378, 2.699e-3
-1.377, 2.668e-3
-1.376, 2.628e-3
-1.375, 2.589e-3
-1.374, 2.541e-3
-1.373, 2.526e-3
-1.372, 2.489e-3
-1.371, 2.449e-3
-1.370, 2.417e-3
-1.369, 2.381e-3
-1.368, 2.342e-3
-1.367, 2.305e-3
-1.366, 2.263e-3
-1.365, 2.242e-3
-1.364, 2.260e-3
-1.363, 2.203e-3
-1.362, 2.156e-3
-1.361, 2.109e-3
-1.360, 2.090e-3
-1.359, 2.041e-3
-1.358, 2.012e-3
-1.357, 1.983e-3
-1.356, 1.953e-3
-1.355, 1.922e-3
-1.354, 1.893e-3
-1.353, 1.868e-3
-1.352, 1.816e-3
-1.351, 1.790e-3
-1.350, 1.760e-3
-1.349, 1.733e-3
-1.348, 1.713e-3
-1.347, 1.688e-3
-1.346, 1.661e-3
-1.345, 1.619e-3
-1.344, 1.589e-3
-1.343, 1.550e-3
-1.342, 1.522e-3
-1.341, 1.497e-3
-1.340, 1.476e-3
-1.339, 1.440e-3
-1.338, 1.413e-3
-1.337, 1.391e-3
-1.336, 1.363e-3
-1.335, 1.352e-3
-1.334, 1.320e-3
-1.333, 1.286e-3
-1.332, 1.267e-3
-1.331, 1.252e-3
-1.330, 1.223e-3
-1.329, 1.193e-3
-1.328, 1.171e-3
-1.327, 1.151e-3
-1.326, 1.130e-3
-1.325, 1.116e-3
-1.324, 1.074e-3
-1.323, 1.051e-3
-1.322, 1.035e-3
-1.321, 1.006e-3
-1.320, 9.864e-4
-1.319, 9.654e-4
-1.318, 9.416e-4
-1.317, 9.204e-4
-1.316, 8.988e-4
-1.315, 8.779e-4
-1.314, 8.656e-4
-1.313, 8.436e-4
-1.312, 8.242e-4
-1.311, 8.000e-4
-1.310, 7.770e-4
-1.309, 7.586e-4
-1.308, 7.422e-4
-1.307, 7.284e-4
-1.306, 7.083e-4
-1.305, 6.872e-4
-1.304, 6.702e-4
-1.303, 6.510e-4
-1.302, 6.350e-4
-1.301, 6.184e-4
-1.300, 6.003e-4
-1.299, 5.836e-4
-1.298, 5.688e-4
-1.297, 5.524e-4
-1.296, 5.374e-4
-1.295, 5.241e-4
-1.294, 5.074e-4
-1.293, 4.945e-4
-1.292, 4.780e-4
-1.291, 4.661e-4
-1.290, 4.518e-4
-1.289, 4.378e-4
-1.288, 4.243e-4
-1.287, 4.117e-4
-1.286, 4.003e-4
-1.285, 3.880e-4
-1.284, 3.725e-4
-1.283, 3.607e-4
-1.282, 3.515e-4
-1.281, 3.386e-4
-1.280, 3.282e-4
-1.279, 3.169e-4
-1.278, 3.044e-4
-1.277, 2.940e-4
-1.276, 2.887e-4
-1.275, 2.772e-4
-1.274, 2.646e-4
-1.273, 2.529e-4
-1.272, 2.460e-4
-1.271, 2.379e-4
-1.270, 2.286e-4
-1.269, 2.186e-4
-1.268, 2.097e-4
-1.267, 2.026e-4
-1.266, 1.944e-4
-1.265, 1.874e-4
-1.264, 1.773e-4
-1.263, 1.702e-4
-1.262, 1.625e-4
-1.261, 1.565e-4
-1.260, 1.489e-4
-1.259, 1.413e-4
-1.258, 1.346e-4
-1.257, 1.287e-4
-1.256, 1.235e-4
-1.255, 1.182e-4
-1.254, 1.093e-4
-1.253, 1.026e-4
-1.252, 9.721e-5
-1.251, 9.289e-5
-1.250, 8.818e-5
-1.249, 8.107e-5
-1.248, 7.578e-5
-1.247, 7.151e-5
-1.246, 6.729e-5
-1.245, 6.300e-5
-1.244, 5.660e-5
-1.243, 5.193e-5
-1.242, 4.780e-5
-1.241, 4.472e-5
-1.240, 4.094e-5
-1.239, 3.578e-5
-1.238, 3.113e-5
-1.237, 2.826e-5
-1.236, 2.523e-5
-1.235, 2.180e-5
-1.234, 1.759e-5
-1.233, 1.303e-5
-1.232, 1.059e-5
-1.231, 8.537e-6
-1.230, 5.281e-6
-1.229, 3.500e-7
-1.228, -2.889e-6
-1.227, -4.790e-6
-1.226, -6.250e-6
-1.225, -8.981e-6
-1.224, -1.226e-5
-1.223, -1.539e-5
-1.222, -1.748e-5
-1.221, -1.869e-5
-1.220, -2.087e-5
-1.219, -2.405e-5
-1.218, -2.680e-5
-1.217, -2.844e-5
-1.216, -2.920e-5
-1.215, -3.133e-5
-1.214, -3.446e-5
-1.213, -3.660e-5
-1.212, -3.801e-5
-1.211, -3.833e-5
-1.210, -3.985e-5
-1.209, -4.279e-5
-1.208, -4.505e-5
-1.207, -4.570e-5
-1.206, -4.702e-5
-1.205, -4.811e-5
-1.204, -5.136e-5
-1.203, -5.253e-5
-1.202, -5.289e-5
-1.201, -5.382e-5
-1.200, -5.475e-5
-1.199, -5.735e-5
-1.198, -5.856e-5
-1.197, -5.862e-5
-1.196, -5.896e-5
-1.195, -5.989e-5
-1.194, -6.196e-5
-1.193, -6.373e-5
-1.192, -6.359e-5
-1.191, -6.357e-5
-1.190, -6.430e-5
-1.189, -6.597e-5
-1.188, -6.766e-5
-1.187, -6.813e-5
-1.186, -6.747e-5
-1.185, -6.790e-5
-1.184, -6.971e-5
-1.183, -7.108e-5
-1.182, -7.132e-5
-1.181, -7.055e-5
-1.180, -7.136e-5
-1.179, -7.289e-5
-1.178, -7.436e-5
-1.177, -7.478e-5
-1.176, -7.368e-5
-1.175, -7.402e-5
-1.174, -7.576e-5
-1.173, -7.658e-5
-1.172, -7.675e-5
-1.171, -7.606e-5
-1.170, -7.660e-5
-1.169, -7.822e-5
-1.168, -7.871e-5
-1.167, -7.881e-5
-1.166, -7.822e-5
-1.165, -7.871e-5
-1.164, -7.962e-5
-1.163, -8.094e-5
-1.162, -8.044e-5
-1.161, -8.001e-5
-1.160, -8.023e-5
-1.159, -8.169e-5
-1.158, -8.252e-5
-1.157, -8.196e-5
-1.156, -8.119e-5
-1.155, -8.171e-5
-1.154, -8.285e-5
-1.153, -8.419e-5
-1.152, -8.406e-5
-1.151, -8.341e-5
-1.150, -8.517e-5
-1.149, -8.504e-5
-1.148, -8.610e-5
-1.147, -8.618e-5
-1.146, -8.427e-5
-1.145, -8.355e-5
-1.144, -8.532e-5
-1.143, -8.603e-5
-1.142, -8.615e-5
-1.141, -8.482e-5
-1.140, -8.529e-5
-1.139, -8.663e-5
-1.138, -8.704e-5
-1.137, -8.726e-5
-1.136, -8.537e-5
-1.135, -8.550e-5
-1.134, -8.760e-5
-1.133, -8.834e-5
-1.132, -8.758e-5
-1.131, -8.652e-5
-1.130, -8.644e-5
-1.129, -8.878e-5
-1.128, -8.888e-5
-1.127, -8.866e-5
-1.126, -8.770e-5
-1.125, -8.720e-5
-1.124, -8.890e-5
-1.123, -9.010e-5
-1.122, -9.035e-5
-1.121, -8.868e-5
-1.120, -8.749e-5
-1.119, -8.969e-5
-1.118, -9.118e-5
-1.117, -9.063e-5
-1.116, -8.900e-5
-1.115, -8.878e-5
-1.114, -9.028e-5
-1.113, -9.150e-5
-1.112, -9.068e-5
-1.111, -8.958e-5
-1.110, -9.012e-5
-1.109, -9.111e-5
-1.108, -9.180e-5
-1.107, -9.164e-5
-1.106, -9.075e-5
-1.105, -9.114e-5
-1.104, -9.155e-5
-1.103, -9.240e-5
-1.102, -9.198e-5
-1.101, -9.090e-5
-1.100, -9.138e-5
-1.099, -9.288e-5
-1.098, -9.367e-5
-1.097, -9.316e-5
-1.096, -9.166e-5
-1.095, -9.159e-5
-1.094, -9.340e-5
-1.093, -9.498e-5
-1.092, -9.409e-5
-1.091, -9.230e-5
-1.090, -9.247e-5
-1.089, -9.444e-5
-1.088, -9.471e-5
-1.087, -9.444e-5
-1.086, -9.459e-5
-1.085, -9.350e-5
-1.084, -9.463e-5
-1.083, -9.607e-5
-1.082, -9.584e-5
-1.081, -9.468e-5
-1.080, -9.434e-5
-1.079, -9.528e-5
-1.078, -9.640e-5
-1.077, -9.614e-5
-1.076, -9.566e-5
-1.075, -9.600e-5
-1.074, -9.684e-5
-1.073, -9.821e-5
-1.072, -9.757e-5
-1.071, -9.615e-5
-1.070, -9.611e-5
-1.069, -9.824e-5
-1.068, -9.855e-5
-1.067, -9.837e-5
-1.066, -9.689e-5
-1.065, -9.749e-5
-1.064, -9.851e-5
-1.063, -9.970e-5
-1.062, -1.001e-4
-1.061, -9.825e-5
-1.060, -9.840e-5
-1.059, -1.013e-4
-1.058, -1.018e-4
-1.057, -1.007e-4
-1.056, -9.898e-5
-1.055, -1.006e-4
-1.054, -1.020e-4
-1.053, -1.032e-4
-1.052, -1.022e-4
-1.051, -1.008e-4
-1.050, -1.007e-4
-1.049, -1.025e-4
-1.048, -1.040e-4
-1.047, -1.035e-4
-1.046, -1.030e-4
-1.045, -1.034e-4
-1.044, -1.045e-4
-1.043, -1.057e-4
-1.042, -1.062e-4
-1.041, -1.048e-4
-1.040, -1.052e-4
-1.039, -1.064e-4
-1.038, -1.071e-4
-1.037, -1.066e-4
-1.036, -1.069e-4
-1.035, -1.073e-4
-1.034, -1.085e-4
-1.033, -1.098e-4
-1.032, -1.094e-4
-1.031, -1.089e-4
-1.030, -1.102e-4
-1.029, -1.136e-4
-1.028, -1.135e-4
-1.027, -1.126e-4
-1.026, -1.115e-4
-1.025, -1.124e-4
-1.024, -1.154e-4
-1.023, -1.174e-4
-1.022, -1.172e-4
-1.021, -1.143e-4
-1.020, -1.156e-4
-1.019, -1.183e-4
-1.018, -1.197e-4
-1.017, -1.199e-4
-1.016, -1.180e-4
-1.015, -1.182e-4
-1.014, -1.221e-4
-1.013, -1.222e-4
-1.012, -1.236e-4
-1.011, -1.230e-4
-1.010, -1.234e-4
-1.009, -1.259e-4
-1.008, -1.271e-4
-1.007, -1.275e-4
-1.006, -1.273e-4
-1.005, -1.288e-4
-1.004, -1.309e-4
-1.003, -1.330e-4
-1.002, -1.336e-4
-1.001, -1.334e-4
-1.000, -7.510e-5
-1.001, -9.346e-6
-1.002, 1.600e-5
-1.003, 2.970e-5
-1.004, 3.907e-5
-1.005, 4.365e-5
-1.006, 4.700e-5
-1.007, 4.910e-5
-1.008, 5.210e-5
-1.009, 5.553e-5
-1.010, 5.774e-5
-1.011, 5.832e-5
-1.012, 5.933e-5
-1.013, 6.080e-5
-1.014, 6.240e-5
-1.015, 6.405e-5
-1.016, 6.430e-5
-1.017, 6.549e-5
-1.018, 6.695e-5
-1.019, 6.868e-5
-1.020, 6.949e-5
-1.021, 6.846e-5
-1.022, 6.833e-5
-1.023, 7.020e-5
-1.024, 7.255e-5
-1.025, 7.283e-5
-1.026, 7.178e-5
-1.027, 7.133e-5
-1.028, 7.283e-5
-1.029, 7.415e-5
-1.030, 7.433e-5
-1.031, 7.359e-5
-1.032, 7.330e-5
-1.033, 7.434e-5
-1.034, 7.560e-5
-1.035, 7.551e-5
-1.036, 7.607e-5
-1.037, 7.562e-5
-1.038, 7.587e-5
-1.039, 7.553e-5
-1.040, 7.588e-5
-1.041, 7.683e-5
-1.042, 7.624e-5
-1.043, 7.577e-5
-1.044, 7.671e-5
-1.045, 7.631e-5
-1.046, 7.559e-5
-1.047, 7.564e-5
-1.048, 7.596e-5
-1.049, 7.702e-5
-1.050, 7.744e-5
-1.051, 7.747e-5
-1.052, 7.654e-5
-1.053, 7.689e-5
-1.054, 7.767e-5
-1.055, 7.799e-5
-1.056, 7.643e-5
-1.057, 7.603e-5
-1.058, 7.660e-5
-1.059, 7.802e-5
-1.060, 7.801e-5
-1.061, 7.686e-5
-1.062, 7.656e-5
-1.063, 7.756e-5
-1.064, 7.841e-5
-1.065, 7.860e-5
-1.066, 7.741e-5
-1.067, 7.668e-5
-1.068, 7.744e-5
-1.069, 7.918e-5
-1.070, 7.842e-5
-1.071, 7.718e-5
-1.072, 7.684e-5
-1.073, 7.774e-5
-1.074, 7.869e-5
-1.075, 7.880e-5
-1.076, 7.797e-5
-1.077, 7.697e-5
-1.078, 7.756e-5
-1.079, 7.883e-5
-1.080, 7.858e-5
-1.081, 7.751e-5
-1.082, 7.711e-5
-1.083, 7.769e-5
-1.084, 7.931e-5
-1.085, 7.866e-5
-1.086, 7.763e-5
-1.087, 7.733e-5
-1.088, 7.797e-5
-1.089, 7.942e-5
-1.090, 7.863e-5
-1.091, 7.747e-5
-1.092, 7.762e-5
-1.093, 7.783e-5
-1.094, 7.899e-5
-1.095, 7.919e-5
-1.096, 7.768e-5
-1.097, 7.705e-5
-1.098, 7.863e-5
-1.099, 7.939e-5
-1.100, 7.937e-5
-1.101, 7.797e-5
-1.102, 7.753e-5
-1.103, 7.833e-5
-1.104, 7.930e-5
-1.105, 7.923e-5
-1.106, 7.854e-5
-1.107, 7.774e-5
-1.108, 7.882e-5
-1.109, 7.978e-5
-1.110, 7.982e-5
-1.111, 7.809e-5
-1.112, 7.777e-5
-1.113, 7.914e-5
-1.114, 7.985e-5
-1.115, 7.903e-5
-1.116, 7.923e-5
-1.117, 7.805e-5
-1.118, 7.908e-5
-1.119, 8.011e-5
-1.120, 7.977e-5
-1.121, 7.858e-5
-1.122, 7.862e-5
-1.123, 7.926e-5
-1.124, 8.027e-5
-1.125, 8.014e-5
-1.126, 7.911e-5
-1.127, 7.989e-5
-1.128, 7.852e-5
-1.129, 8.051e-5
-1.130, 8.144e-5
-1.131, 8.110e-5
-1.132, 8.028e-5
-1.133, 8.021e-5
-1.134, 8.129e-5
-1.135, 8.103e-5
-1.136, 7.963e-5
-1.137, 7.889e-5
-1.138, 7.988e-5
-1.139, 8.132e-5
-1.140, 8.134e-5
-1.141, 8.040e-5
-1.142, 8.041e-5
-1.143, 8.120e-5
-1.144, 8.173e-5
-1.145, 8.174e-5
-1.146, 8.086e-5
-1.147, 8.129e-5
-1.148, 8.225e-5
-1.149, 8.284e-5
-1.150, 8.275e-5
-1.151, 8.258e-5
-1.152, 8.162e-5
-1.153, 8.239e-5
-1.154, 8.351e-5
-1.155, 8.379e-5
-1.156, 8.303e-5
-1.157, 8.220e-5
-1.158, 8.358e-5
-1.159, 8.547e-5
-1.160, 8.485e-5
-1.161, 8.404e-5
-1.162, 8.355e-5
-1.163, 8.448e-5
-1.164, 8.648e-5
-1.165, 8.637e-5
-1.166, 8.533e-5
-1.167, 8.551e-5
-1.168, 8.605e-5
-1.169, 8.720e-5
-1.170, 8.908e-5
-1.171, 8.793e-5
-1.172, 8.724e-5
-1.173, 8.683e-5
-1.174, 8.882e-5
-1.175, 9.000e-5
-1.176, 8.913e-5
-1.177, 8.910e-5
-1.178, 9.018e-5
-1.179, 9.158e-5
-1.180, 9.153e-5
-1.181, 9.140e-5
-1.182, 9.107e-5
-1.183, 9.230e-5
-1.184, 9.375e-5
-1.185, 9.451e-5
-1.186, 9.415e-5
-1.187, 9.369e-5
-1.188, 9.547e-5
-1.189, 9.750e-5
-1.190, 9.791e-5
-1.191, 9.743e-5
-1.192, 9.704e-5
-1.193, 9.866e-5
-1.194, 1.007e-4
-1.195, 1.012e-4
-1.196, 1.009e-4
-1.197, 1.011e-4
-1.198, 1.033e-4
-1.199, 1.057e-4
-1.200, 1.060e-4
-1.201, 1.056e-4
-1.202, 1.064e-4
-1.203, 1.078e-4
-1.204, 1.101e-4
-1.205, 1.106e-4
-1.206, 1.107e-4
-1.207, 1.121e-4
-1.208, 1.146e-4
-1.209, 1.170e-4
-1.210, 1.173e-4
-1.211, 1.157e-4
-1.212, 1.180e-4
-1.213, 1.207e-4
-1.214, 1.230e-4
-1.215, 1.242e-4
-1.216, 1.244e-4
-1.217, 1.267e-4
-1.218, 1.288e-4
-1.219, 1.309e-4
-1.220, 1.328e-4
-1.221, 1.334e-4
-1.222, 1.348e-4
-1.223, 1.375e-4
-1.224, 1.410e-4
-1.225, 1.428e-4
-1.226, 1.441e-4
-1.227, 1.451e-4
-1.228, 1.481e-4
-1.229, 1.528e-4
-1.230, 1.547e-4
-1.231, 1.562e-4
-1.232, 1.581e-4
-1.233, 1.618e-4
-1.234, 1.651e-4
-1.235, 1.675e-4
-1.236, 1.698e-4
-1.237, 1.720e-4
-1.238, 1.763e-4
-1.239, 1.818e-4
-1.240, 1.839e-4
-1.241, 1.860e-4
-1.242, 1.889e-4
-1.243, 1.941e-4
-1.244, 1.991e-4
-1.245, 2.024e-4
-1.246, 2.045e-4
-1.247, 2.077e-4
-1.248, 2.141e-4
-1.249, 2.215e-4
-1.250, 2.253e-4
-1.251, 2.276e-4
-1.252, 2.326e-4
-1.253, 2.374e-4
-1.254, 2.438e-4
-1.255, 2.471e-4
-1.256, 2.526e-4
-1.257, 2.585e-4
-1.258, 2.645e-4
-1.259, 2.717e-4
-1.260, 2.761e-4
-1.261, 2.812e-4
-1.262, 2.892e-4
-1.263, 2.962e-4
-1.264, 3.025e-4
-1.265, 3.096e-4
-1.266, 3.160e-4
-1.267, 3.223e-4
-1.268, 3.311e-4
-1.269, 3.407e-4
-1.270, 3.473e-4
-1.271, 3.547e-4
-1.272, 3.611e-4
-1.273, 3.710e-4
-1.274, 3.823e-4
-1.275, 3.898e-4
-1.276, 3.977e-4
-1.277, 4.078e-4
-1.278, 4.191e-4
-1.279, 4.289e-4
-1.280, 4.401e-4
-1.281, 4.483e-4
-1.282, 4.601e-4
-1.283, 4.724e-4
-1.284, 4.850e-4
-1.285, 4.932e-4
-1.286, 5.034e-4
-1.287, 5.144e-4
-1.288, 5.308e-4
-1.289, 5.431e-4
-1.290, 5.568e-4
-1.291, 5.688e-4
-1.292, 5.785e-4
-1.293, 5.942e-4
-1.294, 6.100e-4
-1.295, 6.263e-4
-1.296, 6.398e-4
-1.297, 6.514e-4
-1.298, 6.664e-4
-1.299, 6.850e-4
-1.300, 7.025e-4
-1.301, 7.168e-4
-1.302, 7.347e-4
-1.303, 7.502e-4
-1.304, 7.692e-4
-1.305, 7.847e-4
-1.306, 8.004e-4
-1.307, 8.176e-4
-1.308, 8.389e-4
-1.309, 8.557e-4
-1.310, 8.765e-4
-1.311, 8.943e-4
-1.312, 9.246e-4
-1.313, 9.427e-4
-1.314, 9.599e-4
-1.315, 9.885e-4
-1.316, 1.005e-3
-1.317, 1.026e-3
-1.318, 1.046e-3
-1.319, 1.063e-3
-1.320, 1.089e-3
-1.321, 1.109e-3
-1.322, 1.135e-3
-1.323, 1.161e-3
-1.324, 1.187e-3
-1.325, 1.209e-3
-1.326, 1.234e-3
-1.327, 1.252e-3
-1.328, 1.279e-3
-1.329, 1.308e-3
-1.330, 1.335e-3
-1.331, 1.365e-3
-1.332, 1.384e-3
-1.333, 1.413e-3
-1.334, 1.440e-3
-1.335, 1.472e-3
-1.336, 1.496e-3
-1.337, 1.531e-3
-1.338, 1.553e-3
-1.339, 1.580e-3
-1.340, 1.608e-3
-1.341, 1.638e-3
-1.342, 1.683e-3
-1.343, 1.699e-3
-1.344, 1.746e-3
-1.345, 1.769e-3
-1.346, 1.804e-3
-1.347, 1.833e-3
-1.348, 1.864e-3
-1.349, 1.921e-3
-1.350, 1.948e-3
-1.351, 1.956e-3
-1.352, 1.983e-3
-1.353, 2.027e-3
-1.354, 2.066e-3
-1.355, 2.096e-3
-1.356, 2.127e-3
-1.357, 2.158e-3
-1.358, 2.197e-3
-1.359, 2.232e-3
-1.360, 2.269e-3
-1.361, 2.298e-3
-1.362, 2.340e-3
-1.363, 2.364e-3
-1.364, 2.403e-3
-1.365, 2.443e-3
-1.366, 2.477e-3
-1.367, 2.512e-3
-1.368, 2.553e-3
-1.369, 2.594e-3
-1.370, 2.639e-3
-1.371, 2.670e-3
-1.372, 2.718e-3
-1.373, 2.744e-3
-1.374, 2.783e-3
-1.375, 2.832e-3
-1.376, 2.862e-3
-1.377, 2.907e-3
-1.378, 2.945e-3
-1.379, 2.989e-3
-1.380, 3.027e-3
-1.381, 3.066e-3
-1.382, 3.114e-3
-1.383, 3.145e-3
-1.384, 3.174e-3
-1.385, 3.234e-3
-1.386, 3.293e-3
-1.387, 3.321e-3
-1.388, 3.362e-3
-1.389, 3.416e-3
-1.390, 3.419e-3
-1.391, 3.509e-3
-1.392, 3.546e-3
-1.393, 3.607e-3
-1.394, 3.636e-3
-1.395, 3.669e-3
-1.396, 3.710e-3
-1.397, 3.752e-3
-1.398, 3.798e-3
-1.399, 3.841e-3
-1.400, 3.890e-3
-1.401, 3.930e-3
-1.402, 3.961e-3
-1.403, 4.127e-3
-1.404, 4.158e-3
-1.405, 4.189e-3
-1.406, 4.224e-3
-1.407, 4.276e-3
-1.408, 4.324e-3
-1.409, 4.354e-3
-1.410, 4.398e-3
-1.411, 4.423e-3
-1.412, 4.501e-3
-1.413, 4.606e-3
-1.414, 4.666e-3
-1.415, 4.658e-3
-1.416, 4.699e-3
-1.417, 4.716e-3
-1.418, 4.762e-3
-1.419, 4.802e-3
-1.420, 4.858e-3
-1.421, 4.912e-3
-1.422, 4.961e-3
-1.423, 5.015e-3
-1.424, 5.049e-3
-1.425, 5.083e-3
-1.426, 5.115e-3
-1.427, 5.146e-3
-1.428, 5.241e-3
-1.429, 5.258e-3
-1.430, 5.315e-3
-1.431, 5.345e-3
-1.432, 5.380e-3
-1.433, 5.439e-3
-1.434, 5.482e-3
-1.435, 5.515e-3
-1.436, 5.547e-3
-1.437, 5.617e-3
-1.438, 5.642e-3
-1.439, 5.700e-3
-1.440, 5.758e-3
-1.441, 5.790e-3
-1.442, 5.851e-3
-1.443, 5.898e-3
-1.444, 5.914e-3
-1.445, 5.958e-3
-1.446, 6.003e-3
-1.447, 6.050e-3
-1.448, 6.111e-3
-1.449, 6.133e-3
-1.450, 6.222e-3
-1.451, 6.393e-3
-1.452, 6.420e-3
-1.453, 6.486e-3
-1.454, 6.530e-3
-1.455, 6.551e-3
-1.456, 6.599e-3
-1.457, 6.619e-3
-1.458, 6.653e-3
-1.459, 6.600e-3
-1.460, 6.718e-3
-1.461, 6.795e-3
-1.462, 6.829e-3
-1.463, 6.817e-3
-1.464, 6.879e-3
-1.465, 6.909e-3
-1.466, 6.955e-3
-1.467, 7.006e-3
-1.468, 7.030e-3
-1.469, 7.059e-3
-1.470, 7.126e-3
-1.471, 7.195e-3
-1.472, 7.263e-3
-1.473, 7.289e-3
-1.474, 7.322e-3
-1.475, 7.398e-3
-1.476, 7.496e-3
-1.477, 7.533e-3
-1.478, 7.562e-3
-1.479, 7.541e-3
-1.480, 7.618e-3
-1.481, 7.627e-3
-1.482, 7.677e-3
-1.483, 7.790e-3
-1.484, 7.830e-3
-1.485, 7.877e-3
-1.486, 7.934e-3
-1.487, 7.945e-3
-1.488, 7.946e-3
-1.489, 7.983e-3
-1.490, 7.980e-3
-1.491, 7.993e-3
-1.492, 8.047e-3
-1.493, 8.170e-3
-1.494, 8.175e-3
-1.495, 8.202e-3
-1.496, 8.262e-3
-1.497, 8.384e-3
-1.498, 8.509e-3
-1.499, 8.553e-3
-1.500, 8.501e-3
-1.499, 8.546e-3
-1.498, 8.422e-3
-1.497, 8.382e-3
-1.496, 8.273e-3
-1.495, 8.233e-3
-1.494, 8.128e-3
-1.493, 8.027e-3
-1.492, 7.925e-3
-1.491, 7.896e-3
-1.490, 7.877e-3
-1.489, 7.801e-3
-1.488, 7.769e-3
-1.487, 7.686e-3
-1.486, 7.646e-3
-1.485, 7.579e-3
-1.484, 7.480e-3
-1.483, 7.409e-3
-1.482, 7.337e-3
-1.481, 7.254e-3
-1.480, 7.179e-3
-1.479, 7.169e-3
-1.478, 7.158e-3
-1.477, 7.061e-3
-1.476, 7.015e-3
-1.475, 6.971e-3
-1.474, 6.905e-3
-1.473, 6.867e-3
-1.472, 6.818e-3
-1.471, 6.773e-3
-1.470, 6.694e-3
-1.469, 6.637e-3
-1.468, 6.655e-3
-1.467, 6.581e-3
-1.466, 6.550e-3
-1.465, 6.457e-3
-1.464, 6.347e-3
-1.463, 6.339e-3
-1.462, 6.298e-3
-1.461, 6.250e-3
-1.460, 6.219e-3
-1.459, 6.166e-3
-1.458, 6.062e-3
-1.457, 6.066e-3
-1.456, 6.005e-3
-1.455, 5.967e-3
-1.454, 5.885e-3
-1.453, 5.817e-3
-1.452, 5.790e-3
-1.451, 5.712e-3
-1.450, 5.654e-3
-1.449, 5.603e-3
-1.448, 5.525e-3
-1.447, 5.481e-3
-1.446, 5.404e-3
-1.445, 5.356e-3
-1.444, 5.311e-3
-1.443, 5.278e-3
-1.442, 5.265e-3
-1.441, 5.194e-3
-1.440, 5.136e-3
-1.439, 5.105e-3
-1.438, 5.052e-3
-1.437, 5.028e-3
-1.436, 4.976e-3
-1.435, 4.883e-3
-1.434, 4.842e-3
-1.433, 4.795e-3
-1.432, 4.746e-3
-1.431, 4.679e-3
-1.430, 4.637e-3
-1.429, 4.595e-3
-1.428, 4.546e-3
-1.427, 4.496e-3
-1.426, 4.454e-3
-1.425, 4.400e-3
-1.424, 4.351e-3
-1.423, 4.304e-3
-1.422, 4.262e-3
-1.421, 4.200e-3
-1.420, 4.152e-3
-1.419, 4.092e-3
-1.418, 4.058e-3
-1.417, 4.024e-3
-1.416, 3.988e-3
-1.415, 3.972e-3
-1.414, 3.923e-3
-1.413, 3.884e-3
-1.412, 3.846e-3
-1.411, 3.827e-3
-1.410, 3.762e-3
-1.409, 3.751e-3
-1.408, 3.798e-3
-1.407, 3.740e-3
-1.406, 3.726e-3
-1.405, 3.681e-3
-1.404, 3.593e-3
-1.403, 3.553e-3
-1.402, 3.597e-3
-1.401, 3.488e-3
-1.400, 3.442e-3
-1.399, 3.463e-3
-1.398, 3.406e-3
-1.397, 3.369e-3
-1.396, 3.320e-3
-1.395, 3.249e-3
-1.394, 3.196e-3
-1.393, 3.158e-3
-1.392, 3.125e-3
-1.391, 3.089e-3
-1.390, 3.065e-3
-1.389, 3.013e-3
-1.388, 2.974e-3
-1.387, 2.926e-3
-1.386, 2.874e-3
-1.385, 2.834e-3
-1.384, 2.801e-3
-1.383, 2.753e-3
-1.382, 2.733e-3
-1.381, 2.703e-3
-1.380, 2.655e-3
-1.379, 2.610e-3
-1.378, 2.577e-3
-1.377, 2.538e-3
-1.376, 2.510e-3
-1.375, 2.457e-3
-1.374, 2.425e-3
-1.373, 2.396e-3
-1.372, 2.361e-3
-1.371, 2.332e-3
-1.370, 2.284e-3
-1.369, 2.244e-3
-1.368, 2.239e-3
-1.367, 2.189e-3
-1.366, 2.163e-3
-1.365, 2.118e-3
-1.364, 2.093e-3
-1.363, 2.053e-3
-1.362, 2.017e-3
-1.361, 2.003e-3
-1.360, 1.963e-3
-1.359, 1.917e-3
-1.358, 1.906e-3
-1.357, 1.882e-3
-1.356, 1.831e-3
-1.355, 1.826e-3
-1.354, 1.786e-3
-1.353, 1.733e-3
-1.352, 1.706e-3
-1.351, 1.678e-3
-1.350, 1.659e-3
-1.349, 1.638e-3
-1.348, 1.612e-3
-1.347, 1.581e-3
-1.346, 1.550e-3
-1.345, 1.520e-3
-1.344, 1.489e-3
-1.343, 1.459e-3
-1.342, 1.429e-3
-1.341, 1.412e-3
-1.340, 1.384e-3
-1.339, 1.353e-3
-1.338, 1.321e-3
-1.337, 1.302e-3
-1.336, 1.275e-3
-1.335, 1.254e-3
-1.334, 1.231e-3
-1.333, 1.207e-3
-1.332, 1.188e-3
-1.331, 1.150e-3
-1.330, 1.127e-3
-1.329, 1.104e-3
-1.328, 1.080e-3
-1.327, 1.065e-3
-1.326, 1.042e-3
-1.325, 1.017e-3
-1.324, 9.957e-4
-1.323, 9.782e-4
-1.322, 9.475e-4
-1.321, 9.392e-4
-1.320, 9.206e-4
-1.319, 8.955e-4
-1.318, 8.698e-4
-1.317, 8.462e-4
-1.316, 8.286e-4
-1.315, 8.089e-4
-1.314, 7.951e-4
-1.313, 7.753e-4
-1.312, 7.562e-4
-1.311, 7.363e-4
-1.310, 7.208e-4
-1.309, 7.021e-4
-1.308, 6.812e-4
-1.307, 6.631e-4
-1.306, 6.494e-4
-1.305, 6.325e-4
-1.304, 6.144e-4
-1.303, 6.011e-4
-1.302, 5.830e-4
-1.301, 5.688e-4
-1.300, 5.542e-4
-1.299, 5.366e-4
-1.298, 5.236e-4
-1.297, 5.123e-4
-1.296, 4.993e-4
-1.295, 4.810e-4
-1.294, 4.648e-4
-1.293, 4.505e-4
-1.292, 4.403e-4
-1.291, 4.289e-4
-1.290, 4.145e-4
-1.289, 4.041e-4
-1.288, 3.885e-4
-1.287, 3.761e-4
-1.286, 3.666e-4
-1.285, 3.559e-4
-1.284, 3.423e-4
-1.283, 3.324e-4
-1.282, 3.211e-4
-1.281, 3.103e-4
-1.280, 2.987e-4
-1.279, 2.878e-4
-1.278, 2.807e-4
-1.277, 2.690e-4
-1.276, 2.663e-4
-1.275, 2.546e-4
-1.274, 2.409e-4
-1.273, 2.308e-4
-1.272, 2.236e-4
-1.271, 2.164e-4
-1.270, 2.065e-4
-1.269, 1.991e-4
-1.268, 1.908e-4
-1.267, 1.849e-4
-1.266, 1.778e-4
-1.265, 1.691e-4
-1.264, 1.616e-4
-1.263, 1.548e-4
-1.262, 1.473e-4
-1.261, 1.426e-4
-1.260, 1.334e-4
-1.259, 1.289e-4
-1.258, 1.212e-4
-1.257, 1.172e-4
-1.256, 1.107e-4
-1.255, 1.036e-4
-1.254, 9.756e-5
-1.253, 9.264e-5
-1.252, 8.873e-5
-1.251, 8.370e-5
-1.250, 7.740e-5
-1.249, 7.159e-5
-1.248, 6.723e-5
-1.247, 6.380e-5
-1.246, 5.958e-5
-1.245, 5.467e-5
-1.244, 4.884e-5
-1.243, 4.528e-5
-1.242, 4.229e-5
-1.241, 3.850e-5
-1.240, 3.400e-5
-1.239, 2.941e-5
-1.238, 2.583e-5
-1.237, 2.394e-5
-1.236, 2.056e-5
-1.235, 1.654e-5
-1.234, 1.225e-5
-1.233, 9.441e-6
-1.232, 7.927e-6
-1.231, 4.818e-6
-1.230, 1.050e-6
-1.229, -3.279e-6
-1.228, -5.599e-6
-1.227, -6.784e-6
-1.226, -8.827e-6
-1.225, -1.246e-5
-1.224, -1.503e-5
-1.223, -1.720e-5
-1.222, -1.870e-5
-1.221, -2.042e-5
-1.220, -2.380e-5
-1.219, -2.666e-5
-1.218, -2.817e-5
-1.217, -2.763e-5
-1.216, -2.996e-5
-1.215, -3.301e-5
-1.214, -3.552e-5
-1.213, -3.636e-5
-1.212, -3.831e-5
-1.211, -3.993e-5
-1.210, -4.168e-5
-1.209, -4.373e-5
-1.208, -4.441e-5
-1.207, -4.510e-5
-1.206, -4.642e-5
-1.205, -4.846e-5
-1.204, -5.035e-5
-1.203, -5.193e-5
-1.202, -5.179e-5
-1.201, -5.253e-5
-1.200, -5.384e-5
-1.199, -5.604e-5
-1.198, -5.735e-5
-1.197, -5.692e-5
-1.196, -5.794e-5
-1.195, -5.911e-5
-1.194, -6.051e-5
-1.193, -6.123e-5
-1.192, -6.117e-5
-1.191, -6.213e-5
-1.190, -6.383e-5
-1.189, -6.545e-5
-1.188, -6.556e-5
-1.187, -6.575e-5
-1.186, -6.558e-5
-1.185, -6.719e-5
-1.184, -6.858e-5
-1.183, -6.864e-5
-1.182, -6.874e-5
-1.181, -6.936e-5
-1.180, -7.106e-5
-1.179, -7.180e-5
-1.178, -7.207e-5
-1.177, -7.169e-5
-1.176, -7.169e-5
-1.175, -7.317e-5
-1.174, -7.524e-5
-1.173, -7.482e-5
-1.172, -7.334e-5
-1.171, -7.465e-5
-1.170, -7.564e-5
-1.169, -7.640e-5
-1.168, -7.659e-5
-1.167, -7.612e-5
-1.166, -7.650e-5
-1.165, -7.801e-5
-1.164, -7.844e-5
-1.163, -7.831e-5
-1.162, -7.682e-5
-1.161, -7.794e-5
-1.160, -7.971e-5
-1.159, -8.045e-5
-1.158, -7.937e-5
-1.157, -7.891e-5
-1.156, -7.904e-5
-1.155, -8.050e-5
-1.154, -8.209e-5
-1.153, -8.130e-5
-1.152, -8.018e-5
-1.151, -7.954e-5
-1.150, -8.198e-5
-1.149, -8.434e-5
-1.148, -8.367e-5
-1.147, -8.230e-5
-1.146, -8.218e-5
-1.145, -8.347e-5
-1.144, -8.330e-5
-1.143, -8.323e-5
-1.142, -8.294e-5
-1.141, -8.319e-5
-1.140, -8.395e-5
-1.139, -8.506e-5
-1.138, -8.536e-5
-1.137, -8.424e-5
-1.136, -8.293e-5
-1.135, -8.490e-5
-1.134, -8.624e-5
-1.133, -8.470e-5
-1.132, -8.433e-5
-1.131, -8.508e-5
-1.130, -8.632e-5
-1.129, -8.636e-5
-1.128, -8.633e-5
-1.127, -8.584e-5
-1.126, -8.629e-5
-1.125, -8.600e-5
-1.124, -8.730e-5
-1.123, -8.747e-5
-1.122, -8.624e-5
-1.121, -8.556e-5
-1.120, -8.664e-5
-1.119, -8.847e-5
-1.118, -8.780e-5
-1.117, -8.759e-5
-1.116, -8.779e-5
-1.115, -8.648e-5
-1.114, -8.972e-5
-1.113, -8.877e-5
-1.112, -8.861e-5
-1.111, -8.755e-5
-1.110, -8.933e-5
-1.109, -9.006e-5
-1.108, -8.963e-5
-1.107, -8.860e-5
-1.106, -8.863e-5
-1.105, -8.993e-5
-1.104, -9.021e-5
-1.103, -9.050e-5
-1.102, -8.961e-5
-1.101, -8.934e-5
-1.100, -9.084e-5
-1.099, -9.272e-5
-1.098, -9.092e-5
-1.097, -8.988e-5
-1.096, -8.930e-5
-1.095, -9.047e-5
-1.094, -9.249e-5
-1.093, -9.189e-5
-1.092, -9.146e-5
-1.091, -9.113e-5
-1.090, -9.222e-5
-1.089, -9.372e-5
-1.088, -9.228e-5
-1.087, -9.150e-5
-1.086, -9.196e-5
-1.085, -9.238e-5
-1.084, -9.342e-5
-1.083, -9.356e-5
-1.082, -9.181e-5
-1.081, -9.246e-5
-1.080, -9.498e-5
-1.079, -9.473e-5
-1.078, -9.395e-5
-1.077, -9.272e-5
-1.076, -9.355e-5
-1.075, -9.570e-5
-1.074, -9.604e-5
-1.073, -9.560e-5
-1.072, -9.446e-5
-1.071, -9.379e-5
-1.070, -9.588e-5
-1.069, -9.630e-5
-1.068, -9.600e-5
-1.067, -9.553e-5
-1.066, -9.555e-5
-1.065, -9.663e-5
-1.064, -9.793e-5
-1.063, -9.787e-5
-1.062, -9.683e-5
-1.061, -9.638e-5
-1.060, -9.778e-5
-1.059, -9.928e-5
-1.058, -9.733e-5
-1.057, -9.754e-5
-1.056, -9.926e-5
-1.055, -1.012e-4
-1.054, -1.011e-4
-1.053, -9.959e-5
-1.052, -1.007e-4
-1.051, -9.903e-5
-1.050, -1.021e-4
-1.049, -1.021e-4
-1.048, -1.011e-4
-1.047, -1.005e-4
-1.046, -1.015e-4
-1.045, -1.035e-4
-1.044, -1.043e-4
-1.043, -1.044e-4
-1.042, -1.031e-4
-1.041, -1.032e-4
-1.040, -1.035e-4
-1.039, -1.058e-4
-1.038, -1.065e-4
-1.037, -1.055e-4
-1.036, -1.050e-4
-1.035, -1.067e-4
-1.034, -1.093e-4
-1.033, -1.101e-4
-1.032, -1.068e-4
-1.031, -1.073e-4
-1.030, -1.083e-4
-1.029, -1.092e-4
-1.028, -1.104e-4
-1.027, -1.116e-4
-1.026, -1.110e-4
-1.025, -1.130e-4
-1.024, -1.130e-4
-1.023, -1.153e-4
-1.022, -1.149e-4
-1.021, -1.151e-4
-1.020, -1.166e-4
-1.019, -1.173e-4
-1.018, -1.167e-4
-1.017, -1.167e-4
-1.016, -1.186e-4
-1.015, -1.210e-4
-1.014, -1.213e-4
-1.013, -1.205e-4
-1.012, -1.214e-4
-1.011, -1.232e-4
-1.010, -1.257e-4
-1.009, -1.276e-4
-1.008, -1.266e-4
-1.007, -1.270e-4
-1.006, -1.272e-4
-1.005, -1.284e-4
-1.004, -1.320e-4
-1.003, -1.326e-4
-1.002, -1.319e-4
-1.001, -1.337e-4
