Mar. 16, 2025   01:27:47
Chronoamperometry
File: c:/users/guazh/data/banditlqround7_x0exp891_r5/2025-03-03-exp907\1acid_2ac-2025-03-16t01_20_28-lsvinphos\ca_2025-03-16t01_24_41.bin
Data Source:  Experiment
Instrument Model:  CHI760E
Header: CA
Note: 

Init E (V) = 1
High E (V) = 1
Low E (V) = -1.5
Init P/N = N
Step = 181
Pulse Width (sec) = 1
Sample Interval (s) = 0.1
Quiet Time (sec) = 2
Sensitivity (A/V) = 0.001

Results:

Channel 1:
Forward:
Slp = 1.352e-5
Int = 2.692e-6
Cor = 0.99993

Reverse:
Slp = -1.190e-5
Int = -2.482e-6
Cor = -0.99794

Time/sec, Current/A

1.000e-1, 4.591e-5
2.000e-1, 3.321e-5
3.000e-1, 2.745e-5
4.000e-1, 2.404e-5
5.000e-1, 2.177e-5
6.000e-1, 2.010e-5
7.000e-1, 1.883e-5
8.000e-1, 1.781e-5
9.000e-1, 1.697e-5
1.000e+0, 1.628e-5
1.100e+0, -2.349e-4
1.200e+0, -2.142e-5
1.300e+0, -1.403e-5
1.400e+0, -1.106e-5
1.500e+0, -9.385e-6
1.600e+0, -8.291e-6
1.700e+0, -7.541e-6
1.800e+0, -6.962e-6
1.900e+0, -6.497e-6
2.000e+0, -6.127e-6
2.100e+0, 2.693e-4
2.200e+0, 3.403e-5
2.300e+0, 2.462e-5
2.400e+0, 2.065e-5
2.500e+0, 1.831e-5
2.600e+0, 1.680e-5
2.700e+0, 1.573e-5
2.800e+0, 1.490e-5
2.900e+0, 1.426e-5
3.000e+0, 1.373e-5
3.100e+0, -2.314e-4
3.200e+0, -2.090e-5
3.300e+0, -1.381e-5
3.400e+0, -1.096e-5
3.500e+0, -9.363e-6
3.600e+0, -8.319e-6
3.700e+0, -7.585e-6
3.800e+0, -7.032e-6
3.900e+0, -6.589e-6
4.000e+0, -6.222e-6
4.100e+0, 2.622e-4
4.200e+0, 3.134e-5
4.300e+0, 2.256e-5
4.400e+0, 1.883e-5
4.500e+0, 1.673e-5
4.600e+0, 1.535e-5
4.700e+0, 1.436e-5
4.800e+0, 1.364e-5
4.900e+0, 1.306e-5
5.000e+0, 1.259e-5
5.100e+0, -2.300e-4
5.200e+0, -2.062e-5
5.300e+0, -1.368e-5
5.400e+0, -1.088e-5
5.500e+0, -9.316e-6
5.600e+0, -8.288e-6
5.700e+0, -7.576e-6
5.800e+0, -7.034e-6
5.900e+0, -6.601e-6
6.000e+0, -6.258e-6
6.100e+0, 2.585e-4
6.200e+0, 2.989e-5
6.300e+0, 2.144e-5
6.400e+0, 1.787e-5
6.500e+0, 1.586e-5
6.600e+0, 1.454e-5
6.700e+0, 1.362e-5
6.800e+0, 1.293e-5
6.900e+0, 1.240e-5
7.000e+0, 1.196e-5
7.100e+0, -2.293e-4
7.200e+0, -2.044e-5
7.300e+0, -1.357e-5
7.400e+0, -1.082e-5
7.500e+0, -9.278e-6
7.600e+0, -8.265e-6
7.700e+0, -7.561e-6
7.800e+0, -7.034e-6
7.900e+0, -6.600e-6
8.000e+0, -6.258e-6
8.100e+0, 2.561e-4
8.200e+0, 2.896e-5
8.300e+0, 2.071e-5
8.400e+0, 1.723e-5
8.500e+0, 1.527e-5
8.600e+0, 1.400e-5
8.700e+0, 1.311e-5
8.800e+0, 1.246e-5
8.900e+0, 1.194e-5
9.000e+0, 1.153e-5
9.100e+0, -2.287e-4
9.200e+0, -2.029e-5
9.300e+0, -1.350e-5
9.400e+0, -1.076e-5
9.500e+0, -9.240e-6
9.600e+0, -8.239e-6
9.700e+0, -7.539e-6
9.800e+0, -7.016e-6
9.900e+0, -6.593e-6
1.000e+1, -6.254e-6
1.010e+1, 2.545e-4
1.020e+1, 2.828e-5
1.030e+1, 2.019e-5
1.040e+1, 1.678e-5
1.050e+1, 1.485e-5
1.060e+1, 1.361e-5
1.070e+1, 1.275e-5
1.080e+1, 1.211e-5
1.090e+1, 1.161e-5
1.100e+1, 1.121e-5
1.110e+1, -2.284e-4
1.120e+1, -2.018e-5
1.130e+1, -1.342e-5
1.140e+1, -1.071e-5
1.150e+1, -9.200e-6
1.160e+1, -8.209e-6
1.170e+1, -7.518e-6
1.180e+1, -6.994e-6
1.190e+1, -6.580e-6
1.200e+1, -6.236e-6
1.210e+1, 2.532e-4
1.220e+1, 2.776e-5
1.230e+1, 1.978e-5
1.240e+1, 1.642e-5
1.250e+1, 1.452e-5
1.260e+1, 1.331e-5
1.270e+1, 1.247e-5
1.280e+1, 1.184e-5
1.290e+1, 1.135e-5
1.300e+1, 1.097e-5
1.310e+1, -2.281e-4
1.320e+1, -2.008e-5
1.330e+1, -1.336e-5
1.340e+1, -1.066e-5
1.350e+1, -9.160e-6
1.360e+1, -8.182e-6
1.370e+1, -7.492e-6
1.380e+1, -6.976e-6
1.390e+1, -6.558e-6
1.400e+1, -6.225e-6
1.410e+1, 2.523e-4
1.420e+1, 2.734e-5
1.430e+1, 1.945e-5
1.440e+1, 1.612e-5
1.450e+1, 1.426e-5
1.460e+1, 1.306e-5
1.470e+1, 1.223e-5
1.480e+1, 1.161e-5
1.490e+1, 1.113e-5
1.500e+1, 1.077e-5
1.510e+1, -2.278e-4
1.520e+1, -1.999e-5
1.530e+1, -1.331e-5
1.540e+1, -1.062e-5
1.550e+1, -9.130e-6
1.560e+1, -8.156e-6
1.570e+1, -7.475e-6
1.580e+1, -6.957e-6
1.590e+1, -6.540e-6
1.600e+1, -6.209e-6
1.610e+1, 2.515e-4
1.620e+1, 2.699e-5
1.630e+1, 1.917e-5
1.640e+1, 1.588e-5
1.650e+1, 1.404e-5
1.660e+1, 1.286e-5
1.670e+1, 1.204e-5
1.680e+1, 1.143e-5
1.690e+1, 1.097e-5
1.700e+1, 1.060e-5
1.710e+1, -2.277e-4
1.720e+1, -1.993e-5
1.730e+1, -1.326e-5
1.740e+1, -1.058e-5
1.750e+1, -9.106e-6
1.760e+1, -8.126e-6
1.770e+1, -7.453e-6
1.780e+1, -6.932e-6
1.790e+1, -6.525e-6
1.800e+1, -6.192e-6
1.810e+1, 2.509e-4
1.820e+1, 2.669e-5
1.830e+1, 1.894e-5
1.840e+1, 1.567e-5
1.850e+1, 1.384e-5
1.860e+1, 1.268e-5
1.870e+1, 1.187e-5
1.880e+1, 1.128e-5
1.890e+1, 1.082e-5
1.900e+1, 1.044e-5
1.910e+1, -2.275e-4
1.920e+1, -1.987e-5
1.930e+1, -1.322e-5
1.940e+1, -1.055e-5
1.950e+1, -9.073e-6
1.960e+1, -8.103e-6
1.970e+1, -7.432e-6
1.980e+1, -6.919e-6
1.990e+1, -6.504e-6
2.000e+1, -6.177e-6
2.010e+1, 2.503e-4
2.020e+1, 2.645e-5
2.030e+1, 1.873e-5
2.040e+1, 1.549e-5
2.050e+1, 1.368e-5
2.060e+1, 1.253e-5
2.070e+1, 1.172e-5
2.080e+1, 1.114e-5
2.090e+1, 1.068e-5
2.100e+1, 1.031e-5
2.110e+1, -2.274e-4
2.120e+1, -1.981e-5
2.130e+1, -1.318e-5
2.140e+1, -1.052e-5
2.150e+1, -9.049e-6
2.160e+1, -8.085e-6
2.170e+1, -7.425e-6
2.180e+1, -6.907e-6
2.190e+1, -6.493e-6
2.200e+1, -6.161e-6
2.210e+1, 2.499e-4
2.220e+1, 2.621e-5
2.230e+1, 1.854e-5
2.240e+1, 1.533e-5
2.250e+1, 1.353e-5
2.260e+1, 1.239e-5
2.270e+1, 1.159e-5
2.280e+1, 1.101e-5
2.290e+1, 1.056e-5
2.300e+1, 1.019e-5
2.310e+1, -2.273e-4
2.320e+1, -1.976e-5
2.330e+1, -1.316e-5
2.340e+1, -1.051e-5
2.350e+1, -9.032e-6
2.360e+1, -8.072e-6
2.370e+1, -7.398e-6
2.380e+1, -6.889e-6
2.390e+1, -6.490e-6
2.400e+1, -6.152e-6
2.410e+1, 2.494e-4
2.420e+1, 2.601e-5
2.430e+1, 1.838e-5
2.440e+1, 1.518e-5
2.450e+1, 1.340e-5
2.460e+1, 1.227e-5
2.470e+1, 1.147e-5
2.480e+1, 1.091e-5
2.490e+1, 1.045e-5
2.500e+1, 1.009e-5
2.510e+1, -2.271e-4
2.520e+1, -1.972e-5
2.530e+1, -1.312e-5
2.540e+1, -1.048e-5
2.550e+1, -9.013e-6
2.560e+1, -8.050e-6
2.570e+1, -7.386e-6
2.580e+1, -6.875e-6
2.590e+1, -6.472e-6
2.600e+1, -6.142e-6
2.610e+1, 2.491e-4
2.620e+1, 2.583e-5
2.630e+1, 1.824e-5
2.640e+1, 1.505e-5
2.650e+1, 1.328e-5
2.660e+1, 1.216e-5
2.670e+1, 1.138e-5
2.680e+1, 1.081e-5
2.690e+1, 1.037e-5
2.700e+1, 9.988e-6
2.710e+1, -2.270e-4
2.720e+1, -1.967e-5
2.730e+1, -1.309e-5
2.740e+1, -1.045e-5
2.750e+1, -8.992e-6
2.760e+1, -8.032e-6
2.770e+1, -7.370e-6
2.780e+1, -6.857e-6
2.790e+1, -6.454e-6
2.800e+1, -6.131e-6
2.810e+1, 2.487e-4
2.820e+1, 2.567e-5
2.830e+1, 1.811e-5
2.840e+1, 1.494e-5
2.850e+1, 1.318e-5
2.860e+1, 1.206e-5
2.870e+1, 1.128e-5
2.880e+1, 1.072e-5
2.890e+1, 1.027e-5
2.900e+1, 9.907e-6
2.910e+1, -2.270e-4
2.920e+1, -1.964e-5
2.930e+1, -1.306e-5
2.940e+1, -1.043e-5
2.950e+1, -8.971e-6
2.960e+1, -8.017e-6
2.970e+1, -7.360e-6
2.980e+1, -6.849e-6
2.990e+1, -6.436e-6
3.000e+1, -6.117e-6
3.010e+1, 2.484e-4
3.020e+1, 2.552e-5
3.030e+1, 1.798e-5
3.040e+1, 1.483e-5
3.050e+1, 1.308e-5
3.060e+1, 1.197e-5
3.070e+1, 1.120e-5
3.080e+1, 1.064e-5
3.090e+1, 1.019e-5
3.100e+1, 9.829e-6
3.110e+1, -2.269e-4
3.120e+1, -1.960e-5
3.130e+1, -1.303e-5
3.140e+1, -1.041e-5
3.150e+1, -8.962e-6
3.160e+1, -8.002e-6
3.170e+1, -7.346e-6
3.180e+1, -6.833e-6
3.190e+1, -6.435e-6
3.200e+1, -6.107e-6
3.210e+1, 2.482e-4
3.220e+1, 2.539e-5
3.230e+1, 1.788e-5
3.240e+1, 1.474e-5
3.250e+1, 1.299e-5
3.260e+1, 1.188e-5
3.270e+1, 1.112e-5
3.280e+1, 1.056e-5
3.290e+1, 1.011e-5
3.300e+1, 9.758e-6
3.310e+1, -2.268e-4
3.320e+1, -1.956e-5
3.330e+1, -1.301e-5
3.340e+1, -1.040e-5
3.350e+1, -8.946e-6
3.360e+1, -7.991e-6
3.370e+1, -7.334e-6
3.380e+1, -6.824e-6
3.390e+1, -6.428e-6
3.400e+1, -6.105e-6
3.410e+1, 2.479e-4
3.420e+1, 2.527e-5
3.430e+1, 1.779e-5
3.440e+1, 1.465e-5
3.450e+1, 1.292e-5
3.460e+1, 1.180e-5
3.470e+1, 1.105e-5
3.480e+1, 1.049e-5
3.490e+1, 1.005e-5
3.500e+1, 9.697e-6
3.510e+1, -2.268e-4
3.520e+1, -1.953e-5
3.530e+1, -1.299e-5
3.540e+1, -1.038e-5
3.550e+1, -8.925e-6
3.560e+1, -7.979e-6
3.570e+1, -7.326e-6
3.580e+1, -6.828e-6
3.590e+1, -6.407e-6
3.600e+1, -6.090e-6
3.610e+1, 2.477e-4
3.620e+1, 2.517e-5
3.630e+1, 1.770e-5
3.640e+1, 1.458e-5
3.650e+1, 1.284e-5
3.660e+1, 1.174e-5
3.670e+1, 1.100e-5
3.680e+1, 1.043e-5
3.690e+1, 9.986e-6
3.700e+1, 9.637e-6
3.710e+1, -2.267e-4
3.720e+1, -1.951e-5
3.730e+1, -1.298e-5
3.740e+1, -1.037e-5
3.750e+1, -8.913e-6
3.760e+1, -7.961e-6
3.770e+1, -7.306e-6
3.780e+1, -6.805e-6
3.790e+1, -6.406e-6
3.800e+1, -6.081e-6
3.810e+1, 2.474e-4
3.820e+1, 2.507e-5
3.830e+1, 1.762e-5
3.840e+1, 1.450e-5
3.850e+1, 1.277e-5
3.860e+1, 1.168e-5
3.870e+1, 1.094e-5
3.880e+1, 1.038e-5
3.890e+1, 9.930e-6
3.900e+1, 9.584e-6
3.910e+1, -2.266e-4
3.920e+1, -1.949e-5
3.930e+1, -1.295e-5
3.940e+1, -1.035e-5
3.950e+1, -8.899e-6
3.960e+1, -7.954e-6
3.970e+1, -7.299e-6
3.980e+1, -6.789e-6
3.990e+1, -6.395e-6
4.000e+1, -6.070e-6
4.010e+1, 2.472e-4
4.020e+1, 2.497e-5
4.030e+1, 1.754e-5
4.040e+1, 1.443e-5
4.050e+1, 1.271e-5
4.060e+1, 1.162e-5
4.070e+1, 1.088e-5
4.080e+1, 1.031e-5
4.090e+1, 9.882e-6
4.100e+1, 9.527e-6
4.110e+1, -2.266e-4
4.120e+1, -1.946e-5
4.130e+1, -1.294e-5
4.140e+1, -1.034e-5
4.150e+1, -8.891e-6
4.160e+1, -7.945e-6
4.170e+1, -7.294e-6
4.180e+1, -6.783e-6
4.190e+1, -6.386e-6
4.200e+1, -6.063e-6
4.210e+1, 2.471e-4
4.220e+1, 2.488e-5
4.230e+1, 1.747e-5
4.240e+1, 1.437e-5
4.250e+1, 1.266e-5
4.260e+1, 1.156e-5
4.270e+1, 1.083e-5
4.280e+1, 1.027e-5
4.290e+1, 9.829e-6
4.300e+1, 9.483e-6
4.310e+1, -2.265e-4
4.320e+1, -1.943e-5
4.330e+1, -1.292e-5
4.340e+1, -1.031e-5
4.350e+1, -8.875e-6
4.360e+1, -7.935e-6
4.370e+1, -7.286e-6
4.380e+1, -6.778e-6
4.390e+1, -6.379e-6
4.400e+1, -6.063e-6
4.410e+1, 2.469e-4
4.420e+1, 2.481e-5
4.430e+1, 1.740e-5
4.440e+1, 1.431e-5
4.450e+1, 1.260e-5
4.460e+1, 1.151e-5
4.470e+1, 1.078e-5
4.480e+1, 1.022e-5
4.490e+1, 9.782e-6
4.500e+1, 9.432e-6
4.510e+1, -2.265e-4
4.520e+1, -1.941e-5
4.530e+1, -1.290e-5
4.540e+1, -1.031e-5
4.550e+1, -8.866e-6
4.560e+1, -7.925e-6
4.570e+1, -7.276e-6
4.580e+1, -6.764e-6
4.590e+1, -6.367e-6
4.600e+1, -6.047e-6
4.610e+1, 2.467e-4
4.620e+1, 2.473e-5
4.630e+1, 1.734e-5
4.640e+1, 1.426e-5
4.650e+1, 1.255e-5
4.660e+1, 1.147e-5
4.670e+1, 1.073e-5
4.680e+1, 1.018e-5
4.690e+1, 9.741e-6
4.700e+1, 9.391e-6
4.710e+1, -2.264e-4
4.720e+1, -1.939e-5
4.730e+1, -1.289e-5
4.740e+1, -1.030e-5
4.750e+1, -8.849e-6
4.760e+1, -7.912e-6
4.770e+1, -7.260e-6
4.780e+1, -6.761e-6
4.790e+1, -6.362e-6
4.800e+1, -6.033e-6
4.810e+1, 2.465e-4
4.820e+1, 2.465e-5
4.830e+1, 1.728e-5
4.840e+1, 1.420e-5
4.850e+1, 1.250e-5
4.860e+1, 1.142e-5
4.870e+1, 1.069e-5
4.880e+1, 1.013e-5
4.890e+1, 9.694e-6
4.900e+1, 9.348e-6
4.910e+1, -2.264e-4
4.920e+1, -1.937e-5
4.930e+1, -1.287e-5
4.940e+1, -1.028e-5
4.950e+1, -8.843e-6
4.960e+1, -7.904e-6
4.970e+1, -7.255e-6
4.980e+1, -6.744e-6
4.990e+1, -6.356e-6
5.000e+1, -6.033e-6
5.010e+1, 2.464e-4
5.020e+1, 2.459e-5
5.030e+1, 1.723e-5
5.040e+1, 1.415e-5
5.050e+1, 1.246e-5
5.060e+1, 1.138e-5
5.070e+1, 1.065e-5
5.080e+1, 1.010e-5
5.090e+1, 9.665e-6
5.100e+1, 9.316e-6
5.110e+1, -2.263e-4
5.120e+1, -1.935e-5
5.130e+1, -1.286e-5
5.140e+1, -1.027e-5
5.150e+1, -8.834e-6
5.160e+1, -7.896e-6
5.170e+1, -7.242e-6
5.180e+1, -6.737e-6
5.190e+1, -6.346e-6
5.200e+1, -6.020e-6
5.210e+1, 2.462e-4
5.220e+1, 2.452e-5
5.230e+1, 1.717e-5
5.240e+1, 1.411e-5
5.250e+1, 1.241e-5
5.260e+1, 1.134e-5
5.270e+1, 1.061e-5
5.280e+1, 1.005e-5
5.290e+1, 9.626e-6
5.300e+1, 9.279e-6
5.310e+1, -2.263e-4
5.320e+1, -1.933e-5
5.330e+1, -1.285e-5
5.340e+1, -1.026e-5
5.350e+1, -8.823e-6
5.360e+1, -7.883e-6
5.370e+1, -7.233e-6
5.380e+1, -6.729e-6
5.390e+1, -6.338e-6
5.400e+1, -6.016e-6
5.410e+1, 2.461e-4
5.420e+1, 2.445e-5
5.430e+1, 1.712e-5
5.440e+1, 1.406e-5
5.450e+1, 1.237e-5
5.460e+1, 1.131e-5
5.470e+1, 1.057e-5
5.480e+1, 1.002e-5
5.490e+1, 9.584e-6
5.500e+1, 9.245e-6
5.510e+1, -2.263e-4
5.520e+1, -1.933e-5
5.530e+1, -1.285e-5
5.540e+1, -1.026e-5
5.550e+1, -8.820e-6
5.560e+1, -7.887e-6
5.570e+1, -7.234e-6
5.580e+1, -6.734e-6
5.590e+1, -6.330e-6
5.600e+1, -6.012e-6
5.610e+1, 2.460e-4
5.620e+1, 2.440e-5
5.630e+1, 1.708e-5
5.640e+1, 1.402e-5
5.650e+1, 1.233e-5
5.660e+1, 1.127e-5
5.670e+1, 1.054e-5
5.680e+1, 9.986e-6
5.690e+1, 9.556e-6
5.700e+1, 9.213e-6
5.710e+1, -2.262e-4
5.720e+1, -1.932e-5
5.730e+1, -1.283e-5
5.740e+1, -1.024e-5
5.750e+1, -8.807e-6
5.760e+1, -7.878e-6
5.770e+1, -7.226e-6
5.780e+1, -6.729e-6
5.790e+1, -6.330e-6
5.800e+1, -6.008e-6
5.810e+1, 2.458e-4
5.820e+1, 2.434e-5
5.830e+1, 1.704e-5
5.840e+1, 1.398e-5
5.850e+1, 1.229e-5
5.860e+1, 1.123e-5
5.870e+1, 1.051e-5
5.880e+1, 9.950e-6
5.890e+1, 9.523e-6
5.900e+1, 9.175e-6
5.910e+1, -2.262e-4
5.920e+1, -1.930e-5
5.930e+1, -1.283e-5
5.940e+1, -1.024e-5
5.950e+1, -8.799e-6
5.960e+1, -7.872e-6
5.970e+1, -7.223e-6
5.980e+1, -6.722e-6
5.990e+1, -6.327e-6
6.000e+1, -6.005e-6
6.010e+1, 2.457e-4
6.020e+1, 2.429e-5
6.030e+1, 1.699e-5
6.040e+1, 1.395e-5
6.050e+1, 1.227e-5
6.060e+1, 1.121e-5
6.070e+1, 1.048e-5
6.080e+1, 9.920e-6
6.090e+1, 9.493e-6
6.100e+1, 9.150e-6
6.110e+1, -2.261e-4
6.120e+1, -1.928e-5
6.130e+1, -1.281e-5
6.140e+1, -1.022e-5
6.150e+1, -8.793e-6
6.160e+1, -7.861e-6
6.170e+1, -7.215e-6
6.180e+1, -6.708e-6
6.190e+1, -6.314e-6
6.200e+1, -5.993e-6
6.210e+1, 2.456e-4
6.220e+1, 2.425e-5
6.230e+1, 1.696e-5
6.240e+1, 1.391e-5
6.250e+1, 1.223e-5
6.260e+1, 1.117e-5
6.270e+1, 1.044e-5
6.280e+1, 9.889e-6
6.290e+1, 9.469e-6
6.300e+1, 9.130e-6
6.310e+1, -2.261e-4
6.320e+1, -1.926e-5
6.330e+1, -1.279e-5
6.340e+1, -1.021e-5
6.350e+1, -8.780e-6
6.360e+1, -7.856e-6
6.370e+1, -7.205e-6
6.380e+1, -6.702e-6
6.390e+1, -6.314e-6
6.400e+1, -5.999e-6
6.410e+1, 2.455e-4
6.420e+1, 2.420e-5
6.430e+1, 1.692e-5
6.440e+1, 1.388e-5
6.450e+1, 1.219e-5
6.460e+1, 1.114e-5
6.470e+1, 1.042e-5
6.480e+1, 9.871e-6
6.490e+1, 9.444e-6
6.500e+1, 9.099e-6
6.510e+1, -2.261e-4
6.520e+1, -1.925e-5
6.530e+1, -1.278e-5
6.540e+1, -1.020e-5
6.550e+1, -8.769e-6
6.560e+1, -7.847e-6
6.570e+1, -7.191e-6
6.580e+1, -6.697e-6
6.590e+1, -6.302e-6
6.600e+1, -5.986e-6
6.610e+1, 2.454e-4
6.620e+1, 2.415e-5
6.630e+1, 1.688e-5
6.640e+1, 1.385e-5
6.650e+1, 1.217e-5
6.660e+1, 1.111e-5
6.670e+1, 1.039e-5
6.680e+1, 9.837e-6
6.690e+1, 9.416e-6
6.700e+1, 9.073e-6
6.710e+1, -2.260e-4
6.720e+1, -1.924e-5
6.730e+1, -1.277e-5
6.740e+1, -1.020e-5
6.750e+1, -8.765e-6
6.760e+1, -7.840e-6
6.770e+1, -7.190e-6
6.780e+1, -6.696e-6
6.790e+1, -6.298e-6
6.800e+1, -5.986e-6
6.810e+1, 2.453e-4
6.820e+1, 2.411e-5
6.830e+1, 1.684e-5
6.840e+1, 1.382e-5
6.850e+1, 1.214e-5
6.860e+1, 1.109e-5
6.870e+1, 1.035e-5
6.880e+1, 9.815e-6
6.890e+1, 9.393e-6
6.900e+1, 9.058e-6
6.910e+1, -2.260e-4
6.920e+1, -1.922e-5
6.930e+1, -1.277e-5
6.940e+1, -1.019e-5
6.950e+1, -8.759e-6
6.960e+1, -7.838e-6
6.970e+1, -7.187e-6
6.980e+1, -6.683e-6
6.990e+1, -6.299e-6
7.000e+1, -5.974e-6
7.010e+1, 2.451e-4
7.020e+1, 2.406e-5
7.030e+1, 1.681e-5
7.040e+1, 1.379e-5
7.050e+1, 1.211e-5
7.060e+1, 1.106e-5
7.070e+1, 1.033e-5
7.080e+1, 9.788e-6
7.090e+1, 9.373e-6
7.100e+1, 9.019e-6
7.110e+1, -2.260e-4
7.120e+1, -1.921e-5
7.130e+1, -1.275e-5
7.140e+1, -1.018e-5
7.150e+1, -8.757e-6
7.160e+1, -7.825e-6
7.170e+1, -7.179e-6
7.180e+1, -6.683e-6
7.190e+1, -6.287e-6
7.200e+1, -5.964e-6
7.210e+1, 2.450e-4
7.220e+1, 2.403e-5
7.230e+1, 1.678e-5
7.240e+1, 1.376e-5
7.250e+1, 1.209e-5
7.260e+1, 1.104e-5
7.270e+1, 1.031e-5
7.280e+1, 9.763e-6
7.290e+1, 9.344e-6
7.300e+1, 9.004e-6
7.310e+1, -2.259e-4
7.320e+1, -1.920e-5
7.330e+1, -1.275e-5
7.340e+1, -1.018e-5
7.350e+1, -8.746e-6
7.360e+1, -7.824e-6
7.370e+1, -7.175e-6
7.380e+1, -6.671e-6
7.390e+1, -6.276e-6
7.400e+1, -5.959e-6
7.410e+1, 2.450e-4
7.420e+1, 2.398e-5
7.430e+1, 1.674e-5
7.440e+1, 1.372e-5
7.450e+1, 1.205e-5
7.460e+1, 1.101e-5
7.470e+1, 1.028e-5
7.480e+1, 9.739e-6
7.490e+1, 9.324e-6
7.500e+1, 8.979e-6
7.510e+1, -2.259e-4
7.520e+1, -1.919e-5
7.530e+1, -1.274e-5
7.540e+1, -1.017e-5
7.550e+1, -8.739e-6
7.560e+1, -7.817e-6
7.570e+1, -7.171e-6
7.580e+1, -6.665e-6
7.590e+1, -6.269e-6
7.600e+1, -5.954e-6
7.610e+1, 2.449e-4
7.620e+1, 2.395e-5
7.630e+1, 1.671e-5
7.640e+1, 1.370e-5
7.650e+1, 1.203e-5
7.660e+1, 1.099e-5
7.670e+1, 1.026e-5
7.680e+1, 9.712e-6
7.690e+1, 9.289e-6
7.700e+1, 8.957e-6
7.710e+1, -2.259e-4
7.720e+1, -1.917e-5
7.730e+1, -1.272e-5
7.740e+1, -1.016e-5
7.750e+1, -8.734e-6
7.760e+1, -7.810e-6
7.770e+1, -7.161e-6
7.780e+1, -6.656e-6
7.790e+1, -6.268e-6
7.800e+1, -5.959e-6
7.810e+1, 2.448e-4
7.820e+1, 2.391e-5
7.830e+1, 1.669e-5
7.840e+1, 1.367e-5
7.850e+1, 1.201e-5
7.860e+1, 1.096e-5
7.870e+1, 1.023e-5
7.880e+1, 9.691e-6
7.890e+1, 9.269e-6
7.900e+1, 8.931e-6
7.910e+1, -2.259e-4
7.920e+1, -1.917e-5
7.930e+1, -1.272e-5
7.940e+1, -1.015e-5
7.950e+1, -8.723e-6
7.960e+1, -7.805e-6
7.970e+1, -7.156e-6
7.980e+1, -6.658e-6
7.990e+1, -6.264e-6
8.000e+1, -5.954e-6
8.010e+1, 2.447e-4
8.020e+1, 2.387e-5
8.030e+1, 1.666e-5
8.040e+1, 1.365e-5
8.050e+1, 1.198e-5
8.060e+1, 1.094e-5
8.070e+1, 1.021e-5
8.080e+1, 9.677e-6
8.090e+1, 9.258e-6
8.100e+1, 8.918e-6
8.110e+1, -2.258e-4
8.120e+1, -1.916e-5
8.130e+1, -1.271e-5
8.140e+1, -1.015e-5
8.150e+1, -8.715e-6
8.160e+1, -7.807e-6
8.170e+1, -7.152e-6
8.180e+1, -6.651e-6
8.190e+1, -6.265e-6
8.200e+1, -5.955e-6
8.210e+1, 2.446e-4
8.220e+1, 2.384e-5
8.230e+1, 1.663e-5
8.240e+1, 1.362e-5
8.250e+1, 1.197e-5
8.260e+1, 1.093e-5
8.270e+1, 1.021e-5
8.280e+1, 9.652e-6
8.290e+1, 9.229e-6
8.300e+1, 8.899e-6
8.310e+1, -2.258e-4
8.320e+1, -1.914e-5
8.330e+1, -1.270e-5
8.340e+1, -1.014e-5
8.350e+1, -8.713e-6
8.360e+1, -7.791e-6
8.370e+1, -7.149e-6
8.380e+1, -6.647e-6
8.390e+1, -6.252e-6
8.400e+1, -5.939e-6
8.410e+1, 2.445e-4
8.420e+1, 2.380e-5
8.430e+1, 1.660e-5
8.440e+1, 1.361e-5
8.450e+1, 1.195e-5
8.460e+1, 1.090e-5
8.470e+1, 1.017e-5
8.480e+1, 9.635e-6
8.490e+1, 9.216e-6
8.500e+1, 8.880e-6
8.510e+1, -2.258e-4
8.520e+1, -1.914e-5
8.530e+1, -1.270e-5
8.540e+1, -1.013e-5
8.550e+1, -8.708e-6
8.560e+1, -7.791e-6
8.570e+1, -7.140e-6
8.580e+1, -6.643e-6
8.590e+1, -6.254e-6
8.600e+1, -5.932e-6
8.610e+1, 2.444e-4
8.620e+1, 2.377e-5
8.630e+1, 1.658e-5
8.640e+1, 1.358e-5
8.650e+1, 1.193e-5
8.660e+1, 1.089e-5
8.670e+1, 1.016e-5
8.680e+1, 9.620e-6
8.690e+1, 9.196e-6
8.700e+1, 8.869e-6
8.710e+1, -2.257e-4
8.720e+1, -1.913e-5
8.730e+1, -1.270e-5
8.740e+1, -1.013e-5
8.750e+1, -8.711e-6
8.760e+1, -7.793e-6
8.770e+1, -7.143e-6
8.780e+1, -6.649e-6
8.790e+1, -6.253e-6
8.800e+1, -5.940e-6
8.810e+1, 2.443e-4
8.820e+1, 2.375e-5
8.830e+1, 1.655e-5
8.840e+1, 1.356e-5
8.850e+1, 1.190e-5
8.860e+1, 1.087e-5
8.870e+1, 1.013e-5
8.880e+1, 9.591e-6
8.890e+1, 9.181e-6
8.900e+1, 8.858e-6
8.910e+1, -2.257e-4
8.920e+1, -1.912e-5
8.930e+1, -1.268e-5
8.940e+1, -1.012e-5
8.950e+1, -8.703e-6
8.960e+1, -7.788e-6
8.970e+1, -7.143e-6
8.980e+1, -6.641e-6
8.990e+1, -6.250e-6
9.000e+1, -5.932e-6
9.010e+1, 2.443e-4
9.020e+1, 2.373e-5
9.030e+1, 1.654e-5
9.040e+1, 1.354e-5
9.050e+1, 1.189e-5
9.060e+1, 1.085e-5
9.070e+1, 1.013e-5
9.080e+1, 9.592e-6
9.090e+1, 9.172e-6
9.100e+1, 8.841e-6
9.110e+1, -2.257e-4
9.120e+1, -1.911e-5
9.130e+1, -1.268e-5
9.140e+1, -1.012e-5
9.150e+1, -8.688e-6
9.160e+1, -7.778e-6
9.170e+1, -7.139e-6
9.180e+1, -6.633e-6
9.190e+1, -6.248e-6
9.200e+1, -5.927e-6
9.210e+1, 2.442e-4
9.220e+1, 2.369e-5
9.230e+1, 1.651e-5
9.240e+1, 1.352e-5
9.250e+1, 1.187e-5
9.260e+1, 1.084e-5
9.270e+1, 1.011e-5
9.280e+1, 9.571e-6
9.290e+1, 9.152e-6
9.300e+1, 8.822e-6
9.310e+1, -2.257e-4
9.320e+1, -1.910e-5
9.330e+1, -1.267e-5
9.340e+1, -1.011e-5
9.350e+1, -8.689e-6
9.360e+1, -7.769e-6
9.370e+1, -7.127e-6
9.380e+1, -6.632e-6
9.390e+1, -6.232e-6
9.400e+1, -5.922e-6
9.410e+1, 2.441e-4
9.420e+1, 2.366e-5
9.430e+1, 1.649e-5
9.440e+1, 1.350e-5
9.450e+1, 1.185e-5
9.460e+1, 1.082e-5
9.470e+1, 1.009e-5
9.480e+1, 9.548e-6
9.490e+1, 9.135e-6
9.500e+1, 8.807e-6
9.510e+1, -2.256e-4
9.520e+1, -1.909e-5
9.530e+1, -1.266e-5
9.540e+1, -1.010e-5
9.550e+1, -8.675e-6
9.560e+1, -7.767e-6
9.570e+1, -7.118e-6
9.580e+1, -6.629e-6
9.590e+1, -6.235e-6
9.600e+1, -5.919e-6
9.610e+1, 2.441e-4
9.620e+1, 2.364e-5
9.630e+1, 1.648e-5
9.640e+1, 1.348e-5
9.650e+1, 1.184e-5
9.660e+1, 1.080e-5
9.670e+1, 1.007e-5
9.680e+1, 9.534e-6
9.690e+1, 9.116e-6
9.700e+1, 8.790e-6
9.710e+1, -2.256e-4
9.720e+1, -1.908e-5
9.730e+1, -1.265e-5
9.740e+1, -1.010e-5
9.750e+1, -8.679e-6
9.760e+1, -7.755e-6
9.770e+1, -7.113e-6
9.780e+1, -6.627e-6
9.790e+1, -6.235e-6
9.800e+1, -5.921e-6
9.810e+1, 2.440e-4
9.820e+1, 2.361e-5
9.830e+1, 1.645e-5
9.840e+1, 1.347e-5
9.850e+1, 1.182e-5
9.860e+1, 1.079e-5
9.870e+1, 1.006e-5
9.880e+1, 9.523e-6
9.890e+1, 9.111e-6
9.900e+1, 8.775e-6
9.910e+1, -2.256e-4
9.920e+1, -1.908e-5
9.930e+1, -1.265e-5
9.940e+1, -1.009e-5
9.950e+1, -8.661e-6
9.960e+1, -7.758e-6
9.970e+1, -7.116e-6
9.980e+1, -6.618e-6
9.990e+1, -6.232e-6
1.000e+2, -5.917e-6
1.001e+2, 2.439e-4
1.002e+2, 2.357e-5
1.003e+2, 1.642e-5
1.004e+2, 1.344e-5
1.005e+2, 1.179e-5
1.006e+2, 1.077e-5
1.007e+2, 1.004e-5
1.008e+2, 9.499e-6
1.009e+2, 9.088e-6
1.010e+2, 8.759e-6
1.011e+2, -2.256e-4
1.012e+2, -1.906e-5
1.013e+2, -1.264e-5
1.014e+2, -1.009e-5
1.015e+2, -8.671e-6
1.016e+2, -7.749e-6
1.017e+2, -7.113e-6
1.018e+2, -6.612e-6
1.019e+2, -6.221e-6
1.020e+2, -5.913e-6
1.021e+2, 2.438e-4
1.022e+2, 2.354e-5
1.023e+2, 1.640e-5
1.024e+2, 1.343e-5
1.025e+2, 1.178e-5
1.026e+2, 1.075e-5
1.027e+2, 1.001e-5
1.028e+2, 9.486e-6
1.029e+2, 9.073e-6
1.030e+2, 8.745e-6
1.031e+2, -2.255e-4
1.032e+2, -1.906e-5
1.033e+2, -1.264e-5
1.034e+2, -1.008e-5
1.035e+2, -8.663e-6
1.036e+2, -7.744e-6
1.037e+2, -7.108e-6
1.038e+2, -6.613e-6
1.039e+2, -6.225e-6
1.040e+2, -5.905e-6
1.041e+2, 2.438e-4
1.042e+2, 2.354e-5
1.043e+2, 1.639e-5
1.044e+2, 1.341e-5
1.045e+2, 1.177e-5
1.046e+2, 1.074e-5
1.047e+2, 1.001e-5
1.048e+2, 9.473e-6
1.049e+2, 9.054e-6
1.050e+2, 8.732e-6
1.051e+2, -2.255e-4
1.052e+2, -1.905e-5
1.053e+2, -1.263e-5
1.054e+2, -1.007e-5
1.055e+2, -8.656e-6
1.056e+2, -7.744e-6
1.057e+2, -7.102e-6
1.058e+2, -6.608e-6
1.059e+2, -6.218e-6
1.060e+2, -5.905e-6
1.061e+2, 2.437e-4
1.062e+2, 2.352e-5
1.063e+2, 1.637e-5
1.064e+2, 1.340e-5
1.065e+2, 1.176e-5
1.066e+2, 1.072e-5
1.067e+2, 1.001e-5
1.068e+2, 9.475e-6
1.069e+2, 9.051e-6
1.070e+2, 8.729e-6
1.071e+2, -2.255e-4
1.072e+2, -1.904e-5
1.073e+2, -1.264e-5
1.074e+2, -1.008e-5
1.075e+2, -8.654e-6
1.076e+2, -7.744e-6
1.077e+2, -7.102e-6
1.078e+2, -6.601e-6
1.079e+2, -6.211e-6
1.080e+2, -5.899e-6
1.081e+2, 2.437e-4
1.082e+2, 2.348e-5
1.083e+2, 1.635e-5
1.084e+2, 1.338e-5
1.085e+2, 1.174e-5
1.086e+2, 1.070e-5
1.087e+2, 9.974e-6
1.088e+2, 9.432e-6
1.089e+2, 9.025e-6
1.090e+2, 8.703e-6
1.091e+2, -2.255e-4
1.092e+2, -1.903e-5
1.093e+2, -1.262e-5
1.094e+2, -1.006e-5
1.095e+2, -8.647e-6
1.096e+2, -7.737e-6
1.097e+2, -7.092e-6
1.098e+2, -6.598e-6
1.099e+2, -6.207e-6
1.100e+2, -5.897e-6
1.101e+2, 2.436e-4
1.102e+2, 2.346e-5
1.103e+2, 1.632e-5
1.104e+2, 1.336e-5
1.105e+2, 1.171e-5
1.106e+2, 1.069e-5
1.107e+2, 9.959e-6
1.108e+2, 9.427e-6
1.109e+2, 9.011e-6
1.110e+2, 8.692e-6
1.111e+2, -2.254e-4
1.112e+2, -1.903e-5
1.113e+2, -1.261e-5
1.114e+2, -1.006e-5
1.115e+2, -8.647e-6
1.116e+2, -7.730e-6
1.117e+2, -7.088e-6
1.118e+2, -6.593e-6
1.119e+2, -6.208e-6
1.120e+2, -5.898e-6
1.121e+2, 2.435e-4
1.122e+2, 2.344e-5
1.123e+2, 1.632e-5
1.124e+2, 1.334e-5
1.125e+2, 1.171e-5
1.126e+2, 1.067e-5
1.127e+2, 9.947e-6
1.128e+2, 9.413e-6
1.129e+2, 9.004e-6
1.130e+2, 8.676e-6
1.131e+2, -2.254e-4
1.132e+2, -1.902e-5
1.133e+2, -1.261e-5
1.134e+2, -1.006e-5
1.135e+2, -8.642e-6
1.136e+2, -7.723e-6
1.137e+2, -7.085e-6
1.138e+2, -6.590e-6
1.139e+2, -6.199e-6
1.140e+2, -5.889e-6
1.141e+2, 2.435e-4
1.142e+2, 2.342e-5
1.143e+2, 1.630e-5
1.144e+2, 1.334e-5
1.145e+2, 1.170e-5
1.146e+2, 1.066e-5
1.147e+2, 9.936e-6
1.148e+2, 9.396e-6
1.149e+2, 8.989e-6
1.150e+2, 8.671e-6
1.151e+2, -2.254e-4
1.152e+2, -1.901e-5
1.153e+2, -1.260e-5
1.154e+2, -1.005e-5
1.155e+2, -8.624e-6
1.156e+2, -7.719e-6
1.157e+2, -7.075e-6
1.158e+2, -6.585e-6
1.159e+2, -6.198e-6
1.160e+2, -5.890e-6
1.161e+2, 2.434e-4
1.162e+2, 2.339e-5
1.163e+2, 1.628e-5
1.164e+2, 1.332e-5
1.165e+2, 1.167e-5
1.166e+2, 1.065e-5
1.167e+2, 9.925e-6
1.168e+2, 9.392e-6
1.169e+2, 8.981e-6
1.170e+2, 8.656e-6
1.171e+2, -2.254e-4
1.172e+2, -1.900e-5
1.173e+2, -1.260e-5
1.174e+2, -1.004e-5
1.175e+2, -8.629e-6
1.176e+2, -7.715e-6
1.177e+2, -7.074e-6
1.178e+2, -6.577e-6
1.179e+2, -6.196e-6
1.180e+2, -5.878e-6
1.181e+2, 2.433e-4
1.182e+2, 2.338e-5
1.183e+2, 1.626e-5
1.184e+2, 1.330e-5
1.185e+2, 1.166e-5
1.186e+2, 1.064e-5
1.187e+2, 9.907e-6
1.188e+2, 9.382e-6
1.189e+2, 8.970e-6
1.190e+2, 8.640e-6
1.191e+2, -2.254e-4
1.192e+2, -1.900e-5
1.193e+2, -1.260e-5
1.194e+2, -1.004e-5
1.195e+2, -8.622e-6
1.196e+2, -7.715e-6
1.197e+2, -7.082e-6
1.198e+2, -6.585e-6
1.199e+2, -6.196e-6
1.200e+2, -5.882e-6
1.201e+2, 2.433e-4
1.202e+2, 2.336e-5
1.203e+2, 1.625e-5
1.204e+2, 1.329e-5
1.205e+2, 1.165e-5
1.206e+2, 1.063e-5
1.207e+2, 9.902e-6
1.208e+2, 9.370e-6
1.209e+2, 8.958e-6
1.210e+2, 8.637e-6
1.211e+2, -2.253e-4
1.212e+2, -1.899e-5
1.213e+2, -1.259e-5
1.214e+2, -1.004e-5
1.215e+2, -8.625e-6
1.216e+2, -7.717e-6
1.217e+2, -7.076e-6
1.218e+2, -6.583e-6
1.219e+2, -6.191e-6
1.220e+2, -5.883e-6
1.221e+2, 2.432e-4
1.222e+2, 2.334e-5
1.223e+2, 1.624e-5
1.224e+2, 1.328e-5
1.225e+2, 1.165e-5
1.226e+2, 1.062e-5
1.227e+2, 9.891e-6
1.228e+2, 9.359e-6
1.229e+2, 8.951e-6
1.230e+2, 8.622e-6
1.231e+2, -2.253e-4
1.232e+2, -1.899e-5
1.233e+2, -1.258e-5
1.234e+2, -1.002e-5
1.235e+2, -8.617e-6
1.236e+2, -7.710e-6
1.237e+2, -7.067e-6
1.238e+2, -6.574e-6
1.239e+2, -6.174e-6
1.240e+2, -5.870e-6
1.241e+2, 2.432e-4
1.242e+2, 2.332e-5
1.243e+2, 1.622e-5
1.244e+2, 1.327e-5
1.245e+2, 1.163e-5
1.246e+2, 1.061e-5
1.247e+2, 9.880e-6
1.248e+2, 9.350e-6
1.249e+2, 8.942e-6
1.250e+2, 8.616e-6
1.251e+2, -2.253e-4
1.252e+2, -1.897e-5
1.253e+2, -1.257e-5
1.254e+2, -1.002e-5
1.255e+2, -8.610e-6
1.256e+2, -7.704e-6
1.257e+2, -7.060e-6
1.258e+2, -6.570e-6
1.259e+2, -6.182e-6
1.260e+2, -5.873e-6
1.261e+2, 2.431e-4
1.262e+2, 2.331e-5
1.263e+2, 1.621e-5
1.264e+2, 1.326e-5
1.265e+2, 1.163e-5
1.266e+2, 1.060e-5
1.267e+2, 9.875e-6
1.268e+2, 9.338e-6
1.269e+2, 8.929e-6
1.270e+2, 8.607e-6
1.271e+2, -2.253e-4
1.272e+2, -1.897e-5
1.273e+2, -1.258e-5
1.274e+2, -1.002e-5
1.275e+2, -8.614e-6
1.276e+2, -7.702e-6
1.277e+2, -7.058e-6
1.278e+2, -6.568e-6
1.279e+2, -6.189e-6
1.280e+2, -5.872e-6
1.281e+2, 2.431e-4
1.282e+2, 2.329e-5
1.283e+2, 1.620e-5
1.284e+2, 1.325e-5
1.285e+2, 1.161e-5
1.286e+2, 1.059e-5
1.287e+2, 9.863e-6
1.288e+2, 9.332e-6
1.289e+2, 8.916e-6
1.290e+2, 8.594e-6
1.291e+2, -2.253e-4
1.292e+2, -1.897e-5
1.293e+2, -1.256e-5
1.294e+2, -1.002e-5
1.295e+2, -8.606e-6
1.296e+2, -7.700e-6
1.297e+2, -7.052e-6
1.298e+2, -6.561e-6
1.299e+2, -6.176e-6
1.300e+2, -5.864e-6
1.301e+2, 2.430e-4
1.302e+2, 2.327e-5
1.303e+2, 1.618e-5
1.304e+2, 1.323e-5
1.305e+2, 1.160e-5
1.306e+2, 1.057e-5
1.307e+2, 9.848e-6
1.308e+2, 9.320e-6
1.309e+2, 8.909e-6
1.310e+2, 8.586e-6
1.311e+2, -2.252e-4
1.312e+2, -1.896e-5
1.313e+2, -1.255e-5
1.314e+2, -1.001e-5
1.315e+2, -8.600e-6
1.316e+2, -7.692e-6
1.317e+2, -7.059e-6
1.318e+2, -6.562e-6
1.319e+2, -6.174e-6
1.320e+2, -5.861e-6
1.321e+2, 2.430e-4
1.322e+2, 2.326e-5
1.323e+2, 1.617e-5
1.324e+2, 1.322e-5
1.325e+2, 1.159e-5
1.326e+2, 1.057e-5
1.327e+2, 9.845e-6
1.328e+2, 9.306e-6
1.329e+2, 8.902e-6
1.330e+2, 8.582e-6
1.331e+2, -2.252e-4
1.332e+2, -1.895e-5
1.333e+2, -1.255e-5
1.334e+2, -1.000e-5
1.335e+2, -8.596e-6
1.336e+2, -7.692e-6
1.337e+2, -7.051e-6
1.338e+2, -6.561e-6
1.339e+2, -6.170e-6
1.340e+2, -5.863e-6
1.341e+2, 2.429e-4
1.342e+2, 2.324e-5
1.343e+2, 1.615e-5
1.344e+2, 1.321e-5
1.345e+2, 1.158e-5
1.346e+2, 1.055e-5
1.347e+2, 9.827e-6
1.348e+2, 9.290e-6
1.349e+2, 8.892e-6
1.350e+2, 8.568e-6
1.351e+2, -2.252e-4
1.352e+2, -1.895e-5
1.353e+2, -1.255e-5
1.354e+2, -1.000e-5
1.355e+2, -8.587e-6
1.356e+2, -7.686e-6
1.357e+2, -7.050e-6
1.358e+2, -6.558e-6
1.359e+2, -6.176e-6
1.360e+2, -5.854e-6
1.361e+2, 2.429e-4
1.362e+2, 2.322e-5
1.363e+2, 1.614e-5
1.364e+2, 1.320e-5
1.365e+2, 1.156e-5
1.366e+2, 1.055e-5
1.367e+2, 9.818e-6
1.368e+2, 9.283e-6
1.369e+2, 8.873e-6
1.370e+2, 8.558e-6
1.371e+2, -2.252e-4
1.372e+2, -1.894e-5
1.373e+2, -1.254e-5
1.374e+2, -1.000e-5
1.375e+2, -8.591e-6
1.376e+2, -7.685e-6
1.377e+2, -7.048e-6
1.378e+2, -6.551e-6
1.379e+2, -6.168e-6
1.380e+2, -5.867e-6
1.381e+2, 2.428e-4
1.382e+2, 2.321e-5
1.383e+2, 1.613e-5
1.384e+2, 1.318e-5
1.385e+2, 1.156e-5
1.386e+2, 1.053e-5
1.387e+2, 9.812e-6
1.388e+2, 9.282e-6
1.389e+2, 8.867e-6
1.390e+2, 8.547e-6
1.391e+2, -2.252e-4
1.392e+2, -1.893e-5
1.393e+2, -1.255e-5
1.394e+2, -9.998e-6
1.395e+2, -8.585e-6
1.396e+2, -7.679e-6
1.397e+2, -7.041e-6
1.398e+2, -6.554e-6
1.399e+2, -6.167e-6
1.400e+2, -5.849e-6
1.401e+2, 2.428e-4
1.402e+2, 2.319e-5
1.403e+2, 1.611e-5
1.404e+2, 1.317e-5
1.405e+2, 1.155e-5
1.406e+2, 1.052e-5
1.407e+2, 9.796e-6
1.408e+2, 9.267e-6
1.409e+2, 8.863e-6
1.410e+2, 8.531e-6
1.411e+2, -2.251e-4
1.412e+2, -1.893e-5
1.413e+2, -1.254e-5
1.414e+2, -9.993e-6
1.415e+2, -8.578e-6
1.416e+2, -7.673e-6
1.417e+2, -7.035e-6
1.418e+2, -6.543e-6
1.419e+2, -6.162e-6
1.420e+2, -5.850e-6
1.421e+2, 2.427e-4
1.422e+2, 2.316e-5
1.423e+2, 1.610e-5
1.424e+2, 1.316e-5
1.425e+2, 1.153e-5
1.426e+2, 1.051e-5
1.427e+2, 9.779e-6
1.428e+2, 9.256e-6
1.429e+2, 8.847e-6
1.430e+2, 8.526e-6
1.431e+2, -2.251e-4
1.432e+2, -1.893e-5
1.433e+2, -1.253e-5
1.434e+2, -9.983e-6
1.435e+2, -8.582e-6
1.436e+2, -7.674e-6
1.437e+2, -7.043e-6
1.438e+2, -6.547e-6
1.439e+2, -6.166e-6
1.440e+2, -5.852e-6
1.441e+2, 2.427e-4
1.442e+2, 2.315e-5
1.443e+2, 1.610e-5
1.444e+2, 1.315e-5
1.445e+2, 1.152e-5
1.446e+2, 1.050e-5
1.447e+2, 9.784e-6
1.448e+2, 9.250e-6
1.449e+2, 8.840e-6
1.450e+2, 8.517e-6
1.451e+2, -2.251e-4
1.452e+2, -1.892e-5
1.453e+2, -1.253e-5
1.454e+2, -9.987e-6
1.455e+2, -8.578e-6
1.456e+2, -7.669e-6
1.457e+2, -7.039e-6
1.458e+2, -6.541e-6
1.459e+2, -6.159e-6
1.460e+2, -5.848e-6
1.461e+2, 2.427e-4
1.462e+2, 2.313e-5
1.463e+2, 1.608e-5
1.464e+2, 1.314e-5
1.465e+2, 1.152e-5
1.466e+2, 1.050e-5
1.467e+2, 9.775e-6
1.468e+2, 9.239e-6
1.469e+2, 8.836e-6
1.470e+2, 8.504e-6
1.471e+2, -2.251e-4
1.472e+2, -1.891e-5
1.473e+2, -1.253e-5
1.474e+2, -9.975e-6
1.475e+2, -8.573e-6
1.476e+2, -7.666e-6
1.477e+2, -7.030e-6
1.478e+2, -6.539e-6
1.479e+2, -6.157e-6
1.480e+2, -5.841e-6
1.481e+2, 2.426e-4
1.482e+2, 2.312e-5
1.483e+2, 1.607e-5
1.484e+2, 1.313e-5
1.485e+2, 1.151e-5
1.486e+2, 1.049e-5
1.487e+2, 9.756e-6
1.488e+2, 9.230e-6
1.489e+2, 8.821e-6
1.490e+2, 8.502e-6
1.491e+2, -2.251e-4
1.492e+2, -1.891e-5
1.493e+2, -1.252e-5
1.494e+2, -9.972e-6
1.495e+2, -8.567e-6
1.496e+2, -7.658e-6
1.497e+2, -7.024e-6
1.498e+2, -6.537e-6
1.499e+2, -6.155e-6
1.500e+2, -5.840e-6
1.501e+2, 2.426e-4
1.502e+2, 2.311e-5
1.503e+2, 1.606e-5
1.504e+2, 1.312e-5
1.505e+2, 1.149e-5
1.506e+2, 1.047e-5
1.507e+2, 9.753e-6
1.508e+2, 9.222e-6
1.509e+2, 8.814e-6
1.510e+2, 8.490e-6
1.511e+2, -2.250e-4
1.512e+2, -1.890e-5
1.513e+2, -1.251e-5
1.514e+2, -9.974e-6
1.515e+2, -8.567e-6
1.516e+2, -7.658e-6
1.517e+2, -7.028e-6
1.518e+2, -6.535e-6
1.519e+2, -6.149e-6
1.520e+2, -5.842e-6
1.521e+2, 2.425e-4
1.522e+2, 2.309e-5
1.523e+2, 1.605e-5
1.524e+2, 1.311e-5
1.525e+2, 1.148e-5
1.526e+2, 1.046e-5
1.527e+2, 9.743e-6
1.528e+2, 9.217e-6
1.529e+2, 8.813e-6
1.530e+2, 8.491e-6
1.531e+2, -2.250e-4
1.532e+2, -1.890e-5
1.533e+2, -1.251e-5
1.534e+2, -9.968e-6
1.535e+2, -8.560e-6
1.536e+2, -7.662e-6
1.537e+2, -7.024e-6
1.538e+2, -6.530e-6
1.539e+2, -6.150e-6
1.540e+2, -5.837e-6
1.541e+2, 2.425e-4
1.542e+2, 2.308e-5
1.543e+2, 1.603e-5
1.544e+2, 1.310e-5
1.545e+2, 1.148e-5
1.546e+2, 1.046e-5
1.547e+2, 9.731e-6
1.548e+2, 9.198e-6
1.549e+2, 8.800e-6
1.550e+2, 8.475e-6
1.551e+2, -2.250e-4
1.552e+2, -1.890e-5
1.553e+2, -1.251e-5
1.554e+2, -9.963e-6
1.555e+2, -8.559e-6
1.556e+2, -7.651e-6
1.557e+2, -7.015e-6
1.558e+2, -6.523e-6
1.559e+2, -6.144e-6
1.560e+2, -5.833e-6
1.561e+2, 2.424e-4
1.562e+2, 2.307e-5
1.563e+2, 1.603e-5
1.564e+2, 1.309e-5
1.565e+2, 1.147e-5
1.566e+2, 1.045e-5
1.567e+2, 9.727e-6
1.568e+2, 9.194e-6
1.569e+2, 8.790e-6
1.570e+2, 8.467e-6
1.571e+2, -2.250e-4
1.572e+2, -1.889e-5
1.573e+2, -1.251e-5
1.574e+2, -9.956e-6
1.575e+2, -8.547e-6
1.576e+2, -7.649e-6
1.577e+2, -7.016e-6
1.578e+2, -6.525e-6
1.579e+2, -6.145e-6
1.580e+2, -5.831e-6
1.581e+2, 2.424e-4
1.582e+2, 2.305e-5
1.583e+2, 1.601e-5
1.584e+2, 1.308e-5
1.585e+2, 1.146e-5
1.586e+2, 1.045e-5
1.587e+2, 9.721e-6
1.588e+2, 9.187e-6
1.589e+2, 8.788e-6
1.590e+2, 8.463e-6
1.591e+2, -2.250e-4
1.592e+2, -1.889e-5
1.593e+2, -1.249e-5
1.594e+2, -9.956e-6
1.595e+2, -8.555e-6
1.596e+2, -7.652e-6
1.597e+2, -7.016e-6
1.598e+2, -6.522e-6
1.599e+2, -6.145e-6
1.600e+2, -5.833e-6
1.601e+2, 2.424e-4
1.602e+2, 2.304e-5
1.603e+2, 1.601e-5
1.604e+2, 1.308e-5
1.605e+2, 1.146e-5
1.606e+2, 1.044e-5
1.607e+2, 9.708e-6
1.608e+2, 9.180e-6
1.609e+2, 8.781e-6
1.610e+2, 8.459e-6
1.611e+2, -2.250e-4
1.612e+2, -1.888e-5
1.613e+2, -1.250e-5
1.614e+2, -9.956e-6
1.615e+2, -8.546e-6
1.616e+2, -7.642e-6
1.617e+2, -7.005e-6
1.618e+2, -6.526e-6
1.619e+2, -6.142e-6
1.620e+2, -5.829e-6
1.621e+2, 2.423e-4
1.622e+2, 2.303e-5
1.623e+2, 1.600e-5
1.624e+2, 1.307e-5
1.625e+2, 1.145e-5
1.626e+2, 1.043e-5
1.627e+2, 9.700e-6
1.628e+2, 9.176e-6
1.629e+2, 8.772e-6
1.630e+2, 8.449e-6
1.631e+2, -2.250e-4
1.632e+2, -1.888e-5
1.633e+2, -1.250e-5
1.634e+2, -9.954e-6
1.635e+2, -8.559e-6
1.636e+2, -7.648e-6
1.637e+2, -7.007e-6
1.638e+2, -6.517e-6
1.639e+2, -6.138e-6
1.640e+2, -5.830e-6
1.641e+2, 2.423e-4
1.642e+2, 2.301e-5
1.643e+2, 1.599e-5
1.644e+2, 1.306e-5
1.645e+2, 1.144e-5
1.646e+2, 1.042e-5
1.647e+2, 9.698e-6
1.648e+2, 9.168e-6
1.649e+2, 8.765e-6
1.650e+2, 8.446e-6
1.651e+2, -2.249e-4
1.652e+2, -1.886e-5
1.653e+2, -1.248e-5
1.654e+2, -9.945e-6
1.655e+2, -8.543e-6
1.656e+2, -7.642e-6
1.657e+2, -7.000e-6
1.658e+2, -6.510e-6
1.659e+2, -6.131e-6
1.660e+2, -5.821e-6
1.661e+2, 2.422e-4
1.662e+2, 2.301e-5
1.663e+2, 1.598e-5
1.664e+2, 1.305e-5
1.665e+2, 1.143e-5
1.666e+2, 1.041e-5
1.667e+2, 9.690e-6
1.668e+2, 9.154e-6
1.669e+2, 8.753e-6
1.670e+2, 8.431e-6
1.671e+2, -2.249e-4
1.672e+2, -1.886e-5
1.673e+2, -1.249e-5
1.674e+2, -9.944e-6
1.675e+2, -8.532e-6
1.676e+2, -7.642e-6
1.677e+2, -7.003e-6
1.678e+2, -6.515e-6
1.679e+2, -6.132e-6
1.680e+2, -5.821e-6
1.681e+2, 2.422e-4
1.682e+2, 2.299e-5
1.683e+2, 1.597e-5
1.684e+2, 1.304e-5
1.685e+2, 1.142e-5
1.686e+2, 1.040e-5
1.687e+2, 9.684e-6
1.688e+2, 9.149e-6
1.689e+2, 8.748e-6
1.690e+2, 8.425e-6
1.691e+2, -2.250e-4
1.692e+2, -1.885e-5
1.693e+2, -1.248e-5
1.694e+2, -9.937e-6
1.695e+2, -8.535e-6
1.696e+2, -7.635e-6
1.697e+2, -7.000e-6
1.698e+2, -6.512e-6
1.699e+2, -6.131e-6
1.700e+2, -5.822e-6
1.701e+2, 2.422e-4
1.702e+2, 2.299e-5
1.703e+2, 1.596e-5
1.704e+2, 1.303e-5
1.705e+2, 1.141e-5
1.706e+2, 1.040e-5
1.707e+2, 9.679e-6
1.708e+2, 9.147e-6
1.709e+2, 8.744e-6
1.710e+2, 8.422e-6
1.711e+2, -2.249e-4
1.712e+2, -1.885e-5
1.713e+2, -1.248e-5
1.714e+2, -9.937e-6
1.715e+2, -8.528e-6
1.716e+2, -7.630e-6
1.717e+2, -6.997e-6
1.718e+2, -6.509e-6
1.719e+2, -6.123e-6
1.720e+2, -5.827e-6
1.721e+2, 2.421e-4
1.722e+2, 2.298e-5
1.723e+2, 1.595e-5
1.724e+2, 1.303e-5
1.725e+2, 1.141e-5
1.726e+2, 1.040e-5
1.727e+2, 9.672e-6
1.728e+2, 9.145e-6
1.729e+2, 8.740e-6
1.730e+2, 8.412e-6
1.731e+2, -2.249e-4
1.732e+2, -1.885e-5
1.733e+2, -1.247e-5
1.734e+2, -9.929e-6
1.735e+2, -8.527e-6
1.736e+2, -7.635e-6
1.737e+2, -6.996e-6
1.738e+2, -6.502e-6
1.739e+2, -6.123e-6
1.740e+2, -5.817e-6
1.741e+2, 2.421e-4
1.742e+2, 2.296e-5
1.743e+2, 1.594e-5
1.744e+2, 1.302e-5
1.745e+2, 1.141e-5
1.746e+2, 1.038e-5
1.747e+2, 9.665e-6
1.748e+2, 9.133e-6
1.749e+2, 8.727e-6
1.750e+2, 8.409e-6
1.751e+2, -2.249e-4
1.752e+2, -1.884e-5
1.753e+2, -1.247e-5
1.754e+2, -9.929e-6
1.755e+2, -8.521e-6
1.756e+2, -7.634e-6
1.757e+2, -6.991e-6
1.758e+2, -6.509e-6
1.759e+2, -6.129e-6
1.760e+2, -5.805e-6
1.761e+2, 2.421e-4
1.762e+2, 2.295e-5
1.763e+2, 1.593e-5
1.764e+2, 1.301e-5
1.765e+2, 1.140e-5
1.766e+2, 1.038e-5
1.767e+2, 9.656e-6
1.768e+2, 9.134e-6
1.769e+2, 8.721e-6
1.770e+2, 8.404e-6
1.771e+2, -2.248e-4
1.772e+2, -1.884e-5
1.773e+2, -1.246e-5
1.774e+2, -9.922e-6
1.775e+2, -8.513e-6
1.776e+2, -7.620e-6
1.777e+2, -6.987e-6
1.778e+2, -6.505e-6
1.779e+2, -6.121e-6
1.780e+2, -5.811e-6
1.781e+2, 2.420e-4
1.782e+2, 2.294e-5
1.783e+2, 1.593e-5
1.784e+2, 1.300e-5
1.785e+2, 1.139e-5
1.786e+2, 1.036e-5
1.787e+2, 9.646e-6
1.788e+2, 9.122e-6
1.789e+2, 8.714e-6
1.790e+2, 8.397e-6
1.791e+2, -2.248e-4
1.792e+2, -1.884e-5
1.793e+2, -1.246e-5
1.794e+2, -9.925e-6
1.795e+2, -8.519e-6
1.796e+2, -7.620e-6
1.797e+2, -6.988e-6
1.798e+2, -6.501e-6
1.799e+2, -6.113e-6
1.800e+2, -5.807e-6
1.801e+2, 2.420e-4
1.802e+2, 2.293e-5
1.803e+2, 1.592e-5
1.804e+2, 1.299e-5
1.805e+2, 1.138e-5
1.806e+2, 1.036e-5
1.807e+2, 9.644e-6
1.808e+2, 9.117e-6
1.809e+2, 8.712e-6
1.810e+2, 8.392e-6
