Sept. 30, 2024   03:15:32
Cyclic Voltammetry
File: c:/users/guazh/data/20240922_batch_417_500/2024-09-22-exp487\exp487-2024-09-30t03_00_44-h2koh\exp487_cv_sr_200mvs_efin_-1800mv.bin
Data Source:  Experiment
Instrument Model:  CHI760E
Header: CV ran at 200 mVs
Note: 

Init E (V) = -1
High E (V) = -1
Low E (V) = -1.8
Final E (V) = -1
Init P/N = N
Scan Rate (V/s) = 0.2
Segment = 3
Sample Interval (V) = 0.001
Quiet Time (sec) = 2
Sensitivity (A/V) = 0.01
Comp R (ohm) = 2.0

Results:

Channel 1:
Segment 1:

Segment 2:

Segment 3:

Potential/V, Current/A

-1.000, -4.163e-7
-1.001, 1.164e-7
-1.002, 1.263e-7
-1.003, 2.447e-7
-1.004, 2.052e-7
-1.005, 1.362e-7
-1.006, 2.644e-7
-1.007, 4.716e-7
-1.008, 7.695e-8
-1.009, 3.335e-7
-1.010, 4.025e-7
-1.011, 2.940e-7
-1.012, 4.025e-7
-1.013, 3.433e-7
-1.014, 2.940e-7
-1.015, 4.716e-7
-1.016, 4.913e-7
-1.017, 4.420e-7
-1.018, 4.223e-7
-1.019, 6.097e-7
-1.020, 6.985e-7
-1.021, 5.505e-7
-1.022, 6.886e-7
-1.023, 4.716e-7
-1.024, 6.097e-7
-1.025, 6.097e-7
-1.026, 9.057e-7
-1.027, 8.958e-7
-1.028, 5.801e-7
-1.029, 8.761e-7
-1.030, 7.478e-7
-1.031, 9.057e-7
-1.032, 7.774e-7
-1.033, 6.788e-7
-1.034, 8.761e-7
-1.035, 6.689e-7
-1.036, 9.550e-7
-1.037, 9.353e-7
-1.038, 8.366e-7
-1.039, 1.172e-6
-1.040, 1.004e-6
-1.041, 9.057e-7
-1.042, 1.083e-6
-1.043, 9.748e-7
-1.044, 1.231e-6
-1.045, 1.133e-6
-1.046, 1.182e-6
-1.047, 1.271e-6
-1.048, 8.662e-7
-1.049, 1.113e-6
-1.050, 1.192e-6
-1.051, 1.212e-6
-1.052, 1.083e-6
-1.053, 1.133e-6
-1.054, 1.320e-6
-1.055, 1.172e-6
-1.056, 1.290e-6
-1.057, 1.162e-6
-1.058, 1.054e-6
-1.059, 1.448e-6
-1.060, 1.192e-6
-1.061, 1.212e-6
-1.062, 1.231e-6
-1.063, 1.320e-6
-1.064, 1.379e-6
-1.065, 1.320e-6
-1.066, 1.488e-6
-1.067, 1.409e-6
-1.068, 1.241e-6
-1.069, 1.350e-6
-1.070, 1.399e-6
-1.071, 1.458e-6
-1.072, 1.468e-6
-1.073, 1.577e-6
-1.074, 1.616e-6
-1.075, 1.646e-6
-1.076, 1.468e-6
-1.077, 1.685e-6
-1.078, 1.360e-6
-1.079, 1.517e-6
-1.080, 1.409e-6
-1.081, 1.596e-6
-1.082, 1.685e-6
-1.083, 1.596e-6
-1.084, 1.646e-6
-1.085, 1.478e-6
-1.086, 1.448e-6
-1.087, 1.833e-6
-1.088, 1.360e-6
-1.089, 1.873e-6
-1.090, 1.616e-6
-1.091, 1.685e-6
-1.092, 1.823e-6
-1.093, 1.517e-6
-1.094, 1.823e-6
-1.095, 1.586e-6
-1.096, 1.981e-6
-1.097, 1.843e-6
-1.098, 1.586e-6
-1.099, 2.050e-6
-1.100, 1.665e-6
-1.101, 1.498e-6
-1.102, 1.942e-6
-1.103, 1.547e-6
-1.104, 1.764e-6
-1.105, 1.981e-6
-1.106, 1.873e-6
-1.107, 2.021e-6
-1.108, 1.586e-6
-1.109, 2.070e-6
-1.110, 1.863e-6
-1.111, 2.011e-6
-1.112, 1.902e-6
-1.113, 1.843e-6
-1.114, 1.971e-6
-1.115, 2.080e-6
-1.116, 2.050e-6
-1.117, 2.356e-6
-1.118, 1.942e-6
-1.119, 2.040e-6
-1.120, 2.178e-6
-1.121, 1.705e-6
-1.122, 2.119e-6
-1.123, 1.981e-6
-1.124, 2.070e-6
-1.125, 1.951e-6
-1.126, 2.119e-6
-1.127, 2.287e-6
-1.128, 2.060e-6
-1.129, 2.228e-6
-1.130, 2.218e-6
-1.131, 2.139e-6
-1.132, 2.247e-6
-1.133, 2.297e-6
-1.134, 2.238e-6
-1.135, 2.198e-6
-1.136, 2.395e-6
-1.137, 2.238e-6
-1.138, 2.011e-6
-1.139, 2.129e-6
-1.140, 2.257e-6
-1.141, 2.346e-6
-1.142, 2.504e-6
-1.143, 2.514e-6
-1.144, 2.543e-6
-1.145, 2.346e-6
-1.146, 2.543e-6
-1.147, 2.435e-6
-1.148, 2.376e-6
-1.149, 2.583e-6
-1.150, 2.366e-6
-1.151, 2.514e-6
-1.152, 2.494e-6
-1.153, 2.386e-6
-1.154, 2.553e-6
-1.155, 2.494e-6
-1.156, 2.603e-6
-1.157, 2.790e-6
-1.158, 2.415e-6
-1.159, 2.800e-6
-1.160, 2.504e-6
-1.161, 2.682e-6
-1.162, 2.593e-6
-1.163, 2.425e-6
-1.164, 2.603e-6
-1.165, 2.593e-6
-1.166, 2.948e-6
-1.167, 2.820e-6
-1.168, 2.731e-6
-1.169, 2.652e-6
-1.170, 2.879e-6
-1.171, 2.908e-6
-1.172, 2.751e-6
-1.173, 2.534e-6
-1.174, 2.770e-6
-1.175, 2.810e-6
-1.176, 2.691e-6
-1.177, 2.869e-6
-1.178, 2.997e-6
-1.179, 3.175e-6
-1.180, 2.958e-6
-1.181, 3.175e-6
-1.182, 3.126e-6
-1.183, 2.997e-6
-1.184, 3.037e-6
-1.185, 2.800e-6
-1.186, 3.017e-6
-1.187, 3.204e-6
-1.188, 2.918e-6
-1.189, 2.918e-6
-1.190, 3.135e-6
-1.191, 3.126e-6
-1.192, 3.165e-6
-1.193, 3.155e-6
-1.194, 3.145e-6
-1.195, 3.106e-6
-1.196, 3.056e-6
-1.197, 3.599e-6
-1.198, 3.076e-6
-1.199, 3.155e-6
-1.200, 3.323e-6
-1.201, 3.116e-6
-1.202, 3.274e-6
-1.203, 3.116e-6
-1.204, 3.392e-6
-1.205, 3.412e-6
-1.206, 3.362e-6
-1.207, 3.471e-6
-1.208, 3.126e-6
-1.209, 3.579e-6
-1.210, 3.481e-6
-1.211, 3.372e-6
-1.212, 3.619e-6
-1.213, 3.491e-6
-1.214, 3.688e-6
-1.215, 3.609e-6
-1.216, 3.412e-6
-1.217, 3.777e-6
-1.218, 3.323e-6
-1.219, 3.698e-6
-1.220, 3.461e-6
-1.221, 3.816e-6
-1.222, 3.727e-6
-1.223, 3.599e-6
-1.224, 3.905e-6
-1.225, 3.678e-6
-1.226, 3.589e-6
-1.227, 3.875e-6
-1.228, 3.717e-6
-1.229, 4.112e-6
-1.230, 4.053e-6
-1.231, 3.964e-6
-1.232, 4.102e-6
-1.233, 3.905e-6
-1.234, 3.915e-6
-1.235, 3.836e-6
-1.236, 3.777e-6
-1.237, 4.092e-6
-1.238, 3.856e-6
-1.239, 4.221e-6
-1.240, 4.092e-6
-1.241, 4.043e-6
-1.242, 4.221e-6
-1.243, 4.221e-6
-1.244, 4.181e-6
-1.245, 4.231e-6
-1.246, 4.309e-6
-1.247, 4.280e-6
-1.248, 4.270e-6
-1.249, 4.448e-6
-1.250, 4.408e-6
-1.251, 4.457e-6
-1.252, 4.388e-6
-1.253, 4.290e-6
-1.254, 4.428e-6
-1.255, 4.221e-6
-1.256, 4.467e-6
-1.257, 4.596e-6
-1.258, 4.605e-6
-1.259, 4.507e-6
-1.260, 4.576e-6
-1.261, 4.615e-6
-1.262, 4.645e-6
-1.263, 4.379e-6
-1.264, 4.724e-6
-1.265, 4.497e-6
-1.266, 4.536e-6
-1.267, 4.655e-6
-1.268, 4.605e-6
-1.269, 4.783e-6
-1.270, 4.832e-6
-1.271, 4.467e-6
-1.272, 4.645e-6
-1.273, 4.832e-6
-1.274, 4.970e-6
-1.275, 4.724e-6
-1.276, 4.655e-6
-1.277, 4.911e-6
-1.278, 4.625e-6
-1.279, 4.734e-6
-1.280, 5.168e-6
-1.281, 5.020e-6
-1.282, 5.247e-6
-1.283, 5.227e-6
-1.284, 5.247e-6
-1.285, 4.931e-6
-1.286, 5.069e-6
-1.287, 5.316e-6
-1.288, 5.079e-6
-1.289, 5.138e-6
-1.290, 5.197e-6
-1.291, 5.109e-6
-1.292, 5.168e-6
-1.293, 5.493e-6
-1.294, 5.316e-6
-1.295, 5.316e-6
-1.296, 5.385e-6
-1.297, 5.533e-6
-1.298, 5.069e-6
-1.299, 5.631e-6
-1.300, 5.533e-6
-1.301, 5.296e-6
-1.302, 5.444e-6
-1.303, 5.434e-6
-1.304, 5.671e-6
-1.305, 5.533e-6
-1.306, 5.681e-6
-1.307, 5.789e-6
-1.308, 5.395e-6
-1.309, 6.016e-6
-1.310, 5.888e-6
-1.311, 5.839e-6
-1.312, 5.809e-6
-1.313, 5.997e-6
-1.314, 5.947e-6
-1.315, 5.612e-6
-1.316, 5.888e-6
-1.317, 6.283e-6
-1.318, 5.898e-6
-1.319, 6.056e-6
-1.320, 6.214e-6
-1.321, 6.085e-6
-1.322, 6.312e-6
-1.323, 6.223e-6
-1.324, 6.145e-6
-1.325, 6.243e-6
-1.326, 6.421e-6
-1.327, 6.460e-6
-1.328, 6.381e-6
-1.329, 6.638e-6
-1.330, 6.608e-6
-1.331, 6.401e-6
-1.332, 6.796e-6
-1.333, 6.391e-6
-1.334, 6.667e-6
-1.335, 6.529e-6
-1.336, 6.796e-6
-1.337, 6.677e-6
-1.338, 6.806e-6
-1.339, 6.855e-6
-1.340, 6.875e-6
-1.341, 6.855e-6
-1.342, 7.171e-6
-1.343, 6.746e-6
-1.344, 7.111e-6
-1.345, 6.667e-6
-1.346, 7.348e-6
-1.347, 7.319e-6
-1.348, 6.983e-6
-1.349, 7.210e-6
-1.350, 7.328e-6
-1.351, 7.328e-6
-1.352, 7.733e-6
-1.353, 7.299e-6
-1.354, 7.397e-6
-1.355, 7.388e-6
-1.356, 7.605e-6
-1.357, 7.901e-6
-1.358, 7.703e-6
-1.359, 8.137e-6
-1.360, 7.999e-6
-1.361, 7.832e-6
-1.362, 8.137e-6
-1.363, 7.861e-6
-1.364, 8.335e-6
-1.365, 7.911e-6
-1.366, 8.187e-6
-1.367, 8.246e-6
-1.368, 8.029e-6
-1.369, 8.256e-6
-1.370, 8.828e-6
-1.371, 8.295e-6
-1.372, 8.532e-6
-1.373, 8.424e-6
-1.374, 8.621e-6
-1.375, 8.650e-6
-1.376, 8.581e-6
-1.377, 9.045e-6
-1.378, 8.581e-6
-1.379, 8.966e-6
-1.380, 9.233e-6
-1.381, 8.996e-6
-1.382, 9.193e-6
-1.383, 9.252e-6
-1.384, 9.321e-6
-1.385, 9.331e-6
-1.386, 9.479e-6
-1.387, 9.519e-6
-1.388, 9.252e-6
-1.389, 9.765e-6
-1.390, 9.894e-6
-1.391, 9.677e-6
-1.392, 9.815e-6
-1.393, 9.854e-6
-1.394, 1.016e-5
-1.395, 1.013e-5
-1.396, 9.963e-6
-1.397, 1.040e-5
-1.398, 9.943e-6
-1.399, 1.027e-5
-1.400, 1.069e-5
-1.401, 1.052e-5
-1.402, 1.049e-5
-1.403, 1.051e-5
-1.404, 1.078e-5
-1.405, 1.085e-5
-1.406, 1.084e-5
-1.407, 1.134e-5
-1.408, 1.104e-5
-1.409, 1.128e-5
-1.410, 1.121e-5
-1.411, 1.113e-5
-1.412, 1.137e-5
-1.413, 1.130e-5
-1.414, 1.151e-5
-1.415, 1.155e-5
-1.416, 1.167e-5
-1.417, 1.170e-5
-1.418, 1.186e-5
-1.419, 1.202e-5
-1.420, 1.198e-5
-1.421, 1.214e-5
-1.422, 1.210e-5
-1.423, 1.227e-5
-1.424, 1.261e-5
-1.425, 1.249e-5
-1.426, 1.245e-5
-1.427, 1.300e-5
-1.428, 1.254e-5
-1.429, 1.295e-5
-1.430, 1.300e-5
-1.431, 1.286e-5
-1.432, 1.317e-5
-1.433, 1.318e-5
-1.434, 1.352e-5
-1.435, 1.347e-5
-1.436, 1.355e-5
-1.437, 1.388e-5
-1.438, 1.370e-5
-1.439, 1.384e-5
-1.440, 1.430e-5
-1.441, 1.368e-5
-1.442, 1.420e-5
-1.443, 1.388e-5
-1.444, 1.440e-5
-1.445, 1.419e-5
-1.446, 1.442e-5
-1.447, 1.471e-5
-1.448, 1.452e-5
-1.449, 1.470e-5
-1.450, 1.504e-5
-1.451, 1.492e-5
-1.452, 1.510e-5
-1.453, 1.530e-5
-1.454, 1.545e-5
-1.455, 1.524e-5
-1.456, 1.554e-5
-1.457, 1.566e-5
-1.458, 1.519e-5
-1.459, 1.572e-5
-1.460, 1.606e-5
-1.461, 1.600e-5
-1.462, 1.604e-5
-1.463, 1.618e-5
-1.464, 1.641e-5
-1.465, 1.650e-5
-1.466, 1.658e-5
-1.467, 1.671e-5
-1.468, 1.658e-5
-1.469, 1.692e-5
-1.470, 1.728e-5
-1.471, 1.715e-5
-1.472, 1.724e-5
-1.473, 1.759e-5
-1.474, 1.758e-5
-1.475, 1.772e-5
-1.476, 1.768e-5
-1.477, 1.793e-5
-1.478, 1.792e-5
-1.479, 1.813e-5
-1.480, 1.828e-5
-1.481, 1.840e-5
-1.482, 1.843e-5
-1.483, 1.865e-5
-1.484, 1.871e-5
-1.485, 1.873e-5
-1.486, 1.887e-5
-1.487, 1.939e-5
-1.488, 1.904e-5
-1.489, 1.937e-5
-1.490, 1.965e-5
-1.491, 1.960e-5
-1.492, 1.965e-5
-1.493, 2.006e-5
-1.494, 1.988e-5
-1.495, 2.015e-5
-1.496, 2.019e-5
-1.497, 2.046e-5
-1.498, 2.031e-5
-1.499, 2.082e-5
-1.500, 2.071e-5
-1.501, 2.116e-5
-1.502, 2.122e-5
-1.503, 2.120e-5
-1.504, 2.148e-5
-1.505, 2.144e-5
-1.506, 2.145e-5
-1.507, 2.218e-5
-1.508, 2.217e-5
-1.509, 2.260e-5
-1.510, 2.264e-5
-1.511, 2.270e-5
-1.512, 2.284e-5
-1.513, 2.315e-5
-1.514, 2.338e-5
-1.515, 2.289e-5
-1.516, 2.304e-5
-1.517, 2.348e-5
-1.518, 2.326e-5
-1.519, 2.391e-5
-1.520, 2.391e-5
-1.521, 2.412e-5
-1.522, 2.447e-5
-1.523, 2.444e-5
-1.524, 2.501e-5
-1.525, 2.504e-5
-1.526, 2.546e-5
-1.527, 2.562e-5
-1.528, 2.536e-5
-1.529, 2.577e-5
-1.530, 2.634e-5
-1.531, 2.571e-5
-1.532, 2.626e-5
-1.533, 2.615e-5
-1.534, 2.618e-5
-1.535, 2.651e-5
-1.536, 2.662e-5
-1.537, 2.655e-5
-1.538, 2.686e-5
-1.539, 2.726e-5
-1.540, 2.719e-5
-1.541, 2.736e-5
-1.542, 2.766e-5
-1.543, 2.817e-5
-1.544, 2.872e-5
-1.545, 2.836e-5
-1.546, 2.888e-5
-1.547, 2.899e-5
-1.548, 2.907e-5
-1.549, 2.947e-5
-1.550, 2.983e-5
-1.551, 2.976e-5
-1.552, 3.020e-5
-1.553, 3.038e-5
-1.554, 3.073e-5
-1.555, 3.089e-5
-1.556, 3.098e-5
-1.557, 3.154e-5
-1.558, 3.142e-5
-1.559, 3.211e-5
-1.560, 3.256e-5
-1.561, 3.247e-5
-1.562, 3.288e-5
-1.563, 3.313e-5
-1.564, 3.344e-5
-1.565, 3.360e-5
-1.566, 3.399e-5
-1.567, 3.451e-5
-1.568, 3.431e-5
-1.569, 3.508e-5
-1.570, 3.560e-5
-1.571, 3.548e-5
-1.572, 3.607e-5
-1.573, 3.626e-5
-1.574, 3.661e-5
-1.575, 3.726e-5
-1.576, 3.768e-5
-1.577, 3.801e-5
-1.578, 3.796e-5
-1.579, 3.884e-5
-1.580, 3.949e-5
-1.581, 3.950e-5
-1.582, 3.966e-5
-1.583, 4.014e-5
-1.584, 4.067e-5
-1.585, 4.122e-5
-1.586, 4.153e-5
-1.587, 4.213e-5
-1.588, 4.283e-5
-1.589, 4.341e-5
-1.590, 4.414e-5
-1.591, 4.403e-5
-1.592, 4.460e-5
-1.593, 4.531e-5
-1.594, 4.623e-5
-1.595, 4.651e-5
-1.596, 4.728e-5
-1.597, 4.772e-5
-1.598, 4.803e-5
-1.599, 4.890e-5
-1.600, 4.977e-5
-1.601, 4.951e-5
-1.602, 5.087e-5
-1.603, 5.169e-5
-1.604, 5.240e-5
-1.605, 5.300e-5
-1.606, 5.390e-5
-1.607, 5.485e-5
-1.608, 5.507e-5
-1.609, 5.622e-5
-1.610, 5.719e-5
-1.611, 5.719e-5
-1.612, 5.815e-5
-1.613, 5.944e-5
-1.614, 6.085e-5
-1.615, 6.144e-5
-1.616, 6.276e-5
-1.617, 6.360e-5
-1.618, 6.426e-5
-1.619, 6.574e-5
-1.620, 6.678e-5
-1.621, 6.777e-5
-1.622, 6.905e-5
-1.623, 7.023e-5
-1.624, 7.130e-5
-1.625, 7.246e-5
-1.626, 7.403e-5
-1.627, 7.494e-5
-1.628, 7.556e-5
-1.629, 7.724e-5
-1.630, 7.876e-5
-1.631, 7.975e-5
-1.632, 8.107e-5
-1.633, 8.277e-5
-1.634, 8.448e-5
-1.635, 8.624e-5
-1.636, 8.779e-5
-1.637, 9.002e-5
-1.638, 9.115e-5
-1.639, 9.345e-5
-1.640, 9.520e-5
-1.641, 9.691e-5
-1.642, 9.901e-5
-1.643, 1.010e-4
-1.644, 1.029e-4
-1.645, 1.051e-4
-1.646, 1.068e-4
-1.647, 1.095e-4
-1.648, 1.111e-4
-1.649, 1.138e-4
-1.650, 1.164e-4
-1.651, 1.187e-4
-1.652, 1.216e-4
-1.653, 1.243e-4
-1.654, 1.266e-4
-1.655, 1.293e-4
-1.656, 1.323e-4
-1.657, 1.356e-4
-1.658, 1.385e-4
-1.659, 1.422e-4
-1.660, 1.454e-4
-1.661, 1.482e-4
-1.662, 1.520e-4
-1.663, 1.556e-4
-1.664, 1.595e-4
-1.665, 1.630e-4
-1.666, 1.670e-4
-1.667, 1.715e-4
-1.668, 1.752e-4
-1.669, 1.798e-4
-1.670, 1.846e-4
-1.671, 1.885e-4
-1.672, 1.933e-4
-1.673, 1.982e-4
-1.674, 2.034e-4
-1.675, 2.080e-4
-1.676, 2.136e-4
-1.677, 2.191e-4
-1.678, 2.243e-4
-1.679, 2.303e-4
-1.680, 2.366e-4
-1.681, 2.421e-4
-1.682, 2.486e-4
-1.683, 2.548e-4
-1.684, 2.619e-4
-1.685, 2.681e-4
-1.686, 2.760e-4
-1.687, 2.834e-4
-1.688, 2.903e-4
-1.689, 2.982e-4
-1.690, 3.068e-4
-1.691, 3.142e-4
-1.692, 3.228e-4
-1.693, 3.318e-4
-1.694, 3.413e-4
-1.695, 3.499e-4
-1.696, 3.597e-4
-1.697, 3.696e-4
-1.698, 3.796e-4
-1.699, 3.906e-4
-1.700, 4.011e-4
-1.701, 4.111e-4
-1.702, 4.223e-4
-1.703, 4.343e-4
-1.704, 4.467e-4
-1.705, 4.582e-4
-1.706, 4.711e-4
-1.707, 4.844e-4
-1.708, 4.969e-4
-1.709, 5.108e-4
-1.710, 5.248e-4
-1.711, 5.394e-4
-1.712, 5.538e-4
-1.713, 5.699e-4
-1.714, 5.861e-4
-1.715, 6.015e-4
-1.716, 6.180e-4
-1.717, 6.359e-4
-1.718, 6.525e-4
-1.719, 6.703e-4
-1.720, 6.886e-4
-1.721, 7.068e-4
-1.722, 7.261e-4
-1.723, 7.459e-4
-1.724, 7.666e-4
-1.725, 7.871e-4
-1.726, 8.091e-4
-1.727, 8.313e-4
-1.728, 8.535e-4
-1.729, 8.762e-4
-1.730, 9.011e-4
-1.731, 9.244e-4
-1.732, 9.491e-4
-1.733, 9.750e-4
-1.734, 1.001e-3
-1.735, 1.027e-3
-1.736, 1.054e-3
-1.737, 1.083e-3
-1.738, 1.111e-3
-1.739, 1.140e-3
-1.740, 1.170e-3
-1.741, 1.200e-3
-1.742, 1.230e-3
-1.743, 1.261e-3
-1.744, 1.294e-3
-1.745, 1.325e-3
-1.746, 1.358e-3
-1.747, 1.392e-3
-1.748, 1.425e-3
-1.749, 1.459e-3
-1.750, 1.495e-3
-1.751, 1.531e-3
-1.752, 1.566e-3
-1.753, 1.604e-3
-1.754, 1.643e-3
-1.755, 1.680e-3
-1.756, 1.720e-3
-1.757, 1.762e-3
-1.758, 1.802e-3
-1.759, 1.843e-3
-1.760, 1.887e-3
-1.761, 1.929e-3
-1.762, 1.971e-3
-1.763, 2.015e-3
-1.764, 2.060e-3
-1.765, 2.103e-3
-1.766, 2.148e-3
-1.767, 2.195e-3
-1.768, 2.241e-3
-1.769, 2.286e-3
-1.770, 2.335e-3
-1.771, 2.383e-3
-1.772, 2.431e-3
-1.773, 2.480e-3
-1.774, 2.530e-3
-1.775, 2.579e-3
-1.776, 2.629e-3
-1.777, 2.683e-3
-1.778, 2.735e-3
-1.779, 2.788e-3
-1.780, 2.842e-3
-1.781, 2.896e-3
-1.782, 2.948e-3
-1.783, 3.002e-3
-1.784, 3.057e-3
-1.785, 3.109e-3
-1.786, 3.164e-3
-1.787, 3.220e-3
-1.788, 3.274e-3
-1.789, 3.332e-3
-1.790, 3.391e-3
-1.791, 3.450e-3
-1.792, 3.506e-3
-1.793, 3.563e-3
-1.794, 3.622e-3
-1.795, 3.676e-3
-1.796, 3.734e-3
-1.797, 3.793e-3
-1.798, 3.849e-3
-1.799, 3.906e-3
-1.800, 3.936e-3
-1.799, 3.922e-3
-1.798, 3.904e-3
-1.797, 3.886e-3
-1.796, 3.868e-3
-1.795, 3.846e-3
-1.794, 3.823e-3
-1.793, 3.800e-3
-1.792, 3.771e-3
-1.791, 3.742e-3
-1.790, 3.713e-3
-1.789, 3.682e-3
-1.788, 3.640e-3
-1.787, 3.615e-3
-1.786, 3.574e-3
-1.785, 3.536e-3
-1.784, 3.505e-3
-1.783, 3.472e-3
-1.782, 3.446e-3
-1.781, 3.414e-3
-1.780, 3.387e-3
-1.779, 3.359e-3
-1.778, 3.324e-3
-1.777, 3.293e-3
-1.776, 3.264e-3
-1.775, 3.229e-3
-1.774, 3.199e-3
-1.773, 3.166e-3
-1.772, 3.133e-3
-1.771, 3.101e-3
-1.770, 3.070e-3
-1.769, 3.038e-3
-1.768, 3.005e-3
-1.767, 2.972e-3
-1.766, 2.940e-3
-1.765, 2.907e-3
-1.764, 2.876e-3
-1.763, 2.845e-3
-1.762, 2.812e-3
-1.761, 2.782e-3
-1.760, 2.754e-3
-1.759, 2.723e-3
-1.758, 2.690e-3
-1.757, 2.660e-3
-1.756, 2.630e-3
-1.755, 2.598e-3
-1.754, 2.567e-3
-1.753, 2.537e-3
-1.752, 2.505e-3
-1.751, 2.473e-3
-1.750, 2.444e-3
-1.749, 2.413e-3
-1.748, 2.381e-3
-1.747, 2.351e-3
-1.746, 2.321e-3
-1.745, 2.290e-3
-1.744, 2.259e-3
-1.743, 2.231e-3
-1.742, 2.200e-3
-1.741, 2.170e-3
-1.740, 2.142e-3
-1.739, 2.113e-3
-1.738, 2.083e-3
-1.737, 2.055e-3
-1.736, 2.028e-3
-1.735, 1.999e-3
-1.734, 1.971e-3
-1.733, 1.944e-3
-1.732, 1.916e-3
-1.731, 1.888e-3
-1.730, 1.862e-3
-1.729, 1.834e-3
-1.728, 1.805e-3
-1.727, 1.779e-3
-1.726, 1.753e-3
-1.725, 1.725e-3
-1.724, 1.698e-3
-1.723, 1.672e-3
-1.722, 1.645e-3
-1.721, 1.620e-3
-1.720, 1.595e-3
-1.719, 1.571e-3
-1.718, 1.546e-3
-1.717, 1.522e-3
-1.716, 1.499e-3
-1.715, 1.475e-3
-1.714, 1.451e-3
-1.713, 1.428e-3
-1.712, 1.405e-3
-1.711, 1.382e-3
-1.710, 1.359e-3
-1.709, 1.336e-3
-1.708, 1.312e-3
-1.707, 1.290e-3
-1.706, 1.267e-3
-1.705, 1.245e-3
-1.704, 1.224e-3
-1.703, 1.203e-3
-1.702, 1.182e-3
-1.701, 1.161e-3
-1.700, 1.141e-3
-1.699, 1.121e-3
-1.698, 1.101e-3
-1.697, 1.082e-3
-1.696, 1.062e-3
-1.695, 1.043e-3
-1.694, 1.024e-3
-1.693, 1.006e-3
-1.692, 9.871e-4
-1.691, 9.688e-4
-1.690, 9.510e-4
-1.689, 9.327e-4
-1.688, 9.148e-4
-1.687, 8.976e-4
-1.686, 8.803e-4
-1.685, 8.626e-4
-1.684, 8.459e-4
-1.683, 8.302e-4
-1.682, 8.129e-4
-1.681, 7.967e-4
-1.680, 7.812e-4
-1.679, 7.651e-4
-1.678, 7.495e-4
-1.677, 7.344e-4
-1.676, 7.197e-4
-1.675, 7.049e-4
-1.674, 6.902e-4
-1.673, 6.767e-4
-1.672, 6.626e-4
-1.671, 6.486e-4
-1.670, 6.354e-4
-1.669, 6.221e-4
-1.668, 6.093e-4
-1.667, 5.971e-4
-1.666, 5.848e-4
-1.665, 5.723e-4
-1.664, 5.601e-4
-1.663, 5.486e-4
-1.662, 5.366e-4
-1.661, 5.250e-4
-1.660, 5.142e-4
-1.659, 5.026e-4
-1.658, 4.920e-4
-1.657, 4.814e-4
-1.656, 4.710e-4
-1.655, 4.601e-4
-1.654, 4.504e-4
-1.653, 4.410e-4
-1.652, 4.309e-4
-1.651, 4.212e-4
-1.650, 4.126e-4
-1.649, 4.030e-4
-1.648, 3.942e-4
-1.647, 3.852e-4
-1.646, 3.768e-4
-1.645, 3.680e-4
-1.644, 3.597e-4
-1.643, 3.521e-4
-1.642, 3.436e-4
-1.641, 3.359e-4
-1.640, 3.288e-4
-1.639, 3.206e-4
-1.638, 3.129e-4
-1.637, 3.060e-4
-1.636, 2.991e-4
-1.635, 2.921e-4
-1.634, 2.854e-4
-1.633, 2.789e-4
-1.632, 2.724e-4
-1.631, 2.658e-4
-1.630, 2.600e-4
-1.629, 2.538e-4
-1.628, 2.481e-4
-1.627, 2.427e-4
-1.626, 2.370e-4
-1.625, 2.314e-4
-1.624, 2.260e-4
-1.623, 2.207e-4
-1.622, 2.155e-4
-1.621, 2.108e-4
-1.620, 2.062e-4
-1.619, 2.012e-4
-1.618, 1.969e-4
-1.617, 1.921e-4
-1.616, 1.876e-4
-1.615, 1.835e-4
-1.614, 1.789e-4
-1.613, 1.750e-4
-1.612, 1.707e-4
-1.611, 1.667e-4
-1.610, 1.633e-4
-1.609, 1.589e-4
-1.608, 1.552e-4
-1.607, 1.517e-4
-1.606, 1.481e-4
-1.605, 1.444e-4
-1.604, 1.409e-4
-1.603, 1.379e-4
-1.602, 1.347e-4
-1.601, 1.315e-4
-1.600, 1.289e-4
-1.599, 1.255e-4
-1.598, 1.227e-4
-1.597, 1.200e-4
-1.596, 1.172e-4
-1.595, 1.147e-4
-1.594, 1.117e-4
-1.593, 1.095e-4
-1.592, 1.069e-4
-1.591, 1.043e-4
-1.590, 1.021e-4
-1.589, 9.958e-5
-1.588, 9.746e-5
-1.587, 9.519e-5
-1.586, 9.286e-5
-1.585, 9.068e-5
-1.584, 8.860e-5
-1.583, 8.696e-5
-1.582, 8.481e-5
-1.581, 8.297e-5
-1.580, 8.151e-5
-1.579, 7.900e-5
-1.578, 7.765e-5
-1.577, 7.583e-5
-1.576, 7.446e-5
-1.575, 7.229e-5
-1.574, 7.075e-5
-1.573, 6.925e-5
-1.572, 6.773e-5
-1.571, 6.621e-5
-1.570, 6.494e-5
-1.569, 6.299e-5
-1.568, 6.183e-5
-1.567, 6.094e-5
-1.566, 5.904e-5
-1.565, 5.805e-5
-1.564, 5.666e-5
-1.563, 5.575e-5
-1.562, 5.445e-5
-1.561, 5.295e-5
-1.560, 5.186e-5
-1.559, 5.047e-5
-1.558, 4.948e-5
-1.557, 4.863e-5
-1.556, 4.757e-5
-1.555, 4.644e-5
-1.554, 4.538e-5
-1.553, 4.480e-5
-1.552, 4.370e-5
-1.551, 4.249e-5
-1.550, 4.191e-5
-1.549, 4.057e-5
-1.548, 3.993e-5
-1.547, 3.944e-5
-1.546, 3.840e-5
-1.545, 3.775e-5
-1.544, 3.674e-5
-1.543, 3.614e-5
-1.542, 3.482e-5
-1.541, 3.461e-5
-1.540, 3.374e-5
-1.539, 3.256e-5
-1.538, 3.240e-5
-1.537, 3.165e-5
-1.536, 3.098e-5
-1.535, 3.035e-5
-1.534, 2.951e-5
-1.533, 2.919e-5
-1.532, 2.825e-5
-1.531, 2.773e-5
-1.530, 2.748e-5
-1.529, 2.669e-5
-1.528, 2.632e-5
-1.527, 2.594e-5
-1.526, 2.502e-5
-1.525, 2.476e-5
-1.524, 2.405e-5
-1.523, 2.370e-5
-1.522, 2.288e-5
-1.521, 2.256e-5
-1.520, 2.263e-5
-1.519, 2.178e-5
-1.518, 2.147e-5
-1.517, 2.112e-5
-1.516, 2.047e-5
-1.515, 2.004e-5
-1.514, 1.962e-5
-1.513, 1.954e-5
-1.512, 1.870e-5
-1.511, 1.867e-5
-1.510, 1.815e-5
-1.509, 1.761e-5
-1.508, 1.743e-5
-1.507, 1.715e-5
-1.506, 1.641e-5
-1.505, 1.628e-5
-1.504, 1.595e-5
-1.503, 1.569e-5
-1.502, 1.520e-5
-1.501, 1.498e-5
-1.500, 1.504e-5
-1.499, 1.456e-5
-1.498, 1.431e-5
-1.497, 1.416e-5
-1.496, 1.378e-5
-1.495, 1.377e-5
-1.494, 1.308e-5
-1.493, 1.322e-5
-1.492, 1.274e-5
-1.491, 1.224e-5
-1.490, 1.229e-5
-1.489, 1.188e-5
-1.488, 1.180e-5
-1.487, 1.165e-5
-1.486, 1.112e-5
-1.485, 1.108e-5
-1.484, 1.067e-5
-1.483, 1.059e-5
-1.482, 1.002e-5
-1.481, 1.017e-5
-1.480, 9.923e-6
-1.479, 9.598e-6
-1.478, 9.677e-6
-1.477, 9.450e-6
-1.476, 9.233e-6
-1.475, 8.907e-6
-1.474, 8.690e-6
-1.473, 8.493e-6
-1.472, 8.315e-6
-1.471, 8.118e-6
-1.470, 8.522e-6
-1.469, 7.911e-6
-1.468, 7.693e-6
-1.467, 7.624e-6
-1.466, 7.397e-6
-1.465, 7.338e-6
-1.464, 7.032e-6
-1.463, 7.042e-6
-1.462, 6.776e-6
-1.461, 6.608e-6
-1.460, 6.579e-6
-1.459, 5.918e-6
-1.458, 6.214e-6
-1.457, 6.006e-6
-1.456, 5.789e-6
-1.455, 5.701e-6
-1.454, 5.395e-6
-1.453, 5.622e-6
-1.452, 5.355e-6
-1.451, 5.316e-6
-1.450, 5.276e-6
-1.449, 5.000e-6
-1.448, 5.158e-6
-1.447, 5.000e-6
-1.446, 4.586e-6
-1.445, 4.546e-6
-1.444, 4.428e-6
-1.443, 4.467e-6
-1.442, 4.211e-6
-1.441, 4.092e-6
-1.440, 4.398e-6
-1.439, 3.836e-6
-1.438, 3.994e-6
-1.437, 3.885e-6
-1.436, 3.491e-6
-1.435, 3.412e-6
-1.434, 3.560e-6
-1.433, 3.639e-6
-1.432, 3.204e-6
-1.431, 3.145e-6
-1.430, 3.076e-6
-1.429, 2.810e-6
-1.428, 2.790e-6
-1.427, 2.889e-6
-1.426, 2.573e-6
-1.425, 2.563e-6
-1.424, 2.613e-6
-1.423, 2.741e-6
-1.422, 2.277e-6
-1.421, 2.494e-6
-1.420, 2.405e-6
-1.419, 2.040e-6
-1.418, 2.099e-6
-1.417, 2.040e-6
-1.416, 1.803e-6
-1.415, 2.060e-6
-1.414, 1.803e-6
-1.413, 1.961e-6
-1.412, 1.596e-6
-1.411, 1.537e-6
-1.410, 1.646e-6
-1.409, 1.340e-6
-1.408, 1.488e-6
-1.407, 1.419e-6
-1.406, 1.113e-6
-1.405, 1.300e-6
-1.404, 8.465e-7
-1.403, 9.353e-7
-1.402, 1.162e-6
-1.401, 1.024e-6
-1.400, 1.212e-6
-1.399, 7.281e-7
-1.398, 7.380e-7
-1.397, 8.564e-7
-1.396, 4.124e-7
-1.395, 4.519e-7
-1.394, 6.097e-7
-1.393, 5.505e-7
-1.392, 5.703e-7
-1.391, 4.519e-7
-1.390, 5.703e-7
-1.389, 1.066e-7
-1.388, 3.729e-7
-1.387, 2.151e-7
-1.386, 1.855e-7
-1.385, 2.743e-7
-1.384, 1.263e-7
-1.383, 1.362e-7
-1.382, -2.782e-7
-1.381, -7.103e-8
-1.380, 1.953e-7
-1.379, -3.473e-7
-1.378, -1.973e-9
-1.377, -6.117e-8
-1.376, -3.670e-7
-1.375, -2.684e-7
-1.374, -6.827e-7
-1.373, -1.401e-7
-1.372, -5.150e-7
-1.371, -6.433e-7
-1.370, -4.163e-7
-1.369, -8.011e-7
-1.368, -6.235e-7
-1.367, -3.769e-7
-1.366, -7.222e-7
-1.365, -8.406e-7
-1.364, -9.886e-7
-1.363, -9.688e-7
-1.362, -8.110e-7
-1.361, -8.504e-7
-1.360, -5.742e-7
-1.359, -1.107e-6
-1.358, -9.096e-7
-1.357, -1.038e-6
-1.356, -9.590e-7
-1.355, -1.285e-6
-1.354, -1.156e-6
-1.353, -8.800e-7
-1.352, -1.225e-6
-1.351, -1.255e-6
-1.350, -1.048e-6
-1.349, -1.383e-6
-1.348, -1.255e-6
-1.347, -1.166e-6
-1.346, -1.452e-6
-1.345, -1.492e-6
-1.344, -1.699e-6
-1.343, -1.541e-6
-1.342, -1.541e-6
-1.341, -1.511e-6
-1.340, -1.156e-6
-1.339, -1.630e-6
-1.338, -1.482e-6
-1.337, -1.403e-6
-1.336, -1.778e-6
-1.335, -1.748e-6
-1.334, -1.877e-6
-1.333, -1.511e-6
-1.332, -1.561e-6
-1.331, -1.620e-6
-1.330, -1.511e-6
-1.329, -1.886e-6
-1.328, -1.610e-6
-1.327, -1.659e-6
-1.326, -1.699e-6
-1.325, -2.005e-6
-1.324, -1.778e-6
-1.323, -1.640e-6
-1.322, -2.301e-6
-1.321, -1.955e-6
-1.320, -1.610e-6
-1.319, -2.182e-6
-1.318, -1.906e-6
-1.317, -1.689e-6
-1.316, -2.163e-6
-1.315, -1.955e-6
-1.314, -2.202e-6
-1.313, -2.064e-6
-1.312, -2.251e-6
-1.311, -2.242e-6
-1.310, -2.103e-6
-1.309, -2.143e-6
-1.308, -2.113e-6
-1.307, -2.084e-6
-1.306, -2.261e-6
-1.305, -2.340e-6
-1.304, -2.024e-6
-1.303, -2.232e-6
-1.302, -2.350e-6
-1.301, -2.232e-6
-1.300, -2.064e-6
-1.299, -2.508e-6
-1.298, -2.311e-6
-1.297, -2.182e-6
-1.296, -2.478e-6
-1.295, -2.370e-6
-1.294, -2.547e-6
-1.293, -2.370e-6
-1.292, -2.419e-6
-1.291, -2.350e-6
-1.290, -2.488e-6
-1.289, -2.636e-6
-1.288, -2.419e-6
-1.287, -2.281e-6
-1.286, -2.597e-6
-1.285, -2.468e-6
-1.284, -2.547e-6
-1.283, -2.557e-6
-1.282, -2.429e-6
-1.281, -2.380e-6
-1.280, -2.360e-6
-1.279, -2.962e-6
-1.278, -2.587e-6
-1.277, -2.587e-6
-1.276, -2.774e-6
-1.275, -2.804e-6
-1.274, -2.922e-6
-1.273, -2.399e-6
-1.272, -2.903e-6
-1.271, -2.380e-6
-1.270, -2.626e-6
-1.269, -2.676e-6
-1.268, -2.834e-6
-1.267, -2.755e-6
-1.266, -2.922e-6
-1.265, -2.745e-6
-1.264, -2.893e-6
-1.263, -2.745e-6
-1.262, -2.735e-6
-1.261, -2.735e-6
-1.260, -2.616e-6
-1.259, -3.129e-6
-1.258, -2.774e-6
-1.257, -2.784e-6
-1.256, -2.912e-6
-1.255, -2.991e-6
-1.254, -2.814e-6
-1.253, -2.735e-6
-1.252, -2.853e-6
-1.251, -2.893e-6
-1.250, -2.804e-6
-1.249, -3.031e-6
-1.248, -2.912e-6
-1.247, -2.695e-6
-1.246, -3.179e-6
-1.245, -3.031e-6
-1.244, -2.834e-6
-1.243, -2.587e-6
-1.242, -2.991e-6
-1.241, -2.883e-6
-1.240, -2.972e-6
-1.239, -3.238e-6
-1.238, -3.060e-6
-1.237, -2.666e-6
-1.236, -3.090e-6
-1.235, -2.962e-6
-1.234, -3.051e-6
-1.233, -3.070e-6
-1.232, -3.149e-6
-1.231, -3.011e-6
-1.230, -3.021e-6
-1.229, -3.356e-6
-1.228, -3.090e-6
-1.227, -3.189e-6
-1.226, -3.416e-6
-1.225, -3.120e-6
-1.224, -3.090e-6
-1.223, -3.218e-6
-1.222, -3.248e-6
-1.221, -3.228e-6
-1.220, -3.179e-6
-1.219, -3.583e-6
-1.218, -3.307e-6
-1.217, -3.080e-6
-1.216, -3.652e-6
-1.215, -3.189e-6
-1.214, -3.051e-6
-1.213, -3.307e-6
-1.212, -3.139e-6
-1.211, -3.189e-6
-1.210, -3.376e-6
-1.209, -3.583e-6
-1.208, -3.386e-6
-1.207, -3.070e-6
-1.206, -3.583e-6
-1.205, -3.317e-6
-1.204, -3.139e-6
-1.203, -3.465e-6
-1.202, -3.485e-6
-1.201, -3.406e-6
-1.200, -3.238e-6
-1.199, -3.662e-6
-1.198, -3.416e-6
-1.197, -3.327e-6
-1.196, -3.672e-6
-1.195, -3.396e-6
-1.194, -3.435e-6
-1.193, -3.268e-6
-1.192, -3.416e-6
-1.191, -3.337e-6
-1.190, -3.347e-6
-1.189, -3.810e-6
-1.188, -3.495e-6
-1.187, -3.277e-6
-1.186, -3.790e-6
-1.185, -3.425e-6
-1.184, -3.583e-6
-1.183, -3.406e-6
-1.182, -3.623e-6
-1.181, -3.425e-6
-1.180, -3.277e-6
-1.179, -3.524e-6
-1.178, -3.485e-6
-1.177, -3.514e-6
-1.176, -3.889e-6
-1.175, -3.386e-6
-1.174, -3.573e-6
-1.173, -3.879e-6
-1.172, -3.287e-6
-1.171, -3.879e-6
-1.170, -3.603e-6
-1.169, -3.850e-6
-1.168, -3.514e-6
-1.167, -3.376e-6
-1.166, -3.909e-6
-1.165, -3.692e-6
-1.164, -3.672e-6
-1.163, -3.633e-6
-1.162, -3.633e-6
-1.161, -3.672e-6
-1.160, -3.909e-6
-1.159, -3.850e-6
-1.158, -3.544e-6
-1.157, -3.593e-6
-1.156, -3.613e-6
-1.155, -3.544e-6
-1.154, -3.623e-6
-1.153, -3.781e-6
-1.152, -3.958e-6
-1.151, -3.672e-6
-1.150, -3.909e-6
-1.149, -3.781e-6
-1.148, -3.514e-6
-1.147, -3.416e-6
-1.146, -3.978e-6
-1.145, -3.682e-6
-1.144, -3.613e-6
-1.143, -3.850e-6
-1.142, -3.929e-6
-1.141, -3.731e-6
-1.140, -3.761e-6
-1.139, -3.860e-6
-1.138, -3.771e-6
-1.137, -3.810e-6
-1.136, -4.116e-6
-1.135, -3.800e-6
-1.134, -3.800e-6
-1.133, -3.850e-6
-1.132, -3.968e-6
-1.131, -3.899e-6
-1.130, -3.879e-6
-1.129, -4.027e-6
-1.128, -3.751e-6
-1.127, -3.899e-6
-1.126, -4.205e-6
-1.125, -3.869e-6
-1.124, -3.948e-6
-1.123, -3.978e-6
-1.122, -4.136e-6
-1.121, -3.771e-6
-1.120, -3.938e-6
-1.119, -3.978e-6
-1.118, -3.820e-6
-1.117, -3.672e-6
-1.116, -4.234e-6
-1.115, -4.205e-6
-1.114, -3.978e-6
-1.113, -4.106e-6
-1.112, -3.998e-6
-1.111, -4.175e-6
-1.110, -4.077e-6
-1.109, -4.037e-6
-1.108, -3.869e-6
-1.107, -3.790e-6
-1.106, -4.669e-6
-1.105, -3.889e-6
-1.104, -4.156e-6
-1.103, -4.244e-6
-1.102, -4.126e-6
-1.101, -4.146e-6
-1.100, -4.126e-6
-1.099, -4.343e-6
-1.098, -4.106e-6
-1.097, -4.077e-6
-1.096, -4.353e-6
-1.095, -4.077e-6
-1.094, -4.205e-6
-1.093, -4.037e-6
-1.092, -4.313e-6
-1.091, -4.215e-6
-1.090, -4.126e-6
-1.089, -4.057e-6
-1.088, -4.165e-6
-1.087, -3.889e-6
-1.086, -4.452e-6
-1.085, -4.264e-6
-1.084, -4.096e-6
-1.083, -4.185e-6
-1.082, -4.294e-6
-1.081, -4.195e-6
-1.080, -4.205e-6
-1.079, -4.442e-6
-1.078, -4.461e-6
-1.077, -4.244e-6
-1.076, -4.313e-6
-1.075, -4.382e-6
-1.074, -4.294e-6
-1.073, -4.284e-6
-1.072, -4.461e-6
-1.071, -4.215e-6
-1.070, -4.343e-6
-1.069, -4.669e-6
-1.068, -4.294e-6
-1.067, -4.471e-6
-1.066, -4.580e-6
-1.065, -4.422e-6
-1.064, -4.471e-6
-1.063, -4.481e-6
-1.062, -4.521e-6
-1.061, -4.392e-6
-1.060, -4.333e-6
-1.059, -4.609e-6
-1.058, -4.580e-6
-1.057, -4.530e-6
-1.056, -4.807e-6
-1.055, -4.452e-6
-1.054, -4.747e-6
-1.053, -4.530e-6
-1.052, -4.540e-6
-1.051, -4.452e-6
-1.050, -4.550e-6
-1.049, -4.935e-6
-1.048, -4.945e-6
-1.047, -4.590e-6
-1.046, -5.004e-6
-1.045, -4.718e-6
-1.044, -4.767e-6
-1.043, -4.886e-6
-1.042, -4.787e-6
-1.041, -4.678e-6
-1.040, -4.994e-6
-1.039, -4.955e-6
-1.038, -4.688e-6
-1.037, -4.895e-6
-1.036, -5.093e-6
-1.035, -4.747e-6
-1.034, -4.935e-6
-1.033, -4.846e-6
-1.032, -4.935e-6
-1.031, -4.876e-6
-1.030, -4.876e-6
-1.029, -5.122e-6
-1.028, -4.984e-6
-1.027, -4.738e-6
-1.026, -5.339e-6
-1.025, -5.103e-6
-1.024, -5.043e-6
-1.023, -5.231e-6
-1.022, -5.004e-6
-1.021, -5.201e-6
-1.020, -5.014e-6
-1.019, -5.122e-6
-1.018, -5.014e-6
-1.017, -4.915e-6
-1.016, -5.093e-6
-1.015, -5.083e-6
-1.014, -4.915e-6
-1.013, -5.142e-6
-1.012, -5.182e-6
-1.011, -5.290e-6
-1.010, -5.083e-6
-1.009, -5.211e-6
-1.008, -5.152e-6
-1.007, -5.182e-6
-1.006, -5.665e-6
-1.005, -5.221e-6
-1.004, -5.231e-6
-1.003, -5.320e-6
-1.002, -5.438e-6
-1.001, -5.448e-6
