Potential V vs RHE, Current mA cm-2
0.013299999999999867,3.2693978139880997
0.012299999999999978,2.4842330425630044
0.011299999999999866,1.7867803717295414
0.010299999999999976,1.0881959318561862
0.009299999999999864,0.5211796428702795
0.008299999999999974,0.04140859974704963
0.007299999999999862,-0.3511313446265021
0.006299999999999972,-0.7001406223032067
0.00529999999999986,-1.0925815368857679
0.0042999999999999705,-1.4854468648582886
0.0032999999999998586,-1.92117794521672
0.0022999999999999687,-2.4007650758709675
0.0012999999999998568,-2.794054817233447
0.00029999999999996696,-3.1420737970002466
-0.000700000000000145,-3.403795387475278
-0.0017000000000000348,-3.623075638954359
-0.0027000000000001467,-3.884797229429391
-0.0037000000000000366,-4.1889601589003735
-0.0047000000000001485,-4.494537799671222
-0.005700000000000038,-4.887827541033701
-0.00670000000000015,-5.191990470504685
-0.00770000000000004,-5.497568111275533
-0.008700000000000152,-5.759289701750564
-0.009700000000000042,-5.977155241929781
-0.010700000000000154,-6.108723392817228
-0.011700000000000044,-6.326588932996443
-0.012700000000000156,-6.588310523471475
-0.013700000000000045,-6.93774421453814
-0.014700000000000157,-7.28576319430494
-0.015700000000000047,-7.5474847847799715
-0.01670000000000016,-7.7653503249591855
-0.01770000000000005,-7.940774526142452
-0.01870000000000016,-8.070927965730034
-0.01970000000000005,-8.288793505909249
-0.020700000000000163,-8.508073757388331
-0.021700000000000053,-8.769795347863363
-0.022700000000000164,-9.11781432763016
-0.023700000000000054,-9.379535918105192
-0.024700000000000166,-9.641257508580225
-0.025700000000000056,-9.81668170976349
-0.026700000000000168,-9.946835149351072
-0.027700000000000058,-10.120844639234473
-0.02870000000000017,-10.296268840417738
-0.02970000000000006,-10.557990430892769
-0.03070000000000017,-10.906009410659568
-0.03170000000000006,-11.1677310011346
-0.03270000000000017,-11.42945259160963
-0.03370000000000006,-11.604876792792895
-0.034700000000000175,-11.778886282676295
-0.035700000000000065,-11.909039722263879
-0.03670000000000018,-12.12831997374296
-0.03770000000000007,-12.390041564217992
-0.03870000000000018,-12.651763154693022
-0.03970000000000007,-12.955926084164007
-0.04070000000000018,-13.261503724934855
-0.04170000000000007,-13.436927926118118
-0.04270000000000018,-13.610937416001518
-0.04370000000000007,-13.741090855589102
-0.044700000000000184,-13.960371107068182
-0.045700000000000074,-14.217848563643619
-0.046700000000000186,-14.529085049613924
-0.047700000000000076,-14.826174422585586
-0.04870000000000019,-15.137410908555893
-0.04970000000000008,-15.349617603535648
-0.05070000000000019,-15.575971411514052
-0.05170000000000008,-15.660854089505953
-0.05270000000000019,-15.830619445489761
-0.05370000000000008,-16.056973253468165
-0.05470000000000019,-16.354062626439823
-0.05570000000000008,-16.665299112410132
-0.056700000000000195,-17.018976937376394
-0.057700000000000085,-17.2736249713521
-0.058700000000000196,-17.48583166633185
-0.059700000000000086,-17.669744135314307
-0.0607000000000002,-17.839509491298113
-0.06170000000000009,-18.009274847281915
-0.0627000000000002,-18.320511333252224
-0.06370000000000009,-18.631747819222536
-0.0647000000000002,-18.97127853119014
-0.06570000000000009,-19.28251501716045
-0.0667000000000002,-19.49472171214021
-0.0677000000000001,-19.721075520118614
-0.0687000000000002,-19.848399537106463
-0.0697000000000001,-20.06060623208622
-0.07070000000000021,-20.329401379060574
-0.0717000000000001,-20.683079204026836
-0.07270000000000021,-21.022609915994444
-0.0737000000000001,-21.333846401964752
-0.07470000000000021,-21.58849443594046
-0.0757000000000001,-21.814848243918867
-0.07670000000000021,-21.98461359990267
-0.0777000000000001,-22.15437895588647
-0.07870000000000021,-22.38073276386488
-0.0797000000000001,-22.72026347583249
-0.08070000000000022,-23.15882397879065
-0.0817000000000001,-23.55494314275286
-0.08270000000000022,-23.908620967719123
-0.08370000000000011,-24.120827662698876
-0.08470000000000022,-24.290593018682678
-0.08570000000000011,-24.432064148669184
-0.08670000000000022,-24.686712182644893
-0.08770000000000011,-25.04039000761115
-0.08870000000000022,-25.43650917157336
-0.08970000000000011,-25.86092256153287
-0.09070000000000022,-26.21460038649913
-0.09170000000000011,-26.568278211465387
-0.09270000000000023,-26.780484906445146
-0.09370000000000012,-26.907808923433
-0.09470000000000023,-27.091721392415455
-0.09570000000000012,-27.34636942639116
-0.09670000000000023,-27.65760591236147
-0.09770000000000012,-28.05372507632368
-0.09870000000000023,-28.393255788291288
-0.09970000000000012,-28.662050935265643
-0.10070000000000023,-28.91669896924135
-0.10170000000000012,-29.14305277721976
-0.10270000000000024,-29.31281813320356
-0.10370000000000013,-29.581613280177915
-0.10470000000000024,-29.921143992145527
-0.10570000000000013,-30.274821817111786
-0.10670000000000024,-30.614352529079397
-0.10770000000000013,-30.88314767605375
-0.10870000000000024,-31.137795710029454
-0.10970000000000013,-31.36414951800786
-0.11070000000000024,-31.533914873991666
-0.11170000000000013,-31.717827342974125
-0.11270000000000002,-32.05735805494172
-0.11370000000000013,-32.368594540912035
-0.11470000000000002,-32.807155043870196
-0.11570000000000014,-33.10424441684186
-0.11670000000000003,-33.41548090281216
-0.11770000000000014,-33.627687597791926
-0.11870000000000003,-33.81160006677438
-0.11970000000000014,-34.02380676175414
-0.12070000000000003,-34.33504324772444
-0.12170000000000014,-34.67457395969205
-0.12270000000000003,-35.11313446265021
-0.12370000000000014,-35.50925362661242
-0.12470000000000003,-35.848784338580025
-0.12570000000000014,-36.07513814655844
-0.12670000000000003,-36.244903502542236
-0.12770000000000015,-36.47125731052064
-0.12870000000000004,-36.6834640055004
-0.12970000000000015,-36.99470049147071
-0.13070000000000004,-37.334231203438314
-0.13170000000000015,-37.687909028404576
-0.13270000000000004,-38.04158685337084
-0.13370000000000015,-38.29623488734655
-0.13470000000000004,-38.5650300343209
-0.13570000000000015,-38.777236729300654
-0.13670000000000004,-39.046031876275016
-0.13770000000000016,-39.34312124924667
-0.13870000000000005,-39.696799074212926
-0.13970000000000016,-40.092918238175145
-0.14070000000000005,-40.4748902891387
-0.14170000000000016,-40.743685436113054
-0.14270000000000005,-40.99833347008877
-0.14370000000000016,-41.22468727806717
-0.14470000000000005,-41.43689397304693
-0.14570000000000016,-41.70568912002128
-0.14670000000000005,-42.00277849299294
-0.14770000000000016,-42.39889765695515
-0.14870000000000005,-42.71013414292546
-0.14970000000000017,-43.007223515897124
-0.15070000000000006,-43.23357732387552
-0.15170000000000017,-43.44578401885527
-0.15270000000000006,-43.70043205283099
-0.15370000000000017,-43.96922719980534
-0.15470000000000006,-44.3229050247716
-0.15570000000000017,-44.74731841473111
-0.15670000000000006,-45.143437578693316
-0.15770000000000017,-45.497115403659585
-0.15870000000000006,-45.70932209863933
-0.15970000000000018,-45.93567590661774
-0.16070000000000007,-46.10544126260155
-0.16170000000000018,-46.3176479575813
-0.16270000000000007,-46.628884443551605
-0.16370000000000018,-46.982562268517874
-0.16470000000000007,-47.36453431948143
-0.16570000000000018,-47.71821214444768
-0.16670000000000007,-48.029448630417996
-0.16770000000000018,-48.24165532539775
-0.16870000000000007,-48.45386202037751
-0.16970000000000018,-48.72265716735186
-0.17070000000000007,-49.03389365332217
-0.17170000000000019,-49.41586570428573
-0.17270000000000008,-49.81198486824794
-0.1737000000000002,-50.20810403221015
-0.17470000000000008,-50.42031072718991
-0.1757000000000002,-50.64666453516831
-0.17670000000000008,-50.85887123014807
-0.1777000000000002,-51.127666377122424
-0.17870000000000008,-51.33987307210218
-0.1797000000000002,-51.65110955807249
-0.18070000000000008,-51.990640270040096
-0.1817000000000002,-52.34431809500636
-0.18270000000000008,-52.74043725896857
-0.1837000000000002,-52.995085292944275
-0.1847000000000001,-53.26388043991864
-0.1857000000000002,-53.476087134898386
-0.1867000000000001,-53.74488228187274
-0.1877000000000002,-54.0419716548444
-0.1887000000000001,-54.39564947981066
-0.1897000000000002,-54.791768643772876
-0.1907000000000001,-55.13129935574048
-0.1917000000000001,-55.357653163718886
-0.19269999999999998,-55.56985985869864
-0.1937000000000001,-55.6971838756865
-0.19469999999999998,-55.9235376836649
-0.1957000000000001,-56.1781857176406
-0.19669999999999999,-56.53186354260687
-0.1977000000000001,-56.927982706569075
-0.1987,-57.26751341853669
-0.1997000000000001,-57.53630856551105
-0.2007,-57.70607392149485
-0.2017000000000001,-57.8333979384827
-0.2027,-57.974869068469204
-0.2037000000000001,-58.14463442445301
-0.2047,-58.45587091042332
-0.2057000000000001,-58.79540162239092
-0.2067,-59.10663810836124
-0.2077000000000001,-59.44616882032884
-0.2087,-59.67252262830725
-0.2097000000000001,-59.842287984291055
-0.2107,-60.06864179226946
-0.2117000000000001,-60.32328982624517
-0.2127,-60.67696765121143
-0.2137000000000001,-61.11552815416958
-0.2147,-61.49750020513315
-0.2157000000000001,-61.851178030099405
-0.2167,-62.02094338608321
-0.21770000000000012,-62.20485585506566
-0.2187,-62.20485585506566
-0.21970000000000012,-62.33217987205352
-0.2207,-62.544386567033264
-0.22170000000000012,-62.81318171400764
-0.2227,-63.15271242597524
-0.22370000000000012,-63.46394891194555
-0.2247,-63.732744058919906
-0.22570000000000012,-63.944950753899654
-0.2267,-64.02983343189156
-0.22770000000000012,-64.19959878787537
-0.22870000000000001,-64.42595259585376
-0.22970000000000013,-64.72304196882543
-0.23070000000000002,-65.0767197937917
-0.23170000000000013,-65.34551494076604
-0.23270000000000002,-65.60016297474175
-0.23370000000000013,-65.76992833072556
-0.23470000000000002,-65.86895812171612
-0.23570000000000013,-65.91139946071206
-0.23670000000000002,-66.08116481669586
-0.2376999999999999,-66.43484264166212
-0.23870000000000002,-66.73193201463377
-0.2396999999999999,-67.00072716160814
-0.24070000000000003,-67.128051178596
-0.24169999999999991,-67.08560983960004
-0.24270000000000003,-67.04316850060408
-0.24369999999999992,-66.9582858226122
-0.24470000000000003,-67.04316850060408
-0.24569999999999992,-67.21293385658788
-0.24670000000000003,-67.52417034255821
-0.24769999999999992,-67.86370105452582
-0.24870000000000003,-68.17493754049613
-0.24969999999999992,-68.44373268747047
-0.25070000000000003,-68.61349804345427
-0.2516999999999999,-68.69838072144618
-0.25270000000000004,-68.78326339943808
-0.2536999999999999,-68.96717586842054
-0.25470000000000004,-69.13694122440434
-0.2556999999999999,-69.39158925838004
-0.25670000000000004,-69.61794306635846
-0.25769999999999993,-69.74526708334632
-0.25870000000000004,-69.78770842234226
-0.25969999999999993,-69.87259110033416
-0.26070000000000004,-69.91503243933012
-0.26169999999999993,-70.01406223032066
-0.26270000000000004,-70.26871026429637
-0.26369999999999993,-70.57994675026669
-0.26470000000000005,-70.87703612323833
-0.26569999999999994,-71.10338993121674
-0.26670000000000005,-71.2307139482046
-0.26769999999999994,-71.27315528720055
-0.26870000000000005,-71.31559662619651
-0.26969999999999994,-71.35803796519245
-0.27070000000000005,-71.48536198218031
-0.27169999999999994,-71.6268331121668
-0.27270000000000005,-71.83903980714656
-0.27369999999999994,-72.00880516313036
-0.27470000000000006,-72.10783495412092
-0.27569999999999995,-72.10783495412092
-0.27670000000000006,-72.00880516313036
-0.27769999999999995,-72.00880516313036
-0.27870000000000006,-72.05124650212633
-0.27969999999999995,-72.15027629311687
-0.28070000000000006,-72.32004164910067
-0.28169999999999995,-72.40492432709259
-0.28270000000000006,-72.48980700508447
-0.28369999999999995,-72.48980700508447
-0.28470000000000006,-72.48980700508447
-0.28569999999999995,-72.44736566608852
-0.28670000000000007,-72.44736566608852
-0.28769999999999996,-72.53224834408043
-0.28870000000000007,-72.63127813507097
-0.28969999999999996,-72.75860215205884
-0.29070000000000007,-72.8859261690467
-0.29169999999999996,-73.197162655017
-0.29270000000000007,-73.197162655017
-0.29369999999999996,-72.8859261690467
-0.2947000000000001,-72.53224834408043
-0.29569999999999996,-72.40492432709259
-0.2967000000000001,-72.44736566608852
-0.29769999999999996,-72.71616081306288
-0.2987000000000001,-73.01325018603454
-0.29969999999999997,-73.15472131602105
-0.3007000000000001,-73.0556915250305
-0.30169999999999997,-72.84348483005074
-0.3027000000000001,-72.67371947406694
-0.30369999999999997,-72.53224834408043
-0.3047000000000001,-72.57468968307639
-0.30569999999999997,-72.71616081306288
-0.3067000000000001,-72.80104349105478
-0.3077,-72.92836750804264
-0.3087000000000001,-72.97080884703858
-0.3097,-72.8859261690467
-0.3107000000000001,-72.75860215205884
-0.3117,-72.63127813507097
-0.3127000000000001,-72.40492432709259
-0.3137,-72.23515897110877
-0.3147000000000001,-72.05124650212633
-0.3157,-71.8814811461425
-0.3167000000000001,-71.75415712915466
-0.3177,-71.58439177317086
-0.3187000000000001,-71.35803796519245
-0.3197,-71.18827260920865
-0.3207000000000001,-71.06094859222078
-0.3217,-70.96191880123024
-0.3227000000000001,-70.8345947842424
-0.3237,-70.74971210625048
-0.3247000000000001,-70.66482942825859
-0.3257,-70.53750541127073
-0.3267000000000001,-70.31115160329232
-0.3277,-70.14138624730852
-0.3287000000000001,-69.95747377832606
-0.3297,-69.78770842234226
-0.3307000000000001,-69.70282574435035
-0.3317,-69.61794306635846
-0.3327000000000001,-69.53306038836655
-0.3337,-69.3491479193841
-0.3347000000000001,-69.22182390239624
-0.3357,-69.0096172074165
-0.3367000000000001,-68.78326339943808
-0.3377,-68.61349804345427
-0.3387000000000001,-68.48617402646643
-0.3397,-68.34470289647993
-0.3407000000000001,-68.25982021848802
-0.3417,-68.13249620150016
-0.3427000000000001,-68.0051721845123
-0.3437,-68.0900548625042
-0.3447000000000001,-68.0900548625042
-0.3457,-68.13249620150016
-0.3467000000000001,-68.0900548625042
-0.3477,-68.13249620150016
-0.3487000000000001,-68.04761352350828
-0.3497,-67.9202895065204
-0.3507000000000001,-67.693935698542
-0.3517,-67.43928766456631
-0.3527000000000001,-67.21293385658788
-0.3537,-67.00072716160814
-0.3547000000000001,-66.91584448361623
-0.3557,-66.87340314462028
-0.35670000000000013,-66.77437335362974
-0.3577,-66.64704933664189
-0.35870000000000013,-66.47728398065809
-0.3597,-66.25093017267966
-0.36070000000000013,-66.03872347769992
-0.3617,-65.82651678272015
-0.3626999999999999,-65.7274869917296
-0.3637,-65.64260431373769
-0.3646999999999999,-65.60016297474175
-0.3657,-65.5577216357458
-0.3666999999999999,-65.43039761875795
-0.3677,-65.2464851497755
-0.3686999999999999,-65.03427845479574
-0.36970000000000003,-64.90695443780788
-0.3706999999999999,-64.86451309881193
-0.37170000000000003,-64.86451309881193
-0.3726999999999999,-64.90695443780788
-0.37370000000000003,-64.94939577680383
-0.3746999999999999,-64.86451309881193
-0.37570000000000003,-64.68060062982947
-0.3766999999999999,-64.46839393484973
-0.37770000000000004,-64.34106991786187
-0.3786999999999999,-64.25618723986996
-0.37970000000000004,-64.25618723986996
-0.3806999999999999,-64.25618723986996
-0.38170000000000004,-64.19959878787537
-0.38269999999999993,-64.15715744887942
-0.38370000000000004,-64.11471610988345
-0.38469999999999993,-63.902509414903705
-0.38570000000000004,-63.633714267929356
-0.38669999999999993,-63.3366248949577
-0.38770000000000004,-63.29418355596174
-0.38869999999999993,-63.29418355596174
-0.38970000000000005,-63.421507572949594
-0.39069999999999994,-63.59127292893339
-0.39170000000000005,-63.732744058919906
-0.39269999999999994,-63.732744058919906
-0.39370000000000005,-63.633714267929356
-0.39469999999999994,-63.5063902509415
-0.39570000000000005,-63.421507572949594
-0.39669999999999994,-63.37906623395363
-0.39770000000000005,-63.46394891194555
-0.39869999999999994,-63.59127292893339
-0.39970000000000006,-63.6761556069253
-0.40069999999999995,-63.732744058919906
-0.40170000000000006,-63.633714267929356
-0.40269999999999995,-63.54883158993744
-0.40370000000000006,-63.46394891194555
-0.40469999999999995,-63.5063902509415
-0.40570000000000006,-63.54883158993744
-0.40669999999999995,-63.59127292893339
-0.40770000000000006,-63.633714267929356
-0.40869999999999995,-63.633714267929356
-0.40970000000000006,-63.59127292893339
-0.41069999999999995,-63.59127292893339
-0.41170000000000007,-63.59127292893339
-0.41269999999999996,-63.633714267929356
-0.41370000000000007,-63.732744058919906
-0.41469999999999996,-63.944950753899654
-0.41570000000000007,-64.11471610988345
-0.41669999999999996,-64.25618723986996
-0.41770000000000007,-64.25618723986996
-0.41869999999999996,-64.19959878787537
-0.4197000000000001,-64.11471610988345
-0.42069999999999996,-64.15715744887942
-0.4217000000000001,-64.25618723986996
-0.42269999999999996,-64.34106991786187
-0.4237000000000001,-64.42595259585376
-0.42469999999999997,-64.51083527384567
-0.4257000000000001,-64.51083527384567
-0.42669999999999997,-64.46839393484973
-0.4277000000000001,-64.51083527384567
-0.42869999999999997,-64.59571795183757
-0.4297000000000001,-64.68060062982947
-0.43069999999999997,-64.82207175981598
-0.4317000000000001,-64.94939577680383
-0.4327,-65.03427845479574
-0.4337000000000001,-65.03427845479574
-0.4347,-65.0767197937917
-0.4357000000000001,-65.16160247178358
-0.4367,-65.2464851497755
-0.4377000000000001,-65.43039761875795
-0.4387,-65.60016297474175
-0.4397000000000001,-65.76992833072556
-0.4407,-65.95384079970802
-0.4417000000000001,-66.03872347769992
-0.4427,-66.08116481669586
-0.4437000000000001,-66.16604749468777
-0.4447,-66.29337151167562
-0.4457000000000001,-66.51972531965401
-0.4467,-66.77437335362974
-0.4477000000000001,-67.08560983960004
-0.4487,-67.25537519558385
-0.4497000000000001,-67.43928766456631
-0.4507,-67.48172900356225
-0.4517000000000001,-67.52417034255821
-0.4527,-67.56661168155415
-0.4537000000000001,-67.7788183765339
-0.4547,-68.0051721845123
-0.4557000000000001,-68.30226155748396
-0.4567,-68.52861536546239
-0.4577000000000001,-68.69838072144618
-0.4587,-68.82570473843404
-0.4597000000000001,-68.86814607742998
-0.4607,-68.96717586842054
-0.4617000000000001,-69.05205854641244
-0.4627,-69.22182390239624
-0.4637000000000001,-69.39158925838004
-0.4647,-69.61794306635846
-0.4657000000000001,-69.78770842234226
-0.4667,-69.87259110033416
-0.4677000000000001,-69.91503243933012
-0.4687,-69.91503243933012
-0.4697000000000001,-70.05650356931662
-0.4707,-70.18382758630447
-0.4717000000000001,-70.39603428128423
-0.4727,-70.70727076725453
-0.4737000000000001,-70.87703612323833
-0.4747,-71.0043601402262
-0.4757000000000001,-71.10338993121674
-0.4767,-71.1458312702127
-0.4777000000000001,-71.2307139482046
-0.4787,-71.35803796519245
-0.4797000000000001,-71.58439177317086
-0.4807,-71.83903980714656
-0.48170000000000013,-72.00880516313036
-0.4827,-72.19271763211282
-0.48370000000000013,-72.27760031010472
-0.4847,-72.36248298809663
-0.48570000000000013,-72.44736566608852
-0.4867,-71.8814811461425
-0.48570000000000013,-70.31115160329232
-0.4847,-69.0096172074165
-0.48370000000000013,-67.7788183765339
-0.4827,-66.60460799764593
-0.48170000000000013,-65.4728389577539
-0.4807,-64.34106991786187
-0.4797000000000001,-63.15271242597524
-0.4787,-62.06338472507916
-0.4777000000000001,-61.07308681517363
-0.4767,-60.06864179226946
-0.4757000000000001,-59.19152078635314
-0.4747,-58.31439978043681
-0.4737000000000001,-57.408984548523186
-0.4727,-56.489422203610914
-0.4717000000000001,-55.484977180706736
-0.4707,-54.56541483579447
-0.4697000000000001,-53.68829382987814
-0.4687,-52.95264395394832
-0.4677000000000001,-52.25943541701445
-0.4667,-51.55207976708194
-0.4657000000000001,-50.85887123014807
-0.4647,-50.0807800152223
-0.4637000000000001,-49.28854168729788
-0.4627,-48.51045047237211
-0.4617000000000001,-47.76065348344364
-0.4607,-47.10988628550572
-0.4597000000000001,-46.544001765559706
