Sept. 5, 2024   19:08:15
Linear Sweep Voltammetry
File: c:/users/guazh/data/20240903_batch_252_500/2024-09-03-exp272\1acid_1ac-2024-09-05t19_05_08-lsvinphos\1acid_1ac_lsv_50mvs_efin_-2100mv.bin
Data Source:  Experiment
Instrument Model:  CHI760E
Header: LSV ran at 50 mVs with Efin at -2100mV
Note: 

Init E (V) = -0.6
Final E (V) = -2.1
Scan Rate (V/s) = 0.05
Sample Interval (V) = 0.001
Quiet Time (sec) = 2
Sensitivity (A/V) = 1e-4
Comp R (ohm) = 8.1

Results:

Channel 1:
Ep = -1.984V
ip = 7.842e-4A
Ah = 1.138e-3C

Potential/V, Current/A

-0.600, 2.804e-6
-0.601, 2.918e-6
-0.602, 2.975e-6
-0.603, 3.016e-6
-0.604, 3.053e-6
-0.605, 3.089e-6
-0.606, 3.123e-6
-0.607, 3.157e-6
-0.608, 3.189e-6
-0.609, 3.223e-6
-0.610, 3.252e-6
-0.611, 3.284e-6
-0.612, 3.316e-6
-0.613, 3.347e-6
-0.614, 3.381e-6
-0.615, 3.414e-6
-0.616, 3.445e-6
-0.617, 3.477e-6
-0.618, 3.506e-6
-0.619, 3.539e-6
-0.620, 3.569e-6
-0.621, 3.603e-6
-0.622, 3.634e-6
-0.623, 3.665e-6
-0.624, 3.699e-6
-0.625, 3.731e-6
-0.626, 3.763e-6
-0.627, 3.797e-6
-0.628, 3.829e-6
-0.629, 3.863e-6
-0.630, 3.897e-6
-0.631, 3.929e-6
-0.632, 3.961e-6
-0.633, 3.995e-6
-0.634, 4.030e-6
-0.635, 4.062e-6
-0.636, 4.096e-6
-0.637, 4.129e-6
-0.638, 4.164e-6
-0.639, 4.196e-6
-0.640, 4.230e-6
-0.641, 4.264e-6
-0.642, 4.298e-6
-0.643, 4.333e-6
-0.644, 4.367e-6
-0.645, 4.402e-6
-0.646, 4.439e-6
-0.647, 4.474e-6
-0.648, 4.510e-6
-0.649, 4.548e-6
-0.650, 4.582e-6
-0.651, 4.618e-6
-0.652, 4.654e-6
-0.653, 4.690e-6
-0.654, 4.727e-6
-0.655, 4.762e-6
-0.656, 4.798e-6
-0.657, 4.836e-6
-0.658, 4.870e-6
-0.659, 4.907e-6
-0.660, 4.942e-6
-0.661, 4.980e-6
-0.662, 5.017e-6
-0.663, 5.054e-6
-0.664, 5.092e-6
-0.665, 5.127e-6
-0.666, 5.166e-6
-0.667, 5.202e-6
-0.668, 5.240e-6
-0.669, 5.277e-6
-0.670, 5.313e-6
-0.671, 5.349e-6
-0.672, 5.387e-6
-0.673, 5.423e-6
-0.674, 5.459e-6
-0.675, 5.496e-6
-0.676, 5.534e-6
-0.677, 5.571e-6
-0.678, 5.609e-6
-0.679, 5.645e-6
-0.680, 5.681e-6
-0.681, 5.719e-6
-0.682, 5.756e-6
-0.683, 5.793e-6
-0.684, 5.831e-6
-0.685, 5.866e-6
-0.686, 5.901e-6
-0.687, 5.936e-6
-0.688, 5.970e-6
-0.689, 6.008e-6
-0.690, 6.043e-6
-0.691, 6.079e-6
-0.692, 6.115e-6
-0.693, 6.150e-6
-0.694, 6.185e-6
-0.695, 6.218e-6
-0.696, 6.252e-6
-0.697, 6.287e-6
-0.698, 6.323e-6
-0.699, 6.357e-6
-0.700, 6.392e-6
-0.701, 6.425e-6
-0.702, 6.460e-6
-0.703, 6.492e-6
-0.704, 6.527e-6
-0.705, 6.561e-6
-0.706, 6.594e-6
-0.707, 6.626e-6
-0.708, 6.659e-6
-0.709, 6.692e-6
-0.710, 6.724e-6
-0.711, 6.757e-6
-0.712, 6.788e-6
-0.713, 6.818e-6
-0.714, 6.850e-6
-0.715, 6.880e-6
-0.716, 6.909e-6
-0.717, 6.940e-6
-0.718, 6.968e-6
-0.719, 6.997e-6
-0.720, 7.026e-6
-0.721, 7.055e-6
-0.722, 7.083e-6
-0.723, 7.112e-6
-0.724, 7.138e-6
-0.725, 7.165e-6
-0.726, 7.192e-6
-0.727, 7.219e-6
-0.728, 7.244e-6
-0.729, 7.269e-6
-0.730, 7.295e-6
-0.731, 7.318e-6
-0.732, 7.342e-6
-0.733, 7.364e-6
-0.734, 7.390e-6
-0.735, 7.411e-6
-0.736, 7.434e-6
-0.737, 7.457e-6
-0.738, 7.477e-6
-0.739, 7.500e-6
-0.740, 7.519e-6
-0.741, 7.539e-6
-0.742, 7.560e-6
-0.743, 7.578e-6
-0.744, 7.599e-6
-0.745, 7.618e-6
-0.746, 7.634e-6
-0.747, 7.654e-6
-0.748, 7.670e-6
-0.749, 7.687e-6
-0.750, 7.704e-6
-0.751, 7.720e-6
-0.752, 7.736e-6
-0.753, 7.749e-6
-0.754, 7.764e-6
-0.755, 7.779e-6
-0.756, 7.791e-6
-0.757, 7.804e-6
-0.758, 7.815e-6
-0.759, 7.826e-6
-0.760, 7.838e-6
-0.761, 7.851e-6
-0.762, 7.860e-6
-0.763, 7.870e-6
-0.764, 7.880e-6
-0.765, 7.889e-6
-0.766, 7.898e-6
-0.767, 7.905e-6
-0.768, 7.915e-6
-0.769, 7.925e-6
-0.770, 7.928e-6
-0.771, 7.937e-6
-0.772, 7.941e-6
-0.773, 7.946e-6
-0.774, 7.952e-6
-0.775, 7.955e-6
-0.776, 7.959e-6
-0.777, 7.964e-6
-0.778, 7.967e-6
-0.779, 7.970e-6
-0.780, 7.972e-6
-0.781, 7.974e-6
-0.782, 7.977e-6
-0.783, 7.977e-6
-0.784, 7.978e-6
-0.785, 7.978e-6
-0.786, 7.977e-6
-0.787, 7.977e-6
-0.788, 7.976e-6
-0.789, 7.976e-6
-0.790, 7.974e-6
-0.791, 7.971e-6
-0.792, 7.969e-6
-0.793, 7.966e-6
-0.794, 7.964e-6
-0.795, 7.962e-6
-0.796, 7.958e-6
-0.797, 7.953e-6
-0.798, 7.949e-6
-0.799, 7.943e-6
-0.800, 7.939e-6
-0.801, 7.935e-6
-0.802, 7.927e-6
-0.803, 7.921e-6
-0.804, 7.916e-6
-0.805, 7.909e-6
-0.806, 7.903e-6
-0.807, 7.897e-6
-0.808, 7.889e-6
-0.809, 7.883e-6
-0.810, 7.873e-6
-0.811, 7.867e-6
-0.812, 7.859e-6
-0.813, 7.849e-6
-0.814, 7.842e-6
-0.815, 7.833e-6
-0.816, 7.823e-6
-0.817, 7.815e-6
-0.818, 7.805e-6
-0.819, 7.801e-6
-0.820, 7.792e-6
-0.821, 7.782e-6
-0.822, 7.772e-6
-0.823, 7.761e-6
-0.824, 7.750e-6
-0.825, 7.740e-6
-0.826, 7.729e-6
-0.827, 7.719e-6
-0.828, 7.707e-6
-0.829, 7.696e-6
-0.830, 7.683e-6
-0.831, 7.672e-6
-0.832, 7.662e-6
-0.833, 7.651e-6
-0.834, 7.638e-6
-0.835, 7.627e-6
-0.836, 7.616e-6
-0.837, 7.603e-6
-0.838, 7.592e-6
-0.839, 7.580e-6
-0.840, 7.567e-6
-0.841, 7.555e-6
-0.842, 7.543e-6
-0.843, 7.532e-6
-0.844, 7.521e-6
-0.845, 7.508e-6
-0.846, 7.496e-6
-0.847, 7.482e-6
-0.848, 7.470e-6
-0.849, 7.459e-6
-0.850, 7.446e-6
-0.851, 7.434e-6
-0.852, 7.422e-6
-0.853, 7.408e-6
-0.854, 7.397e-6
-0.855, 7.383e-6
-0.856, 7.372e-6
-0.857, 7.360e-6
-0.858, 7.347e-6
-0.859, 7.336e-6
-0.860, 7.323e-6
-0.861, 7.311e-6
-0.862, 7.300e-6
-0.863, 7.287e-6
-0.864, 7.275e-6
-0.865, 7.262e-6
-0.866, 7.250e-6
-0.867, 7.239e-6
-0.868, 7.227e-6
-0.869, 7.215e-6
-0.870, 7.204e-6
-0.871, 7.194e-6
-0.872, 7.181e-6
-0.873, 7.168e-6
-0.874, 7.155e-6
-0.875, 7.143e-6
-0.876, 7.132e-6
-0.877, 7.120e-6
-0.878, 7.107e-6
-0.879, 7.096e-6
-0.880, 7.084e-6
-0.881, 7.072e-6
-0.882, 7.060e-6
-0.883, 7.049e-6
-0.884, 7.038e-6
-0.885, 7.026e-6
-0.886, 7.016e-6
-0.887, 7.003e-6
-0.888, 6.992e-6
-0.889, 6.981e-6
-0.890, 6.971e-6
-0.891, 6.960e-6
-0.892, 6.947e-6
-0.893, 6.936e-6
-0.894, 6.926e-6
-0.895, 6.915e-6
-0.896, 6.906e-6
-0.897, 6.896e-6
-0.898, 6.884e-6
-0.899, 6.874e-6
-0.900, 6.865e-6
-0.901, 6.854e-6
-0.902, 6.844e-6
-0.903, 6.833e-6
-0.904, 6.823e-6
-0.905, 6.813e-6
-0.906, 6.803e-6
-0.907, 6.793e-6
-0.908, 6.783e-6
-0.909, 6.773e-6
-0.910, 6.763e-6
-0.911, 6.754e-6
-0.912, 6.744e-6
-0.913, 6.734e-6
-0.914, 6.724e-6
-0.915, 6.715e-6
-0.916, 6.706e-6
-0.917, 6.697e-6
-0.918, 6.688e-6
-0.919, 6.679e-6
-0.920, 6.669e-6
-0.921, 6.662e-6
-0.922, 6.653e-6
-0.923, 6.644e-6
-0.924, 6.635e-6
-0.925, 6.624e-6
-0.926, 6.618e-6
-0.927, 6.609e-6
-0.928, 6.600e-6
-0.929, 6.594e-6
-0.930, 6.583e-6
-0.931, 6.576e-6
-0.932, 6.567e-6
-0.933, 6.559e-6
-0.934, 6.552e-6
-0.935, 6.542e-6
-0.936, 6.535e-6
-0.937, 6.528e-6
-0.938, 6.518e-6
-0.939, 6.512e-6
-0.940, 6.504e-6
-0.941, 6.496e-6
-0.942, 6.489e-6
-0.943, 6.480e-6
-0.944, 6.475e-6
-0.945, 6.467e-6
-0.946, 6.459e-6
-0.947, 6.453e-6
-0.948, 6.445e-6
-0.949, 6.438e-6
-0.950, 6.431e-6
-0.951, 6.424e-6
-0.952, 6.417e-6
-0.953, 6.410e-6
-0.954, 6.404e-6
-0.955, 6.397e-6
-0.956, 6.389e-6
-0.957, 6.383e-6
-0.958, 6.376e-6
-0.959, 6.370e-6
-0.960, 6.364e-6
-0.961, 6.358e-6
-0.962, 6.350e-6
-0.963, 6.344e-6
-0.964, 6.339e-6
-0.965, 6.332e-6
-0.966, 6.327e-6
-0.967, 6.320e-6
-0.968, 6.314e-6
-0.969, 6.309e-6
-0.970, 6.302e-6
-0.971, 6.297e-6
-0.972, 6.291e-6
-0.973, 6.286e-6
-0.974, 6.281e-6
-0.975, 6.274e-6
-0.976, 6.268e-6
-0.977, 6.262e-6
-0.978, 6.256e-6
-0.979, 6.252e-6
-0.980, 6.246e-6
-0.981, 6.241e-6
-0.982, 6.236e-6
-0.983, 6.230e-6
-0.984, 6.226e-6
-0.985, 6.221e-6
-0.986, 6.217e-6
-0.987, 6.212e-6
-0.988, 6.206e-6
-0.989, 6.202e-6
-0.990, 6.196e-6
-0.991, 6.193e-6
-0.992, 6.188e-6
-0.993, 6.183e-6
-0.994, 6.178e-6
-0.995, 6.174e-6
-0.996, 6.170e-6
-0.997, 6.164e-6
-0.998, 6.161e-6
-0.999, 6.157e-6
-1.000, 6.152e-6
-1.001, 6.150e-6
-1.002, 6.143e-6
-1.003, 6.138e-6
-1.004, 6.134e-6
-1.005, 6.130e-6
-1.006, 6.126e-6
-1.007, 6.122e-6
-1.008, 6.118e-6
-1.009, 6.114e-6
-1.010, 6.109e-6
-1.011, 6.106e-6
-1.012, 6.101e-6
-1.013, 6.096e-6
-1.014, 6.093e-6
-1.015, 6.088e-6
-1.016, 6.085e-6
-1.017, 6.080e-6
-1.018, 6.076e-6
-1.019, 6.073e-6
-1.020, 6.069e-6
-1.021, 6.064e-6
-1.022, 6.062e-6
-1.023, 6.057e-6
-1.024, 6.057e-6
-1.025, 6.053e-6
-1.026, 6.049e-6
-1.027, 6.045e-6
-1.028, 6.041e-6
-1.029, 6.039e-6
-1.030, 6.035e-6
-1.031, 6.032e-6
-1.032, 6.028e-6
-1.033, 6.026e-6
-1.034, 6.021e-6
-1.035, 6.017e-6
-1.036, 6.014e-6
-1.037, 6.012e-6
-1.038, 6.009e-6
-1.039, 6.005e-6
-1.040, 6.004e-6
-1.041, 6.000e-6
-1.042, 5.997e-6
-1.043, 5.994e-6
-1.044, 5.993e-6
-1.045, 5.989e-6
-1.046, 5.987e-6
-1.047, 5.984e-6
-1.048, 5.980e-6
-1.049, 5.978e-6
-1.050, 5.976e-6
-1.051, 5.974e-6
-1.052, 5.971e-6
-1.053, 5.969e-6
-1.054, 5.967e-6
-1.055, 5.963e-6
-1.056, 5.962e-6
-1.057, 5.959e-6
-1.058, 5.956e-6
-1.059, 5.955e-6
-1.060, 5.953e-6
-1.061, 5.952e-6
-1.062, 5.949e-6
-1.063, 5.947e-6
-1.064, 5.946e-6
-1.065, 5.944e-6
-1.066, 5.942e-6
-1.067, 5.940e-6
-1.068, 5.939e-6
-1.069, 5.937e-6
-1.070, 5.935e-6
-1.071, 5.933e-6
-1.072, 5.932e-6
-1.073, 5.930e-6
-1.074, 5.928e-6
-1.075, 5.929e-6
-1.076, 5.929e-6
-1.077, 5.926e-6
-1.078, 5.925e-6
-1.079, 5.924e-6
-1.080, 5.922e-6
-1.081, 5.923e-6
-1.082, 5.921e-6
-1.083, 5.920e-6
-1.084, 5.919e-6
-1.085, 5.917e-6
-1.086, 5.917e-6
-1.087, 5.916e-6
-1.088, 5.916e-6
-1.089, 5.916e-6
-1.090, 5.914e-6
-1.091, 5.914e-6
-1.092, 5.914e-6
-1.093, 5.912e-6
-1.094, 5.912e-6
-1.095, 5.911e-6
-1.096, 5.912e-6
-1.097, 5.911e-6
-1.098, 5.910e-6
-1.099, 5.911e-6
-1.100, 5.911e-6
-1.101, 5.911e-6
-1.102, 5.912e-6
-1.103, 5.910e-6
-1.104, 5.910e-6
-1.105, 5.910e-6
-1.106, 5.911e-6
-1.107, 5.911e-6
-1.108, 5.910e-6
-1.109, 5.912e-6
-1.110, 5.912e-6
-1.111, 5.912e-6
-1.112, 5.913e-6
-1.113, 5.913e-6
-1.114, 5.914e-6
-1.115, 5.914e-6
-1.116, 5.916e-6
-1.117, 5.916e-6
-1.118, 5.916e-6
-1.119, 5.916e-6
-1.120, 5.918e-6
-1.121, 5.919e-6
-1.122, 5.919e-6
-1.123, 5.921e-6
-1.124, 5.923e-6
-1.125, 5.923e-6
-1.126, 5.925e-6
-1.127, 5.927e-6
-1.128, 5.926e-6
-1.129, 5.929e-6
-1.130, 5.930e-6
-1.131, 5.932e-6
-1.132, 5.932e-6
-1.133, 5.934e-6
-1.134, 5.936e-6
-1.135, 5.937e-6
-1.136, 5.939e-6
-1.137, 5.941e-6
-1.138, 5.943e-6
-1.139, 5.946e-6
-1.140, 5.947e-6
-1.141, 5.949e-6
-1.142, 5.951e-6
-1.143, 5.953e-6
-1.144, 5.956e-6
-1.145, 5.958e-6
-1.146, 5.961e-6
-1.147, 5.963e-6
-1.148, 5.965e-6
-1.149, 5.969e-6
-1.150, 5.971e-6
-1.151, 5.973e-6
-1.152, 5.977e-6
-1.153, 5.980e-6
-1.154, 5.982e-6
-1.155, 5.986e-6
-1.156, 5.989e-6
-1.157, 5.991e-6
-1.158, 5.995e-6
-1.159, 5.998e-6
-1.160, 6.001e-6
-1.161, 6.006e-6
-1.162, 6.008e-6
-1.163, 6.012e-6
-1.164, 6.015e-6
-1.165, 6.019e-6
-1.166, 6.023e-6
-1.167, 6.026e-6
-1.168, 6.030e-6
-1.169, 6.035e-6
-1.170, 6.036e-6
-1.171, 6.042e-6
-1.172, 6.045e-6
-1.173, 6.047e-6
-1.174, 6.052e-6
-1.175, 6.057e-6
-1.176, 6.061e-6
-1.177, 6.066e-6
-1.178, 6.071e-6
-1.179, 6.075e-6
-1.180, 6.078e-6
-1.181, 6.083e-6
-1.182, 6.087e-6
-1.183, 6.091e-6
-1.184, 6.096e-6
-1.185, 6.100e-6
-1.186, 6.105e-6
-1.187, 6.109e-6
-1.188, 6.113e-6
-1.189, 6.117e-6
-1.190, 6.124e-6
-1.191, 6.130e-6
-1.192, 6.134e-6
-1.193, 6.139e-6
-1.194, 6.142e-6
-1.195, 6.148e-6
-1.196, 6.152e-6
-1.197, 6.157e-6
-1.198, 6.163e-6
-1.199, 6.167e-6
-1.200, 6.172e-6
-1.201, 6.178e-6
-1.202, 6.182e-6
-1.203, 6.188e-6
-1.204, 6.193e-6
-1.205, 6.197e-6
-1.206, 6.203e-6
-1.207, 6.207e-6
-1.208, 6.212e-6
-1.209, 6.219e-6
-1.210, 6.223e-6
-1.211, 6.231e-6
-1.212, 6.235e-6
-1.213, 6.239e-6
-1.214, 6.246e-6
-1.215, 6.250e-6
-1.216, 6.258e-6
-1.217, 6.264e-6
-1.218, 6.268e-6
-1.219, 6.276e-6
-1.220, 6.281e-6
-1.221, 6.287e-6
-1.222, 6.293e-6
-1.223, 6.300e-6
-1.224, 6.306e-6
-1.225, 6.311e-6
-1.226, 6.317e-6
-1.227, 6.323e-6
-1.228, 6.330e-6
-1.229, 6.341e-6
-1.230, 6.346e-6
-1.231, 6.351e-6
-1.232, 6.355e-6
-1.233, 6.363e-6
-1.234, 6.368e-6
-1.235, 6.375e-6
-1.236, 6.383e-6
-1.237, 6.388e-6
-1.238, 6.395e-6
-1.239, 6.401e-6
-1.240, 6.407e-6
-1.241, 6.415e-6
-1.242, 6.421e-6
-1.243, 6.429e-6
-1.244, 6.435e-6
-1.245, 6.441e-6
-1.246, 6.449e-6
-1.247, 6.454e-6
-1.248, 6.461e-6
-1.249, 6.469e-6
-1.250, 6.475e-6
-1.251, 6.483e-6
-1.252, 6.489e-6
-1.253, 6.496e-6
-1.254, 6.504e-6
-1.255, 6.510e-6
-1.256, 6.517e-6
-1.257, 6.524e-6
-1.258, 6.531e-6
-1.259, 6.540e-6
-1.260, 6.547e-6
-1.261, 6.554e-6
-1.262, 6.561e-6
-1.263, 6.568e-6
-1.264, 6.575e-6
-1.265, 6.583e-6
-1.266, 6.590e-6
-1.267, 6.597e-6
-1.268, 6.606e-6
-1.269, 6.612e-6
-1.270, 6.620e-6
-1.271, 6.628e-6
-1.272, 6.634e-6
-1.273, 6.643e-6
-1.274, 6.651e-6
-1.275, 6.658e-6
-1.276, 6.666e-6
-1.277, 6.673e-6
-1.278, 6.682e-6
-1.279, 6.690e-6
-1.280, 6.699e-6
-1.281, 6.708e-6
-1.282, 6.715e-6
-1.283, 6.722e-6
-1.284, 6.732e-6
-1.285, 6.738e-6
-1.286, 6.747e-6
-1.287, 6.754e-6
-1.288, 6.763e-6
-1.289, 6.772e-6
-1.290, 6.778e-6
-1.291, 6.787e-6
-1.292, 6.795e-6
-1.293, 6.805e-6
-1.294, 6.813e-6
-1.295, 6.821e-6
-1.296, 6.831e-6
-1.297, 6.837e-6
-1.298, 6.845e-6
-1.299, 6.854e-6
-1.300, 6.862e-6
-1.301, 6.871e-6
-1.302, 6.878e-6
-1.303, 6.886e-6
-1.304, 6.895e-6
-1.305, 6.905e-6
-1.306, 6.913e-6
-1.307, 6.922e-6
-1.308, 6.930e-6
-1.309, 6.939e-6
-1.310, 6.948e-6
-1.311, 6.957e-6
-1.312, 6.966e-6
-1.313, 6.975e-6
-1.314, 6.984e-6
-1.315, 6.993e-6
-1.316, 7.003e-6
-1.317, 7.010e-6
-1.318, 7.019e-6
-1.319, 7.029e-6
-1.320, 7.037e-6
-1.321, 7.047e-6
-1.322, 7.056e-6
-1.323, 7.065e-6
-1.324, 7.074e-6
-1.325, 7.082e-6
-1.326, 7.093e-6
-1.327, 7.102e-6
-1.328, 7.111e-6
-1.329, 7.121e-6
-1.330, 7.130e-6
-1.331, 7.141e-6
-1.332, 7.151e-6
-1.333, 7.159e-6
-1.334, 7.169e-6
-1.335, 7.178e-6
-1.336, 7.188e-6
-1.337, 7.196e-6
-1.338, 7.207e-6
-1.339, 7.216e-6
-1.340, 7.225e-6
-1.341, 7.235e-6
-1.342, 7.245e-6
-1.343, 7.253e-6
-1.344, 7.263e-6
-1.345, 7.273e-6
-1.346, 7.283e-6
-1.347, 7.292e-6
-1.348, 7.301e-6
-1.349, 7.311e-6
-1.350, 7.321e-6
-1.351, 7.331e-6
-1.352, 7.342e-6
-1.353, 7.351e-6
-1.354, 7.360e-6
-1.355, 7.370e-6
-1.356, 7.381e-6
-1.357, 7.390e-6
-1.358, 7.403e-6
-1.359, 7.411e-6
-1.360, 7.421e-6
-1.361, 7.431e-6
-1.362, 7.441e-6
-1.363, 7.452e-6
-1.364, 7.462e-6
-1.365, 7.473e-6
-1.366, 7.484e-6
-1.367, 7.494e-6
-1.368, 7.504e-6
-1.369, 7.515e-6
-1.370, 7.525e-6
-1.371, 7.536e-6
-1.372, 7.546e-6
-1.373, 7.557e-6
-1.374, 7.567e-6
-1.375, 7.576e-6
-1.376, 7.590e-6
-1.377, 7.601e-6
-1.378, 7.610e-6
-1.379, 7.622e-6
-1.380, 7.633e-6
-1.381, 7.644e-6
-1.382, 7.656e-6
-1.383, 7.669e-6
-1.384, 7.678e-6
-1.385, 7.691e-6
-1.386, 7.702e-6
-1.387, 7.713e-6
-1.388, 7.724e-6
-1.389, 7.737e-6
-1.390, 7.749e-6
-1.391, 7.760e-6
-1.392, 7.772e-6
-1.393, 7.782e-6
-1.394, 7.792e-6
-1.395, 7.806e-6
-1.396, 7.819e-6
-1.397, 7.829e-6
-1.398, 7.842e-6
-1.399, 7.853e-6
-1.400, 7.865e-6
-1.401, 7.879e-6
-1.402, 7.890e-6
-1.403, 7.903e-6
-1.404, 7.915e-6
-1.405, 7.927e-6
-1.406, 7.942e-6
-1.407, 7.953e-6
-1.408, 7.967e-6
-1.409, 7.980e-6
-1.410, 7.992e-6
-1.411, 8.005e-6
-1.412, 8.018e-6
-1.413, 8.030e-6
-1.414, 8.044e-6
-1.415, 8.057e-6
-1.416, 8.069e-6
-1.417, 8.082e-6
-1.418, 8.095e-6
-1.419, 8.109e-6
-1.420, 8.123e-6
-1.421, 8.137e-6
-1.422, 8.152e-6
-1.423, 8.165e-6
-1.424, 8.179e-6
-1.425, 8.195e-6
-1.426, 8.208e-6
-1.427, 8.226e-6
-1.428, 8.238e-6
-1.429, 8.255e-6
-1.430, 8.269e-6
-1.431, 8.283e-6
-1.432, 8.298e-6
-1.433, 8.313e-6
-1.434, 8.331e-6
-1.435, 8.346e-6
-1.436, 8.360e-6
-1.437, 8.373e-6
-1.438, 8.389e-6
-1.439, 8.403e-6
-1.440, 8.419e-6
-1.441, 8.435e-6
-1.442, 8.450e-6
-1.443, 8.466e-6
-1.444, 8.482e-6
-1.445, 8.498e-6
-1.446, 8.516e-6
-1.447, 8.531e-6
-1.448, 8.547e-6
-1.449, 8.565e-6
-1.450, 8.579e-6
-1.451, 8.597e-6
-1.452, 8.611e-6
-1.453, 8.628e-6
-1.454, 8.645e-6
-1.455, 8.660e-6
-1.456, 8.680e-6
-1.457, 8.698e-6
-1.458, 8.714e-6
-1.459, 8.735e-6
-1.460, 8.753e-6
-1.461, 8.771e-6
-1.462, 8.789e-6
-1.463, 8.806e-6
-1.464, 8.824e-6
-1.465, 8.843e-6
-1.466, 8.861e-6
-1.467, 8.880e-6
-1.468, 8.899e-6
-1.469, 8.917e-6
-1.470, 8.937e-6
-1.471, 8.958e-6
-1.472, 8.978e-6
-1.473, 8.998e-6
-1.474, 9.016e-6
-1.475, 9.037e-6
-1.476, 9.058e-6
-1.477, 9.085e-6
-1.478, 9.106e-6
-1.479, 9.124e-6
-1.480, 9.143e-6
-1.481, 9.163e-6
-1.482, 9.183e-6
-1.483, 9.205e-6
-1.484, 9.227e-6
-1.485, 9.253e-6
-1.486, 9.276e-6
-1.487, 9.295e-6
-1.488, 9.317e-6
-1.489, 9.339e-6
-1.490, 9.360e-6
-1.491, 9.385e-6
-1.492, 9.406e-6
-1.493, 9.427e-6
-1.494, 9.449e-6
-1.495, 9.473e-6
-1.496, 9.499e-6
-1.497, 9.524e-6
-1.498, 9.547e-6
-1.499, 9.573e-6
-1.500, 9.597e-6
-1.501, 9.621e-6
-1.502, 9.644e-6
-1.503, 9.669e-6
-1.504, 9.695e-6
-1.505, 9.722e-6
-1.506, 9.748e-6
-1.507, 9.775e-6
-1.508, 9.801e-6
-1.509, 9.828e-6
-1.510, 9.855e-6
-1.511, 9.882e-6
-1.512, 9.908e-6
-1.513, 9.934e-6
-1.514, 9.961e-6
-1.515, 9.990e-6
-1.516, 1.002e-5
-1.517, 1.005e-5
-1.518, 1.007e-5
-1.519, 1.010e-5
-1.520, 1.013e-5
-1.521, 1.016e-5
-1.522, 1.018e-5
-1.523, 1.021e-5
-1.524, 1.024e-5
-1.525, 1.027e-5
-1.526, 1.030e-5
-1.527, 1.033e-5
-1.528, 1.036e-5
-1.529, 1.040e-5
-1.530, 1.043e-5
-1.531, 1.046e-5
-1.532, 1.049e-5
-1.533, 1.052e-5
-1.534, 1.056e-5
-1.535, 1.059e-5
-1.536, 1.062e-5
-1.537, 1.066e-5
-1.538, 1.069e-5
-1.539, 1.072e-5
-1.540, 1.076e-5
-1.541, 1.079e-5
-1.542, 1.083e-5
-1.543, 1.086e-5
-1.544, 1.090e-5
-1.545, 1.093e-5
-1.546, 1.097e-5
-1.547, 1.100e-5
-1.548, 1.104e-5
-1.549, 1.107e-5
-1.550, 1.111e-5
-1.551, 1.115e-5
-1.552, 1.119e-5
-1.553, 1.123e-5
-1.554, 1.126e-5
-1.555, 1.130e-5
-1.556, 1.134e-5
-1.557, 1.138e-5
-1.558, 1.142e-5
-1.559, 1.146e-5
-1.560, 1.150e-5
-1.561, 1.154e-5
-1.562, 1.158e-5
-1.563, 1.163e-5
-1.564, 1.166e-5
-1.565, 1.171e-5
-1.566, 1.175e-5
-1.567, 1.179e-5
-1.568, 1.184e-5
-1.569, 1.188e-5
-1.570, 1.193e-5
-1.571, 1.197e-5
-1.572, 1.201e-5
-1.573, 1.205e-5
-1.574, 1.209e-5
-1.575, 1.214e-5
-1.576, 1.218e-5
-1.577, 1.223e-5
-1.578, 1.228e-5
-1.579, 1.233e-5
-1.580, 1.238e-5
-1.581, 1.242e-5
-1.582, 1.247e-5
-1.583, 1.252e-5
-1.584, 1.257e-5
-1.585, 1.262e-5
-1.586, 1.267e-5
-1.587, 1.273e-5
-1.588, 1.278e-5
-1.589, 1.283e-5
-1.590, 1.289e-5
-1.591, 1.294e-5
-1.592, 1.299e-5
-1.593, 1.305e-5
-1.594, 1.311e-5
-1.595, 1.318e-5
-1.596, 1.324e-5
-1.597, 1.330e-5
-1.598, 1.336e-5
-1.599, 1.342e-5
-1.600, 1.348e-5
-1.601, 1.354e-5
-1.602, 1.360e-5
-1.603, 1.366e-5
-1.604, 1.372e-5
-1.605, 1.378e-5
-1.606, 1.384e-5
-1.607, 1.390e-5
-1.608, 1.397e-5
-1.609, 1.403e-5
-1.610, 1.409e-5
-1.611, 1.416e-5
-1.612, 1.422e-5
-1.613, 1.428e-5
-1.614, 1.435e-5
-1.615, 1.442e-5
-1.616, 1.449e-5
-1.617, 1.455e-5
-1.618, 1.462e-5
-1.619, 1.470e-5
-1.620, 1.477e-5
-1.621, 1.484e-5
-1.622, 1.492e-5
-1.623, 1.499e-5
-1.624, 1.506e-5
-1.625, 1.514e-5
-1.626, 1.522e-5
-1.627, 1.530e-5
-1.628, 1.538e-5
-1.629, 1.545e-5
-1.630, 1.553e-5
-1.631, 1.561e-5
-1.632, 1.570e-5
-1.633, 1.578e-5
-1.634, 1.586e-5
-1.635, 1.595e-5
-1.636, 1.604e-5
-1.637, 1.612e-5
-1.638, 1.622e-5
-1.639, 1.631e-5
-1.640, 1.640e-5
-1.641, 1.649e-5
-1.642, 1.658e-5
-1.643, 1.667e-5
-1.644, 1.677e-5
-1.645, 1.686e-5
-1.646, 1.696e-5
-1.647, 1.706e-5
-1.648, 1.716e-5
-1.649, 1.726e-5
-1.650, 1.736e-5
-1.651, 1.746e-5
-1.652, 1.757e-5
-1.653, 1.768e-5
-1.654, 1.779e-5
-1.655, 1.790e-5
-1.656, 1.801e-5
-1.657, 1.812e-5
-1.658, 1.822e-5
-1.659, 1.833e-5
-1.660, 1.845e-5
-1.661, 1.856e-5
-1.662, 1.869e-5
-1.663, 1.881e-5
-1.664, 1.894e-5
-1.665, 1.907e-5
-1.666, 1.920e-5
-1.667, 1.933e-5
-1.668, 1.947e-5
-1.669, 1.961e-5
-1.670, 1.975e-5
-1.671, 1.990e-5
-1.672, 2.004e-5
-1.673, 2.018e-5
-1.674, 2.033e-5
-1.675, 2.048e-5
-1.676, 2.064e-5
-1.677, 2.080e-5
-1.678, 2.096e-5
-1.679, 2.113e-5
-1.680, 2.130e-5
-1.681, 2.147e-5
-1.682, 2.164e-5
-1.683, 2.182e-5
-1.684, 2.200e-5
-1.685, 2.219e-5
-1.686, 2.238e-5
-1.687, 2.257e-5
-1.688, 2.277e-5
-1.689, 2.297e-5
-1.690, 2.318e-5
-1.691, 2.338e-5
-1.692, 2.359e-5
-1.693, 2.380e-5
-1.694, 2.403e-5
-1.695, 2.425e-5
-1.696, 2.448e-5
-1.697, 2.472e-5
-1.698, 2.495e-5
-1.699, 2.519e-5
-1.700, 2.544e-5
-1.701, 2.569e-5
-1.702, 2.595e-5
-1.703, 2.620e-5
-1.704, 2.647e-5
-1.705, 2.675e-5
-1.706, 2.702e-5
-1.707, 2.731e-5
-1.708, 2.759e-5
-1.709, 2.788e-5
-1.710, 2.817e-5
-1.711, 2.847e-5
-1.712, 2.879e-5
-1.713, 2.912e-5
-1.714, 2.944e-5
-1.715, 2.978e-5
-1.716, 3.012e-5
-1.717, 3.046e-5
-1.718, 3.082e-5
-1.719, 3.118e-5
-1.720, 3.155e-5
-1.721, 3.194e-5
-1.722, 3.232e-5
-1.723, 3.272e-5
-1.724, 3.312e-5
-1.725, 3.353e-5
-1.726, 3.395e-5
-1.727, 3.438e-5
-1.728, 3.482e-5
-1.729, 3.527e-5
-1.730, 3.572e-5
-1.731, 3.618e-5
-1.732, 3.666e-5
-1.733, 3.715e-5
-1.734, 3.765e-5
-1.735, 3.815e-5
-1.736, 3.867e-5
-1.737, 3.919e-5
-1.738, 3.974e-5
-1.739, 4.030e-5
-1.740, 4.087e-5
-1.741, 4.145e-5
-1.742, 4.205e-5
-1.743, 4.266e-5
-1.744, 4.328e-5
-1.745, 4.389e-5
-1.746, 4.453e-5
-1.747, 4.520e-5
-1.748, 4.584e-5
-1.749, 4.649e-5
-1.750, 4.720e-5
-1.751, 4.795e-5
-1.752, 4.870e-5
-1.753, 4.946e-5
-1.754, 5.021e-5
-1.755, 5.098e-5
-1.756, 5.180e-5
-1.757, 5.263e-5
-1.758, 5.348e-5
-1.759, 5.433e-5
-1.760, 5.524e-5
-1.761, 5.617e-5
-1.762, 5.710e-5
-1.763, 5.805e-5
-1.764, 5.902e-5
-1.765, 5.988e-5
-1.766, 6.073e-5
-1.767, 6.167e-5
-1.768, 6.270e-5
-1.769, 6.372e-5
-1.770, 6.470e-5
-1.771, 6.581e-5
-1.772, 6.693e-5
-1.773, 6.802e-5
-1.774, 6.920e-5
-1.775, 7.042e-5
-1.776, 7.167e-5
-1.777, 7.296e-5
-1.778, 7.423e-5
-1.779, 7.551e-5
-1.780, 7.682e-5
-1.781, 7.818e-5
-1.782, 7.960e-5
-1.783, 8.098e-5
-1.784, 8.247e-5
-1.785, 8.398e-5
-1.786, 8.550e-5
-1.787, 8.709e-5
-1.788, 8.873e-5
-1.789, 9.029e-5
-1.790, 9.192e-5
-1.791, 9.362e-5
-1.792, 9.533e-5
-1.793, 9.710e-5
-1.794, 9.893e-5
-1.795, 1.007e-4
-1.796, 1.026e-4
-1.797, 1.045e-4
-1.798, 1.064e-4
-1.799, 1.083e-4
-1.800, 1.102e-4
-1.801, 1.123e-4
-1.802, 1.143e-4
-1.803, 1.164e-4
-1.804, 1.186e-4
-1.805, 1.208e-4
-1.806, 1.230e-4
-1.807, 1.253e-4
-1.808, 1.277e-4
-1.809, 1.298e-4
-1.810, 1.312e-4
-1.811, 1.336e-4
-1.812, 1.361e-4
-1.813, 1.386e-4
-1.814, 1.412e-4
-1.815, 1.438e-4
-1.816, 1.464e-4
-1.817, 1.490e-4
-1.818, 1.517e-4
-1.819, 1.545e-4
-1.820, 1.573e-4
-1.821, 1.602e-4
-1.822, 1.630e-4
-1.823, 1.659e-4
-1.824, 1.689e-4
-1.825, 1.719e-4
-1.826, 1.750e-4
-1.827, 1.781e-4
-1.828, 1.811e-4
-1.829, 1.843e-4
-1.830, 1.874e-4
-1.831, 1.906e-4
-1.832, 1.939e-4
-1.833, 1.971e-4
-1.834, 2.004e-4
-1.835, 2.037e-4
-1.836, 2.068e-4
-1.837, 2.100e-4
-1.838, 2.133e-4
-1.839, 2.165e-4
-1.840, 2.198e-4
-1.841, 2.230e-4
-1.842, 2.263e-4
-1.843, 2.296e-4
-1.844, 2.329e-4
-1.845, 2.359e-4
-1.846, 2.380e-4
-1.847, 2.400e-4
-1.848, 2.429e-4
-1.849, 2.458e-4
-1.850, 2.487e-4
-1.851, 2.516e-4
-1.852, 2.545e-4
-1.853, 2.571e-4
-1.854, 2.598e-4
-1.855, 2.625e-4
-1.856, 2.652e-4
-1.857, 2.680e-4
-1.858, 2.708e-4
-1.859, 2.736e-4
-1.860, 2.766e-4
-1.861, 2.796e-4
-1.862, 2.827e-4
-1.863, 2.858e-4
-1.864, 2.889e-4
-1.865, 2.921e-4
-1.866, 2.955e-4
-1.867, 2.988e-4
-1.868, 3.022e-4
-1.869, 3.056e-4
-1.870, 3.092e-4
-1.871, 3.128e-4
-1.872, 3.164e-4
-1.873, 3.201e-4
-1.874, 3.238e-4
-1.875, 3.276e-4
-1.876, 3.316e-4
-1.877, 3.356e-4
-1.878, 3.396e-4
-1.879, 3.437e-4
-1.880, 3.479e-4
-1.881, 3.519e-4
-1.882, 3.561e-4
-1.883, 3.604e-4
-1.884, 3.648e-4
-1.885, 3.691e-4
-1.886, 3.736e-4
-1.887, 3.782e-4
-1.888, 3.828e-4
-1.889, 3.875e-4
-1.890, 3.921e-4
-1.891, 3.968e-4
-1.892, 4.018e-4
-1.893, 4.067e-4
-1.894, 4.116e-4
-1.895, 4.166e-4
-1.896, 4.216e-4
-1.897, 4.265e-4
-1.898, 4.317e-4
-1.899, 4.369e-4
-1.900, 4.421e-4
-1.901, 4.473e-4
-1.902, 4.526e-4
-1.903, 4.580e-4
-1.904, 4.631e-4
-1.905, 4.685e-4
-1.906, 4.739e-4
-1.907, 4.793e-4
-1.908, 4.850e-4
-1.909, 4.905e-4
-1.910, 4.962e-4
-1.911, 5.020e-4
-1.912, 5.077e-4
-1.913, 5.134e-4
-1.914, 5.193e-4
-1.915, 5.252e-4
-1.916, 5.312e-4
-1.917, 5.372e-4
-1.918, 5.432e-4
-1.919, 5.486e-4
-1.920, 5.538e-4
-1.921, 5.597e-4
-1.922, 5.658e-4
-1.923, 5.721e-4
-1.924, 5.785e-4
-1.925, 5.847e-4
-1.926, 5.912e-4
-1.927, 5.975e-4
-1.928, 6.039e-4
-1.929, 6.099e-4
-1.930, 6.159e-4
-1.931, 6.220e-4
-1.932, 6.284e-4
-1.933, 6.345e-4
-1.934, 6.406e-4
-1.935, 6.467e-4
-1.936, 6.533e-4
-1.937, 6.599e-4
-1.938, 6.664e-4
-1.939, 6.728e-4
-1.940, 6.797e-4
-1.941, 6.867e-4
-1.942, 6.937e-4
-1.943, 7.007e-4
-1.944, 7.077e-4
-1.945, 7.149e-4
-1.946, 7.222e-4
-1.947, 7.291e-4
-1.948, 7.362e-4
-1.949, 7.435e-4
-1.950, 7.507e-4
-1.951, 7.583e-4
-1.952, 7.660e-4
-1.953, 7.734e-4
-1.954, 7.808e-4
-1.955, 7.883e-4
-1.956, 7.956e-4
-1.957, 8.032e-4
-1.958, 8.109e-4
-1.959, 8.184e-4
-1.960, 8.262e-4
-1.961, 8.340e-4
-1.962, 8.419e-4
-1.963, 8.497e-4
-1.964, 8.574e-4
-1.965, 8.656e-4
-1.966, 8.737e-4
-1.967, 8.818e-4
-1.968, 8.898e-4
-1.969, 8.982e-4
-1.970, 9.061e-4
-1.971, 9.139e-4
-1.972, 9.222e-4
-1.973, 9.304e-4
-1.974, 9.385e-4
-1.975, 9.466e-4
-1.976, 9.552e-4
-1.977, 9.634e-4
-1.978, 9.716e-4
-1.979, 9.802e-4
-1.980, 9.886e-4
-1.981, 9.970e-4
-1.982, 1.005e-3
-1.983, 1.011e-3
-1.984, 1.011e-3
-1.985, 1.011e-3
-1.986, 1.011e-3
-1.987, 1.011e-3
-1.988, 1.011e-3
-1.989, 1.011e-3
-1.990, 1.011e-3
-1.991, 1.011e-3
-1.992, 1.011e-3
-1.993, 1.011e-3
-1.994, 1.011e-3
-1.995, 1.011e-3
-1.996, 1.011e-3
-1.997, 1.011e-3
-1.998, 1.011e-3
-1.999, 1.011e-3
-2.000, 1.011e-3
-2.001, 1.011e-3
-2.002, 1.011e-3
-2.003, 1.011e-3
-2.004, 1.011e-3
-2.005, 1.011e-3
-2.006, 1.011e-3
-2.007, 1.011e-3
-2.008, 1.011e-3
-2.009, 1.011e-3
-2.010, 1.011e-3
-2.011, 1.011e-3
-2.012, 1.011e-3
-2.013, 1.011e-3
-2.014, 1.011e-3
-2.015, 1.011e-3
-2.016, 1.011e-3
-2.017, 1.011e-3
-2.018, 1.011e-3
-2.019, 1.011e-3
-2.020, 1.011e-3
-2.021, 1.011e-3
-2.022, 1.011e-3
-2.023, 1.011e-3
-2.024, 1.011e-3
-2.025, 1.011e-3
-2.026, 1.011e-3
-2.027, 1.011e-3
-2.028, 1.011e-3
-2.029, 1.011e-3
-2.030, 1.011e-3
-2.031, 1.011e-3
-2.032, 1.011e-3
-2.033, 1.011e-3
-2.034, 1.011e-3
-2.035, 1.011e-3
-2.036, 1.011e-3
-2.037, 1.011e-3
-2.038, 1.011e-3
-2.039, 1.011e-3
-2.040, 1.011e-3
-2.041, 1.011e-3
-2.042, 1.011e-3
-2.043, 1.011e-3
-2.044, 1.011e-3
-2.045, 1.011e-3
-2.046, 1.011e-3
-2.047, 1.011e-3
-2.048, 1.011e-3
-2.049, 1.011e-3
-2.050, 1.011e-3
-2.051, 1.011e-3
-2.052, 1.011e-3
-2.053, 1.011e-3
-2.054, 1.011e-3
-2.055, 1.011e-3
-2.056, 1.011e-3
-2.057, 1.011e-3
-2.058, 1.011e-3
-2.059, 1.011e-3
-2.060, 1.011e-3
-2.061, 1.011e-3
-2.062, 1.011e-3
-2.063, 1.011e-3
-2.064, 1.011e-3
-2.065, 1.011e-3
-2.066, 1.011e-3
-2.067, 1.011e-3
-2.068, 1.011e-3
-2.069, 1.011e-3
-2.070, 1.011e-3
-2.071, 1.011e-3
-2.072, 1.011e-3
-2.073, 1.011e-3
-2.074, 1.011e-3
-2.075, 1.011e-3
-2.076, 1.011e-3
-2.077, 1.011e-3
-2.078, 1.011e-3
-2.079, 1.011e-3
-2.080, 1.011e-3
-2.081, 1.011e-3
-2.082, 1.011e-3
-2.083, 1.011e-3
-2.084, 1.011e-3
-2.085, 1.011e-3
-2.086, 1.011e-3
-2.087, 1.011e-3
-2.088, 1.011e-3
-2.089, 1.011e-3
-2.090, 1.011e-3
-2.091, 1.011e-3
-2.092, 1.011e-3
-2.093, 1.011e-3
-2.094, 1.011e-3
-2.095, 1.011e-3
-2.096, 1.011e-3
-2.097, 1.011e-3
-2.098, 1.011e-3
-2.099, 1.011e-3
