Potential V vs RHE, Current mA cm-2
0.05339999999999995,-0.016764328903400686
0.05239999999999995,-0.03341548090281216
0.051399999999999946,-0.03947044526623452
0.050399999999999945,-0.042837458159913314
0.049399999999999944,-0.04541223272566768
0.04839999999999994,-0.04770406503144904
0.04739999999999994,-0.0501090742412196
0.04639999999999994,-0.052231141191017155
0.04539999999999994,-0.05431076680181876
0.04439999999999994,-0.056121597265646014
0.04339999999999994,-0.0577768094864881
0.04239999999999994,-0.05965837551530859
0.04139999999999994,-0.06138432330114395
0.040399999999999936,-0.06318100665197254
0.039399999999999935,-0.06472304196882543
0.038399999999999934,-0.06634995996367023
0.03739999999999993,-0.06787784816752446
0.03639999999999993,-0.06953306038836657
0.03539999999999993,-0.07094777168823159
0.03439999999999993,-0.07247565989208582
0.03339999999999993,-0.07386207696595355
0.03239999999999993,-0.0753333767178132
0.03139999999999993,-0.07691785337366204
0.030399999999999927,-0.07826182910853383
0.029399999999999926,-0.07976142308639078
0.028399999999999925,-0.08107710459526525
0.027399999999999924,-0.08240693321713838
0.026399999999999924,-0.08393482142099262
0.025399999999999923,-0.08530709138186171
0.024399999999999922,-0.08655203732574294
0.02339999999999992,-0.08791016017361337
0.02239999999999992,-0.08916925323049325
0.02139999999999992,-0.0906971414343475
0.020399999999999918,-0.09212599984721119
0.019399999999999917,-0.09325776888710322
0.018399999999999916,-0.0946300388479723
0.017399999999999916,-0.09594572035684679
0.016399999999999915,-0.09743116722170508
0.015399999999999914,-0.09884587852157012
0.014399999999999913,-0.10000594178745945
0.013399999999999912,-0.10132162329633393
0.012399999999999911,-0.10273633459619896
0.01139999999999991,-0.10410860455706805
0.01039999999999991,-0.10559405142192634
0.009399999999999908,-0.10682485025280893
0.008399999999999908,-0.10804150197069286
0.007399999999999907,-0.10952694883555114
0.006399999999999906,-0.11084263034442562
0.005399999999999905,-0.11231393009628526
0.004399999999999904,-0.1136720529441557
0.003399999999999903,-0.11488870466203964
0.002399999999999902,-0.11648732843088712
0.0013999999999999013,-0.11787374550475484
0.00039999999999990044,-0.11935919236961315
-0.0006000000000001005,-0.12073146233048222
-0.0016000000000001013,-0.1219622611613648
-0.0026000000000001022,-0.12340526668722714
-0.003600000000000103,-0.12504633179507058
-0.004600000000000104,-0.12639030752994238
-0.005600000000000105,-0.1278050188298074
-0.006600000000000106,-0.12919143590367516
-0.007600000000000107,-0.1306627356555348
-0.008600000000000108,-0.13238868344137011
-0.009600000000000108,-0.13376095340223923
-0.01060000000000011,-0.1352181060411002
-0.01160000000000011,-0.13677428847095174
-0.012600000000000111,-0.1384012064657965
-0.013600000000000112,-0.13999983023464402
-0.014600000000000113,-0.14147112998650369
-0.015600000000000114,-0.1428858412863687
-0.016600000000000115,-0.14444202371622025
-0.017600000000000116,-0.1458567350160853
-0.018600000000000116,-0.14769585970590982
-0.019600000000000117,-0.14939351326574787
-0.020600000000000118,-0.1508082245656129
-0.02160000000000012,-0.15250587812545094
-0.02260000000000012,-0.1540620605553025
-0.02360000000000012,-0.15590118524512703
-0.024600000000000122,-0.15759883880496509
-0.025600000000000123,-0.15929649236480314
-0.026600000000000124,-0.16099414592464115
-0.027600000000000124,-0.1626917994844792
-0.028600000000000125,-0.16438945304431726
-0.029600000000000126,-0.16637004886412832
-0.030600000000000127,-0.16806770242396638
-0.03160000000000013,-0.1697653559838044
-0.03260000000000013,-0.17132153841365594
-0.03360000000000013,-0.1731606631034805
-0.03460000000000002,-0.17514125892329155
-0.03560000000000002,-0.1771218547431026
-0.03660000000000002,-0.17881950830294063
-0.03760000000000002,-0.1806586329927652
-0.03860000000000002,-0.18278069994256274
-0.039600000000000024,-0.1846198246323873
-0.040600000000000025,-0.18674189158218485
-0.041600000000000026,-0.18843954514202288
-0.04260000000000003,-0.19056161209182043
-0.04360000000000003,-0.19268367904161798
-0.04460000000000003,-0.19466427486142904
-0.04560000000000003,-0.19678634181122662
-0.04660000000000003,-0.19876693763103764
-0.04760000000000003,-0.2007475334508487
-0.04860000000000003,-0.20301107153063278
-0.04960000000000003,-0.20513313848043033
-0.050600000000000034,-0.2073966765602144
-0.051600000000000035,-0.20951874351001196
-0.052600000000000036,-0.2116408104598095
-0.053600000000000037,-0.21404581966958006
-0.05460000000000004,-0.2164508288793506
-0.05560000000000004,-0.21857289582914816
-0.05660000000000004,-0.22083643390893223
-0.05760000000000004,-0.22309997198871628
-0.05860000000000004,-0.22550498119848683
-0.05960000000000004,-0.22805146153824393
-0.06060000000000004,-0.23045647074801448
-0.061600000000000044,-0.23286147995778506
-0.06260000000000004,-0.23526648916755558
-0.06360000000000005,-0.23781296950731265
-0.06460000000000005,-0.24050092097705625
-0.06560000000000005,-0.24276445905684027
-0.06660000000000005,-0.24531093939659734
-0.06760000000000005,-0.24799889086634092
-0.06860000000000005,-0.250545371206098
-0.06960000000000005,-0.25337479380582806
-0.07060000000000005,-0.2560627452755716
-0.07160000000000005,-0.2584677544853422
-0.07260000000000005,-0.2611557059550858
-0.07360000000000005,-0.2639851285548159
-0.07460000000000006,-0.26681455115454594
-0.07560000000000006,-0.269643973754276
-0.07660000000000006,-0.2723319252240196
-0.07760000000000006,-0.2751613478237496
-0.07860000000000006,-0.27827371268345275
-0.07960000000000006,-0.2811031352831828
-0.08060000000000006,-0.2840740290128994
-0.08160000000000006,-0.2869034516126294
-0.08260000000000006,-0.289874345342346
-0.08360000000000006,-0.2931281813320356
-0.08460000000000006,-0.2960990750617522
-0.08560000000000006,-0.2993529110514418
-0.08660000000000007,-0.30232380478115833
-0.08760000000000007,-0.30543616964086145
-0.08860000000000007,-0.30883147676053746
-0.08960000000000007,-0.31208531275022705
-0.09060000000000007,-0.31533914873991664
-0.09160000000000007,-0.3184515135996197
-0.09260000000000007,-0.3217053495893093
-0.09360000000000007,-0.3252421278389719
-0.09460000000000007,-0.3287789060886345
-0.09560000000000007,-0.33217421320831064
-0.09660000000000007,-0.3355695203279867
-0.09760000000000008,-0.3391062985776493
-0.09860000000000008,-0.3427845479572984
-0.09960000000000008,-0.346321326206961
-0.10060000000000008,-0.3499995755866101
-0.10160000000000008,-0.3538192960962457
-0.10260000000000008,-0.35735607434590827
-0.10360000000000008,-0.3611757948555439
-0.10460000000000008,-0.36513698649516596
-0.10560000000000008,-0.3688152358748151
-0.10660000000000008,-0.37263495638445066
-0.10760000000000008,-0.3764546768940863
-0.10860000000000009,-0.38055733966369487
-0.10960000000000009,-0.38480147356329
-0.11060000000000009,-0.3887626652029121
-0.11160000000000009,-0.39258238571254767
-0.11260000000000009,-0.39668504848215624
-0.11360000000000009,-0.40092918238175135
-0.11460000000000009,-0.4054562585413195
-0.11560000000000009,-0.40984186357090113
-0.11660000000000009,-0.41380305521052324
-0.1176000000000001,-0.41818866024010487
-0.1186000000000001,-0.4225742652696865
-0.1196000000000001,-0.4269598702992681
-0.1206000000000001,-0.4314869464588362
-0.1216000000000001,-0.43601402261840433
-0.1226000000000001,-0.4405410987779724
-0.1236000000000001,-0.44520964606752705
-0.1246000000000001,-0.4498781933570817
-0.1256000000000001,-0.4548296829066093
-0.1266000000000001,-0.4593567590661774
-0.1276000000000001,-0.4641667774857185
-0.1286000000000001,-0.4691182670352462
-0.1296000000000001,-0.4740697565847738
-0.1306000000000001,-0.47887977500431494
-0.1316000000000001,-0.4838312645538425
-0.1326000000000001,-0.48878275410337013
-0.1336000000000001,-0.49401718591287075
-0.1346000000000001,-0.4992516177223714
-0.1356000000000001,-0.5043445784018855
-0.1366000000000001,-0.5094375390813997
-0.1376000000000001,-0.5146719708909003
-0.1386000000000001,-0.5200478738303875
-0.1396000000000001,-0.5257067190298478
-0.1406000000000001,-0.5310826219693349
-0.14160000000000011,-0.5365999960388084
-0.14260000000000012,-0.5419758989782956
-0.14360000000000012,-0.5476347441777557
-0.14460000000000012,-0.5534350605072024
-0.14560000000000012,-0.558952434576676
-0.14660000000000012,-0.5647527509061226
-0.14760000000000012,-0.5704115961055828
-0.14860000000000012,-0.576353383565016
-0.14960000000000012,-0.5824366421544356
-0.15060000000000012,-0.5882369584838822
-0.15160000000000012,-0.5940372748133289
-0.15260000000000012,-0.600262004532735
-0.15360000000000013,-0.6063452631221548
-0.15460000000000013,-0.6125699928415609
-0.15560000000000013,-0.6185117803009941
-0.15660000000000013,-0.6244535677604272
-0.15760000000000013,-0.6308197686098198
-0.15860000000000013,-0.637044498329226
-0.15960000000000002,-0.6435521703086051
-0.16060000000000002,-0.6499183711579978
-0.16160000000000002,-0.6561431008774039
-0.16260000000000002,-0.6626507728567832
-0.16360000000000002,-0.6692999159661489
-0.16460000000000002,-0.6759490590755146
-0.16560000000000002,-0.6830226155748397
-0.16660000000000003,-0.6902376432041514
-0.16760000000000003,-0.6964623729235576
-0.16860000000000003,-0.7032529871629097
-0.16960000000000003,-0.7099021302722753
-0.17060000000000003,-0.7166927445116276
-0.17160000000000003,-0.7234833587509798
-0.17260000000000003,-0.7302739729903319
-0.17360000000000003,-0.7373475294896572
-0.17460000000000003,-0.7444210859889823
-0.17560000000000003,-0.7513531713583209
-0.17660000000000003,-0.7584267278576461
-0.17760000000000004,-0.7652173420969983
-0.17860000000000004,-0.77243236972631
-0.17960000000000004,-0.7797888684856082
-0.18060000000000004,-0.7870038961149198
-0.18160000000000004,-0.7942189237442315
-0.18260000000000004,-0.8014339513735432
-0.18360000000000004,-0.8087904501328415
-0.18460000000000004,-0.8162884200221262
-0.18560000000000004,-0.8236449187814244
-0.18660000000000004,-0.8311428886707091
-0.18760000000000004,-0.8384993874300073
-0.18860000000000005,-0.8458558861893055
-0.18960000000000005,-0.8536367983385632
-0.19060000000000005,-0.8612762393578344
-0.19160000000000005,-0.868774209247119
-0.19260000000000005,-0.8765551213963767
-0.19360000000000005,-0.884194562415648
-0.19460000000000005,-0.8921169456948921
-0.19560000000000005,-0.9000393289741364
-0.19660000000000005,-0.9076787699934075
-0.19760000000000005,-0.9156011532726518
-0.19860000000000005,-0.9236650076818825
-0.19960000000000006,-0.9315873909611266
-0.20060000000000006,-0.9397927165003438
-0.20160000000000006,-0.947715099779588
-0.20260000000000006,-0.9557789541888188
-0.20360000000000006,-0.9639842797280359
-0.20460000000000006,-0.9723310763972398
-0.20560000000000006,-0.9806778730664433
-0.20660000000000006,-0.9888831986056607
-0.20760000000000006,-0.9970885241448778
-0.20860000000000006,-1.0057182630740547
-0.20960000000000006,-1.0143480020032312
-0.21060000000000006,-1.0228362698024216
-0.21160000000000007,-1.0313245376016118
-0.21260000000000007,-1.039812805400802
-0.21360000000000007,-1.0487254865899516
-0.21460000000000007,-1.0574966966491148
-0.21560000000000007,-1.0661264355782916
-0.21660000000000007,-1.0750391167674413
-0.21760000000000007,-1.0842347402165642
-0.21860000000000007,-1.0930059502757274
-0.21960000000000007,-1.10220157372485
-0.22060000000000007,-1.1112557260439861
-0.22160000000000007,-1.1203098783631227
-0.22260000000000008,-1.1295055018122453
-0.22360000000000008,-1.138984067521341
-0.22460000000000008,-1.1484626332304368
-0.22560000000000008,-1.157799727809546
-0.22660000000000008,-1.1672782935186419
-0.22760000000000008,-1.176615388097751
-0.22860000000000008,-1.1860939538068467
-0.22960000000000008,-1.1961384040358884
-0.23060000000000008,-1.2058999120049574
-0.23160000000000008,-1.215661419974026
-0.23260000000000008,-1.2255643990730813
-0.23360000000000009,-1.2354673781721366
-0.2346000000000001,-1.2457947706611512
-0.2356000000000001,-1.256122163150166
-0.2366000000000001,-1.2661666133792076
-0.2376000000000001,-1.2764940058682226
-0.2386000000000001,-1.2868213983572372
-0.2396000000000001,-1.2972902619762388
-0.2406000000000001,-1.308042067855213
-0.2416000000000001,-1.3186524026042006
-0.2426000000000001,-1.329404208483175
-0.2436000000000001,-1.340297485492136
-0.2446000000000001,-1.3513322336310831
-0.2456000000000001,-1.3625084529000169
-0.2466000000000001,-1.3734017299089776
-0.2476000000000001,-1.384436478047925
-0.2486000000000001,-1.3960371107068181
-0.2496000000000001,-1.4073548011057386
-0.2506000000000001,-1.4189554337646317
-0.2516000000000001,-1.4302731241635522
-0.2526000000000001,-1.4415908145624723
-0.2536000000000001,-1.4543232162612578
-0.2546000000000001,-1.4656409066601779
-0.2556000000000001,-1.4783733083589634
-0.2566000000000001,-1.4896909987578837
-0.2576000000000001,-1.502423400456669
-0.2586000000000001,-1.5151558021554543
-0.2596000000000001,-1.5264734925543744
-0.2606000000000001,-1.53920589425316
-0.2616000000000001,-1.5519382959519452
-0.2626000000000001,-1.5646706976507305
-0.2636000000000001,-1.5774030993495158
-0.2646000000000001,-1.5915502123481662
-0.2656000000000001,-1.6042826140469515
-0.2666000000000001,-1.6170150157457368
-0.2676000000000001,-1.6297474174445223
-0.2686000000000001,-1.643894530443173
-0.2696000000000001,-1.658041643441823
-0.2706000000000001,-1.6707740451406083
-0.2716000000000001,-1.6849211581392587
-0.2726000000000001,-1.6990682711379093
-0.2736000000000001,-1.7132153841365596
-0.2746000000000001,-1.72736249713521
-0.2756000000000001,-1.7415096101338603
-0.2766000000000001,-1.7556567231325106
-0.2776000000000001,-1.769803836131161
-0.2786000000000001,-1.7839509491298113
-0.2796000000000001,-1.7980980621284617
-0.2806000000000001,-1.813659886426977
-0.28160000000000013,-1.8278069994256272
-0.28260000000000013,-1.8433688237241426
-0.28360000000000013,-1.857515936722793
-0.2846,-1.8730777610213083
-0.2856,-1.8886395853198237
-0.2866,-1.9027866983184742
-0.2876,-1.9183485226169896
-0.2886,-1.933910346915505
-0.2896,-1.9494721712140204
-0.2906,-1.9650339955125358
-0.2916,-1.980595819811051
-0.2926,-1.9961576441095665
-0.2936,-2.011719468408082
-0.29460000000000003,-2.0286960040064623
-0.29560000000000003,-2.044257828304978
-0.29660000000000003,-2.0598196526034935
-0.29760000000000003,-2.0753814769020087
-0.29860000000000003,-2.092358012500389
-0.29960000000000003,-2.1079198367989047
-0.30060000000000003,-2.12348166109742
-0.30160000000000003,-2.1404581966958003
-0.30260000000000004,-2.156020020994316
-0.30360000000000004,-2.171581845292831
-0.30460000000000004,-2.1885583808912115
-0.30560000000000004,-2.204120205189727
-0.30660000000000004,-2.2210967407881075
-0.30760000000000004,-2.2366585650866226
-0.30860000000000004,-2.253635100685003
-0.30960000000000004,-2.2691969249835187
-0.31060000000000004,-2.284758749282034
-0.31160000000000004,-2.3017352848804147
-0.31260000000000004,-2.3172971091789303
-0.31360000000000005,-2.3328589334774454
-0.31460000000000005,-2.349835469075826
-0.31560000000000005,-2.3653972933743415
-0.31660000000000005,-2.380959117672857
-0.31760000000000005,-2.396520941971372
-0.31860000000000005,-2.412082766269888
-0.31960000000000005,-2.427644590568403
-0.32060000000000005,-2.4432064148669186
-0.32160000000000005,-2.4587682391654337
-0.32260000000000005,-2.4743300634639493
-0.32360000000000005,-2.4884771764625997
-0.32460000000000006,-2.504039000761115
-0.32560000000000006,-2.518186113759765
-0.32660000000000006,-2.533747938058281
-0.32760000000000006,-2.5478950510569307
-0.32860000000000006,-2.5620421640555815
-0.32960000000000006,-2.576189277054232
-0.33060000000000006,-2.590336390052882
-0.33160000000000006,-2.6030687917516673
-0.33260000000000006,-2.6172159047503176
-0.33360000000000006,-2.629948306449103
-0.33460000000000006,-2.6426807081478887
-0.33560000000000006,-2.655413109846674
-0.33660000000000007,-2.6681455115454593
-0.33760000000000007,-2.6808779132442444
-0.33860000000000007,-2.69361031494303
-0.33960000000000007,-2.7049280053419507
-0.34060000000000007,-2.7162456957408705
-0.34160000000000007,-2.7289780974396556
-0.34260000000000007,-2.738881076538711
-0.34360000000000007,-2.7501987669376318
-0.3446000000000001,-2.7615164573365516
-0.3456000000000001,-2.7714194364356066
-0.3466000000000001,-2.7813224155346625
-0.34759999999999996,-2.791225394633717
-0.3486000000000001,-2.7997136624329078
-0.34959999999999997,-2.8096166415319628
-0.3506000000000001,-2.818104909331153
-0.35159999999999997,-2.8265931771303436
-0.3526000000000001,-2.836496156229398
-0.35359999999999997,-2.843569712728724
-0.3546000000000001,-2.852057980527914
-0.35559999999999997,-2.859131537027239
-0.3566000000000001,-2.866205093526564
-0.3576,-2.8732786500258896
-0.3586000000000001,-2.8803522065252145
-0.3596,-2.8860110517246746
-0.3606000000000001,-2.893084608224
-0.3616,-2.8987434534234597
-0.3626000000000001,-2.9044022986229203
-0.3636,-2.9100611438223805
-0.3646000000000001,-2.91571998902184
-0.3656,-2.919964122921436
-0.3666000000000001,-2.925622968120896
-0.3676,-2.9298671020204905
-0.3686000000000001,-2.9341112359200863
-0.3696,-2.938355369819681
-0.3706000000000001,-2.942599503719276
-0.3716,-2.9468436376188714
-0.3726000000000001,-2.9510877715184667
-0.3736,-2.9539171941181968
-0.3746000000000001,-2.9581613280177916
-0.3756,-2.9609907506175217
-0.3766000000000001,-2.965234884517117
-0.3776,-2.968064307116847
-0.3786000000000001,-2.970893729716577
-0.3796,-2.975137863616172
-0.3806000000000001,-2.977967286215902
-0.3816,-2.9807967088156326
-0.3826000000000001,-2.9836261314153627
-0.3836,-2.9878702653149576
-0.3846000000000001,-2.990699687914687
-0.3856,-2.994943821814283
-0.3866000000000001,-2.997773244414013
-0.3876,-3.002017378313608
-0.3886000000000001,-3.004846800913338
-0.3896,-3.009090934812933
-0.3906000000000001,-3.013335068712528
-0.3916,-3.0175792026121235
-0.3926000000000001,-3.021823336511718
-0.3936,-3.0260674704113137
-0.3946000000000001,-3.0303116043109086
-0.3956,-3.0359704495103688
-0.3966000000000001,-3.0402145834099636
-0.3976,-3.0458734286094242
-0.3986000000000001,-3.0515322738088844
-0.3996,-3.0571911190083445
-0.4006000000000001,-3.0628499642078046
-0.4016,-3.069923520707129
-0.4026000000000001,-3.0755823659065897
-0.4036,-3.082655922405915
-0.4046000000000001,-3.08972947890524
-0.4056,-3.0982177467044303
-0.40660000000000013,-3.1052913032037557
-0.4076,-3.113779571002946
-0.40860000000000013,-3.122267838802136
-0.4096,-3.1307561066013263
-0.41060000000000013,-3.1406590857003813
-0.4116,-3.150562064799437
-0.41260000000000013,-3.160465043898492
-0.4136,-3.1703680229975473
-0.41460000000000014,-3.1816857133964676
-0.4156,-3.193003403795388
-0.41660000000000014,-3.204321094194308
-0.4176,-3.2156387845932284
-0.41860000000000014,-3.228371186292014
-0.41960000000000003,-3.2411035879907995
-0.42060000000000014,-3.2552507009894494
-0.42160000000000003,-3.2693978139880997
-0.42260000000000014,-3.28354492698675
-0.42360000000000003,-3.2976920399854004
-0.42460000000000014,-3.313253864283916
-0.42560000000000003,-3.3274009772825663
-0.42660000000000015,-3.3443775128809468
-0.42760000000000004,-3.359939337179462
-0.42860000000000015,-3.3769158727778423
-0.42960000000000004,-3.3953071196760884
-0.43060000000000015,-3.412283655274469
-0.43160000000000004,-3.430674902172714
-0.43260000000000015,-3.450480860370824
-0.43360000000000004,-3.4702868185689346
-0.43460000000000015,-3.4900927767670455
-0.43560000000000004,-3.5113134462650213
-0.43660000000000015,-3.5311194044631313
-0.43760000000000004,-3.553754785260972
-0.43860000000000016,-3.5749754547589476
-0.43960000000000005,-3.5976108355567886
-0.44060000000000016,-3.6216609276544935
-0.44160000000000005,-3.6457110197521994
-0.44260000000000016,-3.669761111849905
-0.44360000000000005,-3.695225915247476
-0.44460000000000016,-3.7206907186450464
-0.44560000000000005,-3.747570233342482
-0.44660000000000016,-3.7730350367400525
