Potential V vs RHE, Current mA cm-2
0.05339999999999995,-0.10250998078822056
0.05239999999999995,-0.11245540122627176
0.051399999999999946,-0.11596388524993705
0.050399999999999945,-0.11793033395674946
0.049399999999999944,-0.11951481061259829
0.04839999999999994,-0.12101440459045523
0.04739999999999994,-0.12225935053433647
0.04639999999999994,-0.12343356091322445
0.04539999999999994,-0.12463606551810973
0.04439999999999994,-0.12578198167100044
0.04339999999999994,-0.12681472091990187
0.04239999999999994,-0.127904048620798
0.04139999999999994,-0.12890849364370216
0.040399999999999936,-0.12988464444060904
0.039399999999999935,-0.13094567791550782
0.038399999999999934,-0.13199256427740794
0.03739999999999993,-0.13286968528332424
0.03639999999999993,-0.1337751005152379
0.03539999999999993,-0.1345956330691596
0.03439999999999993,-0.1355859309790651
0.03339999999999993,-0.13642061064598549
0.03239999999999993,-0.1372694374259045
0.03139999999999993,-0.13820314688381544
0.030399999999999927,-0.13905197366373448
0.029399999999999926,-0.1399432417826494
0.028399999999999925,-0.14084865701456303
0.027399999999999924,-0.14161260111649018
0.026399999999999924,-0.1424614278964092
0.025399999999999923,-0.1433102546763282
0.024399999999999922,-0.14415908145624726
0.02339999999999992,-0.14500790823616627
0.02239999999999992,-0.1458567350160853
0.02139999999999992,-0.1465640906660178
0.020399999999999918,-0.14741291744593682
0.019399999999999917,-0.14812027309586934
0.018399999999999916,-0.14911057100577488
0.017399999999999916,-0.1498179266557074
0.016399999999999915,-0.1506667534356264
0.015399999999999914,-0.15151558021554543
0.014399999999999913,-0.15222293586547794
0.013399999999999912,-0.15307176264539696
0.012399999999999911,-0.15392058942531597
0.01139999999999991,-0.15462794507524852
0.01039999999999991,-0.15547677185516753
0.009399999999999908,-0.15632559863508652
0.008399999999999908,-0.15717442541500556
0.007399999999999907,-0.15788178106493808
0.006399999999999906,-0.1585891367148706
0.005399999999999905,-0.15957943462477614
0.004399999999999904,-0.16028679027470866
0.003399999999999903,-0.16113561705462764
0.002399999999999902,-0.1619844438345467
0.0013999999999999013,-0.1626917994844792
0.00039999999999990044,-0.16354062626439822
-0.0006000000000001005,-0.16438945304431726
-0.0016000000000001013,-0.16523827982423628
-0.0026000000000001022,-0.16608710660415532
-0.003600000000000103,-0.1669359333840743
-0.004600000000000104,-0.16764328903400685
-0.005600000000000105,-0.16849211581392587
-0.006600000000000106,-0.16919947146385841
-0.007600000000000107,-0.16990682711379093
-0.008600000000000108,-0.17061418276372342
-0.009600000000000108,-0.17132153841365594
-0.01060000000000011,-0.17231183632356148
-0.01160000000000011,-0.1731606631034805
-0.012600000000000111,-0.17400948988339954
-0.013600000000000112,-0.17471684553333205
-0.014600000000000113,-0.17542420118326454
-0.015600000000000114,-0.17627302796318356
-0.016600000000000115,-0.1771218547431026
-0.017600000000000116,-0.17797068152302162
-0.018600000000000116,-0.17867803717295414
-0.019600000000000117,-0.17952686395287318
-0.020600000000000118,-0.18023421960280567
-0.02160000000000012,-0.18122451751271118
-0.02260000000000012,-0.18193187316264373
-0.02360000000000012,-0.18278069994256274
-0.024600000000000122,-0.18362952672248176
-0.025600000000000123,-0.1844783535024008
-0.026600000000000124,-0.1851857091523333
-0.027600000000000124,-0.1860345359322523
-0.028600000000000125,-0.18688336271217135
-0.029600000000000126,-0.18773218949209036
-0.030600000000000127,-0.18843954514202288
-0.03160000000000013,-0.18928837192194192
-0.03260000000000013,-0.19013719870186094
-0.03360000000000013,-0.19084455435179343
-0.03460000000000002,-0.19183485226169897
-0.03560000000000002,-0.19268367904161798
-0.03660000000000002,-0.193532505821537
-0.03760000000000002,-0.19438133260145604
-0.03860000000000002,-0.19523015938137506
-0.039600000000000024,-0.19607898616129407
-0.040600000000000025,-0.19692781294121312
-0.041600000000000026,-0.19777663972113213
-0.04260000000000003,-0.19862546650105112
-0.04360000000000003,-0.19947429328097016
-0.04460000000000003,-0.20018164893090268
-0.04560000000000003,-0.2011719468408082
-0.04660000000000003,-0.20216224475071373
-0.04760000000000003,-0.20286960040064628
-0.04860000000000003,-0.2038598983105518
-0.04960000000000003,-0.20470872509047083
-0.050600000000000034,-0.20555755187038985
-0.051600000000000035,-0.2065478497802954
-0.052600000000000036,-0.2073966765602144
-0.053600000000000037,-0.20838697447011992
-0.05460000000000004,-0.20909433012005244
-0.05560000000000004,-0.21008462802995795
-0.05660000000000004,-0.21107492593986346
-0.05760000000000004,-0.2119237527197825
-0.05860000000000004,-0.21277257949970152
-0.05960000000000004,-0.21376287740960703
-0.06060000000000004,-0.21461170418952608
-0.061600000000000044,-0.2156020020994316
-0.06260000000000004,-0.21659230000933713
-0.06360000000000005,-0.21744112678925615
-0.06460000000000005,-0.21857289582914816
-0.06560000000000005,-0.21942172260906717
-0.06660000000000005,-0.2204120205189727
-0.06760000000000005,-0.22140231842887825
-0.06860000000000005,-0.22225114520879727
-0.06960000000000005,-0.2232414431187028
-0.07060000000000005,-0.2242317410286083
-0.07160000000000005,-0.2250805678085273
-0.07260000000000005,-0.22607086571843285
-0.07360000000000005,-0.2270611636283384
-0.07460000000000006,-0.22805146153824393
-0.07560000000000006,-0.22918323057813594
-0.07660000000000006,-0.23003205735805496
-0.07760000000000006,-0.2310223552679605
-0.07860000000000006,-0.23201265317786599
-0.07960000000000006,-0.23300295108777153
-0.08060000000000006,-0.23413472012766354
-0.08160000000000006,-0.23512501803756908
-0.08260000000000006,-0.23611531594747462
-0.08360000000000006,-0.23696414272739363
-0.08460000000000006,-0.23795444063729917
-0.08560000000000006,-0.2389447385472047
-0.08660000000000007,-0.2399350364571102
-0.08760000000000007,-0.24092533436701574
-0.08860000000000007,-0.2420571034069078
-0.08960000000000007,-0.24304740131681332
-0.09060000000000007,-0.24417917035670533
-0.09160000000000007,-0.24516946826661082
-0.09260000000000007,-0.24615976617651636
-0.09360000000000007,-0.2471500640864219
-0.09460000000000007,-0.24814036199632744
-0.09560000000000007,-0.24913065990623293
-0.09660000000000007,-0.25026242894612494
-0.09760000000000008,-0.251111255726044
-0.09860000000000008,-0.252243024765936
-0.09960000000000008,-0.2532333226758416
-0.10060000000000008,-0.2540821494557606
-0.10160000000000008,-0.2552139184956526
-0.10260000000000008,-0.2562042164055581
-0.10360000000000008,-0.2571945143154637
-0.10460000000000008,-0.2581848122253692
-0.10560000000000008,-0.25903363900528825
-0.10660000000000008,-0.26016540804518024
-0.10760000000000008,-0.2611557059550858
-0.10860000000000009,-0.2621460038649913
-0.10960000000000009,-0.2631363017748969
-0.11060000000000009,-0.26412659968480234
-0.11160000000000009,-0.2651168975947079
-0.11260000000000009,-0.2661071955046134
-0.11360000000000009,-0.26695602228453247
-0.11460000000000009,-0.26808779132442445
-0.11560000000000009,-0.26907808923433
-0.11660000000000009,-0.269926916014249
-0.1176000000000001,-0.2709172139241546
-0.1186000000000001,-0.27204898296404656
-0.1196000000000001,-0.2731807520039386
-0.1206000000000001,-0.2738881076538711
-0.1216000000000001,-0.27473693443379016
-0.1226000000000001,-0.27572723234369567
-0.1236000000000001,-0.2767175302536012
-0.1246000000000001,-0.2775663570335202
-0.1256000000000001,-0.27855665494342574
-0.1266000000000001,-0.27954695285333125
-0.1276000000000001,-0.28025430850326377
-0.1286000000000001,-0.2813860775431558
-0.1296000000000001,-0.2820934331930883
-0.1306000000000001,-0.28294225997300737
-0.1316000000000001,-0.2839325578829129
-0.1326000000000001,-0.28478138466283187
-0.1336000000000001,-0.2856302114427509
-0.1346000000000001,-0.28647903822266996
-0.1356000000000001,-0.28732786500258894
-0.1366000000000001,-0.2883181629124945
-0.1376000000000001,-0.289025518562427
-0.1386000000000001,-0.29001581647233254
-0.1396000000000001,-0.29086464325225153
-0.1406000000000001,-0.2917134700321706
-0.14160000000000011,-0.2927037679420761
-0.14260000000000012,-0.29355259472199513
-0.14360000000000012,-0.2944014215019141
-0.14460000000000012,-0.29539171941181963
-0.14560000000000012,-0.2960990750617522
-0.14660000000000012,-0.29708937297165766
-0.14760000000000012,-0.29793819975157676
-0.14860000000000012,-0.2986455554015092
-0.14960000000000012,-0.29977732444140126
-0.15060000000000012,-0.3006261512213203
-0.15160000000000012,-0.30147497800123935
-0.15260000000000012,-0.3024652759111448
-0.15360000000000013,-0.3031726315610774
-0.15460000000000013,-0.30402145834099636
-0.15560000000000013,-0.3050117562509019
-0.15660000000000013,-0.3058605830308209
-0.15760000000000013,-0.3067094098107399
-0.15860000000000013,-0.30755823659065895
-0.15960000000000002,-0.308407063370578
-0.16060000000000002,-0.3093973612804835
-0.16160000000000002,-0.3102461880604025
-0.16260000000000002,-0.3110950148403216
-0.16360000000000002,-0.3119438416202406
-0.16460000000000002,-0.3127926684001596
-0.16560000000000002,-0.3139244374400516
-0.16660000000000003,-0.31505620647994365
-0.16760000000000003,-0.3156220909998897
-0.16860000000000003,-0.3166123889097952
-0.16960000000000003,-0.3173197445597277
-0.17060000000000003,-0.31831004246963324
-0.17160000000000003,-0.3191588692495523
-0.17260000000000003,-0.32014916715945774
-0.17360000000000003,-0.32099799393937684
-0.17460000000000003,-0.3218468207192958
-0.17560000000000003,-0.32269564749921487
-0.17660000000000003,-0.3236859454091204
-0.17760000000000004,-0.3246762433190259
-0.17860000000000004,-0.32552507009894494
-0.17960000000000004,-0.32651536800885045
-0.18060000000000004,-0.32736419478876944
-0.18160000000000004,-0.328354492698675
-0.18260000000000004,-0.329203319478594
-0.18360000000000004,-0.3300521462585131
-0.18460000000000004,-0.3310424441684186
-0.18560000000000004,-0.3320327420783241
-0.18660000000000004,-0.33302303998822963
-0.18760000000000004,-0.3338718667681486
-0.18860000000000005,-0.3348621646780542
-0.18960000000000005,-0.33585246258795975
-0.19060000000000005,-0.33670128936787874
-0.19160000000000005,-0.33769158727778426
-0.19260000000000005,-0.3386818851876898
-0.19360000000000005,-0.3396721830975953
-0.19460000000000005,-0.34066248100750085
-0.19560000000000005,-0.3416527789174064
-0.19660000000000005,-0.3425016056973254
-0.19760000000000005,-0.34363337473721745
-0.19860000000000005,-0.34448220151713643
-0.19960000000000006,-0.3453310282970554
-0.20060000000000006,-0.3464627973369475
-0.20160000000000006,-0.3473116241168665
-0.20260000000000006,-0.3502825178465831
-0.20360000000000006,-0.35141428688647514
-0.20460000000000006,-0.35127281575648867
-0.20560000000000006,-0.3519801714064211
-0.20660000000000006,-0.3528289981863401
-0.20760000000000006,-0.3538192960962457
-0.20860000000000006,-0.35466812287616467
-0.20960000000000006,-0.35565842078607024
-0.21060000000000006,-0.35664871869597575
-0.21160000000000007,-0.3577804877358678
-0.21260000000000007,-0.3586293145157868
-0.21360000000000007,-0.35961961242569235
-0.21460000000000007,-0.36060991033559786
-0.21560000000000007,-0.3616002082455034
-0.21660000000000007,-0.36287344841538194
-0.21760000000000007,-0.3640052174552739
-0.21860000000000007,-0.36485404423519296
-0.21960000000000007,-0.3658443421450985
-0.22060000000000007,-0.36683464005500405
-0.22160000000000007,-0.36796640909489603
-0.22260000000000008,-0.36909817813478807
-0.22360000000000008,-0.37022994717468005
-0.22460000000000008,-0.3712202450845856
-0.22560000000000008,-0.37221054299449113
-0.22660000000000008,-0.3733423120343832
-0.22760000000000008,-0.3744740810742752
-0.22860000000000008,-0.3753229078541942
-0.22960000000000008,-0.3764546768940863
-0.23060000000000008,-0.3775864459339783
-0.23160000000000008,-0.37857674384388385
-0.23260000000000008,-0.3795670417537893
-0.23360000000000009,-0.38055733966369487
-0.2346000000000001,-0.38168910870358685
-0.2356000000000001,-0.3828208777434789
-0.2366000000000001,-0.3838111756533844
-0.2376000000000001,-0.38508441582326297
-0.2386000000000001,-0.386216184863155
-0.2396000000000001,-0.38763089616302
-0.2406000000000001,-0.3884797229429391
-0.2416000000000001,-0.3893285497228581
-0.2426000000000001,-0.3904603187627501
-0.2436000000000001,-0.3915920878026421
-0.2446000000000001,-0.39258238571254767
-0.2456000000000001,-0.3937141547524397
-0.2466000000000001,-0.3947044526623452
-0.2476000000000001,-0.3956947505722508
-0.2486000000000001,-0.39696799074212924
-0.2496000000000001,-0.3979582886520348
-0.2506000000000001,-0.3990900576919268
-0.2516000000000001,-0.40008035560183236
-0.2526000000000001,-0.4010706535117379
-0.2536000000000001,-0.40262683594158943
-0.2546000000000001,-0.40432448950142746
-0.2556000000000001,-0.40531478741133303
-0.2566000000000001,-0.40658802758121154
-0.2576000000000001,-0.4075783254911171
-0.2586000000000001,-0.40856862340102257
-0.2596000000000001,-0.40984186357090113
-0.2606000000000001,-0.4109736326107932
-0.2616000000000001,-0.4122468727806717
-0.2626000000000001,-0.41323717069057725
-0.2636000000000001,-0.41436893973046923
-0.2646000000000001,-0.4156421799003478
-0.2656000000000001,-0.41677394894023984
-0.2666000000000001,-0.41804718911011834
-0.2676000000000001,-0.4193204292799969
-0.2686000000000001,-0.4204521983198889
-0.2696000000000001,-0.4221498518797269
-0.2706000000000001,-0.4231401497896325
-0.2716000000000001,-0.42441338995951106
-0.2726000000000001,-0.42568663012938956
-0.2736000000000001,-0.4266769280392951
-0.2746000000000001,-0.4279501682091736
-0.2756000000000001,-0.42950635063902515
-0.2766000000000001,-0.4310625330688767
-0.2776000000000001,-0.4321943021087687
-0.2786000000000001,-0.43318460001867426
-0.2796000000000001,-0.4344578401885528
-0.2806000000000001,-0.4355896092284448
-0.28160000000000013,-0.43672137826833685
-0.28260000000000013,-0.4379946184382154
-0.28360000000000013,-0.4392678586080939
-0.2846,-0.44039962764798596
-0.2856,-0.44181433894785094
-0.2866,-0.44308757911772945
-0.2876,-0.44407787702763507
-0.2886,-0.44549258832750005
-0.2896,-0.44676582849737856
-0.2906,-0.4480390686672571
-0.2916,-0.4494537799671222
-0.2926,-0.4505855490070142
-0.2936,-0.4520002603068792
-0.29460000000000003,-0.45327350047675774
-0.29560000000000003,-0.45454674064663625
-0.29660000000000003,-0.45596145194650134
-0.29760000000000003,-0.4572346921163799
-0.29860000000000003,-0.4586494034162448
-0.29960000000000003,-0.4600641147161099
-0.30060000000000003,-0.46119588375600196
-0.30160000000000003,-0.4627520661858534
-0.30260000000000004,-0.464308248615705
-0.30360000000000004,-0.46600590217554305
-0.30460000000000004,-0.4672791423454216
-0.30560000000000004,-0.4686938536452867
-0.30660000000000004,-0.4698256226851787
-0.30760000000000004,-0.47124033398504367
-0.30860000000000004,-0.4723721030249357
-0.30960000000000004,-0.47392828545478727
-0.31060000000000004,-0.47548446788463883
-0.31160000000000004,-0.47718212144447686
-0.31260000000000004,-0.4784553616143554
-0.31360000000000005,-0.4798700729142204
-0.31460000000000005,-0.4812847842140855
-0.31560000000000005,-0.4826994955139505
-0.31660000000000005,-0.4841142068138156
-0.31760000000000005,-0.4853874469836941
-0.31860000000000005,-0.4868021582835591
-0.31960000000000005,-0.4884998118433972
-0.32060000000000005,-0.4900559942732487
-0.32160000000000005,-0.4911877633131407
-0.32260000000000005,-0.4927439457429922
-0.32360000000000005,-0.4943001281728438
-0.32460000000000006,-0.4958563106026953
-0.32560000000000006,-0.49769543529251986
-0.32660000000000006,-0.4991101465923849
-0.32760000000000006,-0.5005248578922499
-0.32860000000000006,-0.502222511452088
-0.32960000000000006,-0.503637222751953
-0.33060000000000006,-0.5051934051818046
-0.33160000000000006,-0.5068910587416426
-0.33260000000000006,-0.5085887123014806
-0.33360000000000006,-0.5101448947313323
-0.33460000000000006,-0.5117010771611837
-0.33560000000000006,-0.5133987307210217
-0.33660000000000007,-0.5150963842808599
-0.33760000000000007,-0.5165110955807248
-0.33860000000000007,-0.518208749140563
-0.33960000000000007,-0.519906402700401
-0.34060000000000007,-0.5214625851302525
-0.34160000000000007,-0.5235846520800501
-0.34260000000000007,-0.5252823056398881
-0.34360000000000007,-0.5269799591997262
-0.3446000000000001,-0.5288190838895507
-0.3456000000000001,-0.5305167374493888
-0.3466000000000001,-0.5323558621392133
-0.34759999999999996,-0.538722062988606
-0.3486000000000001,-0.540136774288471
-0.34959999999999997,-0.5380147073386735
-0.3506000000000001,-0.539570889768525
-0.35159999999999997,-0.5412685433283632
-0.3526000000000001,-0.5433906102781606
-0.35359999999999997,-0.5449467927080122
-0.3546000000000001,-0.5467859173978367
-0.35559999999999997,-0.5489079843476343
-0.3566000000000001,-0.5506056379074723
-0.3576,-0.5527277048572699
-0.3586000000000001,-0.5547083006770809
-0.3596,-0.556688896496892
-0.3606000000000001,-0.558669492316703
-0.3616,-0.5607915592665006
-0.3626000000000001,-0.562913626216298
-0.3636,-0.5650356931660957
-0.3646000000000001,-0.5672992312458797
-0.3656,-0.5699871827156233
-0.3666000000000001,-0.5719677785354343
-0.3676,-0.5739483743552454
-0.3686000000000001,-0.57578749904507
-0.3696,-0.5779095659948674
-0.3706000000000001,-0.5801731040746516
-0.3716,-0.5825781132844221
-0.3726000000000001,-0.5845587091042331
-0.3736,-0.5872466605739768
-0.3746000000000001,-0.5890857852638013
-0.3756,-0.5907834388236393
-0.3766000000000001,-0.5929055057734368
-0.3776,-0.5955934572431805
-0.3786000000000001,-0.5978569953229644
-0.3796,-0.6004034756627216
-0.3806000000000001,-0.6028084848724922
-0.3816,-0.6052134940822627
-0.3826000000000001,-0.6074770321620467
-0.3836,-0.6100235125018038
-0.3846000000000001,-0.6122870505815878
-0.3856,-0.6146920597913584
-0.3866000000000001,-0.6170970690011289
-0.3876,-0.6195020782108995
-0.3886000000000001,-0.6217656162906836
-0.3896,-0.6237462121104946
-0.3906000000000001,-0.6267171058402112
-0.3916,-0.6294050573099549
-0.3926000000000001,-0.6318100665197254
-0.3936,-0.6343565468594824
-0.3946000000000001,-0.6369030271992394
-0.3956,-0.6395909786689831
-0.3966000000000001,-0.6428448146586726
-0.3976,-0.6459571795183757
-0.3986000000000001,-0.6482207175981597
-0.3996,-0.6507671979379168
-0.4006000000000001,-0.653313678277674
-0.4016,-0.655860158617431
-0.4026000000000001,-0.658689581217161
-0.4036,-0.6615190038168911
-0.4046000000000001,-0.6643484264166213
-0.4056,-0.6671778490163512
-0.40660000000000013,-0.670148742746068
-0.4076,-0.672978165345798
-0.40860000000000013,-0.6760905302055011
-0.4096,-0.6789199528052311
-0.41060000000000013,-0.6818908465349477
-0.4116,-0.6848617402646643
-0.41260000000000013,-0.6875496917344079
-0.4136,-0.6908035277240974
-0.41460000000000014,-0.6936329503238275
-0.4156,-0.6967453151835306
-0.41660000000000014,-0.6997162089132472
-0.4176,-0.7029700449029368
-0.41860000000000014,-0.7059409386326533
-0.41960000000000003,-0.7090533034923564
-0.42060000000000014,-0.7123071394820459
-0.42160000000000003,-0.7155609754717356
-0.42260000000000014,-0.7188148114614252
-0.42360000000000003,-0.7220686474511148
-0.42460000000000014,-0.7253224834408043
-0.42560000000000003,-0.7284348483005074
-0.42660000000000015,-0.73197162655017
-0.42760000000000004,-0.735083991409873
-0.42860000000000015,-0.7381963562695761
-0.42960000000000004,-0.7421575479091983
-0.43060000000000015,-0.7452699127689013
-0.43160000000000004,-0.748806691018564
-0.43260000000000015,-0.752484940398213
-0.43360000000000004,-0.7558802475178891
-0.43460000000000015,-0.7594170257675517
-0.43560000000000004,-0.7628123328872277
-0.43660000000000015,-0.7664905822668768
-0.43760000000000004,-0.7703103027765125
-0.43860000000000016,-0.7739885521561616
-0.43960000000000005,-0.7775253304058242
-0.44060000000000016,-0.7814865220454462
-0.44160000000000005,-0.7851647714250953
-0.44260000000000016,-0.7891259630647174
