Potential V vs RHE, Current mA cm-2
0.013299999999999867,-0.002205534916489592
0.012299999999999978,-2.4446211261667834
0.011299999999999866,-3.971094618721158
0.010299999999999976,-5.149549131508733
0.009299999999999864,-6.282732882700628
0.008299999999999974,-7.853062425550818
0.007299999999999862,-9.728969609171857
0.006299999999999972,-11.473308641905447
0.00529999999999986,-12.694204493688973
0.0042999999999999705,-13.3930718758223
0.0032999999999998586,-13.784946905884919
0.0022999999999999687,-14.401761032626075
0.0012999999999998568,-15.575971411514052
0.00029999999999996696,-16.919947146385837
-0.000700000000000145,-18.10830463827247
-0.0017000000000000348,-18.674189158218486
-0.0027000000000001467,-18.80151317520634
-0.0037000000000000366,-18.843954514202288
-0.0047000000000001485,-19.367397695152352
-0.005700000000000038,-20.244518701068674
-0.00670000000000015,-21.376287740960702
-0.00770000000000004,-22.069496277894572
-0.008700000000000152,-22.196820294882425
-0.009700000000000042,-22.027054938898623
-0.010700000000000154,-21.94217226090672
-0.011700000000000044,-22.42317410286083
-0.012700000000000156,-23.24370665678255
-0.013700000000000045,-24.120827662698876
-0.014700000000000157,-24.432064148669184
-0.015700000000000047,-24.34718147067728
-0.01670000000000016,-23.951062306715073
-0.01770000000000005,-23.908620967719123
-0.01870000000000016,-24.432064148669184
-0.01970000000000005,-25.252596702590903
-0.020700000000000163,-25.81848122253692
-0.021700000000000053,-25.959952352523427
-0.022700000000000164,-25.563833188561212
-0.023700000000000054,-25.210155363594954
-0.024700000000000166,-25.252596702590903
-0.025700000000000056,-25.81848122253692
-0.026700000000000168,-26.61071955046134
-0.027700000000000058,-26.9643973754276
-0.02870000000000017,-26.738043567449193
-0.02970000000000006,-26.257041725495082
-0.03070000000000017,-25.959952352523427
-0.03170000000000006,-26.129717708507226
-0.03270000000000017,-26.822926245441096
-0.03370000000000006,-27.38881076538711
-0.034700000000000175,-27.572723234369565
-0.035700000000000065,-27.219045409403304
-0.03670000000000018,-26.738043567449193
-0.03770000000000007,-26.525836872469437
-0.03870000000000018,-26.9643973754276
-0.03970000000000007,-27.572723234369565
-0.04070000000000018,-28.09616641531963
-0.04170000000000007,-27.954695285333123
-0.04270000000000018,-27.487840556377662
-0.04370000000000007,-27.00683871442355
-0.044700000000000184,-26.907808923433
-0.045700000000000074,-27.34636942639116
-0.046700000000000186,-28.011283737327723
-0.047700000000000076,-28.350814449295335
-0.04870000000000019,-28.011283737327723
-0.04970000000000008,-27.487840556377662
-0.05070000000000019,-27.091721392415455
-0.05170000000000008,-27.303928087395207
-0.05270000000000019,-27.827371268345274
-0.05370000000000008,-28.393255788291288
-0.05470000000000019,-28.53472691827779
-0.05570000000000008,-28.18104909331153
-0.056700000000000195,-27.572723234369565
-0.057700000000000085,-27.34636942639116
-0.058700000000000196,-27.65760591236147
-0.059700000000000086,-28.308373110299385
-0.0607000000000002,-28.704492274261593
-0.06170000000000009,-28.619609596269694
-0.0627000000000002,-28.09616641531963
-0.06370000000000009,-27.615164573365515
-0.0647000000000002,-27.615164573365515
-0.06570000000000009,-27.912253946337174
-0.0667000000000002,-28.619609596269694
-0.0677000000000001,-28.8742576302454
-0.0687000000000002,-28.577168257273744
-0.0697000000000001,-28.011283737327723
-0.07070000000000021,-27.615164573365515
-0.0717000000000001,-27.700047251357418
-0.07270000000000021,-28.265931771303435
-0.0737000000000001,-28.789374952253496
-0.07470000000000021,-28.8742576302454
-0.0757000000000001,-28.478138466283188
-0.07670000000000021,-27.869812607341224
-0.0777000000000001,-27.615164573365515
-0.07870000000000021,-27.912253946337174
-0.0797000000000001,-28.53472691827779
-0.08070000000000022,-28.959140308237306
-0.0817000000000001,-28.91669896924135
-0.08270000000000022,-28.350814449295335
-0.08370000000000011,-27.912253946337174
-0.08470000000000022,-27.827371268345274
-0.08570000000000011,-28.265931771303435
-0.08670000000000022,-28.8742576302454
-0.08770000000000011,-29.18549411621571
-0.08870000000000022,-28.8742576302454
-0.08970000000000011,-28.308373110299385
-0.09070000000000022,-27.912253946337174
-0.09170000000000011,-28.09616641531963
-0.09270000000000023,-28.619609596269694
-0.09370000000000012,-29.14305277721976
-0.09470000000000023,-29.27037679420761
-0.09570000000000012,-28.8742576302454
-0.09670000000000023,-28.308373110299385
-0.09770000000000012,-28.09616641531963
-0.09870000000000023,-28.478138466283188
-0.09970000000000012,-29.058170099227848
-0.10070000000000023,-29.525024828183312
-0.10170000000000012,-29.39770081119546
-0.10270000000000024,-28.8742576302454
-0.10370000000000013,-28.393255788291288
-0.10470000000000024,-28.393255788291288
-0.10570000000000013,-28.789374952253496
-0.10670000000000024,-29.482583489187363
-0.10770000000000013,-29.751378636161718
-0.10870000000000024,-29.440142150191413
-0.10970000000000013,-28.8742576302454
-0.11070000000000024,-28.53472691827779
-0.11170000000000013,-28.662050935265643
-0.11270000000000002,-29.18549411621571
-0.11370000000000013,-29.708937297165768
-0.11470000000000002,-29.751378636161718
-0.11570000000000014,-29.39770081119546
-0.11670000000000003,-28.746933613257543
-0.11770000000000014,-28.53472691827779
-0.11870000000000003,-28.8742576302454
-0.11970000000000014,-29.525024828183312
-0.12070000000000003,-29.921143992145527
-0.12170000000000014,-29.878702653149578
-0.12270000000000003,-29.31281813320356
-0.12370000000000014,-28.8742576302454
-0.12470000000000003,-28.831816291249446
-0.12570000000000014,-29.27037679420761
-0.12670000000000003,-29.878702653149578
-0.12770000000000015,-30.232380478115836
-0.12870000000000004,-29.921143992145527
-0.12970000000000015,-29.27037679420761
-0.13070000000000004,-28.8742576302454
-0.13170000000000015,-29.001581647233255
-0.13270000000000004,-29.66649595816982
-0.13370000000000015,-30.147497800123933
-0.13470000000000004,-30.274821817111786
-0.13570000000000015,-29.793819975157668
-0.13670000000000004,-29.22793545521166
-0.13770000000000016,-28.959140308237306
-0.13870000000000005,-29.35525947219951
-0.13970000000000016,-29.96358533114148
-0.14070000000000005,-30.402145834099635
-0.14170000000000016,-30.359704495103685
-0.14270000000000005,-29.793819975157668
-0.14370000000000016,-29.31281813320356
-0.14470000000000005,-29.35525947219951
-0.14570000000000016,-29.793819975157668
-0.14670000000000005,-30.444587173095588
-0.14770000000000016,-30.71338232006995
-0.14870000000000005,-30.444587173095588
-0.14970000000000017,-29.921143992145527
-0.15070000000000006,-29.482583489187363
-0.15170000000000017,-29.708937297165768
-0.15270000000000006,-30.232380478115836
-0.15370000000000017,-30.79826499806185
-0.15470000000000006,-30.8407063370578
-0.15570000000000017,-30.529469851087494
-0.15670000000000006,-29.878702653149578
-0.15770000000000017,-29.708937297165768
-0.15870000000000006,-30.10505646112798
-0.15970000000000018,-30.71338232006995
-0.16070000000000007,-31.19438416202406
-0.16170000000000018,-31.052913032037555
-0.16270000000000007,-30.571911190083444
-0.16370000000000018,-30.10505646112798
-0.16470000000000007,-30.147497800123933
-0.16570000000000018,-30.529469851087494
-0.16670000000000007,-31.23682550102001
-0.16770000000000018,-31.49147353499572
-0.16870000000000007,-31.23682550102001
-0.16970000000000018,-30.614352529079397
-0.17070000000000007,-30.317263156107735
-0.17170000000000019,-30.487028512091538
-0.17270000000000008,-31.052913032037555
-0.1737000000000002,-31.618797551983565
-0.17470000000000008,-31.661238890979522
-0.1757000000000002,-31.36414951800786
-0.17670000000000008,-30.79826499806185
-0.1777000000000002,-30.571911190083444
-0.17870000000000008,-30.968030354045652
-0.1797000000000002,-31.661238890979522
-0.18070000000000008,-32.01491671594578
-0.1817000000000002,-31.972475376949827
-0.18270000000000008,-31.40659085700382
-0.1837000000000002,-31.010471693041605
-0.1847000000000001,-31.010471693041605
-0.1857000000000002,-31.49147353499572
-0.1867000000000001,-32.09979939393769
-0.1877000000000002,-32.45347721890394
-0.1887000000000001,-32.14224073293363
-0.1897000000000002,-31.57635621298762
-0.1907000000000001,-31.23682550102001
-0.1917000000000001,-31.40659085700382
-0.19269999999999998,-32.05735805494172
-0.1937000000000001,-32.58080123589179
-0.19469999999999998,-32.70812525287965
-0.1957000000000001,-32.368594540912035
-0.19669999999999999,-31.802710020966025
-0.1977000000000001,-31.57635621298762
-0.1987,-32.01491671594578
-0.1997000000000001,-32.66568391388369
-0.2007,-33.14668575583781
-0.2017000000000001,-33.01936173884996
-0.2027,-32.58080123589179
-0.2037000000000001,-32.09979939393769
-0.2047,-32.14224073293363
-0.2057000000000001,-32.58080123589179
-0.2067,-33.288156885824314
-0.2077000000000001,-33.54280491980002
-0.2087,-33.231568433829715
-0.2097000000000001,-32.70812525287965
-0.2107,-32.32615320191609
-0.2117000000000001,-32.53835989689585
-0.2127,-33.14668575583781
-0.2137000000000001,-33.755011614779775
-0.2147,-33.81160006677438
-0.2157000000000001,-33.54280491980002
-0.2167,-32.93447906085806
-0.21770000000000012,-32.764713704874254
-0.2187,-33.18912709483376
-0.21970000000000012,-33.89648274476628
-0.2207,-34.278454795729836
-0.22170000000000012,-34.236013456733886
-0.2227,-33.712570275783825
-0.22370000000000012,-33.231568433829715
-0.2247,-33.288156885824314
-0.22570000000000012,-33.81160006677438
-0.2267,-34.50480860370825
-0.22770000000000012,-34.8018979766799
-0.22870000000000001,-34.5472499427042
-0.22970000000000013,-33.98136542275818
-0.23070000000000002,-33.712570275783825
-0.23170000000000013,-33.89648274476628
-0.23270000000000002,-34.58969128170015
-0.23370000000000013,-35.15557580164616
-0.23470000000000002,-35.282899818634014
-0.23570000000000013,-34.98581044566235
-0.23670000000000002,-34.50480860370825
-0.2376999999999999,-34.278454795729836
-0.23870000000000002,-34.75945663768395
-0.2396999999999999,-35.50925362661242
-0.24070000000000003,-35.99025546856653
-0.24169999999999991,-35.99025546856653
-0.24270000000000003,-35.50925362661242
-0.24369999999999992,-35.15557580164616
-0.24470000000000003,-35.240458479638065
-0.24569999999999992,-35.721460321592176
-0.24670000000000003,-36.4288159715247
-0.24769999999999992,-36.81078802248826
-0.24870000000000003,-36.5136986495166
-0.24969999999999992,-36.07513814655844
-0.25070000000000003,-35.721460321592176
-0.2516999999999999,-35.99025546856653
-0.25270000000000004,-36.64102266650445
-0.2536999999999999,-37.291789864442364
-0.25470000000000004,-37.334231203438314
-0.2556999999999999,-37.122024508458566
-0.25670000000000004,-36.5985813275085
-0.25769999999999993,-36.47125731052064
-0.25870000000000004,-36.89567070048016
-0.25969999999999993,-37.687909028404576
-0.26070000000000004,-38.211352209354644
-0.26169999999999993,-38.12646953136274
-0.26270000000000004,-37.73035036740053
-0.26369999999999993,-37.334231203438314
-0.26470000000000005,-37.51814367242077
-0.26569999999999994,-38.04158685337084
-0.26670000000000005,-38.81967806829661
-0.26769999999999994,-39.21579723225882
-0.26870000000000005,-38.98944342428042
-0.26969999999999994,-38.5650300343209
-0.27070000000000005,-38.33867622634249
-0.27169999999999994,-38.6499127123128
-0.27270000000000005,-39.38556258824262
-0.27369999999999994,-40.092918238175145
-0.27470000000000006,-40.26268359415894
-0.27569999999999995,-40.03632978618054
-0.27670000000000006,-39.61191639622103
-0.27769999999999995,-39.61191639622103
-0.27870000000000006,-40.092918238175145
-0.27969999999999995,-40.91345079209687
-0.28070000000000006,-41.47933531204288
-0.28169999999999995,-41.56421799003478
-0.28270000000000006,-41.139804600075266
-0.28369999999999995,-40.87100945310091
-0.28470000000000006,-41.04077480908471
-0.28569999999999995,-41.70568912002128
-0.28670000000000007,-42.526221673943
-0.28769999999999996,-42.96478217690117
-0.28870000000000007,-42.837458159913304
-0.28969999999999996,-42.4413389959511
-0.29070000000000007,-42.31401497896325
-0.29169999999999996,-42.71013414292546
-0.29270000000000007,-43.53066669684718
-0.29369999999999996,-44.3229050247716
-0.2947000000000001,-44.619994397743255
-0.29569999999999996,-44.4077877027635
-0.2967000000000001,-44.096551216793195
-0.29769999999999996,-44.096551216793195
-0.2987000000000001,-44.704877075735155
-0.29969999999999997,-45.581998081651484
-0.3007000000000001,-46.2327652795894
-0.30169999999999997,-46.3176479575813
-0.3027000000000001,-46.062999923605595
-0.30369999999999997,-45.85079322862584
-0.3047000000000001,-46.147882601597495
-0.30569999999999997,-46.84109113853137
-0.3067000000000001,-47.76065348344364
-0.3077,-48.32653800338966
-0.3087000000000001,-48.2840966643937
-0.3097,-48.029448630417996
-0.3107000000000001,-47.93041883942744
-0.3117,-48.51045047237211
-0.3127000000000001,-49.373424365289786
-0.3137,-50.29298671020206
-0.3147000000000001,-50.547634744177756
-0.3157,-50.50519340518181
-0.3167000000000001,-50.2505453712061
-0.3177,-50.37786938819396
-0.3187000000000001,-51.071077925127824
-0.3197,-52.075522948032
-0.3207000000000001,-52.82531993696047
-0.3217,-53.079967970936174
-0.3227000000000001,-52.86776127595642
-0.3237,-52.82531993696047
-0.3247000000000001,-53.22143910092268
-0.3257,-54.08441299384035
-0.3267000000000001,-55.13129935574048
-0.3277,-55.7820665536784
-0.3287000000000001,-55.96597902266086
-0.3297,-55.73962521468245
-0.3307000000000001,-55.9235376836649
-0.3317,-56.489422203610914
-0.3327000000000001,-57.57874990450699
-0.3337,-58.583194927411164
-0.3347000000000001,-59.06419676936528
-0.3357,-59.06419676936528
-0.3367000000000001,-58.97931409137338
-0.3377,-59.23396212534908
-0.3387000000000001,-60.06864179226946
-0.3397,-61.242852171157445
-0.3407000000000001,-62.11997317707376
-0.3417,-62.501945228037314
-0.3427000000000001,-62.41706255004542
-0.3437,-62.501945228037314
-0.3447000000000001,-63.06782974798333
-0.3457,-64.11471610988345
-0.3467000000000001,-65.20404381077954
-0.3477,-66.08116481669586
-0.3487000000000001,-66.29337151167562
-0.3497,-66.29337151167562
-0.3507000000000001,-66.56216665864997
-0.3517,-67.34025787357575
-0.3527000000000001,-68.61349804345427
-0.3537,-69.74526708334632
-0.3547000000000001,-70.43847562028017
-0.3557,-70.62238808926263
-0.35670000000000013,-70.66482942825859
-0.3577,-71.06094859222078
-0.35870000000000013,-72.05124650212633
-0.3597,-73.2820453330089
-0.36070000000000013,-74.37137303390499
-0.3617,-74.89481621485504
-0.3626999999999999,-75.02214023184291
-0.3637,-75.2484940398213
-0.3646999999999999,-76.02658525474708
-0.3657,-77.11591295564315
-0.3666999999999999,-78.51647714250953
-0.3677,-79.47848082641775
-0.3686999999999999,-79.90289421637728
-0.36970000000000003,-80.00192400736783
-0.3706999999999999,-80.34145471933543
-0.37170000000000003,-81.30345840324367
-0.3726999999999999,-82.56255146012353
-0.37370000000000003,-83.87823296899803
-0.3746999999999999,-84.61388284492786
-0.37570000000000003,-85.052443347886
-0.3766999999999999,-85.27879715586442
-0.37770000000000004,-85.92956435380233
-0.3786999999999999,-87.06133339369435
-0.37970000000000004,-88.5892215975486
-0.3806999999999999,-89.76343197643658
-0.38170000000000004,-90.51322896536506
-0.38269999999999993,-90.7254356603448
-0.38370000000000004,-91.12155482430701
-0.38469999999999993,-92.04111716921928
-0.38570000000000004,-93.34265156509512
-0.38669999999999993,-93.21532754810727
-0.38570000000000004,-90.11710980140283
-0.38469999999999993,-86.75009690772404
-0.38370000000000004,-83.39723112704392
-0.38269999999999993,-80.52536718831789
-0.38170000000000004,-78.38915312552167
-0.3806999999999999,-76.86126492166746
-0.37970000000000004,-75.2484940398213
-0.3786999999999999,-73.3669280110008
-0.37770000000000004,-71.10338993121674
-0.3766999999999999,-68.82570473843404
-0.37570000000000003,-66.9582858226122
-0.3746999999999999,-65.76992833072556
-0.37370000000000003,-64.90695443780788
-0.3726999999999999,-63.860068075907755
-0.37170000000000003,-62.33217987205352
-0.3706999999999999,-60.40817250423707
-0.36970000000000003,-58.62563626640712
-0.3686999999999999,-57.352396096528594
-0.3677,-56.57430488160282
-0.3666999999999999,-55.881096344668954
-0.3657,-54.961533999756675
-0.3646999999999999,-53.39120445690648
-0.3637,-51.65110955807249
-0.3626999999999999,-50.20810403221015
-0.3617,-49.28854168729788
-0.36070000000000013,-48.72265716735186
-0.3597,-48.156772647405845
-0.35870000000000013,-47.067444946509774
-0.3577,-45.624439420647434
-0.35670000000000013,-43.96922719980534
-0.3557,-42.71013414292546
-0.3547000000000001,-42.087661170984845
-0.3537,-41.70568912002128
-0.3527000000000001,-41.083216148080666
-0.3517,-39.95144710818864
-0.3507000000000001,-38.46600024333035
-0.3497,-36.99470049147071
-0.3487000000000001,-36.11757948555439
-0.3477,-35.594136304604326
-0.3467000000000001,-35.240458479638065
-0.3457,-34.5472499427042
-0.3447000000000001,-33.330598224820264
-0.3437,-31.802710020966025
-0.3427000000000001,-30.571911190083444
-0.3417,-29.921143992145527
-0.3407000000000001,-29.62405461917387
-0.3397,-29.18549411621571
-0.3387000000000001,-28.350814449295335
-0.3377,-27.091721392415455
-0.3367000000000001,-25.648715866553115
-0.3357,-24.601829504652986
-0.3347000000000001,-24.120827662698876
-0.3337,-23.993503645711023
-0.3327000000000001,-23.427619125765005
-0.3317,-22.508056780852733
-0.3307000000000001,-21.107492593986347
-0.3297,-19.848399537106463
-0.3287000000000001,-19.112749661176647
-0.3277,-18.843954514202288
-0.3267000000000001,-18.631747819222536
-0.3257,-18.10830463827247
-0.3247000000000001,-17.061418276372343
-0.3237,-15.660854089505953
-0.3227000000000001,-14.57152638860988
-0.3217,-14.090524546655764
-0.3207000000000001,-13.960371107068182
-0.3197,-13.741090855589102
-0.3187000000000001,-13.043638184755638
-0.3177,-11.909039722263879
-0.3167000000000001,-10.688143870480351
-0.3157,-9.728969609171857
-0.3147000000000001,-9.467248018696827
-0.3137,-9.379535918105192
-0.3127000000000001,-9.11781432763016
-0.3117,-8.288793505909249
-0.3107000000000001,-7.067897654125724
-0.3097,-5.977155241929781
-0.3087000000000001,-5.411270721983764
-0.3077,-5.235846520800501
-0.3067000000000001,-5.235846520800501
-0.30569999999999997,-4.843971490737885
-0.3047000000000001,-3.927238568425342
-0.30369999999999997,-2.7501987669376318
-0.3027000000000001,-1.7910245056291363
-0.30169999999999997,-1.4415908145624723
-0.3007000000000001,-1.4415908145624723
-0.29969999999999997,-1.4415908145624723
-0.2987000000000001,-0.8308599464107361
-0.29769999999999996,0.12863969849672777
-0.2967000000000001,1.2626298351295453
-0.29569999999999996,1.9607898616129409
-0.2947000000000001,2.1347993514963406
-0.29369999999999996,2.004645911908757
-0.29270000000000007,2.2225114520879723
-0.29169999999999996,2.8761080726256196
-0.29070000000000007,3.922994434525747
-0.28969999999999996,4.926024746130058
-0.28870000000000007,5.319314487492538
-0.28769999999999996,5.319314487492538
-0.28670000000000007,5.275458437196722
-0.28569999999999995,5.493323977375938
-0.28470000000000006,6.278488748801033
-0.28369999999999995,7.369231160996977
-0.28270000000000006,8.110539882126256
-0.28169999999999995,8.372261472601286
-0.28070000000000006,8.198251982717888
-0.27969999999999995,8.110539882126256
-0.27870000000000006,8.546270962484687
-0.27769999999999995,9.419147834501414
-0.27670000000000006,10.37832209580991
-0.27569999999999995,10.989477377351605
-0.27470000000000006,11.033333427647422
-0.27369999999999994,10.727755786876573
-0.27270000000000005,10.815467887468206
-0.27169999999999994,11.38135240741422
-0.27070000000000005,12.341941380022579
-0.26969999999999994,13.169547490443627
-0.26870000000000005,13.518981181510291
-0.26769999999999994,13.344971691626892
-0.26670000000000005,13.169547490443627
-0.26569999999999994,13.257259591035258
