Sept. 15, 2024   16:33:07
Cyclic Voltammetry
File: c:/users/guazh/data/20240903_batch_252_500/2024-09-03-exp362\exp362-2024-09-15t16_18_01-h2koh\exp362_cv_sr_400mvs_efin_-1600mv.bin
Data Source:  Experiment
Instrument Model:  CHI760E
Header: CV ran at 400 mVs
Note: 

Init E (V) = -1
High E (V) = -1
Low E (V) = -1.6
Final E (V) = -1
Init P/N = N
Scan Rate (V/s) = 0.4
Segment = 3
Sample Interval (V) = 0.001
Quiet Time (sec) = 2
Sensitivity (A/V) = 0.01
Comp R (ohm) = 3.0

Results:

Channel 1:
Segment 1:

Segment 2:

Segment 3:

Potential/V, Current/A

-1.000, 1.865e-5
-1.001, 5.873e-5
-1.002, 7.723e-5
-1.003, 8.957e-5
-1.004, 9.573e-5
-1.005, 9.573e-5
-1.006, 9.882e-5
-1.007, 1.019e-4
-1.008, 1.019e-4
-1.009, 1.050e-4
-1.010, 1.050e-4
-1.011, 1.050e-4
-1.012, 1.050e-4
-1.013, 1.081e-4
-1.014, 1.050e-4
-1.015, 1.081e-4
-1.016, 1.081e-4
-1.017, 1.111e-4
-1.018, 1.081e-4
-1.019, 1.081e-4
-1.020, 1.081e-4
-1.021, 1.111e-4
-1.022, 1.111e-4
-1.023, 1.111e-4
-1.024, 1.142e-4
-1.025, 1.111e-4
-1.026, 1.111e-4
-1.027, 1.111e-4
-1.028, 1.111e-4
-1.029, 1.142e-4
-1.030, 1.142e-4
-1.031, 1.142e-4
-1.032, 1.111e-4
-1.033, 1.142e-4
-1.034, 1.142e-4
-1.035, 1.142e-4
-1.036, 1.142e-4
-1.037, 1.142e-4
-1.038, 1.142e-4
-1.039, 1.142e-4
-1.040, 1.142e-4
-1.041, 1.142e-4
-1.042, 1.173e-4
-1.043, 1.173e-4
-1.044, 1.173e-4
-1.045, 1.142e-4
-1.046, 1.173e-4
-1.047, 1.173e-4
-1.048, 1.173e-4
-1.049, 1.173e-4
-1.050, 1.173e-4
-1.051, 1.173e-4
-1.052, 1.173e-4
-1.053, 1.173e-4
-1.054, 1.173e-4
-1.055, 1.173e-4
-1.056, 1.173e-4
-1.057, 1.204e-4
-1.058, 1.173e-4
-1.059, 1.173e-4
-1.060, 1.173e-4
-1.061, 1.173e-4
-1.062, 1.204e-4
-1.063, 1.204e-4
-1.064, 1.204e-4
-1.065, 1.204e-4
-1.066, 1.204e-4
-1.067, 1.173e-4
-1.068, 1.204e-4
-1.069, 1.204e-4
-1.070, 1.204e-4
-1.071, 1.204e-4
-1.072, 1.204e-4
-1.073, 1.204e-4
-1.074, 1.204e-4
-1.075, 1.204e-4
-1.076, 1.235e-4
-1.077, 1.204e-4
-1.078, 1.204e-4
-1.079, 1.204e-4
-1.080, 1.204e-4
-1.081, 1.204e-4
-1.082, 1.235e-4
-1.083, 1.204e-4
-1.084, 1.204e-4
-1.085, 1.204e-4
-1.086, 1.204e-4
-1.087, 1.204e-4
-1.088, 1.235e-4
-1.089, 1.235e-4
-1.090, 1.235e-4
-1.091, 1.204e-4
-1.092, 1.204e-4
-1.093, 1.204e-4
-1.094, 1.235e-4
-1.095, 1.235e-4
-1.096, 1.235e-4
-1.097, 1.235e-4
-1.098, 1.204e-4
-1.099, 1.204e-4
-1.100, 1.235e-4
-1.101, 1.235e-4
-1.102, 1.235e-4
-1.103, 1.235e-4
-1.104, 1.235e-4
-1.105, 1.235e-4
-1.106, 1.235e-4
-1.107, 1.235e-4
-1.108, 1.235e-4
-1.109, 1.235e-4
-1.110, 1.235e-4
-1.111, 1.235e-4
-1.112, 1.235e-4
-1.113, 1.235e-4
-1.114, 1.235e-4
-1.115, 1.235e-4
-1.116, 1.235e-4
-1.117, 1.266e-4
-1.118, 1.235e-4
-1.119, 1.235e-4
-1.120, 1.235e-4
-1.121, 1.235e-4
-1.122, 1.235e-4
-1.123, 1.235e-4
-1.124, 1.235e-4
-1.125, 1.235e-4
-1.126, 1.235e-4
-1.127, 1.235e-4
-1.128, 1.266e-4
-1.129, 1.266e-4
-1.130, 1.266e-4
-1.131, 1.266e-4
-1.132, 1.235e-4
-1.133, 1.235e-4
-1.134, 1.235e-4
-1.135, 1.266e-4
-1.136, 1.266e-4
-1.137, 1.266e-4
-1.138, 1.266e-4
-1.139, 1.235e-4
-1.140, 1.235e-4
-1.141, 1.266e-4
-1.142, 1.266e-4
-1.143, 1.266e-4
-1.144, 1.266e-4
-1.145, 1.266e-4
-1.146, 1.266e-4
-1.147, 1.266e-4
-1.148, 1.266e-4
-1.149, 1.266e-4
-1.150, 1.296e-4
-1.151, 1.266e-4
-1.152, 1.296e-4
-1.153, 1.266e-4
-1.154, 1.296e-4
-1.155, 1.296e-4
-1.156, 1.296e-4
-1.157, 1.296e-4
-1.158, 1.296e-4
-1.159, 1.296e-4
-1.160, 1.296e-4
-1.161, 1.296e-4
-1.162, 1.327e-4
-1.163, 1.327e-4
-1.164, 1.296e-4
-1.165, 1.296e-4
-1.166, 1.327e-4
-1.167, 1.327e-4
-1.168, 1.327e-4
-1.169, 1.358e-4
-1.170, 1.358e-4
-1.171, 1.358e-4
-1.172, 1.358e-4
-1.173, 1.358e-4
-1.174, 1.358e-4
-1.175, 1.358e-4
-1.176, 1.358e-4
-1.177, 1.389e-4
-1.178, 1.358e-4
-1.179, 1.358e-4
-1.180, 1.358e-4
-1.181, 1.389e-4
-1.182, 1.389e-4
-1.183, 1.389e-4
-1.184, 1.389e-4
-1.185, 1.389e-4
-1.186, 1.389e-4
-1.187, 1.389e-4
-1.188, 1.420e-4
-1.189, 1.420e-4
-1.190, 1.451e-4
-1.191, 1.451e-4
-1.192, 1.420e-4
-1.193, 1.451e-4
-1.194, 1.451e-4
-1.195, 1.481e-4
-1.196, 1.481e-4
-1.197, 1.481e-4
-1.198, 1.481e-4
-1.199, 1.481e-4
-1.200, 1.481e-4
-1.201, 1.512e-4
-1.202, 1.543e-4
-1.203, 1.543e-4
-1.204, 1.543e-4
-1.205, 1.543e-4
-1.206, 1.543e-4
-1.207, 1.574e-4
-1.208, 1.574e-4
-1.209, 1.574e-4
-1.210, 1.605e-4
-1.211, 1.605e-4
-1.212, 1.605e-4
-1.213, 1.605e-4
-1.214, 1.636e-4
-1.215, 1.636e-4
-1.216, 1.666e-4
-1.217, 1.666e-4
-1.218, 1.666e-4
-1.219, 1.697e-4
-1.220, 1.697e-4
-1.221, 1.728e-4
-1.222, 1.728e-4
-1.223, 1.759e-4
-1.224, 1.759e-4
-1.225, 1.759e-4
-1.226, 1.759e-4
-1.227, 1.790e-4
-1.228, 1.821e-4
-1.229, 1.851e-4
-1.230, 1.851e-4
-1.231, 1.851e-4
-1.232, 1.882e-4
-1.233, 1.882e-4
-1.234, 1.913e-4
-1.235, 1.944e-4
-1.236, 1.944e-4
-1.237, 1.975e-4
-1.238, 1.975e-4
-1.239, 1.975e-4
-1.240, 2.006e-4
-1.241, 2.036e-4
-1.242, 2.067e-4
-1.243, 2.098e-4
-1.244, 2.098e-4
-1.245, 2.098e-4
-1.246, 2.129e-4
-1.247, 2.160e-4
-1.248, 2.191e-4
-1.249, 2.221e-4
-1.250, 2.252e-4
-1.251, 2.252e-4
-1.252, 2.283e-4
-1.253, 2.314e-4
-1.254, 2.314e-4
-1.255, 2.345e-4
-1.256, 2.376e-4
-1.257, 2.406e-4
-1.258, 2.406e-4
-1.259, 2.437e-4
-1.260, 2.468e-4
-1.261, 2.499e-4
-1.262, 2.530e-4
-1.263, 2.591e-4
-1.264, 2.591e-4
-1.265, 2.622e-4
-1.266, 2.653e-4
-1.267, 2.684e-4
-1.268, 2.746e-4
-1.269, 2.776e-4
-1.270, 2.807e-4
-1.271, 2.807e-4
-1.272, 2.869e-4
-1.273, 2.900e-4
-1.274, 2.931e-4
-1.275, 2.961e-4
-1.276, 3.023e-4
-1.277, 3.054e-4
-1.278, 3.085e-4
-1.279, 3.115e-4
-1.280, 3.146e-4
-1.281, 3.208e-4
-1.282, 3.239e-4
-1.283, 3.300e-4
-1.284, 3.300e-4
-1.285, 3.362e-4
-1.286, 3.393e-4
-1.287, 3.455e-4
-1.288, 3.516e-4
-1.289, 3.547e-4
-1.290, 3.609e-4
-1.291, 3.640e-4
-1.292, 3.670e-4
-1.293, 3.701e-4
-1.294, 3.794e-4
-1.295, 3.855e-4
-1.296, 3.886e-4
-1.297, 3.948e-4
-1.298, 3.979e-4
-1.299, 4.040e-4
-1.300, 4.071e-4
-1.301, 4.133e-4
-1.302, 4.195e-4
-1.303, 4.256e-4
-1.304, 4.318e-4
-1.305, 4.380e-4
-1.306, 4.441e-4
-1.307, 4.503e-4
-1.308, 4.565e-4
-1.309, 4.595e-4
-1.310, 4.688e-4
-1.311, 4.719e-4
-1.312, 4.811e-4
-1.313, 4.873e-4
-1.314, 4.965e-4
-1.315, 5.027e-4
-1.316, 5.089e-4
-1.317, 5.150e-4
-1.318, 5.181e-4
-1.319, 5.274e-4
-1.320, 5.335e-4
-1.321, 5.397e-4
-1.322, 5.489e-4
-1.323, 5.582e-4
-1.324, 5.644e-4
-1.325, 5.705e-4
-1.326, 5.767e-4
-1.327, 5.859e-4
-1.328, 5.952e-4
-1.329, 6.014e-4
-1.330, 6.106e-4
-1.331, 6.168e-4
-1.332, 6.260e-4
-1.333, 6.322e-4
-1.334, 6.414e-4
-1.335, 6.507e-4
-1.336, 6.599e-4
-1.337, 6.692e-4
-1.338, 6.754e-4
-1.339, 6.846e-4
-1.340, 6.908e-4
-1.341, 7.000e-4
-1.342, 7.093e-4
-1.343, 7.185e-4
-1.344, 7.247e-4
-1.345, 7.339e-4
-1.346, 7.463e-4
-1.347, 7.555e-4
-1.348, 7.648e-4
-1.349, 7.740e-4
-1.350, 7.833e-4
-1.351, 7.925e-4
-1.352, 7.987e-4
-1.353, 8.110e-4
-1.354, 8.233e-4
-1.355, 8.326e-4
-1.356, 8.449e-4
-1.357, 8.542e-4
-1.358, 8.634e-4
-1.359, 8.727e-4
-1.360, 8.819e-4
-1.361, 8.912e-4
-1.362, 9.035e-4
-1.363, 9.158e-4
-1.364, 9.251e-4
-1.365, 9.343e-4
-1.366, 9.467e-4
-1.367, 9.590e-4
-1.368, 9.713e-4
-1.369, 9.806e-4
-1.370, 9.929e-4
-1.371, 1.002e-3
-1.372, 1.014e-3
-1.373, 1.027e-3
-1.374, 1.036e-3
-1.375, 1.048e-3
-1.376, 1.061e-3
-1.377, 1.070e-3
-1.378, 1.082e-3
-1.379, 1.095e-3
-1.380, 1.107e-3
-1.381, 1.119e-3
-1.382, 1.135e-3
-1.383, 1.147e-3
-1.384, 1.156e-3
-1.385, 1.169e-3
-1.386, 1.181e-3
-1.387, 1.193e-3
-1.388, 1.206e-3
-1.389, 1.221e-3
-1.390, 1.233e-3
-1.391, 1.246e-3
-1.392, 1.261e-3
-1.393, 1.270e-3
-1.394, 1.283e-3
-1.395, 1.295e-3
-1.396, 1.307e-3
-1.397, 1.320e-3
-1.398, 1.335e-3
-1.399, 1.347e-3
-1.400, 1.360e-3
-1.401, 1.375e-3
-1.402, 1.391e-3
-1.403, 1.406e-3
-1.404, 1.418e-3
-1.405, 1.434e-3
-1.406, 1.446e-3
-1.407, 1.458e-3
-1.408, 1.474e-3
-1.409, 1.486e-3
-1.410, 1.499e-3
-1.411, 1.514e-3
-1.412, 1.526e-3
-1.413, 1.542e-3
-1.414, 1.557e-3
-1.415, 1.576e-3
-1.416, 1.588e-3
-1.417, 1.600e-3
-1.418, 1.613e-3
-1.419, 1.625e-3
-1.420, 1.637e-3
-1.421, 1.653e-3
-1.422, 1.671e-3
-1.423, 1.690e-3
-1.424, 1.705e-3
-1.425, 1.721e-3
-1.426, 1.736e-3
-1.427, 1.748e-3
-1.428, 1.764e-3
-1.429, 1.776e-3
-1.430, 1.791e-3
-1.431, 1.810e-3
-1.432, 1.825e-3
-1.433, 1.844e-3
-1.434, 1.862e-3
-1.435, 1.878e-3
-1.436, 1.896e-3
-1.437, 1.909e-3
-1.438, 1.921e-3
-1.439, 1.936e-3
-1.440, 1.952e-3
-1.441, 1.970e-3
-1.442, 1.986e-3
-1.443, 2.004e-3
-1.444, 2.020e-3
-1.445, 2.035e-3
-1.446, 2.054e-3
-1.447, 2.072e-3
-1.448, 2.084e-3
-1.449, 2.100e-3
-1.450, 2.118e-3
-1.451, 2.137e-3
-1.452, 2.152e-3
-1.453, 2.164e-3
-1.454, 2.180e-3
-1.455, 2.198e-3
-1.456, 2.220e-3
-1.457, 2.238e-3
-1.458, 2.257e-3
-1.459, 2.275e-3
-1.460, 2.294e-3
-1.461, 2.312e-3
-1.462, 2.334e-3
-1.463, 2.353e-3
-1.464, 2.368e-3
-1.465, 2.386e-3
-1.466, 2.408e-3
-1.467, 2.427e-3
-1.468, 2.445e-3
-1.469, 2.464e-3
-1.470, 2.482e-3
-1.471, 2.501e-3
-1.472, 2.522e-3
-1.473, 2.541e-3
-1.474, 2.559e-3
-1.475, 2.575e-3
-1.476, 2.593e-3
-1.477, 2.615e-3
-1.478, 2.633e-3
-1.479, 2.652e-3
-1.480, 2.670e-3
-1.481, 2.689e-3
-1.482, 2.707e-3
-1.483, 2.729e-3
-1.484, 2.753e-3
-1.485, 2.772e-3
-1.486, 2.790e-3
-1.487, 2.809e-3
-1.488, 2.830e-3
-1.489, 2.855e-3
-1.490, 2.877e-3
-1.491, 2.892e-3
-1.492, 2.911e-3
-1.493, 2.935e-3
-1.494, 2.960e-3
-1.495, 2.985e-3
-1.496, 3.003e-3
-1.497, 3.022e-3
-1.498, 3.046e-3
-1.499, 3.068e-3
-1.500, 3.089e-3
-1.501, 3.108e-3
-1.502, 3.126e-3
-1.503, 3.151e-3
-1.504, 3.179e-3
-1.505, 3.200e-3
-1.506, 3.216e-3
-1.507, 3.237e-3
-1.508, 3.259e-3
-1.509, 3.290e-3
-1.510, 3.311e-3
-1.511, 3.327e-3
-1.512, 3.348e-3
-1.513, 3.373e-3
-1.514, 3.401e-3
-1.515, 3.422e-3
-1.516, 3.444e-3
-1.517, 3.469e-3
-1.518, 3.490e-3
-1.519, 3.515e-3
-1.520, 3.543e-3
-1.521, 3.564e-3
-1.522, 3.589e-3
-1.523, 3.614e-3
-1.524, 3.635e-3
-1.525, 3.657e-3
-1.526, 3.681e-3
-1.527, 3.706e-3
-1.528, 3.731e-3
-1.529, 3.752e-3
-1.530, 3.777e-3
-1.531, 3.802e-3
-1.532, 3.826e-3
-1.533, 3.851e-3
-1.534, 3.876e-3
-1.535, 3.900e-3
-1.536, 3.925e-3
-1.537, 3.956e-3
-1.538, 3.984e-3
-1.539, 4.011e-3
-1.540, 4.039e-3
-1.541, 4.064e-3
-1.542, 4.088e-3
-1.543, 4.113e-3
-1.544, 4.141e-3
-1.545, 4.169e-3
-1.546, 4.193e-3
-1.547, 4.224e-3
-1.548, 4.255e-3
-1.549, 4.283e-3
-1.550, 4.310e-3
-1.551, 4.335e-3
-1.552, 4.360e-3
-1.553, 4.391e-3
-1.554, 4.415e-3
-1.555, 4.446e-3
-1.556, 4.477e-3
-1.557, 4.514e-3
-1.558, 4.548e-3
-1.559, 4.569e-3
-1.560, 4.591e-3
-1.561, 4.619e-3
-1.562, 4.653e-3
-1.563, 4.683e-3
-1.564, 4.714e-3
-1.565, 4.745e-3
-1.566, 4.779e-3
-1.567, 4.816e-3
-1.568, 4.850e-3
-1.569, 4.881e-3
-1.570, 4.899e-3
-1.571, 4.927e-3
-1.572, 4.955e-3
-1.573, 4.986e-3
-1.574, 5.019e-3
-1.575, 5.050e-3
-1.576, 5.087e-3
-1.577, 5.124e-3
-1.578, 5.161e-3
-1.579, 5.189e-3
-1.580, 5.214e-3
-1.581, 5.238e-3
-1.582, 5.269e-3
-1.583, 5.306e-3
-1.584, 5.340e-3
-1.585, 5.371e-3
-1.586, 5.402e-3
-1.587, 5.436e-3
-1.588, 5.476e-3
-1.589, 5.513e-3
-1.590, 5.541e-3
-1.591, 5.562e-3
-1.592, 5.593e-3
-1.593, 5.636e-3
-1.594, 5.673e-3
-1.595, 5.707e-3
-1.596, 5.741e-3
-1.597, 5.778e-3
-1.598, 5.812e-3
-1.599, 5.852e-3
-1.600, 5.836e-3
-1.599, 5.759e-3
-1.598, 5.701e-3
-1.597, 5.648e-3
-1.596, 5.596e-3
-1.595, 5.541e-3
-1.594, 5.482e-3
-1.593, 5.426e-3
-1.592, 5.380e-3
-1.591, 5.337e-3
-1.590, 5.288e-3
-1.589, 5.232e-3
-1.588, 5.171e-3
-1.587, 5.121e-3
-1.586, 5.075e-3
-1.585, 5.026e-3
-1.584, 4.973e-3
-1.583, 4.924e-3
-1.582, 4.878e-3
-1.581, 4.834e-3
-1.580, 4.791e-3
-1.579, 4.742e-3
-1.578, 4.696e-3
-1.577, 4.653e-3
-1.576, 4.612e-3
-1.575, 4.566e-3
-1.574, 4.520e-3
-1.573, 4.471e-3
-1.572, 4.424e-3
-1.571, 4.387e-3
-1.570, 4.350e-3
-1.569, 4.307e-3
-1.568, 4.261e-3
-1.567, 4.218e-3
-1.566, 4.178e-3
-1.565, 4.135e-3
-1.564, 4.088e-3
-1.563, 4.042e-3
-1.562, 3.999e-3
-1.561, 3.965e-3
-1.560, 3.931e-3
-1.559, 3.894e-3
-1.558, 3.851e-3
-1.557, 3.805e-3
-1.556, 3.762e-3
-1.555, 3.721e-3
-1.554, 3.684e-3
-1.553, 3.647e-3
-1.552, 3.614e-3
-1.551, 3.583e-3
-1.550, 3.555e-3
-1.549, 3.518e-3
-1.548, 3.475e-3
-1.547, 3.435e-3
-1.546, 3.398e-3
-1.545, 3.364e-3
-1.544, 3.330e-3
-1.543, 3.296e-3
-1.542, 3.262e-3
-1.541, 3.231e-3
-1.540, 3.200e-3
-1.539, 3.170e-3
-1.538, 3.133e-3
-1.537, 3.096e-3
-1.536, 3.059e-3
-1.535, 3.025e-3
-1.534, 2.997e-3
-1.533, 2.966e-3
-1.532, 2.932e-3
-1.531, 2.904e-3
-1.530, 2.877e-3
-1.529, 2.846e-3
-1.528, 2.812e-3
-1.527, 2.781e-3
-1.526, 2.750e-3
-1.525, 2.719e-3
-1.524, 2.689e-3
-1.523, 2.658e-3
-1.522, 2.627e-3
-1.521, 2.596e-3
-1.520, 2.571e-3
-1.519, 2.547e-3
-1.518, 2.522e-3
-1.517, 2.494e-3
-1.516, 2.464e-3
-1.515, 2.433e-3
-1.514, 2.405e-3
-1.513, 2.374e-3
-1.512, 2.346e-3
-1.511, 2.319e-3
-1.510, 2.300e-3
-1.509, 2.279e-3
-1.508, 2.254e-3
-1.507, 2.226e-3
-1.506, 2.201e-3
-1.505, 2.177e-3
-1.504, 2.152e-3
-1.503, 2.128e-3
-1.502, 2.103e-3
-1.501, 2.078e-3
-1.500, 2.057e-3
-1.499, 2.038e-3
-1.498, 2.017e-3
-1.497, 1.995e-3
-1.496, 1.967e-3
-1.495, 1.943e-3
-1.494, 1.921e-3
-1.493, 1.899e-3
-1.492, 1.878e-3
-1.491, 1.856e-3
-1.490, 1.835e-3
-1.489, 1.816e-3
-1.488, 1.795e-3
-1.487, 1.770e-3
-1.486, 1.748e-3
-1.485, 1.730e-3
-1.484, 1.714e-3
-1.483, 1.702e-3
-1.482, 1.680e-3
-1.481, 1.656e-3
-1.480, 1.634e-3
-1.479, 1.619e-3
-1.478, 1.600e-3
-1.477, 1.582e-3
-1.476, 1.563e-3
-1.475, 1.545e-3
-1.474, 1.532e-3
-1.473, 1.517e-3
-1.472, 1.499e-3
-1.471, 1.477e-3
-1.470, 1.462e-3
-1.469, 1.443e-3
-1.468, 1.428e-3
-1.467, 1.409e-3
-1.466, 1.394e-3
-1.465, 1.381e-3
-1.464, 1.366e-3
-1.463, 1.351e-3
-1.462, 1.332e-3
-1.461, 1.314e-3
-1.460, 1.298e-3
-1.459, 1.286e-3
-1.458, 1.273e-3
-1.457, 1.258e-3
-1.456, 1.243e-3
-1.455, 1.227e-3
-1.454, 1.215e-3
-1.453, 1.203e-3
-1.452, 1.190e-3
-1.451, 1.175e-3
-1.450, 1.159e-3
-1.449, 1.147e-3
-1.448, 1.135e-3
-1.447, 1.122e-3
-1.446, 1.107e-3
-1.445, 1.095e-3
-1.444, 1.082e-3
-1.443, 1.070e-3
-1.442, 1.058e-3
-1.441, 1.045e-3
-1.440, 1.033e-3
-1.439, 1.021e-3
-1.438, 1.011e-3
-1.437, 1.002e-3
-1.436, 9.868e-4
-1.435, 9.744e-4
-1.434, 9.621e-4
-1.433, 9.528e-4
-1.432, 9.436e-4
-1.431, 9.343e-4
-1.430, 9.189e-4
-1.429, 9.097e-4
-1.428, 9.004e-4
-1.427, 8.881e-4
-1.426, 8.788e-4
-1.425, 8.727e-4
-1.424, 8.603e-4
-1.423, 8.511e-4
-1.422, 8.418e-4
-1.421, 8.295e-4
-1.420, 8.172e-4
-1.419, 8.079e-4
-1.418, 7.987e-4
-1.417, 7.925e-4
-1.416, 7.833e-4
-1.415, 7.740e-4
-1.414, 7.679e-4
-1.413, 7.586e-4
-1.412, 7.494e-4
-1.411, 7.401e-4
-1.410, 7.309e-4
-1.409, 7.185e-4
-1.408, 7.124e-4
-1.407, 7.031e-4
-1.406, 6.969e-4
-1.405, 6.939e-4
-1.404, 6.846e-4
-1.403, 6.784e-4
-1.402, 6.692e-4
-1.401, 6.569e-4
-1.400, 6.476e-4
-1.399, 6.414e-4
-1.398, 6.353e-4
-1.397, 6.260e-4
-1.396, 6.168e-4
-1.395, 6.106e-4
-1.394, 6.044e-4
-1.393, 5.983e-4
-1.392, 5.921e-4
-1.391, 5.859e-4
-1.390, 5.767e-4
-1.389, 5.674e-4
-1.388, 5.582e-4
-1.387, 5.520e-4
-1.386, 5.459e-4
-1.385, 5.397e-4
-1.384, 5.335e-4
-1.383, 5.274e-4
-1.382, 5.212e-4
-1.381, 5.120e-4
-1.380, 5.058e-4
-1.379, 4.996e-4
-1.378, 4.935e-4
-1.377, 4.873e-4
-1.376, 4.780e-4
-1.375, 4.719e-4
-1.374, 4.657e-4
-1.373, 4.626e-4
-1.372, 4.565e-4
-1.371, 4.503e-4
-1.370, 4.441e-4
-1.369, 4.349e-4
-1.368, 4.287e-4
-1.367, 4.225e-4
-1.366, 4.164e-4
-1.365, 4.133e-4
-1.364, 4.040e-4
-1.363, 4.010e-4
-1.362, 3.948e-4
-1.361, 3.886e-4
-1.360, 3.825e-4
-1.359, 3.763e-4
-1.358, 3.732e-4
-1.357, 3.670e-4
-1.356, 3.578e-4
-1.355, 3.547e-4
-1.354, 3.485e-4
-1.353, 3.424e-4
-1.352, 3.393e-4
-1.351, 3.331e-4
-1.350, 3.270e-4
-1.349, 3.208e-4
-1.348, 3.146e-4
-1.347, 3.115e-4
-1.346, 3.054e-4
-1.345, 2.992e-4
-1.344, 2.961e-4
-1.343, 2.900e-4
-1.342, 2.838e-4
-1.341, 2.776e-4
-1.340, 2.715e-4
-1.339, 2.684e-4
-1.338, 2.653e-4
-1.337, 2.591e-4
-1.336, 2.530e-4
-1.335, 2.468e-4
-1.334, 2.437e-4
-1.333, 2.376e-4
-1.332, 2.345e-4
-1.331, 2.283e-4
-1.330, 2.252e-4
-1.329, 2.191e-4
-1.328, 2.160e-4
-1.327, 2.098e-4
-1.326, 2.067e-4
-1.325, 2.006e-4
-1.324, 1.975e-4
-1.323, 1.913e-4
-1.322, 1.851e-4
-1.321, 1.821e-4
-1.320, 1.759e-4
-1.319, 1.728e-4
-1.318, 1.666e-4
-1.317, 1.636e-4
-1.316, 1.574e-4
-1.315, 1.543e-4
-1.314, 1.512e-4
-1.313, 1.451e-4
-1.312, 1.420e-4
-1.311, 1.389e-4
-1.310, 1.327e-4
-1.309, 1.296e-4
-1.308, 1.235e-4
-1.307, 1.204e-4
-1.306, 1.173e-4
-1.305, 1.111e-4
-1.304, 1.081e-4
-1.303, 1.019e-4
-1.302, 9.882e-5
-1.301, 9.573e-5
-1.300, 8.957e-5
-1.299, 8.648e-5
-1.298, 8.340e-5
-1.297, 8.032e-5
-1.296, 7.723e-5
-1.295, 7.107e-5
-1.294, 6.798e-5
-1.293, 6.490e-5
-1.292, 5.873e-5
-1.291, 5.873e-5
-1.290, 5.565e-5
-1.289, 4.949e-5
-1.288, 4.640e-5
-1.287, 4.332e-5
-1.286, 4.024e-5
-1.285, 3.715e-5
-1.284, 3.407e-5
-1.283, 3.099e-5
-1.282, 2.482e-5
-1.281, 2.174e-5
-1.280, 1.557e-5
-1.279, 1.557e-5
-1.278, 1.249e-5
-1.277, 9.405e-6
-1.276, 6.322e-6
-1.275, 1.559e-7
-1.274, -2.927e-6
-1.273, -6.010e-6
-1.272, -6.010e-6
-1.271, -9.093e-6
-1.270, -1.218e-5
-1.269, -1.526e-5
-1.268, -1.834e-5
-1.267, -2.143e-5
-1.266, -2.451e-5
-1.265, -2.759e-5
-1.264, -3.068e-5
-1.263, -3.376e-5
-1.262, -3.684e-5
-1.261, -3.992e-5
-1.260, -4.301e-5
-1.259, -4.301e-5
-1.258, -4.609e-5
-1.257, -4.917e-5
-1.256, -5.226e-5
-1.255, -5.534e-5
-1.254, -5.842e-5
-1.253, -5.842e-5
-1.252, -6.151e-5
-1.251, -6.459e-5
-1.250, -6.459e-5
-1.249, -6.767e-5
-1.248, -7.076e-5
-1.247, -7.384e-5
-1.246, -7.692e-5
-1.245, -7.692e-5
-1.244, -8.000e-5
-1.243, -8.000e-5
-1.242, -8.309e-5
-1.241, -8.617e-5
-1.240, -8.617e-5
-1.239, -8.925e-5
-1.238, -9.234e-5
-1.237, -9.234e-5
-1.236, -9.542e-5
-1.235, -9.850e-5
-1.234, -9.850e-5
-1.233, -1.016e-4
-1.232, -1.016e-4
-1.231, -1.047e-4
-1.230, -1.078e-4
-1.229, -1.108e-4
-1.228, -1.108e-4
-1.227, -1.139e-4
-1.226, -1.139e-4
-1.225, -1.139e-4
-1.224, -1.170e-4
-1.223, -1.170e-4
-1.222, -1.201e-4
-1.221, -1.201e-4
-1.220, -1.232e-4
-1.219, -1.232e-4
-1.218, -1.263e-4
-1.217, -1.263e-4
-1.216, -1.263e-4
-1.215, -1.293e-4
-1.214, -1.324e-4
-1.213, -1.324e-4
-1.212, -1.324e-4
-1.211, -1.324e-4
-1.210, -1.324e-4
-1.209, -1.355e-4
-1.208, -1.386e-4
-1.207, -1.386e-4
-1.206, -1.386e-4
-1.205, -1.386e-4
-1.204, -1.417e-4
-1.203, -1.448e-4
-1.202, -1.448e-4
-1.201, -1.478e-4
-1.200, -1.478e-4
-1.199, -1.478e-4
-1.198, -1.448e-4
-1.197, -1.478e-4
-1.196, -1.478e-4
-1.195, -1.509e-4
-1.194, -1.509e-4
-1.193, -1.540e-4
-1.192, -1.540e-4
-1.191, -1.540e-4
-1.190, -1.540e-4
-1.189, -1.540e-4
-1.188, -1.571e-4
-1.187, -1.571e-4
-1.186, -1.571e-4
-1.185, -1.571e-4
-1.184, -1.571e-4
-1.183, -1.602e-4
-1.182, -1.602e-4
-1.181, -1.602e-4
-1.180, -1.632e-4
-1.179, -1.602e-4
-1.178, -1.602e-4
-1.177, -1.632e-4
-1.176, -1.602e-4
-1.175, -1.632e-4
-1.174, -1.632e-4
-1.173, -1.663e-4
-1.172, -1.663e-4
-1.171, -1.663e-4
-1.170, -1.663e-4
-1.169, -1.663e-4
-1.168, -1.663e-4
-1.167, -1.663e-4
-1.166, -1.663e-4
-1.165, -1.663e-4
-1.164, -1.663e-4
-1.163, -1.663e-4
-1.162, -1.694e-4
-1.161, -1.694e-4
-1.160, -1.694e-4
-1.159, -1.694e-4
-1.158, -1.694e-4
-1.157, -1.694e-4
-1.156, -1.725e-4
-1.155, -1.725e-4
-1.154, -1.725e-4
-1.153, -1.725e-4
-1.152, -1.725e-4
-1.151, -1.725e-4
-1.150, -1.725e-4
-1.149, -1.725e-4
-1.148, -1.756e-4
-1.147, -1.725e-4
-1.146, -1.756e-4
-1.145, -1.725e-4
-1.144, -1.725e-4
-1.143, -1.725e-4
-1.142, -1.725e-4
-1.141, -1.725e-4
-1.140, -1.725e-4
-1.139, -1.725e-4
-1.138, -1.725e-4
-1.137, -1.725e-4
-1.136, -1.725e-4
-1.135, -1.756e-4
-1.134, -1.756e-4
-1.133, -1.725e-4
-1.132, -1.725e-4
-1.131, -1.756e-4
-1.130, -1.725e-4
-1.129, -1.756e-4
-1.128, -1.756e-4
-1.127, -1.756e-4
-1.126, -1.756e-4
-1.125, -1.725e-4
-1.124, -1.756e-4
-1.123, -1.756e-4
-1.122, -1.756e-4
-1.121, -1.756e-4
-1.120, -1.756e-4
-1.119, -1.756e-4
-1.118, -1.756e-4
-1.117, -1.756e-4
-1.116, -1.725e-4
-1.115, -1.756e-4
-1.114, -1.756e-4
-1.113, -1.756e-4
-1.112, -1.725e-4
-1.111, -1.725e-4
-1.110, -1.725e-4
-1.109, -1.725e-4
-1.108, -1.756e-4
-1.107, -1.756e-4
-1.106, -1.756e-4
-1.105, -1.725e-4
-1.104, -1.725e-4
-1.103, -1.725e-4
-1.102, -1.756e-4
-1.101, -1.756e-4
-1.100, -1.756e-4
-1.099, -1.725e-4
-1.098, -1.756e-4
-1.097, -1.725e-4
-1.096, -1.725e-4
-1.095, -1.756e-4
-1.094, -1.725e-4
-1.093, -1.725e-4
-1.092, -1.756e-4
-1.091, -1.725e-4
-1.090, -1.725e-4
-1.089, -1.756e-4
-1.088, -1.725e-4
-1.087, -1.725e-4
-1.086, -1.756e-4
-1.085, -1.725e-4
-1.084, -1.725e-4
-1.083, -1.725e-4
-1.082, -1.725e-4
-1.081, -1.756e-4
-1.080, -1.725e-4
-1.079, -1.725e-4
-1.078, -1.725e-4
-1.077, -1.725e-4
-1.076, -1.725e-4
-1.075, -1.756e-4
-1.074, -1.725e-4
-1.073, -1.725e-4
-1.072, -1.725e-4
-1.071, -1.725e-4
-1.070, -1.725e-4
-1.069, -1.725e-4
-1.068, -1.725e-4
-1.067, -1.725e-4
-1.066, -1.725e-4
-1.065, -1.725e-4
-1.064, -1.725e-4
-1.063, -1.725e-4
-1.062, -1.725e-4
-1.061, -1.725e-4
-1.060, -1.725e-4
-1.059, -1.725e-4
-1.058, -1.725e-4
-1.057, -1.725e-4
-1.056, -1.725e-4
-1.055, -1.725e-4
-1.054, -1.725e-4
-1.053, -1.725e-4
-1.052, -1.725e-4
-1.051, -1.725e-4
-1.050, -1.725e-4
-1.049, -1.756e-4
-1.048, -1.756e-4
-1.047, -1.756e-4
-1.046, -1.756e-4
-1.045, -1.725e-4
-1.044, -1.725e-4
-1.043, -1.756e-4
-1.042, -1.756e-4
-1.041, -1.756e-4
-1.040, -1.756e-4
-1.039, -1.756e-4
-1.038, -1.756e-4
-1.037, -1.756e-4
-1.036, -1.756e-4
-1.035, -1.756e-4
-1.034, -1.756e-4
-1.033, -1.756e-4
-1.032, -1.756e-4
-1.031, -1.756e-4
-1.030, -1.756e-4
-1.029, -1.756e-4
-1.028, -1.787e-4
-1.027, -1.787e-4
-1.026, -1.787e-4
-1.025, -1.787e-4
-1.024, -1.756e-4
-1.023, -1.787e-4
-1.022, -1.787e-4
-1.021, -1.787e-4
-1.020, -1.787e-4
-1.019, -1.787e-4
-1.018, -1.787e-4
-1.017, -1.787e-4
-1.016, -1.787e-4
-1.015, -1.817e-4
-1.014, -1.817e-4
-1.013, -1.817e-4
-1.012, -1.817e-4
-1.011, -1.817e-4
-1.010, -1.817e-4
-1.009, -1.817e-4
-1.008, -1.848e-4
-1.007, -1.848e-4
-1.006, -1.848e-4
-1.005, -1.817e-4
-1.004, -1.848e-4
-1.003, -1.848e-4
-1.002, -1.848e-4
-1.001, -1.848e-4
