Potential V vs RHE, Current mA cm-2
0.013299999999999867,-0.04685523825153001
0.012299999999999978,-0.06947647193637195
0.011299999999999866,-0.08199666694017753
0.010299999999999976,-0.0903576107223799
0.009299999999999864,-0.09682284136276312
0.008299999999999974,-0.10197239049427186
0.007299999999999862,-0.1078575895017104
0.006299999999999972,-0.11408231922111656
0.00529999999999986,-0.11818498199072516
0.0042999999999999705,-0.1216793189013918
0.0032999999999998586,-0.12548489229802873
0.0022999999999999687,-0.1290924061126846
0.0012999999999998568,-0.13394486587122167
0.00029999999999996696,-0.1369299067139369
-0.000700000000000145,-0.1402261840426224
-0.0017000000000000348,-0.1428858412863687
-0.0027000000000001467,-0.14571526388609876
-0.0037000000000000366,-0.1499593977856939
-0.0047000000000001485,-0.15363764716534298
-0.005700000000000038,-0.15547677185516753
-0.00670000000000015,-0.15802325219492458
-0.00770000000000004,-0.16141855931460067
-0.008700000000000152,-0.16509680869424978
-0.009700000000000042,-0.1689165292038854
-0.010700000000000154,-0.17118006728366944
-0.011700000000000044,-0.1734436053634535
-0.012700000000000156,-0.1771218547431026
-0.013700000000000045,-0.1806586329927652
-0.014700000000000157,-0.1843368823724143
-0.015700000000000047,-0.18702483384215784
-0.01670000000000016,-0.18942984305192842
-0.01770000000000005,-0.1933910346915505
-0.01870000000000016,-0.1973522263311726
-0.01970000000000005,-0.20145488910078121
-0.020700000000000163,-0.2044257828304978
-0.021700000000000053,-0.20725520543022788
-0.022700000000000164,-0.21107492593986346
-0.023700000000000054,-0.2164508288793506
-0.024700000000000166,-0.22012907825899972
-0.025700000000000056,-0.22380732763864883
-0.026700000000000168,-0.22691969249835187
-0.027700000000000058,-0.231729710917893
-0.02870000000000017,-0.2368226715974071
-0.02970000000000006,-0.24149121888696176
-0.03070000000000017,-0.24531093939659734
-0.03170000000000006,-0.24927213103621945
-0.03270000000000017,-0.2540821494557606
-0.03370000000000006,-0.26044835030515323
-0.034700000000000175,-0.26554131098466743
-0.035700000000000065,-0.2697854448842625
-0.03670000000000018,-0.27501987669376315
-0.03770000000000007,-0.2805372507632368
-0.03870000000000018,-0.2874693361325754
-0.03970000000000007,-0.2929867102020491
-0.04070000000000018,-0.2983626131415362
-0.04170000000000007,-0.3041629294709829
-0.04270000000000018,-0.3099632458004295
-0.04370000000000007,-0.3174612156897142
-0.044700000000000184,-0.3243933010590529
-0.045700000000000074,-0.3299106751285265
-0.046700000000000186,-0.33641834710790575
-0.047700000000000076,-0.34377484586720397
-0.04870000000000019,-0.35155575801646166
-0.04970000000000008,-0.35961961242569235
-0.05070000000000019,-0.3661272844050715
-0.05170000000000008,-0.3730593697744102
-0.05270000000000019,-0.38168910870358685
-0.05370000000000008,-0.39060178989273664
-0.05470000000000019,-0.39965594221187284
-0.05570000000000008,-0.40701244097117106
-0.056700000000000195,-0.41451041086045576
-0.057700000000000085,-0.424130447699538
-0.058700000000000196,-0.4336090134086337
-0.059700000000000086,-0.443794934767662
-0.0607000000000002,-0.45256614482682517
-0.06170000000000009,-0.4616202971459614
-0.0627000000000002,-0.47223063189494924
-0.06370000000000009,-0.4826994955139505
-0.0647000000000002,-0.4934513013929247
-0.06570000000000009,-0.503637222751953
-0.0667000000000002,-0.5136816729809948
-0.0677000000000001,-0.5248578922499286
-0.0687000000000002,-0.5370244094287681
-0.0697000000000001,-0.5487665132176478
-0.07070000000000021,-0.5603671458765411
-0.0717000000000001,-0.5714018940154882
-0.07270000000000021,-0.5841342957142737
-0.0737000000000001,-0.5977155241929779
-0.07470000000000021,-0.6107308681517364
-0.0757000000000001,-0.6233217987205352
-0.07670000000000021,-0.6361956715493069
-0.0777000000000001,-0.6497769000280114
-0.07870000000000021,-0.6654801954565133
-0.0797000000000001,-0.6797687795851503
-0.08070000000000022,-0.6936329503238275
-0.0817000000000001,-0.7080630055824508
-0.08270000000000022,-0.7234833587509798
-0.08370000000000011,-0.7401769520893872
-0.08470000000000022,-0.7570120165577812
-0.08570000000000011,-0.7721494274663371
-0.08670000000000022,-0.7885600785447714
-0.08770000000000011,-0.8053951430131653
-0.08870000000000022,-0.8239278610413974
-0.08970000000000011,-0.8420361656796699
-0.09070000000000022,-0.8588712301480638
-0.09170000000000011,-0.8775454193062823
-0.09270000000000023,-0.8965025507244737
-0.09370000000000012,-0.9164499800525707
-0.09470000000000023,-0.9368218227706272
-0.09570000000000012,-0.9553545407988592
-0.09670000000000023,-0.9753019701269563
-0.09770000000000012,-0.9963811684949454
-0.09870000000000023,-1.018167722512867
-0.09970000000000012,-1.040095747660775
-0.10070000000000023,-1.061457888288737
-0.10170000000000012,-1.0821126732667665
-0.10270000000000024,-1.1055968808445262
-0.10370000000000013,-1.1290810884222857
-0.10470000000000024,-1.1522823537400724
-0.10570000000000013,-1.1753421479278725
-0.10670000000000024,-1.1975531153357537
-0.10770000000000013,-1.2210373229135134
-0.10870000000000024,-1.2463606551810973
-0.10970000000000013,-1.2697033916288705
-0.11070000000000024,-1.2930461280766434
-0.11170000000000013,-1.3163888645244166
-0.11270000000000002,-1.3401560143621492
-0.11370000000000013,-1.3649134621097874
-0.11470000000000002,-1.388114727427574
-0.11570000000000014,-1.4107501082254146
-0.11670000000000003,-1.433102546763282
-0.11770000000000014,-1.4557379275611226
-0.11870000000000003,-1.4783733083589634
-0.11970000000000014,-1.499593977856939
-0.12070000000000003,-1.5193999360550492
-0.12170000000000014,-1.53920589425316
-0.12270000000000003,-1.5575971411514054
-0.12370000000000014,-1.5788178106493809
-0.12470000000000003,-1.5972090575476263
-0.12570000000000014,-1.612770881846142
-0.12670000000000003,-1.626917994844792
-0.12770000000000015,-1.6424798191433077
-0.12870000000000004,-1.658041643441823
-0.12970000000000015,-1.6707740451406083
-0.13070000000000004,-1.6820917355395286
-0.13170000000000015,-1.6919947146385839
-0.13270000000000004,-1.701897693737639
-0.13370000000000015,-1.7118006728366943
-0.13470000000000004,-1.7202889406358846
-0.13570000000000015,-1.7259477858353447
-0.13670000000000004,-1.7316066310348048
-0.13770000000000016,-1.7372654762342652
-0.13870000000000005,-1.7415096101338603
-0.13970000000000016,-1.7457537440334552
-0.14070000000000005,-1.7471684553333202
-0.14170000000000016,-1.7457537440334552
-0.14270000000000005,-1.7485831666331852
-0.14370000000000016,-1.7499978779330503
-0.14470000000000005,-1.7499978779330503
-0.14570000000000016,-1.7485831666331852
-0.14670000000000005,-1.7457537440334552
-0.14770000000000016,-1.7457537440334552
-0.14870000000000005,-1.7443390327335901
-0.14970000000000017,-1.7443390327335901
-0.15070000000000006,-1.7415096101338603
-0.15170000000000017,-1.7386801875341302
-0.15270000000000006,-1.7358507649344
-0.15370000000000017,-1.7358507649344
-0.15470000000000006,-1.7330213423346699
-0.15570000000000017,-1.7301919197349398
-0.15670000000000006,-1.7287772084350748
-0.15770000000000017,-1.7259477858353447
-0.15870000000000006,-1.72736249713521
-0.15970000000000018,-1.7259477858353447
-0.16070000000000007,-1.7245330745354797
-0.16170000000000018,-1.7231183632356148
-0.16270000000000007,-1.7217036519357498
-0.16370000000000018,-1.7231183632356148
-0.16470000000000007,-1.7245330745354797
-0.16570000000000018,-1.7231183632356148
-0.16670000000000007,-1.7231183632356148
-0.16770000000000018,-1.7245330745354797
-0.16870000000000007,-1.7259477858353447
-0.16970000000000018,-1.7287772084350748
-0.17070000000000007,-1.7287772084350748
-0.17170000000000019,-1.7301919197349398
-0.17270000000000008,-1.7330213423346699
-0.1737000000000002,-1.7358507649344
-0.17470000000000008,-1.7386801875341302
-0.1757000000000002,-1.7386801875341302
-0.17670000000000008,-1.7415096101338603
-0.1777000000000002,-1.7443390327335901
-0.17870000000000008,-1.7471684553333202
-0.1797000000000002,-1.7499978779330503
-0.18070000000000008,-1.7514125892329155
-0.1817000000000002,-1.7528273005327806
-0.18270000000000008,-1.7570714344323757
-0.1837000000000002,-1.7599008570321055
-0.1847000000000001,-1.7627302796318356
-0.1857000000000002,-1.7641449909317006
-0.1867000000000001,-1.7641449909317006
-0.1877000000000002,-1.7655597022315657
-0.1887000000000001,-1.768389124831296
-0.1897000000000002,-1.771218547431026
-0.1907000000000001,-1.771218547431026
-0.1917000000000001,-1.771218547431026
-0.19269999999999998,-1.772633258730891
-0.1937000000000001,-1.776877392630486
-0.19469999999999998,-1.776877392630486
-0.1957000000000001,-1.776877392630486
-0.19669999999999999,-1.778292103930351
-0.1977000000000001,-1.779706815230216
-0.1987,-1.7825362378299463
-0.1997000000000001,-1.7825362378299463
-0.2007,-1.7839509491298113
-0.2017000000000001,-1.7867803717295414
-0.2027,-1.7867803717295414
-0.2037000000000001,-1.7910245056291363
-0.2047,-1.7952686395287314
-0.2057000000000001,-1.7952686395287314
-0.2067,-1.7966833508285964
-0.2077000000000001,-1.7995127734283267
-0.2087,-1.8037569073279218
-0.2097000000000001,-1.8080010412275167
-0.2107,-1.8094157525273817
-0.2117000000000001,-1.8108304638272468
-0.2127,-1.815074597726842
-0.2137000000000001,-1.8193187316264372
-0.2147,-1.8249775768258971
-0.2157000000000001,-1.8292217107254924
-0.2167,-1.8306364220253575
-0.21770000000000012,-1.8334658446250875
-0.2187,-1.8391246898245475
-0.21970000000000012,-1.8419541124242775
-0.2207,-1.8433688237241426
-0.22170000000000012,-1.8461982463238729
-0.2227,-1.850442380223468
-0.22370000000000012,-1.8561012254229279
-0.2247,-1.8603453593225232
-0.22570000000000012,-1.8617600706223882
-0.2267,-1.8645894932221183
-0.22770000000000012,-1.8688336271217136
-0.22870000000000001,-1.8730777610213083
-0.22970000000000013,-1.8773218949209036
-0.23070000000000002,-1.8801513175206337
-0.23170000000000013,-1.882980740120364
-0.23270000000000002,-1.8872248740199586
-0.23370000000000013,-1.892883719219419
-0.23470000000000002,-1.895713141819149
-0.23570000000000013,-1.8999572757187444
-0.23670000000000002,-1.9027866983184742
-0.2376999999999999,-1.9070308322180693
-0.23870000000000002,-1.9126896774175295
-0.2396999999999999,-1.9169338113171246
-0.24070000000000003,-1.9183485226169896
-0.24169999999999991,-1.922592656516585
-0.24270000000000003,-1.92683679041618
-0.24369999999999992,-1.9324956356156402
-0.24470000000000003,-1.93532505821537
-0.24569999999999992,-1.9395691921149654
-0.24670000000000003,-1.9438133260145605
-0.24769999999999992,-1.9494721712140204
-0.24870000000000003,-1.9551310164134805
-0.24969999999999992,-1.9607898616129409
-0.25070000000000003,-1.9622045729128061
-0.2516999999999999,-1.9664487068124006
-0.25270000000000004,-1.9706928407119961
-0.2536999999999999,-1.9763516859114565
-0.25470000000000004,-1.980595819811051
-0.2556999999999999,-1.9834252424107812
-0.25670000000000004,-1.9876693763103765
-0.25769999999999993,-1.993328221509837
-0.25870000000000004,-1.9975723554094316
-0.25969999999999993,-2.0032312006088917
-0.26070000000000004,-2.0060606232086218
-0.26169999999999993,-2.008890045808352
-0.26270000000000004,-2.014548891007812
-0.26369999999999993,-2.020207736207272
-0.26470000000000005,-2.0244518701068674
-0.26569999999999994,-2.0286960040064623
-0.26670000000000005,-2.0329401379060577
-0.26769999999999994,-2.038598983105518
-0.26870000000000005,-2.045672539604843
-0.26969999999999994,-2.048501962204573
-0.27070000000000005,-2.052746096104168
-0.27169999999999994,-2.0555755187038987
-0.27270000000000005,-2.0598196526034935
-0.27369999999999994,-2.0654784978029537
-0.27470000000000006,-2.0697226317025486
-0.27569999999999995,-2.073966765602144
-0.27670000000000006,-2.0782108995017388
-0.27769999999999995,-2.082455033401334
-0.27870000000000006,-2.0895285899006595
-0.27969999999999995,-2.0937727238002544
-0.28070000000000006,-2.0966021463999844
-0.28169999999999995,-2.1008462802995793
-0.28270000000000006,-2.105090414199175
-0.28369999999999995,-2.110749259398635
-0.28470000000000006,-2.116408104598095
-0.28569999999999995,-2.1192375271978254
-0.28670000000000007,-2.12348166109742
-0.28769999999999996,-2.12914050629688
-0.28870000000000007,-2.1347993514963406
-0.28969999999999996,-2.1390434853959355
-0.29070000000000007,-2.1418729079956655
-0.29169999999999996,-2.1447023305953956
-0.29270000000000007,-2.150361175794856
-0.29369999999999996,-2.1574347322941807
-0.2947000000000001,-2.161678866193776
-0.29569999999999996,-2.1645082887935065
-0.2967000000000001,-2.1673377113932366
-0.29769999999999996,-2.171581845292831
-0.2987000000000001,-2.1758259791924264
-0.29969999999999997,-2.181484824391887
-0.3007000000000001,-2.184314246991617
-0.30169999999999997,-2.1871436695913467
-0.3027000000000001,-2.1913878034909415
-0.30369999999999997,-2.197046648690402
-0.3047000000000001,-2.201290782589997
-0.30569999999999997,-2.205534916489592
-0.3067000000000001,-2.208364339089322
-0.3077,-2.2126084729889177
-0.3087000000000001,-2.2182673181883774
-0.3097,-2.2210967407881075
-0.3107000000000001,-2.2239261633878376
-0.3117,-2.226755585987568
-0.3127000000000001,-2.230999719887163
-0.3137,-2.2366585650866226
-0.3147000000000001,-2.2394879876863527
-0.3157,-2.2423174102860832
-0.3167000000000001,-2.2465615441856785
-0.3177,-2.250805678085273
-0.3187000000000001,-2.257879234584599
-0.3197,-2.260708657184329
-0.3207000000000001,-2.263538079784059
-0.3217,-2.2663675023837886
-0.3227000000000001,-2.2706116362833835
-0.3237,-2.276270481482844
-0.3247000000000001,-2.280514615382439
-0.3257,-2.284758749282034
-0.3267000000000001,-2.2875881718817643
-0.3277,-2.2918323057813597
-0.3287000000000001,-2.2974911509808194
-0.3297,-2.3017352848804147
-0.3307000000000001,-2.30597941878001
-0.3317,-2.3116382639794697
-0.3327000000000001,-2.3172971091789303
-0.3337,-2.3243706656782552
-0.3347000000000001,-2.33144422217758
-0.3357,-2.3356883560771755
-0.3367000000000001,-2.3413472012766356
-0.3377,-2.349835469075826
-0.3387000000000001,-2.3569090255751513
-0.3397,-2.3668120046742067
-0.3407000000000001,-2.3724708498736664
-0.3417,-2.379544406372992
-0.3427000000000001,-2.3908620967719116
-0.3437,-2.4007650758709675
-0.3447000000000001,-2.412082766269888
-0.3457,-2.420571034069078
-0.3467000000000001,-2.4318887244679983
-0.3477,-2.4432064148669186
-0.3487000000000001,-2.4587682391654337
-0.3497,-2.4715006408642193
-0.3507000000000001,-2.485647753862869
-0.3517,-2.49979486686152
-0.3527000000000001,-2.5167714024599
-0.3537,-2.536577360658011
-0.3547000000000001,-2.5563833188561214
-0.3557,-2.576189277054232
-0.35670000000000013,-2.600239369151937
-0.3577,-2.627118883849373
-0.35870000000000013,-2.661071955046134
-0.3597,-2.69926916014249
-0.36070000000000013,-2.743125210438306
-0.3617,-2.7968842398331777
-0.3626999999999999,-2.870449227426159
-0.3637,-2.9624054619173865
-0.3646999999999999,-3.0755823659065897
-0.3657,-3.204321094194308
-0.3666999999999999,-3.3670128936787878
-0.3677,-3.5282899818634013
-0.3686999999999999,-3.686737647448285
-0.36970000000000003,-3.852258869532495
-0.3706999999999999,-4.01070653511738
-0.37170000000000003,-4.193204292799969
-0.3726999999999999,-4.382775606981883
-0.37370000000000003,-4.593567590661774
-0.3746999999999999,-4.846800913337615
-0.37570000000000003,-5.100034236013457
-0.3766999999999999,-5.382976495986464
-0.37770000000000004,-5.697042404556503
-0.3786999999999999,-6.042231961723571
-0.37970000000000004,-6.39025094149037
-0.3806999999999999,-6.766564147254471
-0.38170000000000004,-7.1145831270212705
-0.38269999999999993,-7.472505085887125
-0.38370000000000004,-7.8445741577516275
-0.38469999999999993,-8.215228518316268
-0.38570000000000004,-8.540612117285226
-0.38669999999999993,-8.694815648970515
-0.38570000000000004,-8.841945624156478
-0.38469999999999993,-9.014540402740012
-0.38370000000000004,-9.146108553627464
-0.38269999999999993,-9.23523536551896
-0.38170000000000004,-9.230991231619363
-0.3806999999999999,-9.221088252520309
-0.37970000000000004,-9.194208737822873
-0.3786999999999999,-9.147523264927328
-0.37770000000000004,-9.122058461529756
-0.3766999999999999,-9.062640586935425
-0.37570000000000003,-8.939560703847167
-0.3746999999999999,-8.816480820758908
-0.37370000000000003,-8.71037747326903
-0.3726999999999999,-8.583053456281176
-0.37170000000000003,-8.476950108791302
-0.3706999999999999,-8.336893690104661
-0.36970000000000003,-8.206740250517077
-0.3686999999999999,-8.09780748042747
-0.3677,-8.005851245936244
-0.3666999999999999,-7.8983331871465
-0.3657,-7.742714944161346
-0.3646999999999999,-7.622464483672818
-0.3637,-7.523434692682265
-0.3626999999999999,-7.396110675694412
-0.3617,-7.258883679607503
-0.36070000000000013,-7.079215344524644
-0.3597,-6.954720750136521
-0.35870000000000013,-6.867008649544887
-0.3577,-6.7283669421581145
-0.35670000000000013,-6.615190038168912
-0.3557,-6.477963042082004
-0.3547000000000001,-6.3676155606925295
-0.3537,-6.2431209663044065
-0.3527000000000001,-6.129944062315205
-0.3517,-6.022426003525461
-0.3507000000000001,-5.890857852638012
-0.3497,-5.776266237348945
-0.3487000000000001,-5.657430488160282
-0.3477,-5.547083006770809
-0.3467000000000001,-5.440979659280932
-0.3457,-5.315070353592943
-0.3447000000000001,-5.1934051818045495
-0.3437,-5.083057700415077
-0.3427000000000001,-4.943001281728439
-0.3417,-4.832653800338965
-0.3407000000000001,-4.732209298048548
-0.3397,-4.623276527958939
-0.3387000000000001,-4.538393849967037
-0.3377,-4.4393640589764845
-0.3367000000000001,-4.344578401885528
-0.3357,-4.26393985779322
-0.3347000000000001,-4.1564217990034775
-0.3337,-4.065880275812115
-0.3327000000000001,-3.9668504848215624
-0.3317,-3.887626652029121
-0.3307000000000001,-3.7928409949381634
-0.3297,-3.7249348525446417
-0.3287000000000001,-3.6556139988512544
-0.3277,-3.591951990357328
-0.3267000000000001,-3.5113134462650213
-0.3257,-3.434919036072309
-0.3247000000000001,-3.352865780680137
-0.3237,-3.2609095461889095
-0.3227000000000001,-3.1632944664982214
-0.3217,-3.10104716930416
-0.3207000000000001,-3.0359704495103688
-0.3197,-2.972308441016442
-0.3187000000000001,-2.9114758551222453
-0.3177,-2.8534726918277786
-0.3167000000000001,-2.778492992934932
-0.3157,-2.7134162731411404
-0.3147000000000001,-2.659657243746269
-0.3137,-2.597409946552207
-0.3127000000000001,-2.5266743815589554
-0.3117,-2.4715006408642193
-0.3107000000000001,-2.4134974775697526
-0.3097,-2.3455913351762305
-0.3087000000000001,-2.283344037982169
-0.3077,-2.2239261633878376
-0.3067000000000001,-2.1729965565926963
-0.30569999999999997,-2.136214062796206
-0.3047000000000001,-2.0895285899006595
-0.30369999999999997,-2.044257828304978
-0.3027000000000001,-1.9904987989101068
-0.30169999999999997,-1.9296662130159101
-0.3007000000000001,-1.882980740120364
-0.29969999999999997,-1.8320511333252225
-0.2987000000000001,-1.779706815230216
-0.29769999999999996,-1.7316066310348048
-0.2967000000000001,-1.6806770242396636
-0.29569999999999996,-1.6481386643427678
-0.2947000000000001,-1.6184297270456018
-0.29369999999999996,-1.5745736767497858
-0.29270000000000007,-1.5264734925543744
-0.29169999999999996,-1.4925204213576138
-0.29070000000000007,-1.4458349484620676
-0.28969999999999996,-1.4096183391855226
-0.28870000000000007,-1.3734017299089776
-0.28769999999999996,-1.3258674302335123
-0.28670000000000007,-1.2906411188668732
-0.28569999999999995,-1.2726742853585868
-0.28470000000000006,-1.2350429647821768
-0.28369999999999995,-1.2138222952842015
-0.28270000000000006,-1.1835474734670897
-0.28169999999999995,-1.1382767118714086
-0.28070000000000006,-1.1099824858741079
-0.27969999999999995,-1.0712193962578058
-0.27870000000000006,-1.040661632180721
-0.27769999999999995,-1.0142065308732449
-0.27670000000000006,-0.978838748376619
-0.27569999999999995,-0.9508274646392911
-0.27470000000000006,-0.9246553055917879
-0.27369999999999994,-0.8940975415147032
-0.27270000000000005,-0.8697645071570246
-0.27169999999999994,-0.8530709138186172
-0.27070000000000005,-0.826898754771114
