Potential V vs RHE, Current mA cm-2
0.013299999999999867,8.546270962484687
0.012299999999999978,6.540210339276065
0.011299999999999866,4.708159205950842
0.010299999999999976,3.0515322738088844
0.009299999999999864,1.5675001202504606
0.008299999999999974,0.12863969849672777
0.007299999999999862,-1.3107300193249565
0.006299999999999972,-2.794054817233447
0.00529999999999986,-4.23281620919619
0.0042999999999999705,-5.672992312458796
0.0032999999999998586,-6.981600264833956
0.0022999999999999687,-8.11478401602585
0.0012999999999998568,-9.205526428221793
0.00029999999999996696,-10.208556739826104
-0.000700000000000145,-11.255443101726232
-0.0017000000000000348,-12.390041564217992
-0.0027000000000001467,-13.523225315409885
-0.0037000000000000366,-14.69885040559773
-0.0047000000000001485,-15.74573676749786
-0.005700000000000038,-16.70774045140608
-0.00670000000000015,-17.542420118326454
-0.00770000000000004,-18.320511333252224
-0.008700000000000152,-19.197632339168546
-0.009700000000000042,-20.10304757108217
-0.010700000000000154,-21.065051254990397
-0.011700000000000044,-22.069496277894572
-0.012700000000000156,-22.989058622806844
-0.013700000000000045,-23.823738289727217
-0.014700000000000157,-24.559388165657033
-0.015700000000000047,-25.167714024599
-0.01670000000000016,-25.86092256153287
-0.01770000000000005,-26.568278211465387
-0.01870000000000016,-27.38881076538711
-0.01970000000000005,-28.22349043230748
-0.020700000000000163,-29.058170099227848
-0.021700000000000053,-29.836261314153624
-0.022700000000000164,-30.487028512091538
-0.023700000000000054,-31.052913032037555
-0.024700000000000166,-31.57635621298762
-0.025700000000000056,-32.14224073293363
-0.026700000000000168,-32.84959638286615
-0.027700000000000058,-33.627687597791926
-0.02870000000000017,-34.377484586720385
-0.02970000000000006,-35.11313446265021
-0.03070000000000017,-35.721460321592176
-0.03170000000000006,-36.28734484153819
-0.03270000000000017,-36.81078802248826
-0.03370000000000006,-37.376672542434264
-0.034700000000000175,-37.94255706238028
-0.035700000000000065,-38.692354051308754
-0.03670000000000018,-39.42800392723857
-0.03770000000000007,-40.135359577171094
-0.03870000000000018,-40.743685436113054
-0.03970000000000007,-41.267128617063115
-0.04070000000000018,-41.70568912002128
-0.04170000000000007,-42.186690961975394
-0.04270000000000018,-42.71013414292546
-0.04370000000000007,-43.36090134086337
-0.044700000000000184,-44.096551216793195
-0.045700000000000074,-44.84634820572166
-0.046700000000000186,-45.624439420647434
-0.047700000000000076,-46.2327652795894
-0.04870000000000019,-46.84109113853137
-0.04970000000000008,-47.32209298048547
-0.05070000000000019,-47.80309482243959
-0.05170000000000008,-48.36897934238561
-0.05270000000000019,-49.03389365332217
-0.05370000000000008,-49.68466085126009
-0.05470000000000019,-50.335428049198
-0.05570000000000008,-50.943753908139975
-0.056700000000000195,-51.55207976708194
-0.057700000000000085,-52.11796428702795
-0.058700000000000196,-52.69799591997262
-0.059700000000000086,-53.39120445690648
-0.0607000000000002,-54.08441299384035
-0.06170000000000009,-54.876651321764776
-0.0627000000000002,-55.612301197694585
-0.06370000000000009,-56.30550973462846
-0.0647000000000002,-56.927982706569075
-0.06570000000000009,-57.45142588751914
-0.0667000000000002,-57.93242772947325
-0.0677000000000001,-58.39928245842871
-0.0687000000000002,-58.97931409137338
-0.0697000000000001,-59.6300812893113
-0.07070000000000021,-60.23840714825326
-0.0717000000000001,-60.889174346191176
-0.07270000000000021,-61.49750020513315
-0.0737000000000001,-62.06338472507916
-0.07470000000000021,-62.72829903601572
-0.0757000000000001,-63.46394891194555
-0.07670000000000021,-64.25618723986996
-0.0777000000000001,-65.0767197937917
-0.07870000000000021,-65.91139946071206
-0.0797000000000001,-66.64704933664189
-0.08070000000000022,-67.21293385658788
-0.0817000000000001,-67.693935698542
-0.08270000000000022,-68.0900548625042
-0.08370000000000011,-68.57105670445833
-0.08470000000000022,-69.13694122440434
-0.08570000000000011,-69.78770842234226
-0.08670000000000022,-70.57994675026669
-0.08770000000000011,-71.35803796519245
-0.08870000000000022,-72.05124650212633
-0.08970000000000011,-72.75860215205884
-0.09070000000000022,-73.2820453330089
-0.09170000000000011,-73.97525386994278
-0.09270000000000023,-74.62602106788069
-0.09370000000000012,-75.4182593958051
-0.09470000000000023,-76.19635061073087
-0.09570000000000012,-76.94614759965934
-0.09670000000000023,-77.63935613659322
-0.09770000000000012,-78.20524065653922
-0.09870000000000023,-78.72868383748929
-0.09970000000000012,-79.25212701843935
-0.10070000000000023,-79.81801153838538
-0.10170000000000012,-80.52536718831789
-0.10270000000000024,-81.30345840324367
-0.10370000000000013,-82.13813807016405
-0.10470000000000024,-82.9162292850898
-0.10570000000000013,-83.56699648302772
-0.10670000000000024,-84.18946945496833
-0.10770000000000013,-84.75535397491434
-0.10870000000000024,-85.32123849486035
-0.10970000000000013,-85.97200569279828
-0.11070000000000024,-86.7076555687281
-0.11170000000000013,-87.58477657464444
-0.11270000000000002,-88.37701490256885
-0.11370000000000013,-89.11266477849867
-0.11470000000000002,-89.76343197643658
-0.11570000000000014,-90.37175783537855
-0.11670000000000003,-90.99423080731917
-0.11770000000000014,-91.64499800525708
-0.11870000000000003,-92.3806478811869
-0.11970000000000014,-93.17288620911131
-0.12070000000000003,-93.95097742403709
-0.12170000000000014,-94.601744621975
-0.12270000000000003,-95.22421759391563
-0.12370000000000014,-95.79010211386164
-0.12470000000000003,-96.27110395581576
-0.12570000000000014,-96.83698847576176
-0.12670000000000003,-97.57263835169158
-0.12770000000000015,-98.3082882276214
-0.12870000000000004,-99.10052655554581
-0.12970000000000015,-99.7937350924797
-0.13070000000000004,-100.40206095142165
-0.13170000000000015,-101.02453392336226
-0.13270000000000004,-101.54797710431234
-0.13370000000000015,-102.19874430225026
-0.13470000000000004,-102.93439417818009
-0.13570000000000015,-103.81151518409638
-0.13670000000000004,-104.73107752900866
-0.13770000000000016,-105.59405142192634
-0.13870000000000005,-106.38628974985076
-0.13970000000000016,-107.03705694778867
-0.14070000000000005,-107.64538280673065
-0.14170000000000016,-108.2537086656726
-0.14270000000000005,-108.91862297660917
-0.14370000000000016,-109.654272852539
-0.14470000000000005,-110.48895251945936
-0.14570000000000016,-111.3094850733811
-0.14670000000000005,-112.18660607929739
-0.14770000000000016,-112.96469729422319
-0.14870000000000005,-113.71449428315165
-0.14970000000000017,-114.36526148108955
-0.15070000000000006,-115.01602867902749
-0.15170000000000017,-115.80826700695191
-0.15270000000000006,-116.62879956087362
-0.15370000000000017,-117.46347922779398
-0.15470000000000006,-118.24157044271978
-0.15570000000000017,-118.94892609265229
-0.15670000000000006,-119.64213462958614
-0.15770000000000017,-120.20801914953216
-0.15870000000000006,-120.77390366947817
-0.15970000000000018,-121.52370065840667
-0.16070000000000007,-122.30179187333242
-0.16170000000000018,-123.09403020125686
-0.16270000000000007,-123.82968007718667
-0.16370000000000018,-124.57947706611512
-0.16470000000000007,-125.23024426405304
-0.16570000000000018,-125.83857012299501
-0.16670000000000007,-126.40445464294103
-0.16770000000000018,-127.05522184087894
-0.16870000000000007,-127.80501882980741
-0.16970000000000018,-128.5831100447332
-0.17070000000000007,-129.33290703366166
-0.17170000000000019,-130.11099824858744
-0.17270000000000008,-130.84664812451723
-0.1737000000000002,-131.63888645244168
-0.17470000000000008,-132.37453632837148
-0.1757000000000002,-133.1667746562959
-0.17670000000000008,-134.12877834020412
-0.1777000000000002,-135.1332233631083
-0.17870000000000008,-136.1801097250084
-0.1797000000000002,-137.00064227893017
-0.18070000000000008,-137.70799792886265
-0.1817000000000002,-138.17485265781812
-0.18270000000000008,-138.61341316077628
-0.1837000000000002,-139.1792976807223
-0.1847000000000001,-139.8866533306548
-0.1857000000000002,-140.70718588457655
-0.1867000000000001,-141.61260111649017
-0.1877000000000002,-142.4614278964092
-0.1887000000000001,-143.3102546763282
-0.1897000000000002,-143.87613919627424
-0.1907000000000001,-144.58349484620675
-0.1917000000000001,-145.14937936615277
-0.19269999999999998,-145.85673501608528
-0.1937000000000001,-146.7055617960043
-0.19469999999999998,-147.4129174459368
-0.1957000000000001,-148.12027309586935
-0.19669999999999999,-148.82762874580186
-0.1977000000000001,-149.39351326574788
-0.1987,-149.95939778569388
-0.1997000000000001,-150.38381117565342
-0.2007,-150.94969569559944
-0.2017000000000001,-151.65705134553193
-0.2027,-152.50587812545095
-0.2037000000000001,-153.35470490536997
-0.2047,-154.3450028152755
-0.2057000000000001,-155.05235846520802
-0.2067,-155.90118524512707
-0.2077000000000001,-156.60854089505958
-0.2087,-157.31589654499206
-0.2097000000000001,-158.1647233249111
-0.2107,-159.01355010483013
-0.2117000000000001,-160.00384801473567
-0.2127,-160.8526747946547
-0.2137000000000001,-161.5600304445872
-0.2147,-162.2673860945197
-0.2157000000000001,-162.97474174445222
-0.2167,-163.54062626439824
-0.21770000000000012,-164.10651078434424
-0.2187,-164.9553375642633
-0.21970000000000012,-165.94563547416882
-0.2207,-166.79446225408785
-0.22170000000000012,-167.6432890340068
-0.2227,-168.49211581392586
-0.22370000000000012,-169.19947146385837
-0.2247,-169.9068271137909
-0.22570000000000012,-170.61418276372342
-0.2267,-171.18006728366944
-0.22770000000000012,-172.17036519357498
-0.22870000000000001,-173.16066310348046
-0.22970000000000013,-173.86801875341303
-0.23070000000000002,-174.57537440334553
-0.23170000000000013,-175.14125892329156
-0.23270000000000002,-175.84861457322407
-0.23370000000000013,-176.6974413531431
-0.23470000000000002,-177.54626813306209
-0.23570000000000013,-178.53656604296762
-0.23670000000000002,-179.52686395287316
-0.2376999999999999,-180.37569073279218
-0.23870000000000002,-181.36598864269772
-0.2396999999999999,-182.07334429263022
-0.24070000000000003,-182.63922881257625
-0.24169999999999991,-183.34658446250873
-0.24270000000000003,-183.91246898245475
-0.24369999999999992,-184.7612957623738
-0.24470000000000003,-185.46865141230631
-0.24569999999999992,-186.31747819222534
-0.24670000000000003,-187.02483384215788
-0.24769999999999992,-187.87366062207687
-0.24870000000000003,-188.58101627200938
-0.24969999999999992,-189.2883719219419
-0.25070000000000003,-190.13719870186094
-0.2516999999999999,-191.12749661176645
-0.25270000000000004,-192.2592656516585
-0.2536999999999999,-193.249563561564
-0.25470000000000004,-194.2398614714695
-0.2556999999999999,-194.94721712140205
-0.25670000000000004,-195.51310164134807
-0.25769999999999993,-196.2204572912806
-0.25870000000000004,-196.92781294121312
-0.25969999999999993,-197.77663972113214
-0.26070000000000004,-198.62546650105114
-0.26169999999999993,-199.61576441095667
-0.26270000000000004,-200.4645911908757
-0.26369999999999993,-201.17194684080823
-0.26470000000000005,-201.73783136075423
-0.26569999999999994,-202.44518701068677
-0.26670000000000005,-203.29401379060576
-0.26769999999999994,-204.42578283049778
-0.26870000000000005,-205.55755187038983
-0.26969999999999994,-206.40637865030885
-0.27070000000000005,-207.3966765602144
-0.27169999999999994,-208.3869744701199
-0.27270000000000005,-209.0943301200524
-0.27369999999999994,-209.8016857699849
-0.27470000000000006,-210.50904141991748
-0.27569999999999995,-211.21639706985
-0.27670000000000006,-211.9237527197825
-0.27769999999999995,-212.631108369715
-0.27870000000000006,-213.62140627962054
-0.27969999999999995,-214.61170418952605
-0.28070000000000006,-215.6020020994316
-0.28169999999999995,-216.4508288793506
-0.28270000000000006,-217.29965565926966
-0.28369999999999995,-218.14848243918865
-0.28470000000000006,-218.85583808912116
-0.28569999999999995,-219.8461359990267
-0.28670000000000007,-220.83643390893224
-0.28769999999999996,-221.68526068885126
-0.28870000000000007,-222.53408746877028
-0.28969999999999996,-223.2414431187028
-0.29070000000000007,-223.9487987686353
-0.29169999999999996,-224.65615441856778
-0.29270000000000007,-225.50498119848683
-0.29369999999999996,-226.49527910839237
-0.2947000000000001,-227.4855770182979
-0.29569999999999996,-228.61734605818995
-0.2967000000000001,-229.32470170812243
-0.29769999999999996,-230.03205735805497
-0.2987000000000001,-230.59794187800094
-0.29969999999999997,-231.163826397947
-0.3007000000000001,-232.01265317786604
-0.30169999999999997,-233.00295108777152
-0.3027000000000001,-233.99324899767706
-0.30369999999999997,-234.9835469075826
-0.3047000000000001,-235.97384481748813
-0.30569999999999997,-236.82267159740715
-0.3067000000000001,-237.67149837732615
-0.3077,-238.37885402725868
-0.3087000000000001,-239.0862096771912
-0.3097,-239.65209419713722
-0.3107000000000001,-240.21797871708318
-0.3117,-241.06680549700224
-0.3127000000000001,-242.05710340690777
-0.3137,-243.18887244679982
-0.3147000000000001,-244.32064148669184
-0.3157,-245.59388165657037
-0.3167000000000001,-246.7256506964624
-0.3177,-247.71594860636796
-0.3187000000000001,-248.70624651627344
-0.3197,-249.83801555616546
-0.3207000000000001,-250.828313466071
-0.3217,-251.81861137597656
-0.3227000000000001,-252.66743815589555
-0.3237,-253.37479380582806
-0.3247000000000001,-253.94067832577412
-0.3257,-254.50656284572008
-0.3267000000000001,-255.21391849565262
-0.3277,-256.0627452755717
-0.3287000000000001,-257.4774565754367
-0.3297,-258.7506967453152
-0.3307000000000001,-259.7409946552208
-0.3317,-260.4483503051532
-0.3327000000000001,-261.01423482509927
-0.3337,-261.58011934504526
-0.3347000000000001,-262.2874749949778
-0.3357,-263.13630177489676
-0.3367000000000001,-264.40954194477536
-0.3377,-265.6827821146539
-0.3387000000000001,-267.09749341451896
-0.3397,-268.22926245441096
-0.3407000000000001,-269.361031494303
-0.3417,-270.49280053419506
-0.3427000000000001,-271.9075118340601
-0.3437,-273.3222231339251
-0.3447000000000001,-274.7369344337901
-0.3457,-276.01017460366864
-0.3467000000000001,-277.0004725135742
-0.3477,-277.4248859035337
-0.3487000000000001,-277.84929929349323
-0.3497,-278.1322415534662
-0.3507000000000001,-278.6981260734122
-0.3517,-279.40548172334474
-0.3527000000000001,-280.3957796332503
-0.3537,-281.52754867314235
-0.3547000000000001,-282.3763754530613
-0.3557,-283.08373110299385
-0.35670000000000013,-283.64961562293985
-0.3577,-284.07402901289936
-0.35870000000000013,-284.49844240285887
-0.3597,-284.9228557928184
-0.36070000000000013,-285.3472691827779
-0.3617,-285.7716825727374
-0.3626999999999999,-286.196095962697
-0.3637,-286.6205093526564
-0.3646999999999999,-287.1863938726024
-0.3657,-287.7522783925485
-0.3666999999999999,-288.45963404248096
-0.3677,-289.3084608224
-0.3686999999999999,-290.29875873230554
-0.36970000000000003,-291.4305277721976
-0.3706999999999999,-292.56229681208964
-0.37170000000000003,-293.55259472199515
-0.3726999999999999,-294.4014215019141
-0.37370000000000003,-295.3917194118196
-0.3746999999999999,-296.0990750617522
-0.37570000000000003,-296.80643071168464
-0.3766999999999999,-297.51378636161724
-0.37770000000000004,-298.50408427152274
-0.3786999999999999,-299.49438218142825
-0.37970000000000004,-300.2017378313608
-0.3806999999999999,-300.76762235130684
-0.38170000000000004,-301.33350687125284
-0.38269999999999993,-301.8993913911989
-0.38370000000000004,-302.74821817111786
-0.38469999999999993,-303.5970449510368
-0.38570000000000004,-304.5873428609424
-0.38669999999999993,-305.43616964086146
-0.38770000000000004,-306.28499642078043
-0.38869999999999993,-307.1338232006995
-0.38970000000000005,-307.841178850632
-0.39069999999999994,-308.8314767605375
-0.39170000000000005,-309.6803035404565
-0.39269999999999994,-310.38765919038906
-0.39370000000000005,-311.2364859703081
-0.39469999999999994,-312.0853127502271
-0.39570000000000005,-312.9341395301461
-0.39669999999999994,-313.78296631006515
-0.39770000000000005,-314.49032195999763
-0.39869999999999994,-315.19767760993017
-0.39970000000000006,-315.6220909998897
-0.40069999999999995,-316.1879755198357
-0.40170000000000006,-317.03680229975475
-0.40269999999999995,-317.8856290796738
-0.40370000000000006,-318.8759269895793
-0.40469999999999995,-319.72475376949825
-0.40570000000000006,-320.2906382894443
-0.40669999999999995,-320.4321094194308
-0.40770000000000006,-320.71505167940376
-0.40869999999999995,-320.9979939393768
-0.40970000000000006,-321.56387845932284
-0.41069999999999995,-321.98829184928235
-0.41170000000000007,-322.6956474992149
-0.41269999999999996,-323.1200608891744
-0.41370000000000007,-323.5444742791339
-0.41469999999999996,-323.9688876690934
-0.41570000000000007,-324.3933010590529
-0.41669999999999996,-324.81771444901244
-0.41770000000000007,-325.5250700989449
-0.41869999999999996,-326.090954618891
-0.4197000000000001,-326.656839138837
-0.42069999999999996,-327.222723658783
-0.4217000000000001,-327.788608178729
-0.42269999999999996,-328.071550438702
-0.4237000000000001,-328.63743495864804
-0.42469999999999997,-328.92037721862107
-0.4257000000000001,-329.3447906085805
-0.42669999999999997,-329.9106751285266
-0.4277000000000001,-330.4765596484726
-0.42869999999999997,-331.18391529840505
-0.4297000000000001,-331.74979981835105
-0.43069999999999997,-332.3156843382971
-0.4317000000000001,-333.02303998822964
-0.4327,-333.5889245081757
-0.4337000000000001,-334.01333789813515
-0.4347,-334.5792224180812
-0.4357000000000001,-335.1451069380272
-0.4367,-335.71099145797325
-0.4377000000000001,-336.27687597791925
-0.4387,-336.70128936787876
-0.4397000000000001,-336.84276049786524
-0.4407,-336.9842316278517
-0.4417000000000001,-337.26717388782475
-0.4427,-337.69158727778427
-0.4437000000000001,-338.2574717977303
-0.4447,-338.96482744766274
-0.4457000000000001,-339.5307119676088
-0.4467,-339.95512535756825
-0.4477000000000001,-340.0965964875548
-0.4487,-340.2380676175413
-0.4497000000000001,-340.2380676175413
-0.4507,-340.2380676175413
-0.4517000000000001,-340.5210098775143
-0.4527,-340.80395213748733
-0.4537000000000001,-341.22836552744684
-0.4547,-341.65277891740635
-0.4557000000000001,-341.9357211773794
-0.4567,-342.3601345673389
-0.4577000000000001,-342.64307682731186
-0.4587,-342.92601908728494
-0.4597000000000001,-343.2089613472579
-0.4607,-343.49190360723094
-0.4617000000000001,-343.7748458672039
-0.4627,-343.9163169971904
-0.4637000000000001,-343.9163169971904
-0.4647,-343.7748458672039
-0.4657000000000001,-343.7748458672039
-0.4667,-343.7748458672039
-0.4677000000000001,-343.9163169971904
-0.4687,-344.1992592571634
-0.4697000000000001,-344.34073038714996
-0.4707,-344.7651437771094
-0.4717000000000001,-345.04808603708244
-0.4727,-345.1895571670689
-0.4737000000000001,-345.33102829705547
-0.4747,-345.1895571670689
-0.4757000000000001,-345.33102829705547
-0.4767,-345.33102829705547
-0.4777000000000001,-345.33102829705547
-0.4787,-345.6139705570285
-0.4797000000000001,-345.7554416870149
-0.4807,-345.7554416870149
-0.48170000000000013,-345.47249942704195
-0.4827,-345.04808603708244
-0.48370000000000013,-344.90661490709596
-0.4847,-344.7651437771094
-0.48570000000000013,-344.7651437771094
-0.4867,-343.2089613472579
-0.48570000000000013,-339.1062985776493
-0.4847,-335.00363580804066
-0.48370000000000013,-331.0424441684186
-0.4827,-327.0812525287965
-0.48170000000000013,-323.40300314914737
-0.4807,-319.58328263951176
-0.4797000000000001,-315.9050332598627
-0.4787,-312.2267838802136
-0.4777000000000001,-308.54853450056453
-0.4767,-304.8702851209154
-0.4757000000000001,-301.0505646112798
-0.4747,-297.23084410164427
-0.4737000000000001,-293.55259472199515
-0.4727,-289.87434534234603
-0.4717000000000001,-286.47903822266994
-0.4707,-283.22520223298034
-0.4697000000000001,-280.11283737327733
-0.4687,-277.0004725135742
-0.4677000000000001,-273.8881076538711
-0.4667,-270.63427166418154
-0.4657000000000001,-267.23896454450545
-0.4647,-263.98512855481584
