Potential V vs RHE, Current mA cm-2
0.013299999999999867,8.110539882126256
0.012299999999999978,5.929055057734368
0.011299999999999866,3.9668504848215624
0.010299999999999976,2.1347993514963406
0.009299999999999864,0.43403342679859325
0.008299999999999974,-1.1362961160515976
0.007299999999999862,-2.706342716641815
0.006299999999999972,-4.276672259492005
0.00529999999999986,-5.80314575204638
0.0042999999999999705,-7.37347529489657
0.0032999999999998586,-8.899948787450944
0.0022999999999999687,-10.340124890713554
0.0012999999999998568,-11.691174182084664
0.00029999999999996696,-12.869628694872238
-0.000700000000000145,-14.046668496359947
-0.0017000000000000348,-15.094969569559943
-0.0027000000000001467,-16.184297270456018
-0.0037000000000000366,-17.316066310348052
-0.0047000000000001485,-18.44783535024008
-0.005700000000000038,-19.636192842126707
-0.00670000000000015,-20.85284456001064
-0.00770000000000004,-21.899730921910766
-0.008700000000000152,-22.946617283810895
-0.009700000000000042,-23.86617962872317
-0.010700000000000154,-24.771594860636792
-0.011700000000000044,-25.563833188561212
-0.012700000000000156,-26.440954194477534
-0.013700000000000045,-27.303928087395207
-0.014700000000000157,-28.265931771303435
-0.015700000000000047,-29.18549411621571
-0.01670000000000016,-30.189939139119886
-0.01770000000000005,-31.095354371033505
-0.01870000000000016,-31.930034037953877
-0.01970000000000005,-32.66568391388369
-0.020700000000000163,-33.41548090281216
-0.021700000000000053,-34.10868943974604
-0.022700000000000164,-34.85848642867451
-0.023700000000000054,-35.636577643600276
-0.024700000000000166,-36.47125731052064
-0.025700000000000056,-37.291789864442364
-0.026700000000000168,-38.211352209354644
-0.027700000000000058,-39.046031876275016
-0.02870000000000017,-39.78168175220483
-0.02970000000000006,-40.3900076111468
-0.03070000000000017,-41.04077480908471
-0.03170000000000006,-41.56421799003478
-0.03270000000000017,-42.229132300971344
-0.03370000000000006,-42.87989949890926
-0.034700000000000175,-43.657990713835034
-0.035700000000000065,-44.45022904175945
-0.03670000000000018,-45.27076159568118
-0.03770000000000007,-46.062999923605595
-0.03870000000000018,-46.79864979953541
-0.03970000000000007,-47.40697565847737
-0.04070000000000018,-48.029448630417996
-0.04170000000000007,-48.59533315036401
-0.04270000000000018,-49.20365900930597
-0.04370000000000007,-49.89686754623985
-0.044700000000000184,-50.64666453516831
-0.045700000000000074,-51.38231441109813
-0.046700000000000186,-52.2169940780185
-0.047700000000000076,-52.95264395394832
-0.04870000000000019,-53.64585249088219
-0.04970000000000008,-54.26832546282281
-0.05070000000000019,-54.834209982768826
-0.05170000000000008,-55.357653163718886
-0.05270000000000019,-55.96597902266086
-0.05370000000000008,-56.65918755959472
-0.05470000000000019,-57.408984548523186
-0.05570000000000008,-58.14463442445301
-0.056700000000000195,-58.92272563937878
-0.057700000000000085,-59.67252262830725
-0.058700000000000196,-60.36573116524111
-0.059700000000000086,-61.01649836317903
-0.0607000000000002,-61.63897133511965
-0.06170000000000009,-62.20485585506566
-0.0627000000000002,-62.855623053003576
-0.06370000000000009,-63.54883158993744
-0.0647000000000002,-64.29862857886593
-0.06570000000000009,-65.0767197937917
-0.0667000000000002,-65.91139946071206
-0.0677000000000001,-66.64704933664189
-0.0687000000000002,-67.2978165345798
-0.0697000000000001,-67.96273084551636
-0.07070000000000021,-68.52861536546239
-0.0717000000000001,-69.0944998854084
-0.07270000000000021,-69.70282574435035
-0.0737000000000001,-70.39603428128423
-0.07470000000000021,-71.1458312702127
-0.0757000000000001,-71.96636382413442
-0.07670000000000021,-72.80104349105478
-0.0777000000000001,-73.57913470598055
-0.07870000000000021,-74.37137303390499
-0.0797000000000001,-75.06458157083884
-0.08070000000000022,-75.71534876877676
-0.0817000000000001,-76.33782174071737
-0.08270000000000022,-76.98858893865528
-0.08370000000000011,-77.7242388145851
-0.08470000000000022,-78.55891848150549
-0.08570000000000011,-79.42189237442317
-0.08670000000000022,-80.34145471933543
-0.08770000000000011,-81.13369304725985
-0.08870000000000022,-81.91178426218562
-0.08970000000000011,-82.56255146012353
-0.09070000000000022,-83.22746577106011
-0.09170000000000011,-83.83579163000208
-0.09270000000000023,-84.44411748894404
-0.09370000000000012,-85.13732602587791
-0.09470000000000023,-85.92956435380233
-0.09570000000000012,-86.66521422973216
-0.09670000000000023,-87.54233523564847
-0.09770000000000012,-88.32042645057423
-0.09870000000000023,-89.11266477849867
-0.09970000000000012,-89.84831465442848
-0.10070000000000023,-90.55567030436099
-0.10170000000000012,-91.20643750229891
-0.10270000000000024,-91.94208737822873
-0.10370000000000013,-92.6918843671572
-0.10470000000000024,-93.55485826007487
-0.10570000000000013,-94.4319792659912
-0.10670000000000024,-95.30910027190752
-0.10770000000000013,-96.12963282582925
-0.10870000000000024,-96.87942981475771
-0.10970000000000013,-97.57263835169158
-0.11070000000000024,-98.3082882276214
-0.11170000000000013,-98.93076119956201
-0.11270000000000002,-99.66641107549184
-0.11370000000000013,-100.45864940341626
-0.11470000000000002,-101.27918195733798
-0.11570000000000014,-102.1563029632543
-0.11670000000000003,-103.07586530816658
-0.11770000000000014,-103.89639786208829
-0.11870000000000003,-104.68863619001272
-0.11970000000000014,-105.38184472694657
-0.12070000000000003,-106.0326119248845
-0.12170000000000014,-106.59849644483052
-0.12270000000000003,-107.20682230377247
-0.12370000000000014,-107.99906063169689
-0.12470000000000003,-108.83374029861727
-0.12570000000000014,-109.69671419153494
-0.12670000000000003,-110.65871787544317
-0.12770000000000015,-111.5358388813595
-0.12870000000000004,-112.44125411327312
-0.12970000000000015,-113.23349244119754
-0.13070000000000004,-114.0115836561233
-0.13170000000000015,-114.71893930605583
-0.13270000000000004,-115.45458918198564
-0.13370000000000015,-116.24682750991008
-0.13470000000000004,-117.15224274182368
-0.13570000000000015,-117.98692240874406
-0.13670000000000004,-118.90648475365633
-0.13770000000000016,-119.72701730757805
-0.13870000000000005,-120.51925563550247
-0.13970000000000016,-121.21246417243634
-0.14070000000000005,-121.90567270937021
-0.14170000000000016,-122.52814568131083
-0.14270000000000005,-123.3062368962366
-0.14370000000000016,-124.05603388516508
-0.14470000000000005,-124.87656643908679
-0.14570000000000016,-125.7536874450031
-0.14670000000000005,-126.6732497899154
-0.14770000000000016,-127.4937823438371
-0.14870000000000005,-128.37090334975343
-0.14970000000000017,-129.1489945646792
-0.15070000000000006,-129.79976176261712
-0.15170000000000017,-130.42223473455772
-0.15270000000000006,-131.2003259494835
-0.15370000000000017,-131.95012293841197
-0.15470000000000006,-132.8555381703256
-0.15570000000000017,-133.81754185423384
-0.15670000000000006,-134.82198687713802
-0.15770000000000017,-135.74154922205025
-0.15870000000000006,-136.70355290595847
-0.15970000000000018,-137.52408545988024
-0.16070000000000007,-138.27388244880868
-0.16170000000000018,-138.92464964674662
-0.16270000000000007,-139.70274086167237
-0.16370000000000018,-140.4949791895968
-0.16470000000000007,-141.3155117435185
-0.16570000000000018,-142.31995676642268
-0.16670000000000007,-143.16878354634173
-0.16770000000000018,-144.01761032626072
-0.16870000000000007,-144.86643710617977
-0.16970000000000018,-145.57379275611228
-0.17070000000000007,-146.28114840604482
-0.17170000000000019,-146.9885040559773
-0.17270000000000008,-147.83733083589632
-0.1737000000000002,-148.54468648582886
-0.17470000000000008,-149.53498439573437
-0.1757000000000002,-150.38381117565342
-0.17670000000000008,-151.23263795557244
-0.1777000000000002,-151.93999360550492
-0.17870000000000008,-152.78882038542397
-0.1797000000000002,-153.49617603535648
-0.18070000000000008,-154.0620605553025
-0.1817000000000002,-154.6279450752485
-0.18270000000000008,-155.33530072518104
-0.1837000000000002,-156.18412750510007
-0.1847000000000001,-157.03295428501906
-0.1857000000000002,-158.02325219492457
-0.1867000000000001,-159.01355010483013
-0.1877000000000002,-159.86237688474912
-0.1887000000000001,-160.71120366466818
-0.1897000000000002,-161.41855931460069
-0.1907000000000001,-162.12591496453322
-0.1917000000000001,-162.8332706144657
-0.19269999999999998,-163.54062626439824
-0.1937000000000001,-164.53092417430375
-0.19469999999999998,-165.5212220842093
-0.1957000000000001,-166.51151999411482
-0.19669999999999999,-167.6432890340068
-0.1977000000000001,-168.49211581392586
-0.1987,-169.3409425938449
-0.1997000000000001,-170.18976937376394
-0.2007,-170.89712502369645
-0.2017000000000001,-171.60448067362896
-0.2027,-172.31183632356147
-0.2037000000000001,-173.01919197349397
-0.2047,-173.72654762342648
-0.2057000000000001,-174.57537440334553
-0.2067,-175.42420118326456
-0.2077000000000001,-176.27302796318358
-0.2087,-177.1218547431026
-0.2097000000000001,-177.9706815230216
-0.2107,-178.81950830294062
-0.2117000000000001,-179.52686395287316
-0.2127,-180.37569073279218
-0.2137000000000001,-181.2245175127112
-0.2147,-182.21481542261674
-0.2157000000000001,-183.34658446250873
-0.2167,-184.33688237241427
-0.21770000000000012,-185.3271802823198
-0.2187,-186.17600706223882
-0.21970000000000012,-187.02483384215788
-0.2207,-187.73218949209036
-0.22170000000000012,-188.4395451420229
-0.2227,-189.2883719219419
-0.22370000000000012,-190.27866983184742
-0.2247,-191.41043887173947
-0.22570000000000012,-192.40073678164498
-0.2267,-193.3910346915505
-0.22770000000000012,-194.38133260145605
-0.22870000000000001,-195.23015938137505
-0.22970000000000013,-196.0789861612941
-0.23070000000000002,-196.7863418112266
-0.23170000000000013,-197.49369746115914
-0.23270000000000002,-198.3425242410781
-0.23370000000000013,-199.19135102099716
-0.23470000000000002,-200.18164893090267
-0.23570000000000013,-201.17194684080823
-0.23670000000000002,-202.16224475071377
-0.2376999999999999,-203.01107153063276
-0.23870000000000002,-203.85989831055176
-0.2396999999999999,-204.5672539604843
-0.24070000000000003,-205.41608074040332
-0.24169999999999991,-206.12343639033585
-0.24270000000000003,-206.97226317025488
-0.24369999999999992,-207.8210899501739
-0.24470000000000003,-208.95285899006592
-0.24569999999999992,-209.94315689997146
-0.24670000000000003,-211.07492593986345
-0.24769999999999992,-212.065223849769
-0.24870000000000003,-213.19699288966103
-0.24969999999999992,-214.04581966958003
-0.25070000000000003,-215.03611757948556
-0.2516999999999999,-215.7434732294181
-0.25270000000000004,-216.59230000933712
-0.2536999999999999,-217.44112678925615
-0.25470000000000004,-218.28995356917517
-0.2556999999999999,-219.28025147908068
-0.25670000000000004,-220.41202051897272
-0.25769999999999993,-221.40231842887826
-0.25870000000000004,-222.3926163387838
-0.25969999999999993,-223.2414431187028
-0.26070000000000004,-223.9487987686353
-0.26169999999999993,-224.65615441856778
-0.26270000000000004,-225.50498119848683
-0.26369999999999993,-226.21233684841937
-0.26470000000000005,-226.91969249835188
-0.26569999999999994,-227.7685192782709
-0.26670000000000005,-228.47587492820347
-0.26769999999999994,-228.75881718817644
-0.26870000000000005,-229.04175944814943
-0.26969999999999994,-229.60764396809546
-0.27070000000000005,-230.45647074801445
-0.27169999999999994,-231.44676865792
-0.27270000000000005,-233.00295108777152
-0.27369999999999994,-234.55913351762308
-0.27470000000000006,-236.1153159474746
-0.27569999999999995,-237.67149837732615
-0.27670000000000006,-238.94473854720468
-0.27769999999999995,-240.0765075870967
-0.27870000000000006,-241.06680549700224
-0.27969999999999995,-241.9156322769213
-0.28070000000000006,-242.48151679686728
-0.28169999999999995,-242.90593018682682
-0.28270000000000006,-243.3303435767863
-0.28369999999999995,-243.8962280967323
-0.28470000000000006,-244.60358374666484
-0.28569999999999995,-245.59388165657037
-0.28670000000000007,-247.0085929564354
-0.28769999999999996,-248.28183312631393
-0.28870000000000007,-249.83801555616546
-0.28969999999999996,-251.111255726044
-0.29070000000000007,-252.10155363594956
-0.29169999999999996,-253.09185154585506
-0.29270000000000007,-254.2236205857471
-0.29369999999999996,-255.35538962563913
-0.2947000000000001,-256.4871586655312
-0.29569999999999996,-257.4774565754367
-0.2967000000000001,-258.4677544853422
-0.29769999999999996,-259.59952352523425
-0.2987000000000001,-260.58982143513975
-0.29969999999999997,-261.4386482150588
-0.3007000000000001,-262.1460038649913
-0.30169999999999997,-262.7118883849373
-0.3027000000000001,-263.56071516485633
-0.30369999999999997,-264.40954194477536
-0.3047000000000001,-265.39983985468086
-0.30569999999999997,-266.5316088945729
-0.3067000000000001,-267.80484906445145
-0.3077,-268.93661810434344
-0.3087000000000001,-270.20985827422203
-0.3097,-271.341627314114
-0.3107000000000001,-272.47339635400607
-0.3117,-273.4636942639116
-0.3127000000000001,-274.4539921738171
-0.3137,-275.58576121370913
-0.3147000000000001,-276.7175302536012
-0.3157,-277.84929929349323
-0.3167000000000001,-278.9810683333853
-0.3177,-279.82989511330425
-0.3187000000000001,-280.82019302320975
-0.3197,-281.52754867314235
-0.3207000000000001,-282.3763754530613
-0.3217,-283.08373110299385
-0.3227000000000001,-283.9325578829129
-0.3237,-284.7813846628319
-0.3247000000000001,-285.7716825727374
-0.3257,-286.9034516126294
-0.3267000000000001,-288.03522065252145
-0.3277,-289.1669896924135
-0.3287000000000001,-290.29875873230554
-0.3297,-291.14758551222457
-0.3307000000000001,-291.9964122921436
-0.3317,-292.8452390720626
-0.3327000000000001,-293.8355369819681
-0.3337,-294.8258348918736
-0.3347000000000001,-295.8161328017792
-0.3357,-296.80643071168464
-0.3367000000000001,-297.6552574916037
-0.3377,-298.50408427152274
-0.3387000000000001,-299.2114399214552
-0.3397,-299.91879557138776
-0.3407000000000001,-300.6261512213203
-0.3417,-301.33350687125284
-0.3427000000000001,-302.18233365117186
-0.3437,-303.0311604310908
-0.3447000000000001,-304.0214583409964
-0.3457,-305.0117562509019
-0.3467000000000001,-306.1435252907939
-0.3477,-307.27529433068594
-0.3487000000000001,-308.2655922405915
-0.3497,-309.255890150497
-0.3507000000000001,-310.2461880604026
-0.3517,-311.2364859703081
-0.3527000000000001,-312.0853127502271
-0.3537,-313.0756106601326
-0.3547000000000001,-314.0659085700381
-0.3557,-315.19767760993017
-0.35670000000000013,-316.04650438984913
-0.3577,-317.03680229975475
-0.35870000000000013,-317.8856290796738
-0.3597,-318.59298472960626
-0.36070000000000013,-319.30034037953874
-0.3617,-320.00769602947133
-0.3626999999999999,-320.8565228093903
-0.3637,-321.7053495893094
-0.3646999999999999,-322.6956474992149
-0.3657,-323.68594540912045
-0.3666999999999999,-324.67624331902596
-0.3677,-325.6665412289314
-0.3686999999999999,-326.79831026882346
-0.36970000000000003,-327.6471370487425
-0.3706999999999999,-328.4959638286615
-0.37170000000000003,-329.20331947859404
-0.3726999999999999,-330.05214625851306
-0.37370000000000003,-331.0424441684186
-0.3746999999999999,-332.03274207832413
-0.37570000000000003,-332.8815688582431
-0.3766999999999999,-333.87186676814866
-0.37770000000000004,-334.86216467805417
-0.3786999999999999,-335.71099145797325
-0.37970000000000004,-336.4183471079057
-0.3806999999999999,-337.12570275783827
-0.38170000000000004,-337.83305840777075
-0.38269999999999993,-338.5404140577033
-0.38370000000000004,-339.5307119676088
-0.38469999999999993,-340.5210098775143
-0.38570000000000004,-341.51130778741987
-0.38669999999999993,-342.64307682731186
-0.38770000000000004,-343.7748458672039
-0.38869999999999993,-344.7651437771094
-0.38970000000000005,-345.47249942704195
-0.39069999999999994,-346.1798550769745
-0.39170000000000005,-346.88721072690697
-0.39269999999999994,-347.45309524685297
-0.39370000000000005,-347.87750863681254
-0.39469999999999994,-348.44339315675853
-0.39570000000000005,-349.15074880669107
-0.39669999999999994,-349.9995755866101
-0.39770000000000005,-350.8484023665291
-0.39869999999999994,-351.69722914644814
-0.39970000000000006,-352.4045847963807
-0.40069999999999995,-353.25341157629964
-0.40170000000000006,-354.2437094862052
-0.40269999999999995,-355.2340073961107
-0.40370000000000006,-356.08283417602973
-0.40469999999999995,-357.07313208593524
-0.40570000000000006,-358.20490112582723
-0.40669999999999995,-359.1951990357328
-0.40770000000000006,-360.18549694563836
-0.40869999999999995,-361.17579485554387
-0.40970000000000006,-362.16609276544943
-0.41069999999999995,-362.87344841538186
-0.41170000000000007,-363.4393329353279
-0.41269999999999996,-364.0052174552739
-0.41370000000000007,-364.7125731052065
-0.41469999999999996,-365.2784576251525
-0.41570000000000007,-365.985813275085
-0.41669999999999996,-366.83464005500406
-0.41770000000000007,-367.5419957049365
-0.41869999999999996,-368.10788022488254
-0.4197000000000001,-368.5322936148421
-0.42069999999999996,-368.95670700480156
-0.4217000000000001,-369.3811203947611
-0.42269999999999996,-369.9470049147071
-0.4237000000000001,-370.6543605646396
-0.42469999999999997,-371.5031873445586
-0.4257000000000001,-372.35201412447765
-0.42669999999999997,-373.4837831643697
-0.4277000000000001,-374.3326099442887
-0.42869999999999997,-374.8984944642347
-0.4297000000000001,-375.4643789841807
-0.43069999999999997,-376.31320576409973
-0.4317000000000001,-377.16203254401876
-0.4327,-378.0108593239378
-0.4337000000000001,-378.7182149738703
-0.4347,-379.56704175378934
-0.4357000000000001,-380.41586853370836
-0.4367,-381.2646953136274
-0.4377000000000001,-381.9720509635599
-0.4387,-382.537935483506
-0.4397000000000001,-382.96234887346543
-0.4407,-383.38676226342494
-0.4417000000000001,-383.6697045233979
-0.4427,-383.952646783371
-0.4437000000000001,-384.23558904334396
-0.4447,-384.80147356328996
-0.4457000000000001,-385.367358083236
-0.4467,-386.0747137331685
-0.4477000000000001,-386.64059825311455
-0.4487,-387.347953903047
-0.4497000000000001,-387.7723672930066
-0.4507,-388.33825181295254
-0.4517000000000001,-388.7626652029121
-0.4527,-389.0456074628851
-0.4537000000000001,-389.61149198283107
-0.4547,-390.1773765027771
-0.4557000000000001,-391.16767441268263
-0.4567,-392.1579723225882
-0.4577000000000001,-392.8653279725207
-0.4587,-393.2897413624802
-0.4597000000000001,-393.4312124924667
-0.4607,-393.2897413624802
-0.4617000000000001,-393.00679910250716
-0.4627,-392.7238568425342
-0.4637000000000001,-392.58238571254765
-0.4647,-392.58238571254765
-0.4657000000000001,-393.14827023249364
-0.4667,-393.5726836224532
-0.4677000000000001,-393.9970970124127
-0.4687,-394.42151040237223
-0.4697000000000001,-394.84592379233175
-0.4707,-395.1288660523047
-0.4717000000000001,-395.27033718229126
-0.4727,-395.27033718229126
-0.4737000000000001,-395.27033718229126
-0.4747,-395.41180831227774
-0.4757000000000001,-395.5532794422643
-0.4767,-395.9776928322238
-0.4777000000000001,-396.40210622218325
-0.4787,-396.5435773521698
-0.4797000000000001,-396.82651961214276
-0.4807,-396.9679907421293
-0.48170000000000013,-396.9679907421293
-0.4827,-396.82651961214276
-0.48370000000000013,-396.82651961214276
-0.4847,-396.82651961214276
-0.48570000000000013,-396.9679907421293
-0.4867,-395.41180831227774
-0.48570000000000013,-391.02620328269614
-0.4847,-386.782069383101
-0.48370000000000013,-382.6794066134924
-0.4827,-378.5767438438838
-0.48170000000000013,-374.4740810742752
-0.4807,-370.5128894346531
-0.4797000000000001,-366.4102266650445
-0.4787,-362.4490350254224
-0.4777000000000001,-358.3463722558138
-0.4767,-354.3851806161917
-0.4757000000000001,-350.2825178465831
-0.4747,-346.4627973369475
-0.4737000000000001,-342.64307682731186
-0.4727,-339.1062985776493
-0.4717000000000001,-335.42804919800017
-0.4707,-331.89127094833765
-0.4697000000000001,-328.4959638286615
-0.4687,-325.24212783897195
-0.4677000000000001,-321.98829184928235
-0.4667,-318.73445585959274
-0.4657000000000001,-315.3391487399167
