Apr. 17, 2025   19:22:05
Cyclic Voltammetry
File: c:/users/guazh/data/banditlqround7_x0exp590_r20/2025-04-16-exp1111\exp1111-2025-04-17t19_06_35-h2koh\exp1111_cv_sr_700mvs_efin_-1600mv.bin
Data Source:  Experiment
Instrument Model:  CHI760E
Header: CV ran at 700 mVs
Note: 

Init E (V) = -1
High E (V) = -1
Low E (V) = -1.6
Final E (V) = -1
Init P/N = N
Scan Rate (V/s) = 0.7
Segment = 3
Sample Interval (V) = 0.001
Quiet Time (sec) = 2
Sensitivity (A/V) = 0.01
Comp R (ohm) = 1.6

Results:

Channel 1:
Segment 1:

Segment 2:

Segment 3:

Potential/V, Current/A

-1.000, 3.407e-5
-1.001, 5.565e-5
-1.002, 5.873e-5
-1.003, 6.182e-5
-1.004, 6.182e-5
-1.005, 6.182e-5
-1.006, 6.182e-5
-1.007, 6.490e-5
-1.008, 6.490e-5
-1.009, 6.490e-5
-1.010, 6.798e-5
-1.011, 6.798e-5
-1.012, 6.798e-5
-1.013, 6.798e-5
-1.014, 6.798e-5
-1.015, 6.798e-5
-1.016, 6.798e-5
-1.017, 6.798e-5
-1.018, 7.107e-5
-1.019, 6.798e-5
-1.020, 7.107e-5
-1.021, 7.107e-5
-1.022, 7.107e-5
-1.023, 7.107e-5
-1.024, 7.107e-5
-1.025, 7.415e-5
-1.026, 7.107e-5
-1.027, 7.107e-5
-1.028, 7.107e-5
-1.029, 7.107e-5
-1.030, 7.415e-5
-1.031, 7.415e-5
-1.032, 7.415e-5
-1.033, 7.415e-5
-1.034, 7.415e-5
-1.035, 7.415e-5
-1.036, 7.723e-5
-1.037, 7.415e-5
-1.038, 7.723e-5
-1.039, 7.415e-5
-1.040, 7.415e-5
-1.041, 7.415e-5
-1.042, 7.415e-5
-1.043, 7.415e-5
-1.044, 7.415e-5
-1.045, 7.723e-5
-1.046, 7.723e-5
-1.047, 7.723e-5
-1.048, 7.723e-5
-1.049, 7.723e-5
-1.050, 7.723e-5
-1.051, 7.723e-5
-1.052, 7.723e-5
-1.053, 7.723e-5
-1.054, 7.723e-5
-1.055, 7.723e-5
-1.056, 7.723e-5
-1.057, 8.032e-5
-1.058, 8.032e-5
-1.059, 8.032e-5
-1.060, 8.032e-5
-1.061, 8.032e-5
-1.062, 8.032e-5
-1.063, 8.032e-5
-1.064, 8.032e-5
-1.065, 8.032e-5
-1.066, 8.032e-5
-1.067, 8.032e-5
-1.068, 8.032e-5
-1.069, 8.032e-5
-1.070, 8.032e-5
-1.071, 8.340e-5
-1.072, 8.032e-5
-1.073, 8.340e-5
-1.074, 8.340e-5
-1.075, 8.340e-5
-1.076, 8.340e-5
-1.077, 8.032e-5
-1.078, 8.032e-5
-1.079, 8.340e-5
-1.080, 8.340e-5
-1.081, 8.340e-5
-1.082, 8.648e-5
-1.083, 8.648e-5
-1.084, 8.648e-5
-1.085, 8.340e-5
-1.086, 8.648e-5
-1.087, 8.648e-5
-1.088, 8.340e-5
-1.089, 8.340e-5
-1.090, 8.648e-5
-1.091, 8.648e-5
-1.092, 8.648e-5
-1.093, 8.648e-5
-1.094, 8.648e-5
-1.095, 8.648e-5
-1.096, 8.648e-5
-1.097, 8.648e-5
-1.098, 8.648e-5
-1.099, 8.648e-5
-1.100, 8.648e-5
-1.101, 8.648e-5
-1.102, 8.648e-5
-1.103, 8.957e-5
-1.104, 8.648e-5
-1.105, 8.957e-5
-1.106, 8.957e-5
-1.107, 8.957e-5
-1.108, 8.957e-5
-1.109, 8.957e-5
-1.110, 8.957e-5
-1.111, 8.957e-5
-1.112, 8.957e-5
-1.113, 8.957e-5
-1.114, 8.957e-5
-1.115, 8.957e-5
-1.116, 9.265e-5
-1.117, 8.957e-5
-1.118, 9.265e-5
-1.119, 9.265e-5
-1.120, 9.265e-5
-1.121, 8.957e-5
-1.122, 9.265e-5
-1.123, 8.957e-5
-1.124, 8.957e-5
-1.125, 9.265e-5
-1.126, 9.265e-5
-1.127, 9.265e-5
-1.128, 9.265e-5
-1.129, 9.265e-5
-1.130, 9.573e-5
-1.131, 9.265e-5
-1.132, 9.265e-5
-1.133, 9.265e-5
-1.134, 9.265e-5
-1.135, 9.265e-5
-1.136, 9.265e-5
-1.137, 9.265e-5
-1.138, 9.265e-5
-1.139, 9.265e-5
-1.140, 9.573e-5
-1.141, 9.573e-5
-1.142, 9.573e-5
-1.143, 9.573e-5
-1.144, 9.573e-5
-1.145, 9.573e-5
-1.146, 9.265e-5
-1.147, 9.573e-5
-1.148, 9.573e-5
-1.149, 9.265e-5
-1.150, 9.573e-5
-1.151, 9.573e-5
-1.152, 9.573e-5
-1.153, 9.882e-5
-1.154, 9.573e-5
-1.155, 9.573e-5
-1.156, 9.573e-5
-1.157, 9.573e-5
-1.158, 9.573e-5
-1.159, 9.573e-5
-1.160, 9.573e-5
-1.161, 9.573e-5
-1.162, 9.573e-5
-1.163, 9.882e-5
-1.164, 9.882e-5
-1.165, 9.882e-5
-1.166, 9.882e-5
-1.167, 9.882e-5
-1.168, 9.882e-5
-1.169, 9.882e-5
-1.170, 9.882e-5
-1.171, 9.882e-5
-1.172, 9.882e-5
-1.173, 9.882e-5
-1.174, 9.882e-5
-1.175, 9.882e-5
-1.176, 9.882e-5
-1.177, 9.882e-5
-1.178, 9.882e-5
-1.179, 9.882e-5
-1.180, 9.882e-5
-1.181, 9.882e-5
-1.182, 9.882e-5
-1.183, 9.882e-5
-1.184, 9.882e-5
-1.185, 9.882e-5
-1.186, 9.882e-5
-1.187, 1.019e-4
-1.188, 1.019e-4
-1.189, 1.019e-4
-1.190, 1.019e-4
-1.191, 1.019e-4
-1.192, 1.019e-4
-1.193, 1.019e-4
-1.194, 9.882e-5
-1.195, 1.019e-4
-1.196, 1.019e-4
-1.197, 1.019e-4
-1.198, 1.019e-4
-1.199, 1.019e-4
-1.200, 1.019e-4
-1.201, 1.019e-4
-1.202, 1.019e-4
-1.203, 1.019e-4
-1.204, 1.019e-4
-1.205, 1.019e-4
-1.206, 1.019e-4
-1.207, 1.019e-4
-1.208, 1.019e-4
-1.209, 1.019e-4
-1.210, 1.019e-4
-1.211, 1.050e-4
-1.212, 1.050e-4
-1.213, 1.019e-4
-1.214, 1.050e-4
-1.215, 1.019e-4
-1.216, 1.019e-4
-1.217, 1.050e-4
-1.218, 1.019e-4
-1.219, 1.019e-4
-1.220, 1.019e-4
-1.221, 1.050e-4
-1.222, 1.050e-4
-1.223, 1.050e-4
-1.224, 1.050e-4
-1.225, 1.050e-4
-1.226, 1.050e-4
-1.227, 1.050e-4
-1.228, 1.050e-4
-1.229, 1.050e-4
-1.230, 1.050e-4
-1.231, 1.050e-4
-1.232, 1.050e-4
-1.233, 1.050e-4
-1.234, 1.050e-4
-1.235, 1.050e-4
-1.236, 1.081e-4
-1.237, 1.050e-4
-1.238, 1.050e-4
-1.239, 1.050e-4
-1.240, 1.081e-4
-1.241, 1.050e-4
-1.242, 1.081e-4
-1.243, 1.050e-4
-1.244, 1.081e-4
-1.245, 1.081e-4
-1.246, 1.081e-4
-1.247, 1.081e-4
-1.248, 1.081e-4
-1.249, 1.081e-4
-1.250, 1.081e-4
-1.251, 1.081e-4
-1.252, 1.081e-4
-1.253, 1.081e-4
-1.254, 1.081e-4
-1.255, 1.111e-4
-1.256, 1.081e-4
-1.257, 1.111e-4
-1.258, 1.111e-4
-1.259, 1.111e-4
-1.260, 1.111e-4
-1.261, 1.111e-4
-1.262, 1.111e-4
-1.263, 1.111e-4
-1.264, 1.111e-4
-1.265, 1.111e-4
-1.266, 1.111e-4
-1.267, 1.111e-4
-1.268, 1.111e-4
-1.269, 1.142e-4
-1.270, 1.111e-4
-1.271, 1.142e-4
-1.272, 1.142e-4
-1.273, 1.142e-4
-1.274, 1.142e-4
-1.275, 1.142e-4
-1.276, 1.142e-4
-1.277, 1.142e-4
-1.278, 1.142e-4
-1.279, 1.142e-4
-1.280, 1.173e-4
-1.281, 1.173e-4
-1.282, 1.173e-4
-1.283, 1.173e-4
-1.284, 1.173e-4
-1.285, 1.173e-4
-1.286, 1.173e-4
-1.287, 1.173e-4
-1.288, 1.173e-4
-1.289, 1.173e-4
-1.290, 1.204e-4
-1.291, 1.173e-4
-1.292, 1.204e-4
-1.293, 1.204e-4
-1.294, 1.204e-4
-1.295, 1.204e-4
-1.296, 1.204e-4
-1.297, 1.204e-4
-1.298, 1.235e-4
-1.299, 1.204e-4
-1.300, 1.204e-4
-1.301, 1.235e-4
-1.302, 1.235e-4
-1.303, 1.235e-4
-1.304, 1.235e-4
-1.305, 1.266e-4
-1.306, 1.266e-4
-1.307, 1.266e-4
-1.308, 1.266e-4
-1.309, 1.266e-4
-1.310, 1.266e-4
-1.311, 1.296e-4
-1.312, 1.296e-4
-1.313, 1.296e-4
-1.314, 1.296e-4
-1.315, 1.296e-4
-1.316, 1.327e-4
-1.317, 1.327e-4
-1.318, 1.358e-4
-1.319, 1.327e-4
-1.320, 1.327e-4
-1.321, 1.358e-4
-1.322, 1.358e-4
-1.323, 1.358e-4
-1.324, 1.358e-4
-1.325, 1.389e-4
-1.326, 1.389e-4
-1.327, 1.389e-4
-1.328, 1.420e-4
-1.329, 1.420e-4
-1.330, 1.420e-4
-1.331, 1.420e-4
-1.332, 1.420e-4
-1.333, 1.451e-4
-1.334, 1.451e-4
-1.335, 1.481e-4
-1.336, 1.451e-4
-1.337, 1.512e-4
-1.338, 1.512e-4
-1.339, 1.512e-4
-1.340, 1.543e-4
-1.341, 1.543e-4
-1.342, 1.543e-4
-1.343, 1.574e-4
-1.344, 1.543e-4
-1.345, 1.574e-4
-1.346, 1.605e-4
-1.347, 1.605e-4
-1.348, 1.605e-4
-1.349, 1.636e-4
-1.350, 1.636e-4
-1.351, 1.666e-4
-1.352, 1.666e-4
-1.353, 1.697e-4
-1.354, 1.697e-4
-1.355, 1.728e-4
-1.356, 1.728e-4
-1.357, 1.728e-4
-1.358, 1.759e-4
-1.359, 1.759e-4
-1.360, 1.790e-4
-1.361, 1.821e-4
-1.362, 1.851e-4
-1.363, 1.851e-4
-1.364, 1.882e-4
-1.365, 1.882e-4
-1.366, 1.913e-4
-1.367, 1.913e-4
-1.368, 1.944e-4
-1.369, 1.944e-4
-1.370, 1.975e-4
-1.371, 2.006e-4
-1.372, 2.006e-4
-1.373, 2.036e-4
-1.374, 2.067e-4
-1.375, 2.098e-4
-1.376, 2.098e-4
-1.377, 2.129e-4
-1.378, 2.160e-4
-1.379, 2.160e-4
-1.380, 2.191e-4
-1.381, 2.221e-4
-1.382, 2.252e-4
-1.383, 2.283e-4
-1.384, 2.314e-4
-1.385, 2.345e-4
-1.386, 2.376e-4
-1.387, 2.376e-4
-1.388, 2.437e-4
-1.389, 2.437e-4
-1.390, 2.468e-4
-1.391, 2.530e-4
-1.392, 2.530e-4
-1.393, 2.591e-4
-1.394, 2.591e-4
-1.395, 2.622e-4
-1.396, 2.684e-4
-1.397, 2.715e-4
-1.398, 2.746e-4
-1.399, 2.776e-4
-1.400, 2.838e-4
-1.401, 2.869e-4
-1.402, 2.900e-4
-1.403, 2.931e-4
-1.404, 2.992e-4
-1.405, 3.023e-4
-1.406, 3.054e-4
-1.407, 3.115e-4
-1.408, 3.146e-4
-1.409, 3.208e-4
-1.410, 3.239e-4
-1.411, 3.300e-4
-1.412, 3.331e-4
-1.413, 3.393e-4
-1.414, 3.424e-4
-1.415, 3.485e-4
-1.416, 3.516e-4
-1.417, 3.578e-4
-1.418, 3.640e-4
-1.419, 3.701e-4
-1.420, 3.763e-4
-1.421, 3.794e-4
-1.422, 3.886e-4
-1.423, 3.948e-4
-1.424, 3.979e-4
-1.425, 4.040e-4
-1.426, 4.102e-4
-1.427, 4.164e-4
-1.428, 4.225e-4
-1.429, 4.287e-4
-1.430, 4.349e-4
-1.431, 4.410e-4
-1.432, 4.503e-4
-1.433, 4.565e-4
-1.434, 4.657e-4
-1.435, 4.719e-4
-1.436, 4.780e-4
-1.437, 4.873e-4
-1.438, 4.935e-4
-1.439, 4.996e-4
-1.440, 5.089e-4
-1.441, 5.181e-4
-1.442, 5.274e-4
-1.443, 5.335e-4
-1.444, 5.428e-4
-1.445, 5.520e-4
-1.446, 5.613e-4
-1.447, 5.705e-4
-1.448, 5.767e-4
-1.449, 5.890e-4
-1.450, 5.952e-4
-1.451, 6.044e-4
-1.452, 6.168e-4
-1.453, 6.260e-4
-1.454, 6.353e-4
-1.455, 6.476e-4
-1.456, 6.569e-4
-1.457, 6.692e-4
-1.458, 6.784e-4
-1.459, 6.908e-4
-1.460, 7.000e-4
-1.461, 7.124e-4
-1.462, 7.216e-4
-1.463, 7.339e-4
-1.464, 7.463e-4
-1.465, 7.586e-4
-1.466, 7.709e-4
-1.467, 7.833e-4
-1.468, 7.987e-4
-1.469, 8.079e-4
-1.470, 8.233e-4
-1.471, 8.357e-4
-1.472, 8.480e-4
-1.473, 8.634e-4
-1.474, 8.758e-4
-1.475, 8.881e-4
-1.476, 9.035e-4
-1.477, 9.189e-4
-1.478, 9.343e-4
-1.479, 9.498e-4
-1.480, 9.652e-4
-1.481, 9.806e-4
-1.482, 9.960e-4
-1.483, 1.011e-3
-1.484, 1.027e-3
-1.485, 1.045e-3
-1.486, 1.061e-3
-1.487, 1.076e-3
-1.488, 1.095e-3
-1.489, 1.110e-3
-1.490, 1.129e-3
-1.491, 1.147e-3
-1.492, 1.166e-3
-1.493, 1.184e-3
-1.494, 1.203e-3
-1.495, 1.221e-3
-1.496, 1.240e-3
-1.497, 1.258e-3
-1.498, 1.277e-3
-1.499, 1.298e-3
-1.500, 1.320e-3
-1.501, 1.338e-3
-1.502, 1.360e-3
-1.503, 1.381e-3
-1.504, 1.403e-3
-1.505, 1.425e-3
-1.506, 1.446e-3
-1.507, 1.468e-3
-1.508, 1.489e-3
-1.509, 1.511e-3
-1.510, 1.536e-3
-1.511, 1.557e-3
-1.512, 1.582e-3
-1.513, 1.606e-3
-1.514, 1.631e-3
-1.515, 1.659e-3
-1.516, 1.684e-3
-1.517, 1.708e-3
-1.518, 1.733e-3
-1.519, 1.758e-3
-1.520, 1.785e-3
-1.521, 1.813e-3
-1.522, 1.838e-3
-1.523, 1.865e-3
-1.524, 1.893e-3
-1.525, 1.921e-3
-1.526, 1.949e-3
-1.527, 1.980e-3
-1.528, 2.007e-3
-1.529, 2.035e-3
-1.530, 2.066e-3
-1.531, 2.094e-3
-1.532, 2.124e-3
-1.533, 2.155e-3
-1.534, 2.186e-3
-1.535, 2.217e-3
-1.536, 2.248e-3
-1.537, 2.285e-3
-1.538, 2.319e-3
-1.539, 2.349e-3
-1.540, 2.383e-3
-1.541, 2.417e-3
-1.542, 2.451e-3
-1.543, 2.485e-3
-1.544, 2.522e-3
-1.545, 2.556e-3
-1.546, 2.590e-3
-1.547, 2.630e-3
-1.548, 2.667e-3
-1.549, 2.704e-3
-1.550, 2.741e-3
-1.551, 2.778e-3
-1.552, 2.818e-3
-1.553, 2.855e-3
-1.554, 2.895e-3
-1.555, 2.932e-3
-1.556, 2.972e-3
-1.557, 3.012e-3
-1.558, 3.052e-3
-1.559, 3.093e-3
-1.560, 3.136e-3
-1.561, 3.179e-3
-1.562, 3.222e-3
-1.563, 3.265e-3
-1.564, 3.308e-3
-1.565, 3.351e-3
-1.566, 3.398e-3
-1.567, 3.441e-3
-1.568, 3.487e-3
-1.569, 3.533e-3
-1.570, 3.580e-3
-1.571, 3.629e-3
-1.572, 3.678e-3
-1.573, 3.728e-3
-1.574, 3.777e-3
-1.575, 3.826e-3
-1.576, 3.876e-3
-1.577, 3.925e-3
-1.578, 3.974e-3
-1.579, 4.024e-3
-1.580, 4.076e-3
-1.581, 4.125e-3
-1.582, 4.178e-3
-1.583, 4.230e-3
-1.584, 4.286e-3
-1.585, 4.341e-3
-1.586, 4.394e-3
-1.587, 4.449e-3
-1.588, 4.505e-3
-1.589, 4.560e-3
-1.590, 4.616e-3
-1.591, 4.671e-3
-1.592, 4.727e-3
-1.593, 4.785e-3
-1.594, 4.844e-3
-1.595, 4.905e-3
-1.596, 4.967e-3
-1.597, 5.029e-3
-1.598, 5.093e-3
-1.599, 5.155e-3
-1.600, 5.149e-3
-1.599, 5.078e-3
-1.598, 5.013e-3
-1.597, 4.952e-3
-1.596, 4.890e-3
-1.595, 4.828e-3
-1.594, 4.770e-3
-1.593, 4.711e-3
-1.592, 4.653e-3
-1.591, 4.594e-3
-1.590, 4.535e-3
-1.589, 4.477e-3
-1.588, 4.418e-3
-1.587, 4.363e-3
-1.586, 4.304e-3
-1.585, 4.249e-3
-1.584, 4.190e-3
-1.583, 4.135e-3
-1.582, 4.079e-3
-1.581, 4.024e-3
-1.580, 3.971e-3
-1.579, 3.916e-3
-1.578, 3.863e-3
-1.577, 3.808e-3
-1.576, 3.755e-3
-1.575, 3.703e-3
-1.574, 3.647e-3
-1.573, 3.598e-3
-1.572, 3.546e-3
-1.571, 3.496e-3
-1.570, 3.447e-3
-1.569, 3.398e-3
-1.568, 3.348e-3
-1.567, 3.302e-3
-1.566, 3.253e-3
-1.565, 3.207e-3
-1.564, 3.157e-3
-1.563, 3.111e-3
-1.562, 3.065e-3
-1.561, 3.019e-3
-1.560, 2.975e-3
-1.559, 2.929e-3
-1.558, 2.886e-3
-1.557, 2.843e-3
-1.556, 2.800e-3
-1.555, 2.760e-3
-1.554, 2.719e-3
-1.553, 2.676e-3
-1.552, 2.636e-3
-1.551, 2.596e-3
-1.550, 2.556e-3
-1.549, 2.516e-3
-1.548, 2.476e-3
-1.547, 2.439e-3
-1.546, 2.402e-3
-1.545, 2.365e-3
-1.544, 2.328e-3
-1.543, 2.291e-3
-1.542, 2.257e-3
-1.541, 2.220e-3
-1.540, 2.183e-3
-1.539, 2.149e-3
-1.538, 2.115e-3
-1.537, 2.081e-3
-1.536, 2.047e-3
-1.535, 2.017e-3
-1.534, 1.986e-3
-1.533, 1.952e-3
-1.532, 1.921e-3
-1.531, 1.890e-3
-1.530, 1.859e-3
-1.529, 1.825e-3
-1.528, 1.798e-3
-1.527, 1.767e-3
-1.526, 1.736e-3
-1.525, 1.708e-3
-1.524, 1.680e-3
-1.523, 1.653e-3
-1.522, 1.625e-3
-1.521, 1.597e-3
-1.520, 1.569e-3
-1.519, 1.542e-3
-1.518, 1.517e-3
-1.517, 1.489e-3
-1.516, 1.462e-3
-1.515, 1.437e-3
-1.514, 1.412e-3
-1.513, 1.388e-3
-1.512, 1.366e-3
-1.511, 1.341e-3
-1.510, 1.320e-3
-1.509, 1.295e-3
-1.508, 1.273e-3
-1.507, 1.249e-3
-1.506, 1.227e-3
-1.505, 1.206e-3
-1.504, 1.184e-3
-1.503, 1.162e-3
-1.502, 1.144e-3
-1.501, 1.122e-3
-1.500, 1.104e-3
-1.499, 1.082e-3
-1.498, 1.064e-3
-1.497, 1.045e-3
-1.496, 1.027e-3
-1.495, 1.005e-3
-1.494, 9.868e-4
-1.493, 9.683e-4
-1.492, 9.498e-4
-1.491, 9.313e-4
-1.490, 9.158e-4
-1.489, 8.973e-4
-1.488, 8.819e-4
-1.487, 8.665e-4
-1.486, 8.511e-4
-1.485, 8.326e-4
-1.484, 8.172e-4
-1.483, 7.987e-4
-1.482, 7.863e-4
-1.481, 7.679e-4
-1.480, 7.524e-4
-1.479, 7.370e-4
-1.478, 7.216e-4
-1.477, 7.093e-4
-1.476, 6.969e-4
-1.475, 6.815e-4
-1.474, 6.692e-4
-1.473, 6.538e-4
-1.472, 6.414e-4
-1.471, 6.260e-4
-1.470, 6.137e-4
-1.469, 6.014e-4
-1.468, 5.890e-4
-1.467, 5.767e-4
-1.466, 5.644e-4
-1.465, 5.551e-4
-1.464, 5.428e-4
-1.463, 5.305e-4
-1.462, 5.212e-4
-1.461, 5.089e-4
-1.460, 4.965e-4
-1.459, 4.873e-4
-1.458, 4.750e-4
-1.457, 4.626e-4
-1.456, 4.534e-4
-1.455, 4.441e-4
-1.454, 4.349e-4
-1.453, 4.256e-4
-1.452, 4.164e-4
-1.451, 4.071e-4
-1.450, 3.979e-4
-1.449, 3.886e-4
-1.448, 3.794e-4
-1.447, 3.701e-4
-1.446, 3.609e-4
-1.445, 3.516e-4
-1.444, 3.424e-4
-1.443, 3.331e-4
-1.442, 3.270e-4
-1.441, 3.177e-4
-1.440, 3.115e-4
-1.439, 3.023e-4
-1.438, 2.961e-4
-1.437, 2.869e-4
-1.436, 2.807e-4
-1.435, 2.715e-4
-1.434, 2.653e-4
-1.433, 2.561e-4
-1.432, 2.499e-4
-1.431, 2.437e-4
-1.430, 2.376e-4
-1.429, 2.314e-4
-1.428, 2.252e-4
-1.427, 2.191e-4
-1.426, 2.129e-4
-1.425, 2.067e-4
-1.424, 2.006e-4
-1.423, 1.944e-4
-1.422, 1.882e-4
-1.421, 1.821e-4
-1.420, 1.759e-4
-1.419, 1.697e-4
-1.418, 1.636e-4
-1.417, 1.605e-4
-1.416, 1.543e-4
-1.415, 1.512e-4
-1.414, 1.451e-4
-1.413, 1.389e-4
-1.412, 1.327e-4
-1.411, 1.296e-4
-1.410, 1.235e-4
-1.409, 1.173e-4
-1.408, 1.142e-4
-1.407, 1.111e-4
-1.406, 1.050e-4
-1.405, 1.019e-4
-1.404, 9.573e-5
-1.403, 9.265e-5
-1.402, 8.957e-5
-1.401, 8.340e-5
-1.400, 8.032e-5
-1.399, 7.723e-5
-1.398, 7.107e-5
-1.397, 6.798e-5
-1.396, 6.490e-5
-1.395, 6.182e-5
-1.394, 5.873e-5
-1.393, 5.565e-5
-1.392, 4.949e-5
-1.391, 4.640e-5
-1.390, 4.332e-5
-1.389, 4.024e-5
-1.388, 3.715e-5
-1.387, 3.407e-5
-1.386, 3.099e-5
-1.385, 2.790e-5
-1.384, 2.790e-5
-1.383, 2.174e-5
-1.382, 1.865e-5
-1.381, 1.557e-5
-1.380, 1.557e-5
-1.379, 9.405e-6
-1.378, 9.405e-6
-1.377, 6.322e-6
-1.376, 3.239e-6
-1.375, 1.559e-7
-1.374, -2.927e-6
-1.373, -2.927e-6
-1.372, -6.010e-6
-1.371, -6.010e-6
-1.370, -9.093e-6
-1.369, -1.218e-5
-1.368, -1.526e-5
-1.367, -1.834e-5
-1.366, -1.834e-5
-1.365, -2.143e-5
-1.364, -2.451e-5
-1.363, -2.451e-5
-1.362, -2.759e-5
-1.361, -3.068e-5
-1.360, -3.068e-5
-1.359, -3.068e-5
-1.358, -3.376e-5
-1.357, -3.684e-5
-1.356, -3.684e-5
-1.355, -3.992e-5
-1.354, -3.992e-5
-1.353, -4.301e-5
-1.352, -4.301e-5
-1.351, -4.609e-5
-1.350, -4.609e-5
-1.349, -4.917e-5
-1.348, -4.917e-5
-1.347, -4.917e-5
-1.346, -5.226e-5
-1.345, -5.226e-5
-1.344, -5.534e-5
-1.343, -5.534e-5
-1.342, -5.842e-5
-1.341, -5.842e-5
-1.340, -6.151e-5
-1.339, -6.151e-5
-1.338, -6.151e-5
-1.337, -6.151e-5
-1.336, -6.459e-5
-1.335, -6.151e-5
-1.334, -6.459e-5
-1.333, -6.459e-5
-1.332, -6.767e-5
-1.331, -7.076e-5
-1.330, -6.767e-5
-1.329, -7.076e-5
-1.328, -7.076e-5
-1.327, -7.076e-5
-1.326, -7.384e-5
-1.325, -7.076e-5
-1.324, -7.384e-5
-1.323, -7.384e-5
-1.322, -7.384e-5
-1.321, -7.384e-5
-1.320, -7.692e-5
-1.319, -7.692e-5
-1.318, -7.692e-5
-1.317, -7.692e-5
-1.316, -8.000e-5
-1.315, -8.000e-5
-1.314, -8.000e-5
-1.313, -8.000e-5
-1.312, -8.000e-5
-1.311, -8.000e-5
-1.310, -8.000e-5
-1.309, -8.309e-5
-1.308, -8.309e-5
-1.307, -8.309e-5
-1.306, -8.309e-5
-1.305, -8.617e-5
-1.304, -8.309e-5
-1.303, -8.309e-5
-1.302, -8.617e-5
-1.301, -8.309e-5
-1.300, -8.617e-5
-1.299, -8.309e-5
-1.298, -8.617e-5
-1.297, -8.617e-5
-1.296, -8.617e-5
-1.295, -8.617e-5
-1.294, -8.617e-5
-1.293, -8.617e-5
-1.292, -8.925e-5
-1.291, -8.617e-5
-1.290, -8.617e-5
-1.289, -8.617e-5
-1.288, -8.617e-5
-1.287, -8.617e-5
-1.286, -8.925e-5
-1.285, -8.925e-5
-1.284, -8.925e-5
-1.283, -8.925e-5
-1.282, -8.925e-5
-1.281, -8.925e-5
-1.280, -8.925e-5
-1.279, -8.925e-5
-1.278, -8.617e-5
-1.277, -8.925e-5
-1.276, -8.925e-5
-1.275, -8.925e-5
-1.274, -8.925e-5
-1.273, -9.234e-5
-1.272, -8.925e-5
-1.271, -8.925e-5
-1.270, -8.925e-5
-1.269, -8.925e-5
-1.268, -8.925e-5
-1.267, -8.925e-5
-1.266, -8.925e-5
-1.265, -8.925e-5
-1.264, -8.925e-5
-1.263, -8.925e-5
-1.262, -9.234e-5
-1.261, -8.925e-5
-1.260, -9.234e-5
-1.259, -9.234e-5
-1.258, -9.234e-5
-1.257, -8.925e-5
-1.256, -8.925e-5
-1.255, -8.925e-5
-1.254, -8.925e-5
-1.253, -8.925e-5
-1.252, -8.925e-5
-1.251, -9.234e-5
-1.250, -8.925e-5
-1.249, -9.234e-5
-1.248, -9.234e-5
-1.247, -9.234e-5
-1.246, -9.234e-5
-1.245, -8.925e-5
-1.244, -8.925e-5
-1.243, -8.925e-5
-1.242, -8.925e-5
-1.241, -9.234e-5
-1.240, -8.925e-5
-1.239, -8.925e-5
-1.238, -9.234e-5
-1.237, -9.234e-5
-1.236, -9.234e-5
-1.235, -9.234e-5
-1.234, -9.234e-5
-1.233, -8.925e-5
-1.232, -8.925e-5
-1.231, -8.925e-5
-1.230, -9.234e-5
-1.229, -9.234e-5
-1.228, -9.234e-5
-1.227, -9.234e-5
-1.226, -9.234e-5
-1.225, -9.234e-5
-1.224, -9.234e-5
-1.223, -9.234e-5
-1.222, -9.234e-5
-1.221, -9.234e-5
-1.220, -9.234e-5
-1.219, -9.234e-5
-1.218, -9.234e-5
-1.217, -9.234e-5
-1.216, -9.234e-5
-1.215, -9.234e-5
-1.214, -9.234e-5
-1.213, -9.234e-5
-1.212, -9.234e-5
-1.211, -9.234e-5
-1.210, -9.234e-5
-1.209, -9.234e-5
-1.208, -9.234e-5
-1.207, -9.234e-5
-1.206, -9.234e-5
-1.205, -9.234e-5
-1.204, -9.234e-5
-1.203, -9.234e-5
-1.202, -9.234e-5
-1.201, -9.542e-5
-1.200, -9.234e-5
-1.199, -9.234e-5
-1.198, -9.234e-5
-1.197, -9.234e-5
-1.196, -9.234e-5
-1.195, -9.234e-5
-1.194, -9.234e-5
-1.193, -9.542e-5
-1.192, -9.234e-5
-1.191, -9.542e-5
-1.190, -9.542e-5
-1.189, -9.234e-5
-1.188, -9.542e-5
-1.187, -9.542e-5
-1.186, -9.542e-5
-1.185, -9.542e-5
-1.184, -9.234e-5
-1.183, -9.234e-5
-1.182, -9.542e-5
-1.181, -9.542e-5
-1.180, -9.542e-5
-1.179, -9.542e-5
-1.178, -9.542e-5
-1.177, -9.542e-5
-1.176, -9.542e-5
-1.175, -9.542e-5
-1.174, -9.542e-5
-1.173, -9.542e-5
-1.172, -9.542e-5
-1.171, -9.542e-5
-1.170, -9.542e-5
-1.169, -9.542e-5
-1.168, -9.542e-5
-1.167, -9.850e-5
-1.166, -9.850e-5
-1.165, -9.542e-5
-1.164, -9.850e-5
-1.163, -9.850e-5
-1.162, -9.850e-5
-1.161, -9.850e-5
-1.160, -9.542e-5
-1.159, -9.542e-5
-1.158, -9.850e-5
-1.157, -9.850e-5
-1.156, -9.850e-5
-1.155, -9.850e-5
-1.154, -9.850e-5
-1.153, -9.850e-5
-1.152, -9.850e-5
-1.151, -9.850e-5
-1.150, -9.850e-5
-1.149, -9.850e-5
-1.148, -9.850e-5
-1.147, -9.850e-5
-1.146, -9.850e-5
-1.145, -1.016e-4
-1.144, -1.016e-4
-1.143, -1.016e-4
-1.142, -1.016e-4
-1.141, -1.016e-4
-1.140, -1.016e-4
-1.139, -1.016e-4
-1.138, -1.016e-4
-1.137, -1.016e-4
-1.136, -1.016e-4
-1.135, -1.016e-4
-1.134, -1.016e-4
-1.133, -1.016e-4
-1.132, -1.016e-4
-1.131, -1.047e-4
-1.130, -1.016e-4
-1.129, -1.047e-4
-1.128, -1.016e-4
-1.127, -1.016e-4
-1.126, -1.016e-4
-1.125, -1.016e-4
-1.124, -1.047e-4
-1.123, -1.047e-4
-1.122, -1.016e-4
-1.121, -1.047e-4
-1.120, -1.047e-4
-1.119, -1.047e-4
-1.118, -1.047e-4
-1.117, -1.047e-4
-1.116, -1.078e-4
-1.115, -1.047e-4
-1.114, -1.047e-4
-1.113, -1.047e-4
-1.112, -1.078e-4
-1.111, -1.047e-4
-1.110, -1.078e-4
-1.109, -1.078e-4
-1.108, -1.078e-4
-1.107, -1.078e-4
-1.106, -1.078e-4
-1.105, -1.078e-4
-1.104, -1.078e-4
-1.103, -1.078e-4
-1.102, -1.078e-4
-1.101, -1.078e-4
-1.100, -1.078e-4
-1.099, -1.078e-4
-1.098, -1.108e-4
-1.097, -1.108e-4
-1.096, -1.108e-4
-1.095, -1.108e-4
-1.094, -1.108e-4
-1.093, -1.108e-4
-1.092, -1.108e-4
-1.091, -1.108e-4
-1.090, -1.108e-4
-1.089, -1.108e-4
-1.088, -1.108e-4
-1.087, -1.139e-4
-1.086, -1.108e-4
-1.085, -1.139e-4
-1.084, -1.139e-4
-1.083, -1.139e-4
-1.082, -1.139e-4
-1.081, -1.139e-4
-1.080, -1.139e-4
-1.079, -1.139e-4
-1.078, -1.139e-4
-1.077, -1.139e-4
-1.076, -1.170e-4
-1.075, -1.139e-4
-1.074, -1.170e-4
-1.073, -1.170e-4
-1.072, -1.170e-4
-1.071, -1.170e-4
-1.070, -1.170e-4
-1.069, -1.170e-4
-1.068, -1.170e-4
-1.067, -1.170e-4
-1.066, -1.170e-4
-1.065, -1.170e-4
-1.064, -1.170e-4
-1.063, -1.201e-4
-1.062, -1.201e-4
-1.061, -1.201e-4
-1.060, -1.201e-4
-1.059, -1.201e-4
-1.058, -1.201e-4
-1.057, -1.201e-4
-1.056, -1.201e-4
-1.055, -1.201e-4
-1.054, -1.201e-4
-1.053, -1.201e-4
-1.052, -1.232e-4
-1.051, -1.232e-4
-1.050, -1.232e-4
-1.049, -1.232e-4
-1.048, -1.232e-4
-1.047, -1.263e-4
-1.046, -1.232e-4
-1.045, -1.232e-4
-1.044, -1.232e-4
-1.043, -1.263e-4
-1.042, -1.232e-4
-1.041, -1.263e-4
-1.040, -1.263e-4
-1.039, -1.263e-4
-1.038, -1.293e-4
-1.037, -1.263e-4
-1.036, -1.293e-4
-1.035, -1.293e-4
-1.034, -1.263e-4
-1.033, -1.293e-4
-1.032, -1.293e-4
-1.031, -1.293e-4
-1.030, -1.293e-4
-1.029, -1.293e-4
-1.028, -1.293e-4
-1.027, -1.293e-4
-1.026, -1.324e-4
-1.025, -1.324e-4
-1.024, -1.324e-4
-1.023, -1.324e-4
-1.022, -1.324e-4
-1.021, -1.324e-4
-1.020, -1.324e-4
-1.019, -1.355e-4
-1.018, -1.355e-4
-1.017, -1.355e-4
-1.016, -1.355e-4
-1.015, -1.355e-4
-1.014, -1.386e-4
-1.013, -1.386e-4
-1.012, -1.386e-4
-1.011, -1.386e-4
-1.010, -1.386e-4
-1.009, -1.386e-4
-1.008, -1.386e-4
-1.007, -1.386e-4
-1.006, -1.417e-4
-1.005, -1.417e-4
-1.004, -1.417e-4
-1.003, -1.417e-4
-1.002, -1.417e-4
-1.001, -1.448e-4
