Potential V vs RHE, Current mA cm-2
0.013299999999999867,-0.3511313446265021
0.012299999999999978,-1.1798692240874404
0.011299999999999866,-1.7910245056291363
0.010299999999999976,-2.226755585987568
0.009299999999999864,-2.532333226758415
0.008299999999999974,-2.7501987669376318
0.007299999999999862,-2.924208256821031
0.006299999999999972,-3.055776407708479
0.00529999999999986,-3.1420737970002466
0.0042999999999999705,-3.2297858975918787
0.0032999999999998586,-3.273641947887695
0.0022999999999999687,-3.361354048479327
0.0012999999999998568,-3.403795387475278
0.00029999999999996696,-3.447651437771094
-0.000700000000000145,-3.4915074880669104
-0.0017000000000000348,-3.4915074880669104
-0.0027000000000001467,-3.5353635383627267
-0.0037000000000000366,-3.5353635383627267
-0.0047000000000001485,-3.579219588658543
-0.005700000000000038,-3.579219588658543
-0.00670000000000015,-3.623075638954359
-0.00770000000000004,-3.623075638954359
-0.008700000000000152,-3.6655169779503103
-0.009700000000000042,-3.623075638954359
-0.010700000000000154,-3.623075638954359
-0.011700000000000044,-3.6655169779503103
-0.012700000000000156,-3.6655169779503103
-0.013700000000000045,-3.6655169779503103
-0.014700000000000157,-3.7093730282461257
-0.015700000000000047,-3.7093730282461257
-0.01670000000000016,-3.7093730282461257
-0.01770000000000005,-3.7093730282461257
-0.01870000000000016,-3.7532290785419424
-0.01970000000000005,-3.7093730282461257
-0.020700000000000163,-3.7532290785419424
-0.021700000000000053,-3.7532290785419424
-0.022700000000000164,-3.7532290785419424
-0.023700000000000054,-3.7532290785419424
-0.024700000000000166,-3.7532290785419424
-0.025700000000000056,-3.7532290785419424
-0.026700000000000168,-3.7532290785419424
-0.027700000000000058,-3.7970851288377587
-0.02870000000000017,-3.7093730282461257
-0.02970000000000006,-3.7970851288377587
-0.03070000000000017,-3.7970851288377587
-0.03170000000000006,-3.7970851288377587
-0.03270000000000017,-3.7970851288377587
-0.03370000000000006,-3.7970851288377587
-0.034700000000000175,-3.7970851288377587
-0.035700000000000065,-3.7970851288377587
-0.03670000000000018,-3.7970851288377587
-0.03770000000000007,-3.7970851288377587
-0.03870000000000018,-3.7970851288377587
-0.03970000000000007,-3.7970851288377587
-0.04070000000000018,-3.7970851288377587
-0.04170000000000007,-3.7970851288377587
-0.04270000000000018,-3.7970851288377587
-0.04370000000000007,-3.7970851288377587
-0.044700000000000184,-3.7970851288377587
-0.045700000000000074,-3.840941179133574
-0.046700000000000186,-3.840941179133574
-0.047700000000000076,-3.840941179133574
-0.04870000000000019,-3.7970851288377587
-0.04970000000000008,-3.840941179133574
-0.05070000000000019,-3.840941179133574
-0.05170000000000008,-3.840941179133574
-0.05270000000000019,-3.840941179133574
-0.05370000000000008,-3.7970851288377587
-0.05470000000000019,-3.7970851288377587
-0.05570000000000008,-3.7970851288377587
-0.056700000000000195,-3.7970851288377587
-0.057700000000000085,-3.7970851288377587
-0.058700000000000196,-3.7970851288377587
-0.059700000000000086,-3.840941179133574
-0.0607000000000002,-3.840941179133574
-0.06170000000000009,-3.840941179133574
-0.0627000000000002,-3.840941179133574
-0.06370000000000009,-3.840941179133574
-0.0647000000000002,-3.840941179133574
-0.06570000000000009,-3.840941179133574
-0.0667000000000002,-3.840941179133574
-0.0677000000000001,-3.840941179133574
-0.0687000000000002,-3.7970851288377587
-0.0697000000000001,-3.840941179133574
-0.07070000000000021,-3.7970851288377587
-0.0717000000000001,-3.7970851288377587
-0.07270000000000021,-3.7970851288377587
-0.0737000000000001,-3.7970851288377587
-0.07470000000000021,-3.7970851288377587
-0.0757000000000001,-3.840941179133574
-0.07670000000000021,-3.840941179133574
-0.0777000000000001,-3.840941179133574
-0.07870000000000021,-3.840941179133574
-0.0797000000000001,-3.840941179133574
-0.08070000000000022,-3.840941179133574
-0.0817000000000001,-3.840941179133574
-0.08270000000000022,-3.840941179133574
-0.08370000000000011,-3.840941179133574
-0.08470000000000022,-3.840941179133574
-0.08570000000000011,-3.7970851288377587
-0.08670000000000022,-3.840941179133574
-0.08770000000000011,-3.840941179133574
-0.08870000000000022,-3.7970851288377587
-0.08970000000000011,-3.840941179133574
-0.09070000000000022,-3.840941179133574
-0.09170000000000011,-3.840941179133574
-0.09270000000000023,-3.840941179133574
-0.09370000000000012,-3.840941179133574
-0.09470000000000023,-3.840941179133574
-0.09570000000000012,-3.840941179133574
-0.09670000000000023,-3.840941179133574
-0.09770000000000012,-3.840941179133574
-0.09870000000000023,-3.840941179133574
-0.09970000000000012,-3.7970851288377587
-0.10070000000000023,-3.840941179133574
-0.10170000000000012,-3.840941179133574
-0.10270000000000024,-3.840941179133574
-0.10370000000000013,-3.7970851288377587
-0.10470000000000024,-3.840941179133574
-0.10570000000000013,-3.840941179133574
-0.10670000000000024,-3.840941179133574
-0.10770000000000013,-3.840941179133574
-0.10870000000000024,-3.840941179133574
-0.10970000000000013,-3.840941179133574
-0.11070000000000024,-3.840941179133574
-0.11170000000000013,-3.840941179133574
-0.11270000000000002,-3.840941179133574
-0.11370000000000013,-3.840941179133574
-0.11470000000000002,-3.840941179133574
-0.11570000000000014,-3.840941179133574
-0.11670000000000003,-3.884797229429391
-0.11770000000000014,-3.840941179133574
-0.11870000000000003,-3.840941179133574
-0.11970000000000014,-3.840941179133574
-0.12070000000000003,-3.884797229429391
-0.12170000000000014,-3.840941179133574
-0.12270000000000003,-3.884797229429391
-0.12370000000000014,-3.840941179133574
-0.12470000000000003,-3.884797229429391
-0.12570000000000014,-3.840941179133574
-0.12670000000000003,-3.884797229429391
-0.12770000000000015,-3.884797229429391
-0.12870000000000004,-3.884797229429391
-0.12970000000000015,-3.884797229429391
-0.13070000000000004,-3.884797229429391
-0.13170000000000015,-3.840941179133574
-0.13270000000000004,-3.840941179133574
-0.13370000000000015,-3.840941179133574
-0.13470000000000004,-3.884797229429391
-0.13570000000000015,-3.884797229429391
-0.13670000000000004,-3.884797229429391
-0.13770000000000016,-3.884797229429391
-0.13870000000000005,-3.884797229429391
-0.13970000000000016,-3.884797229429391
-0.14070000000000005,-3.884797229429391
-0.14170000000000016,-3.884797229429391
-0.14270000000000005,-3.884797229429391
-0.14370000000000016,-3.884797229429391
-0.14470000000000005,-3.884797229429391
-0.14570000000000016,-3.884797229429391
-0.14670000000000005,-3.884797229429391
-0.14770000000000016,-3.884797229429391
-0.14870000000000005,-3.884797229429391
-0.14970000000000017,-3.927238568425342
-0.15070000000000006,-3.927238568425342
-0.15170000000000017,-3.927238568425342
-0.15270000000000006,-3.927238568425342
-0.15370000000000017,-3.884797229429391
-0.15470000000000006,-3.927238568425342
-0.15570000000000017,-3.927238568425342
-0.15670000000000006,-3.927238568425342
-0.15770000000000017,-3.927238568425342
-0.15870000000000006,-3.927238568425342
-0.15970000000000018,-3.927238568425342
-0.16070000000000007,-3.927238568425342
-0.16170000000000018,-3.927238568425342
-0.16270000000000007,-3.927238568425342
-0.16370000000000018,-3.927238568425342
-0.16470000000000007,-3.971094618721158
-0.16570000000000018,-3.971094618721158
-0.16670000000000007,-3.971094618721158
-0.16770000000000018,-3.971094618721158
-0.16870000000000007,-3.971094618721158
-0.16970000000000018,-3.971094618721158
-0.17070000000000007,-3.971094618721158
-0.17170000000000019,-4.014950669016974
-0.17270000000000008,-3.971094618721158
-0.1737000000000002,-4.014950669016974
-0.17470000000000008,-3.971094618721158
-0.1757000000000002,-3.971094618721158
-0.17670000000000008,-4.014950669016974
-0.1777000000000002,-4.014950669016974
-0.17870000000000008,-4.014950669016974
-0.1797000000000002,-4.014950669016974
-0.18070000000000008,-4.014950669016974
-0.1817000000000002,-4.014950669016974
-0.18270000000000008,-4.014950669016974
-0.1837000000000002,-4.0588067193127895
-0.1847000000000001,-4.0588067193127895
-0.1857000000000002,-4.0588067193127895
-0.1867000000000001,-4.014950669016974
-0.1877000000000002,-4.0588067193127895
-0.1887000000000001,-4.0588067193127895
-0.1897000000000002,-4.0588067193127895
-0.1907000000000001,-4.0588067193127895
-0.1917000000000001,-4.102662769608606
-0.19269999999999998,-4.0588067193127895
-0.1937000000000001,-4.0588067193127895
-0.19469999999999998,-4.102662769608606
-0.1957000000000001,-4.102662769608606
-0.19669999999999999,-4.102662769608606
-0.1977000000000001,-4.102662769608606
-0.1987,-4.102662769608606
-0.1997000000000001,-4.146518819904423
-0.2007,-4.146518819904423
-0.2017000000000001,-4.146518819904423
-0.2027,-4.146518819904423
-0.2037000000000001,-4.146518819904423
-0.2047,-4.146518819904423
-0.2057000000000001,-4.146518819904423
-0.2067,-4.146518819904423
-0.2077000000000001,-4.1889601589003735
-0.2087,-4.1889601589003735
-0.2097000000000001,-4.1889601589003735
-0.2107,-4.23281620919619
-0.2117000000000001,-4.23281620919619
-0.2127,-4.23281620919619
-0.2137000000000001,-4.23281620919619
-0.2147,-4.276672259492005
-0.2157000000000001,-4.276672259492005
-0.2167,-4.276672259492005
-0.21770000000000012,-4.276672259492005
-0.2187,-4.276672259492005
-0.21970000000000012,-4.276672259492005
-0.2207,-4.23281620919619
-0.22170000000000012,-4.276672259492005
-0.2227,-4.3205283097878215
-0.22370000000000012,-4.3205283097878215
-0.2247,-4.3205283097878215
-0.22570000000000012,-4.364384360083638
-0.2267,-4.364384360083638
-0.22770000000000012,-4.364384360083638
-0.22870000000000001,-4.406825699079589
-0.22970000000000013,-4.406825699079589
-0.23070000000000002,-4.406825699079589
-0.23170000000000013,-4.406825699079589
-0.23270000000000002,-4.406825699079589
-0.23370000000000013,-4.450681749375406
-0.23470000000000002,-4.406825699079589
-0.23570000000000013,-4.406825699079589
-0.23670000000000002,-4.450681749375406
-0.2376999999999999,-4.450681749375406
-0.23870000000000002,-4.450681749375406
-0.2396999999999999,-4.494537799671222
-0.24070000000000003,-4.538393849967037
-0.24169999999999991,-4.538393849967037
-0.24270000000000003,-4.582249900262854
-0.24369999999999992,-4.538393849967037
-0.24470000000000003,-4.582249900262854
-0.24569999999999992,-4.626105950558669
-0.24670000000000003,-4.626105950558669
-0.24769999999999992,-4.626105950558669
-0.24870000000000003,-4.668547289554621
-0.24969999999999992,-4.626105950558669
-0.25070000000000003,-4.626105950558669
-0.2516999999999999,-4.668547289554621
-0.25270000000000004,-4.712403339850438
-0.2536999999999999,-4.712403339850438
-0.25470000000000004,-4.756259390146253
-0.2556999999999999,-4.756259390146253
-0.25670000000000004,-4.800115440442069
-0.25769999999999993,-4.800115440442069
-0.25870000000000004,-4.843971490737885
-0.25969999999999993,-4.843971490737885
-0.26070000000000004,-4.887827541033701
-0.26169999999999993,-4.887827541033701
-0.26270000000000004,-4.9302688800296535
-0.26369999999999993,-4.9302688800296535
-0.26470000000000005,-4.9302688800296535
-0.26569999999999994,-4.9302688800296535
-0.26670000000000005,-4.974124930325469
-0.26769999999999994,-5.017980980621284
-0.26870000000000005,-5.017980980621284
-0.26969999999999994,-5.0618370309171015
-0.27070000000000005,-5.0618370309171015
-0.27169999999999994,-5.149549131508733
-0.27270000000000005,-5.149549131508733
-0.27369999999999994,-5.149549131508733
-0.27470000000000006,-5.191990470504685
-0.27569999999999995,-5.235846520800501
-0.27670000000000006,-5.235846520800501
-0.27769999999999995,-5.235846520800501
-0.27870000000000006,-5.279702571096316
-0.27969999999999995,-5.279702571096316
-0.28070000000000006,-5.323558621392133
-0.28169999999999995,-5.367414671687949
-0.28270000000000006,-5.367414671687949
-0.28369999999999995,-5.411270721983764
-0.28470000000000006,-5.453712060979717
-0.28569999999999995,-5.497568111275533
-0.28670000000000007,-5.497568111275533
-0.28769999999999996,-5.5414241615713475
-0.28870000000000007,-5.585280211867165
-0.28969999999999996,-5.629136262162981
-0.29070000000000007,-5.629136262162981
-0.29169999999999996,-5.672992312458796
-0.29270000000000007,-5.715433651454749
-0.29369999999999996,-5.715433651454749
-0.2947000000000001,-5.80314575204638
-0.29569999999999996,-5.80314575204638
-0.2967000000000001,-5.847001802342197
-0.29769999999999996,-5.890857852638012
-0.2987000000000001,-5.890857852638012
-0.29969999999999997,-5.977155241929781
-0.3007000000000001,-6.021011292225596
-0.30169999999999997,-6.021011292225596
-0.3027000000000001,-6.108723392817228
-0.30369999999999997,-6.152579443113044
-0.3047000000000001,-6.152579443113044
-0.30569999999999997,-6.238876832404812
-0.3067000000000001,-6.282732882700628
-0.3077,-6.326588932996443
-0.3087000000000001,-6.37044498329226
-0.3097,-6.37044498329226
-0.3107000000000001,-6.414301033588076
-0.3117,-6.458157083883892
-0.3127000000000001,-6.500598422879844
-0.3137,-6.54445447317566
-0.3147000000000001,-6.632166573767292
-0.3157,-6.6760226240631075
-0.3167000000000001,-6.719878674358924
-0.3177,-6.762320013354876
-0.3187000000000001,-6.850032113946507
-0.3197,-6.93774421453814
-0.3207000000000001,-6.981600264833956
-0.3217,-7.024041603829907
-0.3227000000000001,-7.067897654125724
-0.3237,-7.111753704421539
-0.3247000000000001,-7.155609754717355
-0.3257,-7.199465805013171
-0.3267000000000001,-7.28576319430494
-0.3277,-7.329619244600755
-0.3287000000000001,-7.4173313451923875
-0.3297,-7.50504344578402
-0.3307000000000001,-7.5474847847799715
-0.3317,-7.635196885371603
-0.3327000000000001,-7.679052935667419
-0.3337,-7.722908985963235
-0.3347000000000001,-7.809206375255003
-0.3357,-7.896918475846635
-0.3367000000000001,-7.940774526142452
-0.3377,-8.027071915434218
-0.3387000000000001,-8.070927965730034
-0.3397,-8.11478401602585
-0.3407000000000001,-8.202496116617484
-0.3417,-8.246352166913299
-0.3427000000000001,-8.376505606500881
-0.3437,-8.4203616567967
-0.3447000000000001,-8.508073757388331
-0.3457,-8.594371146680096
-0.3467000000000001,-8.68208324727173
-0.3477,-8.725939297567548
-0.3487000000000001,-8.812236686859313
-0.3497,-8.899948787450944
-0.3507000000000001,-8.987660888042578
-0.3517,-9.073958277334345
-0.3527000000000001,-9.161670377925978
-0.3537,-9.24938247851761
-0.3547000000000001,-9.335679867809377
-0.3557,-9.379535918105192
-0.35670000000000013,-9.467248018696827
-0.3577,-9.55496011928846
-0.35870000000000013,-9.685113558876042
-0.3597,-9.772825659467674
-0.36070000000000013,-9.902979099055257
-0.3617,-9.99069119964689
-0.3626999999999999,-10.078403300238522
-0.3637,-10.164700689530287
-0.3646999999999999,-10.25241279012192
-0.3657,-10.382566229709504
-0.3666999999999999,-10.470278330301136
-0.3677,-10.557990430892769
-0.3686999999999999,-10.644287820184536
-0.36970000000000003,-10.775855971071984
-0.3706999999999999,-10.863568071663616
-0.37170000000000003,-10.993721511251199
-0.3726999999999999,-11.081433611842833
-0.37370000000000003,-11.1677310011346
-0.3746999999999999,-11.299299152022046
-0.37570000000000003,-11.385596541313816
-0.3766999999999999,-11.56102074249708
-0.37770000000000004,-11.647318131788847
-0.3786999999999999,-11.73503023238048
-0.37970000000000004,-11.909039722263879
-0.3806999999999999,-11.996751822855511
-0.38170000000000004,-12.12831997374296
-0.38269999999999993,-12.258473413330542
-0.38370000000000004,-12.390041564217992
-0.38469999999999993,-12.476338953509758
-0.38570000000000004,-12.56405105410139
-0.38669999999999993,-12.694204493688973
-0.38770000000000004,-12.825772644576423
-0.38869999999999993,-12.955926084164007
-0.38970000000000005,-13.087494235051453
-0.39069999999999994,-13.217647674639037
-0.39170000000000005,-13.349215825526485
-0.39269999999999994,-13.47936926511407
-0.39370000000000005,-13.610937416001518
-0.39469999999999994,-13.784946905884919
-0.39570000000000005,-13.960371107068182
-0.39669999999999994,-14.046668496359947
-0.39770000000000005,-14.217848563643619
-0.39869999999999994,-14.345172580631472
-0.39970000000000006,-14.444202371622024
-0.40069999999999995,-14.57152638860988
-0.40170000000000006,-14.69885040559773
-0.40269999999999995,-14.826174422585586
-0.40370000000000006,-14.967645552572087
-0.40469999999999995,-15.094969569559943
-0.40570000000000006,-15.264734925543747
-0.40669999999999995,-15.448647394526201
-0.40770000000000006,-15.575971411514052
-0.40869999999999995,-15.74573676749786
-0.40970000000000006,-15.91550212348166
-0.41069999999999995,-16.056973253468165
-0.41170000000000007,-16.22673860945197
-0.41269999999999996,-16.396503965435777
-0.41370000000000007,-16.53797509542228
-0.41469999999999996,-16.665299112410132
-0.41570000000000007,-16.792623129397985
-0.41669999999999996,-16.962388485381787
-0.41770000000000007,-17.103859615368293
-0.41869999999999996,-17.2736249713521
-0.4197000000000001,-17.4433903273359
-0.42069999999999996,-17.627302796318357
-0.4217000000000001,-17.797068152302163
-0.42269999999999996,-17.966833508285966
-0.4237000000000001,-18.10830463827247
-0.42469999999999997,-18.320511333252224
-0.4257000000000001,-18.49027668923603
-0.42669999999999997,-18.674189158218486
-0.4277000000000001,-18.843954514202288
-0.42869999999999997,-19.056161209182044
-0.4297000000000001,-19.197632339168546
-0.43069999999999997,-19.367397695152352
-0.4317000000000001,-19.537163051136158
-0.4327,-19.721075520118614
-0.4337000000000001,-19.890840876102416
-0.4347,-20.06060623208622
-0.4357000000000001,-20.244518701068674
-0.4367,-20.456725396048434
-0.4377000000000001,-20.626490752032236
-0.4387,-20.85284456001064
-0.4397000000000001,-21.022609915994444
-0.4407,-21.248963723972853
-0.4417000000000001,-21.418729079956652
-0.4427,-21.63093577493641
-0.4437000000000001,-21.857289582914817
-0.4447,-22.069496277894572
-0.4457000000000001,-22.253408746877028
-0.4467,-22.46561544185678
-0.4477000000000001,-22.67782213683654
-0.4487,-22.861734605818995
-0.4497000000000001,-23.073941300798747
-0.4507,-23.300295108777156
-0.4517000000000001,-23.51250180375691
-0.4527,-23.682267159740714
-0.4537000000000001,-23.908620967719123
-0.4547,-24.120827662698876
-0.4557000000000001,-24.34718147067728
-0.4567,-24.559388165657033
-0.4577000000000001,-24.771594860636792
-0.4587,-25.04039000761115
-0.4597000000000001,-25.252596702590903
-0.4607,-25.43650917157336
-0.4617000000000001,-25.691157205549064
-0.4627,-25.959952352523427
-0.4637000000000001,-26.17215904750318
-0.4647,-26.38436574248293
-0.4657000000000001,-26.61071955046134
-0.4667,-26.86536758443705
-0.4677000000000001,-27.091721392415455
-0.4687,-27.303928087395207
-0.4697000000000001,-27.572723234369565
-0.4707,-27.78492992934932
-0.4717000000000001,-28.011283737327723
-0.4727,-28.265931771303435
-0.4737000000000001,-28.478138466283188
-0.4747,-28.746933613257543
-0.4757000000000001,-28.959140308237306
-0.4767,-29.22793545521166
-0.4777000000000001,-29.482583489187363
-0.4787,-29.751378636161718
-0.4797000000000001,-30.00602667013743
-0.4807,-30.274821817111786
-0.48170000000000013,-30.529469851087494
-0.4827,-30.7558236590659
-0.48370000000000013,-31.010471693041605
-0.4847,-31.321708179011907
-0.48570000000000013,-31.533914873991666
-0.4867,-31.802710020966025
-0.4876999999999999,-32.05735805494172
-0.4887,-32.32615320191609
-0.4896999999999999,-32.58080123589179
-0.4907,-32.84959638286615
-0.4916999999999999,-33.14668575583781
-0.4927,-33.41548090281216
-0.4936999999999999,-33.712570275783825
-0.49470000000000003,-34.02380676175414
-0.4956999999999999,-34.33504324772444
-0.49670000000000003,-34.58969128170015
-0.4976999999999999,-34.85848642867451
-0.49870000000000003,-35.15557580164616
-0.4996999999999999,-35.46681228761647
-0.5007,-35.721460321592176
-0.5016999999999999,-35.99025546856653
-0.5027,-36.244903502542236
-0.5036999999999999,-36.55613998851254
-0.5047,-36.81078802248826
-0.5056999999999999,-37.122024508458566
-0.5067,-37.41911388143023
-0.5076999999999999,-37.77279170639648
-0.5087,-38.04158685337084
