Potential V vs RHE, Current mA cm-2
0.013299999999999867,2.8322520223298033
0.012299999999999978,1.5250587812545096
0.011299999999999866,0.3903188476327636
0.010299999999999976,-0.6564260431373771
0.009299999999999864,-1.5717442541500557
0.008299999999999974,-2.4446211261667834
0.007299999999999862,-3.2297858975918787
0.006299999999999972,-3.927238568425342
0.00529999999999986,-4.538393849967037
0.0042999999999999705,-5.191990470504685
0.0032999999999998586,-5.759289701750564
0.0022999999999999687,-6.326588932996443
0.0012999999999998568,-6.893888164242324
0.00029999999999996696,-7.4173313451923875
-0.000700000000000145,-7.940774526142452
-0.0017000000000000348,-8.376505606500881
-0.0027000000000001467,-8.769795347863363
-0.0037000000000000366,-9.161670377925978
-0.0047000000000001485,-9.511104068992642
-0.005700000000000038,-9.902979099055257
-0.00670000000000015,-10.296268840417738
-0.00770000000000004,-10.644287820184536
-0.008700000000000152,-10.993721511251199
-0.009700000000000042,-11.299299152022046
-0.010700000000000154,-11.604876792792895
-0.011700000000000044,-11.778886282676295
-0.012700000000000156,-11.996751822855511
-0.013700000000000045,-12.214617363034726
-0.014700000000000157,-12.432482903213943
-0.015700000000000047,-12.651763154693022
-0.01670000000000016,-12.869628694872238
-0.01770000000000005,-13.087494235051453
-0.01870000000000016,-13.30535977523067
-0.01970000000000005,-13.436927926118118
-0.020700000000000163,-13.523225315409885
-0.021700000000000053,-13.610937416001518
-0.022700000000000164,-13.784946905884919
-0.023700000000000054,-13.916515056772363
-0.024700000000000166,-14.090524546655764
-0.025700000000000056,-14.217848563643619
-0.026700000000000168,-14.401761032626075
-0.027700000000000058,-14.57152638860988
-0.02870000000000017,-14.69885040559773
-0.02970000000000006,-14.868615761581536
-0.03070000000000017,-15.137410908555893
-0.03170000000000006,-15.349617603535648
-0.03270000000000017,-15.618412750510005
-0.03370000000000006,-15.78817810649381
-0.034700000000000175,-16.014531914472215
-0.035700000000000065,-16.22673860945197
-0.03670000000000018,-16.354062626439823
-0.03770000000000007,-16.438945304431726
-0.03870000000000018,-16.580416434418233
-0.03970000000000007,-16.750181790402035
-0.04070000000000018,-16.877505807389888
-0.04170000000000007,-17.018976937376394
-0.04270000000000018,-17.146300954364243
-0.04370000000000007,-17.231183632356142
-0.044700000000000184,-17.2736249713521
-0.045700000000000074,-17.358507649344002
-0.046700000000000186,-17.4433903273359
-0.047700000000000076,-17.48583166633185
-0.04870000000000019,-17.627302796318357
-0.04970000000000008,-17.71218547431026
-0.05070000000000019,-17.797068152302163
-0.05170000000000008,-17.881950830294063
-0.05270000000000019,-17.881950830294063
-0.05370000000000008,-17.924392169290012
-0.05470000000000019,-18.009274847281915
-0.05570000000000008,-18.10830463827247
-0.056700000000000195,-18.23562865526032
-0.057700000000000085,-18.320511333252224
-0.058700000000000196,-18.49027668923603
-0.059700000000000086,-18.631747819222536
-0.0607000000000002,-18.759071836210385
-0.06170000000000009,-18.88639585319824
-0.0627000000000002,-18.97127853119014
-0.06370000000000009,-19.112749661176647
-0.0647000000000002,-19.28251501716045
-0.06570000000000009,-19.452280373144255
-0.0667000000000002,-19.678634181122664
-0.0677000000000001,-19.805958198110513
-0.0687000000000002,-19.890840876102416
-0.0697000000000001,-19.97572355409432
-0.07070000000000021,-20.06060623208622
-0.0717000000000001,-20.159636023076775
-0.07270000000000021,-20.244518701068674
-0.0737000000000001,-20.371842718056527
-0.07470000000000021,-20.456725396048434
-0.0757000000000001,-20.541608074040333
-0.07670000000000021,-20.626490752032236
-0.0777000000000001,-20.72552054302279
-0.07870000000000021,-20.810403221014692
-0.0797000000000001,-20.89528589900659
-0.08070000000000022,-21.065051254990397
-0.0817000000000001,-21.248963723972853
-0.08270000000000022,-21.461170418952605
-0.08370000000000011,-21.58849443594046
-0.08470000000000022,-21.729965565926964
-0.08570000000000011,-21.857289582914817
-0.08670000000000022,-21.94217226090672
-0.08770000000000011,-21.98461359990267
-0.08870000000000022,-22.069496277894572
-0.08970000000000011,-22.196820294882425
-0.09070000000000022,-22.33829142486893
-0.09170000000000011,-22.46561544185678
-0.09270000000000023,-22.63538079784059
-0.09370000000000012,-22.72026347583249
-0.09470000000000023,-22.861734605818995
-0.09570000000000012,-22.989058622806844
-0.09670000000000023,-23.15882397879065
-0.09770000000000012,-23.342736447773106
-0.09870000000000023,-23.55494314275286
-0.09970000000000012,-23.767149837732617
-0.10070000000000023,-24.035944984706973
-0.10170000000000012,-24.24815167968673
-0.10270000000000024,-24.474505487665134
-0.10370000000000013,-24.729153521640843
-0.10470000000000024,-24.9130659906233
-0.10570000000000013,-25.0828313466071
-0.10670000000000024,-25.252596702590903
-0.10770000000000013,-25.43650917157336
-0.10870000000000024,-25.521391849565262
-0.10970000000000013,-25.648715866553115
-0.11070000000000024,-25.77603988354097
-0.11170000000000013,-25.91751101352747
-0.11270000000000002,-26.044835030515326
-0.11370000000000013,-26.129717708507226
-0.11470000000000002,-26.257041725495082
-0.11570000000000014,-26.440954194477534
-0.11670000000000003,-26.61071955046134
-0.11770000000000014,-26.780484906445146
-0.11870000000000003,-26.86536758443705
-0.11970000000000014,-27.00683871442355
-0.12070000000000003,-27.176604070407354
-0.12170000000000014,-27.38881076538711
-0.12270000000000003,-27.615164573365515
-0.12370000000000014,-27.869812607341224
-0.12470000000000003,-28.18104909331153
-0.12570000000000014,-28.478138466283188
-0.12670000000000003,-28.704492274261593
-0.12770000000000015,-28.8742576302454
-0.12870000000000004,-29.058170099227848
-0.12970000000000015,-29.31281813320356
-0.13070000000000004,-29.62405461917387
-0.13170000000000015,-29.96358533114148
-0.13270000000000004,-30.317263156107735
-0.13370000000000015,-30.670940981073993
-0.13470000000000004,-30.925589015049702
-0.13570000000000015,-31.095354371033505
-0.13670000000000004,-31.36414951800786
-0.13770000000000016,-31.618797551983565
-0.13870000000000005,-31.533914873991666
-0.13970000000000016,-31.717827342974125
-0.14070000000000005,-31.887592698957924
-0.14170000000000016,-32.05735805494172
-0.14270000000000005,-32.184682071929586
-0.14370000000000016,-32.283711862920136
-0.14470000000000005,-32.45347721890394
-0.14570000000000016,-32.62324257488775
-0.14670000000000005,-32.764713704874254
-0.14770000000000016,-32.93447906085806
-0.14870000000000005,-33.14668575583781
-0.14970000000000017,-33.373039563816214
-0.15070000000000006,-33.58524625879597
-0.15170000000000017,-33.712570275783825
-0.15270000000000006,-33.89648274476628
-0.15370000000000017,-34.10868943974604
-0.15470000000000006,-34.33504324772444
-0.15570000000000017,-34.41992592571634
-0.15670000000000006,-34.58969128170015
-0.15770000000000017,-34.8018979766799
-0.15870000000000006,-35.07069312365426
-0.15970000000000018,-35.282899818634014
-0.16070000000000007,-35.55169496560837
-0.16170000000000018,-35.763901660588125
-0.16270000000000007,-36.07513814655844
-0.16370000000000018,-36.329786180534136
-0.16470000000000007,-36.64102266650445
-0.16570000000000018,-37.122024508458566
-0.16670000000000007,-37.51814367242077
-0.16770000000000018,-37.85767438438838
-0.16870000000000007,-38.12646953136274
-0.16970000000000018,-38.42355890433439
-0.17070000000000007,-38.6499127123128
-0.17170000000000019,-38.81967806829661
-0.17270000000000008,-38.94700208528445
-0.1737000000000002,-39.173355893262865
-0.17470000000000008,-39.34312124924667
-0.1757000000000002,-39.42800392723857
-0.17670000000000008,-39.56947505722508
-0.1777000000000002,-39.696799074212926
-0.17870000000000008,-39.86656443019674
-0.1797000000000002,-39.95144710818864
-0.18070000000000008,-40.03632978618054
-0.1817000000000002,-40.177800916167044
-0.18270000000000008,-40.3900076111468
-0.1837000000000002,-40.51733162813464
-0.1847000000000001,-40.65880275812115
-0.1857000000000002,-40.828568114104954
-0.1867000000000001,-40.99833347008877
-0.1877000000000002,-41.30956995605907
-0.1887000000000001,-41.56421799003478
-0.1897000000000002,-41.87545447600508
-0.1907000000000001,-42.130102509980794
-0.1917000000000001,-42.39889765695515
-0.19269999999999998,-42.752575481921404
-0.1937000000000001,-43.09210619388902
-0.19469999999999998,-43.23357732387552
-0.1957000000000001,-43.57310803584313
-0.19669999999999999,-43.96922719980534
-0.1977000000000001,-44.28046368577565
-0.1987,-44.66243573673921
-0.1997000000000001,-45.143437578693316
-0.2007,-45.53955674265553
-0.2017000000000001,-45.85079322862584
-0.2027,-46.062999923605595
-0.2037000000000001,-46.27520661858535
-0.2047,-46.501560426563756
-0.2057000000000001,-46.67132578254756
-0.2067,-46.84109113853137
-0.2077000000000001,-47.067444946509774
-0.2087,-47.23721030249357
-0.2097000000000001,-47.40697565847737
-0.2107,-47.54844678846388
-0.2117000000000001,-47.71821214444768
-0.2127,-47.8879775004315
-0.2137000000000001,-48.071889969413945
-0.2147,-48.2840966643937
-0.2157000000000001,-48.63777448935996
-0.2167,-48.97730520132757
-0.21770000000000012,-49.373424365289786
-0.2187,-49.68466085126009
-0.21970000000000012,-50.1656626932142
-0.2207,-50.50519340518181
-0.22170000000000012,-50.85887123014807
-0.2227,-51.29743173310623
-0.22370000000000012,-51.65110955807249
-0.2247,-51.990640270040096
-0.22570000000000012,-52.30187675601041
-0.2267,-52.64140746797801
-0.22770000000000012,-52.995085292944275
-0.22870000000000001,-53.348763117910536
-0.22970000000000013,-53.64585249088219
-0.23070000000000002,-53.9570889768525
-0.23170000000000013,-54.31076680181876
-0.23270000000000002,-54.791768643772876
-0.23370000000000013,-55.13129935574048
-0.23470000000000002,-55.484977180706736
-0.23570000000000013,-55.838655005673
-0.23670000000000002,-56.13574437864466
-0.2376999999999999,-56.53186354260687
-0.23870000000000002,-56.97042404556503
-0.2396999999999999,-57.352396096528594
-0.24070000000000003,-57.66363258249889
-0.24169999999999991,-58.10219308545706
-0.24270000000000003,-58.45587091042332
-0.24369999999999992,-58.75296028339497
-0.24470000000000003,-59.06419676936528
-0.24569999999999992,-59.403727481332886
-0.24670000000000003,-59.7149639673032
-0.24769999999999992,-60.23840714825326
-0.24870000000000003,-60.63452631221547
-0.24969999999999992,-60.974057024183075
-0.25070000000000003,-61.327734849149344
-0.2516999999999999,-61.63897133511965
-0.25270000000000004,-61.89361936909536
-0.2536999999999999,-62.20485585506566
-0.25470000000000004,-62.544386567033264
-0.2556999999999999,-63.06782974798333
-0.25670000000000004,-63.46394891194555
-0.25769999999999993,-63.860068075907755
-0.25870000000000004,-64.15715744887942
-0.25969999999999993,-64.51083527384567
-0.26070000000000004,-64.86451309881193
-0.26169999999999993,-65.16160247178358
-0.26270000000000004,-65.51528029674984
-0.26369999999999993,-65.86895812171612
-0.26470000000000005,-66.29337151167562
-0.26569999999999994,-66.77437335362974
-0.26670000000000005,-67.25537519558385
-0.26769999999999994,-67.6090530205501
-0.26870000000000005,-68.21737887949207
-0.26969999999999994,-68.78326339943808
-0.27070000000000005,-69.39158925838004
-0.27169999999999994,-70.01406223032066
-0.27270000000000005,-70.57994675026669
-0.27369999999999994,-71.18827260920865
-0.27470000000000006,-71.7965984681506
-0.27569999999999995,-72.40492432709259
-0.27670000000000006,-73.09813286402644
-0.27769999999999995,-73.93281253094682
-0.27870000000000006,-74.54113838988879
-0.27969999999999995,-74.72505085887124
-0.28070000000000006,-75.02214023184291
-0.28169999999999995,-75.37581805680915
-0.28270000000000006,-72.67371947406694
-0.28369999999999995,-69.4906190493706
-0.28470000000000006,-68.0051721845123
-0.28569999999999995,-62.72829903601572
-0.28670000000000007,-57.70607392149485
-0.28769999999999996,-50.85887123014807
-0.28870000000000007,-45.79420477663124
-0.28969999999999996,-42.653545690930855
-0.29070000000000007,-40.616361419125205
-0.29169999999999996,-39.34312124924667
-0.29270000000000007,-40.177800916167044
-0.29369999999999996,-47.71821214444768
-0.2947000000000001,-54.56541483579447
-0.29569999999999996,-52.55652478998611
-0.2967000000000001,-52.17455273902255
-0.29769999999999996,-49.33098302629383
-0.2987000000000001,-45.497115403659585
-0.29969999999999997,-42.653545690930855
-0.3007000000000001,-39.86656443019674
-0.30169999999999997,-38.253793548350586
-0.3027000000000001,-37.51814367242077
-0.30369999999999997,-36.64102266650445
-0.3047000000000001,-35.90537279057463
-0.30569999999999997,-35.763901660588125
-0.3067000000000001,-35.679018982596226
-0.3077,-35.42437094862052
-0.3087000000000001,-35.90537279057463
-0.3097,-35.721460321592176
-0.3107000000000001,-35.07069312365426
-0.3117,-34.67457395969205
-0.3127000000000001,-34.90092776767045
-0.3137,-35.38192960962457
-0.3147000000000001,-35.38192960962457
-0.3157,-34.94336910666641
-0.3167000000000001,-34.67457395969205
-0.3177,-34.98581044566235
-0.3187000000000001,-35.198017140642115
-0.3197,-37.334231203438314
-0.3207000000000001,-39.42800392723857
-0.3217,-39.739240413208876
-0.3227000000000001,-38.81967806829661
-0.3237,-39.173355893262865
-0.3247000000000001,-38.46600024333035
-0.3257,-37.90011572338433
-0.3267000000000001,-37.122024508458566
-0.3277,-35.806342999584075
-0.3287000000000001,-35.848784338580025
-0.3297,-36.329786180534136
-0.3307000000000001,-35.42437094862052
-0.3317,-36.64102266650445
-0.3327000000000001,-36.95225915247476
-0.3337,-35.94781412957058
-0.3347000000000001,-34.50480860370825
-0.3357,-33.45792224180811
-0.3367000000000001,-32.58080123589179
-0.3377,-31.449032195999767
-0.3387000000000001,-30.232380478115836
-0.3397,-29.35525947219951
-0.3407000000000001,-28.789374952253496
-0.3417,-28.577168257273744
-0.3427000000000001,-29.058170099227848
-0.3437,-30.7558236590659
-0.3447000000000001,-30.529469851087494
-0.3457,-29.921143992145527
-0.3467000000000001,-29.581613280177915
-0.3477,-28.8742576302454
-0.3487000000000001,-29.62405461917387
-0.3497,-28.05372507632368
-0.3507000000000001,-27.176604070407354
-0.3517,-28.13860775431558
-0.3527000000000001,-27.65760591236147
-0.3537,-27.700047251357418
-0.3547000000000001,-27.572723234369565
-0.3557,-27.00683871442355
-0.35670000000000013,-26.087276369511276
-0.3577,-25.39406783257741
-0.35870000000000013,-25.0828313466071
-0.3597,-24.814036199632742
-0.36070000000000013,-24.601829504652986
-0.3617,-24.516946826661083
-0.3626999999999999,-24.729153521640843
-0.3637,-25.04039000761115
-0.3646999999999999,-25.60627452755716
-0.3657,-26.044835030515326
-0.3666999999999999,-26.257041725495082
-0.3677,-26.17215904750318
-0.3686999999999999,-26.907808923433
-0.36970000000000003,-28.011283737327723
-0.3706999999999999,-27.572723234369565
-0.37170000000000003,-26.69560222845324
-0.3726999999999999,-25.959952352523427
-0.37370000000000003,-25.337479380582806
-0.3746999999999999,-25.04039000761115
-0.37570000000000003,-24.814036199632742
-0.3766999999999999,-24.516946826661083
-0.37770000000000004,-24.16326900169483
-0.3786999999999999,-23.908620967719123
-0.37970000000000004,-23.724708498736668
-0.3806999999999999,-23.47006046476096
-0.38170000000000004,-23.24370665678255
-0.38269999999999993,-23.300295108777156
-0.38370000000000004,-23.15882397879065
-0.38469999999999993,-23.1163826397947
-0.38570000000000004,-23.597384481748815
-0.38669999999999993,-24.64427084364894
-0.38770000000000004,-24.559388165657033
-0.38869999999999993,-24.432064148669184
-0.38970000000000005,-24.601829504652986
-0.39069999999999994,-25.77603988354097
-0.39170000000000005,-27.38881076538711
-0.39269999999999994,-27.869812607341224
-0.39370000000000005,-28.09616641531963
-0.39469999999999994,-28.704492274261593
-0.39570000000000005,-30.147497800123933
-0.39669999999999994,-31.533914873991666
-0.39770000000000005,-31.321708179011907
-0.39869999999999994,-30.444587173095588
-0.39970000000000006,-29.708937297165768
-0.40069999999999995,-29.878702653149578
-0.40170000000000006,-33.98136542275818
-0.40269999999999995,-40.87100945310091
-0.40370000000000006,-39.51288660523048
-0.40469999999999995,-54.961533999756675
-0.40570000000000006,-44.36534636376755
-0.40669999999999995,-35.50925362661242
-0.40770000000000006,-42.04521983198889
-0.40869999999999995,-35.806342999584075
-0.40970000000000006,-30.444587173095588
-0.41069999999999995,-29.27037679420761
-0.41170000000000007,-29.751378636161718
-0.41269999999999996,-35.07069312365426
-0.41370000000000007,-58.05975174646111
-0.41469999999999996,-48.59533315036401
-0.41570000000000007,-39.21579723225882
-0.41669999999999996,-33.712570275783825
-0.41770000000000007,-30.925589015049702
-0.41869999999999996,-29.39770081119546
-0.4197000000000001,-28.478138466283188
-0.42069999999999996,-28.011283737327723
-0.4217000000000001,-27.487840556377662
-0.42269999999999996,-26.9643973754276
-0.4237000000000001,-26.65316088945729
-0.42469999999999997,-26.29948306449103
-0.4257000000000001,-25.86092256153287
-0.42669999999999997,-25.478950510569312
-0.4277000000000001,-25.167714024599
-0.42869999999999997,-24.9130659906233
-0.4297000000000001,-24.64427084364894
-0.43069999999999997,-24.474505487665134
-0.4317000000000001,-24.34718147067728
-0.4327,-24.078386323702922
-0.4337000000000001,-23.908620967719123
-0.4347,-23.597384481748815
-0.4357000000000001,-23.427619125765005
-0.4367,-23.427619125765005
-0.4377000000000001,-23.55494314275286
-0.4387,-23.724708498736668
-0.4397000000000001,-23.639825820744765
-0.4407,-23.639825820744765
-0.4417000000000001,-23.51250180375691
-0.4427,-23.51250180375691
-0.4437000000000001,-23.993503645711023
-0.4447,-24.24815167968673
-0.4457000000000001,-24.16326900169483
-0.4467,-24.24815167968673
-0.4477000000000001,-24.432064148669184
-0.4487,-24.771594860636792
-0.4497000000000001,-26.61071955046134
-0.4507,-28.011283737327723
-0.4517000000000001,-27.742488590353368
-0.4527,-27.827371268345274
-0.4537000000000001,-27.742488590353368
-0.4547,-27.487840556377662
-0.4557000000000001,-27.530281895373616
-0.4567,-29.100611438223805
-0.4577000000000001,-30.317263156107735
-0.4587,-30.274821817111786
-0.4597000000000001,-30.04846800913338
-0.4607,-30.529469851087494
-0.4617000000000001,-30.10505646112798
-0.4627,-29.100611438223805
-0.4637000000000001,-28.09616641531963
-0.4647,-27.303928087395207
-0.4657000000000001,-27.530281895373616
-0.4667,-27.78492992934932
-0.4677000000000001,-27.134162731411404
-0.4687,-26.129717708507226
-0.4697000000000001,-25.252596702590903
-0.4707,-24.035944984706973
-0.4717000000000001,-23.2012653177866
-0.4727,-22.67782213683654
-0.4737000000000001,-22.15437895588647
-0.4747,-21.729965565926964
-0.4757000000000001,-21.418729079956652
-0.4767,-21.2065223849769
-0.4777000000000001,-21.065051254990397
-0.4787,-20.85284456001064
-0.4797000000000001,-20.980168576998494
-0.4807,-20.72552054302279
-0.48170000000000013,-20.10304757108217
-0.4827,-19.93328221509837
-0.48370000000000013,-19.805958198110513
-0.4847,-19.763516859114564
-0.48570000000000013,-19.721075520118614
-0.4867,-19.636192842126707
-0.48570000000000013,-19.636192842126707
-0.4847,-19.579604390132108
-0.48370000000000013,-19.537163051136158
-0.4827,-19.452280373144255
-0.48170000000000013,-19.452280373144255
-0.4807,-19.452280373144255
-0.4797000000000001,-19.409839034148305
-0.4787,-19.3249563561564
-0.4777000000000001,-19.28251501716045
-0.4767,-19.155191000172596
-0.4757000000000001,-19.01371987018609
-0.4747,-18.88639585319824
-0.4737000000000001,-18.716630497214435
-0.4727,-18.631747819222536
-0.4717000000000001,-18.53271802823198
-0.4707,-18.49027668923603
-0.4697000000000001,-18.49027668923603
-0.4687,-18.53271802823198
-0.4677000000000001,-18.589306480226583
-0.4667,-18.716630497214435
-0.4657000000000001,-18.88639585319824
-0.4647,-19.01371987018609
