Potential V vs RHE, Current mA cm-2
0.013299999999999867,1.9650339955125358
0.012299999999999978,0.981951113236322
0.011299999999999866,0.39951447108188637
0.010299999999999976,-0.09655404621578875
0.009299999999999864,-0.43728726278828284
0.008299999999999974,-0.7430063746891172
0.007299999999999862,-1.0171774246029612
0.006299999999999972,-1.2160858333639855
0.00529999999999986,-1.4670556179600431
0.0042999999999999705,-1.6368209739438475
0.0032999999999998586,-1.7980980621284617
0.0022999999999999687,-1.959375150313076
0.0012999999999998568,-2.0782108995017388
0.00029999999999996696,-2.2649527910839233
-0.000700000000000145,-2.385203251572452
-0.0017000000000000348,-2.4743300634639493
-0.0027000000000001467,-2.597409946552207
-0.0037000000000000366,-2.6723896454450546
-0.0047000000000001485,-2.8322520223298033
-0.005700000000000038,-2.9058170099227856
-0.00670000000000015,-2.999187955713878
-0.00770000000000004,-3.0982177467044303
-0.008700000000000152,-3.129341395301461
-0.009700000000000042,-3.2481771444901244
-0.010700000000000154,-3.316083286883646
-0.011700000000000044,-3.4193572117737934
-0.012700000000000156,-3.505654601065561
-0.013700000000000045,-3.508484023665291
-0.014700000000000157,-3.6188315050547635
-0.015700000000000047,-3.6655169779503103
-0.01670000000000016,-3.7192760073451816
-0.01770000000000005,-3.795670417537894
-0.01870000000000016,-3.825379354835059
-0.01970000000000005,-3.8904560746288515
-0.020700000000000163,-3.8947002085284463
-0.021700000000000053,-3.956947505722508
-0.022700000000000164,-4.075783254911171
-0.023700000000000054,-4.111151037407797
-0.024700000000000166,-4.1762277572015885
-0.025700000000000056,-4.173398334601859
-0.026700000000000168,-4.197448426699564
-0.027700000000000058,-4.254036878694166
-0.02870000000000017,-4.278086970791871
-0.02970000000000006,-4.361554937483908
-0.03070000000000017,-4.371457916582963
-0.03170000000000006,-4.426631657277699
-0.03270000000000017,-4.503026067470412
-0.03370000000000006,-4.515758469169198
-0.034700000000000175,-4.569517498564068
-0.035700000000000065,-4.580835188962989
-0.03670000000000018,-4.627520661858535
-0.03770000000000007,-4.66288844435516
-0.03870000000000018,-4.681279691253407
-0.03970000000000007,-4.768991791845038
-0.04070000000000018,-4.77748005964423
-0.04170000000000007,-4.819921398640179
-0.04270000000000018,-4.842556779438021
-0.04370000000000007,-4.835483222938696
-0.044700000000000184,-4.909048210531677
-0.045700000000000074,-4.921780612230462
-0.046700000000000186,-4.979783775524929
-0.047700000000000076,-5.026469248420476
-0.04870000000000019,-5.017980980621284
-0.04970000000000008,-5.102863658613187
-0.05070000000000019,-5.128328462010757
-0.05170000000000008,-5.180672780105764
-0.05270000000000019,-5.216040562602391
-0.05370000000000008,-5.217455273902255
-0.05470000000000019,-5.324973332691998
-0.05570000000000008,-5.313655642293078
-0.056700000000000195,-5.3504381360895685
-0.057700000000000085,-5.37873236208687
-0.058700000000000196,-5.3815617846866
-0.059700000000000086,-5.453712060979717
-0.0607000000000002,-5.5003975338752635
-0.06170000000000009,-5.548497718070673
-0.0627000000000002,-5.57820665536784
-0.06370000000000009,-5.568303676268785
-0.0647000000000002,-5.660259910760012
-0.06570000000000009,-5.7111895175551535
-0.0667000000000002,-5.78051037124854
-0.0677000000000001,-5.832854689343546
-0.0687000000000002,-5.798901618146785
-0.0697000000000001,-5.8356841119432765
-0.07070000000000021,-5.851245936241792
-0.0717000000000001,-5.929055057734368
-0.07270000000000021,-6.066282053821277
-0.0737000000000001,-6.1044792589176335
-0.07470000000000021,-6.098820413718173
-0.0757000000000001,-6.009693601826676
-0.07670000000000021,-6.025255426125191
-0.0777000000000001,-6.1766295352107505
-0.07870000000000021,-6.294050573099549
-0.0797000000000001,-6.452498238684432
-0.08070000000000022,-6.429862857886591
-0.0817000000000001,-6.398739209289561
-0.08270000000000022,-6.393080364090101
-0.08370000000000011,-6.466645351683083
-0.08470000000000022,-6.578407544372421
-0.08570000000000011,-6.605287059069856
-0.08670000000000022,-6.6689490675637835
-0.08770000000000011,-6.711390406559734
-0.08870000000000022,-6.780711260253121
-0.08970000000000011,-6.835885000947857
-0.09070000000000022,-6.74958761165609
-0.09170000000000011,-6.862764515645292
-0.09270000000000023,-7.033944582928963
-0.09370000000000012,-7.083459478424238
-0.09470000000000023,-7.147121486918166
-0.09570000000000012,-7.082044767124374
-0.09670000000000023,-7.1414626417187055
-0.09770000000000012,-7.287177905604803
-0.09870000000000023,-7.366401738397246
-0.09970000000000012,-7.390451830494952
-0.10070000000000023,-7.35932818189792
-0.10170000000000012,-7.36781644969711
-0.10270000000000024,-7.50504344578402
-0.10370000000000013,-7.585681989876327
-0.10470000000000024,-7.70734716166472
-0.10570000000000013,-7.755447345860131
-0.10670000000000024,-7.7908151283567575
-0.10770000000000013,-7.92096856794434
-0.10870000000000024,-8.010095379835839
-0.10970000000000013,-8.046877873632328
-0.11070000000000024,-8.038389605833139
-0.11170000000000013,-8.117613438625579
-0.11270000000000002,-8.195422560118157
-0.11370000000000013,-8.147322375922746
-0.11470000000000002,-8.277475815510329
-0.11570000000000014,-8.31991715450628
-0.11670000000000003,-8.444411748894403
-0.11770000000000014,-8.509488468688197
-0.11870000000000003,-8.475535397491434
-0.11970000000000014,-8.543441539884956
-0.12070000000000003,-8.547685673784551
-0.12170000000000014,-8.669350845572946
-0.12270000000000003,-8.772624770463093
-0.12370000000000014,-8.861751582354591
-0.12470000000000003,-9.024443381839069
-0.12570000000000014,-9.04707876263691
-0.12670000000000003,-9.065470009535154
-0.12770000000000015,-9.100837792031781
-0.12870000000000004,-9.151767398826921
-0.12970000000000015,-9.345582846908432
-0.13070000000000004,-9.470077441296555
-0.13170000000000015,-9.553545407988592
-0.13270000000000004,-9.610133859983193
-0.13370000000000015,-9.506859935093045
-0.13470000000000004,-9.528080604591022
-0.13570000000000015,-9.53656887239021
-0.13670000000000004,-9.769996236867943
-0.13770000000000016,-10.03313253864284
-0.13870000000000005,-10.140650597432582
-0.13970000000000016,-10.222703852824754
-0.14070000000000005,-10.140650597432582
-0.14170000000000016,-10.163285978230423
-0.14270000000000005,-10.307586530816659
-0.14370000000000016,-10.45471650600262
-0.14470000000000005,-10.709364539978326
-0.14570000000000016,-10.773026548472256
-0.14670000000000005,-10.771611837172388
-0.14770000000000016,-10.826785577867126
-0.14870000000000005,-10.873471050762673
-0.14970000000000017,-11.139436775137298
-0.15070000000000006,-11.280907905123803
-0.15170000000000017,-11.382767118714085
-0.15270000000000006,-11.418134901210712
-0.15370000000000017,-11.399743654312466
-0.15470000000000006,-11.527067671300317
-0.15570000000000017,-11.654391688288172
-0.15670000000000006,-11.860939538068468
-0.15770000000000017,-12.012313647154027
-0.15870000000000006,-12.118416994643903
-0.15970000000000018,-12.182079003137831
-0.16070000000000007,-12.227349764733512
-0.16170000000000018,-12.35042964782177
-0.16270000000000007,-12.497559623007733
-0.16370000000000018,-12.633371907794778
-0.16470000000000007,-12.892264075670079
-0.16570000000000018,-13.026661649157258
-0.16670000000000007,-13.13135028534727
-0.16770000000000018,-13.272821415333775
-0.16870000000000007,-13.312433331729995
-0.16970000000000018,-13.503419357211776
-0.17070000000000007,-13.558593097906511
-0.17170000000000019,-13.683087692294635
-0.17270000000000008,-13.823144110981273
-0.1737000000000002,-13.9759329313667
-0.17470000000000008,-14.203701450644967
-0.1757000000000002,-14.359319693630123
-0.17670000000000008,-14.557379275611227
-0.1777000000000002,-14.61396772760583
-0.17870000000000008,-14.642261953603128
-0.1797000000000002,-14.755438857592333
-0.18070000000000008,-14.911057100577487
-0.1817000000000002,-15.151558021554543
-0.18270000000000008,-15.462794507524851
-0.1837000000000002,-15.505235846520803
-0.1847000000000001,-15.675001202504609
-0.1857000000000002,-15.78817810649381
-0.1867000000000001,-15.929649236480316
-0.1877000000000002,-16.127708818461418
-0.1887000000000001,-16.24088572245062
-0.1897000000000002,-16.46723953042903
-0.1907000000000001,-16.637004886412832
-0.1917000000000001,-16.806770242396635
-0.19269999999999998,-16.97653559838044
-0.1937000000000001,-17.07556538937099
-0.19469999999999998,-17.174595180361546
-0.1957000000000001,-17.316066310348052
-0.19669999999999999,-17.570714344323754
-0.1977000000000001,-17.782921039303513
-0.1987,-17.924392169290012
-0.1997000000000001,-18.05171618627787
-0.2007,-18.249775768258974
-0.2017000000000001,-18.419541124242777
-0.2027,-18.660042045219836
-0.2037000000000001,-18.759071836210385
-0.2047,-19.01371987018609
-0.2057000000000001,-19.169338113171246
-0.2067,-19.423986147146955
-0.2077000000000001,-19.636192842126707
-0.2087,-19.791811085111863
-0.2097000000000001,-20.00401778009162
-0.2107,-20.06060623208622
-0.2117000000000001,-20.25866581406732
-0.2127,-20.51331384804303
-0.2137000000000001,-20.72552054302279
-0.2147,-20.994315689997144
-0.2157000000000001,-21.121639706984997
-0.2167,-21.16408104598095
-0.21770000000000012,-21.2348166109742
-0.2187,-21.531905983945855
-0.21970000000000012,-21.95631937390537
-0.2207,-22.267555859875678
-0.22170000000000012,-22.253408746877028
-0.2227,-22.324144311870278
-0.22370000000000012,-22.691969249835186
-0.2247,-22.932470170812245
-0.22570000000000012,-23.215412430785253
-0.2267,-23.286147995778503
-0.22770000000000012,-23.56909025575151
-0.22870000000000001,-23.66812004674206
-0.22970000000000013,-23.86617962872317
-0.23070000000000002,-23.93691519371642
-0.23170000000000013,-24.092533436701576
-0.23270000000000002,-24.432064148669184
-0.23370000000000013,-24.559388165657033
-0.23470000000000002,-24.828183312631392
-0.23570000000000013,-24.870624651627345
-0.23670000000000002,-25.012095781613848
-0.2376999999999999,-25.238449589592253
-0.23870000000000002,-25.507244736566612
-0.2396999999999999,-25.73359854454502
-0.24070000000000003,-25.846775448534224
-0.24169999999999991,-25.846775448534224
-0.24270000000000003,-26.002393691519377
-0.24369999999999992,-26.21460038649913
-0.24470000000000003,-26.58242532446404
-0.24569999999999992,-26.65316088945729
-0.24670000000000003,-26.667308002455943
-0.24769999999999992,-26.89366181043435
-0.24870000000000003,-26.936103149430302
-0.24969999999999992,-27.233192522401957
-0.25070000000000003,-27.501987669376312
-0.2516999999999999,-27.671753025360115
-0.25270000000000004,-27.714194364356068
-0.2536999999999999,-27.671753025360115
-0.25470000000000004,-27.64345879936282
-0.2556999999999999,-27.912253946337174
-0.25670000000000004,-28.06787218932233
-0.25769999999999993,-28.082019302320973
-0.25870000000000004,-28.039577963325023
-0.25969999999999993,-28.039577963325023
-0.26070000000000004,-28.039577963325023
-0.26169999999999993,-28.11031352831828
-0.26270000000000004,-28.18104909331153
-0.26369999999999993,-27.940548172334477
-0.26470000000000005,-28.13860775431558
-0.26569999999999994,-28.591315370272387
-0.26670000000000005,-28.577168257273744
-0.26769999999999994,-28.350814449295335
-0.26870000000000005,-27.501987669376312
-0.26969999999999994,-26.95025026242895
-0.27070000000000005,-27.219045409403304
-0.27169999999999994,-27.968842398331773
-0.27270000000000005,-28.19519620631018
-0.27369999999999994,-27.685900138358768
-0.27470000000000006,-26.822926245441096
-0.27569999999999995,-26.21460038649913
-0.27670000000000006,-26.14386482150588
-0.27769999999999995,-26.469248420474838
-0.27870000000000006,-26.525836872469437
-0.27969999999999995,-26.34192440348698
-0.28070000000000006,-25.648715866553115
-0.28169999999999995,-25.09697845960575
-0.28270000000000006,-24.814036199632742
-0.28369999999999995,-24.70085929564354
-0.28470000000000006,-24.61597661765164
-0.28569999999999995,-24.120827662698876
-0.28670000000000007,-23.56909025575151
-0.28769999999999996,-22.932470170812245
-0.28870000000000007,-22.508056780852733
-0.28969999999999996,-22.42317410286083
-0.29070000000000007,-22.097790503891872
-0.29169999999999996,-21.531905983945855
-0.29270000000000007,-20.881138786007945
-0.29369999999999996,-20.286960040064624
-0.2947000000000001,-19.904987989101066
-0.29569999999999996,-19.73522263311726
-0.2967000000000001,-19.381544808151002
-0.29769999999999996,-18.80151317520634
-0.2987000000000001,-18.06586329927652
-0.29969999999999997,-17.514125892329155
-0.3007000000000001,-17.188742293360193
-0.30169999999999997,-17.018976937376394
-0.3027000000000001,-16.863358694391238
-0.30369999999999997,-16.354062626439823
-0.3047000000000001,-15.816472332491113
-0.30569999999999997,-15.321323377538347
-0.3067000000000001,-14.868615761581536
-0.3077,-14.529085049613924
-0.3087000000000001,-14.415908145624723
-0.3097,-14.359319693630123
-0.3107000000000001,-14.175407224647667
-0.3117,-13.702893650492745
-0.3127000000000001,-13.30253035263094
-0.3137,-13.138423841846596
-0.3147000000000001,-13.148326820945652
-0.3157,-12.978561464961846
-0.3167000000000001,-12.657421999892483
-0.3177,-12.3815532964188
-0.3187000000000001,-12.303744174926225
-0.3197,-12.496144911707868
-0.3207000000000001,-12.648933732093294
-0.3217,-12.551318652402605
-0.3227000000000001,-12.398529832017182
-0.3237,-12.167931890139181
-0.3247000000000001,-12.281108794128384
-0.3257,-12.517365581205844
-0.3267000000000001,-12.688545648489512
-0.3277,-12.831431489775884
-0.3287000000000001,-12.852652159273859
-0.3297,-12.869628694872238
-0.3307000000000001,-12.876702251371565
-0.3317,-13.053541163854694
-0.3327000000000001,-13.343556980327028
-0.3337,-13.509078202411235
-0.3347000000000001,-13.680258269694905
-0.3357,-13.817485265781814
-0.3367000000000001,-13.998568312164537
-0.3377,-14.288584128636872
-0.3387000000000001,-14.500790823616628
-0.3397,-14.755438857592333
-0.3407000000000001,-14.896909987578834
-0.3417,-15.02423400456669
-0.3427000000000001,-15.222293586547794
-0.3437,-15.43450028152755
-0.3447000000000001,-16.085267479465468
-0.3457,-16.438945304431726
-0.3467000000000001,-16.56626932141958
-0.3477,-16.637004886412832
-0.3487000000000001,-16.736034677403385
-0.3497,-17.259477858353446
-0.3507000000000001,-17.542420118326454
-0.3517,-18.02342196028057
-0.3527000000000001,-18.320511333252224
-0.3537,-18.348805559249524
-0.3547000000000001,-18.617600706223882
-0.3557,-18.94298430519284
-0.35670000000000013,-19.395691921149652
-0.3577,-19.961576441095666
-0.35870000000000013,-20.272812927065978
-0.3597,-20.541608074040333
-0.36070000000000013,-20.75381476902009
-0.3617,-20.980168576998494
-0.3626999999999999,-21.347993514963402
-0.3637,-21.71581845292831
-0.3646999999999999,-22.451468328858134
-0.3657,-22.974911509808198
-0.3666999999999999,-23.2012653177866
-0.3677,-23.399324899767706
-0.3686999999999999,-24.092533436701576
-0.36970000000000003,-24.545241052658387
-0.3706999999999999,-24.559388165657033
-0.37170000000000003,-24.74330063463949
-0.3726999999999999,-25.18186113759765
-0.37370000000000003,-25.931658126526123
-0.3746999999999999,-26.808779132442442
-0.37570000000000003,-27.1058685054141
-0.3766999999999999,-27.275633861397907
-0.37770000000000004,-27.417104991384413
-0.3786999999999999,-27.601017460366865
-0.37970000000000004,-28.60546248327104
-0.3806999999999999,-29.454289263190066
-0.38170000000000004,-30.02017378313608
-0.38269999999999993,-30.17579202612123
-0.38370000000000004,-30.11920357412663
-0.38469999999999993,-30.51532273808884
-0.38570000000000004,-31.40659085700382
-0.38669999999999993,-32.340300314914735
-0.38770000000000004,-32.8354492698675
-0.38869999999999993,-32.99106751285265
-0.38970000000000005,-33.288156885824314
-0.39069999999999994,-33.698423162785176
-0.39170000000000005,-34.5472499427042
-0.39269999999999994,-35.198017140642115
-0.39370000000000005,-35.693166095594876
-0.39469999999999994,-36.28734484153819
-0.39570000000000005,-36.740052457495004
-0.39669999999999994,-37.206907186450465
-0.39770000000000005,-37.51814367242077
-0.39869999999999994,-37.84352727138973
-0.39970000000000006,-38.692354051308754
-0.40069999999999995,-39.54118083122778
-0.40170000000000006,-40.191948029165694
-0.40269999999999995,-40.4748902891387
-0.40370000000000006,-40.6729498711198
-0.40469999999999995,-41.196393052069865
-0.40570000000000006,-42.087661170984845
-0.40669999999999995,-42.80916393391601
-0.40770000000000006,-43.657990713835034
-0.40869999999999995,-44.096551216793195
-0.40970000000000006,-44.535111719751356
-0.41069999999999995,-44.90293665771627
-0.41170000000000007,-45.53955674265553
-0.41269999999999996,-46.37423640957591
-0.41370000000000007,-46.95426804252057
-0.41469999999999996,-47.73235925744634
-0.41570000000000007,-48.029448630417996
-0.41669999999999996,-48.609480263362656
-0.41770000000000007,-49.24610034830193
-0.41869999999999996,-49.81198486824794
-0.4197000000000001,-50.39201650119261
-0.42069999999999996,-51.028636586131874
-0.4217000000000001,-51.65110955807249
-0.42269999999999996,-52.31602386900906
-0.4237000000000001,-52.69799591997262
-0.42469999999999997,-52.980938179945625
-0.4257000000000001,-53.74488228187274
-0.42669999999999997,-55.11715224274183
-0.4277000000000001,-55.8103607796757
-0.42869999999999997,-56.1781857176406
-0.4297000000000001,-56.19233283063926
-0.43069999999999997,-56.65918755959472
-0.4317000000000001,-58.18707576344896
-0.4327,-59.20566789935179
-0.4337000000000001,-59.64422840230995
-0.4347,-59.913023549284304
-0.4357000000000001,-60.33743693924381
-0.4367,-61.46920597913584
-0.4377000000000001,-62.67171058402113
-0.4387,-62.96879995699278
-0.4397000000000001,-63.05368263498469
-0.4407,-63.350772007956344
-0.4417000000000001,-64.45424682185109
-0.4427,-65.28892648877145
-0.4437000000000001,-65.62845720073905
-0.4447,-66.30751862467427
-0.4457000000000001,-66.64704933664189
-0.4467,-67.41099343856901
-0.4477000000000001,-68.20323176649342
-0.4487,-68.75496917344077
-0.4497000000000001,-69.7735613093436
-0.4507,-70.32529871629096
-0.4517000000000001,-71.47121486918165
-0.4527,-71.28730240019921
-0.4537000000000001,-71.2307139482046
-0.4547,-72.46151277908717
-0.4557000000000001,-73.8762240789522
-0.4567,-75.7577901077727
-0.4577000000000001,-75.48899496079835
-0.4587,-75.47484784779972
-0.4597000000000001,-75.85681989876326
-0.4607,-77.25738408562965
-0.4617000000000001,-78.65794827249603
-0.4627,-79.7755701993894
-0.4637000000000001,-79.78971731238806
-0.4647,-79.61995195640426
-0.4657000000000001,-80.72342677029899
-0.4667,-81.45907664622881
-0.4677000000000001,-82.37863899114109
-0.4687,-82.46352166913299
-0.4697000000000001,-82.7747581551033
-0.4707,-83.36893690104661
-0.4717000000000001,-84.03385121198318
-0.4727,-84.8543837659049
-0.4737000000000001,-85.30709138186171
-0.4747,-86.21250661377533
-0.4757000000000001,-87.06133339369435
-0.4767,-87.89601306061473
-0.4777000000000001,-88.95704653551351
-0.4787,-89.79172620243388
-0.4797000000000001,-90.5273760783637
-0.4807,-90.73958277334346
-0.48170000000000013,-91.17814327630163
-0.4827,-91.58840955326248
-0.48370000000000013,-92.4655305591788
-0.4847,-93.75291784205598
-0.48570000000000013,-94.41783215299256
-0.4867,-93.59729959907082
-0.48570000000000013,-92.05526428221793
-0.4847,-90.7254356603448
-0.48370000000000013,-91.05081925931376
-0.4827,-89.87660888042578
-0.48170000000000013,-88.37701490256885
-0.4807,-87.83942460862012
-0.4797000000000001,-86.9057151507092
-0.4787,-86.49544887374834
-0.4777000000000001,-85.17976736487385
-0.4767,-83.56699648302772
-0.4757000000000001,-82.90208217209116
-0.4747,-82.26546208715187
-0.4737000000000001,-81.51566509822342
-0.4727,-81.09125170826391
-0.4717000000000001,-80.79416233529224
-0.4707,-80.25657204134353
-0.4697000000000001,-78.7569780634866
-0.4687,-78.00718107455812
-0.4677000000000001,-77.54032634560265
-0.4667,-76.56417554869579
-0.4657000000000001,-75.77193722077136
-0.4647,-75.12117002283344
