Apr. 1, 2025   11:32:03
Cyclic Voltammetry
File: c:/users/guazh/data/banditlqround7_x0exp518_r20/2025-03-28-exp1009\exp1009-2025-04-01t11_23_30-arkoh\exp1009_cv_50mvs_efin_-1500mv.bin
Data Source:  Experiment
Instrument Model:  CHI760E
Header: CV ran at 50 mVs
Note: 

Init E (V) = -1
High E (V) = -1
Low E (V) = -1.5
Final E (V) = -1
Init P/N = N
Scan Rate (V/s) = 0.05
Segment = 7
Sample Interval (V) = 0.001
Quiet Time (sec) = 60
Sensitivity (A/V) = 0.001
Comp R (ohm) = 1.9

Results:

Channel 1:
Segment 1:
Ep = -1.266V
ip = 1.043e-3A
Ah = 1.393e-3C

Segment 2:

Segment 3:
Ep = -1.247V
ip = 3.707e-4A
Ah = 4.157e-4C

Segment 4:

Segment 5:
Ep = -1.240V
ip = 2.928e-4A
Ah = 3.139e-4C

Segment 6:

Segment 7:

Potential/V, Current/A

-1.000, 1.995e-5
-1.001, 6.344e-5
-1.002, 8.231e-5
-1.003, 9.323e-5
-1.004, 1.010e-4
-1.005, 1.069e-4
-1.006, 1.130e-4
-1.007, 1.176e-4
-1.008, 1.205e-4
-1.009, 1.236e-4
-1.010, 1.271e-4
-1.011, 1.302e-4
-1.012, 1.334e-4
-1.013, 1.348e-4
-1.014, 1.371e-4
-1.015, 1.395e-4
-1.016, 1.424e-4
-1.017, 1.443e-4
-1.018, 1.453e-4
-1.019, 1.465e-4
-1.020, 1.489e-4
-1.021, 1.508e-4
-1.022, 1.528e-4
-1.023, 1.545e-4
-1.024, 1.559e-4
-1.025, 1.575e-4
-1.026, 1.592e-4
-1.027, 1.608e-4
-1.028, 1.620e-4
-1.029, 1.628e-4
-1.030, 1.645e-4
-1.031, 1.669e-4
-1.032, 1.681e-4
-1.033, 1.691e-4
-1.034, 1.710e-4
-1.035, 1.720e-4
-1.036, 1.743e-4
-1.037, 1.756e-4
-1.038, 1.768e-4
-1.039, 1.779e-4
-1.040, 1.792e-4
-1.041, 1.818e-4
-1.042, 1.838e-4
-1.043, 1.844e-4
-1.044, 1.861e-4
-1.045, 1.872e-4
-1.046, 1.890e-4
-1.047, 1.911e-4
-1.048, 1.920e-4
-1.049, 1.935e-4
-1.050, 1.953e-4
-1.051, 1.975e-4
-1.052, 1.995e-4
-1.053, 2.005e-4
-1.054, 2.020e-4
-1.055, 2.040e-4
-1.056, 2.063e-4
-1.057, 2.081e-4
-1.058, 2.096e-4
-1.059, 2.109e-4
-1.060, 2.134e-4
-1.061, 2.153e-4
-1.062, 2.174e-4
-1.063, 2.188e-4
-1.064, 2.198e-4
-1.065, 2.227e-4
-1.066, 2.253e-4
-1.067, 2.275e-4
-1.068, 2.296e-4
-1.069, 2.306e-4
-1.070, 2.328e-4
-1.071, 2.356e-4
-1.072, 2.374e-4
-1.073, 2.394e-4
-1.074, 2.417e-4
-1.075, 2.446e-4
-1.076, 2.472e-4
-1.077, 2.498e-4
-1.078, 2.514e-4
-1.079, 2.533e-4
-1.080, 2.557e-4
-1.081, 2.585e-4
-1.082, 2.609e-4
-1.083, 2.636e-4
-1.084, 2.660e-4
-1.085, 2.679e-4
-1.086, 2.717e-4
-1.087, 2.743e-4
-1.088, 2.764e-4
-1.089, 2.792e-4
-1.090, 2.813e-4
-1.091, 2.846e-4
-1.092, 2.883e-4
-1.093, 2.901e-4
-1.094, 2.926e-4
-1.095, 2.956e-4
-1.096, 2.992e-4
-1.097, 3.023e-4
-1.098, 3.048e-4
-1.099, 3.077e-4
-1.100, 3.113e-4
-1.101, 3.146e-4
-1.102, 3.180e-4
-1.103, 3.208e-4
-1.104, 3.231e-4
-1.105, 3.266e-4
-1.106, 3.306e-4
-1.107, 3.342e-4
-1.108, 3.371e-4
-1.109, 3.398e-4
-1.110, 3.435e-4
-1.111, 3.479e-4
-1.112, 3.510e-4
-1.113, 3.547e-4
-1.114, 3.573e-4
-1.115, 3.612e-4
-1.116, 3.659e-4
-1.117, 3.686e-4
-1.118, 3.725e-4
-1.119, 3.764e-4
-1.120, 3.802e-4
-1.121, 3.850e-4
-1.122, 3.890e-4
-1.123, 3.914e-4
-1.124, 3.950e-4
-1.125, 3.985e-4
-1.126, 4.028e-4
-1.127, 4.071e-4
-1.128, 4.101e-4
-1.129, 4.143e-4
-1.130, 4.191e-4
-1.131, 4.231e-4
-1.132, 4.274e-4
-1.133, 4.314e-4
-1.134, 4.346e-4
-1.135, 4.397e-4
-1.136, 4.432e-4
-1.137, 4.488e-4
-1.138, 4.525e-4
-1.139, 4.556e-4
-1.140, 4.605e-4
-1.141, 4.654e-4
-1.142, 4.699e-4
-1.143, 4.740e-4
-1.144, 4.780e-4
-1.145, 4.832e-4
-1.146, 4.877e-4
-1.147, 4.937e-4
-1.148, 4.977e-4
-1.149, 5.011e-4
-1.150, 5.063e-4
-1.151, 5.119e-4
-1.152, 5.177e-4
-1.153, 5.219e-4
-1.154, 5.264e-4
-1.155, 5.322e-4
-1.156, 5.380e-4
-1.157, 5.420e-4
-1.158, 5.463e-4
-1.159, 5.518e-4
-1.160, 5.582e-4
-1.161, 5.632e-4
-1.162, 5.702e-4
-1.163, 5.757e-4
-1.164, 5.802e-4
-1.165, 5.865e-4
-1.166, 5.928e-4
-1.167, 5.985e-4
-1.168, 6.045e-4
-1.169, 6.106e-4
-1.170, 6.166e-4
-1.171, 6.230e-4
-1.172, 6.296e-4
-1.173, 6.358e-4
-1.174, 6.421e-4
-1.175, 6.498e-4
-1.176, 6.567e-4
-1.177, 6.649e-4
-1.178, 6.717e-4
-1.179, 6.768e-4
-1.180, 6.844e-4
-1.181, 6.928e-4
-1.182, 7.001e-4
-1.183, 7.087e-4
-1.184, 7.159e-4
-1.185, 7.238e-4
-1.186, 7.327e-4
-1.187, 7.399e-4
-1.188, 7.472e-4
-1.189, 7.553e-4
-1.190, 7.645e-4
-1.191, 7.741e-4
-1.192, 7.825e-4
-1.193, 7.916e-4
-1.194, 8.011e-4
-1.195, 8.094e-4
-1.196, 8.193e-4
-1.197, 8.299e-4
-1.198, 8.379e-4
-1.199, 8.472e-4
-1.200, 8.559e-4
-1.201, 8.667e-4
-1.202, 8.784e-4
-1.203, 8.877e-4
-1.204, 8.974e-4
-1.205, 9.082e-4
-1.206, 9.191e-4
-1.207, 9.301e-4
-1.208, 9.397e-4
-1.209, 9.530e-4
-1.210, 9.627e-4
-1.211, 9.735e-4
-1.212, 9.871e-4
-1.213, 9.977e-4
-1.214, 1.009e-3
-1.215, 1.020e-3
-1.216, 1.033e-3
-1.217, 1.046e-3
-1.218, 1.058e-3
-1.219, 1.069e-3
-1.220, 1.080e-3
-1.221, 1.092e-3
-1.222, 1.105e-3
-1.223, 1.118e-3
-1.224, 1.130e-3
-1.225, 1.144e-3
-1.226, 1.158e-3
-1.227, 1.171e-3
-1.228, 1.183e-3
-1.229, 1.197e-3
-1.230, 1.210e-3
-1.231, 1.223e-3
-1.232, 1.236e-3
-1.233, 1.250e-3
-1.234, 1.264e-3
-1.235, 1.276e-3
-1.236, 1.290e-3
-1.237, 1.302e-3
-1.238, 1.315e-3
-1.239, 1.329e-3
-1.240, 1.342e-3
-1.241, 1.354e-3
-1.242, 1.367e-3
-1.243, 1.380e-3
-1.244, 1.392e-3
-1.245, 1.404e-3
-1.246, 1.418e-3
-1.247, 1.430e-3
-1.248, 1.441e-3
-1.249, 1.452e-3
-1.250, 1.462e-3
-1.251, 1.474e-3
-1.252, 1.486e-3
-1.253, 1.494e-3
-1.254, 1.505e-3
-1.255, 1.514e-3
-1.256, 1.520e-3
-1.257, 1.531e-3
-1.258, 1.538e-3
-1.259, 1.543e-3
-1.260, 1.548e-3
-1.261, 1.555e-3
-1.262, 1.560e-3
-1.263, 1.566e-3
-1.264, 1.569e-3
-1.265, 1.568e-3
-1.266, 1.573e-3
-1.267, 1.570e-3
-1.268, 1.568e-3
-1.269, 1.567e-3
-1.270, 1.561e-3
-1.271, 1.558e-3
-1.272, 1.554e-3
-1.273, 1.543e-3
-1.274, 1.538e-3
-1.275, 1.527e-3
-1.276, 1.516e-3
-1.277, 1.506e-3
-1.278, 1.493e-3
-1.279, 1.474e-3
-1.280, 1.462e-3
-1.281, 1.445e-3
-1.282, 1.422e-3
-1.283, 1.403e-3
-1.284, 1.383e-3
-1.285, 1.363e-3
-1.286, 1.340e-3
-1.287, 1.316e-3
-1.288, 1.291e-3
-1.289, 1.264e-3
-1.290, 1.238e-3
-1.291, 1.214e-3
-1.292, 1.188e-3
-1.293, 1.164e-3
-1.294, 1.137e-3
-1.295, 1.111e-3
-1.296, 1.084e-3
-1.297, 1.061e-3
-1.298, 1.033e-3
-1.299, 1.005e-3
-1.300, 9.795e-4
-1.301, 9.560e-4
-1.302, 9.328e-4
-1.303, 9.090e-4
-1.304, 8.860e-4
-1.305, 8.683e-4
-1.306, 8.470e-4
-1.307, 8.273e-4
-1.308, 8.102e-4
-1.309, 7.912e-4
-1.310, 7.743e-4
-1.311, 7.608e-4
-1.312, 7.484e-4
-1.313, 7.346e-4
-1.314, 7.240e-4
-1.315, 7.160e-4
-1.316, 7.080e-4
-1.317, 7.022e-4
-1.318, 6.939e-4
-1.319, 6.901e-4
-1.320, 6.879e-4
-1.321, 6.855e-4
-1.322, 6.860e-4
-1.323, 6.859e-4
-1.324, 6.874e-4
-1.325, 6.887e-4
-1.326, 6.931e-4
-1.327, 6.978e-4
-1.328, 7.030e-4
-1.329, 7.088e-4
-1.330, 7.160e-4
-1.331, 7.250e-4
-1.332, 7.353e-4
-1.333, 7.437e-4
-1.334, 7.515e-4
-1.335, 7.637e-4
-1.336, 7.752e-4
-1.337, 7.883e-4
-1.338, 8.007e-4
-1.339, 8.133e-4
-1.340, 8.269e-4
-1.341, 8.423e-4
-1.342, 8.573e-4
-1.343, 8.730e-4
-1.344, 8.878e-4
-1.345, 9.042e-4
-1.346, 9.214e-4
-1.347, 9.397e-4
-1.348, 9.575e-4
-1.349, 9.748e-4
-1.350, 9.947e-4
-1.351, 1.014e-3
-1.352, 1.032e-3
-1.353, 1.053e-3
-1.354, 1.073e-3
-1.355, 1.093e-3
-1.356, 1.117e-3
-1.357, 1.138e-3
-1.358, 1.159e-3
-1.359, 1.182e-3
-1.360, 1.204e-3
-1.361, 1.228e-3
-1.362, 1.254e-3
-1.363, 1.277e-3
-1.364, 1.303e-3
-1.365, 1.325e-3
-1.366, 1.351e-3
-1.367, 1.377e-3
-1.368, 1.402e-3
-1.369, 1.429e-3
-1.370, 1.456e-3
-1.371, 1.483e-3
-1.372, 1.513e-3
-1.373, 1.540e-3
-1.374, 1.567e-3
-1.375, 1.597e-3
-1.376, 1.627e-3
-1.377, 1.655e-3
-1.378, 1.684e-3
-1.379, 1.716e-3
-1.380, 1.744e-3
-1.381, 1.778e-3
-1.382, 1.805e-3
-1.383, 1.835e-3
-1.384, 1.870e-3
-1.385, 1.904e-3
-1.386, 1.936e-3
-1.387, 1.969e-3
-1.388, 2.000e-3
-1.389, 2.036e-3
-1.390, 2.066e-3
-1.391, 2.101e-3
-1.392, 2.133e-3
-1.393, 2.167e-3
-1.394, 2.202e-3
-1.395, 2.238e-3
-1.396, 2.274e-3
-1.397, 2.312e-3
-1.398, 2.345e-3
-1.399, 2.381e-3
-1.400, 2.418e-3
-1.401, 2.456e-3
-1.402, 2.496e-3
-1.403, 2.529e-3
-1.404, 2.568e-3
-1.405, 2.606e-3
-1.406, 2.642e-3
-1.407, 2.683e-3
-1.408, 2.718e-3
-1.409, 2.753e-3
-1.410, 2.791e-3
-1.411, 2.832e-3
-1.412, 2.883e-3
-1.413, 2.919e-3
-1.414, 2.956e-3
-1.415, 2.995e-3
-1.416, 3.030e-3
-1.417, 3.073e-3
-1.418, 3.120e-3
-1.419, 3.162e-3
-1.420, 3.211e-3
-1.421, 3.260e-3
-1.422, 3.300e-3
-1.423, 3.337e-3
-1.424, 3.374e-3
-1.425, 3.411e-3
-1.426, 3.455e-3
-1.427, 3.494e-3
-1.428, 3.535e-3
-1.429, 3.580e-3
-1.430, 3.625e-3
-1.431, 3.666e-3
-1.432, 3.718e-3
-1.433, 3.755e-3
-1.434, 3.802e-3
-1.435, 3.848e-3
-1.436, 3.891e-3
-1.437, 3.937e-3
-1.438, 3.968e-3
-1.439, 4.010e-3
-1.440, 4.057e-3
-1.441, 4.091e-3
-1.442, 4.135e-3
-1.443, 4.169e-3
-1.444, 4.222e-3
-1.445, 4.280e-3
-1.446, 4.330e-3
-1.447, 4.360e-3
-1.448, 4.419e-3
-1.449, 4.460e-3
-1.450, 4.512e-3
-1.451, 4.545e-3
-1.452, 4.605e-3
-1.453, 4.650e-3
-1.454, 4.690e-3
-1.455, 4.732e-3
-1.456, 4.802e-3
-1.457, 4.836e-3
-1.458, 4.869e-3
-1.459, 4.927e-3
-1.460, 4.946e-3
-1.461, 4.990e-3
-1.462, 5.029e-3
-1.463, 5.082e-3
-1.464, 5.135e-3
-1.465, 5.201e-3
-1.466, 5.222e-3
-1.467, 5.278e-3
-1.468, 5.322e-3
-1.469, 5.353e-3
-1.470, 5.415e-3
-1.471, 5.443e-3
-1.472, 5.454e-3
-1.473, 5.489e-3
-1.474, 5.566e-3
-1.475, 5.649e-3
-1.476, 5.684e-3
-1.477, 5.738e-3
-1.478, 5.791e-3
-1.479, 5.828e-3
-1.480, 5.861e-3
-1.481, 5.936e-3
-1.482, 5.975e-3
-1.483, 6.024e-3
-1.484, 6.043e-3
-1.485, 6.089e-3
-1.486, 6.139e-3
-1.487, 6.149e-3
-1.488, 6.181e-3
-1.489, 6.218e-3
-1.490, 6.266e-3
-1.491, 6.335e-3
-1.492, 6.372e-3
-1.493, 6.392e-3
-1.494, 6.446e-3
-1.495, 6.472e-3
-1.496, 6.513e-3
-1.497, 6.530e-3
-1.498, 6.585e-3
-1.499, 6.763e-3
-1.500, 6.746e-3
-1.499, 6.647e-3
-1.498, 6.565e-3
-1.497, 6.484e-3
-1.496, 6.404e-3
-1.495, 6.359e-3
-1.494, 6.354e-3
-1.493, 6.235e-3
-1.492, 6.206e-3
-1.491, 6.176e-3
-1.490, 6.129e-3
-1.489, 6.074e-3
-1.488, 6.109e-3
-1.487, 6.000e-3
-1.486, 5.926e-3
-1.485, 5.846e-3
-1.484, 5.774e-3
-1.483, 5.711e-3
-1.482, 5.656e-3
-1.481, 5.602e-3
-1.480, 5.552e-3
-1.479, 5.481e-3
-1.478, 5.405e-3
-1.477, 5.331e-3
-1.476, 5.283e-3
-1.475, 5.268e-3
-1.474, 5.194e-3
-1.473, 5.121e-3
-1.472, 5.072e-3
-1.471, 4.965e-3
-1.470, 4.915e-3
-1.469, 4.921e-3
-1.468, 4.855e-3
-1.467, 4.772e-3
-1.466, 4.707e-3
-1.465, 4.645e-3
-1.464, 4.595e-3
-1.463, 4.547e-3
-1.462, 4.479e-3
-1.461, 4.500e-3
-1.460, 4.426e-3
-1.459, 4.346e-3
-1.458, 4.290e-3
-1.457, 4.266e-3
-1.456, 4.200e-3
-1.455, 4.206e-3
-1.454, 4.129e-3
-1.453, 4.071e-3
-1.452, 4.076e-3
-1.451, 4.025e-3
-1.450, 3.974e-3
-1.449, 3.923e-3
-1.448, 3.872e-3
-1.447, 3.832e-3
-1.446, 3.772e-3
-1.445, 3.723e-3
-1.444, 3.676e-3
-1.443, 3.636e-3
-1.442, 3.613e-3
-1.441, 3.580e-3
-1.440, 3.533e-3
-1.439, 3.474e-3
-1.438, 3.431e-3
-1.437, 3.398e-3
-1.436, 3.364e-3
-1.435, 3.346e-3
-1.434, 3.283e-3
-1.433, 3.247e-3
-1.432, 3.219e-3
-1.431, 3.164e-3
-1.430, 3.129e-3
-1.429, 3.111e-3
-1.428, 3.039e-3
-1.427, 2.999e-3
-1.426, 2.968e-3
-1.425, 2.934e-3
-1.424, 2.893e-3
-1.423, 2.857e-3
-1.422, 2.859e-3
-1.421, 2.857e-3
-1.420, 2.751e-3
-1.419, 2.706e-3
-1.418, 2.665e-3
-1.417, 2.824e-3
-1.416, 2.717e-3
-1.415, 2.623e-3
-1.414, 2.591e-3
-1.413, 2.554e-3
-1.412, 2.521e-3
-1.411, 2.493e-3
-1.410, 2.446e-3
-1.409, 2.406e-3
-1.408, 2.364e-3
-1.407, 2.325e-3
-1.406, 2.293e-3
-1.405, 2.254e-3
-1.404, 2.217e-3
-1.403, 2.183e-3
-1.402, 2.143e-3
-1.401, 2.112e-3
-1.400, 2.072e-3
-1.399, 2.045e-3
-1.398, 2.017e-3
-1.397, 1.982e-3
-1.396, 1.946e-3
-1.395, 1.913e-3
-1.394, 1.881e-3
-1.393, 1.857e-3
-1.392, 1.830e-3
-1.391, 1.803e-3
-1.390, 1.771e-3
-1.389, 1.737e-3
-1.388, 1.716e-3
-1.387, 1.691e-3
-1.386, 1.671e-3
-1.385, 1.638e-3
-1.384, 1.606e-3
-1.383, 1.582e-3
-1.382, 1.547e-3
-1.381, 1.525e-3
-1.380, 1.504e-3
-1.379, 1.473e-3
-1.378, 1.447e-3
-1.377, 1.416e-3
-1.376, 1.404e-3
-1.375, 1.374e-3
-1.374, 1.344e-3
-1.373, 1.321e-3
-1.372, 1.296e-3
-1.371, 1.275e-3
-1.370, 1.248e-3
-1.369, 1.229e-3
-1.368, 1.204e-3
-1.367, 1.175e-3
-1.366, 1.151e-3
-1.365, 1.135e-3
-1.364, 1.103e-3
-1.363, 1.078e-3
-1.362, 1.057e-3
-1.361, 1.037e-3
-1.360, 1.016e-3
-1.359, 1.048e-3
-1.358, 9.982e-4
-1.357, 9.700e-4
-1.356, 9.487e-4
-1.355, 9.286e-4
-1.354, 9.060e-4
-1.353, 8.867e-4
-1.352, 8.670e-4
-1.351, 8.473e-4
-1.350, 8.328e-4
-1.349, 8.152e-4
-1.348, 7.948e-4
-1.347, 7.784e-4
-1.346, 7.591e-4
-1.345, 7.451e-4
-1.344, 7.270e-4
-1.343, 7.034e-4
-1.342, 6.895e-4
-1.341, 6.707e-4
-1.340, 6.523e-4
-1.339, 6.332e-4
-1.338, 6.145e-4
-1.337, 6.105e-4
-1.336, 5.939e-4
-1.335, 5.745e-4
-1.334, 5.625e-4
-1.333, 5.470e-4
-1.332, 5.319e-4
-1.331, 5.163e-4
-1.330, 5.039e-4
-1.329, 4.899e-4
-1.328, 4.778e-4
-1.327, 4.652e-4
-1.326, 4.517e-4
-1.325, 4.402e-4
-1.324, 4.259e-4
-1.323, 4.179e-4
-1.322, 4.006e-4
-1.321, 3.878e-4
-1.320, 3.773e-4
-1.319, 3.719e-4
-1.318, 3.604e-4
-1.317, 3.474e-4
-1.316, 3.375e-4
-1.315, 3.272e-4
-1.314, 3.179e-4
-1.313, 3.063e-4
-1.312, 2.975e-4
-1.311, 2.851e-4
-1.310, 2.760e-4
-1.309, 2.688e-4
-1.308, 2.580e-4
-1.307, 2.485e-4
-1.306, 2.387e-4
-1.305, 2.296e-4
-1.304, 2.211e-4
-1.303, 2.125e-4
-1.302, 2.040e-4
-1.301, 1.956e-4
-1.300, 1.874e-4
-1.299, 1.801e-4
-1.298, 1.727e-4
-1.297, 1.644e-4
-1.296, 1.576e-4
-1.295, 1.506e-4
-1.294, 1.427e-4
-1.293, 1.365e-4
-1.292, 1.303e-4
-1.291, 1.224e-4
-1.290, 1.159e-4
-1.289, 1.100e-4
-1.288, 1.048e-4
-1.287, 9.822e-5
-1.286, 9.087e-5
-1.285, 8.573e-5
-1.284, 8.084e-5
-1.283, 7.599e-5
-1.282, 6.957e-5
-1.281, 6.365e-5
-1.280, 5.854e-5
-1.279, 5.430e-5
-1.278, 4.932e-5
-1.277, 4.413e-5
-1.276, 3.908e-5
-1.275, 3.492e-5
-1.274, 3.114e-5
-1.273, 2.630e-5
-1.272, 2.199e-5
-1.271, 1.745e-5
-1.270, 1.339e-5
-1.269, 1.013e-5
-1.268, 6.219e-6
-1.267, 1.868e-6
-1.266, -2.107e-6
-1.265, -5.957e-6
-1.264, -8.217e-6
-1.263, -1.196e-5
-1.262, -1.572e-5
-1.261, -1.909e-5
-1.260, -2.235e-5
-1.259, -2.492e-5
-1.258, -2.782e-5
-1.257, -3.142e-5
-1.256, -3.429e-5
-1.255, -3.694e-5
-1.254, -3.937e-5
-1.253, -4.199e-5
-1.252, -4.529e-5
-1.251, -4.791e-5
-1.250, -5.012e-5
-1.249, -5.213e-5
-1.248, -5.413e-5
-1.247, -5.691e-5
-1.246, -6.003e-5
-1.245, -6.186e-5
-1.244, -6.321e-5
-1.243, -6.509e-5
-1.242, -6.786e-5
-1.241, -7.059e-5
-1.240, -7.116e-5
-1.239, -7.284e-5
-1.238, -7.559e-5
-1.237, -7.763e-5
-1.236, -8.002e-5
-1.235, -8.111e-5
-1.234, -8.165e-5
-1.233, -8.399e-5
-1.232, -8.587e-5
-1.231, -8.801e-5
-1.230, -8.836e-5
-1.229, -9.018e-5
-1.228, -9.291e-5
-1.227, -9.545e-5
-1.226, -9.563e-5
-1.225, -9.533e-5
-1.224, -9.570e-5
-1.223, -9.916e-5
-1.222, -1.004e-4
-1.221, -1.014e-4
-1.220, -1.027e-4
-1.219, -1.036e-4
-1.218, -1.045e-4
-1.217, -1.061e-4
-1.216, -1.071e-4
-1.215, -1.081e-4
-1.214, -1.091e-4
-1.213, -1.106e-4
-1.212, -1.119e-4
-1.211, -1.131e-4
-1.210, -1.134e-4
-1.209, -1.147e-4
-1.208, -1.149e-4
-1.207, -1.160e-4
-1.206, -1.186e-4
-1.205, -1.284e-4
-1.204, -1.212e-4
-1.203, -1.209e-4
-1.202, -1.235e-4
-1.201, -1.225e-4
-1.200, -1.235e-4
-1.199, -1.237e-4
-1.198, -1.245e-4
-1.197, -1.252e-4
-1.196, -1.263e-4
-1.195, -1.279e-4
-1.194, -1.270e-4
-1.193, -1.282e-4
-1.192, -1.300e-4
-1.191, -1.306e-4
-1.190, -1.317e-4
-1.189, -1.316e-4
-1.188, -1.316e-4
-1.187, -1.336e-4
-1.186, -1.342e-4
-1.185, -1.350e-4
-1.184, -1.349e-4
-1.183, -1.357e-4
-1.182, -1.376e-4
-1.181, -1.384e-4
-1.180, -1.394e-4
-1.179, -1.388e-4
-1.178, -1.400e-4
-1.177, -1.412e-4
-1.176, -1.423e-4
-1.175, -1.420e-4
-1.174, -1.429e-4
-1.173, -1.433e-4
-1.172, -1.448e-4
-1.171, -1.456e-4
-1.170, -1.457e-4
-1.169, -1.456e-4
-1.168, -1.476e-4
-1.167, -1.480e-4
-1.166, -1.495e-4
-1.165, -1.496e-4
-1.164, -1.492e-4
-1.163, -1.508e-4
-1.162, -1.517e-4
-1.161, -1.532e-4
-1.160, -1.534e-4
-1.159, -1.537e-4
-1.158, -1.548e-4
-1.157, -1.556e-4
-1.156, -1.567e-4
-1.155, -1.573e-4
-1.154, -1.578e-4
-1.153, -1.585e-4
-1.152, -1.599e-4
-1.151, -1.602e-4
-1.150, -1.618e-4
-1.149, -1.614e-4
-1.148, -1.630e-4
-1.147, -1.641e-4
-1.146, -1.666e-4
-1.145, -1.693e-4
-1.144, -1.654e-4
-1.143, -1.680e-4
-1.142, -1.692e-4
-1.141, -1.702e-4
-1.140, -1.707e-4
-1.139, -1.727e-4
-1.138, -1.728e-4
-1.137, -1.744e-4
-1.136, -1.755e-4
-1.135, -1.764e-4
-1.134, -1.767e-4
-1.133, -1.771e-4
-1.132, -1.793e-4
-1.131, -1.806e-4
-1.130, -1.821e-4
-1.129, -1.827e-4
-1.128, -1.844e-4
-1.127, -1.868e-4
-1.126, -1.886e-4
-1.125, -1.896e-4
-1.124, -1.919e-4
-1.123, -1.937e-4
-1.122, -1.964e-4
-1.121, -2.004e-4
-1.120, -2.029e-4
-1.119, -2.106e-4
-1.118, -2.148e-4
-1.117, -2.225e-4
-1.116, -2.299e-4
-1.115, -2.434e-4
-1.114, -2.506e-4
-1.113, -2.606e-4
-1.112, -2.797e-4
-1.111, -2.942e-4
-1.110, -3.078e-4
-1.109, -3.273e-4
-1.108, -3.441e-4
-1.107, -3.622e-4
-1.106, -3.809e-4
-1.105, -4.003e-4
-1.104, -4.162e-4
-1.103, -4.362e-4
-1.102, -4.505e-4
-1.101, -4.696e-4
-1.100, -4.850e-4
-1.099, -5.018e-4
-1.098, -5.154e-4
-1.097, -5.300e-4
-1.096, -5.417e-4
-1.095, -5.555e-4
-1.094, -5.670e-4
-1.093, -5.778e-4
-1.092, -5.929e-4
-1.091, -6.010e-4
-1.090, -6.080e-4
-1.089, -6.199e-4
-1.088, -6.278e-4
-1.087, -6.360e-4
-1.086, -6.484e-4
-1.085, -6.574e-4
-1.084, -6.665e-4
-1.083, -6.773e-4
-1.082, -6.835e-4
-1.081, -6.946e-4
-1.080, -6.990e-4
-1.079, -7.059e-4
-1.078, -7.157e-4
-1.077, -7.290e-4
-1.076, -7.352e-4
-1.075, -7.417e-4
-1.074, -7.491e-4
-1.073, -7.602e-4
-1.072, -7.640e-4
-1.071, -7.745e-4
-1.070, -7.830e-4
-1.069, -7.910e-4
-1.068, -7.965e-4
-1.067, -8.039e-4
-1.066, -8.130e-4
-1.065, -8.193e-4
-1.064, -8.261e-4
-1.063, -8.348e-4
-1.062, -8.411e-4
-1.061, -8.469e-4
-1.060, -8.546e-4
-1.059, -8.584e-4
-1.058, -8.674e-4
-1.057, -8.778e-4
-1.056, -8.767e-4
-1.055, -8.919e-4
-1.054, -8.927e-4
-1.053, -9.052e-4
-1.052, -9.058e-4
-1.051, -9.132e-4
-1.050, -9.193e-4
-1.049, -9.247e-4
-1.048, -9.260e-4
-1.047, -9.382e-4
-1.046, -9.410e-4
-1.045, -9.445e-4
-1.044, -9.541e-4
-1.043, -9.605e-4
-1.042, -9.619e-4
-1.041, -9.675e-4
-1.040, -9.723e-4
-1.039, -9.782e-4
-1.038, -9.827e-4
-1.037, -9.876e-4
-1.036, -9.940e-4
-1.035, -9.945e-4
-1.034, -1.001e-3
-1.033, -1.003e-3
-1.032, -1.014e-3
-1.031, -1.015e-3
-1.030, -1.020e-3
-1.029, -1.020e-3
-1.028, -1.030e-3
-1.027, -1.033e-3
-1.026, -1.036e-3
-1.025, -1.037e-3
-1.024, -1.041e-3
-1.023, -1.049e-3
-1.022, -1.046e-3
-1.021, -1.053e-3
-1.020, -1.056e-3
-1.019, -1.054e-3
-1.018, -1.065e-3
-1.017, -1.062e-3
-1.016, -1.080e-3
-1.015, -1.077e-3
-1.014, -1.076e-3
-1.013, -1.075e-3
-1.012, -1.082e-3
-1.011, -1.078e-3
-1.010, -1.082e-3
-1.009, -1.090e-3
-1.008, -1.091e-3
-1.007, -1.099e-3
-1.006, -1.097e-3
-1.005, -1.103e-3
-1.004, -1.105e-3
-1.003, -1.107e-3
-1.002, -1.107e-3
-1.001, -1.111e-3
-1.000, -1.036e-3
-1.001, -9.292e-4
-1.002, -8.585e-4
-1.003, -7.918e-4
-1.004, -7.396e-4
-1.005, -6.896e-4
-1.006, -6.423e-4
-1.007, -5.994e-4
-1.008, -5.602e-4
-1.009, -5.203e-4
-1.010, -4.854e-4
-1.011, -4.493e-4
-1.012, -4.210e-4
-1.013, -3.898e-4
-1.014, -3.631e-4
-1.015, -3.394e-4
-1.016, -3.116e-4
-1.017, -2.891e-4
-1.018, -2.652e-4
-1.019, -2.459e-4
-1.020, -2.251e-4
-1.021, -2.050e-4
-1.022, -1.892e-4
-1.023, -1.719e-4
-1.024, -1.555e-4
-1.025, -1.407e-4
-1.026, -1.247e-4
-1.027, -1.111e-4
-1.028, -9.931e-5
-1.029, -8.673e-5
-1.030, -7.321e-5
-1.031, -6.248e-5
-1.032, -5.182e-5
-1.033, -4.206e-5
-1.034, -3.230e-5
-1.035, -2.304e-5
-1.036, -1.294e-5
-1.037, -4.823e-6
-1.038, 2.849e-6
-1.039, 1.045e-5
-1.040, 1.788e-5
-1.041, 2.611e-5
-1.042, 3.253e-5
-1.043, 3.853e-5
-1.044, 4.464e-5
-1.045, 5.066e-5
-1.046, 5.719e-5
-1.047, 6.264e-5
-1.048, 6.713e-5
-1.049, 7.221e-5
-1.050, 7.752e-5
-1.051, 8.293e-5
-1.052, 8.787e-5
-1.053, 9.066e-5
-1.054, 9.548e-5
-1.055, 9.954e-5
-1.056, 1.038e-4
-1.057, 1.077e-4
-1.058, 1.116e-4
-1.059, 1.146e-4
-1.060, 1.183e-4
-1.061, 1.219e-4
-1.062, 1.257e-4
-1.063, 1.282e-4
-1.064, 1.308e-4
-1.065, 1.345e-4
-1.066, 1.382e-4
-1.067, 1.406e-4
-1.068, 1.433e-4
-1.069, 1.460e-4
-1.070, 1.489e-4
-1.071, 1.525e-4
-1.072, 1.543e-4
-1.073, 1.568e-4
-1.074, 1.595e-4
-1.075, 1.625e-4
-1.076, 1.661e-4
-1.077, 1.677e-4
-1.078, 1.698e-4
-1.079, 1.726e-4
-1.080, 1.738e-4
-1.081, 1.777e-4
-1.082, 1.800e-4
-1.083, 1.811e-4
-1.084, 1.840e-4
-1.085, 1.877e-4
-1.086, 1.887e-4
-1.087, 1.918e-4
-1.088, 1.933e-4
-1.089, 1.954e-4
-1.090, 1.980e-4
-1.091, 2.012e-4
-1.092, 2.047e-4
-1.093, 2.051e-4
-1.094, 2.074e-4
-1.095, 2.099e-4
-1.096, 2.134e-4
-1.097, 2.145e-4
-1.098, 2.169e-4
-1.099, 2.182e-4
-1.100, 2.214e-4
-1.101, 2.246e-4
-1.102, 2.268e-4
-1.103, 2.284e-4
-1.104, 2.307e-4
-1.105, 2.319e-4
-1.106, 2.376e-4
-1.107, 2.378e-4
-1.108, 2.411e-4
-1.109, 2.424e-4
-1.110, 2.463e-4
-1.111, 2.488e-4
-1.112, 2.496e-4
-1.113, 2.540e-4
-1.114, 2.554e-4
-1.115, 2.596e-4
-1.116, 2.620e-4
-1.117, 2.651e-4
-1.118, 2.670e-4
-1.119, 2.688e-4
-1.120, 2.720e-4
-1.121, 2.757e-4
-1.122, 2.783e-4
-1.123, 2.807e-4
-1.124, 2.830e-4
-1.125, 2.881e-4
-1.126, 2.908e-4
-1.127, 2.941e-4
-1.128, 2.963e-4
-1.129, 2.986e-4
-1.130, 3.030e-4
-1.131, 3.064e-4
-1.132, 3.106e-4
-1.133, 3.113e-4
-1.134, 3.161e-4
-1.135, 3.189e-4
-1.136, 3.235e-4
-1.137, 3.271e-4
-1.138, 3.301e-4
-1.139, 3.318e-4
-1.140, 3.377e-4
-1.141, 3.407e-4
-1.142, 3.453e-4
-1.143, 3.487e-4
-1.144, 3.518e-4
-1.145, 3.568e-4
-1.146, 3.607e-4
-1.147, 3.642e-4
-1.148, 3.687e-4
-1.149, 3.716e-4
-1.150, 3.748e-4
-1.151, 3.829e-4
-1.152, 3.863e-4
-1.153, 3.868e-4
-1.154, 3.935e-4
-1.155, 3.990e-4
-1.156, 4.055e-4
-1.157, 4.073e-4
-1.158, 4.124e-4
-1.159, 4.160e-4
-1.160, 4.226e-4
-1.161, 4.230e-4
-1.162, 4.356e-4
-1.163, 4.339e-4
-1.164, 4.432e-4
-1.165, 4.461e-4
-1.166, 4.533e-4
-1.167, 4.556e-4
-1.168, 4.610e-4
-1.169, 4.656e-4
-1.170, 4.720e-4
-1.171, 4.780e-4
-1.172, 4.841e-4
-1.173, 4.882e-4
-1.174, 4.944e-4
-1.175, 4.998e-4
-1.176, 5.080e-4
-1.177, 5.116e-4
-1.178, 5.185e-4
-1.179, 5.220e-4
-1.180, 5.289e-4
-1.181, 5.369e-4
-1.182, 5.425e-4
-1.183, 5.477e-4
-1.184, 5.525e-4
-1.185, 5.587e-4
-1.186, 5.666e-4
-1.187, 5.751e-4
-1.188, 5.792e-4
-1.189, 5.858e-4
-1.190, 5.962e-4
-1.191, 5.982e-4
-1.192, 6.062e-4
-1.193, 6.095e-4
-1.194, 6.183e-4
-1.195, 6.251e-4
-1.196, 6.336e-4
-1.197, 6.417e-4
-1.198, 6.465e-4
-1.199, 6.558e-4
-1.200, 6.609e-4
-1.201, 6.692e-4
-1.202, 6.786e-4
-1.203, 6.802e-4
-1.204, 6.902e-4
-1.205, 6.983e-4
-1.206, 7.058e-4
-1.207, 7.130e-4
-1.208, 7.221e-4
-1.209, 7.273e-4
-1.210, 7.343e-4
-1.211, 7.416e-4
-1.212, 7.484e-4
-1.213, 7.597e-4
-1.214, 7.656e-4
-1.215, 7.726e-4
-1.216, 7.809e-4
-1.217, 7.896e-4
-1.218, 7.941e-4
-1.219, 8.005e-4
-1.220, 8.076e-4
-1.221, 8.178e-4
-1.222, 8.235e-4
-1.223, 8.343e-4
-1.224, 8.355e-4
-1.225, 8.471e-4
-1.226, 8.512e-4
-1.227, 8.582e-4
-1.228, 8.612e-4
-1.229, 8.765e-4
-1.230, 8.785e-4
-1.231, 8.874e-4
-1.232, 8.929e-4
-1.233, 8.958e-4
-1.234, 8.965e-4
-1.235, 9.027e-4
-1.236, 9.124e-4
-1.237, 9.176e-4
-1.238, 9.191e-4
-1.239, 9.255e-4
-1.240, 9.251e-4
-1.241, 9.343e-4
-1.242, 9.354e-4
-1.243, 9.321e-4
-1.244, 9.340e-4
-1.245, 9.387e-4
-1.246, 9.343e-4
-1.247, 9.388e-4
-1.248, 9.313e-4
-1.249, 9.372e-4
-1.250, 9.314e-4
-1.251, 9.338e-4
-1.252, 9.226e-4
-1.253, 9.247e-4
-1.254, 9.182e-4
-1.255, 9.071e-4
-1.256, 9.073e-4
-1.257, 8.947e-4
-1.258, 8.912e-4
-1.259, 8.730e-4
-1.260, 8.758e-4
-1.261, 8.607e-4
-1.262, 8.519e-4
-1.263, 8.357e-4
-1.264, 8.246e-4
-1.265, 8.053e-4
-1.266, 7.910e-4
-1.267, 7.819e-4
-1.268, 7.651e-4
-1.269, 7.480e-4
-1.270, 7.342e-4
-1.271, 7.201e-4
-1.272, 6.970e-4
-1.273, 6.799e-4
-1.274, 6.618e-4
-1.275, 6.470e-4
-1.276, 6.281e-4
-1.277, 6.062e-4
-1.278, 5.928e-4
-1.279, 5.744e-4
-1.280, 5.601e-4
-1.281, 5.404e-4
-1.282, 5.253e-4
-1.283, 5.092e-4
-1.284, 4.916e-4
-1.285, 4.792e-4
-1.286, 4.659e-4
-1.287, 4.533e-4
-1.288, 4.401e-4
-1.289, 4.304e-4
-1.290, 4.175e-4
-1.291, 4.113e-4
-1.292, 4.017e-4
-1.293, 3.928e-4
-1.294, 3.885e-4
-1.295, 3.811e-4
-1.296, 3.804e-4
-1.297, 3.744e-4
-1.298, 3.717e-4
-1.299, 3.712e-4
-1.300, 3.693e-4
-1.301, 3.693e-4
-1.302, 3.700e-4
-1.303, 3.701e-4
-1.304, 3.730e-4
-1.305, 3.753e-4
-1.306, 3.813e-4
-1.307, 3.810e-4
-1.308, 3.884e-4
-1.309, 3.917e-4
-1.310, 3.962e-4
-1.311, 4.013e-4
-1.312, 4.087e-4
-1.313, 4.137e-4
-1.314, 4.184e-4
-1.315, 4.280e-4
-1.316, 4.355e-4
-1.317, 4.419e-4
-1.318, 4.504e-4
-1.319, 4.567e-4
-1.320, 4.652e-4
-1.321, 4.745e-4
-1.322, 4.831e-4
-1.323, 4.922e-4
-1.324, 5.018e-4
-1.325, 5.103e-4
-1.326, 5.227e-4
-1.327, 5.294e-4
-1.328, 5.428e-4
-1.329, 5.507e-4
-1.330, 5.651e-4
-1.331, 5.755e-4
-1.332, 5.890e-4
-1.333, 5.988e-4
-1.334, 6.089e-4
-1.335, 6.214e-4
-1.336, 6.371e-4
-1.337, 6.494e-4
-1.338, 6.620e-4
-1.339, 6.760e-4
-1.340, 6.908e-4
-1.341, 7.041e-4
-1.342, 7.192e-4
-1.343, 7.339e-4
-1.344, 7.478e-4
-1.345, 7.639e-4
-1.346, 7.821e-4
-1.347, 7.954e-4
-1.348, 8.130e-4
-1.349, 8.301e-4
-1.350, 8.497e-4
-1.351, 8.618e-4
-1.352, 8.844e-4
-1.353, 8.998e-4
-1.354, 9.232e-4
-1.355, 9.315e-4
-1.356, 9.601e-4
-1.357, 9.770e-4
-1.358, 9.957e-4
-1.359, 1.012e-3
-1.360, 1.042e-3
-1.361, 1.064e-3
-1.362, 1.082e-3
-1.363, 1.104e-3
-1.364, 1.124e-3
-1.365, 1.150e-3
-1.366, 1.165e-3
-1.367, 1.187e-3
-1.368, 1.219e-3
-1.369, 1.243e-3
-1.370, 1.255e-3
-1.371, 1.290e-3
-1.372, 1.315e-3
-1.373, 1.336e-3
-1.374, 1.363e-3
-1.375, 1.385e-3
-1.376, 1.415e-3
-1.377, 1.447e-3
-1.378, 1.462e-3
-1.379, 1.493e-3
-1.380, 1.523e-3
-1.381, 1.552e-3
-1.382, 1.576e-3
-1.383, 1.605e-3
-1.384, 1.635e-3
-1.385, 1.662e-3
-1.386, 1.692e-3
-1.387, 1.720e-3
-1.388, 1.748e-3
-1.389, 1.787e-3
-1.390, 1.807e-3
-1.391, 1.855e-3
-1.392, 1.866e-3
-1.393, 1.917e-3
-1.394, 1.925e-3
-1.395, 1.975e-3
-1.396, 2.004e-3
-1.397, 2.030e-3
-1.398, 2.063e-3
-1.399, 2.101e-3
-1.400, 2.134e-3
-1.401, 2.171e-3
-1.402, 2.203e-3
-1.403, 2.241e-3
-1.404, 2.267e-3
-1.405, 2.308e-3
-1.406, 2.345e-3
-1.407, 2.374e-3
-1.408, 2.412e-3
-1.409, 2.439e-3
-1.410, 2.484e-3
-1.411, 2.511e-3
-1.412, 2.559e-3
-1.413, 2.582e-3
-1.414, 2.635e-3
-1.415, 2.666e-3
-1.416, 2.696e-3
-1.417, 2.753e-3
-1.418, 2.782e-3
-1.419, 2.809e-3
-1.420, 2.850e-3
-1.421, 2.895e-3
-1.422, 2.937e-3
-1.423, 2.966e-3
-1.424, 3.013e-3
-1.425, 3.048e-3
-1.426, 3.091e-3
-1.427, 3.131e-3
-1.428, 3.162e-3
-1.429, 3.211e-3
-1.430, 3.250e-3
-1.431, 3.300e-3
-1.432, 3.351e-3
-1.433, 3.378e-3
-1.434, 3.428e-3
-1.435, 3.467e-3
-1.436, 3.514e-3
-1.437, 3.545e-3
-1.438, 3.585e-3
-1.439, 3.617e-3
-1.440, 3.664e-3
-1.441, 3.689e-3
-1.442, 3.720e-3
-1.443, 3.765e-3
-1.444, 3.808e-3
-1.445, 3.863e-3
-1.446, 3.891e-3
-1.447, 3.937e-3
-1.448, 3.967e-3
-1.449, 4.011e-3
-1.450, 4.045e-3
-1.451, 4.082e-3
-1.452, 4.130e-3
-1.453, 4.215e-3
-1.454, 4.231e-3
-1.455, 4.270e-3
-1.456, 4.326e-3
-1.457, 4.386e-3
-1.458, 4.415e-3
-1.459, 4.456e-3
-1.460, 4.503e-3
-1.461, 4.544e-3
-1.462, 4.579e-3
-1.463, 4.622e-3
-1.464, 4.697e-3
-1.465, 4.729e-3
-1.466, 4.761e-3
-1.467, 4.789e-3
-1.468, 4.853e-3
-1.469, 4.877e-3
-1.470, 4.908e-3
-1.471, 4.982e-3
-1.472, 5.026e-3
-1.473, 5.055e-3
-1.474, 5.110e-3
-1.475, 5.144e-3
-1.476, 5.218e-3
-1.477, 5.242e-3
-1.478, 5.277e-3
-1.479, 5.372e-3
-1.480, 5.437e-3
-1.481, 5.465e-3
-1.482, 5.487e-3
-1.483, 5.530e-3
-1.484, 5.609e-3
-1.485, 5.623e-3
-1.486, 5.696e-3
-1.487, 5.717e-3
-1.488, 5.789e-3
-1.489, 5.809e-3
-1.490, 5.884e-3
-1.491, 5.902e-3
-1.492, 5.940e-3
-1.493, 5.984e-3
-1.494, 6.045e-3
-1.495, 6.067e-3
-1.496, 6.193e-3
-1.497, 6.244e-3
-1.498, 6.262e-3
-1.499, 6.282e-3
-1.500, 6.280e-3
-1.499, 6.206e-3
-1.498, 6.146e-3
-1.497, 6.080e-3
-1.496, 6.027e-3
-1.495, 6.015e-3
-1.494, 5.922e-3
-1.493, 5.879e-3
-1.492, 5.951e-3
-1.491, 5.848e-3
-1.490, 5.783e-3
-1.489, 5.703e-3
-1.488, 5.684e-3
-1.487, 5.606e-3
-1.486, 5.550e-3
-1.485, 5.515e-3
-1.484, 5.459e-3
-1.483, 5.409e-3
-1.482, 5.345e-3
-1.481, 5.295e-3
-1.480, 5.216e-3
-1.479, 5.159e-3
-1.478, 5.092e-3
-1.477, 5.045e-3
-1.476, 4.976e-3
-1.475, 4.938e-3
-1.474, 4.878e-3
-1.473, 4.856e-3
-1.472, 4.810e-3
-1.471, 4.749e-3
-1.470, 4.694e-3
-1.469, 4.637e-3
-1.468, 4.574e-3
-1.467, 4.522e-3
-1.466, 4.460e-3
-1.465, 4.400e-3
-1.464, 4.342e-3
-1.463, 4.282e-3
-1.462, 4.256e-3
-1.461, 4.212e-3
-1.460, 4.161e-3
-1.459, 4.090e-3
-1.458, 4.040e-3
-1.457, 3.988e-3
-1.456, 3.941e-3
-1.455, 3.889e-3
-1.454, 3.854e-3
-1.453, 3.805e-3
-1.452, 3.752e-3
-1.451, 3.791e-3
-1.450, 3.764e-3
-1.449, 3.716e-3
-1.448, 3.716e-3
-1.447, 3.648e-3
-1.446, 3.625e-3
-1.445, 3.542e-3
-1.444, 3.525e-3
-1.443, 3.475e-3
-1.442, 3.437e-3
-1.441, 3.395e-3
-1.440, 3.334e-3
-1.439, 3.292e-3
-1.438, 3.242e-3
-1.437, 3.198e-3
-1.436, 3.153e-3
-1.435, 3.102e-3
-1.434, 3.054e-3
-1.433, 3.017e-3
-1.432, 3.026e-3
-1.431, 2.971e-3
-1.430, 2.925e-3
-1.429, 2.904e-3
-1.428, 2.852e-3
-1.427, 2.812e-3
-1.426, 2.770e-3
-1.425, 2.743e-3
-1.424, 2.703e-3
-1.423, 2.666e-3
-1.422, 2.629e-3
-1.421, 2.602e-3
-1.420, 2.555e-3
-1.419, 2.549e-3
-1.418, 2.533e-3
-1.417, 2.455e-3
-1.416, 2.430e-3
-1.415, 2.391e-3
-1.414, 2.347e-3
-1.413, 2.314e-3
-1.412, 2.325e-3
-1.411, 2.235e-3
-1.410, 2.214e-3
-1.409, 2.177e-3
-1.408, 2.151e-3
-1.407, 2.116e-3
-1.406, 2.086e-3
-1.405, 2.043e-3
-1.404, 2.007e-3
-1.403, 1.990e-3
-1.402, 1.947e-3
-1.401, 1.921e-3
-1.400, 1.886e-3
-1.399, 1.869e-3
-1.398, 1.829e-3
-1.397, 1.801e-3
-1.396, 1.766e-3
-1.395, 1.733e-3
-1.394, 1.707e-3
-1.393, 1.678e-3
-1.392, 1.647e-3
-1.391, 1.618e-3
-1.390, 1.588e-3
-1.389, 1.565e-3
-1.388, 1.540e-3
-1.387, 1.546e-3
-1.386, 1.505e-3
-1.385, 1.475e-3
-1.384, 1.446e-3
-1.383, 1.416e-3
-1.382, 1.390e-3
-1.381, 1.368e-3
-1.380, 1.346e-3
-1.379, 1.329e-3
-1.378, 1.286e-3
-1.377, 1.273e-3
-1.376, 1.246e-3
-1.375, 1.220e-3
-1.374, 1.197e-3
-1.373, 1.174e-3
-1.372, 1.155e-3
-1.371, 1.127e-3
-1.370, 1.102e-3
-1.369, 1.087e-3
-1.368, 1.064e-3
-1.367, 1.041e-3
-1.366, 1.021e-3
-1.365, 9.996e-4
-1.364, 9.767e-4
-1.363, 9.576e-4
-1.362, 9.410e-4
-1.361, 9.235e-4
-1.360, 9.031e-4
-1.359, 8.845e-4
-1.358, 8.654e-4
-1.357, 8.430e-4
-1.356, 8.252e-4
-1.355, 8.058e-4
-1.354, 7.881e-4
-1.353, 7.717e-4
-1.352, 7.521e-4
-1.351, 7.350e-4
-1.350, 7.176e-4
-1.349, 7.036e-4
-1.348, 6.853e-4
-1.347, 6.737e-4
-1.346, 6.602e-4
-1.345, 6.423e-4
-1.344, 6.270e-4
-1.343, 6.113e-4
-1.342, 5.929e-4
-1.341, 5.786e-4
-1.340, 5.660e-4
-1.339, 5.518e-4
-1.338, 5.347e-4
-1.337, 5.227e-4
-1.336, 5.108e-4
-1.335, 4.936e-4
-1.334, 4.808e-4
-1.333, 4.666e-4
-1.332, 4.546e-4
-1.331, 4.419e-4
-1.330, 4.304e-4
-1.329, 4.203e-4
-1.328, 4.069e-4
-1.327, 3.943e-4
-1.326, 3.824e-4
-1.325, 3.729e-4
-1.324, 3.638e-4
-1.323, 3.503e-4
-1.322, 3.386e-4
-1.321, 3.274e-4
-1.320, 3.195e-4
-1.319, 3.091e-4
-1.318, 2.985e-4
-1.317, 2.885e-4
-1.316, 2.780e-4
-1.315, 2.756e-4
-1.314, 2.778e-4
-1.313, 2.565e-4
-1.312, 2.459e-4
-1.311, 2.337e-4
-1.310, 2.251e-4
-1.309, 2.184e-4
-1.308, 2.098e-4
-1.307, 2.010e-4
-1.306, 1.938e-4
-1.305, 1.860e-4
-1.304, 1.786e-4
-1.303, 1.706e-4
-1.302, 1.635e-4
-1.301, 1.566e-4
-1.300, 1.493e-4
-1.299, 1.429e-4
-1.298, 1.348e-4
-1.297, 1.275e-4
-1.296, 1.210e-4
-1.295, 1.176e-4
-1.294, 1.100e-4
-1.293, 1.048e-4
-1.292, 9.871e-5
-1.291, 9.334e-5
-1.290, 8.743e-5
-1.289, 8.146e-5
-1.288, 7.656e-5
-1.287, 7.053e-5
-1.286, 6.580e-5
-1.285, 6.132e-5
-1.284, 5.634e-5
-1.283, 5.140e-5
-1.282, 4.650e-5
-1.281, 4.205e-5
-1.280, 3.755e-5
-1.279, 3.387e-5
-1.278, 2.873e-5
-1.277, 2.462e-5
-1.276, 2.056e-5
-1.275, 1.743e-5
-1.274, 1.363e-5
-1.273, 9.145e-6
-1.272, 5.363e-6
-1.271, 1.933e-6
-1.270, -1.223e-6
-1.269, -4.116e-6
-1.268, -8.316e-6
-1.267, -1.181e-5
-1.266, -1.454e-5
-1.265, -1.742e-5
-1.264, -2.001e-5
-1.263, -2.365e-5
-1.262, -2.676e-5
-1.261, -2.931e-5
-1.260, -3.169e-5
-1.259, -3.417e-5
-1.258, -3.729e-5
-1.257, -4.000e-5
-1.256, -4.220e-5
-1.255, -4.471e-5
-1.254, -4.710e-5
-1.253, -4.945e-5
-1.252, -5.183e-5
-1.251, -5.400e-5
-1.250, -5.502e-5
-1.249, -5.789e-5
-1.248, -5.958e-5
-1.247, -6.229e-5
-1.246, -6.430e-5
-1.245, -6.534e-5
-1.244, -6.701e-5
-1.243, -6.936e-5
-1.242, -7.134e-5
-1.241, -7.304e-5
-1.240, -7.402e-5
-1.239, -7.530e-5
-1.238, -7.766e-5
-1.237, -7.939e-5
-1.236, -8.116e-5
-1.235, -8.225e-5
-1.234, -8.308e-5
-1.233, -8.504e-5
-1.232, -8.680e-5
-1.231, -8.781e-5
-1.230, -8.853e-5
-1.229, -9.122e-5
-1.228, -9.249e-5
-1.227, -9.378e-5
-1.226, -9.452e-5
-1.225, -9.531e-5
-1.224, -9.576e-5
-1.223, -9.777e-5
-1.222, -1.075e-4
-1.221, -1.024e-4
-1.220, -1.009e-4
-1.219, -1.041e-4
-1.218, -1.030e-4
-1.217, -1.049e-4
-1.216, -1.063e-4
-1.215, -1.054e-4
-1.214, -1.074e-4
-1.213, -1.080e-4
-1.212, -1.094e-4
-1.211, -1.102e-4
-1.210, -1.098e-4
-1.209, -1.106e-4
-1.208, -1.123e-4
-1.207, -1.133e-4
-1.206, -1.141e-4
-1.205, -1.147e-4
-1.204, -1.153e-4
-1.203, -1.166e-4
-1.202, -1.168e-4
-1.201, -1.189e-4
-1.200, -1.193e-4
-1.199, -1.166e-4
-1.198, -1.209e-4
-1.197, -1.214e-4
-1.196, -1.210e-4
-1.195, -1.223e-4
-1.194, -1.247e-4
-1.193, -1.255e-4
-1.192, -1.244e-4
-1.191, -1.262e-4
-1.190, -1.259e-4
-1.189, -1.258e-4
-1.188, -1.275e-4
-1.187, -1.279e-4
-1.186, -1.284e-4
-1.185, -1.290e-4
-1.184, -1.299e-4
-1.183, -1.307e-4
-1.182, -1.320e-4
-1.181, -1.317e-4
-1.180, -1.314e-4
-1.179, -1.327e-4
-1.178, -1.335e-4
-1.177, -1.357e-4
-1.176, -1.347e-4
-1.175, -1.347e-4
-1.174, -1.370e-4
-1.173, -1.396e-4
-1.172, -1.389e-4
-1.171, -1.397e-4
-1.170, -1.381e-4
-1.169, -1.395e-4
-1.168, -1.415e-4
-1.167, -1.407e-4
-1.166, -1.415e-4
-1.165, -1.422e-4
-1.164, -1.420e-4
-1.163, -1.447e-4
-1.162, -1.448e-4
-1.161, -1.462e-4
-1.160, -1.439e-4
-1.159, -1.466e-4
-1.158, -1.466e-4
-1.157, -1.492e-4
-1.156, -1.490e-4
-1.155, -1.491e-4
-1.154, -1.498e-4
-1.153, -1.507e-4
-1.152, -1.526e-4
-1.151, -1.520e-4
-1.150, -1.533e-4
-1.149, -1.537e-4
-1.148, -1.550e-4
-1.147, -1.569e-4
-1.146, -1.568e-4
-1.145, -1.578e-4
-1.144, -1.570e-4
-1.143, -1.587e-4
-1.142, -1.601e-4
-1.141, -1.609e-4
-1.140, -1.606e-4
-1.139, -1.622e-4
-1.138, -1.651e-4
-1.137, -1.634e-4
-1.136, -1.685e-4
-1.135, -1.654e-4
-1.134, -1.660e-4
-1.133, -1.698e-4
-1.132, -1.684e-4
-1.131, -1.712e-4
-1.130, -1.705e-4
-1.129, -1.719e-4
-1.128, -1.752e-4
-1.127, -1.751e-4
-1.126, -1.775e-4
-1.125, -1.774e-4
-1.124, -1.796e-4
-1.123, -1.848e-4
-1.122, -1.835e-4
-1.121, -1.846e-4
-1.120, -1.902e-4
-1.119, -1.917e-4
-1.118, -1.990e-4
-1.117, -2.041e-4
-1.116, -2.091e-4
-1.115, -2.149e-4
-1.114, -2.244e-4
-1.113, -2.329e-4
-1.112, -2.427e-4
-1.111, -2.561e-4
-1.110, -2.685e-4
-1.109, -2.814e-4
-1.108, -2.986e-4
-1.107, -3.138e-4
-1.106, -3.294e-4
-1.105, -3.471e-4
-1.104, -3.613e-4
-1.103, -3.773e-4
-1.102, -4.004e-4
-1.101, -4.038e-4
-1.100, -4.277e-4
-1.099, -4.465e-4
-1.098, -4.522e-4
-1.097, -4.772e-4
-1.096, -4.841e-4
-1.095, -4.984e-4
-1.094, -5.083e-4
-1.093, -5.147e-4
-1.092, -5.278e-4
-1.091, -5.424e-4
-1.090, -5.476e-4
-1.089, -5.550e-4
-1.088, -5.707e-4
-1.087, -5.757e-4
-1.086, -5.840e-4
-1.085, -5.920e-4
-1.084, -5.985e-4
-1.083, -6.085e-4
-1.082, -6.121e-4
-1.081, -6.216e-4
-1.080, -6.227e-4
-1.079, -6.379e-4
-1.078, -6.447e-4
-1.077, -6.483e-4
-1.076, -6.579e-4
-1.075, -6.691e-4
-1.074, -6.687e-4
-1.073, -6.769e-4
-1.072, -6.855e-4
-1.071, -6.929e-4
-1.070, -6.950e-4
-1.069, -7.025e-4
-1.068, -7.161e-4
-1.067, -7.173e-4
-1.066, -7.253e-4
-1.065, -7.320e-4
-1.064, -7.349e-4
-1.063, -7.407e-4
-1.062, -7.458e-4
-1.061, -7.563e-4
-1.060, -7.645e-4
-1.059, -7.672e-4
-1.058, -7.787e-4
-1.057, -7.778e-4
-1.056, -7.863e-4
-1.055, -7.886e-4
-1.054, -7.968e-4
-1.053, -7.994e-4
-1.052, -8.047e-4
-1.051, -8.172e-4
-1.050, -8.180e-4
-1.049, -8.281e-4
-1.048, -8.271e-4
-1.047, -8.370e-4
-1.046, -8.400e-4
-1.045, -8.440e-4
-1.044, -8.476e-4
-1.043, -8.623e-4
-1.042, -8.590e-4
-1.041, -8.620e-4
-1.040, -8.660e-4
-1.039, -8.771e-4
-1.038, -8.874e-4
-1.037, -8.839e-4
-1.036, -9.115e-4
-1.035, -9.025e-4
-1.034, -9.100e-4
-1.033, -9.096e-4
-1.032, -9.107e-4
-1.031, -9.167e-4
-1.030, -9.159e-4
-1.029, -9.327e-4
-1.028, -9.290e-4
-1.027, -9.421e-4
-1.026, -9.562e-4
-1.025, -9.458e-4
-1.024, -9.584e-4
-1.023, -9.591e-4
-1.022, -9.630e-4
-1.021, -9.667e-4
-1.020, -9.704e-4
-1.019, -9.696e-4
-1.018, -9.837e-4
-1.017, -9.919e-4
-1.016, -9.898e-4
-1.015, -9.988e-4
-1.014, -1.002e-3
-1.013, -9.914e-4
-1.012, -1.015e-3
-1.011, -1.008e-3
-1.010, -1.017e-3
-1.009, -1.036e-3
-1.008, -1.037e-3
-1.007, -1.038e-3
-1.006, -1.038e-3
-1.005, -1.048e-3
-1.004, -1.040e-3
-1.003, -1.054e-3
-1.002, -1.060e-3
-1.001, -1.050e-3
-1.000, -9.953e-4
-1.001, -8.964e-4
-1.002, -8.233e-4
-1.003, -7.501e-4
-1.004, -7.114e-4
-1.005, -6.514e-4
-1.006, -6.158e-4
-1.007, -5.650e-4
-1.008, -5.335e-4
-1.009, -4.903e-4
-1.010, -4.580e-4
-1.011, -4.294e-4
-1.012, -3.978e-4
-1.013, -3.694e-4
-1.014, -3.412e-4
-1.015, -3.195e-4
-1.016, -2.943e-4
-1.017, -2.719e-4
-1.018, -2.493e-4
-1.019, -2.281e-4
-1.020, -2.094e-4
-1.021, -1.910e-4
-1.022, -1.752e-4
-1.023, -1.603e-4
-1.024, -1.426e-4
-1.025, -1.268e-4
-1.026, -1.159e-4
-1.027, -1.002e-4
-1.028, -8.722e-5
-1.029, -7.616e-5
-1.030, -6.315e-5
-1.031, -5.320e-5
-1.032, -4.328e-5
-1.033, -3.349e-5
-1.034, -2.330e-5
-1.035, -1.508e-5
-1.036, -5.402e-6
-1.037, 1.829e-6
-1.038, 9.994e-6
-1.039, 1.824e-5
-1.040, 2.495e-5
-1.041, 3.172e-5
-1.042, 3.782e-5
-1.043, 4.401e-5
-1.044, 5.086e-5
-1.045, 5.688e-5
-1.046, 6.167e-5
-1.047, 6.691e-5
-1.048, 7.177e-5
-1.049, 7.719e-5
-1.050, 8.269e-5
-1.051, 8.606e-5
-1.052, 9.072e-5
-1.053, 9.537e-5
-1.054, 9.857e-5
-1.055, 1.043e-4
-1.056, 1.065e-4
-1.057, 1.094e-4
-1.058, 1.141e-4
-1.059, 1.176e-4
-1.060, 1.212e-4
-1.061, 1.247e-4
-1.062, 1.261e-4
-1.063, 1.303e-4
-1.064, 1.332e-4
-1.065, 1.360e-4
-1.066, 1.393e-4
-1.067, 1.417e-4
-1.068, 1.450e-4
-1.069, 1.475e-4
-1.070, 1.507e-4
-1.071, 1.519e-4
-1.072, 1.546e-4
-1.073, 1.574e-4
-1.074, 1.592e-4
-1.075, 1.645e-4
-1.076, 1.659e-4
-1.077, 1.672e-4
-1.078, 1.700e-4
-1.079, 1.729e-4
-1.080, 1.739e-4
-1.081, 1.764e-4
-1.082, 1.789e-4
-1.083, 1.822e-4
-1.084, 1.841e-4
-1.085, 1.851e-4
-1.086, 1.882e-4
-1.087, 1.889e-4
-1.088, 1.924e-4
-1.089, 1.950e-4
-1.090, 1.976e-4
-1.091, 1.990e-4
-1.092, 2.009e-4
-1.093, 2.037e-4
-1.094, 2.044e-4
-1.095, 2.088e-4
-1.096, 2.113e-4
-1.097, 2.118e-4
-1.098, 2.122e-4
-1.099, 2.164e-4
-1.100, 2.196e-4
-1.101, 2.236e-4
-1.102, 2.241e-4
-1.103, 2.257e-4
-1.104, 2.293e-4
-1.105, 2.309e-4
-1.106, 2.335e-4
-1.107, 2.333e-4
-1.108, 2.371e-4
-1.109, 2.405e-4
-1.110, 2.432e-4
-1.111, 2.438e-4
-1.112, 2.447e-4
-1.113, 2.516e-4
-1.114, 2.525e-4
-1.115, 2.565e-4
-1.116, 2.579e-4
-1.117, 2.607e-4
-1.118, 2.648e-4
-1.119, 2.639e-4
-1.120, 2.672e-4
-1.121, 2.706e-4
-1.122, 2.736e-4
-1.123, 2.754e-4
-1.124, 2.793e-4
-1.125, 2.824e-4
-1.126, 2.850e-4
-1.127, 2.893e-4
-1.128, 2.914e-4
-1.129, 2.942e-4
-1.130, 2.973e-4
-1.131, 2.992e-4
-1.132, 3.018e-4
-1.133, 3.074e-4
-1.134, 3.087e-4
-1.135, 3.136e-4
-1.136, 3.163e-4
-1.137, 3.209e-4
-1.138, 3.231e-4
-1.139, 3.270e-4
-1.140, 3.313e-4
-1.141, 3.331e-4
-1.142, 3.368e-4
-1.143, 3.396e-4
-1.144, 3.446e-4
-1.145, 3.476e-4
-1.146, 3.542e-4
-1.147, 3.511e-4
-1.148, 3.630e-4
-1.149, 3.644e-4
-1.150, 3.669e-4
-1.151, 3.749e-4
-1.152, 3.739e-4
-1.153, 3.799e-4
-1.154, 3.853e-4
-1.155, 3.851e-4
-1.156, 3.932e-4
-1.157, 3.965e-4
-1.158, 3.995e-4
-1.159, 4.046e-4
-1.160, 4.108e-4
-1.161, 4.143e-4
-1.162, 4.156e-4
-1.163, 4.239e-4
-1.164, 4.301e-4
-1.165, 4.338e-4
-1.166, 4.356e-4
-1.167, 4.403e-4
-1.168, 4.477e-4
-1.169, 4.519e-4
-1.170, 4.593e-4
-1.171, 4.606e-4
-1.172, 4.669e-4
-1.173, 4.704e-4
-1.174, 4.761e-4
-1.175, 4.825e-4
-1.176, 4.888e-4
-1.177, 4.894e-4
-1.178, 4.968e-4
-1.179, 5.058e-4
-1.180, 5.088e-4
-1.181, 5.142e-4
-1.182, 5.194e-4
-1.183, 5.234e-4
-1.184, 5.324e-4
-1.185, 5.371e-4
-1.186, 5.418e-4
-1.187, 5.474e-4
-1.188, 5.526e-4
-1.189, 5.610e-4
-1.190, 5.638e-4
-1.191, 5.728e-4
-1.192, 5.746e-4
-1.193, 5.834e-4
-1.194, 5.903e-4
-1.195, 5.974e-4
-1.196, 6.032e-4
-1.197, 6.059e-4
-1.198, 6.171e-4
-1.199, 6.202e-4
-1.200, 6.216e-4
-1.201, 6.306e-4
-1.202, 6.410e-4
-1.203, 6.389e-4
-1.204, 6.515e-4
-1.205, 6.612e-4
-1.206, 6.631e-4
-1.207, 6.696e-4
-1.208, 6.813e-4
-1.209, 6.815e-4
-1.210, 6.897e-4
-1.211, 6.880e-4
-1.212, 6.986e-4
-1.213, 7.039e-4
-1.214, 7.140e-4
-1.215, 7.193e-4
-1.216, 7.265e-4
-1.217, 7.301e-4
-1.218, 7.275e-4
-1.219, 7.502e-4
-1.220, 7.455e-4
-1.221, 7.566e-4
-1.222, 7.545e-4
-1.223, 7.671e-4
-1.224, 7.685e-4
-1.225, 7.705e-4
-1.226, 7.777e-4
-1.227, 7.813e-4
-1.228, 7.870e-4
-1.229, 7.972e-4
-1.230, 7.926e-4
-1.231, 8.059e-4
-1.232, 8.052e-4
-1.233, 8.105e-4
-1.234, 8.078e-4
-1.235, 8.136e-4
-1.236, 8.148e-4
-1.237, 8.132e-4
-1.238, 8.202e-4
-1.239, 8.253e-4
-1.240, 8.265e-4
-1.241, 8.228e-4
-1.242, 8.229e-4
-1.243, 8.229e-4
-1.244, 8.196e-4
-1.245, 8.190e-4
-1.246, 8.191e-4
-1.247, 8.158e-4
-1.248, 8.109e-4
-1.249, 8.120e-4
-1.250, 8.064e-4
-1.251, 8.035e-4
-1.252, 7.909e-4
-1.253, 7.855e-4
-1.254, 7.948e-4
-1.255, 7.806e-4
-1.256, 7.726e-4
-1.257, 7.568e-4
-1.258, 7.534e-4
-1.259, 7.425e-4
-1.260, 7.257e-4
-1.261, 7.209e-4
-1.262, 7.053e-4
-1.263, 6.952e-4
-1.264, 6.844e-4
-1.265, 6.746e-4
-1.266, 6.667e-4
-1.267, 6.392e-4
-1.268, 6.327e-4
-1.269, 6.165e-4
-1.270, 6.012e-4
-1.271, 5.901e-4
-1.272, 5.698e-4
-1.273, 5.565e-4
-1.274, 5.411e-4
-1.275, 5.247e-4
-1.276, 5.128e-4
-1.277, 4.956e-4
-1.278, 4.816e-4
-1.279, 4.725e-4
-1.280, 4.599e-4
-1.281, 4.426e-4
-1.282, 4.324e-4
-1.283, 4.236e-4
-1.284, 4.035e-4
-1.285, 3.966e-4
-1.286, 3.878e-4
-1.287, 3.763e-4
-1.288, 3.725e-4
-1.289, 3.612e-4
-1.290, 3.610e-4
-1.291, 3.520e-4
-1.292, 3.466e-4
-1.293, 3.396e-4
-1.294, 3.342e-4
-1.295, 3.386e-4
-1.296, 3.344e-4
-1.297, 3.265e-4
-1.298, 3.344e-4
-1.299, 3.333e-4
-1.300, 3.333e-4
-1.301, 3.353e-4
-1.302, 3.367e-4
-1.303, 3.386e-4
-1.304, 3.410e-4
-1.305, 3.431e-4
-1.306, 3.500e-4
-1.307, 3.533e-4
-1.308, 3.569e-4
-1.309, 3.632e-4
-1.310, 3.667e-4
-1.311, 3.734e-4
-1.312, 3.788e-4
-1.313, 3.838e-4
-1.314, 3.923e-4
-1.315, 3.955e-4
-1.316, 4.025e-4
-1.317, 4.129e-4
-1.318, 4.183e-4
-1.319, 4.293e-4
-1.320, 4.342e-4
-1.321, 4.404e-4
-1.322, 4.513e-4
-1.323, 4.567e-4
-1.324, 4.733e-4
-1.325, 4.726e-4
-1.326, 4.864e-4
-1.327, 4.987e-4
-1.328, 5.024e-4
-1.329, 5.225e-4
-1.330, 5.213e-4
-1.331, 5.373e-4
-1.332, 5.481e-4
-1.333, 5.603e-4
-1.334, 5.713e-4
-1.335, 5.842e-4
-1.336, 5.941e-4
-1.337, 6.072e-4
-1.338, 6.210e-4
-1.339, 6.322e-4
-1.340, 6.472e-4
-1.341, 6.609e-4
-1.342, 6.710e-4
-1.343, 6.898e-4
-1.344, 7.017e-4
-1.345, 7.172e-4
-1.346, 7.266e-4
-1.347, 7.489e-4
-1.348, 7.662e-4
-1.349, 7.778e-4
-1.350, 7.995e-4
-1.351, 8.143e-4
-1.352, 8.283e-4
-1.353, 8.452e-4
-1.354, 8.632e-4
-1.355, 8.798e-4
-1.356, 9.002e-4
-1.357, 9.191e-4
-1.358, 9.380e-4
-1.359, 9.571e-4
-1.360, 9.793e-4
-1.361, 1.005e-3
-1.362, 1.011e-3
-1.363, 1.043e-3
-1.364, 1.046e-3
-1.365, 1.093e-3
-1.366, 1.102e-3
-1.367, 1.122e-3
-1.368, 1.145e-3
-1.369, 1.163e-3
-1.370, 1.194e-3
-1.371, 1.211e-3
-1.372, 1.239e-3
-1.373, 1.264e-3
-1.374, 1.291e-3
-1.375, 1.307e-3
-1.376, 1.340e-3
-1.377, 1.360e-3
-1.378, 1.388e-3
-1.379, 1.412e-3
-1.380, 1.441e-3
-1.381, 1.457e-3
-1.382, 1.494e-3
-1.383, 1.519e-3
-1.384, 1.562e-3
-1.385, 1.584e-3
-1.386, 1.587e-3
-1.387, 1.643e-3
-1.388, 1.658e-3
-1.389, 1.688e-3
-1.390, 1.717e-3
-1.391, 1.757e-3
-1.392, 1.779e-3
-1.393, 1.805e-3
-1.394, 1.841e-3
-1.395, 1.872e-3
-1.396, 1.903e-3
-1.397, 1.920e-3
-1.398, 1.979e-3
-1.399, 1.983e-3
-1.400, 2.047e-3
-1.401, 2.056e-3
-1.402, 2.097e-3
-1.403, 2.127e-3
-1.404, 2.155e-3
-1.405, 2.192e-3
-1.406, 2.225e-3
-1.407, 2.253e-3
-1.408, 2.319e-3
-1.409, 2.354e-3
-1.410, 2.371e-3
-1.411, 2.412e-3
-1.412, 2.431e-3
-1.413, 2.480e-3
-1.414, 2.500e-3
-1.415, 2.534e-3
-1.416, 2.586e-3
-1.417, 2.603e-3
-1.418, 2.647e-3
-1.419, 2.697e-3
-1.420, 2.722e-3
-1.421, 2.776e-3
-1.422, 2.802e-3
-1.423, 2.842e-3
-1.424, 2.864e-3
-1.425, 2.923e-3
-1.426, 2.957e-3
-1.427, 2.999e-3
-1.428, 3.014e-3
-1.429, 3.060e-3
-1.430, 3.117e-3
-1.431, 3.128e-3
-1.432, 3.180e-3
-1.433, 3.220e-3
-1.434, 3.268e-3
-1.435, 3.310e-3
-1.436, 3.338e-3
-1.437, 3.396e-3
-1.438, 3.415e-3
-1.439, 3.479e-3
-1.440, 3.504e-3
-1.441, 3.539e-3
-1.442, 3.589e-3
-1.443, 3.624e-3
-1.444, 3.683e-3
-1.445, 3.671e-3
-1.446, 3.750e-3
-1.447, 3.787e-3
-1.448, 3.854e-3
-1.449, 3.919e-3
-1.450, 3.890e-3
-1.451, 3.989e-3
-1.452, 4.034e-3
-1.453, 4.048e-3
-1.454, 4.135e-3
-1.455, 4.171e-3
-1.456, 4.206e-3
-1.457, 4.239e-3
-1.458, 4.259e-3
-1.459, 4.322e-3
-1.460, 4.348e-3
-1.461, 4.410e-3
-1.462, 4.456e-3
-1.463, 4.488e-3
-1.464, 4.521e-3
-1.465, 4.571e-3
-1.466, 4.620e-3
-1.467, 4.683e-3
-1.468, 4.711e-3
-1.469, 4.747e-3
-1.470, 4.793e-3
-1.471, 4.858e-3
-1.472, 4.863e-3
-1.473, 4.912e-3
-1.474, 4.958e-3
-1.475, 4.985e-3
-1.476, 5.040e-3
-1.477, 5.082e-3
-1.478, 5.125e-3
-1.479, 5.142e-3
-1.480, 5.201e-3
-1.481, 5.214e-3
-1.482, 5.241e-3
-1.483, 5.294e-3
-1.484, 5.320e-3
-1.485, 5.391e-3
-1.486, 5.455e-3
-1.487, 5.537e-3
-1.488, 5.577e-3
-1.489, 5.571e-3
-1.490, 5.629e-3
-1.491, 5.675e-3
-1.492, 5.731e-3
-1.493, 5.700e-3
-1.494, 5.787e-3
-1.495, 5.812e-3
-1.496, 5.857e-3
-1.497, 5.905e-3
-1.498, 5.954e-3
-1.499, 5.992e-3
-1.500, 5.992e-3
-1.499, 5.944e-3
-1.498, 5.881e-3
-1.497, 5.803e-3
-1.496, 5.733e-3
-1.495, 5.705e-3
-1.494, 5.615e-3
-1.493, 5.556e-3
-1.492, 5.491e-3
-1.491, 5.470e-3
-1.490, 5.457e-3
-1.489, 5.338e-3
-1.488, 5.246e-3
-1.487, 5.329e-3
-1.486, 5.229e-3
-1.485, 5.225e-3
-1.484, 5.130e-3
-1.483, 5.169e-3
-1.482, 5.156e-3
-1.481, 5.107e-3
-1.480, 5.053e-3
-1.479, 5.000e-3
-1.478, 4.940e-3
-1.477, 4.863e-3
-1.476, 4.826e-3
-1.475, 4.805e-3
-1.474, 4.745e-3
-1.473, 4.688e-3
-1.472, 4.591e-3
-1.471, 4.563e-3
-1.470, 4.512e-3
-1.469, 4.485e-3
-1.468, 4.394e-3
-1.467, 4.378e-3
-1.466, 4.306e-3
-1.465, 4.247e-3
-1.464, 4.184e-3
-1.463, 4.146e-3
-1.462, 4.125e-3
-1.461, 4.065e-3
-1.460, 3.986e-3
-1.459, 3.942e-3
-1.458, 3.938e-3
-1.457, 3.930e-3
-1.456, 3.870e-3
-1.455, 3.847e-3
-1.454, 3.762e-3
-1.453, 3.753e-3
-1.452, 3.674e-3
-1.451, 3.631e-3
-1.450, 3.572e-3
-1.449, 3.551e-3
-1.448, 3.523e-3
-1.447, 3.458e-3
-1.446, 3.432e-3
-1.445, 3.382e-3
-1.444, 3.344e-3
-1.443, 3.283e-3
-1.442, 3.294e-3
-1.441, 3.232e-3
-1.440, 3.196e-3
-1.439, 3.166e-3
-1.438, 3.110e-3
-1.437, 3.078e-3
-1.436, 3.028e-3
-1.435, 3.038e-3
-1.434, 2.966e-3
-1.433, 2.935e-3
-1.432, 2.896e-3
-1.431, 2.858e-3
-1.430, 2.810e-3
-1.429, 2.766e-3
-1.428, 2.725e-3
-1.427, 2.698e-3
-1.426, 2.681e-3
-1.425, 2.613e-3
-1.424, 2.574e-3
-1.423, 2.554e-3
-1.422, 2.506e-3
-1.421, 2.463e-3
-1.420, 2.440e-3
-1.419, 2.414e-3
-1.418, 2.355e-3
-1.417, 2.339e-3
-1.416, 2.318e-3
-1.415, 2.296e-3
-1.414, 2.222e-3
-1.413, 2.204e-3
-1.412, 2.165e-3
-1.411, 2.146e-3
-1.410, 2.105e-3
-1.409, 2.079e-3
-1.408, 2.037e-3
-1.407, 2.006e-3
-1.406, 1.970e-3
-1.405, 1.967e-3
-1.404, 1.924e-3
-1.403, 1.893e-3
-1.402, 1.861e-3
-1.401, 1.830e-3
-1.400, 1.798e-3
-1.399, 1.763e-3
-1.398, 1.735e-3
-1.397, 1.710e-3
-1.396, 1.705e-3
-1.395, 1.645e-3
-1.394, 1.619e-3
-1.393, 1.599e-3
-1.392, 1.567e-3
-1.391, 1.542e-3
-1.390, 1.508e-3
-1.389, 1.485e-3
-1.388, 1.463e-3
-1.387, 1.439e-3
-1.386, 1.407e-3
-1.385, 1.387e-3
-1.384, 1.357e-3
-1.383, 1.342e-3
-1.382, 1.312e-3
-1.381, 1.301e-3
-1.380, 1.279e-3
-1.379, 1.240e-3
-1.378, 1.225e-3
-1.377, 1.195e-3
-1.376, 1.182e-3
-1.375, 1.166e-3
-1.374, 1.129e-3
-1.373, 1.119e-3
-1.372, 1.095e-3
-1.371, 1.062e-3
-1.370, 1.041e-3
-1.369, 1.028e-3
-1.368, 1.009e-3
-1.367, 9.893e-4
-1.366, 9.632e-4
-1.365, 9.404e-4
-1.364, 9.264e-4
-1.363, 9.069e-4
-1.362, 8.898e-4
-1.361, 8.704e-4
-1.360, 8.487e-4
-1.359, 8.300e-4
-1.358, 8.080e-4
-1.357, 7.922e-4
-1.356, 7.740e-4
-1.355, 7.580e-4
-1.354, 7.361e-4
-1.353, 7.252e-4
-1.352, 7.085e-4
-1.351, 6.922e-4
-1.350, 6.725e-4
-1.349, 6.555e-4
-1.348, 6.413e-4
-1.347, 6.264e-4
-1.346, 6.113e-4
-1.345, 5.972e-4
-1.344, 5.811e-4
-1.343, 5.654e-4
-1.342, 5.521e-4
-1.341, 5.400e-4
-1.340, 5.239e-4
-1.339, 5.112e-4
-1.338, 4.973e-4
-1.337, 4.860e-4
-1.336, 4.727e-4
-1.335, 4.569e-4
-1.334, 4.448e-4
-1.333, 4.321e-4
-1.332, 4.215e-4
-1.331, 4.107e-4
-1.330, 3.975e-4
-1.329, 3.865e-4
-1.328, 3.755e-4
-1.327, 3.653e-4
-1.326, 3.528e-4
-1.325, 3.460e-4
-1.324, 3.314e-4
-1.323, 3.227e-4
-1.322, 3.116e-4
-1.321, 3.018e-4
-1.320, 2.929e-4
-1.319, 2.824e-4
-1.318, 2.748e-4
-1.317, 2.655e-4
-1.316, 2.552e-4
-1.315, 2.474e-4
-1.314, 2.370e-4
-1.313, 2.296e-4
-1.312, 2.209e-4
-1.311, 2.140e-4
-1.310, 2.060e-4
-1.309, 1.961e-4
-1.308, 1.903e-4
-1.307, 1.825e-4
-1.306, 1.747e-4
-1.305, 1.672e-4
-1.304, 1.606e-4
-1.303, 1.526e-4
-1.302, 1.472e-4
-1.301, 1.403e-4
-1.300, 1.349e-4
-1.299, 1.271e-4
-1.298, 1.211e-4
-1.297, 1.152e-4
-1.296, 1.096e-4
-1.295, 1.036e-4
-1.294, 9.760e-5
-1.293, 9.228e-5
-1.292, 8.696e-5
-1.291, 8.190e-5
-1.290, 7.556e-5
-1.289, 7.034e-5
-1.288, 6.648e-5
-1.287, 6.129e-5
-1.286, 5.677e-5
-1.285, 5.169e-5
-1.284, 4.665e-5
-1.283, 4.245e-5
-1.282, 3.872e-5
-1.281, 3.391e-5
-1.280, 2.930e-5
-1.279, 2.533e-5
-1.278, 2.164e-5
-1.277, 1.849e-5
-1.276, 1.454e-5
-1.275, 1.024e-5
-1.274, 6.660e-6
-1.273, 3.229e-6
-1.272, 5.197e-7
-1.271, -3.031e-6
-1.270, -7.087e-6
-1.269, -1.009e-5
-1.268, -1.296e-5
-1.267, -1.564e-5
-1.266, -1.866e-5
-1.265, -2.230e-5
-1.264, -2.480e-5
-1.263, -2.723e-5
-1.262, -2.981e-5
-1.261, -3.209e-5
-1.260, -3.547e-5
-1.259, -3.797e-5
-1.258, -4.001e-5
-1.257, -4.207e-5
-1.256, -4.454e-5
-1.255, -4.731e-5
-1.254, -4.967e-5
-1.253, -5.126e-5
-1.252, -5.299e-5
-1.251, -5.565e-5
-1.250, -5.792e-5
-1.249, -6.026e-5
-1.248, -6.128e-5
-1.247, -6.275e-5
-1.246, -6.468e-5
-1.245, -6.727e-5
-1.244, -7.027e-5
-1.243, -7.101e-5
-1.242, -7.155e-5
-1.241, -7.364e-5
-1.240, -7.549e-5
-1.239, -7.706e-5
-1.238, -8.195e-5
-1.237, -8.567e-5
-1.236, -8.309e-5
-1.235, -8.275e-5
-1.234, -8.476e-5
-1.233, -8.558e-5
-1.232, -8.550e-5
-1.231, -8.769e-5
-1.230, -8.915e-5
-1.229, -9.229e-5
-1.228, -9.220e-5
-1.227, -9.194e-5
-1.226, -9.273e-5
-1.225, -9.653e-5
-1.224, -9.588e-5
-1.223, -9.740e-5
-1.222, -9.766e-5
-1.221, -9.833e-5
-1.220, -1.005e-4
-1.219, -1.013e-4
-1.218, -1.033e-4
-1.217, -1.047e-4
-1.216, -1.054e-4
-1.215, -1.063e-4
-1.214, -1.070e-4
-1.213, -1.061e-4
-1.212, -1.062e-4
-1.211, -1.071e-4
-1.210, -1.088e-4
-1.209, -1.100e-4
-1.208, -1.111e-4
-1.207, -1.111e-4
-1.206, -1.123e-4
-1.205, -1.130e-4
-1.204, -1.148e-4
-1.203, -1.151e-4
-1.202, -1.145e-4
-1.201, -1.157e-4
-1.200, -1.163e-4
-1.199, -1.179e-4
-1.198, -1.176e-4
-1.197, -1.192e-4
-1.196, -1.187e-4
-1.195, -1.236e-4
-1.194, -1.213e-4
-1.193, -1.228e-4
-1.192, -1.211e-4
-1.191, -1.231e-4
-1.190, -1.241e-4
-1.189, -1.243e-4
-1.188, -1.254e-4
-1.187, -1.248e-4
-1.186, -1.261e-4
-1.185, -1.272e-4
-1.184, -1.271e-4
-1.183, -1.276e-4
-1.182, -1.285e-4
-1.181, -1.297e-4
-1.180, -1.322e-4
-1.179, -1.309e-4
-1.178, -1.320e-4
-1.177, -1.310e-4
-1.176, -1.320e-4
-1.175, -1.329e-4
-1.174, -1.341e-4
-1.173, -1.344e-4
-1.172, -1.349e-4
-1.171, -1.362e-4
-1.170, -1.371e-4
-1.169, -1.379e-4
-1.168, -1.383e-4
-1.167, -1.382e-4
-1.166, -1.392e-4
-1.165, -1.397e-4
-1.164, -1.401e-4
-1.163, -1.412e-4
-1.162, -1.409e-4
-1.161, -1.427e-4
-1.160, -1.428e-4
-1.159, -1.439e-4
-1.158, -1.442e-4
-1.157, -1.446e-4
-1.156, -1.462e-4
-1.155, -1.477e-4
-1.154, -1.486e-4
-1.153, -1.482e-4
-1.152, -1.475e-4
-1.151, -1.493e-4
-1.150, -1.504e-4
-1.149, -1.516e-4
-1.148, -1.505e-4
-1.147, -1.517e-4
-1.146, -1.532e-4
-1.145, -1.549e-4
-1.144, -1.557e-4
-1.143, -1.553e-4
-1.142, -1.567e-4
-1.141, -1.582e-4
-1.140, -1.593e-4
-1.139, -1.586e-4
-1.138, -1.588e-4
-1.137, -1.608e-4
-1.136, -1.618e-4
-1.135, -1.634e-4
-1.134, -1.638e-4
-1.133, -1.640e-4
-1.132, -1.655e-4
-1.131, -1.671e-4
-1.130, -1.679e-4
-1.129, -1.695e-4
-1.128, -1.703e-4
-1.127, -1.717e-4
-1.126, -1.727e-4
-1.125, -1.736e-4
-1.124, -1.758e-4
-1.123, -1.785e-4
-1.122, -1.782e-4
-1.121, -1.827e-4
-1.120, -1.850e-4
-1.119, -1.872e-4
-1.118, -1.907e-4
-1.117, -1.951e-4
-1.116, -2.011e-4
-1.115, -2.078e-4
-1.114, -2.137e-4
-1.113, -2.217e-4
-1.112, -2.309e-4
-1.111, -2.401e-4
-1.110, -2.535e-4
-1.109, -2.645e-4
-1.108, -2.765e-4
-1.107, -2.924e-4
-1.106, -3.038e-4
-1.105, -3.228e-4
-1.104, -3.349e-4
-1.103, -3.510e-4
-1.102, -3.660e-4
-1.101, -3.839e-4
-1.100, -3.975e-4
-1.099, -4.119e-4
-1.098, -4.281e-4
-1.097, -4.363e-4
-1.096, -4.514e-4
-1.095, -4.678e-4
-1.094, -4.758e-4
-1.093, -4.902e-4
-1.092, -4.914e-4
-1.091, -5.117e-4
-1.090, -5.177e-4
-1.089, -5.281e-4
-1.088, -5.332e-4
-1.087, -5.448e-4
-1.086, -5.545e-4
-1.085, -5.593e-4
-1.084, -5.660e-4
-1.083, -5.760e-4
-1.082, -5.783e-4
-1.081, -5.903e-4
-1.080, -5.963e-4
-1.079, -5.987e-4
-1.078, -6.082e-4
-1.077, -6.129e-4
-1.076, -6.243e-4
-1.075, -6.318e-4
-1.074, -6.376e-4
-1.073, -6.377e-4
-1.072, -6.415e-4
-1.071, -6.548e-4
-1.070, -6.565e-4
-1.069, -6.663e-4
-1.068, -6.754e-4
-1.067, -6.760e-4
-1.066, -6.808e-4
-1.065, -6.825e-4
-1.064, -7.427e-4
-1.063, -7.116e-4
-1.062, -7.190e-4
-1.061, -7.247e-4
-1.060, -7.382e-4
-1.059, -7.386e-4
-1.058, -7.371e-4
-1.057, -7.501e-4
-1.056, -7.578e-4
-1.055, -7.427e-4
-1.054, -7.527e-4
-1.053, -7.601e-4
-1.052, -7.869e-4
-1.051, -7.881e-4
-1.050, -7.791e-4
-1.049, -7.795e-4
-1.048, -8.083e-4
-1.047, -7.942e-4
-1.046, -7.799e-4
-1.045, -8.126e-4
-1.044, -8.197e-4
-1.043, -8.134e-4
-1.042, -8.222e-4
-1.041, -8.315e-4
-1.040, -8.495e-4
-1.039, -8.296e-4
-1.038, -8.340e-4
-1.037, -8.540e-4
-1.036, -8.550e-4
-1.035, -8.515e-4
-1.034, -8.592e-4
-1.033, -8.687e-4
-1.032, -8.651e-4
-1.031, -8.728e-4
-1.030, -8.861e-4
-1.029, -8.913e-4
-1.028, -8.907e-4
-1.027, -9.038e-4
-1.026, -9.024e-4
-1.025, -9.058e-4
-1.024, -9.170e-4
-1.023, -9.118e-4
-1.022, -9.172e-4
-1.021, -9.334e-4
-1.020, -9.384e-4
-1.019, -9.346e-4
-1.018, -9.411e-4
-1.017, -9.610e-4
-1.016, -9.483e-4
-1.015, -9.452e-4
-1.014, -9.685e-4
-1.013, -9.727e-4
-1.012, -9.794e-4
-1.011, -9.703e-4
-1.010, -9.741e-4
-1.009, -9.996e-4
-1.008, -1.001e-3
-1.007, -9.999e-4
-1.006, -1.005e-3
-1.005, -1.016e-3
-1.004, -1.013e-3
-1.003, -1.021e-3
-1.002, -1.015e-3
-1.001, -1.031e-3
