Apr. 1, 2025   11:33:37
Cyclic Voltammetry
File: c:/users/guazh/data/banditlqround7_x0exp518_r20/2025-03-28-exp1009\exp1009-2025-04-01t11_23_30-arkoh\exp1009_cv_sr_200mvs_efin_-1500mv.bin
Data Source:  Experiment
Instrument Model:  CHI760E
Header: CV ran at 200 mVs
Note: 

Init E (V) = -1
High E (V) = -1
Low E (V) = -1.5
Final E (V) = -1
Init P/N = N
Scan Rate (V/s) = 0.2
Segment = 3
Sample Interval (V) = 0.001
Quiet Time (sec) = 2
Sensitivity (A/V) = 0.01
Comp R (ohm) = 1.9

Results:

Channel 1:
Segment 1:
Ep = -1.308V
ip = 1.775e-3A
Ah = 7.415e-4C

Segment 2:

Segment 3:

Potential/V, Current/A

-1.000, -1.673e-4
-1.001, -8.171e-5
-1.002, -1.506e-5
-1.003, 3.319e-5
-1.004, 7.569e-5
-1.005, 1.160e-4
-1.006, 1.462e-4
-1.007, 1.711e-4
-1.008, 2.000e-4
-1.009, 2.241e-4
-1.010, 2.421e-4
-1.011, 2.641e-4
-1.012, 2.850e-4
-1.013, 2.972e-4
-1.014, 3.111e-4
-1.015, 3.283e-4
-1.016, 3.368e-4
-1.017, 3.445e-4
-1.018, 3.591e-4
-1.019, 3.715e-4
-1.020, 3.799e-4
-1.021, 3.939e-4
-1.022, 4.084e-4
-1.023, 4.174e-4
-1.024, 4.282e-4
-1.025, 4.413e-4
-1.026, 4.439e-4
-1.027, 4.470e-4
-1.028, 4.569e-4
-1.029, 4.621e-4
-1.030, 4.629e-4
-1.031, 4.711e-4
-1.032, 4.816e-4
-1.033, 4.858e-4
-1.034, 4.927e-4
-1.035, 5.045e-4
-1.036, 5.103e-4
-1.037, 5.144e-4
-1.038, 5.239e-4
-1.039, 5.300e-4
-1.040, 5.298e-4
-1.041, 5.359e-4
-1.042, 5.404e-4
-1.043, 5.388e-4
-1.044, 5.425e-4
-1.045, 5.529e-4
-1.046, 5.585e-4
-1.047, 5.634e-4
-1.048, 5.734e-4
-1.049, 5.792e-4
-1.050, 5.802e-4
-1.051, 5.849e-4
-1.052, 5.889e-4
-1.053, 5.866e-4
-1.054, 5.881e-4
-1.055, 5.965e-4
-1.056, 6.009e-4
-1.057, 6.048e-4
-1.058, 6.141e-4
-1.059, 6.204e-4
-1.060, 6.212e-4
-1.061, 6.265e-4
-1.062, 6.322e-4
-1.063, 6.316e-4
-1.064, 6.325e-4
-1.065, 6.383e-4
-1.066, 6.403e-4
-1.067, 6.415e-4
-1.068, 6.508e-4
-1.069, 6.584e-4
-1.070, 6.631e-4
-1.071, 6.722e-4
-1.072, 6.781e-4
-1.073, 6.780e-4
-1.074, 6.803e-4
-1.075, 6.879e-4
-1.076, 6.893e-4
-1.077, 6.882e-4
-1.078, 6.954e-4
-1.079, 7.019e-4
-1.080, 7.070e-4
-1.081, 7.184e-4
-1.082, 7.266e-4
-1.083, 7.255e-4
-1.084, 7.281e-4
-1.085, 7.368e-4
-1.086, 7.391e-4
-1.087, 7.345e-4
-1.088, 7.372e-4
-1.089, 7.431e-4
-1.090, 7.510e-4
-1.091, 7.631e-4
-1.092, 7.744e-4
-1.093, 7.791e-4
-1.094, 7.840e-4
-1.095, 7.927e-4
-1.096, 7.977e-4
-1.097, 8.010e-4
-1.098, 8.082e-4
-1.099, 8.129e-4
-1.100, 8.139e-4
-1.101, 8.210e-4
-1.102, 8.285e-4
-1.103, 8.322e-4
-1.104, 8.389e-4
-1.105, 8.474e-4
-1.106, 8.521e-4
-1.107, 8.566e-4
-1.108, 8.699e-4
-1.109, 8.764e-4
-1.110, 8.806e-4
-1.111, 8.901e-4
-1.112, 9.017e-4
-1.113, 9.070e-4
-1.114, 9.123e-4
-1.115, 9.232e-4
-1.116, 9.243e-4
-1.117, 9.257e-4
-1.118, 9.383e-4
-1.119, 9.431e-4
-1.120, 9.424e-4
-1.121, 9.512e-4
-1.122, 9.631e-4
-1.123, 9.695e-4
-1.124, 9.806e-4
-1.125, 9.954e-4
-1.126, 1.003e-3
-1.127, 1.011e-3
-1.128, 1.024e-3
-1.129, 1.031e-3
-1.130, 1.029e-3
-1.131, 1.033e-3
-1.132, 1.043e-3
-1.133, 1.046e-3
-1.134, 1.057e-3
-1.135, 1.069e-3
-1.136, 1.078e-3
-1.137, 1.089e-3
-1.138, 1.100e-3
-1.139, 1.108e-3
-1.140, 1.111e-3
-1.141, 1.116e-3
-1.142, 1.124e-3
-1.143, 1.123e-3
-1.144, 1.124e-3
-1.145, 1.136e-3
-1.146, 1.149e-3
-1.147, 1.161e-3
-1.148, 1.176e-3
-1.149, 1.183e-3
-1.150, 1.185e-3
-1.151, 1.194e-3
-1.152, 1.201e-3
-1.153, 1.201e-3
-1.154, 1.205e-3
-1.155, 1.216e-3
-1.156, 1.225e-3
-1.157, 1.234e-3
-1.158, 1.251e-3
-1.159, 1.261e-3
-1.160, 1.267e-3
-1.161, 1.274e-3
-1.162, 1.276e-3
-1.163, 1.278e-3
-1.164, 1.290e-3
-1.165, 1.307e-3
-1.166, 1.316e-3
-1.167, 1.326e-3
-1.168, 1.346e-3
-1.169, 1.364e-3
-1.170, 1.370e-3
-1.171, 1.379e-3
-1.172, 1.386e-3
-1.173, 1.389e-3
-1.174, 1.396e-3
-1.175, 1.404e-3
-1.176, 1.407e-3
-1.177, 1.415e-3
-1.178, 1.429e-3
-1.179, 1.445e-3
-1.180, 1.459e-3
-1.181, 1.482e-3
-1.182, 1.501e-3
-1.183, 1.506e-3
-1.184, 1.510e-3
-1.185, 1.522e-3
-1.186, 1.532e-3
-1.187, 1.534e-3
-1.188, 1.551e-3
-1.189, 1.567e-3
-1.190, 1.573e-3
-1.191, 1.581e-3
-1.192, 1.590e-3
-1.193, 1.594e-3
-1.194, 1.605e-3
-1.195, 1.624e-3
-1.196, 1.631e-3
-1.197, 1.641e-3
-1.198, 1.667e-3
-1.199, 1.699e-3
-1.200, 1.728e-3
-1.201, 1.759e-3
-1.202, 1.787e-3
-1.203, 1.804e-3
-1.204, 1.806e-3
-1.205, 1.800e-3
-1.206, 1.781e-3
-1.207, 1.766e-3
-1.208, 1.764e-3
-1.209, 1.766e-3
-1.210, 1.779e-3
-1.211, 1.823e-3
-1.212, 1.884e-3
-1.213, 1.931e-3
-1.214, 1.966e-3
-1.215, 1.989e-3
-1.216, 2.001e-3
-1.217, 2.009e-3
-1.218, 2.022e-3
-1.219, 2.022e-3
-1.220, 2.012e-3
-1.221, 2.016e-3
-1.222, 2.032e-3
-1.223, 2.050e-3
-1.224, 2.072e-3
-1.225, 2.100e-3
-1.226, 2.122e-3
-1.227, 2.142e-3
-1.228, 2.161e-3
-1.229, 2.172e-3
-1.230, 2.183e-3
-1.231, 2.205e-3
-1.232, 2.224e-3
-1.233, 2.235e-3
-1.234, 2.243e-3
-1.235, 2.270e-3
-1.236, 2.302e-3
-1.237, 2.329e-3
-1.238, 2.344e-3
-1.239, 2.360e-3
-1.240, 2.375e-3
-1.241, 2.402e-3
-1.242, 2.426e-3
-1.243, 2.430e-3
-1.244, 2.448e-3
-1.245, 2.474e-3
-1.246, 2.498e-3
-1.247, 2.535e-3
-1.248, 2.565e-3
-1.249, 2.586e-3
-1.250, 2.596e-3
-1.251, 2.604e-3
-1.252, 2.613e-3
-1.253, 2.618e-3
-1.254, 2.637e-3
-1.255, 2.671e-3
-1.256, 2.708e-3
-1.257, 2.735e-3
-1.258, 2.769e-3
-1.259, 2.795e-3
-1.260, 2.813e-3
-1.261, 2.822e-3
-1.262, 2.826e-3
-1.263, 2.831e-3
-1.264, 2.841e-3
-1.265, 2.860e-3
-1.266, 2.870e-3
-1.267, 2.874e-3
-1.268, 2.898e-3
-1.269, 2.929e-3
-1.270, 2.949e-3
-1.271, 2.964e-3
-1.272, 2.989e-3
-1.273, 3.030e-3
-1.274, 3.071e-3
-1.275, 3.101e-3
-1.276, 3.124e-3
-1.277, 3.150e-3
-1.278, 3.177e-3
-1.279, 3.166e-3
-1.280, 3.161e-3
-1.281, 3.171e-3
-1.282, 3.188e-3
-1.283, 3.197e-3
-1.284, 3.231e-3
-1.285, 3.252e-3
-1.286, 3.274e-3
-1.287, 3.299e-3
-1.288, 3.327e-3
-1.289, 3.345e-3
-1.290, 3.352e-3
-1.291, 3.378e-3
-1.292, 3.397e-3
-1.293, 3.393e-3
-1.294, 3.390e-3
-1.295, 3.402e-3
-1.296, 3.409e-3
-1.297, 3.410e-3
-1.298, 3.406e-3
-1.299, 3.398e-3
-1.300, 3.392e-3
-1.301, 3.404e-3
-1.302, 3.419e-3
-1.303, 3.418e-3
-1.304, 3.430e-3
-1.305, 3.447e-3
-1.306, 3.469e-3
-1.307, 3.475e-3
-1.308, 3.475e-3
-1.309, 3.473e-3
-1.310, 3.451e-3
-1.311, 3.437e-3
-1.312, 3.420e-3
-1.313, 3.401e-3
-1.314, 3.380e-3
-1.315, 3.382e-3
-1.316, 3.379e-3
-1.317, 3.370e-3
-1.318, 3.362e-3
-1.319, 3.355e-3
-1.320, 3.345e-3
-1.321, 3.333e-3
-1.322, 3.303e-3
-1.323, 3.251e-3
-1.324, 3.211e-3
-1.325, 3.174e-3
-1.326, 3.125e-3
-1.327, 3.082e-3
-1.328, 3.076e-3
-1.329, 3.067e-3
-1.330, 3.061e-3
-1.331, 3.048e-3
-1.332, 3.020e-3
-1.333, 2.969e-3
-1.334, 2.910e-3
-1.335, 2.849e-3
-1.336, 2.778e-3
-1.337, 2.707e-3
-1.338, 2.651e-3
-1.339, 2.616e-3
-1.340, 2.600e-3
-1.341, 2.587e-3
-1.342, 2.567e-3
-1.343, 2.545e-3
-1.344, 2.519e-3
-1.345, 2.478e-3
-1.346, 2.420e-3
-1.347, 2.363e-3
-1.348, 2.306e-3
-1.349, 2.259e-3
-1.350, 2.215e-3
-1.351, 2.188e-3
-1.352, 2.164e-3
-1.353, 2.142e-3
-1.354, 2.126e-3
-1.355, 2.104e-3
-1.356, 2.073e-3
-1.357, 2.045e-3
-1.358, 2.023e-3
-1.359, 1.992e-3
-1.360, 1.965e-3
-1.361, 1.951e-3
-1.362, 1.939e-3
-1.363, 1.926e-3
-1.364, 1.920e-3
-1.365, 1.918e-3
-1.366, 1.912e-3
-1.367, 1.898e-3
-1.368, 1.888e-3
-1.369, 1.890e-3
-1.370, 1.887e-3
-1.371, 1.891e-3
-1.372, 1.902e-3
-1.373, 1.913e-3
-1.374, 1.921e-3
-1.375, 1.928e-3
-1.376, 1.928e-3
-1.377, 1.936e-3
-1.378, 1.949e-3
-1.379, 1.956e-3
-1.380, 1.966e-3
-1.381, 1.986e-3
-1.382, 2.006e-3
-1.383, 2.031e-3
-1.384, 2.061e-3
-1.385, 2.090e-3
-1.386, 2.118e-3
-1.387, 2.140e-3
-1.388, 2.165e-3
-1.389, 2.184e-3
-1.390, 2.193e-3
-1.391, 2.216e-3
-1.392, 2.245e-3
-1.393, 2.268e-3
-1.394, 2.303e-3
-1.395, 2.352e-3
-1.396, 2.393e-3
-1.397, 2.432e-3
-1.398, 2.466e-3
-1.399, 2.488e-3
-1.400, 2.519e-3
-1.401, 2.553e-3
-1.402, 2.587e-3
-1.403, 2.599e-3
-1.404, 2.630e-3
-1.405, 2.650e-3
-1.406, 2.684e-3
-1.407, 2.719e-3
-1.408, 2.764e-3
-1.409, 2.808e-3
-1.410, 2.852e-3
-1.411, 2.905e-3
-1.412, 2.955e-3
-1.413, 2.990e-3
-1.414, 3.029e-3
-1.415, 3.063e-3
-1.416, 3.085e-3
-1.417, 3.118e-3
-1.418, 3.152e-3
-1.419, 3.186e-3
-1.420, 3.230e-3
-1.421, 3.282e-3
-1.422, 3.344e-3
-1.423, 3.397e-3
-1.424, 3.440e-3
-1.425, 3.500e-3
-1.426, 3.541e-3
-1.427, 3.560e-3
-1.428, 3.579e-3
-1.429, 3.599e-3
-1.430, 3.638e-3
-1.431, 3.682e-3
-1.432, 3.743e-3
-1.433, 3.815e-3
-1.434, 3.878e-3
-1.435, 3.948e-3
-1.436, 3.987e-3
-1.437, 4.025e-3
-1.438, 4.041e-3
-1.439, 4.069e-3
-1.440, 4.122e-3
-1.441, 4.182e-3
-1.442, 4.229e-3
-1.443, 4.284e-3
-1.444, 4.329e-3
-1.445, 4.378e-3
-1.446, 4.432e-3
-1.447, 4.505e-3
-1.448, 4.564e-3
-1.449, 4.609e-3
-1.450, 4.629e-3
-1.451, 4.675e-3
-1.452, 4.705e-3
-1.453, 4.733e-3
-1.454, 4.778e-3
-1.455, 4.842e-3
-1.456, 4.903e-3
-1.457, 4.967e-3
-1.458, 5.017e-3
-1.459, 5.066e-3
-1.460, 5.105e-3
-1.461, 5.160e-3
-1.462, 5.206e-3
-1.463, 5.262e-3
-1.464, 5.291e-3
-1.465, 5.328e-3
-1.466, 5.365e-3
-1.467, 5.425e-3
-1.468, 5.487e-3
-1.469, 5.519e-3
-1.470, 5.581e-3
-1.471, 5.659e-3
-1.472, 5.729e-3
-1.473, 5.775e-3
-1.474, 5.823e-3
-1.475, 5.902e-3
-1.476, 5.942e-3
-1.477, 5.968e-3
-1.478, 6.023e-3
-1.479, 6.046e-3
-1.480, 6.056e-3
-1.481, 6.135e-3
-1.482, 6.233e-3
-1.483, 6.302e-3
-1.484, 6.336e-3
-1.485, 6.385e-3
-1.486, 6.412e-3
-1.487, 6.449e-3
-1.488, 6.464e-3
-1.489, 6.508e-3
-1.490, 6.530e-3
-1.491, 6.566e-3
-1.492, 6.680e-3
-1.493, 6.752e-3
-1.494, 6.817e-3
-1.495, 6.876e-3
-1.496, 6.939e-3
-1.497, 6.964e-3
-1.498, 7.009e-3
-1.499, 7.013e-3
-1.500, 7.004e-3
-1.499, 6.935e-3
-1.498, 6.910e-3
-1.497, 6.846e-3
-1.496, 6.796e-3
-1.495, 6.721e-3
-1.494, 6.646e-3
-1.493, 6.591e-3
-1.492, 6.554e-3
-1.491, 6.457e-3
-1.490, 6.388e-3
-1.489, 6.321e-3
-1.488, 6.210e-3
-1.487, 6.156e-3
-1.486, 6.083e-3
-1.485, 6.020e-3
-1.484, 5.968e-3
-1.483, 5.922e-3
-1.482, 5.878e-3
-1.481, 5.833e-3
-1.480, 5.766e-3
-1.479, 5.687e-3
-1.478, 5.609e-3
-1.477, 5.528e-3
-1.476, 5.431e-3
-1.475, 5.378e-3
-1.474, 5.314e-3
-1.473, 5.250e-3
-1.472, 5.178e-3
-1.471, 5.143e-3
-1.470, 5.079e-3
-1.469, 5.043e-3
-1.468, 5.019e-3
-1.467, 4.980e-3
-1.466, 4.961e-3
-1.465, 4.920e-3
-1.464, 4.862e-3
-1.463, 4.783e-3
-1.462, 4.711e-3
-1.461, 4.633e-3
-1.460, 4.539e-3
-1.459, 4.491e-3
-1.458, 4.440e-3
-1.457, 4.383e-3
-1.456, 4.336e-3
-1.455, 4.337e-3
-1.454, 4.311e-3
-1.453, 4.300e-3
-1.452, 4.258e-3
-1.451, 4.221e-3
-1.450, 4.148e-3
-1.449, 4.088e-3
-1.448, 4.018e-3
-1.447, 3.944e-3
-1.446, 3.883e-3
-1.445, 3.830e-3
-1.444, 3.770e-3
-1.443, 3.733e-3
-1.442, 3.693e-3
-1.441, 3.646e-3
-1.440, 3.646e-3
-1.439, 3.638e-3
-1.438, 3.593e-3
-1.437, 3.544e-3
-1.436, 3.510e-3
-1.435, 3.452e-3
-1.434, 3.378e-3
-1.433, 3.312e-3
-1.432, 3.252e-3
-1.431, 3.190e-3
-1.430, 3.131e-3
-1.429, 3.094e-3
-1.428, 3.061e-3
-1.427, 3.034e-3
-1.426, 3.017e-3
-1.425, 2.992e-3
-1.424, 2.956e-3
-1.423, 2.918e-3
-1.422, 2.886e-3
-1.421, 2.840e-3
-1.420, 2.771e-3
-1.419, 2.727e-3
-1.418, 2.678e-3
-1.417, 2.630e-3
-1.416, 2.590e-3
-1.415, 2.561e-3
-1.414, 2.529e-3
-1.413, 2.500e-3
-1.412, 2.487e-3
-1.411, 2.453e-3
-1.410, 2.412e-3
-1.409, 2.375e-3
-1.408, 2.326e-3
-1.407, 2.273e-3
-1.406, 2.223e-3
-1.405, 2.183e-3
-1.404, 2.136e-3
-1.403, 2.106e-3
-1.402, 2.084e-3
-1.401, 2.071e-3
-1.400, 2.040e-3
-1.399, 2.001e-3
-1.398, 1.971e-3
-1.397, 1.932e-3
-1.396, 1.902e-3
-1.395, 1.866e-3
-1.394, 1.825e-3
-1.393, 1.787e-3
-1.392, 1.758e-3
-1.391, 1.724e-3
-1.390, 1.689e-3
-1.389, 1.663e-3
-1.388, 1.641e-3
-1.387, 1.627e-3
-1.386, 1.585e-3
-1.385, 1.547e-3
-1.384, 1.506e-3
-1.383, 1.468e-3
-1.382, 1.444e-3
-1.381, 1.417e-3
-1.380, 1.384e-3
-1.379, 1.373e-3
-1.378, 1.356e-3
-1.377, 1.325e-3
-1.376, 1.301e-3
-1.375, 1.275e-3
-1.374, 1.243e-3
-1.373, 1.211e-3
-1.372, 1.191e-3
-1.371, 1.153e-3
-1.370, 1.117e-3
-1.369, 1.095e-3
-1.368, 1.071e-3
-1.367, 1.048e-3
-1.366, 1.036e-3
-1.365, 1.017e-3
-1.364, 9.889e-4
-1.363, 9.614e-4
-1.362, 9.384e-4
-1.361, 9.107e-4
-1.360, 8.805e-4
-1.359, 8.568e-4
-1.358, 8.294e-4
-1.357, 8.015e-4
-1.356, 7.821e-4
-1.355, 7.690e-4
-1.354, 7.517e-4
-1.353, 7.302e-4
-1.352, 7.145e-4
-1.351, 6.954e-4
-1.350, 6.716e-4
-1.349, 6.519e-4
-1.348, 6.294e-4
-1.347, 6.039e-4
-1.346, 5.829e-4
-1.345, 5.677e-4
-1.344, 5.490e-4
-1.343, 5.305e-4
-1.342, 5.186e-4
-1.341, 5.040e-4
-1.340, 4.817e-4
-1.339, 4.647e-4
-1.338, 4.487e-4
-1.337, 4.259e-4
-1.336, 4.085e-4
-1.335, 3.938e-4
-1.334, 3.742e-4
-1.333, 3.575e-4
-1.332, 3.445e-4
-1.331, 3.288e-4
-1.330, 3.097e-4
-1.329, 2.967e-4
-1.328, 2.835e-4
-1.327, 2.662e-4
-1.326, 2.544e-4
-1.325, 2.436e-4
-1.324, 2.272e-4
-1.323, 2.120e-4
-1.322, 2.024e-4
-1.321, 1.872e-4
-1.320, 1.706e-4
-1.319, 1.599e-4
-1.318, 1.482e-4
-1.317, 1.328e-4
-1.316, 1.218e-4
-1.315, 1.135e-4
-1.314, 9.933e-5
-1.313, 8.622e-5
-1.312, 7.881e-5
-1.311, 6.647e-5
-1.310, 5.175e-5
-1.309, 4.375e-5
-1.308, 3.403e-5
-1.307, 1.958e-5
-1.306, 9.864e-6
-1.305, 2.662e-6
-1.304, -9.552e-6
-1.303, -2.050e-5
-1.302, -2.635e-5
-1.301, -3.615e-5
-1.300, -4.958e-5
-1.299, -5.668e-5
-1.298, -6.421e-5
-1.297, -7.691e-5
-1.296, -8.383e-5
-1.295, -8.801e-5
-1.294, -9.884e-5
-1.293, -1.080e-4
-1.292, -1.115e-4
-1.291, -1.201e-4
-1.290, -1.315e-4
-1.289, -1.378e-4
-1.288, -1.440e-4
-1.287, -1.561e-4
-1.286, -1.616e-4
-1.285, -1.641e-4
-1.284, -1.720e-4
-1.283, -1.795e-4
-1.282, -1.819e-4
-1.281, -1.898e-4
-1.280, -1.992e-4
-1.279, -2.030e-4
-1.278, -2.092e-4
-1.277, -2.180e-4
-1.276, -2.229e-4
-1.275, -2.273e-4
-1.274, -2.367e-4
-1.273, -2.453e-4
-1.272, -2.468e-4
-1.271, -2.530e-4
-1.270, -2.594e-4
-1.269, -2.591e-4
-1.268, -2.604e-4
-1.267, -2.676e-4
-1.266, -2.710e-4
-1.265, -2.732e-4
-1.264, -2.812e-4
-1.263, -2.873e-4
-1.262, -2.882e-4
-1.261, -2.947e-4
-1.260, -3.048e-4
-1.259, -3.064e-4
-1.258, -3.070e-4
-1.257, -3.121e-4
-1.256, -3.129e-4
-1.255, -3.137e-4
-1.254, -3.226e-4
-1.253, -3.300e-4
-1.252, -3.303e-4
-1.251, -3.339e-4
-1.250, -3.403e-4
-1.249, -3.408e-4
-1.248, -3.417e-4
-1.247, -3.489e-4
-1.246, -3.518e-4
-1.245, -3.504e-4
-1.244, -3.556e-4
-1.243, -3.599e-4
-1.242, -3.598e-4
-1.241, -3.629e-4
-1.240, -3.696e-4
-1.239, -3.715e-4
-1.238, -3.736e-4
-1.237, -3.789e-4
-1.236, -3.811e-4
-1.235, -3.807e-4
-1.234, -3.854e-4
-1.233, -3.897e-4
-1.232, -3.877e-4
-1.231, -3.901e-4
-1.230, -3.962e-4
-1.229, -3.973e-4
-1.228, -3.984e-4
-1.227, -4.027e-4
-1.226, -4.039e-4
-1.225, -4.074e-4
-1.224, -4.111e-4
-1.223, -4.139e-4
-1.222, -4.161e-4
-1.221, -4.271e-4
-1.220, -4.366e-4
-1.219, -4.355e-4
-1.218, -4.343e-4
-1.217, -4.371e-4
-1.216, -4.299e-4
-1.215, -4.197e-4
-1.214, -4.166e-4
-1.213, -4.153e-4
-1.212, -4.140e-4
-1.211, -4.230e-4
-1.210, -4.383e-4
-1.209, -4.470e-4
-1.208, -4.534e-4
-1.207, -4.628e-4
-1.206, -4.642e-4
-1.205, -4.583e-4
-1.204, -4.587e-4
-1.203, -4.563e-4
-1.202, -4.468e-4
-1.201, -4.425e-4
-1.200, -4.441e-4
-1.199, -4.462e-4
-1.198, -4.541e-4
-1.197, -4.664e-4
-1.196, -4.744e-4
-1.195, -4.772e-4
-1.194, -4.842e-4
-1.193, -4.895e-4
-1.192, -4.850e-4
-1.191, -4.846e-4
-1.190, -4.833e-4
-1.189, -4.753e-4
-1.188, -4.688e-4
-1.187, -4.691e-4
-1.186, -4.682e-4
-1.185, -4.718e-4
-1.184, -4.828e-4
-1.183, -4.950e-4
-1.182, -5.011e-4
-1.181, -5.113e-4
-1.180, -5.179e-4
-1.179, -5.128e-4
-1.178, -5.081e-4
-1.177, -5.103e-4
-1.176, -5.030e-4
-1.175, -4.939e-4
-1.174, -4.940e-4
-1.173, -4.978e-4
-1.172, -4.999e-4
-1.171, -5.079e-4
-1.170, -5.229e-4
-1.169, -5.297e-4
-1.168, -5.337e-4
-1.167, -5.390e-4
-1.166, -5.376e-4
-1.165, -5.326e-4
-1.164, -5.330e-4
-1.163, -5.321e-4
-1.162, -5.269e-4
-1.161, -5.313e-4
-1.160, -5.403e-4
-1.159, -5.410e-4
-1.158, -5.411e-4
-1.157, -5.467e-4
-1.156, -5.479e-4
-1.155, -5.473e-4
-1.154, -5.518e-4
-1.153, -5.544e-4
-1.152, -5.511e-4
-1.151, -5.529e-4
-1.150, -5.571e-4
-1.149, -5.575e-4
-1.148, -5.613e-4
-1.147, -5.690e-4
-1.146, -5.710e-4
-1.145, -5.708e-4
-1.144, -5.750e-4
-1.143, -5.794e-4
-1.142, -5.775e-4
-1.141, -5.808e-4
-1.140, -5.866e-4
-1.139, -5.864e-4
-1.138, -5.869e-4
-1.137, -5.925e-4
-1.136, -5.950e-4
-1.135, -5.981e-4
-1.134, -6.063e-4
-1.133, -6.108e-4
-1.132, -6.077e-4
-1.131, -6.097e-4
-1.130, -6.142e-4
-1.129, -6.136e-4
-1.128, -6.152e-4
-1.127, -6.215e-4
-1.126, -6.230e-4
-1.125, -6.251e-4
-1.124, -6.360e-4
-1.123, -6.450e-4
-1.122, -6.468e-4
-1.121, -6.507e-4
-1.120, -6.541e-4
-1.119, -6.534e-4
-1.118, -6.556e-4
-1.117, -6.660e-4
-1.116, -6.741e-4
-1.115, -6.773e-4
-1.114, -6.889e-4
-1.113, -7.000e-4
-1.112, -7.061e-4
-1.111, -7.141e-4
-1.110, -7.245e-4
-1.109, -7.324e-4
-1.108, -7.462e-4
-1.107, -7.691e-4
-1.106, -7.939e-4
-1.105, -8.188e-4
-1.104, -8.511e-4
-1.103, -8.833e-4
-1.102, -9.076e-4
-1.101, -9.348e-4
-1.100, -9.605e-4
-1.099, -9.819e-4
-1.098, -1.007e-3
-1.097, -1.035e-3
-1.096, -1.064e-3
-1.095, -1.101e-3
-1.094, -1.151e-3
-1.093, -1.190e-3
-1.092, -1.227e-3
-1.091, -1.266e-3
-1.090, -1.302e-3
-1.089, -1.331e-3
-1.088, -1.358e-3
-1.087, -1.385e-3
-1.086, -1.404e-3
-1.085, -1.420e-3
-1.084, -1.452e-3
-1.083, -1.487e-3
-1.082, -1.519e-3
-1.081, -1.552e-3
-1.080, -1.580e-3
-1.079, -1.605e-3
-1.078, -1.626e-3
-1.077, -1.646e-3
-1.076, -1.661e-3
-1.075, -1.680e-3
-1.074, -1.708e-3
-1.073, -1.731e-3
-1.072, -1.746e-3
-1.071, -1.766e-3
-1.070, -1.793e-3
-1.069, -1.816e-3
-1.068, -1.840e-3
-1.067, -1.865e-3
-1.066, -1.879e-3
-1.065, -1.888e-3
-1.064, -1.908e-3
-1.063, -1.922e-3
-1.062, -1.921e-3
-1.061, -1.927e-3
-1.060, -1.944e-3
-1.059, -1.968e-3
-1.058, -1.994e-3
-1.057, -2.024e-3
-1.056, -2.046e-3
-1.055, -2.072e-3
-1.054, -2.107e-3
-1.053, -2.121e-3
-1.052, -2.123e-3
-1.051, -2.130e-3
-1.050, -2.150e-3
-1.049, -2.158e-3
-1.048, -2.163e-3
-1.047, -2.176e-3
-1.046, -2.192e-3
-1.045, -2.205e-3
-1.044, -2.227e-3
-1.043, -2.242e-3
-1.042, -2.258e-3
-1.041, -2.288e-3
-1.040, -2.305e-3
-1.039, -2.309e-3
-1.038, -2.320e-3
-1.037, -2.345e-3
-1.036, -2.363e-3
-1.035, -2.376e-3
-1.034, -2.404e-3
-1.033, -2.422e-3
-1.032, -2.419e-3
-1.031, -2.426e-3
-1.030, -2.434e-3
-1.029, -2.441e-3
-1.028, -2.455e-3
-1.027, -2.471e-3
-1.026, -2.487e-3
-1.025, -2.503e-3
-1.024, -2.518e-3
-1.023, -2.524e-3
-1.022, -2.532e-3
-1.021, -2.547e-3
-1.020, -2.559e-3
-1.019, -2.559e-3
-1.018, -2.567e-3
-1.017, -2.585e-3
-1.016, -2.591e-3
-1.015, -2.611e-3
-1.014, -2.644e-3
-1.013, -2.660e-3
-1.012, -2.675e-3
-1.011, -2.694e-3
-1.010, -2.710e-3
-1.009, -2.718e-3
-1.008, -2.709e-3
-1.007, -2.704e-3
-1.006, -2.701e-3
-1.005, -2.698e-3
-1.004, -2.731e-3
-1.003, -2.753e-3
-1.002, -2.784e-3
-1.001, -2.816e-3
