Potential V vs RHE, Current mA cm-2
0.013299999999999867,-0.30755823659065895
0.012299999999999978,-1.3543031273607997
0.011299999999999866,-1.9650339955125358
0.010299999999999976,-2.4007650758709675
0.009299999999999864,-2.7501987669376318
0.008299999999999974,-2.968064307116847
0.007299999999999862,-3.1420737970002466
0.006299999999999972,-3.273641947887695
0.00529999999999986,-3.403795387475278
0.0042999999999999705,-3.579219588658543
0.0032999999999998586,-3.6655169779503103
0.0022999999999999687,-3.7970851288377587
0.0012999999999998568,-3.927238568425342
0.00029999999999996696,-4.014950669016974
-0.000700000000000145,-4.0588067193127895
-0.0017000000000000348,-4.102662769608606
-0.0027000000000001467,-4.1889601589003735
-0.0037000000000000366,-4.276672259492005
-0.0047000000000001485,-4.364384360083638
-0.005700000000000038,-4.450681749375406
-0.00670000000000015,-4.494537799671222
-0.00770000000000004,-4.538393849967037
-0.008700000000000152,-4.582249900262854
-0.009700000000000042,-4.626105950558669
-0.010700000000000154,-4.668547289554621
-0.011700000000000044,-4.712403339850438
-0.012700000000000156,-4.756259390146253
-0.013700000000000045,-4.843971490737885
-0.014700000000000157,-4.9302688800296535
-0.015700000000000047,-4.974124930325469
-0.01670000000000016,-5.017980980621284
-0.01770000000000005,-5.0618370309171015
-0.01870000000000016,-5.105693081212917
-0.01970000000000005,-5.149549131508733
-0.020700000000000163,-5.191990470504685
-0.021700000000000053,-5.235846520800501
-0.022700000000000164,-5.323558621392133
-0.023700000000000054,-5.323558621392133
-0.024700000000000166,-5.323558621392133
-0.025700000000000056,-5.323558621392133
-0.026700000000000168,-5.323558621392133
-0.027700000000000058,-5.367414671687949
-0.02870000000000017,-5.411270721983764
-0.02970000000000006,-5.497568111275533
-0.03070000000000017,-5.585280211867165
-0.03170000000000006,-5.629136262162981
-0.03270000000000017,-5.672992312458796
-0.03370000000000006,-5.672992312458796
-0.034700000000000175,-5.715433651454749
-0.035700000000000065,-5.759289701750564
-0.03670000000000018,-5.759289701750564
-0.03770000000000007,-5.759289701750564
-0.03870000000000018,-5.80314575204638
-0.03970000000000007,-5.80314575204638
-0.04070000000000018,-5.847001802342197
-0.04170000000000007,-5.847001802342197
-0.04270000000000018,-5.847001802342197
-0.04370000000000007,-5.847001802342197
-0.044700000000000184,-5.890857852638012
-0.045700000000000074,-5.9347139029338285
-0.046700000000000186,-5.977155241929781
-0.047700000000000076,-6.021011292225596
-0.04870000000000019,-6.021011292225596
-0.04970000000000008,-6.064867342521412
-0.05070000000000019,-6.021011292225596
-0.05170000000000008,-6.021011292225596
-0.05270000000000019,-5.977155241929781
-0.05370000000000008,-5.977155241929781
-0.05470000000000019,-6.021011292225596
-0.05570000000000008,-6.021011292225596
-0.056700000000000195,-6.064867342521412
-0.057700000000000085,-6.064867342521412
-0.058700000000000196,-6.064867342521412
-0.059700000000000086,-6.108723392817228
-0.0607000000000002,-6.064867342521412
-0.06170000000000009,-6.108723392817228
-0.0627000000000002,-6.108723392817228
-0.06370000000000009,-6.108723392817228
-0.0647000000000002,-6.152579443113044
-0.06570000000000009,-6.108723392817228
-0.0667000000000002,-6.108723392817228
-0.0677000000000001,-6.064867342521412
-0.0687000000000002,-6.021011292225596
-0.0697000000000001,-5.977155241929781
-0.07070000000000021,-6.021011292225596
-0.0717000000000001,-6.021011292225596
-0.07270000000000021,-6.064867342521412
-0.0737000000000001,-6.108723392817228
-0.07470000000000021,-6.108723392817228
-0.0757000000000001,-6.064867342521412
-0.07670000000000021,-6.064867342521412
-0.0777000000000001,-6.021011292225596
-0.07870000000000021,-6.021011292225596
-0.0797000000000001,-6.021011292225596
-0.08070000000000022,-6.021011292225596
-0.0817000000000001,-5.977155241929781
-0.08270000000000022,-5.977155241929781
-0.08370000000000011,-5.9347139029338285
-0.08470000000000022,-5.9347139029338285
-0.08570000000000011,-5.890857852638012
-0.08670000000000022,-5.890857852638012
-0.08770000000000011,-5.9347139029338285
-0.08870000000000022,-5.9347139029338285
-0.08970000000000011,-5.9347139029338285
-0.09070000000000022,-5.9347139029338285
-0.09170000000000011,-5.890857852638012
-0.09270000000000023,-5.847001802342197
-0.09370000000000012,-5.80314575204638
-0.09470000000000023,-5.80314575204638
-0.09570000000000012,-5.759289701750564
-0.09670000000000023,-5.759289701750564
-0.09770000000000012,-5.759289701750564
-0.09870000000000023,-5.759289701750564
-0.09970000000000012,-5.759289701750564
-0.10070000000000023,-5.759289701750564
-0.10170000000000012,-5.715433651454749
-0.10270000000000024,-5.715433651454749
-0.10370000000000013,-5.715433651454749
-0.10470000000000024,-5.715433651454749
-0.10570000000000013,-5.715433651454749
-0.10670000000000024,-5.715433651454749
-0.10770000000000013,-5.715433651454749
-0.10870000000000024,-5.672992312458796
-0.10970000000000013,-5.629136262162981
-0.11070000000000024,-5.629136262162981
-0.11170000000000013,-5.585280211867165
-0.11270000000000002,-5.585280211867165
-0.11370000000000013,-5.585280211867165
-0.11470000000000002,-5.585280211867165
-0.11570000000000014,-5.585280211867165
-0.11670000000000003,-5.5414241615713475
-0.11770000000000014,-5.5414241615713475
-0.11870000000000003,-5.5414241615713475
-0.11970000000000014,-5.497568111275533
-0.12070000000000003,-5.5414241615713475
-0.12170000000000014,-5.5414241615713475
-0.12270000000000003,-5.5414241615713475
-0.12370000000000014,-5.5414241615713475
-0.12470000000000003,-5.5414241615713475
-0.12570000000000014,-5.497568111275533
-0.12670000000000003,-5.453712060979717
-0.12770000000000015,-5.411270721983764
-0.12870000000000004,-5.411270721983764
-0.12970000000000015,-5.367414671687949
-0.13070000000000004,-5.323558621392133
-0.13170000000000015,-5.367414671687949
-0.13270000000000004,-5.367414671687949
-0.13370000000000015,-5.323558621392133
-0.13470000000000004,-5.279702571096316
-0.13570000000000015,-5.279702571096316
-0.13670000000000004,-5.323558621392133
-0.13770000000000016,-5.367414671687949
-0.13870000000000005,-5.367414671687949
-0.13970000000000016,-5.411270721983764
-0.14070000000000005,-5.367414671687949
-0.14170000000000016,-5.323558621392133
-0.14270000000000005,-5.323558621392133
-0.14370000000000016,-5.235846520800501
-0.14470000000000005,-5.235846520800501
-0.14570000000000016,-5.235846520800501
-0.14670000000000005,-5.235846520800501
-0.14770000000000016,-5.235846520800501
-0.14870000000000005,-5.235846520800501
-0.14970000000000017,-5.235846520800501
-0.15070000000000006,-5.235846520800501
-0.15170000000000017,-5.235846520800501
-0.15270000000000006,-5.235846520800501
-0.15370000000000017,-5.235846520800501
-0.15470000000000006,-5.235846520800501
-0.15570000000000017,-5.235846520800501
-0.15670000000000006,-5.235846520800501
-0.15770000000000017,-5.235846520800501
-0.15870000000000006,-5.235846520800501
-0.15970000000000018,-5.191990470504685
-0.16070000000000007,-5.149549131508733
-0.16170000000000018,-5.105693081212917
-0.16270000000000007,-5.0618370309171015
-0.16370000000000018,-5.0618370309171015
-0.16470000000000007,-5.0618370309171015
-0.16570000000000018,-5.017980980621284
-0.16670000000000007,-5.017980980621284
-0.16770000000000018,-5.0618370309171015
-0.16870000000000007,-5.105693081212917
-0.16970000000000018,-5.149549131508733
-0.17070000000000007,-5.149549131508733
-0.17170000000000019,-5.191990470504685
-0.17270000000000008,-5.191990470504685
-0.1737000000000002,-5.149549131508733
-0.17470000000000008,-5.149549131508733
-0.1757000000000002,-5.0618370309171015
-0.17670000000000008,-5.0618370309171015
-0.1777000000000002,-4.974124930325469
-0.17870000000000008,-4.974124930325469
-0.1797000000000002,-4.974124930325469
-0.18070000000000008,-4.974124930325469
-0.1817000000000002,-4.974124930325469
-0.18270000000000008,-5.017980980621284
-0.1837000000000002,-5.0618370309171015
-0.1847000000000001,-5.0618370309171015
-0.1857000000000002,-5.0618370309171015
-0.1867000000000001,-5.0618370309171015
-0.1877000000000002,-5.0618370309171015
-0.1887000000000001,-5.0618370309171015
-0.1897000000000002,-5.017980980621284
-0.1907000000000001,-5.017980980621284
-0.1917000000000001,-4.9302688800296535
-0.19269999999999998,-4.9302688800296535
-0.1937000000000001,-4.887827541033701
-0.19469999999999998,-4.887827541033701
-0.1957000000000001,-4.9302688800296535
-0.19669999999999999,-4.9302688800296535
-0.1977000000000001,-5.017980980621284
-0.1987,-5.017980980621284
-0.1997000000000001,-5.017980980621284
-0.2007,-4.974124930325469
-0.2017000000000001,-4.974124930325469
-0.2027,-4.9302688800296535
-0.2037000000000001,-4.887827541033701
-0.2047,-4.9302688800296535
-0.2057000000000001,-4.9302688800296535
-0.2067,-4.9302688800296535
-0.2077000000000001,-4.9302688800296535
-0.2087,-4.9302688800296535
-0.2097000000000001,-4.9302688800296535
-0.2107,-4.887827541033701
-0.2117000000000001,-4.887827541033701
-0.2127,-4.9302688800296535
-0.2137000000000001,-4.9302688800296535
-0.2147,-4.974124930325469
-0.2157000000000001,-4.974124930325469
-0.2167,-4.9302688800296535
-0.21770000000000012,-4.887827541033701
-0.2187,-4.887827541033701
-0.21970000000000012,-4.887827541033701
-0.2207,-4.887827541033701
-0.22170000000000012,-4.887827541033701
-0.2227,-4.9302688800296535
-0.22370000000000012,-4.9302688800296535
-0.2247,-4.887827541033701
-0.22570000000000012,-4.887827541033701
-0.2267,-4.887827541033701
-0.22770000000000012,-4.887827541033701
-0.22870000000000001,-4.887827541033701
-0.22970000000000013,-4.887827541033701
-0.23070000000000002,-4.9302688800296535
-0.23170000000000013,-4.887827541033701
-0.23270000000000002,-4.9302688800296535
-0.23370000000000013,-4.887827541033701
-0.23470000000000002,-4.887827541033701
-0.23570000000000013,-4.887827541033701
-0.23670000000000002,-4.843971490737885
-0.2376999999999999,-4.887827541033701
-0.23870000000000002,-4.887827541033701
-0.2396999999999999,-4.9302688800296535
-0.24070000000000003,-4.9302688800296535
-0.24169999999999991,-4.9302688800296535
-0.24270000000000003,-4.887827541033701
-0.24369999999999992,-4.887827541033701
-0.24470000000000003,-4.887827541033701
-0.24569999999999992,-4.887827541033701
-0.24670000000000003,-4.9302688800296535
-0.24769999999999992,-4.9302688800296535
-0.24870000000000003,-4.9302688800296535
-0.24969999999999992,-4.9302688800296535
-0.25070000000000003,-4.9302688800296535
-0.2516999999999999,-4.9302688800296535
-0.25270000000000004,-4.9302688800296535
-0.2536999999999999,-4.9302688800296535
-0.25470000000000004,-4.974124930325469
-0.2556999999999999,-4.974124930325469
-0.25670000000000004,-5.017980980621284
-0.25769999999999993,-5.017980980621284
-0.25870000000000004,-4.974124930325469
-0.25969999999999993,-4.974124930325469
-0.26070000000000004,-4.974124930325469
-0.26169999999999993,-4.974124930325469
-0.26270000000000004,-5.017980980621284
-0.26369999999999993,-5.017980980621284
-0.26470000000000005,-5.0618370309171015
-0.26569999999999994,-5.105693081212917
-0.26670000000000005,-5.105693081212917
-0.26769999999999994,-5.105693081212917
-0.26870000000000005,-5.105693081212917
-0.26969999999999994,-5.105693081212917
-0.27070000000000005,-5.149549131508733
-0.27169999999999994,-5.191990470504685
-0.27270000000000005,-5.235846520800501
-0.27369999999999994,-5.235846520800501
-0.27470000000000006,-5.279702571096316
-0.27569999999999995,-5.279702571096316
-0.27670000000000006,-5.279702571096316
-0.27769999999999995,-5.279702571096316
-0.27870000000000006,-5.323558621392133
-0.27969999999999995,-5.367414671687949
-0.28070000000000006,-5.411270721983764
-0.28169999999999995,-5.497568111275533
-0.28270000000000006,-5.497568111275533
-0.28369999999999995,-5.5414241615713475
-0.28470000000000006,-5.585280211867165
-0.28569999999999995,-5.585280211867165
-0.28670000000000007,-5.629136262162981
-0.28769999999999996,-5.715433651454749
-0.28870000000000007,-5.759289701750564
-0.28969999999999996,-5.847001802342197
-0.29070000000000007,-5.847001802342197
-0.29169999999999996,-5.9347139029338285
-0.29270000000000007,-5.9347139029338285
-0.29369999999999996,-5.977155241929781
-0.2947000000000001,-6.064867342521412
-0.29569999999999996,-6.152579443113044
-0.2967000000000001,-6.238876832404812
-0.29769999999999996,-6.326588932996443
-0.2987000000000001,-6.37044498329226
-0.29969999999999997,-6.458157083883892
-0.3007000000000001,-6.54445447317566
-0.30169999999999997,-6.588310523471475
-0.3027000000000001,-6.719878674358924
-0.30369999999999997,-6.806176063650692
-0.3047000000000001,-6.93774421453814
-0.30569999999999997,-7.067897654125724
-0.3067000000000001,-7.199465805013171
-0.3077,-7.329619244600755
-0.3087000000000001,-7.461187395488204
-0.3097,-7.591340835075788
-0.3107000000000001,-7.722908985963235
-0.3117,-7.853062425550818
-0.3127000000000001,-8.027071915434218
-0.3137,-8.202496116617484
-0.3147000000000001,-8.4203616567967
-0.3157,-8.638227196975913
-0.3167000000000001,-8.812236686859313
-0.3177,-9.031516938338395
-0.3187000000000001,-9.293238528813426
-0.3197,-9.59740145828441
-0.3207000000000001,-9.902979099055257
-0.3217,-10.25241279012192
-0.3227000000000001,-10.644287820184536
-0.3237,-11.037577561547016
-0.3247000000000001,-11.473308641905447
-0.3257,-11.909039722263879
-0.3267000000000001,-12.390041564217992
-0.3277,-12.869628694872238
-0.3287000000000001,-13.3930718758223
-0.3297,-13.916515056772363
-0.3307000000000001,-14.486643710617974
-0.3317,-15.01008689156804
-0.3327000000000001,-15.575971411514052
-0.3337,-16.141855931460068
-0.3347000000000001,-16.750181790402035
-0.3357,-17.2736249713521
-0.3367000000000001,-17.924392169290012
-0.3377,-18.631747819222536
-0.3387000000000001,-19.3249563561564
-0.3397,-20.01816489309027
-0.3407000000000001,-20.76796188201874
-0.3417,-21.54605309694451
-0.3427000000000001,-22.38073276386488
-0.3437,-23.24370665678255
-0.3447000000000001,-24.16326900169483
-0.3457,-25.12527268560305
-0.3467000000000001,-26.087276369511276
-0.3477,-27.134162731411404
-0.3487000000000001,-28.18104909331153
-0.3497,-29.27037679420761
-0.3507000000000001,-30.402145834099635
-0.3517,-31.57635621298762
-0.3527000000000001,-32.807155043870196
-0.3537,-34.10868943974604
-0.3547000000000001,-35.50925362661242
-0.3557,-36.95225915247476
-0.35670000000000013,-38.46600024333035
-0.3577,-40.03632978618054
-0.35870000000000013,-41.66324778102533
-0.3597,-43.27601866287147
-0.36070000000000013,-45.01611356170547
-0.3617,-46.75620846053947
-0.3626999999999999,-48.55289181136806
-0.3637,-50.42031072718991
-0.3646999999999999,-52.386759434002315
-0.3657,-54.39564947981066
-0.3666999999999999,-56.404539525619015
-0.3677,-58.31439978043681
-0.3686999999999999,-60.15352447026136
-0.36970000000000003,-61.97850204708726
-0.3706999999999999,-63.860068075907755
-0.37170000000000003,-65.76992833072556
-0.3726999999999999,-67.82125971552985
-0.37370000000000003,-70.01406223032066
-0.3746999999999999,-72.27760031010472
-0.37570000000000003,-74.58357972888473
-0.3766999999999999,-76.98858893865528
-0.37770000000000004,-79.33700969643127
-0.3786999999999999,-81.69957756720586
-0.37970000000000004,-84.00555698598588
-0.3806999999999999,-86.32568351776455
-0.38170000000000004,-88.63166293654454
-0.38269999999999993,-90.85275967733266
-0.38370000000000004,-92.90409106213696
-0.38469999999999993,-94.99786378593721
-0.38570000000000004,-97.13407784873341
-0.38669999999999993,-98.26584688862545
-0.38570000000000004,-97.96875751565379
-0.38469999999999993,-97.78484504667132
-0.38370000000000004,-97.53019701269562
-0.38269999999999993,-97.17651918772938
-0.38170000000000004,-96.61063466778336
-0.3806999999999999,-95.91742613084948
-0.37970000000000004,-95.08274646392913
-0.3786999999999999,-94.13488989301955
-0.37770000000000004,-93.03141507912481
-0.3766999999999999,-91.89964603923279
-0.37570000000000003,-90.76787699934074
-0.3746999999999999,-89.63610795944872
-0.37370000000000003,-88.63166293654454
-0.3726999999999999,-87.66965925263632
-0.37170000000000003,-86.84912669871461
-0.3706999999999999,-86.01444703179425
-0.36970000000000003,-85.23635581686847
-0.3686999999999999,-84.40167614994809
-0.3677,-83.56699648302772
-0.3666999999999999,-82.56255146012353
-0.3657,-81.47322375922747
-0.3646999999999999,-80.29901338033947
-0.3637,-79.08236166245555
-0.3626999999999999,-77.76668015358106
-0.3617,-76.50758709670117
-0.36070000000000013,-75.29093537881725
-0.3597,-74.14501922592657
-0.35870000000000013,-73.15472131602105
-0.3577,-72.19271763211282
-0.35670000000000013,-71.31559662619651
-0.3557,-70.48091695927613
-0.3547000000000001,-69.61794306635846
-0.3537,-68.61349804345427
-0.3527000000000001,-67.6090530205501
-0.3517,-66.47728398065809
-0.3507000000000001,-65.3030736017701
-0.3497,-64.11471610988345
-0.3487000000000001,-62.98294706999144
-0.3477,-61.89361936909536
-0.3467000000000001,-60.80429166819927
-0.3457,-59.7149639673032
-0.3447000000000001,-58.75296028339497
-0.3437,-57.8333979384827
-0.3427000000000001,-56.88554136757313
-0.3417,-56.05086170065276
-0.3407000000000001,-55.21618203373238
-0.3397,-54.31076680181876
-0.3387000000000001,-53.348763117910536
-0.3377,-52.471642111994214
-0.3367000000000001,-51.509638428085985
-0.3357,-50.60422319617236
-0.3347000000000001,-49.68466085126009
-0.3337,-48.76509850634781
-0.3327000000000001,-47.84553616143554
-0.3317,-46.88353247752732
-0.3307000000000001,-45.93567590661774
-0.3297,-44.93123088371356
-0.3287000000000001,-43.96922719980534
-0.3277,-43.04966485489307
-0.3267000000000001,-42.130102509980794
-0.3257,-41.22468727806717
-0.3247000000000001,-40.34756627215084
-0.3237,-39.47044526623452
-0.3227000000000001,-38.607471373316855
-0.3217,-37.73035036740053
-0.3207000000000001,-36.8532293614842
-0.3197,-36.03269680756248
-0.3187000000000001,-35.240458479638065
-0.3177,-34.50480860370825
-0.3167000000000001,-33.712570275783825
-0.3157,-32.93447906085806
-0.3147000000000001,-32.14224073293363
-0.3137,-31.36414951800786
-0.3127000000000001,-30.529469851087494
-0.3117,-29.793819975157668
-0.3107000000000001,-29.001581647233255
-0.3097,-28.308373110299385
-0.3087000000000001,-27.615164573365515
-0.3077,-26.9643973754276
-0.3067000000000001,-26.29948306449103
-0.30569999999999997,-25.648715866553115
-0.3047000000000001,-24.997948668615198
-0.30369999999999997,-24.34718147067728
-0.3027000000000001,-23.682267159740714
-0.30169999999999997,-23.073941300798747
-0.3007000000000001,-22.42317410286083
-0.29969999999999997,-21.814848243918867
-0.2987000000000001,-21.149933932982297
-0.29769999999999996,-20.541608074040333
-0.2967000000000001,-19.93328221509837
-0.29569999999999996,-19.367397695152352
-0.2947000000000001,-18.80151317520634
-0.29369999999999996,-18.27806999425627
-0.29270000000000007,-17.75462681330621
-0.29169999999999996,-17.231183632356142
-0.29070000000000007,-16.750181790402035
-0.28969999999999996,-16.22673860945197
-0.28870000000000007,-15.70329542850191
-0.28769999999999996,-15.179852247551842
-0.28670000000000007,-14.65640906660178
-0.28569999999999995,-14.175407224647667
-0.28470000000000006,-13.741090855589102
-0.28369999999999995,-13.261503724934855
-0.28270000000000006,-12.825772644576423
-0.28169999999999995,-12.390041564217992
-0.28070000000000006,-11.952895772559694
-0.27969999999999995,-11.517164692201263
-0.27870000000000006,-11.123874950838783
-0.27769999999999995,-10.731999920776168
-0.27670000000000006,-10.340124890713554
-0.27569999999999995,-9.99069119964689
-0.27470000000000006,-9.641257508580225
-0.27369999999999994,-9.24938247851761
-0.27270000000000005,-8.899948787450944
-0.27169999999999994,-8.508073757388331
-0.27070000000000005,-8.202496116617484
-0.26969999999999994,-7.853062425550818
-0.26870000000000005,-7.591340835075788
-0.26769999999999994,-7.28576319430494
-0.26670000000000005,-6.981600264833956
-0.26569999999999994,-6.6760226240631075
-0.26470000000000005,-6.37044498329226
