Potential V vs RHE, Current mA cm-2
0.05339999999999995,-0.05627721550863116
0.05239999999999995,-0.058073898859459745
0.051399999999999946,-0.059106638108361226
0.050399999999999945,-0.059870582210288355
0.049399999999999944,-0.06059208497321952
0.04839999999999994,-0.06128529351015339
0.04739999999999994,-0.061936060708091316
0.04639999999999994,-0.06255853368003192
0.04539999999999994,-0.06318100665197254
0.04439999999999994,-0.06380347962391315
0.04339999999999994,-0.06441180548285513
0.04239999999999994,-0.06500598422879844
0.04139999999999994,-0.0655860158617431
0.040399999999999936,-0.06615190038168911
0.039399999999999935,-0.06676022624063108
0.038399999999999934,-0.06734025787357575
0.03739999999999993,-0.06792028950652042
0.03639999999999993,-0.06848617402646642
0.03539999999999993,-0.06903791143341378
0.03439999999999993,-0.06958964884036115
0.03339999999999993,-0.07016968047330582
0.03239999999999993,-0.07074971210625049
0.03139999999999993,-0.07131559662619649
0.030399999999999927,-0.07186733403314385
0.029399999999999926,-0.07243321855308989
0.028399999999999925,-0.07297080884703859
0.027399999999999924,-0.07355084047998325
0.026399999999999924,-0.07410257788693062
0.025399999999999923,-0.07466846240687663
0.024399999999999922,-0.07522019981382401
0.02339999999999992,-0.07578608433377002
0.02239999999999992,-0.07633782174071738
0.02139999999999992,-0.0768754120346661
0.020399999999999918,-0.0774412965546121
0.019399999999999917,-0.07797888684856082
0.018399999999999916,-0.07853062425550819
0.017399999999999916,-0.07911065588845285
0.016399999999999915,-0.07963409906940291
0.015399999999999914,-0.08017168936335163
0.014399999999999913,-0.08069513254430169
0.013399999999999912,-0.08126101706424771
0.012399999999999911,-0.08184104869719236
0.01139999999999991,-0.08236449187814243
0.01039999999999991,-0.08291622928508981
0.009399999999999908,-0.08342552535304121
0.008399999999999908,-0.08390652719499532
0.007399999999999907,-0.08444411748894404
0.006399999999999906,-0.08495341355689547
0.005399999999999905,-0.08546270962484687
0.004399999999999904,-0.08601444703179424
0.003399999999999903,-0.08652374309974564
0.002399999999999902,-0.08706133339369435
0.0013999999999999013,-0.08752818812264983
0.00039999999999990044,-0.08802333707760258
-0.0006000000000001005,-0.08851848603255535
-0.0016000000000001013,-0.08902778210050676
-0.0026000000000001022,-0.08953707816845817
-0.003600000000000103,-0.09004637423640958
-0.004600000000000104,-0.09052737607836371
-0.005600000000000105,-0.09102252503331647
-0.006600000000000106,-0.09150352687527057
-0.007600000000000107,-0.09197038160422603
-0.008600000000000108,-0.09245138344618015
-0.009600000000000108,-0.0929465324011329
-0.01060000000000011,-0.09341338713008837
-0.01160000000000011,-0.09389438897204248
-0.012600000000000111,-0.0944036850399939
-0.013600000000000112,-0.09484224554295206
-0.014600000000000113,-0.09528080604591022
-0.015600000000000114,-0.09573351366186703
-0.016600000000000115,-0.09618622127782384
-0.017600000000000116,-0.09661063466778336
-0.018600000000000116,-0.09704919517074152
-0.019600000000000117,-0.09747360856070103
-0.020600000000000118,-0.0978838748376619
-0.02160000000000012,-0.0983082882276214
-0.02260000000000012,-0.09873270161758091
-0.02360000000000012,-0.09911467366854448
-0.024600000000000122,-0.09952493994550533
-0.025600000000000123,-0.09993520622246618
-0.026600000000000124,-0.1003313253864284
-0.027600000000000124,-0.10072744455039061
-0.028600000000000125,-0.10109526948835552
-0.029600000000000126,-0.10146309442632043
-0.030600000000000127,-0.10183091936428534
-0.03160000000000013,-0.1021845971892516
-0.03260000000000013,-0.10255242212721652
-0.03360000000000013,-0.10284951150018817
-0.03460000000000002,-0.10320318932515443
-0.03560000000000002,-0.10354272003712203
-0.03660000000000002,-0.10388225074908965
-0.03760000000000002,-0.10422178146105725
-0.03860000000000002,-0.10451887083402892
-0.039600000000000024,-0.10481596020700056
-0.040600000000000025,-0.10511304957997222
-0.041600000000000026,-0.10542428606594254
-0.04260000000000003,-0.1057213754389142
-0.04360000000000003,-0.1060043176988872
-0.04460000000000003,-0.10627311284586156
-0.04560000000000003,-0.10655605510583457
-0.04660000000000003,-0.10679655602681161
-0.04760000000000003,-0.10706535117378597
-0.04860000000000003,-0.10730585209476304
-0.04960000000000003,-0.10753220590274143
-0.050600000000000034,-0.10778685393671714
-0.051600000000000035,-0.10802735485769419
-0.052600000000000036,-0.10825370866567262
-0.053600000000000037,-0.10845176824765372
-0.05460000000000004,-0.10866397494263345
-0.05560000000000004,-0.10886203452461457
-0.05660000000000004,-0.10906009410659567
-0.05760000000000004,-0.10924400657557813
-0.05860000000000004,-0.10942791904456058
-0.05960000000000004,-0.1095976844005444
-0.06060000000000004,-0.10975330264352953
-0.061600000000000044,-0.10992306799951335
-0.06260000000000004,-0.11006453912949986
-0.06360000000000005,-0.1101918631464877
-0.06460000000000005,-0.11036162850247151
-0.06560000000000005,-0.11048895251945937
-0.06660000000000005,-0.11060212942344858
-0.06760000000000005,-0.11072945344043642
-0.06860000000000005,-0.11082848323142698
-0.06960000000000005,-0.11092751302241752
-0.07060000000000005,-0.11105483703940537
-0.07160000000000005,-0.11112557260439863
-0.07260000000000005,-0.11122460239538919
-0.07360000000000005,-0.11126704373438513
-0.07460000000000006,-0.11133777929937837
-0.07560000000000006,-0.11142266197737029
-0.07660000000000006,-0.11145095620336758
-0.07760000000000006,-0.11152169176836085
-0.07860000000000006,-0.11156413310735679
-0.07960000000000006,-0.11159242733335409
-0.08060000000000006,-0.11163486867235005
-0.08160000000000006,-0.1116490157853487
-0.08260000000000006,-0.11169145712434464
-0.08360000000000006,-0.11169145712434464
-0.08460000000000006,-0.11169145712434464
-0.08560000000000006,-0.1117056042373433
-0.08660000000000007,-0.1117056042373433
-0.08760000000000007,-0.11171975135034196
-0.08860000000000007,-0.11169145712434464
-0.08960000000000007,-0.11166316289834735
-0.09060000000000007,-0.11163486867235005
-0.09160000000000007,-0.11160657444635275
-0.09260000000000007,-0.11157828022035543
-0.09360000000000007,-0.11153583888135948
-0.09460000000000007,-0.11149339754236354
-0.09560000000000007,-0.11143680909036893
-0.09660000000000007,-0.11140851486437164
-0.09760000000000008,-0.11133777929937837
-0.09860000000000008,-0.11126704373438513
-0.09960000000000008,-0.11119630816939187
-0.10060000000000008,-0.11111142549139998
-0.10160000000000008,-0.11105483703940537
-0.10260000000000008,-0.11099824858741078
-0.10360000000000008,-0.11088507168342157
-0.10460000000000008,-0.11080018900542968
-0.10560000000000008,-0.11071530632743777
-0.10660000000000008,-0.11063042364944586
-0.10760000000000008,-0.11053139385845531
-0.10860000000000009,-0.11041821695446612
-0.10960000000000009,-0.11031918716347557
-0.11060000000000009,-0.11020601025948636
-0.11160000000000009,-0.11009283335549715
-0.11260000000000009,-0.1099938035645066
-0.11360000000000009,-0.10986647954751874
-0.11460000000000009,-0.10978159686952685
-0.11560000000000009,-0.10966841996553764
-0.11660000000000009,-0.10952694883555114
-0.1176000000000001,-0.10941377193156195
-0.1186000000000001,-0.10925815368857679
-0.1196000000000001,-0.10913082967158892
-0.1206000000000001,-0.10900350565460108
-0.1216000000000001,-0.10884788741161593
-0.1226000000000001,-0.10872056339462807
-0.1236000000000001,-0.10859323937764022
-0.1246000000000001,-0.10843762113465506
-0.1256000000000001,-0.10828200289166989
-0.1266000000000001,-0.10816882598768068
-0.1276000000000001,-0.10798491351869824
-0.1286000000000001,-0.10784344238871174
-0.1296000000000001,-0.10767367703272793
-0.1306000000000001,-0.10753220590274143
-0.1316000000000001,-0.10739073477275493
-0.1326000000000001,-0.10722096941677112
-0.1336000000000001,-0.10706535117378597
-0.1346000000000001,-0.10693802715679812
-0.1356000000000001,-0.10678240891381298
-0.1366000000000001,-0.10661264355782916
-0.1376000000000001,-0.10645702531484401
-0.1386000000000001,-0.10630140707185885
-0.1396000000000001,-0.1061457888288737
-0.1406000000000001,-0.1060043176988872
-0.14160000000000011,-0.1058345523429034
-0.14260000000000012,-0.10569308121291689
-0.14360000000000012,-0.10552331585693309
-0.14460000000000012,-0.10536769761394793
-0.14560000000000012,-0.10518378514496549
-0.14660000000000012,-0.10502816690198033
-0.14760000000000012,-0.10487254865899517
-0.14860000000000012,-0.10470278330301136
-0.14960000000000012,-0.10454716506002622
-0.15060000000000012,-0.10439154681704105
-0.15160000000000012,-0.10422178146105725
-0.15260000000000012,-0.1040944574440694
-0.15360000000000013,-0.1039246920880856
-0.15460000000000013,-0.10378322095809908
-0.15560000000000013,-0.10361345560211528
-0.15660000000000013,-0.10345783735913014
-0.15760000000000013,-0.10330221911614497
-0.15860000000000013,-0.10313245376016117
-0.15960000000000002,-0.10297683551717601
-0.16060000000000002,-0.10283536438718952
-0.16160000000000002,-0.10267974614420436
-0.16260000000000002,-0.10253827501421786
-0.16360000000000002,-0.1023826567712327
-0.16460000000000002,-0.10222703852824755
-0.16560000000000002,-0.102128008737257
-0.16660000000000003,-0.10200068472026914
-0.16760000000000003,-0.10183091936428534
-0.16860000000000003,-0.10166115400830154
-0.16960000000000003,-0.10150553576531639
-0.17060000000000003,-0.10134991752233123
-0.17160000000000003,-0.10120844639234472
-0.17260000000000003,-0.10105282814935958
-0.17360000000000003,-0.10089720990637441
-0.17460000000000003,-0.10074159166338927
-0.17560000000000003,-0.10060012053340277
-0.17660000000000003,-0.10045864940341626
-0.17760000000000004,-0.10030303116043109
-0.17860000000000004,-0.10017570714344325
-0.17960000000000004,-0.10002008890045809
-0.18060000000000004,-0.09986447065747293
-0.18160000000000004,-0.09973714664048508
-0.18260000000000004,-0.09959567551049858
-0.18360000000000004,-0.09946835149351073
-0.18460000000000004,-0.09932688036352423
-0.18560000000000004,-0.09918540923353773
-0.18660000000000004,-0.09907223232954852
-0.18760000000000004,-0.09894490831256067
-0.18860000000000005,-0.09878929006957551
-0.18960000000000005,-0.09866196605258765
-0.19060000000000005,-0.0985346420355998
-0.19160000000000005,-0.09840731801861195
-0.19260000000000005,-0.09829414111462276
-0.19360000000000005,-0.09813852287163759
-0.19460000000000005,-0.09802534596764839
-0.19560000000000005,-0.0979121690636592
-0.19660000000000005,-0.0977706979336727
-0.19760000000000005,-0.09767166814268213
-0.19860000000000005,-0.09754434412569428
-0.19960000000000006,-0.09741702010870643
-0.20060000000000006,-0.09731799031771587
-0.20160000000000006,-0.09719066630072802
-0.20260000000000006,-0.09709163650973747
-0.20360000000000006,-0.09696431249274962
-0.20460000000000006,-0.09686528270175906
-0.20560000000000006,-0.09678040002376717
-0.20660000000000006,-0.0966530760067793
-0.20760000000000006,-0.09652575198979144
-0.20860000000000006,-0.09641257508580224
-0.20960000000000006,-0.09631354529481169
-0.21060000000000006,-0.0962286626168198
-0.21160000000000007,-0.09610133859983194
-0.21260000000000007,-0.09598816169584275
-0.21360000000000007,-0.09588913190485218
-0.21460000000000007,-0.09579010211386164
-0.21560000000000007,-0.09567692520987243
-0.21660000000000007,-0.09560618964487919
-0.21760000000000007,-0.09553545407988592
-0.21860000000000007,-0.09542227717589671
-0.21960000000000007,-0.09532324738490616
-0.22060000000000007,-0.09522421759391562
-0.22160000000000007,-0.0951110406899264
-0.22260000000000008,-0.09505445223793182
-0.22360000000000008,-0.09495542244694127
-0.22460000000000008,-0.09487053976894937
-0.22560000000000008,-0.0947715099779588
-0.22660000000000008,-0.09467248018696825
-0.22760000000000008,-0.09461589173497365
-0.22860000000000008,-0.09450271483098445
-0.22960000000000008,-0.09444612637898986
-0.23060000000000008,-0.09438953792699524
-0.23160000000000008,-0.09427636102300604
-0.23260000000000008,-0.0942056254580128
-0.23360000000000009,-0.09413488989301955
-0.2346000000000001,-0.09405000721502763
-0.2356000000000001,-0.09399341876303305
-0.2366000000000001,-0.09388024185904384
-0.2376000000000001,-0.09383780052004788
-0.2386000000000001,-0.09375291784205599
-0.2396000000000001,-0.09366803516406408
-0.2406000000000001,-0.09361144671206949
-0.2416000000000001,-0.09351241692107892
-0.2426000000000001,-0.09349826980808028
-0.2436000000000001,-0.09341338713008837
-0.2446000000000001,-0.09334265156509512
-0.2456000000000001,-0.09327191600010187
-0.2466000000000001,-0.09321532754810727
-0.2476000000000001,-0.09314459198311402
-0.2486000000000001,-0.09310215064411806
-0.2496000000000001,-0.09303141507912481
-0.2506000000000001,-0.0929748266271302
-0.2516000000000001,-0.0929182381751356
-0.2526000000000001,-0.09284750261014235
-0.2536000000000001,-0.09279091415814776
-0.2546000000000001,-0.09273432570615316
-0.2556000000000001,-0.09269188436715721
-0.2566000000000001,-0.09263529591516259
-0.2576000000000001,-0.09257870746316801
-0.2586000000000001,-0.0925221190111734
-0.2596000000000001,-0.09246553055917879
-0.2606000000000001,-0.0924089421071842
-0.2616000000000001,-0.0923806478811869
-0.2626000000000001,-0.09232405942919229
-0.2636000000000001,-0.09228161809019635
-0.2646000000000001,-0.0922391767512004
-0.2656000000000001,-0.09218258829920578
-0.2666000000000001,-0.09214014696020983
-0.2676000000000001,-0.09212599984721119
-0.2686000000000001,-0.09206941139521659
-0.2696000000000001,-0.09202697005622064
-0.2706000000000001,-0.09199867583022334
-0.2716000000000001,-0.09195623449122738
-0.2726000000000001,-0.09192794026523009
-0.2736000000000001,-0.09187135181323548
-0.2746000000000001,-0.09182891047423952
-0.2756000000000001,-0.09181476336124088
-0.2766000000000001,-0.09177232202224493
-0.2776000000000001,-0.09175817490924627
-0.2786000000000001,-0.09170158645725168
-0.2796000000000001,-0.09167329223125438
-0.2806000000000001,-0.09164499800525706
-0.28160000000000013,-0.09161670377925978
-0.28260000000000013,-0.09158840955326249
-0.28360000000000013,-0.09157426244026382
-0.2846,-0.09151767398826924
-0.2856,-0.09151767398826924
-0.2866,-0.09150352687527057
-0.2876,-0.09147523264927326
-0.2886,-0.09144693842327598
-0.2896,-0.09141864419727867
-0.2906,-0.09140449708428001
-0.2916,-0.09137620285828273
-0.2926,-0.09136205574528407
-0.2936,-0.09133376151928675
-0.29460000000000003,-0.09131961440628812
-0.29560000000000003,-0.09131961440628812
-0.29660000000000003,-0.09129132018029082
-0.29760000000000003,-0.09129132018029082
-0.29860000000000003,-0.09124887884129487
-0.29960000000000003,-0.09124887884129487
-0.30060000000000003,-0.09123473172829621
-0.30160000000000003,-0.09122058461529756
-0.30260000000000004,-0.09120643750229893
-0.30360000000000004,-0.09120643750229893
-0.30460000000000004,-0.09117814327630162
-0.30560000000000004,-0.09116399616330297
-0.30660000000000004,-0.09117814327630162
-0.30760000000000004,-0.09117814327630162
-0.30860000000000004,-0.09113570193730568
-0.30960000000000004,-0.09113570193730568
-0.31060000000000004,-0.09113570193730568
-0.31160000000000004,-0.09113570193730568
-0.31260000000000004,-0.09114984905030431
-0.31360000000000005,-0.09113570193730568
-0.31460000000000005,-0.09110740771130836
-0.31560000000000005,-0.091121554824307
-0.31660000000000005,-0.09110740771130836
-0.31760000000000005,-0.091121554824307
-0.31860000000000005,-0.09110740771130836
-0.31960000000000005,-0.09113570193730568
-0.32060000000000005,-0.09113570193730568
-0.32160000000000005,-0.09113570193730568
-0.32260000000000005,-0.09114984905030431
-0.32360000000000005,-0.09114984905030431
-0.32460000000000006,-0.09113570193730568
-0.32560000000000006,-0.09114984905030431
-0.32660000000000006,-0.09116399616330297
-0.32760000000000006,-0.09116399616330297
-0.32860000000000006,-0.09116399616330297
-0.32960000000000006,-0.09116399616330297
-0.33060000000000006,-0.09117814327630162
-0.33160000000000006,-0.09119229038930025
-0.33260000000000006,-0.09120643750229893
-0.33360000000000006,-0.09122058461529756
-0.33460000000000006,-0.09120643750229893
-0.33560000000000006,-0.09124887884129487
-0.33660000000000007,-0.0912630259542935
-0.33760000000000007,-0.0912630259542935
-0.33860000000000007,-0.09127717306729217
-0.33960000000000007,-0.09129132018029082
-0.34060000000000007,-0.09131961440628812
-0.34160000000000007,-0.09131961440628812
-0.34260000000000007,-0.09136205574528407
-0.34360000000000007,-0.09134790863228542
-0.3446000000000001,-0.09139034997128137
-0.3456000000000001,-0.09141864419727867
-0.3466000000000001,-0.09144693842327598
-0.34759999999999996,-0.09147523264927326
-0.3486000000000001,-0.09146108553627462
-0.34959999999999997,-0.09148937976227192
-0.3506000000000001,-0.09151767398826924
-0.35159999999999997,-0.09154596821426653
-0.3526000000000001,-0.09157426244026382
-0.35359999999999997,-0.09158840955326249
-0.3546000000000001,-0.09161670377925978
-0.35559999999999997,-0.09164499800525706
-0.3566000000000001,-0.09167329223125438
-0.3576,-0.09171573357025031
-0.3586000000000001,-0.09172988068324898
-0.3596,-0.09174402779624763
-0.3606000000000001,-0.09180061624824223
-0.3616,-0.09182891047423952
-0.3626000000000001,-0.09187135181323548
-0.3636,-0.09189964603923279
-0.3646000000000001,-0.09192794026523009
-0.3656,-0.09197038160422603
-0.3666000000000001,-0.09202697005622064
-0.3676,-0.09206941139521659
-0.3686000000000001,-0.09209770562121389
-0.3696,-0.09212599984721119
-0.3706000000000001,-0.09219673541220444
-0.3716,-0.0922391767512004
-0.3726000000000001,-0.09228161809019635
-0.3736,-0.09230991231619365
-0.3746000000000001,-0.0923523536551896
-0.3756,-0.09242308922018284
-0.3766000000000001,-0.09247967767217745
-0.3776,-0.0925221190111734
-0.3786000000000001,-0.09255041323717071
-0.3796,-0.09262114880216396
-0.3806000000000001,-0.09266359014115991
-0.3816,-0.09273432570615316
-0.3826000000000001,-0.09279091415814776
-0.3836,-0.09284750261014235
-0.3846000000000001,-0.0929182381751356
-0.3856,-0.09296067951413156
-0.3866000000000001,-0.09303141507912481
-0.3876,-0.09310215064411806
-0.3886000000000001,-0.09313044487011536
-0.3896,-0.09321532754810727
-0.3906000000000001,-0.09328606311310052
-0.3916,-0.09332850445209646
-0.3926000000000001,-0.09342753424308703
-0.3936,-0.09346997558208296
-0.3946000000000001,-0.09355485826007487
-0.3956,-0.09362559382506812
-0.3966000000000001,-0.09369632939006138
-0.3976,-0.09378121206805329
-0.3986000000000001,-0.09385194763304654
-0.3996,-0.0939226831980398
-0.4006000000000001,-0.09400756587603168
-0.4016,-0.09407830144102494
-0.4026000000000001,-0.09419147834501414
-0.4036,-0.0942622139100074
-0.4046000000000001,-0.09433294947500065
-0.4056,-0.09441783215299256
-0.40660000000000013,-0.09450271483098445
-0.4076,-0.094601744621975
-0.40860000000000013,-0.09470077441296555
-0.4096,-0.09478565709095746
-0.41060000000000013,-0.09488468688194801
-0.4116,-0.09498371667293856
-0.41260000000000013,-0.09508274646392911
-0.4136,-0.09518177625491966
-0.41460000000000014,-0.09526665893291157
-0.4156,-0.09539398294989941
-0.41660000000000014,-0.09547886562789133
-0.4176,-0.09560618964487919
-0.41860000000000014,-0.0957193665488684
-0.41960000000000003,-0.09581839633985893
-0.42060000000000014,-0.09594572035684679
-0.42160000000000003,-0.0960871914868333
-0.42260000000000014,-0.09624280972981844
-0.42360000000000003,-0.09632769240781036
-0.42460000000000014,-0.09645501642479819
-0.42560000000000003,-0.09658234044178605
-0.42660000000000015,-0.09670966445877392
-0.42760000000000004,-0.09687942981475771
-0.42860000000000015,-0.09697845960574826
-0.42960000000000004,-0.09713407784873342
-0.43060000000000015,-0.09726140186572127
-0.43160000000000004,-0.09740287299570777
-0.43260000000000015,-0.09755849123869292
-0.43360000000000004,-0.09769996236867944
-0.43460000000000015,-0.09785558061166459
-0.43560000000000004,-0.0980536401936457
-0.43660000000000015,-0.0981951113236322
