Potential V vs RHE, Current mA cm-2
0.013299999999999867,38.04158685337084
0.012299999999999978,36.18831505054764
0.011299999999999866,34.6604268466934
0.010299999999999976,33.373039563816214
0.009299999999999864,32.02906382894443
0.008299999999999974,30.685088094072643
0.007299999999999862,29.39770081119546
0.006299999999999972,28.19519620631018
0.00529999999999986,27.1058685054141
0.0042999999999999705,25.974099465522073
0.0032999999999998586,24.870624651627345
0.0022999999999999687,23.823738289727217
0.0012999999999998568,22.790999040825742
0.00029999999999996696,21.701671339929664
-0.000700000000000145,20.76796188201874
-0.0017000000000000348,19.77766397211321
-0.0027000000000001467,18.78736606220769
-0.0037000000000000366,17.853656604296763
-0.0047000000000001485,16.93409425938449
-0.005700000000000038,16.04282614046952
-0.00670000000000015,15.165705134553193
-0.00770000000000004,14.373466806628771
-0.008700000000000152,13.517566470210424
-0.009700000000000042,12.73240169878533
-0.010700000000000154,11.961384040358885
-0.011700000000000044,11.145095620336757
-0.012700000000000156,10.367004405410988
-0.013700000000000045,9.571936654886837
-0.014700000000000157,8.813651398159179
-0.015700000000000047,8.119028149925446
-0.01670000000000016,7.425819612991578
-0.01770000000000005,6.7340257873575755
-0.01870000000000016,6.049305518222896
-0.01970000000000005,5.353267558689299
-0.020700000000000163,4.712403339850438
-0.021700000000000053,4.080027388810766
-0.022700000000000164,3.440577881271769
-0.023700000000000054,2.7997136624329078
-0.024700000000000166,2.1800701130920217
-0.025700000000000056,1.5745736767497858
-0.026700000000000168,0.9826584688862544
-0.027700000000000058,0.39696799074212924
-0.02870000000000017,-0.1843368823724143
-0.02970000000000006,-0.7778082726657971
-0.03070000000000017,-1.3582643190004215
-0.03170000000000006,-1.9084455435179344
-0.03270000000000017,-2.4545241052658384
-0.03370000000000006,-3.0147497800123935
-0.034700000000000175,-3.566487186959758
-0.035700000000000065,-4.085686234010226
-0.03670000000000018,-4.583664611562719
-0.03770000000000007,-5.091545968214268
-0.03870000000000018,-5.59801261356595
-0.03970000000000007,-6.110138104117093
-0.04070000000000018,-6.633581285067157
-0.04170000000000007,-7.106094859222079
-0.04270000000000018,-7.592755546375652
-0.04370000000000007,-8.10912517082639
-0.044700000000000184,-8.597200569279828
-0.045700000000000074,-9.082446545133534
-0.046700000000000186,-9.540813006289808
-0.047700000000000076,-9.993520622246619
-0.04870000000000019,-10.46037535120208
-0.04970000000000008,-10.941377193156194
-0.05070000000000019,-11.379937696114355
-0.05170000000000008,-11.818498199072517
-0.05270000000000019,-12.266961681129732
-0.05370000000000008,-12.716839874486816
-0.05470000000000019,-13.210574118139712
-0.05570000000000008,-13.646305198498144
-0.056700000000000195,-14.045253785060085
-0.057700000000000085,-14.472496597619326
-0.058700000000000196,-14.896909987578834
-0.059700000000000086,-15.37791182953295
-0.0607000000000002,-15.816472332491113
-0.06170000000000009,-16.25503283544927
-0.0627000000000002,-16.721887564404735
-0.06370000000000009,-17.160448067362896
-0.0647000000000002,-17.542420118326454
-0.06570000000000009,-17.980980621284615
-0.0667000000000002,-18.40539401124413
-0.0677000000000001,-18.78736606220769
-0.0687000000000002,-19.1834852261699
-0.0697000000000001,-19.678634181122664
-0.07070000000000021,-20.046459119087572
-0.0717000000000001,-20.44257828304978
-0.07270000000000021,-20.95187435100119
-0.0737000000000001,-21.390434853959356
-0.07470000000000021,-21.800701130920213
-0.0757000000000001,-22.225114520879725
-0.07670000000000021,-22.67782213683654
-0.0777000000000001,-23.045647074801447
-0.07870000000000021,-23.49835469075826
-0.0797000000000001,-23.908620967719123
-0.08070000000000022,-24.34718147067728
-0.0817000000000001,-24.870624651627345
-0.08270000000000022,-25.252596702590903
-0.08370000000000011,-25.691157205549064
-0.08470000000000022,-26.129717708507226
-0.08570000000000011,-26.497542646472137
-0.08670000000000022,-26.86536758443705
-0.08770000000000011,-27.233192522401957
-0.08870000000000022,-27.65760591236147
-0.08970000000000011,-28.12446064131693
-0.09070000000000022,-28.478138466283188
-0.09170000000000011,-28.959140308237306
-0.09270000000000023,-29.35525947219951
-0.09370000000000012,-29.72308441016442
-0.09470000000000023,-30.21823336511718
-0.09570000000000012,-30.685088094072643
-0.09670000000000023,-31.010471693041605
-0.09770000000000012,-31.420737970002463
-0.09870000000000023,-31.873445585959274
-0.09970000000000012,-32.354447427913385
-0.10070000000000023,-32.807155043870196
-0.10170000000000012,-33.302303998822964
-0.10270000000000024,-33.81160006677438
-0.10370000000000013,-34.16527789174064
-0.10470000000000024,-34.50480860370825
-0.10570000000000013,-34.9716633326637
-0.10670000000000024,-35.41022383562187
-0.10770000000000013,-35.848784338580025
-0.10870000000000024,-36.244903502542236
-0.10970000000000013,-36.655169779503105
-0.11070000000000024,-37.07958316946261
-0.11170000000000013,-37.46155522042617
-0.11270000000000002,-37.81523304539243
-0.11370000000000013,-38.211352209354644
-0.11470000000000002,-38.678206938310105
-0.11570000000000014,-39.116767441268266
-0.11670000000000003,-39.51288660523048
-0.11770000000000014,-39.97974133418594
-0.11870000000000003,-40.40415472414545
-0.11970000000000014,-40.97003924409146
-0.12070000000000003,-41.42274686004827
-0.12170000000000014,-41.66324778102533
-0.12270000000000003,-42.03107271899024
-0.12370000000000014,-42.4130447699538
-0.12470000000000003,-42.78086970791871
-0.12570000000000014,-43.106253306887666
-0.12670000000000003,-43.672137826833676
-0.12770000000000015,-44.195581007783744
-0.12870000000000004,-44.67658284973786
-0.12970000000000015,-45.157584691691966
-0.13070000000000004,-45.53955674265553
-0.13170000000000015,-46.006411471610996
-0.13270000000000004,-46.27520661858535
-0.13370000000000015,-46.628884443551605
-0.13470000000000004,-47.22306318949492
-0.13570000000000015,-47.633329466455784
-0.13670000000000004,-48.086037082412595
-0.13770000000000016,-48.49630335937346
-0.13870000000000005,-48.84998118433972
-0.13970000000000016,-49.24610034830193
-0.14070000000000005,-49.444159930283035
-0.14170000000000016,-49.75539641625335
-0.14270000000000005,-50.179809806212845
-0.14370000000000016,-50.85887123014807
-0.14470000000000005,-51.481344202088685
-0.14570000000000016,-52.061375835033346
-0.14670000000000005,-52.61311324198071
-0.14770000000000016,-53.065820857937524
-0.14870000000000005,-53.39120445690648
-0.14970000000000017,-53.815617846866
-0.15070000000000006,-54.33906102781606
-0.15170000000000017,-54.72103307877962
-0.15270000000000006,-55.18788780773508
-0.15370000000000017,-55.59815408469595
-0.15470000000000006,-55.90939057066625
-0.15570000000000017,-56.43283375161632
-0.15670000000000006,-56.88554136757313
-0.15770000000000017,-57.29580764453399
-0.15870000000000006,-57.79095659948675
-0.15970000000000018,-58.116340198455696
-0.16070000000000007,-58.47001802342197
-0.16170000000000018,-58.90857852638013
-0.16270000000000007,-59.23396212534908
-0.16370000000000018,-59.95546488828025
-0.16470000000000007,-60.46476095623167
-0.16570000000000018,-60.832585894196576
-0.16670000000000007,-61.228705058158795
-0.16770000000000018,-61.6814126741156
-0.16870000000000007,-62.16241451606972
-0.16970000000000018,-62.53023945403463
-0.17070000000000007,-62.96879995699278
-0.17170000000000019,-63.46394891194555
-0.17270000000000008,-63.91665652790236
-0.1737000000000002,-64.39765836985646
-0.17470000000000008,-64.9352486638052
-0.1757000000000002,-65.3030736017701
-0.17670000000000008,-65.64260431373769
-0.1777000000000002,-65.95384079970802
-0.17870000000000008,-66.34995996367022
-0.1797000000000002,-66.83096180562433
-0.18070000000000008,-67.45343477756495
-0.1817000000000002,-67.8354068285285
-0.18270000000000008,-68.30226155748396
-0.1837000000000002,-68.83985185143268
-0.1847000000000001,-69.39158925838004
-0.1857000000000002,-69.6886786313517
-0.1867000000000001,-70.07065068231528
-0.1877000000000002,-70.43847562028017
-0.1887000000000001,-70.90533034923564
-0.1897000000000002,-71.47121486918165
-0.1907000000000001,-71.95221671113578
-0.1917000000000001,-72.30589453610202
-0.19269999999999998,-72.43321855308989
-0.1937000000000001,-72.75860215205884
-0.19469999999999998,-73.06983863802915
-0.1957000000000001,-73.63572315797516
-0.19669999999999999,-74.32893169490903
-0.1977000000000001,-74.52699127689014
-0.1987,-75.29093537881725
-0.1997000000000001,-75.94170257675518
-0.2007,-76.21049772372953
-0.2017000000000001,-76.71979379168094
-0.2027,-77.03103027765125
-0.2037000000000001,-77.66765036259052
-0.2047,-78.19109354354057
-0.2057000000000001,-78.62965404649873
-0.2067,-78.7569780634866
-0.2077000000000001,-79.11065588845284
-0.2087,-79.50677505241507
-0.2097000000000001,-79.98777689436918
-0.2107,-80.28486626734085
-0.2117000000000001,-80.6385440923071
-0.2127,-81.03466325626928
-0.2137000000000001,-81.47322375922747
-0.2147,-81.78446024519776
-0.2157000000000001,-82.33619765214513
-0.2167,-82.87378794609386
-0.21770000000000012,-83.08599464107361
-0.2187,-83.38308401404527
-0.21970000000000012,-83.86408585599938
-0.2207,-84.18946945496833
-0.22170000000000012,-84.38752903694943
-0.2227,-84.57144150593189
-0.22370000000000012,-84.9392664438968
-0.2247,-85.34953272085767
-0.22570000000000012,-85.78809322381582
-0.2267,-86.12762393578342
-0.22770000000000012,-86.42471330875509
-0.22870000000000001,-86.66521422973216
-0.22970000000000013,-86.86327381171324
-0.23070000000000002,-87.08962761969167
-0.23170000000000013,-87.42915833165927
-0.23270000000000002,-87.93845439961068
-0.23370000000000013,-87.93845439961068
-0.23470000000000002,-88.24969088558099
-0.23570000000000013,-88.5892215975486
-0.23670000000000002,-88.87216385752161
-0.2376999999999999,-89.31072436047977
-0.23870000000000002,-89.69269641144332
-0.2396999999999999,-89.55122528145681
-0.24070000000000003,-89.35316569947572
-0.24169999999999991,-89.31072436047977
-0.24270000000000003,-89.46634260346492
-0.24369999999999992,-89.76343197643658
-0.24470000000000003,-90.01808001041228
-0.24569999999999992,-90.28687515738663
-0.24670000000000003,-90.54152319136236
-0.24769999999999992,-91.06496637231241
-0.24870000000000003,-91.10740771130837
-0.24969999999999992,-91.30546729328947
-0.25070000000000003,-91.47523264927328
-0.2516999999999999,-91.71573357025032
-0.25270000000000004,-91.88549892623412
-0.2536999999999999,-91.87135181323548
-0.25470000000000004,-92.01282294322199
-0.2556999999999999,-92.19673541220443
-0.25670000000000004,-92.06941139521659
-0.25769999999999993,-92.18258829920579
-0.25870000000000004,-92.45138344618015
-0.25969999999999993,-92.56456035016936
-0.26070000000000004,-92.7201785931545
-0.26169999999999993,-92.7767670451491
-0.26270000000000004,-92.88994394913831
-0.26369999999999993,-92.91823817513561
-0.26470000000000005,-92.83335549714371
-0.26569999999999994,-92.83335549714371
-0.26670000000000005,-92.86164972314101
-0.26769999999999994,-92.93238528813426
-0.26870000000000005,-92.76261993215046
-0.26969999999999994,-92.74847281915181
-0.27070000000000005,-92.79091415814774
-0.27169999999999994,-92.90409106213696
-0.27270000000000005,-92.91823817513561
-0.27369999999999994,-93.00312085312751
-0.27470000000000006,-92.93238528813426
-0.27569999999999995,-92.9748266271302
-0.27670000000000006,-93.13044487011537
-0.27769999999999995,-93.28606311310051
-0.27870000000000006,-93.14459198311401
-0.27969999999999995,-92.93238528813426
-0.28070000000000006,-92.87579683613966
-0.28169999999999995,-93.00312085312751
-0.28270000000000006,-92.74847281915181
-0.28369999999999995,-92.74847281915181
-0.28470000000000006,-92.93238528813426
-0.28569999999999995,-92.9748266271302
-0.28670000000000007,-92.74847281915181
-0.28769999999999996,-93.14459198311401
-0.28870000000000007,-93.34265156509512
-0.28969999999999996,-93.39924001708972
-0.29070000000000007,-93.44168135608567
-0.29169999999999996,-93.31435733909782
-0.29270000000000007,-93.24362177410455
-0.29369999999999996,-92.96067951413156
-0.2947000000000001,-92.70603148015586
-0.29569999999999996,-92.5221190111734
-0.2967000000000001,-92.6070016891653
-0.29769999999999996,-92.5221190111734
-0.2987000000000001,-92.578707463168
-0.29969999999999997,-92.6352959151626
-0.3007000000000001,-92.7201785931545
-0.30169999999999997,-92.64944302816124
-0.3027000000000001,-92.45138344618015
-0.30369999999999997,-92.09770562121389
-0.3047000000000001,-92.29576520319499
-0.30569999999999997,-92.62114880216394
-0.3067000000000001,-92.83335549714371
-0.3077,-93.08800353111941
-0.3087000000000001,-93.13044487011537
-0.3097,-93.28606311310051
-0.3107000000000001,-93.46997558208298
-0.3117,-93.41338713008837
-0.3127000000000001,-93.41338713008837
-0.3137,-93.46997558208298
-0.3147000000000001,-93.66803516406408
-0.3157,-93.88024185904384
-0.3167000000000001,-94.10659566702225
-0.3177,-94.30465524900335
-0.3187000000000001,-94.64418596097094
-0.3197,-94.88468688194801
-0.3207000000000001,-95.28080604591021
-0.3217,-95.76180788786432
-0.3227000000000001,-96.35598663380765
-0.3237,-96.5398991027901
-0.3247000000000001,-96.41257508580226
-0.3257,-96.73795868477121
-0.3267000000000001,-97.17651918772938
-0.3277,-97.09163650973747
-0.3287000000000001,-97.33213743071452
-0.3297,-97.69996236867944
-0.3307000000000001,-98.16681709763489
-0.3317,-98.5063478096025
-0.3327000000000001,-99.00149676455526
-0.3337,-99.52493994550532
-0.3347000000000001,-100.00594178745945
-0.3357,-100.26058982143515
-0.3367000000000001,-100.5010907424122
-0.3377,-100.5010907424122
-0.3387000000000001,-100.78403300238521
-0.3397,-101.23674061834203
-0.3407000000000001,-101.47724153931907
-0.3417,-102.05727317226375
-0.3427000000000001,-102.3260683192381
-0.3437,-102.65145191820707
-0.3447000000000001,-103.30221911614498
-0.3457,-103.91054497508695
-0.3467000000000001,-105.07060824097626
-0.3477,-105.26866782295738
-0.3487000000000001,-105.53746296993172
-0.3497,-105.86284656890071
-0.3507000000000001,-106.15993594187235
-0.3517,-106.54190799283592
-0.3527000000000001,-106.83899736580757
-0.3537,-107.22096941677113
-0.3547000000000001,-107.64538280673065
-0.3557,-108.04150197069285
-0.35670000000000013,-108.49420958664966
-0.3577,-108.77715184662266
-0.35870000000000013,-109.25815368857677
-0.3597,-110.3050400504769
-0.36070000000000013,-110.74360055343507
-0.3617,-110.94166013541617
-0.3626999999999999,-111.23874950838784
-0.3637,-111.77633980233655
-0.3646999999999999,-112.17245896629876
-0.3657,-112.56857813026097
-0.3666999999999999,-112.80907905123803
-0.3677,-112.89396172922991
-0.3686999999999999,-113.19105110220158
-0.36970000000000003,-113.64375871815841
-0.3706999999999999,-114.54917395007203
-0.37170000000000003,-115.22823537400723
-0.3726999999999999,-115.65264876396675
-0.37370000000000003,-116.00632658893302
-0.3746999999999999,-115.99217947593435
-0.37570000000000003,-115.8931496849438
-0.3766999999999999,-115.63850165096811
-0.37770000000000004,-116.03462081493029
-0.3786999999999999,-116.89759470784797
-0.37970000000000004,-117.54836190578591
-0.3806999999999999,-118.2274233297211
-0.38170000000000004,-118.43963002470086
-0.38269999999999993,-118.43963002470086
-0.38370000000000004,-118.70842517167522
-0.38469999999999993,-119.10454433563743
-0.38570000000000004,-119.10454433563743
-0.38669999999999993,-117.97277529574541
-0.38570000000000004,-115.03017579202613
-0.38469999999999993,-112.14416474030146
-0.38370000000000004,-109.90892088651471
-0.38269999999999993,-107.78685393671715
-0.38170000000000004,-105.79211100390745
-0.3806999999999999,-103.92469208808559
-0.37970000000000004,-102.08556739826105
-0.3786999999999999,-100.26058982143515
-0.37770000000000004,-98.2799940016241
-0.3766999999999999,-96.5398991027901
-0.37570000000000003,-94.88468688194801
-0.3746999999999999,-93.05970930512211
-0.37370000000000003,-91.37620285828272
-0.3726999999999999,-89.97563867141633
-0.37170000000000003,-88.5892215975486
-0.3706999999999999,-87.075480506693
-0.36970000000000003,-85.56173941583742
-0.3686999999999999,-84.23191079396429
-0.3677,-83.01525907608035
-0.3666999999999999,-81.62884200221261
-0.3657,-80.07265957236108
-0.3646999999999999,-78.57306559450414
-0.3637,-77.1583542946391
-0.3626999999999999,-76.02658525474708
-0.3617,-75.02214023184291
-0.36070000000000013,-73.79134140096032
-0.3597,-72.60298390907369
-0.35870000000000013,-71.4004793041884
-0.3577,-70.35359294228827
-0.35670000000000013,-69.36329503238275
-0.3557,-68.11834908850152
-0.3547000000000001,-66.85925603162164
-0.3537,-65.82651678272015
-0.3527000000000001,-65.0767197937917
-0.3517,-63.91665652790236
-0.3507000000000001,-62.71415192301708
-0.3497,-61.72385401311155
-0.3487000000000001,-60.71940899020737
-0.3477,-60.16767158326001
-0.3467000000000001,-59.31884480334099
-0.3457,-58.34269400643411
-0.3447000000000001,-57.32410187053129
-0.3437,-56.404539525619015
-0.3427000000000001,-55.612301197694585
-0.3417,-54.80591575677152
-0.3407000000000001,-53.999530315848446
-0.3397,-53.136556422930774
-0.3387000000000001,-52.35846520800501
-0.3377,-51.65110955807249
-0.3367000000000001,-50.915459682142675
-0.3357,-50.12322135421825
-0.3347000000000001,-49.387571478288436
-0.3337,-48.66606871535726
-0.3327000000000001,-47.94456595242609
-0.3317,-46.99670938151652
-0.3307000000000001,-46.60059021755431
-0.3297,-45.949823019616396
-0.3287000000000001,-45.01611356170547
-0.3277,-44.3229050247716
-0.3267000000000001,-43.70043205283099
-0.3257,-42.93648795090387
-0.3247000000000001,-42.25742652696865
-0.3237,-41.56421799003478
-0.3227000000000001,-40.743685436113054
-0.3217,-40.06462401217784
-0.3207000000000001,-39.42800392723857
-0.3197,-38.734795390304704
-0.3187000000000001,-37.94255706238028
-0.3177,-37.192760073451815
-0.3167000000000001,-36.49955153651795
-0.3157,-35.693166095594876
-0.3147000000000001,-35.098987349651566
-0.3137,-34.44822015171364
-0.3127000000000001,-33.52865780680137
-0.3117,-32.70812525287965
-0.3107000000000001,-32.02906382894443
-0.3097,-31.350002405009217
-0.3087000000000001,-30.642646755076694
-0.3077,-29.991879557138777
-0.3067000000000001,-29.27037679420761
-0.30569999999999997,-28.577168257273744
-0.3047000000000001,-27.841518381343924
-0.30369999999999997,-27.1058685054141
-0.3027000000000001,-26.34192440348698
-0.30169999999999997,-25.677010092550415
-0.3007000000000001,-25.012095781613848
-0.29969999999999997,-24.23400456668808
-0.2987000000000001,-23.526648916755562
-0.29769999999999996,-22.790999040825742
-0.2967000000000001,-22.126084729889175
-0.29569999999999996,-21.418729079956652
-0.2947000000000001,-20.79625610801604
-0.29369999999999996,-20.14548891007812
-0.29270000000000007,-19.49472171214021
-0.29169999999999996,-18.80151317520634
-0.29070000000000007,-18.10830463827247
-0.28969999999999996,-17.40094898833995
-0.28870000000000007,-16.750181790402035
-0.28769999999999996,-16.099414592464115
-0.28670000000000007,-15.448647394526201
-0.28569999999999995,-14.812027309586934
-0.28470000000000006,-14.135795308251447
-0.28369999999999995,-13.473710419914608
-0.28270000000000006,-12.855481581873589
-0.28169999999999995,-12.220276208234186
-0.28070000000000006,-11.596388524993706
-0.27969999999999995,-10.938547770556465
-0.27870000000000006,-10.296268840417738
-0.27769999999999995,-9.717651918772937
-0.27670000000000006,-9.15459682142665
-0.27569999999999995,-8.581638744981312
-0.27470000000000006,-7.983215865138402
-0.27369999999999994,-7.370645872296841
-0.27270000000000005,-6.786370105452581
-0.27169999999999994,-6.226144430706027
-0.27070000000000005,-5.661674622059877
-0.26969999999999994,-5.073154721316022
-0.26870000000000005,-4.500196644870682
-0.26769999999999994,-3.9413856814239923
-0.26670000000000005,-3.3726717388782474
-0.26569999999999994,-2.8322520223298033
-0.26470000000000005,-2.2946617283810897
