Potential V vs RHE, Current mA cm-2
0.013299999999999867,34.236013456733886
0.012299999999999978,32.49591855789989
0.011299999999999866,30.925589015049702
0.010299999999999976,29.39770081119546
0.009299999999999864,27.869812607341224
0.008299999999999974,26.426807081478888
0.007299999999999862,24.983801555616548
0.006299999999999972,23.597384481748815
0.00529999999999986,22.281702972874328
0.0042999999999999705,20.93772723800254
0.0032999999999998586,19.622045729128057
0.0022999999999999687,18.320511333252224
0.0012999999999998568,17.00482982437774
0.00029999999999996696,15.78817810649381
-0.000700000000000145,14.57152638860988
-0.0017000000000000348,13.388827741922707
-0.0027000000000001467,12.210373229135131
-0.0037000000000000366,10.94562132705579
-0.0047000000000001485,9.724725475272262
-0.005700000000000038,8.503829623488736
-0.00670000000000015,7.369231160996977
-0.00770000000000004,6.278488748801033
-0.008700000000000152,5.18774633660509
-0.009700000000000042,4.098418635709011
-0.010700000000000154,2.919964122921436
-0.011700000000000044,1.7429243214337253
-0.012700000000000156,0.6520404381077953
-0.013700000000000045,-0.3947044526623452
-0.014700000000000157,-1.4415908145624723
-0.015700000000000047,-2.4884771764625997
-0.01670000000000016,-3.5353635383627267
-0.01770000000000005,-4.626105950558669
-0.01870000000000016,-5.672992312458796
-0.01970000000000005,-6.719878674358924
-0.020700000000000163,-7.722908985963235
-0.021700000000000053,-8.68208324727173
-0.022700000000000164,-9.641257508580225
-0.023700000000000054,-10.688143870480351
-0.024700000000000166,-11.73503023238048
-0.025700000000000056,-12.781916594280606
-0.026700000000000168,-13.741090855589102
-0.027700000000000058,-14.65640906660178
-0.02870000000000017,-15.618412750510005
-0.02970000000000006,-16.580416434418233
-0.03070000000000017,-17.542420118326454
-0.03170000000000006,-18.49027668923603
-0.03270000000000017,-19.49472171214021
-0.03370000000000006,-20.414284057052477
-0.034700000000000175,-21.248963723972853
-0.035700000000000065,-22.15437895588647
-0.03670000000000018,-23.073941300798747
-0.03770000000000007,-24.078386323702922
-0.03870000000000018,-25.04039000761115
-0.03970000000000007,-25.959952352523427
-0.04070000000000018,-26.907808923433
-0.04170000000000007,-27.742488590353368
-0.04270000000000018,-28.577168257273744
-0.04370000000000007,-29.482583489187363
-0.044700000000000184,-30.402145834099635
-0.045700000000000074,-31.321708179011907
-0.046700000000000186,-32.14224073293363
-0.047700000000000076,-33.01936173884996
-0.04870000000000019,-33.89648274476628
-0.04970000000000008,-34.8018979766799
-0.05070000000000019,-35.679018982596226
-0.05170000000000008,-36.55613998851254
-0.05270000000000019,-37.41911388143023
-0.05370000000000008,-38.253793548350586
-0.05470000000000019,-39.046031876275016
-0.05570000000000008,-39.82412309120078
-0.056700000000000195,-40.743685436113054
-0.057700000000000085,-41.606659329030734
-0.058700000000000196,-42.568663012938956
-0.059700000000000086,-43.53066669684718
-0.0607000000000002,-44.3229050247716
-0.06170000000000009,-45.01611356170547
-0.0627000000000002,-45.79420477663124
-0.06370000000000009,-46.67132578254756
-0.0647000000000002,-47.54844678846388
-0.06570000000000009,-48.41142068138156
-0.0667000000000002,-49.373424365289786
-0.0677000000000001,-50.20810403221015
-0.0687000000000002,-50.943753908139975
-0.0697000000000001,-51.65110955807249
-0.07070000000000021,-52.386759434002315
-0.0717000000000001,-53.16485064892808
-0.07270000000000021,-53.9570889768525
-0.0737000000000001,-54.791768643772876
-0.07470000000000021,-55.612301197694585
-0.0757000000000001,-56.44698086461496
-0.07670000000000021,-57.30995475753264
-0.0777000000000001,-58.18707576344896
-0.07870000000000021,-59.02175543036933
-0.0797000000000001,-59.7998466452951
-0.08070000000000022,-60.40817250423707
-0.0817000000000001,-61.20041083216149
-0.08270000000000022,-62.06338472507916
-0.08370000000000011,-63.06782974798333
-0.08470000000000022,-64.11471610988345
-0.08570000000000011,-65.16160247178358
-0.08670000000000022,-66.16604749468777
-0.08770000000000011,-67.00072716160814
-0.08870000000000022,-67.82125971552985
-0.08970000000000011,-68.61349804345427
-0.09070000000000022,-69.39158925838004
-0.09170000000000011,-70.22626892530042
-0.09270000000000023,-71.10338993121674
-0.09370000000000012,-71.92392248513846
-0.09470000000000023,-72.67371947406694
-0.09570000000000012,-73.53669336698461
-0.09670000000000023,-74.41381437290093
-0.09770000000000012,-75.29093537881725
-0.09870000000000023,-76.11146793273898
-0.09970000000000012,-76.81882358267148
-0.10070000000000023,-77.34226676362155
-0.10170000000000012,-77.90815128356756
-0.10270000000000024,-78.64380115949739
-0.10370000000000013,-79.47848082641775
-0.10470000000000024,-80.38389605833139
-0.10570000000000013,-81.26101706424771
-0.10670000000000024,-82.09569673116808
-0.10770000000000013,-82.8313466070979
-0.10870000000000024,-83.56699648302772
-0.10970000000000013,-84.40167614994809
-0.11070000000000024,-85.27879715586442
-0.11170000000000013,-86.09932970978613
-0.11270000000000002,-86.80668535971866
-0.11370000000000013,-87.45745255765657
-0.11470000000000002,-88.10821975559449
-0.11570000000000014,-88.9004580835189
-0.11670000000000003,-89.84831465442848
-0.11770000000000014,-90.85275967733266
-0.11870000000000003,-91.77232202224494
-0.11970000000000014,-92.64944302816124
-0.12070000000000003,-93.42753424308701
-0.12170000000000014,-94.17733123201549
-0.12270000000000003,-95.04030512493317
-0.12370000000000014,-96.04475014783733
-0.12470000000000003,-97.04919517074151
-0.12570000000000014,-98.05364019364569
-0.12670000000000003,-99.01564387755391
-0.12770000000000015,-99.83617643147564
-0.12870000000000004,-100.62841475940007
-0.12970000000000015,-101.3640646353299
-0.13070000000000004,-102.07142028526239
-0.13170000000000015,-102.72218748320032
-0.13270000000000004,-103.41539602013418
-0.13370000000000015,-104.16519300906265
-0.13470000000000004,-105.16963803196683
-0.13570000000000015,-105.86284656890071
-0.13670000000000004,-107.07949828678463
-0.13770000000000016,-108.1688259876807
-0.13870000000000005,-109.13082967158894
-0.13970000000000016,-109.8806266605174
-0.14070000000000005,-110.34748138947285
-0.14170000000000016,-110.82848323142699
-0.14270000000000005,-111.49339754236355
-0.14370000000000016,-112.48369545226906
-0.14470000000000005,-113.88425963913545
-0.14570000000000016,-115.19994114800993
-0.14670000000000005,-116.10535637992358
-0.14770000000000016,-116.85515336885203
-0.14870000000000005,-117.42103788879804
-0.14970000000000017,-118.02936374774
-0.15070000000000006,-118.82160207566443
-0.15170000000000017,-119.95337111555646
-0.15270000000000006,-121.17002283344038
-0.15370000000000017,-122.30179187333242
-0.15470000000000006,-123.34867823523254
-0.15570000000000017,-124.26824058014482
-0.15670000000000006,-125.14536158606113
-0.15770000000000017,-125.96589413998288
-0.15870000000000006,-126.88545648489513
-0.15970000000000018,-127.84746016880335
-0.16070000000000007,-128.71043406172103
-0.16170000000000018,-129.6299964066333
-0.16270000000000007,-130.7193241075294
-0.16370000000000018,-131.80865180842545
-0.16470000000000007,-132.72821415333775
-0.16570000000000018,-133.64777649825
-0.16670000000000007,-134.46830905217172
-0.16770000000000018,-135.34543005808808
-0.16870000000000007,-136.30743374199628
-0.16970000000000018,-137.12796629591801
-0.17070000000000007,-137.87776328484648
-0.17170000000000019,-138.61341316077628
-0.17270000000000008,-139.27832747171286
-0.1737000000000002,-139.8866533306548
-0.17470000000000008,-140.4949791895968
-0.1757000000000002,-141.18818772653066
-0.17670000000000008,-141.89554337646317
-0.1777000000000002,-142.7443701563822
-0.17870000000000008,-143.5931969363012
-0.1797000000000002,-144.44202371622026
-0.18070000000000008,-145.14937936615277
-0.1817000000000002,-146.1396772760583
-0.18270000000000008,-146.9885040559773
-0.1837000000000002,-147.97880196588284
-0.1847000000000001,-148.82762874580186
-0.1857000000000002,-149.8179266557074
-0.1867000000000001,-150.94969569559944
-0.1877000000000002,-151.93999360550492
-0.1887000000000001,-152.93029151541046
-0.1897000000000002,-153.920589425316
-0.1907000000000001,-154.9108873352215
-0.1917000000000001,-156.04265637511355
-0.19269999999999998,-157.03295428501906
-0.1937000000000001,-157.7403099349516
-0.19469999999999998,-158.5891367148706
-0.1957000000000001,-159.43796349478964
-0.19669999999999999,-160.28679027470866
-0.1977000000000001,-160.99414592464117
-0.1987,-161.70150157457368
-0.1997000000000001,-162.40885722450622
-0.2007,-162.97474174445222
-0.2017000000000001,-163.82356852437124
-0.2027,-164.81386643427678
-0.2037000000000001,-165.6626932141958
-0.2047,-166.65299112410133
-0.2057000000000001,-167.50181790402033
-0.2067,-168.20917355395284
-0.2077000000000001,-169.0580003338719
-0.2087,-169.9068271137909
-0.2097000000000001,-170.61418276372342
-0.2107,-171.46300954364247
-0.2117000000000001,-172.59477858353446
-0.2127,-173.44360536345349
-0.2137000000000001,-174.150961013386
-0.2147,-174.99978779330505
-0.2157000000000001,-175.84861457322407
-0.2167,-176.6974413531431
-0.21770000000000012,-177.6877392630486
-0.2187,-178.67803717295413
-0.21970000000000012,-179.80980621284618
-0.2207,-180.8001041227517
-0.22170000000000012,-182.07334429263022
-0.2227,-183.20511333252225
-0.22370000000000012,-184.19541124242778
-0.2247,-185.1857091523333
-0.22570000000000012,-186.03453593225234
-0.2267,-186.88336271217133
-0.22770000000000012,-187.73218949209036
-0.22870000000000001,-188.58101627200938
-0.22970000000000013,-189.2883719219419
-0.23070000000000002,-190.27866983184742
-0.23170000000000013,-191.12749661176645
-0.23270000000000002,-192.11779452167198
-0.23370000000000013,-192.82515017160452
-0.23470000000000002,-193.532505821537
-0.23570000000000013,-194.2398614714695
-0.23670000000000002,-194.94721712140205
-0.2376999999999999,-195.93751503130758
-0.23870000000000002,-196.7863418112266
-0.2396999999999999,-197.49369746115914
-0.24070000000000003,-198.20105311109162
-0.24169999999999991,-199.04987989101065
-0.24270000000000003,-199.75723554094319
-0.24369999999999992,-200.6060623208622
-0.24470000000000003,-201.4548891007812
-0.24569999999999992,-202.16224475071377
-0.24670000000000003,-202.7281292706598
-0.24769999999999992,-203.71842718056527
-0.24870000000000003,-204.7087250904708
-0.24969999999999992,-205.69902300037634
-0.25070000000000003,-206.83079204026836
-0.2516999999999999,-207.8210899501739
-0.25270000000000004,-208.52844560010638
-0.2536999999999999,-209.37727238002543
-0.25470000000000004,-210.22609915994445
-0.2556999999999999,-211.07492593986345
-0.25670000000000004,-212.065223849769
-0.25769999999999993,-213.05552175967455
-0.25870000000000004,-214.04581966958003
-0.25969999999999993,-215.03611757948556
-0.26070000000000004,-215.88494435940459
-0.26169999999999993,-216.87524226931012
-0.26270000000000004,-217.72406904922914
-0.26369999999999993,-218.71436695913465
-0.26470000000000005,-219.7046648690402
-0.26569999999999994,-220.5534916489592
-0.26670000000000005,-221.26084729889175
-0.26769999999999994,-222.3926163387838
-0.26870000000000005,-223.38291424868927
-0.26969999999999994,-224.2317410286083
-0.27070000000000005,-225.22203893851383
-0.27169999999999994,-226.21233684841937
-0.27270000000000005,-227.06116362833836
-0.27369999999999994,-227.7685192782709
-0.27470000000000006,-228.61734605818995
-0.27569999999999995,-229.18323057813595
-0.27670000000000006,-229.60764396809546
-0.27769999999999995,-230.59794187800094
-0.27870000000000006,-231.44676865792
-0.27969999999999995,-232.29559543783904
-0.28070000000000006,-233.1444222177581
-0.28169999999999995,-233.56883560771757
-0.28270000000000006,-234.13472012766357
-0.28369999999999995,-235.12501803756908
-0.28470000000000006,-236.1153159474746
-0.28569999999999995,-236.96414272739366
-0.28670000000000007,-238.0959117672857
-0.28769999999999996,-239.0862096771912
-0.28870000000000007,-239.7935653271237
-0.28969999999999996,-240.92533436701575
-0.29070000000000007,-242.05710340690777
-0.29169999999999996,-242.90593018682682
-0.29270000000000007,-243.8962280967323
-0.29369999999999996,-245.45241052658386
-0.2947000000000001,-246.7256506964624
-0.29569999999999996,-247.57447747638145
-0.2967000000000001,-248.56477538628693
-0.29769999999999996,-249.5550732961925
-0.2987000000000001,-250.1209578161385
-0.29969999999999997,-250.828313466071
-0.3007000000000001,-251.53566911600356
-0.30169999999999997,-252.243024765936
-0.3027000000000001,-253.09185154585506
-0.30369999999999997,-253.94067832577412
-0.3047000000000001,-254.50656284572008
-0.30569999999999997,-255.07244736566614
-0.3067000000000001,-255.92127414558513
-0.3077,-256.77010092550415
-0.3087000000000001,-257.33598544545015
-0.3097,-258.0433410953827
-0.3107000000000001,-259.0336390052882
-0.3117,-260.16540804518024
-0.3127000000000001,-261.4386482150588
-0.3137,-262.42894612496434
-0.3147000000000001,-263.13630177489676
-0.3157,-263.98512855481584
-0.3167000000000001,-265.11689759470784
-0.3177,-266.1071955046134
-0.3187000000000001,-266.9560222845325
-0.3197,-267.94632019443793
-0.3207000000000001,-268.93661810434344
-0.3217,-270.0683871442355
-0.3227000000000001,-271.20015618412754
-0.3237,-272.1904540940331
-0.3247000000000001,-273.03928087395207
-0.3257,-273.60516539389806
-0.3267000000000001,-274.1710499138441
-0.3277,-274.4539921738171
-0.3287000000000001,-274.7369344337901
-0.3297,-275.1613478237496
-0.3307000000000001,-275.58576121370913
-0.3317,-275.86870347368216
-0.3327000000000001,-276.5760591236147
-0.3337,-277.4248859035337
-0.3347000000000001,-277.84929929349323
-0.3357,-278.4151838134392
-0.3367000000000001,-279.26401059335825
-0.3377,-280.11283737327733
-0.3387000000000001,-280.9616641531963
-0.3397,-281.9519620631018
-0.3407000000000001,-282.8007888430208
-0.3417,-283.9325578829129
-0.3427000000000001,-285.2057980527914
-0.3437,-286.33756709268346
-0.3447000000000001,-287.327865002589
-0.3457,-288.176691782508
-0.3467000000000001,-289.1669896924135
-0.3477,-290.0158164723325
-0.3487000000000001,-290.86464325225154
-0.3497,-291.71347003217056
-0.3507000000000001,-292.56229681208964
-0.3517,-293.4111235920086
-0.3527000000000001,-294.2599503719276
-0.3537,-294.96730602186017
-0.3547000000000001,-295.53319054180616
-0.3557,-296.2405461917387
-0.35670000000000013,-296.94790184167124
-0.3577,-297.51378636161724
-0.35870000000000013,-298.2211420115498
-0.3597,-298.9284976614822
-0.36070000000000013,-299.49438218142825
-0.3617,-300.3432089613473
-0.3626999999999999,-300.48468009133376
-0.3637,-301.1920357412663
-0.3646999999999999,-301.7579202612123
-0.3657,-302.18233365117186
-0.3666999999999999,-302.6067470411313
-0.3677,-303.0311604310908
-0.3686999999999999,-303.5970449510368
-0.36970000000000003,-304.4458717309559
-0.3706999999999999,-305.29469851087487
-0.37170000000000003,-306.00205416080746
-0.3726999999999999,-306.70940981073994
-0.37370000000000003,-307.4167654606725
-0.3746999999999999,-308.54853450056453
-0.37570000000000003,-309.53883241047004
-0.3766999999999999,-310.81207258034857
-0.37770000000000004,-312.0853127502271
-0.3786999999999999,-313.0756106601326
-0.37970000000000004,-314.20737970002466
-0.3806999999999999,-315.0562064799437
-0.38170000000000004,-315.76356212987616
-0.38269999999999993,-316.1879755198357
-0.38370000000000004,-316.47091777980876
-0.38469999999999993,-316.8953311697682
-0.38570000000000004,-317.3197445597277
-0.38669999999999993,-316.6123889097952
-0.38570000000000004,-313.5000240500921
-0.38469999999999993,-310.52913032037554
-0.38370000000000004,-307.841178850632
-0.38269999999999993,-305.29469851087487
-0.38170000000000004,-302.74821817111786
-0.3806999999999999,-300.06026670137425
-0.37970000000000004,-297.23084410164427
-0.3786999999999999,-294.4014215019141
-0.37770000000000004,-291.71347003217056
-0.3766999999999999,-289.1669896924135
-0.37570000000000003,-286.76198048264297
-0.3746999999999999,-284.49844240285887
-0.37370000000000003,-282.3763754530613
-0.3726999999999999,-279.97136624329073
-0.37170000000000003,-277.56635703352015
-0.3706999999999999,-275.0198766937631
-0.36970000000000003,-272.1904540940331
-0.3686999999999999,-269.64397375427603
-0.3677,-267.38043567449193
-0.3666999999999999,-264.83395533473487
-0.3657,-262.57041725495077
-0.3646999999999999,-260.4483503051532
-0.3637,-258.32628335535566
-0.3626999999999999,-256.20421640555816
-0.3617,-254.50656284572008
-0.36070000000000013,-252.38449589592256
-0.3597,-250.1209578161385
-0.35870000000000013,-248.14036199632744
-0.3577,-246.01829504652986
-0.35670000000000013,-243.75475696674582
-0.3557,-241.77416114693477
-0.3547000000000001,-239.65209419713722
-0.3537,-237.38855611735315
-0.3527000000000001,-234.9835469075826
-0.3517,-232.72000882779852
-0.3507000000000001,-230.45647074801445
-0.3497,-228.33440379821695
-0.3487000000000001,-226.21233684841937
-0.3477,-224.09026989862178
-0.3467000000000001,-221.96820294882426
-0.3457,-219.8461359990267
-0.3447000000000001,-217.58259791924263
-0.3437,-215.4605309694451
-0.3427000000000001,-213.47993514963403
-0.3417,-211.499339329823
-0.3407000000000001,-209.51874351001192
-0.3397,-207.3966765602144
-0.3387000000000001,-205.41608074040332
-0.3377,-203.15254266061928
-0.3367000000000001,-201.17194684080823
-0.3357,-199.04987989101065
-0.3347000000000001,-197.0692840711996
-0.3337,-195.08868825138856
-0.3327000000000001,-193.10809243157752
-0.3317,-191.12749661176645
-0.3307000000000001,-189.1469007919554
-0.3297,-187.30777610213087
-0.3287000000000001,-185.46865141230631
-0.3277,-183.62952672248176
-0.3267000000000001,-181.79040203265723
-0.3257,-179.80980621284618
-0.3247000000000001,-177.9706815230216
-0.3237,-176.13155683319707
-0.3227000000000001,-174.43390327335902
-0.3217,-172.59477858353446
-0.3207000000000001,-170.61418276372342
-0.3197,-168.77505807389886
-0.3187000000000001,-166.79446225408785
-0.3177,-164.9553375642633
-0.3167000000000001,-162.8332706144657
-0.3157,-161.1356170546277
-0.3147000000000001,-159.43796349478964
-0.3137,-157.59883880496508
-0.3127000000000001,-155.61824298515404
-0.3117,-153.63764716534297
-0.3107000000000001,-151.5155802155454
-0.3097,-149.6764555257209
-0.3087000000000001,-147.83733083589632
-0.3077,-146.1396772760583
-0.3067000000000001,-144.58349484620675
-0.30569999999999997,-142.7443701563822
-0.3047000000000001,-140.93353969255494
-0.30369999999999997,-139.05197366373446
-0.3027000000000001,-137.2694374259045
-0.30169999999999997,-135.5576367530678
-0.3007000000000001,-133.90242453222572
-0.29969999999999997,-132.2896536503796
-0.2987000000000001,-130.59200009054155
-0.29769999999999996,-128.93678786969946
-0.2967000000000001,-127.32401698785328
-0.29569999999999996,-125.71124610600715
-0.2947000000000001,-123.99944543317046
-0.29369999999999996,-122.34423321232836
-0.29270000000000007,-120.64657965249035
-0.29169999999999996,-119.03380877064419
-0.29070000000000007,-117.46347922779398
-0.28969999999999996,-115.97803236293572
-0.28870000000000007,-114.40770282008553
-0.28769999999999996,-112.75249059924342
-0.28670000000000007,-111.09727837840134
-0.28569999999999995,-109.52694883555114
-0.28470000000000006,-107.95661929270095
-0.28369999999999995,-106.38628974985076
-0.28270000000000006,-104.77351886800463
-0.28169999999999995,-103.20318932515443
-0.28070000000000006,-101.59041844330828
-0.27969999999999995,-99.97764756146215
-0.27870000000000006,-98.364876679616
-0.27769999999999995,-96.69551734577524
-0.27670000000000006,-95.18177625491967
-0.27569999999999995,-93.65388805106544
-0.27470000000000006,-92.12599984721119
-0.27369999999999994,-90.59811164335694
-0.27270000000000005,-89.07022343950271
-0.27169999999999994,-87.54233523564847
-0.27070000000000005,-86.09932970978613
-0.26969999999999994,-84.6563241839238
-0.26870000000000005,-83.18502443206415
-0.26769999999999994,-81.69957756720586
