Sept. 16, 2024   21:22:44
Cyclic Voltammetry
File: c:/users/guazh/data/20240903_batch_252_500/2024-09-03-exp373\exp373-2024-09-16t21_03_54-arkoh\exp373_cv_sr_400mvs_efin_-1700mv.bin
Data Source:  Experiment
Instrument Model:  CHI760E
Header: CV ran at 400 mVs
Note: 

Init E (V) = -1
High E (V) = -1
Low E (V) = -1.7
Final E (V) = -1
Init P/N = N
Scan Rate (V/s) = 0.4
Segment = 3
Sample Interval (V) = 0.001
Quiet Time (sec) = 2
Sensitivity (A/V) = 0.01
Comp R (ohm) = 1.9

Results:

Channel 1:
Segment 1:

Segment 2:

Segment 3:

Potential/V, Current/A

-1.000, 1.249e-5
-1.001, 3.407e-5
-1.002, 4.332e-5
-1.003, 4.640e-5
-1.004, 4.640e-5
-1.005, 4.949e-5
-1.006, 5.257e-5
-1.007, 5.257e-5
-1.008, 5.565e-5
-1.009, 5.565e-5
-1.010, 5.873e-5
-1.011, 5.873e-5
-1.012, 5.873e-5
-1.013, 5.873e-5
-1.014, 6.182e-5
-1.015, 6.182e-5
-1.016, 6.490e-5
-1.017, 6.490e-5
-1.018, 6.490e-5
-1.019, 6.490e-5
-1.020, 6.490e-5
-1.021, 6.490e-5
-1.022, 6.798e-5
-1.023, 6.798e-5
-1.024, 6.798e-5
-1.025, 6.798e-5
-1.026, 6.798e-5
-1.027, 6.798e-5
-1.028, 7.107e-5
-1.029, 7.107e-5
-1.030, 7.107e-5
-1.031, 7.107e-5
-1.032, 6.798e-5
-1.033, 7.107e-5
-1.034, 7.107e-5
-1.035, 7.107e-5
-1.036, 7.107e-5
-1.037, 7.415e-5
-1.038, 7.107e-5
-1.039, 7.107e-5
-1.040, 7.415e-5
-1.041, 7.415e-5
-1.042, 7.415e-5
-1.043, 7.415e-5
-1.044, 7.415e-5
-1.045, 7.415e-5
-1.046, 7.415e-5
-1.047, 7.415e-5
-1.048, 7.415e-5
-1.049, 7.415e-5
-1.050, 7.723e-5
-1.051, 7.415e-5
-1.052, 7.415e-5
-1.053, 7.415e-5
-1.054, 7.415e-5
-1.055, 7.723e-5
-1.056, 7.723e-5
-1.057, 7.723e-5
-1.058, 7.723e-5
-1.059, 7.723e-5
-1.060, 7.723e-5
-1.061, 7.723e-5
-1.062, 7.723e-5
-1.063, 7.723e-5
-1.064, 7.723e-5
-1.065, 7.723e-5
-1.066, 7.723e-5
-1.067, 7.723e-5
-1.068, 7.723e-5
-1.069, 8.032e-5
-1.070, 8.032e-5
-1.071, 7.723e-5
-1.072, 7.723e-5
-1.073, 7.723e-5
-1.074, 8.032e-5
-1.075, 7.723e-5
-1.076, 8.032e-5
-1.077, 8.032e-5
-1.078, 7.723e-5
-1.079, 7.723e-5
-1.080, 7.723e-5
-1.081, 8.032e-5
-1.082, 8.032e-5
-1.083, 8.032e-5
-1.084, 7.723e-5
-1.085, 8.032e-5
-1.086, 7.723e-5
-1.087, 8.032e-5
-1.088, 8.032e-5
-1.089, 8.032e-5
-1.090, 8.032e-5
-1.091, 8.032e-5
-1.092, 8.032e-5
-1.093, 8.032e-5
-1.094, 8.032e-5
-1.095, 8.032e-5
-1.096, 8.032e-5
-1.097, 8.340e-5
-1.098, 8.032e-5
-1.099, 8.032e-5
-1.100, 8.032e-5
-1.101, 8.032e-5
-1.102, 8.340e-5
-1.103, 8.340e-5
-1.104, 8.340e-5
-1.105, 8.032e-5
-1.106, 8.032e-5
-1.107, 8.032e-5
-1.108, 8.340e-5
-1.109, 8.340e-5
-1.110, 8.340e-5
-1.111, 8.340e-5
-1.112, 8.032e-5
-1.113, 8.340e-5
-1.114, 8.340e-5
-1.115, 8.340e-5
-1.116, 8.340e-5
-1.117, 8.340e-5
-1.118, 8.340e-5
-1.119, 8.340e-5
-1.120, 8.340e-5
-1.121, 8.340e-5
-1.122, 8.648e-5
-1.123, 8.340e-5
-1.124, 8.340e-5
-1.125, 8.340e-5
-1.126, 8.340e-5
-1.127, 8.340e-5
-1.128, 8.340e-5
-1.129, 8.340e-5
-1.130, 8.648e-5
-1.131, 8.340e-5
-1.132, 8.340e-5
-1.133, 8.340e-5
-1.134, 8.648e-5
-1.135, 8.648e-5
-1.136, 8.648e-5
-1.137, 8.648e-5
-1.138, 8.648e-5
-1.139, 8.648e-5
-1.140, 8.648e-5
-1.141, 8.648e-5
-1.142, 8.648e-5
-1.143, 8.648e-5
-1.144, 8.648e-5
-1.145, 8.648e-5
-1.146, 8.648e-5
-1.147, 8.648e-5
-1.148, 8.648e-5
-1.149, 8.648e-5
-1.150, 8.957e-5
-1.151, 8.648e-5
-1.152, 8.648e-5
-1.153, 8.648e-5
-1.154, 8.957e-5
-1.155, 8.957e-5
-1.156, 8.957e-5
-1.157, 8.957e-5
-1.158, 8.957e-5
-1.159, 8.957e-5
-1.160, 8.648e-5
-1.161, 8.957e-5
-1.162, 8.957e-5
-1.163, 8.957e-5
-1.164, 8.957e-5
-1.165, 8.957e-5
-1.166, 8.957e-5
-1.167, 8.957e-5
-1.168, 8.957e-5
-1.169, 9.265e-5
-1.170, 9.265e-5
-1.171, 8.957e-5
-1.172, 8.957e-5
-1.173, 8.957e-5
-1.174, 9.265e-5
-1.175, 9.265e-5
-1.176, 9.265e-5
-1.177, 9.265e-5
-1.178, 9.265e-5
-1.179, 9.265e-5
-1.180, 9.265e-5
-1.181, 9.265e-5
-1.182, 9.573e-5
-1.183, 9.573e-5
-1.184, 9.265e-5
-1.185, 9.265e-5
-1.186, 9.265e-5
-1.187, 9.265e-5
-1.188, 9.573e-5
-1.189, 9.573e-5
-1.190, 9.573e-5
-1.191, 9.573e-5
-1.192, 9.573e-5
-1.193, 9.573e-5
-1.194, 9.573e-5
-1.195, 9.573e-5
-1.196, 9.882e-5
-1.197, 9.573e-5
-1.198, 9.573e-5
-1.199, 9.573e-5
-1.200, 9.573e-5
-1.201, 9.882e-5
-1.202, 9.882e-5
-1.203, 9.882e-5
-1.204, 9.882e-5
-1.205, 9.882e-5
-1.206, 9.882e-5
-1.207, 9.882e-5
-1.208, 9.882e-5
-1.209, 1.019e-4
-1.210, 1.019e-4
-1.211, 1.019e-4
-1.212, 1.019e-4
-1.213, 1.019e-4
-1.214, 1.019e-4
-1.215, 1.019e-4
-1.216, 1.019e-4
-1.217, 1.019e-4
-1.218, 1.019e-4
-1.219, 1.019e-4
-1.220, 1.050e-4
-1.221, 1.050e-4
-1.222, 1.050e-4
-1.223, 1.050e-4
-1.224, 1.050e-4
-1.225, 1.050e-4
-1.226, 1.050e-4
-1.227, 1.050e-4
-1.228, 1.081e-4
-1.229, 1.081e-4
-1.230, 1.111e-4
-1.231, 1.081e-4
-1.232, 1.081e-4
-1.233, 1.081e-4
-1.234, 1.111e-4
-1.235, 1.111e-4
-1.236, 1.111e-4
-1.237, 1.111e-4
-1.238, 1.111e-4
-1.239, 1.111e-4
-1.240, 1.142e-4
-1.241, 1.142e-4
-1.242, 1.142e-4
-1.243, 1.173e-4
-1.244, 1.142e-4
-1.245, 1.142e-4
-1.246, 1.173e-4
-1.247, 1.173e-4
-1.248, 1.173e-4
-1.249, 1.204e-4
-1.250, 1.204e-4
-1.251, 1.204e-4
-1.252, 1.204e-4
-1.253, 1.204e-4
-1.254, 1.235e-4
-1.255, 1.235e-4
-1.256, 1.235e-4
-1.257, 1.266e-4
-1.258, 1.266e-4
-1.259, 1.235e-4
-1.260, 1.266e-4
-1.261, 1.266e-4
-1.262, 1.296e-4
-1.263, 1.327e-4
-1.264, 1.296e-4
-1.265, 1.327e-4
-1.266, 1.327e-4
-1.267, 1.327e-4
-1.268, 1.358e-4
-1.269, 1.358e-4
-1.270, 1.389e-4
-1.271, 1.389e-4
-1.272, 1.389e-4
-1.273, 1.420e-4
-1.274, 1.420e-4
-1.275, 1.420e-4
-1.276, 1.451e-4
-1.277, 1.451e-4
-1.278, 1.481e-4
-1.279, 1.481e-4
-1.280, 1.481e-4
-1.281, 1.512e-4
-1.282, 1.543e-4
-1.283, 1.543e-4
-1.284, 1.574e-4
-1.285, 1.574e-4
-1.286, 1.574e-4
-1.287, 1.605e-4
-1.288, 1.636e-4
-1.289, 1.636e-4
-1.290, 1.666e-4
-1.291, 1.666e-4
-1.292, 1.666e-4
-1.293, 1.697e-4
-1.294, 1.728e-4
-1.295, 1.759e-4
-1.296, 1.790e-4
-1.297, 1.790e-4
-1.298, 1.790e-4
-1.299, 1.821e-4
-1.300, 1.821e-4
-1.301, 1.882e-4
-1.302, 1.882e-4
-1.303, 1.913e-4
-1.304, 1.944e-4
-1.305, 1.975e-4
-1.306, 1.975e-4
-1.307, 2.006e-4
-1.308, 2.036e-4
-1.309, 2.067e-4
-1.310, 2.098e-4
-1.311, 2.129e-4
-1.312, 2.129e-4
-1.313, 2.160e-4
-1.314, 2.221e-4
-1.315, 2.221e-4
-1.316, 2.252e-4
-1.317, 2.283e-4
-1.318, 2.314e-4
-1.319, 2.345e-4
-1.320, 2.376e-4
-1.321, 2.406e-4
-1.322, 2.468e-4
-1.323, 2.468e-4
-1.324, 2.499e-4
-1.325, 2.561e-4
-1.326, 2.561e-4
-1.327, 2.622e-4
-1.328, 2.653e-4
-1.329, 2.684e-4
-1.330, 2.746e-4
-1.331, 2.776e-4
-1.332, 2.807e-4
-1.333, 2.838e-4
-1.334, 2.869e-4
-1.335, 2.931e-4
-1.336, 2.961e-4
-1.337, 3.023e-4
-1.338, 3.054e-4
-1.339, 3.085e-4
-1.340, 3.115e-4
-1.341, 3.177e-4
-1.342, 3.239e-4
-1.343, 3.300e-4
-1.344, 3.331e-4
-1.345, 3.362e-4
-1.346, 3.424e-4
-1.347, 3.455e-4
-1.348, 3.516e-4
-1.349, 3.578e-4
-1.350, 3.640e-4
-1.351, 3.670e-4
-1.352, 3.701e-4
-1.353, 3.763e-4
-1.354, 3.825e-4
-1.355, 3.886e-4
-1.356, 3.948e-4
-1.357, 4.010e-4
-1.358, 4.040e-4
-1.359, 4.102e-4
-1.360, 4.164e-4
-1.361, 4.225e-4
-1.362, 4.287e-4
-1.363, 4.349e-4
-1.364, 4.410e-4
-1.365, 4.441e-4
-1.366, 4.503e-4
-1.367, 4.565e-4
-1.368, 4.657e-4
-1.369, 4.719e-4
-1.370, 4.780e-4
-1.371, 4.842e-4
-1.372, 4.904e-4
-1.373, 4.965e-4
-1.374, 5.027e-4
-1.375, 5.089e-4
-1.376, 5.181e-4
-1.377, 5.243e-4
-1.378, 5.274e-4
-1.379, 5.335e-4
-1.380, 5.428e-4
-1.381, 5.489e-4
-1.382, 5.582e-4
-1.383, 5.644e-4
-1.384, 5.705e-4
-1.385, 5.798e-4
-1.386, 5.859e-4
-1.387, 5.921e-4
-1.388, 5.983e-4
-1.389, 6.075e-4
-1.390, 6.137e-4
-1.391, 6.199e-4
-1.392, 6.260e-4
-1.393, 6.353e-4
-1.394, 6.445e-4
-1.395, 6.507e-4
-1.396, 6.599e-4
-1.397, 6.661e-4
-1.398, 6.754e-4
-1.399, 6.815e-4
-1.400, 6.877e-4
-1.401, 6.969e-4
-1.402, 7.062e-4
-1.403, 7.124e-4
-1.404, 7.216e-4
-1.405, 7.278e-4
-1.406, 7.339e-4
-1.407, 7.432e-4
-1.408, 7.524e-4
-1.409, 7.617e-4
-1.410, 7.679e-4
-1.411, 7.740e-4
-1.412, 7.802e-4
-1.413, 7.894e-4
-1.414, 7.987e-4
-1.415, 8.079e-4
-1.416, 8.172e-4
-1.417, 8.264e-4
-1.418, 8.388e-4
-1.419, 8.480e-4
-1.420, 8.542e-4
-1.421, 8.603e-4
-1.422, 8.665e-4
-1.423, 8.727e-4
-1.424, 8.788e-4
-1.425, 8.850e-4
-1.426, 8.912e-4
-1.427, 9.004e-4
-1.428, 9.158e-4
-1.429, 9.282e-4
-1.430, 9.374e-4
-1.431, 9.436e-4
-1.432, 9.498e-4
-1.433, 9.590e-4
-1.434, 9.683e-4
-1.435, 9.775e-4
-1.436, 9.868e-4
-1.437, 9.960e-4
-1.438, 1.002e-3
-1.439, 1.008e-3
-1.440, 1.014e-3
-1.441, 1.027e-3
-1.442, 1.036e-3
-1.443, 1.045e-3
-1.444, 1.055e-3
-1.445, 1.067e-3
-1.446, 1.079e-3
-1.447, 1.088e-3
-1.448, 1.095e-3
-1.449, 1.101e-3
-1.450, 1.113e-3
-1.451, 1.122e-3
-1.452, 1.129e-3
-1.453, 1.138e-3
-1.454, 1.147e-3
-1.455, 1.159e-3
-1.456, 1.169e-3
-1.457, 1.181e-3
-1.458, 1.187e-3
-1.459, 1.196e-3
-1.460, 1.206e-3
-1.461, 1.218e-3
-1.462, 1.230e-3
-1.463, 1.236e-3
-1.464, 1.243e-3
-1.465, 1.252e-3
-1.466, 1.264e-3
-1.467, 1.273e-3
-1.468, 1.283e-3
-1.469, 1.292e-3
-1.470, 1.307e-3
-1.471, 1.320e-3
-1.472, 1.332e-3
-1.473, 1.341e-3
-1.474, 1.351e-3
-1.475, 1.360e-3
-1.476, 1.372e-3
-1.477, 1.381e-3
-1.478, 1.388e-3
-1.479, 1.397e-3
-1.480, 1.409e-3
-1.481, 1.421e-3
-1.482, 1.434e-3
-1.483, 1.446e-3
-1.484, 1.455e-3
-1.485, 1.468e-3
-1.486, 1.480e-3
-1.487, 1.492e-3
-1.488, 1.502e-3
-1.489, 1.511e-3
-1.490, 1.523e-3
-1.491, 1.536e-3
-1.492, 1.545e-3
-1.493, 1.557e-3
-1.494, 1.566e-3
-1.495, 1.579e-3
-1.496, 1.594e-3
-1.497, 1.606e-3
-1.498, 1.619e-3
-1.499, 1.628e-3
-1.500, 1.640e-3
-1.501, 1.653e-3
-1.502, 1.665e-3
-1.503, 1.674e-3
-1.504, 1.684e-3
-1.505, 1.699e-3
-1.506, 1.711e-3
-1.507, 1.721e-3
-1.508, 1.733e-3
-1.509, 1.745e-3
-1.510, 1.761e-3
-1.511, 1.773e-3
-1.512, 1.782e-3
-1.513, 1.795e-3
-1.514, 1.807e-3
-1.515, 1.822e-3
-1.516, 1.835e-3
-1.517, 1.847e-3
-1.518, 1.856e-3
-1.519, 1.872e-3
-1.520, 1.884e-3
-1.521, 1.899e-3
-1.522, 1.912e-3
-1.523, 1.924e-3
-1.524, 1.936e-3
-1.525, 1.949e-3
-1.526, 1.964e-3
-1.527, 1.976e-3
-1.528, 1.998e-3
-1.529, 2.010e-3
-1.530, 2.026e-3
-1.531, 2.041e-3
-1.532, 2.047e-3
-1.533, 2.060e-3
-1.534, 2.075e-3
-1.535, 2.097e-3
-1.536, 2.109e-3
-1.537, 2.124e-3
-1.538, 2.134e-3
-1.539, 2.149e-3
-1.540, 2.164e-3
-1.541, 2.180e-3
-1.542, 2.195e-3
-1.543, 2.211e-3
-1.544, 2.223e-3
-1.545, 2.238e-3
-1.546, 2.254e-3
-1.547, 2.269e-3
-1.548, 2.285e-3
-1.549, 2.300e-3
-1.550, 2.319e-3
-1.551, 2.334e-3
-1.552, 2.349e-3
-1.553, 2.362e-3
-1.554, 2.377e-3
-1.555, 2.396e-3
-1.556, 2.414e-3
-1.557, 2.433e-3
-1.558, 2.445e-3
-1.559, 2.460e-3
-1.560, 2.476e-3
-1.561, 2.494e-3
-1.562, 2.513e-3
-1.563, 2.528e-3
-1.564, 2.541e-3
-1.565, 2.559e-3
-1.566, 2.578e-3
-1.567, 2.596e-3
-1.568, 2.608e-3
-1.569, 2.624e-3
-1.570, 2.645e-3
-1.571, 2.661e-3
-1.572, 2.676e-3
-1.573, 2.692e-3
-1.574, 2.707e-3
-1.575, 2.726e-3
-1.576, 2.747e-3
-1.577, 2.763e-3
-1.578, 2.778e-3
-1.579, 2.793e-3
-1.580, 2.812e-3
-1.581, 2.827e-3
-1.582, 2.846e-3
-1.583, 2.864e-3
-1.584, 2.886e-3
-1.585, 2.904e-3
-1.586, 2.923e-3
-1.587, 2.938e-3
-1.588, 2.957e-3
-1.589, 2.978e-3
-1.590, 2.997e-3
-1.591, 3.012e-3
-1.592, 3.028e-3
-1.593, 3.049e-3
-1.594, 3.071e-3
-1.595, 3.089e-3
-1.596, 3.108e-3
-1.597, 3.126e-3
-1.598, 3.145e-3
-1.599, 3.163e-3
-1.600, 3.182e-3
-1.601, 3.204e-3
-1.602, 3.225e-3
-1.603, 3.247e-3
-1.604, 3.265e-3
-1.605, 3.284e-3
-1.606, 3.302e-3
-1.607, 3.321e-3
-1.608, 3.342e-3
-1.609, 3.367e-3
-1.610, 3.388e-3
-1.611, 3.407e-3
-1.612, 3.425e-3
-1.613, 3.450e-3
-1.614, 3.475e-3
-1.615, 3.499e-3
-1.616, 3.521e-3
-1.617, 3.540e-3
-1.618, 3.561e-3
-1.619, 3.586e-3
-1.620, 3.607e-3
-1.621, 3.626e-3
-1.622, 3.644e-3
-1.623, 3.663e-3
-1.624, 3.688e-3
-1.625, 3.712e-3
-1.626, 3.740e-3
-1.627, 3.768e-3
-1.628, 3.792e-3
-1.629, 3.820e-3
-1.630, 3.848e-3
-1.631, 3.873e-3
-1.632, 3.894e-3
-1.633, 3.919e-3
-1.634, 3.940e-3
-1.635, 3.965e-3
-1.636, 3.990e-3
-1.637, 4.017e-3
-1.638, 4.042e-3
-1.639, 4.067e-3
-1.640, 4.091e-3
-1.641, 4.116e-3
-1.642, 4.147e-3
-1.643, 4.172e-3
-1.644, 4.196e-3
-1.645, 4.224e-3
-1.646, 4.252e-3
-1.647, 4.283e-3
-1.648, 4.313e-3
-1.649, 4.344e-3
-1.650, 4.372e-3
-1.651, 4.397e-3
-1.652, 4.421e-3
-1.653, 4.443e-3
-1.654, 4.471e-3
-1.655, 4.501e-3
-1.656, 4.532e-3
-1.657, 4.560e-3
-1.658, 4.585e-3
-1.659, 4.612e-3
-1.660, 4.643e-3
-1.661, 4.674e-3
-1.662, 4.702e-3
-1.663, 4.727e-3
-1.664, 4.754e-3
-1.665, 4.791e-3
-1.666, 4.819e-3
-1.667, 4.844e-3
-1.668, 4.865e-3
-1.669, 4.899e-3
-1.670, 4.936e-3
-1.671, 4.961e-3
-1.672, 4.982e-3
-1.673, 5.010e-3
-1.674, 5.044e-3
-1.675, 5.081e-3
-1.676, 5.112e-3
-1.677, 5.137e-3
-1.678, 5.167e-3
-1.679, 5.201e-3
-1.680, 5.235e-3
-1.681, 5.269e-3
-1.682, 5.303e-3
-1.683, 5.337e-3
-1.684, 5.371e-3
-1.685, 5.408e-3
-1.686, 5.439e-3
-1.687, 5.467e-3
-1.688, 5.500e-3
-1.689, 5.541e-3
-1.690, 5.581e-3
-1.691, 5.614e-3
-1.692, 5.645e-3
-1.693, 5.679e-3
-1.694, 5.719e-3
-1.695, 5.759e-3
-1.696, 5.793e-3
-1.697, 5.824e-3
-1.698, 5.858e-3
-1.699, 5.898e-3
-1.700, 5.898e-3
-1.699, 5.846e-3
-1.698, 5.803e-3
-1.697, 5.756e-3
-1.696, 5.716e-3
-1.695, 5.673e-3
-1.694, 5.627e-3
-1.693, 5.581e-3
-1.692, 5.537e-3
-1.691, 5.500e-3
-1.690, 5.457e-3
-1.689, 5.411e-3
-1.688, 5.368e-3
-1.687, 5.334e-3
-1.686, 5.291e-3
-1.685, 5.245e-3
-1.684, 5.198e-3
-1.683, 5.158e-3
-1.682, 5.121e-3
-1.681, 5.078e-3
-1.680, 5.029e-3
-1.679, 4.989e-3
-1.678, 4.958e-3
-1.677, 4.924e-3
-1.676, 4.884e-3
-1.675, 4.844e-3
-1.674, 4.804e-3
-1.673, 4.770e-3
-1.672, 4.733e-3
-1.671, 4.693e-3
-1.670, 4.649e-3
-1.669, 4.612e-3
-1.668, 4.575e-3
-1.667, 4.542e-3
-1.666, 4.501e-3
-1.665, 4.464e-3
-1.664, 4.431e-3
-1.663, 4.397e-3
-1.662, 4.363e-3
-1.661, 4.326e-3
-1.660, 4.289e-3
-1.659, 4.255e-3
-1.658, 4.221e-3
-1.657, 4.187e-3
-1.656, 4.153e-3
-1.655, 4.116e-3
-1.654, 4.079e-3
-1.653, 4.045e-3
-1.652, 4.014e-3
-1.651, 3.987e-3
-1.650, 3.956e-3
-1.649, 3.922e-3
-1.648, 3.885e-3
-1.647, 3.854e-3
-1.646, 3.826e-3
-1.645, 3.795e-3
-1.644, 3.765e-3
-1.643, 3.731e-3
-1.642, 3.703e-3
-1.641, 3.675e-3
-1.640, 3.641e-3
-1.639, 3.610e-3
-1.638, 3.580e-3
-1.637, 3.558e-3
-1.636, 3.527e-3
-1.635, 3.496e-3
-1.634, 3.466e-3
-1.633, 3.441e-3
-1.632, 3.419e-3
-1.631, 3.388e-3
-1.630, 3.361e-3
-1.629, 3.330e-3
-1.628, 3.302e-3
-1.627, 3.281e-3
-1.626, 3.253e-3
-1.625, 3.219e-3
-1.624, 3.194e-3
-1.623, 3.173e-3
-1.622, 3.151e-3
-1.621, 3.120e-3
-1.620, 3.089e-3
-1.619, 3.065e-3
-1.618, 3.046e-3
-1.617, 3.025e-3
-1.616, 2.997e-3
-1.615, 2.966e-3
-1.614, 2.941e-3
-1.613, 2.923e-3
-1.612, 2.901e-3
-1.611, 2.880e-3
-1.610, 2.852e-3
-1.609, 2.827e-3
-1.608, 2.803e-3
-1.607, 2.784e-3
-1.606, 2.763e-3
-1.605, 2.738e-3
-1.604, 2.710e-3
-1.603, 2.692e-3
-1.602, 2.673e-3
-1.601, 2.649e-3
-1.600, 2.624e-3
-1.599, 2.602e-3
-1.598, 2.587e-3
-1.597, 2.565e-3
-1.596, 2.544e-3
-1.595, 2.519e-3
-1.594, 2.497e-3
-1.593, 2.476e-3
-1.592, 2.457e-3
-1.591, 2.436e-3
-1.590, 2.414e-3
-1.589, 2.399e-3
-1.588, 2.377e-3
-1.587, 2.356e-3
-1.586, 2.337e-3
-1.585, 2.322e-3
-1.584, 2.303e-3
-1.583, 2.285e-3
-1.582, 2.263e-3
-1.581, 2.245e-3
-1.580, 2.226e-3
-1.579, 2.211e-3
-1.578, 2.192e-3
-1.577, 2.174e-3
-1.576, 2.155e-3
-1.575, 2.140e-3
-1.574, 2.121e-3
-1.573, 2.103e-3
-1.572, 2.087e-3
-1.571, 2.072e-3
-1.570, 2.057e-3
-1.569, 2.038e-3
-1.568, 2.020e-3
-1.567, 2.004e-3
-1.566, 1.989e-3
-1.565, 1.973e-3
-1.564, 1.958e-3
-1.563, 1.943e-3
-1.562, 1.924e-3
-1.561, 1.909e-3
-1.560, 1.896e-3
-1.559, 1.878e-3
-1.558, 1.865e-3
-1.557, 1.847e-3
-1.556, 1.835e-3
-1.555, 1.822e-3
-1.554, 1.807e-3
-1.553, 1.788e-3
-1.552, 1.776e-3
-1.551, 1.764e-3
-1.550, 1.751e-3
-1.549, 1.736e-3
-1.548, 1.717e-3
-1.547, 1.705e-3
-1.546, 1.693e-3
-1.545, 1.680e-3
-1.544, 1.665e-3
-1.543, 1.650e-3
-1.542, 1.637e-3
-1.541, 1.625e-3
-1.540, 1.610e-3
-1.539, 1.594e-3
-1.538, 1.582e-3
-1.537, 1.573e-3
-1.536, 1.557e-3
-1.535, 1.542e-3
-1.534, 1.529e-3
-1.533, 1.520e-3
-1.532, 1.505e-3
-1.531, 1.492e-3
-1.530, 1.480e-3
-1.529, 1.468e-3
-1.528, 1.455e-3
-1.527, 1.443e-3
-1.526, 1.431e-3
-1.525, 1.418e-3
-1.524, 1.406e-3
-1.523, 1.397e-3
-1.522, 1.381e-3
-1.521, 1.369e-3
-1.520, 1.357e-3
-1.519, 1.344e-3
-1.518, 1.332e-3
-1.517, 1.323e-3
-1.516, 1.310e-3
-1.515, 1.301e-3
-1.514, 1.289e-3
-1.513, 1.280e-3
-1.512, 1.270e-3
-1.511, 1.258e-3
-1.510, 1.246e-3
-1.509, 1.233e-3
-1.508, 1.221e-3
-1.507, 1.209e-3
-1.506, 1.199e-3
-1.505, 1.190e-3
-1.504, 1.178e-3
-1.503, 1.169e-3
-1.502, 1.159e-3
-1.501, 1.147e-3
-1.500, 1.138e-3
-1.499, 1.125e-3
-1.498, 1.119e-3
-1.497, 1.107e-3
-1.496, 1.095e-3
-1.495, 1.085e-3
-1.494, 1.073e-3
-1.493, 1.064e-3
-1.492, 1.051e-3
-1.491, 1.042e-3
-1.490, 1.036e-3
-1.489, 1.024e-3
-1.488, 1.014e-3
-1.487, 1.005e-3
-1.486, 9.960e-4
-1.485, 9.868e-4
-1.484, 9.775e-4
-1.483, 9.652e-4
-1.482, 9.559e-4
-1.481, 9.467e-4
-1.480, 9.374e-4
-1.479, 9.282e-4
-1.478, 9.189e-4
-1.477, 9.097e-4
-1.476, 9.004e-4
-1.475, 8.912e-4
-1.474, 8.819e-4
-1.473, 8.727e-4
-1.472, 8.634e-4
-1.471, 8.542e-4
-1.470, 8.449e-4
-1.469, 8.357e-4
-1.468, 8.264e-4
-1.467, 8.172e-4
-1.466, 8.079e-4
-1.465, 7.987e-4
-1.464, 7.925e-4
-1.463, 7.833e-4
-1.462, 7.740e-4
-1.461, 7.648e-4
-1.460, 7.555e-4
-1.459, 7.463e-4
-1.458, 7.401e-4
-1.457, 7.339e-4
-1.456, 7.247e-4
-1.455, 7.124e-4
-1.454, 7.062e-4
-1.453, 6.969e-4
-1.452, 6.908e-4
-1.451, 6.846e-4
-1.450, 6.754e-4
-1.449, 6.661e-4
-1.448, 6.569e-4
-1.447, 6.507e-4
-1.446, 6.414e-4
-1.445, 6.353e-4
-1.444, 6.260e-4
-1.443, 6.199e-4
-1.442, 6.106e-4
-1.441, 6.044e-4
-1.440, 5.952e-4
-1.439, 5.859e-4
-1.438, 5.798e-4
-1.437, 5.767e-4
-1.436, 5.674e-4
-1.435, 5.582e-4
-1.434, 5.489e-4
-1.433, 5.428e-4
-1.432, 5.366e-4
-1.431, 5.305e-4
-1.430, 5.243e-4
-1.429, 5.150e-4
-1.428, 5.089e-4
-1.427, 5.027e-4
-1.426, 4.935e-4
-1.425, 4.873e-4
-1.424, 4.811e-4
-1.423, 4.750e-4
-1.422, 4.688e-4
-1.421, 4.595e-4
-1.420, 4.534e-4
-1.419, 4.472e-4
-1.418, 4.441e-4
-1.417, 4.380e-4
-1.416, 4.287e-4
-1.415, 4.225e-4
-1.414, 4.133e-4
-1.413, 4.102e-4
-1.412, 4.040e-4
-1.411, 3.979e-4
-1.410, 3.917e-4
-1.409, 3.855e-4
-1.408, 3.763e-4
-1.407, 3.732e-4
-1.406, 3.670e-4
-1.405, 3.609e-4
-1.404, 3.547e-4
-1.403, 3.485e-4
-1.402, 3.424e-4
-1.401, 3.362e-4
-1.400, 3.300e-4
-1.399, 3.239e-4
-1.398, 3.208e-4
-1.397, 3.146e-4
-1.396, 3.085e-4
-1.395, 3.023e-4
-1.394, 2.992e-4
-1.393, 2.931e-4
-1.392, 2.869e-4
-1.391, 2.838e-4
-1.390, 2.776e-4
-1.389, 2.746e-4
-1.388, 2.653e-4
-1.387, 2.622e-4
-1.386, 2.561e-4
-1.385, 2.499e-4
-1.384, 2.468e-4
-1.383, 2.406e-4
-1.382, 2.376e-4
-1.381, 2.314e-4
-1.380, 2.283e-4
-1.379, 2.221e-4
-1.378, 2.191e-4
-1.377, 2.129e-4
-1.376, 2.098e-4
-1.375, 2.036e-4
-1.374, 2.006e-4
-1.373, 1.944e-4
-1.372, 1.913e-4
-1.371, 1.882e-4
-1.370, 1.851e-4
-1.369, 1.790e-4
-1.368, 1.728e-4
-1.367, 1.697e-4
-1.366, 1.666e-4
-1.365, 1.636e-4
-1.364, 1.605e-4
-1.363, 1.543e-4
-1.362, 1.512e-4
-1.361, 1.451e-4
-1.360, 1.420e-4
-1.359, 1.389e-4
-1.358, 1.358e-4
-1.357, 1.327e-4
-1.356, 1.266e-4
-1.355, 1.235e-4
-1.354, 1.204e-4
-1.353, 1.173e-4
-1.352, 1.142e-4
-1.351, 1.111e-4
-1.350, 1.081e-4
-1.349, 1.050e-4
-1.348, 9.882e-5
-1.347, 9.573e-5
-1.346, 9.573e-5
-1.345, 9.265e-5
-1.344, 8.957e-5
-1.343, 8.648e-5
-1.342, 8.032e-5
-1.341, 7.723e-5
-1.340, 7.415e-5
-1.339, 7.415e-5
-1.338, 7.107e-5
-1.337, 6.798e-5
-1.336, 6.490e-5
-1.335, 6.182e-5
-1.334, 5.873e-5
-1.333, 5.565e-5
-1.332, 5.565e-5
-1.331, 5.257e-5
-1.330, 4.949e-5
-1.329, 4.640e-5
-1.328, 4.332e-5
-1.327, 4.024e-5
-1.326, 4.024e-5
-1.325, 3.715e-5
-1.324, 3.407e-5
-1.323, 3.099e-5
-1.322, 2.790e-5
-1.321, 2.482e-5
-1.320, 2.482e-5
-1.319, 2.174e-5
-1.318, 2.174e-5
-1.317, 1.865e-5
-1.316, 1.557e-5
-1.315, 1.249e-5
-1.314, 1.249e-5
-1.313, 9.405e-6
-1.312, 9.405e-6
-1.311, 6.322e-6
-1.310, 3.239e-6
-1.309, 3.239e-6
-1.308, -2.927e-6
-1.307, -2.927e-6
-1.306, -2.927e-6
-1.305, -6.010e-6
-1.304, -6.010e-6
-1.303, -9.093e-6
-1.302, -1.218e-5
-1.301, -1.218e-5
-1.300, -1.526e-5
-1.299, -1.526e-5
-1.298, -1.526e-5
-1.297, -1.834e-5
-1.296, -2.143e-5
-1.295, -2.143e-5
-1.294, -2.451e-5
-1.293, -2.451e-5
-1.292, -2.451e-5
-1.291, -2.451e-5
-1.290, -2.759e-5
-1.289, -3.068e-5
-1.288, -3.068e-5
-1.287, -3.376e-5
-1.286, -3.376e-5
-1.285, -3.376e-5
-1.284, -3.684e-5
-1.283, -3.684e-5
-1.282, -3.992e-5
-1.281, -3.992e-5
-1.280, -3.992e-5
-1.279, -3.992e-5
-1.278, -3.992e-5
-1.277, -4.301e-5
-1.276, -4.609e-5
-1.275, -4.609e-5
-1.274, -4.609e-5
-1.273, -4.917e-5
-1.272, -4.917e-5
-1.271, -4.917e-5
-1.270, -4.917e-5
-1.269, -5.226e-5
-1.268, -5.226e-5
-1.267, -5.226e-5
-1.266, -5.534e-5
-1.265, -5.534e-5
-1.264, -5.534e-5
-1.263, -5.534e-5
-1.262, -5.842e-5
-1.261, -5.842e-5
-1.260, -5.842e-5
-1.259, -6.151e-5
-1.258, -5.842e-5
-1.257, -6.151e-5
-1.256, -6.151e-5
-1.255, -6.459e-5
-1.254, -6.459e-5
-1.253, -6.459e-5
-1.252, -6.459e-5
-1.251, -6.459e-5
-1.250, -6.459e-5
-1.249, -6.767e-5
-1.248, -6.767e-5
-1.247, -6.767e-5
-1.246, -7.076e-5
-1.245, -6.767e-5
-1.244, -7.076e-5
-1.243, -7.076e-5
-1.242, -7.076e-5
-1.241, -7.384e-5
-1.240, -7.384e-5
-1.239, -7.384e-5
-1.238, -7.384e-5
-1.237, -7.384e-5
-1.236, -7.384e-5
-1.235, -7.692e-5
-1.234, -7.692e-5
-1.233, -7.692e-5
-1.232, -7.692e-5
-1.231, -7.692e-5
-1.230, -7.692e-5
-1.229, -8.000e-5
-1.228, -8.000e-5
-1.227, -8.000e-5
-1.226, -8.000e-5
-1.225, -8.000e-5
-1.224, -8.000e-5
-1.223, -8.000e-5
-1.222, -8.309e-5
-1.221, -8.309e-5
-1.220, -8.309e-5
-1.219, -8.309e-5
-1.218, -8.309e-5
-1.217, -8.309e-5
-1.216, -8.309e-5
-1.215, -8.617e-5
-1.214, -8.617e-5
-1.213, -8.617e-5
-1.212, -8.617e-5
-1.211, -8.617e-5
-1.210, -8.617e-5
-1.209, -8.617e-5
-1.208, -8.925e-5
-1.207, -8.925e-5
-1.206, -8.925e-5
-1.205, -8.925e-5
-1.204, -8.925e-5
-1.203, -8.925e-5
-1.202, -8.925e-5
-1.201, -9.234e-5
-1.200, -9.234e-5
-1.199, -9.234e-5
-1.198, -9.234e-5
-1.197, -9.234e-5
-1.196, -9.542e-5
-1.195, -9.542e-5
-1.194, -9.234e-5
-1.193, -9.234e-5
-1.192, -9.234e-5
-1.191, -9.542e-5
-1.190, -9.542e-5
-1.189, -9.542e-5
-1.188, -9.850e-5
-1.187, -9.542e-5
-1.186, -9.542e-5
-1.185, -9.542e-5
-1.184, -9.850e-5
-1.183, -9.850e-5
-1.182, -9.850e-5
-1.181, -9.850e-5
-1.180, -9.850e-5
-1.179, -9.850e-5
-1.178, -9.850e-5
-1.177, -1.016e-4
-1.176, -1.016e-4
-1.175, -1.016e-4
-1.174, -1.016e-4
-1.173, -1.016e-4
-1.172, -1.016e-4
-1.171, -1.016e-4
-1.170, -1.016e-4
-1.169, -1.047e-4
-1.168, -1.047e-4
-1.167, -1.047e-4
-1.166, -1.047e-4
-1.165, -1.047e-4
-1.164, -1.047e-4
-1.163, -1.047e-4
-1.162, -1.078e-4
-1.161, -1.078e-4
-1.160, -1.078e-4
-1.159, -1.078e-4
-1.158, -1.078e-4
-1.157, -1.078e-4
-1.156, -1.078e-4
-1.155, -1.108e-4
-1.154, -1.108e-4
-1.153, -1.108e-4
-1.152, -1.108e-4
-1.151, -1.108e-4
-1.150, -1.108e-4
-1.149, -1.108e-4
-1.148, -1.139e-4
-1.147, -1.139e-4
-1.146, -1.139e-4
-1.145, -1.139e-4
-1.144, -1.139e-4
-1.143, -1.139e-4
-1.142, -1.139e-4
-1.141, -1.170e-4
-1.140, -1.170e-4
-1.139, -1.170e-4
-1.138, -1.170e-4
-1.137, -1.170e-4
-1.136, -1.201e-4
-1.135, -1.201e-4
-1.134, -1.201e-4
-1.133, -1.201e-4
-1.132, -1.201e-4
-1.131, -1.201e-4
-1.130, -1.201e-4
-1.129, -1.201e-4
-1.128, -1.232e-4
-1.127, -1.232e-4
-1.126, -1.232e-4
-1.125, -1.232e-4
-1.124, -1.232e-4
-1.123, -1.232e-4
-1.122, -1.263e-4
-1.121, -1.263e-4
-1.120, -1.263e-4
-1.119, -1.263e-4
-1.118, -1.263e-4
-1.117, -1.263e-4
-1.116, -1.293e-4
-1.115, -1.293e-4
-1.114, -1.293e-4
-1.113, -1.293e-4
-1.112, -1.293e-4
-1.111, -1.293e-4
-1.110, -1.293e-4
-1.109, -1.324e-4
-1.108, -1.324e-4
-1.107, -1.324e-4
-1.106, -1.324e-4
-1.105, -1.355e-4
-1.104, -1.324e-4
-1.103, -1.355e-4
-1.102, -1.355e-4
-1.101, -1.355e-4
-1.100, -1.355e-4
-1.099, -1.386e-4
-1.098, -1.386e-4
-1.097, -1.355e-4
-1.096, -1.386e-4
-1.095, -1.386e-4
-1.094, -1.417e-4
-1.093, -1.417e-4
-1.092, -1.417e-4
-1.091, -1.417e-4
-1.090, -1.417e-4
-1.089, -1.417e-4
-1.088, -1.448e-4
-1.087, -1.448e-4
-1.086, -1.448e-4
-1.085, -1.448e-4
-1.084, -1.448e-4
-1.083, -1.448e-4
-1.082, -1.478e-4
-1.081, -1.478e-4
-1.080, -1.478e-4
-1.079, -1.478e-4
-1.078, -1.478e-4
-1.077, -1.478e-4
-1.076, -1.509e-4
-1.075, -1.509e-4
-1.074, -1.509e-4
-1.073, -1.509e-4
-1.072, -1.540e-4
-1.071, -1.540e-4
-1.070, -1.540e-4
-1.069, -1.540e-4
-1.068, -1.571e-4
-1.067, -1.571e-4
-1.066, -1.571e-4
-1.065, -1.571e-4
-1.064, -1.571e-4
-1.063, -1.571e-4
-1.062, -1.571e-4
-1.061, -1.602e-4
-1.060, -1.602e-4
-1.059, -1.602e-4
-1.058, -1.602e-4
-1.057, -1.602e-4
-1.056, -1.602e-4
-1.055, -1.632e-4
-1.054, -1.632e-4
-1.053, -1.632e-4
-1.052, -1.632e-4
-1.051, -1.632e-4
-1.050, -1.632e-4
-1.049, -1.663e-4
-1.048, -1.694e-4
-1.047, -1.694e-4
-1.046, -1.694e-4
-1.045, -1.694e-4
-1.044, -1.694e-4
-1.043, -1.694e-4
-1.042, -1.725e-4
-1.041, -1.725e-4
-1.040, -1.725e-4
-1.039, -1.725e-4
-1.038, -1.725e-4
-1.037, -1.725e-4
-1.036, -1.756e-4
-1.035, -1.756e-4
-1.034, -1.756e-4
-1.033, -1.787e-4
-1.032, -1.787e-4
-1.031, -1.787e-4
-1.030, -1.787e-4
-1.029, -1.817e-4
-1.028, -1.817e-4
-1.027, -1.817e-4
-1.026, -1.817e-4
-1.025, -1.817e-4
-1.024, -1.848e-4
-1.023, -1.848e-4
-1.022, -1.848e-4
-1.021, -1.879e-4
-1.020, -1.879e-4
-1.019, -1.879e-4
-1.018, -1.879e-4
-1.017, -1.910e-4
-1.016, -1.910e-4
-1.015, -1.941e-4
-1.014, -1.941e-4
-1.013, -1.941e-4
-1.012, -1.941e-4
-1.011, -1.941e-4
-1.010, -1.941e-4
-1.009, -1.941e-4
-1.008, -1.972e-4
-1.007, -1.972e-4
-1.006, -1.972e-4
-1.005, -1.972e-4
-1.004, -2.002e-4
-1.003, -2.002e-4
-1.002, -2.033e-4
-1.001, -2.033e-4
