Potential V vs RHE, Current mA cm-2
0.013299999999999867,-4.406825699079589
0.012299999999999978,-8.332649556205066
0.011299999999999866,-11.517164692201263
0.010299999999999976,-14.13438059695158
0.009299999999999864,-16.311621287443874
0.008299999999999974,-18.23562865526032
0.007299999999999862,-20.06060623208622
0.006299999999999972,-21.772406904922917
0.00529999999999986,-23.24370665678255
0.0042999999999999705,-24.474505487665134
0.0032999999999998586,-25.43650917157336
0.0022999999999999687,-26.440954194477534
0.0012999999999998568,-27.38881076538711
0.00029999999999996696,-28.393255788291288
-0.000700000000000145,-29.482583489187363
-0.0017000000000000348,-30.317263156107735
-0.0027000000000001467,-30.925589015049702
-0.0037000000000000366,-31.533914873991666
-0.0047000000000001485,-32.09979939393769
-0.005700000000000038,-32.84959638286615
-0.00670000000000015,-33.54280491980002
-0.00770000000000004,-34.15113077874198
-0.008700000000000152,-34.58969128170015
-0.009700000000000042,-34.94336910666641
-0.010700000000000154,-35.198017140642115
-0.011700000000000044,-35.594136304604326
-0.012700000000000156,-36.07513814655844
-0.013700000000000045,-36.5985813275085
-0.014700000000000157,-37.037141830466666
-0.015700000000000047,-37.334231203438314
-0.01670000000000016,-37.56058501141672
-0.01770000000000005,-37.77279170639648
-0.01870000000000016,-38.12646953136274
-0.01970000000000005,-38.607471373316855
-0.020700000000000163,-39.08847321527096
-0.021700000000000053,-39.34312124924667
-0.022700000000000164,-39.47044526623452
-0.023700000000000054,-39.47044526623452
-0.024700000000000166,-39.61191639622103
-0.025700000000000056,-39.86656443019674
-0.026700000000000168,-40.220242255162994
-0.027700000000000058,-40.51733162813464
-0.02870000000000017,-40.701244097117105
-0.02970000000000006,-40.78612677510901
-0.03070000000000017,-40.87100945310091
-0.03170000000000006,-41.04077480908471
-0.03270000000000017,-41.39445263405098
-0.03370000000000006,-41.74813045901723
-0.034700000000000175,-42.04521983198889
-0.035700000000000065,-42.229132300971344
-0.03670000000000018,-42.229132300971344
-0.03770000000000007,-42.2715736399673
-0.03870000000000018,-42.39889765695515
-0.03970000000000007,-42.6111043519349
-0.04070000000000018,-42.92234083790521
-0.04170000000000007,-43.04966485489307
-0.04270000000000018,-43.09210619388902
-0.04370000000000007,-43.09210619388902
-0.044700000000000184,-43.134547532884966
-0.045700000000000074,-43.36090134086337
-0.046700000000000186,-43.657990713835034
-0.047700000000000076,-43.96922719980534
-0.04870000000000019,-44.138992555789144
-0.04970000000000008,-44.223875233781044
-0.05070000000000019,-44.223875233781044
-0.05170000000000008,-44.36534636376755
-0.05270000000000019,-44.535111719751356
-0.05370000000000008,-44.80390686672572
-0.05470000000000019,-45.01611356170547
-0.05570000000000008,-45.01611356170547
-0.056700000000000195,-45.01611356170547
-0.057700000000000085,-44.97367222270952
-0.058700000000000196,-45.143437578693316
-0.059700000000000086,-45.412232725667685
-0.0607000000000002,-45.666880759643384
-0.06170000000000009,-45.89323456762179
-0.0627000000000002,-45.97811724561369
-0.06370000000000009,-45.97811724561369
-0.0647000000000002,-46.10544126260155
-0.06570000000000009,-46.37423640957591
-0.0667000000000002,-46.586443104555656
-0.0677000000000001,-46.79864979953541
-0.0687000000000002,-46.84109113853137
-0.0697000000000001,-46.84109113853137
-0.07070000000000021,-46.84109113853137
-0.0717000000000001,-46.88353247752732
-0.07270000000000021,-47.10988628550572
-0.0737000000000001,-47.40697565847737
-0.07470000000000021,-47.54844678846388
-0.0757000000000001,-47.67577080545174
-0.07670000000000021,-47.67577080545174
-0.0777000000000001,-47.71821214444768
-0.07870000000000021,-47.93041883942744
-0.0797000000000001,-48.24165532539775
-0.08070000000000022,-48.59533315036401
-0.0817000000000001,-48.72265716735186
-0.08270000000000022,-48.72265716735186
-0.08370000000000011,-48.68021582835591
-0.08470000000000022,-48.72265716735186
-0.08570000000000011,-48.89242252333566
-0.08670000000000022,-49.20365900930597
-0.08770000000000011,-49.41586570428573
-0.08870000000000022,-49.557336834272235
-0.08970000000000011,-49.557336834272235
-0.09070000000000022,-49.557336834272235
-0.09170000000000011,-49.68466085126009
-0.09270000000000023,-49.98175022423175
-0.09370000000000012,-50.335428049198
-0.09470000000000023,-50.64666453516831
-0.09570000000000012,-50.73154721316022
-0.09670000000000023,-50.77398855215617
-0.09770000000000012,-50.77398855215617
-0.09870000000000023,-50.943753908139975
-0.09970000000000012,-51.21254905511432
-0.10070000000000023,-51.46719708909004
-0.10170000000000012,-51.69355089706845
-0.10270000000000024,-51.69355089706845
-0.10370000000000013,-51.65110955807249
-0.10470000000000024,-51.77843357506035
-0.10570000000000013,-52.033081609036046
-0.10670000000000024,-52.34431809500636
-0.10770000000000013,-52.69799591997262
-0.10870000000000024,-52.86776127595642
-0.10970000000000013,-52.995085292944275
-0.11070000000000024,-53.079967970936174
-0.11170000000000013,-53.22143910092268
-0.11270000000000002,-53.518528473894335
-0.11370000000000013,-53.82976495986464
-0.11470000000000002,-54.0419716548444
-0.11570000000000014,-54.16929567183226
-0.11670000000000003,-54.16929567183226
-0.11770000000000014,-54.2117370108282
-0.11870000000000003,-54.480532157802564
-0.11970000000000014,-54.73518019177827
-0.12070000000000003,-55.088858016744524
-0.12170000000000014,-55.400094502714836
-0.12270000000000003,-55.527418519702685
-0.12370000000000014,-55.65474253669055
-0.12470000000000003,-55.881096344668954
-0.12570000000000014,-56.1781857176406
-0.12670000000000003,-56.61674622059877
-0.12770000000000015,-56.88554136757313
-0.12870000000000004,-57.097748062552874
-0.12970000000000015,-57.14018940154883
-0.13070000000000004,-57.182630740544774
-0.13170000000000015,-57.408984548523186
-0.13270000000000004,-57.7485152604908
-0.13370000000000015,-58.10219308545706
-0.13470000000000004,-58.45587091042332
-0.13570000000000015,-58.583194927411164
-0.13670000000000004,-58.75296028339497
-0.13770000000000016,-58.92272563937878
-0.13870000000000005,-59.23396212534908
-0.13970000000000016,-59.67252262830725
-0.14070000000000005,-60.15352447026136
-0.14170000000000016,-60.49305518222897
-0.14270000000000005,-60.71940899020737
-0.14370000000000016,-60.761850329203334
-0.14470000000000005,-60.93161568518713
-0.14570000000000016,-61.28529351015339
-0.14670000000000005,-61.63897133511965
-0.14770000000000016,-62.06338472507916
-0.14870000000000005,-62.28973853305756
-0.14970000000000017,-62.459503889041365
-0.15070000000000006,-62.64341635802381
-0.15170000000000017,-62.89806439199953
-0.15270000000000006,-63.37906623395363
-0.15370000000000017,-63.902509414903705
-0.15470000000000006,-64.34106991786187
-0.15570000000000017,-64.68060062982947
-0.15670000000000006,-64.90695443780788
-0.15770000000000017,-65.11916113278764
-0.15870000000000006,-65.43039761875795
-0.15970000000000018,-65.86895812171612
-0.16070000000000007,-66.34995996367022
-0.16170000000000018,-66.68949067563783
-0.16270000000000007,-66.91584448361623
-0.16370000000000018,-67.128051178596
-0.16470000000000007,-67.43928766456631
-0.16570000000000018,-67.82125971552985
-0.16670000000000007,-68.34470289647993
-0.16770000000000018,-68.86814607742998
-0.16870000000000007,-69.26426524139221
-0.16970000000000018,-69.61794306635846
-0.17070000000000007,-69.87259110033416
-0.17170000000000019,-70.31115160329232
-0.17270000000000008,-70.79215344524643
-0.1737000000000002,-71.31559662619651
-0.17470000000000008,-71.75415712915466
-0.1757000000000002,-72.05124650212633
-0.17670000000000008,-72.32004164910067
-0.1777000000000002,-72.63127813507097
-0.17870000000000008,-73.01325018603454
-0.1797000000000002,-73.53669336698461
-0.18070000000000008,-74.06013654793468
-0.1817000000000002,-74.58357972888473
-0.18270000000000008,-74.93725755385098
-0.1837000000000002,-75.2484940398213
-0.1847000000000001,-75.6729074297808
-0.1857000000000002,-76.23879194972683
-0.1867000000000001,-76.9037062606634
-0.1877000000000002,-77.51203211960537
-0.1887000000000001,-77.90815128356756
-0.1897000000000002,-78.20524065653922
-0.1907000000000001,-78.55891848150549
-0.1917000000000001,-78.91259630647174
-0.19269999999999998,-79.52092216541372
-0.1937000000000001,-80.08680668535972
-0.19469999999999998,-80.61024986630979
-0.1957000000000001,-80.99222191727335
-0.19669999999999999,-81.3458997422396
-0.1977000000000001,-81.78446024519776
-0.1987,-82.35034476514379
-0.1997000000000001,-82.95867062408576
-0.2007,-83.75090895201016
-0.2017000000000001,-84.31679347195619
-0.2027,-84.7129126359184
-0.2037000000000001,-85.09488468688197
-0.2047,-85.49100385084417
-0.2057000000000001,-86.05688837079018
-0.2067,-86.7076555687281
-0.2077000000000001,-87.33012854066871
-0.2087,-87.79698326962418
-0.2097000000000001,-88.15066109459043
-0.2107,-88.54678025855264
-0.2117000000000001,-89.07022343950271
-0.2127,-89.72099063744062
-0.2137000000000001,-90.51322896536506
-0.2147,-91.20643750229891
-0.2157000000000001,-91.89964603923279
-0.2167,-92.29576520319499
-0.21770000000000012,-92.86164972314101
-0.2187,-93.38509290409107
-0.21970000000000012,-94.03586010202899
-0.2207,-94.70077441296557
-0.22170000000000012,-95.30910027190752
-0.2227,-95.79010211386164
-0.22370000000000012,-96.17207416482519
-0.2247,-96.65307600677932
-0.22570000000000012,-97.36043165671182
-0.2267,-98.05364019364569
-0.22770000000000012,-98.7892900695755
-0.22870000000000001,-99.35517458952152
-0.22970000000000013,-99.93520622246619
-0.23070000000000002,-100.5010907424122
-0.23170000000000013,-101.10941660135417
-0.23270000000000002,-101.92994915527588
-0.23370000000000013,-102.72218748320032
-0.23470000000000002,-103.37295468113824
-0.23570000000000013,-103.85395652309235
-0.23670000000000002,-104.25007568705455
-0.2376999999999999,-104.77351886800463
-0.23870000000000002,-105.42428606594254
-0.2396999999999999,-106.11749460287639
-0.24070000000000003,-106.90973293080083
-0.24169999999999991,-107.56050012873874
-0.24270000000000003,-108.12638464868475
-0.24369999999999992,-108.64982782963483
-0.24470000000000003,-109.30059502757274
-0.24569999999999992,-110.09283335549715
-0.24670000000000003,-111.01239570040943
-0.24769999999999992,-111.83292825433115
-0.24870000000000003,-112.48369545226906
-0.24969999999999992,-113.00713863321914
-0.25070000000000003,-113.48814047517324
-0.2516999999999999,-114.1530547861098
-0.25270000000000004,-114.88870466203963
-0.2536999999999999,-115.72338432896
-0.25470000000000004,-116.45903420488982
-0.2556999999999999,-117.02491872483584
-0.25670000000000004,-117.54836190578591
-0.25769999999999993,-118.15668776472786
-0.25870000000000004,-118.90648475365633
-0.25969999999999993,-119.769458646574
-0.26070000000000004,-120.73146233048222
-0.26169999999999993,-121.52370065840667
-0.26270000000000004,-122.21690919534053
-0.26369999999999993,-122.82523505428249
-0.26470000000000005,-123.4760022522204
-0.26569999999999994,-124.22579924114888
-0.26670000000000005,-125.10292024706521
-0.26769999999999994,-125.92345280098691
-0.26870000000000005,-126.61666133792076
-0.26969999999999994,-127.19669297086547
-0.27070000000000005,-127.80501882980741
-0.27169999999999994,-128.45578602774532
-0.27270000000000005,-129.33290703366166
-0.27369999999999994,-130.23832226557528
-0.27470000000000006,-131.1154432714916
-0.27569999999999995,-131.89353448641737
-0.27670000000000006,-132.60089013634988
-0.27769999999999995,-133.37898135127566
-0.27870000000000006,-134.21366101819604
-0.27969999999999995,-135.09078202411234
-0.28070000000000006,-135.99619725602597
-0.28169999999999995,-136.7884355839504
-0.28270000000000006,-137.43920278188833
-0.28369999999999995,-138.04752864083028
-0.28470000000000006,-138.6982958387682
-0.28569999999999995,-139.53297550568857
-0.28670000000000007,-140.4949791895968
-0.28769999999999996,-141.456982873505
-0.28870000000000007,-142.17848563643616
-0.28969999999999996,-143.0273124163552
-0.29070000000000007,-143.73466806628772
-0.29169999999999996,-144.72496597619326
-0.29270000000000007,-145.7152638860988
-0.29369999999999996,-146.7055617960043
-0.2947000000000001,-147.6958597059098
-0.29569999999999996,-148.40321535584232
-0.2967000000000001,-149.1105710057749
-0.29769999999999996,-149.8179266557074
-0.2987000000000001,-150.66675343562642
-0.29969999999999997,-151.65705134553193
-0.3007000000000001,-152.64734925543743
-0.30169999999999997,-153.49617603535648
-0.3027000000000001,-154.3450028152755
-0.30369999999999997,-155.05235846520802
-0.3047000000000001,-156.04265637511355
-0.30569999999999997,-157.03295428501906
-0.3067000000000001,-158.3061944548976
-0.3077,-159.43796349478964
-0.3087000000000001,-160.28679027470866
-0.3097,-161.1356170546277
-0.3107000000000001,-161.84297270456022
-0.3117,-162.8332706144657
-0.3127000000000001,-163.82356852437124
-0.3137,-164.9553375642633
-0.3147000000000001,-165.94563547416882
-0.3157,-166.79446225408785
-0.3167000000000001,-167.6432890340068
-0.3177,-168.49211581392586
-0.3187000000000001,-169.48241372383137
-0.3197,-170.75565389370993
-0.3207000000000001,-172.0288940635885
-0.3217,-173.16066310348046
-0.3227000000000001,-174.150961013386
-0.3237,-175.14125892329156
-0.3247000000000001,-175.99008570321055
-0.3257,-177.1218547431026
-0.3267000000000001,-178.25362378299462
-0.3277,-179.38539282288664
-0.3287000000000001,-180.5171618627787
-0.3297,-181.5074597726842
-0.3307000000000001,-182.35628655260325
-0.3317,-183.34658446250873
-0.3327000000000001,-184.6198246323873
-0.3337,-185.89306480226583
-0.3347000000000001,-187.16630497214436
-0.3357,-188.29807401203638
-0.3367000000000001,-189.42984305192843
-0.3377,-190.56161209182042
-0.3387000000000001,-191.83485226169896
-0.3397,-193.10809243157752
-0.3407000000000001,-194.38133260145605
-0.3417,-195.51310164134807
-0.3427000000000001,-196.7863418112266
-0.3437,-197.91811085111863
-0.3447000000000001,-199.04987989101065
-0.3457,-200.18164893090267
-0.3467000000000001,-201.59636023076774
-0.3477,-203.01107153063276
-0.3487000000000001,-204.14284057052478
-0.3497,-205.41608074040332
-0.3507000000000001,-206.68932091028185
-0.3517,-207.96256108016038
-0.3527000000000001,-209.51874351001192
-0.3537,-211.07492593986345
-0.3547000000000001,-212.48963723972852
-0.3557,-213.76287740960703
-0.35670000000000013,-214.75317531951256
-0.3577,-216.0264154893911
-0.35870000000000013,-217.44112678925615
-0.3597,-218.85583808912116
-0.36070000000000013,-220.2705493889862
-0.3617,-221.68526068885126
-0.3626999999999999,-222.9585008587298
-0.3637,-224.2317410286083
-0.3646999999999999,-225.64645232847332
-0.3657,-227.2026347583249
-0.3666999999999999,-228.90028831816295
-0.3677,-230.59794187800094
-0.3686999999999999,-232.15412430785253
-0.36970000000000003,-233.56883560771757
-0.3706999999999999,-234.84207577759608
-0.37170000000000003,-236.25678707746113
-0.3726999999999999,-237.81296950731266
-0.37370000000000003,-239.5106230671507
-0.3746999999999999,-241.06680549700224
-0.37570000000000003,-242.48151679686728
-0.3766999999999999,-243.75475696674582
-0.37770000000000004,-245.31093939659738
-0.3786999999999999,-246.7256506964624
-0.37970000000000004,-248.56477538628693
-0.3806999999999999,-250.4039000761115
-0.38170000000000004,-252.10155363594956
-0.38269999999999993,-253.79920719578757
-0.38370000000000004,-255.35538962563913
-0.38469999999999993,-256.91157205549064
-0.38570000000000004,-258.60922561532874
-0.38669999999999993,-257.1945143154637
-0.38570000000000004,-251.111255726044
-0.38469999999999993,-245.73535278655686
-0.38370000000000004,-241.06680549700224
-0.38269999999999993,-236.53972933743412
-0.38170000000000004,-232.43706656782552
-0.3806999999999999,-228.75881718817644
-0.37970000000000004,-225.22203893851383
-0.3786999999999999,-221.82673181883774
-0.37770000000000004,-218.43142469916165
-0.3766999999999999,-215.03611757948556
-0.37570000000000003,-211.782281589796
-0.3746999999999999,-208.6699167300929
-0.37370000000000003,-205.69902300037634
-0.3726999999999999,-202.7281292706598
-0.37170000000000003,-199.75723554094319
-0.3706999999999999,-196.6448706812401
-0.36970000000000003,-193.532505821537
-0.3686999999999999,-190.42014096183394
-0.3677,-187.59071836210387
-0.3666999999999999,-184.9027668923603
-0.3657,-182.21481542261674
-0.3646999999999999,-179.38539282288664
-0.3637,-176.55597022315658
-0.3626999999999999,-173.86801875341303
-0.3617,-171.18006728366944
-0.36070000000000013,-168.77505807389886
-0.3597,-166.51151999411482
-0.35870000000000013,-163.96503965435775
-0.3577,-161.41855931460069
-0.35670000000000013,-158.73060784485713
-0.3557,-156.04265637511355
-0.3547000000000001,-153.49617603535648
-0.3537,-151.23263795557244
-0.3527000000000001,-148.96909987578834
-0.3517,-146.5640906660178
-0.3507000000000001,-144.01761032626072
-0.3497,-141.456982873505
-0.3487000000000001,-139.09441500273041
-0.3477,-136.91575960093826
-0.3467000000000001,-134.86442821613394
-0.3457,-132.7706554923337
-0.3447000000000001,-130.63444142953747
-0.3437,-128.32846201075745
-0.3427000000000001,-126.00833547897882
-0.3417,-123.74479739919475
-0.3407000000000001,-121.65102467539451
-0.3397,-119.5996932905902
-0.3387000000000001,-117.59080324478184
-0.3377,-115.36970650399375
-0.3367000000000001,-113.10616842420968
-0.3357,-110.92751302241753
-0.3347000000000001,-108.91862297660917
-0.3337,-106.99461560879273
-0.3327000000000001,-105.25452070995874
-0.3317,-103.37295468113824
-0.3307000000000001,-101.3640646353299
-0.3297,-99.31273325052557
-0.3287000000000001,-97.40287299570777
-0.3277,-95.60618964487918
-0.3267000000000001,-93.82365340704924
-0.3257,-92.04111716921928
-0.3247000000000001,-90.07466846240689
-0.3237,-88.06577841659853
-0.3227000000000001,-86.09932970978613
-0.3217,-84.18946945496833
-0.3207000000000001,-82.52011012112759
-0.3197,-80.90733923928146
-0.3187000000000001,-79.16724434044745
-0.3177,-77.42714944161345
-0.3167000000000001,-75.5880247517889
-0.3157,-73.8479298529549
-0.3147000000000001,-72.27760031010472
-0.3137,-70.74971210625048
-0.3127000000000001,-69.26426524139221
-0.3117,-67.65149435954605
-0.3107000000000001,-65.82651678272015
-0.3097,-64.02983343189156
-0.3087000000000001,-62.33217987205352
-0.3077,-60.80429166819927
-0.3067000000000001,-59.36128614233694
-0.30569999999999997,-57.8333979384827
-0.3047000000000001,-56.26306839563251
-0.30369999999999997,-54.60785617479041
-0.3027000000000001,-52.95264395394832
-0.30169999999999997,-51.509638428085985
-0.3007000000000001,-50.1656626932142
-0.29969999999999997,-48.93486386233162
-0.2987000000000001,-47.633329466455784
-0.29769999999999996,-46.147882601597495
-0.2967000000000001,-44.577553058747306
-0.29569999999999996,-43.007223515897124
-0.2947000000000001,-41.56421799003478
-0.29369999999999996,-40.26268359415894
-0.29270000000000007,-38.98944342428042
-0.29169999999999996,-37.645467689408626
-0.29070000000000007,-36.16002082455034
-0.28969999999999996,-34.632132620696105
-0.28870000000000007,-33.288156885824314
-0.28769999999999996,-32.05735805494172
-0.28670000000000007,-30.925589015049702
-0.28569999999999995,-29.793819975157668
-0.28470000000000006,-28.53472691827779
-0.28369999999999995,-27.176604070407354
-0.28270000000000006,-25.91751101352747
-0.28169999999999995,-24.559388165657033
-0.28070000000000006,-23.427619125765005
-0.27969999999999995,-22.295850085872978
-0.27870000000000006,-21.107492593986347
-0.27769999999999995,-19.805958198110513
-0.27670000000000006,-18.40539401124413
-0.27569999999999995,-17.103859615368293
-0.27470000000000006,-16.014531914472215
-0.27369999999999994,-14.925204213576137
-0.27270000000000005,-13.960371107068182
-0.27169999999999994,-12.913484745168056
-0.27070000000000005,-11.691174182084664
-0.26969999999999994,-10.514134380596953
-0.26870000000000005,-9.423391968401008
-0.26769999999999994,-8.464217707092514
-0.26670000000000005,-7.5474847847799715
