Potential V vs RHE, Current mA cm-2
0.013299999999999867,-4.712403339850438
0.012299999999999978,-8.987660888042578
0.011299999999999866,-12.694204493688973
0.010299999999999976,-16.141855931460068
0.009299999999999864,-19.197632339168546
0.008299999999999974,-21.94217226090672
0.007299999999999862,-24.516946826661083
0.006299999999999972,-26.86536758443705
0.00529999999999986,-29.100611438223805
0.0042999999999999705,-31.19438416202406
0.0032999999999998586,-33.14668575583781
0.0022999999999999687,-35.07069312365426
0.0012999999999998568,-36.95225915247476
0.00029999999999996696,-38.607471373316855
-0.000700000000000145,-40.34756627215084
-0.0017000000000000348,-41.83301313700913
-0.0027000000000001467,-43.31846000186743
-0.0037000000000000366,-44.619994397743255
-0.0047000000000001485,-45.93567590661774
-0.005700000000000038,-47.067444946509774
-0.00670000000000015,-48.114331308409895
-0.00770000000000004,-49.076334992318124
-0.008700000000000152,-50.1656626932142
-0.009700000000000042,-51.127666377122424
-0.010700000000000154,-52.11796428702795
-0.011700000000000044,-53.079967970936174
-0.012700000000000156,-54.0419716548444
-0.013700000000000045,-54.961533999756675
-0.014700000000000157,-55.881096344668954
-0.015700000000000047,-56.65918755959472
-0.01670000000000016,-57.45142588751914
-0.01770000000000005,-58.14463442445301
-0.01870000000000016,-58.75296028339497
-0.01970000000000005,-59.36128614233694
-0.020700000000000163,-59.92717066228296
-0.021700000000000053,-60.54964363422357
-0.022700000000000164,-61.11552815416958
-0.023700000000000054,-61.7662953521075
-0.024700000000000166,-62.459503889041365
-0.025700000000000056,-63.06782974798333
-0.026700000000000168,-63.732744058919906
-0.027700000000000058,-64.38351125685783
-0.02870000000000017,-64.94939577680383
-0.02970000000000006,-65.5577216357458
-0.03070000000000017,-66.03872347769992
-0.03170000000000006,-66.47728398065809
-0.03270000000000017,-66.87340314462028
-0.03370000000000006,-67.25537519558385
-0.034700000000000175,-67.693935698542
-0.035700000000000065,-68.13249620150016
-0.03670000000000018,-68.52861536546239
-0.03770000000000007,-68.96717586842054
-0.03870000000000018,-69.43403059737601
-0.03970000000000007,-69.8301497613382
-0.04070000000000018,-70.35359294228827
-0.04170000000000007,-70.70727076725453
-0.04270000000000018,-71.06094859222078
-0.04370000000000007,-71.44292064318435
-0.044700000000000184,-71.66927445116276
-0.045700000000000074,-71.96636382413442
-0.046700000000000186,-72.23515897110877
-0.047700000000000076,-72.48980700508447
-0.04870000000000019,-72.75860215205884
-0.04970000000000008,-73.0556915250305
-0.05070000000000019,-73.3669280110008
-0.05170000000000008,-73.76304717496302
-0.05270000000000019,-74.10257788693062
-0.05370000000000008,-74.49869705089283
-0.05470000000000019,-74.89481621485504
-0.05570000000000008,-75.19190558782671
-0.056700000000000195,-75.50314207379701
-0.057700000000000085,-75.81437855976732
-0.058700000000000196,-76.02658525474708
-0.059700000000000086,-76.29538040172143
-0.0607000000000002,-76.42270441870929
-0.06170000000000009,-76.7622351306769
-0.0627000000000002,-77.03103027765125
-0.06370000000000009,-77.34226676362155
-0.0647000000000002,-77.68179747558916
-0.06570000000000009,-77.99303396155948
-0.0667000000000002,-78.29012333453113
-0.0677000000000001,-78.60135982050144
-0.0687000000000002,-78.85600785447714
-0.0697000000000001,-79.1248030014515
-0.07070000000000021,-79.33700969643127
-0.0717000000000001,-79.47848082641775
-0.07270000000000021,-79.64824618240156
-0.0737000000000001,-79.69068752139752
-0.07470000000000021,-79.90289421637728
-0.0757000000000001,-80.12924802435568
-0.07670000000000021,-80.25657204134353
-0.0777000000000001,-80.61024986630979
-0.07870000000000021,-80.90733923928146
-0.0797000000000001,-81.13369304725985
-0.08070000000000022,-81.47322375922747
-0.0817000000000001,-81.69957756720586
-0.08270000000000022,-81.95422560118158
-0.08370000000000011,-82.18057940915998
-0.08470000000000022,-82.35034476514379
-0.08570000000000011,-82.47766878213164
-0.08670000000000022,-82.6615812511141
-0.08770000000000011,-82.8313466070979
-0.08870000000000022,-83.08599464107361
-0.08970000000000011,-83.26990711005605
-0.09070000000000022,-83.56699648302772
-0.09170000000000011,-83.83579163000208
-0.09270000000000023,-84.18946945496833
-0.09370000000000012,-84.52900016693594
-0.09470000000000023,-84.7977953139103
-0.09570000000000012,-85.052443347886
-0.09670000000000023,-85.32123849486035
-0.09770000000000012,-85.49100385084417
-0.09870000000000023,-85.61832786783202
-0.09970000000000012,-85.70321054582392
-0.10070000000000023,-85.80224033681448
-0.10170000000000012,-86.01444703179425
-0.10270000000000024,-86.18421238777805
-0.10370000000000013,-86.41056619575643
-0.10470000000000024,-86.7076555687281
-0.10570000000000013,-86.97645071570246
-0.10670000000000024,-87.23109874967815
-0.10770000000000013,-87.58477657464444
-0.10870000000000024,-87.79698326962418
-0.10970000000000013,-88.06577841659853
-0.11070000000000024,-88.23554377258235
-0.11170000000000013,-88.4194562415648
-0.11270000000000002,-88.5892215975486
-0.11370000000000013,-88.71654561453644
-0.11470000000000002,-88.94289942251486
-0.11570000000000014,-89.15510611749461
-0.11670000000000003,-89.42390126446898
-0.11770000000000014,-89.76343197643658
-0.11870000000000003,-90.03222712341093
-0.11970000000000014,-90.37175783537855
-0.12070000000000003,-90.76787699934074
-0.12170000000000014,-91.16399616330297
-0.12270000000000003,-91.46108553627462
-0.12370000000000014,-91.72988068324898
-0.12470000000000003,-91.94208737822873
-0.12570000000000014,-92.16844118620713
-0.12670000000000003,-92.3806478811869
-0.12770000000000015,-92.50797189817473
-0.12870000000000004,-92.73432570615316
-0.12970000000000015,-92.98897374012887
-0.13070000000000004,-93.25776888710321
-0.13170000000000015,-93.55485826007487
-0.13270000000000004,-93.90853608504113
-0.13370000000000015,-94.30465524900335
-0.13470000000000004,-94.6583330739696
-0.13570000000000015,-94.95542244694126
-0.13670000000000004,-95.26665893291157
-0.13770000000000016,-95.52130696688728
-0.13870000000000005,-95.69107232287108
-0.13970000000000016,-95.91742613084948
-0.14070000000000005,-96.12963282582925
-0.14170000000000016,-96.3984279728036
-0.14270000000000005,-96.69551734577524
-0.14370000000000016,-97.00675383174556
-0.14470000000000005,-97.44531433470372
-0.14570000000000016,-97.84143349866595
-0.14670000000000005,-98.2234055496295
-0.14770000000000016,-98.66196605258766
-0.14870000000000005,-99.10052655554581
-0.14970000000000017,-99.49664571950804
-0.15070000000000006,-99.87861777047159
-0.15170000000000017,-100.14741291744595
-0.15270000000000006,-100.54353208140815
-0.15370000000000017,-100.79818011538387
-0.15470000000000006,-101.15185794035013
-0.15570000000000017,-101.54797710431234
-0.15670000000000006,-101.88750781627995
-0.15770000000000017,-102.28362698024215
-0.15870000000000006,-102.72218748320032
-0.15970000000000018,-103.16074798615847
-0.16070000000000007,-103.68419116710854
-0.16170000000000018,-104.06616321807209
-0.16270000000000007,-104.50472372103027
-0.16370000000000018,-104.85840154599651
-0.16470000000000007,-105.29696204895468
-0.16570000000000018,-105.63649276092228
-0.16670000000000007,-105.99017058588855
-0.16770000000000018,-106.2589657328629
-0.16870000000000007,-106.64093778382647
-0.16970000000000018,-106.99461560879273
-0.17070000000000007,-107.47561745074682
-0.17170000000000019,-107.99906063169689
-0.17270000000000008,-108.48006247365102
-0.1737000000000002,-109.00350565460108
-0.17470000000000008,-109.52694883555114
-0.1757000000000002,-110.05039201650122
-0.17670000000000008,-110.57383519745127
-0.1777000000000002,-111.01239570040943
-0.17870000000000008,-111.49339754236355
-0.1797000000000002,-111.91781093232305
-0.18070000000000008,-112.3563714352812
-0.1817000000000002,-112.83737327723534
-0.18270000000000008,-113.36081645818538
-0.1837000000000002,-113.92670097813141
-0.1847000000000001,-114.53502683707337
-0.1857000000000002,-115.15749980901398
-0.1867000000000001,-115.72338432896
-0.1877000000000002,-116.37415152689792
-0.1887000000000001,-116.89759470784797
-0.1897000000000002,-117.46347922779398
-0.1907000000000001,-117.94448106974811
-0.1917000000000001,-118.38304157270628
-0.19269999999999998,-118.90648475365633
-0.1937000000000001,-119.3450452566145
-0.19469999999999998,-119.81189998556997
-0.1957000000000001,-120.33534316652002
-0.19669999999999999,-120.9153747994647
-0.1977000000000001,-121.52370065840667
-0.1987,-122.1320265173486
-0.1997000000000001,-122.74035237629057
-0.2007,-123.4760022522204
-0.2017000000000001,-124.09847522416102
-0.2027,-124.74924242209892
-0.2037000000000001,-125.31512694204494
-0.2047,-125.83857012299501
-0.2057000000000001,-126.40445464294103
-0.2067,-126.97033916288706
-0.2077000000000001,-127.53622368283307
-0.2087,-128.18699088077096
-0.2097000000000001,-128.8094638527116
-0.2107,-129.50267238964545
-0.2117000000000001,-130.28076360457123
-0.2127,-131.03056059349967
-0.2137000000000001,-131.8510931474214
-0.2147,-132.60089013634988
-0.2157000000000001,-133.4214226902716
-0.2167,-134.12877834020412
-0.21770000000000012,-134.73710419914607
-0.2187,-135.34543005808808
-0.21970000000000012,-135.95375591703004
-0.2207,-136.51964043697603
-0.22170000000000012,-137.12796629591801
-0.2227,-137.79288060685457
-0.22370000000000012,-138.48608914378846
-0.2247,-139.22173901971826
-0.22570000000000012,-139.97153600864672
-0.2267,-140.74962722357247
-0.22770000000000012,-141.47112998650366
-0.22870000000000001,-142.31995676642268
-0.22970000000000013,-143.0273124163552
-0.23070000000000002,-143.73466806628772
-0.23170000000000013,-144.44202371622026
-0.23270000000000002,-145.00790823616626
-0.23370000000000013,-145.7152638860988
-0.23470000000000002,-146.4226195360313
-0.23570000000000013,-147.1299751859638
-0.23670000000000002,-147.83733083589632
-0.2376999999999999,-148.68615761581535
-0.23870000000000002,-149.6764555257209
-0.2396999999999999,-150.38381117565342
-0.24070000000000003,-151.37410908555893
-0.24169999999999991,-152.22293586547795
-0.24270000000000003,-153.07176264539694
-0.24369999999999992,-153.920589425316
-0.24470000000000003,-154.76941620523502
-0.24569999999999992,-155.47677185516753
-0.24670000000000003,-156.18412750510007
-0.24769999999999992,-157.03295428501906
-0.24870000000000003,-157.7403099349516
-0.24969999999999992,-158.4476655848841
-0.25070000000000003,-159.29649236480313
-0.2516999999999999,-160.14531914472215
-0.25270000000000004,-161.1356170546277
-0.2536999999999999,-161.9844438345467
-0.25470000000000004,-162.8332706144657
-0.2556999999999999,-163.68209739438475
-0.25670000000000004,-164.53092417430375
-0.25769999999999993,-165.3797509542228
-0.25870000000000004,-166.0871066041553
-0.25969999999999993,-166.93593338407433
-0.26070000000000004,-167.6432890340068
-0.26169999999999993,-168.49211581392586
-0.26270000000000004,-169.3409425938449
-0.26369999999999993,-170.18976937376394
-0.26470000000000005,-171.18006728366944
-0.26569999999999994,-172.17036519357498
-0.26670000000000005,-173.01919197349397
-0.26769999999999994,-174.0094898833995
-0.26870000000000005,-174.99978779330505
-0.26969999999999994,-175.99008570321055
-0.27070000000000005,-176.98038361311612
-0.27169999999999994,-177.82921039303508
-0.27270000000000005,-178.67803717295413
-0.27369999999999994,-179.52686395287316
-0.27470000000000006,-180.5171618627787
-0.27569999999999995,-181.5074597726842
-0.27670000000000006,-182.35628655260325
-0.27769999999999995,-183.34658446250873
-0.27870000000000006,-184.33688237241427
-0.27969999999999995,-185.3271802823198
-0.28070000000000006,-186.31747819222534
-0.28169999999999995,-187.30777610213087
-0.28270000000000006,-188.15660288204987
-0.28369999999999995,-189.1469007919554
-0.28470000000000006,-189.99572757187443
-0.28569999999999995,-190.98602548177996
-0.28670000000000007,-191.83485226169896
-0.28769999999999996,-192.683679041618
-0.28870000000000007,-193.6739769515235
-0.28969999999999996,-194.52280373144254
-0.29070000000000007,-195.51310164134807
-0.29169999999999996,-196.50339955125358
-0.29270000000000007,-197.63516859114563
-0.29369999999999996,-198.62546650105114
-0.2947000000000001,-199.61576441095667
-0.29569999999999996,-200.7475334508487
-0.2967000000000001,-201.73783136075423
-0.29769999999999996,-202.7281292706598
-0.2987000000000001,-203.71842718056527
-0.29969999999999997,-204.7087250904708
-0.3007000000000001,-205.55755187038983
-0.30169999999999997,-206.68932091028185
-0.3027000000000001,-207.8210899501739
-0.30369999999999997,-208.8113878600794
-0.3047000000000001,-209.94315689997146
-0.30569999999999997,-211.07492593986345
-0.3067000000000001,-212.2066949797555
-0.3077,-213.47993514963403
-0.3087000000000001,-214.47023305953954
-0.3097,-215.6020020994316
-0.3107000000000001,-216.59230000933712
-0.3117,-217.58259791924263
-0.3127000000000001,-218.57289582914817
-0.3137,-219.5631937390537
-0.3147000000000001,-220.5534916489592
-0.3157,-221.54378955886475
-0.3167000000000001,-222.6755585987568
-0.3177,-223.80732763864881
-0.3187000000000001,-224.93909667854084
-0.3197,-226.07086571843288
-0.3207000000000001,-227.2026347583249
-0.3217,-228.33440379821695
-0.3227000000000001,-229.46617283810895
-0.3237,-230.59794187800094
-0.3247000000000001,-231.729710917893
-0.3257,-232.72000882779852
-0.3267000000000001,-233.85177786769057
-0.3277,-234.84207577759608
-0.3287000000000001,-236.1153159474746
-0.3297,-237.24708498736666
-0.3307000000000001,-238.5203251572452
-0.3317,-239.7935653271237
-0.3327000000000001,-241.06680549700224
-0.3337,-242.48151679686728
-0.3347000000000001,-243.75475696674582
-0.3357,-245.02799713662432
-0.3367000000000001,-246.30123730650286
-0.3377,-247.57447747638145
-0.3387000000000001,-248.70624651627344
-0.3397,-249.83801555616546
-0.3407000000000001,-250.9697845960575
-0.3417,-252.10155363594956
-0.3427000000000001,-253.37479380582806
-0.3437,-254.64803397570657
-0.3447000000000001,-255.92127414558513
-0.3457,-257.1945143154637
-0.3467000000000001,-258.60922561532874
-0.3477,-260.02393691519376
-0.3487000000000001,-261.2971770850723
-0.3497,-262.57041725495077
-0.3507000000000001,-263.84365742482936
-0.3517,-265.11689759470784
-0.3527000000000001,-266.3901377645864
-0.3537,-267.5219068044785
-0.3547000000000001,-268.79514697435695
-0.3557,-270.0683871442355
-0.35670000000000013,-271.4830984441005
-0.3577,-272.8978097439656
-0.35870000000000013,-274.31252104383066
-0.3597,-275.7272323436957
-0.36070000000000013,-277.4248859035337
-0.3617,-278.8395972033987
-0.3626999999999999,-280.3957796332503
-0.3637,-281.8104909331153
-0.3646999999999999,-283.22520223298034
-0.3657,-284.7813846628319
-0.3666999999999999,-286.196095962697
-0.3677,-287.46933613257545
-0.3686999999999999,-289.02551856242695
-0.36970000000000003,-290.44022986229203
-0.3706999999999999,-291.9964122921436
-0.37170000000000003,-293.4111235920086
-0.3726999999999999,-294.96730602186017
-0.37370000000000003,-296.52348845171167
-0.3746999999999999,-298.07967088156323
-0.37570000000000003,-299.49438218142825
-0.3766999999999999,-301.0505646112798
-0.37770000000000004,-302.6067470411313
-0.3786999999999999,-304.1629294709828
-0.37970000000000004,-305.57764077084795
-0.3806999999999999,-306.99235207071297
-0.38170000000000004,-308.407063370578
-0.38269999999999993,-309.9632458004295
-0.38370000000000004,-311.5194282302811
-0.38469999999999993,-313.21708179011915
-0.38570000000000004,-314.77326421997066
-0.38669999999999993,-313.35855292010564
-0.38570000000000004,-306.56793868075346
-0.38469999999999993,-300.48468009133376
-0.38370000000000004,-294.8258348918736
-0.38269999999999993,-289.59140308237295
-0.38170000000000004,-284.63991353284536
-0.3806999999999999,-279.82989511330425
-0.37970000000000004,-275.30281895373616
-0.3786999999999999,-271.05868505414105
-0.37770000000000004,-266.6730800245594
-0.3766999999999999,-262.7118883849373
-0.37570000000000003,-258.60922561532874
-0.3746999999999999,-254.78950510569314
-0.37370000000000003,-250.9697845960575
-0.3726999999999999,-247.2915352164084
-0.37170000000000003,-243.6132858367593
-0.3706999999999999,-239.93503645711021
-0.36970000000000003,-236.25678707746113
-0.3686999999999999,-232.72000882779852
-0.3677,-229.18323057813595
-0.3666999999999999,-225.64645232847332
-0.3657,-222.10967407881074
-0.3646999999999999,-218.71436695913465
-0.3637,-215.31905983945856
-0.3626999999999999,-212.065223849769
-0.3617,-208.8113878600794
-0.36070000000000013,-205.69902300037634
-0.3597,-202.58665814067325
-0.35870000000000013,-199.47429328097016
-0.3577,-196.50339955125358
-0.35670000000000013,-193.3910346915505
-0.3557,-190.27866983184742
-0.3547000000000001,-187.30777610213087
-0.3537,-184.33688237241427
-0.3527000000000001,-181.2245175127112
-0.3517,-178.3950949129811
-0.3507000000000001,-175.42420118326456
-0.3497,-172.73624971352098
-0.3487000000000001,-170.0482982437774
-0.3477,-167.36034677403384
-0.3467000000000001,-164.67239530429026
-0.3457,-161.9844438345467
-0.3447000000000001,-159.43796349478964
-0.3437,-156.60854089505958
-0.3427000000000001,-153.920589425316
-0.3417,-151.23263795557244
-0.3407000000000001,-148.54468648582886
-0.3397,-145.85673501608528
-0.3387000000000001,-143.16878354634173
-0.3377,-140.5798618675887
-0.3367000000000001,-137.9626459628384
-0.3357,-135.51519541407185
-0.3347000000000001,-132.99700930031207
-0.3337,-130.63444142953747
-0.3327000000000001,-128.28602067176152
-0.3317,-125.88101146199097
-0.3307000000000001,-123.532590704215
-0.3297,-121.04269881645253
-0.3287000000000001,-118.68013094567793
-0.3277,-116.24682750991008
-0.3267000000000001,-113.88425963913545
-0.3257,-111.394367751373
-0.3247000000000001,-109.17327101058488
-0.3237,-106.86729159180487
-0.3227000000000001,-104.73107752900866
-0.3217,-102.5524221272165
-0.3207000000000001,-100.40206095142165
-0.3197,-98.364876679616
-0.3187000000000001,-96.31354529481169
-0.3177,-94.21977257101145
-0.3167000000000001,-92.16844118620713
-0.3157,-90.03222712341093
-0.3147000000000001,-87.93845439961068
-0.3137,-85.75979899781852
-0.3127000000000001,-83.60943782202366
-0.3117,-81.57225355021802
-0.3107000000000001,-79.42189237442317
-0.3097,-77.42714944161345
-0.3087000000000001,-75.46070073480107
-0.3077,-73.49425202798865
-0.3067000000000001,-71.6268331121668
-0.30569999999999997,-69.74526708334632
-0.3047000000000001,-67.86370105452582
-0.30369999999999997,-65.99628213870396
-0.3027000000000001,-63.98739209289561
-0.30169999999999997,-62.06338472507916
-0.3007000000000001,-60.15352447026136
-0.29969999999999997,-58.22951710244491
-0.2987000000000001,-56.30550973462846
-0.29769999999999996,-54.43809081880661
-0.2967000000000001,-52.59896612898206
-0.29569999999999996,-50.85887123014807
-0.2947000000000001,-49.16121767031002
-0.29369999999999996,-47.506005449467935
-0.29270000000000007,-45.89323456762179
-0.29169999999999996,-44.223875233781044
-0.29070000000000007,-42.568663012938956
-0.28969999999999996,-40.828568114104954
-0.28870000000000007,-39.173355893262865
-0.28769999999999996,-37.47570233342482
-0.28670000000000007,-35.806342999584075
-0.28569999999999995,-34.15113077874198
-0.28470000000000006,-32.45347721890394
-0.28369999999999995,-30.8407063370578
-0.28270000000000006,-29.31281813320356
-0.28169999999999995,-27.78492992934932
-0.28070000000000006,-26.257041725495082
-0.27969999999999995,-24.814036199632742
-0.27870000000000006,-23.24370665678255
-0.27769999999999995,-21.772406904922917
-0.27670000000000006,-20.202077362072725
-0.27569999999999995,-18.674189158218486
-0.27470000000000006,-17.103859615368293
-0.27369999999999994,-15.575971411514052
-0.27270000000000005,-13.960371107068182
-0.27169999999999994,-12.476338953509758
-0.27070000000000005,-10.906009410659568
-0.26969999999999994,-9.55496011928846
-0.26870000000000005,-8.158640066321666
-0.26769999999999994,-6.806176063650692
-0.26670000000000005,-5.411270721983764
