Potential V vs RHE, Current mA cm-2
0.05339999999999995,0.07004235645631796
0.05239999999999995,0.06262926924502517
0.051399999999999946,0.058003163294466496
0.050399999999999945,0.05449467927080121
0.049399999999999944,0.05135402018510083
0.04839999999999994,0.048284096664393705
0.04739999999999994,0.045511262516658234
0.04639999999999994,0.043021370628895765
0.04539999999999994,0.0406163614191252
0.04439999999999994,0.03809817530536544
0.04339999999999994,0.03560828341760297
0.04239999999999994,0.03330230399882296
0.04139999999999994,0.03130756106601326
0.040399999999999936,0.02935525947219951
0.039399999999999935,0.027134162731411407
0.038399999999999934,0.024898918877624646
0.03739999999999993,0.022918323057813595
0.03639999999999993,0.021135786819983647
0.03539999999999993,0.01933910346915505
0.03439999999999993,0.017372654762342652
0.03339999999999993,0.015377911829532949
0.03239999999999993,0.013543031273607994
0.03139999999999993,0.011873671939767252
0.030399999999999927,0.01024392452232273
0.029399999999999926,0.008428849924595888
0.028399999999999925,0.00656143100877404
0.027399999999999924,0.004900559942732487
0.026399999999999924,0.0033825747179773028
0.025399999999999923,0.001850442380223468
0.024399999999999922,0.00020131341797079472
0.02339999999999992,-0.0015604265637511356
0.02239999999999992,-0.003115194282302811
0.02139999999999992,-0.004575176343763528
0.020399999999999918,-0.0060365731165241115
0.019399999999999917,-0.007588511412476056
0.018399999999999916,-0.00925221190111734
0.017399999999999916,-0.010686729159180487
0.016399999999999915,-0.011992507688955914
0.015399999999999914,-0.013384583608023111
0.014399999999999913,-0.014882762874580187
0.013399999999999912,-0.016438945304431726
0.012399999999999911,-0.017839509491298113
0.01139999999999991,-0.019042014096183394
0.01039999999999991,-0.020343548492059226
0.009399999999999908,-0.021814848243918866
0.008399999999999908,-0.023314442221775804
0.007399999999999907,-0.02465841795664759
0.006399999999999906,-0.025790186996539618
0.005399999999999905,-0.02703513294042085
0.004399999999999904,-0.028421550014288588
0.003399999999999903,-0.029878702653149573
0.002399999999999902,-0.031151942823028106
0.0013999999999999013,-0.032255417636922835
0.00039999999999990044,-0.033457922241808116
-0.0006000000000001005,-0.03480189797667991
-0.0016000000000001013,-0.03614587371155169
-0.0026000000000001022,-0.037419113881430224
-0.003600000000000103,-0.0385367358083236
-0.004600000000000104,-0.03965435773521698
-0.005600000000000105,-0.04098418635709011
-0.006600000000000106,-0.04232816209196189
-0.007600000000000107,-0.04357310803584313
-0.008600000000000108,-0.044690729962736514
-0.009600000000000108,-0.04575176343763528
-0.01060000000000011,-0.04703915072051247
-0.01160000000000011,-0.04846800913337616
-0.012600000000000111,-0.04968466085126009
-0.013600000000000112,-0.05071740010016157
-0.014600000000000113,-0.05175013934906304
-0.015600000000000114,-0.05302337951894157
-0.016600000000000115,-0.054367355253813365
-0.017600000000000116,-0.055527418519702686
-0.018600000000000116,-0.056560157768604166
-0.019600000000000117,-0.05762119124350294
-0.020600000000000118,-0.058837842961386874
-0.02160000000000012,-0.06012523024426406
-0.02260000000000012,-0.06128529351015339
-0.02360000000000012,-0.06231803275905486
-0.024600000000000122,-0.06340736045995093
-0.025600000000000123,-0.06460986506483622
-0.026600000000000124,-0.06591139946071205
-0.027600000000000124,-0.06708560983960003
-0.028600000000000125,-0.06806176063650692
-0.029600000000000126,-0.0690662056594111
-0.030600000000000127,-0.07029700449029368
-0.03160000000000013,-0.0715985388861695
-0.03260000000000013,-0.07280104349105479
-0.03360000000000013,-0.0737913414009603
-0.03460000000000002,-0.07485237487585908
-0.03560000000000002,-0.07606902659374302
-0.03660000000000002,-0.0774412965546121
-0.03760000000000002,-0.07862965404649873
-0.03860000000000002,-0.07969068752139752
-0.039600000000000024,-0.08075172099629631
-0.040600000000000025,-0.08196837271418023
-0.041600000000000026,-0.08322746577106012
-0.04260000000000003,-0.08435923481095214
-0.04360000000000003,-0.0854202682858509
-0.04460000000000003,-0.08641056619575643
-0.04560000000000003,-0.08765551213963767
-0.04660000000000003,-0.08891460519651756
-0.04760000000000003,-0.09011710980140283
-0.04860000000000003,-0.09120643750229893
-0.04960000000000003,-0.0922674709771977
-0.050600000000000034,-0.09354071114707624
-0.051600000000000035,-0.09487053976894937
-0.052600000000000036,-0.09604475014783734
-0.053600000000000037,-0.09711993073573477
-0.05460000000000004,-0.0982516997756268
-0.05560000000000004,-0.09945420438051207
-0.05660000000000004,-0.10081232722838251
-0.05760000000000004,-0.10202897894626643
-0.05860000000000004,-0.10311830664716252
-0.05960000000000004,-0.10422178146105725
-0.06060000000000004,-0.10546672740493848
-0.061600000000000044,-0.10690973293080082
-0.06260000000000004,-0.10809809042268745
-0.06360000000000005,-0.10925815368857679
-0.06460000000000005,-0.11044651118046342
-0.06560000000000005,-0.1117056042373433
-0.06660000000000005,-0.11307787419821237
-0.06760000000000005,-0.11440770282008553
-0.06860000000000005,-0.1155536189729762
-0.06960000000000005,-0.11675612357786147
-0.07060000000000005,-0.11810009931273327
-0.07160000000000005,-0.1196279875165875
-0.07260000000000005,-0.12095781613846063
-0.07360000000000005,-0.12204714383935672
-0.07460000000000006,-0.1232779426702393
-0.07560000000000006,-0.12470680108310296
-0.07660000000000006,-0.12610736526996935
-0.07760000000000006,-0.12753622368283307
-0.07860000000000006,-0.128752875400717
-0.07960000000000006,-0.12998367423159957
-0.08060000000000006,-0.1313983855314646
-0.08160000000000006,-0.13289797950932153
-0.08260000000000006,-0.13428439658318927
-0.08360000000000006,-0.1355859309790651
-0.08460000000000006,-0.13683087692294635
-0.08560000000000006,-0.13831632378780462
-0.08660000000000007,-0.13991494755665213
-0.08760000000000007,-0.1413721001955131
-0.08860000000000007,-0.1426028990263957
-0.08960000000000007,-0.14387613919627423
-0.09060000000000007,-0.14543232162612577
-0.09160000000000007,-0.14698850405597733
-0.09260000000000007,-0.14854468648582883
-0.09360000000000007,-0.1499593977856939
-0.09460000000000007,-0.1513741090855589
-0.09560000000000007,-0.15293029151541046
-0.09660000000000007,-0.15476941620523502
-0.09760000000000008,-0.15618412750510002
-0.09860000000000008,-0.15759883880496509
-0.09960000000000008,-0.15901355010483012
-0.10060000000000008,-0.16056973253468165
-0.10160000000000008,-0.1624088572245062
-0.10260000000000008,-0.16396503965435774
-0.10360000000000008,-0.16537975095422278
-0.10460000000000008,-0.1669359333840743
-0.10560000000000008,-0.16863358694391237
-0.10660000000000008,-0.17033124050375043
-0.10760000000000008,-0.17188742293360199
-0.10860000000000009,-0.173302134233467
-0.10960000000000009,-0.17499978779330505
-0.11060000000000009,-0.17655597022315658
-0.11160000000000009,-0.1783950949129811
-0.11260000000000009,-0.18023421960280567
-0.11360000000000009,-0.18179040203265723
-0.11460000000000009,-0.18334658446250876
-0.11560000000000009,-0.1851857091523333
-0.11660000000000009,-0.18716630497214437
-0.1176000000000001,-0.18886395853198237
-0.1186000000000001,-0.19042014096183393
-0.1196000000000001,-0.1919763233916855
-0.1206000000000001,-0.19395691921149652
-0.1216000000000001,-0.19593751503130757
-0.1226000000000001,-0.19777663972113213
-0.1236000000000001,-0.19933282215098366
-0.1246000000000001,-0.2010304757108217
-0.1256000000000001,-0.20315254266061927
-0.1266000000000001,-0.20513313848043033
-0.1276000000000001,-0.20711373430024138
-0.1286000000000001,-0.2088113878600794
-0.1296000000000001,-0.21050904141991747
-0.1306000000000001,-0.21248963723972852
-0.1316000000000001,-0.21461170418952608
-0.1326000000000001,-0.2164508288793506
-0.1336000000000001,-0.21828995356917516
-0.1346000000000001,-0.22012907825899972
-0.1356000000000001,-0.22210967407881074
-0.1366000000000001,-0.2242317410286083
-0.1376000000000001,-0.22635380797840585
-0.1386000000000001,-0.22833440379821693
-0.1396000000000001,-0.23017352848804143
-0.1406000000000001,-0.2321541243078525
-0.14160000000000011,-0.2345591335176231
-0.14260000000000012,-0.2365397293374341
-0.14360000000000012,-0.23837885402725867
-0.14460000000000012,-0.24035944984706975
-0.14560000000000012,-0.2426229879268538
-0.14660000000000012,-0.24502799713662435
-0.14760000000000012,-0.2471500640864219
-0.14860000000000012,-0.24898918877624646
-0.14960000000000012,-0.251111255726044
-0.15060000000000012,-0.25337479380582806
-0.15160000000000012,-0.2554968607556256
-0.15260000000000012,-0.2577603988354097
-0.15360000000000013,-0.25959952352523424
-0.15460000000000013,-0.2615801193450453
-0.15560000000000013,-0.2639851285548159
-0.15660000000000013,-0.2663901377645864
-0.15760000000000013,-0.2686536758443705
-0.15860000000000013,-0.27077574279416805
-0.15960000000000002,-0.2728978097439656
-0.16060000000000002,-0.27530281895373615
-0.16160000000000002,-0.2777078281635067
-0.16260000000000002,-0.2801128373732773
-0.16360000000000002,-0.28223490432307485
-0.16460000000000002,-0.2840740290128994
-0.16560000000000002,-0.2866205093526564
-0.16660000000000003,-0.28930846082239997
-0.16760000000000003,-0.2915719989021841
-0.16860000000000003,-0.29369406585198166
-0.16960000000000003,-0.2959576039317657
-0.17060000000000003,-0.29822114201154976
-0.17160000000000003,-0.3006261512213203
-0.17260000000000003,-0.3028896893011043
-0.17360000000000003,-0.30543616964086145
-0.17460000000000003,-0.30755823659065895
-0.17560000000000003,-0.3099632458004295
-0.17660000000000003,-0.31265119727017304
-0.17760000000000004,-0.31505620647994365
-0.17860000000000004,-0.3173197445597277
-0.17960000000000004,-0.31958328263951175
-0.18060000000000004,-0.3219882918492823
-0.18160000000000004,-0.3246762433190259
-0.18260000000000004,-0.32708125252879644
-0.18360000000000004,-0.3293447906085805
-0.18460000000000004,-0.3316083286883646
-0.18560000000000004,-0.3340133378981352
-0.18660000000000004,-0.33670128936787874
-0.18760000000000004,-0.3392477697076358
-0.18860000000000005,-0.34151130778741984
-0.18960000000000005,-0.34391631699719044
-0.19060000000000005,-0.346321326206961
-0.19160000000000005,-0.34915074880669106
-0.19260000000000005,-0.35155575801646166
-0.19360000000000005,-0.3538192960962457
-0.19460000000000005,-0.35608283417602976
-0.19560000000000005,-0.3586293145157868
-0.19660000000000005,-0.3613172659855304
-0.19760000000000005,-0.36386374632528745
-0.19860000000000005,-0.366268755535058
-0.19960000000000006,-0.3685322936148421
-0.20060000000000006,-0.3712202450845856
-0.20160000000000006,-0.3737667254243427
-0.20260000000000006,-0.3760302635041267
-0.20360000000000006,-0.37829380158391085
-0.20460000000000006,-0.38112322418364086
-0.20560000000000006,-0.38409411791335746
-0.20660000000000006,-0.386782069383101
-0.20760000000000006,-0.3893285497228581
-0.20860000000000006,-0.3914506166726556
-0.20960000000000006,-0.3937141547524397
-0.21060000000000006,-0.3962606350921968
-0.21160000000000007,-0.3988071154319538
-0.21260000000000007,-0.40121212464172434
-0.21360000000000007,-0.40361713385149495
-0.21460000000000007,-0.405880671931279
-0.21560000000000007,-0.4082856811410496
-0.21660000000000007,-0.4109736326107932
-0.21760000000000007,-0.41366158408053677
-0.21860000000000007,-0.4160665932903073
-0.21960000000000007,-0.41818866024010487
-0.22060000000000007,-0.42087661170984847
-0.22160000000000007,-0.4234230920496055
-0.22260000000000008,-0.42596957238936256
-0.22360000000000008,-0.42837458159913316
-0.22460000000000008,-0.4306381196789172
-0.22560000000000008,-0.43318460001867426
-0.22660000000000008,-0.43587255148841775
-0.22760000000000008,-0.4384190318281749
-0.22860000000000008,-0.4408240410379454
-0.22960000000000008,-0.44308757911772945
-0.23060000000000008,-0.4456340594574866
-0.23160000000000008,-0.4483220109272302
-0.23260000000000008,-0.45086849126698714
-0.23360000000000009,-0.45327350047675774
-0.2346000000000001,-0.4556785096865283
-0.2356000000000001,-0.45822499002628536
-0.2366000000000001,-0.46091294149602896
-0.2376000000000001,-0.463459421835786
-0.2386000000000001,-0.4655814887855836
-0.2396000000000001,-0.4678450268653676
-0.2406000000000001,-0.47053297833511115
-0.2416000000000001,-0.4730794586748682
-0.2426000000000001,-0.4756259390146253
-0.2436000000000001,-0.4778894770944094
-0.2446000000000001,-0.48015301517419345
-0.2456000000000001,-0.482558024383964
-0.2466000000000001,-0.4851045047237211
-0.2476000000000001,-0.48765098506347815
-0.2486000000000001,-0.48991452314326217
-0.2496000000000001,-0.4920365900930598
-0.2506000000000001,-0.49472454156280327
-0.2516000000000001,-0.49741249303254687
-0.2526000000000001,-0.4999589733723039
-0.2536000000000001,-0.5023639825820745
-0.2546000000000001,-0.504486049531872
-0.2556000000000001,-0.5070325298716292
-0.2566000000000001,-0.5097204813413726
-0.2576000000000001,-0.5121254905511432
-0.2586000000000001,-0.5145304997609139
-0.2596000000000001,-0.5166525667107114
-0.2606000000000001,-0.519057575920482
-0.2616000000000001,-0.5214625851302525
-0.2626000000000001,-0.5240090654700096
-0.2636000000000001,-0.5262726035497938
-0.2646000000000001,-0.5285361416295777
-0.2656000000000001,-0.5309411508393483
-0.2666000000000001,-0.5337705734390784
-0.2676000000000001,-0.5361755826488489
-0.2686000000000001,-0.5382976495986466
-0.2696000000000001,-0.5405611876784305
-0.2706000000000001,-0.5429661968882011
-0.2716000000000001,-0.5455126772279582
-0.2726000000000001,-0.5480591575677152
-0.2736000000000001,-0.5501812245175128
-0.2746000000000001,-0.5524447625972969
-0.2756000000000001,-0.5549912429370539
-0.2766000000000001,-0.557820665536784
-0.2776000000000001,-0.5599427324865814
-0.2786000000000001,-0.5619233283063926
-0.2796000000000001,-0.5643283375161632
-0.2806000000000001,-0.5664504044659607
-0.28160000000000013,-0.5689968848057178
-0.28260000000000013,-0.5716848362754614
-0.28360000000000013,-0.5739483743552454
-0.2846,-0.5764948546950025
-0.2856,-0.5786169216447999
-0.2866,-0.5808804597245841
-0.2876,-0.5834269400643411
-0.2886,-0.5855490070141387
-0.2896,-0.5879540162239093
-0.2906,-0.5900760831737067
-0.2916,-0.5929055057734368
-0.2926,-0.5953105149832074
-0.2936,-0.5977155241929779
-0.29460000000000003,-0.600262004532735
-0.29560000000000003,-0.6029499560024787
-0.29660000000000003,-0.6052134940822627
-0.29760000000000003,-0.6077599744220198
-0.29860000000000003,-0.6103064547617768
-0.29960000000000003,-0.6124285217115744
-0.30060000000000003,-0.6146920597913584
-0.30160000000000003,-0.617380011261102
-0.30260000000000004,-0.6197850204708726
-0.30360000000000004,-0.6223315008106296
-0.30460000000000004,-0.6245950388904137
-0.30560000000000004,-0.6268585769701978
-0.30660000000000004,-0.6294050573099549
-0.30760000000000004,-0.6323759510396714
-0.30860000000000004,-0.6343565468594824
-0.30960000000000004,-0.6371859694592126
-0.31060000000000004,-0.6395909786689831
-0.31160000000000004,-0.6422789301387266
-0.31260000000000004,-0.6446839393484972
-0.31360000000000005,-0.6463815929083352
-0.31460000000000005,-0.6492110155080654
-0.31560000000000005,-0.6521819092377819
-0.31660000000000005,-0.6544454473175659
-0.31760000000000005,-0.6568504565273365
-0.31860000000000005,-0.6596798791270665
-0.31960000000000005,-0.6619434172068507
-0.32060000000000005,-0.6644898975466078
-0.32160000000000005,-0.6668949067563783
-0.32260000000000005,-0.6695828582261218
-0.32360000000000005,-0.6717049251759195
-0.32460000000000006,-0.674392876645663
-0.32560000000000006,-0.6772222992453931
-0.32660000000000006,-0.6800517218451232
-0.32760000000000006,-0.6830226155748397
-0.32860000000000006,-0.6850032113946508
-0.32960000000000006,-0.6872667494744349
-0.33060000000000006,-0.6903791143341379
-0.33160000000000006,-0.693208536933868
-0.33260000000000006,-0.6957550172736251
-0.33360000000000006,-0.6983014976133821
-0.33460000000000006,-0.7004235645631797
-0.33560000000000006,-0.7032529871629097
-0.33660000000000007,-0.7059409386326533
-0.33760000000000007,-0.7084874189724104
-0.33860000000000007,-0.7110338993121675
-0.33960000000000007,-0.7127315528720055
-0.34060000000000007,-0.7152780332117625
-0.34160000000000007,-0.7185318692014522
-0.34260000000000007,-0.7217857051911418
-0.34360000000000007,-0.7239077721409393
-0.3446000000000001,-0.7267371947406693
-0.3456000000000001,-0.7302739729903319
-0.3466000000000001,-0.7326789822001024
-0.34759999999999996,-0.7355084047998326
-0.3486000000000001,-0.7380548851395896
-0.34959999999999997,-0.7410257788693063
-0.3506000000000001,-0.7434307880790767
-0.35159999999999997,-0.7461187395488204
-0.3526000000000001,-0.7475334508486854
-0.35359999999999997,-0.74937257553851
-0.3546000000000001,-0.7526264115281995
-0.35559999999999997,-0.755597305257916
-0.3566000000000001,-0.7589926123775922
-0.3576,-0.7619635061073088
-0.3586000000000001,-0.7652173420969983
-0.3596,-0.7677638224367553
-0.3606000000000001,-0.7704517739064989
-0.3616,-0.7732811965062291
-0.3626000000000001,-0.7761106191059591
-0.3636,-0.7789400417056891
-0.3646000000000001,-0.7810621086554868
-0.3656,-0.7838915312552168
-0.3666000000000001,-0.7861550693350008
-0.3676,-0.7894089053246904
-0.3686000000000001,-0.7919553856644476
-0.3696,-0.7939359814842585
-0.3706000000000001,-0.7971898174739481
-0.3716,-0.8007265957236107
-0.3726000000000001,-0.8032730760633678
-0.3736,-0.806385440923071
-0.3746000000000001,-0.8087904501328415
-0.3756,-0.810912517082639
-0.3766000000000001,-0.8136004685523825
-0.3776,-0.8161469488921397
-0.3786000000000001,-0.8191178426218563
-0.3796,-0.8215228518316268
-0.3806000000000001,-0.8247766878213164
-0.3816,-0.827747581551033
-0.3826000000000001,-0.8302940618907901
-0.3836,-0.8329820133605336
-0.3846000000000001,-0.8356699648302772
-0.3856,-0.8384993874300073
-0.3866000000000001,-0.841187338899751
-0.3876,-0.8438752903694944
-0.3886000000000001,-0.846563241839238
-0.3896,-0.8488267799190221
-0.3906000000000001,-0.8517976736487386
-0.3916,-0.8546270962484687
-0.3926000000000001,-0.8578809322381583
-0.3936,-0.8602859414479289
-0.3946000000000001,-0.8631153640476589
-0.3956,-0.865944786647389
-0.3966000000000001,-0.8690571515070921
-0.3976,-0.8720280452368087
-0.3986000000000001,-0.8742915833165926
-0.3996,-0.8769795347863362
-0.4006000000000001,-0.8805163130359989
-0.4016,-0.8836286778957019
-0.4026000000000001,-0.8861751582354589
-0.4036,-0.8890045808351891
-0.4046000000000001,-0.8918340034349193
-0.4056,-0.8946634260346491
-0.40660000000000013,-0.8977757908943523
-0.4076,-0.9011710980140284
-0.40860000000000013,-0.9035761072237989
-0.4096,-0.9058396453035829
-0.41060000000000013,-0.9089520101632861
-0.4116,-0.9124887884129486
-0.41260000000000013,-0.9160255666626113
-0.4136,-0.9191379315223143
-0.41460000000000014,-0.9216844118620713
-0.4156,-0.9249382478517609
-0.41660000000000014,-0.9284750261014234
-0.4176,-0.9313044487011536
-0.41860000000000014,-0.9345582846908432
-0.41960000000000003,-0.9379535918105193
-0.42060000000000014,-0.941490370060182
-0.42160000000000003,-0.9446027349198849
-0.42260000000000014,-0.9481395131695476
-0.42360000000000003,-0.9516762914192101
-0.42460000000000014,-0.9545057140189402
-0.42560000000000003,-0.9577595500086299
-0.42660000000000015,-0.961437799388279
-0.42760000000000004,-0.9648331065079551
-0.42860000000000015,-0.9683698847576176
-0.42960000000000004,-0.9719066630072802
-0.43060000000000015,-0.9748775567369968
-0.43160000000000004,-0.9784143349866592
-0.43260000000000015,-0.9825169977562679
-0.43360000000000004,-0.9859123048759442
-0.43460000000000015,-0.9893076119956202
-0.43560000000000004,-0.9931273325052556
-0.43660000000000015,-0.9972299952748643
-0.43760000000000004,-1.0010497157844997
-0.43860000000000016,-1.004727965164149
-0.43960000000000005,-1.0085476856737847
-0.44060000000000016,-1.0126503484433933
-0.44160000000000005,-1.0171774246029612
-0.44260000000000016,-1.02128008737257
