Potential V vs RHE, Current mA cm-2
0.05339999999999995,-0.03444822015171364
0.05239999999999995,-0.03577804877358678
0.051399999999999946,-0.036499551536517946
0.050399999999999945,-0.03700884760446936
0.049399999999999944,-0.03748984944642347
0.04839999999999994,-0.037871821497387034
0.04739999999999994,-0.03828208777434789
0.04639999999999994,-0.038635765599314156
0.04539999999999994,-0.03898944342428041
0.04439999999999994,-0.03938556258824262
0.04339999999999994,-0.03971094618721158
0.04239999999999994,-0.040078771125176486
0.04139999999999994,-0.04043244895014275
0.040399999999999936,-0.04077197966211036
0.039399999999999935,-0.04115395171307392
0.038399999999999934,-0.04149348242504153
0.03739999999999993,-0.04183301313700913
0.03639999999999993,-0.04217254384897674
0.03539999999999993,-0.0424979274479457
0.03439999999999993,-0.042851605272911965
0.03339999999999993,-0.043205283097878217
0.03239999999999993,-0.04354481380984583
0.03139999999999993,-0.043912638747810734
0.030399999999999927,-0.04423802234677969
0.029399999999999926,-0.044591700171745956
0.028399999999999925,-0.044945377996712214
0.027399999999999924,-0.04528490870867982
0.026399999999999924,-0.04563858653364609
0.025399999999999923,-0.04599226435861234
0.024399999999999922,-0.046331795070579954
0.02339999999999992,-0.04668547289554621
0.02239999999999992,-0.04703915072051247
0.02139999999999992,-0.04742112277147603
0.020399999999999918,-0.04778894770944094
0.019399999999999917,-0.0481426255344072
0.018399999999999916,-0.0485104504723721
0.017399999999999916,-0.04887827541033701
0.016399999999999915,-0.04923195323530328
0.015399999999999914,-0.04961392528626684
0.014399999999999913,-0.04996760311123309
0.013399999999999912,-0.05034957516219666
0.012399999999999911,-0.050745694326158865
0.01139999999999991,-0.051127666377122426
0.01039999999999991,-0.051481344202088684
0.009399999999999908,-0.05187746336605089
0.008399999999999908,-0.052245288304015806
0.007399999999999907,-0.05264140746797802
0.006399999999999906,-0.05302337951894157
0.005399999999999905,-0.053405351569905134
0.004399999999999904,-0.053815617846866
0.003399999999999903,-0.05419758989782956
0.002399999999999902,-0.05459370906179176
0.0013999999999999013,-0.05498982822575398
0.00039999999999990044,-0.05538594738971618
-0.0006000000000001005,-0.05578206655367839
-0.0016000000000001013,-0.056164038604641954
-0.0026000000000001022,-0.05657430488160282
-0.003600000000000103,-0.05697042404556502
-0.004600000000000104,-0.057366543209527235
-0.005600000000000105,-0.05779095659948674
-0.006600000000000106,-0.05818707576344896
-0.007600000000000107,-0.05858319492741117
-0.008600000000000108,-0.05900760831737068
-0.009600000000000108,-0.05938958036833424
-0.01060000000000011,-0.05981399375829375
-0.01160000000000011,-0.06019596580925731
-0.012600000000000111,-0.06066282053821278
-0.013600000000000112,-0.061073086815173636
-0.014600000000000113,-0.06146920597913584
-0.015600000000000114,-0.061907766482094014
-0.016600000000000115,-0.06231803275905486
-0.017600000000000116,-0.06275659326201304
-0.018600000000000116,-0.06318100665197254
-0.019600000000000117,-0.0636195671549307
-0.020600000000000118,-0.06407227477088752
-0.02160000000000012,-0.06451083527384567
-0.02260000000000012,-0.06493524866380519
-0.02360000000000012,-0.06537380916676334
-0.024600000000000122,-0.0658123696697215
-0.025600000000000123,-0.06626507728567832
-0.026600000000000124,-0.06668949067563783
-0.027600000000000124,-0.06714219829159464
-0.028600000000000125,-0.0675807587945528
-0.029600000000000126,-0.06801931929751097
-0.030600000000000127,-0.06847202691346778
-0.03160000000000013,-0.06889644030342729
-0.03260000000000013,-0.06936329503238275
-0.03360000000000013,-0.06978770842234226
-0.03460000000000002,-0.07024041603829907
-0.03560000000000002,-0.07070727076725454
-0.03660000000000002,-0.07115997838321135
-0.03760000000000002,-0.07164098022516545
-0.03860000000000002,-0.07209368784112226
-0.039600000000000024,-0.07254639545707908
-0.040600000000000025,-0.07298495596003725
-0.041600000000000026,-0.07342351646299541
-0.04260000000000003,-0.07390451830494953
-0.04360000000000003,-0.07435722592090632
-0.04460000000000003,-0.07480993353686313
-0.04560000000000003,-0.0752767882658186
-0.04660000000000003,-0.07572949588177541
-0.04760000000000003,-0.07618220349773222
-0.04860000000000003,-0.0766207640006904
-0.04960000000000003,-0.07705932450364854
-0.050600000000000034,-0.07755447345860131
-0.051600000000000035,-0.07804962241355407
-0.052600000000000036,-0.07851647714250953
-0.053600000000000037,-0.07896918475846634
-0.05460000000000004,-0.07940774526142451
-0.05560000000000004,-0.07986045287738132
-0.05660000000000004,-0.08031316049333813
-0.05760000000000004,-0.08075172099629631
-0.05860000000000004,-0.0812327228382504
-0.05960000000000004,-0.08168543045420722
-0.06060000000000004,-0.08215228518316267
-0.061600000000000044,-0.0826049927991195
-0.06260000000000004,-0.08304355330207766
-0.06360000000000005,-0.08346796669203715
-0.06460000000000005,-0.08387823296899803
-0.06560000000000005,-0.08431679347195618
-0.06660000000000005,-0.08475535397491435
-0.06760000000000005,-0.08522220870386982
-0.06860000000000005,-0.08566076920682797
-0.06960000000000005,-0.08609932970978613
-0.07060000000000005,-0.08655203732574294
-0.07160000000000005,-0.08697645071570247
-0.07260000000000005,-0.08740086410566196
-0.07360000000000005,-0.08781113038262284
-0.07460000000000006,-0.08820724954658503
-0.07560000000000006,-0.08865995716254185
-0.07660000000000006,-0.08907022343950272
-0.07760000000000006,-0.08950878394246087
-0.07860000000000006,-0.08991905021942173
-0.07960000000000006,-0.0903293164963826
-0.08060000000000006,-0.09076787699934075
-0.08160000000000006,-0.09117814327630162
-0.08260000000000006,-0.09158840955326249
-0.08360000000000006,-0.092012822943222
-0.08460000000000006,-0.0923806478811869
-0.08560000000000006,-0.0928050612711464
-0.08660000000000007,-0.09320118043510862
-0.08760000000000007,-0.09361144671206949
-0.08860000000000007,-0.09402171298903034
-0.08960000000000007,-0.0944036850399939
-0.09060000000000007,-0.09478565709095746
-0.09160000000000007,-0.09516762914192102
-0.09260000000000007,-0.09552130696688728
-0.09360000000000007,-0.09591742613084948
-0.09460000000000007,-0.09629939818181305
-0.09560000000000007,-0.0966530760067793
-0.09660000000000007,-0.0970209009447442
-0.09760000000000008,-0.09736043165671183
-0.09860000000000008,-0.09771410948167808
-0.09960000000000008,-0.09803949308064704
-0.10060000000000008,-0.09837902379261465
-0.10160000000000008,-0.09873270161758091
-0.10260000000000008,-0.09907223232954852
-0.10360000000000008,-0.09939761592851748
-0.10460000000000008,-0.09972299952748644
-0.10560000000000008,-0.10004838312645539
-0.10660000000000008,-0.1003596196124257
-0.10760000000000008,-0.10067085609839602
-0.10860000000000009,-0.10096794547136766
-0.10960000000000009,-0.10126503484433932
-0.11060000000000009,-0.10157627133030964
-0.11160000000000009,-0.10185921359028265
-0.11260000000000009,-0.10214215585025564
-0.11360000000000009,-0.10242509811022867
-0.11460000000000009,-0.10270804037020166
-0.11560000000000009,-0.10297683551717601
-0.11660000000000009,-0.10320318932515443
-0.1176000000000001,-0.10345783735913014
-0.1186000000000001,-0.10372663250610449
-0.1196000000000001,-0.10393883920108424
-0.1206000000000001,-0.1042076343480586
-0.1216000000000001,-0.1044056939300397
-0.1226000000000001,-0.10461790062501947
-0.1236000000000001,-0.10484425443299787
-0.1246000000000001,-0.10505646112797762
-0.1256000000000001,-0.10526866782295738
-0.1266000000000001,-0.10546672740493848
-0.1276000000000001,-0.10567893409991824
-0.1286000000000001,-0.10587699368189933
-0.1296000000000001,-0.1060326119248845
-0.1306000000000001,-0.10623067150686559
-0.1316000000000001,-0.10638628974985076
-0.1326000000000001,-0.10655605510583457
-0.1336000000000001,-0.10672582046181836
-0.1346000000000001,-0.10685314447880623
-0.1356000000000001,-0.10699461560879273
-0.1366000000000001,-0.10713608673877922
-0.1376000000000001,-0.10726341075576709
-0.1386000000000001,-0.10741902899875223
-0.1396000000000001,-0.10753220590274143
-0.1406000000000001,-0.1076595299197293
-0.14160000000000011,-0.10775855971071985
-0.14260000000000012,-0.1078575895017104
-0.14360000000000012,-0.10795661929270095
-0.14460000000000012,-0.10804150197069286
-0.14560000000000012,-0.10811223753568612
-0.14660000000000012,-0.10819712021367801
-0.14760000000000012,-0.10828200289166989
-0.14860000000000012,-0.10833859134366451
-0.14960000000000012,-0.10839517979565912
-0.15060000000000012,-0.10845176824765372
-0.15160000000000012,-0.10849420958664967
-0.15260000000000012,-0.10853665092564563
-0.15360000000000013,-0.10859323937764022
-0.15460000000000013,-0.10860738649063886
-0.15560000000000013,-0.10863568071663617
-0.15660000000000013,-0.10863568071663617
-0.15760000000000013,-0.10866397494263345
-0.15860000000000013,-0.10867812205563213
-0.15960000000000002,-0.10867812205563213
-0.16060000000000002,-0.10867812205563213
-0.16160000000000002,-0.10867812205563213
-0.16260000000000002,-0.10867812205563213
-0.16360000000000002,-0.10864982782963481
-0.16460000000000002,-0.10860738649063886
-0.16560000000000002,-0.10862153360363752
-0.16660000000000003,-0.10860738649063886
-0.16760000000000003,-0.10856494515164292
-0.16860000000000003,-0.10852250381264696
-0.16960000000000003,-0.10845176824765372
-0.17060000000000003,-0.10839517979565912
-0.17160000000000003,-0.10835273845666317
-0.17260000000000003,-0.10826785577867125
-0.17360000000000003,-0.1082254144396753
-0.17460000000000003,-0.1081405317616834
-0.17560000000000003,-0.1080556490836915
-0.17660000000000003,-0.10798491351869824
-0.17760000000000004,-0.1078858837277077
-0.17860000000000004,-0.10781514816271445
-0.17960000000000004,-0.10771611837172389
-0.18060000000000004,-0.10761708858073335
-0.18160000000000004,-0.10753220590274143
-0.18260000000000004,-0.10741902899875223
-0.18360000000000004,-0.10731999920776168
-0.18460000000000004,-0.10720682230377249
-0.18560000000000004,-0.10707949828678462
-0.18660000000000004,-0.10695217426979677
-0.18760000000000004,-0.10683899736580757
-0.18860000000000005,-0.10672582046181836
-0.18960000000000005,-0.10661264355782916
-0.19060000000000005,-0.10647117242784265
-0.19160000000000005,-0.10634384841085481
-0.19260000000000005,-0.10621652439386696
-0.19360000000000005,-0.10608920037687909
-0.19460000000000005,-0.1059477292468926
-0.19560000000000005,-0.10580625811690608
-0.19660000000000005,-0.1056364927609223
-0.19760000000000005,-0.10549502163093578
-0.19860000000000005,-0.10535355050094929
-0.19960000000000006,-0.10516963803196683
-0.20060000000000006,-0.10502816690198033
-0.20160000000000006,-0.10487254865899517
-0.20260000000000006,-0.10470278330301136
-0.20360000000000006,-0.10458960639902216
-0.20460000000000006,-0.1044056939300397
-0.20560000000000006,-0.10426422280005321
-0.20660000000000006,-0.1040944574440694
-0.20760000000000006,-0.1039246920880856
-0.20860000000000006,-0.10376907384510045
-0.20960000000000006,-0.10358516137611798
-0.21060000000000006,-0.10341539602013419
-0.21160000000000007,-0.10325977777714902
-0.21260000000000007,-0.10307586530816658
-0.21360000000000007,-0.10292024706518142
-0.21460000000000007,-0.10273633459619896
-0.21560000000000007,-0.10256656924021516
-0.21660000000000007,-0.10241095099723
-0.21760000000000007,-0.1022694798672435
-0.21860000000000007,-0.10208556739826105
-0.21960000000000007,-0.1019016549292786
-0.22060000000000007,-0.10171774246029613
-0.22160000000000007,-0.10153382999131368
-0.22260000000000008,-0.10136406463532988
-0.22360000000000008,-0.10118015216634743
-0.22460000000000008,-0.10099623969736496
-0.22560000000000008,-0.10081232722838251
-0.22660000000000008,-0.10062841475940007
-0.22760000000000008,-0.10045864940341626
-0.22860000000000008,-0.10026058982143515
-0.22960000000000008,-0.10009082446545134
-0.23060000000000008,-0.0999069119964689
-0.23160000000000008,-0.09972299952748644
-0.23260000000000008,-0.09953908705850398
-0.23360000000000009,-0.09938346881551882
-0.2346000000000001,-0.09919955634653636
-0.2356000000000001,-0.09901564387755392
-0.2366000000000001,-0.0988175842955728
-0.2376000000000001,-0.09866196605258765
-0.2386000000000001,-0.09849220069660385
-0.2396000000000001,-0.09829414111462276
-0.2406000000000001,-0.09813852287163759
-0.2416000000000001,-0.09794046328965648
-0.2426000000000001,-0.09775655082067403
-0.2436000000000001,-0.09761507969068753
-0.2446000000000001,-0.09741702010870643
-0.2456000000000001,-0.09726140186572127
-0.2466000000000001,-0.09707748939673881
-0.2476000000000001,-0.09689357692775637
-0.2486000000000001,-0.09673795868477121
-0.2496000000000001,-0.09653989910279011
-0.2506000000000001,-0.09639842797280361
-0.2516000000000001,-0.09621451550382115
-0.2526000000000001,-0.09603060303483868
-0.2536000000000001,-0.0958608376788549
-0.2546000000000001,-0.09569107232287108
-0.2556000000000001,-0.09553545407988592
-0.2566000000000001,-0.09536568872390214
-0.2576000000000001,-0.09519592336791832
-0.2586000000000001,-0.09502615801193452
-0.2596000000000001,-0.09487053976894937
-0.2606000000000001,-0.09468662729996691
-0.2616000000000001,-0.0945451561699804
-0.2626000000000001,-0.09436124370099794
-0.2636000000000001,-0.0942056254580128
-0.2646000000000001,-0.094035860102029
-0.2656000000000001,-0.09388024185904384
-0.2666000000000001,-0.09372462361605868
-0.2676000000000001,-0.09358315248607219
-0.2686000000000001,-0.09341338713008837
-0.2696000000000001,-0.09325776888710322
-0.2706000000000001,-0.0930880035311194
-0.2716000000000001,-0.09296067951413156
-0.2726000000000001,-0.0928050612711464
-0.2736000000000001,-0.09263529591516259
-0.2746000000000001,-0.09246553055917879
-0.2756000000000001,-0.09232405942919229
-0.2766000000000001,-0.09216844118620715
-0.2776000000000001,-0.092012822943222
-0.2786000000000001,-0.09188549892623413
-0.2796000000000001,-0.09170158645725168
-0.2806000000000001,-0.09156011532726518
-0.28160000000000013,-0.09143279131027732
-0.28260000000000013,-0.09129132018029082
-0.28360000000000013,-0.09116399616330297
-0.2846,-0.09099423080731917
-0.2856,-0.09085275967733265
-0.2866,-0.0907254356603448
-0.2876,-0.0905839645303583
-0.2886,-0.09044249340037179
-0.2896,-0.09028687515738665
-0.2906,-0.09015955114039878
-0.2916,-0.09001808001041228
-0.2926,-0.08987660888042578
-0.2936,-0.08977757908943522
-0.29460000000000003,-0.08963610795944872
-0.29560000000000003,-0.08948048971646357
-0.29660000000000003,-0.08936731281247437
-0.29760000000000003,-0.08922584168248787
-0.29860000000000003,-0.0890985176655
-0.29960000000000003,-0.08897119364851215
-0.30060000000000003,-0.08882972251852565
-0.30160000000000003,-0.0887023985015378
-0.30260000000000004,-0.08857507448454995
-0.30360000000000004,-0.08846189758056075
-0.30460000000000004,-0.08833457356357288
-0.30560000000000004,-0.08822139665958369
-0.30660000000000004,-0.08810821975559449
-0.30760000000000004,-0.08800918996460394
-0.30860000000000004,-0.08788186594761609
-0.30960000000000004,-0.08776868904362688
-0.31060000000000004,-0.08764136502663902
-0.31160000000000004,-0.08752818812264983
-0.31260000000000004,-0.0874433054446579
-0.31360000000000005,-0.08731598142767007
-0.31460000000000005,-0.08720280452368086
-0.31560000000000005,-0.0871037747326903
-0.31660000000000005,-0.08697645071570247
-0.31760000000000005,-0.0868774209247119
-0.31860000000000005,-0.08677839113372135
-0.31960000000000005,-0.0866793613427308
-0.32060000000000005,-0.08658033155174025
-0.32160000000000005,-0.08643886042175375
-0.32260000000000005,-0.08638227196975913
-0.32360000000000005,-0.0862832421787686
-0.32460000000000006,-0.08612762393578344
-0.32560000000000006,-0.08601444703179424
-0.32660000000000006,-0.08591541724080368
-0.32760000000000006,-0.08580224033681448
-0.32860000000000006,-0.08571735765882257
-0.32960000000000006,-0.08559003364183472
-0.33060000000000006,-0.08549100385084417
-0.33160000000000006,-0.08539197405985362
-0.33260000000000006,-0.08529294426886307
-0.33360000000000006,-0.0851939144778725
-0.33460000000000006,-0.0850807375738833
-0.33560000000000006,-0.08498170778289275
-0.33660000000000007,-0.08489682510490085
-0.33760000000000007,-0.0847977953139103
-0.33860000000000007,-0.0847129126359184
-0.33960000000000007,-0.08459973573192921
-0.34060000000000007,-0.08448655882793998
-0.34160000000000007,-0.08440167614994809
-0.34260000000000007,-0.08431679347195618
-0.34360000000000007,-0.08423191079396428
-0.3446000000000001,-0.08414702811597238
-0.3456000000000001,-0.08404799832498183
-0.3466000000000001,-0.08396311564698994
-0.34759999999999996,-0.08389238008199668
-0.3486000000000001,-0.08380749740400478
-0.34959999999999997,-0.08370846761301422
-0.3506000000000001,-0.08363773204802097
-0.35159999999999997,-0.08355284937002906
-0.3526000000000001,-0.08349626091803447
-0.35359999999999997,-0.08341137824004256
-0.3546000000000001,-0.08331234844905201
-0.35559999999999997,-0.08324161288405875
-0.3566000000000001,-0.08315673020606687
-0.3576,-0.08308599464107361
-0.3586000000000001,-0.083029406189079
-0.3596,-0.08293037639808845
-0.3606000000000001,-0.08287378794609385
-0.3616,-0.08276061104210465
-0.3626000000000001,-0.08268987547711139
-0.3636,-0.08261913991211814
-0.3646000000000001,-0.08252011012112759
-0.3656,-0.08246352166913298
-0.3666000000000001,-0.08240693321713838
-0.3676,-0.08230790342614784
-0.3686000000000001,-0.08226546208715188
-0.3696,-0.08216643229616134
-0.3706000000000001,-0.08210984384416672
-0.3716,-0.08205325539217213
-0.3726000000000001,-0.08195422560118158
-0.3736,-0.08189763714918698
-0.3746000000000001,-0.08182690158419371
-0.3756,-0.08178446024519778
-0.3766000000000001,-0.08169957756720586
-0.3776,-0.08158640066321667
-0.3786000000000001,-0.08152981221122206
-0.3796,-0.08145907664622881
-0.3806000000000001,-0.0813741939682369
-0.3816,-0.08131760551624231
-0.3826000000000001,-0.08124686995124906
-0.3836,-0.08116198727325716
-0.3846000000000001,-0.08110539882126255
-0.3856,-0.08104881036926795
-0.3866000000000001,-0.0809780748042747
-0.3876,-0.0808931921262828
-0.3886000000000001,-0.08083660367428819
-0.3896,-0.0807800152222936
-0.3906000000000001,-0.08070927965730033
-0.3916,-0.08065269120530574
-0.3926000000000001,-0.0805819556403125
-0.3936,-0.08051122007531925
-0.3946000000000001,-0.08045463162332463
-0.3956,-0.0804121902843287
-0.3966000000000001,-0.08038389605833138
-0.3976,-0.08031316049333813
-0.3986000000000001,-0.08025657204134354
-0.3996,-0.08018583647635028
-0.4006000000000001,-0.08012924802435568
-0.4016,-0.08008680668535972
-0.4026000000000001,-0.08001607112036647
-0.4036,-0.07998777689436919
-0.4046000000000001,-0.07991704132937592
-0.4056,-0.07986045287738132
-0.40660000000000013,-0.07981801153838537
-0.4076,-0.07974727597339212
-0.40860000000000013,-0.07971898174739482
-0.4096,-0.07966239329540022
-0.41060000000000013,-0.07960580484340561
-0.4116,-0.07957751061740831
-0.41260000000000013,-0.07950677505241506
-0.4136,-0.07947848082641776
-0.41460000000000014,-0.07942189237442315
-0.4156,-0.07936530392242855
-0.41660000000000014,-0.07933700969643126
-0.4176,-0.07928042124443666
-0.41860000000000014,-0.07923797990544071
-0.41960000000000003,-0.07919553856644475
-0.42060000000000014,-0.07913895011445016
-0.42160000000000003,-0.0791248030014515
-0.42260000000000014,-0.07908236166245554
-0.42360000000000003,-0.07903992032345959
-0.42460000000000014,-0.07899747898446366
-0.42560000000000003,-0.07894089053246904
-0.42660000000000015,-0.0788984491934731
-0.42760000000000004,-0.07885600785447715
-0.42860000000000015,-0.07881356651548119
-0.42960000000000004,-0.07877112517648524
-0.43060000000000015,-0.07874283095048794
-0.43160000000000004,-0.07870038961149198
-0.43260000000000015,-0.07865794827249603
-0.43360000000000004,-0.07862965404649873
-0.43460000000000015,-0.07860135982050144
-0.43560000000000004,-0.07858721270750278
-0.43660000000000015,-0.07854477136850684
