Potential V vs RHE, Current mA cm-2
0.05339999999999995,-0.12141052375441745
0.05239999999999995,-0.18843954514202288
0.051399999999999946,-0.232578537697812
0.050399999999999945,-0.25096978459605745
0.049399999999999944,-0.26058982143513976
0.04839999999999994,-0.26766337793446493
0.04739999999999994,-0.2734636942639116
0.04639999999999994,-0.27784929929349317
0.04539999999999994,-0.28223490432307485
0.04439999999999994,-0.2854887403127644
0.04339999999999994,-0.2888840474324405
0.04239999999999994,-0.2927037679420761
0.04139999999999994,-0.2958161328017792
0.040399999999999936,-0.2986455554015092
0.039399999999999935,-0.3013335068712528
0.038399999999999934,-0.30430440060096936
0.03739999999999993,-0.3071338232006995
0.03639999999999993,-0.30953883241047003
0.03539999999999993,-0.31180237049025405
0.03439999999999993,-0.31434885083001113
0.03339999999999993,-0.3164709177798087
0.03239999999999993,-0.3191588692495523
0.03139999999999993,-0.3217053495893093
0.030399999999999927,-0.32382741653910685
0.029399999999999926,-0.3260909546188909
0.028399999999999925,-0.328354492698675
0.027399999999999924,-0.33075950190844555
0.026399999999999924,-0.3333059822482026
0.025399999999999923,-0.3354280491980002
0.024399999999999922,-0.33712570275783826
0.02339999999999992,-0.3396721830975953
0.02239999999999992,-0.3419357211773794
0.02139999999999992,-0.34434073038714996
0.020399999999999918,-0.346321326206961
0.019399999999999917,-0.34830192202677207
0.018399999999999916,-0.3505654601065561
0.017399999999999916,-0.3525460559263671
0.016399999999999915,-0.35495106513613767
0.015399999999999914,-0.3572146032159218
0.014399999999999913,-0.35933667016571935
0.013399999999999912,-0.3617416793754899
0.012399999999999911,-0.36386374632528745
0.01139999999999991,-0.3661272844050715
0.01039999999999991,-0.36839082248485555
0.009399999999999908,-0.36994700491470706
0.008399999999999908,-0.37221054299449113
0.007399999999999907,-0.3747570233342482
0.006399999999999906,-0.37687909028404576
0.005399999999999905,-0.3792840994938163
0.004399999999999904,-0.38140616644361386
0.003399999999999903,-0.3832452911334384
0.002399999999999902,-0.38607471373316854
0.0013999999999999013,-0.38833825181295256
0.00039999999999990044,-0.3904603187627501
-0.0006000000000001005,-0.39272385684253414
-0.0016000000000001013,-0.3947044526623452
-0.0026000000000001022,-0.39739240413208876
-0.003600000000000103,-0.39979741334185936
-0.004600000000000104,-0.4019194802916569
-0.005600000000000105,-0.40460743176140046
-0.006600000000000106,-0.406729498711198
-0.007600000000000107,-0.40941745018094167
-0.008600000000000108,-0.4122468727806717
-0.009600000000000108,-0.41422746860048276
-0.01060000000000011,-0.41691542007022636
-0.01160000000000011,-0.4196033715399699
-0.012600000000000111,-0.4231401497896325
-0.013600000000000112,-0.42596957238936256
-0.014600000000000113,-0.4279501682091736
-0.015600000000000114,-0.4306381196789172
-0.016600000000000115,-0.4334675422786472
-0.017600000000000116,-0.43615549374839085
-0.018600000000000116,-0.4396922719980534
-0.019600000000000117,-0.4422387523378105
-0.020600000000000118,-0.444926703807554
-0.02160000000000012,-0.4484634820572166
-0.02260000000000012,-0.45171731804690624
-0.02360000000000012,-0.45511262516658224
-0.024600000000000122,-0.4583664611562719
-0.025600000000000123,-0.461478826015975
-0.026600000000000124,-0.4650156042656376
-0.027600000000000124,-0.4686938536452867
-0.028600000000000125,-0.4720891607649627
-0.029600000000000126,-0.4757674101446118
-0.030600000000000127,-0.4793041883942744
-0.03160000000000013,-0.4829824377739235
-0.03260000000000013,-0.4872265716735187
-0.03360000000000013,-0.49090482105316774
-0.03460000000000002,-0.49514895495276273
-0.03560000000000002,-0.49896867546239837
-0.03660000000000002,-0.5034957516219666
-0.03760000000000002,-0.5080228277815346
-0.03860000000000002,-0.5124084328111163
-0.039600000000000024,-0.5167940378406979
-0.040600000000000025,-0.5211796428702795
-0.041600000000000026,-0.5257067190298478
-0.04260000000000003,-0.5307996797093618
-0.04360000000000003,-0.5357511692588894
-0.04460000000000003,-0.5407026588084171
-0.04560000000000003,-0.5457956194879312
-0.04660000000000003,-0.5506056379074723
-0.04760000000000003,-0.5562644831069326
-0.04860000000000003,-0.5622062705663656
-0.04960000000000003,-0.5672992312458797
-0.050600000000000034,-0.5729580764453399
-0.051600000000000035,-0.578899863904773
-0.052600000000000036,-0.5848416513642062
-0.053600000000000037,-0.5910663810836124
-0.05460000000000004,-0.5967252262830725
-0.05560000000000004,-0.6028084848724922
-0.05660000000000004,-0.6097405702418307
-0.05760000000000004,-0.6161067710912235
-0.05860000000000004,-0.6228973853305756
-0.05960000000000004,-0.6292635861799682
-0.06060000000000004,-0.6357712581593474
-0.061600000000000044,-0.6428448146586726
-0.06260000000000004,-0.6500598422879843
-0.06360000000000005,-0.6574163410472825
-0.06460000000000005,-0.6649143109365673
-0.06560000000000005,-0.6722708096958655
-0.06660000000000005,-0.6800517218451232
-0.06760000000000005,-0.6878326339943809
-0.06860000000000005,-0.6956135461436386
-0.06960000000000005,-0.7036774005528693
-0.07060000000000005,-0.7115997838321135
-0.07160000000000005,-0.7198051093713307
-0.07260000000000005,-0.7281519060405344
-0.07360000000000005,-0.7363572315797515
-0.07460000000000006,-0.7452699127689013
-0.07560000000000006,-0.7537581805680915
-0.07660000000000006,-0.7623879194972683
-0.07760000000000006,-0.7714420718164045
-0.07860000000000006,-0.7806376952655272
-0.07960000000000006,-0.7898333187146499
-0.08060000000000006,-0.7990289421637727
-0.08160000000000006,-0.808366036742882
-0.08260000000000006,-0.8182690158419373
-0.08360000000000006,-0.827747581551033
-0.08460000000000006,-0.8373676183901153
-0.08560000000000006,-0.8469876552291975
-0.08660000000000007,-0.8567491631982663
-0.08760000000000007,-0.8672180268172675
-0.08860000000000007,-0.8774039481762959
-0.08960000000000007,-0.887306927275351
-0.09060000000000007,-0.8979172620243387
-0.09160000000000007,-0.9082446545133536
-0.09260000000000007,-0.9189964603923279
-0.09360000000000007,-0.9300312085312752
-0.09460000000000007,-0.9400756587603168
-0.09560000000000007,-0.9509689357692777
-0.09660000000000007,-0.9624280972981845
-0.09760000000000008,-0.9734628454371318
-0.09860000000000008,-0.9847805358360522
-0.09960000000000008,-0.9958152839749993
-0.10060000000000008,-1.00670856098396
-0.10160000000000008,-1.018167722512867
-0.10260000000000008,-1.0297683551717602
-0.10360000000000008,-1.0413689878306533
-0.10460000000000008,-1.052969620489547
-0.10560000000000008,-1.0641458397584806
-0.10660000000000008,-1.076029414677347
-0.10760000000000008,-1.0880544607261995
-0.10860000000000009,-1.0997965645150796
-0.10960000000000009,-1.112104552823905
-0.11060000000000009,-1.123563714352812
-0.11160000000000009,-1.135871702661638
-0.11260000000000009,-1.14832116210045
-0.11360000000000009,-1.1602047370193165
-0.11460000000000009,-1.1727956675881153
-0.11560000000000009,-1.1855280692869008
-0.11660000000000009,-1.1971287019457941
-0.1176000000000001,-1.209719632514593
-0.1186000000000001,-1.2218861496934323
-0.1196000000000001,-1.234477080262231
-0.1206000000000001,-1.2467850685710569
-0.1216000000000001,-1.2590930568798826
-0.1226000000000001,-1.271825458578668
-0.1236000000000001,-1.2842749180174802
-0.1246000000000001,-1.2964414351963194
-0.1256000000000001,-1.309173836895105
-0.1266000000000001,-1.321764767463904
-0.1276000000000001,-1.3343556980327025
-0.1286000000000001,-1.3475125131214474
-0.1296000000000001,-1.3595375591703005
-0.1306000000000001,-1.3722699608690856
-0.1316000000000001,-1.384719420307898
-0.1326000000000001,-1.3974518220066834
-0.1336000000000001,-1.4104671659654415
-0.1346000000000001,-1.423199567664227
-0.1356000000000001,-1.4345172580631471
-0.1366000000000001,-1.4486643710617975
-0.1376000000000001,-1.459982061460718
-0.1386000000000001,-1.472714463159503
-0.1396000000000001,-1.4854468648582886
-0.1406000000000001,-1.498179266557074
-0.14160000000000011,-1.510911668255859
-0.14260000000000012,-1.5222293586547795
-0.14360000000000012,-1.5349617603535646
-0.14460000000000012,-1.54769416205235
-0.14560000000000012,-1.5604265637511354
-0.14660000000000012,-1.5731589654499207
-0.14760000000000012,-1.584476655848841
-0.14860000000000012,-1.5972090575476263
-0.14960000000000012,-1.6099414592464116
-0.15060000000000012,-1.6212591496453321
-0.15160000000000012,-1.6339915513441174
-0.15260000000000012,-1.6453092417430377
-0.15360000000000013,-1.658041643441823
-0.15460000000000013,-1.6693593338407433
-0.15560000000000013,-1.6820917355395286
-0.15660000000000013,-1.693409425938449
-0.15760000000000013,-1.7061418276372344
-0.15860000000000013,-1.7174595180361545
-0.15960000000000002,-1.7287772084350748
-0.16060000000000002,-1.7400948988339953
-0.16160000000000002,-1.7514125892329155
-0.16260000000000002,-1.7627302796318356
-0.16360000000000002,-1.774047970030756
-0.16460000000000002,-1.7853656604296764
-0.16560000000000002,-1.7980980621284617
-0.16660000000000003,-1.8108304638272468
-0.16760000000000003,-1.8207334429263025
-0.16860000000000003,-1.8306364220253575
-0.16960000000000003,-1.8419541124242775
-0.17060000000000003,-1.8518570915233332
-0.17160000000000003,-1.8631747819222533
-0.17260000000000003,-1.8730777610213083
-0.17360000000000003,-1.884395451420229
-0.17460000000000003,-1.892883719219419
-0.17560000000000003,-1.9042014096183393
-0.17660000000000003,-1.9141043887173947
-0.17760000000000004,-1.92400736781645
-0.17860000000000004,-1.933910346915505
-0.17960000000000004,-1.9438133260145605
-0.18060000000000004,-1.9523015938137507
-0.18160000000000004,-1.9622045729128061
-0.18260000000000004,-1.9706928407119961
-0.18360000000000004,-1.980595819811051
-0.18460000000000004,-1.9904987989101068
-0.18560000000000004,-1.9989870667092968
-0.18660000000000004,-2.007475334508487
-0.18760000000000004,-2.0159636023076772
-0.18860000000000005,-2.0244518701068674
-0.18960000000000005,-2.0329401379060577
-0.19060000000000005,-2.0414284057052483
-0.19160000000000005,-2.049916673504438
-0.19260000000000005,-2.0569902300037635
-0.19360000000000005,-2.0654784978029537
-0.19460000000000005,-2.072552054302279
-0.19560000000000005,-2.079625610801604
-0.19660000000000005,-2.0866991673009294
-0.19760000000000005,-2.095187435100119
-0.19860000000000005,-2.102260991599445
-0.19960000000000006,-2.1093345480987695
-0.20060000000000006,-2.116408104598095
-0.20160000000000006,-2.122066949797555
-0.20260000000000006,-2.12914050629688
-0.20360000000000006,-2.1347993514963406
-0.20460000000000006,-2.1404581966958003
-0.20560000000000006,-2.1475317531951257
-0.20660000000000006,-2.1531905983945863
-0.20760000000000006,-2.158849443594046
-0.20860000000000006,-2.1645082887935065
-0.20960000000000006,-2.1687524226931014
-0.21060000000000006,-2.174411267892561
-0.21160000000000007,-2.178655401792157
-0.21260000000000007,-2.184314246991617
-0.21360000000000007,-2.1885583808912115
-0.21460000000000007,-2.192802514790807
-0.21560000000000007,-2.197046648690402
-0.21660000000000007,-2.201290782589997
-0.21760000000000007,-2.206949627789457
-0.21860000000000007,-2.2111937616890525
-0.21960000000000007,-2.2140231842887825
-0.22060000000000007,-2.216852606888512
-0.22160000000000007,-2.2210967407881075
-0.22260000000000008,-2.2239261633878376
-0.22360000000000008,-2.226755585987568
-0.22460000000000008,-2.229585008587298
-0.22560000000000008,-2.2324144311870278
-0.22660000000000008,-2.235243853786758
-0.22760000000000008,-2.238073276386488
-0.22860000000000008,-2.2394879876863527
-0.22960000000000008,-2.2423174102860832
-0.23060000000000008,-2.2437321215859485
-0.23160000000000008,-2.2465615441856785
-0.23260000000000008,-2.2479762554855434
-0.23360000000000009,-2.249390966785408
-0.2346000000000001,-2.250805678085273
-0.2356000000000001,-2.2522203893851382
-0.2366000000000001,-2.253635100685003
-0.2376000000000001,-2.2550498119848683
-0.2386000000000001,-2.2564645232847336
-0.2396000000000001,-2.257879234584599
-0.2406000000000001,-2.257879234584599
-0.2416000000000001,-2.2592939458844636
-0.2426000000000001,-2.260708657184329
-0.2436000000000001,-2.260708657184329
-0.2446000000000001,-2.260708657184329
-0.2456000000000001,-2.2621233684841937
-0.2466000000000001,-2.2621233684841937
-0.2476000000000001,-2.2621233684841937
-0.2486000000000001,-2.263538079784059
-0.2496000000000001,-2.263538079784059
-0.2506000000000001,-2.263538079784059
-0.2516000000000001,-2.263538079784059
-0.2526000000000001,-2.263538079784059
-0.2536000000000001,-2.263538079784059
-0.2546000000000001,-2.263538079784059
-0.2556000000000001,-2.263538079784059
-0.2566000000000001,-2.263538079784059
-0.2576000000000001,-2.263538079784059
-0.2586000000000001,-2.263538079784059
-0.2596000000000001,-2.263538079784059
-0.2606000000000001,-2.263538079784059
-0.2616000000000001,-2.263538079784059
-0.2626000000000001,-2.263538079784059
-0.2636000000000001,-2.263538079784059
-0.2646000000000001,-2.2649527910839233
-0.2656000000000001,-2.263538079784059
-0.2666000000000001,-2.2649527910839233
-0.2676000000000001,-2.2649527910839233
-0.2686000000000001,-2.2649527910839233
-0.2696000000000001,-2.2649527910839233
-0.2706000000000001,-2.2649527910839233
-0.2716000000000001,-2.2649527910839233
-0.2726000000000001,-2.2663675023837886
-0.2736000000000001,-2.2663675023837886
-0.2746000000000001,-2.2677822136836534
-0.2756000000000001,-2.2677822136836534
-0.2766000000000001,-2.2691969249835187
-0.2776000000000001,-2.2691969249835187
-0.2786000000000001,-2.2706116362833835
-0.2796000000000001,-2.272026347583249
-0.2806000000000001,-2.273441058883114
-0.28160000000000013,-2.273441058883114
-0.28260000000000013,-2.2748557701829792
-0.28360000000000013,-2.2776851927827093
-0.2846,-2.2776851927827093
-0.2856,-2.279099904082574
-0.2866,-2.2819293266823037
-0.2876,-2.283344037982169
-0.2886,-2.286173460581899
-0.2896,-2.2890028831816296
-0.2906,-2.2904175944814944
-0.2916,-2.2932470170812245
-0.2926,-2.2946617283810897
-0.2936,-2.298905862280684
-0.29460000000000003,-2.3003205735805494
-0.29560000000000003,-2.30314999618028
-0.29660000000000003,-2.30597941878001
-0.29760000000000003,-2.30880884137974
-0.29860000000000003,-2.3116382639794697
-0.29960000000000003,-2.3144676865791998
-0.30060000000000003,-2.318711820478795
-0.30160000000000003,-2.321541243078525
-0.30260000000000004,-2.3257853769781205
-0.30360000000000004,-2.330029510877715
-0.30460000000000004,-2.3328589334774454
-0.30560000000000004,-2.3371030673770408
-0.30660000000000004,-2.3413472012766356
-0.30760000000000004,-2.3455913351762305
-0.30860000000000004,-2.349835469075826
-0.30960000000000004,-2.354079602975421
-0.31060000000000004,-2.358323736875016
-0.31160000000000004,-2.362567870774611
-0.31260000000000004,-2.3668120046742067
-0.31360000000000005,-2.3724708498736664
-0.31460000000000005,-2.3767149837732613
-0.31560000000000005,-2.382373828972722
-0.31660000000000005,-2.386617962872317
-0.31760000000000005,-2.392276808071777
-0.31860000000000005,-2.396520941971372
-0.31960000000000005,-2.4021797871708324
-0.32060000000000005,-2.407838632370292
-0.32160000000000005,-2.4134974775697526
-0.32260000000000005,-2.4191563227692128
-0.32360000000000005,-2.424815167968673
-0.32460000000000006,-2.4290593018682682
-0.32560000000000006,-2.436132858367593
-0.32660000000000006,-2.4403769922671885
-0.32760000000000006,-2.4474505487665135
-0.32860000000000006,-2.4531093939659736
-0.32960000000000006,-2.4587682391654337
-0.33060000000000006,-2.464427084364894
-0.33160000000000006,-2.4700859295643536
-0.33260000000000006,-2.475744774763814
-0.33360000000000006,-2.4828183312631396
-0.33460000000000006,-2.4884771764625997
-0.33560000000000006,-2.49413602166206
-0.33660000000000007,-2.49979486686152
-0.33760000000000007,-2.50545371206098
-0.33860000000000007,-2.512527268560305
-0.33960000000000007,-2.518186113759765
-0.34060000000000007,-2.5238449589592253
-0.34160000000000007,-2.5295038041586855
-0.34260000000000007,-2.536577360658011
-0.34360000000000007,-2.542236205857471
-0.3446000000000001,-2.5478950510569307
-0.3456000000000001,-2.5535538962563913
-0.3466000000000001,-2.5592127414558514
-0.34759999999999996,-2.5648715866553116
-0.3486000000000001,-2.5705304318547717
-0.34959999999999997,-2.576189277054232
-0.3506000000000001,-2.581848122253692
-0.35159999999999997,-2.587506967453152
-0.3526000000000001,-2.5931658126526123
-0.35359999999999997,-2.597409946552207
-0.3546000000000001,-2.6030687917516673
-0.35559999999999997,-2.6087276369511274
-0.3566000000000001,-2.6129717708507227
-0.3576,-2.618630616050183
-0.3586000000000001,-2.6228747499497778
-0.3596,-2.627118883849373
-0.3606000000000001,-2.6327777290488332
-0.3616,-2.637021862948428
-0.3626000000000001,-2.641265996848024
-0.3636,-2.6455101307476188
-0.3646000000000001,-2.6497542646472136
-0.3656,-2.6539983985468085
-0.3666000000000001,-2.656827821146539
-0.3676,-2.661071955046134
-0.3686000000000001,-2.6653160889457292
-0.3696,-2.6681455115454593
-0.3706000000000001,-2.6723896454450546
-0.3716,-2.6752190680447843
-0.3726000000000001,-2.6780484906445143
-0.3736,-2.6822926245441097
-0.3746000000000001,-2.6851220471438397
-0.3756,-2.6865367584437045
-0.3766000000000001,-2.689366181043435
-0.3776,-2.6921956036431647
-0.3786000000000001,-2.6950250262428948
-0.3796,-2.69643973754276
-0.3806000000000001,-2.697854448842625
-0.3816,-2.700683871442355
-0.3826000000000001,-2.70209858274222
-0.3836,-2.7035132940420854
-0.3846000000000001,-2.7049280053419507
-0.3856,-2.7049280053419507
-0.3866000000000001,-2.706342716641815
-0.3876,-2.7077574279416803
-0.3886000000000001,-2.709172139241545
-0.3896,-2.709172139241545
-0.3906000000000001,-2.709172139241545
-0.3916,-2.7105868505414104
-0.3926000000000001,-2.7105868505414104
-0.3936,-2.7105868505414104
-0.3946000000000001,-2.7105868505414104
-0.3956,-2.7105868505414104
-0.3966000000000001,-2.7105868505414104
-0.3976,-2.7105868505414104
-0.3986000000000001,-2.7105868505414104
-0.3996,-2.7105868505414104
-0.4006000000000001,-2.709172139241545
-0.4016,-2.709172139241545
-0.4026000000000001,-2.709172139241545
-0.4036,-2.709172139241545
-0.4046000000000001,-2.7077574279416803
-0.4056,-2.706342716641815
-0.40660000000000013,-2.706342716641815
-0.4076,-2.7049280053419507
-0.40860000000000013,-2.7049280053419507
-0.4096,-2.7035132940420854
-0.41060000000000013,-2.70209858274222
-0.4116,-2.700683871442355
-0.41260000000000013,-2.700683871442355
-0.4136,-2.69926916014249
-0.41460000000000014,-2.697854448842625
-0.4156,-2.69643973754276
-0.41660000000000014,-2.69643973754276
-0.4176,-2.6950250262428948
-0.41860000000000014,-2.6950250262428948
-0.41960000000000003,-2.69361031494303
-0.42060000000000014,-2.6921956036431647
-0.42160000000000003,-2.6921956036431647
-0.42260000000000014,-2.6921956036431647
-0.42360000000000003,-2.6907808923433
-0.42460000000000014,-2.689366181043435
-0.42560000000000003,-2.6879514697435702
-0.42660000000000015,-2.6879514697435702
-0.42760000000000004,-2.6879514697435702
-0.42860000000000015,-2.6865367584437045
-0.42960000000000004,-2.6865367584437045
-0.43060000000000015,-2.6865367584437045
-0.43160000000000004,-2.6851220471438397
-0.43260000000000015,-2.6851220471438397
-0.43360000000000004,-2.6851220471438397
-0.43460000000000015,-2.6851220471438397
-0.43560000000000004,-2.6865367584437045
-0.43660000000000015,-2.6865367584437045
-0.43760000000000004,-2.6865367584437045
-0.43860000000000016,-2.6865367584437045
-0.43960000000000005,-2.6879514697435702
-0.44060000000000016,-2.6879514697435702
-0.44160000000000005,-2.689366181043435
-0.44260000000000016,-2.6907808923433
-0.44360000000000005,-2.6921956036431647
-0.44460000000000016,-2.69361031494303
-0.44560000000000005,-2.69643973754276
-0.44660000000000016,-2.697854448842625
-0.44760000000000005,-2.700683871442355
-0.44860000000000017,-2.7035132940420854
-0.44960000000000006,-2.7049280053419507
-0.45060000000000017,-2.7077574279416803
