May 5, 2025   21:40:32
Cyclic Voltammetry
File: c:/users/guazh/data/banditlqround7_x0exp1108_r5/2025-04-30-exp1252\exp1252-2025-05-05t21_26_21-h2koh\exp1252_cv_sr_300mvs_efin_-1600mv.bin
Data Source:  Experiment
Instrument Model:  CHI760E
Header: CV ran at 300 mVs
Note: 

Init E (V) = -1
High E (V) = -1
Low E (V) = -1.6
Final E (V) = -1
Init P/N = N
Scan Rate (V/s) = 0.3
Segment = 3
Sample Interval (V) = 0.001
Quiet Time (sec) = 2
Sensitivity (A/V) = 0.01
Comp R (ohm) = 1.2

Results:

Channel 1:
Segment 1:

Segment 2:

Segment 3:

Potential/V, Current/A

-1.000, 3.701e-4
-1.001, 4.102e-4
-1.002, 4.380e-4
-1.003, 4.626e-4
-1.004, 4.780e-4
-1.005, 4.935e-4
-1.006, 5.058e-4
-1.007, 5.212e-4
-1.008, 5.335e-4
-1.009, 5.459e-4
-1.010, 5.520e-4
-1.011, 5.613e-4
-1.012, 5.736e-4
-1.013, 5.859e-4
-1.014, 5.952e-4
-1.015, 5.983e-4
-1.016, 6.044e-4
-1.017, 6.137e-4
-1.018, 6.229e-4
-1.019, 6.291e-4
-1.020, 6.322e-4
-1.021, 6.384e-4
-1.022, 6.445e-4
-1.023, 6.507e-4
-1.024, 6.569e-4
-1.025, 6.599e-4
-1.026, 6.630e-4
-1.027, 6.723e-4
-1.028, 6.784e-4
-1.029, 6.815e-4
-1.030, 6.846e-4
-1.031, 6.877e-4
-1.032, 6.969e-4
-1.033, 7.031e-4
-1.034, 7.062e-4
-1.035, 7.062e-4
-1.036, 7.093e-4
-1.037, 7.154e-4
-1.038, 7.216e-4
-1.039, 7.278e-4
-1.040, 7.278e-4
-1.041, 7.309e-4
-1.042, 7.370e-4
-1.043, 7.432e-4
-1.044, 7.463e-4
-1.045, 7.494e-4
-1.046, 7.524e-4
-1.047, 7.586e-4
-1.048, 7.648e-4
-1.049, 7.679e-4
-1.050, 7.709e-4
-1.051, 7.709e-4
-1.052, 7.771e-4
-1.053, 7.833e-4
-1.054, 7.863e-4
-1.055, 7.863e-4
-1.056, 7.894e-4
-1.057, 7.956e-4
-1.058, 7.987e-4
-1.059, 8.018e-4
-1.060, 8.048e-4
-1.061, 8.048e-4
-1.062, 8.110e-4
-1.063, 8.172e-4
-1.064, 8.172e-4
-1.065, 8.203e-4
-1.066, 8.203e-4
-1.067, 8.264e-4
-1.068, 8.326e-4
-1.069, 8.357e-4
-1.070, 8.357e-4
-1.071, 8.357e-4
-1.072, 8.418e-4
-1.073, 8.480e-4
-1.074, 8.511e-4
-1.075, 8.511e-4
-1.076, 8.573e-4
-1.077, 8.603e-4
-1.078, 8.665e-4
-1.079, 8.696e-4
-1.080, 8.696e-4
-1.081, 8.727e-4
-1.082, 8.758e-4
-1.083, 8.819e-4
-1.084, 8.819e-4
-1.085, 8.819e-4
-1.086, 8.819e-4
-1.087, 8.881e-4
-1.088, 8.912e-4
-1.089, 8.943e-4
-1.090, 8.973e-4
-1.091, 9.004e-4
-1.092, 9.066e-4
-1.093, 9.097e-4
-1.094, 9.128e-4
-1.095, 9.158e-4
-1.096, 9.158e-4
-1.097, 9.220e-4
-1.098, 9.282e-4
-1.099, 9.282e-4
-1.100, 9.313e-4
-1.101, 9.313e-4
-1.102, 9.374e-4
-1.103, 9.405e-4
-1.104, 9.405e-4
-1.105, 9.405e-4
-1.106, 9.436e-4
-1.107, 9.498e-4
-1.108, 9.559e-4
-1.109, 9.559e-4
-1.110, 9.559e-4
-1.111, 9.590e-4
-1.112, 9.652e-4
-1.113, 9.713e-4
-1.114, 9.713e-4
-1.115, 9.713e-4
-1.116, 9.744e-4
-1.117, 9.806e-4
-1.118, 9.837e-4
-1.119, 9.868e-4
-1.120, 9.868e-4
-1.121, 9.898e-4
-1.122, 9.929e-4
-1.123, 9.991e-4
-1.124, 1.002e-3
-1.125, 1.002e-3
-1.126, 1.005e-3
-1.127, 1.011e-3
-1.128, 1.014e-3
-1.129, 1.018e-3
-1.130, 1.018e-3
-1.131, 1.021e-3
-1.132, 1.027e-3
-1.133, 1.030e-3
-1.134, 1.033e-3
-1.135, 1.033e-3
-1.136, 1.033e-3
-1.137, 1.039e-3
-1.138, 1.048e-3
-1.139, 1.051e-3
-1.140, 1.055e-3
-1.141, 1.058e-3
-1.142, 1.064e-3
-1.143, 1.073e-3
-1.144, 1.076e-3
-1.145, 1.079e-3
-1.146, 1.079e-3
-1.147, 1.085e-3
-1.148, 1.092e-3
-1.149, 1.092e-3
-1.150, 1.092e-3
-1.151, 1.095e-3
-1.152, 1.101e-3
-1.153, 1.110e-3
-1.154, 1.116e-3
-1.155, 1.119e-3
-1.156, 1.122e-3
-1.157, 1.129e-3
-1.158, 1.135e-3
-1.159, 1.138e-3
-1.160, 1.138e-3
-1.161, 1.141e-3
-1.162, 1.147e-3
-1.163, 1.153e-3
-1.164, 1.156e-3
-1.165, 1.162e-3
-1.166, 1.166e-3
-1.167, 1.172e-3
-1.168, 1.181e-3
-1.169, 1.184e-3
-1.170, 1.187e-3
-1.171, 1.193e-3
-1.172, 1.203e-3
-1.173, 1.209e-3
-1.174, 1.212e-3
-1.175, 1.215e-3
-1.176, 1.218e-3
-1.177, 1.224e-3
-1.178, 1.233e-3
-1.179, 1.236e-3
-1.180, 1.240e-3
-1.181, 1.246e-3
-1.182, 1.252e-3
-1.183, 1.261e-3
-1.184, 1.267e-3
-1.185, 1.273e-3
-1.186, 1.277e-3
-1.187, 1.286e-3
-1.188, 1.295e-3
-1.189, 1.301e-3
-1.190, 1.304e-3
-1.191, 1.310e-3
-1.192, 1.320e-3
-1.193, 1.326e-3
-1.194, 1.335e-3
-1.195, 1.338e-3
-1.196, 1.344e-3
-1.197, 1.351e-3
-1.198, 1.360e-3
-1.199, 1.366e-3
-1.200, 1.369e-3
-1.201, 1.375e-3
-1.202, 1.381e-3
-1.203, 1.391e-3
-1.204, 1.397e-3
-1.205, 1.403e-3
-1.206, 1.409e-3
-1.207, 1.418e-3
-1.208, 1.428e-3
-1.209, 1.434e-3
-1.210, 1.437e-3
-1.211, 1.443e-3
-1.212, 1.452e-3
-1.213, 1.462e-3
-1.214, 1.468e-3
-1.215, 1.474e-3
-1.216, 1.480e-3
-1.217, 1.489e-3
-1.218, 1.499e-3
-1.219, 1.505e-3
-1.220, 1.511e-3
-1.221, 1.517e-3
-1.222, 1.526e-3
-1.223, 1.532e-3
-1.224, 1.539e-3
-1.225, 1.545e-3
-1.226, 1.554e-3
-1.227, 1.563e-3
-1.228, 1.576e-3
-1.229, 1.585e-3
-1.230, 1.588e-3
-1.231, 1.594e-3
-1.232, 1.606e-3
-1.233, 1.616e-3
-1.234, 1.622e-3
-1.235, 1.628e-3
-1.236, 1.634e-3
-1.237, 1.643e-3
-1.238, 1.653e-3
-1.239, 1.662e-3
-1.240, 1.668e-3
-1.241, 1.674e-3
-1.242, 1.684e-3
-1.243, 1.693e-3
-1.244, 1.699e-3
-1.245, 1.705e-3
-1.246, 1.711e-3
-1.247, 1.724e-3
-1.248, 1.733e-3
-1.249, 1.739e-3
-1.250, 1.745e-3
-1.251, 1.751e-3
-1.252, 1.761e-3
-1.253, 1.770e-3
-1.254, 1.779e-3
-1.255, 1.785e-3
-1.256, 1.791e-3
-1.257, 1.804e-3
-1.258, 1.813e-3
-1.259, 1.819e-3
-1.260, 1.825e-3
-1.261, 1.832e-3
-1.262, 1.841e-3
-1.263, 1.853e-3
-1.264, 1.856e-3
-1.265, 1.865e-3
-1.266, 1.872e-3
-1.267, 1.881e-3
-1.268, 1.890e-3
-1.269, 1.896e-3
-1.270, 1.902e-3
-1.271, 1.912e-3
-1.272, 1.921e-3
-1.273, 1.930e-3
-1.274, 1.939e-3
-1.275, 1.946e-3
-1.276, 1.949e-3
-1.277, 1.961e-3
-1.278, 1.970e-3
-1.279, 1.980e-3
-1.280, 1.983e-3
-1.281, 1.992e-3
-1.282, 1.998e-3
-1.283, 2.007e-3
-1.284, 2.017e-3
-1.285, 2.020e-3
-1.286, 2.029e-3
-1.287, 2.038e-3
-1.288, 2.050e-3
-1.289, 2.057e-3
-1.290, 2.063e-3
-1.291, 2.069e-3
-1.292, 2.078e-3
-1.293, 2.087e-3
-1.294, 2.097e-3
-1.295, 2.100e-3
-1.296, 2.109e-3
-1.297, 2.121e-3
-1.298, 2.131e-3
-1.299, 2.137e-3
-1.300, 2.143e-3
-1.301, 2.149e-3
-1.302, 2.158e-3
-1.303, 2.171e-3
-1.304, 2.177e-3
-1.305, 2.183e-3
-1.306, 2.192e-3
-1.307, 2.198e-3
-1.308, 2.208e-3
-1.309, 2.217e-3
-1.310, 2.223e-3
-1.311, 2.226e-3
-1.312, 2.238e-3
-1.313, 2.248e-3
-1.314, 2.254e-3
-1.315, 2.263e-3
-1.316, 2.269e-3
-1.317, 2.279e-3
-1.318, 2.291e-3
-1.319, 2.300e-3
-1.320, 2.306e-3
-1.321, 2.312e-3
-1.322, 2.325e-3
-1.323, 2.334e-3
-1.324, 2.343e-3
-1.325, 2.353e-3
-1.326, 2.359e-3
-1.327, 2.365e-3
-1.328, 2.377e-3
-1.329, 2.380e-3
-1.330, 2.390e-3
-1.331, 2.396e-3
-1.332, 2.408e-3
-1.333, 2.417e-3
-1.334, 2.427e-3
-1.335, 2.433e-3
-1.336, 2.442e-3
-1.337, 2.451e-3
-1.338, 2.464e-3
-1.339, 2.473e-3
-1.340, 2.479e-3
-1.341, 2.488e-3
-1.342, 2.497e-3
-1.343, 2.510e-3
-1.344, 2.519e-3
-1.345, 2.525e-3
-1.346, 2.531e-3
-1.347, 2.544e-3
-1.348, 2.556e-3
-1.349, 2.565e-3
-1.350, 2.571e-3
-1.351, 2.578e-3
-1.352, 2.593e-3
-1.353, 2.602e-3
-1.354, 2.612e-3
-1.355, 2.618e-3
-1.356, 2.627e-3
-1.357, 2.636e-3
-1.358, 2.649e-3
-1.359, 2.658e-3
-1.360, 2.667e-3
-1.361, 2.676e-3
-1.362, 2.689e-3
-1.363, 2.701e-3
-1.364, 2.713e-3
-1.365, 2.723e-3
-1.366, 2.729e-3
-1.367, 2.741e-3
-1.368, 2.756e-3
-1.369, 2.763e-3
-1.370, 2.772e-3
-1.371, 2.781e-3
-1.372, 2.793e-3
-1.373, 2.806e-3
-1.374, 2.815e-3
-1.375, 2.824e-3
-1.376, 2.834e-3
-1.377, 2.846e-3
-1.378, 2.858e-3
-1.379, 2.867e-3
-1.380, 2.880e-3
-1.381, 2.892e-3
-1.382, 2.904e-3
-1.383, 2.920e-3
-1.384, 2.929e-3
-1.385, 2.935e-3
-1.386, 2.948e-3
-1.387, 2.960e-3
-1.388, 2.975e-3
-1.389, 2.985e-3
-1.390, 2.994e-3
-1.391, 3.003e-3
-1.392, 3.015e-3
-1.393, 3.031e-3
-1.394, 3.040e-3
-1.395, 3.049e-3
-1.396, 3.065e-3
-1.397, 3.074e-3
-1.398, 3.089e-3
-1.399, 3.102e-3
-1.400, 3.108e-3
-1.401, 3.117e-3
-1.402, 3.133e-3
-1.403, 3.145e-3
-1.404, 3.154e-3
-1.405, 3.167e-3
-1.406, 3.176e-3
-1.407, 3.188e-3
-1.408, 3.204e-3
-1.409, 3.216e-3
-1.410, 3.222e-3
-1.411, 3.234e-3
-1.412, 3.250e-3
-1.413, 3.262e-3
-1.414, 3.274e-3
-1.415, 3.284e-3
-1.416, 3.293e-3
-1.417, 3.305e-3
-1.418, 3.321e-3
-1.419, 3.330e-3
-1.420, 3.342e-3
-1.421, 3.355e-3
-1.422, 3.367e-3
-1.423, 3.382e-3
-1.424, 3.395e-3
-1.425, 3.404e-3
-1.426, 3.413e-3
-1.427, 3.432e-3
-1.428, 3.441e-3
-1.429, 3.447e-3
-1.430, 3.469e-3
-1.431, 3.478e-3
-1.432, 3.484e-3
-1.433, 3.503e-3
-1.434, 3.515e-3
-1.435, 3.521e-3
-1.436, 3.533e-3
-1.437, 3.546e-3
-1.438, 3.561e-3
-1.439, 3.573e-3
-1.440, 3.586e-3
-1.441, 3.595e-3
-1.442, 3.610e-3
-1.443, 3.623e-3
-1.444, 3.635e-3
-1.445, 3.644e-3
-1.446, 3.654e-3
-1.447, 3.669e-3
-1.448, 3.681e-3
-1.449, 3.694e-3
-1.450, 3.703e-3
-1.451, 3.715e-3
-1.452, 3.731e-3
-1.453, 3.749e-3
-1.454, 3.762e-3
-1.455, 3.777e-3
-1.456, 3.786e-3
-1.457, 3.802e-3
-1.458, 3.814e-3
-1.459, 3.826e-3
-1.460, 3.836e-3
-1.461, 3.845e-3
-1.462, 3.860e-3
-1.463, 3.876e-3
-1.464, 3.885e-3
-1.465, 3.897e-3
-1.466, 3.910e-3
-1.467, 3.925e-3
-1.468, 3.940e-3
-1.469, 3.956e-3
-1.470, 3.971e-3
-1.471, 3.980e-3
-1.472, 3.999e-3
-1.473, 4.017e-3
-1.474, 4.030e-3
-1.475, 4.045e-3
-1.476, 4.058e-3
-1.477, 4.076e-3
-1.478, 4.091e-3
-1.479, 4.110e-3
-1.480, 4.122e-3
-1.481, 4.135e-3
-1.482, 4.153e-3
-1.483, 4.169e-3
-1.484, 4.178e-3
-1.485, 4.193e-3
-1.486, 4.202e-3
-1.487, 4.218e-3
-1.488, 4.236e-3
-1.489, 4.252e-3
-1.490, 4.261e-3
-1.491, 4.276e-3
-1.492, 4.295e-3
-1.493, 4.310e-3
-1.494, 4.329e-3
-1.495, 4.344e-3
-1.496, 4.354e-3
-1.497, 4.369e-3
-1.498, 4.387e-3
-1.499, 4.400e-3
-1.500, 4.415e-3
-1.501, 4.431e-3
-1.502, 4.446e-3
-1.503, 4.464e-3
-1.504, 4.480e-3
-1.505, 4.492e-3
-1.506, 4.508e-3
-1.507, 4.526e-3
-1.508, 4.545e-3
-1.509, 4.557e-3
-1.510, 4.579e-3
-1.511, 4.591e-3
-1.512, 4.606e-3
-1.513, 4.631e-3
-1.514, 4.646e-3
-1.515, 4.665e-3
-1.516, 4.683e-3
-1.517, 4.702e-3
-1.518, 4.720e-3
-1.519, 4.742e-3
-1.520, 4.757e-3
-1.521, 4.773e-3
-1.522, 4.791e-3
-1.523, 4.813e-3
-1.524, 4.831e-3
-1.525, 4.847e-3
-1.526, 4.865e-3
-1.527, 4.878e-3
-1.528, 4.902e-3
-1.529, 4.921e-3
-1.530, 4.933e-3
-1.531, 4.949e-3
-1.532, 4.970e-3
-1.533, 4.992e-3
-1.534, 5.010e-3
-1.535, 5.029e-3
-1.536, 5.044e-3
-1.537, 5.069e-3
-1.538, 5.090e-3
-1.539, 5.109e-3
-1.540, 5.127e-3
-1.541, 5.149e-3
-1.542, 5.171e-3
-1.543, 5.186e-3
-1.544, 5.214e-3
-1.545, 5.229e-3
-1.546, 5.245e-3
-1.547, 5.269e-3
-1.548, 5.291e-3
-1.549, 5.315e-3
-1.550, 5.337e-3
-1.551, 5.356e-3
-1.552, 5.380e-3
-1.553, 5.405e-3
-1.554, 5.423e-3
-1.555, 5.445e-3
-1.556, 5.467e-3
-1.557, 5.494e-3
-1.558, 5.519e-3
-1.559, 5.541e-3
-1.560, 5.559e-3
-1.561, 5.581e-3
-1.562, 5.602e-3
-1.563, 5.633e-3
-1.564, 5.658e-3
-1.565, 5.679e-3
-1.566, 5.704e-3
-1.567, 5.738e-3
-1.568, 5.762e-3
-1.569, 5.787e-3
-1.570, 5.812e-3
-1.571, 5.833e-3
-1.572, 5.858e-3
-1.573, 5.883e-3
-1.574, 5.907e-3
-1.575, 5.935e-3
-1.576, 5.957e-3
-1.577, 5.984e-3
-1.578, 6.012e-3
-1.579, 6.037e-3
-1.580, 6.058e-3
-1.581, 6.086e-3
-1.582, 6.111e-3
-1.583, 6.142e-3
-1.584, 6.166e-3
-1.585, 6.188e-3
-1.586, 6.210e-3
-1.587, 6.240e-3
-1.588, 6.268e-3
-1.589, 6.296e-3
-1.590, 6.327e-3
-1.591, 6.351e-3
-1.592, 6.379e-3
-1.593, 6.413e-3
-1.594, 6.444e-3
-1.595, 6.475e-3
-1.596, 6.499e-3
-1.597, 6.527e-3
-1.598, 6.561e-3
-1.599, 6.586e-3
-1.600, 6.570e-3
-1.599, 6.499e-3
-1.598, 6.438e-3
-1.597, 6.388e-3
-1.596, 6.333e-3
-1.595, 6.277e-3
-1.594, 6.225e-3
-1.593, 6.176e-3
-1.592, 6.129e-3
-1.591, 6.077e-3
-1.590, 6.028e-3
-1.589, 5.981e-3
-1.588, 5.938e-3
-1.587, 5.892e-3
-1.586, 5.849e-3
-1.585, 5.799e-3
-1.584, 5.750e-3
-1.583, 5.707e-3
-1.582, 5.667e-3
-1.581, 5.624e-3
-1.580, 5.581e-3
-1.579, 5.537e-3
-1.578, 5.497e-3
-1.577, 5.454e-3
-1.576, 5.414e-3
-1.575, 5.368e-3
-1.574, 5.328e-3
-1.573, 5.291e-3
-1.572, 5.248e-3
-1.571, 5.211e-3
-1.570, 5.167e-3
-1.569, 5.124e-3
-1.568, 5.090e-3
-1.567, 5.056e-3
-1.566, 5.016e-3
-1.565, 4.976e-3
-1.564, 4.939e-3
-1.563, 4.902e-3
-1.562, 4.868e-3
-1.561, 4.831e-3
-1.560, 4.794e-3
-1.559, 4.754e-3
-1.558, 4.723e-3
-1.557, 4.686e-3
-1.556, 4.656e-3
-1.555, 4.619e-3
-1.554, 4.582e-3
-1.553, 4.548e-3
-1.552, 4.514e-3
-1.551, 4.480e-3
-1.550, 4.446e-3
-1.549, 4.409e-3
-1.548, 4.375e-3
-1.547, 4.344e-3
-1.546, 4.313e-3
-1.545, 4.276e-3
-1.544, 4.239e-3
-1.543, 4.212e-3
-1.542, 4.181e-3
-1.541, 4.147e-3
-1.540, 4.116e-3
-1.539, 4.082e-3
-1.538, 4.054e-3
-1.537, 4.027e-3
-1.536, 3.996e-3
-1.535, 3.965e-3
-1.534, 3.934e-3
-1.533, 3.906e-3
-1.532, 3.879e-3
-1.531, 3.854e-3
-1.530, 3.823e-3
-1.529, 3.789e-3
-1.528, 3.765e-3
-1.527, 3.740e-3
-1.526, 3.709e-3
-1.525, 3.678e-3
-1.524, 3.651e-3
-1.523, 3.623e-3
-1.522, 3.598e-3
-1.521, 3.570e-3
-1.520, 3.540e-3
-1.519, 3.512e-3
-1.518, 3.487e-3
-1.517, 3.462e-3
-1.516, 3.435e-3
-1.515, 3.410e-3
-1.514, 3.379e-3
-1.513, 3.355e-3
-1.512, 3.333e-3
-1.511, 3.305e-3
-1.510, 3.278e-3
-1.509, 3.253e-3
-1.508, 3.228e-3
-1.507, 3.204e-3
-1.506, 3.182e-3
-1.505, 3.154e-3
-1.504, 3.130e-3
-1.503, 3.108e-3
-1.502, 3.086e-3
-1.501, 3.062e-3
-1.500, 3.034e-3
-1.499, 3.012e-3
-1.498, 2.988e-3
-1.497, 2.969e-3
-1.496, 2.948e-3
-1.495, 2.920e-3
-1.494, 2.898e-3
-1.493, 2.877e-3
-1.492, 2.855e-3
-1.491, 2.834e-3
-1.490, 2.809e-3
-1.489, 2.787e-3
-1.488, 2.766e-3
-1.487, 2.747e-3
-1.486, 2.726e-3
-1.485, 2.701e-3
-1.484, 2.679e-3
-1.483, 2.661e-3
-1.482, 2.642e-3
-1.481, 2.624e-3
-1.480, 2.602e-3
-1.479, 2.578e-3
-1.478, 2.559e-3
-1.477, 2.544e-3
-1.476, 2.522e-3
-1.475, 2.501e-3
-1.474, 2.479e-3
-1.473, 2.460e-3
-1.472, 2.442e-3
-1.471, 2.423e-3
-1.470, 2.402e-3
-1.469, 2.380e-3
-1.468, 2.365e-3
-1.467, 2.346e-3
-1.466, 2.328e-3
-1.465, 2.306e-3
-1.464, 2.285e-3
-1.463, 2.266e-3
-1.462, 2.254e-3
-1.461, 2.235e-3
-1.460, 2.217e-3
-1.459, 2.198e-3
-1.458, 2.183e-3
-1.457, 2.164e-3
-1.456, 2.149e-3
-1.455, 2.128e-3
-1.454, 2.109e-3
-1.453, 2.094e-3
-1.452, 2.078e-3
-1.451, 2.060e-3
-1.450, 2.038e-3
-1.449, 2.020e-3
-1.448, 2.004e-3
-1.447, 1.989e-3
-1.446, 1.973e-3
-1.445, 1.958e-3
-1.444, 1.939e-3
-1.443, 1.927e-3
-1.442, 1.912e-3
-1.441, 1.896e-3
-1.440, 1.878e-3
-1.439, 1.859e-3
-1.438, 1.844e-3
-1.437, 1.832e-3
-1.436, 1.816e-3
-1.435, 1.798e-3
-1.434, 1.779e-3
-1.433, 1.767e-3
-1.432, 1.754e-3
-1.431, 1.736e-3
-1.430, 1.721e-3
-1.429, 1.705e-3
-1.428, 1.690e-3
-1.427, 1.680e-3
-1.426, 1.665e-3
-1.425, 1.650e-3
-1.424, 1.634e-3
-1.423, 1.619e-3
-1.422, 1.610e-3
-1.421, 1.594e-3
-1.420, 1.576e-3
-1.419, 1.560e-3
-1.418, 1.551e-3
-1.417, 1.539e-3
-1.416, 1.526e-3
-1.415, 1.508e-3
-1.414, 1.492e-3
-1.413, 1.483e-3
-1.412, 1.471e-3
-1.411, 1.458e-3
-1.410, 1.440e-3
-1.409, 1.428e-3
-1.408, 1.415e-3
-1.407, 1.406e-3
-1.406, 1.391e-3
-1.405, 1.375e-3
-1.404, 1.360e-3
-1.403, 1.351e-3
-1.402, 1.338e-3
-1.401, 1.326e-3
-1.400, 1.310e-3
-1.399, 1.295e-3
-1.398, 1.286e-3
-1.397, 1.277e-3
-1.396, 1.264e-3
-1.395, 1.249e-3
-1.394, 1.236e-3
-1.393, 1.224e-3
-1.392, 1.215e-3
-1.391, 1.206e-3
-1.390, 1.190e-3
-1.389, 1.178e-3
-1.388, 1.169e-3
-1.387, 1.159e-3
-1.386, 1.147e-3
-1.385, 1.132e-3
-1.384, 1.119e-3
-1.383, 1.110e-3
-1.382, 1.101e-3
-1.381, 1.092e-3
-1.380, 1.076e-3
-1.379, 1.064e-3
-1.378, 1.055e-3
-1.377, 1.045e-3
-1.376, 1.033e-3
-1.375, 1.021e-3
-1.374, 1.008e-3
-1.373, 9.991e-4
-1.372, 9.929e-4
-1.371, 9.806e-4
-1.370, 9.683e-4
-1.369, 9.590e-4
-1.368, 9.528e-4
-1.367, 9.467e-4
-1.366, 9.374e-4
-1.365, 9.251e-4
-1.364, 9.128e-4
-1.363, 9.035e-4
-1.362, 8.943e-4
-1.361, 8.850e-4
-1.360, 8.727e-4
-1.359, 8.634e-4
-1.358, 8.542e-4
-1.357, 8.480e-4
-1.356, 8.357e-4
-1.355, 8.203e-4
-1.354, 8.079e-4
-1.353, 7.987e-4
-1.352, 7.925e-4
-1.351, 7.802e-4
-1.350, 7.679e-4
-1.349, 7.555e-4
-1.348, 7.494e-4
-1.347, 7.432e-4
-1.346, 7.339e-4
-1.345, 7.247e-4
-1.344, 7.154e-4
-1.343, 7.093e-4
-1.342, 7.031e-4
-1.341, 6.939e-4
-1.340, 6.846e-4
-1.339, 6.754e-4
-1.338, 6.692e-4
-1.337, 6.630e-4
-1.336, 6.538e-4
-1.335, 6.445e-4
-1.334, 6.353e-4
-1.333, 6.291e-4
-1.332, 6.199e-4
-1.331, 6.137e-4
-1.330, 6.014e-4
-1.329, 5.921e-4
-1.328, 5.890e-4
-1.327, 5.829e-4
-1.326, 5.736e-4
-1.325, 5.644e-4
-1.324, 5.551e-4
-1.323, 5.489e-4
-1.322, 5.428e-4
-1.321, 5.366e-4
-1.320, 5.274e-4
-1.319, 5.181e-4
-1.318, 5.089e-4
-1.317, 5.027e-4
-1.316, 4.935e-4
-1.315, 4.873e-4
-1.314, 4.780e-4
-1.313, 4.719e-4
-1.312, 4.688e-4
-1.311, 4.595e-4
-1.310, 4.503e-4
-1.309, 4.441e-4
-1.308, 4.410e-4
-1.307, 4.349e-4
-1.306, 4.287e-4
-1.305, 4.195e-4
-1.304, 4.133e-4
-1.303, 4.071e-4
-1.302, 4.040e-4
-1.301, 3.979e-4
-1.300, 3.886e-4
-1.299, 3.825e-4
-1.298, 3.763e-4
-1.297, 3.732e-4
-1.296, 3.670e-4
-1.295, 3.578e-4
-1.294, 3.516e-4
-1.293, 3.455e-4
-1.292, 3.424e-4
-1.291, 3.362e-4
-1.290, 3.270e-4
-1.289, 3.208e-4
-1.288, 3.146e-4
-1.287, 3.115e-4
-1.286, 3.054e-4
-1.285, 2.961e-4
-1.284, 2.900e-4
-1.283, 2.869e-4
-1.282, 2.838e-4
-1.281, 2.776e-4
-1.280, 2.684e-4
-1.279, 2.622e-4
-1.278, 2.591e-4
-1.277, 2.561e-4
-1.276, 2.499e-4
-1.275, 2.437e-4
-1.274, 2.376e-4
-1.273, 2.345e-4
-1.272, 2.314e-4
-1.271, 2.252e-4
-1.270, 2.191e-4
-1.269, 2.098e-4
-1.268, 2.067e-4
-1.267, 2.067e-4
-1.266, 2.006e-4
-1.265, 1.944e-4
-1.264, 1.882e-4
-1.263, 1.851e-4
-1.262, 1.821e-4
-1.261, 1.759e-4
-1.260, 1.697e-4
-1.259, 1.636e-4
-1.258, 1.605e-4
-1.257, 1.574e-4
-1.256, 1.512e-4
-1.255, 1.451e-4
-1.254, 1.358e-4
-1.253, 1.358e-4
-1.252, 1.358e-4
-1.251, 1.266e-4
-1.250, 1.204e-4
-1.249, 1.142e-4
-1.248, 1.142e-4
-1.247, 1.111e-4
-1.246, 1.081e-4
-1.245, 9.882e-5
-1.244, 9.265e-5
-1.243, 8.957e-5
-1.242, 8.957e-5
-1.241, 8.340e-5
-1.240, 7.723e-5
-1.239, 7.107e-5
-1.238, 6.798e-5
-1.237, 6.490e-5
-1.236, 6.182e-5
-1.235, 5.565e-5
-1.234, 4.949e-5
-1.233, 4.640e-5
-1.232, 4.332e-5
-1.231, 4.024e-5
-1.230, 3.099e-5
-1.229, 2.482e-5
-1.228, 2.174e-5
-1.227, 2.174e-5
-1.226, 1.557e-5
-1.225, 9.405e-6
-1.224, 3.239e-6
-1.223, 1.559e-7
-1.222, 1.559e-7
-1.221, -2.927e-6
-1.220, -1.218e-5
-1.219, -1.526e-5
-1.218, -1.834e-5
-1.217, -2.143e-5
-1.216, -2.759e-5
-1.215, -3.376e-5
-1.214, -4.301e-5
-1.213, -4.609e-5
-1.212, -4.609e-5
-1.211, -5.226e-5
-1.210, -5.842e-5
-1.209, -6.459e-5
-1.208, -6.459e-5
-1.207, -6.767e-5
-1.206, -7.384e-5
-1.205, -7.692e-5
-1.204, -8.309e-5
-1.203, -8.617e-5
-1.202, -8.925e-5
-1.201, -9.542e-5
-1.200, -1.016e-4
-1.199, -1.078e-4
-1.198, -1.108e-4
-1.197, -1.139e-4
-1.196, -1.170e-4
-1.195, -1.232e-4
-1.194, -1.293e-4
-1.193, -1.324e-4
-1.192, -1.355e-4
-1.191, -1.386e-4
-1.190, -1.448e-4
-1.189, -1.509e-4
-1.188, -1.540e-4
-1.187, -1.540e-4
-1.186, -1.602e-4
-1.185, -1.663e-4
-1.184, -1.725e-4
-1.183, -1.787e-4
-1.182, -1.817e-4
-1.181, -1.848e-4
-1.180, -1.941e-4
-1.179, -2.002e-4
-1.178, -2.064e-4
-1.177, -2.095e-4
-1.176, -2.157e-4
-1.175, -2.249e-4
-1.174, -2.311e-4
-1.173, -2.311e-4
-1.172, -2.342e-4
-1.171, -2.372e-4
-1.170, -2.465e-4
-1.169, -2.527e-4
-1.168, -2.588e-4
-1.167, -2.619e-4
-1.166, -2.650e-4
-1.165, -2.742e-4
-1.164, -2.804e-4
-1.163, -2.835e-4
-1.162, -2.897e-4
-1.161, -2.927e-4
-1.160, -3.020e-4
-1.159, -3.112e-4
-1.158, -3.143e-4
-1.157, -3.174e-4
-1.156, -3.236e-4
-1.155, -3.267e-4
-1.154, -3.359e-4
-1.153, -3.390e-4
-1.152, -3.421e-4
-1.151, -3.452e-4
-1.150, -3.544e-4
-1.149, -3.637e-4
-1.148, -3.667e-4
-1.147, -3.729e-4
-1.146, -3.760e-4
-1.145, -3.852e-4
-1.144, -3.914e-4
-1.143, -3.976e-4
-1.142, -4.006e-4
-1.141, -4.068e-4
-1.140, -4.161e-4
-1.139, -4.253e-4
-1.138, -4.284e-4
-1.137, -4.315e-4
-1.136, -4.376e-4
-1.135, -4.469e-4
-1.134, -4.561e-4
-1.133, -4.592e-4
-1.132, -4.654e-4
-1.131, -4.716e-4
-1.130, -4.777e-4
-1.129, -4.870e-4
-1.128, -4.931e-4
-1.127, -4.962e-4
-1.126, -5.055e-4
-1.125, -5.116e-4
-1.124, -5.178e-4
-1.123, -5.209e-4
-1.122, -5.240e-4
-1.121, -5.301e-4
-1.120, -5.394e-4
-1.119, -5.517e-4
-1.118, -5.548e-4
-1.117, -5.579e-4
-1.116, -5.671e-4
-1.115, -5.764e-4
-1.114, -5.856e-4
-1.113, -5.949e-4
-1.112, -5.949e-4
-1.111, -6.041e-4
-1.110, -6.134e-4
-1.109, -6.226e-4
-1.108, -6.257e-4
-1.107, -6.288e-4
-1.106, -6.350e-4
-1.105, -6.442e-4
-1.104, -6.535e-4
-1.103, -6.596e-4
-1.102, -6.627e-4
-1.101, -6.689e-4
-1.100, -6.781e-4
-1.099, -6.874e-4
-1.098, -6.935e-4
-1.097, -6.997e-4
-1.096, -7.028e-4
-1.095, -7.120e-4
-1.094, -7.213e-4
-1.093, -7.244e-4
-1.092, -7.305e-4
-1.091, -7.367e-4
-1.090, -7.460e-4
-1.089, -7.552e-4
-1.088, -7.614e-4
-1.087, -7.675e-4
-1.086, -7.737e-4
-1.085, -7.860e-4
-1.084, -7.953e-4
-1.083, -8.015e-4
-1.082, -8.076e-4
-1.081, -8.138e-4
-1.080, -8.230e-4
-1.079, -8.323e-4
-1.078, -8.385e-4
-1.077, -8.415e-4
-1.076, -8.477e-4
-1.075, -8.569e-4
-1.074, -8.631e-4
-1.073, -8.662e-4
-1.072, -8.724e-4
-1.071, -8.785e-4
-1.070, -8.878e-4
-1.069, -8.939e-4
-1.068, -9.001e-4
-1.067, -9.032e-4
-1.066, -9.094e-4
-1.065, -9.186e-4
-1.064, -9.279e-4
-1.063, -9.309e-4
-1.062, -9.371e-4
-1.061, -9.433e-4
-1.060, -9.494e-4
-1.059, -9.587e-4
-1.058, -9.649e-4
-1.057, -9.679e-4
-1.056, -9.741e-4
-1.055, -9.834e-4
-1.054, -9.926e-4
-1.053, -9.957e-4
-1.052, -9.988e-4
-1.051, -1.005e-3
-1.050, -1.014e-3
-1.049, -1.023e-3
-1.048, -1.027e-3
-1.047, -1.030e-3
-1.046, -1.036e-3
-1.045, -1.045e-3
-1.044, -1.051e-3
-1.043, -1.054e-3
-1.042, -1.067e-3
-1.041, -1.067e-3
-1.040, -1.070e-3
-1.039, -1.076e-3
-1.038, -1.076e-3
-1.037, -1.076e-3
-1.036, -1.082e-3
-1.035, -1.088e-3
-1.034, -1.094e-3
-1.033, -1.101e-3
-1.032, -1.104e-3
-1.031, -1.110e-3
-1.030, -1.119e-3
-1.029, -1.128e-3
-1.028, -1.134e-3
-1.027, -1.141e-3
-1.026, -1.144e-3
-1.025, -1.153e-3
-1.024, -1.156e-3
-1.023, -1.159e-3
-1.022, -1.159e-3
-1.021, -1.159e-3
-1.020, -1.165e-3
-1.019, -1.171e-3
-1.018, -1.178e-3
-1.017, -1.175e-3
-1.016, -1.178e-3
-1.015, -1.187e-3
-1.014, -1.190e-3
-1.013, -1.190e-3
-1.012, -1.193e-3
-1.011, -1.196e-3
-1.010, -1.199e-3
-1.009, -1.202e-3
-1.008, -1.202e-3
-1.007, -1.199e-3
-1.006, -1.202e-3
-1.005, -1.205e-3
-1.004, -1.208e-3
-1.003, -1.205e-3
-1.002, -1.205e-3
-1.001, -1.205e-3
