Dec. 14, 2024   14:20:28
Linear Sweep Voltammetry
File: c:/users/guazh/data/banditlqround7_x0exp59_r20/2024-12-09-exp658\post-regen1-2024-12-14t14_17_14-lsvinphos\post-regen1_lsv_50mvs_efin_-2300mv.bin
Data Source:  Experiment
Instrument Model:  CHI760E
Header: LSV ran at 50 mVs with Efin at -2300mV
Note: 

Init E (V) = -0.6
Final E (V) = -2.3
Scan Rate (V/s) = 0.05
Sample Interval (V) = 0.001
Quiet Time (sec) = 2
Sensitivity (A/V) = 1e-4
Comp R (ohm) = 8.5

Results:

Channel 1:
Ep = -1.978V
ip = 5.803e-4A
Ah = 7.490e-4C

Potential/V, Current/A

-0.600, 2.519e-6
-0.601, 2.617e-6
-0.602, 2.657e-6
-0.603, 2.686e-6
-0.604, 2.714e-6
-0.605, 2.741e-6
-0.606, 2.771e-6
-0.607, 2.797e-6
-0.608, 2.822e-6
-0.609, 2.847e-6
-0.610, 2.876e-6
-0.611, 2.904e-6
-0.612, 2.930e-6
-0.613, 2.954e-6
-0.614, 2.980e-6
-0.615, 3.009e-6
-0.616, 3.037e-6
-0.617, 3.064e-6
-0.618, 3.089e-6
-0.619, 3.115e-6
-0.620, 3.144e-6
-0.621, 3.172e-6
-0.622, 3.199e-6
-0.623, 3.224e-6
-0.624, 3.251e-6
-0.625, 3.279e-6
-0.626, 3.309e-6
-0.627, 3.337e-6
-0.628, 3.364e-6
-0.629, 3.390e-6
-0.630, 3.421e-6
-0.631, 3.453e-6
-0.632, 3.479e-6
-0.633, 3.506e-6
-0.634, 3.535e-6
-0.635, 3.565e-6
-0.636, 3.596e-6
-0.637, 3.624e-6
-0.638, 3.653e-6
-0.639, 3.682e-6
-0.640, 3.715e-6
-0.641, 3.746e-6
-0.642, 3.774e-6
-0.643, 3.803e-6
-0.644, 3.833e-6
-0.645, 3.865e-6
-0.646, 3.897e-6
-0.647, 3.926e-6
-0.648, 3.954e-6
-0.649, 3.985e-6
-0.650, 4.018e-6
-0.651, 4.051e-6
-0.652, 4.080e-6
-0.653, 4.111e-6
-0.654, 4.141e-6
-0.655, 4.173e-6
-0.656, 4.206e-6
-0.657, 4.235e-6
-0.658, 4.265e-6
-0.659, 4.296e-6
-0.660, 4.330e-6
-0.661, 4.363e-6
-0.662, 4.395e-6
-0.663, 4.426e-6
-0.664, 4.458e-6
-0.665, 4.494e-6
-0.666, 4.532e-6
-0.667, 4.562e-6
-0.668, 4.593e-6
-0.669, 4.625e-6
-0.670, 4.660e-6
-0.671, 4.695e-6
-0.672, 4.727e-6
-0.673, 4.760e-6
-0.674, 4.792e-6
-0.675, 4.827e-6
-0.676, 4.862e-6
-0.677, 4.893e-6
-0.678, 4.926e-6
-0.679, 4.960e-6
-0.680, 4.995e-6
-0.681, 5.032e-6
-0.682, 5.064e-6
-0.683, 5.096e-6
-0.684, 5.131e-6
-0.685, 5.164e-6
-0.686, 5.201e-6
-0.687, 5.233e-6
-0.688, 5.266e-6
-0.689, 5.300e-6
-0.690, 5.334e-6
-0.691, 5.371e-6
-0.692, 5.405e-6
-0.693, 5.435e-6
-0.694, 5.469e-6
-0.695, 5.505e-6
-0.696, 5.542e-6
-0.697, 5.574e-6
-0.698, 5.607e-6
-0.699, 5.640e-6
-0.700, 5.674e-6
-0.701, 5.708e-6
-0.702, 5.742e-6
-0.703, 5.774e-6
-0.704, 5.808e-6
-0.705, 5.843e-6
-0.706, 5.877e-6
-0.707, 5.907e-6
-0.708, 5.937e-6
-0.709, 5.968e-6
-0.710, 6.003e-6
-0.711, 6.038e-6
-0.712, 6.068e-6
-0.713, 6.100e-6
-0.714, 6.130e-6
-0.715, 6.162e-6
-0.716, 6.196e-6
-0.717, 6.224e-6
-0.718, 6.253e-6
-0.719, 6.282e-6
-0.720, 6.315e-6
-0.721, 6.348e-6
-0.722, 6.377e-6
-0.723, 6.407e-6
-0.724, 6.436e-6
-0.725, 6.467e-6
-0.726, 6.497e-6
-0.727, 6.525e-6
-0.728, 6.552e-6
-0.729, 6.581e-6
-0.730, 6.613e-6
-0.731, 6.642e-6
-0.732, 6.668e-6
-0.733, 6.694e-6
-0.734, 6.720e-6
-0.735, 6.747e-6
-0.736, 6.776e-6
-0.737, 6.803e-6
-0.738, 6.827e-6
-0.739, 6.852e-6
-0.740, 6.878e-6
-0.741, 6.904e-6
-0.742, 6.928e-6
-0.743, 6.951e-6
-0.744, 6.974e-6
-0.745, 7.000e-6
-0.746, 7.023e-6
-0.747, 7.044e-6
-0.748, 7.065e-6
-0.749, 7.087e-6
-0.750, 7.111e-6
-0.751, 7.132e-6
-0.752, 7.153e-6
-0.753, 7.170e-6
-0.754, 7.189e-6
-0.755, 7.212e-6
-0.756, 7.233e-6
-0.757, 7.249e-6
-0.758, 7.266e-6
-0.759, 7.283e-6
-0.760, 7.300e-6
-0.761, 7.321e-6
-0.762, 7.335e-6
-0.763, 7.350e-6
-0.764, 7.365e-6
-0.765, 7.380e-6
-0.766, 7.398e-6
-0.767, 7.411e-6
-0.768, 7.425e-6
-0.769, 7.439e-6
-0.770, 7.454e-6
-0.771, 7.468e-6
-0.772, 7.480e-6
-0.773, 7.489e-6
-0.774, 7.501e-6
-0.775, 7.512e-6
-0.776, 7.526e-6
-0.777, 7.534e-6
-0.778, 7.542e-6
-0.779, 7.550e-6
-0.780, 7.562e-6
-0.781, 7.572e-6
-0.782, 7.581e-6
-0.783, 7.585e-6
-0.784, 7.591e-6
-0.785, 7.602e-6
-0.786, 7.610e-6
-0.787, 7.614e-6
-0.788, 7.619e-6
-0.789, 7.623e-6
-0.790, 7.629e-6
-0.791, 7.636e-6
-0.792, 7.639e-6
-0.793, 7.642e-6
-0.794, 7.645e-6
-0.795, 7.650e-6
-0.796, 7.655e-6
-0.797, 7.655e-6
-0.798, 7.656e-6
-0.799, 7.657e-6
-0.800, 7.660e-6
-0.801, 7.664e-6
-0.802, 7.664e-6
-0.803, 7.663e-6
-0.804, 7.661e-6
-0.805, 7.663e-6
-0.806, 7.665e-6
-0.807, 7.663e-6
-0.808, 7.661e-6
-0.809, 7.660e-6
-0.810, 7.659e-6
-0.811, 7.660e-6
-0.812, 7.657e-6
-0.813, 7.653e-6
-0.814, 7.650e-6
-0.815, 7.648e-6
-0.816, 7.648e-6
-0.817, 7.643e-6
-0.818, 7.637e-6
-0.819, 7.638e-6
-0.820, 7.637e-6
-0.821, 7.633e-6
-0.822, 7.629e-6
-0.823, 7.620e-6
-0.824, 7.615e-6
-0.825, 7.613e-6
-0.826, 7.609e-6
-0.827, 7.603e-6
-0.828, 7.596e-6
-0.829, 7.590e-6
-0.830, 7.586e-6
-0.831, 7.582e-6
-0.832, 7.576e-6
-0.833, 7.570e-6
-0.834, 7.561e-6
-0.835, 7.557e-6
-0.836, 7.553e-6
-0.837, 7.545e-6
-0.838, 7.537e-6
-0.839, 7.530e-6
-0.840, 7.525e-6
-0.841, 7.522e-6
-0.842, 7.513e-6
-0.843, 7.505e-6
-0.844, 7.498e-6
-0.845, 7.493e-6
-0.846, 7.488e-6
-0.847, 7.479e-6
-0.848, 7.471e-6
-0.849, 7.464e-6
-0.850, 7.455e-6
-0.851, 7.453e-6
-0.852, 7.444e-6
-0.853, 7.435e-6
-0.854, 7.427e-6
-0.855, 7.421e-6
-0.856, 7.415e-6
-0.857, 7.407e-6
-0.858, 7.400e-6
-0.859, 7.393e-6
-0.860, 7.386e-6
-0.861, 7.381e-6
-0.862, 7.373e-6
-0.863, 7.365e-6
-0.864, 7.358e-6
-0.865, 7.352e-6
-0.866, 7.347e-6
-0.867, 7.338e-6
-0.868, 7.330e-6
-0.869, 7.323e-6
-0.870, 7.319e-6
-0.871, 7.314e-6
-0.872, 7.306e-6
-0.873, 7.298e-6
-0.874, 7.290e-6
-0.875, 7.284e-6
-0.876, 7.281e-6
-0.877, 7.273e-6
-0.878, 7.266e-6
-0.879, 7.258e-6
-0.880, 7.253e-6
-0.881, 7.249e-6
-0.882, 7.242e-6
-0.883, 7.235e-6
-0.884, 7.229e-6
-0.885, 7.223e-6
-0.886, 7.220e-6
-0.887, 7.212e-6
-0.888, 7.206e-6
-0.889, 7.200e-6
-0.890, 7.195e-6
-0.891, 7.191e-6
-0.892, 7.185e-6
-0.893, 7.179e-6
-0.894, 7.173e-6
-0.895, 7.167e-6
-0.896, 7.166e-6
-0.897, 7.160e-6
-0.898, 7.153e-6
-0.899, 7.147e-6
-0.900, 7.144e-6
-0.901, 7.141e-6
-0.902, 7.135e-6
-0.903, 7.129e-6
-0.904, 7.124e-6
-0.905, 7.122e-6
-0.906, 7.119e-6
-0.907, 7.113e-6
-0.908, 7.107e-6
-0.909, 7.104e-6
-0.910, 7.100e-6
-0.911, 7.099e-6
-0.912, 7.094e-6
-0.913, 7.089e-6
-0.914, 7.084e-6
-0.915, 7.082e-6
-0.916, 7.081e-6
-0.917, 7.076e-6
-0.918, 7.072e-6
-0.919, 7.066e-6
-0.920, 7.066e-6
-0.921, 7.066e-6
-0.922, 7.061e-6
-0.923, 7.057e-6
-0.924, 7.053e-6
-0.925, 7.051e-6
-0.926, 7.051e-6
-0.927, 7.048e-6
-0.928, 7.044e-6
-0.929, 7.040e-6
-0.930, 7.040e-6
-0.931, 7.040e-6
-0.932, 7.038e-6
-0.933, 7.033e-6
-0.934, 7.033e-6
-0.935, 7.032e-6
-0.936, 7.033e-6
-0.937, 7.030e-6
-0.938, 7.026e-6
-0.939, 7.025e-6
-0.940, 7.025e-6
-0.941, 7.025e-6
-0.942, 7.024e-6
-0.943, 7.022e-6
-0.944, 7.019e-6
-0.945, 7.019e-6
-0.946, 7.020e-6
-0.947, 7.020e-6
-0.948, 7.018e-6
-0.949, 7.015e-6
-0.950, 7.017e-6
-0.951, 7.018e-6
-0.952, 7.016e-6
-0.953, 7.014e-6
-0.954, 7.013e-6
-0.955, 7.014e-6
-0.956, 7.016e-6
-0.957, 7.015e-6
-0.958, 7.014e-6
-0.959, 7.012e-6
-0.960, 7.014e-6
-0.961, 7.017e-6
-0.962, 7.017e-6
-0.963, 7.016e-6
-0.964, 7.014e-6
-0.965, 7.016e-6
-0.966, 7.020e-6
-0.967, 7.018e-6
-0.968, 7.017e-6
-0.969, 7.017e-6
-0.970, 7.018e-6
-0.971, 7.022e-6
-0.972, 7.021e-6
-0.973, 7.023e-6
-0.974, 7.022e-6
-0.975, 7.024e-6
-0.976, 7.026e-6
-0.977, 7.027e-6
-0.978, 7.026e-6
-0.979, 7.026e-6
-0.980, 7.029e-6
-0.981, 7.032e-6
-0.982, 7.032e-6
-0.983, 7.031e-6
-0.984, 7.031e-6
-0.985, 7.035e-6
-0.986, 7.039e-6
-0.987, 7.039e-6
-0.988, 7.039e-6
-0.989, 7.039e-6
-0.990, 7.042e-6
-0.991, 7.046e-6
-0.992, 7.047e-6
-0.993, 7.047e-6
-0.994, 7.045e-6
-0.995, 7.050e-6
-0.996, 7.055e-6
-0.997, 7.055e-6
-0.998, 7.055e-6
-0.999, 7.055e-6
-1.000, 7.059e-6
-1.001, 7.064e-6
-1.002, 7.065e-6
-1.003, 7.065e-6
-1.004, 7.066e-6
-1.005, 7.069e-6
-1.006, 7.073e-6
-1.007, 7.075e-6
-1.008, 7.076e-6
-1.009, 7.076e-6
-1.010, 7.080e-6
-1.011, 7.084e-6
-1.012, 7.086e-6
-1.013, 7.086e-6
-1.014, 7.087e-6
-1.015, 7.090e-6
-1.016, 7.094e-6
-1.017, 7.098e-6
-1.018, 7.097e-6
-1.019, 7.099e-6
-1.020, 7.103e-6
-1.021, 7.107e-6
-1.022, 7.110e-6
-1.023, 7.110e-6
-1.024, 7.113e-6
-1.025, 7.117e-6
-1.026, 7.121e-6
-1.027, 7.124e-6
-1.028, 7.125e-6
-1.029, 7.126e-6
-1.030, 7.131e-6
-1.031, 7.134e-6
-1.032, 7.137e-6
-1.033, 7.140e-6
-1.034, 7.142e-6
-1.035, 7.145e-6
-1.036, 7.151e-6
-1.037, 7.153e-6
-1.038, 7.155e-6
-1.039, 7.156e-6
-1.040, 7.160e-6
-1.041, 7.167e-6
-1.042, 7.169e-6
-1.043, 7.170e-6
-1.044, 7.173e-6
-1.045, 7.177e-6
-1.046, 7.183e-6
-1.047, 7.186e-6
-1.048, 7.189e-6
-1.049, 7.193e-6
-1.050, 7.196e-6
-1.051, 7.203e-6
-1.052, 7.206e-6
-1.053, 7.209e-6
-1.054, 7.212e-6
-1.055, 7.216e-6
-1.056, 7.226e-6
-1.057, 7.229e-6
-1.058, 7.230e-6
-1.059, 7.232e-6
-1.060, 7.239e-6
-1.061, 7.245e-6
-1.062, 7.249e-6
-1.063, 7.253e-6
-1.064, 7.257e-6
-1.065, 7.263e-6
-1.066, 7.268e-6
-1.067, 7.274e-6
-1.068, 7.277e-6
-1.069, 7.280e-6
-1.070, 7.288e-6
-1.071, 7.295e-6
-1.072, 7.300e-6
-1.073, 7.304e-6
-1.074, 7.308e-6
-1.075, 7.317e-6
-1.076, 7.325e-6
-1.077, 7.329e-6
-1.078, 7.335e-6
-1.079, 7.339e-6
-1.080, 7.345e-6
-1.081, 7.354e-6
-1.082, 7.359e-6
-1.083, 7.364e-6
-1.084, 7.368e-6
-1.085, 7.374e-6
-1.086, 7.382e-6
-1.087, 7.388e-6
-1.088, 7.392e-6
-1.089, 7.397e-6
-1.090, 7.404e-6
-1.091, 7.411e-6
-1.092, 7.417e-6
-1.093, 7.421e-6
-1.094, 7.426e-6
-1.095, 7.433e-6
-1.096, 7.442e-6
-1.097, 7.446e-6
-1.098, 7.449e-6
-1.099, 7.454e-6
-1.100, 7.461e-6
-1.101, 7.468e-6
-1.102, 7.473e-6
-1.103, 7.476e-6
-1.104, 7.482e-6
-1.105, 7.488e-6
-1.106, 7.494e-6
-1.107, 7.500e-6
-1.108, 7.503e-6
-1.109, 7.507e-6
-1.110, 7.512e-6
-1.111, 7.519e-6
-1.112, 7.523e-6
-1.113, 7.526e-6
-1.114, 7.530e-6
-1.115, 7.537e-6
-1.116, 7.542e-6
-1.117, 7.544e-6
-1.118, 7.548e-6
-1.119, 7.550e-6
-1.120, 7.556e-6
-1.121, 7.561e-6
-1.122, 7.564e-6
-1.123, 7.567e-6
-1.124, 7.570e-6
-1.125, 7.573e-6
-1.126, 7.581e-6
-1.127, 7.583e-6
-1.128, 7.584e-6
-1.129, 7.588e-6
-1.130, 7.591e-6
-1.131, 7.596e-6
-1.132, 7.597e-6
-1.133, 7.600e-6
-1.134, 7.603e-6
-1.135, 7.605e-6
-1.136, 7.610e-6
-1.137, 7.613e-6
-1.138, 7.613e-6
-1.139, 7.617e-6
-1.140, 7.620e-6
-1.141, 7.624e-6
-1.142, 7.627e-6
-1.143, 7.627e-6
-1.144, 7.630e-6
-1.145, 7.633e-6
-1.146, 7.637e-6
-1.147, 7.639e-6
-1.148, 7.640e-6
-1.149, 7.641e-6
-1.150, 7.645e-6
-1.151, 7.649e-6
-1.152, 7.651e-6
-1.153, 7.652e-6
-1.154, 7.652e-6
-1.155, 7.658e-6
-1.156, 7.661e-6
-1.157, 7.663e-6
-1.158, 7.664e-6
-1.159, 7.666e-6
-1.160, 7.670e-6
-1.161, 7.675e-6
-1.162, 7.677e-6
-1.163, 7.678e-6
-1.164, 7.679e-6
-1.165, 7.683e-6
-1.166, 7.688e-6
-1.167, 7.689e-6
-1.168, 7.691e-6
-1.169, 7.694e-6
-1.170, 7.696e-6
-1.171, 7.702e-6
-1.172, 7.705e-6
-1.173, 7.706e-6
-1.174, 7.709e-6
-1.175, 7.712e-6
-1.176, 7.719e-6
-1.177, 7.722e-6
-1.178, 7.724e-6
-1.179, 7.727e-6
-1.180, 7.732e-6
-1.181, 7.737e-6
-1.182, 7.740e-6
-1.183, 7.743e-6
-1.184, 7.746e-6
-1.185, 7.750e-6
-1.186, 7.756e-6
-1.187, 7.759e-6
-1.188, 7.762e-6
-1.189, 7.765e-6
-1.190, 7.770e-6
-1.191, 7.777e-6
-1.192, 7.780e-6
-1.193, 7.783e-6
-1.194, 7.786e-6
-1.195, 7.792e-6
-1.196, 7.799e-6
-1.197, 7.802e-6
-1.198, 7.806e-6
-1.199, 7.810e-6
-1.200, 7.815e-6
-1.201, 7.824e-6
-1.202, 7.828e-6
-1.203, 7.832e-6
-1.204, 7.837e-6
-1.205, 7.843e-6
-1.206, 7.851e-6
-1.207, 7.855e-6
-1.208, 7.858e-6
-1.209, 7.863e-6
-1.210, 7.871e-6
-1.211, 7.878e-6
-1.212, 7.883e-6
-1.213, 7.887e-6
-1.214, 7.891e-6
-1.215, 7.896e-6
-1.216, 7.906e-6
-1.217, 7.911e-6
-1.218, 7.914e-6
-1.219, 7.919e-6
-1.220, 7.926e-6
-1.221, 7.934e-6
-1.222, 7.940e-6
-1.223, 7.943e-6
-1.224, 7.948e-6
-1.225, 7.955e-6
-1.226, 7.962e-6
-1.227, 7.969e-6
-1.228, 7.972e-6
-1.229, 7.982e-6
-1.230, 7.987e-6
-1.231, 7.993e-6
-1.232, 7.999e-6
-1.233, 8.003e-6
-1.234, 8.006e-6
-1.235, 8.014e-6
-1.236, 8.021e-6
-1.237, 8.025e-6
-1.238, 8.029e-6
-1.239, 8.032e-6
-1.240, 8.040e-6
-1.241, 8.048e-6
-1.242, 8.053e-6
-1.243, 8.057e-6
-1.244, 8.063e-6
-1.245, 8.070e-6
-1.246, 8.079e-6
-1.247, 8.083e-6
-1.248, 8.088e-6
-1.249, 8.091e-6
-1.250, 8.098e-6
-1.251, 8.104e-6
-1.252, 8.109e-6
-1.253, 8.111e-6
-1.254, 8.117e-6
-1.255, 8.121e-6
-1.256, 8.128e-6
-1.257, 8.132e-6
-1.258, 8.132e-6
-1.259, 8.136e-6
-1.260, 8.141e-6
-1.261, 8.146e-6
-1.262, 8.151e-6
-1.263, 8.154e-6
-1.264, 8.158e-6
-1.265, 8.163e-6
-1.266, 8.169e-6
-1.267, 8.174e-6
-1.268, 8.178e-6
-1.269, 8.179e-6
-1.270, 8.185e-6
-1.271, 8.191e-6
-1.272, 8.196e-6
-1.273, 8.199e-6
-1.274, 8.201e-6
-1.275, 8.208e-6
-1.276, 8.215e-6
-1.277, 8.217e-6
-1.278, 8.220e-6
-1.279, 8.223e-6
-1.280, 8.230e-6
-1.281, 8.236e-6
-1.282, 8.239e-6
-1.283, 8.242e-6
-1.284, 8.244e-6
-1.285, 8.247e-6
-1.286, 8.253e-6
-1.287, 8.256e-6
-1.288, 8.259e-6
-1.289, 8.261e-6
-1.290, 8.264e-6
-1.291, 8.272e-6
-1.292, 8.276e-6
-1.293, 8.279e-6
-1.294, 8.284e-6
-1.295, 8.288e-6
-1.296, 8.295e-6
-1.297, 8.300e-6
-1.298, 8.301e-6
-1.299, 8.303e-6
-1.300, 8.309e-6
-1.301, 8.315e-6
-1.302, 8.321e-6
-1.303, 8.322e-6
-1.304, 8.322e-6
-1.305, 8.328e-6
-1.306, 8.333e-6
-1.307, 8.338e-6
-1.308, 8.341e-6
-1.309, 8.344e-6
-1.310, 8.351e-6
-1.311, 8.358e-6
-1.312, 8.363e-6
-1.313, 8.368e-6
-1.314, 8.371e-6
-1.315, 8.377e-6
-1.316, 8.384e-6
-1.317, 8.389e-6
-1.318, 8.395e-6
-1.319, 8.402e-6
-1.320, 8.407e-6
-1.321, 8.416e-6
-1.322, 8.418e-6
-1.323, 8.423e-6
-1.324, 8.431e-6
-1.325, 8.437e-6
-1.326, 8.447e-6
-1.327, 8.455e-6
-1.328, 8.460e-6
-1.329, 8.469e-6
-1.330, 8.476e-6
-1.331, 8.487e-6
-1.332, 8.496e-6
-1.333, 8.503e-6
-1.334, 8.511e-6
-1.335, 8.520e-6
-1.336, 8.532e-6
-1.337, 8.542e-6
-1.338, 8.549e-6
-1.339, 8.557e-6
-1.340, 8.568e-6
-1.341, 8.580e-6
-1.342, 8.591e-6
-1.343, 8.599e-6
-1.344, 8.608e-6
-1.345, 8.618e-6
-1.346, 8.630e-6
-1.347, 8.639e-6
-1.348, 8.649e-6
-1.349, 8.658e-6
-1.350, 8.671e-6
-1.351, 8.686e-6
-1.352, 8.698e-6
-1.353, 8.710e-6
-1.354, 8.720e-6
-1.355, 8.733e-6
-1.356, 8.749e-6
-1.357, 8.762e-6
-1.358, 8.774e-6
-1.359, 8.784e-6
-1.360, 8.800e-6
-1.361, 8.815e-6
-1.362, 8.828e-6
-1.363, 8.839e-6
-1.364, 8.853e-6
-1.365, 8.867e-6
-1.366, 8.884e-6
-1.367, 8.898e-6
-1.368, 8.911e-6
-1.369, 8.925e-6
-1.370, 8.940e-6
-1.371, 8.958e-6
-1.372, 8.974e-6
-1.373, 8.987e-6
-1.374, 9.003e-6
-1.375, 9.018e-6
-1.376, 9.038e-6
-1.377, 9.054e-6
-1.378, 9.069e-6
-1.379, 9.084e-6
-1.380, 9.102e-6
-1.381, 9.120e-6
-1.382, 9.140e-6
-1.383, 9.155e-6
-1.384, 9.171e-6
-1.385, 9.191e-6
-1.386, 9.210e-6
-1.387, 9.228e-6
-1.388, 9.244e-6
-1.389, 9.262e-6
-1.390, 9.283e-6
-1.391, 9.303e-6
-1.392, 9.322e-6
-1.393, 9.339e-6
-1.394, 9.357e-6
-1.395, 9.377e-6
-1.396, 9.399e-6
-1.397, 9.416e-6
-1.398, 9.436e-6
-1.399, 9.453e-6
-1.400, 9.474e-6
-1.401, 9.499e-6
-1.402, 9.520e-6
-1.403, 9.538e-6
-1.404, 9.558e-6
-1.405, 9.581e-6
-1.406, 9.605e-6
-1.407, 9.625e-6
-1.408, 9.644e-6
-1.409, 9.666e-6
-1.410, 9.689e-6
-1.411, 9.714e-6
-1.412, 9.735e-6
-1.413, 9.755e-6
-1.414, 9.778e-6
-1.415, 9.802e-6
-1.416, 9.827e-6
-1.417, 9.850e-6
-1.418, 9.869e-6
-1.419, 9.892e-6
-1.420, 9.917e-6
-1.421, 9.945e-6
-1.422, 9.969e-6
-1.423, 9.990e-6
-1.424, 1.001e-5
-1.425, 1.004e-5
-1.426, 1.007e-5
-1.427, 1.009e-5
-1.428, 1.011e-5
-1.429, 1.014e-5
-1.430, 1.016e-5
-1.431, 1.019e-5
-1.432, 1.021e-5
-1.433, 1.024e-5
-1.434, 1.027e-5
-1.435, 1.029e-5
-1.436, 1.033e-5
-1.437, 1.035e-5
-1.438, 1.038e-5
-1.439, 1.040e-5
-1.440, 1.043e-5
-1.441, 1.046e-5
-1.442, 1.049e-5
-1.443, 1.052e-5
-1.444, 1.054e-5
-1.445, 1.057e-5
-1.446, 1.061e-5
-1.447, 1.064e-5
-1.448, 1.067e-5
-1.449, 1.070e-5
-1.450, 1.073e-5
-1.451, 1.076e-5
-1.452, 1.079e-5
-1.453, 1.082e-5
-1.454, 1.085e-5
-1.455, 1.089e-5
-1.456, 1.093e-5
-1.457, 1.096e-5
-1.458, 1.099e-5
-1.459, 1.102e-5
-1.460, 1.106e-5
-1.461, 1.109e-5
-1.462, 1.113e-5
-1.463, 1.116e-5
-1.464, 1.119e-5
-1.465, 1.123e-5
-1.466, 1.127e-5
-1.467, 1.130e-5
-1.468, 1.134e-5
-1.469, 1.137e-5
-1.470, 1.141e-5
-1.471, 1.145e-5
-1.472, 1.149e-5
-1.473, 1.153e-5
-1.474, 1.156e-5
-1.475, 1.160e-5
-1.476, 1.165e-5
-1.477, 1.169e-5
-1.478, 1.173e-5
-1.479, 1.177e-5
-1.480, 1.181e-5
-1.481, 1.186e-5
-1.482, 1.190e-5
-1.483, 1.194e-5
-1.484, 1.198e-5
-1.485, 1.202e-5
-1.486, 1.206e-5
-1.487, 1.210e-5
-1.488, 1.214e-5
-1.489, 1.218e-5
-1.490, 1.223e-5
-1.491, 1.228e-5
-1.492, 1.233e-5
-1.493, 1.237e-5
-1.494, 1.242e-5
-1.495, 1.247e-5
-1.496, 1.252e-5
-1.497, 1.257e-5
-1.498, 1.262e-5
-1.499, 1.267e-5
-1.500, 1.272e-5
-1.501, 1.278e-5
-1.502, 1.283e-5
-1.503, 1.288e-5
-1.504, 1.294e-5
-1.505, 1.299e-5
-1.506, 1.305e-5
-1.507, 1.311e-5
-1.508, 1.316e-5
-1.509, 1.321e-5
-1.510, 1.327e-5
-1.511, 1.333e-5
-1.512, 1.339e-5
-1.513, 1.345e-5
-1.514, 1.351e-5
-1.515, 1.357e-5
-1.516, 1.363e-5
-1.517, 1.370e-5
-1.518, 1.376e-5
-1.519, 1.382e-5
-1.520, 1.389e-5
-1.521, 1.396e-5
-1.522, 1.402e-5
-1.523, 1.408e-5
-1.524, 1.415e-5
-1.525, 1.422e-5
-1.526, 1.429e-5
-1.527, 1.437e-5
-1.528, 1.444e-5
-1.529, 1.451e-5
-1.530, 1.458e-5
-1.531, 1.466e-5
-1.532, 1.474e-5
-1.533, 1.481e-5
-1.534, 1.489e-5
-1.535, 1.497e-5
-1.536, 1.506e-5
-1.537, 1.514e-5
-1.538, 1.522e-5
-1.539, 1.530e-5
-1.540, 1.539e-5
-1.541, 1.548e-5
-1.542, 1.557e-5
-1.543, 1.565e-5
-1.544, 1.574e-5
-1.545, 1.583e-5
-1.546, 1.593e-5
-1.547, 1.602e-5
-1.548, 1.611e-5
-1.549, 1.621e-5
-1.550, 1.630e-5
-1.551, 1.640e-5
-1.552, 1.651e-5
-1.553, 1.660e-5
-1.554, 1.671e-5
-1.555, 1.682e-5
-1.556, 1.692e-5
-1.557, 1.703e-5
-1.558, 1.714e-5
-1.559, 1.725e-5
-1.560, 1.736e-5
-1.561, 1.749e-5
-1.562, 1.761e-5
-1.563, 1.773e-5
-1.564, 1.785e-5
-1.565, 1.797e-5
-1.566, 1.810e-5
-1.567, 1.823e-5
-1.568, 1.835e-5
-1.569, 1.848e-5
-1.570, 1.862e-5
-1.571, 1.876e-5
-1.572, 1.890e-5
-1.573, 1.904e-5
-1.574, 1.918e-5
-1.575, 1.933e-5
-1.576, 1.948e-5
-1.577, 1.963e-5
-1.578, 1.978e-5
-1.579, 1.994e-5
-1.580, 2.010e-5
-1.581, 2.027e-5
-1.582, 2.045e-5
-1.583, 2.061e-5
-1.584, 2.078e-5
-1.585, 2.096e-5
-1.586, 2.115e-5
-1.587, 2.134e-5
-1.588, 2.152e-5
-1.589, 2.170e-5
-1.590, 2.190e-5
-1.591, 2.210e-5
-1.592, 2.230e-5
-1.593, 2.250e-5
-1.594, 2.271e-5
-1.595, 2.293e-5
-1.596, 2.315e-5
-1.597, 2.337e-5
-1.598, 2.360e-5
-1.599, 2.383e-5
-1.600, 2.407e-5
-1.601, 2.431e-5
-1.602, 2.455e-5
-1.603, 2.480e-5
-1.604, 2.506e-5
-1.605, 2.532e-5
-1.606, 2.558e-5
-1.607, 2.585e-5
-1.608, 2.611e-5
-1.609, 2.639e-5
-1.610, 2.667e-5
-1.611, 2.697e-5
-1.612, 2.727e-5
-1.613, 2.757e-5
-1.614, 2.787e-5
-1.615, 2.817e-5
-1.616, 2.849e-5
-1.617, 2.881e-5
-1.618, 2.914e-5
-1.619, 2.947e-5
-1.620, 2.981e-5
-1.621, 3.015e-5
-1.622, 3.051e-5
-1.623, 3.087e-5
-1.624, 3.123e-5
-1.625, 3.161e-5
-1.626, 3.200e-5
-1.627, 3.239e-5
-1.628, 3.277e-5
-1.629, 3.317e-5
-1.630, 3.358e-5
-1.631, 3.399e-5
-1.632, 3.441e-5
-1.633, 3.483e-5
-1.634, 3.527e-5
-1.635, 3.571e-5
-1.636, 3.616e-5
-1.637, 3.662e-5
-1.638, 3.708e-5
-1.639, 3.756e-5
-1.640, 3.804e-5
-1.641, 3.854e-5
-1.642, 3.905e-5
-1.643, 3.957e-5
-1.644, 4.008e-5
-1.645, 4.060e-5
-1.646, 4.114e-5
-1.647, 4.167e-5
-1.648, 4.222e-5
-1.649, 4.277e-5
-1.650, 4.333e-5
-1.651, 4.389e-5
-1.652, 4.447e-5
-1.653, 4.506e-5
-1.654, 4.566e-5
-1.655, 4.625e-5
-1.656, 4.687e-5
-1.657, 4.749e-5
-1.658, 4.813e-5
-1.659, 4.877e-5
-1.660, 4.941e-5
-1.661, 5.007e-5
-1.662, 5.074e-5
-1.663, 5.141e-5
-1.664, 5.209e-5
-1.665, 5.278e-5
-1.666, 5.348e-5
-1.667, 5.418e-5
-1.668, 5.490e-5
-1.669, 5.563e-5
-1.670, 5.636e-5
-1.671, 5.709e-5
-1.672, 5.784e-5
-1.673, 5.860e-5
-1.674, 5.936e-5
-1.675, 6.013e-5
-1.676, 6.092e-5
-1.677, 6.171e-5
-1.678, 6.251e-5
-1.679, 6.331e-5
-1.680, 6.414e-5
-1.681, 6.496e-5
-1.682, 6.579e-5
-1.683, 6.665e-5
-1.684, 6.749e-5
-1.685, 6.834e-5
-1.686, 6.920e-5
-1.687, 7.008e-5
-1.688, 7.096e-5
-1.689, 7.186e-5
-1.690, 7.276e-5
-1.691, 7.367e-5
-1.692, 7.458e-5
-1.693, 7.548e-5
-1.694, 7.640e-5
-1.695, 7.734e-5
-1.696, 7.829e-5
-1.697, 7.925e-5
-1.698, 8.020e-5
-1.699, 8.116e-5
-1.700, 8.213e-5
-1.701, 8.310e-5
-1.702, 8.410e-5
-1.703, 8.509e-5
-1.704, 8.607e-5
-1.705, 8.707e-5
-1.706, 8.809e-5
-1.707, 8.912e-5
-1.708, 9.015e-5
-1.709, 9.117e-5
-1.710, 9.220e-5
-1.711, 9.325e-5
-1.712, 9.431e-5
-1.713, 9.538e-5
-1.714, 9.645e-5
-1.715, 9.753e-5
-1.716, 9.861e-5
-1.717, 9.970e-5
-1.718, 1.008e-4
-1.719, 1.019e-4
-1.720, 1.030e-4
-1.721, 1.041e-4
-1.722, 1.053e-4
-1.723, 1.064e-4
-1.724, 1.075e-4
-1.725, 1.087e-4
-1.726, 1.098e-4
-1.727, 1.110e-4
-1.728, 1.122e-4
-1.729, 1.133e-4
-1.730, 1.145e-4
-1.731, 1.157e-4
-1.732, 1.169e-4
-1.733, 1.181e-4
-1.734, 1.193e-4
-1.735, 1.205e-4
-1.736, 1.217e-4
-1.737, 1.229e-4
-1.738, 1.242e-4
-1.739, 1.254e-4
-1.740, 1.266e-4
-1.741, 1.279e-4
-1.742, 1.291e-4
-1.743, 1.304e-4
-1.744, 1.316e-4
-1.745, 1.329e-4
-1.746, 1.342e-4
-1.747, 1.355e-4
-1.748, 1.368e-4
-1.749, 1.380e-4
-1.750, 1.393e-4
-1.751, 1.406e-4
-1.752, 1.419e-4
-1.753, 1.433e-4
-1.754, 1.445e-4
-1.755, 1.459e-4
-1.756, 1.472e-4
-1.757, 1.485e-4
-1.758, 1.499e-4
-1.759, 1.512e-4
-1.760, 1.525e-4
-1.761, 1.539e-4
-1.762, 1.552e-4
-1.763, 1.565e-4
-1.764, 1.579e-4
-1.765, 1.592e-4
-1.766, 1.606e-4
-1.767, 1.620e-4
-1.768, 1.633e-4
-1.769, 1.647e-4
-1.770, 1.661e-4
-1.771, 1.674e-4
-1.772, 1.688e-4
-1.773, 1.701e-4
-1.774, 1.715e-4
-1.775, 1.729e-4
-1.776, 1.743e-4
-1.777, 1.757e-4
-1.778, 1.770e-4
-1.779, 1.784e-4
-1.780, 1.798e-4
-1.781, 1.811e-4
-1.782, 1.825e-4
-1.783, 1.839e-4
-1.784, 1.853e-4
-1.785, 1.867e-4
-1.786, 1.880e-4
-1.787, 1.894e-4
-1.788, 1.908e-4
-1.789, 1.922e-4
-1.790, 1.936e-4
-1.791, 1.949e-4
-1.792, 1.964e-4
-1.793, 1.978e-4
-1.794, 1.992e-4
-1.795, 2.006e-4
-1.796, 2.019e-4
-1.797, 2.033e-4
-1.798, 2.047e-4
-1.799, 2.062e-4
-1.800, 2.076e-4
-1.801, 2.091e-4
-1.802, 2.105e-4
-1.803, 2.120e-4
-1.804, 2.136e-4
-1.805, 2.151e-4
-1.806, 2.166e-4
-1.807, 2.181e-4
-1.808, 2.197e-4
-1.809, 2.212e-4
-1.810, 2.229e-4
-1.811, 2.245e-4
-1.812, 2.263e-4
-1.813, 2.280e-4
-1.814, 2.298e-4
-1.815, 2.316e-4
-1.816, 2.335e-4
-1.817, 2.354e-4
-1.818, 2.373e-4
-1.819, 2.393e-4
-1.820, 2.414e-4
-1.821, 2.435e-4
-1.822, 2.456e-4
-1.823, 2.478e-4
-1.824, 2.500e-4
-1.825, 2.522e-4
-1.826, 2.546e-4
-1.827, 2.570e-4
-1.828, 2.595e-4
-1.829, 2.620e-4
-1.830, 2.645e-4
-1.831, 2.670e-4
-1.832, 2.697e-4
-1.833, 2.723e-4
-1.834, 2.749e-4
-1.835, 2.777e-4
-1.836, 2.804e-4
-1.837, 2.833e-4
-1.838, 2.861e-4
-1.839, 2.889e-4
-1.840, 2.919e-4
-1.841, 2.949e-4
-1.842, 2.978e-4
-1.843, 3.008e-4
-1.844, 3.038e-4
-1.845, 3.068e-4
-1.846, 3.099e-4
-1.847, 3.131e-4
-1.848, 3.162e-4
-1.849, 3.195e-4
-1.850, 3.227e-4
-1.851, 3.261e-4
-1.852, 3.294e-4
-1.853, 3.328e-4
-1.854, 3.362e-4
-1.855, 3.397e-4
-1.856, 3.432e-4
-1.857, 3.468e-4
-1.858, 3.505e-4
-1.859, 3.542e-4
-1.860, 3.578e-4
-1.861, 3.616e-4
-1.862, 3.654e-4
-1.863, 3.692e-4
-1.864, 3.730e-4
-1.865, 3.769e-4
-1.866, 3.808e-4
-1.867, 3.848e-4
-1.868, 3.889e-4
-1.869, 3.930e-4
-1.870, 3.971e-4
-1.871, 4.011e-4
-1.872, 4.052e-4
-1.873, 4.093e-4
-1.874, 4.134e-4
-1.875, 4.176e-4
-1.876, 4.218e-4
-1.877, 4.261e-4
-1.878, 4.304e-4
-1.879, 4.348e-4
-1.880, 4.393e-4
-1.881, 4.437e-4
-1.882, 4.481e-4
-1.883, 4.527e-4
-1.884, 4.571e-4
-1.885, 4.617e-4
-1.886, 4.663e-4
-1.887, 4.709e-4
-1.888, 4.756e-4
-1.889, 4.803e-4
-1.890, 4.849e-4
-1.891, 4.896e-4
-1.892, 4.945e-4
-1.893, 4.996e-4
-1.894, 5.047e-4
-1.895, 5.098e-4
-1.896, 5.147e-4
-1.897, 5.196e-4
-1.898, 5.246e-4
-1.899, 5.298e-4
-1.900, 5.350e-4
-1.901, 5.401e-4
-1.902, 5.452e-4
-1.903, 5.504e-4
-1.904, 5.557e-4
-1.905, 5.610e-4
-1.906, 5.663e-4
-1.907, 5.716e-4
-1.908, 5.767e-4
-1.909, 5.820e-4
-1.910, 5.873e-4
-1.911, 5.927e-4
-1.912, 5.982e-4
-1.913, 6.037e-4
-1.914, 6.093e-4
-1.915, 6.149e-4
-1.916, 6.207e-4
-1.917, 6.260e-4
-1.918, 6.315e-4
-1.919, 6.370e-4
-1.920, 6.428e-4
-1.921, 6.485e-4
-1.922, 6.543e-4
-1.923, 6.601e-4
-1.924, 6.659e-4
-1.925, 6.718e-4
-1.926, 6.777e-4
-1.927, 6.835e-4
-1.928, 6.895e-4
-1.929, 6.956e-4
-1.930, 7.018e-4
-1.931, 7.078e-4
-1.932, 7.137e-4
-1.933, 7.196e-4
-1.934, 7.256e-4
-1.935, 7.317e-4
-1.936, 7.379e-4
-1.937, 7.440e-4
-1.938, 7.502e-4
-1.939, 7.566e-4
-1.940, 7.645e-4
-1.941, 7.712e-4
-1.942, 7.775e-4
-1.943, 7.837e-4
-1.944, 7.900e-4
-1.945, 7.964e-4
-1.946, 8.028e-4
-1.947, 8.093e-4
-1.948, 8.158e-4
-1.949, 8.222e-4
-1.950, 8.287e-4
-1.951, 8.351e-4
-1.952, 8.402e-4
-1.953, 8.462e-4
-1.954, 8.527e-4
-1.955, 8.593e-4
-1.956, 8.661e-4
-1.957, 8.730e-4
-1.958, 8.795e-4
-1.959, 8.863e-4
-1.960, 8.930e-4
-1.961, 8.997e-4
-1.962, 9.064e-4
-1.963, 9.131e-4
-1.964, 9.199e-4
-1.965, 9.268e-4
-1.966, 9.348e-4
-1.967, 9.422e-4
-1.968, 9.489e-4
-1.969, 9.558e-4
-1.970, 9.627e-4
-1.971, 9.697e-4
-1.972, 9.766e-4
-1.973, 9.835e-4
-1.974, 9.906e-4
-1.975, 9.976e-4
-1.976, 1.005e-3
-1.977, 1.010e-3
-1.978, 1.011e-3
-1.979, 1.011e-3
-1.980, 1.011e-3
-1.981, 1.011e-3
-1.982, 1.011e-3
-1.983, 1.011e-3
-1.984, 1.011e-3
-1.985, 1.011e-3
-1.986, 1.011e-3
-1.987, 1.011e-3
-1.988, 1.011e-3
-1.989, 1.011e-3
-1.990, 1.011e-3
-1.991, 1.011e-3
-1.992, 1.011e-3
-1.993, 1.011e-3
-1.994, 1.011e-3
-1.995, 1.011e-3
-1.996, 1.011e-3
-1.997, 1.011e-3
-1.998, 1.011e-3
-1.999, 1.011e-3
-2.000, 1.011e-3
-2.001, 1.011e-3
-2.002, 1.011e-3
-2.003, 1.011e-3
-2.004, 1.011e-3
-2.005, 1.011e-3
-2.006, 1.011e-3
-2.007, 1.011e-3
-2.008, 1.011e-3
-2.009, 1.011e-3
-2.010, 1.011e-3
-2.011, 1.011e-3
-2.012, 1.011e-3
-2.013, 1.011e-3
-2.014, 1.011e-3
-2.015, 1.011e-3
-2.016, 1.011e-3
-2.017, 1.011e-3
-2.018, 1.011e-3
-2.019, 1.011e-3
-2.020, 1.011e-3
-2.021, 1.011e-3
-2.022, 1.011e-3
-2.023, 1.011e-3
-2.024, 1.011e-3
-2.025, 1.011e-3
-2.026, 1.011e-3
-2.027, 1.011e-3
-2.028, 1.011e-3
-2.029, 1.011e-3
-2.030, 1.011e-3
-2.031, 1.011e-3
-2.032, 1.011e-3
-2.033, 1.011e-3
-2.034, 1.011e-3
-2.035, 1.011e-3
-2.036, 1.011e-3
-2.037, 1.011e-3
-2.038, 1.011e-3
-2.039, 1.011e-3
-2.040, 1.011e-3
-2.041, 1.011e-3
-2.042, 1.011e-3
-2.043, 1.011e-3
-2.044, 1.011e-3
-2.045, 1.011e-3
-2.046, 1.011e-3
-2.047, 1.011e-3
-2.048, 1.011e-3
-2.049, 1.011e-3
-2.050, 1.011e-3
-2.051, 1.011e-3
-2.052, 1.011e-3
-2.053, 1.011e-3
-2.054, 1.011e-3
-2.055, 1.011e-3
-2.056, 1.011e-3
-2.057, 1.011e-3
-2.058, 1.011e-3
-2.059, 1.011e-3
-2.060, 1.011e-3
-2.061, 1.011e-3
-2.062, 1.011e-3
-2.063, 1.011e-3
-2.064, 1.011e-3
-2.065, 1.011e-3
-2.066, 1.011e-3
-2.067, 1.011e-3
-2.068, 1.011e-3
-2.069, 1.011e-3
-2.070, 1.011e-3
-2.071, 1.011e-3
-2.072, 1.011e-3
-2.073, 1.011e-3
-2.074, 1.011e-3
-2.075, 1.011e-3
-2.076, 1.011e-3
-2.077, 1.011e-3
-2.078, 1.011e-3
-2.079, 1.011e-3
-2.080, 1.011e-3
-2.081, 1.011e-3
-2.082, 1.011e-3
-2.083, 1.011e-3
-2.084, 1.011e-3
-2.085, 1.011e-3
-2.086, 1.011e-3
-2.087, 1.011e-3
-2.088, 1.011e-3
-2.089, 1.011e-3
-2.090, 1.011e-3
-2.091, 1.011e-3
-2.092, 1.011e-3
-2.093, 1.011e-3
-2.094, 1.011e-3
-2.095, 1.011e-3
-2.096, 1.011e-3
-2.097, 1.011e-3
-2.098, 1.011e-3
-2.099, 1.011e-3
-2.100, 1.011e-3
-2.101, 1.011e-3
-2.102, 1.011e-3
-2.103, 1.011e-3
-2.104, 1.011e-3
-2.105, 1.011e-3
-2.106, 1.011e-3
-2.107, 1.011e-3
-2.108, 1.011e-3
-2.109, 1.011e-3
-2.110, 1.011e-3
-2.111, 1.011e-3
-2.112, 1.011e-3
-2.113, 1.011e-3
-2.114, 1.011e-3
-2.115, 1.011e-3
-2.116, 1.011e-3
-2.117, 1.011e-3
-2.118, 1.011e-3
-2.119, 1.011e-3
-2.120, 1.011e-3
-2.121, 1.011e-3
-2.122, 1.011e-3
-2.123, 1.011e-3
-2.124, 1.011e-3
-2.125, 1.011e-3
-2.126, 1.011e-3
-2.127, 1.011e-3
-2.128, 1.011e-3
-2.129, 1.011e-3
-2.130, 1.011e-3
-2.131, 1.011e-3
-2.132, 1.011e-3
-2.133, 1.011e-3
-2.134, 1.011e-3
-2.135, 1.011e-3
-2.136, 1.011e-3
-2.137, 1.011e-3
-2.138, 1.011e-3
-2.139, 1.011e-3
-2.140, 1.011e-3
-2.141, 1.011e-3
-2.142, 1.011e-3
-2.143, 1.011e-3
-2.144, 1.011e-3
-2.145, 1.011e-3
-2.146, 1.011e-3
-2.147, 1.011e-3
-2.148, 1.011e-3
-2.149, 1.011e-3
-2.150, 1.011e-3
-2.151, 1.011e-3
-2.152, 1.011e-3
-2.153, 1.011e-3
-2.154, 1.011e-3
-2.155, 1.011e-3
-2.156, 1.011e-3
-2.157, 1.011e-3
-2.158, 1.011e-3
-2.159, 1.011e-3
-2.160, 1.011e-3
-2.161, 1.011e-3
-2.162, 1.011e-3
-2.163, 1.011e-3
-2.164, 1.011e-3
-2.165, 1.011e-3
-2.166, 1.011e-3
-2.167, 1.011e-3
-2.168, 1.011e-3
-2.169, 1.011e-3
-2.170, 1.011e-3
-2.171, 1.011e-3
-2.172, 1.011e-3
-2.173, 1.011e-3
-2.174, 1.011e-3
-2.175, 1.011e-3
-2.176, 1.011e-3
-2.177, 1.011e-3
-2.178, 1.011e-3
-2.179, 1.011e-3
-2.180, 1.011e-3
-2.181, 1.011e-3
-2.182, 1.011e-3
-2.183, 1.011e-3
-2.184, 1.011e-3
-2.185, 1.011e-3
-2.186, 1.011e-3
-2.187, 1.011e-3
-2.188, 1.011e-3
-2.189, 1.011e-3
-2.190, 1.011e-3
-2.191, 1.011e-3
-2.192, 1.011e-3
-2.193, 1.011e-3
-2.194, 1.011e-3
-2.195, 1.011e-3
-2.196, 1.011e-3
-2.197, 1.011e-3
-2.198, 1.011e-3
-2.199, 1.011e-3
-2.200, 1.011e-3
-2.201, 1.011e-3
-2.202, 1.011e-3
-2.203, 1.011e-3
-2.204, 1.011e-3
-2.205, 1.011e-3
-2.206, 1.011e-3
-2.207, 1.011e-3
-2.208, 1.011e-3
-2.209, 1.011e-3
-2.210, 1.011e-3
-2.211, 1.011e-3
-2.212, 1.011e-3
-2.213, 1.011e-3
-2.214, 1.011e-3
-2.215, 1.011e-3
-2.216, 1.011e-3
-2.217, 1.011e-3
-2.218, 1.011e-3
-2.219, 1.011e-3
-2.220, 1.011e-3
-2.221, 1.011e-3
-2.222, 1.011e-3
-2.223, 1.011e-3
-2.224, 1.011e-3
-2.225, 1.011e-3
-2.226, 1.011e-3
-2.227, 1.011e-3
-2.228, 1.011e-3
-2.229, 1.011e-3
-2.230, 1.011e-3
-2.231, 1.011e-3
-2.232, 1.011e-3
-2.233, 1.011e-3
-2.234, 1.011e-3
-2.235, 1.011e-3
-2.236, 1.011e-3
-2.237, 1.011e-3
-2.238, 1.011e-3
-2.239, 1.011e-3
-2.240, 1.011e-3
-2.241, 1.011e-3
-2.242, 1.011e-3
-2.243, 1.011e-3
-2.244, 1.011e-3
-2.245, 1.011e-3
-2.246, 1.011e-3
-2.247, 1.011e-3
-2.248, 1.011e-3
-2.249, 1.011e-3
-2.250, 1.011e-3
-2.251, 1.011e-3
-2.252, 1.011e-3
-2.253, 1.011e-3
-2.254, 1.011e-3
-2.255, 1.011e-3
-2.256, 1.011e-3
-2.257, 1.011e-3
-2.258, 1.011e-3
-2.259, 1.011e-3
-2.260, 1.011e-3
-2.261, 1.011e-3
-2.262, 1.011e-3
-2.263, 1.011e-3
-2.264, 1.011e-3
-2.265, 1.011e-3
-2.266, 1.011e-3
-2.267, 1.011e-3
-2.268, 1.011e-3
-2.269, 1.011e-3
-2.270, 1.011e-3
-2.271, 1.011e-3
-2.272, 1.011e-3
-2.273, 1.011e-3
-2.274, 1.011e-3
-2.275, 1.011e-3
-2.276, 1.011e-3
-2.277, 1.011e-3
-2.278, 1.011e-3
-2.279, 1.011e-3
-2.280, 1.011e-3
-2.281, 1.011e-3
-2.282, 1.011e-3
-2.283, 1.011e-3
-2.284, 1.011e-3
-2.285, 1.011e-3
-2.286, 1.011e-3
-2.287, 1.011e-3
-2.288, 1.011e-3
-2.289, 1.011e-3
-2.290, 1.011e-3
-2.291, 1.011e-3
-2.292, 1.011e-3
-2.293, 1.011e-3
-2.294, 1.011e-3
-2.295, 1.011e-3
-2.296, 1.011e-3
-2.297, 1.011e-3
-2.298, 1.011e-3
-2.299, 1.011e-3
