Potential V vs RHE, Current mA cm-2
0.4132999999999999,0.018405394011244126
0.4122999999999999,0.016495533756426328
0.4112999999999999,0.015873060784485714
0.4102999999999999,0.015476941620523503
0.4092999999999999,0.015109116682558592
0.4082999999999999,0.014769585970590984
0.4072999999999999,0.014500790823616624
0.4062999999999999,0.01427443701563822
0.4052999999999999,0.014041009651160489
0.4042999999999999,0.013743920278188831
0.4032999999999999,0.013489272244213124
0.4022999999999999,0.013267162570134314
0.4012999999999999,0.013074761833352669
0.4002999999999999,0.012859725715773183
0.3992999999999999,0.012579612878399905
0.3982999999999999,0.01233628253482312
0.3972999999999999,0.012189152559637158
0.3962999999999999,0.011989678266356186
0.3952999999999999,0.011836889445970762
0.3942999999999999,0.011585070834594785
0.39329999999999987,0.011377108273514625
0.39229999999999987,0.011220075319229606
0.39129999999999987,0.011065871787544316
0.39029999999999987,0.010898935854160243
0.38929999999999987,0.010688143870480352
0.38829999999999987,0.010475937175500598
0.38729999999999987,0.01035568671501207
0.38629999999999987,0.010202897894626644
0.38529999999999986,0.010031717827342976
0.38429999999999986,0.00983931709056133
0.38329999999999986,0.0096341839520809
0.38229999999999986,0.009526665893291156
0.38129999999999986,0.009395097742403708
0.38029999999999986,0.009236650076818825
0.37929999999999986,0.00906122587563556
0.37829999999999986,0.008867410427554049
0.37729999999999986,0.008772624770463092
0.37629999999999986,0.008635397774376184
0.37529999999999986,0.008479779531391032
0.37429999999999986,0.008305770041507631
0.37329999999999985,0.00811761343862558
0.37229999999999985,0.008005851245936241
0.37129999999999985,0.007922383279244206
0.37029999999999985,0.007765350324959188
0.36929999999999985,0.007589926123775921
0.36829999999999985,0.007439966725990228
0.36729999999999985,0.007332448667200485
0.36629999999999985,0.007219271763211282
0.36529999999999985,0.007090533034923564
0.36429999999999985,0.006946232482337331
0.36329999999999985,0.0067991025071513665
0.36229999999999984,0.006698658004860948
0.36129999999999984,0.006599628213870396
0.36029999999999984,0.0064737189081824085
0.35929999999999984,0.006312441819997794
0.35829999999999984,0.0061525794431130446
0.35729999999999984,0.006067696765121142
0.35629999999999984,0.005953105149832074
0.35529999999999984,0.005838513534543006
0.35429999999999984,0.005684310002857718
0.35329999999999984,0.005525862337272833
0.35229999999999984,0.005453712060979716
0.35129999999999983,0.005356096981289029
0.35029999999999983,0.0052570671902984764
0.34929999999999983,0.0050943753908139966
0.34829999999999983,0.0049571483947270885
0.34729999999999983,0.004852459758537075
0.34629999999999983,0.004770406503144903
0.34529999999999983,0.0046742061347540805
0.34429999999999983,0.004535564427367307
0.3432999999999998,0.004406825699079589
0.3422999999999998,0.004319113598487957
0.3412999999999998,0.00423847505439565
0.3402999999999998,0.004126712861706312
0.3392999999999998,0.00399938884471846
0.3382999999999998,0.0038649912712312804
0.3372999999999998,0.003785767438438838
0.3362999999999998,0.0037291789864442367
0.3352999999999998,0.003618831505054764
0.3342999999999998,0.0034801897976679905
0.3332999999999998,0.003358524625879597
0.3322999999999998,0.0033005214625851306
0.3312999999999998,0.003239688876690934
0.3302999999999998,0.0031434885083001115
0.3292999999999998,0.003010505646112798
0.3282999999999998,0.002886011051724675
0.3272999999999998,0.0028039577963325023
0.3262999999999998,0.002740295787838576
0.3252999999999999,0.0026469248420474835
0.3242999999999999,0.0025096978459605746
0.3232999999999999,0.0023993503645711022
0.3222999999999999,0.0022890028831816294
0.3212999999999999,0.0022239261633878377
0.3202999999999999,0.002156020020994316
0.3192999999999999,0.0020258665814067325
0.3182999999999999,0.0019098602548177994
0.3172999999999999,0.001849027668923603
0.3162999999999999,0.0017683891248312957
0.3152999999999999,0.0016835064468393936
0.3142999999999999,0.0015519382959519451
0.3132999999999999,0.0014288584128636871
0.3122999999999999,0.0013736846721689507
0.3112999999999999,0.001313700913054673
0.3102999999999999,0.0012230179187333243
0.3092999999999999,0.0011071530632743778
0.3082999999999999,0.0009912882078154312
0.3072999999999999,0.0009410659566702225
0.3062999999999999,0.0008684912669871459
0.3052999999999999,0.0007902577321046095
0.3042999999999999,0.0006632166573767291
0.3032999999999999,0.0005599427324865815
0.3022999999999999,0.000501373684672169
0.3012999999999999,0.000444077877027635
0.3002999999999999,0.000349150748806691
0.2992999999999999,0.00024870624651627345
0.2982999999999999,0.00013008270402259012
0.2972999999999999,8.820724954658503e-05
0.2962999999999999,2.540821494557606e-05
0.2952999999999999,-6.950476616236926e-05
0.2942999999999999,-0.00017980980621284614
0.2932999999999999,-0.0002886011051724675
0.2922999999999999,-0.00033755011614779775
0.2912999999999999,-0.0003891870785928716
0.2902999999999999,-0.0004756259390146253
0.2892999999999999,-0.0005873881317039632
0.2882999999999999,-0.0006821737887949207
0.2872999999999999,-0.0007437137303390499
0.2862999999999999,-0.0007882771362847984
0.2852999999999999,-0.0008636812485676048
0.2842999999999999,-0.000985063478096025
0.2832999999999999,-0.001091166825585903
0.2822999999999999,-0.0011344569913617729
0.2812999999999999,-0.0011972701730757805
0.2802999999999999,-0.001255839220890193
0.2792999999999999,-0.0013814655843182083
0.2782999999999999,-0.0014797880196588285
0.2772999999999999,-0.0015193999360550493
0.2762999999999999,-0.0015844766558488412
0.2752999999999999,-0.001624088572245062
0.2742999999999999,-0.0017641449909317009
0.2732999999999999,-0.001861760070622388
0.2722999999999999,-0.00191551910001726
0.2712999999999999,-0.0019622045729128057
0.2702999999999999,-0.0020329401379060577
0.2692999999999999,-0.0021517758870947205
0.26829999999999987,-0.002263538079784059
0.26729999999999987,-0.002287588171881764
0.26629999999999987,-0.0023371030673770402
0.26529999999999987,-0.0024106680549700224
0.26429999999999987,-0.00250545371206098
0.26329999999999987,-0.0026200453273500478
0.26229999999999987,-0.002659657243746269
0.26129999999999987,-0.0027120015618412752
0.26029999999999986,-0.002784151838134392
0.25929999999999986,-0.0028704492274261592
0.25829999999999986,-0.0029906996879146873
0.25729999999999986,-0.0030373851608102337
0.25629999999999986,-0.0030670940981073996
0.25529999999999986,-0.0031463179308998416
0.25429999999999986,-0.003256665412289315
0.25329999999999986,-0.0033698423162785173
0.25229999999999986,-0.0033995512535756832
0.25129999999999986,-0.00346321326206961
0.25029999999999986,-0.0035240458479638063
0.24929999999999986,-0.003634393329353279
0.24829999999999985,-0.0037249348525446413
0.24729999999999985,-0.0037645467689408625
0.24629999999999985,-0.0038154763757360034
0.24529999999999985,-0.003901773765027772
0.24429999999999985,-0.004005047689917919
0.24329999999999985,-0.00409558921310928
0.24229999999999985,-0.004136615840805368
0.24129999999999985,-0.004197448426699564
0.24029999999999985,-0.004234230920496055
0.23929999999999985,-0.004345993113185393
0.23829999999999985,-0.004454925883275
0.23729999999999984,-0.004500196644870682
0.23629999999999984,-0.004539808561266903
0.23529999999999984,-0.004576591055063394
0.23429999999999984,-0.004708159205950842
0.23329999999999984,-0.004790212461343014
0.23229999999999984,-0.004835483222938695
0.23129999999999984,-0.0048934863862331625
0.23029999999999984,-0.004933098302629383
0.22929999999999984,-0.005030713382320071
0.22829999999999984,-0.005145304997609138
0.22729999999999984,-0.005170769801006709
0.22629999999999983,-0.00522169940780185
0.22529999999999983,-0.005285361416295777
0.22429999999999983,-0.005360341115188624
0.22329999999999983,-0.005487665132176478
0.22229999999999983,-0.005494738688675803
0.22129999999999983,-0.005541424161571349
0.22029999999999983,-0.005619233283063926
0.21929999999999983,-0.005718263074054478
0.21829999999999983,-0.005814463442445301
0.21729999999999983,-0.005855490070141387
0.21629999999999983,-0.005880954873538957
0.21529999999999982,-0.005944616882032884
0.21429999999999982,-0.0060280848487249215
0.21329999999999982,-0.006138432330114394
0.21229999999999982,-0.00617945895781048
0.21129999999999982,-0.006206338472507916
0.21029999999999982,-0.006279903460100897
0.20929999999999982,-0.006388836230190506
0.20829999999999982,-0.0064524982386844325
0.20729999999999982,-0.006504842556779439
0.20629999999999982,-0.006543039761875796
0.20529999999999982,-0.0065953840799708
0.20429999999999982,-0.006702902138760544
0.20329999999999981,-0.0067821259715529865
0.2022999999999998,-0.0068288114444485315
0.2012999999999998,-0.006855690959145968
0.20029999999999992,-0.006916523545040165
0.19929999999999992,-0.007024041603829908
0.19829999999999992,-0.007104680147922215
0.19729999999999992,-0.00714004793041884
0.19629999999999992,-0.007189562825914116
0.19529999999999992,-0.007223515897110878
0.19429999999999992,-0.007394695964394547
0.19329999999999992,-0.007480993353686315
0.19229999999999992,-0.007476749219786719
0.19129999999999991,-0.007526264115281995
0.1902999999999999,-0.0075446553621802415
0.1892999999999999,-0.007639441019271198
0.1882999999999999,-0.007763935613659322
0.1872999999999999,-0.007785156283157298
0.1862999999999999,-0.007797888684856083
0.1852999999999999,-0.007879941940248256
0.1842999999999999,-0.007970483463439615
0.1832999999999999,-0.00807517209962963
0.1822999999999999,-0.008082245656128955
0.1812999999999999,-0.008140248819423422
0.1802999999999999,-0.008219472652215863
0.1792999999999999,-0.00828313466070979
0.1782999999999999,-0.008375090895201017
0.1772999999999999,-0.008404799832498182
0.1762999999999999,-0.008431679347195619
0.1752999999999999,-0.008492511933089815
0.1742999999999999,-0.008587297590180771
0.1732999999999999,-0.008682083247271731
0.1722999999999999,-0.008717451029768357
0.1712999999999999,-0.008745745255765656
0.1702999999999999,-0.008795260151260934
0.1692999999999999,-0.008908437055250136
0.1682999999999999,-0.008987660888042577
0.1672999999999999,-0.009027272804438798
0.1662999999999999,-0.009045664051337044
0.1652999999999999,-0.009105081925931376
0.1642999999999999,-0.009223917675120038
0.1632999999999999,-0.0092861649723141
0.1622999999999999,-0.009325776888710322
0.1612999999999999,-0.009388024185904384
0.1602999999999999,-0.00941773312320155
0.1592999999999999,-0.009513933491592371
0.15829999999999989,-0.009605889726083599
0.15729999999999988,-0.00964550164247982
0.15629999999999988,-0.009676625291076851
0.15529999999999988,-0.009727554897871993
0.15429999999999988,-0.009819511132363219
0.15329999999999988,-0.009919955634653638
0.15229999999999988,-0.009932688036352423
0.15129999999999988,-0.009989276488347024
0.15029999999999988,-0.01002747369344338
0.14929999999999988,-0.010123674061834204
0.14829999999999988,-0.01023826567712327
0.14729999999999988,-0.010231192120623945
0.14629999999999987,-0.010266559903120571
0.14529999999999987,-0.010333051334214229
0.14429999999999987,-0.010415104589606402
0.14329999999999987,-0.010526866782295738
0.14229999999999987,-0.010570722832591554
0.14129999999999987,-0.010576381677791015
0.14029999999999987,-0.010637214263685212
0.13929999999999987,-0.010705120406078732
0.13829999999999987,-0.01081688259876807
0.13729999999999987,-0.010849420958664967
0.13629999999999987,-0.010879129895962132
0.13529999999999986,-0.010937133059256598
0.13429999999999986,-0.011023430448548366
0.13329999999999986,-0.011122460239538919
0.13229999999999986,-0.011157828022035543
0.13129999999999986,-0.011180463402833385
0.13029999999999986,-0.011273834348624478
0.12929999999999986,-0.01135305818141692
0.12829999999999986,-0.011461990951506526
0.12729999999999986,-0.011488870466203964
0.12629999999999986,-0.011508676424402073
0.12529999999999986,-0.011569509010296271
0.12429999999999986,-0.011650147554388578
0.12329999999999985,-0.011756250901878453
0.12229999999999985,-0.011807180508673597
0.12129999999999985,-0.011832645312071167
0.12029999999999985,-0.011870842517167522
0.11929999999999985,-0.011982604709856862
0.11829999999999985,-0.012056169697449843
0.11729999999999985,-0.01210851401554485
0.11629999999999985,-0.012155199488440394
0.11529999999999985,-0.012172176024038774
0.11429999999999985,-0.012272620526329192
0.11329999999999985,-0.01237023560601988
0.11229999999999984,-0.012397115120717317
0.11129999999999984,-0.012448044727512458
0.11029999999999984,-0.012501803756907329
0.10929999999999984,-0.012581027589699771
0.10829999999999984,-0.012688545648489515
0.10729999999999984,-0.012702692761488166
0.10629999999999984,-0.012745134100484116
0.10529999999999984,-0.012814454954177502
0.10429999999999984,-0.012919143590367515
0.10329999999999984,-0.013009685113558878
0.10229999999999984,-0.013037979339556178
0.10129999999999983,-0.013074761833352669
0.10029999999999983,-0.01314266797574619
0.09929999999999983,-0.013210574118139713
0.09829999999999983,-0.013318092176929456
0.09729999999999983,-0.013380339474123518
0.09629999999999983,-0.013402974854921357
0.09529999999999983,-0.013463807440815555
0.09429999999999983,-0.013551519541407186
0.09329999999999983,-0.013636402219399088
0.09229999999999983,-0.013687331826194232
0.09129999999999983,-0.01371562605219153
0.09029999999999982,-0.013779288060685456
0.08929999999999982,-0.013867000161277088
0.08829999999999982,-0.01395471226186872
0.08729999999999982,-0.013995738889564808
0.08629999999999982,-0.014022618404262242
0.08529999999999982,-0.014079206856256845
0.08429999999999982,-0.014189554337646317
0.08329999999999982,-0.01427443701563822
0.08229999999999982,-0.014316878354634173
0.08129999999999982,-0.014345172580631472
0.08029999999999982,-0.014359319693630123
0.07929999999999982,-0.014500790823616624
0.07829999999999981,-0.01461396772760583
0.07729999999999981,-0.01465640906660178
0.07629999999999981,-0.01469885040559773
0.07529999999999992,-0.014741291744593682
0.07429999999999992,-0.014840321535584235
0.07329999999999992,-0.014953498439573438
0.07229999999999992,-0.014967645552572089
0.07129999999999992,-0.015024234004566688
0.07029999999999992,-0.015066675343562642
0.06929999999999992,-0.015179852247551842
0.06829999999999992,-0.015278882038542396
0.06729999999999992,-0.015293029151541045
0.06629999999999991,-0.015349617603535646
0.06529999999999991,-0.015406206055530251
0.06429999999999991,-0.015491088733522153
0.06329999999999991,-0.015590118524512706
0.06229999999999991,-0.015646706976507305
0.06129999999999991,-0.015675001202504608
0.06029999999999991,-0.015745736767497857
0.05929999999999991,-0.01580232521949246
0.05829999999999991,-0.015901355010483013
0.05729999999999991,-0.015957943462477614
0.056299999999999906,-0.015986237688474913
0.055299999999999905,-0.016071120366466816
0.054299999999999904,-0.01614185593146007
0.0532999999999999,-0.01625503283544927
0.0522999999999999,-0.016311621287443873
0.0512999999999999,-0.016325768400442524
0.0502999999999999,-0.016396503965435776
0.0492999999999999,-0.01650968086942498
0.0482999999999999,-0.01658041643441823
0.0472999999999999,-0.016637004886412832
0.0462999999999999,-0.016679446225408782
0.045299999999999896,-0.016750181790402035
0.044299999999999895,-0.01683506446839394
0.043299999999999894,-0.01693409425938449
0.04229999999999989,-0.01699068271137909
0.04129999999999989,-0.01703312405037504
0.04029999999999989,-0.017118006728366945
0.03929999999999989,-0.017217036519357496
0.03829999999999989,-0.01728777208435075
0.03729999999999989,-0.01734436053634535
0.03629999999999989,-0.0173868018753413
0.03529999999999989,-0.017443390327335904
0.034299999999999886,-0.017542420118326456
0.033299999999999885,-0.01765559702231566
0.032299999999999884,-0.01769803836131161
0.031299999999999883,-0.01774047970030756
0.030299999999999883,-0.017797068152302163
0.02929999999999988,-0.017881950830294063
0.02829999999999988,-0.018023421960280565
0.02729999999999988,-0.018065863299276518
0.02629999999999988,-0.01812245175127112
0.025299999999999878,-0.01817904020326572
0.024299999999999877,-0.018278069994256275
0.023299999999999876,-0.018377099785246823
0.022299999999999875,-0.018419541124242777
0.021299999999999875,-0.01847612957623738
0.020299999999999874,-0.018546865141230634
0.019299999999999873,-0.018660042045219833
0.018299999999999872,-0.018759071836210388
0.01729999999999987,-0.018801513175206338
0.01629999999999987,-0.018843954514202284
0.01529999999999987,-0.018942984305192843
0.014299999999999868,-0.019027866983184743
0.013299999999999867,-0.019141043887173945
0.012299999999999978,-0.019197632339168547
0.011299999999999866,-0.019211779452167198
0.010299999999999976,-0.019310809243157753
0.009299999999999864,-0.0194098390341483
0.008299999999999974,-0.019494721712140204
0.007299999999999862,-0.019565457277133456
0.006299999999999972,-0.019607898616129407
0.00529999999999986,-0.01969278129412131
0.0042999999999999705,-0.019791811085111865
0.0032999999999998586,-0.019904987989101064
0.0022999999999999687,-0.019947429328097017
0.0012999999999998568,-0.02003231200608892
0.00029999999999996696,-0.02007475334508487
-0.000700000000000145,-0.020187930249074077
-0.0017000000000000348,-0.020301107153063276
-0.0027000000000001467,-0.02032940137906058
-0.0037000000000000366,-0.02038598983105518
-0.0047000000000001485,-0.020470872509047083
-0.005700000000000038,-0.020598196526034934
-0.00670000000000015,-0.020697226317025485
-0.00770000000000004,-0.02075381476902009
-0.008700000000000152,-0.020810403221014687
-0.009700000000000042,-0.02088113878600794
-0.010700000000000154,-0.021022609915994445
-0.011700000000000044,-0.021135786819983647
-0.012700000000000156,-0.021164081045980946
-0.013700000000000045,-0.02122066949797555
-0.014700000000000157,-0.021291405062968803
-0.015700000000000047,-0.021390434853959358
-0.01670000000000016,-0.02153190598394586
-0.01770000000000005,-0.02157434732294181
-0.01870000000000016,-0.02161678866193776
-0.01970000000000005,-0.021715818452928314
-0.020700000000000163,-0.021828995356917517
-0.021700000000000053,-0.021913878034909417
-0.022700000000000164,-0.02198461359990267
-0.023700000000000054,-0.02204120205189727
-0.024700000000000166,-0.022140231842887825
-0.025700000000000056,-0.022253408746877028
-0.026700000000000168,-0.022338291424868928
-0.027700000000000058,-0.022437321215859483
-0.02870000000000017,-0.022465615441856785
-0.02970000000000006,-0.022536351006850038
-0.03070000000000017,-0.022663675023837888
-0.03170000000000006,-0.02276270481482844
-0.03270000000000017,-0.022833440379821688
-0.03370000000000006,-0.02287588171881764
-0.034700000000000175,-0.022946617283810897
-0.035700000000000065,-0.0230597941878001
-0.03670000000000018,-0.02318711820478795
-0.03770000000000007,-0.023257853769781203
-0.03870000000000018,-0.023314442221775804
-0.03970000000000007,-0.023371030673770405
-0.04070000000000018,-0.023498354690758262
-0.04170000000000007,-0.02359738448174881
-0.04270000000000018,-0.02365397293374341
-0.04370000000000007,-0.023724708498736664
-0.044700000000000184,-0.023767149837732617
-0.045700000000000074,-0.02389447385472047
-0.046700000000000186,-0.024021797871708325
-0.047700000000000076,-0.024064239210704275
-0.04870000000000019,-0.024134974775697527
-0.04970000000000008,-0.024219857453689427
-0.05070000000000019,-0.024304740131681327
-0.05170000000000008,-0.024417917035670533
-0.05270000000000019,-0.02447450548766513
-0.05370000000000008,-0.024545241052658383
-0.05470000000000019,-0.024587682391654337
-0.05570000000000008,-0.02471500640864219
-0.056700000000000195,-0.024856477538628696
-0.057700000000000085,-0.024913065990623297
-0.058700000000000196,-0.024955507329619247
-0.059700000000000086,-0.0250262428946125
-0.0607000000000002,-0.02512527268560305
-0.06170000000000009,-0.025295038041586858
-0.0627000000000002,-0.02535162649358146
-0.06370000000000009,-0.02537992071957876
