Sept. 25, 2024   05:36:29
Linear Sweep Voltammetry
File: c:/users/guazh/data/20240922_batch_417_500/2024-09-22-exp441\regeneratedgce-2024-09-25t05_31_47-lsvinkoh\regeneratedgce_lsv_50mvs_efin_-1900mv.bin
Data Source:  Experiment
Instrument Model:  CHI760E
Header: LSV ran at 50 mVs with Efin at -1900mV
Note: 

Init E (V) = -0.6
Final E (V) = -1.9
Scan Rate (V/s) = 0.05
Sample Interval (V) = 0.001
Quiet Time (sec) = 2
Sensitivity (A/V) = 1e-4
Comp R (ohm) = 3.7

Results:

Channel 1:
Ep = -1.801V
ip = 9.549e-4A
Ah = 7.837e-4C

Potential/V, Current/A

-0.600, 4.379e-8
-0.601, 1.778e-7
-0.602, 2.138e-7
-0.603, 2.340e-7
-0.604, 2.511e-7
-0.605, 2.630e-7
-0.606, 2.768e-7
-0.607, 2.888e-7
-0.608, 2.996e-7
-0.609, 3.132e-7
-0.610, 3.202e-7
-0.611, 3.307e-7
-0.612, 3.407e-7
-0.613, 3.497e-7
-0.614, 3.611e-7
-0.615, 3.688e-7
-0.616, 3.776e-7
-0.617, 3.881e-7
-0.618, 3.958e-7
-0.619, 4.048e-7
-0.620, 4.119e-7
-0.621, 4.176e-7
-0.622, 4.279e-7
-0.623, 4.345e-7
-0.624, 4.420e-7
-0.625, 4.494e-7
-0.626, 4.560e-7
-0.627, 4.667e-7
-0.628, 4.733e-7
-0.629, 4.805e-7
-0.630, 4.858e-7
-0.631, 4.938e-7
-0.632, 4.986e-7
-0.633, 5.070e-7
-0.634, 5.141e-7
-0.635, 5.222e-7
-0.636, 5.288e-7
-0.637, 5.352e-7
-0.638, 5.425e-7
-0.639, 5.494e-7
-0.640, 5.552e-7
-0.641, 5.624e-7
-0.642, 5.686e-7
-0.643, 5.763e-7
-0.644, 5.834e-7
-0.645, 5.891e-7
-0.646, 5.956e-7
-0.647, 6.013e-7
-0.648, 6.066e-7
-0.649, 6.120e-7
-0.650, 6.162e-7
-0.651, 6.229e-7
-0.652, 6.298e-7
-0.653, 6.357e-7
-0.654, 6.437e-7
-0.655, 6.464e-7
-0.656, 6.519e-7
-0.657, 6.622e-7
-0.658, 6.713e-7
-0.659, 6.767e-7
-0.660, 6.858e-7
-0.661, 6.845e-7
-0.662, 6.887e-7
-0.663, 6.949e-7
-0.664, 7.021e-7
-0.665, 7.063e-7
-0.666, 7.143e-7
-0.667, 7.212e-7
-0.668, 7.295e-7
-0.669, 7.356e-7
-0.670, 7.375e-7
-0.671, 7.395e-7
-0.672, 7.451e-7
-0.673, 7.521e-7
-0.674, 7.572e-7
-0.675, 7.635e-7
-0.676, 7.708e-7
-0.677, 7.744e-7
-0.678, 7.811e-7
-0.679, 7.858e-7
-0.680, 7.915e-7
-0.681, 7.982e-7
-0.682, 8.045e-7
-0.683, 8.094e-7
-0.684, 8.163e-7
-0.685, 8.203e-7
-0.686, 8.265e-7
-0.687, 8.270e-7
-0.688, 8.318e-7
-0.689, 8.385e-7
-0.690, 8.432e-7
-0.691, 8.508e-7
-0.692, 8.553e-7
-0.693, 8.604e-7
-0.694, 8.661e-7
-0.695, 8.695e-7
-0.696, 8.761e-7
-0.697, 8.819e-7
-0.698, 8.876e-7
-0.699, 8.930e-7
-0.700, 8.990e-7
-0.701, 9.040e-7
-0.702, 9.108e-7
-0.703, 9.144e-7
-0.704, 9.204e-7
-0.705, 9.249e-7
-0.706, 9.298e-7
-0.707, 9.357e-7
-0.708, 9.389e-7
-0.709, 9.421e-7
-0.710, 9.463e-7
-0.711, 9.504e-7
-0.712, 9.577e-7
-0.713, 9.670e-7
-0.714, 9.692e-7
-0.715, 9.734e-7
-0.716, 9.857e-7
-0.717, 9.908e-7
-0.718, 9.975e-7
-0.719, 9.992e-7
-0.720, 1.003e-6
-0.721, 1.012e-6
-0.722, 1.017e-6
-0.723, 1.019e-6
-0.724, 1.023e-6
-0.725, 1.026e-6
-0.726, 1.034e-6
-0.727, 1.040e-6
-0.728, 1.042e-6
-0.729, 1.046e-6
-0.730, 1.051e-6
-0.731, 1.059e-6
-0.732, 1.066e-6
-0.733, 1.073e-6
-0.734, 1.076e-6
-0.735, 1.078e-6
-0.736, 1.085e-6
-0.737, 1.091e-6
-0.738, 1.097e-6
-0.739, 1.095e-6
-0.740, 1.098e-6
-0.741, 1.105e-6
-0.742, 1.106e-6
-0.743, 1.109e-6
-0.744, 1.114e-6
-0.745, 1.118e-6
-0.746, 1.123e-6
-0.747, 1.128e-6
-0.748, 1.133e-6
-0.749, 1.137e-6
-0.750, 1.139e-6
-0.751, 1.146e-6
-0.752, 1.150e-6
-0.753, 1.157e-6
-0.754, 1.168e-6
-0.755, 1.173e-6
-0.756, 1.179e-6
-0.757, 1.184e-6
-0.758, 1.207e-6
-0.759, 1.200e-6
-0.760, 1.198e-6
-0.761, 1.206e-6
-0.762, 1.211e-6
-0.763, 1.216e-6
-0.764, 1.226e-6
-0.765, 1.227e-6
-0.766, 1.231e-6
-0.767, 1.230e-6
-0.768, 1.233e-6
-0.769, 1.242e-6
-0.770, 1.246e-6
-0.771, 1.242e-6
-0.772, 1.245e-6
-0.773, 1.252e-6
-0.774, 1.258e-6
-0.775, 1.265e-6
-0.776, 1.263e-6
-0.777, 1.272e-6
-0.778, 1.279e-6
-0.779, 1.289e-6
-0.780, 1.293e-6
-0.781, 1.296e-6
-0.782, 1.311e-6
-0.783, 1.301e-6
-0.784, 1.298e-6
-0.785, 1.304e-6
-0.786, 1.315e-6
-0.787, 1.315e-6
-0.788, 1.319e-6
-0.789, 1.327e-6
-0.790, 1.327e-6
-0.791, 1.335e-6
-0.792, 1.348e-6
-0.793, 1.366e-6
-0.794, 1.361e-6
-0.795, 1.353e-6
-0.796, 1.361e-6
-0.797, 1.368e-6
-0.798, 1.377e-6
-0.799, 1.377e-6
-0.800, 1.379e-6
-0.801, 1.390e-6
-0.802, 1.404e-6
-0.803, 1.384e-6
-0.804, 1.387e-6
-0.805, 1.393e-6
-0.806, 1.396e-6
-0.807, 1.399e-6
-0.808, 1.407e-6
-0.809, 1.413e-6
-0.810, 1.413e-6
-0.811, 1.417e-6
-0.812, 1.420e-6
-0.813, 1.421e-6
-0.814, 1.428e-6
-0.815, 1.435e-6
-0.816, 1.441e-6
-0.817, 1.447e-6
-0.818, 1.451e-6
-0.819, 1.459e-6
-0.820, 1.461e-6
-0.821, 1.458e-6
-0.822, 1.462e-6
-0.823, 1.465e-6
-0.824, 1.470e-6
-0.825, 1.480e-6
-0.826, 1.488e-6
-0.827, 1.493e-6
-0.828, 1.512e-6
-0.829, 1.494e-6
-0.830, 1.489e-6
-0.831, 1.492e-6
-0.832, 1.498e-6
-0.833, 1.504e-6
-0.834, 1.510e-6
-0.835, 1.514e-6
-0.836, 1.516e-6
-0.837, 1.521e-6
-0.838, 1.528e-6
-0.839, 1.532e-6
-0.840, 1.537e-6
-0.841, 1.545e-6
-0.842, 1.546e-6
-0.843, 1.549e-6
-0.844, 1.551e-6
-0.845, 1.555e-6
-0.846, 1.559e-6
-0.847, 1.564e-6
-0.848, 1.570e-6
-0.849, 1.575e-6
-0.850, 1.579e-6
-0.851, 1.586e-6
-0.852, 1.593e-6
-0.853, 1.605e-6
-0.854, 1.611e-6
-0.855, 1.610e-6
-0.856, 1.612e-6
-0.857, 1.617e-6
-0.858, 1.619e-6
-0.859, 1.627e-6
-0.860, 1.628e-6
-0.861, 1.628e-6
-0.862, 1.632e-6
-0.863, 1.638e-6
-0.864, 1.647e-6
-0.865, 1.653e-6
-0.866, 1.654e-6
-0.867, 1.659e-6
-0.868, 1.665e-6
-0.869, 1.668e-6
-0.870, 1.671e-6
-0.871, 1.674e-6
-0.872, 1.678e-6
-0.873, 1.683e-6
-0.874, 1.687e-6
-0.875, 1.705e-6
-0.876, 1.717e-6
-0.877, 1.721e-6
-0.878, 1.713e-6
-0.879, 1.707e-6
-0.880, 1.709e-6
-0.881, 1.716e-6
-0.882, 1.721e-6
-0.883, 1.722e-6
-0.884, 1.731e-6
-0.885, 1.732e-6
-0.886, 1.738e-6
-0.887, 1.741e-6
-0.888, 1.747e-6
-0.889, 1.760e-6
-0.890, 1.759e-6
-0.891, 1.756e-6
-0.892, 1.760e-6
-0.893, 1.764e-6
-0.894, 1.769e-6
-0.895, 1.770e-6
-0.896, 1.779e-6
-0.897, 1.785e-6
-0.898, 1.798e-6
-0.899, 1.811e-6
-0.900, 1.814e-6
-0.901, 1.831e-6
-0.902, 1.828e-6
-0.903, 1.829e-6
-0.904, 1.833e-6
-0.905, 1.831e-6
-0.906, 1.832e-6
-0.907, 1.841e-6
-0.908, 1.857e-6
-0.909, 1.877e-6
-0.910, 1.876e-6
-0.911, 1.859e-6
-0.912, 1.849e-6
-0.913, 1.852e-6
-0.914, 1.857e-6
-0.915, 1.868e-6
-0.916, 1.879e-6
-0.917, 1.871e-6
-0.918, 1.875e-6
-0.919, 1.883e-6
-0.920, 1.891e-6
-0.921, 1.893e-6
-0.922, 1.896e-6
-0.923, 1.901e-6
-0.924, 1.906e-6
-0.925, 1.906e-6
-0.926, 1.917e-6
-0.927, 1.909e-6
-0.928, 1.906e-6
-0.929, 1.911e-6
-0.930, 1.912e-6
-0.931, 1.916e-6
-0.932, 1.920e-6
-0.933, 1.922e-6
-0.934, 1.924e-6
-0.935, 1.928e-6
-0.936, 1.935e-6
-0.937, 1.938e-6
-0.938, 1.940e-6
-0.939, 1.946e-6
-0.940, 1.948e-6
-0.941, 1.953e-6
-0.942, 1.959e-6
-0.943, 1.964e-6
-0.944, 1.973e-6
-0.945, 1.984e-6
-0.946, 1.985e-6
-0.947, 1.985e-6
-0.948, 1.991e-6
-0.949, 1.993e-6
-0.950, 1.998e-6
-0.951, 2.003e-6
-0.952, 2.007e-6
-0.953, 2.013e-6
-0.954, 2.016e-6
-0.955, 2.019e-6
-0.956, 2.024e-6
-0.957, 2.028e-6
-0.958, 2.029e-6
-0.959, 2.038e-6
-0.960, 2.053e-6
-0.961, 2.056e-6
-0.962, 2.057e-6
-0.963, 2.062e-6
-0.964, 2.067e-6
-0.965, 2.075e-6
-0.966, 2.081e-6
-0.967, 2.078e-6
-0.968, 2.085e-6
-0.969, 2.087e-6
-0.970, 2.089e-6
-0.971, 2.093e-6
-0.972, 2.096e-6
-0.973, 2.104e-6
-0.974, 2.107e-6
-0.975, 2.111e-6
-0.976, 2.116e-6
-0.977, 2.127e-6
-0.978, 2.133e-6
-0.979, 2.132e-6
-0.980, 2.126e-6
-0.981, 2.127e-6
-0.982, 2.129e-6
-0.983, 2.131e-6
-0.984, 2.133e-6
-0.985, 2.138e-6
-0.986, 2.142e-6
-0.987, 2.146e-6
-0.988, 2.151e-6
-0.989, 2.154e-6
-0.990, 2.160e-6
-0.991, 2.165e-6
-0.992, 2.176e-6
-0.993, 2.182e-6
-0.994, 2.185e-6
-0.995, 2.192e-6
-0.996, 2.195e-6
-0.997, 2.199e-6
-0.998, 2.205e-6
-0.999, 2.210e-6
-1.000, 2.217e-6
-1.001, 2.221e-6
-1.002, 2.221e-6
-1.003, 2.227e-6
-1.004, 2.229e-6
-1.005, 2.230e-6
-1.006, 2.238e-6
-1.007, 2.243e-6
-1.008, 2.248e-6
-1.009, 2.252e-6
-1.010, 2.259e-6
-1.011, 2.265e-6
-1.012, 2.270e-6
-1.013, 2.274e-6
-1.014, 2.278e-6
-1.015, 2.283e-6
-1.016, 2.285e-6
-1.017, 2.287e-6
-1.018, 2.293e-6
-1.019, 2.298e-6
-1.020, 2.301e-6
-1.021, 2.308e-6
-1.022, 2.316e-6
-1.023, 2.320e-6
-1.024, 2.327e-6
-1.025, 2.330e-6
-1.026, 2.335e-6
-1.027, 2.344e-6
-1.028, 2.346e-6
-1.029, 2.346e-6
-1.030, 2.360e-6
-1.031, 2.373e-6
-1.032, 2.368e-6
-1.033, 2.367e-6
-1.034, 2.369e-6
-1.035, 2.375e-6
-1.036, 2.375e-6
-1.037, 2.363e-6
-1.038, 2.361e-6
-1.039, 2.367e-6
-1.040, 2.370e-6
-1.041, 2.374e-6
-1.042, 2.378e-6
-1.043, 2.385e-6
-1.044, 2.391e-6
-1.045, 2.395e-6
-1.046, 2.404e-6
-1.047, 2.408e-6
-1.048, 2.414e-6
-1.049, 2.415e-6
-1.050, 2.420e-6
-1.051, 2.426e-6
-1.052, 2.429e-6
-1.053, 2.432e-6
-1.054, 2.435e-6
-1.055, 2.438e-6
-1.056, 2.441e-6
-1.057, 2.445e-6
-1.058, 2.447e-6
-1.059, 2.452e-6
-1.060, 2.457e-6
-1.061, 2.461e-6
-1.062, 2.465e-6
-1.063, 2.470e-6
-1.064, 2.473e-6
-1.065, 2.478e-6
-1.066, 2.481e-6
-1.067, 2.486e-6
-1.068, 2.491e-6
-1.069, 2.494e-6
-1.070, 2.497e-6
-1.071, 2.500e-6
-1.072, 2.502e-6
-1.073, 2.508e-6
-1.074, 2.510e-6
-1.075, 2.519e-6
-1.076, 2.522e-6
-1.077, 2.525e-6
-1.078, 2.531e-6
-1.079, 2.532e-6
-1.080, 2.536e-6
-1.081, 2.542e-6
-1.082, 2.546e-6
-1.083, 2.552e-6
-1.084, 2.555e-6
-1.085, 2.559e-6
-1.086, 2.563e-6
-1.087, 2.565e-6
-1.088, 2.570e-6
-1.089, 2.575e-6
-1.090, 2.576e-6
-1.091, 2.581e-6
-1.092, 2.585e-6
-1.093, 2.590e-6
-1.094, 2.595e-6
-1.095, 2.600e-6
-1.096, 2.603e-6
-1.097, 2.608e-6
-1.098, 2.609e-6
-1.099, 2.614e-6
-1.100, 2.618e-6
-1.101, 2.622e-6
-1.102, 2.627e-6
-1.103, 2.630e-6
-1.104, 2.634e-6
-1.105, 2.639e-6
-1.106, 2.640e-6
-1.107, 2.648e-6
-1.108, 2.652e-6
-1.109, 2.655e-6
-1.110, 2.661e-6
-1.111, 2.665e-6
-1.112, 2.672e-6
-1.113, 2.677e-6
-1.114, 2.682e-6
-1.115, 2.689e-6
-1.116, 2.697e-6
-1.117, 2.702e-6
-1.118, 2.707e-6
-1.119, 2.708e-6
-1.120, 2.710e-6
-1.121, 2.717e-6
-1.122, 2.735e-6
-1.123, 2.760e-6
-1.124, 2.767e-6
-1.125, 2.740e-6
-1.126, 2.727e-6
-1.127, 2.729e-6
-1.128, 2.733e-6
-1.129, 2.737e-6
-1.130, 2.741e-6
-1.131, 2.744e-6
-1.132, 2.750e-6
-1.133, 2.753e-6
-1.134, 2.757e-6
-1.135, 2.760e-6
-1.136, 2.764e-6
-1.137, 2.768e-6
-1.138, 2.772e-6
-1.139, 2.776e-6
-1.140, 2.782e-6
-1.141, 2.784e-6
-1.142, 2.790e-6
-1.143, 2.792e-6
-1.144, 2.797e-6
-1.145, 2.801e-6
-1.146, 2.805e-6
-1.147, 2.809e-6
-1.148, 2.811e-6
-1.149, 2.815e-6
-1.150, 2.822e-6
-1.151, 2.825e-6
-1.152, 2.832e-6
-1.153, 2.834e-6
-1.154, 2.836e-6
-1.155, 2.843e-6
-1.156, 2.846e-6
-1.157, 2.849e-6
-1.158, 2.851e-6
-1.159, 2.853e-6
-1.160, 2.858e-6
-1.161, 2.862e-6
-1.162, 2.865e-6
-1.163, 2.869e-6
-1.164, 2.874e-6
-1.165, 2.880e-6
-1.166, 2.883e-6
-1.167, 2.885e-6
-1.168, 2.890e-6
-1.169, 2.896e-6
-1.170, 2.902e-6
-1.171, 2.911e-6
-1.172, 2.913e-6
-1.173, 2.915e-6
-1.174, 2.917e-6
-1.175, 2.920e-6
-1.176, 2.927e-6
-1.177, 2.933e-6
-1.178, 2.940e-6
-1.179, 2.942e-6
-1.180, 2.947e-6
-1.181, 2.949e-6
-1.182, 2.955e-6
-1.183, 2.959e-6
-1.184, 2.961e-6
-1.185, 2.966e-6
-1.186, 2.968e-6
-1.187, 2.975e-6
-1.188, 2.977e-6
-1.189, 2.981e-6
-1.190, 2.988e-6
-1.191, 2.992e-6
-1.192, 2.995e-6
-1.193, 2.998e-6
-1.194, 2.997e-6
-1.195, 3.005e-6
-1.196, 3.016e-6
-1.197, 3.028e-6
-1.198, 3.035e-6
-1.199, 3.028e-6
-1.200, 3.031e-6
-1.201, 3.028e-6
-1.202, 3.028e-6
-1.203, 3.033e-6
-1.204, 3.032e-6
-1.205, 3.036e-6
-1.206, 3.040e-6
-1.207, 3.044e-6
-1.208, 3.046e-6
-1.209, 3.051e-6
-1.210, 3.055e-6
-1.211, 3.059e-6
-1.212, 3.061e-6
-1.213, 3.064e-6
-1.214, 3.070e-6
-1.215, 3.074e-6
-1.216, 3.081e-6
-1.217, 3.086e-6
-1.218, 3.089e-6
-1.219, 3.093e-6
-1.220, 3.098e-6
-1.221, 3.100e-6
-1.222, 3.106e-6
-1.223, 3.109e-6
-1.224, 3.112e-6
-1.225, 3.117e-6
-1.226, 3.122e-6
-1.227, 3.129e-6
-1.228, 3.134e-6
-1.229, 3.145e-6
-1.230, 3.146e-6
-1.231, 3.150e-6
-1.232, 3.155e-6
-1.233, 3.159e-6
-1.234, 3.160e-6
-1.235, 3.166e-6
-1.236, 3.169e-6
-1.237, 3.174e-6
-1.238, 3.178e-6
-1.239, 3.179e-6
-1.240, 3.183e-6
-1.241, 3.188e-6
-1.242, 3.193e-6
-1.243, 3.195e-6
-1.244, 3.199e-6
-1.245, 3.203e-6
-1.246, 3.208e-6
-1.247, 3.211e-6
-1.248, 3.218e-6
-1.249, 3.223e-6
-1.250, 3.226e-6
-1.251, 3.230e-6
-1.252, 3.236e-6
-1.253, 3.240e-6
-1.254, 3.244e-6
-1.255, 3.249e-6
-1.256, 3.255e-6
-1.257, 3.259e-6
-1.258, 3.262e-6
-1.259, 3.269e-6
-1.260, 3.276e-6
-1.261, 3.281e-6
-1.262, 3.284e-6
-1.263, 3.287e-6
-1.264, 3.298e-6
-1.265, 3.302e-6
-1.266, 3.308e-6
-1.267, 3.316e-6
-1.268, 3.323e-6
-1.269, 3.320e-6
-1.270, 3.325e-6
-1.271, 3.332e-6
-1.272, 3.339e-6
-1.273, 3.343e-6
-1.274, 3.352e-6
-1.275, 3.373e-6
-1.276, 3.401e-6
-1.277, 3.393e-6
-1.278, 3.397e-6
-1.279, 3.403e-6
-1.280, 3.407e-6
-1.281, 3.392e-6
-1.282, 3.393e-6
-1.283, 3.395e-6
-1.284, 3.398e-6
-1.285, 3.404e-6
-1.286, 3.412e-6
-1.287, 3.437e-6
-1.288, 3.476e-6
-1.289, 3.448e-6
-1.290, 3.429e-6
-1.291, 3.445e-6
-1.292, 3.458e-6
-1.293, 3.455e-6
-1.294, 3.452e-6
-1.295, 3.452e-6
-1.296, 3.461e-6
-1.297, 3.470e-6
-1.298, 3.474e-6
-1.299, 3.479e-6
-1.300, 3.484e-6
-1.301, 3.487e-6
-1.302, 3.498e-6
-1.303, 3.497e-6
-1.304, 3.497e-6
-1.305, 3.505e-6
-1.306, 3.506e-6
-1.307, 3.514e-6
-1.308, 3.521e-6
-1.309, 3.516e-6
-1.310, 3.523e-6
-1.311, 3.526e-6
-1.312, 3.534e-6
-1.313, 3.538e-6
-1.314, 3.534e-6
-1.315, 3.540e-6
-1.316, 3.547e-6
-1.317, 3.549e-6
-1.318, 3.550e-6
-1.319, 3.550e-6
-1.320, 3.553e-6
-1.321, 3.558e-6
-1.322, 3.563e-6
-1.323, 3.569e-6
-1.324, 3.570e-6
-1.325, 3.578e-6
-1.326, 3.579e-6
-1.327, 3.582e-6
-1.328, 3.585e-6
-1.329, 3.587e-6
-1.330, 3.584e-6
-1.331, 3.594e-6
-1.332, 3.598e-6
-1.333, 3.595e-6
-1.334, 3.601e-6
-1.335, 3.603e-6
-1.336, 3.607e-6
-1.337, 3.615e-6
-1.338, 3.616e-6
-1.339, 3.621e-6
-1.340, 3.624e-6
-1.341, 3.628e-6
-1.342, 3.638e-6
-1.343, 3.641e-6
-1.344, 3.645e-6
-1.345, 3.650e-6
-1.346, 3.651e-6
-1.347, 3.657e-6
-1.348, 3.662e-6
-1.349, 3.668e-6
-1.350, 3.676e-6
-1.351, 3.682e-6
-1.352, 3.686e-6
-1.353, 3.693e-6
-1.354, 3.695e-6
-1.355, 3.705e-6
-1.356, 3.712e-6
-1.357, 3.718e-6
-1.358, 3.722e-6
-1.359, 3.726e-6
-1.360, 3.732e-6
-1.361, 3.737e-6
-1.362, 3.744e-6
-1.363, 3.751e-6
-1.364, 3.756e-6
-1.365, 3.759e-6
-1.366, 3.767e-6
-1.367, 3.772e-6
-1.368, 3.777e-6
-1.369, 3.783e-6
-1.370, 3.788e-6
-1.371, 3.801e-6
-1.372, 3.805e-6
-1.373, 3.809e-6
-1.374, 3.815e-6
-1.375, 3.822e-6
-1.376, 3.831e-6
-1.377, 3.841e-6
-1.378, 3.846e-6
-1.379, 3.855e-6
-1.380, 3.861e-6
-1.381, 3.868e-6
-1.382, 3.880e-6
-1.383, 3.889e-6
-1.384, 3.895e-6
-1.385, 3.902e-6
-1.386, 3.908e-6
-1.387, 3.916e-6
-1.388, 3.923e-6
-1.389, 3.931e-6
-1.390, 3.940e-6
-1.391, 3.948e-6
-1.392, 3.955e-6
-1.393, 3.962e-6
-1.394, 3.969e-6
-1.395, 3.981e-6
-1.396, 3.989e-6
-1.397, 3.997e-6
-1.398, 4.009e-6
-1.399, 4.019e-6
-1.400, 4.028e-6
-1.401, 4.040e-6
-1.402, 4.049e-6
-1.403, 4.059e-6
-1.404, 4.068e-6
-1.405, 4.078e-6
-1.406, 4.092e-6
-1.407, 4.103e-6
-1.408, 4.115e-6
-1.409, 4.129e-6
-1.410, 4.135e-6
-1.411, 4.146e-6
-1.412, 4.155e-6
-1.413, 4.166e-6
-1.414, 4.180e-6
-1.415, 4.191e-6
-1.416, 4.203e-6
-1.417, 4.214e-6
-1.418, 4.221e-6
-1.419, 4.235e-6
-1.420, 4.250e-6
-1.421, 4.263e-6
-1.422, 4.279e-6
-1.423, 4.290e-6
-1.424, 4.305e-6
-1.425, 4.321e-6
-1.426, 4.336e-6
-1.427, 4.352e-6
-1.428, 4.365e-6
-1.429, 4.379e-6
-1.430, 4.394e-6
-1.431, 4.411e-6
-1.432, 4.428e-6
-1.433, 4.445e-6
-1.434, 4.465e-6
-1.435, 4.481e-6
-1.436, 4.499e-6
-1.437, 4.517e-6
-1.438, 4.535e-6
-1.439, 4.551e-6
-1.440, 4.570e-6
-1.441, 4.590e-6
-1.442, 4.608e-6
-1.443, 4.629e-6
-1.444, 4.650e-6
-1.445, 4.670e-6
-1.446, 4.695e-6
-1.447, 4.714e-6
-1.448, 4.735e-6
-1.449, 4.758e-6
-1.450, 4.780e-6
-1.451, 4.805e-6
-1.452, 4.827e-6
-1.453, 4.848e-6
-1.454, 4.873e-6
-1.455, 4.893e-6
-1.456, 4.919e-6
-1.457, 4.946e-6
-1.458, 4.969e-6
-1.459, 5.000e-6
-1.460, 5.031e-6
-1.461, 5.057e-6
-1.462, 5.078e-6
-1.463, 5.106e-6
-1.464, 5.135e-6
-1.465, 5.166e-6
-1.466, 5.195e-6
-1.467, 5.228e-6
-1.468, 5.256e-6
-1.469, 5.285e-6
-1.470, 5.317e-6
-1.471, 5.352e-6
-1.472, 5.386e-6
-1.473, 5.416e-6
-1.474, 5.449e-6
-1.475, 5.484e-6
-1.476, 5.519e-6
-1.477, 5.558e-6
-1.478, 5.597e-6
-1.479, 5.634e-6
-1.480, 5.672e-6
-1.481, 5.709e-6
-1.482, 5.746e-6
-1.483, 5.788e-6
-1.484, 5.828e-6
-1.485, 5.874e-6
-1.486, 5.912e-6
-1.487, 5.954e-6
-1.488, 5.994e-6
-1.489, 6.044e-6
-1.490, 6.089e-6
-1.491, 6.136e-6
-1.492, 6.184e-6
-1.493, 6.228e-6
-1.494, 6.278e-6
-1.495, 6.326e-6
-1.496, 6.378e-6
-1.497, 6.432e-6
-1.498, 6.482e-6
-1.499, 6.541e-6
-1.500, 6.596e-6
-1.501, 6.652e-6
-1.502, 6.709e-6
-1.503, 6.764e-6
-1.504, 6.824e-6
-1.505, 6.884e-6
-1.506, 6.942e-6
-1.507, 7.007e-6
-1.508, 7.070e-6
-1.509, 7.133e-6
-1.510, 7.196e-6
-1.511, 7.259e-6
-1.512, 7.327e-6
-1.513, 7.394e-6
-1.514, 7.472e-6
-1.515, 7.540e-6
-1.516, 7.619e-6
-1.517, 7.744e-6
-1.518, 7.832e-6
-1.519, 7.876e-6
-1.520, 7.943e-6
-1.521, 8.022e-6
-1.522, 8.086e-6
-1.523, 8.182e-6
-1.524, 8.278e-6
-1.525, 8.418e-6
-1.526, 8.500e-6
-1.527, 8.519e-6
-1.528, 8.600e-6
-1.529, 8.695e-6
-1.530, 8.787e-6
-1.531, 8.881e-6
-1.532, 8.971e-6
-1.533, 9.062e-6
-1.534, 9.163e-6
-1.535, 9.294e-6
-1.536, 9.450e-6
-1.537, 9.555e-6
-1.538, 9.638e-6
-1.539, 9.774e-6
-1.540, 1.001e-5
-1.541, 1.010e-5
-1.542, 1.013e-5
-1.543, 1.018e-5
-1.544, 1.030e-5
-1.545, 1.038e-5
-1.546, 1.047e-5
-1.547, 1.059e-5
-1.548, 1.073e-5
-1.549, 1.085e-5
-1.550, 1.097e-5
-1.551, 1.110e-5
-1.552, 1.123e-5
-1.553, 1.137e-5
-1.554, 1.151e-5
-1.555, 1.165e-5
-1.556, 1.179e-5
-1.557, 1.193e-5
-1.558, 1.207e-5
-1.559, 1.221e-5
-1.560, 1.236e-5
-1.561, 1.253e-5
-1.562, 1.270e-5
-1.563, 1.286e-5
-1.564, 1.302e-5
-1.565, 1.321e-5
-1.566, 1.334e-5
-1.567, 1.347e-5
-1.568, 1.364e-5
-1.569, 1.382e-5
-1.570, 1.399e-5
-1.571, 1.418e-5
-1.572, 1.436e-5
-1.573, 1.455e-5
-1.574, 1.474e-5
-1.575, 1.493e-5
-1.576, 1.514e-5
-1.577, 1.534e-5
-1.578, 1.555e-5
-1.579, 1.576e-5
-1.580, 1.597e-5
-1.581, 1.619e-5
-1.582, 1.642e-5
-1.583, 1.664e-5
-1.584, 1.686e-5
-1.585, 1.710e-5
-1.586, 1.734e-5
-1.587, 1.758e-5
-1.588, 1.783e-5
-1.589, 1.806e-5
-1.590, 1.831e-5
-1.591, 1.857e-5
-1.592, 1.884e-5
-1.593, 1.910e-5
-1.594, 1.937e-5
-1.595, 1.965e-5
-1.596, 1.993e-5
-1.597, 2.021e-5
-1.598, 2.050e-5
-1.599, 2.079e-5
-1.600, 2.110e-5
-1.601, 2.142e-5
-1.602, 2.172e-5
-1.603, 2.204e-5
-1.604, 2.237e-5
-1.605, 2.270e-5
-1.606, 2.304e-5
-1.607, 2.338e-5
-1.608, 2.373e-5
-1.609, 2.410e-5
-1.610, 2.446e-5
-1.611, 2.483e-5
-1.612, 2.521e-5
-1.613, 2.558e-5
-1.614, 2.597e-5
-1.615, 2.643e-5
-1.616, 2.682e-5
-1.617, 2.717e-5
-1.618, 2.761e-5
-1.619, 2.804e-5
-1.620, 2.846e-5
-1.621, 2.893e-5
-1.622, 2.935e-5
-1.623, 2.972e-5
-1.624, 3.016e-5
-1.625, 3.063e-5
-1.626, 3.111e-5
-1.627, 3.160e-5
-1.628, 3.210e-5
-1.629, 3.261e-5
-1.630, 3.314e-5
-1.631, 3.366e-5
-1.632, 3.420e-5
-1.633, 3.474e-5
-1.634, 3.529e-5
-1.635, 3.586e-5
-1.636, 3.644e-5
-1.637, 3.702e-5
-1.638, 3.762e-5
-1.639, 3.825e-5
-1.640, 3.887e-5
-1.641, 3.951e-5
-1.642, 4.016e-5
-1.643, 4.083e-5
-1.644, 4.151e-5
-1.645, 4.219e-5
-1.646, 4.290e-5
-1.647, 4.359e-5
-1.648, 4.430e-5
-1.649, 4.505e-5
-1.650, 4.580e-5
-1.651, 4.658e-5
-1.652, 4.736e-5
-1.653, 4.817e-5
-1.654, 4.899e-5
-1.655, 4.983e-5
-1.656, 5.069e-5
-1.657, 5.155e-5
-1.658, 5.244e-5
-1.659, 5.335e-5
-1.660, 5.427e-5
-1.661, 5.521e-5
-1.662, 5.618e-5
-1.663, 5.717e-5
-1.664, 5.818e-5
-1.665, 5.920e-5
-1.666, 6.023e-5
-1.667, 6.131e-5
-1.668, 6.240e-5
-1.669, 6.351e-5
-1.670, 6.466e-5
-1.671, 6.581e-5
-1.672, 6.699e-5
-1.673, 6.820e-5
-1.674, 6.944e-5
-1.675, 7.070e-5
-1.676, 7.200e-5
-1.677, 7.332e-5
-1.678, 7.466e-5
-1.679, 7.601e-5
-1.680, 7.742e-5
-1.681, 7.887e-5
-1.682, 8.034e-5
-1.683, 8.184e-5
-1.684, 8.337e-5
-1.685, 8.494e-5
-1.686, 8.654e-5
-1.687, 8.817e-5
-1.688, 8.985e-5
-1.689, 9.155e-5
-1.690, 9.332e-5
-1.691, 9.511e-5
-1.692, 9.693e-5
-1.693, 9.880e-5
-1.694, 1.007e-4
-1.695, 1.027e-4
-1.696, 1.047e-4
-1.697, 1.067e-4
-1.698, 1.088e-4
-1.699, 1.109e-4
-1.700, 1.131e-4
-1.701, 1.154e-4
-1.702, 1.177e-4
-1.703, 1.200e-4
-1.704, 1.224e-4
-1.705, 1.248e-4
-1.706, 1.274e-4
-1.707, 1.299e-4
-1.708, 1.326e-4
-1.709, 1.353e-4
-1.710, 1.380e-4
-1.711, 1.408e-4
-1.712, 1.437e-4
-1.713, 1.467e-4
-1.714, 1.497e-4
-1.715, 1.528e-4
-1.716, 1.559e-4
-1.717, 1.592e-4
-1.718, 1.625e-4
-1.719, 1.659e-4
-1.720, 1.694e-4
-1.721, 1.730e-4
-1.722, 1.766e-4
-1.723, 1.804e-4
-1.724, 1.842e-4
-1.725, 1.881e-4
-1.726, 1.921e-4
-1.727, 1.962e-4
-1.728, 2.004e-4
-1.729, 2.047e-4
-1.730, 2.091e-4
-1.731, 2.136e-4
-1.732, 2.182e-4
-1.733, 2.230e-4
-1.734, 2.278e-4
-1.735, 2.328e-4
-1.736, 2.379e-4
-1.737, 2.431e-4
-1.738, 2.485e-4
-1.739, 2.540e-4
-1.740, 2.596e-4
-1.741, 2.653e-4
-1.742, 2.712e-4
-1.743, 2.772e-4
-1.744, 2.834e-4
-1.745, 2.897e-4
-1.746, 2.962e-4
-1.747, 3.029e-4
-1.748, 3.097e-4
-1.749, 3.166e-4
-1.750, 3.237e-4
-1.751, 3.310e-4
-1.752, 3.385e-4
-1.753, 3.462e-4
-1.754, 3.541e-4
-1.755, 3.621e-4
-1.756, 3.703e-4
-1.757, 3.788e-4
-1.758, 3.874e-4
-1.759, 3.963e-4
-1.760, 4.054e-4
-1.761, 4.146e-4
-1.762, 4.241e-4
-1.763, 4.339e-4
-1.764, 4.440e-4
-1.765, 4.542e-4
-1.766, 4.646e-4
-1.767, 4.753e-4
-1.768, 4.862e-4
-1.769, 4.973e-4
-1.770, 5.088e-4
-1.771, 5.206e-4
-1.772, 5.326e-4
-1.773, 5.449e-4
-1.774, 5.575e-4
-1.775, 5.704e-4
-1.776, 5.836e-4
-1.777, 5.971e-4
-1.778, 6.109e-4
-1.779, 6.250e-4
-1.780, 6.395e-4
-1.781, 6.544e-4
-1.782, 6.696e-4
-1.783, 6.849e-4
-1.784, 7.007e-4
-1.785, 7.170e-4
-1.786, 7.334e-4
-1.787, 7.502e-4
-1.788, 7.676e-4
-1.789, 7.854e-4
-1.790, 8.034e-4
-1.791, 8.217e-4
-1.792, 8.407e-4
-1.793, 8.599e-4
-1.794, 8.794e-4
-1.795, 8.996e-4
-1.796, 9.201e-4
-1.797, 9.410e-4
-1.798, 9.625e-4
-1.799, 9.846e-4
-1.800, 1.006e-3
-1.801, 1.011e-3
-1.802, 1.011e-3
-1.803, 1.011e-3
-1.804, 1.011e-3
-1.805, 1.011e-3
-1.806, 1.011e-3
-1.807, 1.011e-3
-1.808, 1.011e-3
-1.809, 1.011e-3
-1.810, 1.011e-3
-1.811, 1.011e-3
-1.812, 1.011e-3
-1.813, 1.011e-3
-1.814, 1.011e-3
-1.815, 1.011e-3
-1.816, 1.011e-3
-1.817, 1.011e-3
-1.818, 1.011e-3
-1.819, 1.011e-3
-1.820, 1.011e-3
-1.821, 1.011e-3
-1.822, 1.011e-3
-1.823, 1.011e-3
-1.824, 1.011e-3
-1.825, 1.011e-3
-1.826, 1.011e-3
-1.827, 1.011e-3
-1.828, 1.011e-3
-1.829, 1.011e-3
-1.830, 1.011e-3
-1.831, 1.011e-3
-1.832, 1.011e-3
-1.833, 1.011e-3
-1.834, 1.011e-3
-1.835, 1.011e-3
-1.836, 1.011e-3
-1.837, 1.011e-3
-1.838, 1.011e-3
-1.839, 1.011e-3
-1.840, 1.011e-3
-1.841, 1.011e-3
-1.842, 1.011e-3
-1.843, 1.011e-3
-1.844, 1.011e-3
-1.845, 1.011e-3
-1.846, 1.011e-3
-1.847, 1.011e-3
-1.848, 1.011e-3
-1.849, 1.011e-3
-1.850, 1.011e-3
-1.851, 1.011e-3
-1.852, 1.011e-3
-1.853, 1.011e-3
-1.854, 1.011e-3
-1.855, 1.011e-3
-1.856, 1.011e-3
-1.857, 1.011e-3
-1.858, 1.011e-3
-1.859, 1.011e-3
-1.860, 1.011e-3
-1.861, 1.011e-3
-1.862, 1.011e-3
-1.863, 1.011e-3
-1.864, 1.011e-3
-1.865, 1.011e-3
-1.866, 1.011e-3
-1.867, 1.011e-3
-1.868, 1.011e-3
-1.869, 1.011e-3
-1.870, 1.011e-3
-1.871, 1.011e-3
-1.872, 1.011e-3
-1.873, 1.011e-3
-1.874, 1.011e-3
-1.875, 1.011e-3
-1.876, 1.011e-3
-1.877, 1.011e-3
-1.878, 1.011e-3
-1.879, 1.011e-3
-1.880, 1.011e-3
-1.881, 1.011e-3
-1.882, 1.011e-3
-1.883, 1.011e-3
-1.884, 1.011e-3
-1.885, 1.011e-3
-1.886, 1.011e-3
-1.887, 1.011e-3
-1.888, 1.011e-3
-1.889, 1.011e-3
-1.890, 1.011e-3
-1.891, 1.011e-3
-1.892, 1.011e-3
-1.893, 1.011e-3
-1.894, 1.011e-3
-1.895, 1.011e-3
-1.896, 1.011e-3
-1.897, 1.011e-3
-1.898, 1.011e-3
-1.899, 1.011e-3
