Oct. 25, 2024   14:54:46
Cyclic Voltammetry
File: c:/users/guazh/data/banditlqv2round1/2024-10-24-exp597\exp597-2024-10-25t14_22_49-arkoh\exp597_cv_sr_700mvs_efin_-2200mv.bin
Data Source:  Experiment
Instrument Model:  CHI760E
Header: CV ran at 700 mVs
Note: 

Init E (V) = -1
High E (V) = -1
Low E (V) = -2.2
Final E (V) = -1
Init P/N = N
Scan Rate (V/s) = 0.7
Segment = 3
Sample Interval (V) = 0.001
Quiet Time (sec) = 2
Sensitivity (A/V) = 0.01
Comp R (ohm) = 0.9

Results:

Channel 1:
Segment 1:
Ep = -1.465V
ip = 5.239e-6A
Ah = 3.923e-7C

Segment 2:

Segment 3:

Potential/V, Current/A

-1.000, 3.239e-6
-1.001, 3.239e-6
-1.002, 3.239e-6
-1.003, 3.239e-6
-1.004, 3.239e-6
-1.005, 3.239e-6
-1.006, 3.239e-6
-1.007, 3.239e-6
-1.008, 3.239e-6
-1.009, 3.239e-6
-1.010, 3.239e-6
-1.011, 3.239e-6
-1.012, 3.239e-6
-1.013, 3.239e-6
-1.014, 3.239e-6
-1.015, 3.239e-6
-1.016, 3.239e-6
-1.017, 3.239e-6
-1.018, 3.239e-6
-1.019, 3.239e-6
-1.020, 3.239e-6
-1.021, 3.239e-6
-1.022, 3.239e-6
-1.023, 3.239e-6
-1.024, 3.239e-6
-1.025, 3.239e-6
-1.026, 3.239e-6
-1.027, 3.239e-6
-1.028, 3.239e-6
-1.029, 3.239e-6
-1.030, 3.239e-6
-1.031, 3.239e-6
-1.032, 3.239e-6
-1.033, 3.239e-6
-1.034, 3.239e-6
-1.035, 3.239e-6
-1.036, 3.239e-6
-1.037, 6.322e-6
-1.038, 3.239e-6
-1.039, 6.322e-6
-1.040, 3.239e-6
-1.041, 3.239e-6
-1.042, 3.239e-6
-1.043, 6.322e-6
-1.044, 3.239e-6
-1.045, 3.239e-6
-1.046, 3.239e-6
-1.047, 3.239e-6
-1.048, 6.322e-6
-1.049, 3.239e-6
-1.050, 3.239e-6
-1.051, 3.239e-6
-1.052, 3.239e-6
-1.053, 3.239e-6
-1.054, 3.239e-6
-1.055, 3.239e-6
-1.056, 3.239e-6
-1.057, 6.322e-6
-1.058, 3.239e-6
-1.059, 3.239e-6
-1.060, 6.322e-6
-1.061, 3.239e-6
-1.062, 3.239e-6
-1.063, 3.239e-6
-1.064, 6.322e-6
-1.065, 3.239e-6
-1.066, 6.322e-6
-1.067, 6.322e-6
-1.068, 3.239e-6
-1.069, 6.322e-6
-1.070, 3.239e-6
-1.071, 6.322e-6
-1.072, 6.322e-6
-1.073, 6.322e-6
-1.074, 3.239e-6
-1.075, 3.239e-6
-1.076, 6.322e-6
-1.077, 6.322e-6
-1.078, 6.322e-6
-1.079, 3.239e-6
-1.080, 3.239e-6
-1.081, 3.239e-6
-1.082, 6.322e-6
-1.083, 6.322e-6
-1.084, 6.322e-6
-1.085, 6.322e-6
-1.086, 3.239e-6
-1.087, 6.322e-6
-1.088, 3.239e-6
-1.089, 6.322e-6
-1.090, 3.239e-6
-1.091, 6.322e-6
-1.092, 6.322e-6
-1.093, 6.322e-6
-1.094, 6.322e-6
-1.095, 6.322e-6
-1.096, 6.322e-6
-1.097, 6.322e-6
-1.098, 6.322e-6
-1.099, 3.239e-6
-1.100, 6.322e-6
-1.101, 6.322e-6
-1.102, 6.322e-6
-1.103, 6.322e-6
-1.104, 6.322e-6
-1.105, 6.322e-6
-1.106, 6.322e-6
-1.107, 6.322e-6
-1.108, 6.322e-6
-1.109, 6.322e-6
-1.110, 6.322e-6
-1.111, 6.322e-6
-1.112, 6.322e-6
-1.113, 3.239e-6
-1.114, 6.322e-6
-1.115, 6.322e-6
-1.116, 6.322e-6
-1.117, 6.322e-6
-1.118, 6.322e-6
-1.119, 6.322e-6
-1.120, 3.239e-6
-1.121, 6.322e-6
-1.122, 6.322e-6
-1.123, 6.322e-6
-1.124, 6.322e-6
-1.125, 6.322e-6
-1.126, 6.322e-6
-1.127, 6.322e-6
-1.128, 6.322e-6
-1.129, 6.322e-6
-1.130, 6.322e-6
-1.131, 6.322e-6
-1.132, 6.322e-6
-1.133, 6.322e-6
-1.134, 6.322e-6
-1.135, 6.322e-6
-1.136, 6.322e-6
-1.137, 6.322e-6
-1.138, 6.322e-6
-1.139, 6.322e-6
-1.140, 6.322e-6
-1.141, 6.322e-6
-1.142, 6.322e-6
-1.143, 6.322e-6
-1.144, 6.322e-6
-1.145, 6.322e-6
-1.146, 6.322e-6
-1.147, 6.322e-6
-1.148, 6.322e-6
-1.149, 6.322e-6
-1.150, 6.322e-6
-1.151, 6.322e-6
-1.152, 6.322e-6
-1.153, 6.322e-6
-1.154, 6.322e-6
-1.155, 6.322e-6
-1.156, 6.322e-6
-1.157, 6.322e-6
-1.158, 6.322e-6
-1.159, 6.322e-6
-1.160, 6.322e-6
-1.161, 6.322e-6
-1.162, 6.322e-6
-1.163, 6.322e-6
-1.164, 6.322e-6
-1.165, 6.322e-6
-1.166, 6.322e-6
-1.167, 6.322e-6
-1.168, 6.322e-6
-1.169, 6.322e-6
-1.170, 6.322e-6
-1.171, 6.322e-6
-1.172, 6.322e-6
-1.173, 6.322e-6
-1.174, 6.322e-6
-1.175, 6.322e-6
-1.176, 9.405e-6
-1.177, 6.322e-6
-1.178, 6.322e-6
-1.179, 6.322e-6
-1.180, 6.322e-6
-1.181, 6.322e-6
-1.182, 9.405e-6
-1.183, 6.322e-6
-1.184, 6.322e-6
-1.185, 6.322e-6
-1.186, 6.322e-6
-1.187, 9.405e-6
-1.188, 6.322e-6
-1.189, 6.322e-6
-1.190, 6.322e-6
-1.191, 6.322e-6
-1.192, 6.322e-6
-1.193, 6.322e-6
-1.194, 9.405e-6
-1.195, 6.322e-6
-1.196, 6.322e-6
-1.197, 6.322e-6
-1.198, 9.405e-6
-1.199, 6.322e-6
-1.200, 9.405e-6
-1.201, 9.405e-6
-1.202, 6.322e-6
-1.203, 6.322e-6
-1.204, 9.405e-6
-1.205, 6.322e-6
-1.206, 6.322e-6
-1.207, 6.322e-6
-1.208, 9.405e-6
-1.209, 6.322e-6
-1.210, 9.405e-6
-1.211, 6.322e-6
-1.212, 9.405e-6
-1.213, 6.322e-6
-1.214, 9.405e-6
-1.215, 6.322e-6
-1.216, 6.322e-6
-1.217, 9.405e-6
-1.218, 6.322e-6
-1.219, 9.405e-6
-1.220, 9.405e-6
-1.221, 9.405e-6
-1.222, 9.405e-6
-1.223, 9.405e-6
-1.224, 9.405e-6
-1.225, 9.405e-6
-1.226, 9.405e-6
-1.227, 6.322e-6
-1.228, 9.405e-6
-1.229, 9.405e-6
-1.230, 9.405e-6
-1.231, 9.405e-6
-1.232, 9.405e-6
-1.233, 9.405e-6
-1.234, 9.405e-6
-1.235, 9.405e-6
-1.236, 6.322e-6
-1.237, 9.405e-6
-1.238, 9.405e-6
-1.239, 9.405e-6
-1.240, 9.405e-6
-1.241, 9.405e-6
-1.242, 9.405e-6
-1.243, 9.405e-6
-1.244, 9.405e-6
-1.245, 9.405e-6
-1.246, 9.405e-6
-1.247, 9.405e-6
-1.248, 9.405e-6
-1.249, 9.405e-6
-1.250, 9.405e-6
-1.251, 9.405e-6
-1.252, 9.405e-6
-1.253, 9.405e-6
-1.254, 9.405e-6
-1.255, 9.405e-6
-1.256, 9.405e-6
-1.257, 9.405e-6
-1.258, 9.405e-6
-1.259, 9.405e-6
-1.260, 9.405e-6
-1.261, 9.405e-6
-1.262, 9.405e-6
-1.263, 9.405e-6
-1.264, 9.405e-6
-1.265, 9.405e-6
-1.266, 9.405e-6
-1.267, 9.405e-6
-1.268, 9.405e-6
-1.269, 9.405e-6
-1.270, 9.405e-6
-1.271, 9.405e-6
-1.272, 9.405e-6
-1.273, 9.405e-6
-1.274, 9.405e-6
-1.275, 9.405e-6
-1.276, 9.405e-6
-1.277, 9.405e-6
-1.278, 9.405e-6
-1.279, 9.405e-6
-1.280, 9.405e-6
-1.281, 9.405e-6
-1.282, 9.405e-6
-1.283, 9.405e-6
-1.284, 9.405e-6
-1.285, 9.405e-6
-1.286, 9.405e-6
-1.287, 9.405e-6
-1.288, 9.405e-6
-1.289, 9.405e-6
-1.290, 9.405e-6
-1.291, 9.405e-6
-1.292, 9.405e-6
-1.293, 9.405e-6
-1.294, 9.405e-6
-1.295, 9.405e-6
-1.296, 9.405e-6
-1.297, 9.405e-6
-1.298, 9.405e-6
-1.299, 9.405e-6
-1.300, 9.405e-6
-1.301, 9.405e-6
-1.302, 9.405e-6
-1.303, 9.405e-6
-1.304, 9.405e-6
-1.305, 9.405e-6
-1.306, 9.405e-6
-1.307, 9.405e-6
-1.308, 9.405e-6
-1.309, 9.405e-6
-1.310, 1.249e-5
-1.311, 9.405e-6
-1.312, 9.405e-6
-1.313, 9.405e-6
-1.314, 1.249e-5
-1.315, 1.249e-5
-1.316, 9.405e-6
-1.317, 9.405e-6
-1.318, 9.405e-6
-1.319, 9.405e-6
-1.320, 9.405e-6
-1.321, 1.249e-5
-1.322, 9.405e-6
-1.323, 9.405e-6
-1.324, 9.405e-6
-1.325, 9.405e-6
-1.326, 9.405e-6
-1.327, 9.405e-6
-1.328, 1.249e-5
-1.329, 9.405e-6
-1.330, 9.405e-6
-1.331, 9.405e-6
-1.332, 9.405e-6
-1.333, 1.249e-5
-1.334, 9.405e-6
-1.335, 1.249e-5
-1.336, 9.405e-6
-1.337, 9.405e-6
-1.338, 9.405e-6
-1.339, 9.405e-6
-1.340, 1.249e-5
-1.341, 9.405e-6
-1.342, 9.405e-6
-1.343, 9.405e-6
-1.344, 9.405e-6
-1.345, 9.405e-6
-1.346, 1.249e-5
-1.347, 9.405e-6
-1.348, 9.405e-6
-1.349, 1.249e-5
-1.350, 9.405e-6
-1.351, 1.249e-5
-1.352, 9.405e-6
-1.353, 9.405e-6
-1.354, 1.249e-5
-1.355, 1.249e-5
-1.356, 9.405e-6
-1.357, 1.249e-5
-1.358, 1.249e-5
-1.359, 9.405e-6
-1.360, 1.249e-5
-1.361, 9.405e-6
-1.362, 1.249e-5
-1.363, 9.405e-6
-1.364, 1.249e-5
-1.365, 1.249e-5
-1.366, 9.405e-6
-1.367, 1.249e-5
-1.368, 1.249e-5
-1.369, 1.249e-5
-1.370, 1.249e-5
-1.371, 1.249e-5
-1.372, 1.249e-5
-1.373, 9.405e-6
-1.374, 1.249e-5
-1.375, 1.249e-5
-1.376, 1.249e-5
-1.377, 9.405e-6
-1.378, 1.249e-5
-1.379, 9.405e-6
-1.380, 1.249e-5
-1.381, 1.249e-5
-1.382, 1.249e-5
-1.383, 1.249e-5
-1.384, 9.405e-6
-1.385, 1.249e-5
-1.386, 1.249e-5
-1.387, 1.249e-5
-1.388, 9.405e-6
-1.389, 1.249e-5
-1.390, 1.249e-5
-1.391, 1.249e-5
-1.392, 1.249e-5
-1.393, 1.249e-5
-1.394, 1.249e-5
-1.395, 1.249e-5
-1.396, 1.249e-5
-1.397, 1.249e-5
-1.398, 1.249e-5
-1.399, 1.249e-5
-1.400, 1.249e-5
-1.401, 1.249e-5
-1.402, 9.405e-6
-1.403, 1.249e-5
-1.404, 1.249e-5
-1.405, 1.249e-5
-1.406, 1.249e-5
-1.407, 1.249e-5
-1.408, 1.249e-5
-1.409, 1.249e-5
-1.410, 1.249e-5
-1.411, 1.249e-5
-1.412, 1.249e-5
-1.413, 1.249e-5
-1.414, 1.249e-5
-1.415, 1.249e-5
-1.416, 1.249e-5
-1.417, 1.249e-5
-1.418, 1.249e-5
-1.419, 1.249e-5
-1.420, 1.249e-5
-1.421, 1.249e-5
-1.422, 1.249e-5
-1.423, 1.249e-5
-1.424, 1.249e-5
-1.425, 1.249e-5
-1.426, 1.249e-5
-1.427, 1.249e-5
-1.428, 1.249e-5
-1.429, 1.249e-5
-1.430, 1.249e-5
-1.431, 1.249e-5
-1.432, 1.249e-5
-1.433, 1.249e-5
-1.434, 1.249e-5
-1.435, 1.249e-5
-1.436, 1.249e-5
-1.437, 1.249e-5
-1.438, 1.249e-5
-1.439, 1.249e-5
-1.440, 1.249e-5
-1.441, 1.249e-5
-1.442, 1.249e-5
-1.443, 1.249e-5
-1.444, 1.249e-5
-1.445, 1.249e-5
-1.446, 1.249e-5
-1.447, 1.249e-5
-1.448, 1.249e-5
-1.449, 1.249e-5
-1.450, 1.249e-5
-1.451, 1.249e-5
-1.452, 1.249e-5
-1.453, 1.249e-5
-1.454, 1.249e-5
-1.455, 1.249e-5
-1.456, 1.249e-5
-1.457, 1.249e-5
-1.458, 1.249e-5
-1.459, 1.249e-5
-1.460, 1.249e-5
-1.461, 1.249e-5
-1.462, 1.249e-5
-1.463, 1.249e-5
-1.464, 1.249e-5
-1.465, 1.557e-5
-1.466, 1.249e-5
-1.467, 1.557e-5
-1.468, 1.249e-5
-1.469, 1.557e-5
-1.470, 1.249e-5
-1.471, 1.249e-5
-1.472, 1.557e-5
-1.473, 1.249e-5
-1.474, 1.249e-5
-1.475, 1.249e-5
-1.476, 1.249e-5
-1.477, 1.249e-5
-1.478, 1.557e-5
-1.479, 1.249e-5
-1.480, 1.249e-5
-1.481, 1.557e-5
-1.482, 1.249e-5
-1.483, 1.249e-5
-1.484, 1.249e-5
-1.485, 1.557e-5
-1.486, 1.249e-5
-1.487, 1.249e-5
-1.488, 1.249e-5
-1.489, 1.557e-5
-1.490, 1.557e-5
-1.491, 1.249e-5
-1.492, 1.557e-5
-1.493, 1.249e-5
-1.494, 1.557e-5
-1.495, 1.249e-5
-1.496, 1.249e-5
-1.497, 1.557e-5
-1.498, 1.249e-5
-1.499, 1.557e-5
-1.500, 1.249e-5
-1.501, 1.557e-5
-1.502, 1.557e-5
-1.503, 1.557e-5
-1.504, 1.249e-5
-1.505, 1.557e-5
-1.506, 1.557e-5
-1.507, 1.249e-5
-1.508, 1.557e-5
-1.509, 1.557e-5
-1.510, 1.557e-5
-1.511, 1.557e-5
-1.512, 1.557e-5
-1.513, 1.557e-5
-1.514, 1.557e-5
-1.515, 1.557e-5
-1.516, 1.249e-5
-1.517, 1.557e-5
-1.518, 1.557e-5
-1.519, 1.557e-5
-1.520, 1.557e-5
-1.521, 1.557e-5
-1.522, 1.557e-5
-1.523, 1.557e-5
-1.524, 1.557e-5
-1.525, 1.557e-5
-1.526, 1.557e-5
-1.527, 1.557e-5
-1.528, 1.557e-5
-1.529, 1.249e-5
-1.530, 1.557e-5
-1.531, 1.557e-5
-1.532, 1.557e-5
-1.533, 1.557e-5
-1.534, 1.557e-5
-1.535, 1.557e-5
-1.536, 1.557e-5
-1.537, 1.557e-5
-1.538, 1.557e-5
-1.539, 1.557e-5
-1.540, 1.557e-5
-1.541, 1.557e-5
-1.542, 1.557e-5
-1.543, 1.557e-5
-1.544, 1.557e-5
-1.545, 1.557e-5
-1.546, 1.557e-5
-1.547, 1.557e-5
-1.548, 1.557e-5
-1.549, 1.557e-5
-1.550, 1.557e-5
-1.551, 1.557e-5
-1.552, 1.557e-5
-1.553, 1.557e-5
-1.554, 1.557e-5
-1.555, 1.557e-5
-1.556, 1.557e-5
-1.557, 1.557e-5
-1.558, 1.557e-5
-1.559, 1.557e-5
-1.560, 1.557e-5
-1.561, 1.557e-5
-1.562, 1.557e-5
-1.563, 1.557e-5
-1.564, 1.557e-5
-1.565, 1.557e-5
-1.566, 1.557e-5
-1.567, 1.557e-5
-1.568, 1.557e-5
-1.569, 1.557e-5
-1.570, 1.557e-5
-1.571, 1.557e-5
-1.572, 1.557e-5
-1.573, 1.557e-5
-1.574, 1.557e-5
-1.575, 1.557e-5
-1.576, 1.557e-5
-1.577, 1.557e-5
-1.578, 1.557e-5
-1.579, 1.557e-5
-1.580, 1.557e-5
-1.581, 1.557e-5
-1.582, 1.557e-5
-1.583, 1.557e-5
-1.584, 1.557e-5
-1.585, 1.865e-5
-1.586, 1.865e-5
-1.587, 1.557e-5
-1.588, 1.557e-5
-1.589, 1.557e-5
-1.590, 1.865e-5
-1.591, 1.557e-5
-1.592, 1.557e-5
-1.593, 1.557e-5
-1.594, 1.557e-5
-1.595, 1.557e-5
-1.596, 1.557e-5
-1.597, 1.865e-5
-1.598, 1.557e-5
-1.599, 1.865e-5
-1.600, 1.557e-5
-1.601, 1.557e-5
-1.602, 1.865e-5
-1.603, 1.865e-5
-1.604, 1.865e-5
-1.605, 1.865e-5
-1.606, 1.865e-5
-1.607, 1.865e-5
-1.608, 1.865e-5
-1.609, 1.557e-5
-1.610, 1.865e-5
-1.611, 1.865e-5
-1.612, 1.865e-5
-1.613, 1.865e-5
-1.614, 1.865e-5
-1.615, 1.865e-5
-1.616, 1.865e-5
-1.617, 1.865e-5
-1.618, 1.865e-5
-1.619, 1.865e-5
-1.620, 1.865e-5
-1.621, 1.865e-5
-1.622, 1.865e-5
-1.623, 1.865e-5
-1.624, 1.865e-5
-1.625, 1.865e-5
-1.626, 1.865e-5
-1.627, 1.865e-5
-1.628, 1.865e-5
-1.629, 1.865e-5
-1.630, 1.865e-5
-1.631, 1.865e-5
-1.632, 1.865e-5
-1.633, 1.865e-5
-1.634, 1.865e-5
-1.635, 1.865e-5
-1.636, 1.865e-5
-1.637, 1.865e-5
-1.638, 1.865e-5
-1.639, 1.865e-5
-1.640, 1.865e-5
-1.641, 1.865e-5
-1.642, 1.865e-5
-1.643, 1.865e-5
-1.644, 1.865e-5
-1.645, 1.865e-5
-1.646, 1.865e-5
-1.647, 2.174e-5
-1.648, 1.865e-5
-1.649, 1.865e-5
-1.650, 1.865e-5
-1.651, 1.865e-5
-1.652, 1.865e-5
-1.653, 1.865e-5
-1.654, 2.174e-5
-1.655, 1.865e-5
-1.656, 2.174e-5
-1.657, 1.865e-5
-1.658, 2.174e-5
-1.659, 2.174e-5
-1.660, 2.174e-5
-1.661, 2.174e-5
-1.662, 1.865e-5
-1.663, 2.174e-5
-1.664, 1.865e-5
-1.665, 2.174e-5
-1.666, 2.174e-5
-1.667, 2.174e-5
-1.668, 2.174e-5
-1.669, 2.174e-5
-1.670, 2.174e-5
-1.671, 2.174e-5
-1.672, 2.174e-5
-1.673, 2.174e-5
-1.674, 2.174e-5
-1.675, 2.174e-5
-1.676, 2.174e-5
-1.677, 2.174e-5
-1.678, 2.174e-5
-1.679, 2.174e-5
-1.680, 2.174e-5
-1.681, 2.174e-5
-1.682, 2.174e-5
-1.683, 2.174e-5
-1.684, 2.174e-5
-1.685, 2.174e-5
-1.686, 2.174e-5
-1.687, 2.174e-5
-1.688, 2.174e-5
-1.689, 2.174e-5
-1.690, 2.482e-5
-1.691, 2.174e-5
-1.692, 2.174e-5
-1.693, 2.174e-5
-1.694, 2.174e-5
-1.695, 2.482e-5
-1.696, 2.174e-5
-1.697, 2.482e-5
-1.698, 2.174e-5
-1.699, 2.482e-5
-1.700, 2.174e-5
-1.701, 2.482e-5
-1.702, 2.482e-5
-1.703, 2.174e-5
-1.704, 2.482e-5
-1.705, 2.174e-5
-1.706, 2.482e-5
-1.707, 2.482e-5
-1.708, 2.482e-5
-1.709, 2.482e-5
-1.710, 2.482e-5
-1.711, 2.482e-5
-1.712, 2.482e-5
-1.713, 2.482e-5
-1.714, 2.482e-5
-1.715, 2.482e-5
-1.716, 2.482e-5
-1.717, 2.482e-5
-1.718, 2.790e-5
-1.719, 2.482e-5
-1.720, 2.482e-5
-1.721, 2.482e-5
-1.722, 2.482e-5
-1.723, 2.482e-5
-1.724, 2.482e-5
-1.725, 2.790e-5
-1.726, 2.482e-5
-1.727, 2.790e-5
-1.728, 2.482e-5
-1.729, 2.790e-5
-1.730, 2.790e-5
-1.731, 2.790e-5
-1.732, 2.790e-5
-1.733, 2.482e-5
-1.734, 2.790e-5
-1.735, 2.790e-5
-1.736, 2.790e-5
-1.737, 2.790e-5
-1.738, 2.790e-5
-1.739, 2.790e-5
-1.740, 2.790e-5
-1.741, 2.790e-5
-1.742, 2.790e-5
-1.743, 3.099e-5
-1.744, 2.790e-5
-1.745, 2.790e-5
-1.746, 2.790e-5
-1.747, 3.099e-5
-1.748, 3.099e-5
-1.749, 3.099e-5
-1.750, 3.099e-5
-1.751, 3.099e-5
-1.752, 3.099e-5
-1.753, 3.099e-5
-1.754, 3.099e-5
-1.755, 3.099e-5
-1.756, 3.099e-5
-1.757, 3.099e-5
-1.758, 3.099e-5
-1.759, 3.099e-5
-1.760, 3.099e-5
-1.761, 3.407e-5
-1.762, 3.407e-5
-1.763, 3.407e-5
-1.764, 3.407e-5
-1.765, 3.407e-5
-1.766, 3.407e-5
-1.767, 3.407e-5
-1.768, 3.407e-5
-1.769, 3.407e-5
-1.770, 3.407e-5
-1.771, 3.407e-5
-1.772, 3.715e-5
-1.773, 3.407e-5
-1.774, 3.715e-5
-1.775, 3.715e-5
-1.776, 3.407e-5
-1.777, 3.715e-5
-1.778, 3.715e-5
-1.779, 3.715e-5
-1.780, 3.715e-5
-1.781, 3.715e-5
-1.782, 3.715e-5
-1.783, 4.024e-5
-1.784, 4.024e-5
-1.785, 4.024e-5
-1.786, 4.024e-5
-1.787, 4.024e-5
-1.788, 4.024e-5
-1.789, 4.024e-5
-1.790, 4.024e-5
-1.791, 4.332e-5
-1.792, 4.024e-5
-1.793, 4.332e-5
-1.794, 4.332e-5
-1.795, 4.332e-5
-1.796, 4.332e-5
-1.797, 4.640e-5
-1.798, 4.332e-5
-1.799, 4.332e-5
-1.800, 4.640e-5
-1.801, 4.640e-5
-1.802, 4.640e-5
-1.803, 4.640e-5
-1.804, 4.640e-5
-1.805, 4.640e-5
-1.806, 4.949e-5
-1.807, 4.949e-5
-1.808, 4.949e-5
-1.809, 4.949e-5
-1.810, 4.949e-5
-1.811, 4.949e-5
-1.812, 5.257e-5
-1.813, 5.257e-5
-1.814, 5.257e-5
-1.815, 5.257e-5
-1.816, 5.565e-5
-1.817, 5.257e-5
-1.818, 5.565e-5
-1.819, 5.565e-5
-1.820, 5.873e-5
-1.821, 5.873e-5
-1.822, 5.873e-5
-1.823, 5.873e-5
-1.824, 5.873e-5
-1.825, 5.873e-5
-1.826, 6.182e-5
-1.827, 6.182e-5
-1.828, 6.182e-5
-1.829, 6.490e-5
-1.830, 6.490e-5
-1.831, 6.490e-5
-1.832, 6.490e-5
-1.833, 6.490e-5
-1.834, 6.798e-5
-1.835, 6.798e-5
-1.836, 6.798e-5
-1.837, 6.798e-5
-1.838, 7.107e-5
-1.839, 7.107e-5
-1.840, 7.107e-5
-1.841, 7.415e-5
-1.842, 7.415e-5
-1.843, 7.415e-5
-1.844, 7.723e-5
-1.845, 7.723e-5
-1.846, 7.723e-5
-1.847, 8.032e-5
-1.848, 8.032e-5
-1.849, 8.032e-5
-1.850, 8.340e-5
-1.851, 8.340e-5
-1.852, 8.648e-5
-1.853, 8.648e-5
-1.854, 8.648e-5
-1.855, 8.957e-5
-1.856, 8.957e-5
-1.857, 9.265e-5
-1.858, 9.265e-5
-1.859, 9.573e-5
-1.860, 9.573e-5
-1.861, 9.573e-5
-1.862, 9.573e-5
-1.863, 9.882e-5
-1.864, 1.019e-4
-1.865, 1.019e-4
-1.866, 1.050e-4
-1.867, 1.050e-4
-1.868, 1.081e-4
-1.869, 1.081e-4
-1.870, 1.111e-4
-1.871, 1.111e-4
-1.872, 1.111e-4
-1.873, 1.142e-4
-1.874, 1.173e-4
-1.875, 1.173e-4
-1.876, 1.204e-4
-1.877, 1.235e-4
-1.878, 1.235e-4
-1.879, 1.266e-4
-1.880, 1.266e-4
-1.881, 1.296e-4
-1.882, 1.327e-4
-1.883, 1.327e-4
-1.884, 1.358e-4
-1.885, 1.358e-4
-1.886, 1.389e-4
-1.887, 1.420e-4
-1.888, 1.451e-4
-1.889, 1.481e-4
-1.890, 1.481e-4
-1.891, 1.512e-4
-1.892, 1.543e-4
-1.893, 1.574e-4
-1.894, 1.574e-4
-1.895, 1.605e-4
-1.896, 1.636e-4
-1.897, 1.666e-4
-1.898, 1.697e-4
-1.899, 1.697e-4
-1.900, 1.759e-4
-1.901, 1.759e-4
-1.902, 1.790e-4
-1.903, 1.821e-4
-1.904, 1.851e-4
-1.905, 1.882e-4
-1.906, 1.913e-4
-1.907, 1.944e-4
-1.908, 1.975e-4
-1.909, 2.006e-4
-1.910, 2.036e-4
-1.911, 2.067e-4
-1.912, 2.098e-4
-1.913, 2.129e-4
-1.914, 2.191e-4
-1.915, 2.221e-4
-1.916, 2.252e-4
-1.917, 2.283e-4
-1.918, 2.314e-4
-1.919, 2.345e-4
-1.920, 2.376e-4
-1.921, 2.437e-4
-1.922, 2.468e-4
-1.923, 2.530e-4
-1.924, 2.561e-4
-1.925, 2.591e-4
-1.926, 2.622e-4
-1.927, 2.684e-4
-1.928, 2.715e-4
-1.929, 2.776e-4
-1.930, 2.807e-4
-1.931, 2.838e-4
-1.932, 2.900e-4
-1.933, 2.931e-4
-1.934, 2.992e-4
-1.935, 3.054e-4
-1.936, 3.085e-4
-1.937, 3.115e-4
-1.938, 3.177e-4
-1.939, 3.239e-4
-1.940, 3.300e-4
-1.941, 3.331e-4
-1.942, 3.393e-4
-1.943, 3.455e-4
-1.944, 3.485e-4
-1.945, 3.547e-4
-1.946, 3.609e-4
-1.947, 3.670e-4
-1.948, 3.732e-4
-1.949, 3.794e-4
-1.950, 3.855e-4
-1.951, 3.917e-4
-1.952, 3.979e-4
-1.953, 4.040e-4
-1.954, 4.102e-4
-1.955, 4.164e-4
-1.956, 4.225e-4
-1.957, 4.287e-4
-1.958, 4.380e-4
-1.959, 4.441e-4
-1.960, 4.503e-4
-1.961, 4.565e-4
-1.962, 4.657e-4
-1.963, 4.719e-4
-1.964, 4.811e-4
-1.965, 4.873e-4
-1.966, 4.935e-4
-1.967, 5.027e-4
-1.968, 5.089e-4
-1.969, 5.181e-4
-1.970, 5.274e-4
-1.971, 5.335e-4
-1.972, 5.428e-4
-1.973, 5.520e-4
-1.974, 5.582e-4
-1.975, 5.674e-4
-1.976, 5.767e-4
-1.977, 5.859e-4
-1.978, 5.921e-4
-1.979, 6.044e-4
-1.980, 6.137e-4
-1.981, 6.229e-4
-1.982, 6.322e-4
-1.983, 6.414e-4
-1.984, 6.507e-4
-1.985, 6.630e-4
-1.986, 6.723e-4
-1.987, 6.815e-4
-1.988, 6.939e-4
-1.989, 7.031e-4
-1.990, 7.124e-4
-1.991, 7.247e-4
-1.992, 7.339e-4
-1.993, 7.463e-4
-1.994, 7.586e-4
-1.995, 7.679e-4
-1.996, 7.802e-4
-1.997, 7.925e-4
-1.998, 8.048e-4
-1.999, 8.141e-4
-2.000, 8.295e-4
-2.001, 8.388e-4
-2.002, 8.542e-4
-2.003, 8.665e-4
-2.004, 8.788e-4
-2.005, 8.912e-4
-2.006, 9.035e-4
-2.007, 9.189e-4
-2.008, 9.313e-4
-2.009, 9.467e-4
-2.010, 9.590e-4
-2.011, 9.713e-4
-2.012, 9.868e-4
-2.013, 9.991e-4
-2.014, 1.014e-3
-2.015, 1.030e-3
-2.016, 1.045e-3
-2.017, 1.061e-3
-2.018, 1.076e-3
-2.019, 1.092e-3
-2.020, 1.107e-3
-2.021, 1.122e-3
-2.022, 1.138e-3
-2.023, 1.153e-3
-2.024, 1.169e-3
-2.025, 1.187e-3
-2.026, 1.203e-3
-2.027, 1.218e-3
-2.028, 1.236e-3
-2.029, 1.252e-3
-2.030, 1.270e-3
-2.031, 1.289e-3
-2.032, 1.307e-3
-2.033, 1.323e-3
-2.034, 1.344e-3
-2.035, 1.360e-3
-2.036, 1.378e-3
-2.037, 1.397e-3
-2.038, 1.415e-3
-2.039, 1.437e-3
-2.040, 1.455e-3
-2.041, 1.477e-3
-2.042, 1.495e-3
-2.043, 1.517e-3
-2.044, 1.536e-3
-2.045, 1.557e-3
-2.046, 1.579e-3
-2.047, 1.597e-3
-2.048, 1.619e-3
-2.049, 1.640e-3
-2.050, 1.662e-3
-2.051, 1.687e-3
-2.052, 1.708e-3
-2.053, 1.730e-3
-2.054, 1.754e-3
-2.055, 1.776e-3
-2.056, 1.798e-3
-2.057, 1.822e-3
-2.058, 1.844e-3
-2.059, 1.865e-3
-2.060, 1.890e-3
-2.061, 1.915e-3
-2.062, 1.939e-3
-2.063, 1.964e-3
-2.064, 1.989e-3
-2.065, 2.013e-3
-2.066, 2.038e-3
-2.067, 2.066e-3
-2.068, 2.091e-3
-2.069, 2.115e-3
-2.070, 2.140e-3
-2.071, 2.168e-3
-2.072, 2.192e-3
-2.073, 2.220e-3
-2.074, 2.248e-3
-2.075, 2.275e-3
-2.076, 2.303e-3
-2.077, 2.331e-3
-2.078, 2.359e-3
-2.079, 2.386e-3
-2.080, 2.414e-3
-2.081, 2.442e-3
-2.082, 2.470e-3
-2.083, 2.497e-3
-2.084, 2.528e-3
-2.085, 2.559e-3
-2.086, 2.590e-3
-2.087, 2.618e-3
-2.088, 2.649e-3
-2.089, 2.679e-3
-2.090, 2.710e-3
-2.091, 2.741e-3
-2.092, 2.772e-3
-2.093, 2.803e-3
-2.094, 2.834e-3
-2.095, 2.864e-3
-2.096, 2.898e-3
-2.097, 2.929e-3
-2.098, 2.963e-3
-2.099, 2.997e-3
-2.100, 3.031e-3
-2.101, 3.065e-3
-2.102, 3.099e-3
-2.103, 3.130e-3
-2.104, 3.163e-3
-2.105, 3.200e-3
-2.106, 3.231e-3
-2.107, 3.265e-3
-2.108, 3.302e-3
-2.109, 3.336e-3
-2.110, 3.373e-3
-2.111, 3.410e-3
-2.112, 3.447e-3
-2.113, 3.484e-3
-2.114, 3.518e-3
-2.115, 3.555e-3
-2.116, 3.592e-3
-2.117, 3.626e-3
-2.118, 3.663e-3
-2.119, 3.700e-3
-2.120, 3.737e-3
-2.121, 3.777e-3
-2.122, 3.814e-3
-2.123, 3.854e-3
-2.124, 3.894e-3
-2.125, 3.934e-3
-2.126, 3.971e-3
-2.127, 4.011e-3
-2.128, 4.051e-3
-2.129, 4.088e-3
-2.130, 4.128e-3
-2.131, 4.169e-3
-2.132, 4.209e-3
-2.133, 4.252e-3
-2.134, 4.292e-3
-2.135, 4.335e-3
-2.136, 4.375e-3
-2.137, 4.418e-3
-2.138, 4.458e-3
-2.139, 4.501e-3
-2.140, 4.542e-3
-2.141, 4.585e-3
-2.142, 4.625e-3
-2.143, 4.668e-3
-2.144, 4.714e-3
-2.145, 4.757e-3
-2.146, 4.804e-3
-2.147, 4.847e-3
-2.148, 4.893e-3
-2.149, 4.939e-3
-2.150, 4.982e-3
-2.151, 5.026e-3
-2.152, 5.072e-3
-2.153, 5.115e-3
-2.154, 5.161e-3
-2.155, 5.204e-3
-2.156, 5.254e-3
-2.157, 5.300e-3
-2.158, 5.346e-3
-2.159, 5.393e-3
-2.160, 5.442e-3
-2.161, 5.488e-3
-2.162, 5.534e-3
-2.163, 5.581e-3
-2.164, 5.630e-3
-2.165, 5.676e-3
-2.166, 5.725e-3
-2.167, 5.775e-3
-2.168, 5.824e-3
-2.169, 5.873e-3
-2.170, 5.923e-3
-2.171, 5.972e-3
-2.172, 6.021e-3
-2.173, 6.068e-3
-2.174, 6.117e-3
-2.175, 6.166e-3
-2.176, 6.216e-3
-2.177, 6.268e-3
-2.178, 6.321e-3
-2.179, 6.373e-3
-2.180, 6.425e-3
-2.181, 6.478e-3
-2.182, 6.530e-3
-2.183, 6.583e-3
-2.184, 6.635e-3
-2.185, 6.684e-3
-2.186, 6.737e-3
-2.187, 6.789e-3
-2.188, 6.842e-3
-2.189, 6.894e-3
-2.190, 6.949e-3
-2.191, 7.005e-3
-2.192, 7.060e-3
-2.193, 7.113e-3
-2.194, 7.171e-3
-2.195, 7.224e-3
-2.196, 7.279e-3
-2.197, 7.332e-3
-2.198, 7.387e-3
-2.199, 7.443e-3
-2.200, 7.461e-3
-2.199, 7.424e-3
-2.198, 7.390e-3
-2.197, 7.356e-3
-2.196, 7.323e-3
-2.195, 7.289e-3
-2.194, 7.252e-3
-2.193, 7.215e-3
-2.192, 7.181e-3
-2.191, 7.141e-3
-2.190, 7.104e-3
-2.189, 7.064e-3
-2.188, 7.027e-3
-2.187, 6.986e-3
-2.186, 6.949e-3
-2.185, 6.916e-3
-2.184, 6.879e-3
-2.183, 6.842e-3
-2.182, 6.805e-3
-2.181, 6.771e-3
-2.180, 6.731e-3
-2.179, 6.691e-3
-2.178, 6.650e-3
-2.177, 6.613e-3
-2.176, 6.573e-3
-2.175, 6.536e-3
-2.174, 6.499e-3
-2.173, 6.462e-3
-2.172, 6.425e-3
-2.171, 6.391e-3
-2.170, 6.351e-3
-2.169, 6.314e-3
-2.168, 6.274e-3
-2.167, 6.234e-3
-2.166, 6.197e-3
-2.165, 6.157e-3
-2.164, 6.117e-3
-2.163, 6.080e-3
-2.162, 6.046e-3
-2.161, 6.009e-3
-2.160, 5.972e-3
-2.159, 5.938e-3
-2.158, 5.901e-3
-2.157, 5.861e-3
-2.156, 5.824e-3
-2.155, 5.784e-3
-2.154, 5.747e-3
-2.153, 5.707e-3
-2.152, 5.670e-3
-2.151, 5.633e-3
-2.150, 5.596e-3
-2.149, 5.559e-3
-2.148, 5.522e-3
-2.147, 5.488e-3
-2.146, 5.451e-3
-2.145, 5.414e-3
-2.144, 5.377e-3
-2.143, 5.337e-3
-2.142, 5.300e-3
-2.141, 5.263e-3
-2.140, 5.229e-3
-2.139, 5.192e-3
-2.138, 5.158e-3
-2.137, 5.124e-3
-2.136, 5.087e-3
-2.135, 5.053e-3
-2.134, 5.016e-3
-2.133, 4.979e-3
-2.132, 4.942e-3
-2.131, 4.905e-3
-2.130, 4.871e-3
-2.129, 4.838e-3
-2.128, 4.801e-3
-2.127, 4.767e-3
-2.126, 4.733e-3
-2.125, 4.699e-3
-2.124, 4.665e-3
-2.123, 4.631e-3
-2.122, 4.597e-3
-2.121, 4.560e-3
-2.120, 4.526e-3
-2.119, 4.489e-3
-2.118, 4.458e-3
-2.117, 4.424e-3
-2.116, 4.391e-3
-2.115, 4.360e-3
-2.114, 4.329e-3
-2.113, 4.295e-3
-2.112, 4.261e-3
-2.111, 4.227e-3
-2.110, 4.193e-3
-2.109, 4.162e-3
-2.108, 4.128e-3
-2.107, 4.095e-3
-2.106, 4.064e-3
-2.105, 4.033e-3
-2.104, 4.002e-3
-2.103, 3.968e-3
-2.102, 3.937e-3
-2.101, 3.906e-3
-2.100, 3.876e-3
-2.099, 3.845e-3
-2.098, 3.814e-3
-2.097, 3.780e-3
-2.096, 3.749e-3
-2.095, 3.718e-3
-2.094, 3.688e-3
-2.093, 3.660e-3
-2.092, 3.629e-3
-2.091, 3.601e-3
-2.090, 3.573e-3
-2.089, 3.543e-3
-2.088, 3.512e-3
-2.087, 3.484e-3
-2.086, 3.453e-3
-2.085, 3.422e-3
-2.084, 3.392e-3
-2.083, 3.364e-3
-2.082, 3.336e-3
-2.081, 3.308e-3
-2.080, 3.281e-3
-2.079, 3.256e-3
-2.078, 3.225e-3
-2.077, 3.200e-3
-2.076, 3.170e-3
-2.075, 3.142e-3
-2.074, 3.114e-3
-2.073, 3.086e-3
-2.072, 3.059e-3
-2.071, 3.031e-3
-2.070, 3.006e-3
-2.069, 2.982e-3
-2.068, 2.954e-3
-2.067, 2.929e-3
-2.066, 2.904e-3
-2.065, 2.877e-3
-2.064, 2.852e-3
-2.063, 2.827e-3
-2.062, 2.800e-3
-2.061, 2.778e-3
-2.060, 2.750e-3
-2.059, 2.726e-3
-2.058, 2.701e-3
-2.057, 2.676e-3
-2.056, 2.655e-3
-2.055, 2.630e-3
-2.054, 2.605e-3
-2.053, 2.584e-3
-2.052, 2.559e-3
-2.051, 2.538e-3
-2.050, 2.513e-3
-2.049, 2.488e-3
-2.048, 2.464e-3
-2.047, 2.442e-3
-2.046, 2.417e-3
-2.045, 2.396e-3
-2.044, 2.374e-3
-2.043, 2.353e-3
-2.042, 2.331e-3
-2.041, 2.309e-3
-2.040, 2.288e-3
-2.039, 2.266e-3
-2.038, 2.245e-3
-2.037, 2.223e-3
-2.036, 2.201e-3
-2.035, 2.180e-3
-2.034, 2.158e-3
-2.033, 2.140e-3
-2.032, 2.121e-3
-2.031, 2.100e-3
-2.030, 2.078e-3
-2.029, 2.060e-3
-2.028, 2.038e-3
-2.027, 2.020e-3
-2.026, 1.998e-3
-2.025, 1.980e-3
-2.024, 1.961e-3
-2.023, 1.943e-3
-2.022, 1.924e-3
-2.021, 1.902e-3
-2.020, 1.884e-3
-2.019, 1.869e-3
-2.018, 1.850e-3
-2.017, 1.832e-3
-2.016, 1.813e-3
-2.015, 1.795e-3
-2.014, 1.776e-3
-2.013, 1.758e-3
-2.012, 1.742e-3
-2.011, 1.724e-3
-2.010, 1.708e-3
-2.009, 1.690e-3
-2.008, 1.674e-3
-2.007, 1.656e-3
-2.006, 1.640e-3
-2.005, 1.625e-3
-2.004, 1.606e-3
-2.003, 1.588e-3
-2.002, 1.573e-3
-2.001, 1.557e-3
-2.000, 1.542e-3
-1.999, 1.526e-3
-1.998, 1.511e-3
-1.997, 1.495e-3
-1.996, 1.480e-3
-1.995, 1.465e-3
-1.994, 1.449e-3
-1.993, 1.434e-3
-1.992, 1.418e-3
-1.991, 1.403e-3
-1.990, 1.391e-3
-1.989, 1.375e-3
-1.988, 1.360e-3
-1.987, 1.347e-3
-1.986, 1.332e-3
-1.985, 1.320e-3
-1.984, 1.307e-3
-1.983, 1.292e-3
-1.982, 1.277e-3
-1.981, 1.264e-3
-1.980, 1.249e-3
-1.979, 1.236e-3
-1.978, 1.224e-3
-1.977, 1.212e-3
-1.976, 1.199e-3
-1.975, 1.187e-3
-1.974, 1.175e-3
-1.973, 1.162e-3
-1.972, 1.150e-3
-1.971, 1.138e-3
-1.970, 1.125e-3
-1.969, 1.113e-3
-1.968, 1.101e-3
-1.967, 1.088e-3
-1.966, 1.076e-3
-1.965, 1.067e-3
-1.964, 1.055e-3
-1.963, 1.042e-3
-1.962, 1.030e-3
-1.961, 1.021e-3
-1.960, 1.008e-3
-1.959, 9.991e-4
-1.958, 9.868e-4
-1.957, 9.744e-4
-1.956, 9.652e-4
-1.955, 9.528e-4
-1.954, 9.405e-4
-1.953, 9.313e-4
-1.952, 9.220e-4
-1.951, 9.128e-4
-1.950, 9.004e-4
-1.949, 8.912e-4
-1.948, 8.819e-4
-1.947, 8.727e-4
-1.946, 8.603e-4
-1.945, 8.511e-4
-1.944, 8.418e-4
-1.943, 8.326e-4
-1.942, 8.233e-4
-1.941, 8.110e-4
-1.940, 8.048e-4
-1.939, 7.956e-4
-1.938, 7.863e-4
-1.937, 7.771e-4
-1.936, 7.679e-4
-1.935, 7.586e-4
-1.934, 7.494e-4
-1.933, 7.401e-4
-1.932, 7.309e-4
-1.931, 7.216e-4
-1.930, 7.154e-4
-1.929, 7.062e-4
-1.928, 7.000e-4
-1.927, 6.908e-4
-1.926, 6.815e-4
-1.925, 6.723e-4
-1.924, 6.661e-4
-1.923, 6.569e-4
-1.922, 6.507e-4
-1.921, 6.414e-4
-1.920, 6.322e-4
-1.919, 6.260e-4
-1.918, 6.199e-4
-1.917, 6.137e-4
-1.916, 6.044e-4
-1.915, 5.983e-4
-1.914, 5.890e-4
-1.913, 5.829e-4
-1.912, 5.767e-4
-1.911, 5.674e-4
-1.910, 5.613e-4
-1.909, 5.520e-4
-1.908, 5.459e-4
-1.907, 5.397e-4
-1.906, 5.335e-4
-1.905, 5.274e-4
-1.904, 5.212e-4
-1.903, 5.150e-4
-1.902, 5.089e-4
-1.901, 5.027e-4
-1.900, 4.935e-4
-1.899, 4.904e-4
-1.898, 4.811e-4
-1.897, 4.750e-4
-1.896, 4.688e-4
-1.895, 4.626e-4
-1.894, 4.595e-4
-1.893, 4.534e-4
-1.892, 4.472e-4
-1.891, 4.410e-4
-1.890, 4.349e-4
-1.889, 4.287e-4
-1.888, 4.256e-4
-1.887, 4.195e-4
-1.886, 4.133e-4
-1.885, 4.071e-4
-1.884, 4.010e-4
-1.883, 3.979e-4
-1.882, 3.917e-4
-1.881, 3.886e-4
-1.880, 3.825e-4
-1.879, 3.763e-4
-1.878, 3.732e-4
-1.877, 3.670e-4
-1.876, 3.609e-4
-1.875, 3.578e-4
-1.874, 3.516e-4
-1.873, 3.455e-4
-1.872, 3.424e-4
-1.871, 3.393e-4
-1.870, 3.331e-4
-1.869, 3.300e-4
-1.868, 3.239e-4
-1.867, 3.208e-4
-1.866, 3.146e-4
-1.865, 3.115e-4
-1.864, 3.085e-4
-1.863, 3.023e-4
-1.862, 2.992e-4
-1.861, 2.931e-4
-1.860, 2.900e-4
-1.859, 2.869e-4
-1.858, 2.838e-4
-1.857, 2.776e-4
-1.856, 2.746e-4
-1.855, 2.715e-4
-1.854, 2.684e-4
-1.853, 2.653e-4
-1.852, 2.591e-4
-1.851, 2.561e-4
-1.850, 2.530e-4
-1.849, 2.499e-4
-1.848, 2.437e-4
-1.847, 2.406e-4
-1.846, 2.376e-4
-1.845, 2.345e-4
-1.844, 2.314e-4
-1.843, 2.283e-4
-1.842, 2.252e-4
-1.841, 2.221e-4
-1.840, 2.191e-4
-1.839, 2.160e-4
-1.838, 2.129e-4
-1.837, 2.098e-4
-1.836, 2.067e-4
-1.835, 2.036e-4
-1.834, 2.006e-4
-1.833, 1.975e-4
-1.832, 1.944e-4
-1.831, 1.913e-4
-1.830, 1.882e-4
-1.829, 1.851e-4
-1.828, 1.821e-4
-1.827, 1.790e-4
-1.826, 1.790e-4
-1.825, 1.759e-4
-1.824, 1.728e-4
-1.823, 1.697e-4
-1.822, 1.666e-4
-1.821, 1.636e-4
-1.820, 1.605e-4
-1.819, 1.605e-4
-1.818, 1.574e-4
-1.817, 1.543e-4
-1.816, 1.512e-4
-1.815, 1.512e-4
-1.814, 1.481e-4
-1.813, 1.451e-4
-1.812, 1.420e-4
-1.811, 1.389e-4
-1.810, 1.389e-4
-1.809, 1.358e-4
-1.808, 1.358e-4
-1.807, 1.327e-4
-1.806, 1.296e-4
-1.805, 1.296e-4
-1.804, 1.266e-4
-1.803, 1.235e-4
-1.802, 1.204e-4
-1.801, 1.204e-4
-1.800, 1.173e-4
-1.799, 1.173e-4
-1.798, 1.142e-4
-1.797, 1.142e-4
-1.796, 1.111e-4
-1.795, 1.111e-4
-1.794, 1.081e-4
-1.793, 1.050e-4
-1.792, 1.050e-4
-1.791, 1.019e-4
-1.790, 1.019e-4
-1.789, 9.882e-5
-1.788, 9.573e-5
-1.787, 9.573e-5
-1.786, 9.573e-5
-1.785, 9.265e-5
-1.784, 9.265e-5
-1.783, 8.957e-5
-1.782, 8.648e-5
-1.781, 8.648e-5
-1.780, 8.648e-5
-1.779, 8.340e-5
-1.778, 8.340e-5
-1.777, 8.032e-5
-1.776, 8.032e-5
-1.775, 7.723e-5
-1.774, 7.723e-5
-1.773, 7.415e-5
-1.772, 7.415e-5
-1.771, 7.415e-5
-1.770, 7.107e-5
-1.769, 7.107e-5
-1.768, 6.798e-5
-1.767, 6.798e-5
-1.766, 6.798e-5
-1.765, 6.490e-5
-1.764, 6.490e-5
-1.763, 6.490e-5
-1.762, 6.182e-5
-1.761, 6.182e-5
-1.760, 6.182e-5
-1.759, 5.873e-5
-1.758, 5.873e-5
-1.757, 5.565e-5
-1.756, 5.565e-5
-1.755, 5.565e-5
-1.754, 5.565e-5
-1.753, 5.565e-5
-1.752, 5.257e-5
-1.751, 5.257e-5
-1.750, 4.949e-5
-1.749, 4.949e-5
-1.748, 4.949e-5
-1.747, 4.949e-5
-1.746, 4.640e-5
-1.745, 4.640e-5
-1.744, 4.640e-5
-1.743, 4.332e-5
-1.742, 4.332e-5
-1.741, 4.332e-5
-1.740, 4.332e-5
-1.739, 4.332e-5
-1.738, 4.024e-5
-1.737, 4.024e-5
-1.736, 4.024e-5
-1.735, 3.715e-5
-1.734, 3.715e-5
-1.733, 3.715e-5
-1.732, 3.715e-5
-1.731, 3.715e-5
-1.730, 3.715e-5
-1.729, 3.407e-5
-1.728, 3.407e-5
-1.727, 3.099e-5
-1.726, 3.407e-5
-1.725, 3.099e-5
-1.724, 3.099e-5
-1.723, 3.099e-5
-1.722, 2.790e-5
-1.721, 3.099e-5
-1.720, 2.790e-5
-1.719, 2.790e-5
-1.718, 2.790e-5
-1.717, 2.790e-5
-1.716, 2.790e-5
-1.715, 2.482e-5
-1.714, 2.482e-5
-1.713, 2.482e-5
-1.712, 2.482e-5
-1.711, 2.482e-5
-1.710, 2.482e-5
-1.709, 2.482e-5
-1.708, 2.174e-5
-1.707, 2.174e-5
-1.706, 2.174e-5
-1.705, 2.174e-5
-1.704, 2.174e-5
-1.703, 2.174e-5
-1.702, 1.865e-5
-1.701, 2.174e-5
-1.700, 1.865e-5
-1.699, 1.865e-5
-1.698, 1.865e-5
-1.697, 1.865e-5
-1.696, 1.865e-5
-1.695, 1.865e-5
-1.694, 1.865e-5
-1.693, 1.557e-5
-1.692, 1.557e-5
-1.691, 1.557e-5
-1.690, 1.557e-5
-1.689, 1.557e-5
-1.688, 1.557e-5
-1.687, 1.557e-5
-1.686, 1.249e-5
-1.685, 1.557e-5
-1.684, 1.557e-5
-1.683, 1.557e-5
-1.682, 1.557e-5
-1.681, 1.249e-5
-1.680, 1.249e-5
-1.679, 1.249e-5
-1.678, 1.249e-5
-1.677, 1.249e-5
-1.676, 1.249e-5
-1.675, 1.249e-5
-1.674, 9.405e-6
-1.673, 1.249e-5
-1.672, 1.249e-5
-1.671, 1.249e-5
-1.670, 9.405e-6
-1.669, 9.405e-6
-1.668, 9.405e-6
-1.667, 9.405e-6
-1.666, 9.405e-6
-1.665, 9.405e-6
-1.664, 9.405e-6
-1.663, 9.405e-6
-1.662, 9.405e-6
-1.661, 9.405e-6
-1.660, 9.405e-6
-1.659, 9.405e-6
-1.658, 6.322e-6
-1.657, 9.405e-6
-1.656, 9.405e-6
-1.655, 9.405e-6
-1.654, 6.322e-6
-1.653, 9.405e-6
-1.652, 6.322e-6
-1.651, 9.405e-6
-1.650, 6.322e-6
-1.649, 6.322e-6
-1.648, 6.322e-6
-1.647, 6.322e-6
-1.646, 6.322e-6
-1.645, 6.322e-6
-1.644, 6.322e-6
-1.643, 6.322e-6
-1.642, 6.322e-6
-1.641, 6.322e-6
-1.640, 6.322e-6
-1.639, 6.322e-6
-1.638, 6.322e-6
-1.637, 6.322e-6
-1.636, 3.239e-6
-1.635, 3.239e-6
-1.634, 6.322e-6
-1.633, 6.322e-6
-1.632, 6.322e-6
-1.631, 3.239e-6
-1.630, 3.239e-6
-1.629, 3.239e-6
-1.628, 3.239e-6
-1.627, 3.239e-6
-1.626, 3.239e-6
-1.625, 6.322e-6
-1.624, 3.239e-6
-1.623, 3.239e-6
-1.622, 3.239e-6
-1.621, 3.239e-6
-1.620, 3.239e-6
-1.619, 3.239e-6
-1.618, 3.239e-6
-1.617, 3.239e-6
-1.616, 3.239e-6
-1.615, 3.239e-6
-1.614, 3.239e-6
-1.613, 3.239e-6
-1.612, 3.239e-6
-1.611, 3.239e-6
-1.610, 3.239e-6
-1.609, 3.239e-6
-1.608, 3.239e-6
-1.607, 3.239e-6
-1.606, 3.239e-6
-1.605, 3.239e-6
-1.604, 1.559e-7
-1.603, 3.239e-6
-1.602, 3.239e-6
-1.601, 3.239e-6
-1.600, 3.239e-6
-1.599, 1.559e-7
-1.598, 3.239e-6
-1.597, 1.559e-7
-1.596, 3.239e-6
-1.595, 3.239e-6
-1.594, 3.239e-6
-1.593, 1.559e-7
-1.592, 3.239e-6
-1.591, 3.239e-6
-1.590, 3.239e-6
-1.589, 1.559e-7
-1.588, 1.559e-7
-1.587, 1.559e-7
-1.586, 3.239e-6
-1.585, 1.559e-7
-1.584, 1.559e-7
-1.583, 1.559e-7
-1.582, 3.239e-6
-1.581, 1.559e-7
-1.580, 1.559e-7
-1.579, 1.559e-7
-1.578, 1.559e-7
-1.577, 1.559e-7
-1.576, 1.559e-7
-1.575, 1.559e-7
-1.574, 1.559e-7
-1.573, 1.559e-7
-1.572, 1.559e-7
-1.571, 1.559e-7
-1.570, 1.559e-7
-1.569, 1.559e-7
-1.568, 1.559e-7
-1.567, 1.559e-7
-1.566, 1.559e-7
-1.565, 1.559e-7
-1.564, 1.559e-7
-1.563, 1.559e-7
-1.562, 1.559e-7
-1.561, 1.559e-7
-1.560, 1.559e-7
-1.559, 1.559e-7
-1.558, 1.559e-7
-1.557, 1.559e-7
-1.556, 1.559e-7
-1.555, 1.559e-7
-1.554, 1.559e-7
-1.553, 1.559e-7
-1.552, 1.559e-7
-1.551, 1.559e-7
-1.550, 1.559e-7
-1.549, 1.559e-7
-1.548, 1.559e-7
-1.547, 1.559e-7
-1.546, 1.559e-7
-1.545, 1.559e-7
-1.544, 1.559e-7
-1.543, 1.559e-7
-1.542, 1.559e-7
-1.541, 1.559e-7
-1.540, 1.559e-7
-1.539, 1.559e-7
-1.538, 1.559e-7
-1.537, 1.559e-7
-1.536, 1.559e-7
-1.535, 1.559e-7
-1.534, 1.559e-7
-1.533, 1.559e-7
-1.532, 1.559e-7
-1.531, 1.559e-7
-1.530, 1.559e-7
-1.529, 1.559e-7
-1.528, 1.559e-7
-1.527, 1.559e-7
-1.526, 1.559e-7
-1.525, 1.559e-7
-1.524, 1.559e-7
-1.523, 1.559e-7
-1.522, 1.559e-7
-1.521, 1.559e-7
-1.520, 1.559e-7
-1.519, 1.559e-7
-1.518, 1.559e-7
-1.517, 1.559e-7
-1.516, 1.559e-7
-1.515, -2.927e-6
-1.514, 1.559e-7
-1.513, 1.559e-7
-1.512, 1.559e-7
-1.511, 1.559e-7
-1.510, 1.559e-7
-1.509, 1.559e-7
-1.508, 1.559e-7
-1.507, 1.559e-7
-1.506, 1.559e-7
-1.505, 1.559e-7
-1.504, 1.559e-7
-1.503, 1.559e-7
-1.502, 1.559e-7
-1.501, -2.927e-6
-1.500, 1.559e-7
-1.499, -2.927e-6
-1.498, 1.559e-7
-1.497, 1.559e-7
-1.496, 1.559e-7
-1.495, 1.559e-7
-1.494, 1.559e-7
-1.493, 1.559e-7
-1.492, -2.927e-6
-1.491, 1.559e-7
-1.490, -2.927e-6
-1.489, 1.559e-7
-1.488, 1.559e-7
-1.487, -2.927e-6
-1.486, 1.559e-7
-1.485, 1.559e-7
-1.484, 1.559e-7
-1.483, -2.927e-6
-1.482, 1.559e-7
-1.481, -2.927e-6
-1.480, 1.559e-7
-1.479, 1.559e-7
-1.478, 1.559e-7
-1.477, 1.559e-7
-1.476, -2.927e-6
-1.475, 1.559e-7
-1.474, 1.559e-7
-1.473, 1.559e-7
-1.472, -2.927e-6
-1.471, 1.559e-7
-1.470, 1.559e-7
-1.469, -2.927e-6
-1.468, 1.559e-7
-1.467, -2.927e-6
-1.466, 1.559e-7
-1.465, -2.927e-6
-1.464, 1.559e-7
-1.463, 1.559e-7
-1.462, 1.559e-7
-1.461, 1.559e-7
-1.460, -2.927e-6
-1.459, 1.559e-7
-1.458, -2.927e-6
-1.457, -2.927e-6
-1.456, 1.559e-7
-1.455, 1.559e-7
-1.454, 1.559e-7
-1.453, -2.927e-6
-1.452, 1.559e-7
-1.451, -2.927e-6
-1.450, 1.559e-7
-1.449, 1.559e-7
-1.448, 1.559e-7
-1.447, 1.559e-7
-1.446, -2.927e-6
-1.445, 1.559e-7
-1.444, -2.927e-6
-1.443, 1.559e-7
-1.442, -2.927e-6
-1.441, 1.559e-7
-1.440, -2.927e-6
-1.439, -2.927e-6
-1.438, 1.559e-7
-1.437, -2.927e-6
-1.436, -2.927e-6
-1.435, -2.927e-6
-1.434, 1.559e-7
-1.433, 1.559e-7
-1.432, 1.559e-7
-1.431, -2.927e-6
-1.430, -2.927e-6
-1.429, -2.927e-6
-1.428, 1.559e-7
-1.427, 1.559e-7
-1.426, 1.559e-7
-1.425, -2.927e-6
-1.424, -2.927e-6
-1.423, -2.927e-6
-1.422, -2.927e-6
-1.421, -2.927e-6
-1.420, -2.927e-6
-1.419, -2.927e-6
-1.418, 1.559e-7
-1.417, -2.927e-6
-1.416, 1.559e-7
-1.415, 1.559e-7
-1.414, 1.559e-7
-1.413, 1.559e-7
-1.412, -2.927e-6
-1.411, 1.559e-7
-1.410, -2.927e-6
-1.409, 1.559e-7
-1.408, -2.927e-6
-1.407, -2.927e-6
-1.406, 1.559e-7
-1.405, -2.927e-6
-1.404, 1.559e-7
-1.403, 1.559e-7
-1.402, -2.927e-6
-1.401, -2.927e-6
-1.400, -2.927e-6
-1.399, -2.927e-6
-1.398, -2.927e-6
-1.397, 1.559e-7
-1.396, -2.927e-6
-1.395, -2.927e-6
-1.394, -2.927e-6
-1.393, -2.927e-6
-1.392, -2.927e-6
-1.391, 1.559e-7
-1.390, 1.559e-7
-1.389, -2.927e-6
-1.388, -2.927e-6
-1.387, -2.927e-6
-1.386, -2.927e-6
-1.385, -2.927e-6
-1.384, -2.927e-6
-1.383, 1.559e-7
-1.382, -2.927e-6
-1.381, -2.927e-6
-1.380, -2.927e-6
-1.379, -2.927e-6
-1.378, -2.927e-6
-1.377, -2.927e-6
-1.376, -2.927e-6
-1.375, -2.927e-6
-1.374, 1.559e-7
-1.373, -2.927e-6
-1.372, -2.927e-6
-1.371, -2.927e-6
-1.370, -2.927e-6
-1.369, -2.927e-6
-1.368, 1.559e-7
-1.367, -2.927e-6
-1.366, -2.927e-6
-1.365, -2.927e-6
-1.364, -2.927e-6
-1.363, 1.559e-7
-1.362, -2.927e-6
-1.361, -2.927e-6
-1.360, -2.927e-6
-1.359, -2.927e-6
-1.358, -2.927e-6
-1.357, 1.559e-7
-1.356, -2.927e-6
-1.355, -2.927e-6
-1.354, -2.927e-6
-1.353, -2.927e-6
-1.352, -2.927e-6
-1.351, -2.927e-6
-1.350, -2.927e-6
-1.349, -2.927e-6
-1.348, -2.927e-6
-1.347, -2.927e-6
-1.346, -2.927e-6
-1.345, 1.559e-7
-1.344, -2.927e-6
-1.343, -2.927e-6
-1.342, -2.927e-6
-1.341, -2.927e-6
-1.340, 1.559e-7
-1.339, -2.927e-6
-1.338, 1.559e-7
-1.337, -2.927e-6
-1.336, -2.927e-6
-1.335, -2.927e-6
-1.334, -2.927e-6
-1.333, 1.559e-7
-1.332, -2.927e-6
-1.331, 1.559e-7
-1.330, -2.927e-6
-1.329, -2.927e-6
-1.328, -2.927e-6
-1.327, -2.927e-6
-1.326, -2.927e-6
-1.325, 1.559e-7
-1.324, -2.927e-6
-1.323, -2.927e-6
-1.322, -2.927e-6
-1.321, -2.927e-6
-1.320, -2.927e-6
-1.319, -2.927e-6
-1.318, -2.927e-6
-1.317, -2.927e-6
-1.316, -2.927e-6
-1.315, -2.927e-6
-1.314, -2.927e-6
-1.313, -2.927e-6
-1.312, -2.927e-6
-1.311, -2.927e-6
-1.310, -2.927e-6
-1.309, -2.927e-6
-1.308, -2.927e-6
-1.307, -2.927e-6
-1.306, -2.927e-6
-1.305, -2.927e-6
-1.304, -2.927e-6
-1.303, -2.927e-6
-1.302, -2.927e-6
-1.301, -2.927e-6
-1.300, -2.927e-6
-1.299, 1.559e-7
-1.298, -2.927e-6
-1.297, -2.927e-6
-1.296, -2.927e-6
-1.295, -2.927e-6
-1.294, -2.927e-6
-1.293, -2.927e-6
-1.292, -2.927e-6
-1.291, -2.927e-6
-1.290, -2.927e-6
-1.289, -2.927e-6
-1.288, -2.927e-6
-1.287, -2.927e-6
-1.286, -2.927e-6
-1.285, -2.927e-6
-1.284, -2.927e-6
-1.283, -2.927e-6
-1.282, -2.927e-6
-1.281, -2.927e-6
-1.280, -2.927e-6
-1.279, -2.927e-6
-1.278, -2.927e-6
-1.277, -2.927e-6
-1.276, -2.927e-6
-1.275, -2.927e-6
-1.274, -2.927e-6
-1.273, -2.927e-6
-1.272, -2.927e-6
-1.271, -2.927e-6
-1.270, -2.927e-6
-1.269, -2.927e-6
-1.268, -2.927e-6
-1.267, -2.927e-6
-1.266, -2.927e-6
-1.265, -2.927e-6
-1.264, -2.927e-6
-1.263, -2.927e-6
-1.262, -2.927e-6
-1.261, -2.927e-6
-1.260, -2.927e-6
-1.259, -2.927e-6
-1.258, -2.927e-6
-1.257, 1.559e-7
-1.256, -2.927e-6
-1.255, -2.927e-6
-1.254, -2.927e-6
-1.253, -2.927e-6
-1.252, -2.927e-6
-1.251, -2.927e-6
-1.250, -2.927e-6
-1.249, -2.927e-6
-1.248, -2.927e-6
-1.247, -2.927e-6
-1.246, -2.927e-6
-1.245, -2.927e-6
-1.244, -2.927e-6
-1.243, -2.927e-6
-1.242, -2.927e-6
-1.241, -2.927e-6
-1.240, -2.927e-6
-1.239, -2.927e-6
-1.238, -2.927e-6
-1.237, -2.927e-6
-1.236, -2.927e-6
-1.235, -2.927e-6
-1.234, -2.927e-6
-1.233, -2.927e-6
-1.232, -2.927e-6
-1.231, -2.927e-6
-1.230, -2.927e-6
-1.229, -2.927e-6
-1.228, -2.927e-6
-1.227, -2.927e-6
-1.226, -2.927e-6
-1.225, -2.927e-6
-1.224, -2.927e-6
-1.223, -2.927e-6
-1.222, -2.927e-6
-1.221, -2.927e-6
-1.220, -2.927e-6
-1.219, -2.927e-6
-1.218, -2.927e-6
-1.217, 1.559e-7
-1.216, -2.927e-6
-1.215, -2.927e-6
-1.214, -2.927e-6
-1.213, -2.927e-6
-1.212, -2.927e-6
-1.211, -2.927e-6
-1.210, -2.927e-6
-1.209, -2.927e-6
-1.208, -2.927e-6
-1.207, -2.927e-6
-1.206, -2.927e-6
-1.205, -2.927e-6
-1.204, -2.927e-6
-1.203, -2.927e-6
-1.202, -2.927e-6
-1.201, -2.927e-6
-1.200, -2.927e-6
-1.199, -2.927e-6
-1.198, -2.927e-6
-1.197, -2.927e-6
-1.196, -2.927e-6
-1.195, -2.927e-6
-1.194, -2.927e-6
-1.193, -2.927e-6
-1.192, -2.927e-6
-1.191, -2.927e-6
-1.190, -2.927e-6
-1.189, -2.927e-6
-1.188, -2.927e-6
-1.187, -2.927e-6
-1.186, -2.927e-6
-1.185, -2.927e-6
-1.184, -2.927e-6
-1.183, -2.927e-6
-1.182, -2.927e-6
-1.181, -2.927e-6
-1.180, -2.927e-6
-1.179, -2.927e-6
-1.178, -2.927e-6
-1.177, -2.927e-6
-1.176, -2.927e-6
-1.175, -2.927e-6
-1.174, -2.927e-6
-1.173, -2.927e-6
-1.172, -2.927e-6
-1.171, -2.927e-6
-1.170, -2.927e-6
-1.169, -2.927e-6
-1.168, -2.927e-6
-1.167, -2.927e-6
-1.166, -2.927e-6
-1.165, -2.927e-6
-1.164, -2.927e-6
-1.163, -2.927e-6
-1.162, -2.927e-6
-1.161, -2.927e-6
-1.160, -2.927e-6
-1.159, -2.927e-6
-1.158, -2.927e-6
-1.157, -2.927e-6
-1.156, -2.927e-6
-1.155, -2.927e-6
-1.154, -2.927e-6
-1.153, -2.927e-6
-1.152, -2.927e-6
-1.151, -2.927e-6
-1.150, -2.927e-6
-1.149, -2.927e-6
-1.148, -2.927e-6
-1.147, -2.927e-6
-1.146, -2.927e-6
-1.145, -2.927e-6
-1.144, -2.927e-6
-1.143, -2.927e-6
-1.142, -2.927e-6
-1.141, -2.927e-6
-1.140, -2.927e-6
-1.139, -2.927e-6
-1.138, -2.927e-6
-1.137, -2.927e-6
-1.136, -2.927e-6
-1.135, -2.927e-6
-1.134, -2.927e-6
-1.133, -2.927e-6
-1.132, -2.927e-6
-1.131, -2.927e-6
-1.130, -2.927e-6
-1.129, -2.927e-6
-1.128, -2.927e-6
-1.127, -2.927e-6
-1.126, -2.927e-6
-1.125, -2.927e-6
-1.124, -2.927e-6
-1.123, -2.927e-6
-1.122, -2.927e-6
-1.121, -2.927e-6
-1.120, -2.927e-6
-1.119, -2.927e-6
-1.118, -2.927e-6
-1.117, -2.927e-6
-1.116, -2.927e-6
-1.115, -2.927e-6
-1.114, -2.927e-6
-1.113, -2.927e-6
-1.112, -2.927e-6
-1.111, -2.927e-6
-1.110, -2.927e-6
-1.109, -2.927e-6
-1.108, -2.927e-6
-1.107, -2.927e-6
-1.106, -2.927e-6
-1.105, -2.927e-6
-1.104, -2.927e-6
-1.103, -2.927e-6
-1.102, -2.927e-6
-1.101, -2.927e-6
-1.100, -2.927e-6
-1.099, -2.927e-6
-1.098, -2.927e-6
-1.097, -2.927e-6
-1.096, -2.927e-6
-1.095, -2.927e-6
-1.094, -2.927e-6
-1.093, -2.927e-6
-1.092, -2.927e-6
-1.091, -2.927e-6
-1.090, -2.927e-6
-1.089, -2.927e-6
-1.088, -2.927e-6
-1.087, -2.927e-6
-1.086, -2.927e-6
-1.085, -2.927e-6
-1.084, -2.927e-6
-1.083, -2.927e-6
-1.082, -2.927e-6
-1.081, -2.927e-6
-1.080, -2.927e-6
-1.079, -2.927e-6
-1.078, -2.927e-6
-1.077, -2.927e-6
-1.076, -2.927e-6
-1.075, -2.927e-6
-1.074, -2.927e-6
-1.073, -2.927e-6
-1.072, -2.927e-6
-1.071, -2.927e-6
-1.070, -2.927e-6
-1.069, -2.927e-6
-1.068, -6.010e-6
-1.067, -2.927e-6
-1.066, -2.927e-6
-1.065, -2.927e-6
-1.064, -2.927e-6
-1.063, -2.927e-6
-1.062, -2.927e-6
-1.061, -2.927e-6
-1.060, -2.927e-6
-1.059, -2.927e-6
-1.058, -2.927e-6
-1.057, -6.010e-6
-1.056, -2.927e-6
-1.055, -2.927e-6
-1.054, -2.927e-6
-1.053, -2.927e-6
-1.052, -2.927e-6
-1.051, -2.927e-6
-1.050, -6.010e-6
-1.049, -2.927e-6
-1.048, -2.927e-6
-1.047, -2.927e-6
-1.046, -2.927e-6
-1.045, -2.927e-6
-1.044, -2.927e-6
-1.043, -2.927e-6
-1.042, -2.927e-6
-1.041, -2.927e-6
-1.040, -2.927e-6
-1.039, -2.927e-6
-1.038, -2.927e-6
-1.037, -2.927e-6
-1.036, -2.927e-6
-1.035, -2.927e-6
-1.034, -2.927e-6
-1.033, -2.927e-6
-1.032, -6.010e-6
-1.031, -2.927e-6
-1.030, -6.010e-6
-1.029, -2.927e-6
-1.028, -2.927e-6
-1.027, -2.927e-6
-1.026, -2.927e-6
-1.025, -2.927e-6
-1.024, -2.927e-6
-1.023, -2.927e-6
-1.022, -2.927e-6
-1.021, -6.010e-6
-1.020, -6.010e-6
-1.019, -2.927e-6
-1.018, -2.927e-6
-1.017, -2.927e-6
-1.016, -6.010e-6
-1.015, -2.927e-6
-1.014, -6.010e-6
-1.013, -2.927e-6
-1.012, -2.927e-6
-1.011, -6.010e-6
-1.010, -2.927e-6
-1.009, -2.927e-6
-1.008, -2.927e-6
-1.007, -6.010e-6
-1.006, -2.927e-6
-1.005, -6.010e-6
-1.004, -2.927e-6
-1.003, -2.927e-6
-1.002, -6.010e-6
-1.001, -2.927e-6
