Aug. 24, 2024   01:10:26
Cyclic Voltammetry
File: c:/users/guazh/data/20240813_batch_94_500/2024-08-15-exp174\exp174-2024-08-24t00_53_53-arkoh\exp174_cv_sr_900mvs_efin_-1600mv.bin
Data Source:  Experiment
Instrument Model:  CHI760E
Header: CV ran at 900 mVs
Note: 

Init E (V) = -1
High E (V) = -1
Low E (V) = -1.6
Final E (V) = -1
Init P/N = N
Scan Rate (V/s) = 0.9
Segment = 3
Sample Interval (V) = 0.001
Quiet Time (sec) = 2
Sensitivity (A/V) = 0.01
Comp R (ohm) = 1.8

Results:

Channel 1:
Segment 1:

Segment 2:

Segment 3:

Potential/V, Current/A

-1.000, 9.405e-6
-1.001, 4.332e-5
-1.002, 6.182e-5
-1.003, 7.415e-5
-1.004, 8.340e-5
-1.005, 8.957e-5
-1.006, 9.882e-5
-1.007, 1.019e-4
-1.008, 1.081e-4
-1.009, 1.142e-4
-1.010, 1.173e-4
-1.011, 1.204e-4
-1.012, 1.235e-4
-1.013, 1.266e-4
-1.014, 1.296e-4
-1.015, 1.358e-4
-1.016, 1.358e-4
-1.017, 1.389e-4
-1.018, 1.420e-4
-1.019, 1.451e-4
-1.020, 1.481e-4
-1.021, 1.481e-4
-1.022, 1.512e-4
-1.023, 1.543e-4
-1.024, 1.574e-4
-1.025, 1.605e-4
-1.026, 1.636e-4
-1.027, 1.636e-4
-1.028, 1.666e-4
-1.029, 1.697e-4
-1.030, 1.728e-4
-1.031, 1.759e-4
-1.032, 1.790e-4
-1.033, 1.790e-4
-1.034, 1.821e-4
-1.035, 1.851e-4
-1.036, 1.851e-4
-1.037, 1.882e-4
-1.038, 1.882e-4
-1.039, 1.913e-4
-1.040, 1.944e-4
-1.041, 1.944e-4
-1.042, 1.975e-4
-1.043, 2.006e-4
-1.044, 2.006e-4
-1.045, 2.036e-4
-1.046, 2.036e-4
-1.047, 2.067e-4
-1.048, 2.067e-4
-1.049, 2.098e-4
-1.050, 2.129e-4
-1.051, 2.129e-4
-1.052, 2.129e-4
-1.053, 2.129e-4
-1.054, 2.129e-4
-1.055, 2.160e-4
-1.056, 2.160e-4
-1.057, 2.191e-4
-1.058, 2.191e-4
-1.059, 2.191e-4
-1.060, 2.191e-4
-1.061, 2.221e-4
-1.062, 2.221e-4
-1.063, 2.221e-4
-1.064, 2.252e-4
-1.065, 2.252e-4
-1.066, 2.221e-4
-1.067, 2.252e-4
-1.068, 2.252e-4
-1.069, 2.252e-4
-1.070, 2.283e-4
-1.071, 2.283e-4
-1.072, 2.283e-4
-1.073, 2.314e-4
-1.074, 2.314e-4
-1.075, 2.314e-4
-1.076, 2.314e-4
-1.077, 2.314e-4
-1.078, 2.345e-4
-1.079, 2.345e-4
-1.080, 2.345e-4
-1.081, 2.345e-4
-1.082, 2.345e-4
-1.083, 2.345e-4
-1.084, 2.376e-4
-1.085, 2.376e-4
-1.086, 2.376e-4
-1.087, 2.406e-4
-1.088, 2.376e-4
-1.089, 2.406e-4
-1.090, 2.437e-4
-1.091, 2.406e-4
-1.092, 2.437e-4
-1.093, 2.437e-4
-1.094, 2.437e-4
-1.095, 2.468e-4
-1.096, 2.468e-4
-1.097, 2.468e-4
-1.098, 2.468e-4
-1.099, 2.468e-4
-1.100, 2.468e-4
-1.101, 2.499e-4
-1.102, 2.499e-4
-1.103, 2.499e-4
-1.104, 2.530e-4
-1.105, 2.499e-4
-1.106, 2.530e-4
-1.107, 2.530e-4
-1.108, 2.530e-4
-1.109, 2.561e-4
-1.110, 2.561e-4
-1.111, 2.530e-4
-1.112, 2.561e-4
-1.113, 2.561e-4
-1.114, 2.561e-4
-1.115, 2.561e-4
-1.116, 2.561e-4
-1.117, 2.591e-4
-1.118, 2.591e-4
-1.119, 2.591e-4
-1.120, 2.591e-4
-1.121, 2.591e-4
-1.122, 2.622e-4
-1.123, 2.622e-4
-1.124, 2.622e-4
-1.125, 2.622e-4
-1.126, 2.622e-4
-1.127, 2.622e-4
-1.128, 2.622e-4
-1.129, 2.622e-4
-1.130, 2.622e-4
-1.131, 2.653e-4
-1.132, 2.653e-4
-1.133, 2.653e-4
-1.134, 2.653e-4
-1.135, 2.684e-4
-1.136, 2.684e-4
-1.137, 2.715e-4
-1.138, 2.715e-4
-1.139, 2.746e-4
-1.140, 2.746e-4
-1.141, 2.746e-4
-1.142, 2.776e-4
-1.143, 2.776e-4
-1.144, 2.776e-4
-1.145, 2.807e-4
-1.146, 2.807e-4
-1.147, 2.838e-4
-1.148, 2.869e-4
-1.149, 2.900e-4
-1.150, 2.900e-4
-1.151, 2.931e-4
-1.152, 2.961e-4
-1.153, 2.961e-4
-1.154, 2.992e-4
-1.155, 2.992e-4
-1.156, 3.023e-4
-1.157, 3.023e-4
-1.158, 3.023e-4
-1.159, 3.054e-4
-1.160, 3.054e-4
-1.161, 3.054e-4
-1.162, 3.085e-4
-1.163, 3.085e-4
-1.164, 3.085e-4
-1.165, 3.115e-4
-1.166, 3.115e-4
-1.167, 3.115e-4
-1.168, 3.115e-4
-1.169, 3.146e-4
-1.170, 3.146e-4
-1.171, 3.115e-4
-1.172, 3.115e-4
-1.173, 3.146e-4
-1.174, 3.146e-4
-1.175, 3.115e-4
-1.176, 3.115e-4
-1.177, 3.146e-4
-1.178, 3.115e-4
-1.179, 3.146e-4
-1.180, 3.115e-4
-1.181, 3.146e-4
-1.182, 3.146e-4
-1.183, 3.146e-4
-1.184, 3.146e-4
-1.185, 3.146e-4
-1.186, 3.115e-4
-1.187, 3.146e-4
-1.188, 3.115e-4
-1.189, 3.115e-4
-1.190, 3.115e-4
-1.191, 3.115e-4
-1.192, 3.115e-4
-1.193, 3.115e-4
-1.194, 3.115e-4
-1.195, 3.115e-4
-1.196, 3.115e-4
-1.197, 3.115e-4
-1.198, 3.115e-4
-1.199, 3.115e-4
-1.200, 3.115e-4
-1.201, 3.115e-4
-1.202, 3.085e-4
-1.203, 3.115e-4
-1.204, 3.115e-4
-1.205, 3.085e-4
-1.206, 3.115e-4
-1.207, 3.115e-4
-1.208, 3.085e-4
-1.209, 3.115e-4
-1.210, 3.115e-4
-1.211, 3.085e-4
-1.212, 3.115e-4
-1.213, 3.085e-4
-1.214, 3.115e-4
-1.215, 3.115e-4
-1.216, 3.085e-4
-1.217, 3.085e-4
-1.218, 3.085e-4
-1.219, 3.085e-4
-1.220, 3.085e-4
-1.221, 3.085e-4
-1.222, 3.054e-4
-1.223, 3.085e-4
-1.224, 3.085e-4
-1.225, 3.054e-4
-1.226, 3.085e-4
-1.227, 3.085e-4
-1.228, 3.085e-4
-1.229, 3.085e-4
-1.230, 3.085e-4
-1.231, 3.085e-4
-1.232, 3.085e-4
-1.233, 3.085e-4
-1.234, 3.054e-4
-1.235, 3.085e-4
-1.236, 3.054e-4
-1.237, 3.054e-4
-1.238, 3.054e-4
-1.239, 3.054e-4
-1.240, 3.054e-4
-1.241, 3.054e-4
-1.242, 3.085e-4
-1.243, 3.054e-4
-1.244, 3.085e-4
-1.245, 3.054e-4
-1.246, 3.054e-4
-1.247, 3.054e-4
-1.248, 3.054e-4
-1.249, 3.054e-4
-1.250, 3.054e-4
-1.251, 3.054e-4
-1.252, 3.023e-4
-1.253, 3.023e-4
-1.254, 3.054e-4
-1.255, 3.054e-4
-1.256, 3.054e-4
-1.257, 3.054e-4
-1.258, 3.054e-4
-1.259, 3.054e-4
-1.260, 3.085e-4
-1.261, 3.054e-4
-1.262, 3.054e-4
-1.263, 3.054e-4
-1.264, 3.023e-4
-1.265, 3.054e-4
-1.266, 3.023e-4
-1.267, 3.023e-4
-1.268, 3.054e-4
-1.269, 3.054e-4
-1.270, 3.054e-4
-1.271, 3.054e-4
-1.272, 3.054e-4
-1.273, 3.054e-4
-1.274, 3.054e-4
-1.275, 3.054e-4
-1.276, 3.054e-4
-1.277, 3.054e-4
-1.278, 3.023e-4
-1.279, 3.054e-4
-1.280, 3.054e-4
-1.281, 3.054e-4
-1.282, 3.054e-4
-1.283, 3.054e-4
-1.284, 3.054e-4
-1.285, 3.054e-4
-1.286, 3.054e-4
-1.287, 3.085e-4
-1.288, 3.054e-4
-1.289, 3.085e-4
-1.290, 3.085e-4
-1.291, 3.054e-4
-1.292, 3.054e-4
-1.293, 3.085e-4
-1.294, 3.054e-4
-1.295, 3.085e-4
-1.296, 3.085e-4
-1.297, 3.085e-4
-1.298, 3.085e-4
-1.299, 3.085e-4
-1.300, 3.085e-4
-1.301, 3.115e-4
-1.302, 3.115e-4
-1.303, 3.115e-4
-1.304, 3.115e-4
-1.305, 3.115e-4
-1.306, 3.115e-4
-1.307, 3.115e-4
-1.308, 3.115e-4
-1.309, 3.115e-4
-1.310, 3.115e-4
-1.311, 3.146e-4
-1.312, 3.146e-4
-1.313, 3.146e-4
-1.314, 3.146e-4
-1.315, 3.177e-4
-1.316, 3.177e-4
-1.317, 3.177e-4
-1.318, 3.177e-4
-1.319, 3.208e-4
-1.320, 3.208e-4
-1.321, 3.208e-4
-1.322, 3.208e-4
-1.323, 3.208e-4
-1.324, 3.208e-4
-1.325, 3.239e-4
-1.326, 3.239e-4
-1.327, 3.239e-4
-1.328, 3.239e-4
-1.329, 3.270e-4
-1.330, 3.270e-4
-1.331, 3.300e-4
-1.332, 3.331e-4
-1.333, 3.300e-4
-1.334, 3.331e-4
-1.335, 3.362e-4
-1.336, 3.331e-4
-1.337, 3.362e-4
-1.338, 3.393e-4
-1.339, 3.362e-4
-1.340, 3.393e-4
-1.341, 3.393e-4
-1.342, 3.424e-4
-1.343, 3.424e-4
-1.344, 3.455e-4
-1.345, 3.455e-4
-1.346, 3.485e-4
-1.347, 3.516e-4
-1.348, 3.516e-4
-1.349, 3.547e-4
-1.350, 3.547e-4
-1.351, 3.578e-4
-1.352, 3.578e-4
-1.353, 3.609e-4
-1.354, 3.609e-4
-1.355, 3.640e-4
-1.356, 3.670e-4
-1.357, 3.670e-4
-1.358, 3.701e-4
-1.359, 3.732e-4
-1.360, 3.763e-4
-1.361, 3.763e-4
-1.362, 3.794e-4
-1.363, 3.825e-4
-1.364, 3.855e-4
-1.365, 3.886e-4
-1.366, 3.886e-4
-1.367, 3.917e-4
-1.368, 3.948e-4
-1.369, 3.979e-4
-1.370, 3.979e-4
-1.371, 4.010e-4
-1.372, 4.040e-4
-1.373, 4.040e-4
-1.374, 4.133e-4
-1.375, 4.133e-4
-1.376, 4.195e-4
-1.377, 4.225e-4
-1.378, 4.225e-4
-1.379, 4.287e-4
-1.380, 4.318e-4
-1.381, 4.349e-4
-1.382, 4.380e-4
-1.383, 4.410e-4
-1.384, 4.441e-4
-1.385, 4.503e-4
-1.386, 4.534e-4
-1.387, 4.565e-4
-1.388, 4.595e-4
-1.389, 4.657e-4
-1.390, 4.688e-4
-1.391, 4.750e-4
-1.392, 4.780e-4
-1.393, 4.842e-4
-1.394, 4.873e-4
-1.395, 4.935e-4
-1.396, 4.965e-4
-1.397, 5.027e-4
-1.398, 5.058e-4
-1.399, 5.120e-4
-1.400, 5.181e-4
-1.401, 5.243e-4
-1.402, 5.274e-4
-1.403, 5.335e-4
-1.404, 5.397e-4
-1.405, 5.459e-4
-1.406, 5.520e-4
-1.407, 5.613e-4
-1.408, 5.644e-4
-1.409, 5.705e-4
-1.410, 5.767e-4
-1.411, 5.829e-4
-1.412, 5.890e-4
-1.413, 5.983e-4
-1.414, 6.014e-4
-1.415, 6.106e-4
-1.416, 6.168e-4
-1.417, 6.229e-4
-1.418, 6.322e-4
-1.419, 6.414e-4
-1.420, 6.476e-4
-1.421, 6.569e-4
-1.422, 6.661e-4
-1.423, 6.723e-4
-1.424, 6.815e-4
-1.425, 6.908e-4
-1.426, 6.969e-4
-1.427, 7.062e-4
-1.428, 7.154e-4
-1.429, 7.247e-4
-1.430, 7.339e-4
-1.431, 7.432e-4
-1.432, 7.524e-4
-1.433, 7.617e-4
-1.434, 7.740e-4
-1.435, 7.833e-4
-1.436, 7.956e-4
-1.437, 8.079e-4
-1.438, 8.172e-4
-1.439, 8.295e-4
-1.440, 8.388e-4
-1.441, 8.511e-4
-1.442, 8.603e-4
-1.443, 8.727e-4
-1.444, 8.850e-4
-1.445, 8.973e-4
-1.446, 9.097e-4
-1.447, 9.220e-4
-1.448, 9.343e-4
-1.449, 9.498e-4
-1.450, 9.621e-4
-1.451, 9.775e-4
-1.452, 9.929e-4
-1.453, 1.005e-3
-1.454, 1.021e-3
-1.455, 1.036e-3
-1.456, 1.045e-3
-1.457, 1.064e-3
-1.458, 1.079e-3
-1.459, 1.095e-3
-1.460, 1.110e-3
-1.461, 1.125e-3
-1.462, 1.144e-3
-1.463, 1.159e-3
-1.464, 1.175e-3
-1.465, 1.193e-3
-1.466, 1.212e-3
-1.467, 1.230e-3
-1.468, 1.246e-3
-1.469, 1.267e-3
-1.470, 1.286e-3
-1.471, 1.304e-3
-1.472, 1.320e-3
-1.473, 1.341e-3
-1.474, 1.363e-3
-1.475, 1.381e-3
-1.476, 1.403e-3
-1.477, 1.425e-3
-1.478, 1.443e-3
-1.479, 1.468e-3
-1.480, 1.489e-3
-1.481, 1.511e-3
-1.482, 1.532e-3
-1.483, 1.557e-3
-1.484, 1.579e-3
-1.485, 1.606e-3
-1.486, 1.628e-3
-1.487, 1.653e-3
-1.488, 1.677e-3
-1.489, 1.702e-3
-1.490, 1.727e-3
-1.491, 1.754e-3
-1.492, 1.782e-3
-1.493, 1.807e-3
-1.494, 1.835e-3
-1.495, 1.859e-3
-1.496, 1.887e-3
-1.497, 1.915e-3
-1.498, 1.946e-3
-1.499, 1.976e-3
-1.500, 2.004e-3
-1.501, 2.032e-3
-1.502, 2.063e-3
-1.503, 2.091e-3
-1.504, 2.121e-3
-1.505, 2.152e-3
-1.506, 2.183e-3
-1.507, 2.214e-3
-1.508, 2.248e-3
-1.509, 2.279e-3
-1.510, 2.309e-3
-1.511, 2.343e-3
-1.512, 2.377e-3
-1.513, 2.411e-3
-1.514, 2.445e-3
-1.515, 2.482e-3
-1.516, 2.513e-3
-1.517, 2.547e-3
-1.518, 2.584e-3
-1.519, 2.621e-3
-1.520, 2.652e-3
-1.521, 2.689e-3
-1.522, 2.726e-3
-1.523, 2.760e-3
-1.524, 2.800e-3
-1.525, 2.837e-3
-1.526, 2.874e-3
-1.527, 2.911e-3
-1.528, 2.948e-3
-1.529, 2.988e-3
-1.530, 3.025e-3
-1.531, 3.062e-3
-1.532, 3.099e-3
-1.533, 3.142e-3
-1.534, 3.176e-3
-1.535, 3.219e-3
-1.536, 3.256e-3
-1.537, 3.296e-3
-1.538, 3.336e-3
-1.539, 3.376e-3
-1.540, 3.413e-3
-1.541, 3.456e-3
-1.542, 3.496e-3
-1.543, 3.540e-3
-1.544, 3.580e-3
-1.545, 3.620e-3
-1.546, 3.660e-3
-1.547, 3.700e-3
-1.548, 3.740e-3
-1.549, 3.780e-3
-1.550, 3.820e-3
-1.551, 3.860e-3
-1.552, 3.903e-3
-1.553, 3.943e-3
-1.554, 3.987e-3
-1.555, 4.027e-3
-1.556, 4.070e-3
-1.557, 4.113e-3
-1.558, 4.153e-3
-1.559, 4.196e-3
-1.560, 4.239e-3
-1.561, 4.280e-3
-1.562, 4.320e-3
-1.563, 4.363e-3
-1.564, 4.406e-3
-1.565, 4.446e-3
-1.566, 4.486e-3
-1.567, 4.529e-3
-1.568, 4.569e-3
-1.569, 4.616e-3
-1.570, 4.656e-3
-1.571, 4.699e-3
-1.572, 4.742e-3
-1.573, 4.785e-3
-1.574, 4.828e-3
-1.575, 4.871e-3
-1.576, 4.912e-3
-1.577, 4.955e-3
-1.578, 4.998e-3
-1.579, 5.038e-3
-1.580, 5.081e-3
-1.581, 5.124e-3
-1.582, 5.167e-3
-1.583, 5.211e-3
-1.584, 5.254e-3
-1.585, 5.294e-3
-1.586, 5.337e-3
-1.587, 5.380e-3
-1.588, 5.426e-3
-1.589, 5.473e-3
-1.590, 5.516e-3
-1.591, 5.556e-3
-1.592, 5.599e-3
-1.593, 5.645e-3
-1.594, 5.688e-3
-1.595, 5.729e-3
-1.596, 5.775e-3
-1.597, 5.815e-3
-1.598, 5.858e-3
-1.599, 5.901e-3
-1.600, 5.904e-3
-1.599, 5.840e-3
-1.598, 5.793e-3
-1.597, 5.744e-3
-1.596, 5.698e-3
-1.595, 5.651e-3
-1.594, 5.602e-3
-1.593, 5.556e-3
-1.592, 5.510e-3
-1.591, 5.460e-3
-1.590, 5.414e-3
-1.589, 5.368e-3
-1.588, 5.319e-3
-1.587, 5.272e-3
-1.586, 5.226e-3
-1.585, 5.177e-3
-1.584, 5.134e-3
-1.583, 5.087e-3
-1.582, 5.038e-3
-1.581, 4.995e-3
-1.580, 4.949e-3
-1.579, 4.899e-3
-1.578, 4.856e-3
-1.577, 4.813e-3
-1.576, 4.767e-3
-1.575, 4.720e-3
-1.574, 4.674e-3
-1.573, 4.628e-3
-1.572, 4.585e-3
-1.571, 4.542e-3
-1.570, 4.495e-3
-1.569, 4.452e-3
-1.568, 4.409e-3
-1.567, 4.369e-3
-1.566, 4.326e-3
-1.565, 4.283e-3
-1.564, 4.239e-3
-1.563, 4.193e-3
-1.562, 4.153e-3
-1.561, 4.110e-3
-1.560, 4.067e-3
-1.559, 4.027e-3
-1.558, 3.987e-3
-1.557, 3.943e-3
-1.556, 3.903e-3
-1.555, 3.860e-3
-1.554, 3.823e-3
-1.553, 3.783e-3
-1.552, 3.743e-3
-1.551, 3.706e-3
-1.550, 3.666e-3
-1.549, 3.623e-3
-1.548, 3.586e-3
-1.547, 3.549e-3
-1.546, 3.509e-3
-1.545, 3.472e-3
-1.544, 3.432e-3
-1.543, 3.392e-3
-1.542, 3.355e-3
-1.541, 3.318e-3
-1.540, 3.281e-3
-1.539, 3.247e-3
-1.538, 3.210e-3
-1.537, 3.173e-3
-1.536, 3.136e-3
-1.535, 3.102e-3
-1.534, 3.062e-3
-1.533, 3.028e-3
-1.532, 2.994e-3
-1.531, 2.957e-3
-1.530, 2.923e-3
-1.529, 2.886e-3
-1.528, 2.852e-3
-1.527, 2.818e-3
-1.526, 2.784e-3
-1.525, 2.753e-3
-1.524, 2.716e-3
-1.523, 2.686e-3
-1.522, 2.652e-3
-1.521, 2.618e-3
-1.520, 2.587e-3
-1.519, 2.556e-3
-1.518, 2.522e-3
-1.517, 2.494e-3
-1.516, 2.460e-3
-1.515, 2.427e-3
-1.514, 2.399e-3
-1.513, 2.365e-3
-1.512, 2.334e-3
-1.511, 2.303e-3
-1.510, 2.272e-3
-1.509, 2.245e-3
-1.508, 2.214e-3
-1.507, 2.183e-3
-1.506, 2.155e-3
-1.505, 2.131e-3
-1.504, 2.097e-3
-1.503, 2.069e-3
-1.502, 2.041e-3
-1.501, 2.013e-3
-1.500, 1.983e-3
-1.499, 1.958e-3
-1.498, 1.930e-3
-1.497, 1.902e-3
-1.496, 1.875e-3
-1.495, 1.850e-3
-1.494, 1.822e-3
-1.493, 1.798e-3
-1.492, 1.770e-3
-1.491, 1.745e-3
-1.490, 1.721e-3
-1.489, 1.693e-3
-1.488, 1.668e-3
-1.487, 1.643e-3
-1.486, 1.619e-3
-1.485, 1.591e-3
-1.484, 1.566e-3
-1.483, 1.545e-3
-1.482, 1.520e-3
-1.481, 1.499e-3
-1.480, 1.474e-3
-1.479, 1.449e-3
-1.478, 1.428e-3
-1.477, 1.406e-3
-1.476, 1.381e-3
-1.475, 1.360e-3
-1.474, 1.338e-3
-1.473, 1.317e-3
-1.472, 1.295e-3
-1.471, 1.270e-3
-1.470, 1.252e-3
-1.469, 1.230e-3
-1.468, 1.209e-3
-1.467, 1.190e-3
-1.466, 1.169e-3
-1.465, 1.147e-3
-1.464, 1.129e-3
-1.463, 1.110e-3
-1.462, 1.088e-3
-1.461, 1.073e-3
-1.460, 1.051e-3
-1.459, 1.033e-3
-1.458, 1.018e-3
-1.457, 9.960e-4
-1.456, 9.775e-4
-1.455, 9.590e-4
-1.454, 9.405e-4
-1.453, 9.251e-4
-1.452, 9.066e-4
-1.451, 8.881e-4
-1.450, 8.727e-4
-1.449, 8.542e-4
-1.448, 8.388e-4
-1.447, 8.233e-4
-1.446, 8.048e-4
-1.445, 7.925e-4
-1.444, 7.740e-4
-1.443, 7.555e-4
-1.442, 7.432e-4
-1.441, 7.247e-4
-1.440, 7.093e-4
-1.439, 6.939e-4
-1.438, 6.815e-4
-1.437, 6.661e-4
-1.436, 6.538e-4
-1.435, 6.353e-4
-1.434, 6.229e-4
-1.433, 6.106e-4
-1.432, 5.952e-4
-1.431, 5.829e-4
-1.430, 5.705e-4
-1.429, 5.551e-4
-1.428, 5.428e-4
-1.427, 5.305e-4
-1.426, 5.181e-4
-1.425, 5.058e-4
-1.424, 4.935e-4
-1.423, 4.811e-4
-1.422, 4.688e-4
-1.421, 4.595e-4
-1.420, 4.441e-4
-1.419, 4.349e-4
-1.418, 4.225e-4
-1.417, 4.133e-4
-1.416, 4.040e-4
-1.415, 3.917e-4
-1.414, 3.825e-4
-1.413, 3.732e-4
-1.412, 3.609e-4
-1.411, 3.516e-4
-1.410, 3.393e-4
-1.409, 3.300e-4
-1.408, 3.239e-4
-1.407, 3.085e-4
-1.406, 3.023e-4
-1.405, 2.931e-4
-1.404, 2.838e-4
-1.403, 2.776e-4
-1.402, 2.653e-4
-1.401, 2.591e-4
-1.400, 2.499e-4
-1.399, 2.406e-4
-1.398, 2.314e-4
-1.397, 2.252e-4
-1.396, 2.160e-4
-1.395, 2.067e-4
-1.394, 2.006e-4
-1.393, 1.944e-4
-1.392, 1.882e-4
-1.391, 1.790e-4
-1.390, 1.728e-4
-1.389, 1.666e-4
-1.388, 1.574e-4
-1.387, 1.512e-4
-1.386, 1.451e-4
-1.385, 1.389e-4
-1.384, 1.296e-4
-1.383, 1.266e-4
-1.382, 1.173e-4
-1.381, 1.142e-4
-1.380, 1.081e-4
-1.379, 9.882e-5
-1.378, 9.573e-5
-1.377, 8.957e-5
-1.376, 8.340e-5
-1.375, 8.032e-5
-1.374, 7.415e-5
-1.373, 7.107e-5
-1.372, 6.490e-5
-1.371, 5.873e-5
-1.370, 5.565e-5
-1.369, 4.949e-5
-1.368, 4.332e-5
-1.367, 4.024e-5
-1.366, 3.715e-5
-1.365, 3.099e-5
-1.364, 2.790e-5
-1.363, 2.174e-5
-1.362, 1.865e-5
-1.361, 1.557e-5
-1.360, 9.405e-6
-1.359, 6.322e-6
-1.358, 3.239e-6
-1.357, 1.559e-7
-1.356, -2.927e-6
-1.355, -6.010e-6
-1.354, -1.218e-5
-1.353, -1.526e-5
-1.352, -1.526e-5
-1.351, -2.143e-5
-1.350, -2.451e-5
-1.349, -2.759e-5
-1.348, -3.068e-5
-1.347, -3.068e-5
-1.346, -3.684e-5
-1.345, -3.992e-5
-1.344, -3.992e-5
-1.343, -4.301e-5
-1.342, -4.609e-5
-1.341, -4.609e-5
-1.340, -4.917e-5
-1.339, -5.534e-5
-1.338, -5.534e-5
-1.337, -5.842e-5
-1.336, -5.842e-5
-1.335, -6.459e-5
-1.334, -6.767e-5
-1.333, -6.767e-5
-1.332, -7.076e-5
-1.331, -7.076e-5
-1.330, -7.384e-5
-1.329, -7.692e-5
-1.328, -7.692e-5
-1.327, -7.692e-5
-1.326, -8.000e-5
-1.325, -8.309e-5
-1.324, -8.617e-5
-1.323, -8.925e-5
-1.322, -8.617e-5
-1.321, -9.234e-5
-1.320, -9.234e-5
-1.319, -9.542e-5
-1.318, -9.542e-5
-1.317, -9.850e-5
-1.316, -9.850e-5
-1.315, -1.016e-4
-1.314, -1.016e-4
-1.313, -1.016e-4
-1.312, -1.047e-4
-1.311, -1.047e-4
-1.310, -1.047e-4
-1.309, -1.078e-4
-1.308, -1.078e-4
-1.307, -1.108e-4
-1.306, -1.108e-4
-1.305, -1.139e-4
-1.304, -1.139e-4
-1.303, -1.170e-4
-1.302, -1.170e-4
-1.301, -1.201e-4
-1.300, -1.201e-4
-1.299, -1.201e-4
-1.298, -1.201e-4
-1.297, -1.232e-4
-1.296, -1.232e-4
-1.295, -1.232e-4
-1.294, -1.263e-4
-1.293, -1.263e-4
-1.292, -1.263e-4
-1.291, -1.263e-4
-1.290, -1.293e-4
-1.289, -1.293e-4
-1.288, -1.293e-4
-1.287, -1.324e-4
-1.286, -1.324e-4
-1.285, -1.324e-4
-1.284, -1.324e-4
-1.283, -1.324e-4
-1.282, -1.355e-4
-1.281, -1.355e-4
-1.280, -1.355e-4
-1.279, -1.386e-4
-1.278, -1.386e-4
-1.277, -1.386e-4
-1.276, -1.386e-4
-1.275, -1.386e-4
-1.274, -1.386e-4
-1.273, -1.417e-4
-1.272, -1.417e-4
-1.271, -1.417e-4
-1.270, -1.417e-4
-1.269, -1.417e-4
-1.268, -1.448e-4
-1.267, -1.448e-4
-1.266, -1.448e-4
-1.265, -1.448e-4
-1.264, -1.448e-4
-1.263, -1.478e-4
-1.262, -1.478e-4
-1.261, -1.478e-4
-1.260, -1.478e-4
-1.259, -1.509e-4
-1.258, -1.509e-4
-1.257, -1.509e-4
-1.256, -1.509e-4
-1.255, -1.509e-4
-1.254, -1.540e-4
-1.253, -1.509e-4
-1.252, -1.540e-4
-1.251, -1.540e-4
-1.250, -1.540e-4
-1.249, -1.571e-4
-1.248, -1.571e-4
-1.247, -1.571e-4
-1.246, -1.571e-4
-1.245, -1.602e-4
-1.244, -1.602e-4
-1.243, -1.602e-4
-1.242, -1.602e-4
-1.241, -1.602e-4
-1.240, -1.632e-4
-1.239, -1.602e-4
-1.238, -1.632e-4
-1.237, -1.632e-4
-1.236, -1.632e-4
-1.235, -1.632e-4
-1.234, -1.663e-4
-1.233, -1.663e-4
-1.232, -1.663e-4
-1.231, -1.663e-4
-1.230, -1.663e-4
-1.229, -1.694e-4
-1.228, -1.694e-4
-1.227, -1.694e-4
-1.226, -1.694e-4
-1.225, -1.694e-4
-1.224, -1.694e-4
-1.223, -1.725e-4
-1.222, -1.725e-4
-1.221, -1.725e-4
-1.220, -1.725e-4
-1.219, -1.725e-4
-1.218, -1.725e-4
-1.217, -1.756e-4
-1.216, -1.725e-4
-1.215, -1.756e-4
-1.214, -1.756e-4
-1.213, -1.756e-4
-1.212, -1.787e-4
-1.211, -1.756e-4
-1.210, -1.787e-4
-1.209, -1.787e-4
-1.208, -1.756e-4
-1.207, -1.787e-4
-1.206, -1.787e-4
-1.205, -1.756e-4
-1.204, -1.787e-4
-1.203, -1.787e-4
-1.202, -1.787e-4
-1.201, -1.817e-4
-1.200, -1.817e-4
-1.199, -1.817e-4
-1.198, -1.817e-4
-1.197, -1.817e-4
-1.196, -1.817e-4
-1.195, -1.817e-4
-1.194, -1.817e-4
-1.193, -1.817e-4
-1.192, -1.817e-4
-1.191, -1.817e-4
-1.190, -1.817e-4
-1.189, -1.848e-4
-1.188, -1.848e-4
-1.187, -1.848e-4
-1.186, -1.848e-4
-1.185, -1.848e-4
-1.184, -1.879e-4
-1.183, -1.848e-4
-1.182, -1.879e-4
-1.181, -1.879e-4
-1.180, -1.879e-4
-1.179, -1.879e-4
-1.178, -1.848e-4
-1.177, -1.879e-4
-1.176, -1.879e-4
-1.175, -1.879e-4
-1.174, -1.879e-4
-1.173, -1.910e-4
-1.172, -1.879e-4
-1.171, -1.910e-4
-1.170, -1.910e-4
-1.169, -1.910e-4
-1.168, -1.941e-4
-1.167, -1.941e-4
-1.166, -1.941e-4
-1.165, -1.941e-4
-1.164, -1.941e-4
-1.163, -1.941e-4
-1.162, -1.941e-4
-1.161, -1.941e-4
-1.160, -1.941e-4
-1.159, -1.972e-4
-1.158, -1.972e-4
-1.157, -1.972e-4
-1.156, -2.002e-4
-1.155, -2.002e-4
-1.154, -2.002e-4
-1.153, -2.002e-4
-1.152, -2.033e-4
-1.151, -2.033e-4
-1.150, -2.033e-4
-1.149, -2.033e-4
-1.148, -2.033e-4
-1.147, -2.064e-4
-1.146, -2.033e-4
-1.145, -2.064e-4
-1.144, -2.064e-4
-1.143, -2.095e-4
-1.142, -2.095e-4
-1.141, -2.095e-4
-1.140, -2.126e-4
-1.139, -2.126e-4
-1.138, -2.157e-4
-1.137, -2.187e-4
-1.136, -2.157e-4
-1.135, -2.187e-4
-1.134, -2.187e-4
-1.133, -2.187e-4
-1.132, -2.249e-4
-1.131, -2.249e-4
-1.130, -2.249e-4
-1.129, -2.280e-4
-1.128, -2.311e-4
-1.127, -2.311e-4
-1.126, -2.342e-4
-1.125, -2.372e-4
-1.124, -2.403e-4
-1.123, -2.403e-4
-1.122, -2.434e-4
-1.121, -2.434e-4
-1.120, -2.465e-4
-1.119, -2.465e-4
-1.118, -2.496e-4
-1.117, -2.527e-4
-1.116, -2.527e-4
-1.115, -2.557e-4
-1.114, -2.588e-4
-1.113, -2.588e-4
-1.112, -2.619e-4
-1.111, -2.619e-4
-1.110, -2.650e-4
-1.109, -2.681e-4
-1.108, -2.681e-4
-1.107, -2.712e-4
-1.106, -2.712e-4
-1.105, -2.742e-4
-1.104, -2.742e-4
-1.103, -2.742e-4
-1.102, -2.773e-4
-1.101, -2.804e-4
-1.100, -2.804e-4
-1.099, -2.835e-4
-1.098, -2.866e-4
-1.097, -2.835e-4
-1.096, -2.866e-4
-1.095, -2.897e-4
-1.094, -2.897e-4
-1.093, -2.897e-4
-1.092, -2.958e-4
-1.091, -2.927e-4
-1.090, -2.958e-4
-1.089, -2.958e-4
-1.088, -2.958e-4
-1.087, -2.989e-4
-1.086, -2.989e-4
-1.085, -2.989e-4
-1.084, -3.051e-4
-1.083, -3.051e-4
-1.082, -3.051e-4
-1.081, -3.082e-4
-1.080, -3.082e-4
-1.079, -3.112e-4
-1.078, -3.112e-4
-1.077, -3.112e-4
-1.076, -3.143e-4
-1.075, -3.143e-4
-1.074, -3.174e-4
-1.073, -3.174e-4
-1.072, -3.205e-4
-1.071, -3.205e-4
-1.070, -3.236e-4
-1.069, -3.267e-4
-1.068, -3.267e-4
-1.067, -3.267e-4
-1.066, -3.297e-4
-1.065, -3.297e-4
-1.064, -3.328e-4
-1.063, -3.328e-4
-1.062, -3.359e-4
-1.061, -3.359e-4
-1.060, -3.390e-4
-1.059, -3.390e-4
-1.058, -3.390e-4
-1.057, -3.421e-4
-1.056, -3.421e-4
-1.055, -3.452e-4
-1.054, -3.452e-4
-1.053, -3.482e-4
-1.052, -3.482e-4
-1.051, -3.513e-4
-1.050, -3.544e-4
-1.049, -3.544e-4
-1.048, -3.575e-4
-1.047, -3.575e-4
-1.046, -3.606e-4
-1.045, -3.606e-4
-1.044, -3.606e-4
-1.043, -3.637e-4
-1.042, -3.667e-4
-1.041, -3.667e-4
-1.040, -3.667e-4
-1.039, -3.698e-4
-1.038, -3.729e-4
-1.037, -3.729e-4
-1.036, -3.760e-4
-1.035, -3.791e-4
-1.034, -3.791e-4
-1.033, -3.821e-4
-1.032, -3.852e-4
-1.031, -3.852e-4
-1.030, -3.883e-4
-1.029, -3.914e-4
-1.028, -3.914e-4
-1.027, -3.945e-4
-1.026, -3.945e-4
-1.025, -3.976e-4
-1.024, -4.006e-4
-1.023, -4.006e-4
-1.022, -4.037e-4
-1.021, -4.037e-4
-1.020, -4.099e-4
-1.019, -4.099e-4
-1.018, -4.130e-4
-1.017, -4.161e-4
-1.016, -4.191e-4
-1.015, -4.222e-4
-1.014, -4.222e-4
-1.013, -4.222e-4
-1.012, -4.284e-4
-1.011, -4.284e-4
-1.010, -4.315e-4
-1.009, -4.346e-4
-1.008, -4.346e-4
-1.007, -4.376e-4
-1.006, -4.438e-4
-1.005, -4.438e-4
-1.004, -4.469e-4
-1.003, -4.500e-4
-1.002, -4.531e-4
-1.001, -4.561e-4
