Apr. 2, 2025   14:13:23
Linear Sweep Voltammetry
File: c:/users/guazh/data/banditlqround7_x0exp518_r20/2025-03-28-exp1020\1acid_3ac-2025-04-02t14_10_10-lsvinphos\1acid_3ac_lsv_50mvs_efin_-2300mv.bin
Data Source:  Experiment
Instrument Model:  CHI760E
Header: LSV ran at 50 mVs with Efin at -2300mV
Note: 

Init E (V) = -0.6
Final E (V) = -2.3
Scan Rate (V/s) = 0.05
Sample Interval (V) = 0.001
Quiet Time (sec) = 2
Sensitivity (A/V) = 1e-4
Comp R (ohm) = 9.2

Results:

Channel 1:
Ep = -1.917V
ip = 7.928e-4A
Ah = 1.130e-3C

Potential/V, Current/A

-0.600, 3.349e-6
-0.601, 3.484e-6
-0.602, 3.538e-6
-0.603, 3.578e-6
-0.604, 3.615e-6
-0.605, 3.650e-6
-0.606, 3.686e-6
-0.607, 3.722e-6
-0.608, 3.756e-6
-0.609, 3.789e-6
-0.610, 3.822e-6
-0.611, 3.859e-6
-0.612, 3.895e-6
-0.613, 3.926e-6
-0.614, 3.961e-6
-0.615, 3.995e-6
-0.616, 4.028e-6
-0.617, 4.063e-6
-0.618, 4.094e-6
-0.619, 4.127e-6
-0.620, 4.159e-6
-0.621, 4.192e-6
-0.622, 4.226e-6
-0.623, 4.258e-6
-0.624, 4.291e-6
-0.625, 4.325e-6
-0.626, 4.357e-6
-0.627, 4.394e-6
-0.628, 4.427e-6
-0.629, 4.460e-6
-0.630, 4.493e-6
-0.631, 4.528e-6
-0.632, 4.564e-6
-0.633, 4.597e-6
-0.634, 4.628e-6
-0.635, 4.663e-6
-0.636, 4.697e-6
-0.637, 4.732e-6
-0.638, 4.764e-6
-0.639, 4.798e-6
-0.640, 4.832e-6
-0.641, 4.866e-6
-0.642, 4.899e-6
-0.643, 4.932e-6
-0.644, 4.965e-6
-0.645, 4.997e-6
-0.646, 5.033e-6
-0.647, 5.068e-6
-0.648, 5.100e-6
-0.649, 5.132e-6
-0.650, 5.164e-6
-0.651, 5.199e-6
-0.652, 5.234e-6
-0.653, 5.267e-6
-0.654, 5.300e-6
-0.655, 5.331e-6
-0.656, 5.365e-6
-0.657, 5.399e-6
-0.658, 5.429e-6
-0.659, 5.461e-6
-0.660, 5.493e-6
-0.661, 5.527e-6
-0.662, 5.562e-6
-0.663, 5.592e-6
-0.664, 5.623e-6
-0.665, 5.655e-6
-0.666, 5.687e-6
-0.667, 5.720e-6
-0.668, 5.750e-6
-0.669, 5.781e-6
-0.670, 5.812e-6
-0.671, 5.843e-6
-0.672, 5.876e-6
-0.673, 5.904e-6
-0.674, 5.931e-6
-0.675, 5.958e-6
-0.676, 5.989e-6
-0.677, 6.020e-6
-0.678, 6.050e-6
-0.679, 6.077e-6
-0.680, 6.107e-6
-0.681, 6.137e-6
-0.682, 6.165e-6
-0.683, 6.192e-6
-0.684, 6.217e-6
-0.685, 6.243e-6
-0.686, 6.272e-6
-0.687, 6.301e-6
-0.688, 6.326e-6
-0.689, 6.353e-6
-0.690, 6.379e-6
-0.691, 6.406e-6
-0.692, 6.434e-6
-0.693, 6.457e-6
-0.694, 6.482e-6
-0.695, 6.506e-6
-0.696, 6.530e-6
-0.697, 6.558e-6
-0.698, 6.580e-6
-0.699, 6.603e-6
-0.700, 6.626e-6
-0.701, 6.648e-6
-0.702, 6.673e-6
-0.703, 6.695e-6
-0.704, 6.716e-6
-0.705, 6.737e-6
-0.706, 6.759e-6
-0.707, 6.782e-6
-0.708, 6.801e-6
-0.709, 6.820e-6
-0.710, 6.841e-6
-0.711, 6.859e-6
-0.712, 6.879e-6
-0.713, 6.897e-6
-0.714, 6.912e-6
-0.715, 6.930e-6
-0.716, 6.949e-6
-0.717, 6.968e-6
-0.718, 6.984e-6
-0.719, 6.998e-6
-0.720, 7.013e-6
-0.721, 7.030e-6
-0.722, 7.045e-6
-0.723, 7.059e-6
-0.724, 7.072e-6
-0.725, 7.084e-6
-0.726, 7.100e-6
-0.727, 7.113e-6
-0.728, 7.124e-6
-0.729, 7.137e-6
-0.730, 7.148e-6
-0.731, 7.160e-6
-0.732, 7.173e-6
-0.733, 7.181e-6
-0.734, 7.190e-6
-0.735, 7.199e-6
-0.736, 7.208e-6
-0.737, 7.219e-6
-0.738, 7.225e-6
-0.739, 7.234e-6
-0.740, 7.239e-6
-0.741, 7.247e-6
-0.742, 7.256e-6
-0.743, 7.260e-6
-0.744, 7.265e-6
-0.745, 7.270e-6
-0.746, 7.275e-6
-0.747, 7.282e-6
-0.748, 7.285e-6
-0.749, 7.289e-6
-0.750, 7.292e-6
-0.751, 7.296e-6
-0.752, 7.300e-6
-0.753, 7.302e-6
-0.754, 7.302e-6
-0.755, 7.305e-6
-0.756, 7.307e-6
-0.757, 7.309e-6
-0.758, 7.310e-6
-0.759, 7.308e-6
-0.760, 7.308e-6
-0.761, 7.309e-6
-0.762, 7.310e-6
-0.763, 7.308e-6
-0.764, 7.307e-6
-0.765, 7.305e-6
-0.766, 7.303e-6
-0.767, 7.303e-6
-0.768, 7.303e-6
-0.769, 7.298e-6
-0.770, 7.295e-6
-0.771, 7.293e-6
-0.772, 7.290e-6
-0.773, 7.286e-6
-0.774, 7.282e-6
-0.775, 7.277e-6
-0.776, 7.273e-6
-0.777, 7.271e-6
-0.778, 7.263e-6
-0.779, 7.257e-6
-0.780, 7.252e-6
-0.781, 7.247e-6
-0.782, 7.244e-6
-0.783, 7.237e-6
-0.784, 7.231e-6
-0.785, 7.223e-6
-0.786, 7.216e-6
-0.787, 7.213e-6
-0.788, 7.206e-6
-0.789, 7.195e-6
-0.790, 7.188e-6
-0.791, 7.182e-6
-0.792, 7.176e-6
-0.793, 7.166e-6
-0.794, 7.159e-6
-0.795, 7.151e-6
-0.796, 7.142e-6
-0.797, 7.136e-6
-0.798, 7.127e-6
-0.799, 7.117e-6
-0.800, 7.107e-6
-0.801, 7.100e-6
-0.802, 7.092e-6
-0.803, 7.081e-6
-0.804, 7.072e-6
-0.805, 7.061e-6
-0.806, 7.054e-6
-0.807, 7.046e-6
-0.808, 7.035e-6
-0.809, 7.025e-6
-0.810, 7.015e-6
-0.811, 7.007e-6
-0.812, 6.998e-6
-0.813, 6.987e-6
-0.814, 6.977e-6
-0.815, 6.966e-6
-0.816, 6.956e-6
-0.817, 6.948e-6
-0.818, 6.936e-6
-0.819, 6.930e-6
-0.820, 6.922e-6
-0.821, 6.908e-6
-0.822, 6.901e-6
-0.823, 6.889e-6
-0.824, 6.878e-6
-0.825, 6.867e-6
-0.826, 6.858e-6
-0.827, 6.849e-6
-0.828, 6.838e-6
-0.829, 6.825e-6
-0.830, 6.814e-6
-0.831, 6.804e-6
-0.832, 6.796e-6
-0.833, 6.785e-6
-0.834, 6.773e-6
-0.835, 6.763e-6
-0.836, 6.754e-6
-0.837, 6.742e-6
-0.838, 6.732e-6
-0.839, 6.721e-6
-0.840, 6.710e-6
-0.841, 6.702e-6
-0.842, 6.691e-6
-0.843, 6.681e-6
-0.844, 6.669e-6
-0.845, 6.658e-6
-0.846, 6.651e-6
-0.847, 6.642e-6
-0.848, 6.630e-6
-0.849, 6.619e-6
-0.850, 6.608e-6
-0.851, 6.599e-6
-0.852, 6.590e-6
-0.853, 6.579e-6
-0.854, 6.567e-6
-0.855, 6.555e-6
-0.856, 6.548e-6
-0.857, 6.540e-6
-0.858, 6.527e-6
-0.859, 6.517e-6
-0.860, 6.508e-6
-0.861, 6.498e-6
-0.862, 6.490e-6
-0.863, 6.479e-6
-0.864, 6.468e-6
-0.865, 6.458e-6
-0.866, 6.450e-6
-0.867, 6.442e-6
-0.868, 6.432e-6
-0.869, 6.422e-6
-0.870, 6.412e-6
-0.871, 6.405e-6
-0.872, 6.396e-6
-0.873, 6.386e-6
-0.874, 6.376e-6
-0.875, 6.365e-6
-0.876, 6.357e-6
-0.877, 6.351e-6
-0.878, 6.341e-6
-0.879, 6.330e-6
-0.880, 6.321e-6
-0.881, 6.314e-6
-0.882, 6.305e-6
-0.883, 6.296e-6
-0.884, 6.287e-6
-0.885, 6.277e-6
-0.886, 6.270e-6
-0.887, 6.262e-6
-0.888, 6.252e-6
-0.889, 6.245e-6
-0.890, 6.235e-6
-0.891, 6.229e-6
-0.892, 6.223e-6
-0.893, 6.214e-6
-0.894, 6.205e-6
-0.895, 6.196e-6
-0.896, 6.190e-6
-0.897, 6.185e-6
-0.898, 6.176e-6
-0.899, 6.168e-6
-0.900, 6.160e-6
-0.901, 6.153e-6
-0.902, 6.148e-6
-0.903, 6.140e-6
-0.904, 6.131e-6
-0.905, 6.123e-6
-0.906, 6.115e-6
-0.907, 6.109e-6
-0.908, 6.101e-6
-0.909, 6.094e-6
-0.910, 6.087e-6
-0.911, 6.080e-6
-0.912, 6.075e-6
-0.913, 6.066e-6
-0.914, 6.057e-6
-0.915, 6.050e-6
-0.916, 6.043e-6
-0.917, 6.037e-6
-0.918, 6.030e-6
-0.919, 6.022e-6
-0.920, 6.015e-6
-0.921, 6.010e-6
-0.922, 6.005e-6
-0.923, 5.997e-6
-0.924, 5.990e-6
-0.925, 5.983e-6
-0.926, 5.977e-6
-0.927, 5.972e-6
-0.928, 5.964e-6
-0.929, 5.958e-6
-0.930, 5.950e-6
-0.931, 5.946e-6
-0.932, 5.942e-6
-0.933, 5.934e-6
-0.934, 5.928e-6
-0.935, 5.923e-6
-0.936, 5.917e-6
-0.937, 5.914e-6
-0.938, 5.907e-6
-0.939, 5.902e-6
-0.940, 5.894e-6
-0.941, 5.891e-6
-0.942, 5.887e-6
-0.943, 5.881e-6
-0.944, 5.875e-6
-0.945, 5.869e-6
-0.946, 5.864e-6
-0.947, 5.862e-6
-0.948, 5.855e-6
-0.949, 5.848e-6
-0.950, 5.844e-6
-0.951, 5.838e-6
-0.952, 5.835e-6
-0.953, 5.828e-6
-0.954, 5.822e-6
-0.955, 5.816e-6
-0.956, 5.812e-6
-0.957, 5.809e-6
-0.958, 5.801e-6
-0.959, 5.795e-6
-0.960, 5.791e-6
-0.961, 5.788e-6
-0.962, 5.783e-6
-0.963, 5.776e-6
-0.964, 5.772e-6
-0.965, 5.765e-6
-0.966, 5.761e-6
-0.967, 5.759e-6
-0.968, 5.753e-6
-0.969, 5.747e-6
-0.970, 5.741e-6
-0.971, 5.738e-6
-0.972, 5.735e-6
-0.973, 5.730e-6
-0.974, 5.724e-6
-0.975, 5.720e-6
-0.976, 5.716e-6
-0.977, 5.713e-6
-0.978, 5.708e-6
-0.979, 5.704e-6
-0.980, 5.697e-6
-0.981, 5.693e-6
-0.982, 5.692e-6
-0.983, 5.685e-6
-0.984, 5.680e-6
-0.985, 5.677e-6
-0.986, 5.674e-6
-0.987, 5.671e-6
-0.988, 5.666e-6
-0.989, 5.661e-6
-0.990, 5.658e-6
-0.991, 5.654e-6
-0.992, 5.651e-6
-0.993, 5.647e-6
-0.994, 5.641e-6
-0.995, 5.637e-6
-0.996, 5.635e-6
-0.997, 5.631e-6
-0.998, 5.628e-6
-0.999, 5.623e-6
-1.000, 5.619e-6
-1.001, 5.617e-6
-1.002, 5.614e-6
-1.003, 5.610e-6
-1.004, 5.606e-6
-1.005, 5.600e-6
-1.006, 5.597e-6
-1.007, 5.596e-6
-1.008, 5.592e-6
-1.009, 5.587e-6
-1.010, 5.582e-6
-1.011, 5.580e-6
-1.012, 5.579e-6
-1.013, 5.574e-6
-1.014, 5.570e-6
-1.015, 5.566e-6
-1.016, 5.564e-6
-1.017, 5.562e-6
-1.018, 5.557e-6
-1.019, 5.554e-6
-1.020, 5.549e-6
-1.021, 5.546e-6
-1.022, 5.545e-6
-1.023, 5.538e-6
-1.024, 5.538e-6
-1.025, 5.534e-6
-1.026, 5.531e-6
-1.027, 5.530e-6
-1.028, 5.526e-6
-1.029, 5.521e-6
-1.030, 5.518e-6
-1.031, 5.516e-6
-1.032, 5.515e-6
-1.033, 5.510e-6
-1.034, 5.507e-6
-1.035, 5.503e-6
-1.036, 5.501e-6
-1.037, 5.499e-6
-1.038, 5.496e-6
-1.039, 5.492e-6
-1.040, 5.489e-6
-1.041, 5.487e-6
-1.042, 5.485e-6
-1.043, 5.482e-6
-1.044, 5.478e-6
-1.045, 5.474e-6
-1.046, 5.473e-6
-1.047, 5.471e-6
-1.048, 5.468e-6
-1.049, 5.465e-6
-1.050, 5.462e-6
-1.051, 5.460e-6
-1.052, 5.460e-6
-1.053, 5.455e-6
-1.054, 5.452e-6
-1.055, 5.449e-6
-1.056, 5.449e-6
-1.057, 5.449e-6
-1.058, 5.443e-6
-1.059, 5.441e-6
-1.060, 5.439e-6
-1.061, 5.436e-6
-1.062, 5.436e-6
-1.063, 5.432e-6
-1.064, 5.430e-6
-1.065, 5.428e-6
-1.066, 5.426e-6
-1.067, 5.425e-6
-1.068, 5.422e-6
-1.069, 5.420e-6
-1.070, 5.417e-6
-1.071, 5.417e-6
-1.072, 5.416e-6
-1.073, 5.413e-6
-1.074, 5.411e-6
-1.075, 5.410e-6
-1.076, 5.410e-6
-1.077, 5.408e-6
-1.078, 5.405e-6
-1.079, 5.403e-6
-1.080, 5.401e-6
-1.081, 5.401e-6
-1.082, 5.401e-6
-1.083, 5.398e-6
-1.084, 5.394e-6
-1.085, 5.393e-6
-1.086, 5.393e-6
-1.087, 5.392e-6
-1.088, 5.390e-6
-1.089, 5.389e-6
-1.090, 5.386e-6
-1.091, 5.387e-6
-1.092, 5.386e-6
-1.093, 5.383e-6
-1.094, 5.382e-6
-1.095, 5.381e-6
-1.096, 5.381e-6
-1.097, 5.381e-6
-1.098, 5.378e-6
-1.099, 5.378e-6
-1.100, 5.376e-6
-1.101, 5.377e-6
-1.102, 5.378e-6
-1.103, 5.376e-6
-1.104, 5.374e-6
-1.105, 5.372e-6
-1.106, 5.373e-6
-1.107, 5.374e-6
-1.108, 5.372e-6
-1.109, 5.370e-6
-1.110, 5.369e-6
-1.111, 5.369e-6
-1.112, 5.371e-6
-1.113, 5.370e-6
-1.114, 5.369e-6
-1.115, 5.369e-6
-1.116, 5.370e-6
-1.117, 5.370e-6
-1.118, 5.369e-6
-1.119, 5.369e-6
-1.120, 5.369e-6
-1.121, 5.370e-6
-1.122, 5.370e-6
-1.123, 5.369e-6
-1.124, 5.368e-6
-1.125, 5.367e-6
-1.126, 5.370e-6
-1.127, 5.371e-6
-1.128, 5.370e-6
-1.129, 5.371e-6
-1.130, 5.370e-6
-1.131, 5.372e-6
-1.132, 5.375e-6
-1.133, 5.374e-6
-1.134, 5.375e-6
-1.135, 5.375e-6
-1.136, 5.376e-6
-1.137, 5.379e-6
-1.138, 5.378e-6
-1.139, 5.380e-6
-1.140, 5.380e-6
-1.141, 5.382e-6
-1.142, 5.385e-6
-1.143, 5.385e-6
-1.144, 5.385e-6
-1.145, 5.388e-6
-1.146, 5.389e-6
-1.147, 5.392e-6
-1.148, 5.392e-6
-1.149, 5.394e-6
-1.150, 5.395e-6
-1.151, 5.398e-6
-1.152, 5.401e-6
-1.153, 5.402e-6
-1.154, 5.403e-6
-1.155, 5.406e-6
-1.156, 5.409e-6
-1.157, 5.411e-6
-1.158, 5.412e-6
-1.159, 5.413e-6
-1.160, 5.416e-6
-1.161, 5.420e-6
-1.162, 5.422e-6
-1.163, 5.424e-6
-1.164, 5.426e-6
-1.165, 5.429e-6
-1.166, 5.432e-6
-1.167, 5.434e-6
-1.168, 5.436e-6
-1.169, 5.440e-6
-1.170, 5.440e-6
-1.171, 5.445e-6
-1.172, 5.450e-6
-1.173, 5.451e-6
-1.174, 5.454e-6
-1.175, 5.457e-6
-1.176, 5.460e-6
-1.177, 5.465e-6
-1.178, 5.468e-6
-1.179, 5.471e-6
-1.180, 5.473e-6
-1.181, 5.476e-6
-1.182, 5.482e-6
-1.183, 5.484e-6
-1.184, 5.488e-6
-1.185, 5.490e-6
-1.186, 5.493e-6
-1.187, 5.498e-6
-1.188, 5.501e-6
-1.189, 5.504e-6
-1.190, 5.507e-6
-1.191, 5.511e-6
-1.192, 5.516e-6
-1.193, 5.519e-6
-1.194, 5.522e-6
-1.195, 5.525e-6
-1.196, 5.528e-6
-1.197, 5.532e-6
-1.198, 5.534e-6
-1.199, 5.537e-6
-1.200, 5.540e-6
-1.201, 5.546e-6
-1.202, 5.550e-6
-1.203, 5.554e-6
-1.204, 5.557e-6
-1.205, 5.559e-6
-1.206, 5.565e-6
-1.207, 5.568e-6
-1.208, 5.568e-6
-1.209, 5.574e-6
-1.210, 5.577e-6
-1.211, 5.582e-6
-1.212, 5.586e-6
-1.213, 5.588e-6
-1.214, 5.590e-6
-1.215, 5.592e-6
-1.216, 5.597e-6
-1.217, 5.603e-6
-1.218, 5.604e-6
-1.219, 5.608e-6
-1.220, 5.610e-6
-1.221, 5.614e-6
-1.222, 5.620e-6
-1.223, 5.621e-6
-1.224, 5.625e-6
-1.225, 5.628e-6
-1.226, 5.632e-6
-1.227, 5.636e-6
-1.228, 5.639e-6
-1.229, 5.646e-6
-1.230, 5.648e-6
-1.231, 5.651e-6
-1.232, 5.653e-6
-1.233, 5.655e-6
-1.234, 5.657e-6
-1.235, 5.661e-6
-1.236, 5.665e-6
-1.237, 5.668e-6
-1.238, 5.670e-6
-1.239, 5.674e-6
-1.240, 5.676e-6
-1.241, 5.682e-6
-1.242, 5.686e-6
-1.243, 5.689e-6
-1.244, 5.692e-6
-1.245, 5.693e-6
-1.246, 5.699e-6
-1.247, 5.703e-6
-1.248, 5.705e-6
-1.249, 5.708e-6
-1.250, 5.710e-6
-1.251, 5.716e-6
-1.252, 5.720e-6
-1.253, 5.721e-6
-1.254, 5.726e-6
-1.255, 5.728e-6
-1.256, 5.734e-6
-1.257, 5.739e-6
-1.258, 5.741e-6
-1.259, 5.745e-6
-1.260, 5.747e-6
-1.261, 5.752e-6
-1.262, 5.757e-6
-1.263, 5.759e-6
-1.264, 5.761e-6
-1.265, 5.764e-6
-1.266, 5.769e-6
-1.267, 5.775e-6
-1.268, 5.778e-6
-1.269, 5.780e-6
-1.270, 5.785e-6
-1.271, 5.789e-6
-1.272, 5.794e-6
-1.273, 5.798e-6
-1.274, 5.802e-6
-1.275, 5.804e-6
-1.276, 5.809e-6
-1.277, 5.813e-6
-1.278, 5.817e-6
-1.279, 5.821e-6
-1.280, 5.829e-6
-1.281, 5.834e-6
-1.282, 5.836e-6
-1.283, 5.839e-6
-1.284, 5.840e-6
-1.285, 5.843e-6
-1.286, 5.849e-6
-1.287, 5.852e-6
-1.288, 5.856e-6
-1.289, 5.861e-6
-1.290, 5.865e-6
-1.291, 5.871e-6
-1.292, 5.875e-6
-1.293, 5.877e-6
-1.294, 5.882e-6
-1.295, 5.885e-6
-1.296, 5.891e-6
-1.297, 5.896e-6
-1.298, 5.899e-6
-1.299, 5.905e-6
-1.300, 5.908e-6
-1.301, 5.912e-6
-1.302, 5.917e-6
-1.303, 5.920e-6
-1.304, 5.924e-6
-1.305, 5.928e-6
-1.306, 5.933e-6
-1.307, 5.940e-6
-1.308, 5.943e-6
-1.309, 5.947e-6
-1.310, 5.952e-6
-1.311, 5.958e-6
-1.312, 5.964e-6
-1.313, 5.968e-6
-1.314, 5.970e-6
-1.315, 5.975e-6
-1.316, 5.982e-6
-1.317, 5.988e-6
-1.318, 5.993e-6
-1.319, 5.998e-6
-1.320, 6.003e-6
-1.321, 6.010e-6
-1.322, 6.015e-6
-1.323, 6.020e-6
-1.324, 6.025e-6
-1.325, 6.030e-6
-1.326, 6.039e-6
-1.327, 6.044e-6
-1.328, 6.048e-6
-1.329, 6.055e-6
-1.330, 6.059e-6
-1.331, 6.066e-6
-1.332, 6.074e-6
-1.333, 6.080e-6
-1.334, 6.085e-6
-1.335, 6.089e-6
-1.336, 6.097e-6
-1.337, 6.105e-6
-1.338, 6.110e-6
-1.339, 6.116e-6
-1.340, 6.123e-6
-1.341, 6.129e-6
-1.342, 6.137e-6
-1.343, 6.141e-6
-1.344, 6.148e-6
-1.345, 6.155e-6
-1.346, 6.162e-6
-1.347, 6.168e-6
-1.348, 6.174e-6
-1.349, 6.180e-6
-1.350, 6.185e-6
-1.351, 6.193e-6
-1.352, 6.200e-6
-1.353, 6.207e-6
-1.354, 6.213e-6
-1.355, 6.220e-6
-1.356, 6.229e-6
-1.357, 6.237e-6
-1.358, 6.242e-6
-1.359, 6.248e-6
-1.360, 6.258e-6
-1.361, 6.265e-6
-1.362, 6.274e-6
-1.363, 6.280e-6
-1.364, 6.288e-6
-1.365, 6.296e-6
-1.366, 6.307e-6
-1.367, 6.314e-6
-1.368, 6.322e-6
-1.369, 6.330e-6
-1.370, 6.337e-6
-1.371, 6.348e-6
-1.372, 6.357e-6
-1.373, 6.364e-6
-1.374, 6.374e-6
-1.375, 6.383e-6
-1.376, 6.393e-6
-1.377, 6.404e-6
-1.378, 6.409e-6
-1.379, 6.421e-6
-1.380, 6.430e-6
-1.381, 6.441e-6
-1.382, 6.452e-6
-1.383, 6.462e-6
-1.384, 6.470e-6
-1.385, 6.481e-6
-1.386, 6.491e-6
-1.387, 6.500e-6
-1.388, 6.510e-6
-1.389, 6.520e-6
-1.390, 6.531e-6
-1.391, 6.544e-6
-1.392, 6.557e-6
-1.393, 6.568e-6
-1.394, 6.578e-6
-1.395, 6.587e-6
-1.396, 6.602e-6
-1.397, 6.612e-6
-1.398, 6.624e-6
-1.399, 6.635e-6
-1.400, 6.645e-6
-1.401, 6.659e-6
-1.402, 6.670e-6
-1.403, 6.681e-6
-1.404, 6.693e-6
-1.405, 6.705e-6
-1.406, 6.722e-6
-1.407, 6.733e-6
-1.408, 6.746e-6
-1.409, 6.759e-6
-1.410, 6.772e-6
-1.411, 6.787e-6
-1.412, 6.801e-6
-1.413, 6.814e-6
-1.414, 6.828e-6
-1.415, 6.843e-6
-1.416, 6.859e-6
-1.417, 6.875e-6
-1.418, 6.888e-6
-1.419, 6.903e-6
-1.420, 6.917e-6
-1.421, 6.934e-6
-1.422, 6.951e-6
-1.423, 6.964e-6
-1.424, 6.980e-6
-1.425, 6.996e-6
-1.426, 7.013e-6
-1.427, 7.033e-6
-1.428, 7.050e-6
-1.429, 7.066e-6
-1.430, 7.085e-6
-1.431, 7.104e-6
-1.432, 7.123e-6
-1.433, 7.141e-6
-1.434, 7.161e-6
-1.435, 7.179e-6
-1.436, 7.199e-6
-1.437, 7.217e-6
-1.438, 7.236e-6
-1.439, 7.253e-6
-1.440, 7.274e-6
-1.441, 7.297e-6
-1.442, 7.317e-6
-1.443, 7.336e-6
-1.444, 7.357e-6
-1.445, 7.376e-6
-1.446, 7.400e-6
-1.447, 7.422e-6
-1.448, 7.443e-6
-1.449, 7.467e-6
-1.450, 7.490e-6
-1.451, 7.516e-6
-1.452, 7.539e-6
-1.453, 7.561e-6
-1.454, 7.587e-6
-1.455, 7.611e-6
-1.456, 7.639e-6
-1.457, 7.665e-6
-1.458, 7.689e-6
-1.459, 7.717e-6
-1.460, 7.745e-6
-1.461, 7.772e-6
-1.462, 7.801e-6
-1.463, 7.828e-6
-1.464, 7.857e-6
-1.465, 7.887e-6
-1.466, 7.916e-6
-1.467, 7.945e-6
-1.468, 7.976e-6
-1.469, 8.004e-6
-1.470, 8.036e-6
-1.471, 8.068e-6
-1.472, 8.102e-6
-1.473, 8.133e-6
-1.474, 8.169e-6
-1.475, 8.206e-6
-1.476, 8.242e-6
-1.477, 8.276e-6
-1.478, 8.312e-6
-1.479, 8.346e-6
-1.480, 8.381e-6
-1.481, 8.420e-6
-1.482, 8.458e-6
-1.483, 8.497e-6
-1.484, 8.535e-6
-1.485, 8.577e-6
-1.486, 8.616e-6
-1.487, 8.653e-6
-1.488, 8.696e-6
-1.489, 8.742e-6
-1.490, 8.782e-6
-1.491, 8.824e-6
-1.492, 8.867e-6
-1.493, 8.910e-6
-1.494, 8.957e-6
-1.495, 9.000e-6
-1.496, 9.048e-6
-1.497, 9.097e-6
-1.498, 9.142e-6
-1.499, 9.192e-6
-1.500, 9.241e-6
-1.501, 9.293e-6
-1.502, 9.346e-6
-1.503, 9.392e-6
-1.504, 9.444e-6
-1.505, 9.498e-6
-1.506, 9.553e-6
-1.507, 9.610e-6
-1.508, 9.664e-6
-1.509, 9.719e-6
-1.510, 9.777e-6
-1.511, 9.838e-6
-1.512, 9.896e-6
-1.513, 9.956e-6
-1.514, 1.001e-5
-1.515, 1.007e-5
-1.516, 1.014e-5
-1.517, 1.020e-5
-1.518, 1.026e-5
-1.519, 1.032e-5
-1.520, 1.039e-5
-1.521, 1.046e-5
-1.522, 1.052e-5
-1.523, 1.059e-5
-1.524, 1.066e-5
-1.525, 1.073e-5
-1.526, 1.080e-5
-1.527, 1.087e-5
-1.528, 1.095e-5
-1.529, 1.102e-5
-1.530, 1.109e-5
-1.531, 1.117e-5
-1.532, 1.124e-5
-1.533, 1.132e-5
-1.534, 1.140e-5
-1.535, 1.148e-5
-1.536, 1.156e-5
-1.537, 1.164e-5
-1.538, 1.172e-5
-1.539, 1.180e-5
-1.540, 1.188e-5
-1.541, 1.197e-5
-1.542, 1.205e-5
-1.543, 1.212e-5
-1.544, 1.221e-5
-1.545, 1.230e-5
-1.546, 1.239e-5
-1.547, 1.248e-5
-1.548, 1.257e-5
-1.549, 1.266e-5
-1.550, 1.275e-5
-1.551, 1.285e-5
-1.552, 1.294e-5
-1.553, 1.304e-5
-1.554, 1.313e-5
-1.555, 1.323e-5
-1.556, 1.333e-5
-1.557, 1.343e-5
-1.558, 1.353e-5
-1.559, 1.363e-5
-1.560, 1.373e-5
-1.561, 1.384e-5
-1.562, 1.395e-5
-1.563, 1.405e-5
-1.564, 1.416e-5
-1.565, 1.426e-5
-1.566, 1.437e-5
-1.567, 1.448e-5
-1.568, 1.459e-5
-1.569, 1.470e-5
-1.570, 1.481e-5
-1.571, 1.493e-5
-1.572, 1.505e-5
-1.573, 1.516e-5
-1.574, 1.528e-5
-1.575, 1.540e-5
-1.576, 1.552e-5
-1.577, 1.565e-5
-1.578, 1.577e-5
-1.579, 1.589e-5
-1.580, 1.602e-5
-1.581, 1.615e-5
-1.582, 1.628e-5
-1.583, 1.641e-5
-1.584, 1.654e-5
-1.585, 1.668e-5
-1.586, 1.681e-5
-1.587, 1.695e-5
-1.588, 1.709e-5
-1.589, 1.723e-5
-1.590, 1.737e-5
-1.591, 1.751e-5
-1.592, 1.766e-5
-1.593, 1.780e-5
-1.594, 1.795e-5
-1.595, 1.810e-5
-1.596, 1.825e-5
-1.597, 1.840e-5
-1.598, 1.856e-5
-1.599, 1.871e-5
-1.600, 1.887e-5
-1.601, 1.904e-5
-1.602, 1.920e-5
-1.603, 1.937e-5
-1.604, 1.953e-5
-1.605, 1.970e-5
-1.606, 1.988e-5
-1.607, 2.005e-5
-1.608, 2.023e-5
-1.609, 2.041e-5
-1.610, 2.059e-5
-1.611, 2.079e-5
-1.612, 2.098e-5
-1.613, 2.117e-5
-1.614, 2.136e-5
-1.615, 2.156e-5
-1.616, 2.176e-5
-1.617, 2.197e-5
-1.618, 2.216e-5
-1.619, 2.238e-5
-1.620, 2.259e-5
-1.621, 2.281e-5
-1.622, 2.304e-5
-1.623, 2.325e-5
-1.624, 2.348e-5
-1.625, 2.372e-5
-1.626, 2.396e-5
-1.627, 2.420e-5
-1.628, 2.444e-5
-1.629, 2.469e-5
-1.630, 2.495e-5
-1.631, 2.520e-5
-1.632, 2.546e-5
-1.633, 2.573e-5
-1.634, 2.599e-5
-1.635, 2.627e-5
-1.636, 2.655e-5
-1.637, 2.683e-5
-1.638, 2.713e-5
-1.639, 2.743e-5
-1.640, 2.773e-5
-1.641, 2.802e-5
-1.642, 2.833e-5
-1.643, 2.865e-5
-1.644, 2.897e-5
-1.645, 2.930e-5
-1.646, 2.963e-5
-1.647, 2.997e-5
-1.648, 3.031e-5
-1.649, 3.066e-5
-1.650, 3.102e-5
-1.651, 3.139e-5
-1.652, 3.176e-5
-1.653, 3.214e-5
-1.654, 3.253e-5
-1.655, 3.292e-5
-1.656, 3.332e-5
-1.657, 3.373e-5
-1.658, 3.414e-5
-1.659, 3.457e-5
-1.660, 3.499e-5
-1.661, 3.543e-5
-1.662, 3.588e-5
-1.663, 3.634e-5
-1.664, 3.681e-5
-1.665, 3.728e-5
-1.666, 3.777e-5
-1.667, 3.826e-5
-1.668, 3.876e-5
-1.669, 3.927e-5
-1.670, 3.979e-5
-1.671, 4.032e-5
-1.672, 4.087e-5
-1.673, 4.143e-5
-1.674, 4.198e-5
-1.675, 4.255e-5
-1.676, 4.314e-5
-1.677, 4.372e-5
-1.678, 4.433e-5
-1.679, 4.495e-5
-1.680, 4.558e-5
-1.681, 4.622e-5
-1.682, 4.688e-5
-1.683, 4.755e-5
-1.684, 4.824e-5
-1.685, 4.893e-5
-1.686, 4.964e-5
-1.687, 5.037e-5
-1.688, 5.111e-5
-1.689, 5.187e-5
-1.690, 5.265e-5
-1.691, 5.343e-5
-1.692, 5.424e-5
-1.693, 5.505e-5
-1.694, 5.588e-5
-1.695, 5.674e-5
-1.696, 5.761e-5
-1.697, 5.849e-5
-1.698, 5.937e-5
-1.699, 6.028e-5
-1.700, 6.123e-5
-1.701, 6.220e-5
-1.702, 6.316e-5
-1.703, 6.416e-5
-1.704, 6.517e-5
-1.705, 6.620e-5
-1.706, 6.724e-5
-1.707, 6.830e-5
-1.708, 6.940e-5
-1.709, 7.050e-5
-1.710, 7.163e-5
-1.711, 7.280e-5
-1.712, 7.397e-5
-1.713, 7.516e-5
-1.714, 7.636e-5
-1.715, 7.760e-5
-1.716, 7.886e-5
-1.717, 8.015e-5
-1.718, 8.145e-5
-1.719, 8.276e-5
-1.720, 8.411e-5
-1.721, 8.549e-5
-1.722, 8.690e-5
-1.723, 8.833e-5
-1.724, 8.978e-5
-1.725, 9.124e-5
-1.726, 9.272e-5
-1.727, 9.426e-5
-1.728, 9.581e-5
-1.729, 9.738e-5
-1.730, 9.900e-5
-1.731, 1.006e-4
-1.732, 1.023e-4
-1.733, 1.040e-4
-1.734, 1.057e-4
-1.735, 1.074e-4
-1.736, 1.091e-4
-1.737, 1.106e-4
-1.738, 1.123e-4
-1.739, 1.141e-4
-1.740, 1.159e-4
-1.741, 1.177e-4
-1.742, 1.196e-4
-1.743, 1.216e-4
-1.744, 1.235e-4
-1.745, 1.255e-4
-1.746, 1.275e-4
-1.747, 1.296e-4
-1.748, 1.316e-4
-1.749, 1.338e-4
-1.750, 1.359e-4
-1.751, 1.381e-4
-1.752, 1.402e-4
-1.753, 1.425e-4
-1.754, 1.447e-4
-1.755, 1.470e-4
-1.756, 1.493e-4
-1.757, 1.516e-4
-1.758, 1.540e-4
-1.759, 1.563e-4
-1.760, 1.587e-4
-1.761, 1.611e-4
-1.762, 1.636e-4
-1.763, 1.661e-4
-1.764, 1.686e-4
-1.765, 1.712e-4
-1.766, 1.737e-4
-1.767, 1.763e-4
-1.768, 1.789e-4
-1.769, 1.815e-4
-1.770, 1.842e-4
-1.771, 1.868e-4
-1.772, 1.894e-4
-1.773, 1.921e-4
-1.774, 1.949e-4
-1.775, 1.978e-4
-1.776, 2.007e-4
-1.777, 2.035e-4
-1.778, 2.065e-4
-1.779, 2.095e-4
-1.780, 2.125e-4
-1.781, 2.156e-4
-1.782, 2.188e-4
-1.783, 2.219e-4
-1.784, 2.252e-4
-1.785, 2.284e-4
-1.786, 2.318e-4
-1.787, 2.351e-4
-1.788, 2.385e-4
-1.789, 2.420e-4
-1.790, 2.454e-4
-1.791, 2.490e-4
-1.792, 2.525e-4
-1.793, 2.562e-4
-1.794, 2.599e-4
-1.795, 2.637e-4
-1.796, 2.674e-4
-1.797, 2.713e-4
-1.798, 2.751e-4
-1.799, 2.788e-4
-1.800, 2.827e-4
-1.801, 2.866e-4
-1.802, 2.905e-4
-1.803, 2.946e-4
-1.804, 2.988e-4
-1.805, 3.030e-4
-1.806, 3.073e-4
-1.807, 3.117e-4
-1.808, 3.161e-4
-1.809, 3.206e-4
-1.810, 3.252e-4
-1.811, 3.297e-4
-1.812, 3.344e-4
-1.813, 3.390e-4
-1.814, 3.437e-4
-1.815, 3.483e-4
-1.816, 3.530e-4
-1.817, 3.577e-4
-1.818, 3.623e-4
-1.819, 3.670e-4
-1.820, 3.719e-4
-1.821, 3.769e-4
-1.822, 3.819e-4
-1.823, 3.870e-4
-1.824, 3.921e-4
-1.825, 3.973e-4
-1.826, 4.025e-4
-1.827, 4.078e-4
-1.828, 4.131e-4
-1.829, 4.185e-4
-1.830, 4.239e-4
-1.831, 4.292e-4
-1.832, 4.345e-4
-1.833, 4.400e-4
-1.834, 4.454e-4
-1.835, 4.509e-4
-1.836, 4.564e-4
-1.837, 4.620e-4
-1.838, 4.677e-4
-1.839, 4.732e-4
-1.840, 4.788e-4
-1.841, 4.844e-4
-1.842, 4.902e-4
-1.843, 4.958e-4
-1.844, 5.015e-4
-1.845, 5.073e-4
-1.846, 5.132e-4
-1.847, 5.190e-4
-1.848, 5.250e-4
-1.849, 5.309e-4
-1.850, 5.370e-4
-1.851, 5.431e-4
-1.852, 5.494e-4
-1.853, 5.557e-4
-1.854, 5.621e-4
-1.855, 5.684e-4
-1.856, 5.748e-4
-1.857, 5.814e-4
-1.858, 5.879e-4
-1.859, 5.944e-4
-1.860, 6.011e-4
-1.861, 6.077e-4
-1.862, 6.141e-4
-1.863, 6.207e-4
-1.864, 6.272e-4
-1.865, 6.336e-4
-1.866, 6.401e-4
-1.867, 6.467e-4
-1.868, 6.534e-4
-1.869, 6.605e-4
-1.870, 6.676e-4
-1.871, 6.744e-4
-1.872, 6.813e-4
-1.873, 6.882e-4
-1.874, 6.951e-4
-1.875, 7.018e-4
-1.876, 7.087e-4
-1.877, 7.156e-4
-1.878, 7.227e-4
-1.879, 7.298e-4
-1.880, 7.368e-4
-1.881, 7.440e-4
-1.882, 7.513e-4
-1.883, 7.584e-4
-1.884, 7.657e-4
-1.885, 7.728e-4
-1.886, 7.799e-4
-1.887, 7.871e-4
-1.888, 7.946e-4
-1.889, 8.018e-4
-1.890, 8.090e-4
-1.891, 8.163e-4
-1.892, 8.237e-4
-1.893, 8.312e-4
-1.894, 8.387e-4
-1.895, 8.462e-4
-1.896, 8.539e-4
-1.897, 8.614e-4
-1.898, 8.690e-4
-1.899, 8.766e-4
-1.900, 8.840e-4
-1.901, 8.917e-4
-1.902, 8.994e-4
-1.903, 9.069e-4
-1.904, 9.147e-4
-1.905, 9.225e-4
-1.906, 9.302e-4
-1.907, 9.380e-4
-1.908, 9.457e-4
-1.909, 9.536e-4
-1.910, 9.617e-4
-1.911, 9.697e-4
-1.912, 9.776e-4
-1.913, 9.852e-4
-1.914, 9.930e-4
-1.915, 1.001e-3
-1.916, 1.009e-3
-1.917, 1.011e-3
-1.918, 1.011e-3
-1.919, 1.011e-3
-1.920, 1.011e-3
-1.921, 1.011e-3
-1.922, 1.011e-3
-1.923, 1.011e-3
-1.924, 1.011e-3
-1.925, 1.011e-3
-1.926, 1.011e-3
-1.927, 1.011e-3
-1.928, 1.011e-3
-1.929, 1.011e-3
-1.930, 1.011e-3
-1.931, 1.011e-3
-1.932, 1.011e-3
-1.933, 1.011e-3
-1.934, 1.011e-3
-1.935, 1.011e-3
-1.936, 1.011e-3
-1.937, 1.011e-3
-1.938, 1.011e-3
-1.939, 1.011e-3
-1.940, 1.011e-3
-1.941, 1.011e-3
-1.942, 1.011e-3
-1.943, 1.011e-3
-1.944, 1.011e-3
-1.945, 1.011e-3
-1.946, 1.011e-3
-1.947, 1.011e-3
-1.948, 1.011e-3
-1.949, 1.011e-3
-1.950, 1.011e-3
-1.951, 1.011e-3
-1.952, 1.011e-3
-1.953, 1.011e-3
-1.954, 1.011e-3
-1.955, 1.011e-3
-1.956, 1.011e-3
-1.957, 1.011e-3
-1.958, 1.011e-3
-1.959, 1.011e-3
-1.960, 1.011e-3
-1.961, 1.011e-3
-1.962, 1.011e-3
-1.963, 1.011e-3
-1.964, 1.011e-3
-1.965, 1.011e-3
-1.966, 1.011e-3
-1.967, 1.011e-3
-1.968, 1.011e-3
-1.969, 1.011e-3
-1.970, 1.011e-3
-1.971, 1.011e-3
-1.972, 1.011e-3
-1.973, 1.011e-3
-1.974, 1.011e-3
-1.975, 1.011e-3
-1.976, 1.011e-3
-1.977, 1.011e-3
-1.978, 1.011e-3
-1.979, 1.011e-3
-1.980, 1.011e-3
-1.981, 1.011e-3
-1.982, 1.011e-3
-1.983, 1.011e-3
-1.984, 1.011e-3
-1.985, 1.011e-3
-1.986, 1.011e-3
-1.987, 1.011e-3
-1.988, 1.011e-3
-1.989, 1.011e-3
-1.990, 1.011e-3
-1.991, 1.011e-3
-1.992, 1.011e-3
-1.993, 1.011e-3
-1.994, 1.011e-3
-1.995, 1.011e-3
-1.996, 1.011e-3
-1.997, 1.011e-3
-1.998, 1.011e-3
-1.999, 1.011e-3
-2.000, 1.011e-3
-2.001, 1.011e-3
-2.002, 1.011e-3
-2.003, 1.011e-3
-2.004, 1.011e-3
-2.005, 1.011e-3
-2.006, 1.011e-3
-2.007, 1.011e-3
-2.008, 1.011e-3
-2.009, 1.011e-3
-2.010, 1.011e-3
-2.011, 1.011e-3
-2.012, 1.011e-3
-2.013, 1.011e-3
-2.014, 1.011e-3
-2.015, 1.011e-3
-2.016, 1.011e-3
-2.017, 1.011e-3
-2.018, 1.011e-3
-2.019, 1.011e-3
-2.020, 1.011e-3
-2.021, 1.011e-3
-2.022, 1.011e-3
-2.023, 1.011e-3
-2.024, 1.011e-3
-2.025, 1.011e-3
-2.026, 1.011e-3
-2.027, 1.011e-3
-2.028, 1.011e-3
-2.029, 1.011e-3
-2.030, 1.011e-3
-2.031, 1.011e-3
-2.032, 1.011e-3
-2.033, 1.011e-3
-2.034, 1.011e-3
-2.035, 1.011e-3
-2.036, 1.011e-3
-2.037, 1.011e-3
-2.038, 1.011e-3
-2.039, 1.011e-3
-2.040, 1.011e-3
-2.041, 1.011e-3
-2.042, 1.011e-3
-2.043, 1.011e-3
-2.044, 1.011e-3
-2.045, 1.011e-3
-2.046, 1.011e-3
-2.047, 1.011e-3
-2.048, 1.011e-3
-2.049, 1.011e-3
-2.050, 1.011e-3
-2.051, 1.011e-3
-2.052, 1.011e-3
-2.053, 1.011e-3
-2.054, 1.011e-3
-2.055, 1.011e-3
-2.056, 1.011e-3
-2.057, 1.011e-3
-2.058, 1.011e-3
-2.059, 1.011e-3
-2.060, 1.011e-3
-2.061, 1.011e-3
-2.062, 1.011e-3
-2.063, 1.011e-3
-2.064, 1.011e-3
-2.065, 1.011e-3
-2.066, 1.011e-3
-2.067, 1.011e-3
-2.068, 1.011e-3
-2.069, 1.011e-3
-2.070, 1.011e-3
-2.071, 1.011e-3
-2.072, 1.011e-3
-2.073, 1.011e-3
-2.074, 1.011e-3
-2.075, 1.011e-3
-2.076, 1.011e-3
-2.077, 1.011e-3
-2.078, 1.011e-3
-2.079, 1.011e-3
-2.080, 1.011e-3
-2.081, 1.011e-3
-2.082, 1.011e-3
-2.083, 1.011e-3
-2.084, 1.011e-3
-2.085, 1.011e-3
-2.086, 1.011e-3
-2.087, 1.011e-3
-2.088, 1.011e-3
-2.089, 1.011e-3
-2.090, 1.011e-3
-2.091, 1.011e-3
-2.092, 1.011e-3
-2.093, 1.011e-3
-2.094, 1.011e-3
-2.095, 1.011e-3
-2.096, 1.011e-3
-2.097, 1.011e-3
-2.098, 1.011e-3
-2.099, 1.011e-3
-2.100, 1.011e-3
-2.101, 1.011e-3
-2.102, 1.011e-3
-2.103, 1.011e-3
-2.104, 1.011e-3
-2.105, 1.011e-3
-2.106, 1.011e-3
-2.107, 1.011e-3
-2.108, 1.011e-3
-2.109, 1.011e-3
-2.110, 1.011e-3
-2.111, 1.011e-3
-2.112, 1.011e-3
-2.113, 1.011e-3
-2.114, 1.011e-3
-2.115, 1.011e-3
-2.116, 1.011e-3
-2.117, 1.011e-3
-2.118, 1.011e-3
-2.119, 1.011e-3
-2.120, 1.011e-3
-2.121, 1.011e-3
-2.122, 1.011e-3
-2.123, 1.011e-3
-2.124, 1.011e-3
-2.125, 1.011e-3
-2.126, 1.011e-3
-2.127, 1.011e-3
-2.128, 1.011e-3
-2.129, 1.011e-3
-2.130, 1.011e-3
-2.131, 1.011e-3
-2.132, 1.011e-3
-2.133, 1.011e-3
-2.134, 1.011e-3
-2.135, 1.011e-3
-2.136, 1.011e-3
-2.137, 1.011e-3
-2.138, 1.011e-3
-2.139, 1.011e-3
-2.140, 1.011e-3
-2.141, 1.011e-3
-2.142, 1.011e-3
-2.143, 1.011e-3
-2.144, 1.011e-3
-2.145, 1.011e-3
-2.146, 1.011e-3
-2.147, 1.011e-3
-2.148, 1.011e-3
-2.149, 1.011e-3
-2.150, 1.011e-3
-2.151, 1.011e-3
-2.152, 1.011e-3
-2.153, 1.011e-3
-2.154, 1.011e-3
-2.155, 1.011e-3
-2.156, 1.011e-3
-2.157, 1.011e-3
-2.158, 1.011e-3
-2.159, 1.011e-3
-2.160, 1.011e-3
-2.161, 1.011e-3
-2.162, 1.011e-3
-2.163, 1.011e-3
-2.164, 1.011e-3
-2.165, 1.011e-3
-2.166, 1.011e-3
-2.167, 1.011e-3
-2.168, 1.011e-3
-2.169, 1.011e-3
-2.170, 1.011e-3
-2.171, 1.011e-3
-2.172, 1.011e-3
-2.173, 1.011e-3
-2.174, 1.011e-3
-2.175, 1.011e-3
-2.176, 1.011e-3
-2.177, 1.011e-3
-2.178, 1.011e-3
-2.179, 1.011e-3
-2.180, 1.011e-3
-2.181, 1.011e-3
-2.182, 1.011e-3
-2.183, 1.011e-3
-2.184, 1.011e-3
-2.185, 1.011e-3
-2.186, 1.011e-3
-2.187, 1.011e-3
-2.188, 1.011e-3
-2.189, 1.011e-3
-2.190, 1.011e-3
-2.191, 1.011e-3
-2.192, 1.011e-3
-2.193, 1.011e-3
-2.194, 1.011e-3
-2.195, 1.011e-3
-2.196, 1.011e-3
-2.197, 1.011e-3
-2.198, 1.011e-3
-2.199, 1.011e-3
-2.200, 1.011e-3
-2.201, 1.011e-3
-2.202, 1.011e-3
-2.203, 1.011e-3
-2.204, 1.011e-3
-2.205, 1.011e-3
-2.206, 1.011e-3
-2.207, 1.011e-3
-2.208, 1.011e-3
-2.209, 1.011e-3
-2.210, 1.011e-3
-2.211, 1.011e-3
-2.212, 1.011e-3
-2.213, 1.011e-3
-2.214, 1.011e-3
-2.215, 1.011e-3
-2.216, 1.011e-3
-2.217, 1.011e-3
-2.218, 1.011e-3
-2.219, 1.011e-3
-2.220, 1.011e-3
-2.221, 1.011e-3
-2.222, 1.011e-3
-2.223, 1.011e-3
-2.224, 1.011e-3
-2.225, 1.011e-3
-2.226, 1.011e-3
-2.227, 1.011e-3
-2.228, 1.011e-3
-2.229, 1.011e-3
-2.230, 1.011e-3
-2.231, 1.011e-3
-2.232, 1.011e-3
-2.233, 1.011e-3
-2.234, 1.011e-3
-2.235, 1.011e-3
-2.236, 1.011e-3
-2.237, 1.011e-3
-2.238, 1.011e-3
-2.239, 1.011e-3
-2.240, 1.011e-3
-2.241, 1.011e-3
-2.242, 1.011e-3
-2.243, 1.011e-3
-2.244, 1.011e-3
-2.245, 1.011e-3
-2.246, 1.011e-3
-2.247, 1.011e-3
-2.248, 1.011e-3
-2.249, 1.011e-3
-2.250, 1.011e-3
-2.251, 1.011e-3
-2.252, 1.011e-3
-2.253, 1.011e-3
-2.254, 1.011e-3
-2.255, 1.011e-3
-2.256, 1.011e-3
-2.257, 1.011e-3
-2.258, 1.011e-3
-2.259, 1.011e-3
-2.260, 1.011e-3
-2.261, 1.011e-3
-2.262, 1.011e-3
-2.263, 1.011e-3
-2.264, 1.011e-3
-2.265, 1.011e-3
-2.266, 1.011e-3
-2.267, 1.011e-3
-2.268, 1.011e-3
-2.269, 1.011e-3
-2.270, 1.011e-3
-2.271, 1.011e-3
-2.272, 1.011e-3
-2.273, 1.011e-3
-2.274, 1.011e-3
-2.275, 1.011e-3
-2.276, 1.011e-3
-2.277, 1.011e-3
-2.278, 1.011e-3
-2.279, 1.011e-3
-2.280, 1.011e-3
-2.281, 1.011e-3
-2.282, 1.011e-3
-2.283, 1.011e-3
-2.284, 1.011e-3
-2.285, 1.011e-3
-2.286, 1.011e-3
-2.287, 1.011e-3
-2.288, 1.011e-3
-2.289, 1.011e-3
-2.290, 1.011e-3
-2.291, 1.011e-3
-2.292, 1.011e-3
-2.293, 1.011e-3
-2.294, 1.011e-3
-2.295, 1.011e-3
-2.296, 1.011e-3
-2.297, 1.011e-3
-2.298, 1.011e-3
-2.299, 1.011e-3
