Aug. 22, 2024   18:58:28
Cyclic Voltammetry
File: c:/users/guazh/data/20240813_batch_94_500/2024-08-15-exp162\exp162-2024-08-22t18_49_53-arkoh\exp162_cv_50mvs_efin_-1500mv.bin
Data Source:  Experiment
Instrument Model:  CHI760E
Header: CV ran at 50 mVs
Note: 

Init E (V) = -1
High E (V) = -1
Low E (V) = -1.5
Final E (V) = -1
Init P/N = N
Scan Rate (V/s) = 0.05
Segment = 7
Sample Interval (V) = 0.001
Quiet Time (sec) = 60
Sensitivity (A/V) = 0.001
Comp R (ohm) = 1.6

Results:

Channel 1:
Segment 1:

Segment 2:

Segment 3:

Segment 4:

Segment 5:

Segment 6:

Segment 7:

Potential/V, Current/A

-1.000, 4.381e-6
-1.001, 1.188e-5
-1.002, 1.555e-5
-1.003, 1.809e-5
-1.004, 1.991e-5
-1.005, 2.162e-5
-1.006, 2.323e-5
-1.007, 2.461e-5
-1.008, 2.566e-5
-1.009, 2.663e-5
-1.010, 2.787e-5
-1.011, 2.899e-5
-1.012, 2.996e-5
-1.013, 3.076e-5
-1.014, 3.146e-5
-1.015, 3.255e-5
-1.016, 3.353e-5
-1.017, 3.446e-5
-1.018, 3.530e-5
-1.019, 3.597e-5
-1.020, 3.701e-5
-1.021, 3.813e-5
-1.022, 3.905e-5
-1.023, 3.991e-5
-1.024, 4.069e-5
-1.025, 4.167e-5
-1.026, 4.275e-5
-1.027, 4.357e-5
-1.028, 4.484e-5
-1.029, 4.589e-5
-1.030, 4.749e-5
-1.031, 4.949e-5
-1.032, 5.124e-5
-1.033, 5.271e-5
-1.034, 5.367e-5
-1.035, 5.462e-5
-1.036, 5.569e-5
-1.037, 5.643e-5
-1.038, 5.732e-5
-1.039, 5.851e-5
-1.040, 6.023e-5
-1.041, 6.209e-5
-1.042, 6.397e-5
-1.043, 6.578e-5
-1.044, 6.734e-5
-1.045, 6.891e-5
-1.046, 7.052e-5
-1.047, 7.188e-5
-1.048, 7.283e-5
-1.049, 7.368e-5
-1.050, 7.480e-5
-1.051, 7.587e-5
-1.052, 7.691e-5
-1.053, 7.757e-5
-1.054, 7.833e-5
-1.055, 7.940e-5
-1.056, 8.027e-5
-1.057, 8.142e-5
-1.058, 8.236e-5
-1.059, 8.309e-5
-1.060, 8.414e-5
-1.061, 8.532e-5
-1.062, 8.641e-5
-1.063, 8.740e-5
-1.064, 8.829e-5
-1.065, 8.939e-5
-1.066, 9.061e-5
-1.067, 9.177e-5
-1.068, 9.289e-5
-1.069, 9.384e-5
-1.070, 9.498e-5
-1.071, 9.644e-5
-1.072, 9.770e-5
-1.073, 9.903e-5
-1.074, 1.002e-4
-1.075, 1.015e-4
-1.076, 1.032e-4
-1.077, 1.044e-4
-1.078, 1.056e-4
-1.079, 1.069e-4
-1.080, 1.082e-4
-1.081, 1.097e-4
-1.082, 1.114e-4
-1.083, 1.127e-4
-1.084, 1.141e-4
-1.085, 1.154e-4
-1.086, 1.172e-4
-1.087, 1.191e-4
-1.088, 1.203e-4
-1.089, 1.217e-4
-1.090, 1.233e-4
-1.091, 1.252e-4
-1.092, 1.271e-4
-1.093, 1.284e-4
-1.094, 1.301e-4
-1.095, 1.319e-4
-1.096, 1.337e-4
-1.097, 1.356e-4
-1.098, 1.372e-4
-1.099, 1.389e-4
-1.100, 1.407e-4
-1.101, 1.428e-4
-1.102, 1.449e-4
-1.103, 1.467e-4
-1.104, 1.483e-4
-1.105, 1.505e-4
-1.106, 1.525e-4
-1.107, 1.547e-4
-1.108, 1.568e-4
-1.109, 1.586e-4
-1.110, 1.608e-4
-1.111, 1.631e-4
-1.112, 1.652e-4
-1.113, 1.673e-4
-1.114, 1.695e-4
-1.115, 1.717e-4
-1.116, 1.742e-4
-1.117, 1.765e-4
-1.118, 1.787e-4
-1.119, 1.811e-4
-1.120, 1.833e-4
-1.121, 1.859e-4
-1.122, 1.884e-4
-1.123, 1.906e-4
-1.124, 1.932e-4
-1.125, 1.955e-4
-1.126, 1.984e-4
-1.127, 2.012e-4
-1.128, 2.035e-4
-1.129, 2.061e-4
-1.130, 2.088e-4
-1.131, 2.115e-4
-1.132, 2.146e-4
-1.133, 2.172e-4
-1.134, 2.199e-4
-1.135, 2.227e-4
-1.136, 2.256e-4
-1.137, 2.289e-4
-1.138, 2.317e-4
-1.139, 2.344e-4
-1.140, 2.376e-4
-1.141, 2.406e-4
-1.142, 2.440e-4
-1.143, 2.468e-4
-1.144, 2.499e-4
-1.145, 2.529e-4
-1.146, 2.563e-4
-1.147, 2.599e-4
-1.148, 2.629e-4
-1.149, 2.662e-4
-1.150, 2.695e-4
-1.151, 2.730e-4
-1.152, 2.767e-4
-1.153, 2.800e-4
-1.154, 2.834e-4
-1.155, 2.868e-4
-1.156, 2.907e-4
-1.157, 2.945e-4
-1.158, 2.979e-4
-1.159, 3.017e-4
-1.160, 3.053e-4
-1.161, 3.091e-4
-1.162, 3.134e-4
-1.163, 3.169e-4
-1.164, 3.209e-4
-1.165, 3.247e-4
-1.166, 3.289e-4
-1.167, 3.331e-4
-1.168, 3.368e-4
-1.169, 3.409e-4
-1.170, 3.450e-4
-1.171, 3.493e-4
-1.172, 3.538e-4
-1.173, 3.577e-4
-1.174, 3.619e-4
-1.175, 3.663e-4
-1.176, 3.706e-4
-1.177, 3.752e-4
-1.178, 3.796e-4
-1.179, 3.835e-4
-1.180, 3.881e-4
-1.181, 3.925e-4
-1.182, 3.971e-4
-1.183, 4.014e-4
-1.184, 4.055e-4
-1.185, 4.101e-4
-1.186, 4.146e-4
-1.187, 4.193e-4
-1.188, 4.239e-4
-1.189, 4.281e-4
-1.190, 4.326e-4
-1.191, 4.371e-4
-1.192, 4.417e-4
-1.193, 4.459e-4
-1.194, 4.502e-4
-1.195, 4.545e-4
-1.196, 4.590e-4
-1.197, 4.634e-4
-1.198, 4.676e-4
-1.199, 4.716e-4
-1.200, 4.757e-4
-1.201, 4.801e-4
-1.202, 4.843e-4
-1.203, 4.882e-4
-1.204, 4.920e-4
-1.205, 4.956e-4
-1.206, 4.994e-4
-1.207, 5.035e-4
-1.208, 5.064e-4
-1.209, 5.097e-4
-1.210, 5.130e-4
-1.211, 5.162e-4
-1.212, 5.196e-4
-1.213, 5.222e-4
-1.214, 5.250e-4
-1.215, 5.278e-4
-1.216, 5.303e-4
-1.217, 5.330e-4
-1.218, 5.352e-4
-1.219, 5.370e-4
-1.220, 5.393e-4
-1.221, 5.413e-4
-1.222, 5.432e-4
-1.223, 5.448e-4
-1.224, 5.458e-4
-1.225, 5.473e-4
-1.226, 5.488e-4
-1.227, 5.501e-4
-1.228, 5.512e-4
-1.229, 5.524e-4
-1.230, 5.530e-4
-1.231, 5.538e-4
-1.232, 5.545e-4
-1.233, 5.555e-4
-1.234, 5.558e-4
-1.235, 5.562e-4
-1.236, 5.570e-4
-1.237, 5.575e-4
-1.238, 5.583e-4
-1.239, 5.585e-4
-1.240, 5.590e-4
-1.241, 5.597e-4
-1.242, 5.605e-4
-1.243, 5.611e-4
-1.244, 5.618e-4
-1.245, 5.624e-4
-1.246, 5.637e-4
-1.247, 5.650e-4
-1.248, 5.661e-4
-1.249, 5.672e-4
-1.250, 5.684e-4
-1.251, 5.702e-4
-1.252, 5.720e-4
-1.253, 5.738e-4
-1.254, 5.756e-4
-1.255, 5.776e-4
-1.256, 5.800e-4
-1.257, 5.828e-4
-1.258, 5.854e-4
-1.259, 5.878e-4
-1.260, 5.909e-4
-1.261, 5.943e-4
-1.262, 5.977e-4
-1.263, 6.013e-4
-1.264, 6.045e-4
-1.265, 6.082e-4
-1.266, 6.129e-4
-1.267, 6.171e-4
-1.268, 6.219e-4
-1.269, 6.263e-4
-1.270, 6.310e-4
-1.271, 6.365e-4
-1.272, 6.416e-4
-1.273, 6.474e-4
-1.274, 6.529e-4
-1.275, 6.584e-4
-1.276, 6.650e-4
-1.277, 6.711e-4
-1.278, 6.778e-4
-1.279, 6.841e-4
-1.280, 6.911e-4
-1.281, 6.985e-4
-1.282, 7.059e-4
-1.283, 7.131e-4
-1.284, 7.207e-4
-1.285, 7.284e-4
-1.286, 7.366e-4
-1.287, 7.450e-4
-1.288, 7.534e-4
-1.289, 7.620e-4
-1.290, 7.707e-4
-1.291, 7.797e-4
-1.292, 7.892e-4
-1.293, 7.986e-4
-1.294, 8.077e-4
-1.295, 8.171e-4
-1.296, 8.275e-4
-1.297, 8.377e-4
-1.298, 8.481e-4
-1.299, 8.589e-4
-1.300, 8.693e-4
-1.301, 8.800e-4
-1.302, 8.911e-4
-1.303, 9.024e-4
-1.304, 9.133e-4
-1.305, 9.248e-4
-1.306, 9.369e-4
-1.307, 9.489e-4
-1.308, 9.611e-4
-1.309, 9.730e-4
-1.310, 9.855e-4
-1.311, 9.984e-4
-1.312, 1.012e-3
-1.313, 1.025e-3
-1.314, 1.038e-3
-1.315, 1.051e-3
-1.316, 1.065e-3
-1.317, 1.079e-3
-1.318, 1.093e-3
-1.319, 1.107e-3
-1.320, 1.122e-3
-1.321, 1.137e-3
-1.322, 1.151e-3
-1.323, 1.166e-3
-1.324, 1.181e-3
-1.325, 1.196e-3
-1.326, 1.212e-3
-1.327, 1.228e-3
-1.328, 1.244e-3
-1.329, 1.260e-3
-1.330, 1.277e-3
-1.331, 1.293e-3
-1.332, 1.311e-3
-1.333, 1.327e-3
-1.334, 1.343e-3
-1.335, 1.361e-3
-1.336, 1.378e-3
-1.337, 1.396e-3
-1.338, 1.414e-3
-1.339, 1.432e-3
-1.340, 1.450e-3
-1.341, 1.468e-3
-1.342, 1.487e-3
-1.343, 1.506e-3
-1.344, 1.524e-3
-1.345, 1.544e-3
-1.346, 1.562e-3
-1.347, 1.581e-3
-1.348, 1.600e-3
-1.349, 1.620e-3
-1.350, 1.639e-3
-1.351, 1.660e-3
-1.352, 1.680e-3
-1.353, 1.700e-3
-1.354, 1.721e-3
-1.355, 1.741e-3
-1.356, 1.762e-3
-1.357, 1.782e-3
-1.358, 1.802e-3
-1.359, 1.823e-3
-1.360, 1.845e-3
-1.361, 1.869e-3
-1.362, 1.892e-3
-1.363, 1.911e-3
-1.364, 1.934e-3
-1.365, 1.959e-3
-1.366, 1.980e-3
-1.367, 2.003e-3
-1.368, 2.028e-3
-1.369, 2.054e-3
-1.370, 2.076e-3
-1.371, 2.100e-3
-1.372, 2.126e-3
-1.373, 2.150e-3
-1.374, 2.175e-3
-1.375, 2.199e-3
-1.376, 2.224e-3
-1.377, 2.249e-3
-1.378, 2.272e-3
-1.379, 2.297e-3
-1.380, 2.322e-3
-1.381, 2.347e-3
-1.382, 2.372e-3
-1.383, 2.397e-3
-1.384, 2.423e-3
-1.385, 2.449e-3
-1.386, 2.475e-3
-1.387, 2.502e-3
-1.388, 2.528e-3
-1.389, 2.555e-3
-1.390, 2.582e-3
-1.391, 2.610e-3
-1.392, 2.638e-3
-1.393, 2.667e-3
-1.394, 2.695e-3
-1.395, 2.723e-3
-1.396, 2.753e-3
-1.397, 2.781e-3
-1.398, 2.808e-3
-1.399, 2.838e-3
-1.400, 2.870e-3
-1.401, 2.902e-3
-1.402, 2.930e-3
-1.403, 2.962e-3
-1.404, 2.989e-3
-1.405, 3.019e-3
-1.406, 3.048e-3
-1.407, 3.079e-3
-1.408, 3.106e-3
-1.409, 3.100e-3
-1.410, 3.084e-3
-1.411, 3.037e-3
-1.412, 3.072e-3
-1.413, 3.099e-3
-1.414, 3.126e-3
-1.415, 3.153e-3
-1.416, 3.187e-3
-1.417, 3.213e-3
-1.418, 3.242e-3
-1.419, 3.271e-3
-1.420, 3.303e-3
-1.421, 3.338e-3
-1.422, 3.370e-3
-1.423, 3.398e-3
-1.424, 3.427e-3
-1.425, 3.457e-3
-1.426, 3.491e-3
-1.427, 3.527e-3
-1.428, 3.559e-3
-1.429, 3.583e-3
-1.430, 3.597e-3
-1.431, 3.624e-3
-1.432, 3.648e-3
-1.433, 3.676e-3
-1.434, 3.710e-3
-1.435, 3.766e-3
-1.436, 3.782e-3
-1.437, 3.797e-3
-1.438, 3.828e-3
-1.439, 3.851e-3
-1.440, 3.877e-3
-1.441, 3.883e-3
-1.442, 3.834e-3
-1.443, 3.863e-3
-1.444, 3.893e-3
-1.445, 3.915e-3
-1.446, 3.848e-3
-1.447, 3.870e-3
-1.448, 3.800e-3
-1.449, 3.802e-3
-1.450, 3.810e-3
-1.451, 3.822e-3
-1.452, 3.846e-3
-1.453, 3.882e-3
-1.454, 3.953e-3
-1.455, 3.980e-3
-1.456, 4.018e-3
-1.457, 4.034e-3
-1.458, 4.019e-3
-1.459, 4.057e-3
-1.460, 4.112e-3
-1.461, 4.153e-3
-1.462, 4.161e-3
-1.463, 4.203e-3
-1.464, 4.209e-3
-1.465, 4.234e-3
-1.466, 4.268e-3
-1.467, 4.295e-3
-1.468, 4.330e-3
-1.469, 4.359e-3
-1.470, 4.359e-3
-1.471, 4.377e-3
-1.472, 4.376e-3
-1.473, 4.390e-3
-1.474, 4.411e-3
-1.475, 4.442e-3
-1.476, 4.491e-3
-1.477, 4.529e-3
-1.478, 4.548e-3
-1.479, 4.585e-3
-1.480, 4.598e-3
-1.481, 4.639e-3
-1.482, 4.659e-3
-1.483, 4.681e-3
-1.484, 4.708e-3
-1.485, 4.773e-3
-1.486, 4.824e-3
-1.487, 4.870e-3
-1.488, 4.883e-3
-1.489, 4.890e-3
-1.490, 4.934e-3
-1.491, 4.956e-3
-1.492, 4.967e-3
-1.493, 4.992e-3
-1.494, 5.038e-3
-1.495, 5.063e-3
-1.496, 5.069e-3
-1.497, 5.076e-3
-1.498, 5.128e-3
-1.499, 5.159e-3
-1.500, 5.142e-3
-1.499, 5.091e-3
-1.498, 5.067e-3
-1.497, 5.011e-3
-1.496, 4.886e-3
-1.495, 4.784e-3
-1.494, 4.710e-3
-1.493, 4.658e-3
-1.492, 4.599e-3
-1.491, 4.568e-3
-1.490, 4.509e-3
-1.489, 4.444e-3
-1.488, 4.383e-3
-1.487, 4.317e-3
-1.486, 4.272e-3
-1.485, 4.233e-3
-1.484, 4.184e-3
-1.483, 4.133e-3
-1.482, 4.073e-3
-1.481, 4.002e-3
-1.480, 3.987e-3
-1.479, 3.947e-3
-1.478, 3.885e-3
-1.477, 3.836e-3
-1.476, 3.781e-3
-1.475, 3.754e-3
-1.474, 3.731e-3
-1.473, 3.655e-3
-1.472, 3.608e-3
-1.471, 3.549e-3
-1.470, 3.513e-3
-1.469, 3.468e-3
-1.468, 3.430e-3
-1.467, 3.403e-3
-1.466, 3.351e-3
-1.465, 3.303e-3
-1.464, 3.278e-3
-1.463, 3.235e-3
-1.462, 3.195e-3
-1.461, 3.162e-3
-1.460, 3.122e-3
-1.459, 3.081e-3
-1.458, 3.037e-3
-1.457, 3.013e-3
-1.456, 2.971e-3
-1.455, 2.928e-3
-1.454, 2.896e-3
-1.453, 2.863e-3
-1.452, 2.824e-3
-1.451, 2.793e-3
-1.450, 2.767e-3
-1.449, 2.736e-3
-1.448, 2.705e-3
-1.447, 2.667e-3
-1.446, 2.626e-3
-1.445, 2.589e-3
-1.444, 2.552e-3
-1.443, 2.518e-3
-1.442, 2.484e-3
-1.441, 2.456e-3
-1.440, 2.416e-3
-1.439, 2.382e-3
-1.438, 2.345e-3
-1.437, 2.310e-3
-1.436, 2.284e-3
-1.435, 2.254e-3
-1.434, 2.232e-3
-1.433, 2.193e-3
-1.432, 2.182e-3
-1.431, 2.136e-3
-1.430, 2.105e-3
-1.429, 2.079e-3
-1.428, 2.052e-3
-1.427, 2.021e-3
-1.426, 1.986e-3
-1.425, 1.969e-3
-1.424, 1.938e-3
-1.423, 1.912e-3
-1.422, 1.888e-3
-1.421, 1.855e-3
-1.420, 1.830e-3
-1.419, 1.815e-3
-1.418, 1.784e-3
-1.417, 1.761e-3
-1.416, 1.734e-3
-1.415, 1.708e-3
-1.414, 1.683e-3
-1.413, 1.664e-3
-1.412, 1.633e-3
-1.411, 1.620e-3
-1.410, 1.593e-3
-1.409, 1.561e-3
-1.408, 1.536e-3
-1.407, 1.518e-3
-1.406, 1.491e-3
-1.405, 1.472e-3
-1.404, 1.449e-3
-1.403, 1.441e-3
-1.402, 1.420e-3
-1.401, 1.400e-3
-1.400, 1.373e-3
-1.399, 1.365e-3
-1.398, 1.346e-3
-1.397, 1.315e-3
-1.396, 1.292e-3
-1.395, 1.281e-3
-1.394, 1.262e-3
-1.393, 1.247e-3
-1.392, 1.230e-3
-1.391, 1.213e-3
-1.390, 1.197e-3
-1.389, 1.179e-3
-1.388, 1.173e-3
-1.387, 1.150e-3
-1.386, 1.129e-3
-1.385, 1.113e-3
-1.384, 1.104e-3
-1.383, 1.087e-3
-1.382, 1.065e-3
-1.381, 1.048e-3
-1.380, 1.042e-3
-1.379, 1.015e-3
-1.378, 9.962e-4
-1.377, 9.890e-4
-1.376, 9.792e-4
-1.375, 9.450e-4
-1.374, 9.306e-4
-1.373, 9.181e-4
-1.372, 9.155e-4
-1.371, 8.928e-4
-1.370, 8.850e-4
-1.369, 8.723e-4
-1.368, 8.548e-4
-1.367, 8.538e-4
-1.366, 8.526e-4
-1.365, 8.323e-4
-1.364, 8.297e-4
-1.363, 8.068e-4
-1.362, 7.974e-4
-1.361, 7.859e-4
-1.360, 7.699e-4
-1.359, 7.603e-4
-1.358, 7.458e-4
-1.357, 7.533e-4
-1.356, 7.189e-4
-1.355, 7.259e-4
-1.354, 6.968e-4
-1.353, 6.998e-4
-1.352, 6.835e-4
-1.351, 6.832e-4
-1.350, 6.577e-4
-1.349, 6.544e-4
-1.348, 6.448e-4
-1.347, 6.277e-4
-1.346, 6.303e-4
-1.345, 6.132e-4
-1.344, 6.049e-4
-1.343, 5.999e-4
-1.342, 5.792e-4
-1.341, 5.682e-4
-1.340, 5.657e-4
-1.339, 5.501e-4
-1.338, 5.456e-4
-1.337, 5.368e-4
-1.336, 5.237e-4
-1.335, 5.171e-4
-1.334, 5.088e-4
-1.333, 4.964e-4
-1.332, 4.894e-4
-1.331, 4.833e-4
-1.330, 4.800e-4
-1.329, 4.669e-4
-1.328, 4.581e-4
-1.327, 4.555e-4
-1.326, 4.494e-4
-1.325, 4.429e-4
-1.324, 4.335e-4
-1.323, 4.275e-4
-1.322, 4.226e-4
-1.321, 4.149e-4
-1.320, 4.058e-4
-1.319, 3.991e-4
-1.318, 3.958e-4
-1.317, 3.859e-4
-1.316, 3.805e-4
-1.315, 3.713e-4
-1.314, 3.669e-4
-1.313, 3.660e-4
-1.312, 3.618e-4
-1.311, 3.526e-4
-1.310, 3.429e-4
-1.309, 3.372e-4
-1.308, 3.321e-4
-1.307, 3.269e-4
-1.306, 3.216e-4
-1.305, 3.160e-4
-1.304, 3.098e-4
-1.303, 3.048e-4
-1.302, 3.002e-4
-1.301, 2.949e-4
-1.300, 2.898e-4
-1.299, 2.849e-4
-1.298, 2.795e-4
-1.297, 2.745e-4
-1.296, 2.701e-4
-1.295, 2.650e-4
-1.294, 2.603e-4
-1.293, 2.561e-4
-1.292, 2.515e-4
-1.291, 2.472e-4
-1.290, 2.433e-4
-1.289, 2.386e-4
-1.288, 2.345e-4
-1.287, 2.315e-4
-1.286, 2.275e-4
-1.285, 2.225e-4
-1.284, 2.181e-4
-1.283, 2.140e-4
-1.282, 2.102e-4
-1.281, 2.059e-4
-1.280, 2.019e-4
-1.279, 1.985e-4
-1.278, 1.946e-4
-1.277, 1.910e-4
-1.276, 1.886e-4
-1.275, 1.842e-4
-1.274, 1.806e-4
-1.273, 1.770e-4
-1.272, 1.741e-4
-1.271, 1.710e-4
-1.270, 1.677e-4
-1.269, 1.645e-4
-1.268, 1.611e-4
-1.267, 1.581e-4
-1.266, 1.552e-4
-1.265, 1.516e-4
-1.264, 1.482e-4
-1.263, 1.454e-4
-1.262, 1.428e-4
-1.261, 1.398e-4
-1.260, 1.369e-4
-1.259, 1.344e-4
-1.258, 1.316e-4
-1.257, 1.291e-4
-1.256, 1.265e-4
-1.255, 1.235e-4
-1.254, 1.208e-4
-1.253, 1.184e-4
-1.252, 1.162e-4
-1.251, 1.134e-4
-1.250, 1.112e-4
-1.249, 1.084e-4
-1.248, 1.065e-4
-1.247, 1.040e-4
-1.246, 1.018e-4
-1.245, 9.929e-5
-1.244, 9.735e-5
-1.243, 9.503e-5
-1.242, 9.323e-5
-1.241, 9.085e-5
-1.240, 8.854e-5
-1.239, 8.651e-5
-1.238, 8.464e-5
-1.237, 8.289e-5
-1.236, 8.056e-5
-1.235, 7.845e-5
-1.234, 7.663e-5
-1.233, 7.448e-5
-1.232, 7.270e-5
-1.231, 7.094e-5
-1.230, 6.857e-5
-1.229, 6.657e-5
-1.228, 6.515e-5
-1.227, 6.366e-5
-1.226, 6.195e-5
-1.225, 6.013e-5
-1.224, 5.841e-5
-1.223, 5.658e-5
-1.222, 5.505e-5
-1.221, 5.345e-5
-1.220, 5.168e-5
-1.219, 5.007e-5
-1.218, 4.873e-5
-1.217, 4.732e-5
-1.216, 4.604e-5
-1.215, 4.455e-5
-1.214, 4.303e-5
-1.213, 4.168e-5
-1.212, 4.018e-5
-1.211, 3.873e-5
-1.210, 3.709e-5
-1.209, 3.561e-5
-1.208, 3.443e-5
-1.207, 3.330e-5
-1.206, 3.192e-5
-1.205, 3.050e-5
-1.204, 2.932e-5
-1.203, 2.808e-5
-1.202, 2.691e-5
-1.201, 2.577e-5
-1.200, 2.456e-5
-1.199, 2.332e-5
-1.198, 2.222e-5
-1.197, 2.141e-5
-1.196, 2.027e-5
-1.195, 1.902e-5
-1.194, 1.793e-5
-1.193, 1.705e-5
-1.192, 1.617e-5
-1.191, 1.510e-5
-1.190, 1.395e-5
-1.189, 1.307e-5
-1.188, 1.217e-5
-1.187, 1.126e-5
-1.186, 1.051e-5
-1.185, 9.494e-6
-1.184, 8.682e-6
-1.183, 7.990e-6
-1.182, 7.207e-6
-1.181, 6.459e-6
-1.180, 5.513e-6
-1.179, 4.797e-6
-1.178, 4.072e-6
-1.177, 3.399e-6
-1.176, 2.788e-6
-1.175, 2.009e-6
-1.174, 1.207e-6
-1.173, 6.312e-7
-1.172, -8.090e-9
-1.171, -6.839e-7
-1.170, -1.464e-6
-1.169, -2.273e-6
-1.168, -2.783e-6
-1.167, -3.532e-6
-1.166, -4.322e-6
-1.165, -5.116e-6
-1.164, -5.922e-6
-1.163, -6.594e-6
-1.162, -7.198e-6
-1.161, -8.127e-6
-1.160, -8.862e-6
-1.159, -9.523e-6
-1.158, -9.869e-6
-1.157, -9.983e-6
-1.156, -1.030e-5
-1.155, -1.085e-5
-1.154, -1.137e-5
-1.153, -1.166e-5
-1.152, -1.222e-5
-1.151, -1.287e-5
-1.150, -1.361e-5
-1.149, -1.418e-5
-1.148, -1.463e-5
-1.147, -1.526e-5
-1.146, -1.580e-5
-1.145, -1.653e-5
-1.144, -1.703e-5
-1.143, -1.757e-5
-1.142, -1.814e-5
-1.141, -1.868e-5
-1.140, -1.945e-5
-1.139, -2.010e-5
-1.138, -2.046e-5
-1.137, -2.109e-5
-1.136, -2.156e-5
-1.135, -2.228e-5
-1.134, -2.305e-5
-1.133, -2.338e-5
-1.132, -2.400e-5
-1.131, -2.460e-5
-1.130, -2.526e-5
-1.129, -2.604e-5
-1.128, -2.639e-5
-1.127, -2.696e-5
-1.126, -2.768e-5
-1.125, -2.838e-5
-1.124, -2.909e-5
-1.123, -2.955e-5
-1.122, -3.017e-5
-1.121, -3.093e-5
-1.120, -3.157e-5
-1.119, -3.239e-5
-1.118, -3.289e-5
-1.117, -3.355e-5
-1.116, -3.416e-5
-1.115, -3.511e-5
-1.114, -3.599e-5
-1.113, -3.653e-5
-1.112, -3.714e-5
-1.111, -3.790e-5
-1.110, -3.873e-5
-1.109, -3.952e-5
-1.108, -4.014e-5
-1.107, -4.090e-5
-1.106, -4.175e-5
-1.105, -4.277e-5
-1.104, -4.371e-5
-1.103, -4.440e-5
-1.102, -4.521e-5
-1.101, -4.627e-5
-1.100, -4.732e-5
-1.099, -4.856e-5
-1.098, -4.939e-5
-1.097, -5.073e-5
-1.096, -5.214e-5
-1.095, -5.387e-5
-1.094, -5.545e-5
-1.093, -5.715e-5
-1.092, -5.863e-5
-1.091, -6.049e-5
-1.090, -6.225e-5
-1.089, -6.425e-5
-1.088, -6.563e-5
-1.087, -6.729e-5
-1.086, -6.909e-5
-1.085, -7.082e-5
-1.084, -7.258e-5
-1.083, -7.409e-5
-1.082, -7.563e-5
-1.081, -7.728e-5
-1.080, -7.888e-5
-1.079, -8.066e-5
-1.078, -8.228e-5
-1.077, -8.359e-5
-1.076, -8.546e-5
-1.075, -8.739e-5
-1.074, -8.911e-5
-1.073, -9.067e-5
-1.072, -9.214e-5
-1.071, -9.396e-5
-1.070, -9.586e-5
-1.069, -9.765e-5
-1.068, -9.955e-5
-1.067, -1.013e-4
-1.066, -1.031e-4
-1.065, -1.051e-4
-1.064, -1.072e-4
-1.063, -1.091e-4
-1.062, -1.109e-4
-1.061, -1.129e-4
-1.060, -1.152e-4
-1.059, -1.176e-4
-1.058, -1.196e-4
-1.057, -1.215e-4
-1.056, -1.237e-4
-1.055, -1.261e-4
-1.054, -1.286e-4
-1.053, -1.308e-4
-1.052, -1.332e-4
-1.051, -1.355e-4
-1.050, -1.380e-4
-1.049, -1.405e-4
-1.048, -1.429e-4
-1.047, -1.453e-4
-1.046, -1.480e-4
-1.045, -1.505e-4
-1.044, -1.533e-4
-1.043, -1.558e-4
-1.042, -1.583e-4
-1.041, -1.611e-4
-1.040, -1.639e-4
-1.039, -1.668e-4
-1.038, -1.696e-4
-1.037, -1.721e-4
-1.036, -1.750e-4
-1.035, -1.781e-4
-1.034, -1.810e-4
-1.033, -1.839e-4
-1.032, -1.865e-4
-1.031, -1.897e-4
-1.030, -1.928e-4
-1.029, -1.959e-4
-1.028, -1.989e-4
-1.027, -2.016e-4
-1.026, -2.047e-4
-1.025, -2.078e-4
-1.024, -2.112e-4
-1.023, -2.144e-4
-1.022, -2.173e-4
-1.021, -2.202e-4
-1.020, -2.236e-4
-1.019, -2.268e-4
-1.018, -2.299e-4
-1.017, -2.330e-4
-1.016, -2.361e-4
-1.015, -2.397e-4
-1.014, -2.429e-4
-1.013, -2.459e-4
-1.012, -2.492e-4
-1.011, -2.523e-4
-1.010, -2.556e-4
-1.009, -2.592e-4
-1.008, -2.622e-4
-1.007, -2.652e-4
-1.006, -2.688e-4
-1.005, -2.729e-4
-1.004, -2.759e-4
-1.003, -2.789e-4
-1.002, -2.820e-4
-1.001, -2.850e-4
-1.000, -2.677e-4
-1.001, -2.430e-4
-1.002, -2.255e-4
-1.003, -2.100e-4
-1.004, -1.958e-4
-1.005, -1.832e-4
-1.006, -1.712e-4
-1.007, -1.598e-4
-1.008, -1.490e-4
-1.009, -1.389e-4
-1.010, -1.296e-4
-1.011, -1.205e-4
-1.012, -1.126e-4
-1.013, -1.043e-4
-1.014, -9.671e-5
-1.015, -8.951e-5
-1.016, -8.298e-5
-1.017, -7.654e-5
-1.018, -7.022e-5
-1.019, -6.462e-5
-1.020, -5.939e-5
-1.021, -5.437e-5
-1.022, -4.951e-5
-1.023, -4.494e-5
-1.024, -4.066e-5
-1.025, -3.660e-5
-1.026, -3.272e-5
-1.027, -2.914e-5
-1.028, -2.551e-5
-1.029, -2.238e-5
-1.030, -1.932e-5
-1.031, -1.656e-5
-1.032, -1.394e-5
-1.033, -1.116e-5
-1.034, -8.845e-6
-1.035, -6.990e-6
-1.036, -4.791e-6
-1.037, -2.779e-6
-1.038, -8.645e-7
-1.039, 9.321e-7
-1.040, 2.452e-6
-1.041, 3.918e-6
-1.042, 5.318e-6
-1.043, 6.794e-6
-1.044, 8.154e-6
-1.045, 9.334e-6
-1.046, 1.034e-5
-1.047, 1.156e-5
-1.048, 1.275e-5
-1.049, 1.377e-5
-1.050, 1.472e-5
-1.051, 1.555e-5
-1.052, 1.668e-5
-1.053, 1.760e-5
-1.054, 1.843e-5
-1.055, 1.939e-5
-1.056, 2.008e-5
-1.057, 2.105e-5
-1.058, 2.222e-5
-1.059, 2.306e-5
-1.060, 2.396e-5
-1.061, 2.470e-5
-1.062, 2.571e-5
-1.063, 2.681e-5
-1.064, 2.761e-5
-1.065, 2.842e-5
-1.066, 2.923e-5
-1.067, 3.005e-5
-1.068, 3.107e-5
-1.069, 3.183e-5
-1.070, 3.262e-5
-1.071, 3.330e-5
-1.072, 3.406e-5
-1.073, 3.511e-5
-1.074, 3.584e-5
-1.075, 3.670e-5
-1.076, 3.734e-5
-1.077, 3.824e-5
-1.078, 3.916e-5
-1.079, 3.998e-5
-1.080, 4.070e-5
-1.081, 4.142e-5
-1.082, 4.230e-5
-1.083, 4.322e-5
-1.084, 4.422e-5
-1.085, 4.510e-5
-1.086, 4.588e-5
-1.087, 4.699e-5
-1.088, 4.825e-5
-1.089, 4.949e-5
-1.090, 5.077e-5
-1.091, 5.219e-5
-1.092, 5.389e-5
-1.093, 5.564e-5
-1.094, 5.745e-5
-1.095, 5.931e-5
-1.096, 6.085e-5
-1.097, 6.245e-5
-1.098, 6.411e-5
-1.099, 6.538e-5
-1.100, 6.653e-5
-1.101, 6.752e-5
-1.102, 6.858e-5
-1.103, 6.979e-5
-1.104, 7.063e-5
-1.105, 7.147e-5
-1.106, 7.239e-5
-1.107, 7.318e-5
-1.108, 7.406e-5
-1.109, 7.502e-5
-1.110, 7.575e-5
-1.111, 7.660e-5
-1.112, 7.735e-5
-1.113, 7.834e-5
-1.114, 7.925e-5
-1.115, 7.994e-5
-1.116, 8.079e-5
-1.117, 8.173e-5
-1.118, 8.274e-5
-1.119, 8.370e-5
-1.120, 8.451e-5
-1.121, 8.555e-5
-1.122, 8.661e-5
-1.123, 8.771e-5
-1.124, 8.891e-5
-1.125, 8.993e-5
-1.126, 9.094e-5
-1.127, 9.220e-5
-1.128, 9.337e-5
-1.129, 9.470e-5
-1.130, 9.567e-5
-1.131, 9.679e-5
-1.132, 9.820e-5
-1.133, 9.943e-5
-1.134, 1.007e-4
-1.135, 1.017e-4
-1.136, 1.029e-4
-1.137, 1.042e-4
-1.138, 1.055e-4
-1.139, 1.067e-4
-1.140, 1.079e-4
-1.141, 1.090e-4
-1.142, 1.101e-4
-1.143, 1.115e-4
-1.144, 1.126e-4
-1.145, 1.138e-4
-1.146, 1.150e-4
-1.147, 1.161e-4
-1.148, 1.175e-4
-1.149, 1.187e-4
-1.150, 1.197e-4
-1.151, 1.213e-4
-1.152, 1.223e-4
-1.153, 1.234e-4
-1.154, 1.247e-4
-1.155, 1.257e-4
-1.156, 1.269e-4
-1.157, 1.278e-4
-1.158, 1.289e-4
-1.159, 1.304e-4
-1.160, 1.311e-4
-1.161, 1.322e-4
-1.162, 1.333e-4
-1.163, 1.345e-4
-1.164, 1.359e-4
-1.165, 1.366e-4
-1.166, 1.375e-4
-1.167, 1.386e-4
-1.168, 1.395e-4
-1.169, 1.406e-4
-1.170, 1.414e-4
-1.171, 1.421e-4
-1.172, 1.430e-4
-1.173, 1.441e-4
-1.174, 1.450e-4
-1.175, 1.457e-4
-1.176, 1.463e-4
-1.177, 1.471e-4
-1.178, 1.480e-4
-1.179, 1.486e-4
-1.180, 1.493e-4
-1.181, 1.495e-4
-1.182, 1.502e-4
-1.183, 1.510e-4
-1.184, 1.514e-4
-1.185, 1.518e-4
-1.186, 1.521e-4
-1.187, 1.525e-4
-1.188, 1.530e-4
-1.189, 1.533e-4
-1.190, 1.536e-4
-1.191, 1.538e-4
-1.192, 1.538e-4
-1.193, 1.542e-4
-1.194, 1.545e-4
-1.195, 1.547e-4
-1.196, 1.546e-4
-1.197, 1.546e-4
-1.198, 1.550e-4
-1.199, 1.552e-4
-1.200, 1.551e-4
-1.201, 1.551e-4
-1.202, 1.551e-4
-1.203, 1.551e-4
-1.204, 1.553e-4
-1.205, 1.551e-4
-1.206, 1.552e-4
-1.207, 1.552e-4
-1.208, 1.550e-4
-1.209, 1.553e-4
-1.210, 1.552e-4
-1.211, 1.549e-4
-1.212, 1.550e-4
-1.213, 1.551e-4
-1.214, 1.550e-4
-1.215, 1.552e-4
-1.216, 1.550e-4
-1.217, 1.550e-4
-1.218, 1.552e-4
-1.219, 1.552e-4
-1.220, 1.554e-4
-1.221, 1.553e-4
-1.222, 1.554e-4
-1.223, 1.559e-4
-1.224, 1.559e-4
-1.225, 1.562e-4
-1.226, 1.564e-4
-1.227, 1.565e-4
-1.228, 1.573e-4
-1.229, 1.578e-4
-1.230, 1.580e-4
-1.231, 1.583e-4
-1.232, 1.588e-4
-1.233, 1.597e-4
-1.234, 1.602e-4
-1.235, 1.609e-4
-1.236, 1.615e-4
-1.237, 1.622e-4
-1.238, 1.633e-4
-1.239, 1.642e-4
-1.240, 1.651e-4
-1.241, 1.661e-4
-1.242, 1.671e-4
-1.243, 1.684e-4
-1.244, 1.696e-4
-1.245, 1.708e-4
-1.246, 1.719e-4
-1.247, 1.732e-4
-1.248, 1.748e-4
-1.249, 1.762e-4
-1.250, 1.778e-4
-1.251, 1.791e-4
-1.252, 1.809e-4
-1.253, 1.827e-4
-1.254, 1.845e-4
-1.255, 1.864e-4
-1.256, 1.880e-4
-1.257, 1.900e-4
-1.258, 1.922e-4
-1.259, 1.944e-4
-1.260, 1.966e-4
-1.261, 1.986e-4
-1.262, 2.009e-4
-1.263, 2.035e-4
-1.264, 2.061e-4
-1.265, 2.087e-4
-1.266, 2.115e-4
-1.267, 2.140e-4
-1.268, 2.171e-4
-1.269, 2.198e-4
-1.270, 2.226e-4
-1.271, 2.257e-4
-1.272, 2.284e-4
-1.273, 2.316e-4
-1.274, 2.352e-4
-1.275, 2.391e-4
-1.276, 2.414e-4
-1.277, 2.445e-4
-1.278, 2.483e-4
-1.279, 2.521e-4
-1.280, 2.560e-4
-1.281, 2.595e-4
-1.282, 2.637e-4
-1.283, 2.675e-4
-1.284, 2.717e-4
-1.285, 2.755e-4
-1.286, 2.795e-4
-1.287, 2.837e-4
-1.288, 2.880e-4
-1.289, 2.925e-4
-1.290, 2.970e-4
-1.291, 3.015e-4
-1.292, 3.061e-4
-1.293, 3.110e-4
-1.294, 3.161e-4
-1.295, 3.211e-4
-1.296, 3.258e-4
-1.297, 3.314e-4
-1.298, 3.366e-4
-1.299, 3.418e-4
-1.300, 3.473e-4
-1.301, 3.526e-4
-1.302, 3.582e-4
-1.303, 3.644e-4
-1.304, 3.702e-4
-1.305, 3.763e-4
-1.306, 3.821e-4
-1.307, 3.881e-4
-1.308, 3.945e-4
-1.309, 4.009e-4
-1.310, 4.076e-4
-1.311, 4.142e-4
-1.312, 4.206e-4
-1.313, 4.276e-4
-1.314, 4.346e-4
-1.315, 4.416e-4
-1.316, 4.490e-4
-1.317, 4.559e-4
-1.318, 4.643e-4
-1.319, 4.719e-4
-1.320, 4.793e-4
-1.321, 4.868e-4
-1.322, 4.946e-4
-1.323, 5.026e-4
-1.324, 5.110e-4
-1.325, 5.187e-4
-1.326, 5.269e-4
-1.327, 5.352e-4
-1.328, 5.439e-4
-1.329, 5.530e-4
-1.330, 5.616e-4
-1.331, 5.708e-4
-1.332, 5.796e-4
-1.333, 5.889e-4
-1.334, 5.983e-4
-1.335, 6.080e-4
-1.336, 6.178e-4
-1.337, 6.272e-4
-1.338, 6.369e-4
-1.339, 6.474e-4
-1.340, 6.570e-4
-1.341, 6.670e-4
-1.342, 6.774e-4
-1.343, 6.880e-4
-1.344, 6.983e-4
-1.345, 7.090e-4
-1.346, 7.196e-4
-1.347, 7.311e-4
-1.348, 7.427e-4
-1.349, 7.536e-4
-1.350, 7.645e-4
-1.351, 7.759e-4
-1.352, 7.870e-4
-1.353, 7.990e-4
-1.354, 8.108e-4
-1.355, 8.230e-4
-1.356, 8.354e-4
-1.357, 8.491e-4
-1.358, 8.612e-4
-1.359, 8.739e-4
-1.360, 8.857e-4
-1.361, 8.994e-4
-1.362, 9.114e-4
-1.363, 9.240e-4
-1.364, 9.371e-4
-1.365, 9.501e-4
-1.366, 9.633e-4
-1.367, 9.768e-4
-1.368, 9.904e-4
-1.369, 1.004e-3
-1.370, 1.018e-3
-1.371, 1.031e-3
-1.372, 1.045e-3
-1.373, 1.060e-3
-1.374, 1.074e-3
-1.375, 1.088e-3
-1.376, 1.102e-3
-1.377, 1.116e-3
-1.378, 1.131e-3
-1.379, 1.146e-3
-1.380, 1.162e-3
-1.381, 1.177e-3
-1.382, 1.192e-3
-1.383, 1.208e-3
-1.384, 1.223e-3
-1.385, 1.239e-3
-1.386, 1.254e-3
-1.387, 1.270e-3
-1.388, 1.286e-3
-1.389, 1.302e-3
-1.390, 1.319e-3
-1.391, 1.335e-3
-1.392, 1.352e-3
-1.393, 1.371e-3
-1.394, 1.388e-3
-1.395, 1.404e-3
-1.396, 1.422e-3
-1.397, 1.439e-3
-1.398, 1.455e-3
-1.399, 1.472e-3
-1.400, 1.493e-3
-1.401, 1.510e-3
-1.402, 1.527e-3
-1.403, 1.544e-3
-1.404, 1.562e-3
-1.405, 1.579e-3
-1.406, 1.598e-3
-1.407, 1.616e-3
-1.408, 1.634e-3
-1.409, 1.652e-3
-1.410, 1.673e-3
-1.411, 1.691e-3
-1.412, 1.712e-3
-1.413, 1.730e-3
-1.414, 1.751e-3
-1.415, 1.770e-3
-1.416, 1.788e-3
-1.417, 1.809e-3
-1.418, 1.827e-3
-1.419, 1.846e-3
-1.420, 1.866e-3
-1.421, 1.892e-3
-1.422, 1.918e-3
-1.423, 1.938e-3
-1.424, 1.956e-3
-1.425, 1.977e-3
-1.426, 2.005e-3
-1.427, 2.020e-3
-1.428, 2.042e-3
-1.429, 2.064e-3
-1.430, 2.086e-3
-1.431, 2.108e-3
-1.432, 2.131e-3
-1.433, 2.156e-3
-1.434, 2.178e-3
-1.435, 2.204e-3
-1.436, 2.228e-3
-1.437, 2.252e-3
-1.438, 2.278e-3
-1.439, 2.301e-3
-1.440, 2.320e-3
-1.441, 2.339e-3
-1.442, 2.380e-3
-1.443, 2.405e-3
-1.444, 2.426e-3
-1.445, 2.449e-3
-1.446, 2.479e-3
-1.447, 2.503e-3
-1.448, 2.530e-3
-1.449, 2.559e-3
-1.450, 2.584e-3
-1.451, 2.607e-3
-1.452, 2.634e-3
-1.453, 2.663e-3
-1.454, 2.694e-3
-1.455, 2.726e-3
-1.456, 2.757e-3
-1.457, 2.776e-3
-1.458, 2.802e-3
-1.459, 2.827e-3
-1.460, 2.854e-3
-1.461, 2.886e-3
-1.462, 2.908e-3
-1.463, 2.934e-3
-1.464, 2.961e-3
-1.465, 2.984e-3
-1.466, 3.017e-3
-1.467, 3.046e-3
-1.468, 3.079e-3
-1.469, 3.112e-3
-1.470, 3.148e-3
-1.471, 3.178e-3
-1.472, 3.197e-3
-1.473, 3.235e-3
-1.474, 3.262e-3
-1.475, 3.306e-3
-1.476, 3.343e-3
-1.477, 3.357e-3
-1.478, 3.378e-3
-1.479, 3.401e-3
-1.480, 3.427e-3
-1.481, 3.455e-3
-1.482, 3.475e-3
-1.483, 3.491e-3
-1.484, 3.519e-3
-1.485, 3.544e-3
-1.486, 3.572e-3
-1.487, 3.595e-3
-1.488, 3.622e-3
-1.489, 3.648e-3
-1.490, 3.652e-3
-1.491, 3.684e-3
-1.492, 3.716e-3
-1.493, 3.761e-3
-1.494, 3.795e-3
-1.495, 3.849e-3
-1.496, 3.876e-3
-1.497, 3.913e-3
-1.498, 3.943e-3
-1.499, 3.973e-3
-1.500, 3.975e-3
-1.499, 3.934e-3
-1.498, 3.888e-3
-1.497, 3.847e-3
-1.496, 3.794e-3
-1.495, 3.748e-3
-1.494, 3.710e-3
-1.493, 3.670e-3
-1.492, 3.625e-3
-1.491, 3.582e-3
-1.490, 3.541e-3
-1.489, 3.492e-3
-1.488, 3.478e-3
-1.487, 3.436e-3
-1.486, 3.389e-3
-1.485, 3.353e-3
-1.484, 3.337e-3
-1.483, 3.291e-3
-1.482, 3.277e-3
-1.481, 3.272e-3
-1.480, 3.235e-3
-1.479, 3.206e-3
-1.478, 3.175e-3
-1.477, 3.138e-3
-1.476, 3.093e-3
-1.475, 3.056e-3
-1.474, 3.018e-3
-1.473, 3.000e-3
-1.472, 2.958e-3
-1.471, 2.914e-3
-1.470, 2.870e-3
-1.469, 2.827e-3
-1.468, 2.778e-3
-1.467, 2.729e-3
-1.466, 2.693e-3
-1.465, 2.655e-3
-1.464, 2.617e-3
-1.463, 2.587e-3
-1.462, 2.543e-3
-1.461, 2.504e-3
-1.460, 2.463e-3
-1.459, 2.426e-3
-1.458, 2.390e-3
-1.457, 2.356e-3
-1.456, 2.321e-3
-1.455, 2.288e-3
-1.454, 2.253e-3
-1.453, 2.241e-3
-1.452, 2.202e-3
-1.451, 2.169e-3
-1.450, 2.136e-3
-1.449, 2.102e-3
-1.448, 2.071e-3
-1.447, 2.032e-3
-1.446, 2.002e-3
-1.445, 1.969e-3
-1.444, 1.941e-3
-1.443, 1.906e-3
-1.442, 1.879e-3
-1.441, 1.851e-3
-1.440, 1.827e-3
-1.439, 1.802e-3
-1.438, 1.774e-3
-1.437, 1.747e-3
-1.436, 1.725e-3
-1.435, 1.697e-3
-1.434, 1.671e-3
-1.433, 1.658e-3
-1.432, 1.632e-3
-1.431, 1.612e-3
-1.430, 1.588e-3
-1.429, 1.560e-3
-1.428, 1.535e-3
-1.427, 1.514e-3
-1.426, 1.490e-3
-1.425, 1.478e-3
-1.424, 1.450e-3
-1.423, 1.432e-3
-1.422, 1.419e-3
-1.421, 1.522e-3
-1.420, 1.506e-3
-1.419, 1.466e-3
-1.418, 1.428e-3
-1.417, 1.396e-3
-1.416, 1.371e-3
-1.415, 1.348e-3
-1.414, 1.324e-3
-1.413, 1.305e-3
-1.412, 1.283e-3
-1.411, 1.265e-3
-1.410, 1.246e-3
-1.409, 1.227e-3
-1.408, 1.209e-3
-1.407, 1.193e-3
-1.406, 1.178e-3
-1.405, 1.152e-3
-1.404, 1.140e-3
-1.403, 1.128e-3
-1.402, 1.102e-3
-1.401, 1.088e-3
-1.400, 1.068e-3
-1.399, 1.056e-3
-1.398, 1.037e-3
-1.397, 1.033e-3
-1.396, 1.009e-3
-1.395, 9.991e-4
-1.394, 9.903e-4
-1.393, 9.720e-4
-1.392, 9.588e-4
-1.391, 9.452e-4
-1.390, 9.310e-4
-1.389, 9.178e-4
-1.388, 9.049e-4
-1.387, 8.914e-4
-1.386, 8.798e-4
-1.385, 8.648e-4
-1.384, 8.521e-4
-1.383, 8.389e-4
-1.382, 8.287e-4
-1.381, 8.172e-4
-1.380, 8.041e-4
-1.379, 7.908e-4
-1.378, 7.750e-4
-1.377, 7.625e-4
-1.376, 7.498e-4
-1.375, 7.399e-4
-1.374, 7.273e-4
-1.373, 7.202e-4
-1.372, 7.072e-4
-1.371, 6.974e-4
-1.370, 6.921e-4
-1.369, 6.832e-4
-1.368, 6.662e-4
-1.367, 6.558e-4
-1.366, 6.472e-4
-1.365, 6.413e-4
-1.364, 6.275e-4
-1.363, 6.223e-4
-1.362, 6.127e-4
-1.361, 6.039e-4
-1.360, 5.952e-4
-1.359, 5.839e-4
-1.358, 5.729e-4
-1.357, 5.658e-4
-1.356, 5.561e-4
-1.355, 5.488e-4
-1.354, 5.399e-4
-1.353, 5.319e-4
-1.352, 5.247e-4
-1.351, 5.153e-4
-1.350, 5.076e-4
-1.349, 4.983e-4
-1.348, 4.919e-4
-1.347, 4.822e-4
-1.346, 4.738e-4
-1.345, 4.699e-4
-1.344, 4.624e-4
-1.343, 4.550e-4
-1.342, 4.475e-4
-1.341, 4.404e-4
-1.340, 4.333e-4
-1.339, 4.260e-4
-1.338, 4.187e-4
-1.337, 4.114e-4
-1.336, 4.048e-4
-1.335, 3.976e-4
-1.334, 3.926e-4
-1.333, 3.851e-4
-1.332, 3.796e-4
-1.331, 3.734e-4
-1.330, 3.680e-4
-1.329, 3.613e-4
-1.328, 3.554e-4
-1.327, 3.490e-4
-1.326, 3.433e-4
-1.325, 3.380e-4
-1.324, 3.323e-4
-1.323, 3.282e-4
-1.322, 3.263e-4
-1.321, 3.181e-4
-1.320, 3.120e-4
-1.319, 3.071e-4
-1.318, 3.028e-4
-1.317, 2.965e-4
-1.316, 2.913e-4
-1.315, 2.853e-4
-1.314, 2.818e-4
-1.313, 2.782e-4
-1.312, 2.707e-4
-1.311, 2.672e-4
-1.310, 2.635e-4
-1.309, 2.588e-4
-1.308, 2.544e-4
-1.307, 2.502e-4
-1.306, 2.460e-4
-1.305, 2.415e-4
-1.304, 2.374e-4
-1.303, 2.331e-4
-1.302, 2.289e-4
-1.301, 2.249e-4
-1.300, 2.209e-4
-1.299, 2.173e-4
-1.298, 2.135e-4
-1.297, 2.095e-4
-1.296, 2.060e-4
-1.295, 2.023e-4
-1.294, 1.989e-4
-1.293, 1.950e-4
-1.292, 1.916e-4
-1.291, 1.878e-4
-1.290, 1.852e-4
-1.289, 1.823e-4
-1.288, 1.786e-4
-1.287, 1.758e-4
-1.286, 1.717e-4
-1.285, 1.685e-4
-1.284, 1.656e-4
-1.283, 1.619e-4
-1.282, 1.591e-4
-1.281, 1.565e-4
-1.280, 1.532e-4
-1.279, 1.502e-4
-1.278, 1.473e-4
-1.277, 1.440e-4
-1.276, 1.407e-4
-1.275, 1.381e-4
-1.274, 1.365e-4
-1.273, 1.337e-4
-1.272, 1.310e-4
-1.271, 1.283e-4
-1.270, 1.252e-4
-1.269, 1.229e-4
-1.268, 1.201e-4
-1.267, 1.174e-4
-1.266, 1.151e-4
-1.265, 1.127e-4
-1.264, 1.104e-4
-1.263, 1.079e-4
-1.262, 1.055e-4
-1.261, 1.033e-4
-1.260, 1.011e-4
-1.259, 9.903e-5
-1.258, 9.660e-5
-1.257, 9.433e-5
-1.256, 9.246e-5
-1.255, 9.041e-5
-1.254, 8.837e-5
-1.253, 9.046e-5
-1.252, 8.501e-5
-1.251, 8.235e-5
-1.250, 8.034e-5
-1.249, 7.855e-5
-1.248, 7.659e-5
-1.247, 7.432e-5
-1.246, 7.056e-5
-1.245, 6.776e-5
-1.244, 6.533e-5
-1.243, 6.290e-5
-1.242, 6.118e-5
-1.241, 5.983e-5
-1.240, 5.847e-5
-1.239, 5.683e-5
-1.238, 5.522e-5
-1.237, 5.373e-5
-1.236, 5.231e-5
-1.235, 5.103e-5
-1.234, 4.967e-5
-1.233, 4.797e-5
-1.232, 4.675e-5
-1.231, 4.549e-5
-1.230, 4.423e-5
-1.229, 4.265e-5
-1.228, 4.135e-5
-1.227, 4.014e-5
-1.226, 3.909e-5
-1.225, 3.789e-5
-1.224, 3.666e-5
-1.223, 3.540e-5
-1.222, 3.414e-5
-1.221, 3.300e-5
-1.220, 3.199e-5
-1.219, 3.150e-5
-1.218, 2.988e-5
-1.217, 2.861e-5
-1.216, 2.773e-5
-1.215, 2.670e-5
-1.214, 2.553e-5
-1.213, 2.449e-5
-1.212, 2.344e-5
-1.211, 2.246e-5
-1.210, 2.161e-5
-1.209, 2.055e-5
-1.208, 1.956e-5
-1.207, 1.866e-5
-1.206, 1.775e-5
-1.205, 1.697e-5
-1.204, 1.596e-5
-1.203, 1.502e-5
-1.202, 1.416e-5
-1.201, 1.342e-5
-1.200, 1.260e-5
-1.199, 1.184e-5
-1.198, 1.063e-5
-1.197, 9.520e-6
-1.196, 8.554e-6
-1.195, 5.665e-6
-1.194, 6.551e-6
-1.193, 5.834e-6
-1.192, 5.005e-6
-1.191, 4.313e-6
-1.190, 3.890e-6
-1.189, 3.708e-6
-1.188, 3.234e-6
-1.187, 2.405e-6
-1.186, 2.028e-6
-1.185, 1.327e-6
-1.184, 8.769e-7
-1.183, 5.505e-8
-1.182, -5.458e-7
-1.181, -8.477e-7
-1.180, -1.615e-6
-1.179, -2.218e-6
-1.178, -2.896e-6
-1.177, -3.648e-6
-1.176, -4.003e-6
-1.175, -4.646e-6
-1.174, -5.251e-6
-1.173, -6.046e-6
-1.172, -6.767e-6
-1.171, -7.243e-6
-1.170, -7.875e-6
-1.169, -8.508e-6
-1.168, -9.139e-6
-1.167, -9.596e-6
-1.166, -9.776e-6
-1.165, -1.013e-5
-1.164, -1.037e-5
-1.163, -1.083e-5
-1.162, -1.132e-5
-1.161, -1.166e-5
-1.160, -1.201e-5
-1.159, -1.257e-5
-1.158, -1.323e-5
-1.157, -1.378e-5
-1.156, -1.411e-5
-1.155, -1.463e-5
-1.154, -1.514e-5
-1.153, -1.571e-5
-1.152, -1.628e-5
-1.151, -1.668e-5
-1.150, -1.728e-5
-1.149, -1.764e-5
-1.148, -1.818e-5
-1.147, -1.885e-5
-1.146, -1.915e-5
-1.145, -1.964e-5
-1.144, -2.002e-5
-1.143, -2.071e-5
-1.142, -2.133e-5
-1.141, -2.153e-5
-1.140, -2.215e-5
-1.139, -2.268e-5
-1.138, -2.320e-5
-1.137, -2.385e-5
-1.136, -2.402e-5
-1.135, -2.462e-5
-1.134, -2.514e-5
-1.133, -2.565e-5
-1.132, -2.640e-5
-1.131, -2.668e-5
-1.130, -2.716e-5
-1.129, -2.782e-5
-1.128, -2.831e-5
-1.127, -2.901e-5
-1.126, -2.938e-5
-1.125, -2.993e-5
-1.124, -3.048e-5
-1.123, -3.119e-5
-1.122, -3.181e-5
-1.121, -3.233e-5
-1.120, -3.273e-5
-1.119, -3.347e-5
-1.118, -3.420e-5
-1.117, -3.479e-5
-1.116, -3.521e-5
-1.115, -3.584e-5
-1.114, -3.655e-5
-1.113, -3.733e-5
-1.112, -3.793e-5
-1.111, -3.838e-5
-1.110, -3.918e-5
-1.109, -3.983e-5
-1.108, -4.062e-5
-1.107, -4.150e-5
-1.106, -4.208e-5
-1.105, -4.279e-5
-1.104, -4.354e-5
-1.103, -4.461e-5
-1.102, -4.557e-5
-1.101, -4.633e-5
-1.100, -4.721e-5
-1.099, -4.842e-5
-1.098, -4.953e-5
-1.097, -5.088e-5
-1.096, -5.205e-5
-1.095, -5.346e-5
-1.094, -5.660e-5
-1.093, -6.184e-5
-1.092, -6.423e-5
-1.091, -6.570e-5
-1.090, -6.664e-5
-1.089, -6.785e-5
-1.088, -6.950e-5
-1.087, -7.131e-5
-1.086, -7.278e-5
-1.085, -7.408e-5
-1.084, -7.546e-5
-1.083, -7.724e-5
-1.082, -7.916e-5
-1.081, -8.046e-5
-1.080, -8.151e-5
-1.079, -8.289e-5
-1.078, -8.427e-5
-1.077, -8.569e-5
-1.076, -8.707e-5
-1.075, -8.823e-5
-1.074, -9.013e-5
-1.073, -9.204e-5
-1.072, -9.431e-5
-1.071, -9.572e-5
-1.070, -9.718e-5
-1.069, -9.858e-5
-1.068, -1.000e-4
-1.067, -1.015e-4
-1.066, -1.035e-4
-1.065, -1.053e-4
-1.064, -1.070e-4
-1.063, -1.092e-4
-1.062, -1.111e-4
-1.061, -1.130e-4
-1.060, -1.147e-4
-1.059, -1.167e-4
-1.058, -1.187e-4
-1.057, -1.209e-4
-1.056, -1.230e-4
-1.055, -1.254e-4
-1.054, -1.276e-4
-1.053, -1.301e-4
-1.052, -1.323e-4
-1.051, -1.345e-4
-1.050, -1.366e-4
-1.049, -1.390e-4
-1.048, -1.413e-4
-1.047, -1.437e-4
-1.046, -1.460e-4
-1.045, -1.483e-4
-1.044, -1.509e-4
-1.043, -1.535e-4
-1.042, -1.562e-4
-1.041, -1.589e-4
-1.040, -1.613e-4
-1.039, -1.641e-4
-1.038, -1.669e-4
-1.037, -1.698e-4
-1.036, -1.726e-4
-1.035, -1.752e-4
-1.034, -1.780e-4
-1.033, -1.811e-4
-1.032, -1.840e-4
-1.031, -1.869e-4
-1.030, -1.898e-4
-1.029, -1.927e-4
-1.028, -1.958e-4
-1.027, -1.991e-4
-1.026, -2.020e-4
-1.025, -2.049e-4
-1.024, -2.081e-4
-1.023, -2.114e-4
-1.022, -2.147e-4
-1.021, -2.179e-4
-1.020, -2.210e-4
-1.019, -2.243e-4
-1.018, -2.274e-4
-1.017, -2.308e-4
-1.016, -2.336e-4
-1.015, -2.365e-4
-1.014, -2.392e-4
-1.013, -2.419e-4
-1.012, -2.454e-4
-1.011, -2.481e-4
-1.010, -2.503e-4
-1.009, -2.536e-4
-1.008, -2.583e-4
-1.007, -2.629e-4
-1.006, -2.674e-4
-1.005, -2.701e-4
-1.004, -2.731e-4
-1.003, -2.775e-4
-1.002, -2.833e-4
-1.001, -2.877e-4
-1.000, -2.710e-4
-1.001, -2.459e-4
-1.002, -2.284e-4
-1.003, -2.130e-4
-1.004, -1.988e-4
-1.005, -1.855e-4
-1.006, -1.733e-4
-1.007, -1.621e-4
-1.008, -1.515e-4
-1.009, -1.413e-4
-1.010, -1.315e-4
-1.011, -1.225e-4
-1.012, -1.141e-4
-1.013, -1.062e-4
-1.014, -9.863e-5
-1.015, -9.132e-5
-1.016, -8.453e-5
-1.017, -7.826e-5
-1.018, -7.223e-5
-1.019, -6.656e-5
-1.020, -6.086e-5
-1.021, -5.566e-5
-1.022, -5.095e-5
-1.023, -4.636e-5
-1.024, -4.192e-5
-1.025, -3.764e-5
-1.026, -3.362e-5
-1.027, -3.030e-5
-1.028, -2.678e-5
-1.029, -2.346e-5
-1.030, -2.020e-5
-1.031, -1.717e-5
-1.032, -1.459e-5
-1.033, -1.201e-5
-1.034, -9.625e-6
-1.035, -7.174e-6
-1.036, -4.930e-6
-1.037, -3.047e-6
-1.038, -1.226e-6
-1.039, 5.109e-7
-1.040, 2.307e-6
-1.041, 4.022e-6
-1.042, 5.292e-6
-1.043, 6.598e-6
-1.044, 8.021e-6
-1.045, 9.393e-6
-1.046, 1.053e-5
-1.047, 1.165e-5
-1.048, 1.259e-5
-1.049, 1.365e-5
-1.050, 1.485e-5
-1.051, 1.574e-5
-1.052, 1.663e-5
-1.053, 1.742e-5
-1.054, 1.828e-5
-1.055, 1.941e-5
-1.056, 2.017e-5
-1.057, 2.094e-5
-1.058, 2.174e-5
-1.059, 2.253e-5
-1.060, 2.364e-5
-1.061, 2.432e-5
-1.062, 2.511e-5
-1.063, 2.588e-5
-1.064, 2.674e-5
-1.065, 2.760e-5
-1.066, 2.841e-5
-1.067, 2.910e-5
-1.068, 2.984e-5
-1.069, 3.063e-5
-1.070, 3.154e-5
-1.071, 3.232e-5
-1.072, 3.296e-5
-1.073, 3.357e-5
-1.074, 3.450e-5
-1.075, 3.557e-5
-1.076, 3.622e-5
-1.077, 3.692e-5
-1.078, 3.759e-5
-1.079, 3.848e-5
-1.080, 3.932e-5
-1.081, 4.009e-5
-1.082, 4.095e-5
-1.083, 4.166e-5
-1.084, 4.261e-5
-1.085, 4.362e-5
-1.086, 4.465e-5
-1.087, 4.562e-5
-1.088, 4.671e-5
-1.089, 4.802e-5
-1.090, 4.961e-5
-1.091, 5.114e-5
-1.092, 5.283e-5
-1.093, 5.473e-5
-1.094, 5.685e-5
-1.095, 5.891e-5
-1.096, 6.054e-5
-1.097, 6.216e-5
-1.098, 6.349e-5
-1.099, 6.483e-5
-1.100, 6.622e-5
-1.101, 6.729e-5
-1.102, 6.823e-5
-1.103, 6.904e-5
-1.104, 6.990e-5
-1.105, 7.099e-5
-1.106, 7.178e-5
-1.107, 7.248e-5
-1.108, 7.319e-5
-1.109, 7.413e-5
-1.110, 7.502e-5
-1.111, 7.575e-5
-1.112, 7.655e-5
-1.113, 7.719e-5
-1.114, 7.803e-5
-1.115, 7.891e-5
-1.116, 7.974e-5
-1.117, 8.048e-5
-1.118, 8.111e-5
-1.119, 8.209e-5
-1.120, 8.300e-5
-1.121, 8.398e-5
-1.122, 8.487e-5
-1.123, 8.570e-5
-1.124, 8.694e-5
-1.125, 8.801e-5
-1.126, 8.894e-5
-1.127, 9.001e-5
-1.128, 9.085e-5
-1.129, 9.203e-5
-1.130, 9.321e-5
-1.131, 9.421e-5
-1.132, 9.539e-5
-1.133, 9.630e-5
-1.134, 9.748e-5
-1.135, 9.880e-5
-1.136, 9.979e-5
-1.137, 1.009e-4
-1.138, 1.019e-4
-1.139, 1.032e-4
-1.140, 1.044e-4
-1.141, 1.055e-4
-1.142, 1.066e-4
-1.143, 1.076e-4
-1.144, 1.087e-4
-1.145, 1.098e-4
-1.146, 1.110e-4
-1.147, 1.120e-4
-1.148, 1.130e-4
-1.149, 1.140e-4
-1.150, 1.152e-4
-1.151, 1.164e-4
-1.152, 1.174e-4
-1.153, 1.182e-4
-1.154, 1.193e-4
-1.155, 1.204e-4
-1.156, 1.216e-4
-1.157, 1.225e-4
-1.158, 1.234e-4
-1.159, 1.245e-4
-1.160, 1.256e-4
-1.161, 1.266e-4
-1.162, 1.276e-4
-1.163, 1.284e-4
-1.164, 1.293e-4
-1.165, 1.304e-4
-1.166, 1.313e-4
-1.167, 1.322e-4
-1.168, 1.328e-4
-1.169, 1.337e-4
-1.170, 1.348e-4
-1.171, 1.356e-4
-1.172, 1.363e-4
-1.173, 1.371e-4
-1.174, 1.379e-4
-1.175, 1.386e-4
-1.176, 1.394e-4
-1.177, 1.402e-4
-1.178, 1.408e-4
-1.179, 1.412e-4
-1.180, 1.420e-4
-1.181, 1.426e-4
-1.182, 1.431e-4
-1.183, 1.435e-4
-1.184, 1.439e-4
-1.185, 1.445e-4
-1.186, 1.451e-4
-1.187, 1.453e-4
-1.188, 1.458e-4
-1.189, 1.460e-4
-1.190, 1.465e-4
-1.191, 1.469e-4
-1.192, 1.469e-4
-1.193, 1.472e-4
-1.194, 1.475e-4
-1.195, 1.477e-4
-1.196, 1.481e-4
-1.197, 1.482e-4
-1.198, 1.482e-4
-1.199, 1.484e-4
-1.200, 1.485e-4
-1.201, 1.488e-4
-1.202, 1.487e-4
-1.203, 1.486e-4
-1.204, 1.489e-4
-1.205, 1.489e-4
-1.206, 1.489e-4
-1.207, 1.489e-4
-1.208, 1.487e-4
-1.209, 1.489e-4
-1.210, 1.489e-4
-1.211, 1.490e-4
-1.212, 1.489e-4
-1.213, 1.487e-4
-1.214, 1.488e-4
-1.215, 1.489e-4
-1.216, 1.489e-4
-1.217, 1.488e-4
-1.218, 1.486e-4
-1.219, 1.486e-4
-1.220, 1.488e-4
-1.221, 1.489e-4
-1.222, 1.488e-4
-1.223, 1.488e-4
-1.224, 1.489e-4
-1.225, 1.492e-4
-1.226, 1.493e-4
-1.227, 1.493e-4
-1.228, 1.496e-4
-1.229, 1.500e-4
-1.230, 1.500e-4
-1.231, 1.505e-4
-1.232, 1.506e-4
-1.233, 1.509e-4
-1.234, 1.512e-4
-1.235, 1.517e-4
-1.236, 1.523e-4
-1.237, 1.526e-4
-1.238, 1.532e-4
-1.239, 1.538e-4
-1.240, 1.545e-4
-1.241, 1.552e-4
-1.242, 1.558e-4
-1.243, 1.565e-4
-1.244, 1.574e-4
-1.245, 1.583e-4
-1.246, 1.594e-4
-1.247, 1.603e-4
-1.248, 1.612e-4
-1.249, 1.623e-4
-1.250, 1.636e-4
-1.251, 1.648e-4
-1.252, 1.660e-4
-1.253, 1.672e-4
-1.254, 1.685e-4
-1.255, 1.703e-4
-1.256, 1.717e-4
-1.257, 1.731e-4
-1.258, 1.746e-4
-1.259, 1.763e-4
-1.260, 1.781e-4
-1.261, 1.802e-4
-1.262, 1.821e-4
-1.263, 1.842e-4
-1.264, 1.860e-4
-1.265, 1.880e-4
-1.266, 1.902e-4
-1.267, 1.921e-4
-1.268, 1.942e-4
-1.269, 1.961e-4
-1.270, 1.986e-4
-1.271, 2.012e-4
-1.272, 2.037e-4
-1.273, 2.061e-4
-1.274, 2.088e-4
-1.275, 2.116e-4
-1.276, 2.145e-4
-1.277, 2.176e-4
-1.278, 2.202e-4
-1.279, 2.231e-4
-1.280, 2.263e-4
-1.281, 2.295e-4
-1.282, 2.326e-4
-1.283, 2.358e-4
-1.284, 2.394e-4
-1.285, 2.427e-4
-1.286, 2.463e-4
-1.287, 2.498e-4
-1.288, 2.532e-4
-1.289, 2.571e-4
-1.290, 2.613e-4
-1.291, 2.652e-4
-1.292, 2.690e-4
-1.293, 2.730e-4
-1.294, 2.772e-4
-1.295, 2.819e-4
-1.296, 2.862e-4
-1.297, 2.906e-4
-1.298, 2.951e-4
-1.299, 2.995e-4
-1.300, 3.049e-4
-1.301, 3.095e-4
-1.302, 3.142e-4
-1.303, 3.190e-4
-1.304, 3.241e-4
-1.305, 3.293e-4
-1.306, 3.348e-4
-1.307, 3.398e-4
-1.308, 3.460e-4
-1.309, 3.513e-4
-1.310, 3.568e-4
-1.311, 3.627e-4
-1.312, 3.684e-4
-1.313, 3.743e-4
-1.314, 3.803e-4
-1.315, 3.864e-4
-1.316, 3.928e-4
-1.317, 3.989e-4
-1.318, 4.058e-4
-1.319, 4.125e-4
-1.320, 4.192e-4
-1.321, 4.261e-4
-1.322, 4.328e-4
-1.323, 4.397e-4
-1.324, 4.469e-4
-1.325, 4.543e-4
-1.326, 4.619e-4
-1.327, 4.691e-4
-1.328, 4.766e-4
-1.329, 4.843e-4
-1.330, 4.923e-4
-1.331, 5.003e-4
-1.332, 5.084e-4
-1.333, 5.164e-4
-1.334, 5.249e-4
-1.335, 5.337e-4
-1.336, 5.429e-4
-1.337, 5.508e-4
-1.338, 5.596e-4
-1.339, 5.685e-4
-1.340, 5.780e-4
-1.341, 5.869e-4
-1.342, 5.960e-4
-1.343, 6.050e-4
-1.344, 6.151e-4
-1.345, 6.243e-4
-1.346, 6.336e-4
-1.347, 6.442e-4
-1.348, 6.554e-4
-1.349, 6.654e-4
-1.350, 6.762e-4
-1.351, 6.869e-4
-1.352, 6.974e-4
-1.353, 7.079e-4
-1.354, 7.184e-4
-1.355, 7.303e-4
-1.356, 7.417e-4
-1.357, 7.524e-4
-1.358, 7.635e-4
-1.359, 7.737e-4
-1.360, 7.828e-4
-1.361, 7.810e-4
-1.362, 7.878e-4
-1.363, 7.972e-4
-1.364, 8.061e-4
-1.365, 8.170e-4
-1.366, 8.283e-4
-1.367, 8.398e-4
-1.368, 8.538e-4
-1.369, 8.649e-4
-1.370, 8.791e-4
-1.371, 8.912e-4
-1.372, 9.033e-4
-1.373, 9.164e-4
-1.374, 9.306e-4
-1.375, 9.437e-4
-1.376, 9.591e-4
-1.377, 9.732e-4
-1.378, 9.871e-4
-1.379, 1.001e-3
-1.380, 1.015e-3
-1.381, 1.029e-3
-1.382, 1.042e-3
-1.383, 1.053e-3
-1.384, 1.071e-3
-1.385, 1.086e-3
-1.386, 1.101e-3
-1.387, 1.116e-3
-1.388, 1.131e-3
-1.389, 1.147e-3
-1.390, 1.162e-3
-1.391, 1.178e-3
-1.392, 1.193e-3
-1.393, 1.209e-3
-1.394, 1.226e-3
-1.395, 1.242e-3
-1.396, 1.259e-3
-1.397, 1.275e-3
-1.398, 1.291e-3
-1.399, 1.308e-3
-1.400, 1.325e-3
-1.401, 1.342e-3
-1.402, 1.359e-3
-1.403, 1.375e-3
-1.404, 1.391e-3
-1.405, 1.409e-3
-1.406, 1.428e-3
-1.407, 1.445e-3
-1.408, 1.462e-3
-1.409, 1.480e-3
-1.410, 1.498e-3
-1.411, 1.518e-3
-1.412, 1.537e-3
-1.413, 1.556e-3
-1.414, 1.575e-3
-1.415, 1.594e-3
-1.416, 1.614e-3
-1.417, 1.633e-3
-1.418, 1.656e-3
-1.419, 1.680e-3
-1.420, 1.700e-3
-1.421, 1.718e-3
-1.422, 1.735e-3
-1.423, 1.755e-3
-1.424, 1.776e-3
-1.425, 1.794e-3
-1.426, 1.813e-3
-1.427, 1.834e-3
-1.428, 1.855e-3
-1.429, 1.876e-3
-1.430, 1.898e-3
-1.431, 1.917e-3
-1.432, 1.936e-3
-1.433, 1.956e-3
-1.434, 1.976e-3
-1.435, 1.996e-3
-1.436, 2.019e-3
-1.437, 2.042e-3
-1.438, 2.065e-3
-1.439, 2.084e-3
-1.440, 2.104e-3
-1.441, 2.122e-3
-1.442, 2.143e-3
-1.443, 2.163e-3
-1.444, 2.185e-3
-1.445, 2.203e-3
-1.446, 2.218e-3
-1.447, 2.242e-3
-1.448, 2.267e-3
-1.449, 2.299e-3
-1.450, 2.327e-3
-1.451, 2.348e-3
-1.452, 2.372e-3
-1.453, 2.399e-3
-1.454, 2.418e-3
-1.455, 2.450e-3
-1.456, 2.477e-3
-1.457, 2.496e-3
-1.458, 2.517e-3
-1.459, 2.548e-3
-1.460, 2.574e-3
-1.461, 2.602e-3
-1.462, 2.604e-3
-1.463, 2.598e-3
-1.464, 2.607e-3
-1.465, 2.627e-3
-1.466, 2.651e-3
-1.467, 2.688e-3
-1.468, 2.706e-3
-1.469, 2.717e-3
-1.470, 2.749e-3
-1.471, 2.783e-3
-1.472, 2.790e-3
-1.473, 2.816e-3
-1.474, 2.851e-3
-1.475, 2.875e-3
-1.476, 2.897e-3
-1.477, 2.918e-3
-1.478, 2.956e-3
-1.479, 3.007e-3
-1.480, 3.052e-3
-1.481, 3.098e-3
-1.482, 3.117e-3
-1.483, 3.148e-3
-1.484, 3.171e-3
-1.485, 3.204e-3
-1.486, 3.243e-3
-1.487, 3.268e-3
-1.488, 3.317e-3
-1.489, 3.337e-3
-1.490, 3.354e-3
-1.491, 3.387e-3
-1.492, 3.417e-3
-1.493, 3.449e-3
-1.494, 3.490e-3
-1.495, 3.535e-3
-1.496, 3.706e-3
-1.497, 3.685e-3
-1.498, 3.700e-3
-1.499, 3.715e-3
-1.500, 3.706e-3
-1.499, 3.663e-3
-1.498, 3.611e-3
-1.497, 3.568e-3
-1.496, 3.527e-3
-1.495, 3.475e-3
-1.494, 3.406e-3
-1.493, 3.378e-3
-1.492, 3.331e-3
-1.491, 3.288e-3
-1.490, 3.241e-3
-1.489, 3.200e-3
-1.488, 3.151e-3
-1.487, 3.112e-3
-1.486, 3.072e-3
-1.485, 3.031e-3
-1.484, 2.993e-3
-1.483, 2.948e-3
-1.482, 2.910e-3
-1.481, 2.865e-3
-1.480, 2.837e-3
-1.479, 2.798e-3
-1.478, 2.753e-3
-1.477, 2.725e-3
-1.476, 2.682e-3
-1.475, 2.643e-3
-1.474, 2.603e-3
-1.473, 2.560e-3
-1.472, 2.522e-3
-1.471, 2.495e-3
-1.470, 2.465e-3
-1.469, 2.424e-3
-1.468, 2.389e-3
-1.467, 2.355e-3
-1.466, 2.325e-3
-1.465, 2.288e-3
-1.464, 2.264e-3
-1.463, 2.238e-3
-1.462, 2.201e-3
-1.461, 2.168e-3
-1.460, 2.128e-3
-1.459, 2.099e-3
-1.458, 2.071e-3
-1.457, 2.042e-3
-1.456, 2.017e-3
-1.455, 1.982e-3
-1.454, 1.963e-3
-1.453, 1.963e-3
-1.452, 1.920e-3
-1.451, 1.892e-3
-1.450, 1.877e-3
-1.449, 1.855e-3
-1.448, 1.832e-3
-1.447, 1.804e-3
-1.446, 1.781e-3
-1.445, 1.752e-3
-1.444, 1.722e-3
-1.443, 1.699e-3
-1.442, 1.677e-3
-1.441, 1.654e-3
-1.440, 1.631e-3
-1.439, 1.608e-3
-1.438, 1.584e-3
-1.437, 1.560e-3
-1.436, 1.535e-3
-1.435, 1.507e-3
-1.434, 1.486e-3
-1.433, 1.461e-3
-1.432, 1.437e-3
-1.431, 1.418e-3
-1.430, 1.397e-3
-1.429, 1.380e-3
-1.428, 1.351e-3
-1.427, 1.330e-3
-1.426, 1.311e-3
-1.425, 1.290e-3
-1.424, 1.272e-3
-1.423, 1.257e-3
-1.422, 1.238e-3
-1.421, 1.216e-3
-1.420, 1.197e-3
-1.419, 1.180e-3
-1.418, 1.165e-3
-1.417, 1.141e-3
-1.416, 1.125e-3
-1.415, 1.107e-3
-1.414, 1.090e-3
-1.413, 1.077e-3
-1.412, 1.059e-3
-1.411, 1.042e-3
-1.410, 1.025e-3
-1.409, 1.016e-3
-1.408, 9.961e-4
-1.407, 9.814e-4
-1.406, 9.798e-4
-1.405, 9.664e-4
-1.404, 9.473e-4
-1.403, 9.361e-4
-1.402, 9.198e-4
-1.401, 9.126e-4
-1.400, 8.945e-4
-1.399, 8.875e-4
-1.398, 8.735e-4
-1.397, 8.611e-4
-1.396, 8.549e-4
-1.395, 8.370e-4
-1.394, 8.239e-4
-1.393, 8.064e-4
-1.392, 7.941e-4
-1.391, 7.875e-4
-1.390, 7.710e-4
-1.389, 7.580e-4
-1.388, 7.469e-4
-1.387, 7.358e-4
-1.386, 7.310e-4
-1.385, 7.140e-4
-1.384, 7.024e-4
-1.383, 6.910e-4
-1.382, 6.803e-4
-1.381, 6.703e-4
-1.380, 6.660e-4
-1.379, 6.511e-4
-1.378, 6.402e-4
-1.377, 6.311e-4
-1.376, 6.209e-4
-1.375, 6.105e-4
-1.374, 6.017e-4
-1.373, 5.983e-4
-1.372, 5.822e-4
-1.371, 5.725e-4
-1.370, 5.639e-4
-1.369, 5.549e-4
-1.368, 5.466e-4
-1.367, 5.387e-4
-1.366, 5.305e-4
-1.365, 5.289e-4
-1.364, 5.179e-4
-1.363, 5.065e-4
-1.362, 4.983e-4
-1.361, 4.904e-4
-1.360, 4.827e-4
-1.359, 4.749e-4
-1.358, 4.668e-4
-1.357, 4.592e-4
-1.356, 4.521e-4
-1.355, 4.525e-4
-1.354, 4.391e-4
-1.353, 4.339e-4
-1.352, 4.260e-4
-1.351, 4.168e-4
-1.350, 4.101e-4
-1.349, 4.037e-4
-1.348, 3.969e-4
-1.347, 3.904e-4
-1.346, 3.842e-4
-1.345, 3.780e-4
-1.344, 3.779e-4
-1.343, 3.681e-4
-1.342, 3.594e-4
-1.341, 3.532e-4
-1.340, 3.474e-4
-1.339, 3.422e-4
-1.338, 3.366e-4
-1.337, 3.324e-4
-1.336, 3.255e-4
-1.335, 3.252e-4
-1.334, 3.176e-4
-1.333, 3.100e-4
-1.332, 3.073e-4
-1.331, 3.007e-4
-1.330, 2.958e-4
-1.329, 2.911e-4
-1.328, 2.858e-4
-1.327, 2.811e-4
-1.326, 2.765e-4
-1.325, 2.717e-4
-1.324, 2.672e-4
-1.323, 2.624e-4
-1.322, 2.581e-4
-1.321, 2.531e-4
-1.320, 2.489e-4
-1.319, 2.441e-4
-1.318, 2.407e-4
-1.317, 2.358e-4
-1.316, 2.320e-4
-1.315, 2.280e-4
-1.314, 2.234e-4
-1.313, 2.203e-4
-1.312, 2.152e-4
-1.311, 2.135e-4
-1.310, 2.081e-4
-1.309, 2.045e-4
-1.308, 2.010e-4
-1.307, 1.971e-4
-1.306, 1.936e-4
-1.305, 1.902e-4
-1.304, 1.868e-4
-1.303, 1.832e-4
-1.302, 1.815e-4
-1.301, 1.774e-4
-1.300, 1.776e-4
-1.299, 1.716e-4
-1.298, 1.675e-4
-1.297, 1.668e-4
-1.296, 1.624e-4
-1.295, 1.592e-4
-1.294, 1.563e-4
-1.293, 1.523e-4
-1.292, 1.495e-4
-1.291, 1.466e-4
-1.290, 1.440e-4
-1.289, 1.410e-4
-1.288, 1.384e-4
-1.287, 1.355e-4
-1.286, 1.330e-4
-1.285, 1.306e-4
-1.284, 1.283e-4
-1.283, 1.254e-4
-1.282, 1.232e-4
-1.281, 1.248e-4
-1.280, 1.191e-4
-1.279, 1.169e-4
-1.278, 1.148e-4
-1.277, 1.125e-4
-1.276, 1.103e-4
-1.275, 1.080e-4
-1.274, 1.054e-4
-1.273, 1.028e-4
-1.272, 1.008e-4
-1.271, 9.895e-5
-1.270, 9.692e-5
-1.269, 9.633e-5
-1.268, 9.396e-5
-1.267, 9.139e-5
-1.266, 8.947e-5
-1.265, 8.749e-5
-1.264, 8.606e-5
-1.263, 8.365e-5
-1.262, 8.187e-5
-1.261, 8.018e-5
-1.260, 7.835e-5
-1.259, 7.677e-5
-1.258, 7.489e-5
-1.257, 7.267e-5
-1.256, 7.138e-5
-1.255, 7.023e-5
-1.254, 6.843e-5
-1.253, 6.673e-5
-1.252, 6.519e-5
-1.251, 6.350e-5
-1.250, 6.211e-5
-1.249, 6.054e-5
-1.248, 5.902e-5
-1.247, 5.745e-5
-1.246, 5.596e-5
-1.245, 5.487e-5
-1.244, 5.352e-5
-1.243, 5.180e-5
-1.242, 5.061e-5
-1.241, 4.914e-5
-1.240, 4.780e-5
-1.239, 4.673e-5
-1.238, 4.520e-5
-1.237, 4.386e-5
-1.236, 4.257e-5
-1.235, 4.154e-5
-1.234, 4.037e-5
-1.233, 3.893e-5
-1.232, 3.779e-5
-1.231, 3.652e-5
-1.230, 3.547e-5
-1.229, 3.421e-5
-1.228, 3.301e-5
-1.227, 3.194e-5
-1.226, 3.086e-5
-1.225, 2.985e-5
-1.224, 2.904e-5
-1.223, 2.791e-5
-1.222, 2.654e-5
-1.221, 2.550e-5
-1.220, 2.460e-5
-1.219, 2.361e-5
-1.218, 2.261e-5
-1.217, 2.162e-5
-1.216, 2.077e-5
-1.215, 1.986e-5
-1.214, 1.914e-5
-1.213, 1.811e-5
-1.212, 1.721e-5
-1.211, 1.625e-5
-1.210, 1.541e-5
-1.209, 1.463e-5
-1.208, 1.372e-5
-1.207, 1.287e-5
-1.206, 1.201e-5
-1.205, 1.141e-5
-1.204, 1.072e-5
-1.203, 9.787e-6
-1.202, 9.035e-6
-1.201, 8.297e-6
-1.200, 7.780e-6
-1.199, 7.071e-6
-1.198, 6.136e-6
-1.197, 5.624e-6
-1.196, 4.953e-6
-1.195, 4.362e-6
-1.194, 3.855e-6
-1.193, 3.012e-6
-1.192, 2.448e-6
-1.191, 1.788e-6
-1.190, 1.338e-6
-1.189, 7.743e-7
-1.188, 7.676e-8
-1.187, -6.218e-7
-1.186, -1.122e-6
-1.185, -1.618e-6
-1.184, -2.219e-6
-1.183, -2.867e-6
-1.182, -3.581e-6
-1.181, -4.165e-6
-1.180, -4.684e-6
-1.179, -5.259e-6
-1.178, -6.086e-6
-1.177, -6.742e-6
-1.176, -7.327e-6
-1.175, -7.812e-6
-1.174, -8.556e-6
-1.173, -9.187e-6
-1.172, -9.799e-6
-1.171, -1.022e-5
-1.170, -1.054e-5
-1.169, -1.081e-5
-1.168, -1.109e-5
-1.167, -1.148e-5
-1.166, -1.193e-5
-1.165, -1.219e-5
-1.164, -1.270e-5
-1.163, -1.320e-5
-1.162, -1.377e-5
-1.161, -1.427e-5
-1.160, -1.459e-5
-1.159, -1.505e-5
-1.158, -1.572e-5
-1.157, -1.630e-5
-1.156, -1.678e-5
-1.155, -1.724e-5
-1.154, -1.766e-5
-1.153, -1.829e-5
-1.152, -1.876e-5
-1.151, -1.930e-5
-1.150, -1.961e-5
-1.149, -2.002e-5
-1.148, -2.060e-5
-1.147, -2.109e-5
-1.146, -2.162e-5
-1.145, -2.212e-5
-1.144, -2.258e-5
-1.143, -2.307e-5
-1.142, -2.376e-5
-1.141, -2.413e-5
-1.140, -2.458e-5
-1.139, -2.508e-5
-1.138, -2.552e-5
-1.137, -2.632e-5
-1.136, -2.665e-5
-1.135, -2.699e-5
-1.134, -2.765e-5
-1.133, -2.819e-5
-1.132, -2.883e-5
-1.131, -2.933e-5
-1.130, -2.977e-5
-1.129, -3.030e-5
-1.128, -3.077e-5
-1.127, -3.158e-5
-1.126, -3.212e-5
-1.125, -3.243e-5
-1.124, -3.313e-5
-1.123, -3.376e-5
-1.122, -3.444e-5
-1.121, -3.503e-5
-1.120, -3.546e-5
-1.119, -3.610e-5
-1.118, -3.670e-5
-1.117, -3.737e-5
-1.116, -3.794e-5
-1.115, -3.849e-5
-1.114, -3.916e-5
-1.113, -3.981e-5
-1.112, -4.046e-5
-1.111, -4.125e-5
-1.110, -4.159e-5
-1.109, -4.241e-5
-1.108, -4.333e-5
-1.107, -4.429e-5
-1.106, -4.505e-5
-1.105, -4.574e-5
-1.104, -4.670e-5
-1.103, -4.770e-5
-1.102, -4.904e-5
-1.101, -4.998e-5
-1.100, -5.106e-5
-1.099, -5.239e-5
-1.098, -5.367e-5
-1.097, -5.527e-5
-1.096, -5.666e-5
-1.095, -5.786e-5
-1.094, -5.947e-5
-1.093, -6.098e-5
-1.092, -6.253e-5
-1.091, -6.395e-5
-1.090, -6.526e-5
-1.089, -6.675e-5
-1.088, -6.808e-5
-1.087, -6.967e-5
-1.086, -7.099e-5
-1.085, -7.221e-5
-1.084, -7.363e-5
-1.083, -7.515e-5
-1.082, -7.665e-5
-1.081, -7.802e-5
-1.080, -7.916e-5
-1.079, -8.062e-5
-1.078, -8.182e-5
-1.077, -8.340e-5
-1.076, -8.490e-5
-1.075, -8.635e-5
-1.074, -8.790e-5
-1.073, -8.965e-5
-1.072, -9.125e-5
-1.071, -9.275e-5
-1.070, -9.443e-5
-1.069, -9.609e-5
-1.068, -9.783e-5
-1.067, -9.961e-5
-1.066, -1.011e-4
-1.065, -1.028e-4
-1.064, -1.045e-4
-1.063, -1.061e-4
-1.062, -1.076e-4
-1.061, -1.091e-4
-1.060, -1.112e-4
-1.059, -1.130e-4
-1.058, -1.152e-4
-1.057, -1.173e-4
-1.056, -1.190e-4
-1.055, -1.206e-4
-1.054, -1.224e-4
-1.053, -1.241e-4
-1.052, -1.249e-4
-1.051, -1.253e-4
-1.050, -1.270e-4
-1.049, -1.311e-4
-1.048, -1.323e-4
-1.047, -1.344e-4
-1.046, -1.366e-4
-1.045, -1.386e-4
-1.044, -1.409e-4
-1.043, -1.434e-4
-1.042, -1.459e-4
-1.041, -1.484e-4
-1.040, -1.506e-4
-1.039, -1.530e-4
-1.038, -1.557e-4
-1.037, -1.583e-4
-1.036, -1.610e-4
-1.035, -1.634e-4
-1.034, -1.659e-4
-1.033, -1.689e-4
-1.032, -1.717e-4
-1.031, -1.745e-4
-1.030, -1.771e-4
-1.029, -1.798e-4
-1.028, -1.827e-4
-1.027, -1.857e-4
-1.026, -1.886e-4
-1.025, -1.913e-4
-1.024, -1.943e-4
-1.023, -1.974e-4
-1.022, -2.006e-4
-1.021, -2.035e-4
-1.020, -2.065e-4
-1.019, -2.096e-4
-1.018, -2.128e-4
-1.017, -2.160e-4
-1.016, -2.191e-4
-1.015, -2.223e-4
-1.014, -2.255e-4
-1.013, -2.288e-4
-1.012, -2.323e-4
-1.011, -2.355e-4
-1.010, -2.387e-4
-1.009, -2.420e-4
-1.008, -2.455e-4
-1.007, -2.490e-4
-1.006, -2.526e-4
-1.005, -2.559e-4
-1.004, -2.601e-4
-1.003, -2.636e-4
-1.002, -2.669e-4
-1.001, -2.707e-4
