Potential V vs RHE, Current mA cm-2
0.013299999999999867,-0.07840330023852032
0.012299999999999978,-0.18843954514202288
0.011299999999999866,-0.23696414272739363
0.010299999999999976,-0.27120015618412757
0.009299999999999864,-0.3024652759111448
0.008299999999999974,-0.32807155043870195
0.007299999999999862,-0.35579989191605677
0.006299999999999972,-0.38805530955297957
0.00529999999999986,-0.4176227757201588
0.0042999999999999705,-0.4483220109272302
0.0032999999999998586,-0.4764747657945444
0.0022999999999999687,-0.5046275206618586
0.0012999999999998568,-0.5363170537788354
0.00029999999999996696,-0.5633380396062576
-0.000700000000000145,-0.5899346120437202
-0.0017000000000000348,-0.6145505886613719
-0.0027000000000001467,-0.6366200849392665
-0.0037000000000000366,-0.6618019460768642
-0.0047000000000001485,-0.6867008649544888
-0.005700000000000038,-0.7048091695927613
-0.00670000000000015,-0.7246151277908718
-0.00770000000000004,-0.7404598943493601
-0.008700000000000152,-0.7605487948074438
-0.009700000000000042,-0.7803547530055542
-0.010700000000000154,-0.7956336350440966
-0.011700000000000044,-0.807517209962963
-0.012700000000000156,-0.8235034476514379
-0.013700000000000045,-0.8369432050001557
-0.014700000000000157,-0.8517976736487386
-0.015700000000000047,-0.8618421238777804
-0.01670000000000016,-0.8730183431467142
-0.01770000000000005,-0.8863166293654455
-0.01870000000000016,-0.8948048971646357
-0.01970000000000005,-0.9078202411233941
-0.020700000000000163,-0.9170158645725168
-0.021700000000000053,-0.9239479499418554
-0.022700000000000164,-0.9345582846908432
-0.023700000000000054,-0.9421977257101145
-0.024700000000000166,-0.9528080604591023
-0.025700000000000056,-0.9622866261681979
-0.026700000000000168,-0.9661063466778336
-0.027700000000000058,-0.9740287299570778
-0.02870000000000017,-0.9840731801861196
-0.02970000000000006,-0.9917126212053906
-0.03070000000000017,-1.0000594178745945
-0.03170000000000006,-1.0035961961242568
-0.03270000000000017,-1.0093965124537037
-0.03370000000000006,-1.0200068472026915
-0.034700000000000175,-1.0266559903120571
-0.035700000000000065,-1.0321733643815307
-0.03670000000000018,-1.038963978620883
-0.03770000000000007,-1.0416519300906264
-0.03870000000000018,-1.0533940338795065
-0.03970000000000007,-1.0599017058588855
-0.04070000000000018,-1.0652776087983726
-0.04170000000000007,-1.071785280777752
-0.04270000000000018,-1.0744732322474955
-0.04370000000000007,-1.0850835669964831
-0.044700000000000184,-1.0924400657557813
-0.045700000000000074,-1.0966841996553764
-0.046700000000000186,-1.1020601025948635
-0.047700000000000076,-1.1071530632743778
-0.04870000000000019,-1.116490157853487
-0.04970000000000008,-1.1232807720928393
-0.05070000000000019,-1.1283737327723533
-0.05170000000000008,-1.1333252223218808
-0.05270000000000019,-1.1399743654312466
-0.05370000000000008,-1.1471893930605581
-0.05470000000000019,-1.1568094298996403
-0.05570000000000008,-1.1611950349292222
-0.056700000000000195,-1.1644488709189116
-0.057700000000000085,-1.1716638985482233
-0.058700000000000196,-1.1784545127875756
-0.059700000000000086,-1.1858110115468736
-0.0607000000000002,-1.192318683526253
-0.06170000000000009,-1.198260470985686
-0.0627000000000002,-1.2050510852250382
-0.06370000000000009,-1.21226611285435
-0.0647000000000002,-1.21792495805381
-0.06570000000000009,-1.2252814568131083
-0.0667000000000002,-1.2271205815029327
-0.0677000000000001,-1.233345311222339
-0.0687000000000002,-1.2429653480614211
-0.0697000000000001,-1.2490486066508408
-0.07070000000000021,-1.257253932190058
-0.0717000000000001,-1.2598004125298152
-0.07270000000000021,-1.2646104309493562
-0.0737000000000001,-1.274937823438371
-0.07470000000000021,-1.2810210820277907
-0.0757000000000001,-1.2872458117471968
-0.07670000000000021,-1.290924061126846
-0.0777000000000001,-1.2953096661564274
-0.07870000000000021,-1.306910298815321
-0.0797000000000001,-1.3129935574047407
-0.08070000000000022,-1.318793873734187
-0.0817000000000001,-1.3230380076337822
-0.08270000000000022,-1.327706554923337
-0.08370000000000011,-1.3377510051523789
-0.08470000000000022,-1.343692792611812
-0.08570000000000011,-1.3494931089412585
-0.08670000000000022,-1.3550104830107321
-0.08770000000000011,-1.3612352127301384
-0.08870000000000022,-1.367601413579531
-0.08970000000000011,-1.3765140947686807
-0.09070000000000022,-1.3817485265781813
-0.09170000000000011,-1.3862756027377494
-0.09270000000000023,-1.3923588613271691
-0.09370000000000012,-1.4005641868663863
-0.09470000000000023,-1.410608637095428
-0.09570000000000012,-1.4142868864750773
-0.09670000000000023,-1.420370145064497
-0.09770000000000012,-1.427443701563822
-0.09870000000000023,-1.4345172580631471
-0.09970000000000012,-1.4430055258623373
-0.10070000000000023,-1.4486643710617975
-0.10170000000000012,-1.4529085049613928
-0.10270000000000024,-1.459982061460718
-0.10370000000000013,-1.4684703292599082
-0.10470000000000024,-1.4755438857592333
-0.10570000000000013,-1.4840321535584236
-0.10670000000000024,-1.4854468648582886
-0.10770000000000013,-1.4939351326574788
-0.10870000000000024,-1.505252823056399
-0.10970000000000013,-1.510911668255859
-0.11070000000000024,-1.5193999360550492
-0.11170000000000013,-1.5222293586547795
-0.11270000000000002,-1.5278882038542394
-0.11370000000000013,-1.53920589425316
-0.11470000000000002,-1.54486473945262
-0.11570000000000014,-1.5533530072518102
-0.11670000000000003,-1.5590118524512704
-0.11770000000000014,-1.5646706976507305
-0.11870000000000003,-1.5731589654499207
-0.11970000000000014,-1.580232521949246
-0.12070000000000003,-1.5887207897484361
-0.12170000000000014,-1.5929649236480312
-0.12270000000000003,-1.5972090575476263
-0.12370000000000014,-1.6071120366466816
-0.12470000000000003,-1.6156003044458718
-0.12570000000000014,-1.6212591496453321
-0.12670000000000003,-1.626917994844792
-0.12770000000000015,-1.6311621287443874
-0.12870000000000004,-1.6410651078434426
-0.12970000000000015,-1.6509680869424979
-0.13070000000000004,-1.655212220842093
-0.13170000000000015,-1.6594563547416883
-0.13270000000000004,-1.6665299112410132
-0.13370000000000015,-1.6721887564404734
-0.13470000000000004,-1.6806770242396636
-0.13570000000000015,-1.6849211581392587
-0.13670000000000004,-1.6877505807389888
-0.13770000000000016,-1.694824137238314
-0.13870000000000005,-1.701897693737639
-0.13970000000000016,-1.7089712502369643
-0.14070000000000005,-1.7132153841365596
-0.14170000000000016,-1.7160448067362895
-0.14270000000000005,-1.7217036519357498
-0.14370000000000016,-1.72736249713521
-0.14470000000000005,-1.734436053634535
-0.14570000000000016,-1.7415096101338603
-0.14670000000000005,-1.7400948988339953
-0.14770000000000016,-1.7457537440334552
-0.14870000000000005,-1.7542420118326456
-0.14970000000000017,-1.7584861457322407
-0.15070000000000006,-1.7613155683319706
-0.15170000000000017,-1.7627302796318356
-0.15270000000000006,-1.768389124831296
-0.15370000000000017,-1.775462681330621
-0.15470000000000006,-1.778292103930351
-0.15570000000000017,-1.7825362378299463
-0.15670000000000006,-1.7839509491298113
-0.15770000000000017,-1.7867803717295414
-0.15870000000000006,-1.7938539282288664
-0.15970000000000018,-1.7980980621284617
-0.16070000000000007,-1.8009274847281918
-0.16170000000000018,-1.8023421960280568
-0.16270000000000007,-1.8037569073279218
-0.16370000000000018,-1.813659886426977
-0.16470000000000007,-1.8179040203265722
-0.16570000000000018,-1.8179040203265722
-0.16670000000000007,-1.8179040203265722
-0.16770000000000018,-1.8207334429263025
-0.16870000000000007,-1.8263922881257622
-0.16970000000000018,-1.8320511333252225
-0.17070000000000007,-1.8292217107254924
-0.17170000000000019,-1.8306364220253575
-0.17270000000000008,-1.8348805559249526
-0.1737000000000002,-1.8377099785246829
-0.17470000000000008,-1.8433688237241426
-0.1757000000000002,-1.8433688237241426
-0.17670000000000008,-1.8461982463238729
-0.1777000000000002,-1.850442380223468
-0.17870000000000008,-1.8532718028231983
-0.1797000000000002,-1.8561012254229279
-0.18070000000000008,-1.8603453593225232
-0.1817000000000002,-1.8603453593225232
-0.18270000000000008,-1.8645894932221183
-0.1837000000000002,-1.8674189158218486
-0.1847000000000001,-1.8730777610213083
-0.1857000000000002,-1.8759071836210386
-0.1867000000000001,-1.8759071836210386
-0.1877000000000002,-1.8801513175206337
-0.1887000000000001,-1.8872248740199586
-0.1897000000000002,-1.891469007919554
-0.1907000000000001,-1.894298430519284
-0.1917000000000001,-1.895713141819149
-0.19269999999999998,-1.8985425644188794
-0.1937000000000001,-1.9084455435179344
-0.19469999999999998,-1.9112749661176645
-0.1957000000000001,-1.9126896774175295
-0.19669999999999999,-1.9183485226169896
-0.1977000000000001,-1.922592656516585
-0.1987,-1.9296662130159101
-0.1997000000000001,-1.93532505821537
-0.2007,-1.9409839034148304
-0.2017000000000001,-1.9466427486142908
-0.2027,-1.9494721712140204
-0.2037000000000001,-1.9579604390132106
-0.2047,-1.9664487068124006
-0.2057000000000001,-1.9706928407119961
-0.2067,-1.9777663972113213
-0.2077000000000001,-1.9848399537106465
-0.2087,-1.993328221509837
-0.2097000000000001,-2.0032312006088917
-0.2107,-2.008890045808352
-0.2117000000000001,-2.0159636023076772
-0.2127,-2.0258665814067327
-0.2137000000000001,-2.0371842718056525
-0.2147,-2.049916673504438
-0.2157000000000001,-2.0640637865030884
-0.2167,-2.0683079204026833
-0.21770000000000012,-2.076796188201874
-0.2187,-2.0866991673009294
-0.21970000000000012,-2.0994315689997145
-0.2207,-2.110749259398635
-0.22170000000000012,-2.1192375271978254
-0.2227,-2.133384640196476
-0.22370000000000012,-2.1447023305953956
-0.2247,-2.1630935774936413
-0.22570000000000012,-2.174411267892561
-0.2267,-2.184314246991617
-0.22770000000000012,-2.201290782589997
-0.22870000000000001,-2.2182673181883774
-0.22970000000000013,-2.2338291424868926
-0.23070000000000002,-2.2479762554855434
-0.23170000000000013,-2.2621233684841937
-0.23270000000000002,-2.2776851927827093
-0.23370000000000013,-2.3003205735805494
-0.23470000000000002,-2.3172971091789303
-0.23570000000000013,-2.3342736447773107
-0.23670000000000002,-2.352664891675556
-0.2376999999999999,-2.3696414272739363
-0.23870000000000002,-2.3951062306715074
-0.2396999999999999,-2.414912188869618
-0.24070000000000003,-2.436132858367593
-0.24169999999999991,-2.4587682391654337
-0.24270000000000003,-2.4771594860636794
-0.24369999999999992,-2.50262428946125
-0.24470000000000003,-2.5309185154585507
-0.24569999999999992,-2.550724473656661
-0.24670000000000003,-2.579018699653962
-0.24769999999999992,-2.6016540804518025
-0.24870000000000003,-2.629948306449103
-0.24969999999999992,-2.661071955046134
-0.25070000000000003,-2.6865367584437045
-0.2516999999999999,-2.7162456957408705
-0.25270000000000004,-2.744539921738171
-0.2536999999999999,-2.7770782816350668
-0.25470000000000004,-2.8152754867314234
-0.2556999999999999,-2.840740290128994
-0.25670000000000004,-2.874693361325755
-0.25769999999999993,-2.9086464325225156
-0.25870000000000004,-2.945428926319006
-0.25969999999999993,-2.9864555540150928
-0.26070000000000004,-3.0232380478115832
-0.26169999999999993,-3.0600205416080746
-0.26270000000000004,-3.0996324580042955
-0.26369999999999993,-3.1406590857003813
-0.26470000000000005,-3.1859298472960624
-0.26569999999999994,-3.2297858975918787
-0.26670000000000005,-3.27505665918756
-0.26769999999999994,-3.3203274207832414
-0.26870000000000005,-3.368427604978652
-0.26969999999999994,-3.415113077874199
-0.27070000000000005,-3.4660426846693397
-0.27169999999999994,-3.5141428688647514
-0.27270000000000005,-3.566487186959758
-0.27369999999999994,-3.6244903502542236
-0.27470000000000006,-3.6754199570493657
-0.27569999999999995,-3.733423120343832
-0.27670000000000006,-3.7928409949381634
-0.27769999999999995,-3.85084415823263
-0.27870000000000006,-3.915920878026421
-0.27969999999999995,-3.979582886520348
-0.28070000000000006,-4.04183018371441
-0.28169999999999995,-4.108321614808066
-0.28270000000000006,-4.171983623301993
-0.28369999999999995,-4.24413389959511
-0.28470000000000006,-4.317698887188092
-0.28569999999999995,-4.388434452181344
-0.28670000000000007,-4.463414151074191
-0.28769999999999996,-4.5369791386671725
-0.28870000000000007,-4.61761768275948
-0.28969999999999996,-4.7010856494515165
-0.29070000000000007,-4.7803094822439585
-0.29169999999999996,-4.862362737636131
-0.29270000000000007,-4.948660126927899
-0.29369999999999996,-5.037786938819395
-0.2947000000000001,-5.129743173310623
-0.29569999999999996,-5.2188699852021205
-0.2967000000000001,-5.309411508393483
-0.29769999999999996,-5.408441299384036
-0.2987000000000001,-5.503226956474993
-0.29969999999999997,-5.605086170065275
-0.3007000000000001,-5.705530672355693
-0.30169999999999997,-5.804560463346245
-0.3027000000000001,-5.913493233435854
-0.30369999999999997,-6.021011292225596
-0.3047000000000001,-6.132773484914934
-0.30569999999999997,-6.2431209663044065
-0.3067000000000001,-6.3548831589937445
-0.3077,-6.473718908182407
-0.3087000000000001,-6.592554657371071
-0.3097,-6.714219829159464
-0.3107000000000001,-6.841543846147317
-0.3117,-6.961794306635846
-0.3127000000000001,-7.0891183236236985
-0.3137,-7.224930608410742
-0.3147000000000001,-7.360742893197786
-0.3157,-7.49655517798483
-0.3167000000000001,-7.630952751472008
-0.3177,-7.773838592758376
-0.3187000000000001,-7.919553856644475
-0.3197,-8.066683831830439
-0.3207000000000001,-8.215228518316268
-0.3217,-8.365187916101961
-0.3227000000000001,-8.519391447787251
-0.3237,-8.677839113372134
-0.3247000000000001,-8.841945624156478
-0.3257,-9.001808001041228
-0.3267000000000001,-9.168743934425303
-0.3277,-9.334265156509511
-0.3287000000000001,-9.512518780292506
-0.3297,-9.686528270175906
-0.3307000000000001,-9.8647818939589
-0.3317,-10.040206095142164
-0.3327000000000001,-10.228362698024217
-0.3337,-10.413689878306533
-0.3347000000000001,-10.61174946028764
-0.3357,-10.79707664056996
-0.3367000000000001,-10.993721511251199
-0.3377,-11.194610515832036
-0.3387000000000001,-11.3983289430126
-0.3397,-11.603462081493031
-0.3407000000000001,-11.814254065172921
-0.3417,-12.023631337552947
-0.3427000000000001,-12.242911589032026
-0.3437,-12.460777129211243
-0.3447000000000001,-12.687130937189648
-0.3457,-12.913484745168056
-0.3467000000000001,-13.138423841846596
-0.3477,-13.373265917624192
-0.3487000000000001,-13.613766838601249
-0.3497,-13.851438336978573
-0.3507000000000001,-14.100427525754823
-0.3517,-14.331025467632822
-0.3527000000000001,-14.585673501608527
-0.3537,-14.854468648582884
-0.3547000000000001,-15.10911668255859
-0.3557,-15.363764716534297
-0.35670000000000013,-15.632559863508657
-0.3577,-15.901355010483012
-0.35870000000000013,-16.170150157457368
-0.3597,-16.453092417430376
-0.36070000000000013,-16.721887564404735
-0.3617,-17.00482982437774
-0.3626999999999999,-17.301919197349395
-0.3637,-17.599008570321057
-0.3646999999999999,-17.896097943292716
-0.3657,-18.19318731626437
-0.3666999999999999,-18.49027668923603
-0.3677,-18.80151317520634
-0.3686999999999999,-19.112749661176647
-0.36970000000000003,-19.4381332601456
-0.3706999999999999,-19.749369746115914
-0.37170000000000003,-20.06060623208622
-0.3726999999999999,-20.38598983105518
-0.37370000000000003,-20.72552054302279
-0.3746999999999999,-21.065051254990397
-0.37570000000000003,-21.404581966958006
-0.3766999999999999,-21.744112678925614
-0.37770000000000004,-22.097790503891872
-0.3786999999999999,-22.451468328858134
-0.37970000000000004,-22.80514615382439
-0.3806999999999999,-23.15882397879065
-0.38170000000000004,-23.526648916755562
-0.38269999999999993,-23.894473854720466
-0.38370000000000004,-24.27644590568403
-0.38469999999999993,-24.65841795664759
-0.38570000000000004,-25.04039000761115
-0.38669999999999993,-25.42236205857471
-0.38770000000000004,-25.81848122253692
-0.38869999999999993,-26.21460038649913
-0.38970000000000005,-26.61071955046134
-0.39069999999999994,-27.0209858274222
-0.39170000000000005,-27.43125210438306
-0.39269999999999994,-27.841518381343924
-0.39370000000000005,-28.265931771303435
-0.39469999999999994,-28.690345161262943
-0.39570000000000005,-29.128905664221104
-0.39669999999999994,-29.55331905418062
-0.39770000000000005,-29.991879557138777
-0.39869999999999994,-30.43044006009694
-0.39970000000000006,-30.88314767605375
-0.40069999999999995,-31.30756106601326
-0.40170000000000006,-31.77441579496872
-0.40269999999999995,-32.21297629792688
-0.40370000000000006,-32.693978139881004
-0.40469999999999995,-33.14668575583781
-0.40570000000000006,-33.61354048479327
-0.40669999999999995,-34.08039521374873
-0.40770000000000006,-34.53310282970554
-0.40869999999999995,-34.99995755866101
-0.40970000000000006,-35.48095940061512
-0.41069999999999995,-35.94781412957058
-0.41170000000000007,-36.4288159715247
-0.41269999999999996,-36.90981781347881
-0.41370000000000007,-37.40496676843157
-0.41469999999999996,-37.90011572338433
-0.41570000000000007,-38.38111756533845
-0.41669999999999996,-38.86211940729255
-0.41770000000000007,-39.34312124924667
-0.41869999999999996,-39.86656443019674
-0.4197000000000001,-40.37586049814815
-0.42069999999999996,-40.8993036790982
-0.4217000000000001,-41.39445263405098
-0.42269999999999996,-41.94619004099834
-0.4237000000000001,-42.45548610894975
-0.42469999999999997,-42.99307640289846
-0.4257000000000001,-43.51651958384853
-0.42669999999999997,-44.068256990795895
-0.4277000000000001,-44.619994397743255
-0.42869999999999997,-45.17173180469062
-0.4297000000000001,-45.69517498564068
-0.43069999999999997,-46.27520661858535
-0.4317000000000001,-46.84109113853137
-0.4327,-47.46356411047198
-0.4337000000000001,-48.01530151741934
-0.4347,-48.609480263362656
-0.4357000000000001,-49.20365900930597
-0.4367,-49.84027909424525
-0.4377000000000001,-50.42031072718991
-0.4387,-51.05693081212917
-0.4397000000000001,-51.665256671071134
-0.4407,-52.30187675601041
-0.4417000000000001,-52.91020261495237
-0.4427,-53.50438136089569
-0.4437000000000001,-54.09856010683901
-0.4447,-54.74932730477692
-0.4457000000000001,-55.385947389716186
-0.4467,-56.03671458765411
-0.4477000000000001,-56.70162889859067
-0.4487,-57.394837435524536
-0.4497000000000001,-57.98901618146786
-0.4507,-58.63978337940577
-0.4517000000000001,-59.304697690342344
-0.4527,-59.94131777528161
-0.4537000000000001,-60.57793786022087
-0.4547,-61.27114639715474
-0.4557000000000001,-61.921913595092654
-0.4567,-62.544386567033264
-0.4577000000000001,-63.22344799096849
-0.4587,-63.860068075907755
-0.4597000000000001,-64.55327661284163
-0.4607,-65.2464851497755
-0.4617000000000001,-65.95384079970802
-0.4627,-66.67534356263918
-0.4637000000000001,-67.36855209957304
-0.4647,-68.0900548625042
-0.4657000000000001,-68.78326339943808
-0.4667,-69.47647193637195
-0.4677000000000001,-70.18382758630447
-0.4687,-70.87703612323833
-0.4697000000000001,-71.74001001615602
-0.4707,-72.67371947406694
-0.4717000000000001,-73.50839914098731
-0.4727,-74.34307880790767
-0.4737000000000001,-75.26264115281995
-0.4747,-76.19635061073087
-0.4757000000000001,-76.97444182565664
-0.4767,-77.68179747558916
-0.4777000000000001,-78.43159446451764
-0.4787,-79.22383279244205
-0.4797000000000001,-80.05851245936242
-0.4807,-80.8931921262828
-0.48170000000000013,-81.67128334120858
-0.4827,-82.42108033013703
-0.48370000000000013,-83.21331865806147
-0.4847,-84.01970409898453
-0.48570000000000013,-84.8543837659049
-0.4867,-84.7977953139103
-0.48570000000000013,-83.99140987298723
-0.4847,-83.18502443206415
-0.48370000000000013,-82.42108033013703
-0.4827,-81.51566509822342
-0.48170000000000013,-80.66683831830439
-0.4807,-79.80386442538673
-0.4797000000000001,-78.9550376454677
-0.4787,-78.13450509154598
-0.4777000000000001,-77.28567831162695
-0.4767,-76.50758709670117
-0.4757000000000001,-75.7012016557781
-0.4747,-74.86652198885774
-0.4737000000000001,-74.11672499992927
-0.4727,-73.3669280110008
-0.4717000000000001,-72.53224834408043
-0.4707,-71.6268331121668
-0.4697000000000001,-70.8345947842424
-0.4687,-70.09894490831257
-0.4677000000000001,-69.26426524139221
-0.4667,-68.64179226945159
