Sept. 5, 2024   16:47:10
Linear Sweep Voltammetry
File: c:/users/guazh/data/20240903_batch_252_500/2024-09-03-exp271\regeneratedgce-2024-09-05t16_44_05-lsvinkoh\regeneratedgce_lsv_50mvs_efin_-1700mv.bin
Data Source:  Experiment
Instrument Model:  CHI760E
Header: LSV ran at 50 mVs with Efin at -1700mV
Note: 

Init E (V) = -0.6
Final E (V) = -1.7
Scan Rate (V/s) = 0.05
Sample Interval (V) = 0.001
Quiet Time (sec) = 2
Sensitivity (A/V) = 1e-4
Comp R (ohm) = 4.2

Results:

Channel 1:

Potential/V, Current/A

-0.600, 1.279e-6
-0.601, 8.836e-7
-0.602, 8.579e-7
-0.603, 8.492e-7
-0.604, 8.482e-7
-0.605, 8.502e-7
-0.606, 8.547e-7
-0.607, 8.568e-7
-0.608, 8.624e-7
-0.609, 7.041e-7
-0.610, 9.992e-8
-0.611, 1.419e-8
-0.612, 1.231e-8
-0.613, 9.945e-9
-0.614, 1.044e-8
-0.615, 1.113e-8
-0.616, 2.189e-6
-0.617, 3.252e-6
-0.618, 1.364e-6
-0.619, 1.123e-6
-0.620, 1.050e-6
-0.621, 1.014e-6
-0.622, 9.964e-7
-0.623, 9.820e-7
-0.624, 9.746e-7
-0.625, 9.712e-7
-0.626, 8.669e-7
-0.627, 1.694e-7
-0.628, 1.557e-8
-0.629, 1.182e-8
-0.630, 1.123e-8
-0.631, 1.202e-8
-0.632, 2.338e-6
-0.633, 2.938e-6
-0.634, 1.360e-6
-0.635, 1.159e-6
-0.636, 1.098e-6
-0.637, 1.066e-6
-0.638, 1.050e-6
-0.639, 1.038e-6
-0.640, 1.032e-6
-0.641, 1.028e-6
-0.642, 1.023e-6
-0.643, 1.025e-6
-0.644, 1.025e-6
-0.645, 1.023e-6
-0.646, 1.027e-6
-0.647, 1.028e-6
-0.648, 1.030e-6
-0.649, 1.033e-6
-0.650, 1.032e-6
-0.651, 1.036e-6
-0.652, 1.037e-6
-0.653, 1.037e-6
-0.654, 1.042e-6
-0.655, 1.041e-6
-0.656, 1.044e-6
-0.657, 7.535e-7
-0.658, 7.624e-8
-0.659, 1.162e-8
-0.660, 1.064e-8
-0.661, 1.014e-8
-0.662, 9.452e-9
-0.663, 7.678e-7
-0.664, 4.564e-6
-0.665, 1.821e-6
-0.666, 1.342e-6
-0.667, 1.234e-6
-0.668, 1.185e-6
-0.669, 1.158e-6
-0.670, 1.141e-6
-0.671, 1.130e-6
-0.672, 1.123e-6
-0.673, 1.118e-6
-0.674, 1.114e-6
-0.675, 5.962e-7
-0.676, 3.984e-8
-0.677, 1.202e-8
-0.678, 9.846e-9
-0.679, 1.232e-6
-0.680, 3.471e-6
-0.681, 1.551e-6
-0.682, 1.285e-6
-0.683, 1.220e-6
-0.684, 1.188e-6
-0.685, 1.172e-6
-0.686, 1.162e-6
-0.687, 1.154e-6
-0.688, 1.150e-6
-0.689, 1.149e-6
-0.690, 7.314e-7
-0.691, 5.977e-8
-0.692, 1.162e-8
-0.693, 8.860e-9
-0.694, 9.254e-9
-0.695, 8.268e-9
-0.696, 8.662e-9
-0.697, 4.185e-6
-0.698, 3.196e-6
-0.699, 1.626e-6
-0.700, 1.403e-6
-0.701, 1.320e-6
-0.702, 1.277e-6
-0.703, 1.248e-6
-0.704, 1.234e-6
-0.705, 1.222e-6
-0.706, 1.213e-6
-0.707, 1.208e-6
-0.708, 1.079e-6
-0.709, 2.023e-7
-0.710, 1.350e-8
-0.711, 1.054e-8
-0.712, 1.073e-8
-0.713, 8.268e-9
-0.714, 8.169e-9
-0.715, 9.254e-9
-0.716, 5.436e-6
-0.717, 2.908e-6
-0.718, 1.670e-6
-0.719, 1.470e-6
-0.720, 1.386e-6
-0.721, 1.342e-6
-0.722, 1.312e-6
-0.723, 1.290e-6
-0.724, 1.277e-6
-0.725, 1.267e-6
-0.726, 1.264e-6
-0.727, 1.260e-6
-0.728, 1.255e-6
-0.729, 1.253e-6
-0.730, 1.252e-6
-0.731, 1.253e-6
-0.732, 1.254e-6
-0.733, 1.252e-6
-0.734, 1.254e-6
-0.735, 1.253e-6
-0.736, 1.253e-6
-0.737, 1.254e-6
-0.738, 1.251e-6
-0.739, 1.253e-6
-0.740, 1.253e-6
-0.741, 9.294e-7
-0.742, 9.696e-8
-0.743, 9.846e-9
-0.744, 9.254e-9
-0.745, 7.676e-9
-0.746, 1.034e-8
-0.747, 4.686e-6
-0.748, 2.629e-6
-0.749, 1.628e-6
-0.750, 1.471e-6
-0.751, 1.403e-6
-0.752, 1.370e-6
-0.753, 1.349e-6
-0.754, 1.335e-6
-0.755, 1.325e-6
-0.756, 1.320e-6
-0.757, 1.316e-6
-0.758, 1.314e-6
-0.759, 1.312e-6
-0.760, 1.309e-6
-0.761, 1.310e-6
-0.762, 1.310e-6
-0.763, 1.311e-6
-0.764, 1.313e-6
-0.765, 1.313e-6
-0.766, 1.314e-6
-0.767, 1.314e-6
-0.768, 1.316e-6
-0.769, 1.319e-6
-0.770, 1.316e-6
-0.771, 1.320e-6
-0.772, 1.321e-6
-0.773, 1.320e-6
-0.774, 1.180e-6
-0.775, 2.165e-7
-0.776, 1.251e-8
-0.777, 9.846e-9
-0.778, 1.930e-6
-0.779, 3.347e-6
-0.780, 1.710e-6
-0.781, 1.498e-6
-0.782, 1.437e-6
-0.783, 1.407e-6
-0.784, 1.392e-6
-0.785, 1.383e-6
-0.786, 1.377e-6
-0.787, 1.372e-6
-0.788, 1.369e-6
-0.789, 1.370e-6
-0.790, 1.369e-6
-0.791, 1.368e-6
-0.792, 1.370e-6
-0.793, 1.371e-6
-0.794, 1.374e-6
-0.795, 1.376e-6
-0.796, 1.378e-6
-0.797, 1.378e-6
-0.798, 1.379e-6
-0.799, 1.380e-6
-0.800, 1.381e-6
-0.801, 1.384e-6
-0.802, 1.384e-6
-0.803, 1.386e-6
-0.804, 1.388e-6
-0.805, 1.373e-6
-0.806, 5.136e-7
-0.807, 2.484e-8
-0.808, 7.774e-9
-0.809, 7.311e-7
-0.810, 4.122e-6
-0.811, 1.979e-6
-0.812, 1.610e-6
-0.813, 1.526e-6
-0.814, 1.491e-6
-0.815, 1.469e-6
-0.816, 1.459e-6
-0.817, 1.452e-6
-0.818, 1.445e-6
-0.819, 1.449e-6
-0.820, 1.449e-6
-0.821, 1.446e-6
-0.822, 1.447e-6
-0.823, 1.446e-6
-0.824, 1.448e-6
-0.825, 1.451e-6
-0.826, 1.452e-6
-0.827, 1.455e-6
-0.828, 1.455e-6
-0.829, 1.455e-6
-0.830, 1.458e-6
-0.831, 1.460e-6
-0.832, 1.463e-6
-0.833, 1.465e-6
-0.834, 1.468e-6
-0.835, 1.455e-6
-0.836, 5.553e-7
-0.837, 2.622e-8
-0.838, 9.156e-9
-0.839, 1.210e-6
-0.840, 4.081e-6
-0.841, 1.993e-6
-0.842, 1.682e-6
-0.843, 1.607e-6
-0.844, 1.573e-6
-0.845, 1.554e-6
-0.846, 1.542e-6
-0.847, 1.535e-6
-0.848, 1.530e-6
-0.849, 1.529e-6
-0.850, 1.529e-6
-0.851, 1.531e-6
-0.852, 1.531e-6
-0.853, 1.530e-6
-0.854, 1.535e-6
-0.855, 1.537e-6
-0.856, 1.540e-6
-0.857, 1.542e-6
-0.858, 1.543e-6
-0.859, 1.544e-6
-0.860, 1.546e-6
-0.861, 1.548e-6
-0.862, 1.552e-6
-0.863, 1.554e-6
-0.864, 9.949e-7
-0.865, 7.447e-8
-0.866, 1.004e-8
-0.867, 9.452e-9
-0.868, 7.084e-9
-0.869, 7.182e-9
-0.870, 6.886e-9
-0.871, 5.575e-6
-0.872, 4.189e-6
-0.873, 2.246e-6
-0.874, 1.944e-6
-0.875, 1.828e-6
-0.876, 1.766e-6
-0.877, 1.728e-6
-0.878, 1.705e-6
-0.879, 1.688e-6
-0.880, 1.678e-6
-0.881, 1.672e-6
-0.882, 1.666e-6
-0.883, 8.818e-7
-0.884, 5.138e-8
-0.885, 9.649e-9
-0.886, 8.564e-9
-0.887, 7.676e-9
-0.888, 6.196e-9
-0.889, 1.112e-6
-0.890, 6.997e-6
-0.891, 2.950e-6
-0.892, 2.163e-6
-0.893, 1.973e-6
-0.894, 1.885e-6
-0.895, 1.833e-6
-0.896, 1.803e-6
-0.897, 1.784e-6
-0.898, 1.769e-6
-0.899, 1.761e-6
-0.900, 1.755e-6
-0.901, 1.725e-6
-0.902, 6.054e-7
-0.903, 2.543e-8
-0.904, 8.662e-9
-0.905, 7.380e-9
-0.906, 7.774e-9
-0.907, 7.281e-9
-0.908, 2.697e-7
-0.909, 7.704e-6
-0.910, 3.589e-6
-0.911, 2.364e-6
-0.912, 2.124e-6
-0.913, 2.012e-6
-0.914, 1.949e-6
-0.915, 1.913e-6
-0.916, 1.890e-6
-0.917, 1.873e-6
-0.918, 1.862e-6
-0.919, 1.856e-6
-0.920, 1.850e-6
-0.921, 1.226e-6
-0.922, 9.884e-8
-0.923, 1.024e-8
-0.924, 8.070e-9
-0.925, 7.380e-9
-0.926, 6.294e-9
-0.927, 6.985e-9
-0.928, 4.220e-6
-0.929, 6.433e-6
-0.930, 2.894e-6
-0.931, 2.360e-6
-0.932, 2.189e-6
-0.933, 2.101e-6
-0.934, 2.052e-6
-0.935, 2.018e-6
-0.936, 1.992e-6
-0.937, 1.978e-6
-0.938, 1.967e-6
-0.939, 1.963e-6
-0.940, 1.960e-6
-0.941, 1.957e-6
-0.942, 1.957e-6
-0.943, 1.956e-6
-0.944, 1.959e-6
-0.945, 1.963e-6
-0.946, 1.964e-6
-0.947, 1.967e-6
-0.948, 1.968e-6
-0.949, 1.970e-6
-0.950, 1.973e-6
-0.951, 1.974e-6
-0.952, 1.979e-6
-0.953, 1.983e-6
-0.954, 1.984e-6
-0.955, 9.166e-7
-0.956, 4.438e-8
-0.957, 1.044e-8
-0.958, 2.785e-7
-0.959, 5.890e-6
-0.960, 3.113e-6
-0.961, 2.359e-6
-0.962, 2.217e-6
-0.963, 2.161e-6
-0.964, 2.132e-6
-0.965, 2.114e-6
-0.966, 2.106e-6
-0.967, 2.099e-6
-0.968, 2.098e-6
-0.969, 2.099e-6
-0.970, 2.102e-6
-0.971, 2.106e-6
-0.972, 2.109e-6
-0.973, 2.114e-6
-0.974, 2.117e-6
-0.975, 2.118e-6
-0.976, 2.122e-6
-0.977, 2.127e-6
-0.978, 2.131e-6
-0.979, 2.137e-6
-0.980, 2.142e-6
-0.981, 2.147e-6
-0.982, 2.155e-6
-0.983, 2.158e-6
-0.984, 2.165e-6
-0.985, 2.171e-6
-0.986, 2.176e-6
-0.987, 2.183e-6
-0.988, 2.186e-6
-0.989, 2.191e-6
-0.990, 2.197e-6
-0.991, 2.203e-6
-0.992, 2.210e-6
-0.993, 2.216e-6
-0.994, 1.657e-6
-0.995, 1.657e-7
-0.996, 1.034e-8
-0.997, 8.465e-9
-0.998, 7.281e-9
-0.999, 8.682e-7
-1.000, 8.099e-6
-1.001, 3.797e-6
-1.002, 2.819e-6
-1.003, 2.602e-6
-1.004, 2.504e-6
-1.005, 2.454e-6
-1.006, 2.423e-6
-1.007, 2.404e-6
-1.008, 2.393e-6
-1.009, 2.387e-6
-1.010, 2.383e-6
-1.011, 1.498e-6
-1.012, 1.061e-7
-1.013, 9.649e-9
-1.014, 7.182e-9
-1.015, 6.393e-9
-1.016, 5.998e-9
-1.017, 1.540e-7
-1.018, 9.656e-6
-1.019, 5.013e-6
-1.020, 3.252e-6
-1.021, 2.901e-6
-1.022, 2.752e-6
-1.023, 2.670e-6
-1.024, 2.622e-6
-1.025, 2.590e-6
-1.026, 2.567e-6
-1.027, 2.554e-6
-1.028, 2.544e-6
-1.029, 2.537e-6
-1.030, 2.535e-6
-1.031, 2.532e-6
-1.032, 2.532e-6
-1.033, 2.534e-6
-1.034, 2.535e-6
-1.035, 2.537e-6
-1.036, 2.538e-6
-1.037, 2.540e-6
-1.038, 2.543e-6
-1.039, 2.544e-6
-1.040, 2.549e-6
-1.041, 2.552e-6
-1.042, 2.555e-6
-1.043, 1.911e-6
-1.044, 1.902e-7
-1.045, 1.123e-8
-1.046, 8.860e-9
-1.047, 8.564e-9
-1.048, 4.956e-6
-1.049, 6.817e-6
-1.050, 3.561e-6
-1.051, 3.060e-6
-1.052, 2.896e-6
-1.053, 2.813e-6
-1.054, 2.768e-6
-1.055, 2.737e-6
-1.056, 2.719e-6
-1.057, 2.710e-6
-1.058, 2.700e-6
-1.059, 2.697e-6
-1.060, 2.695e-6
-1.061, 2.694e-6
-1.062, 2.698e-6
-1.063, 2.701e-6
-1.064, 2.704e-6
-1.065, 2.705e-6
-1.066, 2.703e-6
-1.067, 2.706e-6
-1.068, 2.705e-6
-1.069, 2.707e-6
-1.070, 2.713e-6
-1.071, 2.716e-6
-1.072, 2.720e-6
-1.073, 2.723e-6
-1.074, 2.725e-6
-1.075, 2.732e-6
-1.076, 2.739e-6
-1.077, 2.742e-6
-1.078, 2.749e-6
-1.079, 2.753e-6
-1.080, 2.758e-6
-1.081, 2.760e-6
-1.082, 2.762e-6
-1.083, 2.766e-6
-1.084, 2.768e-6
-1.085, 2.772e-6
-1.086, 2.777e-6
-1.087, 2.782e-6
-1.088, 2.786e-6
-1.089, 2.791e-6
-1.090, 2.793e-6
-1.091, 2.800e-6
-1.092, 2.806e-6
-1.093, 2.811e-6
-1.094, 2.817e-6
-1.095, 2.820e-6
-1.096, 2.822e-6
-1.097, 2.828e-6
-1.098, 2.829e-6
-1.099, 2.832e-6
-1.100, 2.838e-6
-1.101, 2.843e-6
-1.102, 2.849e-6
-1.103, 2.853e-6
-1.104, 2.860e-6
-1.105, 2.865e-6
-1.106, 2.866e-6
-1.107, 2.871e-6
-1.108, 2.874e-6
-1.109, 2.876e-6
-1.110, 2.881e-6
-1.111, 2.882e-6
-1.112, 2.885e-6
-1.113, 2.892e-6
-1.114, 2.895e-6
-1.115, 2.902e-6
-1.116, 2.905e-6
-1.117, 2.906e-6
-1.118, 1.914e-6
-1.119, 1.439e-7
-1.120, 1.113e-8
-1.121, 8.070e-9
-1.122, 7.281e-9
-1.123, 3.753e-7
-1.124, 1.070e-5
-1.125, 5.527e-6
-1.126, 3.806e-6
-1.127, 3.447e-6
-1.128, 3.289e-6
-1.129, 3.204e-6
-1.130, 3.151e-6
-1.131, 3.118e-6
-1.132, 3.096e-6
-1.133, 3.079e-6
-1.134, 3.071e-6
-1.135, 3.063e-6
-1.136, 2.216e-6
-1.137, 2.075e-7
-1.138, 1.221e-8
-1.139, 4.640e-6
-1.140, 5.916e-6
-1.141, 3.673e-6
-1.142, 3.342e-6
-1.143, 3.233e-6
-1.144, 3.179e-6
-1.145, 3.151e-6
-1.146, 3.130e-6
-1.147, 3.120e-6
-1.148, 3.111e-6
-1.149, 3.107e-6
-1.150, 3.107e-6
-1.151, 2.002e-6
-1.152, 1.469e-7
-1.153, 1.113e-8
-1.154, 8.564e-9
-1.155, 1.375e-7
-1.156, 9.864e-6
-1.157, 5.655e-6
-1.158, 3.893e-6
-1.159, 3.549e-6
-1.160, 3.406e-6
-1.161, 3.330e-6
-1.162, 3.282e-6
-1.163, 3.253e-6
-1.164, 3.233e-6
-1.165, 3.219e-6
-1.166, 3.208e-6
-1.167, 1.540e-6
-1.168, 7.397e-8
-1.169, 9.649e-9
-1.170, 8.860e-9
-1.171, 7.380e-9
-1.172, 3.678e-6
-1.173, 1.068e-5
-1.174, 4.978e-6
-1.175, 3.952e-6
-1.176, 3.663e-6
-1.177, 3.527e-6
-1.178, 3.449e-6
-1.179, 3.396e-6
-1.180, 3.362e-6
-1.181, 3.337e-6
-1.182, 3.322e-6
-1.183, 3.308e-6
-1.184, 2.908e-6
-1.185, 4.930e-7
-1.186, 1.803e-8
-1.187, 9.945e-9
-1.188, 8.169e-9
-1.189, 8.203e-6
-1.190, 7.093e-6
-1.191, 4.253e-6
-1.192, 3.784e-6
-1.193, 3.607e-6
-1.194, 3.514e-6
-1.195, 3.462e-6
-1.196, 3.425e-6
-1.197, 3.402e-6
-1.198, 3.386e-6
-1.199, 3.373e-6
-1.200, 3.369e-6
-1.201, 3.364e-6
-1.202, 3.359e-6
-1.203, 3.361e-6
-1.204, 3.360e-6
-1.205, 3.358e-6
-1.206, 3.358e-6
-1.207, 3.356e-6
-1.208, 3.355e-6
-1.209, 3.356e-6
-1.210, 3.354e-6
-1.211, 3.357e-6
-1.212, 3.359e-6
-1.213, 3.361e-6
-1.214, 3.363e-6
-1.215, 2.311e-6
-1.216, 1.903e-7
-1.217, 1.330e-8
-1.218, 8.860e-9
-1.219, 7.676e-9
-1.220, 9.790e-6
-1.221, 6.849e-6
-1.222, 4.338e-6
-1.223, 3.897e-6
-1.224, 3.721e-6
-1.225, 3.632e-6
-1.226, 3.575e-6
-1.227, 3.542e-6
-1.228, 3.519e-6
-1.229, 3.514e-6
-1.230, 3.502e-6
-1.231, 3.493e-6
-1.232, 3.488e-6
-1.233, 3.484e-6
-1.234, 3.479e-6
-1.235, 3.481e-6
-1.236, 3.485e-6
-1.237, 3.486e-6
-1.238, 3.489e-6
-1.239, 3.488e-6
-1.240, 3.488e-6
-1.241, 3.490e-6
-1.242, 3.489e-6
-1.243, 3.493e-6
-1.244, 3.495e-6
-1.245, 3.500e-6
-1.246, 3.504e-6
-1.247, 3.503e-6
-1.248, 3.506e-6
-1.249, 3.508e-6
-1.250, 3.510e-6
-1.251, 3.512e-6
-1.252, 3.517e-6
-1.253, 3.518e-6
-1.254, 3.523e-6
-1.255, 3.526e-6
-1.256, 3.522e-6
-1.257, 1.644e-6
-1.258, 7.733e-8
-1.259, 1.142e-8
-1.260, 8.268e-9
-1.261, 2.977e-6
-1.262, 1.097e-5
-1.263, 5.304e-6
-1.264, 4.236e-6
-1.265, 3.970e-6
-1.266, 3.843e-6
-1.267, 3.777e-6
-1.268, 3.736e-6
-1.269, 3.707e-6
-1.270, 3.692e-6
-1.271, 3.679e-6
-1.272, 3.674e-6
-1.273, 1.915e-6
-1.274, 1.000e-7
-1.275, 1.113e-8
-1.276, 8.662e-9
-1.277, 9.353e-9
-1.278, 7.676e-9
-1.279, 4.866e-6
-1.280, 1.366e-5
-1.281, 6.072e-6
-1.282, 4.677e-6
-1.283, 4.293e-6
-1.284, 4.112e-6
-1.285, 4.011e-6
-1.286, 3.948e-6
-1.287, 3.905e-6
-1.288, 3.877e-6
-1.289, 3.860e-6
-1.290, 3.846e-6
-1.291, 3.837e-6
-1.292, 3.482e-6
-1.293, 6.809e-7
-1.294, 2.218e-8
-1.295, 1.073e-8
-1.296, 8.662e-9
-1.297, 2.122e-7
-1.298, 1.330e-5
-1.299, 7.356e-6
-1.300, 4.877e-6
-1.301, 4.403e-6
-1.302, 4.212e-6
-1.303, 4.111e-6
-1.304, 4.052e-6
-1.305, 4.013e-6
-1.306, 3.988e-6
-1.307, 3.973e-6
-1.308, 3.964e-6
-1.309, 3.955e-6
-1.310, 3.909e-6
-1.311, 1.433e-6
-1.312, 5.592e-8
-1.313, 1.152e-8
-1.314, 2.404e-6
-1.315, 1.107e-5
-1.316, 5.591e-6
-1.317, 4.534e-6
-1.318, 4.292e-6
-1.319, 4.186e-6
-1.320, 4.132e-6
-1.321, 4.101e-6
-1.322, 4.082e-6
-1.323, 4.072e-6
-1.324, 4.064e-6
-1.325, 4.058e-6
-1.326, 1.984e-6
-1.327, 9.716e-8
-1.328, 1.162e-8
-1.329, 1.004e-8
-1.330, 6.985e-9
-1.331, 7.182e-9
-1.332, 1.245e-5
-1.333, 1.035e-5
-1.334, 5.656e-6
-1.335, 4.887e-6
-1.336, 4.618e-6
-1.337, 4.482e-6
-1.338, 4.401e-6
-1.339, 4.354e-6
-1.340, 4.327e-6
-1.341, 4.280e-6
-1.342, 1.745e-6
-1.343, 7.230e-8
-1.344, 1.182e-8
-1.345, 9.353e-9
-1.346, 8.268e-9
-1.347, 6.886e-9
-1.348, 7.478e-9
-1.349, 7.718e-6
-1.350, 1.688e-5
-1.351, 7.218e-6
-1.352, 5.560e-6
-1.353, 5.096e-6
-1.354, 4.875e-6
-1.355, 4.753e-6
-1.356, 4.679e-6
-1.357, 4.631e-6
-1.358, 4.600e-6
-1.359, 4.339e-6
-1.360, 1.060e-6
-1.361, 3.500e-8
-1.362, 1.271e-8
-1.363, 1.064e-8
-1.364, 7.972e-9
-1.365, 6.886e-9
-1.366, 3.138e-6
-1.367, 1.931e-5
-1.368, 8.346e-6
-1.369, 5.932e-6
-1.370, 5.389e-6
-1.371, 5.153e-6
-1.372, 5.026e-6
-1.373, 4.948e-6
-1.374, 4.902e-6
-1.375, 4.871e-6
-1.376, 4.852e-6
-1.377, 4.846e-6
-1.378, 4.839e-6
-1.379, 4.838e-6
-1.380, 4.841e-6
-1.381, 4.844e-6
-1.382, 4.860e-6
-1.383, 4.873e-6
-1.384, 4.879e-6
-1.385, 4.887e-6
-1.386, 4.892e-6
-1.387, 4.905e-6
-1.388, 4.920e-6
-1.389, 4.932e-6
-1.390, 4.952e-6
-1.391, 4.963e-6
-1.392, 4.981e-6
-1.393, 4.450e-6
-1.394, 7.870e-7
-1.395, 2.553e-8
-1.396, 1.142e-8
-1.397, 4.167e-6
-1.398, 1.434e-5
-1.399, 7.025e-6
-1.400, 5.805e-6
-1.401, 5.543e-6
-1.402, 5.437e-6
-1.403, 5.393e-6
-1.404, 5.376e-6
-1.405, 5.370e-6
-1.406, 5.378e-6
-1.407, 5.387e-6
-1.408, 5.408e-6
-1.409, 5.424e-6
-1.410, 5.443e-6
-1.411, 5.466e-6
-1.412, 5.493e-6
-1.413, 5.520e-6
-1.414, 5.554e-6
-1.415, 5.582e-6
-1.416, 5.609e-6
-1.417, 5.641e-6
-1.418, 5.670e-6
-1.419, 5.704e-6
-1.420, 5.738e-6
-1.421, 5.764e-6
-1.422, 5.798e-6
-1.423, 5.830e-6
-1.424, 5.863e-6
-1.425, 4.603e-6
-1.426, 5.174e-7
-1.427, 2.090e-8
-1.428, 3.640e-7
-1.429, 1.608e-5
-1.430, 9.327e-6
-1.431, 6.918e-6
-1.432, 6.573e-6
-1.433, 6.472e-6
-1.434, 6.441e-6
-1.435, 6.439e-6
-1.436, 6.455e-6
-1.437, 6.481e-6
-1.438, 6.516e-6
-1.439, 6.552e-6
-1.440, 6.595e-6
-1.441, 6.642e-6
-1.442, 6.687e-6
-1.443, 6.736e-6
-1.444, 6.787e-6
-1.445, 6.841e-6
-1.446, 6.895e-6
-1.447, 6.948e-6
-1.448, 6.998e-6
-1.449, 7.053e-6
-1.450, 7.107e-6
-1.451, 7.167e-6
-1.452, 7.226e-6
-1.453, 7.285e-6
-1.454, 7.346e-6
-1.455, 4.442e-6
-1.456, 2.863e-7
-1.457, 1.902e-8
-1.458, 1.438e-8
-1.459, 1.075e-5
-1.460, 1.917e-5
-1.461, 9.862e-6
-1.462, 8.657e-6
-1.463, 8.408e-6
-1.464, 8.337e-6
-1.465, 8.335e-6
-1.466, 8.359e-6
-1.467, 8.405e-6
-1.468, 8.462e-6
-1.469, 8.524e-6
-1.470, 8.593e-6
-1.471, 4.677e-6
-1.472, 2.615e-7
-1.473, 2.326e-8
-1.474, 1.498e-8
-1.475, 1.093e-8
-1.476, 2.277e-5
-1.477, 1.876e-5
-1.478, 1.112e-5
-1.479, 1.019e-5
-1.480, 9.958e-6
-1.481, 9.893e-6
-1.482, 9.892e-6
-1.483, 9.929e-6
-1.484, 9.989e-6
-1.485, 1.007e-5
-1.486, 1.015e-5
-1.487, 1.023e-5
-1.488, 1.032e-5
-1.489, 1.042e-5
-1.490, 1.052e-5
-1.491, 1.062e-5
-1.492, 1.073e-5
-1.493, 1.084e-5
-1.494, 1.096e-5
-1.495, 1.107e-5
-1.496, 1.118e-5
-1.497, 1.130e-5
-1.498, 1.141e-5
-1.499, 1.153e-5
-1.500, 1.165e-5
-1.501, 1.178e-5
-1.502, 1.191e-5
-1.503, 1.041e-5
-1.504, 1.667e-6
-1.505, 5.207e-8
-1.506, 2.139e-8
-1.507, 1.567e-8
-1.508, 5.506e-6
-1.509, 3.901e-5
-1.510, 1.863e-5
-1.511, 1.461e-5
-1.512, 1.404e-5
-1.513, 1.390e-5
-1.514, 1.390e-5
-1.515, 1.396e-5
-1.516, 1.405e-5
-1.517, 1.415e-5
-1.518, 1.428e-5
-1.519, 1.441e-5
-1.520, 8.163e-6
-1.521, 5.024e-7
-1.522, 3.688e-8
-1.523, 2.524e-8
-1.524, 1.764e-8
-1.525, 2.597e-5
-1.526, 3.581e-5
-1.527, 1.907e-5
-1.528, 1.709e-5
-1.529, 1.672e-5
-1.530, 1.664e-5
-1.531, 1.668e-5
-1.532, 1.677e-5
-1.533, 1.689e-5
-1.534, 1.703e-5
-1.535, 1.718e-5
-1.536, 1.048e-5
-1.537, 7.343e-7
-1.538, 4.803e-8
-1.539, 2.869e-8
-1.540, 2.090e-8
-1.541, 1.675e-8
-1.542, 3.600e-5
-1.543, 4.238e-5
-1.544, 2.283e-5
-1.545, 2.054e-5
-1.546, 2.009e-5
-1.547, 1.998e-5
-1.548, 2.001e-5
-1.549, 2.011e-5
-1.550, 2.024e-5
-1.551, 2.039e-5
-1.552, 2.056e-5
-1.553, 2.072e-5
-1.554, 1.009e-5
-1.555, 5.499e-7
-1.556, 5.188e-8
-1.557, 3.333e-8
-1.558, 2.455e-8
-1.559, 2.285e-6
-1.560, 6.426e-5
-1.561, 3.446e-5
-1.562, 2.524e-5
-1.563, 2.414e-5
-1.564, 2.388e-5
-1.565, 2.386e-5
-1.566, 2.396e-5
-1.567, 2.411e-5
-1.568, 2.429e-5
-1.569, 2.448e-5
-1.570, 2.468e-5
-1.571, 2.451e-5
-1.572, 8.724e-6
-1.573, 3.854e-7
-1.574, 5.770e-8
-1.575, 1.065e-5
-1.576, 6.051e-5
-1.577, 3.291e-5
-1.578, 2.815e-5
-1.579, 2.766e-5
-1.580, 2.762e-5
-1.581, 2.774e-5
-1.582, 2.791e-5
-1.583, 2.813e-5
-1.584, 2.836e-5
-1.585, 2.862e-5
-1.586, 2.888e-5
-1.587, 2.916e-5
-1.588, 2.945e-5
-1.589, 2.973e-5
-1.590, 3.002e-5
-1.591, 3.031e-5
-1.592, 3.061e-5
-1.593, 3.092e-5
-1.594, 3.122e-5
-1.595, 3.152e-5
-1.596, 3.184e-5
-1.597, 3.215e-5
-1.598, 3.247e-5
-1.599, 3.278e-5
-1.600, 3.311e-5
-1.601, 3.343e-5
-1.602, 3.376e-5
-1.603, 3.411e-5
-1.604, 3.444e-5
-1.605, 3.478e-5
-1.606, 3.514e-5
-1.607, 3.548e-5
-1.608, 3.583e-5
-1.609, 3.618e-5
-1.610, 3.654e-5
-1.611, 3.690e-5
-1.612, 3.726e-5
-1.613, 3.762e-5
-1.614, 3.800e-5
-1.615, 3.837e-5
-1.616, 3.875e-5
-1.617, 3.914e-5
-1.618, 3.953e-5
-1.619, 3.992e-5
-1.620, 4.032e-5
-1.621, 4.072e-5
-1.622, 4.113e-5
-1.623, 4.154e-5
-1.624, 4.195e-5
-1.625, 4.237e-5
-1.626, 4.279e-5
-1.627, 4.321e-5
-1.628, 4.363e-5
-1.629, 4.405e-5
-1.630, 4.448e-5
-1.631, 3.139e-5
-1.632, 3.023e-6
-1.633, 1.291e-7
-1.634, 6.056e-8
-1.635, 1.699e-6
-1.636, 9.995e-5
-1.637, 6.536e-5
-1.638, 5.130e-5
-1.639, 4.998e-5
-1.640, 4.987e-5
-1.641, 5.010e-5
-1.642, 5.045e-5
-1.643, 5.087e-5
-1.644, 5.133e-5
-1.645, 5.181e-5
-1.646, 5.232e-5
-1.647, 5.283e-5
-1.648, 5.336e-5
-1.649, 5.391e-5
-1.650, 5.447e-5
-1.651, 5.505e-5
-1.652, 5.563e-5
-1.653, 5.622e-5
-1.654, 5.682e-5
-1.655, 5.741e-5
-1.656, 5.802e-5
-1.657, 5.864e-5
-1.658, 5.926e-5
-1.659, 5.987e-5
-1.660, 6.050e-5
-1.661, 6.114e-5
-1.662, 6.180e-5
-1.663, 6.247e-5
-1.664, 6.317e-5
-1.665, 6.387e-5
-1.666, 6.456e-5
-1.667, 6.524e-5
-1.668, 6.594e-5
-1.669, 6.666e-5
-1.670, 6.741e-5
-1.671, 6.815e-5
-1.672, 6.892e-5
-1.673, 6.969e-5
-1.674, 7.047e-5
-1.675, 7.126e-5
-1.676, 7.206e-5
-1.677, 7.286e-5
-1.678, 4.768e-5
-1.679, 4.368e-6
-1.680, 2.237e-7
-1.681, 1.021e-7
-1.682, 1.036e-4
-1.683, 1.064e-4
-1.684, 8.230e-5
-1.685, 8.046e-5
-1.686, 8.077e-5
-1.687, 8.148e-5
-1.688, 8.235e-5
-1.689, 8.329e-5
-1.690, 8.428e-5
-1.691, 8.528e-5
-1.692, 8.632e-5
-1.693, 8.739e-5
-1.694, 8.850e-5
-1.695, 8.966e-5
-1.696, 9.085e-5
-1.697, 9.202e-5
-1.698, 9.322e-5
-1.699, 9.445e-5
