Potential V vs RHE, Current mA cm-2
0.05339999999999995,-0.05658845199460146
0.05239999999999995,-0.058554900701413864
0.051399999999999946,-0.05936128614233694
0.050399999999999945,-0.05984228798429105
0.049399999999999944,-0.06037987827823976
0.04839999999999994,-0.06098820413718173
0.04739999999999994,-0.061624824222121004
0.04639999999999994,-0.062134120290072405
0.04539999999999994,-0.06270000481001843
0.04439999999999994,-0.06309612397398062
0.04339999999999994,-0.0635346844769388
0.04239999999999994,-0.06412886322288211
0.04139999999999994,-0.06466645351683083
0.040399999999999936,-0.06514745535878494
0.039399999999999935,-0.06551528029674986
0.038399999999999934,-0.0658123696697215
0.03739999999999993,-0.06626507728567832
0.03639999999999993,-0.06678852046662838
0.03539999999999993,-0.06712805117859601
0.03439999999999993,-0.06751002322955955
0.03339999999999993,-0.06793443661951905
0.03239999999999993,-0.06842958557447182
0.03139999999999993,-0.06891058741642593
0.030399999999999927,-0.0693491479193841
0.029399999999999926,-0.06974526708334632
0.028399999999999925,-0.07009894490831257
0.027399999999999924,-0.07074971210625049
0.026399999999999924,-0.0712590081742019
0.025399999999999923,-0.0717117157901587
0.024399999999999922,-0.07209368784112226
0.02339999999999992,-0.07250395411808314
0.02239999999999992,-0.0727727492650575
0.02139999999999992,-0.07316886842901969
0.020399999999999918,-0.07356498759298191
0.019399999999999917,-0.07383378273995628
0.018399999999999916,-0.07420160767792117
0.017399999999999916,-0.07462602106788069
0.016399999999999915,-0.0750221402318429
0.015399999999999914,-0.07538996516980781
0.014399999999999913,-0.07572949588177541
0.013399999999999912,-0.07609732081974033
0.012399999999999911,-0.07635196885371603
0.01139999999999991,-0.07669149956568365
0.01039999999999991,-0.07704517739064991
0.009399999999999908,-0.07745544366761076
0.008399999999999908,-0.07786570994457162
0.007399999999999907,-0.07827597622153248
0.006399999999999906,-0.07864380115949739
0.005399999999999905,-0.0789267434194704
0.004399999999999904,-0.07916724434044746
0.003399999999999903,-0.07940774526142451
0.002399999999999902,-0.07978971731238807
0.0013999999999999013,-0.08015754225035297
0.00039999999999990044,-0.08056780852731382
-0.0006000000000001005,-0.08079416233529225
-0.0016000000000001013,-0.08107710459526525
-0.0026000000000001022,-0.08144492953323015
-0.003600000000000103,-0.08168543045420722
-0.004600000000000104,-0.08189763714918698
-0.005600000000000105,-0.08220887363515728
-0.006600000000000106,-0.08244937455613434
-0.007600000000000107,-0.08284549372009656
-0.008600000000000108,-0.08307184752807495
-0.009600000000000108,-0.08335478978804794
-0.01060000000000011,-0.08356699648302772
-0.01160000000000011,-0.08377920317800747
-0.012600000000000111,-0.08423191079396428
-0.013600000000000112,-0.08458558861893054
-0.014600000000000113,-0.0847977953139103
-0.015600000000000114,-0.08484023665290626
-0.016600000000000115,-0.08509488468688196
-0.017600000000000116,-0.08525050292986712
-0.018600000000000116,-0.08561832786783201
-0.019600000000000117,-0.08580224033681448
-0.020600000000000118,-0.08584468167581043
-0.02160000000000012,-0.08583053456281178
-0.02260000000000012,-0.08656618443874159
-0.02360000000000012,-0.08754233523564847
-0.024600000000000122,-0.08768380636563497
-0.025600000000000123,-0.08775454193062822
-0.026600000000000124,-0.08757062946164577
-0.027600000000000124,-0.08776868904362688
-0.028600000000000125,-0.08782527749562147
-0.029600000000000126,-0.08789601306061473
-0.030600000000000127,-0.08796674862560798
-0.03160000000000013,-0.08802333707760258
-0.03260000000000013,-0.08823554377258234
-0.03360000000000013,-0.08844775046756209
-0.03460000000000002,-0.0885892215975486
-0.03560000000000002,-0.08860336871054725
-0.03660000000000002,-0.08863166293654455
-0.03760000000000002,-0.08885801674452294
-0.03860000000000002,-0.08897119364851215
-0.039600000000000024,-0.0889570465355135
-0.040600000000000025,-0.0889004580835189
-0.041600000000000026,-0.08898534076151081
-0.04260000000000003,-0.0890985176655
-0.04360000000000003,-0.08922584168248787
-0.04460000000000003,-0.08940975415147032
-0.04560000000000003,-0.08939560703847166
-0.04660000000000003,-0.08942390126446896
-0.04760000000000003,-0.08966440218544602
-0.04860000000000003,-0.08993319733242039
-0.04960000000000003,-0.09017369825339744
-0.050600000000000034,-0.09023028670539203
-0.051600000000000035,-0.090555670304361
-0.052600000000000036,-0.0906971414343475
-0.053600000000000037,-0.09068299432134884
-0.05460000000000004,-0.09066884720835021
-0.05560000000000004,-0.09062640586935425
-0.05660000000000004,-0.09056981741735964
-0.05760000000000004,-0.09044249340037179
-0.05860000000000004,-0.09037175783537854
-0.05960000000000004,-0.09047078762636909
-0.06060000000000004,-0.0904990818523664
-0.061600000000000044,-0.09065470009535155
-0.06260000000000004,-0.09114984905030431
-0.06360000000000005,-0.0912630259542935
-0.06460000000000005,-0.0908103183383367
-0.06560000000000005,-0.09066884720835021
-0.06660000000000005,-0.09082446545133536
-0.06760000000000005,-0.0908103183383367
-0.06860000000000005,-0.0908103183383367
-0.06960000000000005,-0.0906405529823529
-0.07060000000000005,-0.09051322896536505
-0.07160000000000005,-0.09047078762636909
-0.07260000000000005,-0.09054152319136234
-0.07360000000000005,-0.09052737607836371
-0.07460000000000006,-0.09065470009535155
-0.07560000000000006,-0.09059811164335696
-0.07660000000000006,-0.0904141991743745
-0.07760000000000006,-0.09024443381839069
-0.07860000000000006,-0.09031516938338394
-0.07960000000000006,-0.09054152319136234
-0.08060000000000006,-0.09059811164335696
-0.08160000000000006,-0.0904990818523664
-0.08260000000000006,-0.09044249340037179
-0.08360000000000006,-0.09038590494837719
-0.08460000000000006,-0.09020199247939473
-0.08560000000000006,-0.09025858093138935
-0.08660000000000007,-0.09018784536639608
-0.08760000000000007,-0.08994734444541903
-0.08860000000000007,-0.08973513775043927
-0.08960000000000007,-0.08967854929844467
-0.09060000000000007,-0.08950878394246087
-0.09160000000000007,-0.08939560703847166
-0.09260000000000007,-0.08915510611749461
-0.09360000000000007,-0.08899948787450947
-0.09460000000000007,-0.08897119364851215
-0.09560000000000007,-0.08892875230951619
-0.09660000000000007,-0.08878728117952969
-0.09760000000000008,-0.08885801674452294
-0.09860000000000008,-0.0890985176655
-0.09960000000000008,-0.08911266477849866
-0.10060000000000008,-0.08888631097052026
-0.10160000000000008,-0.08865995716254185
-0.10260000000000008,-0.08948048971646357
-0.10360000000000008,-0.08933901858647707
-0.10460000000000008,-0.0887023985015378
-0.10560000000000008,-0.08836286778957018
-0.10660000000000008,-0.08824969088558099
-0.10760000000000008,-0.0886741042755405
-0.10860000000000009,-0.0885892215975486
-0.10960000000000009,-0.08849019180655805
-0.11060000000000009,-0.08849019180655805
-0.11160000000000009,-0.08837701490256884
-0.11260000000000009,-0.08778283615662552
-0.11360000000000009,-0.0871037747326903
-0.11460000000000009,-0.0870188920546984
-0.11560000000000009,-0.08694815648970515
-0.11660000000000009,-0.0868774209247119
-0.1176000000000001,-0.08717451029768356
-0.1186000000000001,-0.08733012854066871
-0.1196000000000001,-0.08751404100965117
-0.1206000000000001,-0.08724524586267682
-0.1216000000000001,-0.08703303916769706
-0.1226000000000001,-0.08700474494169977
-0.1236000000000001,-0.08704718628069572
-0.1246000000000001,-0.08689156803771056
-0.1256000000000001,-0.0867076555687281
-0.1266000000000001,-0.086509595986747
-0.1276000000000001,-0.08624080083977263
-0.1286000000000001,-0.08638227196975913
-0.1296000000000001,-0.0865944786647389
-0.1306000000000001,-0.08597200569279828
-0.1316000000000001,-0.08566076920682797
-0.1326000000000001,-0.08574565188481988
-0.1336000000000001,-0.08549100385084417
-0.1346000000000001,-0.0851939144778725
-0.1356000000000001,-0.08492511933089815
-0.1366000000000001,-0.08486853087890354
-0.1376000000000001,-0.0850807375738833
-0.1386000000000001,-0.08515147313887655
-0.1396000000000001,-0.08525050292986712
-0.1406000000000001,-0.08520806159087116
-0.14160000000000011,-0.0850807375738833
-0.14260000000000012,-0.08495341355689547
-0.14360000000000012,-0.08515147313887655
-0.14460000000000012,-0.08503829623488735
-0.14560000000000012,-0.08501000200889006
-0.14660000000000012,-0.0849109722178995
-0.14760000000000012,-0.0847977953139103
-0.14860000000000012,-0.08465632418392378
-0.14960000000000012,-0.08455729439293323
-0.15060000000000012,-0.08430264635895754
-0.15160000000000012,-0.08411873388997508
-0.15260000000000012,-0.08413288100297373
-0.15360000000000013,-0.08387823296899803
-0.15460000000000013,-0.08343967246603987
-0.15560000000000013,-0.08321331865806145
-0.15660000000000013,-0.08311428886707091
-0.15760000000000013,-0.08312843598006955
-0.15860000000000013,-0.0830577004150763
-0.15960000000000002,-0.0830011119630817
-0.16060000000000002,-0.083029406189079
-0.16160000000000002,-0.08276061104210465
-0.16260000000000002,-0.08264743413811544
-0.16360000000000002,-0.0826049927991195
-0.16460000000000002,-0.08240693321713838
-0.16560000000000002,-0.08259084568612084
-0.16660000000000003,-0.0826049927991195
-0.16760000000000003,-0.08249181589513029
-0.16860000000000003,-0.0824352274431357
-0.16960000000000003,-0.08230790342614784
-0.17060000000000003,-0.08213813807016403
-0.17160000000000003,-0.08216643229616134
-0.17260000000000003,-0.08219472652215863
-0.17360000000000003,-0.08222302074815592
-0.17460000000000003,-0.08222302074815592
-0.17560000000000003,-0.08215228518316267
-0.17660000000000003,-0.08206740250517078
-0.17760000000000004,-0.08199666694017753
-0.17860000000000004,-0.08201081405317617
-0.17960000000000004,-0.08209569673116808
-0.18060000000000004,-0.08210984384416672
-0.18160000000000004,-0.08210984384416672
-0.18260000000000004,-0.08210984384416672
-0.18360000000000004,-0.08212399095716538
-0.18460000000000004,-0.08203910827917348
-0.18560000000000004,-0.08177031313219911
-0.18660000000000004,-0.08181275447119508
-0.18760000000000004,-0.08189763714918698
-0.18860000000000005,-0.08196837271418023
-0.18960000000000005,-0.08178446024519778
-0.19060000000000005,-0.08164298911521127
-0.19160000000000005,-0.08162884200221261
-0.19260000000000005,-0.08152981221122206
-0.19360000000000005,-0.08143078242023151
-0.19460000000000005,-0.08136004685523826
-0.19560000000000005,-0.08127516417724635
-0.19660000000000005,-0.0813458997422396
-0.19760000000000005,-0.0812044286122531
-0.19860000000000005,-0.08117613438625582
-0.19960000000000006,-0.08094978057827738
-0.20060000000000006,-0.08127516417724635
-0.20160000000000006,-0.08119028149925445
-0.20260000000000006,-0.08106295748226659
-0.20360000000000006,-0.08104881036926795
-0.20460000000000006,-0.081006369030272
-0.20560000000000006,-0.08116198727325716
-0.20660000000000006,-0.08087904501328413
-0.20760000000000006,-0.08065269120530574
-0.20860000000000006,-0.08066683831830439
-0.20960000000000006,-0.0805819556403125
-0.21060000000000006,-0.08055366141431519
-0.21160000000000007,-0.08055366141431519
-0.21260000000000007,-0.08059610275331114
-0.21360000000000007,-0.08080830944829089
-0.21460000000000007,-0.0811195459342612
-0.21560000000000007,-0.08075172099629631
-0.21660000000000007,-0.08027071915434218
-0.21760000000000007,-0.08049707296232057
-0.21860000000000007,-0.08069513254430169
-0.21960000000000007,-0.08052536718831789
-0.22060000000000007,-0.08062439697930844
-0.22160000000000007,-0.08068098543130305
-0.22260000000000008,-0.08087904501328413
-0.22360000000000008,-0.08068098543130305
-0.22460000000000008,-0.08021413070234758
-0.22560000000000008,-0.08007265957236107
-0.22660000000000008,-0.08024242492834488
-0.22760000000000008,-0.08028486626734083
-0.22860000000000008,-0.08032730760633679
-0.22960000000000008,-0.08028486626734083
-0.23060000000000008,-0.08028486626734083
-0.23160000000000008,-0.08063854409230709
-0.23260000000000008,-0.08075172099629631
-0.23360000000000009,-0.08082245656128956
-0.2346000000000001,-0.08080830944829089
-0.2356000000000001,-0.08079416233529225
-0.2366000000000001,-0.08075172099629631
-0.2376000000000001,-0.08087904501328413
-0.2386000000000001,-0.0809780748042747
-0.2396000000000001,-0.08093563346527875
-0.2406000000000001,-0.08090733923928145
-0.2416000000000001,-0.0808648979002855
-0.2426000000000001,-0.08109125170826391
-0.2436000000000001,-0.08127516417724635
-0.2446000000000001,-0.08121857572525175
-0.2456000000000001,-0.08121857572525175
-0.2466000000000001,-0.08099222191727334
-0.2476000000000001,-0.0809780748042747
-0.2486000000000001,-0.08121857572525175
-0.2496000000000001,-0.08140248819423422
-0.2506000000000001,-0.0814873708722261
-0.2516000000000001,-0.08154395932422072
-0.2526000000000001,-0.0814873708722261
-0.2536000000000001,-0.0813458997422396
-0.2546000000000001,-0.08138834108123556
-0.2556000000000001,-0.08154395932422072
-0.2566000000000001,-0.08169957756720586
-0.2576000000000001,-0.08184104869719236
-0.2586000000000001,-0.08196837271418023
-0.2596000000000001,-0.08192593137518428
-0.2606000000000001,-0.08179860735819641
-0.2616000000000001,-0.08195422560118158
-0.2626000000000001,-0.08223716786115459
-0.2636000000000001,-0.08253425723412625
-0.2646000000000001,-0.0828313466070979
-0.2656000000000001,-0.0828030523811006
-0.2666000000000001,-0.08293037639808845
-0.2676000000000001,-0.08324161288405875
-0.2686000000000001,-0.08351040803103311
-0.2696000000000001,-0.08338308401404526
-0.2706000000000001,-0.08346796669203715
-0.2716000000000001,-0.08368017338701693
-0.2726000000000001,-0.08383579163000207
-0.2736000000000001,-0.08427435213296022
-0.2746000000000001,-0.08448655882793998
-0.2756000000000001,-0.08442997037594539
-0.2766000000000001,-0.08469876552291973
-0.2776000000000001,-0.08501000200889006
-0.2786000000000001,-0.08540612117285226
-0.2796000000000001,-0.08563247498083068
-0.2806000000000001,-0.08594371146680099
-0.28160000000000013,-0.08631153640476588
-0.28260000000000013,-0.08663692000373484
-0.28360000000000013,-0.08717451029768356
-0.2846,-0.08779698326962418
-0.2856,-0.0887023985015378
-0.2866,-0.08914095900449596
-0.2876,-0.08887216385752161
-0.2886,-0.0887589869535324
-0.2896,-0.08907022343950272
-0.2906,-0.08952293105545953
-0.2916,-0.08994734444541903
-0.2926,-0.09066884720835021
-0.2936,-0.09150352687527057
-0.29460000000000003,-0.09208355850821524
-0.29560000000000003,-0.09330021022609918
-0.29660000000000003,-0.09388024185904384
-0.29760000000000003,-0.09386609474604518
-0.29860000000000003,-0.09400756587603168
-0.29960000000000003,-0.09424806679700874
-0.30060000000000003,-0.09547886562789133
-0.30160000000000003,-0.09632769240781036
-0.30260000000000004,-0.09696431249274962
-0.30360000000000004,-0.09778484504667133
-0.30460000000000004,-0.0985912304875944
-0.30560000000000004,-0.09907223232954852
-0.30660000000000004,-0.1002464427084365
-0.30760000000000004,-0.10142065308732448
-0.30860000000000004,-0.1020714202852624
-0.30960000000000004,-0.10304757108216928
-0.31060000000000004,-0.1041227516700667
-0.31160000000000004,-0.10505646112797762
-0.31260000000000004,-0.10573552255191283
-0.31360000000000005,-0.10686729159180487
-0.31460000000000005,-0.10795661929270095
-0.31560000000000005,-0.10903179988059837
-0.31660000000000005,-0.10956939017454709
-0.31760000000000005,-0.1101352746944931
-0.31860000000000005,-0.11065871787544318
-0.31960000000000005,-0.11157828022035543
-0.32060000000000005,-0.11262516658225558
-0.32160000000000005,-0.11374278850914893
-0.32260000000000005,-0.11501602867902748
-0.32360000000000005,-0.11617609194491682
-0.32460000000000006,-0.11802936374774001
-0.32560000000000006,-0.11880745496266579
-0.32660000000000006,-0.11967042885558345
-0.32760000000000006,-0.12091537479946468
-0.32860000000000006,-0.12201884961335942
-0.32960000000000006,-0.12298085329726763
-0.33060000000000006,-0.12436727037113537
-0.33160000000000006,-0.12578198167100044
-0.33260000000000006,-0.12716839874486813
-0.33360000000000006,-0.12861140427073048
-0.33460000000000006,-0.1296299964066333
-0.33560000000000006,-0.13094567791550782
-0.33660000000000007,-0.13233209498937554
-0.33760000000000007,-0.13380339474123515
-0.33860000000000007,-0.1355576367530678
-0.33960000000000007,-0.1368167298099477
-0.34060000000000007,-0.13792020462384244
-0.34160000000000007,-0.13939150437570205
-0.34260000000000007,-0.1405798618675887
-0.34360000000000007,-0.1423199567664227
-0.3446000000000001,-0.1435931969363012
-0.3456000000000001,-0.14486643710617977
-0.3466000000000001,-0.14628114840604478
-0.34759999999999996,-0.14812027309586934
-0.3486000000000001,-0.1499593977856939
-0.34959999999999997,-0.1512326379555724
-0.3506000000000001,-0.15222293586547794
-0.35159999999999997,-0.15335470490536995
-0.3526000000000001,-0.15476941620523502
-0.35359999999999997,-0.15618412750510002
-0.3546000000000001,-0.1574573676749786
-0.35559999999999997,-0.1585891367148706
-0.3566000000000001,-0.15957943462477614
-0.3576,-0.16071120366466815
-0.3586000000000001,-0.16212591496453319
-0.3596,-0.16339915513441172
-0.3606000000000001,-0.16438945304431726
-0.3616,-0.16495533756426325
-0.3626000000000001,-0.1658041643441823
-0.3636,-0.16651151999411481
-0.3646000000000001,-0.16764328903400685
-0.3656,-0.16849211581392587
-0.3666000000000001,-0.1694824137238314
-0.3676,-0.17047271163373692
-0.3686000000000001,-0.17118006728366944
-0.3696,-0.17174595180361546
-0.3706000000000001,-0.17245330745354798
-0.3716,-0.1734436053634535
-0.3726000000000001,-0.17443390327335903
-0.3736,-0.17499978779330505
-0.3746000000000001,-0.17570714344323757
-0.3756,-0.1766974413531431
-0.3766000000000001,-0.1774047970030756
-0.3776,-0.17782921039303512
-0.3786000000000001,-0.17881950830294063
-0.3796,-0.17910245056291366
-0.3806000000000001,-0.17924392169290015
-0.3816,-0.18023421960280567
-0.3826000000000001,-0.18150745977268423
-0.3836,-0.18221481542261672
-0.3846000000000001,-0.18306364220253574
-0.3856,-0.18391246898245475
-0.3866000000000001,-0.18377099785246825
-0.3876,-0.18419541124242778
-0.3886000000000001,-0.1844783535024008
-0.3896,-0.1850442380223468
-0.3906000000000001,-0.1850442380223468
-0.3916,-0.1850442380223468
-0.3926000000000001,-0.1854686514123063
-0.3936,-0.18631747819222533
-0.3946000000000001,-0.18716630497214437
-0.3956,-0.18645894932221183
-0.3966000000000001,-0.18631747819222533
-0.3976,-0.18674189158218485
-0.3986000000000001,-0.18688336271217135
-0.3996,-0.18674189158218485
-0.4006000000000001,-0.18688336271217135
-0.4016,-0.18688336271217135
-0.4026000000000001,-0.18674189158218485
-0.4036,-0.18645894932221183
-0.4046000000000001,-0.18645894932221183
-0.4056,-0.18631747819222533
-0.40660000000000013,-0.18660042045219835
-0.4076,-0.18674189158218485
-0.40860000000000013,-0.18674189158218485
-0.4096,-0.18674189158218485
-0.41060000000000013,-0.18645894932221183
-0.4116,-0.18631747819222533
-0.41260000000000013,-0.1861760070622388
-0.4136,-0.18631747819222533
-0.41460000000000014,-0.1861760070622388
-0.4156,-0.1858930648022658
-0.41660000000000014,-0.1857515936722793
-0.4176,-0.1856101225422928
-0.41860000000000014,-0.1857515936722793
-0.41960000000000003,-0.1847612957623738
-0.42060000000000014,-0.1847612957623738
-0.42160000000000003,-0.1849027668923603
-0.42260000000000014,-0.1851857091523333
-0.42360000000000003,-0.1847612957623738
-0.42460000000000014,-0.1846198246323873
-0.42560000000000003,-0.1843368823724143
-0.42660000000000015,-0.18362952672248176
-0.42760000000000004,-0.1843368823724143
-0.42860000000000015,-0.1843368823724143
-0.42960000000000004,-0.18405394011244128
-0.43060000000000015,-0.18292217107254924
-0.43160000000000004,-0.18278069994256274
-0.43260000000000015,-0.18278069994256274
-0.43360000000000004,-0.18278069994256274
-0.43460000000000015,-0.18292217107254924
-0.43560000000000004,-0.18334658446250876
-0.43660000000000015,-0.18292217107254924
-0.43760000000000004,-0.18292217107254924
