Aug. 17, 2024   09:53:02
Cyclic Voltammetry
File: c:/users/guazh/data/20240813_batch_94_500/2024-08-15-exp112\exp112-2024-08-17t09_38_04-h2koh\exp112_cv_sr_500mvs_efin_-1600mv.bin
Data Source:  Experiment
Instrument Model:  CHI760E
Header: CV ran at 500 mVs
Note: 

Init E (V) = -1
High E (V) = -1
Low E (V) = -1.6
Final E (V) = -1
Init P/N = N
Scan Rate (V/s) = 0.5
Segment = 3
Sample Interval (V) = 0.001
Quiet Time (sec) = 2
Sensitivity (A/V) = 0.01
Comp R (ohm) = 1.5

Results:

Channel 1:
Segment 1:

Segment 2:

Segment 3:

Potential/V, Current/A

-1.000, 1.557e-5
-1.001, 3.099e-5
-1.002, 3.715e-5
-1.003, 4.024e-5
-1.004, 4.332e-5
-1.005, 4.640e-5
-1.006, 4.640e-5
-1.007, 4.949e-5
-1.008, 4.949e-5
-1.009, 5.257e-5
-1.010, 5.257e-5
-1.011, 5.565e-5
-1.012, 5.565e-5
-1.013, 5.565e-5
-1.014, 5.873e-5
-1.015, 5.873e-5
-1.016, 5.873e-5
-1.017, 6.182e-5
-1.018, 6.182e-5
-1.019, 6.182e-5
-1.020, 6.182e-5
-1.021, 6.490e-5
-1.022, 6.798e-5
-1.023, 6.798e-5
-1.024, 6.798e-5
-1.025, 6.798e-5
-1.026, 7.107e-5
-1.027, 7.107e-5
-1.028, 7.107e-5
-1.029, 7.107e-5
-1.030, 7.415e-5
-1.031, 7.415e-5
-1.032, 7.415e-5
-1.033, 7.415e-5
-1.034, 7.415e-5
-1.035, 7.723e-5
-1.036, 7.723e-5
-1.037, 7.723e-5
-1.038, 7.723e-5
-1.039, 7.723e-5
-1.040, 8.032e-5
-1.041, 8.032e-5
-1.042, 8.032e-5
-1.043, 8.340e-5
-1.044, 8.032e-5
-1.045, 8.340e-5
-1.046, 8.340e-5
-1.047, 8.340e-5
-1.048, 8.340e-5
-1.049, 8.340e-5
-1.050, 8.340e-5
-1.051, 8.648e-5
-1.052, 8.648e-5
-1.053, 8.648e-5
-1.054, 8.648e-5
-1.055, 8.648e-5
-1.056, 8.957e-5
-1.057, 8.957e-5
-1.058, 8.957e-5
-1.059, 8.957e-5
-1.060, 8.957e-5
-1.061, 8.957e-5
-1.062, 8.957e-5
-1.063, 9.265e-5
-1.064, 9.265e-5
-1.065, 9.265e-5
-1.066, 9.265e-5
-1.067, 9.265e-5
-1.068, 9.265e-5
-1.069, 9.265e-5
-1.070, 9.573e-5
-1.071, 9.573e-5
-1.072, 9.573e-5
-1.073, 9.573e-5
-1.074, 9.573e-5
-1.075, 9.573e-5
-1.076, 9.573e-5
-1.077, 9.882e-5
-1.078, 9.882e-5
-1.079, 9.882e-5
-1.080, 9.882e-5
-1.081, 9.882e-5
-1.082, 9.882e-5
-1.083, 9.882e-5
-1.084, 9.882e-5
-1.085, 9.882e-5
-1.086, 1.019e-4
-1.087, 9.882e-5
-1.088, 1.019e-4
-1.089, 1.019e-4
-1.090, 1.019e-4
-1.091, 1.019e-4
-1.092, 1.019e-4
-1.093, 1.019e-4
-1.094, 1.019e-4
-1.095, 1.019e-4
-1.096, 1.019e-4
-1.097, 1.050e-4
-1.098, 1.019e-4
-1.099, 1.019e-4
-1.100, 1.019e-4
-1.101, 1.019e-4
-1.102, 1.050e-4
-1.103, 1.050e-4
-1.104, 1.050e-4
-1.105, 1.050e-4
-1.106, 1.050e-4
-1.107, 1.050e-4
-1.108, 1.050e-4
-1.109, 1.050e-4
-1.110, 1.081e-4
-1.111, 1.050e-4
-1.112, 1.081e-4
-1.113, 1.081e-4
-1.114, 1.081e-4
-1.115, 1.081e-4
-1.116, 1.081e-4
-1.117, 1.081e-4
-1.118, 1.111e-4
-1.119, 1.081e-4
-1.120, 1.081e-4
-1.121, 1.111e-4
-1.122, 1.081e-4
-1.123, 1.111e-4
-1.124, 1.111e-4
-1.125, 1.111e-4
-1.126, 1.111e-4
-1.127, 1.111e-4
-1.128, 1.111e-4
-1.129, 1.142e-4
-1.130, 1.111e-4
-1.131, 1.142e-4
-1.132, 1.142e-4
-1.133, 1.111e-4
-1.134, 1.142e-4
-1.135, 1.142e-4
-1.136, 1.142e-4
-1.137, 1.142e-4
-1.138, 1.142e-4
-1.139, 1.142e-4
-1.140, 1.142e-4
-1.141, 1.142e-4
-1.142, 1.173e-4
-1.143, 1.173e-4
-1.144, 1.173e-4
-1.145, 1.173e-4
-1.146, 1.173e-4
-1.147, 1.204e-4
-1.148, 1.173e-4
-1.149, 1.173e-4
-1.150, 1.204e-4
-1.151, 1.204e-4
-1.152, 1.204e-4
-1.153, 1.204e-4
-1.154, 1.204e-4
-1.155, 1.235e-4
-1.156, 1.235e-4
-1.157, 1.235e-4
-1.158, 1.235e-4
-1.159, 1.235e-4
-1.160, 1.235e-4
-1.161, 1.235e-4
-1.162, 1.235e-4
-1.163, 1.266e-4
-1.164, 1.266e-4
-1.165, 1.266e-4
-1.166, 1.266e-4
-1.167, 1.266e-4
-1.168, 1.266e-4
-1.169, 1.296e-4
-1.170, 1.296e-4
-1.171, 1.296e-4
-1.172, 1.327e-4
-1.173, 1.296e-4
-1.174, 1.296e-4
-1.175, 1.327e-4
-1.176, 1.327e-4
-1.177, 1.327e-4
-1.178, 1.327e-4
-1.179, 1.358e-4
-1.180, 1.358e-4
-1.181, 1.358e-4
-1.182, 1.389e-4
-1.183, 1.389e-4
-1.184, 1.389e-4
-1.185, 1.389e-4
-1.186, 1.389e-4
-1.187, 1.420e-4
-1.188, 1.420e-4
-1.189, 1.420e-4
-1.190, 1.451e-4
-1.191, 1.451e-4
-1.192, 1.451e-4
-1.193, 1.481e-4
-1.194, 1.481e-4
-1.195, 1.481e-4
-1.196, 1.512e-4
-1.197, 1.512e-4
-1.198, 1.512e-4
-1.199, 1.512e-4
-1.200, 1.543e-4
-1.201, 1.543e-4
-1.202, 1.543e-4
-1.203, 1.574e-4
-1.204, 1.574e-4
-1.205, 1.574e-4
-1.206, 1.605e-4
-1.207, 1.605e-4
-1.208, 1.605e-4
-1.209, 1.636e-4
-1.210, 1.666e-4
-1.211, 1.666e-4
-1.212, 1.697e-4
-1.213, 1.697e-4
-1.214, 1.728e-4
-1.215, 1.728e-4
-1.216, 1.728e-4
-1.217, 1.759e-4
-1.218, 1.759e-4
-1.219, 1.790e-4
-1.220, 1.821e-4
-1.221, 1.821e-4
-1.222, 1.851e-4
-1.223, 1.851e-4
-1.224, 1.882e-4
-1.225, 1.882e-4
-1.226, 1.913e-4
-1.227, 1.913e-4
-1.228, 1.944e-4
-1.229, 1.975e-4
-1.230, 2.006e-4
-1.231, 2.006e-4
-1.232, 2.036e-4
-1.233, 2.036e-4
-1.234, 2.067e-4
-1.235, 2.098e-4
-1.236, 2.129e-4
-1.237, 2.129e-4
-1.238, 2.160e-4
-1.239, 2.191e-4
-1.240, 2.191e-4
-1.241, 2.221e-4
-1.242, 2.252e-4
-1.243, 2.283e-4
-1.244, 2.314e-4
-1.245, 2.314e-4
-1.246, 2.345e-4
-1.247, 2.376e-4
-1.248, 2.376e-4
-1.249, 2.406e-4
-1.250, 2.437e-4
-1.251, 2.468e-4
-1.252, 2.499e-4
-1.253, 2.530e-4
-1.254, 2.561e-4
-1.255, 2.591e-4
-1.256, 2.622e-4
-1.257, 2.653e-4
-1.258, 2.684e-4
-1.259, 2.715e-4
-1.260, 2.746e-4
-1.261, 2.776e-4
-1.262, 2.807e-4
-1.263, 2.838e-4
-1.264, 2.869e-4
-1.265, 2.931e-4
-1.266, 2.931e-4
-1.267, 2.961e-4
-1.268, 3.023e-4
-1.269, 3.054e-4
-1.270, 3.085e-4
-1.271, 3.115e-4
-1.272, 3.146e-4
-1.273, 3.208e-4
-1.274, 3.239e-4
-1.275, 3.270e-4
-1.276, 3.300e-4
-1.277, 3.331e-4
-1.278, 3.393e-4
-1.279, 3.424e-4
-1.280, 3.485e-4
-1.281, 3.516e-4
-1.282, 3.547e-4
-1.283, 3.609e-4
-1.284, 3.640e-4
-1.285, 3.701e-4
-1.286, 3.732e-4
-1.287, 3.794e-4
-1.288, 3.825e-4
-1.289, 3.886e-4
-1.290, 3.917e-4
-1.291, 3.948e-4
-1.292, 4.010e-4
-1.293, 4.040e-4
-1.294, 4.102e-4
-1.295, 4.164e-4
-1.296, 4.195e-4
-1.297, 4.256e-4
-1.298, 4.287e-4
-1.299, 4.349e-4
-1.300, 4.410e-4
-1.301, 4.441e-4
-1.302, 4.503e-4
-1.303, 4.565e-4
-1.304, 4.595e-4
-1.305, 4.688e-4
-1.306, 4.719e-4
-1.307, 4.780e-4
-1.308, 4.873e-4
-1.309, 4.904e-4
-1.310, 4.965e-4
-1.311, 5.027e-4
-1.312, 5.089e-4
-1.313, 5.150e-4
-1.314, 5.212e-4
-1.315, 5.243e-4
-1.316, 5.335e-4
-1.317, 5.397e-4
-1.318, 5.428e-4
-1.319, 5.520e-4
-1.320, 5.551e-4
-1.321, 5.644e-4
-1.322, 5.705e-4
-1.323, 5.736e-4
-1.324, 5.829e-4
-1.325, 5.859e-4
-1.326, 5.952e-4
-1.327, 6.044e-4
-1.328, 6.075e-4
-1.329, 6.168e-4
-1.330, 6.260e-4
-1.331, 6.322e-4
-1.332, 6.384e-4
-1.333, 6.445e-4
-1.334, 6.538e-4
-1.335, 6.599e-4
-1.336, 6.661e-4
-1.337, 6.754e-4
-1.338, 6.815e-4
-1.339, 6.877e-4
-1.340, 6.969e-4
-1.341, 7.031e-4
-1.342, 7.124e-4
-1.343, 7.185e-4
-1.344, 7.247e-4
-1.345, 7.339e-4
-1.346, 7.401e-4
-1.347, 7.494e-4
-1.348, 7.586e-4
-1.349, 7.648e-4
-1.350, 7.740e-4
-1.351, 7.833e-4
-1.352, 7.894e-4
-1.353, 7.987e-4
-1.354, 8.079e-4
-1.355, 8.172e-4
-1.356, 8.264e-4
-1.357, 8.357e-4
-1.358, 8.449e-4
-1.359, 8.542e-4
-1.360, 8.603e-4
-1.361, 8.696e-4
-1.362, 8.788e-4
-1.363, 8.881e-4
-1.364, 9.004e-4
-1.365, 9.066e-4
-1.366, 9.158e-4
-1.367, 9.251e-4
-1.368, 9.313e-4
-1.369, 9.405e-4
-1.370, 9.528e-4
-1.371, 9.621e-4
-1.372, 9.713e-4
-1.373, 9.806e-4
-1.374, 9.898e-4
-1.375, 1.002e-3
-1.376, 1.011e-3
-1.377, 1.024e-3
-1.378, 1.033e-3
-1.379, 1.045e-3
-1.380, 1.055e-3
-1.381, 1.064e-3
-1.382, 1.076e-3
-1.383, 1.085e-3
-1.384, 1.098e-3
-1.385, 1.107e-3
-1.386, 1.116e-3
-1.387, 1.129e-3
-1.388, 1.141e-3
-1.389, 1.153e-3
-1.390, 1.159e-3
-1.391, 1.172e-3
-1.392, 1.181e-3
-1.393, 1.193e-3
-1.394, 1.203e-3
-1.395, 1.215e-3
-1.396, 1.227e-3
-1.397, 1.240e-3
-1.398, 1.249e-3
-1.399, 1.264e-3
-1.400, 1.277e-3
-1.401, 1.292e-3
-1.402, 1.304e-3
-1.403, 1.317e-3
-1.404, 1.329e-3
-1.405, 1.341e-3
-1.406, 1.354e-3
-1.407, 1.369e-3
-1.408, 1.381e-3
-1.409, 1.394e-3
-1.410, 1.406e-3
-1.411, 1.421e-3
-1.412, 1.434e-3
-1.413, 1.446e-3
-1.414, 1.458e-3
-1.415, 1.468e-3
-1.416, 1.480e-3
-1.417, 1.495e-3
-1.418, 1.508e-3
-1.419, 1.523e-3
-1.420, 1.539e-3
-1.421, 1.554e-3
-1.422, 1.566e-3
-1.423, 1.585e-3
-1.424, 1.600e-3
-1.425, 1.616e-3
-1.426, 1.631e-3
-1.427, 1.643e-3
-1.428, 1.659e-3
-1.429, 1.674e-3
-1.430, 1.690e-3
-1.431, 1.705e-3
-1.432, 1.721e-3
-1.433, 1.733e-3
-1.434, 1.751e-3
-1.435, 1.764e-3
-1.436, 1.779e-3
-1.437, 1.795e-3
-1.438, 1.807e-3
-1.439, 1.819e-3
-1.440, 1.835e-3
-1.441, 1.850e-3
-1.442, 1.869e-3
-1.443, 1.881e-3
-1.444, 1.899e-3
-1.445, 1.915e-3
-1.446, 1.933e-3
-1.447, 1.955e-3
-1.448, 1.970e-3
-1.449, 1.989e-3
-1.450, 2.004e-3
-1.451, 2.023e-3
-1.452, 2.041e-3
-1.453, 2.057e-3
-1.454, 2.075e-3
-1.455, 2.094e-3
-1.456, 2.109e-3
-1.457, 2.128e-3
-1.458, 2.146e-3
-1.459, 2.161e-3
-1.460, 2.180e-3
-1.461, 2.195e-3
-1.462, 2.211e-3
-1.463, 2.226e-3
-1.464, 2.242e-3
-1.465, 2.263e-3
-1.466, 2.282e-3
-1.467, 2.300e-3
-1.468, 2.322e-3
-1.469, 2.340e-3
-1.470, 2.365e-3
-1.471, 2.386e-3
-1.472, 2.411e-3
-1.473, 2.430e-3
-1.474, 2.448e-3
-1.475, 2.467e-3
-1.476, 2.488e-3
-1.477, 2.510e-3
-1.478, 2.531e-3
-1.479, 2.556e-3
-1.480, 2.575e-3
-1.481, 2.596e-3
-1.482, 2.618e-3
-1.483, 2.636e-3
-1.484, 2.655e-3
-1.485, 2.676e-3
-1.486, 2.692e-3
-1.487, 2.716e-3
-1.488, 2.738e-3
-1.489, 2.760e-3
-1.490, 2.781e-3
-1.491, 2.803e-3
-1.492, 2.827e-3
-1.493, 2.855e-3
-1.494, 2.883e-3
-1.495, 2.911e-3
-1.496, 2.935e-3
-1.497, 2.960e-3
-1.498, 2.985e-3
-1.499, 3.009e-3
-1.500, 3.031e-3
-1.501, 3.059e-3
-1.502, 3.083e-3
-1.503, 3.111e-3
-1.504, 3.136e-3
-1.505, 3.160e-3
-1.506, 3.188e-3
-1.507, 3.210e-3
-1.508, 3.231e-3
-1.509, 3.253e-3
-1.510, 3.278e-3
-1.511, 3.302e-3
-1.512, 3.330e-3
-1.513, 3.355e-3
-1.514, 3.385e-3
-1.515, 3.410e-3
-1.516, 3.441e-3
-1.517, 3.475e-3
-1.518, 3.509e-3
-1.519, 3.540e-3
-1.520, 3.570e-3
-1.521, 3.598e-3
-1.522, 3.629e-3
-1.523, 3.657e-3
-1.524, 3.688e-3
-1.525, 3.718e-3
-1.526, 3.749e-3
-1.527, 3.780e-3
-1.528, 3.811e-3
-1.529, 3.842e-3
-1.530, 3.869e-3
-1.531, 3.897e-3
-1.532, 3.922e-3
-1.533, 3.950e-3
-1.534, 3.974e-3
-1.535, 4.008e-3
-1.536, 4.039e-3
-1.537, 4.073e-3
-1.538, 4.104e-3
-1.539, 4.138e-3
-1.540, 4.175e-3
-1.541, 4.215e-3
-1.542, 4.255e-3
-1.543, 4.292e-3
-1.544, 4.329e-3
-1.545, 4.363e-3
-1.546, 4.397e-3
-1.547, 4.431e-3
-1.548, 4.468e-3
-1.549, 4.505e-3
-1.550, 4.538e-3
-1.551, 4.575e-3
-1.552, 4.612e-3
-1.553, 4.646e-3
-1.554, 4.680e-3
-1.555, 4.708e-3
-1.556, 4.739e-3
-1.557, 4.770e-3
-1.558, 4.801e-3
-1.559, 4.838e-3
-1.560, 4.875e-3
-1.561, 4.915e-3
-1.562, 4.955e-3
-1.563, 4.995e-3
-1.564, 5.041e-3
-1.565, 5.087e-3
-1.566, 5.134e-3
-1.567, 5.177e-3
-1.568, 5.217e-3
-1.569, 5.257e-3
-1.570, 5.297e-3
-1.571, 5.337e-3
-1.572, 5.380e-3
-1.573, 5.423e-3
-1.574, 5.463e-3
-1.575, 5.504e-3
-1.576, 5.547e-3
-1.577, 5.587e-3
-1.578, 5.621e-3
-1.579, 5.651e-3
-1.580, 5.685e-3
-1.581, 5.719e-3
-1.582, 5.759e-3
-1.583, 5.799e-3
-1.584, 5.843e-3
-1.585, 5.886e-3
-1.586, 5.932e-3
-1.587, 5.981e-3
-1.588, 6.037e-3
-1.589, 6.092e-3
-1.590, 6.142e-3
-1.591, 6.188e-3
-1.592, 6.234e-3
-1.593, 6.277e-3
-1.594, 6.327e-3
-1.595, 6.376e-3
-1.596, 6.422e-3
-1.597, 6.469e-3
-1.598, 6.515e-3
-1.599, 6.561e-3
-1.600, 6.555e-3
-1.599, 6.475e-3
-1.598, 6.407e-3
-1.597, 6.339e-3
-1.596, 6.271e-3
-1.595, 6.213e-3
-1.594, 6.154e-3
-1.593, 6.099e-3
-1.592, 6.046e-3
-1.591, 5.994e-3
-1.590, 5.947e-3
-1.589, 5.901e-3
-1.588, 5.858e-3
-1.587, 5.815e-3
-1.586, 5.766e-3
-1.585, 5.716e-3
-1.584, 5.664e-3
-1.583, 5.611e-3
-1.582, 5.559e-3
-1.581, 5.513e-3
-1.580, 5.463e-3
-1.579, 5.414e-3
-1.578, 5.365e-3
-1.577, 5.312e-3
-1.576, 5.263e-3
-1.575, 5.208e-3
-1.574, 5.152e-3
-1.573, 5.093e-3
-1.572, 5.038e-3
-1.571, 4.992e-3
-1.570, 4.942e-3
-1.569, 4.896e-3
-1.568, 4.853e-3
-1.567, 4.807e-3
-1.566, 4.767e-3
-1.565, 4.727e-3
-1.564, 4.690e-3
-1.563, 4.649e-3
-1.562, 4.603e-3
-1.561, 4.560e-3
-1.560, 4.517e-3
-1.559, 4.474e-3
-1.558, 4.431e-3
-1.557, 4.391e-3
-1.556, 4.347e-3
-1.555, 4.304e-3
-1.554, 4.261e-3
-1.553, 4.221e-3
-1.552, 4.175e-3
-1.551, 4.128e-3
-1.550, 4.079e-3
-1.549, 4.033e-3
-1.548, 3.990e-3
-1.547, 3.950e-3
-1.546, 3.910e-3
-1.545, 3.869e-3
-1.544, 3.832e-3
-1.543, 3.795e-3
-1.542, 3.762e-3
-1.541, 3.728e-3
-1.540, 3.694e-3
-1.539, 3.660e-3
-1.538, 3.623e-3
-1.537, 3.586e-3
-1.536, 3.549e-3
-1.535, 3.509e-3
-1.534, 3.475e-3
-1.533, 3.441e-3
-1.532, 3.404e-3
-1.531, 3.370e-3
-1.530, 3.333e-3
-1.529, 3.296e-3
-1.528, 3.265e-3
-1.527, 3.222e-3
-1.526, 3.182e-3
-1.525, 3.145e-3
-1.524, 3.111e-3
-1.523, 3.077e-3
-1.522, 3.043e-3
-1.521, 3.012e-3
-1.520, 2.982e-3
-1.519, 2.954e-3
-1.518, 2.926e-3
-1.517, 2.895e-3
-1.516, 2.867e-3
-1.515, 2.837e-3
-1.514, 2.806e-3
-1.513, 2.775e-3
-1.512, 2.744e-3
-1.511, 2.716e-3
-1.510, 2.686e-3
-1.509, 2.658e-3
-1.508, 2.627e-3
-1.507, 2.599e-3
-1.506, 2.568e-3
-1.505, 2.541e-3
-1.504, 2.510e-3
-1.503, 2.479e-3
-1.502, 2.448e-3
-1.501, 2.420e-3
-1.500, 2.390e-3
-1.499, 2.365e-3
-1.498, 2.337e-3
-1.497, 2.312e-3
-1.496, 2.291e-3
-1.495, 2.266e-3
-1.494, 2.242e-3
-1.493, 2.223e-3
-1.492, 2.205e-3
-1.491, 2.174e-3
-1.490, 2.149e-3
-1.489, 2.124e-3
-1.488, 2.100e-3
-1.487, 2.075e-3
-1.486, 2.054e-3
-1.485, 2.029e-3
-1.484, 2.004e-3
-1.483, 1.983e-3
-1.482, 1.958e-3
-1.481, 1.936e-3
-1.480, 1.912e-3
-1.479, 1.887e-3
-1.478, 1.865e-3
-1.477, 1.841e-3
-1.476, 1.819e-3
-1.475, 1.801e-3
-1.474, 1.782e-3
-1.473, 1.761e-3
-1.472, 1.742e-3
-1.471, 1.724e-3
-1.470, 1.705e-3
-1.469, 1.687e-3
-1.468, 1.668e-3
-1.467, 1.647e-3
-1.466, 1.628e-3
-1.465, 1.610e-3
-1.464, 1.591e-3
-1.463, 1.573e-3
-1.462, 1.554e-3
-1.461, 1.539e-3
-1.460, 1.517e-3
-1.459, 1.499e-3
-1.458, 1.480e-3
-1.457, 1.462e-3
-1.456, 1.446e-3
-1.455, 1.425e-3
-1.454, 1.409e-3
-1.453, 1.394e-3
-1.452, 1.378e-3
-1.451, 1.363e-3
-1.450, 1.347e-3
-1.449, 1.332e-3
-1.448, 1.317e-3
-1.447, 1.304e-3
-1.446, 1.289e-3
-1.445, 1.273e-3
-1.444, 1.258e-3
-1.443, 1.246e-3
-1.442, 1.227e-3
-1.441, 1.215e-3
-1.440, 1.203e-3
-1.439, 1.187e-3
-1.438, 1.175e-3
-1.437, 1.159e-3
-1.436, 1.147e-3
-1.435, 1.135e-3
-1.434, 1.119e-3
-1.433, 1.104e-3
-1.432, 1.092e-3
-1.431, 1.076e-3
-1.430, 1.064e-3
-1.429, 1.051e-3
-1.428, 1.039e-3
-1.427, 1.027e-3
-1.426, 1.018e-3
-1.425, 1.005e-3
-1.424, 9.960e-4
-1.423, 9.837e-4
-1.422, 9.713e-4
-1.421, 9.621e-4
-1.420, 9.498e-4
-1.419, 9.374e-4
-1.418, 9.251e-4
-1.417, 9.158e-4
-1.416, 9.035e-4
-1.415, 8.943e-4
-1.414, 8.819e-4
-1.413, 8.727e-4
-1.412, 8.603e-4
-1.411, 8.511e-4
-1.410, 8.418e-4
-1.409, 8.295e-4
-1.408, 8.203e-4
-1.407, 8.079e-4
-1.406, 7.987e-4
-1.405, 7.894e-4
-1.404, 7.802e-4
-1.403, 7.709e-4
-1.402, 7.617e-4
-1.401, 7.555e-4
-1.400, 7.463e-4
-1.399, 7.370e-4
-1.398, 7.278e-4
-1.397, 7.185e-4
-1.396, 7.093e-4
-1.395, 7.031e-4
-1.394, 6.908e-4
-1.393, 6.846e-4
-1.392, 6.754e-4
-1.391, 6.661e-4
-1.390, 6.599e-4
-1.389, 6.507e-4
-1.388, 6.414e-4
-1.387, 6.353e-4
-1.386, 6.260e-4
-1.385, 6.168e-4
-1.384, 6.075e-4
-1.383, 6.014e-4
-1.382, 5.952e-4
-1.381, 5.859e-4
-1.380, 5.798e-4
-1.379, 5.736e-4
-1.378, 5.674e-4
-1.377, 5.582e-4
-1.376, 5.520e-4
-1.375, 5.428e-4
-1.374, 5.397e-4
-1.373, 5.305e-4
-1.372, 5.243e-4
-1.371, 5.150e-4
-1.370, 5.089e-4
-1.369, 5.058e-4
-1.368, 4.965e-4
-1.367, 4.904e-4
-1.366, 4.842e-4
-1.365, 4.780e-4
-1.364, 4.719e-4
-1.363, 4.657e-4
-1.362, 4.565e-4
-1.361, 4.503e-4
-1.360, 4.472e-4
-1.359, 4.380e-4
-1.358, 4.318e-4
-1.357, 4.287e-4
-1.356, 4.225e-4
-1.355, 4.164e-4
-1.354, 4.102e-4
-1.353, 4.071e-4
-1.352, 4.010e-4
-1.351, 3.948e-4
-1.350, 3.886e-4
-1.349, 3.825e-4
-1.348, 3.763e-4
-1.347, 3.732e-4
-1.346, 3.670e-4
-1.345, 3.609e-4
-1.344, 3.547e-4
-1.343, 3.516e-4
-1.342, 3.455e-4
-1.341, 3.393e-4
-1.340, 3.362e-4
-1.339, 3.300e-4
-1.338, 3.239e-4
-1.337, 3.208e-4
-1.336, 3.177e-4
-1.335, 3.115e-4
-1.334, 3.085e-4
-1.333, 3.023e-4
-1.332, 2.961e-4
-1.331, 2.931e-4
-1.330, 2.900e-4
-1.329, 2.838e-4
-1.328, 2.807e-4
-1.327, 2.746e-4
-1.326, 2.715e-4
-1.325, 2.653e-4
-1.324, 2.622e-4
-1.323, 2.591e-4
-1.322, 2.561e-4
-1.321, 2.499e-4
-1.320, 2.468e-4
-1.319, 2.406e-4
-1.318, 2.376e-4
-1.317, 2.345e-4
-1.316, 2.283e-4
-1.315, 2.252e-4
-1.314, 2.221e-4
-1.313, 2.191e-4
-1.312, 2.160e-4
-1.311, 2.129e-4
-1.310, 2.098e-4
-1.309, 2.036e-4
-1.308, 2.006e-4
-1.307, 1.975e-4
-1.306, 1.944e-4
-1.305, 1.913e-4
-1.304, 1.882e-4
-1.303, 1.851e-4
-1.302, 1.821e-4
-1.301, 1.790e-4
-1.300, 1.759e-4
-1.299, 1.728e-4
-1.298, 1.697e-4
-1.297, 1.636e-4
-1.296, 1.636e-4
-1.295, 1.605e-4
-1.294, 1.574e-4
-1.293, 1.543e-4
-1.292, 1.481e-4
-1.291, 1.481e-4
-1.290, 1.451e-4
-1.289, 1.420e-4
-1.288, 1.389e-4
-1.287, 1.358e-4
-1.286, 1.358e-4
-1.285, 1.327e-4
-1.284, 1.266e-4
-1.283, 1.266e-4
-1.282, 1.235e-4
-1.281, 1.204e-4
-1.280, 1.173e-4
-1.279, 1.173e-4
-1.278, 1.142e-4
-1.277, 1.111e-4
-1.276, 1.081e-4
-1.275, 1.081e-4
-1.274, 1.050e-4
-1.273, 1.019e-4
-1.272, 1.019e-4
-1.271, 9.573e-5
-1.270, 9.573e-5
-1.269, 9.265e-5
-1.268, 9.265e-5
-1.267, 8.957e-5
-1.266, 8.648e-5
-1.265, 8.340e-5
-1.264, 8.340e-5
-1.263, 8.032e-5
-1.262, 7.723e-5
-1.261, 7.723e-5
-1.260, 7.415e-5
-1.259, 7.415e-5
-1.258, 7.107e-5
-1.257, 6.798e-5
-1.256, 6.798e-5
-1.255, 6.490e-5
-1.254, 6.490e-5
-1.253, 6.182e-5
-1.252, 5.873e-5
-1.251, 5.873e-5
-1.250, 5.565e-5
-1.249, 5.565e-5
-1.248, 5.257e-5
-1.247, 5.257e-5
-1.246, 4.949e-5
-1.245, 4.949e-5
-1.244, 4.640e-5
-1.243, 4.332e-5
-1.242, 4.332e-5
-1.241, 4.024e-5
-1.240, 4.024e-5
-1.239, 3.715e-5
-1.238, 3.407e-5
-1.237, 3.407e-5
-1.236, 3.407e-5
-1.235, 3.099e-5
-1.234, 2.790e-5
-1.233, 2.790e-5
-1.232, 2.790e-5
-1.231, 2.482e-5
-1.230, 2.174e-5
-1.229, 2.174e-5
-1.228, 1.865e-5
-1.227, 1.865e-5
-1.226, 1.557e-5
-1.225, 1.557e-5
-1.224, 1.557e-5
-1.223, 1.249e-5
-1.222, 1.249e-5
-1.221, 9.405e-6
-1.220, 6.322e-6
-1.219, 6.322e-6
-1.218, 6.322e-6
-1.217, 3.239e-6
-1.216, 3.239e-6
-1.215, 1.559e-7
-1.214, 1.559e-7
-1.213, 1.559e-7
-1.212, -2.927e-6
-1.211, -2.927e-6
-1.210, -6.010e-6
-1.209, -6.010e-6
-1.208, -9.093e-6
-1.207, -9.093e-6
-1.206, -9.093e-6
-1.205, -1.218e-5
-1.204, -1.218e-5
-1.203, -1.526e-5
-1.202, -1.526e-5
-1.201, -1.834e-5
-1.200, -1.834e-5
-1.199, -2.143e-5
-1.198, -2.143e-5
-1.197, -2.143e-5
-1.196, -2.451e-5
-1.195, -2.451e-5
-1.194, -2.759e-5
-1.193, -2.759e-5
-1.192, -3.068e-5
-1.191, -3.068e-5
-1.190, -3.068e-5
-1.189, -3.376e-5
-1.188, -3.376e-5
-1.187, -3.684e-5
-1.186, -3.684e-5
-1.185, -3.684e-5
-1.184, -3.992e-5
-1.183, -3.992e-5
-1.182, -4.301e-5
-1.181, -4.301e-5
-1.180, -4.301e-5
-1.179, -4.609e-5
-1.178, -4.609e-5
-1.177, -4.917e-5
-1.176, -4.917e-5
-1.175, -4.917e-5
-1.174, -5.226e-5
-1.173, -5.226e-5
-1.172, -5.534e-5
-1.171, -5.534e-5
-1.170, -5.534e-5
-1.169, -5.842e-5
-1.168, -5.842e-5
-1.167, -6.151e-5
-1.166, -6.151e-5
-1.165, -6.151e-5
-1.164, -6.459e-5
-1.163, -6.459e-5
-1.162, -6.767e-5
-1.161, -6.767e-5
-1.160, -6.767e-5
-1.159, -7.076e-5
-1.158, -7.076e-5
-1.157, -7.384e-5
-1.156, -7.384e-5
-1.155, -7.384e-5
-1.154, -7.384e-5
-1.153, -7.692e-5
-1.152, -8.000e-5
-1.151, -8.000e-5
-1.150, -8.000e-5
-1.149, -8.000e-5
-1.148, -8.309e-5
-1.147, -8.309e-5
-1.146, -8.309e-5
-1.145, -8.617e-5
-1.144, -8.617e-5
-1.143, -8.925e-5
-1.142, -8.925e-5
-1.141, -8.925e-5
-1.140, -9.234e-5
-1.139, -9.234e-5
-1.138, -9.234e-5
-1.137, -9.542e-5
-1.136, -9.234e-5
-1.135, -9.542e-5
-1.134, -9.850e-5
-1.133, -9.850e-5
-1.132, -1.016e-4
-1.131, -9.850e-5
-1.130, -1.016e-4
-1.129, -1.016e-4
-1.128, -1.047e-4
-1.127, -1.047e-4
-1.126, -1.047e-4
-1.125, -1.078e-4
-1.124, -1.078e-4
-1.123, -1.078e-4
-1.122, -1.108e-4
-1.121, -1.108e-4
-1.120, -1.108e-4
-1.119, -1.139e-4
-1.118, -1.139e-4
-1.117, -1.139e-4
-1.116, -1.170e-4
-1.115, -1.170e-4
-1.114, -1.170e-4
-1.113, -1.170e-4
-1.112, -1.170e-4
-1.111, -1.201e-4
-1.110, -1.201e-4
-1.109, -1.201e-4
-1.108, -1.232e-4
-1.107, -1.232e-4
-1.106, -1.232e-4
-1.105, -1.263e-4
-1.104, -1.232e-4
-1.103, -1.263e-4
-1.102, -1.263e-4
-1.101, -1.293e-4
-1.100, -1.293e-4
-1.099, -1.293e-4
-1.098, -1.293e-4
-1.097, -1.324e-4
-1.096, -1.293e-4
-1.095, -1.324e-4
-1.094, -1.324e-4
-1.093, -1.324e-4
-1.092, -1.355e-4
-1.091, -1.355e-4
-1.090, -1.355e-4
-1.089, -1.386e-4
-1.088, -1.355e-4
-1.087, -1.386e-4
-1.086, -1.386e-4
-1.085, -1.386e-4
-1.084, -1.386e-4
-1.083, -1.386e-4
-1.082, -1.417e-4
-1.081, -1.417e-4
-1.080, -1.417e-4
-1.079, -1.417e-4
-1.078, -1.417e-4
-1.077, -1.417e-4
-1.076, -1.417e-4
-1.075, -1.448e-4
-1.074, -1.448e-4
-1.073, -1.448e-4
-1.072, -1.448e-4
-1.071, -1.448e-4
-1.070, -1.448e-4
-1.069, -1.448e-4
-1.068, -1.478e-4
-1.067, -1.478e-4
-1.066, -1.478e-4
-1.065, -1.478e-4
-1.064, -1.478e-4
-1.063, -1.478e-4
-1.062, -1.478e-4
-1.061, -1.478e-4
-1.060, -1.509e-4
-1.059, -1.478e-4
-1.058, -1.509e-4
-1.057, -1.509e-4
-1.056, -1.478e-4
-1.055, -1.509e-4
-1.054, -1.509e-4
-1.053, -1.478e-4
-1.052, -1.509e-4
-1.051, -1.509e-4
-1.050, -1.509e-4
-1.049, -1.540e-4
-1.048, -1.540e-4
-1.047, -1.540e-4
-1.046, -1.540e-4
-1.045, -1.509e-4
-1.044, -1.540e-4
-1.043, -1.540e-4
-1.042, -1.540e-4
-1.041, -1.540e-4
-1.040, -1.540e-4
-1.039, -1.540e-4
-1.038, -1.540e-4
-1.037, -1.540e-4
-1.036, -1.540e-4
-1.035, -1.540e-4
-1.034, -1.571e-4
-1.033, -1.571e-4
-1.032, -1.540e-4
-1.031, -1.540e-4
-1.030, -1.540e-4
-1.029, -1.540e-4
-1.028, -1.571e-4
-1.027, -1.571e-4
-1.026, -1.571e-4
-1.025, -1.571e-4
-1.024, -1.571e-4
-1.023, -1.571e-4
-1.022, -1.571e-4
-1.021, -1.571e-4
-1.020, -1.571e-4
-1.019, -1.571e-4
-1.018, -1.571e-4
-1.017, -1.602e-4
-1.016, -1.571e-4
-1.015, -1.571e-4
-1.014, -1.602e-4
-1.013, -1.571e-4
-1.012, -1.602e-4
-1.011, -1.571e-4
-1.010, -1.571e-4
-1.009, -1.602e-4
-1.008, -1.571e-4
-1.007, -1.571e-4
-1.006, -1.571e-4
-1.005, -1.571e-4
-1.004, -1.602e-4
-1.003, -1.571e-4
-1.002, -1.602e-4
-1.001, -1.602e-4
