Dec. 19, 2024   11:59:34
Linear Sweep Voltammetry
File: c:/users/guazh/data/banditlqround7_x0exp667_r5/2024-12-16-exp700\1acid_2ac-2024-12-19t11_56_20-lsvinphos\1acid_2ac_lsv_50mvs_efin_-2300mv.bin
Data Source:  Experiment
Instrument Model:  CHI760E
Header: LSV ran at 50 mVs with Efin at -2300mV
Note: 

Init E (V) = -0.6
Final E (V) = -2.3
Scan Rate (V/s) = 0.05
Sample Interval (V) = 0.001
Quiet Time (sec) = 2
Sensitivity (A/V) = 1e-4
Comp R (ohm) = 8.4

Results:

Channel 1:
Ep = -2.049V
ip = 8.155e-4A
Ah = 1.264e-3C

Potential/V, Current/A

-0.600, 2.602e-6
-0.601, 2.706e-6
-0.602, 2.746e-6
-0.603, 2.778e-6
-0.604, 2.808e-6
-0.605, 2.840e-6
-0.606, 2.871e-6
-0.607, 2.897e-6
-0.608, 2.925e-6
-0.609, 2.954e-6
-0.610, 2.985e-6
-0.611, 3.015e-6
-0.612, 3.042e-6
-0.613, 3.068e-6
-0.614, 3.099e-6
-0.615, 3.131e-6
-0.616, 3.161e-6
-0.617, 3.188e-6
-0.618, 3.214e-6
-0.619, 3.242e-6
-0.620, 3.273e-6
-0.621, 3.304e-6
-0.622, 3.333e-6
-0.623, 3.359e-6
-0.624, 3.389e-6
-0.625, 3.423e-6
-0.626, 3.454e-6
-0.627, 3.482e-6
-0.628, 3.510e-6
-0.629, 3.540e-6
-0.630, 3.574e-6
-0.631, 3.605e-6
-0.632, 3.633e-6
-0.633, 3.664e-6
-0.634, 3.694e-6
-0.635, 3.727e-6
-0.636, 3.759e-6
-0.637, 3.789e-6
-0.638, 3.820e-6
-0.639, 3.851e-6
-0.640, 3.887e-6
-0.641, 3.920e-6
-0.642, 3.947e-6
-0.643, 3.978e-6
-0.644, 4.010e-6
-0.645, 4.045e-6
-0.646, 4.078e-6
-0.647, 4.108e-6
-0.648, 4.137e-6
-0.649, 4.170e-6
-0.650, 4.203e-6
-0.651, 4.237e-6
-0.652, 4.266e-6
-0.653, 4.298e-6
-0.654, 4.330e-6
-0.655, 4.366e-6
-0.656, 4.401e-6
-0.657, 4.433e-6
-0.658, 4.463e-6
-0.659, 4.498e-6
-0.660, 4.536e-6
-0.661, 4.570e-6
-0.662, 4.601e-6
-0.663, 4.632e-6
-0.664, 4.666e-6
-0.665, 4.703e-6
-0.666, 4.740e-6
-0.667, 4.770e-6
-0.668, 4.803e-6
-0.669, 4.836e-6
-0.670, 4.872e-6
-0.671, 4.906e-6
-0.672, 4.938e-6
-0.673, 4.972e-6
-0.674, 5.005e-6
-0.675, 5.043e-6
-0.676, 5.079e-6
-0.677, 5.109e-6
-0.678, 5.143e-6
-0.679, 5.175e-6
-0.680, 5.211e-6
-0.681, 5.248e-6
-0.682, 5.278e-6
-0.683, 5.311e-6
-0.684, 5.344e-6
-0.685, 5.380e-6
-0.686, 5.415e-6
-0.687, 5.447e-6
-0.688, 5.479e-6
-0.689, 5.513e-6
-0.690, 5.549e-6
-0.691, 5.585e-6
-0.692, 5.617e-6
-0.693, 5.648e-6
-0.694, 5.679e-6
-0.695, 5.714e-6
-0.696, 5.750e-6
-0.697, 5.781e-6
-0.698, 5.812e-6
-0.699, 5.844e-6
-0.700, 5.878e-6
-0.701, 5.910e-6
-0.702, 5.938e-6
-0.703, 5.967e-6
-0.704, 5.998e-6
-0.705, 6.034e-6
-0.706, 6.066e-6
-0.707, 6.095e-6
-0.708, 6.125e-6
-0.709, 6.153e-6
-0.710, 6.186e-6
-0.711, 6.216e-6
-0.712, 6.243e-6
-0.713, 6.271e-6
-0.714, 6.299e-6
-0.715, 6.331e-6
-0.716, 6.363e-6
-0.717, 6.390e-6
-0.718, 6.417e-6
-0.719, 6.443e-6
-0.720, 6.475e-6
-0.721, 6.504e-6
-0.722, 6.529e-6
-0.723, 6.555e-6
-0.724, 6.582e-6
-0.725, 6.611e-6
-0.726, 6.639e-6
-0.727, 6.663e-6
-0.728, 6.687e-6
-0.729, 6.711e-6
-0.730, 6.737e-6
-0.731, 6.765e-6
-0.732, 6.788e-6
-0.733, 6.811e-6
-0.734, 6.832e-6
-0.735, 6.859e-6
-0.736, 6.883e-6
-0.737, 6.904e-6
-0.738, 6.922e-6
-0.739, 6.944e-6
-0.740, 6.968e-6
-0.741, 6.992e-6
-0.742, 7.009e-6
-0.743, 7.028e-6
-0.744, 7.047e-6
-0.745, 7.068e-6
-0.746, 7.089e-6
-0.747, 7.107e-6
-0.748, 7.123e-6
-0.749, 7.140e-6
-0.750, 7.161e-6
-0.751, 7.179e-6
-0.752, 7.194e-6
-0.753, 7.209e-6
-0.754, 7.223e-6
-0.755, 7.241e-6
-0.756, 7.258e-6
-0.757, 7.270e-6
-0.758, 7.283e-6
-0.759, 7.296e-6
-0.760, 7.310e-6
-0.761, 7.326e-6
-0.762, 7.337e-6
-0.763, 7.346e-6
-0.764, 7.357e-6
-0.765, 7.371e-6
-0.766, 7.384e-6
-0.767, 7.392e-6
-0.768, 7.403e-6
-0.769, 7.412e-6
-0.770, 7.423e-6
-0.771, 7.433e-6
-0.772, 7.440e-6
-0.773, 7.446e-6
-0.774, 7.454e-6
-0.775, 7.463e-6
-0.776, 7.471e-6
-0.777, 7.479e-6
-0.778, 7.482e-6
-0.779, 7.486e-6
-0.780, 7.495e-6
-0.781, 7.502e-6
-0.782, 7.505e-6
-0.783, 7.506e-6
-0.784, 7.510e-6
-0.785, 7.517e-6
-0.786, 7.521e-6
-0.787, 7.522e-6
-0.788, 7.523e-6
-0.789, 7.524e-6
-0.790, 7.529e-6
-0.791, 7.532e-6
-0.792, 7.532e-6
-0.793, 7.531e-6
-0.794, 7.531e-6
-0.795, 7.534e-6
-0.796, 7.537e-6
-0.797, 7.534e-6
-0.798, 7.531e-6
-0.799, 7.529e-6
-0.800, 7.531e-6
-0.801, 7.531e-6
-0.802, 7.527e-6
-0.803, 7.524e-6
-0.804, 7.520e-6
-0.805, 7.520e-6
-0.806, 7.520e-6
-0.807, 7.515e-6
-0.808, 7.510e-6
-0.809, 7.506e-6
-0.810, 7.503e-6
-0.811, 7.502e-6
-0.812, 7.496e-6
-0.813, 7.489e-6
-0.814, 7.484e-6
-0.815, 7.481e-6
-0.816, 7.479e-6
-0.817, 7.471e-6
-0.818, 7.463e-6
-0.819, 7.460e-6
-0.820, 7.458e-6
-0.821, 7.452e-6
-0.822, 7.444e-6
-0.823, 7.435e-6
-0.824, 7.426e-6
-0.825, 7.422e-6
-0.826, 7.417e-6
-0.827, 7.408e-6
-0.828, 7.399e-6
-0.829, 7.391e-6
-0.830, 7.386e-6
-0.831, 7.381e-6
-0.832, 7.373e-6
-0.833, 7.362e-6
-0.834, 7.353e-6
-0.835, 7.348e-6
-0.836, 7.341e-6
-0.837, 7.330e-6
-0.838, 7.320e-6
-0.839, 7.310e-6
-0.840, 7.303e-6
-0.841, 7.297e-6
-0.842, 7.286e-6
-0.843, 7.276e-6
-0.844, 7.266e-6
-0.845, 7.260e-6
-0.846, 7.253e-6
-0.847, 7.243e-6
-0.848, 7.231e-6
-0.849, 7.221e-6
-0.850, 7.213e-6
-0.851, 7.207e-6
-0.852, 7.195e-6
-0.853, 7.182e-6
-0.854, 7.173e-6
-0.855, 7.165e-6
-0.856, 7.158e-6
-0.857, 7.148e-6
-0.858, 7.135e-6
-0.859, 7.125e-6
-0.860, 7.116e-6
-0.861, 7.109e-6
-0.862, 7.098e-6
-0.863, 7.084e-6
-0.864, 7.074e-6
-0.865, 7.067e-6
-0.866, 7.058e-6
-0.867, 7.048e-6
-0.868, 7.036e-6
-0.869, 7.024e-6
-0.870, 7.017e-6
-0.871, 7.011e-6
-0.872, 6.998e-6
-0.873, 6.986e-6
-0.874, 6.975e-6
-0.875, 6.967e-6
-0.876, 6.960e-6
-0.877, 6.948e-6
-0.878, 6.936e-6
-0.879, 6.925e-6
-0.880, 6.918e-6
-0.881, 6.911e-6
-0.882, 6.898e-6
-0.883, 6.888e-6
-0.884, 6.878e-6
-0.885, 6.869e-6
-0.886, 6.863e-6
-0.887, 6.852e-6
-0.888, 6.839e-6
-0.889, 6.829e-6
-0.890, 6.821e-6
-0.891, 6.814e-6
-0.892, 6.803e-6
-0.893, 6.790e-6
-0.894, 6.780e-6
-0.895, 6.771e-6
-0.896, 6.765e-6
-0.897, 6.755e-6
-0.898, 6.742e-6
-0.899, 6.732e-6
-0.900, 6.726e-6
-0.901, 6.718e-6
-0.902, 6.708e-6
-0.903, 6.696e-6
-0.904, 6.686e-6
-0.905, 6.680e-6
-0.906, 6.672e-6
-0.907, 6.662e-6
-0.908, 6.650e-6
-0.909, 6.641e-6
-0.910, 6.635e-6
-0.911, 6.628e-6
-0.912, 6.617e-6
-0.913, 6.607e-6
-0.914, 6.596e-6
-0.915, 6.591e-6
-0.916, 6.585e-6
-0.917, 6.574e-6
-0.918, 6.564e-6
-0.919, 6.553e-6
-0.920, 6.547e-6
-0.921, 6.542e-6
-0.922, 6.532e-6
-0.923, 6.522e-6
-0.924, 6.513e-6
-0.925, 6.507e-6
-0.926, 6.500e-6
-0.927, 6.491e-6
-0.928, 6.481e-6
-0.929, 6.472e-6
-0.930, 6.465e-6
-0.931, 6.462e-6
-0.932, 6.452e-6
-0.933, 6.442e-6
-0.934, 6.435e-6
-0.935, 6.429e-6
-0.936, 6.423e-6
-0.937, 6.415e-6
-0.938, 6.404e-6
-0.939, 6.396e-6
-0.940, 6.391e-6
-0.941, 6.386e-6
-0.942, 6.377e-6
-0.943, 6.367e-6
-0.944, 6.359e-6
-0.945, 6.356e-6
-0.946, 6.349e-6
-0.947, 6.343e-6
-0.948, 6.333e-6
-0.949, 6.324e-6
-0.950, 6.320e-6
-0.951, 6.315e-6
-0.952, 6.307e-6
-0.953, 6.298e-6
-0.954, 6.289e-6
-0.955, 6.286e-6
-0.956, 6.281e-6
-0.957, 6.272e-6
-0.958, 6.265e-6
-0.959, 6.256e-6
-0.960, 6.252e-6
-0.961, 6.248e-6
-0.962, 6.241e-6
-0.963, 6.234e-6
-0.964, 6.226e-6
-0.965, 6.222e-6
-0.966, 6.219e-6
-0.967, 6.212e-6
-0.968, 6.203e-6
-0.969, 6.196e-6
-0.970, 6.193e-6
-0.971, 6.190e-6
-0.972, 6.183e-6
-0.973, 6.178e-6
-0.974, 6.171e-6
-0.975, 6.167e-6
-0.976, 6.163e-6
-0.977, 6.156e-6
-0.978, 6.149e-6
-0.979, 6.143e-6
-0.980, 6.139e-6
-0.981, 6.135e-6
-0.982, 6.129e-6
-0.983, 6.122e-6
-0.984, 6.115e-6
-0.985, 6.112e-6
-0.986, 6.108e-6
-0.987, 6.103e-6
-0.988, 6.095e-6
-0.989, 6.088e-6
-0.990, 6.085e-6
-0.991, 6.082e-6
-0.992, 6.075e-6
-0.993, 6.068e-6
-0.994, 6.062e-6
-0.995, 6.059e-6
-0.996, 6.057e-6
-0.997, 6.050e-6
-0.998, 6.044e-6
-0.999, 6.039e-6
-1.000, 6.035e-6
-1.001, 6.032e-6
-1.002, 6.026e-6
-1.003, 6.020e-6
-1.004, 6.013e-6
-1.005, 6.010e-6
-1.006, 6.009e-6
-1.007, 6.002e-6
-1.008, 5.995e-6
-1.009, 5.990e-6
-1.010, 5.987e-6
-1.011, 5.985e-6
-1.012, 5.980e-6
-1.013, 5.972e-6
-1.014, 5.968e-6
-1.015, 5.965e-6
-1.016, 5.962e-6
-1.017, 5.957e-6
-1.018, 5.952e-6
-1.019, 5.945e-6
-1.020, 5.943e-6
-1.021, 5.942e-6
-1.022, 5.936e-6
-1.023, 5.930e-6
-1.024, 5.927e-6
-1.025, 5.926e-6
-1.026, 5.924e-6
-1.027, 5.919e-6
-1.028, 5.913e-6
-1.029, 5.907e-6
-1.030, 5.906e-6
-1.031, 5.905e-6
-1.032, 5.899e-6
-1.033, 5.894e-6
-1.034, 5.889e-6
-1.035, 5.888e-6
-1.036, 5.887e-6
-1.037, 5.881e-6
-1.038, 5.880e-6
-1.039, 5.880e-6
-1.040, 5.880e-6
-1.041, 5.878e-6
-1.042, 5.873e-6
-1.043, 5.867e-6
-1.044, 5.863e-6
-1.045, 5.861e-6
-1.046, 5.862e-6
-1.047, 5.856e-6
-1.048, 5.850e-6
-1.049, 5.847e-6
-1.050, 5.845e-6
-1.051, 5.845e-6
-1.052, 5.841e-6
-1.053, 5.834e-6
-1.054, 5.830e-6
-1.055, 5.828e-6
-1.056, 5.828e-6
-1.057, 5.823e-6
-1.058, 5.818e-6
-1.059, 5.813e-6
-1.060, 5.813e-6
-1.061, 5.812e-6
-1.062, 5.806e-6
-1.063, 5.801e-6
-1.064, 5.798e-6
-1.065, 5.796e-6
-1.066, 5.795e-6
-1.067, 5.791e-6
-1.068, 5.786e-6
-1.069, 5.782e-6
-1.070, 5.782e-6
-1.071, 5.781e-6
-1.072, 5.775e-6
-1.073, 5.771e-6
-1.074, 5.767e-6
-1.075, 5.767e-6
-1.076, 5.768e-6
-1.077, 5.763e-6
-1.078, 5.758e-6
-1.079, 5.753e-6
-1.080, 5.752e-6
-1.081, 5.753e-6
-1.082, 5.748e-6
-1.083, 5.744e-6
-1.084, 5.740e-6
-1.085, 5.739e-6
-1.086, 5.740e-6
-1.087, 5.733e-6
-1.088, 5.731e-6
-1.089, 5.727e-6
-1.090, 5.726e-6
-1.091, 5.726e-6
-1.092, 5.723e-6
-1.093, 5.718e-6
-1.094, 5.714e-6
-1.095, 5.714e-6
-1.096, 5.714e-6
-1.097, 5.710e-6
-1.098, 5.705e-6
-1.099, 5.703e-6
-1.100, 5.701e-6
-1.101, 5.703e-6
-1.102, 5.700e-6
-1.103, 5.695e-6
-1.104, 5.691e-6
-1.105, 5.691e-6
-1.106, 5.690e-6
-1.107, 5.688e-6
-1.108, 5.683e-6
-1.109, 5.680e-6
-1.110, 5.680e-6
-1.111, 5.681e-6
-1.112, 5.676e-6
-1.113, 5.675e-6
-1.114, 5.671e-6
-1.115, 5.671e-6
-1.116, 5.671e-6
-1.117, 5.669e-6
-1.118, 5.664e-6
-1.119, 5.662e-6
-1.120, 5.661e-6
-1.121, 5.662e-6
-1.122, 5.658e-6
-1.123, 5.656e-6
-1.124, 5.653e-6
-1.125, 5.652e-6
-1.126, 5.653e-6
-1.127, 5.651e-6
-1.128, 5.647e-6
-1.129, 5.645e-6
-1.130, 5.644e-6
-1.131, 5.645e-6
-1.132, 5.642e-6
-1.133, 5.639e-6
-1.134, 5.637e-6
-1.135, 5.636e-6
-1.136, 5.637e-6
-1.137, 5.635e-6
-1.138, 5.631e-6
-1.139, 5.629e-6
-1.140, 5.630e-6
-1.141, 5.631e-6
-1.142, 5.628e-6
-1.143, 5.624e-6
-1.144, 5.622e-6
-1.145, 5.623e-6
-1.146, 5.623e-6
-1.147, 5.620e-6
-1.148, 5.618e-6
-1.149, 5.615e-6
-1.150, 5.615e-6
-1.151, 5.616e-6
-1.152, 5.614e-6
-1.153, 5.613e-6
-1.154, 5.609e-6
-1.155, 5.610e-6
-1.156, 5.612e-6
-1.157, 5.608e-6
-1.158, 5.607e-6
-1.159, 5.604e-6
-1.160, 5.605e-6
-1.161, 5.606e-6
-1.162, 5.603e-6
-1.163, 5.601e-6
-1.164, 5.598e-6
-1.165, 5.599e-6
-1.166, 5.602e-6
-1.167, 5.598e-6
-1.168, 5.596e-6
-1.169, 5.594e-6
-1.170, 5.594e-6
-1.171, 5.596e-6
-1.172, 5.595e-6
-1.173, 5.591e-6
-1.174, 5.590e-6
-1.175, 5.590e-6
-1.176, 5.592e-6
-1.177, 5.590e-6
-1.178, 5.588e-6
-1.179, 5.585e-6
-1.180, 5.586e-6
-1.181, 5.588e-6
-1.182, 5.586e-6
-1.183, 5.583e-6
-1.184, 5.583e-6
-1.185, 5.582e-6
-1.186, 5.583e-6
-1.187, 5.582e-6
-1.188, 5.579e-6
-1.189, 5.577e-6
-1.190, 5.579e-6
-1.191, 5.580e-6
-1.192, 5.579e-6
-1.193, 5.577e-6
-1.194, 5.574e-6
-1.195, 5.576e-6
-1.196, 5.577e-6
-1.197, 5.577e-6
-1.198, 5.574e-6
-1.199, 5.573e-6
-1.200, 5.574e-6
-1.201, 5.576e-6
-1.202, 5.574e-6
-1.203, 5.573e-6
-1.204, 5.571e-6
-1.205, 5.571e-6
-1.206, 5.574e-6
-1.207, 5.572e-6
-1.208, 5.570e-6
-1.209, 5.569e-6
-1.210, 5.571e-6
-1.211, 5.572e-6
-1.212, 5.571e-6
-1.213, 5.569e-6
-1.214, 5.567e-6
-1.215, 5.567e-6
-1.216, 5.570e-6
-1.217, 5.570e-6
-1.218, 5.567e-6
-1.219, 5.566e-6
-1.220, 5.568e-6
-1.221, 5.569e-6
-1.222, 5.569e-6
-1.223, 5.566e-6
-1.224, 5.566e-6
-1.225, 5.567e-6
-1.226, 5.568e-6
-1.227, 5.567e-6
-1.228, 5.566e-6
-1.229, 5.568e-6
-1.230, 5.568e-6
-1.231, 5.571e-6
-1.232, 5.569e-6
-1.233, 5.567e-6
-1.234, 5.564e-6
-1.235, 5.567e-6
-1.236, 5.570e-6
-1.237, 5.567e-6
-1.238, 5.567e-6
-1.239, 5.566e-6
-1.240, 5.567e-6
-1.241, 5.570e-6
-1.242, 5.569e-6
-1.243, 5.567e-6
-1.244, 5.566e-6
-1.245, 5.567e-6
-1.246, 5.570e-6
-1.247, 5.570e-6
-1.248, 5.569e-6
-1.249, 5.568e-6
-1.250, 5.568e-6
-1.251, 5.571e-6
-1.252, 5.571e-6
-1.253, 5.569e-6
-1.254, 5.568e-6
-1.255, 5.570e-6
-1.256, 5.572e-6
-1.257, 5.572e-6
-1.258, 5.569e-6
-1.259, 5.570e-6
-1.260, 5.570e-6
-1.261, 5.574e-6
-1.262, 5.573e-6
-1.263, 5.572e-6
-1.264, 5.572e-6
-1.265, 5.572e-6
-1.266, 5.575e-6
-1.267, 5.575e-6
-1.268, 5.574e-6
-1.269, 5.572e-6
-1.270, 5.575e-6
-1.271, 5.577e-6
-1.272, 5.577e-6
-1.273, 5.575e-6
-1.274, 5.573e-6
-1.275, 5.576e-6
-1.276, 5.580e-6
-1.277, 5.579e-6
-1.278, 5.578e-6
-1.279, 5.576e-6
-1.280, 5.581e-6
-1.281, 5.584e-6
-1.282, 5.583e-6
-1.283, 5.581e-6
-1.284, 5.580e-6
-1.285, 5.582e-6
-1.286, 5.586e-6
-1.287, 5.585e-6
-1.288, 5.583e-6
-1.289, 5.582e-6
-1.290, 5.585e-6
-1.291, 5.588e-6
-1.292, 5.587e-6
-1.293, 5.586e-6
-1.294, 5.585e-6
-1.295, 5.587e-6
-1.296, 5.591e-6
-1.297, 5.591e-6
-1.298, 5.589e-6
-1.299, 5.590e-6
-1.300, 5.591e-6
-1.301, 5.594e-6
-1.302, 5.593e-6
-1.303, 5.594e-6
-1.304, 5.593e-6
-1.305, 5.595e-6
-1.306, 5.599e-6
-1.307, 5.599e-6
-1.308, 5.597e-6
-1.309, 5.596e-6
-1.310, 5.599e-6
-1.311, 5.602e-6
-1.312, 5.603e-6
-1.313, 5.601e-6
-1.314, 5.600e-6
-1.315, 5.603e-6
-1.316, 5.607e-6
-1.317, 5.607e-6
-1.318, 5.607e-6
-1.319, 5.606e-6
-1.320, 5.608e-6
-1.321, 5.611e-6
-1.322, 5.611e-6
-1.323, 5.610e-6
-1.324, 5.610e-6
-1.325, 5.613e-6
-1.326, 5.616e-6
-1.327, 5.615e-6
-1.328, 5.614e-6
-1.329, 5.616e-6
-1.330, 5.617e-6
-1.331, 5.622e-6
-1.332, 5.622e-6
-1.333, 5.621e-6
-1.334, 5.620e-6
-1.335, 5.622e-6
-1.336, 5.626e-6
-1.337, 5.628e-6
-1.338, 5.626e-6
-1.339, 5.627e-6
-1.340, 5.629e-6
-1.341, 5.632e-6
-1.342, 5.634e-6
-1.343, 5.632e-6
-1.344, 5.632e-6
-1.345, 5.635e-6
-1.346, 5.639e-6
-1.347, 5.640e-6
-1.348, 5.638e-6
-1.349, 5.639e-6
-1.350, 5.642e-6
-1.351, 5.646e-6
-1.352, 5.646e-6
-1.353, 5.644e-6
-1.354, 5.644e-6
-1.355, 5.647e-6
-1.356, 5.652e-6
-1.357, 5.652e-6
-1.358, 5.652e-6
-1.359, 5.651e-6
-1.360, 5.654e-6
-1.361, 5.659e-6
-1.362, 5.660e-6
-1.363, 5.659e-6
-1.364, 5.659e-6
-1.365, 5.662e-6
-1.366, 5.667e-6
-1.367, 5.667e-6
-1.368, 5.666e-6
-1.369, 5.667e-6
-1.370, 5.670e-6
-1.371, 5.675e-6
-1.372, 5.675e-6
-1.373, 5.674e-6
-1.374, 5.675e-6
-1.375, 5.677e-6
-1.376, 5.683e-6
-1.377, 5.685e-6
-1.378, 5.684e-6
-1.379, 5.685e-6
-1.380, 5.687e-6
-1.381, 5.692e-6
-1.382, 5.694e-6
-1.383, 5.694e-6
-1.384, 5.693e-6
-1.385, 5.698e-6
-1.386, 5.702e-6
-1.387, 5.702e-6
-1.388, 5.702e-6
-1.389, 5.702e-6
-1.390, 5.706e-6
-1.391, 5.712e-6
-1.392, 5.714e-6
-1.393, 5.714e-6
-1.394, 5.714e-6
-1.395, 5.717e-6
-1.396, 5.723e-6
-1.397, 5.724e-6
-1.398, 5.723e-6
-1.399, 5.724e-6
-1.400, 5.727e-6
-1.401, 5.732e-6
-1.402, 5.734e-6
-1.403, 5.736e-6
-1.404, 5.738e-6
-1.405, 5.740e-6
-1.406, 5.746e-6
-1.407, 5.747e-6
-1.408, 5.748e-6
-1.409, 5.747e-6
-1.410, 5.749e-6
-1.411, 5.756e-6
-1.412, 5.757e-6
-1.413, 5.757e-6
-1.414, 5.760e-6
-1.415, 5.764e-6
-1.416, 5.769e-6
-1.417, 5.769e-6
-1.418, 5.768e-6
-1.419, 5.769e-6
-1.420, 5.773e-6
-1.421, 5.779e-6
-1.422, 5.782e-6
-1.423, 5.781e-6
-1.424, 5.782e-6
-1.425, 5.786e-6
-1.426, 5.793e-6
-1.427, 5.794e-6
-1.428, 5.795e-6
-1.429, 5.797e-6
-1.430, 5.803e-6
-1.431, 5.807e-6
-1.432, 5.808e-6
-1.433, 5.810e-6
-1.434, 5.812e-6
-1.435, 5.815e-6
-1.436, 5.822e-6
-1.437, 5.824e-6
-1.438, 5.825e-6
-1.439, 5.825e-6
-1.440, 5.832e-6
-1.441, 5.839e-6
-1.442, 5.841e-6
-1.443, 5.841e-6
-1.444, 5.842e-6
-1.445, 5.845e-6
-1.446, 5.851e-6
-1.447, 5.855e-6
-1.448, 5.855e-6
-1.449, 5.856e-6
-1.450, 5.861e-6
-1.451, 5.869e-6
-1.452, 5.870e-6
-1.453, 5.868e-6
-1.454, 5.870e-6
-1.455, 5.874e-6
-1.456, 5.881e-6
-1.457, 5.885e-6
-1.458, 5.884e-6
-1.459, 5.886e-6
-1.460, 5.893e-6
-1.461, 5.899e-6
-1.462, 5.901e-6
-1.463, 5.901e-6
-1.464, 5.904e-6
-1.465, 5.909e-6
-1.466, 5.916e-6
-1.467, 5.918e-6
-1.468, 5.919e-6
-1.469, 5.920e-6
-1.470, 5.926e-6
-1.471, 5.932e-6
-1.472, 5.937e-6
-1.473, 5.939e-6
-1.474, 5.939e-6
-1.475, 5.946e-6
-1.476, 5.953e-6
-1.477, 5.955e-6
-1.478, 5.958e-6
-1.479, 5.959e-6
-1.480, 5.966e-6
-1.481, 5.973e-6
-1.482, 5.977e-6
-1.483, 5.978e-6
-1.484, 5.982e-6
-1.485, 5.989e-6
-1.486, 5.997e-6
-1.487, 6.000e-6
-1.488, 6.002e-6
-1.489, 6.004e-6
-1.490, 6.009e-6
-1.491, 6.019e-6
-1.492, 6.023e-6
-1.493, 6.024e-6
-1.494, 6.028e-6
-1.495, 6.034e-6
-1.496, 6.044e-6
-1.497, 6.049e-6
-1.498, 6.051e-6
-1.499, 6.053e-6
-1.500, 6.061e-6
-1.501, 6.069e-6
-1.502, 6.074e-6
-1.503, 6.077e-6
-1.504, 6.080e-6
-1.505, 6.087e-6
-1.506, 6.097e-6
-1.507, 6.103e-6
-1.508, 6.105e-6
-1.509, 6.107e-6
-1.510, 6.116e-6
-1.511, 6.127e-6
-1.512, 6.132e-6
-1.513, 6.134e-6
-1.514, 6.138e-6
-1.515, 6.146e-6
-1.516, 6.155e-6
-1.517, 6.161e-6
-1.518, 6.166e-6
-1.519, 6.168e-6
-1.520, 6.177e-6
-1.521, 6.188e-6
-1.522, 6.193e-6
-1.523, 6.197e-6
-1.524, 6.202e-6
-1.525, 6.210e-6
-1.526, 6.221e-6
-1.527, 6.227e-6
-1.528, 6.230e-6
-1.529, 6.236e-6
-1.530, 6.244e-6
-1.531, 6.257e-6
-1.532, 6.263e-6
-1.533, 6.267e-6
-1.534, 6.275e-6
-1.535, 6.283e-6
-1.536, 6.297e-6
-1.537, 6.305e-6
-1.538, 6.308e-6
-1.539, 6.314e-6
-1.540, 6.325e-6
-1.541, 6.337e-6
-1.542, 6.346e-6
-1.543, 6.352e-6
-1.544, 6.357e-6
-1.545, 6.369e-6
-1.546, 6.381e-6
-1.547, 6.391e-6
-1.548, 6.395e-6
-1.549, 6.404e-6
-1.550, 6.415e-6
-1.551, 6.428e-6
-1.552, 6.438e-6
-1.553, 6.444e-6
-1.554, 6.450e-6
-1.555, 6.462e-6
-1.556, 6.477e-6
-1.557, 6.486e-6
-1.558, 6.494e-6
-1.559, 6.500e-6
-1.560, 6.513e-6
-1.561, 6.528e-6
-1.562, 6.539e-6
-1.563, 6.546e-6
-1.564, 6.554e-6
-1.565, 6.566e-6
-1.566, 6.584e-6
-1.567, 6.593e-6
-1.568, 6.601e-6
-1.569, 6.610e-6
-1.570, 6.621e-6
-1.571, 6.639e-6
-1.572, 6.651e-6
-1.573, 6.658e-6
-1.574, 6.669e-6
-1.575, 6.681e-6
-1.576, 6.699e-6
-1.577, 6.710e-6
-1.578, 6.718e-6
-1.579, 6.728e-6
-1.580, 6.743e-6
-1.581, 6.758e-6
-1.582, 6.771e-6
-1.583, 6.781e-6
-1.584, 6.791e-6
-1.585, 6.807e-6
-1.586, 6.823e-6
-1.587, 6.840e-6
-1.588, 6.850e-6
-1.589, 6.857e-6
-1.590, 6.873e-6
-1.591, 6.890e-6
-1.592, 6.904e-6
-1.593, 6.914e-6
-1.594, 6.924e-6
-1.595, 6.939e-6
-1.596, 6.959e-6
-1.597, 6.972e-6
-1.598, 6.985e-6
-1.599, 6.994e-6
-1.600, 7.011e-6
-1.601, 7.031e-6
-1.602, 7.043e-6
-1.603, 7.058e-6
-1.604, 7.069e-6
-1.605, 7.087e-6
-1.606, 7.108e-6
-1.607, 7.123e-6
-1.608, 7.135e-6
-1.609, 7.147e-6
-1.610, 7.165e-6
-1.611, 7.187e-6
-1.612, 7.202e-6
-1.613, 7.216e-6
-1.614, 7.230e-6
-1.615, 7.246e-6
-1.616, 7.267e-6
-1.617, 7.285e-6
-1.618, 7.298e-6
-1.619, 7.312e-6
-1.620, 7.331e-6
-1.621, 7.353e-6
-1.622, 7.370e-6
-1.623, 7.385e-6
-1.624, 7.399e-6
-1.625, 7.419e-6
-1.626, 7.441e-6
-1.627, 7.462e-6
-1.628, 7.477e-6
-1.629, 7.491e-6
-1.630, 7.515e-6
-1.631, 7.537e-6
-1.632, 7.557e-6
-1.633, 7.572e-6
-1.634, 7.589e-6
-1.635, 7.611e-6
-1.636, 7.635e-6
-1.637, 7.656e-6
-1.638, 7.675e-6
-1.639, 7.700e-6
-1.640, 7.718e-6
-1.641, 7.743e-6
-1.642, 7.764e-6
-1.643, 7.782e-6
-1.644, 7.800e-6
-1.645, 7.823e-6
-1.646, 7.853e-6
-1.647, 7.875e-6
-1.648, 7.892e-6
-1.649, 7.913e-6
-1.650, 7.936e-6
-1.651, 7.967e-6
-1.652, 7.992e-6
-1.653, 8.010e-6
-1.654, 8.032e-6
-1.655, 8.057e-6
-1.656, 8.086e-6
-1.657, 8.112e-6
-1.658, 8.132e-6
-1.659, 8.156e-6
-1.660, 8.184e-6
-1.661, 8.217e-6
-1.662, 8.247e-6
-1.663, 8.268e-6
-1.664, 8.293e-6
-1.665, 8.323e-6
-1.666, 8.354e-6
-1.667, 8.381e-6
-1.668, 8.405e-6
-1.669, 8.428e-6
-1.670, 8.462e-6
-1.671, 8.497e-6
-1.672, 8.527e-6
-1.673, 8.555e-6
-1.674, 8.577e-6
-1.675, 8.610e-6
-1.676, 8.646e-6
-1.677, 8.680e-6
-1.678, 8.707e-6
-1.679, 8.734e-6
-1.680, 8.769e-6
-1.681, 8.810e-6
-1.682, 8.843e-6
-1.683, 8.874e-6
-1.684, 8.901e-6
-1.685, 8.939e-6
-1.686, 8.983e-6
-1.687, 9.018e-6
-1.688, 9.049e-6
-1.689, 9.084e-6
-1.690, 9.126e-6
-1.691, 9.169e-6
-1.692, 9.209e-6
-1.693, 9.244e-6
-1.694, 9.280e-6
-1.695, 9.321e-6
-1.696, 9.369e-6
-1.697, 9.412e-6
-1.698, 9.448e-6
-1.699, 9.488e-6
-1.700, 9.536e-6
-1.701, 9.588e-6
-1.702, 9.633e-6
-1.703, 9.675e-6
-1.704, 9.716e-6
-1.705, 9.768e-6
-1.706, 9.822e-6
-1.707, 9.876e-6
-1.708, 9.923e-6
-1.709, 9.969e-6
-1.710, 1.003e-5
-1.711, 1.008e-5
-1.712, 1.014e-5
-1.713, 1.019e-5
-1.714, 1.024e-5
-1.715, 1.030e-5
-1.716, 1.037e-5
-1.717, 1.043e-5
-1.718, 1.049e-5
-1.719, 1.055e-5
-1.720, 1.061e-5
-1.721, 1.069e-5
-1.722, 1.075e-5
-1.723, 1.082e-5
-1.724, 1.089e-5
-1.725, 1.096e-5
-1.726, 1.104e-5
-1.727, 1.111e-5
-1.728, 1.119e-5
-1.729, 1.126e-5
-1.730, 1.134e-5
-1.731, 1.143e-5
-1.732, 1.151e-5
-1.733, 1.160e-5
-1.734, 1.168e-5
-1.735, 1.177e-5
-1.736, 1.187e-5
-1.737, 1.196e-5
-1.738, 1.204e-5
-1.739, 1.212e-5
-1.740, 1.222e-5
-1.741, 1.229e-5
-1.742, 1.236e-5
-1.743, 1.244e-5
-1.744, 1.254e-5
-1.745, 1.264e-5
-1.746, 1.275e-5
-1.747, 1.287e-5
-1.748, 1.297e-5
-1.749, 1.307e-5
-1.750, 1.317e-5
-1.751, 1.328e-5
-1.752, 1.341e-5
-1.753, 1.353e-5
-1.754, 1.365e-5
-1.755, 1.378e-5
-1.756, 1.392e-5
-1.757, 1.406e-5
-1.758, 1.419e-5
-1.759, 1.432e-5
-1.760, 1.447e-5
-1.761, 1.464e-5
-1.762, 1.479e-5
-1.763, 1.495e-5
-1.764, 1.511e-5
-1.765, 1.527e-5
-1.766, 1.545e-5
-1.767, 1.563e-5
-1.768, 1.581e-5
-1.769, 1.599e-5
-1.770, 1.618e-5
-1.771, 1.639e-5
-1.772, 1.659e-5
-1.773, 1.679e-5
-1.774, 1.699e-5
-1.775, 1.721e-5
-1.776, 1.743e-5
-1.777, 1.766e-5
-1.778, 1.788e-5
-1.779, 1.811e-5
-1.780, 1.835e-5
-1.781, 1.861e-5
-1.782, 1.887e-5
-1.783, 1.914e-5
-1.784, 1.939e-5
-1.785, 1.968e-5
-1.786, 1.997e-5
-1.787, 2.026e-5
-1.788, 2.055e-5
-1.789, 2.086e-5
-1.790, 2.118e-5
-1.791, 2.152e-5
-1.792, 2.185e-5
-1.793, 2.219e-5
-1.794, 2.254e-5
-1.795, 2.291e-5
-1.796, 2.328e-5
-1.797, 2.366e-5
-1.798, 2.405e-5
-1.799, 2.445e-5
-1.800, 2.487e-5
-1.801, 2.530e-5
-1.802, 2.573e-5
-1.803, 2.616e-5
-1.804, 2.662e-5
-1.805, 2.709e-5
-1.806, 2.759e-5
-1.807, 2.808e-5
-1.808, 2.858e-5
-1.809, 2.910e-5
-1.810, 2.965e-5
-1.811, 3.022e-5
-1.812, 3.079e-5
-1.813, 3.137e-5
-1.814, 3.198e-5
-1.815, 3.260e-5
-1.816, 3.324e-5
-1.817, 3.390e-5
-1.818, 3.456e-5
-1.819, 3.525e-5
-1.820, 3.596e-5
-1.821, 3.669e-5
-1.822, 3.744e-5
-1.823, 3.820e-5
-1.824, 3.898e-5
-1.825, 3.978e-5
-1.826, 4.062e-5
-1.827, 4.147e-5
-1.828, 4.233e-5
-1.829, 4.321e-5
-1.830, 4.412e-5
-1.831, 4.507e-5
-1.832, 4.604e-5
-1.833, 4.703e-5
-1.834, 4.804e-5
-1.835, 4.910e-5
-1.836, 5.018e-5
-1.837, 5.128e-5
-1.838, 5.240e-5
-1.839, 5.355e-5
-1.840, 5.473e-5
-1.841, 5.595e-5
-1.842, 5.719e-5
-1.843, 5.847e-5
-1.844, 5.977e-5
-1.845, 6.111e-5
-1.846, 6.247e-5
-1.847, 6.387e-5
-1.848, 6.530e-5
-1.849, 6.674e-5
-1.850, 6.824e-5
-1.851, 6.978e-5
-1.852, 7.137e-5
-1.853, 7.295e-5
-1.854, 7.458e-5
-1.855, 7.626e-5
-1.856, 7.800e-5
-1.857, 7.976e-5
-1.858, 8.156e-5
-1.859, 8.339e-5
-1.860, 8.528e-5
-1.861, 8.722e-5
-1.862, 8.919e-5
-1.863, 9.119e-5
-1.864, 9.324e-5
-1.865, 9.534e-5
-1.866, 9.749e-5
-1.867, 9.967e-5
-1.868, 1.019e-4
-1.869, 1.042e-4
-1.870, 1.065e-4
-1.871, 1.089e-4
-1.872, 1.113e-4
-1.873, 1.138e-4
-1.874, 1.163e-4
-1.875, 1.189e-4
-1.876, 1.215e-4
-1.877, 1.242e-4
-1.878, 1.268e-4
-1.879, 1.296e-4
-1.880, 1.324e-4
-1.881, 1.352e-4
-1.882, 1.380e-4
-1.883, 1.409e-4
-1.884, 1.438e-4
-1.885, 1.468e-4
-1.886, 1.499e-4
-1.887, 1.530e-4
-1.888, 1.561e-4
-1.889, 1.593e-4
-1.890, 1.626e-4
-1.891, 1.659e-4
-1.892, 1.692e-4
-1.893, 1.726e-4
-1.894, 1.760e-4
-1.895, 1.795e-4
-1.896, 1.830e-4
-1.897, 1.866e-4
-1.898, 1.901e-4
-1.899, 1.937e-4
-1.900, 1.974e-4
-1.901, 2.012e-4
-1.902, 2.049e-4
-1.903, 2.087e-4
-1.904, 2.124e-4
-1.905, 2.163e-4
-1.906, 2.201e-4
-1.907, 2.241e-4
-1.908, 2.280e-4
-1.909, 2.319e-4
-1.910, 2.358e-4
-1.911, 2.399e-4
-1.912, 2.438e-4
-1.913, 2.478e-4
-1.914, 2.518e-4
-1.915, 2.558e-4
-1.916, 2.598e-4
-1.917, 2.638e-4
-1.918, 2.677e-4
-1.919, 2.717e-4
-1.920, 2.755e-4
-1.921, 2.794e-4
-1.922, 2.833e-4
-1.923, 2.872e-4
-1.924, 2.910e-4
-1.925, 2.949e-4
-1.926, 2.987e-4
-1.927, 3.026e-4
-1.928, 3.064e-4
-1.929, 3.102e-4
-1.930, 3.140e-4
-1.931, 3.179e-4
-1.932, 3.218e-4
-1.933, 3.257e-4
-1.934, 3.297e-4
-1.935, 3.336e-4
-1.936, 3.376e-4
-1.937, 3.415e-4
-1.938, 3.456e-4
-1.939, 3.496e-4
-1.940, 3.537e-4
-1.941, 3.578e-4
-1.942, 3.619e-4
-1.943, 3.661e-4
-1.944, 3.703e-4
-1.945, 3.745e-4
-1.946, 3.788e-4
-1.947, 3.831e-4
-1.948, 3.874e-4
-1.949, 3.917e-4
-1.950, 3.961e-4
-1.951, 4.006e-4
-1.952, 4.050e-4
-1.953, 4.094e-4
-1.954, 4.139e-4
-1.955, 4.185e-4
-1.956, 4.231e-4
-1.957, 4.276e-4
-1.958, 4.323e-4
-1.959, 4.370e-4
-1.960, 4.416e-4
-1.961, 4.464e-4
-1.962, 4.512e-4
-1.963, 4.561e-4
-1.964, 4.610e-4
-1.965, 4.659e-4
-1.966, 4.708e-4
-1.967, 4.758e-4
-1.968, 4.808e-4
-1.969, 4.857e-4
-1.970, 4.908e-4
-1.971, 4.960e-4
-1.972, 5.012e-4
-1.973, 5.065e-4
-1.974, 5.117e-4
-1.975, 5.170e-4
-1.976, 5.223e-4
-1.977, 5.276e-4
-1.978, 5.329e-4
-1.979, 5.385e-4
-1.980, 5.440e-4
-1.981, 5.495e-4
-1.982, 5.552e-4
-1.983, 5.608e-4
-1.984, 5.665e-4
-1.985, 5.722e-4
-1.986, 5.780e-4
-1.987, 5.838e-4
-1.988, 5.896e-4
-1.989, 5.955e-4
-1.990, 6.016e-4
-1.991, 6.076e-4
-1.992, 6.136e-4
-1.993, 6.198e-4
-1.994, 6.259e-4
-1.995, 6.317e-4
-1.996, 6.376e-4
-1.997, 6.437e-4
-1.998, 6.499e-4
-1.999, 6.561e-4
-2.000, 6.624e-4
-2.001, 6.687e-4
-2.002, 6.751e-4
-2.003, 6.814e-4
-2.004, 6.877e-4
-2.005, 6.943e-4
-2.006, 7.008e-4
-2.007, 7.073e-4
-2.008, 7.139e-4
-2.009, 7.205e-4
-2.010, 7.271e-4
-2.011, 7.339e-4
-2.012, 7.408e-4
-2.013, 7.476e-4
-2.014, 7.543e-4
-2.015, 7.612e-4
-2.016, 7.682e-4
-2.017, 7.751e-4
-2.018, 7.822e-4
-2.019, 7.891e-4
-2.020, 7.962e-4
-2.021, 8.039e-4
-2.022, 8.113e-4
-2.023, 8.185e-4
-2.024, 8.257e-4
-2.025, 8.327e-4
-2.026, 8.398e-4
-2.027, 8.472e-4
-2.028, 8.545e-4
-2.029, 8.616e-4
-2.030, 8.687e-4
-2.031, 8.760e-4
-2.032, 8.834e-4
-2.033, 8.910e-4
-2.034, 8.984e-4
-2.035, 9.060e-4
-2.036, 9.137e-4
-2.037, 9.214e-4
-2.038, 9.291e-4
-2.039, 9.368e-4
-2.040, 9.444e-4
-2.041, 9.521e-4
-2.042, 9.599e-4
-2.043, 9.677e-4
-2.044, 9.753e-4
-2.045, 9.831e-4
-2.046, 9.912e-4
-2.047, 9.992e-4
-2.048, 1.007e-3
-2.049, 1.011e-3
-2.050, 1.011e-3
-2.051, 1.011e-3
-2.052, 1.011e-3
-2.053, 1.011e-3
-2.054, 1.011e-3
-2.055, 1.011e-3
-2.056, 1.011e-3
-2.057, 1.011e-3
-2.058, 1.011e-3
-2.059, 1.011e-3
-2.060, 1.011e-3
-2.061, 1.011e-3
-2.062, 1.011e-3
-2.063, 1.011e-3
-2.064, 1.011e-3
-2.065, 1.011e-3
-2.066, 1.011e-3
-2.067, 1.011e-3
-2.068, 1.011e-3
-2.069, 1.011e-3
-2.070, 1.011e-3
-2.071, 1.011e-3
-2.072, 1.011e-3
-2.073, 1.011e-3
-2.074, 1.011e-3
-2.075, 1.011e-3
-2.076, 1.011e-3
-2.077, 1.011e-3
-2.078, 1.011e-3
-2.079, 1.011e-3
-2.080, 1.011e-3
-2.081, 1.011e-3
-2.082, 1.011e-3
-2.083, 1.011e-3
-2.084, 1.011e-3
-2.085, 1.011e-3
-2.086, 1.011e-3
-2.087, 1.011e-3
-2.088, 1.011e-3
-2.089, 1.011e-3
-2.090, 1.011e-3
-2.091, 1.011e-3
-2.092, 1.011e-3
-2.093, 1.011e-3
-2.094, 1.011e-3
-2.095, 1.011e-3
-2.096, 1.011e-3
-2.097, 1.011e-3
-2.098, 1.011e-3
-2.099, 1.011e-3
-2.100, 1.011e-3
-2.101, 1.011e-3
-2.102, 1.011e-3
-2.103, 1.011e-3
-2.104, 1.011e-3
-2.105, 1.011e-3
-2.106, 1.011e-3
-2.107, 1.011e-3
-2.108, 1.011e-3
-2.109, 1.011e-3
-2.110, 1.011e-3
-2.111, 1.011e-3
-2.112, 1.011e-3
-2.113, 1.011e-3
-2.114, 1.011e-3
-2.115, 1.011e-3
-2.116, 1.011e-3
-2.117, 1.011e-3
-2.118, 1.011e-3
-2.119, 1.011e-3
-2.120, 1.011e-3
-2.121, 1.011e-3
-2.122, 1.011e-3
-2.123, 1.011e-3
-2.124, 1.011e-3
-2.125, 1.011e-3
-2.126, 1.011e-3
-2.127, 1.011e-3
-2.128, 1.011e-3
-2.129, 1.011e-3
-2.130, 1.011e-3
-2.131, 1.011e-3
-2.132, 1.011e-3
-2.133, 1.011e-3
-2.134, 1.011e-3
-2.135, 1.011e-3
-2.136, 1.011e-3
-2.137, 1.011e-3
-2.138, 1.011e-3
-2.139, 1.011e-3
-2.140, 1.011e-3
-2.141, 1.011e-3
-2.142, 1.011e-3
-2.143, 1.011e-3
-2.144, 1.011e-3
-2.145, 1.011e-3
-2.146, 1.011e-3
-2.147, 1.011e-3
-2.148, 1.011e-3
-2.149, 1.011e-3
-2.150, 1.011e-3
-2.151, 1.011e-3
-2.152, 1.011e-3
-2.153, 1.011e-3
-2.154, 1.011e-3
-2.155, 1.011e-3
-2.156, 1.011e-3
-2.157, 1.011e-3
-2.158, 1.011e-3
-2.159, 1.011e-3
-2.160, 1.011e-3
-2.161, 1.011e-3
-2.162, 1.011e-3
-2.163, 1.011e-3
-2.164, 1.011e-3
-2.165, 1.011e-3
-2.166, 1.011e-3
-2.167, 1.011e-3
-2.168, 1.011e-3
-2.169, 1.011e-3
-2.170, 1.011e-3
-2.171, 1.011e-3
-2.172, 1.011e-3
-2.173, 1.011e-3
-2.174, 1.011e-3
-2.175, 1.011e-3
-2.176, 1.011e-3
-2.177, 1.011e-3
-2.178, 1.011e-3
-2.179, 1.011e-3
-2.180, 1.011e-3
-2.181, 1.011e-3
-2.182, 1.011e-3
-2.183, 1.011e-3
-2.184, 1.011e-3
-2.185, 1.011e-3
-2.186, 1.011e-3
-2.187, 1.011e-3
-2.188, 1.011e-3
-2.189, 1.011e-3
-2.190, 1.011e-3
-2.191, 1.011e-3
-2.192, 1.011e-3
-2.193, 1.011e-3
-2.194, 1.011e-3
-2.195, 1.011e-3
-2.196, 1.011e-3
-2.197, 1.011e-3
-2.198, 1.011e-3
-2.199, 1.011e-3
-2.200, 1.011e-3
-2.201, 1.011e-3
-2.202, 1.011e-3
-2.203, 1.011e-3
-2.204, 1.011e-3
-2.205, 1.011e-3
-2.206, 1.011e-3
-2.207, 1.011e-3
-2.208, 1.011e-3
-2.209, 1.011e-3
-2.210, 1.011e-3
-2.211, 1.011e-3
-2.212, 1.011e-3
-2.213, 1.011e-3
-2.214, 1.011e-3
-2.215, 1.011e-3
-2.216, 1.011e-3
-2.217, 1.011e-3
-2.218, 1.011e-3
-2.219, 1.011e-3
-2.220, 1.011e-3
-2.221, 1.011e-3
-2.222, 1.011e-3
-2.223, 1.011e-3
-2.224, 1.011e-3
-2.225, 1.011e-3
-2.226, 1.011e-3
-2.227, 1.011e-3
-2.228, 1.011e-3
-2.229, 1.011e-3
-2.230, 1.011e-3
-2.231, 1.011e-3
-2.232, 1.011e-3
-2.233, 1.011e-3
-2.234, 1.011e-3
-2.235, 1.011e-3
-2.236, 1.011e-3
-2.237, 1.011e-3
-2.238, 1.011e-3
-2.239, 1.011e-3
-2.240, 1.011e-3
-2.241, 1.011e-3
-2.242, 1.011e-3
-2.243, 1.011e-3
-2.244, 1.011e-3
-2.245, 1.011e-3
-2.246, 1.011e-3
-2.247, 1.011e-3
-2.248, 1.011e-3
-2.249, 1.011e-3
-2.250, 1.011e-3
-2.251, 1.011e-3
-2.252, 1.011e-3
-2.253, 1.011e-3
-2.254, 1.011e-3
-2.255, 1.011e-3
-2.256, 1.011e-3
-2.257, 1.011e-3
-2.258, 1.011e-3
-2.259, 1.011e-3
-2.260, 1.011e-3
-2.261, 1.011e-3
-2.262, 1.011e-3
-2.263, 1.011e-3
-2.264, 1.011e-3
-2.265, 1.011e-3
-2.266, 1.011e-3
-2.267, 1.011e-3
-2.268, 1.011e-3
-2.269, 1.011e-3
-2.270, 1.011e-3
-2.271, 1.011e-3
-2.272, 1.011e-3
-2.273, 1.011e-3
-2.274, 1.011e-3
-2.275, 1.011e-3
-2.276, 1.011e-3
-2.277, 1.011e-3
-2.278, 1.011e-3
-2.279, 1.011e-3
-2.280, 1.011e-3
-2.281, 1.011e-3
-2.282, 1.011e-3
-2.283, 1.011e-3
-2.284, 1.011e-3
-2.285, 1.011e-3
-2.286, 1.011e-3
-2.287, 1.011e-3
-2.288, 1.011e-3
-2.289, 1.011e-3
-2.290, 1.011e-3
-2.291, 1.011e-3
-2.292, 1.011e-3
-2.293, 1.011e-3
-2.294, 1.011e-3
-2.295, 1.011e-3
-2.296, 1.011e-3
-2.297, 1.011e-3
-2.298, 1.011e-3
-2.299, 1.011e-3
