Dec. 22, 2024   00:35:56
Cyclic Voltammetry
File: c:/users/guazh/data/banditlqround7_x0exp667_r5/2024-12-16-exp726\exp726-2024-12-22t00_28_54-h2koh\exp726_cv_sr_300mvs_efin_-1400mv.bin
Data Source:  Experiment
Instrument Model:  CHI760E
Header: CV ran at 300 mVs
Note: 

Init E (V) = -1
High E (V) = -1
Low E (V) = -1.4
Final E (V) = -1
Init P/N = N
Scan Rate (V/s) = 0.3
Segment = 3
Sample Interval (V) = 0.001
Quiet Time (sec) = 2
Sensitivity (A/V) = 0.01
Comp R (ohm) = 1.4

Results:

Channel 1:
Segment 1:

Segment 2:

Segment 3:

Potential/V, Current/A

-1.000, -1.571e-4
-1.001, -3.376e-5
-1.002, 5.873e-5
-1.003, 1.358e-4
-1.004, 2.160e-4
-1.005, 2.961e-4
-1.006, 3.701e-4
-1.007, 4.256e-4
-1.008, 4.719e-4
-1.009, 5.243e-4
-1.010, 5.859e-4
-1.011, 6.384e-4
-1.012, 6.784e-4
-1.013, 7.062e-4
-1.014, 7.463e-4
-1.015, 7.925e-4
-1.016, 8.357e-4
-1.017, 8.665e-4
-1.018, 8.881e-4
-1.019, 9.220e-4
-1.020, 9.621e-4
-1.021, 9.991e-4
-1.022, 1.021e-3
-1.023, 1.039e-3
-1.024, 1.064e-3
-1.025, 1.104e-3
-1.026, 1.135e-3
-1.027, 1.156e-3
-1.028, 1.169e-3
-1.029, 1.190e-3
-1.030, 1.221e-3
-1.031, 1.252e-3
-1.032, 1.270e-3
-1.033, 1.283e-3
-1.034, 1.304e-3
-1.035, 1.335e-3
-1.036, 1.363e-3
-1.037, 1.381e-3
-1.038, 1.397e-3
-1.039, 1.415e-3
-1.040, 1.446e-3
-1.041, 1.474e-3
-1.042, 1.486e-3
-1.043, 1.495e-3
-1.044, 1.520e-3
-1.045, 1.551e-3
-1.046, 1.579e-3
-1.047, 1.588e-3
-1.048, 1.600e-3
-1.049, 1.625e-3
-1.050, 1.656e-3
-1.051, 1.677e-3
-1.052, 1.687e-3
-1.053, 1.693e-3
-1.054, 1.717e-3
-1.055, 1.751e-3
-1.056, 1.782e-3
-1.057, 1.795e-3
-1.058, 1.804e-3
-1.059, 1.825e-3
-1.060, 1.853e-3
-1.061, 1.884e-3
-1.062, 1.899e-3
-1.063, 1.909e-3
-1.064, 1.927e-3
-1.065, 1.958e-3
-1.066, 1.989e-3
-1.067, 2.010e-3
-1.068, 2.020e-3
-1.069, 2.035e-3
-1.070, 2.063e-3
-1.071, 2.091e-3
-1.072, 2.109e-3
-1.073, 2.121e-3
-1.074, 2.140e-3
-1.075, 2.171e-3
-1.076, 2.201e-3
-1.077, 2.217e-3
-1.078, 2.226e-3
-1.079, 2.248e-3
-1.080, 2.279e-3
-1.081, 2.309e-3
-1.082, 2.325e-3
-1.083, 2.334e-3
-1.084, 2.353e-3
-1.085, 2.380e-3
-1.086, 2.408e-3
-1.087, 2.423e-3
-1.088, 2.433e-3
-1.089, 2.451e-3
-1.090, 2.482e-3
-1.091, 2.507e-3
-1.092, 2.522e-3
-1.093, 2.531e-3
-1.094, 2.550e-3
-1.095, 2.578e-3
-1.096, 2.605e-3
-1.097, 2.618e-3
-1.098, 2.627e-3
-1.099, 2.645e-3
-1.100, 2.673e-3
-1.101, 2.701e-3
-1.102, 2.716e-3
-1.103, 2.723e-3
-1.104, 2.738e-3
-1.105, 2.769e-3
-1.106, 2.793e-3
-1.107, 2.806e-3
-1.108, 2.812e-3
-1.109, 2.830e-3
-1.110, 2.858e-3
-1.111, 2.883e-3
-1.112, 2.898e-3
-1.113, 2.908e-3
-1.114, 2.923e-3
-1.115, 2.954e-3
-1.116, 2.978e-3
-1.117, 2.988e-3
-1.118, 2.994e-3
-1.119, 3.009e-3
-1.120, 3.037e-3
-1.121, 3.065e-3
-1.122, 3.077e-3
-1.123, 3.083e-3
-1.124, 3.099e-3
-1.125, 3.126e-3
-1.126, 3.154e-3
-1.127, 3.163e-3
-1.128, 3.170e-3
-1.129, 3.182e-3
-1.130, 3.213e-3
-1.131, 3.237e-3
-1.132, 3.250e-3
-1.133, 3.256e-3
-1.134, 3.271e-3
-1.135, 3.296e-3
-1.136, 3.321e-3
-1.137, 3.333e-3
-1.138, 3.339e-3
-1.139, 3.351e-3
-1.140, 3.376e-3
-1.141, 3.398e-3
-1.142, 3.410e-3
-1.143, 3.416e-3
-1.144, 3.432e-3
-1.145, 3.456e-3
-1.146, 3.478e-3
-1.147, 3.490e-3
-1.148, 3.493e-3
-1.149, 3.506e-3
-1.150, 3.533e-3
-1.151, 3.555e-3
-1.152, 3.561e-3
-1.153, 3.564e-3
-1.154, 3.589e-3
-1.155, 3.626e-3
-1.156, 3.654e-3
-1.157, 3.663e-3
-1.158, 3.663e-3
-1.159, 3.672e-3
-1.160, 3.697e-3
-1.161, 3.718e-3
-1.162, 3.728e-3
-1.163, 3.734e-3
-1.164, 3.752e-3
-1.165, 3.777e-3
-1.166, 3.799e-3
-1.167, 3.808e-3
-1.168, 3.808e-3
-1.169, 3.823e-3
-1.170, 3.851e-3
-1.171, 3.873e-3
-1.172, 3.879e-3
-1.173, 3.876e-3
-1.174, 3.888e-3
-1.175, 3.913e-3
-1.176, 3.937e-3
-1.177, 3.950e-3
-1.178, 3.953e-3
-1.179, 3.959e-3
-1.180, 3.980e-3
-1.181, 4.005e-3
-1.182, 4.014e-3
-1.183, 4.017e-3
-1.184, 4.027e-3
-1.185, 4.045e-3
-1.186, 4.064e-3
-1.187, 4.067e-3
-1.188, 4.064e-3
-1.189, 4.073e-3
-1.190, 4.098e-3
-1.191, 4.119e-3
-1.192, 4.125e-3
-1.193, 4.122e-3
-1.194, 4.132e-3
-1.195, 4.156e-3
-1.196, 4.175e-3
-1.197, 4.181e-3
-1.198, 4.181e-3
-1.199, 4.184e-3
-1.200, 4.199e-3
-1.201, 4.215e-3
-1.202, 4.218e-3
-1.203, 4.215e-3
-1.204, 4.221e-3
-1.205, 4.239e-3
-1.206, 4.264e-3
-1.207, 4.270e-3
-1.208, 4.267e-3
-1.209, 4.270e-3
-1.210, 4.286e-3
-1.211, 4.298e-3
-1.212, 4.301e-3
-1.213, 4.292e-3
-1.214, 4.295e-3
-1.215, 4.310e-3
-1.216, 4.326e-3
-1.217, 4.323e-3
-1.218, 4.313e-3
-1.219, 4.313e-3
-1.220, 4.326e-3
-1.221, 4.335e-3
-1.222, 4.335e-3
-1.223, 4.326e-3
-1.224, 4.326e-3
-1.225, 4.338e-3
-1.226, 4.347e-3
-1.227, 4.344e-3
-1.228, 4.335e-3
-1.229, 4.335e-3
-1.230, 4.341e-3
-1.231, 4.344e-3
-1.232, 4.338e-3
-1.233, 4.329e-3
-1.234, 4.326e-3
-1.235, 4.335e-3
-1.236, 4.347e-3
-1.237, 4.344e-3
-1.238, 4.335e-3
-1.239, 4.326e-3
-1.240, 4.326e-3
-1.241, 4.320e-3
-1.242, 4.313e-3
-1.243, 4.298e-3
-1.244, 4.289e-3
-1.245, 4.289e-3
-1.246, 4.292e-3
-1.247, 4.280e-3
-1.248, 4.258e-3
-1.249, 4.249e-3
-1.250, 4.246e-3
-1.251, 4.233e-3
-1.252, 4.199e-3
-1.253, 4.165e-3
-1.254, 4.150e-3
-1.255, 4.153e-3
-1.256, 4.156e-3
-1.257, 4.141e-3
-1.258, 4.104e-3
-1.259, 4.079e-3
-1.260, 4.076e-3
-1.261, 4.076e-3
-1.262, 4.064e-3
-1.263, 4.039e-3
-1.264, 4.021e-3
-1.265, 4.014e-3
-1.266, 4.008e-3
-1.267, 3.990e-3
-1.268, 3.962e-3
-1.269, 3.940e-3
-1.270, 3.934e-3
-1.271, 3.925e-3
-1.272, 3.903e-3
-1.273, 3.876e-3
-1.274, 3.851e-3
-1.275, 3.839e-3
-1.276, 3.826e-3
-1.277, 3.795e-3
-1.278, 3.765e-3
-1.279, 3.740e-3
-1.280, 3.728e-3
-1.281, 3.712e-3
-1.282, 3.681e-3
-1.283, 3.644e-3
-1.284, 3.623e-3
-1.285, 3.607e-3
-1.286, 3.592e-3
-1.287, 3.558e-3
-1.288, 3.530e-3
-1.289, 3.509e-3
-1.290, 3.496e-3
-1.291, 3.481e-3
-1.292, 3.453e-3
-1.293, 3.416e-3
-1.294, 3.392e-3
-1.295, 3.379e-3
-1.296, 3.367e-3
-1.297, 3.333e-3
-1.298, 3.287e-3
-1.299, 3.256e-3
-1.300, 3.244e-3
-1.301, 3.231e-3
-1.302, 3.207e-3
-1.303, 3.167e-3
-1.304, 3.139e-3
-1.305, 3.126e-3
-1.306, 3.114e-3
-1.307, 3.086e-3
-1.308, 3.052e-3
-1.309, 3.031e-3
-1.310, 3.022e-3
-1.311, 3.009e-3
-1.312, 2.982e-3
-1.313, 2.948e-3
-1.314, 2.929e-3
-1.315, 2.926e-3
-1.316, 2.914e-3
-1.317, 2.892e-3
-1.318, 2.864e-3
-1.319, 2.843e-3
-1.320, 2.840e-3
-1.321, 2.830e-3
-1.322, 2.809e-3
-1.323, 2.784e-3
-1.324, 2.772e-3
-1.325, 2.766e-3
-1.326, 2.760e-3
-1.327, 2.741e-3
-1.328, 2.719e-3
-1.329, 2.707e-3
-1.330, 2.704e-3
-1.331, 2.701e-3
-1.332, 2.686e-3
-1.333, 2.661e-3
-1.334, 2.649e-3
-1.335, 2.649e-3
-1.336, 2.642e-3
-1.337, 2.624e-3
-1.338, 2.599e-3
-1.339, 2.587e-3
-1.340, 2.590e-3
-1.341, 2.590e-3
-1.342, 2.581e-3
-1.343, 2.562e-3
-1.344, 2.553e-3
-1.345, 2.556e-3
-1.346, 2.556e-3
-1.347, 2.547e-3
-1.348, 2.531e-3
-1.349, 2.525e-3
-1.350, 2.531e-3
-1.351, 2.534e-3
-1.352, 2.525e-3
-1.353, 2.510e-3
-1.354, 2.504e-3
-1.355, 2.513e-3
-1.356, 2.522e-3
-1.357, 2.516e-3
-1.358, 2.507e-3
-1.359, 2.504e-3
-1.360, 2.513e-3
-1.361, 2.522e-3
-1.362, 2.522e-3
-1.363, 2.513e-3
-1.364, 2.513e-3
-1.365, 2.522e-3
-1.366, 2.531e-3
-1.367, 2.528e-3
-1.368, 2.519e-3
-1.369, 2.525e-3
-1.370, 2.541e-3
-1.371, 2.556e-3
-1.372, 2.556e-3
-1.373, 2.550e-3
-1.374, 2.556e-3
-1.375, 2.575e-3
-1.376, 2.593e-3
-1.377, 2.596e-3
-1.378, 2.593e-3
-1.379, 2.599e-3
-1.380, 2.621e-3
-1.381, 2.642e-3
-1.382, 2.655e-3
-1.383, 2.655e-3
-1.384, 2.667e-3
-1.385, 2.689e-3
-1.386, 2.713e-3
-1.387, 2.723e-3
-1.388, 2.726e-3
-1.389, 2.738e-3
-1.390, 2.769e-3
-1.391, 2.793e-3
-1.392, 2.806e-3
-1.393, 2.815e-3
-1.394, 2.830e-3
-1.395, 2.864e-3
-1.396, 2.898e-3
-1.397, 2.920e-3
-1.398, 2.932e-3
-1.399, 2.954e-3
-1.400, 2.898e-3
-1.399, 2.701e-3
-1.398, 2.522e-3
-1.397, 2.359e-3
-1.396, 2.220e-3
-1.395, 2.109e-3
-1.394, 2.013e-3
-1.393, 1.915e-3
-1.392, 1.816e-3
-1.391, 1.733e-3
-1.390, 1.668e-3
-1.389, 1.606e-3
-1.388, 1.536e-3
-1.387, 1.468e-3
-1.386, 1.406e-3
-1.385, 1.363e-3
-1.384, 1.320e-3
-1.383, 1.267e-3
-1.382, 1.209e-3
-1.381, 1.162e-3
-1.380, 1.125e-3
-1.379, 1.092e-3
-1.378, 1.048e-3
-1.377, 9.991e-4
-1.376, 9.559e-4
-1.375, 9.282e-4
-1.374, 9.004e-4
-1.373, 8.603e-4
-1.372, 8.141e-4
-1.371, 7.802e-4
-1.370, 7.555e-4
-1.369, 7.309e-4
-1.368, 6.939e-4
-1.367, 6.507e-4
-1.366, 6.168e-4
-1.365, 5.983e-4
-1.364, 5.767e-4
-1.363, 5.428e-4
-1.362, 5.058e-4
-1.361, 4.750e-4
-1.360, 4.565e-4
-1.359, 4.380e-4
-1.358, 4.071e-4
-1.357, 3.701e-4
-1.356, 3.393e-4
-1.355, 3.270e-4
-1.354, 3.054e-4
-1.353, 2.776e-4
-1.352, 2.437e-4
-1.351, 2.160e-4
-1.350, 2.006e-4
-1.349, 1.851e-4
-1.348, 1.574e-4
-1.347, 1.266e-4
-1.346, 9.882e-5
-1.345, 8.648e-5
-1.344, 7.415e-5
-1.343, 4.640e-5
-1.342, 1.557e-5
-1.341, -9.093e-6
-1.340, -2.143e-5
-1.339, -3.068e-5
-1.338, -5.842e-5
-1.337, -8.925e-5
-1.336, -1.108e-4
-1.335, -1.232e-4
-1.334, -1.324e-4
-1.333, -1.540e-4
-1.332, -1.879e-4
-1.331, -2.064e-4
-1.330, -2.157e-4
-1.329, -2.280e-4
-1.328, -2.465e-4
-1.327, -2.773e-4
-1.326, -2.989e-4
-1.325, -3.051e-4
-1.324, -3.143e-4
-1.323, -3.359e-4
-1.322, -3.637e-4
-1.321, -3.791e-4
-1.320, -3.852e-4
-1.319, -3.945e-4
-1.318, -4.161e-4
-1.317, -4.407e-4
-1.316, -4.592e-4
-1.315, -4.654e-4
-1.314, -4.716e-4
-1.313, -4.901e-4
-1.312, -5.147e-4
-1.311, -5.332e-4
-1.310, -5.394e-4
-1.309, -5.425e-4
-1.308, -5.610e-4
-1.307, -5.856e-4
-1.306, -6.011e-4
-1.305, -6.072e-4
-1.304, -6.103e-4
-1.303, -6.288e-4
-1.302, -6.535e-4
-1.301, -6.689e-4
-1.300, -6.689e-4
-1.299, -6.750e-4
-1.298, -6.905e-4
-1.297, -7.151e-4
-1.296, -7.305e-4
-1.295, -7.305e-4
-1.294, -7.367e-4
-1.293, -7.521e-4
-1.292, -7.737e-4
-1.291, -7.891e-4
-1.290, -7.891e-4
-1.289, -7.922e-4
-1.288, -8.076e-4
-1.287, -8.292e-4
-1.286, -8.415e-4
-1.285, -8.415e-4
-1.284, -8.446e-4
-1.283, -8.600e-4
-1.282, -8.816e-4
-1.281, -8.939e-4
-1.280, -8.970e-4
-1.279, -8.970e-4
-1.278, -9.124e-4
-1.277, -9.309e-4
-1.276, -9.433e-4
-1.275, -9.433e-4
-1.274, -9.433e-4
-1.273, -9.556e-4
-1.272, -9.772e-4
-1.271, -9.895e-4
-1.270, -9.864e-4
-1.269, -9.864e-4
-1.268, -1.002e-3
-1.267, -1.020e-3
-1.266, -1.033e-3
-1.265, -1.033e-3
-1.264, -1.033e-3
-1.263, -1.045e-3
-1.262, -1.064e-3
-1.261, -1.073e-3
-1.260, -1.073e-3
-1.259, -1.073e-3
-1.258, -1.085e-3
-1.257, -1.104e-3
-1.256, -1.113e-3
-1.255, -1.110e-3
-1.254, -1.113e-3
-1.253, -1.125e-3
-1.252, -1.144e-3
-1.251, -1.153e-3
-1.250, -1.153e-3
-1.249, -1.153e-3
-1.248, -1.162e-3
-1.247, -1.184e-3
-1.246, -1.193e-3
-1.245, -1.190e-3
-1.244, -1.190e-3
-1.243, -1.199e-3
-1.242, -1.218e-3
-1.241, -1.230e-3
-1.240, -1.224e-3
-1.239, -1.221e-3
-1.238, -1.230e-3
-1.237, -1.252e-3
-1.236, -1.267e-3
-1.235, -1.270e-3
-1.234, -1.273e-3
-1.233, -1.282e-3
-1.232, -1.301e-3
-1.231, -1.313e-3
-1.230, -1.316e-3
-1.229, -1.319e-3
-1.228, -1.332e-3
-1.227, -1.350e-3
-1.226, -1.353e-3
-1.225, -1.347e-3
-1.224, -1.344e-3
-1.223, -1.353e-3
-1.222, -1.372e-3
-1.221, -1.378e-3
-1.220, -1.375e-3
-1.219, -1.372e-3
-1.218, -1.381e-3
-1.217, -1.400e-3
-1.216, -1.409e-3
-1.215, -1.406e-3
-1.214, -1.406e-3
-1.213, -1.415e-3
-1.212, -1.433e-3
-1.211, -1.446e-3
-1.210, -1.443e-3
-1.209, -1.443e-3
-1.208, -1.455e-3
-1.207, -1.477e-3
-1.206, -1.486e-3
-1.205, -1.486e-3
-1.204, -1.489e-3
-1.203, -1.501e-3
-1.202, -1.520e-3
-1.201, -1.532e-3
-1.200, -1.529e-3
-1.199, -1.532e-3
-1.198, -1.544e-3
-1.197, -1.566e-3
-1.196, -1.578e-3
-1.195, -1.578e-3
-1.194, -1.578e-3
-1.193, -1.594e-3
-1.192, -1.609e-3
-1.191, -1.615e-3
-1.190, -1.618e-3
-1.189, -1.618e-3
-1.188, -1.637e-3
-1.187, -1.655e-3
-1.186, -1.662e-3
-1.185, -1.662e-3
-1.184, -1.662e-3
-1.183, -1.674e-3
-1.182, -1.696e-3
-1.181, -1.708e-3
-1.180, -1.705e-3
-1.179, -1.705e-3
-1.178, -1.720e-3
-1.177, -1.745e-3
-1.176, -1.757e-3
-1.175, -1.757e-3
-1.174, -1.757e-3
-1.173, -1.773e-3
-1.172, -1.794e-3
-1.171, -1.810e-3
-1.170, -1.813e-3
-1.169, -1.816e-3
-1.168, -1.831e-3
-1.167, -1.856e-3
-1.166, -1.871e-3
-1.165, -1.874e-3
-1.164, -1.877e-3
-1.163, -1.893e-3
-1.162, -1.918e-3
-1.161, -1.930e-3
-1.160, -1.930e-3
-1.159, -1.933e-3
-1.158, -1.948e-3
-1.157, -1.970e-3
-1.156, -1.985e-3
-1.155, -1.988e-3
-1.154, -1.992e-3
-1.153, -2.010e-3
-1.152, -2.035e-3
-1.151, -2.050e-3
-1.150, -2.053e-3
-1.149, -2.059e-3
-1.148, -2.075e-3
-1.147, -2.099e-3
-1.146, -2.115e-3
-1.145, -2.121e-3
-1.144, -2.127e-3
-1.143, -2.146e-3
-1.142, -2.170e-3
-1.141, -2.183e-3
-1.140, -2.192e-3
-1.139, -2.195e-3
-1.138, -2.214e-3
-1.137, -2.241e-3
-1.136, -2.260e-3
-1.135, -2.263e-3
-1.134, -2.269e-3
-1.133, -2.288e-3
-1.132, -2.315e-3
-1.131, -2.331e-3
-1.130, -2.340e-3
-1.129, -2.346e-3
-1.128, -2.365e-3
-1.127, -2.389e-3
-1.126, -2.408e-3
-1.125, -2.420e-3
-1.124, -2.432e-3
-1.123, -2.451e-3
-1.122, -2.476e-3
-1.121, -2.491e-3
-1.120, -2.497e-3
-1.119, -2.503e-3
-1.118, -2.522e-3
-1.117, -2.550e-3
-1.116, -2.571e-3
-1.115, -2.577e-3
-1.114, -2.583e-3
-1.113, -2.605e-3
-1.112, -2.633e-3
-1.111, -2.654e-3
-1.110, -2.661e-3
-1.109, -2.667e-3
-1.108, -2.691e-3
-1.107, -2.716e-3
-1.106, -2.735e-3
-1.105, -2.744e-3
-1.104, -2.756e-3
-1.103, -2.781e-3
-1.102, -2.809e-3
-1.101, -2.827e-3
-1.100, -2.833e-3
-1.099, -2.839e-3
-1.098, -2.861e-3
-1.097, -2.889e-3
-1.096, -2.907e-3
-1.095, -2.913e-3
-1.094, -2.923e-3
-1.093, -2.944e-3
-1.092, -2.972e-3
-1.091, -2.990e-3
-1.090, -3.000e-3
-1.089, -3.009e-3
-1.088, -3.027e-3
-1.087, -3.055e-3
-1.086, -3.077e-3
-1.085, -3.086e-3
-1.084, -3.092e-3
-1.083, -3.108e-3
-1.082, -3.135e-3
-1.081, -3.157e-3
-1.080, -3.166e-3
-1.079, -3.172e-3
-1.078, -3.194e-3
-1.077, -3.225e-3
-1.076, -3.249e-3
-1.075, -3.259e-3
-1.074, -3.265e-3
-1.073, -3.286e-3
-1.072, -3.311e-3
-1.071, -3.330e-3
-1.070, -3.333e-3
-1.069, -3.342e-3
-1.068, -3.367e-3
-1.067, -3.394e-3
-1.066, -3.413e-3
-1.065, -3.422e-3
-1.064, -3.425e-3
-1.063, -3.444e-3
-1.062, -3.475e-3
-1.061, -3.499e-3
-1.060, -3.508e-3
-1.059, -3.512e-3
-1.058, -3.524e-3
-1.057, -3.549e-3
-1.056, -3.567e-3
-1.055, -3.576e-3
-1.054, -3.582e-3
-1.053, -3.601e-3
-1.052, -3.629e-3
-1.051, -3.647e-3
-1.050, -3.653e-3
-1.049, -3.659e-3
-1.048, -3.681e-3
-1.047, -3.712e-3
-1.046, -3.730e-3
-1.045, -3.737e-3
-1.044, -3.740e-3
-1.043, -3.758e-3
-1.042, -3.783e-3
-1.041, -3.804e-3
-1.040, -3.811e-3
-1.039, -3.817e-3
-1.038, -3.835e-3
-1.037, -3.863e-3
-1.036, -3.881e-3
-1.035, -3.888e-3
-1.034, -3.894e-3
-1.033, -3.912e-3
-1.032, -3.937e-3
-1.031, -3.955e-3
-1.030, -3.962e-3
-1.029, -3.971e-3
-1.028, -3.989e-3
-1.027, -4.017e-3
-1.026, -4.039e-3
-1.025, -4.045e-3
-1.024, -4.054e-3
-1.023, -4.073e-3
-1.022, -4.100e-3
-1.021, -4.122e-3
-1.020, -4.131e-3
-1.019, -4.140e-3
-1.018, -4.162e-3
-1.017, -4.190e-3
-1.016, -4.214e-3
-1.015, -4.224e-3
-1.014, -4.236e-3
-1.013, -4.255e-3
-1.012, -4.279e-3
-1.011, -4.292e-3
-1.010, -4.292e-3
-1.009, -4.298e-3
-1.008, -4.316e-3
-1.007, -4.347e-3
-1.006, -4.369e-3
-1.005, -4.375e-3
-1.004, -4.378e-3
-1.003, -4.390e-3
-1.002, -4.415e-3
-1.001, -4.433e-3
