Mar. 11, 2025   02:12:52
Cyclic Voltammetry
File: c:/users/guazh/data/banditlqround7_x0exp891_r5/2025-03-03-exp872\exp872-2025-03-11t02_05_02-arkoh\exp872_cv_sr_600mvs_efin_-1400mv.bin
Data Source:  Experiment
Instrument Model:  CHI760E
Header: CV ran at 600 mVs
Note: 

Init E (V) = -1
High E (V) = -1
Low E (V) = -1.4
Final E (V) = -1
Init P/N = N
Scan Rate (V/s) = 0.6
Segment = 3
Sample Interval (V) = 0.001
Quiet Time (sec) = 2
Sensitivity (A/V) = 0.01
Comp R (ohm) = 2.2

Results:

Channel 1:
Segment 1:

Segment 2:

Segment 3:

Potential/V, Current/A

-1.000, 1.865e-5
-1.001, 1.142e-4
-1.002, 1.882e-4
-1.003, 2.530e-4
-1.004, 3.146e-4
-1.005, 3.640e-4
-1.006, 4.102e-4
-1.007, 4.503e-4
-1.008, 4.873e-4
-1.009, 5.181e-4
-1.010, 5.459e-4
-1.011, 5.674e-4
-1.012, 5.921e-4
-1.013, 6.106e-4
-1.014, 6.291e-4
-1.015, 6.476e-4
-1.016, 6.661e-4
-1.017, 6.815e-4
-1.018, 6.969e-4
-1.019, 7.093e-4
-1.020, 7.185e-4
-1.021, 7.278e-4
-1.022, 7.370e-4
-1.023, 7.463e-4
-1.024, 7.555e-4
-1.025, 7.648e-4
-1.026, 7.740e-4
-1.027, 7.802e-4
-1.028, 7.863e-4
-1.029, 7.925e-4
-1.030, 7.987e-4
-1.031, 8.018e-4
-1.032, 8.048e-4
-1.033, 8.110e-4
-1.034, 8.172e-4
-1.035, 8.233e-4
-1.036, 8.295e-4
-1.037, 8.326e-4
-1.038, 8.388e-4
-1.039, 8.388e-4
-1.040, 8.418e-4
-1.041, 8.449e-4
-1.042, 8.449e-4
-1.043, 8.511e-4
-1.044, 8.542e-4
-1.045, 8.603e-4
-1.046, 8.634e-4
-1.047, 8.665e-4
-1.048, 8.696e-4
-1.049, 8.696e-4
-1.050, 8.696e-4
-1.051, 8.727e-4
-1.052, 8.727e-4
-1.053, 8.758e-4
-1.054, 8.788e-4
-1.055, 8.850e-4
-1.056, 8.881e-4
-1.057, 8.912e-4
-1.058, 8.943e-4
-1.059, 8.943e-4
-1.060, 8.973e-4
-1.061, 8.943e-4
-1.062, 8.973e-4
-1.063, 9.004e-4
-1.064, 9.004e-4
-1.065, 9.035e-4
-1.066, 9.066e-4
-1.067, 9.097e-4
-1.068, 9.128e-4
-1.069, 9.097e-4
-1.070, 9.128e-4
-1.071, 9.128e-4
-1.072, 9.128e-4
-1.073, 9.158e-4
-1.074, 9.189e-4
-1.075, 9.251e-4
-1.076, 9.282e-4
-1.077, 9.282e-4
-1.078, 9.313e-4
-1.079, 9.313e-4
-1.080, 9.313e-4
-1.081, 9.282e-4
-1.082, 9.282e-4
-1.083, 9.313e-4
-1.084, 9.374e-4
-1.085, 9.374e-4
-1.086, 9.405e-4
-1.087, 9.436e-4
-1.088, 9.436e-4
-1.089, 9.436e-4
-1.090, 9.436e-4
-1.091, 9.436e-4
-1.092, 9.467e-4
-1.093, 9.498e-4
-1.094, 9.528e-4
-1.095, 9.559e-4
-1.096, 9.559e-4
-1.097, 9.590e-4
-1.098, 9.590e-4
-1.099, 9.590e-4
-1.100, 9.590e-4
-1.101, 9.590e-4
-1.102, 9.621e-4
-1.103, 9.652e-4
-1.104, 9.683e-4
-1.105, 9.744e-4
-1.106, 9.775e-4
-1.107, 9.775e-4
-1.108, 9.775e-4
-1.109, 9.775e-4
-1.110, 9.775e-4
-1.111, 9.744e-4
-1.112, 9.744e-4
-1.113, 9.775e-4
-1.114, 9.775e-4
-1.115, 9.806e-4
-1.116, 9.868e-4
-1.117, 9.868e-4
-1.118, 9.929e-4
-1.119, 9.929e-4
-1.120, 9.960e-4
-1.121, 9.960e-4
-1.122, 9.960e-4
-1.123, 9.960e-4
-1.124, 9.991e-4
-1.125, 9.991e-4
-1.126, 1.002e-3
-1.127, 1.005e-3
-1.128, 1.005e-3
-1.129, 1.005e-3
-1.130, 1.005e-3
-1.131, 1.008e-3
-1.132, 1.008e-3
-1.133, 1.008e-3
-1.134, 1.014e-3
-1.135, 1.018e-3
-1.136, 1.021e-3
-1.137, 1.024e-3
-1.138, 1.027e-3
-1.139, 1.027e-3
-1.140, 1.030e-3
-1.141, 1.027e-3
-1.142, 1.030e-3
-1.143, 1.030e-3
-1.144, 1.030e-3
-1.145, 1.036e-3
-1.146, 1.036e-3
-1.147, 1.039e-3
-1.148, 1.042e-3
-1.149, 1.042e-3
-1.150, 1.042e-3
-1.151, 1.042e-3
-1.152, 1.045e-3
-1.153, 1.048e-3
-1.154, 1.051e-3
-1.155, 1.055e-3
-1.156, 1.058e-3
-1.157, 1.058e-3
-1.158, 1.058e-3
-1.159, 1.058e-3
-1.160, 1.058e-3
-1.161, 1.058e-3
-1.162, 1.061e-3
-1.163, 1.061e-3
-1.164, 1.067e-3
-1.165, 1.070e-3
-1.166, 1.073e-3
-1.167, 1.076e-3
-1.168, 1.076e-3
-1.169, 1.079e-3
-1.170, 1.079e-3
-1.171, 1.079e-3
-1.172, 1.079e-3
-1.173, 1.079e-3
-1.174, 1.082e-3
-1.175, 1.085e-3
-1.176, 1.088e-3
-1.177, 1.092e-3
-1.178, 1.095e-3
-1.179, 1.095e-3
-1.180, 1.098e-3
-1.181, 1.095e-3
-1.182, 1.098e-3
-1.183, 1.101e-3
-1.184, 1.104e-3
-1.185, 1.107e-3
-1.186, 1.110e-3
-1.187, 1.113e-3
-1.188, 1.116e-3
-1.189, 1.116e-3
-1.190, 1.116e-3
-1.191, 1.113e-3
-1.192, 1.113e-3
-1.193, 1.116e-3
-1.194, 1.119e-3
-1.195, 1.122e-3
-1.196, 1.125e-3
-1.197, 1.129e-3
-1.198, 1.132e-3
-1.199, 1.132e-3
-1.200, 1.135e-3
-1.201, 1.135e-3
-1.202, 1.138e-3
-1.203, 1.141e-3
-1.204, 1.141e-3
-1.205, 1.144e-3
-1.206, 1.147e-3
-1.207, 1.147e-3
-1.208, 1.150e-3
-1.209, 1.150e-3
-1.210, 1.150e-3
-1.211, 1.150e-3
-1.212, 1.153e-3
-1.213, 1.153e-3
-1.214, 1.156e-3
-1.215, 1.159e-3
-1.216, 1.162e-3
-1.217, 1.166e-3
-1.218, 1.169e-3
-1.219, 1.169e-3
-1.220, 1.169e-3
-1.221, 1.169e-3
-1.222, 1.175e-3
-1.223, 1.175e-3
-1.224, 1.178e-3
-1.225, 1.181e-3
-1.226, 1.181e-3
-1.227, 1.181e-3
-1.228, 1.184e-3
-1.229, 1.187e-3
-1.230, 1.187e-3
-1.231, 1.187e-3
-1.232, 1.190e-3
-1.233, 1.196e-3
-1.234, 1.196e-3
-1.235, 1.199e-3
-1.236, 1.203e-3
-1.237, 1.203e-3
-1.238, 1.203e-3
-1.239, 1.199e-3
-1.240, 1.199e-3
-1.241, 1.203e-3
-1.242, 1.203e-3
-1.243, 1.206e-3
-1.244, 1.212e-3
-1.245, 1.215e-3
-1.246, 1.221e-3
-1.247, 1.224e-3
-1.248, 1.221e-3
-1.249, 1.221e-3
-1.250, 1.221e-3
-1.251, 1.224e-3
-1.252, 1.227e-3
-1.253, 1.230e-3
-1.254, 1.236e-3
-1.255, 1.240e-3
-1.256, 1.243e-3
-1.257, 1.243e-3
-1.258, 1.246e-3
-1.259, 1.246e-3
-1.260, 1.246e-3
-1.261, 1.246e-3
-1.262, 1.252e-3
-1.263, 1.255e-3
-1.264, 1.261e-3
-1.265, 1.264e-3
-1.266, 1.270e-3
-1.267, 1.273e-3
-1.268, 1.280e-3
-1.269, 1.283e-3
-1.270, 1.286e-3
-1.271, 1.286e-3
-1.272, 1.289e-3
-1.273, 1.292e-3
-1.274, 1.295e-3
-1.275, 1.298e-3
-1.276, 1.307e-3
-1.277, 1.310e-3
-1.278, 1.317e-3
-1.279, 1.320e-3
-1.280, 1.323e-3
-1.281, 1.329e-3
-1.282, 1.335e-3
-1.283, 1.341e-3
-1.284, 1.347e-3
-1.285, 1.357e-3
-1.286, 1.366e-3
-1.287, 1.372e-3
-1.288, 1.378e-3
-1.289, 1.384e-3
-1.290, 1.391e-3
-1.291, 1.394e-3
-1.292, 1.403e-3
-1.293, 1.409e-3
-1.294, 1.418e-3
-1.295, 1.431e-3
-1.296, 1.440e-3
-1.297, 1.452e-3
-1.298, 1.465e-3
-1.299, 1.474e-3
-1.300, 1.483e-3
-1.301, 1.492e-3
-1.302, 1.502e-3
-1.303, 1.514e-3
-1.304, 1.526e-3
-1.305, 1.542e-3
-1.306, 1.557e-3
-1.307, 1.573e-3
-1.308, 1.588e-3
-1.309, 1.603e-3
-1.310, 1.619e-3
-1.311, 1.637e-3
-1.312, 1.656e-3
-1.313, 1.677e-3
-1.314, 1.696e-3
-1.315, 1.717e-3
-1.316, 1.739e-3
-1.317, 1.764e-3
-1.318, 1.785e-3
-1.319, 1.807e-3
-1.320, 1.832e-3
-1.321, 1.856e-3
-1.322, 1.884e-3
-1.323, 1.909e-3
-1.324, 1.936e-3
-1.325, 1.970e-3
-1.326, 2.004e-3
-1.327, 2.038e-3
-1.328, 2.072e-3
-1.329, 2.109e-3
-1.330, 2.146e-3
-1.331, 2.183e-3
-1.332, 2.223e-3
-1.333, 2.266e-3
-1.334, 2.312e-3
-1.335, 2.362e-3
-1.336, 2.414e-3
-1.337, 2.467e-3
-1.338, 2.519e-3
-1.339, 2.575e-3
-1.340, 2.627e-3
-1.341, 2.682e-3
-1.342, 2.744e-3
-1.343, 2.803e-3
-1.344, 2.871e-3
-1.345, 2.941e-3
-1.346, 3.015e-3
-1.347, 3.093e-3
-1.348, 3.176e-3
-1.349, 3.262e-3
-1.350, 3.355e-3
-1.351, 3.444e-3
-1.352, 3.543e-3
-1.353, 3.644e-3
-1.354, 3.743e-3
-1.355, 3.842e-3
-1.356, 3.947e-3
-1.357, 4.051e-3
-1.358, 4.162e-3
-1.359, 4.276e-3
-1.360, 4.394e-3
-1.361, 4.517e-3
-1.362, 4.646e-3
-1.363, 4.782e-3
-1.364, 4.921e-3
-1.365, 5.060e-3
-1.366, 5.204e-3
-1.367, 5.346e-3
-1.368, 5.491e-3
-1.369, 5.633e-3
-1.370, 5.762e-3
-1.371, 5.898e-3
-1.372, 6.043e-3
-1.373, 6.194e-3
-1.374, 6.351e-3
-1.375, 6.515e-3
-1.376, 6.678e-3
-1.377, 6.835e-3
-1.378, 6.990e-3
-1.379, 7.138e-3
-1.380, 7.282e-3
-1.381, 7.418e-3
-1.382, 7.557e-3
-1.383, 7.705e-3
-1.384, 7.862e-3
-1.385, 8.032e-3
-1.386, 8.201e-3
-1.387, 8.368e-3
-1.388, 8.534e-3
-1.389, 8.688e-3
-1.390, 8.836e-3
-1.391, 8.969e-3
-1.392, 9.105e-3
-1.393, 9.249e-3
-1.394, 9.391e-3
-1.395, 9.530e-3
-1.396, 9.678e-3
-1.397, 9.823e-3
-1.398, 9.962e-3
-1.399, 1.011e-2
-1.400, 1.017e-2
-1.399, 1.012e-2
-1.398, 1.008e-2
-1.397, 1.003e-2
-1.396, 9.986e-3
-1.395, 9.937e-3
-1.394, 9.888e-3
-1.393, 9.841e-3
-1.392, 9.786e-3
-1.391, 9.721e-3
-1.390, 9.666e-3
-1.389, 9.607e-3
-1.388, 9.552e-3
-1.387, 9.496e-3
-1.386, 9.434e-3
-1.385, 9.370e-3
-1.384, 9.308e-3
-1.383, 9.234e-3
-1.382, 9.163e-3
-1.381, 9.089e-3
-1.380, 9.021e-3
-1.379, 8.954e-3
-1.378, 8.886e-3
-1.377, 8.821e-3
-1.376, 8.759e-3
-1.375, 8.701e-3
-1.374, 8.636e-3
-1.373, 8.562e-3
-1.372, 8.482e-3
-1.371, 8.395e-3
-1.370, 8.315e-3
-1.369, 8.235e-3
-1.368, 8.161e-3
-1.367, 8.090e-3
-1.366, 8.022e-3
-1.365, 7.964e-3
-1.364, 7.905e-3
-1.363, 7.837e-3
-1.362, 7.767e-3
-1.361, 7.693e-3
-1.360, 7.619e-3
-1.359, 7.541e-3
-1.358, 7.471e-3
-1.357, 7.397e-3
-1.356, 7.326e-3
-1.355, 7.249e-3
-1.354, 7.168e-3
-1.353, 7.088e-3
-1.352, 7.014e-3
-1.351, 6.940e-3
-1.350, 6.869e-3
-1.349, 6.795e-3
-1.348, 6.724e-3
-1.347, 6.654e-3
-1.346, 6.586e-3
-1.345, 6.515e-3
-1.344, 6.441e-3
-1.343, 6.364e-3
-1.342, 6.284e-3
-1.341, 6.206e-3
-1.340, 6.132e-3
-1.339, 6.058e-3
-1.338, 5.988e-3
-1.337, 5.917e-3
-1.336, 5.849e-3
-1.335, 5.778e-3
-1.334, 5.707e-3
-1.333, 5.636e-3
-1.332, 5.562e-3
-1.331, 5.491e-3
-1.330, 5.420e-3
-1.329, 5.346e-3
-1.328, 5.278e-3
-1.327, 5.211e-3
-1.326, 5.143e-3
-1.325, 5.072e-3
-1.324, 5.001e-3
-1.323, 4.936e-3
-1.322, 4.868e-3
-1.321, 4.797e-3
-1.320, 4.733e-3
-1.319, 4.665e-3
-1.318, 4.597e-3
-1.317, 4.532e-3
-1.316, 4.461e-3
-1.315, 4.397e-3
-1.314, 4.338e-3
-1.313, 4.273e-3
-1.312, 4.212e-3
-1.311, 4.147e-3
-1.310, 4.082e-3
-1.309, 4.014e-3
-1.308, 3.947e-3
-1.307, 3.882e-3
-1.306, 3.820e-3
-1.305, 3.758e-3
-1.304, 3.697e-3
-1.303, 3.635e-3
-1.302, 3.577e-3
-1.301, 3.515e-3
-1.300, 3.453e-3
-1.299, 3.392e-3
-1.298, 3.333e-3
-1.297, 3.278e-3
-1.296, 3.219e-3
-1.295, 3.160e-3
-1.294, 3.102e-3
-1.293, 3.043e-3
-1.292, 2.985e-3
-1.291, 2.929e-3
-1.290, 2.867e-3
-1.289, 2.809e-3
-1.288, 2.753e-3
-1.287, 2.698e-3
-1.286, 2.642e-3
-1.285, 2.593e-3
-1.284, 2.541e-3
-1.283, 2.488e-3
-1.282, 2.436e-3
-1.281, 2.380e-3
-1.280, 2.325e-3
-1.279, 2.272e-3
-1.278, 2.217e-3
-1.277, 2.168e-3
-1.276, 2.118e-3
-1.275, 2.069e-3
-1.274, 2.023e-3
-1.273, 1.973e-3
-1.272, 1.924e-3
-1.271, 1.875e-3
-1.270, 1.825e-3
-1.269, 1.776e-3
-1.268, 1.727e-3
-1.267, 1.680e-3
-1.266, 1.637e-3
-1.265, 1.594e-3
-1.264, 1.551e-3
-1.263, 1.505e-3
-1.262, 1.465e-3
-1.261, 1.418e-3
-1.260, 1.375e-3
-1.259, 1.332e-3
-1.258, 1.289e-3
-1.257, 1.249e-3
-1.256, 1.209e-3
-1.255, 1.172e-3
-1.254, 1.135e-3
-1.253, 1.095e-3
-1.252, 1.055e-3
-1.251, 1.018e-3
-1.250, 9.775e-4
-1.249, 9.405e-4
-1.248, 9.035e-4
-1.247, 8.665e-4
-1.246, 8.326e-4
-1.245, 7.987e-4
-1.244, 7.648e-4
-1.243, 7.278e-4
-1.242, 6.939e-4
-1.241, 6.599e-4
-1.240, 6.260e-4
-1.239, 5.952e-4
-1.238, 5.613e-4
-1.237, 5.305e-4
-1.236, 5.027e-4
-1.235, 4.719e-4
-1.234, 4.441e-4
-1.233, 4.164e-4
-1.232, 3.886e-4
-1.231, 3.578e-4
-1.230, 3.270e-4
-1.229, 2.961e-4
-1.228, 2.684e-4
-1.227, 2.437e-4
-1.226, 2.191e-4
-1.225, 1.944e-4
-1.224, 1.697e-4
-1.223, 1.481e-4
-1.222, 1.204e-4
-1.221, 9.573e-5
-1.220, 7.107e-5
-1.219, 4.640e-5
-1.218, 2.482e-5
-1.217, 3.239e-6
-1.216, -1.834e-5
-1.215, -3.992e-5
-1.214, -5.842e-5
-1.213, -8.000e-5
-1.212, -9.850e-5
-1.211, -1.201e-4
-1.210, -1.417e-4
-1.209, -1.632e-4
-1.208, -1.817e-4
-1.207, -2.002e-4
-1.206, -2.157e-4
-1.205, -2.311e-4
-1.204, -2.496e-4
-1.203, -2.650e-4
-1.202, -2.835e-4
-1.201, -3.020e-4
-1.200, -3.205e-4
-1.199, -3.359e-4
-1.198, -3.544e-4
-1.197, -3.667e-4
-1.196, -3.821e-4
-1.195, -3.945e-4
-1.194, -4.068e-4
-1.193, -4.191e-4
-1.192, -4.346e-4
-1.191, -4.500e-4
-1.190, -4.654e-4
-1.189, -4.777e-4
-1.188, -4.931e-4
-1.187, -5.055e-4
-1.186, -5.178e-4
-1.185, -5.271e-4
-1.184, -5.394e-4
-1.183, -5.517e-4
-1.182, -5.641e-4
-1.181, -5.733e-4
-1.180, -5.856e-4
-1.179, -5.980e-4
-1.178, -6.103e-4
-1.177, -6.195e-4
-1.176, -6.288e-4
-1.175, -6.350e-4
-1.174, -6.442e-4
-1.173, -6.565e-4
-1.172, -6.658e-4
-1.171, -6.750e-4
-1.170, -6.874e-4
-1.169, -6.997e-4
-1.168, -7.059e-4
-1.167, -7.151e-4
-1.166, -7.213e-4
-1.165, -7.305e-4
-1.164, -7.367e-4
-1.163, -7.429e-4
-1.162, -7.521e-4
-1.161, -7.614e-4
-1.160, -7.706e-4
-1.159, -7.830e-4
-1.158, -7.891e-4
-1.157, -7.953e-4
-1.156, -8.015e-4
-1.155, -8.076e-4
-1.154, -8.107e-4
-1.153, -8.169e-4
-1.152, -8.230e-4
-1.151, -8.323e-4
-1.150, -8.385e-4
-1.149, -8.477e-4
-1.148, -8.569e-4
-1.147, -8.631e-4
-1.146, -8.693e-4
-1.145, -8.724e-4
-1.144, -8.754e-4
-1.143, -8.816e-4
-1.142, -8.878e-4
-1.141, -8.939e-4
-1.140, -9.001e-4
-1.139, -9.063e-4
-1.138, -9.124e-4
-1.137, -9.186e-4
-1.136, -9.217e-4
-1.135, -9.248e-4
-1.134, -9.309e-4
-1.133, -9.371e-4
-1.132, -9.433e-4
-1.131, -9.494e-4
-1.130, -9.556e-4
-1.129, -9.618e-4
-1.128, -9.649e-4
-1.127, -9.679e-4
-1.126, -9.710e-4
-1.125, -9.741e-4
-1.124, -9.772e-4
-1.123, -9.772e-4
-1.122, -9.834e-4
-1.121, -9.895e-4
-1.120, -9.957e-4
-1.119, -1.002e-3
-1.118, -1.008e-3
-1.117, -1.014e-3
-1.116, -1.017e-3
-1.115, -1.017e-3
-1.114, -1.020e-3
-1.113, -1.023e-3
-1.112, -1.027e-3
-1.111, -1.030e-3
-1.110, -1.036e-3
-1.109, -1.039e-3
-1.108, -1.045e-3
-1.107, -1.048e-3
-1.106, -1.051e-3
-1.105, -1.051e-3
-1.104, -1.054e-3
-1.103, -1.057e-3
-1.102, -1.064e-3
-1.101, -1.067e-3
-1.100, -1.070e-3
-1.099, -1.076e-3
-1.098, -1.079e-3
-1.097, -1.079e-3
-1.096, -1.079e-3
-1.095, -1.079e-3
-1.094, -1.079e-3
-1.093, -1.082e-3
-1.092, -1.085e-3
-1.091, -1.085e-3
-1.090, -1.091e-3
-1.089, -1.094e-3
-1.088, -1.097e-3
-1.087, -1.101e-3
-1.086, -1.101e-3
-1.085, -1.101e-3
-1.084, -1.104e-3
-1.083, -1.104e-3
-1.082, -1.104e-3
-1.081, -1.107e-3
-1.080, -1.113e-3
-1.079, -1.116e-3
-1.078, -1.119e-3
-1.077, -1.119e-3
-1.076, -1.122e-3
-1.075, -1.122e-3
-1.074, -1.122e-3
-1.073, -1.125e-3
-1.072, -1.125e-3
-1.071, -1.131e-3
-1.070, -1.134e-3
-1.069, -1.138e-3
-1.068, -1.141e-3
-1.067, -1.141e-3
-1.066, -1.141e-3
-1.065, -1.141e-3
-1.064, -1.141e-3
-1.063, -1.141e-3
-1.062, -1.141e-3
-1.061, -1.144e-3
-1.060, -1.144e-3
-1.059, -1.147e-3
-1.058, -1.147e-3
-1.057, -1.150e-3
-1.056, -1.150e-3
-1.055, -1.150e-3
-1.054, -1.153e-3
-1.053, -1.153e-3
-1.052, -1.156e-3
-1.051, -1.159e-3
-1.050, -1.159e-3
-1.049, -1.159e-3
-1.048, -1.159e-3
-1.047, -1.159e-3
-1.046, -1.159e-3
-1.045, -1.159e-3
-1.044, -1.159e-3
-1.043, -1.162e-3
-1.042, -1.162e-3
-1.041, -1.165e-3
-1.040, -1.165e-3
-1.039, -1.168e-3
-1.038, -1.171e-3
-1.037, -1.171e-3
-1.036, -1.175e-3
-1.035, -1.175e-3
-1.034, -1.171e-3
-1.033, -1.171e-3
-1.032, -1.168e-3
-1.031, -1.171e-3
-1.030, -1.171e-3
-1.029, -1.175e-3
-1.028, -1.178e-3
-1.027, -1.181e-3
-1.026, -1.181e-3
-1.025, -1.181e-3
-1.024, -1.181e-3
-1.023, -1.181e-3
-1.022, -1.184e-3
-1.021, -1.184e-3
-1.020, -1.187e-3
-1.019, -1.190e-3
-1.018, -1.193e-3
-1.017, -1.193e-3
-1.016, -1.193e-3
-1.015, -1.190e-3
-1.014, -1.190e-3
-1.013, -1.190e-3
-1.012, -1.190e-3
-1.011, -1.193e-3
-1.010, -1.199e-3
-1.009, -1.199e-3
-1.008, -1.202e-3
-1.007, -1.208e-3
-1.006, -1.205e-3
-1.005, -1.205e-3
-1.004, -1.205e-3
-1.003, -1.205e-3
-1.002, -1.205e-3
-1.001, -1.208e-3
