Aug. 9, 2024   02:36:13
Amperometric i-t Curve
File: c:/users/guazh/data/20240802_batch_500/2024-08-02-exp60\exp60deposition-2024-08-09t02_31_26-deposition\exp60deposition_it_edep_-120mv.bin
Data Source:  Experiment
Instrument Model:  CHI760E
Header: 
Note: 

Init E (V) = -1.2
Sample Interval (s) = 0.1
Run Time (sec) = 120
Quiet Time (sec) = 2
Sensitivity (A/V) = 0.001
Comp R (ohm) = 15.8

Results:

Channel 1:

Time/sec, Current/A

1.000e-1, 7.189e-4
2.000e-1, 7.204e-4
3.000e-1, 7.227e-4
4.000e-1, 7.200e-4
5.000e-1, 7.178e-4
6.000e-1, 7.125e-4
7.000e-1, 7.057e-4
8.000e-1, 6.989e-4
9.000e-1, 6.954e-4
1.000e+0, 6.886e-4
1.100e+0, 6.834e-4
1.200e+0, 6.759e-4
1.300e+0, 6.693e-4
1.400e+0, 6.615e-4
1.500e+0, 6.537e-4
1.600e+0, 6.457e-4
1.700e+0, 6.393e-4
1.800e+0, 6.344e-4
1.900e+0, 6.321e-4
2.000e+0, 6.311e-4
2.100e+0, 6.269e-4
2.200e+0, 6.205e-4
2.300e+0, 6.149e-4
2.400e+0, 6.150e-4
2.500e+0, 6.185e-4
2.600e+0, 6.204e-4
2.700e+0, 6.193e-4
2.800e+0, 6.156e-4
2.900e+0, 6.098e-4
3.000e+0, 6.049e-4
3.100e+0, 6.001e-4
3.200e+0, 5.948e-4
3.300e+0, 5.910e-4
3.400e+0, 5.881e-4
3.500e+0, 5.841e-4
3.600e+0, 5.833e-4
3.700e+0, 5.824e-4
3.800e+0, 5.817e-4
3.900e+0, 5.784e-4
4.000e+0, 5.758e-4
4.100e+0, 5.731e-4
4.200e+0, 5.709e-4
4.300e+0, 5.695e-4
4.400e+0, 5.669e-4
4.500e+0, 5.669e-4
4.600e+0, 5.651e-4
4.700e+0, 5.652e-4
4.800e+0, 5.630e-4
4.900e+0, 5.595e-4
5.000e+0, 5.568e-4
5.100e+0, 5.533e-4
5.200e+0, 5.519e-4
5.300e+0, 5.509e-4
5.400e+0, 5.504e-4
5.500e+0, 5.532e-4
5.600e+0, 5.551e-4
5.700e+0, 5.596e-4
5.800e+0, 5.639e-4
5.900e+0, 5.668e-4
6.000e+0, 5.683e-4
6.100e+0, 5.692e-4
6.200e+0, 5.679e-4
6.300e+0, 5.670e-4
6.400e+0, 5.643e-4
6.500e+0, 5.610e-4
6.600e+0, 5.573e-4
6.700e+0, 5.547e-4
6.800e+0, 5.498e-4
6.900e+0, 5.458e-4
7.000e+0, 5.428e-4
7.100e+0, 5.404e-4
7.200e+0, 5.392e-4
7.300e+0, 5.375e-4
7.400e+0, 5.362e-4
7.500e+0, 5.349e-4
7.600e+0, 5.332e-4
7.700e+0, 5.332e-4
7.800e+0, 5.346e-4
7.900e+0, 5.379e-4
8.000e+0, 5.398e-4
8.100e+0, 5.434e-4
8.200e+0, 5.458e-4
8.300e+0, 5.481e-4
8.400e+0, 5.502e-4
8.500e+0, 5.509e-4
8.600e+0, 5.489e-4
8.700e+0, 5.476e-4
8.800e+0, 5.465e-4
8.900e+0, 5.442e-4
9.000e+0, 5.423e-4
9.100e+0, 5.397e-4
9.200e+0, 5.372e-4
9.300e+0, 5.356e-4
9.400e+0, 5.351e-4
9.500e+0, 5.349e-4
9.600e+0, 5.330e-4
9.700e+0, 5.308e-4
9.800e+0, 5.294e-4
9.900e+0, 5.278e-4
1.000e+1, 5.253e-4
1.010e+1, 5.248e-4
1.020e+1, 5.242e-4
1.030e+1, 5.235e-4
1.040e+1, 5.229e-4
1.050e+1, 5.221e-4
1.060e+1, 5.225e-4
1.070e+1, 5.231e-4
1.080e+1, 5.243e-4
1.090e+1, 5.247e-4
1.100e+1, 5.261e-4
1.110e+1, 5.268e-4
1.120e+1, 5.268e-4
1.130e+1, 5.286e-4
1.140e+1, 5.290e-4
1.150e+1, 5.276e-4
1.160e+1, 5.288e-4
1.170e+1, 5.307e-4
1.180e+1, 5.312e-4
1.190e+1, 5.303e-4
1.200e+1, 5.290e-4
1.210e+1, 5.282e-4
1.220e+1, 5.297e-4
1.230e+1, 5.299e-4
1.240e+1, 5.290e-4
1.250e+1, 5.267e-4
1.260e+1, 5.259e-4
1.270e+1, 5.254e-4
1.280e+1, 5.275e-4
1.290e+1, 5.286e-4
1.300e+1, 5.272e-4
1.310e+1, 5.284e-4
1.320e+1, 5.284e-4
1.330e+1, 5.364e-4
1.340e+1, 5.503e-4
1.350e+1, 5.619e-4
1.360e+1, 5.685e-4
1.370e+1, 5.706e-4
1.380e+1, 5.703e-4
1.390e+1, 5.682e-4
1.400e+1, 5.649e-4
1.410e+1, 5.597e-4
1.420e+1, 5.575e-4
1.430e+1, 5.524e-4
1.440e+1, 5.467e-4
1.450e+1, 5.415e-4
1.460e+1, 5.387e-4
1.470e+1, 5.398e-4
1.480e+1, 5.418e-4
1.490e+1, 5.447e-4
1.500e+1, 5.556e-4
1.510e+1, 5.644e-4
1.520e+1, 5.675e-4
1.530e+1, 5.668e-4
1.540e+1, 5.655e-4
1.550e+1, 5.637e-4
1.560e+1, 5.605e-4
1.570e+1, 5.559e-4
1.580e+1, 5.532e-4
1.590e+1, 5.505e-4
1.600e+1, 5.464e-4
1.610e+1, 5.439e-4
1.620e+1, 5.414e-4
1.630e+1, 5.377e-4
1.640e+1, 5.363e-4
1.650e+1, 5.349e-4
1.660e+1, 5.322e-4
1.670e+1, 5.328e-4
1.680e+1, 5.337e-4
1.690e+1, 5.344e-4
1.700e+1, 5.350e-4
1.710e+1, 5.362e-4
1.720e+1, 5.362e-4
1.730e+1, 5.365e-4
1.740e+1, 5.370e-4
1.750e+1, 5.355e-4
1.760e+1, 5.393e-4
1.770e+1, 5.439e-4
1.780e+1, 5.467e-4
1.790e+1, 5.496e-4
1.800e+1, 5.524e-4
1.810e+1, 5.543e-4
1.820e+1, 5.554e-4
1.830e+1, 5.573e-4
1.840e+1, 5.587e-4
1.850e+1, 5.597e-4
1.860e+1, 5.618e-4
1.870e+1, 5.640e-4
1.880e+1, 5.649e-4
1.890e+1, 5.665e-4
1.900e+1, 5.665e-4
1.910e+1, 5.663e-4
1.920e+1, 5.659e-4
1.930e+1, 5.632e-4
1.940e+1, 5.625e-4
1.950e+1, 5.611e-4
1.960e+1, 5.598e-4
1.970e+1, 5.595e-4
1.980e+1, 5.597e-4
1.990e+1, 5.575e-4
2.000e+1, 5.603e-4
2.010e+1, 5.634e-4
2.020e+1, 5.632e-4
2.030e+1, 5.635e-4
2.040e+1, 5.634e-4
2.050e+1, 5.606e-4
2.060e+1, 5.611e-4
2.070e+1, 5.626e-4
2.080e+1, 5.599e-4
2.090e+1, 5.599e-4
2.100e+1, 5.601e-4
2.110e+1, 5.590e-4
2.120e+1, 5.576e-4
2.130e+1, 5.555e-4
2.140e+1, 5.546e-4
2.150e+1, 5.529e-4
2.160e+1, 5.529e-4
2.170e+1, 5.527e-4
2.180e+1, 5.517e-4
2.190e+1, 5.515e-4
2.200e+1, 5.507e-4
2.210e+1, 5.508e-4
2.220e+1, 5.517e-4
2.230e+1, 5.523e-4
2.240e+1, 5.545e-4
2.250e+1, 5.572e-4
2.260e+1, 5.579e-4
2.270e+1, 5.594e-4
2.280e+1, 5.593e-4
2.290e+1, 5.569e-4
2.300e+1, 5.571e-4
2.310e+1, 5.566e-4
2.320e+1, 5.537e-4
2.330e+1, 5.537e-4
2.340e+1, 5.528e-4
2.350e+1, 5.527e-4
2.360e+1, 5.520e-4
2.370e+1, 5.503e-4
2.380e+1, 5.528e-4
2.390e+1, 5.576e-4
2.400e+1, 5.618e-4
2.410e+1, 5.629e-4
2.420e+1, 5.656e-4
2.430e+1, 5.668e-4
2.440e+1, 5.665e-4
2.450e+1, 5.662e-4
2.460e+1, 5.649e-4
2.470e+1, 5.613e-4
2.480e+1, 5.595e-4
2.490e+1, 5.583e-4
2.500e+1, 5.564e-4
2.510e+1, 5.552e-4
2.520e+1, 5.547e-4
2.530e+1, 5.524e-4
2.540e+1, 5.526e-4
2.550e+1, 5.547e-4
2.560e+1, 5.575e-4
2.570e+1, 5.588e-4
2.580e+1, 5.614e-4
2.590e+1, 5.665e-4
2.600e+1, 5.706e-4
2.610e+1, 5.731e-4
2.620e+1, 5.735e-4
2.630e+1, 5.721e-4
2.640e+1, 5.704e-4
2.650e+1, 5.715e-4
2.660e+1, 5.725e-4
2.670e+1, 5.762e-4
2.680e+1, 5.801e-4
2.690e+1, 5.837e-4
2.700e+1, 5.861e-4
2.710e+1, 5.889e-4
2.720e+1, 5.907e-4
2.730e+1, 5.921e-4
2.740e+1, 5.921e-4
2.750e+1, 5.914e-4
2.760e+1, 5.922e-4
2.770e+1, 5.940e-4
2.780e+1, 5.963e-4
2.790e+1, 5.989e-4
2.800e+1, 5.993e-4
2.810e+1, 5.991e-4
2.820e+1, 5.981e-4
2.830e+1, 5.964e-4
2.840e+1, 5.952e-4
2.850e+1, 5.950e-4
2.860e+1, 5.939e-4
2.870e+1, 5.922e-4
2.880e+1, 5.899e-4
2.890e+1, 5.890e-4
2.900e+1, 5.873e-4
2.910e+1, 5.839e-4
2.920e+1, 5.822e-4
2.930e+1, 5.819e-4
2.940e+1, 5.810e-4
2.950e+1, 5.798e-4
2.960e+1, 5.793e-4
2.970e+1, 5.778e-4
2.980e+1, 5.775e-4
2.990e+1, 5.769e-4
3.000e+1, 5.756e-4
3.010e+1, 5.752e-4
3.020e+1, 5.750e-4
3.030e+1, 5.742e-4
3.040e+1, 5.757e-4
3.050e+1, 5.754e-4
3.060e+1, 5.742e-4
3.070e+1, 5.749e-4
3.080e+1, 5.744e-4
3.090e+1, 5.743e-4
3.100e+1, 5.750e-4
3.110e+1, 5.761e-4
3.120e+1, 5.761e-4
3.130e+1, 5.781e-4
3.140e+1, 5.787e-4
3.150e+1, 5.786e-4
3.160e+1, 5.810e-4
3.170e+1, 5.810e-4
3.180e+1, 5.822e-4
3.190e+1, 5.822e-4
3.200e+1, 5.821e-4
3.210e+1, 5.807e-4
3.220e+1, 5.803e-4
3.230e+1, 5.787e-4
3.240e+1, 5.768e-4
3.250e+1, 5.757e-4
3.260e+1, 5.759e-4
3.270e+1, 5.777e-4
3.280e+1, 5.821e-4
3.290e+1, 5.871e-4
3.300e+1, 5.896e-4
3.310e+1, 5.907e-4
3.320e+1, 5.911e-4
3.330e+1, 5.903e-4
3.340e+1, 5.896e-4
3.350e+1, 5.887e-4
3.360e+1, 5.889e-4
3.370e+1, 5.901e-4
3.380e+1, 5.896e-4
3.390e+1, 5.887e-4
3.400e+1, 5.907e-4
3.410e+1, 5.920e-4
3.420e+1, 5.924e-4
3.430e+1, 5.941e-4
3.440e+1, 5.959e-4
3.450e+1, 5.960e-4
3.460e+1, 5.955e-4
3.470e+1, 5.941e-4
3.480e+1, 5.920e-4
3.490e+1, 5.891e-4
3.500e+1, 5.877e-4
3.510e+1, 5.871e-4
3.520e+1, 5.875e-4
3.530e+1, 5.886e-4
3.540e+1, 5.881e-4
3.550e+1, 5.866e-4
3.560e+1, 5.846e-4
3.570e+1, 5.825e-4
3.580e+1, 5.811e-4
3.590e+1, 5.809e-4
3.600e+1, 5.819e-4
3.610e+1, 5.845e-4
3.620e+1, 5.860e-4
3.630e+1, 5.842e-4
3.640e+1, 5.823e-4
3.650e+1, 5.801e-4
3.660e+1, 5.779e-4
3.670e+1, 5.752e-4
3.680e+1, 5.737e-4
3.690e+1, 5.719e-4
3.700e+1, 5.698e-4
3.710e+1, 5.695e-4
3.720e+1, 5.684e-4
3.730e+1, 5.673e-4
3.740e+1, 5.660e-4
3.750e+1, 5.649e-4
3.760e+1, 5.636e-4
3.770e+1, 5.651e-4
3.780e+1, 5.652e-4
3.790e+1, 5.658e-4
3.800e+1, 5.655e-4
3.810e+1, 5.626e-4
3.820e+1, 5.638e-4
3.830e+1, 5.636e-4
3.840e+1, 5.627e-4
3.850e+1, 5.612e-4
3.860e+1, 5.618e-4
3.870e+1, 5.615e-4
3.880e+1, 5.611e-4
3.890e+1, 5.603e-4
3.900e+1, 5.593e-4
3.910e+1, 5.591e-4
3.920e+1, 5.591e-4
3.930e+1, 5.586e-4
3.940e+1, 5.606e-4
3.950e+1, 5.612e-4
3.960e+1, 5.628e-4
3.970e+1, 5.639e-4
3.980e+1, 5.660e-4
3.990e+1, 5.655e-4
4.000e+1, 5.639e-4
4.010e+1, 5.630e-4
4.020e+1, 5.715e-4
4.030e+1, 5.808e-4
4.040e+1, 5.886e-4
4.050e+1, 5.939e-4
4.060e+1, 5.980e-4
4.070e+1, 6.016e-4
4.080e+1, 6.043e-4
4.090e+1, 6.124e-4
4.100e+1, 6.237e-4
4.110e+1, 6.286e-4
4.120e+1, 6.298e-4
4.130e+1, 6.264e-4
4.140e+1, 6.208e-4
4.150e+1, 6.146e-4
4.160e+1, 6.087e-4
4.170e+1, 6.037e-4
4.180e+1, 5.967e-4
4.190e+1, 5.925e-4
4.200e+1, 5.891e-4
4.210e+1, 5.845e-4
4.220e+1, 5.817e-4
4.230e+1, 5.793e-4
4.240e+1, 5.813e-4
4.250e+1, 5.837e-4
4.260e+1, 5.849e-4
4.270e+1, 5.838e-4
4.280e+1, 5.847e-4
4.290e+1, 5.838e-4
4.300e+1, 5.821e-4
4.310e+1, 5.836e-4
4.320e+1, 5.827e-4
4.330e+1, 5.804e-4
4.340e+1, 5.785e-4
4.350e+1, 5.766e-4
4.360e+1, 5.752e-4
4.370e+1, 5.765e-4
4.380e+1, 5.770e-4
4.390e+1, 5.777e-4
4.400e+1, 5.797e-4
4.410e+1, 5.810e-4
4.420e+1, 5.822e-4
4.430e+1, 5.849e-4
4.440e+1, 5.845e-4
4.450e+1, 5.841e-4
4.460e+1, 5.833e-4
4.470e+1, 5.803e-4
4.480e+1, 5.795e-4
4.490e+1, 5.777e-4
4.500e+1, 5.759e-4
4.510e+1, 5.745e-4
4.520e+1, 5.719e-4
4.530e+1, 5.729e-4
4.540e+1, 5.739e-4
4.550e+1, 5.726e-4
4.560e+1, 5.732e-4
4.570e+1, 5.734e-4
4.580e+1, 5.738e-4
4.590e+1, 5.861e-4
4.600e+1, 6.046e-4
4.610e+1, 6.187e-4
4.620e+1, 6.265e-4
4.630e+1, 6.282e-4
4.640e+1, 6.272e-4
4.650e+1, 6.221e-4
4.660e+1, 6.158e-4
4.670e+1, 6.101e-4
4.680e+1, 6.057e-4
4.690e+1, 5.989e-4
4.700e+1, 5.945e-4
4.710e+1, 5.914e-4
4.720e+1, 5.903e-4
4.730e+1, 5.861e-4
4.740e+1, 5.863e-4
4.750e+1, 5.845e-4
4.760e+1, 5.824e-4
4.770e+1, 5.806e-4
4.780e+1, 5.782e-4
4.790e+1, 5.759e-4
4.800e+1, 5.750e-4
4.810e+1, 5.742e-4
4.820e+1, 5.735e-4
4.830e+1, 5.711e-4
4.840e+1, 5.697e-4
4.850e+1, 5.672e-4
4.860e+1, 5.685e-4
4.870e+1, 5.727e-4
4.880e+1, 5.766e-4
4.890e+1, 5.786e-4
4.900e+1, 5.778e-4
4.910e+1, 5.767e-4
4.920e+1, 5.759e-4
4.930e+1, 5.735e-4
4.940e+1, 5.712e-4
4.950e+1, 5.686e-4
4.960e+1, 5.673e-4
4.970e+1, 5.640e-4
4.980e+1, 5.634e-4
4.990e+1, 5.637e-4
5.000e+1, 5.628e-4
5.010e+1, 5.664e-4
5.020e+1, 5.689e-4
5.030e+1, 5.716e-4
5.040e+1, 5.743e-4
5.050e+1, 5.762e-4
5.060e+1, 5.791e-4
5.070e+1, 5.792e-4
5.080e+1, 5.782e-4
5.090e+1, 5.772e-4
5.100e+1, 5.736e-4
5.110e+1, 5.735e-4
5.120e+1, 5.746e-4
5.130e+1, 5.746e-4
5.140e+1, 5.739e-4
5.150e+1, 5.719e-4
5.160e+1, 5.721e-4
5.170e+1, 5.720e-4
5.180e+1, 5.725e-4
5.190e+1, 5.770e-4
5.200e+1, 5.822e-4
5.210e+1, 5.847e-4
5.220e+1, 5.848e-4
5.230e+1, 5.852e-4
5.240e+1, 5.848e-4
5.250e+1, 5.841e-4
5.260e+1, 5.832e-4
5.270e+1, 5.846e-4
5.280e+1, 5.874e-4
5.290e+1, 5.875e-4
5.300e+1, 5.862e-4
5.310e+1, 5.843e-4
5.320e+1, 5.827e-4
5.330e+1, 5.808e-4
5.340e+1, 5.797e-4
5.350e+1, 5.792e-4
5.360e+1, 5.800e-4
5.370e+1, 5.824e-4
5.380e+1, 5.818e-4
5.390e+1, 5.799e-4
5.400e+1, 5.777e-4
5.410e+1, 5.759e-4
5.420e+1, 5.765e-4
5.430e+1, 5.771e-4
5.440e+1, 5.817e-4
5.450e+1, 5.848e-4
5.460e+1, 5.864e-4
5.470e+1, 5.870e-4
5.480e+1, 5.847e-4
5.490e+1, 5.850e-4
5.500e+1, 5.831e-4
5.510e+1, 5.813e-4
5.520e+1, 5.822e-4
5.530e+1, 5.799e-4
5.540e+1, 5.745e-4
5.550e+1, 5.725e-4
5.560e+1, 5.707e-4
5.570e+1, 5.684e-4
5.580e+1, 5.684e-4
5.590e+1, 5.689e-4
5.600e+1, 5.684e-4
5.610e+1, 5.688e-4
5.620e+1, 5.680e-4
5.630e+1, 5.657e-4
5.640e+1, 5.657e-4
5.650e+1, 5.638e-4
5.660e+1, 5.629e-4
5.670e+1, 5.632e-4
5.680e+1, 5.627e-4
5.690e+1, 5.614e-4
5.700e+1, 5.604e-4
5.710e+1, 5.603e-4
5.720e+1, 5.600e-4
5.730e+1, 5.588e-4
5.740e+1, 5.583e-4
5.750e+1, 5.576e-4
5.760e+1, 5.572e-4
5.770e+1, 5.571e-4
5.780e+1, 5.587e-4
5.790e+1, 5.603e-4
5.800e+1, 5.625e-4
5.810e+1, 5.639e-4
5.820e+1, 5.655e-4
5.830e+1, 5.680e-4
5.840e+1, 5.695e-4
5.850e+1, 5.716e-4
5.860e+1, 5.724e-4
5.870e+1, 5.722e-4
5.880e+1, 5.719e-4
5.890e+1, 5.713e-4
5.900e+1, 5.692e-4
5.910e+1, 5.707e-4
5.920e+1, 5.702e-4
5.930e+1, 5.692e-4
5.940e+1, 5.688e-4
5.950e+1, 5.690e-4
5.960e+1, 5.666e-4
5.970e+1, 5.693e-4
5.980e+1, 5.713e-4
5.990e+1, 5.693e-4
6.000e+1, 5.708e-4
6.010e+1, 5.714e-4
6.020e+1, 5.727e-4
6.030e+1, 5.740e-4
6.040e+1, 5.747e-4
6.050e+1, 5.740e-4
6.060e+1, 5.736e-4
6.070e+1, 5.731e-4
6.080e+1, 5.736e-4
6.090e+1, 5.734e-4
6.100e+1, 5.757e-4
6.110e+1, 5.775e-4
6.120e+1, 5.815e-4
6.130e+1, 5.832e-4
6.140e+1, 5.827e-4
6.150e+1, 5.841e-4
6.160e+1, 5.863e-4
6.170e+1, 5.842e-4
6.180e+1, 5.857e-4
6.190e+1, 5.903e-4
6.200e+1, 6.032e-4
6.210e+1, 6.051e-4
6.220e+1, 6.054e-4
6.230e+1, 6.043e-4
6.240e+1, 6.013e-4
6.250e+1, 6.010e-4
6.260e+1, 5.986e-4
6.270e+1, 5.966e-4
6.280e+1, 5.954e-4
6.290e+1, 5.943e-4
6.300e+1, 5.920e-4
6.310e+1, 5.914e-4
6.320e+1, 5.897e-4
6.330e+1, 5.884e-4
6.340e+1, 5.913e-4
6.350e+1, 5.935e-4
6.360e+1, 5.971e-4
6.370e+1, 5.978e-4
6.380e+1, 5.976e-4
6.390e+1, 5.955e-4
6.400e+1, 5.931e-4
6.410e+1, 5.894e-4
6.420e+1, 5.863e-4
6.430e+1, 5.838e-4
6.440e+1, 5.820e-4
6.450e+1, 5.794e-4
6.460e+1, 5.787e-4
6.470e+1, 5.782e-4
6.480e+1, 5.776e-4
6.490e+1, 5.798e-4
6.500e+1, 5.810e-4
6.510e+1, 5.817e-4
6.520e+1, 5.826e-4
6.530e+1, 5.834e-4
6.540e+1, 5.845e-4
6.550e+1, 5.853e-4
6.560e+1, 5.847e-4
6.570e+1, 5.843e-4
6.580e+1, 5.842e-4
6.590e+1, 5.817e-4
6.600e+1, 5.804e-4
6.610e+1, 5.796e-4
6.620e+1, 5.789e-4
6.630e+1, 5.809e-4
6.640e+1, 5.808e-4
6.650e+1, 5.811e-4
6.660e+1, 5.804e-4
6.670e+1, 5.835e-4
6.680e+1, 5.839e-4
6.690e+1, 5.835e-4
6.700e+1, 5.823e-4
6.710e+1, 5.817e-4
6.720e+1, 5.829e-4
6.730e+1, 5.848e-4
6.740e+1, 5.866e-4
6.750e+1, 5.912e-4
6.760e+1, 5.934e-4
6.770e+1, 5.926e-4
6.780e+1, 5.917e-4
6.790e+1, 5.927e-4
6.800e+1, 5.945e-4
6.810e+1, 5.959e-4
6.820e+1, 5.980e-4
6.830e+1, 5.987e-4
6.840e+1, 5.982e-4
6.850e+1, 5.989e-4
6.860e+1, 5.985e-4
6.870e+1, 5.991e-4
6.880e+1, 5.998e-4
6.890e+1, 6.005e-4
6.900e+1, 6.005e-4
6.910e+1, 6.003e-4
6.920e+1, 5.974e-4
6.930e+1, 5.980e-4
6.940e+1, 5.993e-4
6.950e+1, 5.983e-4
6.960e+1, 5.983e-4
6.970e+1, 5.982e-4
6.980e+1, 5.992e-4
6.990e+1, 6.003e-4
7.000e+1, 6.001e-4
7.010e+1, 5.992e-4
7.020e+1, 6.008e-4
7.030e+1, 5.996e-4
7.040e+1, 5.979e-4
7.050e+1, 5.974e-4
7.060e+1, 5.967e-4
7.070e+1, 5.956e-4
7.080e+1, 5.944e-4
7.090e+1, 5.941e-4
7.100e+1, 5.946e-4
7.110e+1, 5.944e-4
7.120e+1, 5.936e-4
7.130e+1, 5.929e-4
7.140e+1, 5.916e-4
7.150e+1, 5.896e-4
7.160e+1, 5.895e-4
7.170e+1, 5.898e-4
7.180e+1, 5.887e-4
7.190e+1, 5.890e-4
7.200e+1, 5.898e-4
7.210e+1, 5.915e-4
7.220e+1, 5.930e-4
7.230e+1, 5.930e-4
7.240e+1, 5.925e-4
7.250e+1, 5.933e-4
7.260e+1, 5.953e-4
7.270e+1, 5.962e-4
7.280e+1, 5.943e-4
7.290e+1, 5.964e-4
7.300e+1, 5.974e-4
7.310e+1, 5.974e-4
7.320e+1, 5.964e-4
7.330e+1, 5.960e-4
7.340e+1, 5.958e-4
7.350e+1, 5.956e-4
7.360e+1, 5.960e-4
7.370e+1, 5.966e-4
7.380e+1, 5.965e-4
7.390e+1, 5.954e-4
7.400e+1, 5.948e-4
7.410e+1, 5.945e-4
7.420e+1, 5.949e-4
7.430e+1, 5.973e-4
7.440e+1, 5.991e-4
7.450e+1, 5.984e-4
7.460e+1, 6.008e-4
7.470e+1, 6.000e-4
7.480e+1, 5.992e-4
7.490e+1, 5.985e-4
7.500e+1, 5.957e-4
7.510e+1, 5.934e-4
7.520e+1, 5.921e-4
7.530e+1, 5.901e-4
7.540e+1, 5.898e-4
7.550e+1, 5.892e-4
7.560e+1, 5.892e-4
7.570e+1, 5.895e-4
7.580e+1, 5.904e-4
7.590e+1, 5.924e-4
7.600e+1, 5.956e-4
7.610e+1, 5.961e-4
7.620e+1, 6.022e-4
7.630e+1, 6.044e-4
7.640e+1, 6.038e-4
7.650e+1, 6.094e-4
7.660e+1, 6.126e-4
7.670e+1, 6.150e-4
7.680e+1, 6.149e-4
7.690e+1, 6.137e-4
7.700e+1, 6.129e-4
7.710e+1, 6.101e-4
7.720e+1, 6.101e-4
7.730e+1, 6.090e-4
7.740e+1, 6.099e-4
7.750e+1, 6.096e-4
7.760e+1, 6.093e-4
7.770e+1, 6.095e-4
7.780e+1, 6.095e-4
7.790e+1, 6.101e-4
7.800e+1, 6.103e-4
7.810e+1, 6.110e-4
7.820e+1, 6.105e-4
7.830e+1, 6.120e-4
7.840e+1, 6.120e-4
7.850e+1, 6.128e-4
7.860e+1, 6.113e-4
7.870e+1, 6.111e-4
7.880e+1, 6.098e-4
7.890e+1, 6.087e-4
7.900e+1, 6.057e-4
7.910e+1, 6.069e-4
7.920e+1, 6.075e-4
7.930e+1, 6.068e-4
7.940e+1, 6.079e-4
7.950e+1, 6.075e-4
7.960e+1, 6.075e-4
7.970e+1, 6.087e-4
7.980e+1, 6.083e-4
7.990e+1, 6.097e-4
8.000e+1, 6.115e-4
8.010e+1, 6.112e-4
8.020e+1, 6.126e-4
8.030e+1, 6.160e-4
8.040e+1, 6.205e-4
8.050e+1, 6.235e-4
8.060e+1, 6.253e-4
8.070e+1, 6.325e-4
8.080e+1, 6.388e-4
8.090e+1, 6.427e-4
8.100e+1, 6.449e-4
8.110e+1, 6.460e-4
8.120e+1, 6.455e-4
8.130e+1, 6.420e-4
8.140e+1, 6.397e-4
8.150e+1, 6.381e-4
8.160e+1, 6.400e-4
8.170e+1, 6.397e-4
8.180e+1, 6.386e-4
8.190e+1, 6.372e-4
8.200e+1, 6.367e-4
8.210e+1, 6.339e-4
8.220e+1, 6.317e-4
8.230e+1, 6.274e-4
8.240e+1, 6.270e-4
8.250e+1, 6.245e-4
8.260e+1, 6.224e-4
8.270e+1, 6.190e-4
8.280e+1, 6.171e-4
8.290e+1, 6.142e-4
8.300e+1, 6.108e-4
8.310e+1, 6.101e-4
8.320e+1, 6.171e-4
8.330e+1, 6.237e-4
8.340e+1, 6.248e-4
8.350e+1, 6.265e-4
8.360e+1, 6.244e-4
8.370e+1, 6.213e-4
8.380e+1, 6.191e-4
8.390e+1, 6.172e-4
8.400e+1, 6.151e-4
8.410e+1, 6.128e-4
8.420e+1, 6.119e-4
8.430e+1, 6.110e-4
8.440e+1, 6.086e-4
8.450e+1, 6.094e-4
8.460e+1, 6.065e-4
8.470e+1, 6.057e-4
8.480e+1, 6.080e-4
8.490e+1, 6.083e-4
8.500e+1, 6.062e-4
8.510e+1, 6.035e-4
8.520e+1, 6.032e-4
8.530e+1, 6.023e-4
8.540e+1, 6.020e-4
8.550e+1, 6.017e-4
8.560e+1, 6.017e-4
8.570e+1, 6.025e-4
8.580e+1, 6.044e-4
8.590e+1, 6.046e-4
8.600e+1, 6.054e-4
8.610e+1, 6.068e-4
8.620e+1, 6.073e-4
8.630e+1, 6.068e-4
8.640e+1, 6.065e-4
8.650e+1, 6.068e-4
8.660e+1, 6.069e-4
8.670e+1, 6.104e-4
8.680e+1, 6.122e-4
8.690e+1, 6.154e-4
8.700e+1, 6.165e-4
8.710e+1, 6.152e-4
8.720e+1, 6.124e-4
8.730e+1, 6.118e-4
8.740e+1, 6.115e-4
8.750e+1, 6.151e-4
8.760e+1, 6.154e-4
8.770e+1, 6.150e-4
8.780e+1, 6.148e-4
8.790e+1, 6.136e-4
8.800e+1, 6.127e-4
8.810e+1, 6.120e-4
8.820e+1, 6.108e-4
8.830e+1, 6.092e-4
8.840e+1, 6.078e-4
8.850e+1, 6.061e-4
8.860e+1, 6.064e-4
8.870e+1, 6.050e-4
8.880e+1, 6.048e-4
8.890e+1, 6.033e-4
8.900e+1, 6.023e-4
8.910e+1, 6.024e-4
8.920e+1, 6.020e-4
8.930e+1, 6.006e-4
8.940e+1, 6.011e-4
8.950e+1, 6.013e-4
8.960e+1, 6.015e-4
8.970e+1, 6.015e-4
8.980e+1, 6.000e-4
8.990e+1, 5.996e-4
9.000e+1, 5.984e-4
9.010e+1, 5.958e-4
9.020e+1, 5.952e-4
9.030e+1, 5.946e-4
9.040e+1, 5.932e-4
9.050e+1, 5.931e-4
9.060e+1, 5.929e-4
9.070e+1, 5.928e-4
9.080e+1, 5.938e-4
9.090e+1, 5.938e-4
9.100e+1, 5.940e-4
9.110e+1, 5.935e-4
9.120e+1, 5.950e-4
9.130e+1, 5.938e-4
9.140e+1, 5.928e-4
9.150e+1, 5.932e-4
9.160e+1, 5.922e-4
9.170e+1, 5.919e-4
9.180e+1, 5.921e-4
9.190e+1, 5.922e-4
9.200e+1, 5.915e-4
9.210e+1, 5.896e-4
9.220e+1, 5.885e-4
9.230e+1, 5.900e-4
9.240e+1, 5.910e-4
9.250e+1, 5.897e-4
9.260e+1, 5.890e-4
9.270e+1, 5.895e-4
9.280e+1, 5.865e-4
9.290e+1, 5.861e-4
9.300e+1, 5.859e-4
9.310e+1, 5.867e-4
9.320e+1, 5.887e-4
9.330e+1, 5.906e-4
9.340e+1, 5.938e-4
9.350e+1, 5.956e-4
9.360e+1, 5.983e-4
9.370e+1, 6.000e-4
9.380e+1, 6.007e-4
9.390e+1, 6.011e-4
9.400e+1, 5.998e-4
9.410e+1, 5.993e-4
9.420e+1, 5.973e-4
9.430e+1, 5.950e-4
9.440e+1, 5.928e-4
9.450e+1, 5.914e-4
9.460e+1, 5.906e-4
9.470e+1, 5.901e-4
9.480e+1, 5.892e-4
9.490e+1, 5.881e-4
9.500e+1, 5.867e-4
9.510e+1, 5.878e-4
9.520e+1, 5.872e-4
9.530e+1, 5.867e-4
9.540e+1, 5.871e-4
9.550e+1, 5.859e-4
9.560e+1, 5.852e-4
9.570e+1, 5.864e-4
9.580e+1, 5.849e-4
9.590e+1, 5.864e-4
9.600e+1, 5.878e-4
9.610e+1, 5.882e-4
9.620e+1, 5.885e-4
9.630e+1, 5.898e-4
9.640e+1, 5.918e-4
9.650e+1, 5.939e-4
9.660e+1, 6.007e-4
9.670e+1, 6.119e-4
9.680e+1, 6.153e-4
9.690e+1, 6.179e-4
9.700e+1, 6.195e-4
9.710e+1, 6.180e-4
9.720e+1, 6.185e-4
9.730e+1, 6.166e-4
9.740e+1, 6.136e-4
9.750e+1, 6.112e-4
9.760e+1, 6.084e-4
9.770e+1, 6.057e-4
9.780e+1, 6.036e-4
9.790e+1, 6.027e-4
9.800e+1, 6.008e-4
9.810e+1, 6.002e-4
9.820e+1, 6.001e-4
9.830e+1, 5.988e-4
9.840e+1, 5.974e-4
9.850e+1, 5.964e-4
9.860e+1, 5.951e-4
9.870e+1, 5.941e-4
9.880e+1, 5.935e-4
9.890e+1, 5.936e-4
9.900e+1, 5.912e-4
9.910e+1, 5.912e-4
9.920e+1, 5.935e-4
9.930e+1, 5.948e-4
9.940e+1, 5.957e-4
9.950e+1, 5.976e-4
9.960e+1, 5.983e-4
9.970e+1, 5.980e-4
9.980e+1, 5.976e-4
9.990e+1, 5.975e-4
1.000e+2, 5.974e-4
1.001e+2, 5.975e-4
1.002e+2, 5.973e-4
1.003e+2, 5.964e-4
1.004e+2, 5.957e-4
1.005e+2, 5.971e-4
1.006e+2, 5.972e-4
1.007e+2, 5.978e-4
1.008e+2, 5.984e-4
1.009e+2, 6.002e-4
1.010e+2, 6.015e-4
1.011e+2, 5.998e-4
1.012e+2, 6.005e-4
1.013e+2, 5.993e-4
1.014e+2, 5.950e-4
1.015e+2, 5.953e-4
1.016e+2, 5.953e-4
1.017e+2, 5.924e-4
1.018e+2, 5.952e-4
1.019e+2, 5.993e-4
1.020e+2, 5.989e-4
1.021e+2, 5.984e-4
1.022e+2, 6.006e-4
1.023e+2, 6.026e-4
1.024e+2, 6.038e-4
1.025e+2, 6.101e-4
1.026e+2, 6.154e-4
1.027e+2, 6.242e-4
1.028e+2, 6.304e-4
1.029e+2, 6.310e-4
1.030e+2, 6.307e-4
1.031e+2, 6.284e-4
1.032e+2, 6.257e-4
1.033e+2, 6.220e-4
1.034e+2, 6.178e-4
1.035e+2, 6.116e-4
1.036e+2, 6.095e-4
1.037e+2, 6.075e-4
1.038e+2, 6.056e-4
1.039e+2, 6.044e-4
1.040e+2, 6.012e-4
1.041e+2, 5.990e-4
1.042e+2, 5.991e-4
1.043e+2, 5.984e-4
1.044e+2, 5.957e-4
1.045e+2, 5.957e-4
1.046e+2, 5.963e-4
1.047e+2, 5.963e-4
1.048e+2, 5.987e-4
1.049e+2, 5.989e-4
1.050e+2, 5.992e-4
1.051e+2, 6.007e-4
1.052e+2, 6.024e-4
1.053e+2, 6.007e-4
1.054e+2, 6.012e-4
1.055e+2, 6.033e-4
1.056e+2, 6.041e-4
1.057e+2, 6.038e-4
1.058e+2, 6.046e-4
1.059e+2, 6.049e-4
1.060e+2, 6.069e-4
1.061e+2, 6.080e-4
1.062e+2, 6.072e-4
1.063e+2, 6.076e-4
1.064e+2, 6.076e-4
1.065e+2, 6.075e-4
1.066e+2, 6.072e-4
1.067e+2, 6.065e-4
1.068e+2, 6.060e-4
1.069e+2, 6.038e-4
1.070e+2, 6.029e-4
1.071e+2, 6.013e-4
1.072e+2, 6.019e-4
1.073e+2, 5.990e-4
1.074e+2, 5.967e-4
1.075e+2, 5.961e-4
1.076e+2, 5.963e-4
1.077e+2, 5.972e-4
1.078e+2, 5.994e-4
1.079e+2, 6.021e-4
1.080e+2, 6.028e-4
1.081e+2, 6.059e-4
1.082e+2, 6.069e-4
1.083e+2, 6.070e-4
1.084e+2, 6.079e-4
1.085e+2, 6.070e-4
1.086e+2, 6.063e-4
1.087e+2, 6.087e-4
1.088e+2, 6.066e-4
1.089e+2, 6.070e-4
1.090e+2, 6.061e-4
1.091e+2, 6.029e-4
1.092e+2, 6.015e-4
1.093e+2, 6.011e-4
1.094e+2, 6.002e-4
1.095e+2, 5.983e-4
1.096e+2, 5.974e-4
1.097e+2, 5.937e-4
1.098e+2, 5.951e-4
1.099e+2, 5.981e-4
1.100e+2, 5.993e-4
1.101e+2, 5.998e-4
1.102e+2, 5.991e-4
1.103e+2, 5.990e-4
1.104e+2, 5.976e-4
1.105e+2, 5.953e-4
1.106e+2, 5.948e-4
1.107e+2, 5.927e-4
1.108e+2, 5.913e-4
1.109e+2, 5.891e-4
1.110e+2, 5.877e-4
1.111e+2, 5.864e-4
1.112e+2, 5.862e-4
1.113e+2, 5.829e-4
1.114e+2, 5.823e-4
1.115e+2, 5.852e-4
1.116e+2, 5.852e-4
1.117e+2, 5.850e-4
1.118e+2, 5.848e-4
1.119e+2, 5.834e-4
1.120e+2, 5.811e-4
1.121e+2, 5.796e-4
1.122e+2, 5.777e-4
1.123e+2, 5.760e-4
1.124e+2, 5.752e-4
1.125e+2, 5.741e-4
1.126e+2, 5.755e-4
1.127e+2, 5.769e-4
1.128e+2, 5.763e-4
1.129e+2, 5.788e-4
1.130e+2, 5.807e-4
1.131e+2, 5.797e-4
1.132e+2, 5.810e-4
1.133e+2, 5.829e-4
1.134e+2, 5.818e-4
1.135e+2, 5.822e-4
1.136e+2, 5.824e-4
1.137e+2, 5.824e-4
1.138e+2, 5.823e-4
1.139e+2, 5.852e-4
1.140e+2, 5.859e-4
1.141e+2, 5.852e-4
1.142e+2, 5.843e-4
1.143e+2, 5.841e-4
1.144e+2, 5.836e-4
1.145e+2, 5.820e-4
1.146e+2, 5.804e-4
1.147e+2, 5.805e-4
1.148e+2, 5.815e-4
1.149e+2, 5.797e-4
1.150e+2, 5.807e-4
1.151e+2, 5.822e-4
1.152e+2, 5.834e-4
1.153e+2, 5.809e-4
1.154e+2, 5.806e-4
1.155e+2, 5.796e-4
1.156e+2, 5.795e-4
1.157e+2, 5.789e-4
1.158e+2, 5.790e-4
1.159e+2, 5.807e-4
1.160e+2, 5.820e-4
1.161e+2, 5.813e-4
1.162e+2, 5.808e-4
1.163e+2, 5.788e-4
1.164e+2, 5.786e-4
1.165e+2, 5.782e-4
1.166e+2, 5.772e-4
1.167e+2, 5.762e-4
1.168e+2, 5.782e-4
1.169e+2, 5.788e-4
1.170e+2, 5.768e-4
1.171e+2, 5.792e-4
1.172e+2, 5.820e-4
1.173e+2, 5.860e-4
1.174e+2, 5.887e-4
1.175e+2, 5.914e-4
1.176e+2, 5.927e-4
1.177e+2, 5.935e-4
1.178e+2, 5.975e-4
1.179e+2, 6.012e-4
1.180e+2, 6.040e-4
1.181e+2, 6.049e-4
1.182e+2, 6.073e-4
1.183e+2, 6.089e-4
1.184e+2, 6.086e-4
1.185e+2, 6.078e-4
1.186e+2, 6.055e-4
1.187e+2, 6.031e-4
1.188e+2, 6.008e-4
1.189e+2, 5.991e-4
1.190e+2, 5.983e-4
1.191e+2, 5.983e-4
1.192e+2, 5.967e-4
1.193e+2, 5.956e-4
1.194e+2, 5.961e-4
1.195e+2, 5.957e-4
1.196e+2, 5.967e-4
1.197e+2, 5.954e-4
1.198e+2, 5.981e-4
1.199e+2, 6.005e-4
1.200e+2, 6.030e-4
