Sept. 17, 2024   17:51:09
Cyclic Voltammetry
File: c:/users/guazh/data/20240903_batch_252_500/2024-09-03-exp381\exp381-2024-09-17t17_30_10-h2koh\exp381_cv_sr_700mvs_efin_-1800mv.bin
Data Source:  Experiment
Instrument Model:  CHI760E
Header: CV ran at 700 mVs
Note: 

Init E (V) = -1
High E (V) = -1
Low E (V) = -1.8
Final E (V) = -1
Init P/N = N
Scan Rate (V/s) = 0.7
Segment = 3
Sample Interval (V) = 0.001
Quiet Time (sec) = 2
Sensitivity (A/V) = 0.01
Comp R (ohm) = 2.9

Results:

Channel 1:
Segment 1:

Segment 2:

Segment 3:

Potential/V, Current/A

-1.000, 3.239e-6
-1.001, 3.239e-6
-1.002, 3.239e-6
-1.003, 3.239e-6
-1.004, 3.239e-6
-1.005, 3.239e-6
-1.006, 3.239e-6
-1.007, 6.322e-6
-1.008, 3.239e-6
-1.009, 3.239e-6
-1.010, 6.322e-6
-1.011, 3.239e-6
-1.012, 6.322e-6
-1.013, 3.239e-6
-1.014, 3.239e-6
-1.015, 3.239e-6
-1.016, 6.322e-6
-1.017, 3.239e-6
-1.018, 6.322e-6
-1.019, 3.239e-6
-1.020, 3.239e-6
-1.021, 6.322e-6
-1.022, 6.322e-6
-1.023, 6.322e-6
-1.024, 6.322e-6
-1.025, 6.322e-6
-1.026, 3.239e-6
-1.027, 3.239e-6
-1.028, 6.322e-6
-1.029, 6.322e-6
-1.030, 6.322e-6
-1.031, 6.322e-6
-1.032, 6.322e-6
-1.033, 3.239e-6
-1.034, 6.322e-6
-1.035, 6.322e-6
-1.036, 6.322e-6
-1.037, 6.322e-6
-1.038, 6.322e-6
-1.039, 6.322e-6
-1.040, 6.322e-6
-1.041, 6.322e-6
-1.042, 6.322e-6
-1.043, 6.322e-6
-1.044, 3.239e-6
-1.045, 6.322e-6
-1.046, 6.322e-6
-1.047, 6.322e-6
-1.048, 6.322e-6
-1.049, 6.322e-6
-1.050, 6.322e-6
-1.051, 3.239e-6
-1.052, 6.322e-6
-1.053, 6.322e-6
-1.054, 3.239e-6
-1.055, 6.322e-6
-1.056, 6.322e-6
-1.057, 6.322e-6
-1.058, 6.322e-6
-1.059, 6.322e-6
-1.060, 6.322e-6
-1.061, 6.322e-6
-1.062, 6.322e-6
-1.063, 6.322e-6
-1.064, 6.322e-6
-1.065, 6.322e-6
-1.066, 6.322e-6
-1.067, 6.322e-6
-1.068, 6.322e-6
-1.069, 6.322e-6
-1.070, 6.322e-6
-1.071, 6.322e-6
-1.072, 6.322e-6
-1.073, 6.322e-6
-1.074, 6.322e-6
-1.075, 6.322e-6
-1.076, 6.322e-6
-1.077, 6.322e-6
-1.078, 6.322e-6
-1.079, 6.322e-6
-1.080, 6.322e-6
-1.081, 6.322e-6
-1.082, 6.322e-6
-1.083, 6.322e-6
-1.084, 6.322e-6
-1.085, 6.322e-6
-1.086, 6.322e-6
-1.087, 6.322e-6
-1.088, 6.322e-6
-1.089, 6.322e-6
-1.090, 6.322e-6
-1.091, 6.322e-6
-1.092, 6.322e-6
-1.093, 6.322e-6
-1.094, 6.322e-6
-1.095, 6.322e-6
-1.096, 6.322e-6
-1.097, 6.322e-6
-1.098, 6.322e-6
-1.099, 6.322e-6
-1.100, 9.405e-6
-1.101, 6.322e-6
-1.102, 6.322e-6
-1.103, 6.322e-6
-1.104, 6.322e-6
-1.105, 6.322e-6
-1.106, 6.322e-6
-1.107, 6.322e-6
-1.108, 6.322e-6
-1.109, 6.322e-6
-1.110, 6.322e-6
-1.111, 6.322e-6
-1.112, 6.322e-6
-1.113, 9.405e-6
-1.114, 6.322e-6
-1.115, 6.322e-6
-1.116, 6.322e-6
-1.117, 6.322e-6
-1.118, 6.322e-6
-1.119, 6.322e-6
-1.120, 6.322e-6
-1.121, 6.322e-6
-1.122, 6.322e-6
-1.123, 6.322e-6
-1.124, 6.322e-6
-1.125, 6.322e-6
-1.126, 6.322e-6
-1.127, 6.322e-6
-1.128, 6.322e-6
-1.129, 9.405e-6
-1.130, 6.322e-6
-1.131, 9.405e-6
-1.132, 9.405e-6
-1.133, 6.322e-6
-1.134, 9.405e-6
-1.135, 6.322e-6
-1.136, 9.405e-6
-1.137, 9.405e-6
-1.138, 9.405e-6
-1.139, 6.322e-6
-1.140, 9.405e-6
-1.141, 6.322e-6
-1.142, 9.405e-6
-1.143, 9.405e-6
-1.144, 6.322e-6
-1.145, 9.405e-6
-1.146, 9.405e-6
-1.147, 9.405e-6
-1.148, 6.322e-6
-1.149, 9.405e-6
-1.150, 9.405e-6
-1.151, 9.405e-6
-1.152, 9.405e-6
-1.153, 9.405e-6
-1.154, 9.405e-6
-1.155, 9.405e-6
-1.156, 9.405e-6
-1.157, 9.405e-6
-1.158, 9.405e-6
-1.159, 9.405e-6
-1.160, 9.405e-6
-1.161, 9.405e-6
-1.162, 9.405e-6
-1.163, 9.405e-6
-1.164, 9.405e-6
-1.165, 9.405e-6
-1.166, 9.405e-6
-1.167, 9.405e-6
-1.168, 9.405e-6
-1.169, 9.405e-6
-1.170, 9.405e-6
-1.171, 9.405e-6
-1.172, 9.405e-6
-1.173, 9.405e-6
-1.174, 9.405e-6
-1.175, 9.405e-6
-1.176, 9.405e-6
-1.177, 9.405e-6
-1.178, 9.405e-6
-1.179, 9.405e-6
-1.180, 9.405e-6
-1.181, 9.405e-6
-1.182, 9.405e-6
-1.183, 9.405e-6
-1.184, 9.405e-6
-1.185, 9.405e-6
-1.186, 9.405e-6
-1.187, 9.405e-6
-1.188, 9.405e-6
-1.189, 9.405e-6
-1.190, 9.405e-6
-1.191, 9.405e-6
-1.192, 9.405e-6
-1.193, 9.405e-6
-1.194, 9.405e-6
-1.195, 9.405e-6
-1.196, 9.405e-6
-1.197, 9.405e-6
-1.198, 9.405e-6
-1.199, 9.405e-6
-1.200, 9.405e-6
-1.201, 9.405e-6
-1.202, 9.405e-6
-1.203, 9.405e-6
-1.204, 9.405e-6
-1.205, 1.249e-5
-1.206, 9.405e-6
-1.207, 9.405e-6
-1.208, 9.405e-6
-1.209, 9.405e-6
-1.210, 9.405e-6
-1.211, 1.249e-5
-1.212, 1.249e-5
-1.213, 9.405e-6
-1.214, 9.405e-6
-1.215, 9.405e-6
-1.216, 9.405e-6
-1.217, 1.249e-5
-1.218, 1.249e-5
-1.219, 1.249e-5
-1.220, 1.249e-5
-1.221, 1.249e-5
-1.222, 1.249e-5
-1.223, 1.249e-5
-1.224, 1.249e-5
-1.225, 1.249e-5
-1.226, 1.249e-5
-1.227, 1.249e-5
-1.228, 1.249e-5
-1.229, 1.249e-5
-1.230, 1.249e-5
-1.231, 1.249e-5
-1.232, 1.249e-5
-1.233, 1.249e-5
-1.234, 1.249e-5
-1.235, 1.249e-5
-1.236, 1.249e-5
-1.237, 1.249e-5
-1.238, 1.249e-5
-1.239, 1.249e-5
-1.240, 1.249e-5
-1.241, 1.249e-5
-1.242, 1.249e-5
-1.243, 1.249e-5
-1.244, 1.249e-5
-1.245, 1.249e-5
-1.246, 1.249e-5
-1.247, 1.249e-5
-1.248, 1.249e-5
-1.249, 1.249e-5
-1.250, 1.249e-5
-1.251, 1.557e-5
-1.252, 1.249e-5
-1.253, 1.249e-5
-1.254, 1.249e-5
-1.255, 1.249e-5
-1.256, 1.249e-5
-1.257, 1.249e-5
-1.258, 1.249e-5
-1.259, 1.249e-5
-1.260, 1.249e-5
-1.261, 1.557e-5
-1.262, 1.249e-5
-1.263, 1.557e-5
-1.264, 1.557e-5
-1.265, 1.249e-5
-1.266, 1.557e-5
-1.267, 1.249e-5
-1.268, 1.557e-5
-1.269, 1.557e-5
-1.270, 1.557e-5
-1.271, 1.557e-5
-1.272, 1.557e-5
-1.273, 1.557e-5
-1.274, 1.557e-5
-1.275, 1.557e-5
-1.276, 1.557e-5
-1.277, 1.557e-5
-1.278, 1.557e-5
-1.279, 1.557e-5
-1.280, 1.557e-5
-1.281, 1.557e-5
-1.282, 1.557e-5
-1.283, 1.557e-5
-1.284, 1.557e-5
-1.285, 1.557e-5
-1.286, 1.865e-5
-1.287, 1.865e-5
-1.288, 1.557e-5
-1.289, 1.557e-5
-1.290, 1.557e-5
-1.291, 1.557e-5
-1.292, 1.865e-5
-1.293, 1.865e-5
-1.294, 1.865e-5
-1.295, 1.865e-5
-1.296, 1.557e-5
-1.297, 1.865e-5
-1.298, 1.865e-5
-1.299, 1.865e-5
-1.300, 1.865e-5
-1.301, 1.865e-5
-1.302, 1.865e-5
-1.303, 1.865e-5
-1.304, 1.865e-5
-1.305, 2.174e-5
-1.306, 1.865e-5
-1.307, 1.865e-5
-1.308, 1.865e-5
-1.309, 1.865e-5
-1.310, 2.174e-5
-1.311, 1.865e-5
-1.312, 2.174e-5
-1.313, 1.865e-5
-1.314, 2.174e-5
-1.315, 2.174e-5
-1.316, 2.174e-5
-1.317, 2.174e-5
-1.318, 2.174e-5
-1.319, 2.174e-5
-1.320, 2.174e-5
-1.321, 2.174e-5
-1.322, 2.174e-5
-1.323, 2.482e-5
-1.324, 2.174e-5
-1.325, 2.482e-5
-1.326, 2.482e-5
-1.327, 2.482e-5
-1.328, 2.482e-5
-1.329, 2.482e-5
-1.330, 2.482e-5
-1.331, 2.482e-5
-1.332, 2.482e-5
-1.333, 2.482e-5
-1.334, 2.482e-5
-1.335, 2.482e-5
-1.336, 2.790e-5
-1.337, 2.482e-5
-1.338, 2.790e-5
-1.339, 2.790e-5
-1.340, 2.790e-5
-1.341, 2.790e-5
-1.342, 2.790e-5
-1.343, 2.790e-5
-1.344, 2.790e-5
-1.345, 3.099e-5
-1.346, 2.790e-5
-1.347, 2.790e-5
-1.348, 3.099e-5
-1.349, 3.099e-5
-1.350, 3.099e-5
-1.351, 3.099e-5
-1.352, 3.099e-5
-1.353, 3.099e-5
-1.354, 3.099e-5
-1.355, 3.099e-5
-1.356, 3.407e-5
-1.357, 3.407e-5
-1.358, 3.407e-5
-1.359, 3.407e-5
-1.360, 3.407e-5
-1.361, 3.407e-5
-1.362, 3.407e-5
-1.363, 3.715e-5
-1.364, 3.407e-5
-1.365, 3.715e-5
-1.366, 3.715e-5
-1.367, 3.715e-5
-1.368, 3.715e-5
-1.369, 3.715e-5
-1.370, 3.715e-5
-1.371, 3.715e-5
-1.372, 4.024e-5
-1.373, 4.024e-5
-1.374, 4.024e-5
-1.375, 4.024e-5
-1.376, 4.024e-5
-1.377, 4.024e-5
-1.378, 4.024e-5
-1.379, 4.332e-5
-1.380, 4.332e-5
-1.381, 4.332e-5
-1.382, 4.332e-5
-1.383, 4.332e-5
-1.384, 4.332e-5
-1.385, 4.332e-5
-1.386, 4.640e-5
-1.387, 4.640e-5
-1.388, 4.640e-5
-1.389, 4.640e-5
-1.390, 4.640e-5
-1.391, 4.949e-5
-1.392, 4.949e-5
-1.393, 4.949e-5
-1.394, 4.949e-5
-1.395, 4.949e-5
-1.396, 4.949e-5
-1.397, 5.257e-5
-1.398, 4.949e-5
-1.399, 5.257e-5
-1.400, 5.257e-5
-1.401, 5.257e-5
-1.402, 5.257e-5
-1.403, 5.257e-5
-1.404, 5.565e-5
-1.405, 5.565e-5
-1.406, 5.565e-5
-1.407, 5.565e-5
-1.408, 5.565e-5
-1.409, 5.873e-5
-1.410, 5.873e-5
-1.411, 5.873e-5
-1.412, 5.873e-5
-1.413, 5.873e-5
-1.414, 5.873e-5
-1.415, 6.182e-5
-1.416, 5.873e-5
-1.417, 6.182e-5
-1.418, 6.182e-5
-1.419, 6.182e-5
-1.420, 6.490e-5
-1.421, 6.490e-5
-1.422, 6.490e-5
-1.423, 6.490e-5
-1.424, 6.798e-5
-1.425, 6.798e-5
-1.426, 6.798e-5
-1.427, 6.798e-5
-1.428, 6.798e-5
-1.429, 6.798e-5
-1.430, 7.107e-5
-1.431, 7.107e-5
-1.432, 7.107e-5
-1.433, 7.415e-5
-1.434, 7.107e-5
-1.435, 7.415e-5
-1.436, 7.415e-5
-1.437, 7.415e-5
-1.438, 7.723e-5
-1.439, 7.723e-5
-1.440, 7.723e-5
-1.441, 7.723e-5
-1.442, 7.723e-5
-1.443, 7.723e-5
-1.444, 8.032e-5
-1.445, 8.032e-5
-1.446, 8.032e-5
-1.447, 8.340e-5
-1.448, 8.340e-5
-1.449, 8.340e-5
-1.450, 8.340e-5
-1.451, 8.340e-5
-1.452, 8.648e-5
-1.453, 8.648e-5
-1.454, 8.648e-5
-1.455, 8.957e-5
-1.456, 8.957e-5
-1.457, 8.957e-5
-1.458, 8.957e-5
-1.459, 9.265e-5
-1.460, 9.265e-5
-1.461, 9.265e-5
-1.462, 9.573e-5
-1.463, 9.573e-5
-1.464, 9.573e-5
-1.465, 9.573e-5
-1.466, 9.573e-5
-1.467, 9.882e-5
-1.468, 9.882e-5
-1.469, 9.882e-5
-1.470, 9.882e-5
-1.471, 1.019e-4
-1.472, 1.019e-4
-1.473, 1.050e-4
-1.474, 1.019e-4
-1.475, 1.050e-4
-1.476, 1.050e-4
-1.477, 1.050e-4
-1.478, 1.081e-4
-1.479, 1.081e-4
-1.480, 1.111e-4
-1.481, 1.111e-4
-1.482, 1.111e-4
-1.483, 1.111e-4
-1.484, 1.142e-4
-1.485, 1.142e-4
-1.486, 1.142e-4
-1.487, 1.173e-4
-1.488, 1.173e-4
-1.489, 1.204e-4
-1.490, 1.204e-4
-1.491, 1.204e-4
-1.492, 1.204e-4
-1.493, 1.235e-4
-1.494, 1.235e-4
-1.495, 1.266e-4
-1.496, 1.266e-4
-1.497, 1.266e-4
-1.498, 1.296e-4
-1.499, 1.296e-4
-1.500, 1.296e-4
-1.501, 1.327e-4
-1.502, 1.327e-4
-1.503, 1.358e-4
-1.504, 1.358e-4
-1.505, 1.358e-4
-1.506, 1.358e-4
-1.507, 1.389e-4
-1.508, 1.389e-4
-1.509, 1.420e-4
-1.510, 1.420e-4
-1.511, 1.420e-4
-1.512, 1.451e-4
-1.513, 1.451e-4
-1.514, 1.481e-4
-1.515, 1.481e-4
-1.516, 1.512e-4
-1.517, 1.512e-4
-1.518, 1.512e-4
-1.519, 1.543e-4
-1.520, 1.543e-4
-1.521, 1.574e-4
-1.522, 1.574e-4
-1.523, 1.605e-4
-1.524, 1.605e-4
-1.525, 1.605e-4
-1.526, 1.636e-4
-1.527, 1.666e-4
-1.528, 1.666e-4
-1.529, 1.666e-4
-1.530, 1.697e-4
-1.531, 1.697e-4
-1.532, 1.728e-4
-1.533, 1.728e-4
-1.534, 1.759e-4
-1.535, 1.759e-4
-1.536, 1.790e-4
-1.537, 1.790e-4
-1.538, 1.821e-4
-1.539, 1.851e-4
-1.540, 1.851e-4
-1.541, 1.851e-4
-1.542, 1.882e-4
-1.543, 1.913e-4
-1.544, 1.913e-4
-1.545, 1.944e-4
-1.546, 1.944e-4
-1.547, 1.975e-4
-1.548, 2.006e-4
-1.549, 2.006e-4
-1.550, 2.036e-4
-1.551, 2.036e-4
-1.552, 2.067e-4
-1.553, 2.098e-4
-1.554, 2.098e-4
-1.555, 2.129e-4
-1.556, 2.129e-4
-1.557, 2.160e-4
-1.558, 2.191e-4
-1.559, 2.191e-4
-1.560, 2.221e-4
-1.561, 2.252e-4
-1.562, 2.252e-4
-1.563, 2.283e-4
-1.564, 2.314e-4
-1.565, 2.314e-4
-1.566, 2.345e-4
-1.567, 2.376e-4
-1.568, 2.406e-4
-1.569, 2.406e-4
-1.570, 2.437e-4
-1.571, 2.468e-4
-1.572, 2.499e-4
-1.573, 2.530e-4
-1.574, 2.530e-4
-1.575, 2.561e-4
-1.576, 2.591e-4
-1.577, 2.622e-4
-1.578, 2.653e-4
-1.579, 2.684e-4
-1.580, 2.715e-4
-1.581, 2.715e-4
-1.582, 2.746e-4
-1.583, 2.776e-4
-1.584, 2.807e-4
-1.585, 2.838e-4
-1.586, 2.869e-4
-1.587, 2.900e-4
-1.588, 2.931e-4
-1.589, 2.961e-4
-1.590, 2.992e-4
-1.591, 3.023e-4
-1.592, 3.054e-4
-1.593, 3.085e-4
-1.594, 3.115e-4
-1.595, 3.146e-4
-1.596, 3.177e-4
-1.597, 3.239e-4
-1.598, 3.270e-4
-1.599, 3.300e-4
-1.600, 3.331e-4
-1.601, 3.362e-4
-1.602, 3.424e-4
-1.603, 3.455e-4
-1.604, 3.516e-4
-1.605, 3.516e-4
-1.606, 3.578e-4
-1.607, 3.609e-4
-1.608, 3.670e-4
-1.609, 3.701e-4
-1.610, 3.732e-4
-1.611, 3.794e-4
-1.612, 3.825e-4
-1.613, 3.886e-4
-1.614, 3.917e-4
-1.615, 3.979e-4
-1.616, 4.010e-4
-1.617, 4.071e-4
-1.618, 4.102e-4
-1.619, 4.164e-4
-1.620, 4.225e-4
-1.621, 4.256e-4
-1.622, 4.318e-4
-1.623, 4.380e-4
-1.624, 4.441e-4
-1.625, 4.503e-4
-1.626, 4.534e-4
-1.627, 4.595e-4
-1.628, 4.657e-4
-1.629, 4.719e-4
-1.630, 4.780e-4
-1.631, 4.842e-4
-1.632, 4.904e-4
-1.633, 4.996e-4
-1.634, 5.058e-4
-1.635, 5.120e-4
-1.636, 5.181e-4
-1.637, 5.274e-4
-1.638, 5.335e-4
-1.639, 5.397e-4
-1.640, 5.489e-4
-1.641, 5.551e-4
-1.642, 5.644e-4
-1.643, 5.705e-4
-1.644, 5.798e-4
-1.645, 5.890e-4
-1.646, 5.983e-4
-1.647, 6.044e-4
-1.648, 6.137e-4
-1.649, 6.229e-4
-1.650, 6.322e-4
-1.651, 6.414e-4
-1.652, 6.507e-4
-1.653, 6.599e-4
-1.654, 6.723e-4
-1.655, 6.815e-4
-1.656, 6.908e-4
-1.657, 7.000e-4
-1.658, 7.093e-4
-1.659, 7.216e-4
-1.660, 7.309e-4
-1.661, 7.401e-4
-1.662, 7.524e-4
-1.663, 7.617e-4
-1.664, 7.740e-4
-1.665, 7.863e-4
-1.666, 7.956e-4
-1.667, 8.079e-4
-1.668, 8.172e-4
-1.669, 8.326e-4
-1.670, 8.418e-4
-1.671, 8.542e-4
-1.672, 8.696e-4
-1.673, 8.819e-4
-1.674, 8.973e-4
-1.675, 9.097e-4
-1.676, 9.220e-4
-1.677, 9.374e-4
-1.678, 9.528e-4
-1.679, 9.652e-4
-1.680, 9.806e-4
-1.681, 9.960e-4
-1.682, 1.011e-3
-1.683, 1.027e-3
-1.684, 1.042e-3
-1.685, 1.055e-3
-1.686, 1.070e-3
-1.687, 1.088e-3
-1.688, 1.104e-3
-1.689, 1.122e-3
-1.690, 1.138e-3
-1.691, 1.153e-3
-1.692, 1.175e-3
-1.693, 1.190e-3
-1.694, 1.209e-3
-1.695, 1.224e-3
-1.696, 1.243e-3
-1.697, 1.264e-3
-1.698, 1.286e-3
-1.699, 1.307e-3
-1.700, 1.326e-3
-1.701, 1.347e-3
-1.702, 1.369e-3
-1.703, 1.391e-3
-1.704, 1.415e-3
-1.705, 1.440e-3
-1.706, 1.462e-3
-1.707, 1.486e-3
-1.708, 1.511e-3
-1.709, 1.536e-3
-1.710, 1.560e-3
-1.711, 1.582e-3
-1.712, 1.606e-3
-1.713, 1.628e-3
-1.714, 1.656e-3
-1.715, 1.680e-3
-1.716, 1.705e-3
-1.717, 1.730e-3
-1.718, 1.758e-3
-1.719, 1.785e-3
-1.720, 1.810e-3
-1.721, 1.838e-3
-1.722, 1.862e-3
-1.723, 1.893e-3
-1.724, 1.924e-3
-1.725, 1.952e-3
-1.726, 1.980e-3
-1.727, 2.010e-3
-1.728, 2.038e-3
-1.729, 2.072e-3
-1.730, 2.106e-3
-1.731, 2.137e-3
-1.732, 2.174e-3
-1.733, 2.205e-3
-1.734, 2.238e-3
-1.735, 2.272e-3
-1.736, 2.306e-3
-1.737, 2.340e-3
-1.738, 2.374e-3
-1.739, 2.411e-3
-1.740, 2.445e-3
-1.741, 2.482e-3
-1.742, 2.519e-3
-1.743, 2.553e-3
-1.744, 2.584e-3
-1.745, 2.621e-3
-1.746, 2.655e-3
-1.747, 2.689e-3
-1.748, 2.726e-3
-1.749, 2.763e-3
-1.750, 2.800e-3
-1.751, 2.837e-3
-1.752, 2.877e-3
-1.753, 2.914e-3
-1.754, 2.948e-3
-1.755, 2.991e-3
-1.756, 3.031e-3
-1.757, 3.071e-3
-1.758, 3.114e-3
-1.759, 3.160e-3
-1.760, 3.204e-3
-1.761, 3.244e-3
-1.762, 3.284e-3
-1.763, 3.330e-3
-1.764, 3.373e-3
-1.765, 3.419e-3
-1.766, 3.462e-3
-1.767, 3.509e-3
-1.768, 3.555e-3
-1.769, 3.601e-3
-1.770, 3.647e-3
-1.771, 3.691e-3
-1.772, 3.737e-3
-1.773, 3.783e-3
-1.774, 3.826e-3
-1.775, 3.873e-3
-1.776, 3.919e-3
-1.777, 3.968e-3
-1.778, 4.011e-3
-1.779, 4.058e-3
-1.780, 4.104e-3
-1.781, 4.153e-3
-1.782, 4.202e-3
-1.783, 4.249e-3
-1.784, 4.295e-3
-1.785, 4.341e-3
-1.786, 4.387e-3
-1.787, 4.437e-3
-1.788, 4.489e-3
-1.789, 4.542e-3
-1.790, 4.597e-3
-1.791, 4.653e-3
-1.792, 4.711e-3
-1.793, 4.767e-3
-1.794, 4.822e-3
-1.795, 4.875e-3
-1.796, 4.927e-3
-1.797, 4.979e-3
-1.798, 5.035e-3
-1.799, 5.090e-3
-1.800, 5.121e-3
-1.799, 5.106e-3
-1.798, 5.087e-3
-1.797, 5.063e-3
-1.796, 5.035e-3
-1.795, 5.010e-3
-1.794, 4.979e-3
-1.793, 4.952e-3
-1.792, 4.921e-3
-1.791, 4.890e-3
-1.790, 4.859e-3
-1.789, 4.828e-3
-1.788, 4.797e-3
-1.787, 4.767e-3
-1.786, 4.736e-3
-1.785, 4.708e-3
-1.784, 4.680e-3
-1.783, 4.649e-3
-1.782, 4.616e-3
-1.781, 4.585e-3
-1.780, 4.548e-3
-1.779, 4.514e-3
-1.778, 4.480e-3
-1.777, 4.446e-3
-1.776, 4.415e-3
-1.775, 4.381e-3
-1.774, 4.350e-3
-1.773, 4.313e-3
-1.772, 4.276e-3
-1.771, 4.236e-3
-1.770, 4.199e-3
-1.769, 4.159e-3
-1.768, 4.125e-3
-1.767, 4.088e-3
-1.766, 4.054e-3
-1.765, 4.021e-3
-1.764, 3.984e-3
-1.763, 3.947e-3
-1.762, 3.913e-3
-1.761, 3.879e-3
-1.760, 3.845e-3
-1.759, 3.811e-3
-1.758, 3.780e-3
-1.757, 3.752e-3
-1.756, 3.721e-3
-1.755, 3.688e-3
-1.754, 3.657e-3
-1.753, 3.623e-3
-1.752, 3.589e-3
-1.751, 3.558e-3
-1.750, 3.521e-3
-1.749, 3.493e-3
-1.748, 3.459e-3
-1.747, 3.425e-3
-1.746, 3.392e-3
-1.745, 3.358e-3
-1.744, 3.324e-3
-1.743, 3.296e-3
-1.742, 3.262e-3
-1.741, 3.231e-3
-1.740, 3.197e-3
-1.739, 3.167e-3
-1.738, 3.133e-3
-1.737, 3.102e-3
-1.736, 3.071e-3
-1.735, 3.043e-3
-1.734, 3.015e-3
-1.733, 2.985e-3
-1.732, 2.960e-3
-1.731, 2.929e-3
-1.730, 2.901e-3
-1.729, 2.867e-3
-1.728, 2.837e-3
-1.727, 2.803e-3
-1.726, 2.775e-3
-1.725, 2.747e-3
-1.724, 2.716e-3
-1.723, 2.692e-3
-1.722, 2.658e-3
-1.721, 2.630e-3
-1.720, 2.596e-3
-1.719, 2.568e-3
-1.718, 2.538e-3
-1.717, 2.507e-3
-1.716, 2.476e-3
-1.715, 2.448e-3
-1.714, 2.420e-3
-1.713, 2.393e-3
-1.712, 2.362e-3
-1.711, 2.334e-3
-1.710, 2.306e-3
-1.709, 2.279e-3
-1.708, 2.254e-3
-1.707, 2.226e-3
-1.706, 2.201e-3
-1.705, 2.177e-3
-1.704, 2.152e-3
-1.703, 2.124e-3
-1.702, 2.097e-3
-1.701, 2.072e-3
-1.700, 2.047e-3
-1.699, 2.026e-3
-1.698, 1.998e-3
-1.697, 1.976e-3
-1.696, 1.952e-3
-1.695, 1.924e-3
-1.694, 1.899e-3
-1.693, 1.875e-3
-1.692, 1.850e-3
-1.691, 1.825e-3
-1.690, 1.804e-3
-1.689, 1.779e-3
-1.688, 1.754e-3
-1.687, 1.733e-3
-1.686, 1.708e-3
-1.685, 1.684e-3
-1.684, 1.662e-3
-1.683, 1.637e-3
-1.682, 1.616e-3
-1.681, 1.594e-3
-1.680, 1.576e-3
-1.679, 1.551e-3
-1.678, 1.532e-3
-1.677, 1.511e-3
-1.676, 1.489e-3
-1.675, 1.468e-3
-1.674, 1.449e-3
-1.673, 1.428e-3
-1.672, 1.409e-3
-1.671, 1.391e-3
-1.670, 1.372e-3
-1.669, 1.347e-3
-1.668, 1.329e-3
-1.667, 1.314e-3
-1.666, 1.292e-3
-1.665, 1.273e-3
-1.664, 1.255e-3
-1.663, 1.240e-3
-1.662, 1.218e-3
-1.661, 1.199e-3
-1.660, 1.181e-3
-1.659, 1.162e-3
-1.658, 1.147e-3
-1.657, 1.129e-3
-1.656, 1.110e-3
-1.655, 1.095e-3
-1.654, 1.079e-3
-1.653, 1.061e-3
-1.652, 1.045e-3
-1.651, 1.030e-3
-1.650, 1.014e-3
-1.649, 9.991e-4
-1.648, 9.837e-4
-1.647, 9.683e-4
-1.646, 9.528e-4
-1.645, 9.405e-4
-1.644, 9.251e-4
-1.643, 9.128e-4
-1.642, 8.973e-4
-1.641, 8.850e-4
-1.640, 8.696e-4
-1.639, 8.573e-4
-1.638, 8.418e-4
-1.637, 8.295e-4
-1.636, 8.172e-4
-1.635, 8.018e-4
-1.634, 7.925e-4
-1.633, 7.771e-4
-1.632, 7.648e-4
-1.631, 7.524e-4
-1.630, 7.432e-4
-1.629, 7.278e-4
-1.628, 7.185e-4
-1.627, 7.062e-4
-1.626, 6.969e-4
-1.625, 6.846e-4
-1.624, 6.723e-4
-1.623, 6.630e-4
-1.622, 6.507e-4
-1.621, 6.414e-4
-1.620, 6.322e-4
-1.619, 6.199e-4
-1.618, 6.106e-4
-1.617, 5.983e-4
-1.616, 5.890e-4
-1.615, 5.798e-4
-1.614, 5.736e-4
-1.613, 5.613e-4
-1.612, 5.520e-4
-1.611, 5.459e-4
-1.610, 5.366e-4
-1.609, 5.274e-4
-1.608, 5.181e-4
-1.607, 5.089e-4
-1.606, 5.027e-4
-1.605, 4.935e-4
-1.604, 4.842e-4
-1.603, 4.780e-4
-1.602, 4.688e-4
-1.601, 4.595e-4
-1.600, 4.534e-4
-1.599, 4.441e-4
-1.598, 4.380e-4
-1.597, 4.318e-4
-1.596, 4.256e-4
-1.595, 4.164e-4
-1.594, 4.102e-4
-1.593, 4.040e-4
-1.592, 3.948e-4
-1.591, 3.917e-4
-1.590, 3.825e-4
-1.589, 3.763e-4
-1.588, 3.701e-4
-1.587, 3.640e-4
-1.586, 3.578e-4
-1.585, 3.516e-4
-1.584, 3.455e-4
-1.583, 3.393e-4
-1.582, 3.331e-4
-1.581, 3.300e-4
-1.580, 3.239e-4
-1.579, 3.208e-4
-1.578, 3.115e-4
-1.577, 3.085e-4
-1.576, 3.023e-4
-1.575, 2.992e-4
-1.574, 2.931e-4
-1.573, 2.869e-4
-1.572, 2.838e-4
-1.571, 2.776e-4
-1.570, 2.746e-4
-1.569, 2.684e-4
-1.568, 2.653e-4
-1.567, 2.622e-4
-1.566, 2.561e-4
-1.565, 2.530e-4
-1.564, 2.499e-4
-1.563, 2.437e-4
-1.562, 2.406e-4
-1.561, 2.376e-4
-1.560, 2.314e-4
-1.559, 2.283e-4
-1.558, 2.252e-4
-1.557, 2.221e-4
-1.556, 2.191e-4
-1.555, 2.160e-4
-1.554, 2.098e-4
-1.553, 2.067e-4
-1.552, 2.036e-4
-1.551, 2.006e-4
-1.550, 1.975e-4
-1.549, 1.944e-4
-1.548, 1.913e-4
-1.547, 1.882e-4
-1.546, 1.851e-4
-1.545, 1.821e-4
-1.544, 1.790e-4
-1.543, 1.759e-4
-1.542, 1.728e-4
-1.541, 1.697e-4
-1.540, 1.666e-4
-1.539, 1.666e-4
-1.538, 1.605e-4
-1.537, 1.605e-4
-1.536, 1.574e-4
-1.535, 1.543e-4
-1.534, 1.512e-4
-1.533, 1.481e-4
-1.532, 1.481e-4
-1.531, 1.451e-4
-1.530, 1.420e-4
-1.529, 1.389e-4
-1.528, 1.389e-4
-1.527, 1.358e-4
-1.526, 1.327e-4
-1.525, 1.327e-4
-1.524, 1.296e-4
-1.523, 1.266e-4
-1.522, 1.235e-4
-1.521, 1.235e-4
-1.520, 1.204e-4
-1.519, 1.204e-4
-1.518, 1.173e-4
-1.517, 1.142e-4
-1.516, 1.142e-4
-1.515, 1.111e-4
-1.514, 1.111e-4
-1.513, 1.081e-4
-1.512, 1.050e-4
-1.511, 1.050e-4
-1.510, 1.019e-4
-1.509, 1.019e-4
-1.508, 9.882e-5
-1.507, 9.882e-5
-1.506, 9.573e-5
-1.505, 9.573e-5
-1.504, 9.265e-5
-1.503, 9.265e-5
-1.502, 8.957e-5
-1.501, 8.957e-5
-1.500, 8.648e-5
-1.499, 8.648e-5
-1.498, 8.340e-5
-1.497, 8.340e-5
-1.496, 8.340e-5
-1.495, 8.032e-5
-1.494, 8.032e-5
-1.493, 7.723e-5
-1.492, 7.723e-5
-1.491, 7.723e-5
-1.490, 7.415e-5
-1.489, 7.415e-5
-1.488, 7.415e-5
-1.487, 7.107e-5
-1.486, 7.107e-5
-1.485, 6.798e-5
-1.484, 6.798e-5
-1.483, 6.798e-5
-1.482, 6.490e-5
-1.481, 6.490e-5
-1.480, 6.490e-5
-1.479, 6.182e-5
-1.478, 6.182e-5
-1.477, 6.182e-5
-1.476, 5.873e-5
-1.475, 5.873e-5
-1.474, 5.873e-5
-1.473, 5.873e-5
-1.472, 5.565e-5
-1.471, 5.565e-5
-1.470, 5.257e-5
-1.469, 5.257e-5
-1.468, 5.257e-5
-1.467, 5.257e-5
-1.466, 4.949e-5
-1.465, 4.949e-5
-1.464, 4.949e-5
-1.463, 4.949e-5
-1.462, 4.640e-5
-1.461, 4.640e-5
-1.460, 4.640e-5
-1.459, 4.332e-5
-1.458, 4.332e-5
-1.457, 4.332e-5
-1.456, 4.332e-5
-1.455, 4.332e-5
-1.454, 4.024e-5
-1.453, 4.024e-5
-1.452, 4.024e-5
-1.451, 4.024e-5
-1.450, 4.024e-5
-1.449, 3.715e-5
-1.448, 3.715e-5
-1.447, 3.715e-5
-1.446, 3.407e-5
-1.445, 3.407e-5
-1.444, 3.407e-5
-1.443, 3.407e-5
-1.442, 3.407e-5
-1.441, 3.407e-5
-1.440, 3.407e-5
-1.439, 3.099e-5
-1.438, 3.099e-5
-1.437, 3.099e-5
-1.436, 3.099e-5
-1.435, 3.099e-5
-1.434, 2.790e-5
-1.433, 2.790e-5
-1.432, 2.790e-5
-1.431, 2.790e-5
-1.430, 2.790e-5
-1.429, 2.790e-5
-1.428, 2.482e-5
-1.427, 2.482e-5
-1.426, 2.482e-5
-1.425, 2.482e-5
-1.424, 2.482e-5
-1.423, 2.482e-5
-1.422, 2.482e-5
-1.421, 2.174e-5
-1.420, 2.174e-5
-1.419, 2.174e-5
-1.418, 2.174e-5
-1.417, 2.174e-5
-1.416, 2.174e-5
-1.415, 2.174e-5
-1.414, 1.865e-5
-1.413, 1.865e-5
-1.412, 1.865e-5
-1.411, 1.865e-5
-1.410, 1.865e-5
-1.409, 1.865e-5
-1.408, 1.865e-5
-1.407, 1.557e-5
-1.406, 1.865e-5
-1.405, 1.865e-5
-1.404, 1.557e-5
-1.403, 1.557e-5
-1.402, 1.557e-5
-1.401, 1.557e-5
-1.400, 1.557e-5
-1.399, 1.557e-5
-1.398, 1.249e-5
-1.397, 1.557e-5
-1.396, 1.249e-5
-1.395, 1.249e-5
-1.394, 1.249e-5
-1.393, 1.249e-5
-1.392, 1.249e-5
-1.391, 1.249e-5
-1.390, 1.249e-5
-1.389, 1.249e-5
-1.388, 1.249e-5
-1.387, 9.405e-6
-1.386, 1.249e-5
-1.385, 9.405e-6
-1.384, 9.405e-6
-1.383, 9.405e-6
-1.382, 9.405e-6
-1.381, 9.405e-6
-1.380, 9.405e-6
-1.379, 9.405e-6
-1.378, 9.405e-6
-1.377, 9.405e-6
-1.376, 9.405e-6
-1.375, 9.405e-6
-1.374, 6.322e-6
-1.373, 6.322e-6
-1.372, 6.322e-6
-1.371, 6.322e-6
-1.370, 6.322e-6
-1.369, 6.322e-6
-1.368, 6.322e-6
-1.367, 6.322e-6
-1.366, 6.322e-6
-1.365, 6.322e-6
-1.364, 6.322e-6
-1.363, 6.322e-6
-1.362, 6.322e-6
-1.361, 6.322e-6
-1.360, 6.322e-6
-1.359, 6.322e-6
-1.358, 6.322e-6
-1.357, 6.322e-6
-1.356, 3.239e-6
-1.355, 3.239e-6
-1.354, 3.239e-6
-1.353, 3.239e-6
-1.352, 3.239e-6
-1.351, 3.239e-6
-1.350, 3.239e-6
-1.349, 3.239e-6
-1.348, 3.239e-6
-1.347, 3.239e-6
-1.346, 3.239e-6
-1.345, 3.239e-6
-1.344, 3.239e-6
-1.343, 3.239e-6
-1.342, 1.559e-7
-1.341, 3.239e-6
-1.340, 3.239e-6
-1.339, 3.239e-6
-1.338, 1.559e-7
-1.337, 1.559e-7
-1.336, 1.559e-7
-1.335, 1.559e-7
-1.334, 3.239e-6
-1.333, 1.559e-7
-1.332, 1.559e-7
-1.331, 1.559e-7
-1.330, 1.559e-7
-1.329, 1.559e-7
-1.328, 1.559e-7
-1.327, 1.559e-7
-1.326, 1.559e-7
-1.325, 1.559e-7
-1.324, 1.559e-7
-1.323, 1.559e-7
-1.322, 1.559e-7
-1.321, 1.559e-7
-1.320, 1.559e-7
-1.319, 1.559e-7
-1.318, 1.559e-7
-1.317, 1.559e-7
-1.316, 1.559e-7
-1.315, 1.559e-7
-1.314, -2.927e-6
-1.313, -2.927e-6
-1.312, 1.559e-7
-1.311, 1.559e-7
-1.310, 1.559e-7
-1.309, 1.559e-7
-1.308, -2.927e-6
-1.307, -2.927e-6
-1.306, -2.927e-6
-1.305, 1.559e-7
-1.304, 1.559e-7
-1.303, -2.927e-6
-1.302, -2.927e-6
-1.301, -2.927e-6
-1.300, -2.927e-6
-1.299, -2.927e-6
-1.298, -2.927e-6
-1.297, -2.927e-6
-1.296, -2.927e-6
-1.295, -2.927e-6
-1.294, -2.927e-6
-1.293, -2.927e-6
-1.292, -2.927e-6
-1.291, -2.927e-6
-1.290, -2.927e-6
-1.289, -2.927e-6
-1.288, -2.927e-6
-1.287, -2.927e-6
-1.286, -2.927e-6
-1.285, -2.927e-6
-1.284, -2.927e-6
-1.283, -2.927e-6
-1.282, -2.927e-6
-1.281, -2.927e-6
-1.280, -2.927e-6
-1.279, -2.927e-6
-1.278, -2.927e-6
-1.277, -2.927e-6
-1.276, -2.927e-6
-1.275, -2.927e-6
-1.274, -2.927e-6
-1.273, -2.927e-6
-1.272, -2.927e-6
-1.271, -2.927e-6
-1.270, -2.927e-6
-1.269, -2.927e-6
-1.268, -2.927e-6
-1.267, -2.927e-6
-1.266, -6.010e-6
-1.265, -2.927e-6
-1.264, -2.927e-6
-1.263, -2.927e-6
-1.262, -2.927e-6
-1.261, -6.010e-6
-1.260, -6.010e-6
-1.259, -2.927e-6
-1.258, -2.927e-6
-1.257, -2.927e-6
-1.256, -2.927e-6
-1.255, -2.927e-6
-1.254, -2.927e-6
-1.253, -6.010e-6
-1.252, -2.927e-6
-1.251, -6.010e-6
-1.250, -6.010e-6
-1.249, -6.010e-6
-1.248, -6.010e-6
-1.247, -6.010e-6
-1.246, -2.927e-6
-1.245, -2.927e-6
-1.244, -2.927e-6
-1.243, -6.010e-6
-1.242, -6.010e-6
-1.241, -6.010e-6
-1.240, -2.927e-6
-1.239, -6.010e-6
-1.238, -6.010e-6
-1.237, -6.010e-6
-1.236, -6.010e-6
-1.235, -2.927e-6
-1.234, -6.010e-6
-1.233, -2.927e-6
-1.232, -6.010e-6
-1.231, -6.010e-6
-1.230, -6.010e-6
-1.229, -6.010e-6
-1.228, -6.010e-6
-1.227, -6.010e-6
-1.226, -6.010e-6
-1.225, -6.010e-6
-1.224, -6.010e-6
-1.223, -6.010e-6
-1.222, -6.010e-6
-1.221, -6.010e-6
-1.220, -6.010e-6
-1.219, -6.010e-6
-1.218, -6.010e-6
-1.217, -6.010e-6
-1.216, -6.010e-6
-1.215, -2.927e-6
-1.214, -6.010e-6
-1.213, -6.010e-6
-1.212, -6.010e-6
-1.211, -6.010e-6
-1.210, -6.010e-6
-1.209, -6.010e-6
-1.208, -6.010e-6
-1.207, -6.010e-6
-1.206, -6.010e-6
-1.205, -6.010e-6
-1.204, -6.010e-6
-1.203, -6.010e-6
-1.202, -6.010e-6
-1.201, -6.010e-6
-1.200, -6.010e-6
-1.199, -6.010e-6
-1.198, -6.010e-6
-1.197, -6.010e-6
-1.196, -6.010e-6
-1.195, -6.010e-6
-1.194, -6.010e-6
-1.193, -6.010e-6
-1.192, -6.010e-6
-1.191, -6.010e-6
-1.190, -6.010e-6
-1.189, -6.010e-6
-1.188, -6.010e-6
-1.187, -6.010e-6
-1.186, -6.010e-6
-1.185, -6.010e-6
-1.184, -6.010e-6
-1.183, -6.010e-6
-1.182, -6.010e-6
-1.181, -6.010e-6
-1.180, -6.010e-6
-1.179, -6.010e-6
-1.178, -6.010e-6
-1.177, -6.010e-6
-1.176, -6.010e-6
-1.175, -6.010e-6
-1.174, -6.010e-6
-1.173, -6.010e-6
-1.172, -6.010e-6
-1.171, -6.010e-6
-1.170, -6.010e-6
-1.169, -6.010e-6
-1.168, -6.010e-6
-1.167, -6.010e-6
-1.166, -6.010e-6
-1.165, -6.010e-6
-1.164, -6.010e-6
-1.163, -6.010e-6
-1.162, -6.010e-6
-1.161, -6.010e-6
-1.160, -6.010e-6
-1.159, -6.010e-6
-1.158, -6.010e-6
-1.157, -6.010e-6
-1.156, -6.010e-6
-1.155, -6.010e-6
-1.154, -6.010e-6
-1.153, -6.010e-6
-1.152, -6.010e-6
-1.151, -6.010e-6
-1.150, -6.010e-6
-1.149, -6.010e-6
-1.148, -6.010e-6
-1.147, -6.010e-6
-1.146, -6.010e-6
-1.145, -6.010e-6
-1.144, -6.010e-6
-1.143, -6.010e-6
-1.142, -6.010e-6
-1.141, -6.010e-6
-1.140, -6.010e-6
-1.139, -6.010e-6
-1.138, -6.010e-6
-1.137, -6.010e-6
-1.136, -6.010e-6
-1.135, -6.010e-6
-1.134, -6.010e-6
-1.133, -6.010e-6
-1.132, -6.010e-6
-1.131, -6.010e-6
-1.130, -6.010e-6
-1.129, -6.010e-6
-1.128, -6.010e-6
-1.127, -6.010e-6
-1.126, -9.093e-6
-1.125, -6.010e-6
-1.124, -6.010e-6
-1.123, -6.010e-6
-1.122, -6.010e-6
-1.121, -9.093e-6
-1.120, -6.010e-6
-1.119, -9.093e-6
-1.118, -6.010e-6
-1.117, -9.093e-6
-1.116, -6.010e-6
-1.115, -6.010e-6
-1.114, -6.010e-6
-1.113, -6.010e-6
-1.112, -6.010e-6
-1.111, -9.093e-6
-1.110, -9.093e-6
-1.109, -6.010e-6
-1.108, -9.093e-6
-1.107, -6.010e-6
-1.106, -9.093e-6
-1.105, -6.010e-6
-1.104, -9.093e-6
-1.103, -9.093e-6
-1.102, -9.093e-6
-1.101, -9.093e-6
-1.100, -6.010e-6
-1.099, -9.093e-6
-1.098, -6.010e-6
-1.097, -9.093e-6
-1.096, -9.093e-6
-1.095, -6.010e-6
-1.094, -6.010e-6
-1.093, -9.093e-6
-1.092, -9.093e-6
-1.091, -9.093e-6
-1.090, -9.093e-6
-1.089, -6.010e-6
-1.088, -9.093e-6
-1.087, -9.093e-6
-1.086, -9.093e-6
-1.085, -9.093e-6
-1.084, -6.010e-6
-1.083, -9.093e-6
-1.082, -9.093e-6
-1.081, -9.093e-6
-1.080, -9.093e-6
-1.079, -9.093e-6
-1.078, -9.093e-6
-1.077, -9.093e-6
-1.076, -9.093e-6
-1.075, -9.093e-6
-1.074, -9.093e-6
-1.073, -9.093e-6
-1.072, -9.093e-6
-1.071, -9.093e-6
-1.070, -9.093e-6
-1.069, -9.093e-6
-1.068, -9.093e-6
-1.067, -9.093e-6
-1.066, -9.093e-6
-1.065, -9.093e-6
-1.064, -9.093e-6
-1.063, -9.093e-6
-1.062, -9.093e-6
-1.061, -9.093e-6
-1.060, -9.093e-6
-1.059, -9.093e-6
-1.058, -9.093e-6
-1.057, -9.093e-6
-1.056, -9.093e-6
-1.055, -9.093e-6
-1.054, -9.093e-6
-1.053, -9.093e-6
-1.052, -9.093e-6
-1.051, -9.093e-6
-1.050, -9.093e-6
-1.049, -9.093e-6
-1.048, -9.093e-6
-1.047, -9.093e-6
-1.046, -9.093e-6
-1.045, -9.093e-6
-1.044, -9.093e-6
-1.043, -9.093e-6
-1.042, -9.093e-6
-1.041, -9.093e-6
-1.040, -9.093e-6
-1.039, -9.093e-6
-1.038, -9.093e-6
-1.037, -9.093e-6
-1.036, -9.093e-6
-1.035, -9.093e-6
-1.034, -9.093e-6
-1.033, -9.093e-6
-1.032, -9.093e-6
-1.031, -9.093e-6
-1.030, -9.093e-6
-1.029, -9.093e-6
-1.028, -9.093e-6
-1.027, -9.093e-6
-1.026, -9.093e-6
-1.025, -9.093e-6
-1.024, -9.093e-6
-1.023, -9.093e-6
-1.022, -9.093e-6
-1.021, -9.093e-6
-1.020, -9.093e-6
-1.019, -9.093e-6
-1.018, -9.093e-6
-1.017, -9.093e-6
-1.016, -9.093e-6
-1.015, -9.093e-6
-1.014, -9.093e-6
-1.013, -9.093e-6
-1.012, -9.093e-6
-1.011, -9.093e-6
-1.010, -9.093e-6
-1.009, -9.093e-6
-1.008, -9.093e-6
-1.007, -9.093e-6
-1.006, -9.093e-6
-1.005, -9.093e-6
-1.004, -1.218e-5
-1.003, -9.093e-6
-1.002, -9.093e-6
-1.001, -9.093e-6
