Jan. 14, 2025   12:57:35
Linear Sweep Voltammetry
File: c:/users/guazh/data/banditlqround7_x0exp772_r5/2025-01-10-exp843\pre-regen-2025-01-14t12_54_29-lsvinphos\pre-regen_lsv_50mvs_efin_-1900mv.bin
Data Source:  Experiment
Instrument Model:  CHI760E
Header: LSV ran at 50 mVs with Efin at -1900mV
Note: 

Init E (V) = -0.6
Final E (V) = -1.9
Scan Rate (V/s) = 0.05
Sample Interval (V) = 0.001
Quiet Time (sec) = 2
Sensitivity (A/V) = 1e-4
Comp R (ohm) = 9.4

Results:

Channel 1:
Ep = -1.282V
ip = 5.325e-4A
Ah = 7.125e-4C

Potential/V, Current/A

-0.600, -4.444e-5
-0.601, -3.981e-5
-0.602, -3.520e-5
-0.603, -3.163e-5
-0.604, -2.870e-5
-0.605, -2.613e-5
-0.606, -2.379e-5
-0.607, -2.163e-5
-0.608, -1.963e-5
-0.609, -1.780e-5
-0.610, -1.606e-5
-0.611, -1.437e-5
-0.612, -1.277e-5
-0.613, -1.124e-5
-0.614, -9.768e-6
-0.615, -8.370e-6
-0.616, -7.016e-6
-0.617, -5.688e-6
-0.618, -4.453e-6
-0.619, -3.247e-6
-0.620, -2.098e-6
-0.621, -9.261e-7
-0.622, 2.167e-7
-0.623, 1.306e-6
-0.624, 2.374e-6
-0.625, 3.374e-6
-0.626, 4.383e-6
-0.627, 5.411e-6
-0.628, 6.367e-6
-0.629, 7.284e-6
-0.630, 8.193e-6
-0.631, 9.093e-6
-0.632, 1.001e-5
-0.633, 1.088e-5
-0.634, 1.171e-5
-0.635, 1.251e-5
-0.636, 1.332e-5
-0.637, 1.415e-5
-0.638, 1.494e-5
-0.639, 1.568e-5
-0.640, 1.645e-5
-0.641, 1.719e-5
-0.642, 1.794e-5
-0.643, 1.867e-5
-0.644, 1.935e-5
-0.645, 2.003e-5
-0.646, 2.072e-5
-0.647, 2.142e-5
-0.648, 2.208e-5
-0.649, 2.272e-5
-0.650, 2.332e-5
-0.651, 2.399e-5
-0.652, 2.463e-5
-0.653, 2.526e-5
-0.654, 2.585e-5
-0.655, 2.642e-5
-0.656, 2.703e-5
-0.657, 2.763e-5
-0.658, 2.820e-5
-0.659, 2.876e-5
-0.660, 2.929e-5
-0.661, 2.984e-5
-0.662, 3.042e-5
-0.663, 3.097e-5
-0.664, 3.149e-5
-0.665, 3.201e-5
-0.666, 3.257e-5
-0.667, 3.313e-5
-0.668, 3.361e-5
-0.669, 3.409e-5
-0.670, 3.458e-5
-0.671, 3.506e-5
-0.672, 3.559e-5
-0.673, 3.608e-5
-0.674, 3.653e-5
-0.675, 3.700e-5
-0.676, 3.747e-5
-0.677, 3.795e-5
-0.678, 3.843e-5
-0.679, 3.886e-5
-0.680, 3.930e-5
-0.681, 3.976e-5
-0.682, 4.022e-5
-0.683, 4.067e-5
-0.684, 4.109e-5
-0.685, 4.152e-5
-0.686, 4.195e-5
-0.687, 4.240e-5
-0.688, 4.285e-5
-0.689, 4.323e-5
-0.690, 4.362e-5
-0.691, 4.406e-5
-0.692, 4.449e-5
-0.693, 4.491e-5
-0.694, 4.531e-5
-0.695, 4.567e-5
-0.696, 4.609e-5
-0.697, 4.651e-5
-0.698, 4.692e-5
-0.699, 4.730e-5
-0.700, 4.766e-5
-0.701, 4.807e-5
-0.702, 4.849e-5
-0.703, 4.886e-5
-0.704, 4.924e-5
-0.705, 4.961e-5
-0.706, 4.998e-5
-0.707, 5.039e-5
-0.708, 5.078e-5
-0.709, 5.114e-5
-0.710, 5.149e-5
-0.711, 5.185e-5
-0.712, 5.226e-5
-0.713, 5.264e-5
-0.714, 5.298e-5
-0.715, 5.334e-5
-0.716, 5.372e-5
-0.717, 5.411e-5
-0.718, 5.448e-5
-0.719, 5.479e-5
-0.720, 5.514e-5
-0.721, 5.552e-5
-0.722, 5.591e-5
-0.723, 5.626e-5
-0.724, 5.659e-5
-0.725, 5.694e-5
-0.726, 5.731e-5
-0.727, 5.766e-5
-0.728, 5.804e-5
-0.729, 5.837e-5
-0.730, 5.870e-5
-0.731, 5.907e-5
-0.732, 5.943e-5
-0.733, 5.978e-5
-0.734, 6.011e-5
-0.735, 6.044e-5
-0.736, 6.081e-5
-0.737, 6.117e-5
-0.738, 6.152e-5
-0.739, 6.185e-5
-0.740, 6.216e-5
-0.741, 6.253e-5
-0.742, 6.291e-5
-0.743, 6.326e-5
-0.744, 6.360e-5
-0.745, 6.392e-5
-0.746, 6.427e-5
-0.747, 6.465e-5
-0.748, 6.499e-5
-0.749, 6.531e-5
-0.750, 6.564e-5
-0.751, 6.598e-5
-0.752, 6.637e-5
-0.753, 6.671e-5
-0.754, 6.703e-5
-0.755, 6.736e-5
-0.756, 6.772e-5
-0.757, 6.811e-5
-0.758, 6.846e-5
-0.759, 6.875e-5
-0.760, 6.909e-5
-0.761, 6.944e-5
-0.762, 6.981e-5
-0.763, 7.016e-5
-0.764, 7.049e-5
-0.765, 7.082e-5
-0.766, 7.118e-5
-0.767, 7.157e-5
-0.768, 7.194e-5
-0.769, 7.231e-5
-0.770, 7.262e-5
-0.771, 7.298e-5
-0.772, 7.333e-5
-0.773, 7.369e-5
-0.774, 7.403e-5
-0.775, 7.434e-5
-0.776, 7.470e-5
-0.777, 7.507e-5
-0.778, 7.540e-5
-0.779, 7.575e-5
-0.780, 7.608e-5
-0.781, 7.645e-5
-0.782, 7.683e-5
-0.783, 7.718e-5
-0.784, 7.750e-5
-0.785, 7.784e-5
-0.786, 7.821e-5
-0.787, 7.860e-5
-0.788, 7.894e-5
-0.789, 7.929e-5
-0.790, 7.964e-5
-0.791, 7.999e-5
-0.792, 8.038e-5
-0.793, 8.074e-5
-0.794, 8.109e-5
-0.795, 8.143e-5
-0.796, 8.179e-5
-0.797, 8.219e-5
-0.798, 8.255e-5
-0.799, 8.288e-5
-0.800, 8.323e-5
-0.801, 8.360e-5
-0.802, 8.401e-5
-0.803, 8.438e-5
-0.804, 8.471e-5
-0.805, 8.506e-5
-0.806, 8.544e-5
-0.807, 8.583e-5
-0.808, 8.620e-5
-0.809, 8.655e-5
-0.810, 8.689e-5
-0.811, 8.727e-5
-0.812, 8.767e-5
-0.813, 8.804e-5
-0.814, 8.840e-5
-0.815, 8.875e-5
-0.816, 8.913e-5
-0.817, 8.952e-5
-0.818, 8.990e-5
-0.819, 9.030e-5
-0.820, 9.081e-5
-0.821, 9.116e-5
-0.822, 9.153e-5
-0.823, 9.187e-5
-0.824, 9.222e-5
-0.825, 9.257e-5
-0.826, 9.295e-5
-0.827, 9.335e-5
-0.828, 9.373e-5
-0.829, 9.408e-5
-0.830, 9.443e-5
-0.831, 9.481e-5
-0.832, 9.524e-5
-0.833, 9.561e-5
-0.834, 9.595e-5
-0.835, 9.632e-5
-0.836, 9.670e-5
-0.837, 9.711e-5
-0.838, 9.751e-5
-0.839, 9.784e-5
-0.840, 9.823e-5
-0.841, 9.863e-5
-0.842, 9.901e-5
-0.843, 9.942e-5
-0.844, 9.978e-5
-0.845, 1.002e-4
-0.846, 1.006e-4
-0.847, 1.010e-4
-0.848, 1.014e-4
-0.849, 1.017e-4
-0.850, 1.021e-4
-0.851, 1.025e-4
-0.852, 1.029e-4
-0.853, 1.033e-4
-0.854, 1.037e-4
-0.855, 1.040e-4
-0.856, 1.045e-4
-0.857, 1.049e-4
-0.858, 1.053e-4
-0.859, 1.056e-4
-0.860, 1.060e-4
-0.861, 1.064e-4
-0.862, 1.068e-4
-0.863, 1.072e-4
-0.864, 1.076e-4
-0.865, 1.080e-4
-0.866, 1.084e-4
-0.867, 1.088e-4
-0.868, 1.092e-4
-0.869, 1.096e-4
-0.870, 1.100e-4
-0.871, 1.104e-4
-0.872, 1.109e-4
-0.873, 1.113e-4
-0.874, 1.116e-4
-0.875, 1.120e-4
-0.876, 1.124e-4
-0.877, 1.129e-4
-0.878, 1.133e-4
-0.879, 1.136e-4
-0.880, 1.141e-4
-0.881, 1.145e-4
-0.882, 1.149e-4
-0.883, 1.153e-4
-0.884, 1.157e-4
-0.885, 1.161e-4
-0.886, 1.165e-4
-0.887, 1.169e-4
-0.888, 1.174e-4
-0.889, 1.178e-4
-0.890, 1.181e-4
-0.891, 1.186e-4
-0.892, 1.190e-4
-0.893, 1.194e-4
-0.894, 1.198e-4
-0.895, 1.202e-4
-0.896, 1.207e-4
-0.897, 1.211e-4
-0.898, 1.215e-4
-0.899, 1.220e-4
-0.900, 1.224e-4
-0.901, 1.228e-4
-0.902, 1.232e-4
-0.903, 1.236e-4
-0.904, 1.241e-4
-0.905, 1.245e-4
-0.906, 1.249e-4
-0.907, 1.254e-4
-0.908, 1.258e-4
-0.909, 1.262e-4
-0.910, 1.267e-4
-0.911, 1.271e-4
-0.912, 1.276e-4
-0.913, 1.280e-4
-0.914, 1.284e-4
-0.915, 1.288e-4
-0.916, 1.293e-4
-0.917, 1.298e-4
-0.918, 1.302e-4
-0.919, 1.306e-4
-0.920, 1.311e-4
-0.921, 1.315e-4
-0.922, 1.320e-4
-0.923, 1.325e-4
-0.924, 1.329e-4
-0.925, 1.334e-4
-0.926, 1.338e-4
-0.927, 1.343e-4
-0.928, 1.348e-4
-0.929, 1.352e-4
-0.930, 1.357e-4
-0.931, 1.362e-4
-0.932, 1.366e-4
-0.933, 1.371e-4
-0.934, 1.376e-4
-0.935, 1.380e-4
-0.936, 1.385e-4
-0.937, 1.390e-4
-0.938, 1.395e-4
-0.939, 1.400e-4
-0.940, 1.404e-4
-0.941, 1.409e-4
-0.942, 1.414e-4
-0.943, 1.419e-4
-0.944, 1.424e-4
-0.945, 1.429e-4
-0.946, 1.434e-4
-0.947, 1.440e-4
-0.948, 1.444e-4
-0.949, 1.449e-4
-0.950, 1.454e-4
-0.951, 1.459e-4
-0.952, 1.465e-4
-0.953, 1.470e-4
-0.954, 1.475e-4
-0.955, 1.480e-4
-0.956, 1.486e-4
-0.957, 1.491e-4
-0.958, 1.497e-4
-0.959, 1.501e-4
-0.960, 1.507e-4
-0.961, 1.513e-4
-0.962, 1.518e-4
-0.963, 1.524e-4
-0.964, 1.529e-4
-0.965, 1.534e-4
-0.966, 1.540e-4
-0.967, 1.546e-4
-0.968, 1.552e-4
-0.969, 1.557e-4
-0.970, 1.563e-4
-0.971, 1.569e-4
-0.972, 1.575e-4
-0.973, 1.581e-4
-0.974, 1.587e-4
-0.975, 1.593e-4
-0.976, 1.599e-4
-0.977, 1.605e-4
-0.978, 1.611e-4
-0.979, 1.617e-4
-0.980, 1.623e-4
-0.981, 1.629e-4
-0.982, 1.636e-4
-0.983, 1.642e-4
-0.984, 1.648e-4
-0.985, 1.654e-4
-0.986, 1.661e-4
-0.987, 1.668e-4
-0.988, 1.674e-4
-0.989, 1.681e-4
-0.990, 1.687e-4
-0.991, 1.694e-4
-0.992, 1.701e-4
-0.993, 1.708e-4
-0.994, 1.714e-4
-0.995, 1.721e-4
-0.996, 1.728e-4
-0.997, 1.735e-4
-0.998, 1.742e-4
-0.999, 1.749e-4
-1.000, 1.756e-4
-1.001, 1.764e-4
-1.002, 1.771e-4
-1.003, 1.779e-4
-1.004, 1.786e-4
-1.005, 1.793e-4
-1.006, 1.801e-4
-1.007, 1.809e-4
-1.008, 1.817e-4
-1.009, 1.824e-4
-1.010, 1.832e-4
-1.011, 1.840e-4
-1.012, 1.848e-4
-1.013, 1.856e-4
-1.014, 1.864e-4
-1.015, 1.872e-4
-1.016, 1.880e-4
-1.017, 1.889e-4
-1.018, 1.898e-4
-1.019, 1.906e-4
-1.020, 1.914e-4
-1.021, 1.923e-4
-1.022, 1.932e-4
-1.023, 1.941e-4
-1.024, 1.950e-4
-1.025, 1.959e-4
-1.026, 1.968e-4
-1.027, 1.978e-4
-1.028, 1.986e-4
-1.029, 1.995e-4
-1.030, 2.004e-4
-1.031, 2.014e-4
-1.032, 2.023e-4
-1.033, 2.033e-4
-1.034, 2.042e-4
-1.035, 2.052e-4
-1.036, 2.062e-4
-1.037, 2.072e-4
-1.038, 2.082e-4
-1.039, 2.092e-4
-1.040, 2.102e-4
-1.041, 2.112e-4
-1.042, 2.122e-4
-1.043, 2.133e-4
-1.044, 2.143e-4
-1.045, 2.154e-4
-1.046, 2.165e-4
-1.047, 2.176e-4
-1.048, 2.186e-4
-1.049, 2.196e-4
-1.050, 2.207e-4
-1.051, 2.218e-4
-1.052, 2.230e-4
-1.053, 2.241e-4
-1.054, 2.252e-4
-1.055, 2.263e-4
-1.056, 2.275e-4
-1.057, 2.287e-4
-1.058, 2.298e-4
-1.059, 2.310e-4
-1.060, 2.322e-4
-1.061, 2.334e-4
-1.062, 2.346e-4
-1.063, 2.358e-4
-1.064, 2.370e-4
-1.065, 2.383e-4
-1.066, 2.395e-4
-1.067, 2.408e-4
-1.068, 2.420e-4
-1.069, 2.433e-4
-1.070, 2.446e-4
-1.071, 2.459e-4
-1.072, 2.472e-4
-1.073, 2.485e-4
-1.074, 2.498e-4
-1.075, 2.511e-4
-1.076, 2.526e-4
-1.077, 2.540e-4
-1.078, 2.553e-4
-1.079, 2.566e-4
-1.080, 2.580e-4
-1.081, 2.594e-4
-1.082, 2.609e-4
-1.083, 2.624e-4
-1.084, 2.638e-4
-1.085, 2.652e-4
-1.086, 2.667e-4
-1.087, 2.682e-4
-1.088, 2.697e-4
-1.089, 2.712e-4
-1.090, 2.727e-4
-1.091, 2.743e-4
-1.092, 2.758e-4
-1.093, 2.774e-4
-1.094, 2.790e-4
-1.095, 2.806e-4
-1.096, 2.822e-4
-1.097, 2.839e-4
-1.098, 2.855e-4
-1.099, 2.872e-4
-1.100, 2.889e-4
-1.101, 2.906e-4
-1.102, 2.923e-4
-1.103, 2.940e-4
-1.104, 2.957e-4
-1.105, 2.975e-4
-1.106, 2.993e-4
-1.107, 3.011e-4
-1.108, 3.029e-4
-1.109, 3.047e-4
-1.110, 3.066e-4
-1.111, 3.085e-4
-1.112, 3.104e-4
-1.113, 3.123e-4
-1.114, 3.142e-4
-1.115, 3.161e-4
-1.116, 3.181e-4
-1.117, 3.201e-4
-1.118, 3.222e-4
-1.119, 3.242e-4
-1.120, 3.262e-4
-1.121, 3.283e-4
-1.122, 3.304e-4
-1.123, 3.325e-4
-1.124, 3.346e-4
-1.125, 3.368e-4
-1.126, 3.390e-4
-1.127, 3.412e-4
-1.128, 3.434e-4
-1.129, 3.456e-4
-1.130, 3.478e-4
-1.131, 3.502e-4
-1.132, 3.525e-4
-1.133, 3.548e-4
-1.134, 3.571e-4
-1.135, 3.595e-4
-1.136, 3.619e-4
-1.137, 3.643e-4
-1.138, 3.667e-4
-1.139, 3.691e-4
-1.140, 3.716e-4
-1.141, 3.741e-4
-1.142, 3.766e-4
-1.143, 3.791e-4
-1.144, 3.817e-4
-1.145, 3.843e-4
-1.146, 3.869e-4
-1.147, 3.895e-4
-1.148, 3.921e-4
-1.149, 3.947e-4
-1.150, 3.974e-4
-1.151, 4.001e-4
-1.152, 4.029e-4
-1.153, 4.056e-4
-1.154, 4.083e-4
-1.155, 4.111e-4
-1.156, 4.139e-4
-1.157, 4.167e-4
-1.158, 4.196e-4
-1.159, 4.224e-4
-1.160, 4.253e-4
-1.161, 4.283e-4
-1.162, 4.313e-4
-1.163, 4.343e-4
-1.164, 4.372e-4
-1.165, 4.402e-4
-1.166, 4.433e-4
-1.167, 4.464e-4
-1.168, 4.495e-4
-1.169, 4.526e-4
-1.170, 4.557e-4
-1.171, 4.590e-4
-1.172, 4.623e-4
-1.173, 4.655e-4
-1.174, 4.687e-4
-1.175, 4.720e-4
-1.176, 4.754e-4
-1.177, 4.788e-4
-1.178, 4.822e-4
-1.179, 4.856e-4
-1.180, 4.890e-4
-1.181, 4.925e-4
-1.182, 4.960e-4
-1.183, 4.996e-4
-1.184, 5.031e-4
-1.185, 5.067e-4
-1.186, 5.103e-4
-1.187, 5.140e-4
-1.188, 5.177e-4
-1.189, 5.213e-4
-1.190, 5.251e-4
-1.191, 5.289e-4
-1.192, 5.327e-4
-1.193, 5.365e-4
-1.194, 5.404e-4
-1.195, 5.443e-4
-1.196, 5.482e-4
-1.197, 5.522e-4
-1.198, 5.562e-4
-1.199, 5.602e-4
-1.200, 5.642e-4
-1.201, 5.683e-4
-1.202, 5.725e-4
-1.203, 5.767e-4
-1.204, 5.808e-4
-1.205, 5.850e-4
-1.206, 5.893e-4
-1.207, 5.937e-4
-1.208, 5.980e-4
-1.209, 6.023e-4
-1.210, 6.067e-4
-1.211, 6.111e-4
-1.212, 6.156e-4
-1.213, 6.200e-4
-1.214, 6.246e-4
-1.215, 6.291e-4
-1.216, 6.337e-4
-1.217, 6.384e-4
-1.218, 6.430e-4
-1.219, 6.477e-4
-1.220, 6.524e-4
-1.221, 6.572e-4
-1.222, 6.620e-4
-1.223, 6.669e-4
-1.224, 6.717e-4
-1.225, 6.766e-4
-1.226, 6.816e-4
-1.227, 6.866e-4
-1.228, 6.916e-4
-1.229, 6.967e-4
-1.230, 7.019e-4
-1.231, 7.070e-4
-1.232, 7.122e-4
-1.233, 7.173e-4
-1.234, 7.225e-4
-1.235, 7.277e-4
-1.236, 7.330e-4
-1.237, 7.383e-4
-1.238, 7.437e-4
-1.239, 7.490e-4
-1.240, 7.544e-4
-1.241, 7.599e-4
-1.242, 7.654e-4
-1.243, 7.710e-4
-1.244, 7.765e-4
-1.245, 7.821e-4
-1.246, 7.877e-4
-1.247, 7.934e-4
-1.248, 7.991e-4
-1.249, 8.048e-4
-1.250, 8.106e-4
-1.251, 8.164e-4
-1.252, 8.223e-4
-1.253, 8.283e-4
-1.254, 8.342e-4
-1.255, 8.401e-4
-1.256, 8.462e-4
-1.257, 8.522e-4
-1.258, 8.583e-4
-1.259, 8.644e-4
-1.260, 8.706e-4
-1.261, 8.768e-4
-1.262, 8.831e-4
-1.263, 8.894e-4
-1.264, 8.957e-4
-1.265, 9.020e-4
-1.266, 9.084e-4
-1.267, 9.149e-4
-1.268, 9.213e-4
-1.269, 9.278e-4
-1.270, 9.344e-4
-1.271, 9.409e-4
-1.272, 9.476e-4
-1.273, 9.542e-4
-1.274, 9.609e-4
-1.275, 9.676e-4
-1.276, 9.743e-4
-1.277, 9.811e-4
-1.278, 9.879e-4
-1.279, 9.948e-4
-1.280, 1.002e-3
-1.281, 1.009e-3
-1.282, 1.011e-3
-1.283, 1.011e-3
-1.284, 1.011e-3
-1.285, 1.011e-3
-1.286, 1.011e-3
-1.287, 1.011e-3
-1.288, 1.011e-3
-1.289, 1.011e-3
-1.290, 1.011e-3
-1.291, 1.011e-3
-1.292, 1.011e-3
-1.293, 1.011e-3
-1.294, 1.011e-3
-1.295, 1.011e-3
-1.296, 1.011e-3
-1.297, 1.011e-3
-1.298, 1.011e-3
-1.299, 1.011e-3
-1.300, 1.011e-3
-1.301, 1.011e-3
-1.302, 1.011e-3
-1.303, 1.011e-3
-1.304, 1.011e-3
-1.305, 1.011e-3
-1.306, 1.011e-3
-1.307, 1.011e-3
-1.308, 1.011e-3
-1.309, 1.011e-3
-1.310, 1.011e-3
-1.311, 1.011e-3
-1.312, 1.011e-3
-1.313, 1.011e-3
-1.314, 1.011e-3
-1.315, 1.011e-3
-1.316, 1.011e-3
-1.317, 1.011e-3
-1.318, 1.011e-3
-1.319, 1.011e-3
-1.320, 1.011e-3
-1.321, 1.011e-3
-1.322, 1.011e-3
-1.323, 1.011e-3
-1.324, 1.011e-3
-1.325, 1.011e-3
-1.326, 1.011e-3
-1.327, 1.011e-3
-1.328, 1.011e-3
-1.329, 1.011e-3
-1.330, 1.011e-3
-1.331, 1.011e-3
-1.332, 1.011e-3
-1.333, 1.011e-3
-1.334, 1.011e-3
-1.335, 1.011e-3
-1.336, 1.011e-3
-1.337, 1.011e-3
-1.338, 1.011e-3
-1.339, 1.011e-3
-1.340, 1.011e-3
-1.341, 1.011e-3
-1.342, 1.011e-3
-1.343, 1.011e-3
-1.344, 1.011e-3
-1.345, 1.011e-3
-1.346, 1.011e-3
-1.347, 1.011e-3
-1.348, 1.011e-3
-1.349, 1.011e-3
-1.350, 1.011e-3
-1.351, 1.011e-3
-1.352, 1.011e-3
-1.353, 1.011e-3
-1.354, 1.011e-3
-1.355, 1.011e-3
-1.356, 1.011e-3
-1.357, 1.011e-3
-1.358, 1.011e-3
-1.359, 1.011e-3
-1.360, 1.011e-3
-1.361, 1.011e-3
-1.362, 1.011e-3
-1.363, 1.011e-3
-1.364, 1.011e-3
-1.365, 1.011e-3
-1.366, 1.011e-3
-1.367, 1.011e-3
-1.368, 1.011e-3
-1.369, 1.011e-3
-1.370, 1.011e-3
-1.371, 1.011e-3
-1.372, 1.011e-3
-1.373, 1.011e-3
-1.374, 1.011e-3
-1.375, 1.011e-3
-1.376, 1.011e-3
-1.377, 1.011e-3
-1.378, 1.011e-3
-1.379, 1.011e-3
-1.380, 1.011e-3
-1.381, 1.011e-3
-1.382, 1.011e-3
-1.383, 1.011e-3
-1.384, 1.011e-3
-1.385, 1.011e-3
-1.386, 1.011e-3
-1.387, 1.011e-3
-1.388, 1.011e-3
-1.389, 1.011e-3
-1.390, 1.011e-3
-1.391, 1.011e-3
-1.392, 1.011e-3
-1.393, 1.011e-3
-1.394, 1.011e-3
-1.395, 1.011e-3
-1.396, 1.011e-3
-1.397, 1.011e-3
-1.398, 1.011e-3
-1.399, 1.011e-3
-1.400, 1.011e-3
-1.401, 1.011e-3
-1.402, 1.011e-3
-1.403, 1.011e-3
-1.404, 1.011e-3
-1.405, 1.011e-3
-1.406, 1.011e-3
-1.407, 1.011e-3
-1.408, 1.011e-3
-1.409, 1.011e-3
-1.410, 1.011e-3
-1.411, 1.011e-3
-1.412, 1.011e-3
-1.413, 1.011e-3
-1.414, 1.011e-3
-1.415, 1.011e-3
-1.416, 1.011e-3
-1.417, 1.011e-3
-1.418, 1.011e-3
-1.419, 1.011e-3
-1.420, 1.011e-3
-1.421, 1.011e-3
-1.422, 1.011e-3
-1.423, 1.011e-3
-1.424, 1.011e-3
-1.425, 1.011e-3
-1.426, 1.011e-3
-1.427, 1.011e-3
-1.428, 1.011e-3
-1.429, 1.011e-3
-1.430, 1.011e-3
-1.431, 1.011e-3
-1.432, 1.011e-3
-1.433, 1.011e-3
-1.434, 1.011e-3
-1.435, 1.011e-3
-1.436, 1.011e-3
-1.437, 1.011e-3
-1.438, 1.011e-3
-1.439, 1.011e-3
-1.440, 1.011e-3
-1.441, 1.011e-3
-1.442, 1.011e-3
-1.443, 1.011e-3
-1.444, 1.011e-3
-1.445, 1.011e-3
-1.446, 1.011e-3
-1.447, 1.011e-3
-1.448, 1.011e-3
-1.449, 1.011e-3
-1.450, 1.011e-3
-1.451, 1.011e-3
-1.452, 1.011e-3
-1.453, 1.011e-3
-1.454, 1.011e-3
-1.455, 1.011e-3
-1.456, 1.011e-3
-1.457, 1.011e-3
-1.458, 1.011e-3
-1.459, 1.011e-3
-1.460, 1.011e-3
-1.461, 1.011e-3
-1.462, 1.011e-3
-1.463, 1.011e-3
-1.464, 1.011e-3
-1.465, 1.011e-3
-1.466, 1.011e-3
-1.467, 1.011e-3
-1.468, 1.011e-3
-1.469, 1.011e-3
-1.470, 1.011e-3
-1.471, 1.011e-3
-1.472, 1.011e-3
-1.473, 1.011e-3
-1.474, 1.011e-3
-1.475, 1.011e-3
-1.476, 1.011e-3
-1.477, 1.011e-3
-1.478, 1.011e-3
-1.479, 1.011e-3
-1.480, 1.011e-3
-1.481, 1.011e-3
-1.482, 1.011e-3
-1.483, 1.011e-3
-1.484, 1.011e-3
-1.485, 1.011e-3
-1.486, 1.011e-3
-1.487, 1.011e-3
-1.488, 1.011e-3
-1.489, 1.011e-3
-1.490, 1.011e-3
-1.491, 1.011e-3
-1.492, 1.011e-3
-1.493, 1.011e-3
-1.494, 1.011e-3
-1.495, 1.011e-3
-1.496, 1.011e-3
-1.497, 1.011e-3
-1.498, 1.011e-3
-1.499, 1.011e-3
-1.500, 1.011e-3
-1.501, 1.011e-3
-1.502, 1.011e-3
-1.503, 1.011e-3
-1.504, 1.011e-3
-1.505, 1.011e-3
-1.506, 1.011e-3
-1.507, 1.011e-3
-1.508, 1.011e-3
-1.509, 1.011e-3
-1.510, 1.011e-3
-1.511, 1.011e-3
-1.512, 1.011e-3
-1.513, 1.011e-3
-1.514, 1.011e-3
-1.515, 1.011e-3
-1.516, 1.011e-3
-1.517, 1.011e-3
-1.518, 1.011e-3
-1.519, 1.011e-3
-1.520, 1.011e-3
-1.521, 1.011e-3
-1.522, 1.011e-3
-1.523, 1.011e-3
-1.524, 1.011e-3
-1.525, 1.011e-3
-1.526, 1.011e-3
-1.527, 1.011e-3
-1.528, 1.011e-3
-1.529, 1.011e-3
-1.530, 1.011e-3
-1.531, 1.011e-3
-1.532, 1.011e-3
-1.533, 1.011e-3
-1.534, 1.011e-3
-1.535, 1.011e-3
-1.536, 1.011e-3
-1.537, 1.011e-3
-1.538, 1.011e-3
-1.539, 1.011e-3
-1.540, 1.011e-3
-1.541, 1.011e-3
-1.542, 1.011e-3
-1.543, 1.011e-3
-1.544, 1.011e-3
-1.545, 1.011e-3
-1.546, 1.011e-3
-1.547, 1.011e-3
-1.548, 1.011e-3
-1.549, 1.011e-3
-1.550, 1.011e-3
-1.551, 1.011e-3
-1.552, 1.011e-3
-1.553, 1.011e-3
-1.554, 1.011e-3
-1.555, 1.011e-3
-1.556, 1.011e-3
-1.557, 1.011e-3
-1.558, 1.011e-3
-1.559, 1.011e-3
-1.560, 1.011e-3
-1.561, 1.011e-3
-1.562, 1.011e-3
-1.563, 1.011e-3
-1.564, 1.011e-3
-1.565, 1.011e-3
-1.566, 1.011e-3
-1.567, 1.011e-3
-1.568, 1.011e-3
-1.569, 1.011e-3
-1.570, 1.011e-3
-1.571, 1.011e-3
-1.572, 1.011e-3
-1.573, 1.011e-3
-1.574, 1.011e-3
-1.575, 1.011e-3
-1.576, 1.011e-3
-1.577, 1.011e-3
-1.578, 1.011e-3
-1.579, 1.011e-3
-1.580, 1.011e-3
-1.581, 1.011e-3
-1.582, 1.011e-3
-1.583, 1.011e-3
-1.584, 1.011e-3
-1.585, 1.011e-3
-1.586, 1.011e-3
-1.587, 1.011e-3
-1.588, 1.011e-3
-1.589, 1.011e-3
-1.590, 1.011e-3
-1.591, 1.011e-3
-1.592, 1.011e-3
-1.593, 1.011e-3
-1.594, 1.011e-3
-1.595, 1.011e-3
-1.596, 1.011e-3
-1.597, 1.011e-3
-1.598, 1.011e-3
-1.599, 1.011e-3
-1.600, 1.011e-3
-1.601, 1.011e-3
-1.602, 1.011e-3
-1.603, 1.011e-3
-1.604, 1.011e-3
-1.605, 1.011e-3
-1.606, 1.011e-3
-1.607, 1.011e-3
-1.608, 1.011e-3
-1.609, 1.011e-3
-1.610, 1.011e-3
-1.611, 1.011e-3
-1.612, 1.011e-3
-1.613, 1.011e-3
-1.614, 1.011e-3
-1.615, 1.011e-3
-1.616, 1.011e-3
-1.617, 1.011e-3
-1.618, 1.011e-3
-1.619, 1.011e-3
-1.620, 1.011e-3
-1.621, 1.011e-3
-1.622, 1.011e-3
-1.623, 1.011e-3
-1.624, 1.011e-3
-1.625, 1.011e-3
-1.626, 1.011e-3
-1.627, 1.011e-3
-1.628, 1.011e-3
-1.629, 1.011e-3
-1.630, 1.011e-3
-1.631, 1.011e-3
-1.632, 1.011e-3
-1.633, 1.011e-3
-1.634, 1.011e-3
-1.635, 1.011e-3
-1.636, 1.011e-3
-1.637, 1.011e-3
-1.638, 1.011e-3
-1.639, 1.011e-3
-1.640, 1.011e-3
-1.641, 1.011e-3
-1.642, 1.011e-3
-1.643, 1.011e-3
-1.644, 1.011e-3
-1.645, 1.011e-3
-1.646, 1.011e-3
-1.647, 1.011e-3
-1.648, 1.011e-3
-1.649, 1.011e-3
-1.650, 1.011e-3
-1.651, 1.011e-3
-1.652, 1.011e-3
-1.653, 1.011e-3
-1.654, 1.011e-3
-1.655, 1.011e-3
-1.656, 1.011e-3
-1.657, 1.011e-3
-1.658, 1.011e-3
-1.659, 1.011e-3
-1.660, 1.011e-3
-1.661, 1.011e-3
-1.662, 1.011e-3
-1.663, 1.011e-3
-1.664, 1.011e-3
-1.665, 1.011e-3
-1.666, 1.011e-3
-1.667, 1.011e-3
-1.668, 1.011e-3
-1.669, 1.011e-3
-1.670, 1.011e-3
-1.671, 1.011e-3
-1.672, 1.011e-3
-1.673, 1.011e-3
-1.674, 1.011e-3
-1.675, 1.011e-3
-1.676, 1.011e-3
-1.677, 1.011e-3
-1.678, 1.011e-3
-1.679, 1.011e-3
-1.680, 1.011e-3
-1.681, 1.011e-3
-1.682, 1.011e-3
-1.683, 1.011e-3
-1.684, 1.011e-3
-1.685, 1.011e-3
-1.686, 1.011e-3
-1.687, 1.011e-3
-1.688, 1.011e-3
-1.689, 1.011e-3
-1.690, 1.011e-3
-1.691, 1.011e-3
-1.692, 1.011e-3
-1.693, 1.011e-3
-1.694, 1.011e-3
-1.695, 1.011e-3
-1.696, 1.011e-3
-1.697, 1.011e-3
-1.698, 1.011e-3
-1.699, 1.011e-3
-1.700, 1.011e-3
-1.701, 1.011e-3
-1.702, 1.011e-3
-1.703, 1.011e-3
-1.704, 1.011e-3
-1.705, 1.011e-3
-1.706, 1.011e-3
-1.707, 1.011e-3
-1.708, 1.011e-3
-1.709, 1.011e-3
-1.710, 1.011e-3
-1.711, 1.011e-3
-1.712, 1.011e-3
-1.713, 1.011e-3
-1.714, 1.011e-3
-1.715, 1.011e-3
-1.716, 1.011e-3
-1.717, 1.011e-3
-1.718, 1.011e-3
-1.719, 1.011e-3
-1.720, 1.011e-3
-1.721, 1.011e-3
-1.722, 1.011e-3
-1.723, 1.011e-3
-1.724, 1.011e-3
-1.725, 1.011e-3
-1.726, 1.011e-3
-1.727, 1.011e-3
-1.728, 1.011e-3
-1.729, 1.011e-3
-1.730, 1.011e-3
-1.731, 1.011e-3
-1.732, 1.011e-3
-1.733, 1.011e-3
-1.734, 1.011e-3
-1.735, 1.011e-3
-1.736, 1.011e-3
-1.737, 1.011e-3
-1.738, 1.011e-3
-1.739, 1.011e-3
-1.740, 1.011e-3
-1.741, 1.011e-3
-1.742, 1.011e-3
-1.743, 1.011e-3
-1.744, 1.011e-3
-1.745, 1.011e-3
-1.746, 1.011e-3
-1.747, 1.011e-3
-1.748, 1.011e-3
-1.749, 1.011e-3
-1.750, 1.011e-3
-1.751, 1.011e-3
-1.752, 1.011e-3
-1.753, 1.011e-3
-1.754, 1.011e-3
-1.755, 1.011e-3
-1.756, 1.011e-3
-1.757, 1.011e-3
-1.758, 1.011e-3
-1.759, 1.011e-3
-1.760, 1.011e-3
-1.761, 1.011e-3
-1.762, 1.011e-3
-1.763, 1.011e-3
-1.764, 1.011e-3
-1.765, 1.011e-3
-1.766, 1.011e-3
-1.767, 1.011e-3
-1.768, 1.011e-3
-1.769, 1.011e-3
-1.770, 1.011e-3
-1.771, 1.011e-3
-1.772, 1.011e-3
-1.773, 1.011e-3
-1.774, 1.011e-3
-1.775, 1.011e-3
-1.776, 1.011e-3
-1.777, 1.011e-3
-1.778, 1.011e-3
-1.779, 1.011e-3
-1.780, 1.011e-3
-1.781, 1.011e-3
-1.782, 1.011e-3
-1.783, 1.011e-3
-1.784, 1.011e-3
-1.785, 1.011e-3
-1.786, 1.011e-3
-1.787, 1.011e-3
-1.788, 1.011e-3
-1.789, 1.011e-3
-1.790, 1.011e-3
-1.791, 1.011e-3
-1.792, 1.011e-3
-1.793, 1.011e-3
-1.794, 1.011e-3
-1.795, 1.011e-3
-1.796, 1.011e-3
-1.797, 1.011e-3
-1.798, 1.011e-3
-1.799, 1.011e-3
-1.800, 1.011e-3
-1.801, 1.011e-3
-1.802, 1.011e-3
-1.803, 1.011e-3
-1.804, 1.011e-3
-1.805, 1.011e-3
-1.806, 1.011e-3
-1.807, 1.011e-3
-1.808, 1.011e-3
-1.809, 1.011e-3
-1.810, 1.011e-3
-1.811, 1.011e-3
-1.812, 1.011e-3
-1.813, 1.011e-3
-1.814, 1.011e-3
-1.815, 1.011e-3
-1.816, 1.011e-3
-1.817, 1.011e-3
-1.818, 1.011e-3
-1.819, 1.011e-3
-1.820, 1.011e-3
-1.821, 1.011e-3
-1.822, 1.011e-3
-1.823, 1.011e-3
-1.824, 1.011e-3
-1.825, 1.011e-3
-1.826, 1.011e-3
-1.827, 1.011e-3
-1.828, 1.011e-3
-1.829, 1.011e-3
-1.830, 1.011e-3
-1.831, 1.011e-3
-1.832, 1.011e-3
-1.833, 1.011e-3
-1.834, 1.011e-3
-1.835, 1.011e-3
-1.836, 1.011e-3
-1.837, 1.011e-3
-1.838, 1.011e-3
-1.839, 1.011e-3
-1.840, 1.011e-3
-1.841, 1.011e-3
-1.842, 1.011e-3
-1.843, 1.011e-3
-1.844, 1.011e-3
-1.845, 1.011e-3
-1.846, 1.011e-3
-1.847, 1.011e-3
-1.848, 1.011e-3
-1.849, 1.011e-3
-1.850, 1.011e-3
-1.851, 1.011e-3
-1.852, 1.011e-3
-1.853, 1.011e-3
-1.854, 1.011e-3
-1.855, 1.011e-3
-1.856, 1.011e-3
-1.857, 1.011e-3
-1.858, 1.011e-3
-1.859, 1.011e-3
-1.860, 1.011e-3
-1.861, 1.011e-3
-1.862, 1.011e-3
-1.863, 1.011e-3
-1.864, 1.011e-3
-1.865, 1.011e-3
-1.866, 1.011e-3
-1.867, 1.011e-3
-1.868, 1.011e-3
-1.869, 1.011e-3
-1.870, 1.011e-3
-1.871, 1.011e-3
-1.872, 1.011e-3
-1.873, 1.011e-3
-1.874, 1.011e-3
-1.875, 1.011e-3
-1.876, 1.011e-3
-1.877, 1.011e-3
-1.878, 1.011e-3
-1.879, 1.011e-3
-1.880, 1.011e-3
-1.881, 1.011e-3
-1.882, 1.011e-3
-1.883, 1.011e-3
-1.884, 1.011e-3
-1.885, 1.011e-3
-1.886, 1.011e-3
-1.887, 1.011e-3
-1.888, 1.011e-3
-1.889, 1.011e-3
-1.890, 1.011e-3
-1.891, 1.011e-3
-1.892, 1.011e-3
-1.893, 1.011e-3
-1.894, 1.011e-3
-1.895, 1.011e-3
-1.896, 1.011e-3
-1.897, 1.011e-3
-1.898, 1.011e-3
-1.899, 1.011e-3
