Apr. 9, 2025   15:46:24
Linear Sweep Voltammetry
File: c:/users/guazh/data/banditlqround7_x0exp994_r5/2025-03-28-exp1029\1acid_2ac-2025-04-09t15_43_13-lsvinphos\1acid_2ac_lsv_50mvs_efin_-2300mv.bin
Data Source:  Experiment
Instrument Model:  CHI760E
Header: LSV ran at 50 mVs with Efin at -2300mV
Note: 

Init E (V) = -0.6
Final E (V) = -2.3
Scan Rate (V/s) = 0.05
Sample Interval (V) = 0.001
Quiet Time (sec) = 2
Sensitivity (A/V) = 1e-4
Comp R (ohm) = 8.8

Results:

Channel 1:
Ep = -1.871V
ip = 8.790e-4A
Ah = 1.516e-3C

Potential/V, Current/A

-0.600, 2.493e-6
-0.601, 2.596e-6
-0.602, 2.637e-6
-0.603, 2.669e-6
-0.604, 2.700e-6
-0.605, 2.727e-6
-0.606, 2.756e-6
-0.607, 2.782e-6
-0.608, 2.811e-6
-0.609, 2.841e-6
-0.610, 2.868e-6
-0.611, 2.896e-6
-0.612, 2.923e-6
-0.613, 2.951e-6
-0.614, 2.982e-6
-0.615, 3.010e-6
-0.616, 3.037e-6
-0.617, 3.066e-6
-0.618, 3.095e-6
-0.619, 3.126e-6
-0.620, 3.153e-6
-0.621, 3.182e-6
-0.622, 3.210e-6
-0.623, 3.239e-6
-0.624, 3.268e-6
-0.625, 3.297e-6
-0.626, 3.326e-6
-0.627, 3.358e-6
-0.628, 3.389e-6
-0.629, 3.420e-6
-0.630, 3.450e-6
-0.631, 3.480e-6
-0.632, 3.509e-6
-0.633, 3.540e-6
-0.634, 3.572e-6
-0.635, 3.604e-6
-0.636, 3.635e-6
-0.637, 3.664e-6
-0.638, 3.696e-6
-0.639, 3.730e-6
-0.640, 3.761e-6
-0.641, 3.793e-6
-0.642, 3.824e-6
-0.643, 3.857e-6
-0.644, 3.891e-6
-0.645, 3.923e-6
-0.646, 3.954e-6
-0.647, 3.986e-6
-0.648, 4.020e-6
-0.649, 4.053e-6
-0.650, 4.084e-6
-0.651, 4.116e-6
-0.652, 4.149e-6
-0.653, 4.182e-6
-0.654, 4.216e-6
-0.655, 4.248e-6
-0.656, 4.280e-6
-0.657, 4.313e-6
-0.658, 4.348e-6
-0.659, 4.383e-6
-0.660, 4.417e-6
-0.661, 4.449e-6
-0.662, 4.484e-6
-0.663, 4.519e-6
-0.664, 4.556e-6
-0.665, 4.589e-6
-0.666, 4.624e-6
-0.667, 4.658e-6
-0.668, 4.693e-6
-0.669, 4.728e-6
-0.670, 4.762e-6
-0.671, 4.796e-6
-0.672, 4.831e-6
-0.673, 4.865e-6
-0.674, 4.900e-6
-0.675, 4.935e-6
-0.676, 4.969e-6
-0.677, 5.002e-6
-0.678, 5.040e-6
-0.679, 5.076e-6
-0.680, 5.109e-6
-0.681, 5.143e-6
-0.682, 5.177e-6
-0.683, 5.211e-6
-0.684, 5.248e-6
-0.685, 5.281e-6
-0.686, 5.316e-6
-0.687, 5.350e-6
-0.688, 5.385e-6
-0.689, 5.419e-6
-0.690, 5.451e-6
-0.691, 5.486e-6
-0.692, 5.520e-6
-0.693, 5.555e-6
-0.694, 5.589e-6
-0.695, 5.623e-6
-0.696, 5.654e-6
-0.697, 5.687e-6
-0.698, 5.721e-6
-0.699, 5.756e-6
-0.700, 5.789e-6
-0.701, 5.821e-6
-0.702, 5.853e-6
-0.703, 5.885e-6
-0.704, 5.916e-6
-0.705, 5.946e-6
-0.706, 5.976e-6
-0.707, 6.008e-6
-0.708, 6.039e-6
-0.709, 6.071e-6
-0.710, 6.103e-6
-0.711, 6.132e-6
-0.712, 6.161e-6
-0.713, 6.191e-6
-0.714, 6.219e-6
-0.715, 6.247e-6
-0.716, 6.274e-6
-0.717, 6.303e-6
-0.718, 6.334e-6
-0.719, 6.363e-6
-0.720, 6.389e-6
-0.721, 6.418e-6
-0.722, 6.445e-6
-0.723, 6.472e-6
-0.724, 6.499e-6
-0.725, 6.524e-6
-0.726, 6.550e-6
-0.727, 6.576e-6
-0.728, 6.601e-6
-0.729, 6.627e-6
-0.730, 6.651e-6
-0.731, 6.673e-6
-0.732, 6.697e-6
-0.733, 6.718e-6
-0.734, 6.744e-6
-0.735, 6.763e-6
-0.736, 6.786e-6
-0.737, 6.809e-6
-0.738, 6.829e-6
-0.739, 6.851e-6
-0.740, 6.870e-6
-0.741, 6.888e-6
-0.742, 6.907e-6
-0.743, 6.926e-6
-0.744, 6.945e-6
-0.745, 6.963e-6
-0.746, 6.980e-6
-0.747, 6.997e-6
-0.748, 7.012e-6
-0.749, 7.029e-6
-0.750, 7.045e-6
-0.751, 7.059e-6
-0.752, 7.074e-6
-0.753, 7.089e-6
-0.754, 7.103e-6
-0.755, 7.118e-6
-0.756, 7.129e-6
-0.757, 7.140e-6
-0.758, 7.153e-6
-0.759, 7.164e-6
-0.760, 7.176e-6
-0.761, 7.187e-6
-0.762, 7.195e-6
-0.763, 7.205e-6
-0.764, 7.215e-6
-0.765, 7.223e-6
-0.766, 7.231e-6
-0.767, 7.238e-6
-0.768, 7.248e-6
-0.769, 7.256e-6
-0.770, 7.262e-6
-0.771, 7.267e-6
-0.772, 7.273e-6
-0.773, 7.277e-6
-0.774, 7.284e-6
-0.775, 7.288e-6
-0.776, 7.291e-6
-0.777, 7.294e-6
-0.778, 7.297e-6
-0.779, 7.302e-6
-0.780, 7.304e-6
-0.781, 7.306e-6
-0.782, 7.308e-6
-0.783, 7.308e-6
-0.784, 7.311e-6
-0.785, 7.312e-6
-0.786, 7.310e-6
-0.787, 7.311e-6
-0.788, 7.312e-6
-0.789, 7.312e-6
-0.790, 7.310e-6
-0.791, 7.308e-6
-0.792, 7.307e-6
-0.793, 7.305e-6
-0.794, 7.304e-6
-0.795, 7.301e-6
-0.796, 7.298e-6
-0.797, 7.294e-6
-0.798, 7.291e-6
-0.799, 7.288e-6
-0.800, 7.284e-6
-0.801, 7.280e-6
-0.802, 7.274e-6
-0.803, 7.270e-6
-0.804, 7.265e-6
-0.805, 7.261e-6
-0.806, 7.255e-6
-0.807, 7.249e-6
-0.808, 7.243e-6
-0.809, 7.239e-6
-0.810, 7.233e-6
-0.811, 7.225e-6
-0.812, 7.219e-6
-0.813, 7.211e-6
-0.814, 7.206e-6
-0.815, 7.198e-6
-0.816, 7.190e-6
-0.817, 7.182e-6
-0.818, 7.173e-6
-0.819, 7.170e-6
-0.820, 7.164e-6
-0.821, 7.152e-6
-0.822, 7.142e-6
-0.823, 7.134e-6
-0.824, 7.126e-6
-0.825, 7.119e-6
-0.826, 7.108e-6
-0.827, 7.098e-6
-0.828, 7.089e-6
-0.829, 7.080e-6
-0.830, 7.071e-6
-0.831, 7.059e-6
-0.832, 7.051e-6
-0.833, 7.041e-6
-0.834, 7.031e-6
-0.835, 7.022e-6
-0.836, 7.011e-6
-0.837, 7.000e-6
-0.838, 6.991e-6
-0.839, 6.981e-6
-0.840, 6.971e-6
-0.841, 6.960e-6
-0.842, 6.948e-6
-0.843, 6.938e-6
-0.844, 6.928e-6
-0.845, 6.918e-6
-0.846, 6.908e-6
-0.847, 6.895e-6
-0.848, 6.885e-6
-0.849, 6.875e-6
-0.850, 6.865e-6
-0.851, 6.855e-6
-0.852, 6.843e-6
-0.853, 6.831e-6
-0.854, 6.822e-6
-0.855, 6.809e-6
-0.856, 6.798e-6
-0.857, 6.787e-6
-0.858, 6.775e-6
-0.859, 6.765e-6
-0.860, 6.753e-6
-0.861, 6.741e-6
-0.862, 6.730e-6
-0.863, 6.718e-6
-0.864, 6.710e-6
-0.865, 6.699e-6
-0.866, 6.687e-6
-0.867, 6.675e-6
-0.868, 6.665e-6
-0.869, 6.654e-6
-0.870, 6.645e-6
-0.871, 6.635e-6
-0.872, 6.622e-6
-0.873, 6.612e-6
-0.874, 6.601e-6
-0.875, 6.590e-6
-0.876, 6.579e-6
-0.877, 6.568e-6
-0.878, 6.556e-6
-0.879, 6.546e-6
-0.880, 6.534e-6
-0.881, 6.523e-6
-0.882, 6.513e-6
-0.883, 6.502e-6
-0.884, 6.493e-6
-0.885, 6.483e-6
-0.886, 6.472e-6
-0.887, 6.461e-6
-0.888, 6.450e-6
-0.889, 6.441e-6
-0.890, 6.430e-6
-0.891, 6.420e-6
-0.892, 6.409e-6
-0.893, 6.398e-6
-0.894, 6.390e-6
-0.895, 6.380e-6
-0.896, 6.370e-6
-0.897, 6.359e-6
-0.898, 6.348e-6
-0.899, 6.341e-6
-0.900, 6.330e-6
-0.901, 6.319e-6
-0.902, 6.309e-6
-0.903, 6.300e-6
-0.904, 6.290e-6
-0.905, 6.281e-6
-0.906, 6.270e-6
-0.907, 6.261e-6
-0.908, 6.251e-6
-0.909, 6.243e-6
-0.910, 6.236e-6
-0.911, 6.225e-6
-0.912, 6.217e-6
-0.913, 6.209e-6
-0.914, 6.200e-6
-0.915, 6.192e-6
-0.916, 6.184e-6
-0.917, 6.175e-6
-0.918, 6.166e-6
-0.919, 6.159e-6
-0.920, 6.151e-6
-0.921, 6.143e-6
-0.922, 6.134e-6
-0.923, 6.125e-6
-0.924, 6.117e-6
-0.925, 6.108e-6
-0.926, 6.100e-6
-0.927, 6.091e-6
-0.928, 6.083e-6
-0.929, 6.075e-6
-0.930, 6.068e-6
-0.931, 6.060e-6
-0.932, 6.051e-6
-0.933, 6.042e-6
-0.934, 6.036e-6
-0.935, 6.029e-6
-0.936, 6.021e-6
-0.937, 6.012e-6
-0.938, 6.002e-6
-0.939, 5.997e-6
-0.940, 5.990e-6
-0.941, 5.983e-6
-0.942, 5.975e-6
-0.943, 5.967e-6
-0.944, 5.960e-6
-0.945, 5.954e-6
-0.946, 5.946e-6
-0.947, 5.940e-6
-0.948, 5.933e-6
-0.949, 5.927e-6
-0.950, 5.921e-6
-0.951, 5.914e-6
-0.952, 5.907e-6
-0.953, 5.901e-6
-0.954, 5.896e-6
-0.955, 5.890e-6
-0.956, 5.883e-6
-0.957, 5.876e-6
-0.958, 5.870e-6
-0.959, 5.864e-6
-0.960, 5.860e-6
-0.961, 5.854e-6
-0.962, 5.845e-6
-0.963, 5.839e-6
-0.964, 5.834e-6
-0.965, 5.827e-6
-0.966, 5.822e-6
-0.967, 5.815e-6
-0.968, 5.808e-6
-0.969, 5.804e-6
-0.970, 5.798e-6
-0.971, 5.792e-6
-0.972, 5.786e-6
-0.973, 5.780e-6
-0.974, 5.776e-6
-0.975, 5.771e-6
-0.976, 5.764e-6
-0.977, 5.759e-6
-0.978, 5.751e-6
-0.979, 5.747e-6
-0.980, 5.743e-6
-0.981, 5.737e-6
-0.982, 5.730e-6
-0.983, 5.725e-6
-0.984, 5.721e-6
-0.985, 5.718e-6
-0.986, 5.712e-6
-0.987, 5.706e-6
-0.988, 5.700e-6
-0.989, 5.697e-6
-0.990, 5.694e-6
-0.991, 5.687e-6
-0.992, 5.684e-6
-0.993, 5.678e-6
-0.994, 5.673e-6
-0.995, 5.671e-6
-0.996, 5.665e-6
-0.997, 5.661e-6
-0.998, 5.656e-6
-0.999, 5.653e-6
-1.000, 5.649e-6
-1.001, 5.644e-6
-1.002, 5.639e-6
-1.003, 5.635e-6
-1.004, 5.633e-6
-1.005, 5.628e-6
-1.006, 5.625e-6
-1.007, 5.620e-6
-1.008, 5.616e-6
-1.009, 5.614e-6
-1.010, 5.610e-6
-1.011, 5.607e-6
-1.012, 5.602e-6
-1.013, 5.598e-6
-1.014, 5.596e-6
-1.015, 5.593e-6
-1.016, 5.589e-6
-1.017, 5.585e-6
-1.018, 5.581e-6
-1.019, 5.578e-6
-1.020, 5.576e-6
-1.021, 5.571e-6
-1.022, 5.567e-6
-1.023, 5.564e-6
-1.024, 5.562e-6
-1.025, 5.562e-6
-1.026, 5.557e-6
-1.027, 5.553e-6
-1.028, 5.550e-6
-1.029, 5.548e-6
-1.030, 5.547e-6
-1.031, 5.544e-6
-1.032, 5.541e-6
-1.033, 5.537e-6
-1.034, 5.536e-6
-1.035, 5.534e-6
-1.036, 5.531e-6
-1.037, 5.528e-6
-1.038, 5.525e-6
-1.039, 5.524e-6
-1.040, 5.523e-6
-1.041, 5.521e-6
-1.042, 5.517e-6
-1.043, 5.515e-6
-1.044, 5.514e-6
-1.045, 5.512e-6
-1.046, 5.510e-6
-1.047, 5.507e-6
-1.048, 5.505e-6
-1.049, 5.505e-6
-1.050, 5.503e-6
-1.051, 5.501e-6
-1.052, 5.499e-6
-1.053, 5.497e-6
-1.054, 5.496e-6
-1.055, 5.495e-6
-1.056, 5.493e-6
-1.057, 5.491e-6
-1.058, 5.488e-6
-1.059, 5.488e-6
-1.060, 5.489e-6
-1.061, 5.485e-6
-1.062, 5.485e-6
-1.063, 5.483e-6
-1.064, 5.483e-6
-1.065, 5.484e-6
-1.066, 5.479e-6
-1.067, 5.478e-6
-1.068, 5.477e-6
-1.069, 5.476e-6
-1.070, 5.476e-6
-1.071, 5.474e-6
-1.072, 5.473e-6
-1.073, 5.472e-6
-1.074, 5.471e-6
-1.075, 5.472e-6
-1.076, 5.471e-6
-1.077, 5.468e-6
-1.078, 5.467e-6
-1.079, 5.466e-6
-1.080, 5.467e-6
-1.081, 5.464e-6
-1.082, 5.462e-6
-1.083, 5.461e-6
-1.084, 5.460e-6
-1.085, 5.460e-6
-1.086, 5.457e-6
-1.087, 5.455e-6
-1.088, 5.454e-6
-1.089, 5.453e-6
-1.090, 5.452e-6
-1.091, 5.451e-6
-1.092, 5.449e-6
-1.093, 5.447e-6
-1.094, 5.446e-6
-1.095, 5.446e-6
-1.096, 5.443e-6
-1.097, 5.442e-6
-1.098, 5.440e-6
-1.099, 5.439e-6
-1.100, 5.438e-6
-1.101, 5.435e-6
-1.102, 5.434e-6
-1.103, 5.432e-6
-1.104, 5.431e-6
-1.105, 5.429e-6
-1.106, 5.426e-6
-1.107, 5.424e-6
-1.108, 5.422e-6
-1.109, 5.420e-6
-1.110, 5.420e-6
-1.111, 5.416e-6
-1.112, 5.413e-6
-1.113, 5.412e-6
-1.114, 5.410e-6
-1.115, 5.410e-6
-1.116, 5.407e-6
-1.117, 5.405e-6
-1.118, 5.403e-6
-1.119, 5.401e-6
-1.120, 5.399e-6
-1.121, 5.396e-6
-1.122, 5.393e-6
-1.123, 5.391e-6
-1.124, 5.390e-6
-1.125, 5.387e-6
-1.126, 5.384e-6
-1.127, 5.382e-6
-1.128, 5.378e-6
-1.129, 5.376e-6
-1.130, 5.374e-6
-1.131, 5.372e-6
-1.132, 5.369e-6
-1.133, 5.365e-6
-1.134, 5.363e-6
-1.135, 5.362e-6
-1.136, 5.358e-6
-1.137, 5.356e-6
-1.138, 5.352e-6
-1.139, 5.350e-6
-1.140, 5.349e-6
-1.141, 5.345e-6
-1.142, 5.343e-6
-1.143, 5.338e-6
-1.144, 5.337e-6
-1.145, 5.337e-6
-1.146, 5.333e-6
-1.147, 5.330e-6
-1.148, 5.326e-6
-1.149, 5.325e-6
-1.150, 5.325e-6
-1.151, 5.320e-6
-1.152, 5.318e-6
-1.153, 5.316e-6
-1.154, 5.313e-6
-1.155, 5.312e-6
-1.156, 5.309e-6
-1.157, 5.305e-6
-1.158, 5.305e-6
-1.159, 5.303e-6
-1.160, 5.302e-6
-1.161, 5.299e-6
-1.162, 5.296e-6
-1.163, 5.293e-6
-1.164, 5.291e-6
-1.165, 5.290e-6
-1.166, 5.289e-6
-1.167, 5.286e-6
-1.168, 5.283e-6
-1.169, 5.282e-6
-1.170, 5.281e-6
-1.171, 5.279e-6
-1.172, 5.277e-6
-1.173, 5.275e-6
-1.174, 5.274e-6
-1.175, 5.274e-6
-1.176, 5.272e-6
-1.177, 5.270e-6
-1.178, 5.269e-6
-1.179, 5.267e-6
-1.180, 5.267e-6
-1.181, 5.265e-6
-1.182, 5.264e-6
-1.183, 5.263e-6
-1.184, 5.261e-6
-1.185, 5.262e-6
-1.186, 5.260e-6
-1.187, 5.257e-6
-1.188, 5.256e-6
-1.189, 5.256e-6
-1.190, 5.257e-6
-1.191, 5.255e-6
-1.192, 5.254e-6
-1.193, 5.253e-6
-1.194, 5.251e-6
-1.195, 5.254e-6
-1.196, 5.251e-6
-1.197, 5.250e-6
-1.198, 5.250e-6
-1.199, 5.249e-6
-1.200, 5.250e-6
-1.201, 5.251e-6
-1.202, 5.249e-6
-1.203, 5.250e-6
-1.204, 5.250e-6
-1.205, 5.250e-6
-1.206, 5.251e-6
-1.207, 5.249e-6
-1.208, 5.248e-6
-1.209, 5.249e-6
-1.210, 5.250e-6
-1.211, 5.249e-6
-1.212, 5.249e-6
-1.213, 5.249e-6
-1.214, 5.250e-6
-1.215, 5.251e-6
-1.216, 5.253e-6
-1.217, 5.251e-6
-1.218, 5.249e-6
-1.219, 5.251e-6
-1.220, 5.254e-6
-1.221, 5.253e-6
-1.222, 5.253e-6
-1.223, 5.254e-6
-1.224, 5.254e-6
-1.225, 5.257e-6
-1.226, 5.255e-6
-1.227, 5.256e-6
-1.228, 5.257e-6
-1.229, 5.263e-6
-1.230, 5.263e-6
-1.231, 5.261e-6
-1.232, 5.261e-6
-1.233, 5.264e-6
-1.234, 5.264e-6
-1.235, 5.267e-6
-1.236, 5.267e-6
-1.237, 5.268e-6
-1.238, 5.269e-6
-1.239, 5.269e-6
-1.240, 5.272e-6
-1.241, 5.274e-6
-1.242, 5.275e-6
-1.243, 5.277e-6
-1.244, 5.278e-6
-1.245, 5.280e-6
-1.246, 5.283e-6
-1.247, 5.283e-6
-1.248, 5.284e-6
-1.249, 5.288e-6
-1.250, 5.289e-6
-1.251, 5.291e-6
-1.252, 5.293e-6
-1.253, 5.294e-6
-1.254, 5.297e-6
-1.255, 5.300e-6
-1.256, 5.303e-6
-1.257, 5.304e-6
-1.258, 5.306e-6
-1.259, 5.308e-6
-1.260, 5.313e-6
-1.261, 5.314e-6
-1.262, 5.318e-6
-1.263, 5.319e-6
-1.264, 5.323e-6
-1.265, 5.326e-6
-1.266, 5.328e-6
-1.267, 5.331e-6
-1.268, 5.335e-6
-1.269, 5.338e-6
-1.270, 5.342e-6
-1.271, 5.346e-6
-1.272, 5.348e-6
-1.273, 5.352e-6
-1.274, 5.356e-6
-1.275, 5.360e-6
-1.276, 5.363e-6
-1.277, 5.367e-6
-1.278, 5.371e-6
-1.279, 5.373e-6
-1.280, 5.380e-6
-1.281, 5.385e-6
-1.282, 5.386e-6
-1.283, 5.391e-6
-1.284, 5.395e-6
-1.285, 5.401e-6
-1.286, 5.407e-6
-1.287, 5.410e-6
-1.288, 5.415e-6
-1.289, 5.418e-6
-1.290, 5.423e-6
-1.291, 5.429e-6
-1.292, 5.432e-6
-1.293, 5.437e-6
-1.294, 5.443e-6
-1.295, 5.450e-6
-1.296, 5.455e-6
-1.297, 5.462e-6
-1.298, 5.466e-6
-1.299, 5.472e-6
-1.300, 5.481e-6
-1.301, 5.485e-6
-1.302, 5.491e-6
-1.303, 5.497e-6
-1.304, 5.504e-6
-1.305, 5.511e-6
-1.306, 5.518e-6
-1.307, 5.524e-6
-1.308, 5.530e-6
-1.309, 5.536e-6
-1.310, 5.546e-6
-1.311, 5.553e-6
-1.312, 5.560e-6
-1.313, 5.569e-6
-1.314, 5.574e-6
-1.315, 5.583e-6
-1.316, 5.592e-6
-1.317, 5.598e-6
-1.318, 5.606e-6
-1.319, 5.615e-6
-1.320, 5.626e-6
-1.321, 5.633e-6
-1.322, 5.639e-6
-1.323, 5.648e-6
-1.324, 5.656e-6
-1.325, 5.666e-6
-1.326, 5.675e-6
-1.327, 5.682e-6
-1.328, 5.691e-6
-1.329, 5.700e-6
-1.330, 5.711e-6
-1.331, 5.721e-6
-1.332, 5.729e-6
-1.333, 5.739e-6
-1.334, 5.751e-6
-1.335, 5.761e-6
-1.336, 5.772e-6
-1.337, 5.782e-6
-1.338, 5.792e-6
-1.339, 5.804e-6
-1.340, 5.815e-6
-1.341, 5.826e-6
-1.342, 5.837e-6
-1.343, 5.846e-6
-1.344, 5.859e-6
-1.345, 5.871e-6
-1.346, 5.882e-6
-1.347, 5.892e-6
-1.348, 5.901e-6
-1.349, 5.913e-6
-1.350, 5.927e-6
-1.351, 5.939e-6
-1.352, 5.951e-6
-1.353, 5.963e-6
-1.354, 5.975e-6
-1.355, 5.989e-6
-1.356, 6.001e-6
-1.357, 6.011e-6
-1.358, 6.024e-6
-1.359, 6.037e-6
-1.360, 6.052e-6
-1.361, 6.064e-6
-1.362, 6.075e-6
-1.363, 6.088e-6
-1.364, 6.101e-6
-1.365, 6.114e-6
-1.366, 6.129e-6
-1.367, 6.140e-6
-1.368, 6.153e-6
-1.369, 6.168e-6
-1.370, 6.183e-6
-1.371, 6.198e-6
-1.372, 6.210e-6
-1.373, 6.223e-6
-1.374, 6.237e-6
-1.375, 6.251e-6
-1.376, 6.265e-6
-1.377, 6.279e-6
-1.378, 6.293e-6
-1.379, 6.309e-6
-1.380, 6.326e-6
-1.381, 6.341e-6
-1.382, 6.355e-6
-1.383, 6.373e-6
-1.384, 6.384e-6
-1.385, 6.401e-6
-1.386, 6.415e-6
-1.387, 6.428e-6
-1.388, 6.441e-6
-1.389, 6.457e-6
-1.390, 6.474e-6
-1.391, 6.489e-6
-1.392, 6.504e-6
-1.393, 6.520e-6
-1.394, 6.537e-6
-1.395, 6.555e-6
-1.396, 6.570e-6
-1.397, 6.585e-6
-1.398, 6.603e-6
-1.399, 6.617e-6
-1.400, 6.636e-6
-1.401, 6.653e-6
-1.402, 6.669e-6
-1.403, 6.687e-6
-1.404, 6.703e-6
-1.405, 6.721e-6
-1.406, 6.738e-6
-1.407, 6.755e-6
-1.408, 6.774e-6
-1.409, 6.793e-6
-1.410, 6.812e-6
-1.411, 6.830e-6
-1.412, 6.847e-6
-1.413, 6.863e-6
-1.414, 6.880e-6
-1.415, 6.900e-6
-1.416, 6.920e-6
-1.417, 6.938e-6
-1.418, 6.957e-6
-1.419, 6.979e-6
-1.420, 7.000e-6
-1.421, 7.021e-6
-1.422, 7.041e-6
-1.423, 7.062e-6
-1.424, 7.082e-6
-1.425, 7.107e-6
-1.426, 7.128e-6
-1.427, 7.149e-6
-1.428, 7.170e-6
-1.429, 7.190e-6
-1.430, 7.212e-6
-1.431, 7.233e-6
-1.432, 7.255e-6
-1.433, 7.278e-6
-1.434, 7.302e-6
-1.435, 7.326e-6
-1.436, 7.348e-6
-1.437, 7.370e-6
-1.438, 7.391e-6
-1.439, 7.414e-6
-1.440, 7.444e-6
-1.441, 7.472e-6
-1.442, 7.494e-6
-1.443, 7.520e-6
-1.444, 7.544e-6
-1.445, 7.571e-6
-1.446, 7.600e-6
-1.447, 7.625e-6
-1.448, 7.651e-6
-1.449, 7.677e-6
-1.450, 7.707e-6
-1.451, 7.738e-6
-1.452, 7.770e-6
-1.453, 7.795e-6
-1.454, 7.824e-6
-1.455, 7.852e-6
-1.456, 7.880e-6
-1.457, 7.907e-6
-1.458, 7.934e-6
-1.459, 7.966e-6
-1.460, 7.998e-6
-1.461, 8.028e-6
-1.462, 8.057e-6
-1.463, 8.087e-6
-1.464, 8.118e-6
-1.465, 8.151e-6
-1.466, 8.185e-6
-1.467, 8.219e-6
-1.468, 8.249e-6
-1.469, 8.283e-6
-1.470, 8.319e-6
-1.471, 8.351e-6
-1.472, 8.382e-6
-1.473, 8.417e-6
-1.474, 8.452e-6
-1.475, 8.489e-6
-1.476, 8.524e-6
-1.477, 8.558e-6
-1.478, 8.593e-6
-1.479, 8.625e-6
-1.480, 8.662e-6
-1.481, 8.701e-6
-1.482, 8.737e-6
-1.483, 8.774e-6
-1.484, 8.810e-6
-1.485, 8.848e-6
-1.486, 8.884e-6
-1.487, 8.923e-6
-1.488, 8.960e-6
-1.489, 8.999e-6
-1.490, 9.036e-6
-1.491, 9.076e-6
-1.492, 9.118e-6
-1.493, 9.158e-6
-1.494, 9.202e-6
-1.495, 9.247e-6
-1.496, 9.291e-6
-1.497, 9.333e-6
-1.498, 9.371e-6
-1.499, 9.410e-6
-1.500, 9.454e-6
-1.501, 9.496e-6
-1.502, 9.537e-6
-1.503, 9.576e-6
-1.504, 9.618e-6
-1.505, 9.662e-6
-1.506, 9.706e-6
-1.507, 9.751e-6
-1.508, 9.795e-6
-1.509, 9.839e-6
-1.510, 9.886e-6
-1.511, 9.928e-6
-1.512, 9.971e-6
-1.513, 1.002e-5
-1.514, 1.006e-5
-1.515, 1.011e-5
-1.516, 1.016e-5
-1.517, 1.020e-5
-1.518, 1.024e-5
-1.519, 1.029e-5
-1.520, 1.034e-5
-1.521, 1.038e-5
-1.522, 1.043e-5
-1.523, 1.048e-5
-1.524, 1.053e-5
-1.525, 1.058e-5
-1.526, 1.063e-5
-1.527, 1.067e-5
-1.528, 1.072e-5
-1.529, 1.077e-5
-1.530, 1.082e-5
-1.531, 1.088e-5
-1.532, 1.093e-5
-1.533, 1.098e-5
-1.534, 1.104e-5
-1.535, 1.109e-5
-1.536, 1.115e-5
-1.537, 1.120e-5
-1.538, 1.124e-5
-1.539, 1.130e-5
-1.540, 1.135e-5
-1.541, 1.140e-5
-1.542, 1.146e-5
-1.543, 1.152e-5
-1.544, 1.157e-5
-1.545, 1.163e-5
-1.546, 1.169e-5
-1.547, 1.174e-5
-1.548, 1.180e-5
-1.549, 1.186e-5
-1.550, 1.193e-5
-1.551, 1.199e-5
-1.552, 1.204e-5
-1.553, 1.209e-5
-1.554, 1.215e-5
-1.555, 1.221e-5
-1.556, 1.227e-5
-1.557, 1.234e-5
-1.558, 1.240e-5
-1.559, 1.247e-5
-1.560, 1.253e-5
-1.561, 1.260e-5
-1.562, 1.267e-5
-1.563, 1.274e-5
-1.564, 1.281e-5
-1.565, 1.288e-5
-1.566, 1.295e-5
-1.567, 1.303e-5
-1.568, 1.310e-5
-1.569, 1.317e-5
-1.570, 1.325e-5
-1.571, 1.333e-5
-1.572, 1.341e-5
-1.573, 1.350e-5
-1.574, 1.358e-5
-1.575, 1.366e-5
-1.576, 1.374e-5
-1.577, 1.383e-5
-1.578, 1.391e-5
-1.579, 1.399e-5
-1.580, 1.408e-5
-1.581, 1.417e-5
-1.582, 1.426e-5
-1.583, 1.436e-5
-1.584, 1.446e-5
-1.585, 1.456e-5
-1.586, 1.466e-5
-1.587, 1.476e-5
-1.588, 1.487e-5
-1.589, 1.498e-5
-1.590, 1.509e-5
-1.591, 1.521e-5
-1.592, 1.532e-5
-1.593, 1.544e-5
-1.594, 1.555e-5
-1.595, 1.568e-5
-1.596, 1.580e-5
-1.597, 1.594e-5
-1.598, 1.607e-5
-1.599, 1.620e-5
-1.600, 1.634e-5
-1.601, 1.648e-5
-1.602, 1.663e-5
-1.603, 1.678e-5
-1.604, 1.694e-5
-1.605, 1.709e-5
-1.606, 1.726e-5
-1.607, 1.743e-5
-1.608, 1.760e-5
-1.609, 1.777e-5
-1.610, 1.795e-5
-1.611, 1.813e-5
-1.612, 1.832e-5
-1.613, 1.852e-5
-1.614, 1.873e-5
-1.615, 1.893e-5
-1.616, 1.914e-5
-1.617, 1.936e-5
-1.618, 1.959e-5
-1.619, 1.982e-5
-1.620, 2.004e-5
-1.621, 2.029e-5
-1.622, 2.054e-5
-1.623, 2.079e-5
-1.624, 2.105e-5
-1.625, 2.134e-5
-1.626, 2.162e-5
-1.627, 2.192e-5
-1.628, 2.222e-5
-1.629, 2.252e-5
-1.630, 2.284e-5
-1.631, 2.317e-5
-1.632, 2.350e-5
-1.633, 2.384e-5
-1.634, 2.420e-5
-1.635, 2.456e-5
-1.636, 2.495e-5
-1.637, 2.535e-5
-1.638, 2.576e-5
-1.639, 2.618e-5
-1.640, 2.661e-5
-1.641, 2.706e-5
-1.642, 2.753e-5
-1.643, 2.798e-5
-1.644, 2.847e-5
-1.645, 2.897e-5
-1.646, 2.949e-5
-1.647, 3.002e-5
-1.648, 3.057e-5
-1.649, 3.114e-5
-1.650, 3.173e-5
-1.651, 3.235e-5
-1.652, 3.300e-5
-1.653, 3.364e-5
-1.654, 3.431e-5
-1.655, 3.500e-5
-1.656, 3.572e-5
-1.657, 3.646e-5
-1.658, 3.721e-5
-1.659, 3.799e-5
-1.660, 3.879e-5
-1.661, 3.961e-5
-1.662, 4.046e-5
-1.663, 4.134e-5
-1.664, 4.224e-5
-1.665, 4.318e-5
-1.666, 4.411e-5
-1.667, 4.509e-5
-1.668, 4.610e-5
-1.669, 4.715e-5
-1.670, 4.824e-5
-1.671, 4.935e-5
-1.672, 5.049e-5
-1.673, 5.167e-5
-1.674, 5.288e-5
-1.675, 5.412e-5
-1.676, 5.541e-5
-1.677, 5.674e-5
-1.678, 5.808e-5
-1.679, 5.946e-5
-1.680, 6.089e-5
-1.681, 6.235e-5
-1.682, 6.386e-5
-1.683, 6.541e-5
-1.684, 6.698e-5
-1.685, 6.859e-5
-1.686, 7.025e-5
-1.687, 7.194e-5
-1.688, 7.367e-5
-1.689, 7.545e-5
-1.690, 7.730e-5
-1.691, 7.917e-5
-1.692, 8.106e-5
-1.693, 8.301e-5
-1.694, 8.500e-5
-1.695, 8.702e-5
-1.696, 8.911e-5
-1.697, 9.121e-5
-1.698, 9.335e-5
-1.699, 9.555e-5
-1.700, 9.780e-5
-1.701, 1.001e-4
-1.702, 1.024e-4
-1.703, 1.048e-4
-1.704, 1.072e-4
-1.705, 1.096e-4
-1.706, 1.122e-4
-1.707, 1.147e-4
-1.708, 1.173e-4
-1.709, 1.200e-4
-1.710, 1.227e-4
-1.711, 1.254e-4
-1.712, 1.283e-4
-1.713, 1.311e-4
-1.714, 1.340e-4
-1.715, 1.369e-4
-1.716, 1.399e-4
-1.717, 1.429e-4
-1.718, 1.459e-4
-1.719, 1.489e-4
-1.720, 1.520e-4
-1.721, 1.550e-4
-1.722, 1.581e-4
-1.723, 1.612e-4
-1.724, 1.644e-4
-1.725, 1.676e-4
-1.726, 1.709e-4
-1.727, 1.742e-4
-1.728, 1.776e-4
-1.729, 1.812e-4
-1.730, 1.849e-4
-1.731, 1.888e-4
-1.732, 1.928e-4
-1.733, 1.970e-4
-1.734, 2.015e-4
-1.735, 2.060e-4
-1.736, 2.109e-4
-1.737, 2.158e-4
-1.738, 2.210e-4
-1.739, 2.264e-4
-1.740, 2.320e-4
-1.741, 2.377e-4
-1.742, 2.437e-4
-1.743, 2.498e-4
-1.744, 2.560e-4
-1.745, 2.624e-4
-1.746, 2.690e-4
-1.747, 2.756e-4
-1.748, 2.824e-4
-1.749, 2.893e-4
-1.750, 2.963e-4
-1.751, 3.033e-4
-1.752, 3.104e-4
-1.753, 3.176e-4
-1.754, 3.247e-4
-1.755, 3.318e-4
-1.756, 3.389e-4
-1.757, 3.459e-4
-1.758, 3.528e-4
-1.759, 3.596e-4
-1.760, 3.663e-4
-1.761, 3.730e-4
-1.762, 3.795e-4
-1.763, 3.858e-4
-1.764, 3.920e-4
-1.765, 3.981e-4
-1.766, 4.041e-4
-1.767, 4.099e-4
-1.768, 4.156e-4
-1.769, 4.212e-4
-1.770, 4.267e-4
-1.771, 4.321e-4
-1.772, 4.374e-4
-1.773, 4.426e-4
-1.774, 4.478e-4
-1.775, 4.528e-4
-1.776, 4.579e-4
-1.777, 4.629e-4
-1.778, 4.679e-4
-1.779, 4.729e-4
-1.780, 4.779e-4
-1.781, 4.830e-4
-1.782, 4.881e-4
-1.783, 4.932e-4
-1.784, 4.983e-4
-1.785, 5.035e-4
-1.786, 5.088e-4
-1.787, 5.142e-4
-1.788, 5.196e-4
-1.789, 5.252e-4
-1.790, 5.308e-4
-1.791, 5.366e-4
-1.792, 5.424e-4
-1.793, 5.483e-4
-1.794, 5.543e-4
-1.795, 5.604e-4
-1.796, 5.666e-4
-1.797, 5.729e-4
-1.798, 5.794e-4
-1.799, 5.860e-4
-1.800, 5.927e-4
-1.801, 5.994e-4
-1.802, 6.063e-4
-1.803, 6.133e-4
-1.804, 6.204e-4
-1.805, 6.275e-4
-1.806, 6.348e-4
-1.807, 6.421e-4
-1.808, 6.495e-4
-1.809, 6.571e-4
-1.810, 6.648e-4
-1.811, 6.725e-4
-1.812, 6.803e-4
-1.813, 6.881e-4
-1.814, 6.960e-4
-1.815, 7.040e-4
-1.816, 7.120e-4
-1.817, 7.200e-4
-1.818, 7.281e-4
-1.819, 7.362e-4
-1.820, 7.442e-4
-1.821, 7.523e-4
-1.822, 7.603e-4
-1.823, 7.684e-4
-1.824, 7.763e-4
-1.825, 7.842e-4
-1.826, 7.920e-4
-1.827, 7.998e-4
-1.828, 8.074e-4
-1.829, 8.149e-4
-1.830, 8.223e-4
-1.831, 8.296e-4
-1.832, 8.367e-4
-1.833, 8.436e-4
-1.834, 8.503e-4
-1.835, 8.568e-4
-1.836, 8.632e-4
-1.837, 8.693e-4
-1.838, 8.752e-4
-1.839, 8.808e-4
-1.840, 8.863e-4
-1.841, 8.916e-4
-1.842, 8.967e-4
-1.843, 9.015e-4
-1.844, 9.062e-4
-1.845, 9.108e-4
-1.846, 9.151e-4
-1.847, 9.193e-4
-1.848, 9.233e-4
-1.849, 9.272e-4
-1.850, 9.309e-4
-1.851, 9.346e-4
-1.852, 9.383e-4
-1.853, 9.418e-4
-1.854, 9.453e-4
-1.855, 9.489e-4
-1.856, 9.524e-4
-1.857, 9.560e-4
-1.858, 9.596e-4
-1.859, 9.632e-4
-1.860, 9.668e-4
-1.861, 9.706e-4
-1.862, 9.744e-4
-1.863, 9.784e-4
-1.864, 9.825e-4
-1.865, 9.868e-4
-1.866, 9.911e-4
-1.867, 9.956e-4
-1.868, 1.000e-3
-1.869, 1.005e-3
-1.870, 1.010e-3
-1.871, 1.011e-3
-1.872, 1.011e-3
-1.873, 1.011e-3
-1.874, 1.011e-3
-1.875, 1.011e-3
-1.876, 1.011e-3
-1.877, 1.011e-3
-1.878, 1.011e-3
-1.879, 1.011e-3
-1.880, 1.011e-3
-1.881, 1.011e-3
-1.882, 1.011e-3
-1.883, 1.011e-3
-1.884, 1.011e-3
-1.885, 1.011e-3
-1.886, 1.011e-3
-1.887, 1.011e-3
-1.888, 1.011e-3
-1.889, 1.011e-3
-1.890, 1.011e-3
-1.891, 1.011e-3
-1.892, 1.011e-3
-1.893, 1.011e-3
-1.894, 1.011e-3
-1.895, 1.011e-3
-1.896, 1.011e-3
-1.897, 1.011e-3
-1.898, 1.011e-3
-1.899, 1.011e-3
-1.900, 1.011e-3
-1.901, 1.011e-3
-1.902, 1.011e-3
-1.903, 1.011e-3
-1.904, 1.011e-3
-1.905, 1.011e-3
-1.906, 1.011e-3
-1.907, 1.011e-3
-1.908, 1.011e-3
-1.909, 1.011e-3
-1.910, 1.011e-3
-1.911, 1.011e-3
-1.912, 1.011e-3
-1.913, 1.011e-3
-1.914, 1.011e-3
-1.915, 1.011e-3
-1.916, 1.011e-3
-1.917, 1.011e-3
-1.918, 1.011e-3
-1.919, 1.011e-3
-1.920, 1.011e-3
-1.921, 1.011e-3
-1.922, 1.011e-3
-1.923, 1.011e-3
-1.924, 1.011e-3
-1.925, 1.011e-3
-1.926, 1.011e-3
-1.927, 1.011e-3
-1.928, 1.011e-3
-1.929, 1.011e-3
-1.930, 1.011e-3
-1.931, 1.011e-3
-1.932, 1.011e-3
-1.933, 1.011e-3
-1.934, 1.011e-3
-1.935, 1.011e-3
-1.936, 1.011e-3
-1.937, 1.011e-3
-1.938, 1.011e-3
-1.939, 1.011e-3
-1.940, 1.011e-3
-1.941, 1.011e-3
-1.942, 1.011e-3
-1.943, 1.011e-3
-1.944, 1.011e-3
-1.945, 1.011e-3
-1.946, 1.011e-3
-1.947, 1.011e-3
-1.948, 1.011e-3
-1.949, 1.011e-3
-1.950, 1.011e-3
-1.951, 1.011e-3
-1.952, 1.011e-3
-1.953, 1.011e-3
-1.954, 1.011e-3
-1.955, 1.011e-3
-1.956, 1.011e-3
-1.957, 1.011e-3
-1.958, 1.011e-3
-1.959, 1.011e-3
-1.960, 1.011e-3
-1.961, 1.011e-3
-1.962, 1.011e-3
-1.963, 1.011e-3
-1.964, 1.011e-3
-1.965, 1.011e-3
-1.966, 1.011e-3
-1.967, 1.011e-3
-1.968, 1.011e-3
-1.969, 1.011e-3
-1.970, 1.011e-3
-1.971, 1.011e-3
-1.972, 1.011e-3
-1.973, 1.011e-3
-1.974, 1.011e-3
-1.975, 1.011e-3
-1.976, 1.011e-3
-1.977, 1.011e-3
-1.978, 1.011e-3
-1.979, 1.011e-3
-1.980, 1.011e-3
-1.981, 1.011e-3
-1.982, 1.011e-3
-1.983, 1.011e-3
-1.984, 1.011e-3
-1.985, 1.011e-3
-1.986, 1.011e-3
-1.987, 1.011e-3
-1.988, 1.011e-3
-1.989, 1.011e-3
-1.990, 1.011e-3
-1.991, 1.011e-3
-1.992, 1.011e-3
-1.993, 1.011e-3
-1.994, 1.011e-3
-1.995, 1.011e-3
-1.996, 1.011e-3
-1.997, 1.011e-3
-1.998, 1.011e-3
-1.999, 1.011e-3
-2.000, 1.011e-3
-2.001, 1.011e-3
-2.002, 1.011e-3
-2.003, 1.011e-3
-2.004, 1.011e-3
-2.005, 1.011e-3
-2.006, 1.011e-3
-2.007, 1.011e-3
-2.008, 1.011e-3
-2.009, 1.011e-3
-2.010, 1.011e-3
-2.011, 1.011e-3
-2.012, 1.011e-3
-2.013, 1.011e-3
-2.014, 1.011e-3
-2.015, 1.011e-3
-2.016, 1.011e-3
-2.017, 1.011e-3
-2.018, 1.011e-3
-2.019, 1.011e-3
-2.020, 1.011e-3
-2.021, 1.011e-3
-2.022, 1.011e-3
-2.023, 1.011e-3
-2.024, 1.011e-3
-2.025, 1.011e-3
-2.026, 1.011e-3
-2.027, 1.011e-3
-2.028, 1.011e-3
-2.029, 1.011e-3
-2.030, 1.011e-3
-2.031, 1.011e-3
-2.032, 1.011e-3
-2.033, 1.011e-3
-2.034, 1.011e-3
-2.035, 1.011e-3
-2.036, 1.011e-3
-2.037, 1.011e-3
-2.038, 1.011e-3
-2.039, 1.011e-3
-2.040, 1.011e-3
-2.041, 1.011e-3
-2.042, 1.011e-3
-2.043, 1.011e-3
-2.044, 1.011e-3
-2.045, 1.011e-3
-2.046, 1.011e-3
-2.047, 1.011e-3
-2.048, 1.011e-3
-2.049, 1.011e-3
-2.050, 1.011e-3
-2.051, 1.011e-3
-2.052, 1.011e-3
-2.053, 1.011e-3
-2.054, 1.011e-3
-2.055, 1.011e-3
-2.056, 1.011e-3
-2.057, 1.011e-3
-2.058, 1.011e-3
-2.059, 1.011e-3
-2.060, 1.011e-3
-2.061, 1.011e-3
-2.062, 1.011e-3
-2.063, 1.011e-3
-2.064, 1.011e-3
-2.065, 1.011e-3
-2.066, 1.011e-3
-2.067, 1.011e-3
-2.068, 1.011e-3
-2.069, 1.011e-3
-2.070, 1.011e-3
-2.071, 1.011e-3
-2.072, 1.011e-3
-2.073, 1.011e-3
-2.074, 1.011e-3
-2.075, 1.011e-3
-2.076, 1.011e-3
-2.077, 1.011e-3
-2.078, 1.011e-3
-2.079, 1.011e-3
-2.080, 1.011e-3
-2.081, 1.011e-3
-2.082, 1.011e-3
-2.083, 1.011e-3
-2.084, 1.011e-3
-2.085, 1.011e-3
-2.086, 1.011e-3
-2.087, 1.011e-3
-2.088, 1.011e-3
-2.089, 1.011e-3
-2.090, 1.011e-3
-2.091, 1.011e-3
-2.092, 1.011e-3
-2.093, 1.011e-3
-2.094, 1.011e-3
-2.095, 1.011e-3
-2.096, 1.011e-3
-2.097, 1.011e-3
-2.098, 1.011e-3
-2.099, 1.011e-3
-2.100, 1.011e-3
-2.101, 1.011e-3
-2.102, 1.011e-3
-2.103, 1.011e-3
-2.104, 1.011e-3
-2.105, 1.011e-3
-2.106, 1.011e-3
-2.107, 1.011e-3
-2.108, 1.011e-3
-2.109, 1.011e-3
-2.110, 1.011e-3
-2.111, 1.011e-3
-2.112, 1.011e-3
-2.113, 1.011e-3
-2.114, 1.011e-3
-2.115, 1.011e-3
-2.116, 1.011e-3
-2.117, 1.011e-3
-2.118, 1.011e-3
-2.119, 1.011e-3
-2.120, 1.011e-3
-2.121, 1.011e-3
-2.122, 1.011e-3
-2.123, 1.011e-3
-2.124, 1.011e-3
-2.125, 1.011e-3
-2.126, 1.011e-3
-2.127, 1.011e-3
-2.128, 1.011e-3
-2.129, 1.011e-3
-2.130, 1.011e-3
-2.131, 1.011e-3
-2.132, 1.011e-3
-2.133, 1.011e-3
-2.134, 1.011e-3
-2.135, 1.011e-3
-2.136, 1.011e-3
-2.137, 1.011e-3
-2.138, 1.011e-3
-2.139, 1.011e-3
-2.140, 1.011e-3
-2.141, 1.011e-3
-2.142, 1.011e-3
-2.143, 1.011e-3
-2.144, 1.011e-3
-2.145, 1.011e-3
-2.146, 1.011e-3
-2.147, 1.011e-3
-2.148, 1.011e-3
-2.149, 1.011e-3
-2.150, 1.011e-3
-2.151, 1.011e-3
-2.152, 1.011e-3
-2.153, 1.011e-3
-2.154, 1.011e-3
-2.155, 1.011e-3
-2.156, 1.011e-3
-2.157, 1.011e-3
-2.158, 1.011e-3
-2.159, 1.011e-3
-2.160, 1.011e-3
-2.161, 1.011e-3
-2.162, 1.011e-3
-2.163, 1.011e-3
-2.164, 1.011e-3
-2.165, 1.011e-3
-2.166, 1.011e-3
-2.167, 1.011e-3
-2.168, 1.011e-3
-2.169, 1.011e-3
-2.170, 1.011e-3
-2.171, 1.011e-3
-2.172, 1.011e-3
-2.173, 1.011e-3
-2.174, 1.011e-3
-2.175, 1.011e-3
-2.176, 1.011e-3
-2.177, 1.011e-3
-2.178, 1.011e-3
-2.179, 1.011e-3
-2.180, 1.011e-3
-2.181, 1.011e-3
-2.182, 1.011e-3
-2.183, 1.011e-3
-2.184, 1.011e-3
-2.185, 1.011e-3
-2.186, 1.011e-3
-2.187, 1.011e-3
-2.188, 1.011e-3
-2.189, 1.011e-3
-2.190, 1.011e-3
-2.191, 1.011e-3
-2.192, 1.011e-3
-2.193, 1.011e-3
-2.194, 1.011e-3
-2.195, 1.011e-3
-2.196, 1.011e-3
-2.197, 1.011e-3
-2.198, 1.011e-3
-2.199, 1.011e-3
-2.200, 1.011e-3
-2.201, 1.011e-3
-2.202, 1.011e-3
-2.203, 1.011e-3
-2.204, 1.011e-3
-2.205, 1.011e-3
-2.206, 1.011e-3
-2.207, 1.011e-3
-2.208, 1.011e-3
-2.209, 1.011e-3
-2.210, 1.011e-3
-2.211, 1.011e-3
-2.212, 1.011e-3
-2.213, 1.011e-3
-2.214, 1.011e-3
-2.215, 1.011e-3
-2.216, 1.011e-3
-2.217, 1.011e-3
-2.218, 1.011e-3
-2.219, 1.011e-3
-2.220, 1.011e-3
-2.221, 1.011e-3
-2.222, 1.011e-3
-2.223, 1.011e-3
-2.224, 1.011e-3
-2.225, 1.011e-3
-2.226, 1.011e-3
-2.227, 1.011e-3
-2.228, 1.011e-3
-2.229, 1.011e-3
-2.230, 1.011e-3
-2.231, 1.011e-3
-2.232, 1.011e-3
-2.233, 1.011e-3
-2.234, 1.011e-3
-2.235, 1.011e-3
-2.236, 1.011e-3
-2.237, 1.011e-3
-2.238, 1.011e-3
-2.239, 1.011e-3
-2.240, 1.011e-3
-2.241, 1.011e-3
-2.242, 1.011e-3
-2.243, 1.011e-3
-2.244, 1.011e-3
-2.245, 1.011e-3
-2.246, 1.011e-3
-2.247, 1.011e-3
-2.248, 1.011e-3
-2.249, 1.011e-3
-2.250, 1.011e-3
-2.251, 1.011e-3
-2.252, 1.011e-3
-2.253, 1.011e-3
-2.254, 1.011e-3
-2.255, 1.011e-3
-2.256, 1.011e-3
-2.257, 1.011e-3
-2.258, 1.011e-3
-2.259, 1.011e-3
-2.260, 1.011e-3
-2.261, 1.011e-3
-2.262, 1.011e-3
-2.263, 1.011e-3
-2.264, 1.011e-3
-2.265, 1.011e-3
-2.266, 1.011e-3
-2.267, 1.011e-3
-2.268, 1.011e-3
-2.269, 1.011e-3
-2.270, 1.011e-3
-2.271, 1.011e-3
-2.272, 1.011e-3
-2.273, 1.011e-3
-2.274, 1.011e-3
-2.275, 1.011e-3
-2.276, 1.011e-3
-2.277, 1.011e-3
-2.278, 1.011e-3
-2.279, 1.011e-3
-2.280, 1.011e-3
-2.281, 1.011e-3
-2.282, 1.011e-3
-2.283, 1.011e-3
-2.284, 1.011e-3
-2.285, 1.011e-3
-2.286, 1.011e-3
-2.287, 1.011e-3
-2.288, 1.011e-3
-2.289, 1.011e-3
-2.290, 1.011e-3
-2.291, 1.011e-3
-2.292, 1.011e-3
-2.293, 1.011e-3
-2.294, 1.011e-3
-2.295, 1.011e-3
-2.296, 1.011e-3
-2.297, 1.011e-3
-2.298, 1.011e-3
-2.299, 1.011e-3
