Potential V vs RHE, Current mA cm-2
0.013299999999999867,-1.0054353208140816
0.012299999999999978,-4.014950669016974
0.011299999999999866,-6.458157083883892
0.010299999999999976,-8.638227196975913
0.009299999999999864,-10.42642228000532
0.008299999999999974,-11.56102074249708
0.007299999999999862,-12.12831997374296
0.006299999999999972,-12.346185513922174
0.00529999999999986,-12.651763154693022
0.0042999999999999705,-13.30535977523067
0.0032999999999998586,-14.046668496359947
0.0022999999999999687,-14.61396772760583
0.0012999999999998568,-14.826174422585586
0.00029999999999996696,-14.65640906660178
-0.000700000000000145,-14.444202371622024
-0.0017000000000000348,-14.529085049613924
-0.0027000000000001467,-14.967645552572087
-0.0037000000000000366,-15.533530072518102
-0.0047000000000001485,-15.78817810649381
-0.005700000000000038,-15.70329542850191
-0.00670000000000015,-15.349617603535648
-0.00770000000000004,-15.094969569559943
-0.008700000000000152,-15.264734925543747
-0.009700000000000042,-15.74573676749786
-0.010700000000000154,-16.184297270456018
-0.011700000000000044,-16.354062626439823
-0.012700000000000156,-16.099414592464115
-0.013700000000000045,-15.70329542850191
-0.014700000000000157,-15.575971411514052
-0.015700000000000047,-15.78817810649381
-0.01670000000000016,-16.269179948447924
-0.01770000000000005,-16.622857773414182
-0.01870000000000016,-16.580416434418233
-0.01970000000000005,-16.184297270456018
-0.020700000000000163,-15.830619445489761
-0.021700000000000053,-15.830619445489761
-0.022700000000000164,-16.141855931460068
-0.023700000000000054,-16.580416434418233
-0.024700000000000166,-16.835064468393938
-0.025700000000000056,-16.665299112410132
-0.026700000000000168,-16.269179948447924
-0.027700000000000058,-16.014531914472215
-0.02870000000000017,-16.099414592464115
-0.02970000000000006,-16.495533756426326
-0.03070000000000017,-16.919947146385837
-0.03170000000000006,-17.018976937376394
-0.03270000000000017,-16.750181790402035
-0.03370000000000006,-16.311621287443874
-0.034700000000000175,-16.141855931460068
-0.035700000000000065,-16.354062626439823
-0.03670000000000018,-16.792623129397985
-0.03770000000000007,-17.061418276372343
-0.03870000000000018,-17.018976937376394
-0.03970000000000007,-16.665299112410132
-0.04070000000000018,-16.311621287443874
-0.04170000000000007,-16.269179948447924
-0.04270000000000018,-16.53797509542228
-0.04370000000000007,-17.018976937376394
-0.044700000000000184,-17.231183632356142
-0.045700000000000074,-17.061418276372343
-0.046700000000000186,-16.665299112410132
-0.047700000000000076,-16.354062626439823
-0.04870000000000019,-16.438945304431726
-0.04970000000000008,-16.835064468393938
-0.05070000000000019,-17.231183632356142
-0.05170000000000008,-17.316066310348052
-0.05270000000000019,-17.061418276372343
-0.05370000000000008,-16.622857773414182
-0.05470000000000019,-16.438945304431726
-0.05570000000000008,-16.622857773414182
-0.056700000000000195,-17.103859615368293
-0.057700000000000085,-17.358507649344002
-0.058700000000000196,-17.2736249713521
-0.059700000000000086,-16.962388485381787
-0.0607000000000002,-16.580416434418233
-0.06170000000000009,-16.53797509542228
-0.0627000000000002,-16.835064468393938
-0.06370000000000009,-17.2736249713521
-0.0647000000000002,-17.4433903273359
-0.06570000000000009,-17.2736249713521
-0.0667000000000002,-16.877505807389888
-0.0677000000000001,-16.622857773414182
-0.0687000000000002,-16.70774045140608
-0.0697000000000001,-17.061418276372343
-0.07070000000000021,-17.48583166633185
-0.0717000000000001,-17.48583166633185
-0.07270000000000021,-17.2736249713521
-0.0737000000000001,-16.877505807389888
-0.07470000000000021,-16.665299112410132
-0.0757000000000001,-16.877505807389888
-0.07670000000000021,-17.316066310348052
-0.0777000000000001,-17.627302796318357
-0.07870000000000021,-17.542420118326454
-0.0797000000000001,-17.146300954364243
-0.08070000000000022,-16.835064468393938
-0.0817000000000001,-16.750181790402035
-0.08270000000000022,-17.018976937376394
-0.08370000000000011,-17.48583166633185
-0.08470000000000022,-17.669744135314307
-0.08570000000000011,-17.48583166633185
-0.08670000000000022,-17.146300954364243
-0.08770000000000011,-16.835064468393938
-0.08870000000000022,-16.919947146385837
-0.08970000000000011,-17.2736249713521
-0.09070000000000022,-17.71218547431026
-0.09170000000000011,-17.797068152302163
-0.09270000000000023,-17.48583166633185
-0.09370000000000012,-17.061418276372343
-0.09470000000000023,-16.835064468393938
-0.09570000000000012,-16.962388485381787
-0.09670000000000023,-17.40094898833995
-0.09770000000000012,-17.75462681330621
-0.09870000000000023,-17.71218547431026
-0.09970000000000012,-17.358507649344002
-0.10070000000000023,-17.018976937376394
-0.10170000000000012,-16.962388485381787
-0.10270000000000024,-17.2736249713521
-0.10370000000000013,-17.71218547431026
-0.10470000000000024,-17.924392169290012
-0.10570000000000013,-17.71218547431026
-0.10670000000000024,-17.316066310348052
-0.10770000000000013,-17.061418276372343
-0.10870000000000024,-17.103859615368293
-0.10970000000000013,-17.48583166633185
-0.11070000000000024,-17.924392169290012
-0.11170000000000013,-17.966833508285966
-0.11270000000000002,-17.71218547431026
-0.11370000000000013,-17.2736249713521
-0.11470000000000002,-17.103859615368293
-0.11570000000000014,-17.316066310348052
-0.11670000000000003,-17.75462681330621
-0.11770000000000014,-18.06586329927652
-0.11870000000000003,-18.06586329927652
-0.11970000000000014,-17.71218547431026
-0.12070000000000003,-17.358507649344002
-0.12170000000000014,-17.316066310348052
-0.12270000000000003,-17.584861457322408
-0.12370000000000014,-18.06586329927652
-0.12470000000000003,-18.27806999425627
-0.12570000000000014,-18.10830463827247
-0.12670000000000003,-17.71218547431026
-0.12770000000000015,-17.40094898833995
-0.12870000000000004,-17.4433903273359
-0.12970000000000015,-17.839509491298113
-0.13070000000000004,-18.23562865526032
-0.13170000000000015,-18.320511333252224
-0.13270000000000004,-18.06586329927652
-0.13370000000000015,-17.669744135314307
-0.13470000000000004,-17.4433903273359
-0.13570000000000015,-17.584861457322408
-0.13670000000000004,-18.06586329927652
-0.13770000000000016,-18.40539401124413
-0.13870000000000005,-18.362952672248177
-0.13970000000000016,-18.06586329927652
-0.14070000000000005,-17.627302796318357
-0.14170000000000016,-17.584861457322408
-0.14270000000000005,-17.881950830294063
-0.14370000000000016,-18.320511333252224
-0.14470000000000005,-18.589306480226583
-0.14570000000000016,-18.40539401124413
-0.14670000000000005,-17.966833508285966
-0.14770000000000016,-17.71218547431026
-0.14870000000000005,-17.797068152302163
-0.14970000000000017,-18.15074597726842
-0.15070000000000006,-18.631747819222536
-0.15170000000000017,-18.716630497214435
-0.15270000000000006,-18.44783535024008
-0.15370000000000017,-18.009274847281915
-0.15470000000000006,-17.797068152302163
-0.15570000000000017,-18.009274847281915
-0.15670000000000006,-18.44783535024008
-0.15770000000000017,-18.80151317520634
-0.15870000000000006,-18.759071836210385
-0.15970000000000018,-18.40539401124413
-0.16070000000000007,-18.009274847281915
-0.16170000000000018,-17.966833508285966
-0.16270000000000007,-18.27806999425627
-0.16370000000000018,-18.759071836210385
-0.16470000000000007,-19.01371987018609
-0.16570000000000018,-18.843954514202288
-0.16670000000000007,-18.44783535024008
-0.16770000000000018,-18.10830463827247
-0.16870000000000007,-18.19318731626437
-0.16970000000000018,-18.589306480226583
-0.17070000000000007,-18.97127853119014
-0.17170000000000019,-19.056161209182044
-0.17270000000000008,-18.80151317520634
-0.1737000000000002,-18.40539401124413
-0.17470000000000008,-18.19318731626437
-0.1757000000000002,-18.362952672248177
-0.17670000000000008,-18.843954514202288
-0.1777000000000002,-19.197632339168546
-0.17870000000000008,-19.155191000172596
-0.1797000000000002,-18.80151317520634
-0.18070000000000008,-18.44783535024008
-0.1817000000000002,-18.362952672248177
-0.18270000000000008,-18.716630497214435
-0.1837000000000002,-19.155191000172596
-0.1847000000000001,-19.409839034148305
-0.1857000000000002,-19.28251501716045
-0.1867000000000001,-18.88639585319824
-0.1877000000000002,-18.631747819222536
-0.1887000000000001,-18.674189158218486
-0.1897000000000002,-19.112749661176647
-0.1907000000000001,-19.537163051136158
-0.1917000000000001,-19.636192842126707
-0.19269999999999998,-19.367397695152352
-0.1937000000000001,-18.97127853119014
-0.19469999999999998,-18.759071836210385
-0.1957000000000001,-18.97127853119014
-0.19669999999999999,-19.409839034148305
-0.1977000000000001,-19.763516859114564
-0.1987,-19.721075520118614
-0.1997000000000001,-19.367397695152352
-0.2007,-19.01371987018609
-0.2017000000000001,-18.97127853119014
-0.2027,-19.2400736781645
-0.2037000000000001,-19.721075520118614
-0.2047,-19.93328221509837
-0.2057000000000001,-19.848399537106463
-0.2067,-19.452280373144255
-0.2077000000000001,-19.197632339168546
-0.2087,-19.28251501716045
-0.2097000000000001,-19.678634181122664
-0.2107,-20.06060623208622
-0.2117000000000001,-20.286960040064624
-0.2127,-20.01816489309027
-0.2137000000000001,-19.636192842126707
-0.2147,-19.452280373144255
-0.2157000000000001,-19.721075520118614
-0.2167,-20.202077362072725
-0.21770000000000012,-20.541608074040333
-0.2187,-20.499166735044383
-0.21970000000000012,-20.244518701068674
-0.2207,-19.848399537106463
-0.22170000000000012,-19.805958198110513
-0.2227,-20.159636023076775
-0.22370000000000012,-20.626490752032236
-0.2247,-20.89528589900659
-0.22570000000000012,-20.76796188201874
-0.2267,-20.371842718056527
-0.22770000000000012,-20.159636023076775
-0.22870000000000001,-20.202077362072725
-0.22970000000000013,-20.626490752032236
-0.23070000000000002,-21.107492593986347
-0.23170000000000013,-21.2065223849769
-0.23270000000000002,-21.022609915994444
-0.23370000000000013,-20.626490752032236
-0.23470000000000002,-20.414284057052477
-0.23570000000000013,-20.626490752032236
-0.23670000000000002,-21.107492593986347
-0.2376999999999999,-21.503611757948562
-0.23870000000000002,-21.503611757948562
-0.2396999999999999,-21.2065223849769
-0.24070000000000003,-20.89528589900659
-0.24169999999999991,-20.85284456001064
-0.24270000000000003,-21.248963723972853
-0.24369999999999992,-21.772406904922917
-0.24470000000000003,-22.027054938898623
-0.24569999999999992,-21.94217226090672
-0.24670000000000003,-21.63093577493641
-0.24769999999999992,-21.376287740960702
-0.24870000000000003,-21.503611757948562
-0.24969999999999992,-21.94217226090672
-0.25070000000000003,-22.42317410286083
-0.2516999999999999,-22.592939458844636
-0.25270000000000004,-22.38073276386488
-0.2536999999999999,-22.069496277894572
-0.25470000000000004,-21.94217226090672
-0.2556999999999999,-22.15437895588647
-0.25670000000000004,-22.72026347583249
-0.25769999999999993,-23.1163826397947
-0.25870000000000004,-23.2012653177866
-0.25969999999999993,-22.946617283810895
-0.26070000000000004,-22.592939458844636
-0.26169999999999993,-22.592939458844636
-0.26270000000000004,-22.989058622806844
-0.26369999999999993,-23.51250180375691
-0.26470000000000005,-23.908620967719123
-0.26569999999999994,-23.86617962872317
-0.26670000000000005,-23.55494314275286
-0.26769999999999994,-23.385177786769056
-0.26870000000000005,-23.51250180375691
-0.26969999999999994,-23.993503645711023
-0.27070000000000005,-24.516946826661083
-0.27169999999999994,-24.729153521640843
-0.27270000000000005,-24.601829504652986
-0.27369999999999994,-24.290593018682678
-0.27470000000000006,-24.16326900169483
-0.27569999999999995,-24.516946826661083
-0.27670000000000006,-25.04039000761115
-0.27769999999999995,-25.521391849565262
-0.27870000000000006,-25.60627452755716
-0.27969999999999995,-25.39406783257741
-0.28070000000000006,-25.12527268560305
-0.28169999999999995,-25.210155363594954
-0.28270000000000006,-25.60627452755716
-0.28369999999999995,-26.257041725495082
-0.28470000000000006,-26.65316088945729
-0.28569999999999995,-26.65316088945729
-0.28670000000000007,-26.483395533473487
-0.28769999999999996,-26.29948306449103
-0.28870000000000007,-26.568278211465387
-0.28969999999999996,-27.091721392415455
-0.29070000000000007,-27.700047251357418
-0.29169999999999996,-28.011283737327723
-0.29270000000000007,-27.912253946337174
-0.29369999999999996,-27.700047251357418
-0.2947000000000001,-27.65760591236147
-0.29569999999999996,-28.011283737327723
-0.2967000000000001,-28.619609596269694
-0.29769999999999996,-29.14305277721976
-0.2987000000000001,-29.31281813320356
-0.29969999999999997,-29.22793545521166
-0.3007000000000001,-29.058170099227848
-0.30169999999999997,-29.18549411621571
-0.3027000000000001,-29.708937297165768
-0.30369999999999997,-30.402145834099635
-0.3047000000000001,-30.88314767605375
-0.30569999999999997,-31.010471693041605
-0.3067000000000001,-30.88314767605375
-0.3077,-30.8407063370578
-0.3087000000000001,-31.137795710029454
-0.3097,-31.802710020966025
-0.3107000000000001,-32.53835989689585
-0.3117,-32.93447906085806
-0.3127000000000001,-32.97692039985401
-0.3137,-32.892037721862096
-0.3147000000000001,-32.93447906085806
-0.3157,-33.41548090281216
-0.3167000000000001,-34.10868943974604
-0.3177,-34.8018979766799
-0.3187000000000001,-35.07069312365426
-0.3197,-35.02825178465831
-0.3207000000000001,-35.02825178465831
-0.3217,-35.282899818634014
-0.3227000000000001,-35.90537279057463
-0.3237,-36.725905344496354
-0.3247000000000001,-37.334231203438314
-0.3257,-37.56058501141672
-0.3267000000000001,-37.56058501141672
-0.3277,-37.645467689408626
-0.3287000000000001,-38.12646953136274
-0.3297,-38.90456074628851
-0.3307000000000001,-39.696799074212926
-0.3317,-40.30512493315489
-0.3327000000000001,-40.4748902891387
-0.3337,-40.51733162813464
-0.3347000000000001,-40.743685436113054
-0.3357,-41.267128617063115
-0.3367000000000001,-42.186690961975394
-0.3377,-42.96478217690117
-0.3387000000000001,-43.40334267985933
-0.3397,-43.53066669684718
-0.3407000000000001,-43.57310803584313
-0.3417,-43.96922719980534
-0.3427000000000001,-44.80390686672572
-0.3437,-45.75176343763528
-0.3447000000000001,-46.544001765559706
-0.3457,-46.84109113853137
-0.3467000000000001,-46.88353247752732
-0.3477,-47.067444946509774
-0.3487000000000001,-47.590888127459834
-0.3497,-48.41142068138156
-0.3507000000000001,-49.458307043281685
-0.3517,-50.20810403221015
-0.3527000000000001,-50.64666453516831
-0.3537,-50.90131256914402
-0.3547000000000001,-51.29743173310623
-0.3557,-52.075522948032
-0.35670000000000013,-53.12240930993213
-0.3577,-54.08441299384035
-0.35870000000000013,-54.69273885278232
-0.3597,-54.961533999756675
-0.36070000000000013,-55.25862337272834
-0.3617,-55.838655005673
-0.3626999999999999,-56.74407023758662
-0.3637,-57.93242772947325
-0.3646999999999999,-58.880284300382826
-0.3657,-59.44616882032884
-0.3666999999999999,-59.7998466452951
-0.3677,-60.19596580925731
-0.3686999999999999,-61.01649836317903
-0.36970000000000003,-62.16241451606972
-0.3706999999999999,-63.37906623395363
-0.37170000000000003,-64.29862857886593
-0.3726999999999999,-64.90695443780788
-0.37370000000000003,-65.34551494076604
-0.3746999999999999,-65.99628213870396
-0.37570000000000003,-66.9582858226122
-0.3766999999999999,-68.30226155748396
-0.37770000000000004,-69.43403059737601
-0.3786999999999999,-70.35359294228827
-0.37970000000000004,-70.87703612323833
-0.3806999999999999,-71.35803796519245
-0.38170000000000004,-72.10783495412092
-0.38269999999999993,-73.23960399401295
-0.38370000000000004,-74.54113838988879
-0.38469999999999993,-75.6729074297808
-0.38570000000000004,-76.46514575770523
-0.38669999999999993,-76.94614759965934
-0.38770000000000004,-77.59691479759726
-0.38869999999999993,-78.55891848150549
-0.38970000000000005,-79.90289421637728
-0.39069999999999994,-81.30345840324367
-0.39170000000000005,-82.39278610413973
-0.39269999999999994,-83.18502443206415
-0.39370000000000005,-83.83579163000208
-0.39469999999999994,-84.61388284492786
-0.39570000000000005,-85.88712301480638
-0.39669999999999994,-87.33012854066871
-0.39770000000000005,-88.7589869535324
-0.39869999999999994,-89.84831465442848
-0.39970000000000006,-90.6405529823529
-0.40069999999999995,-91.37620285828272
-0.40170000000000006,-92.33820654219093
-0.40269999999999995,-93.78121206805329
-0.40370000000000006,-95.39398294989942
-0.40469999999999995,-96.73795868477121
-0.40570000000000006,-97.74240370767538
-0.40669999999999995,-98.5346420355998
-0.40770000000000006,-99.31273325052557
-0.40869999999999995,-100.54353208140815
-0.40970000000000006,-102.02897894626645
-0.41069999999999995,-103.54272003712204
-0.41170000000000007,-104.85840154599651
-0.41269999999999996,-105.82040522990474
-0.41370000000000007,-106.59849644483052
-0.41469999999999996,-107.68782414572658
-0.41570000000000007,-109.04594699359701
-0.41669999999999996,-110.74360055343507
-0.41770000000000007,-112.39881277427718
-0.41869999999999996,-113.67205294415571
-0.4197000000000001,-114.67649796705987
-0.42069999999999996,-115.62435453796945
-0.4217000000000001,-116.85515336885203
-0.42269999999999996,-118.42548291170223
-0.4237000000000001,-120.12313647154028
-0.42469999999999997,-121.77834869238235
-0.4257000000000001,-122.95255907127036
-0.42669999999999997,-123.91456275517855
-0.4277000000000001,-124.9614491170787
-0.42869999999999997,-126.3195719649491
-0.4297000000000001,-128.01722552478716
-0.43069999999999997,-129.79976176261712
-0.4317000000000001,-131.32764996647134
-0.4327,-132.55844879735392
-0.4337000000000001,-133.52045248126214
-0.4347,-134.69466286015015
-0.4357000000000001,-136.26499240300032
-0.4367,-138.00508730183432
-0.4377000000000001,-139.74518220066832
-0.4387,-141.2306290655266
-0.4397000000000001,-142.31995676642268
-0.4407,-143.4517258063147
-0.4417000000000001,-144.86643710617977
-0.4427,-146.7055617960043
-0.4437000000000001,-148.54468648582886
-0.4447,-150.38381117565342
-0.4457000000000001,-151.7985224755184
-0.4467,-153.07176264539694
-0.4477000000000001,-154.203531685289
-0.4487,-155.90118524512707
-0.4497000000000001,-157.88178106493808
-0.4507,-159.86237688474912
-0.4517000000000001,-161.70150157457368
-0.4527,-163.11621287443873
-0.4537000000000001,-164.38945304431726
-0.4547,-165.8041643441823
-0.4557000000000001,-167.6432890340068
-0.4567,-169.7653559838044
-0.4577000000000001,-171.74595180361547
-0.4587,-173.44360536345349
-0.4597000000000001,-174.71684553333202
-0.4607,-175.99008570321055
-0.4617000000000001,-177.6877392630486
-0.4627,-179.66833508285964
-0.4637000000000001,-181.93187316264374
-0.4647,-183.91246898245475
-0.4657000000000001,-185.6101225422928
-0.4667,-186.88336271217133
-0.4677000000000001,-188.4395451420229
-0.4687,-190.13719870186094
-0.4697000000000001,-192.2592656516585
-0.4707,-194.38133260145605
-0.4717000000000001,-196.50339955125358
-0.4727,-198.20105311109162
-0.4737000000000001,-199.61576441095667
-0.4747,-201.31341797079472
-0.4757000000000001,-203.29401379060576
-0.4767,-205.41608074040332
-0.4777000000000001,-207.67961882018741
-0.4787,-209.51874351001192
-0.4797000000000001,-211.21639706985
-0.4807,-212.77257949970152
-0.48170000000000013,-214.47023305953954
-0.4827,-216.73377113932364
-0.48370000000000013,-219.13878034909416
-0.4847,-221.40231842887826
-0.48570000000000013,-223.2414431187028
-0.4867,-221.82673181883774
-0.48570000000000013,-216.4508288793506
-0.4847,-212.34816610974204
-0.48370000000000013,-209.23580125003892
-0.4827,-206.54784978029537
-0.48170000000000013,-203.71842718056527
-0.4807,-200.7475334508487
-0.4797000000000001,-197.63516859114563
-0.4787,-194.80574599141553
-0.4777000000000001,-192.40073678164498
-0.4767,-190.13719870186094
-0.4757000000000001,-188.01513175206335
-0.4747,-185.6101225422928
-0.4737000000000001,-182.78069994256273
-0.4727,-179.95127734283267
-0.4717000000000001,-177.54626813306209
-0.4707,-175.42420118326456
-0.4697000000000001,-173.58507649344
-0.4687,-171.60448067362896
-0.4677000000000001,-169.3409425938449
-0.4667,-166.65299112410133
