May 2, 2025   11:08:58
Linear Sweep Voltammetry
File: c:/users/guazh/data/banditlqround7_x0exp1108_r5/2025-04-30-exp1216\1acid_2ac-2025-05-02t11_05_46-lsvinphos\1acid_2ac_lsv_50mvs_efin_-2300mv.bin
Data Source:  Experiment
Instrument Model:  CHI760E
Header: LSV ran at 50 mVs with Efin at -2300mV
Note: 

Init E (V) = -0.6
Final E (V) = -2.3
Scan Rate (V/s) = 0.05
Sample Interval (V) = 0.001
Quiet Time (sec) = 2
Sensitivity (A/V) = 1e-4
Comp R (ohm) = 8.5

Results:

Channel 1:
Ep = -1.453V
ip = 2.678e-4A
Ah = 1.606e-4C

Potential/V, Current/A

-0.600, 1.609e-4
-0.601, 1.610e-4
-0.602, 1.614e-4
-0.603, 1.616e-4
-0.604, 1.620e-4
-0.605, 1.623e-4
-0.606, 1.621e-4
-0.607, 1.618e-4
-0.608, 1.616e-4
-0.609, 1.617e-4
-0.610, 1.617e-4
-0.611, 1.615e-4
-0.612, 1.609e-4
-0.613, 1.608e-4
-0.614, 1.613e-4
-0.615, 1.608e-4
-0.616, 1.603e-4
-0.617, 1.598e-4
-0.618, 1.594e-4
-0.619, 1.589e-4
-0.620, 1.585e-4
-0.621, 1.581e-4
-0.622, 1.577e-4
-0.623, 1.574e-4
-0.624, 1.571e-4
-0.625, 1.568e-4
-0.626, 1.561e-4
-0.627, 1.558e-4
-0.628, 1.557e-4
-0.629, 1.550e-4
-0.630, 1.546e-4
-0.631, 1.541e-4
-0.632, 1.541e-4
-0.633, 1.539e-4
-0.634, 1.537e-4
-0.635, 1.532e-4
-0.636, 1.526e-4
-0.637, 1.523e-4
-0.638, 1.519e-4
-0.639, 1.513e-4
-0.640, 1.509e-4
-0.641, 1.503e-4
-0.642, 1.497e-4
-0.643, 1.494e-4
-0.644, 1.494e-4
-0.645, 1.490e-4
-0.646, 1.486e-4
-0.647, 1.483e-4
-0.648, 1.478e-4
-0.649, 1.474e-4
-0.650, 1.470e-4
-0.651, 1.466e-4
-0.652, 1.462e-4
-0.653, 1.457e-4
-0.654, 1.454e-4
-0.655, 1.450e-4
-0.656, 1.447e-4
-0.657, 1.445e-4
-0.658, 1.439e-4
-0.659, 1.434e-4
-0.660, 1.432e-4
-0.661, 1.429e-4
-0.662, 1.426e-4
-0.663, 1.423e-4
-0.664, 1.422e-4
-0.665, 1.419e-4
-0.666, 1.415e-4
-0.667, 1.412e-4
-0.668, 1.407e-4
-0.669, 1.405e-4
-0.670, 1.405e-4
-0.671, 1.402e-4
-0.672, 1.401e-4
-0.673, 1.397e-4
-0.674, 1.395e-4
-0.675, 1.391e-4
-0.676, 1.387e-4
-0.677, 1.386e-4
-0.678, 1.385e-4
-0.679, 1.382e-4
-0.680, 1.377e-4
-0.681, 1.373e-4
-0.682, 1.371e-4
-0.683, 1.367e-4
-0.684, 1.364e-4
-0.685, 1.361e-4
-0.686, 1.359e-4
-0.687, 1.357e-4
-0.688, 1.356e-4
-0.689, 1.353e-4
-0.690, 1.349e-4
-0.691, 1.347e-4
-0.692, 1.346e-4
-0.693, 1.344e-4
-0.694, 1.341e-4
-0.695, 1.338e-4
-0.696, 1.335e-4
-0.697, 1.332e-4
-0.698, 1.329e-4
-0.699, 1.327e-4
-0.700, 1.327e-4
-0.701, 1.325e-4
-0.702, 1.322e-4
-0.703, 1.321e-4
-0.704, 1.318e-4
-0.705, 1.315e-4
-0.706, 1.312e-4
-0.707, 1.310e-4
-0.708, 1.308e-4
-0.709, 1.306e-4
-0.710, 1.306e-4
-0.711, 1.303e-4
-0.712, 1.300e-4
-0.713, 1.299e-4
-0.714, 1.296e-4
-0.715, 1.294e-4
-0.716, 1.293e-4
-0.717, 1.291e-4
-0.718, 1.288e-4
-0.719, 1.284e-4
-0.720, 1.283e-4
-0.721, 1.281e-4
-0.722, 1.278e-4
-0.723, 1.276e-4
-0.724, 1.274e-4
-0.725, 1.271e-4
-0.726, 1.270e-4
-0.727, 1.267e-4
-0.728, 1.263e-4
-0.729, 1.262e-4
-0.730, 1.260e-4
-0.731, 1.258e-4
-0.732, 1.255e-4
-0.733, 1.254e-4
-0.734, 1.253e-4
-0.735, 1.254e-4
-0.736, 1.253e-4
-0.737, 1.251e-4
-0.738, 1.248e-4
-0.739, 1.246e-4
-0.740, 1.245e-4
-0.741, 1.243e-4
-0.742, 1.240e-4
-0.743, 1.238e-4
-0.744, 1.237e-4
-0.745, 1.237e-4
-0.746, 1.235e-4
-0.747, 1.232e-4
-0.748, 1.230e-4
-0.749, 1.227e-4
-0.750, 1.226e-4
-0.751, 1.225e-4
-0.752, 1.223e-4
-0.753, 1.222e-4
-0.754, 1.222e-4
-0.755, 1.221e-4
-0.756, 1.219e-4
-0.757, 1.218e-4
-0.758, 1.217e-4
-0.759, 1.216e-4
-0.760, 1.216e-4
-0.761, 1.215e-4
-0.762, 1.214e-4
-0.763, 1.213e-4
-0.764, 1.210e-4
-0.765, 1.210e-4
-0.766, 1.210e-4
-0.767, 1.209e-4
-0.768, 1.208e-4
-0.769, 1.207e-4
-0.770, 1.207e-4
-0.771, 1.206e-4
-0.772, 1.203e-4
-0.773, 1.203e-4
-0.774, 1.202e-4
-0.775, 1.201e-4
-0.776, 1.199e-4
-0.777, 1.198e-4
-0.778, 1.198e-4
-0.779, 1.196e-4
-0.780, 1.196e-4
-0.781, 1.195e-4
-0.782, 1.193e-4
-0.783, 1.192e-4
-0.784, 1.192e-4
-0.785, 1.193e-4
-0.786, 1.192e-4
-0.787, 1.192e-4
-0.788, 1.191e-4
-0.789, 1.190e-4
-0.790, 1.190e-4
-0.791, 1.190e-4
-0.792, 1.191e-4
-0.793, 1.191e-4
-0.794, 1.190e-4
-0.795, 1.191e-4
-0.796, 1.191e-4
-0.797, 1.192e-4
-0.798, 1.193e-4
-0.799, 1.192e-4
-0.800, 1.193e-4
-0.801, 1.192e-4
-0.802, 1.192e-4
-0.803, 1.193e-4
-0.804, 1.193e-4
-0.805, 1.194e-4
-0.806, 1.197e-4
-0.807, 1.196e-4
-0.808, 1.197e-4
-0.809, 1.196e-4
-0.810, 1.197e-4
-0.811, 1.198e-4
-0.812, 1.199e-4
-0.813, 1.200e-4
-0.814, 1.201e-4
-0.815, 1.202e-4
-0.816, 1.203e-4
-0.817, 1.203e-4
-0.818, 1.203e-4
-0.819, 1.204e-4
-0.820, 1.206e-4
-0.821, 1.207e-4
-0.822, 1.208e-4
-0.823, 1.209e-4
-0.824, 1.210e-4
-0.825, 1.210e-4
-0.826, 1.211e-4
-0.827, 1.212e-4
-0.828, 1.212e-4
-0.829, 1.215e-4
-0.830, 1.217e-4
-0.831, 1.218e-4
-0.832, 1.221e-4
-0.833, 1.223e-4
-0.834, 1.223e-4
-0.835, 1.226e-4
-0.836, 1.226e-4
-0.837, 1.228e-4
-0.838, 1.229e-4
-0.839, 1.230e-4
-0.840, 1.232e-4
-0.841, 1.233e-4
-0.842, 1.234e-4
-0.843, 1.236e-4
-0.844, 1.238e-4
-0.845, 1.241e-4
-0.846, 1.243e-4
-0.847, 1.246e-4
-0.848, 1.248e-4
-0.849, 1.249e-4
-0.850, 1.252e-4
-0.851, 1.254e-4
-0.852, 1.255e-4
-0.853, 1.256e-4
-0.854, 1.258e-4
-0.855, 1.260e-4
-0.856, 1.262e-4
-0.857, 1.264e-4
-0.858, 1.267e-4
-0.859, 1.268e-4
-0.860, 1.269e-4
-0.861, 1.272e-4
-0.862, 1.272e-4
-0.863, 1.274e-4
-0.864, 1.276e-4
-0.865, 1.280e-4
-0.866, 1.280e-4
-0.867, 1.282e-4
-0.868, 1.282e-4
-0.869, 1.284e-4
-0.870, 1.288e-4
-0.871, 1.291e-4
-0.872, 1.294e-4
-0.873, 1.297e-4
-0.874, 1.299e-4
-0.875, 1.302e-4
-0.876, 1.304e-4
-0.877, 1.308e-4
-0.878, 1.311e-4
-0.879, 1.313e-4
-0.880, 1.315e-4
-0.881, 1.316e-4
-0.882, 1.319e-4
-0.883, 1.323e-4
-0.884, 1.326e-4
-0.885, 1.328e-4
-0.886, 1.330e-4
-0.887, 1.332e-4
-0.888, 1.335e-4
-0.889, 1.337e-4
-0.890, 1.340e-4
-0.891, 1.342e-4
-0.892, 1.344e-4
-0.893, 1.348e-4
-0.894, 1.350e-4
-0.895, 1.353e-4
-0.896, 1.356e-4
-0.897, 1.358e-4
-0.898, 1.361e-4
-0.899, 1.366e-4
-0.900, 1.371e-4
-0.901, 1.374e-4
-0.902, 1.376e-4
-0.903, 1.380e-4
-0.904, 1.383e-4
-0.905, 1.387e-4
-0.906, 1.390e-4
-0.907, 1.394e-4
-0.908, 1.397e-4
-0.909, 1.402e-4
-0.910, 1.406e-4
-0.911, 1.408e-4
-0.912, 1.414e-4
-0.913, 1.420e-4
-0.914, 1.429e-4
-0.915, 1.434e-4
-0.916, 1.436e-4
-0.917, 1.440e-4
-0.918, 1.445e-4
-0.919, 1.450e-4
-0.920, 1.455e-4
-0.921, 1.460e-4
-0.922, 1.463e-4
-0.923, 1.467e-4
-0.924, 1.471e-4
-0.925, 1.475e-4
-0.926, 1.480e-4
-0.927, 1.485e-4
-0.928, 1.489e-4
-0.929, 1.495e-4
-0.930, 1.500e-4
-0.931, 1.505e-4
-0.932, 1.511e-4
-0.933, 1.519e-4
-0.934, 1.524e-4
-0.935, 1.527e-4
-0.936, 1.532e-4
-0.937, 1.538e-4
-0.938, 1.544e-4
-0.939, 1.550e-4
-0.940, 1.556e-4
-0.941, 1.561e-4
-0.942, 1.566e-4
-0.943, 1.571e-4
-0.944, 1.578e-4
-0.945, 1.582e-4
-0.946, 1.587e-4
-0.947, 1.594e-4
-0.948, 1.600e-4
-0.949, 1.606e-4
-0.950, 1.610e-4
-0.951, 1.617e-4
-0.952, 1.624e-4
-0.953, 1.630e-4
-0.954, 1.633e-4
-0.955, 1.640e-4
-0.956, 1.646e-4
-0.957, 1.650e-4
-0.958, 1.656e-4
-0.959, 1.664e-4
-0.960, 1.670e-4
-0.961, 1.675e-4
-0.962, 1.682e-4
-0.963, 1.687e-4
-0.964, 1.693e-4
-0.965, 1.700e-4
-0.966, 1.707e-4
-0.967, 1.712e-4
-0.968, 1.717e-4
-0.969, 1.722e-4
-0.970, 1.729e-4
-0.971, 1.735e-4
-0.972, 1.741e-4
-0.973, 1.747e-4
-0.974, 1.753e-4
-0.975, 1.759e-4
-0.976, 1.765e-4
-0.977, 1.771e-4
-0.978, 1.778e-4
-0.979, 1.782e-4
-0.980, 1.788e-4
-0.981, 1.794e-4
-0.982, 1.800e-4
-0.983, 1.807e-4
-0.984, 1.814e-4
-0.985, 1.820e-4
-0.986, 1.826e-4
-0.987, 1.834e-4
-0.988, 1.839e-4
-0.989, 1.844e-4
-0.990, 1.850e-4
-0.991, 1.854e-4
-0.992, 1.859e-4
-0.993, 1.866e-4
-0.994, 1.871e-4
-0.995, 1.878e-4
-0.996, 1.881e-4
-0.997, 1.885e-4
-0.998, 1.892e-4
-0.999, 1.898e-4
-1.000, 1.903e-4
-1.001, 1.908e-4
-1.002, 1.913e-4
-1.003, 1.917e-4
-1.004, 1.921e-4
-1.005, 1.926e-4
-1.006, 1.934e-4
-1.007, 1.939e-4
-1.008, 1.943e-4
-1.009, 1.947e-4
-1.010, 1.953e-4
-1.011, 1.957e-4
-1.012, 1.962e-4
-1.013, 1.969e-4
-1.014, 1.973e-4
-1.015, 1.978e-4
-1.016, 1.983e-4
-1.017, 1.986e-4
-1.018, 1.989e-4
-1.019, 1.994e-4
-1.020, 2.001e-4
-1.021, 2.008e-4
-1.022, 2.012e-4
-1.023, 2.017e-4
-1.024, 2.021e-4
-1.025, 2.025e-4
-1.026, 2.030e-4
-1.027, 2.035e-4
-1.028, 2.041e-4
-1.029, 2.047e-4
-1.030, 2.052e-4
-1.031, 2.056e-4
-1.032, 2.061e-4
-1.033, 2.066e-4
-1.034, 2.070e-4
-1.035, 2.074e-4
-1.036, 2.080e-4
-1.037, 2.086e-4
-1.038, 2.093e-4
-1.039, 2.095e-4
-1.040, 2.101e-4
-1.041, 2.105e-4
-1.042, 2.110e-4
-1.043, 2.118e-4
-1.044, 2.123e-4
-1.045, 2.129e-4
-1.046, 2.135e-4
-1.047, 2.142e-4
-1.048, 2.146e-4
-1.049, 2.151e-4
-1.050, 2.156e-4
-1.051, 2.164e-4
-1.052, 2.170e-4
-1.053, 2.174e-4
-1.054, 2.183e-4
-1.055, 2.190e-4
-1.056, 2.196e-4
-1.057, 2.201e-4
-1.058, 2.207e-4
-1.059, 2.213e-4
-1.060, 2.221e-4
-1.061, 2.226e-4
-1.062, 2.233e-4
-1.063, 2.240e-4
-1.064, 2.248e-4
-1.065, 2.252e-4
-1.066, 2.256e-4
-1.067, 2.264e-4
-1.068, 2.272e-4
-1.069, 2.278e-4
-1.070, 2.284e-4
-1.071, 2.291e-4
-1.072, 2.298e-4
-1.073, 2.306e-4
-1.074, 2.317e-4
-1.075, 2.324e-4
-1.076, 2.330e-4
-1.077, 2.337e-4
-1.078, 2.343e-4
-1.079, 2.351e-4
-1.080, 2.359e-4
-1.081, 2.368e-4
-1.082, 2.377e-4
-1.083, 2.386e-4
-1.084, 2.393e-4
-1.085, 2.401e-4
-1.086, 2.408e-4
-1.087, 2.415e-4
-1.088, 2.423e-4
-1.089, 2.432e-4
-1.090, 2.440e-4
-1.091, 2.451e-4
-1.092, 2.458e-4
-1.093, 2.466e-4
-1.094, 2.475e-4
-1.095, 2.484e-4
-1.096, 2.494e-4
-1.097, 2.503e-4
-1.098, 2.509e-4
-1.099, 2.517e-4
-1.100, 2.526e-4
-1.101, 2.534e-4
-1.102, 2.544e-4
-1.103, 2.552e-4
-1.104, 2.564e-4
-1.105, 2.574e-4
-1.106, 2.586e-4
-1.107, 2.599e-4
-1.108, 2.611e-4
-1.109, 2.618e-4
-1.110, 2.627e-4
-1.111, 2.639e-4
-1.112, 2.656e-4
-1.113, 2.668e-4
-1.114, 2.674e-4
-1.115, 2.683e-4
-1.116, 2.696e-4
-1.117, 2.709e-4
-1.118, 2.722e-4
-1.119, 2.732e-4
-1.120, 2.744e-4
-1.121, 2.751e-4
-1.122, 2.760e-4
-1.123, 2.773e-4
-1.124, 2.783e-4
-1.125, 2.795e-4
-1.126, 2.805e-4
-1.127, 2.817e-4
-1.128, 2.829e-4
-1.129, 2.841e-4
-1.130, 2.851e-4
-1.131, 2.862e-4
-1.132, 2.876e-4
-1.133, 2.890e-4
-1.134, 2.901e-4
-1.135, 2.913e-4
-1.136, 2.925e-4
-1.137, 2.936e-4
-1.138, 2.949e-4
-1.139, 2.964e-4
-1.140, 2.975e-4
-1.141, 2.990e-4
-1.142, 3.007e-4
-1.143, 3.020e-4
-1.144, 3.032e-4
-1.145, 3.043e-4
-1.146, 3.056e-4
-1.147, 3.071e-4
-1.148, 3.084e-4
-1.149, 3.098e-4
-1.150, 3.111e-4
-1.151, 3.126e-4
-1.152, 3.147e-4
-1.153, 3.161e-4
-1.154, 3.172e-4
-1.155, 3.190e-4
-1.156, 3.207e-4
-1.157, 3.223e-4
-1.158, 3.236e-4
-1.159, 3.250e-4
-1.160, 3.263e-4
-1.161, 3.278e-4
-1.162, 3.297e-4
-1.163, 3.318e-4
-1.164, 3.334e-4
-1.165, 3.348e-4
-1.166, 3.362e-4
-1.167, 3.379e-4
-1.168, 3.396e-4
-1.169, 3.419e-4
-1.170, 3.437e-4
-1.171, 3.452e-4
-1.172, 3.473e-4
-1.173, 3.491e-4
-1.174, 3.508e-4
-1.175, 3.524e-4
-1.176, 3.540e-4
-1.177, 3.556e-4
-1.178, 3.573e-4
-1.179, 3.594e-4
-1.180, 3.615e-4
-1.181, 3.633e-4
-1.182, 3.653e-4
-1.183, 3.669e-4
-1.184, 3.683e-4
-1.185, 3.698e-4
-1.186, 3.721e-4
-1.187, 3.742e-4
-1.188, 3.760e-4
-1.189, 3.778e-4
-1.190, 3.798e-4
-1.191, 3.817e-4
-1.192, 3.834e-4
-1.193, 3.856e-4
-1.194, 3.876e-4
-1.195, 3.895e-4
-1.196, 3.911e-4
-1.197, 3.926e-4
-1.198, 3.941e-4
-1.199, 3.962e-4
-1.200, 3.982e-4
-1.201, 3.998e-4
-1.202, 4.014e-4
-1.203, 4.029e-4
-1.204, 4.047e-4
-1.205, 4.065e-4
-1.206, 4.083e-4
-1.207, 4.104e-4
-1.208, 4.118e-4
-1.209, 4.136e-4
-1.210, 4.152e-4
-1.211, 4.171e-4
-1.212, 4.189e-4
-1.213, 4.204e-4
-1.214, 4.217e-4
-1.215, 4.228e-4
-1.216, 4.246e-4
-1.217, 4.265e-4
-1.218, 4.283e-4
-1.219, 4.298e-4
-1.220, 4.315e-4
-1.221, 4.334e-4
-1.222, 4.347e-4
-1.223, 4.362e-4
-1.224, 4.376e-4
-1.225, 4.393e-4
-1.226, 4.413e-4
-1.227, 4.428e-4
-1.228, 4.445e-4
-1.229, 4.462e-4
-1.230, 4.479e-4
-1.231, 4.496e-4
-1.232, 4.512e-4
-1.233, 4.530e-4
-1.234, 4.548e-4
-1.235, 4.562e-4
-1.236, 4.580e-4
-1.237, 4.594e-4
-1.238, 4.608e-4
-1.239, 4.623e-4
-1.240, 4.635e-4
-1.241, 4.649e-4
-1.242, 4.664e-4
-1.243, 4.679e-4
-1.244, 4.694e-4
-1.245, 4.709e-4
-1.246, 4.722e-4
-1.247, 4.735e-4
-1.248, 4.748e-4
-1.249, 4.762e-4
-1.250, 4.779e-4
-1.251, 4.799e-4
-1.252, 4.816e-4
-1.253, 4.829e-4
-1.254, 4.842e-4
-1.255, 4.854e-4
-1.256, 4.868e-4
-1.257, 4.882e-4
-1.258, 4.900e-4
-1.259, 4.916e-4
-1.260, 4.927e-4
-1.261, 4.939e-4
-1.262, 4.952e-4
-1.263, 4.964e-4
-1.264, 4.979e-4
-1.265, 4.989e-4
-1.266, 5.001e-4
-1.267, 5.014e-4
-1.268, 5.029e-4
-1.269, 5.043e-4
-1.270, 5.055e-4
-1.271, 5.065e-4
-1.272, 5.079e-4
-1.273, 5.092e-4
-1.274, 5.103e-4
-1.275, 5.115e-4
-1.276, 5.128e-4
-1.277, 5.143e-4
-1.278, 5.159e-4
-1.279, 5.171e-4
-1.280, 5.182e-4
-1.281, 5.197e-4
-1.282, 5.211e-4
-1.283, 5.223e-4
-1.284, 5.236e-4
-1.285, 5.248e-4
-1.286, 5.263e-4
-1.287, 5.275e-4
-1.288, 5.289e-4
-1.289, 5.303e-4
-1.290, 5.316e-4
-1.291, 5.328e-4
-1.292, 5.340e-4
-1.293, 5.355e-4
-1.294, 5.368e-4
-1.295, 5.382e-4
-1.296, 5.398e-4
-1.297, 5.412e-4
-1.298, 5.427e-4
-1.299, 5.443e-4
-1.300, 5.457e-4
-1.301, 5.470e-4
-1.302, 5.482e-4
-1.303, 5.494e-4
-1.304, 5.508e-4
-1.305, 5.524e-4
-1.306, 5.539e-4
-1.307, 5.555e-4
-1.308, 5.569e-4
-1.309, 5.581e-4
-1.310, 5.593e-4
-1.311, 5.608e-4
-1.312, 5.621e-4
-1.313, 5.634e-4
-1.314, 5.644e-4
-1.315, 5.657e-4
-1.316, 5.672e-4
-1.317, 5.685e-4
-1.318, 5.700e-4
-1.319, 5.712e-4
-1.320, 5.726e-4
-1.321, 5.741e-4
-1.322, 5.751e-4
-1.323, 5.765e-4
-1.324, 5.778e-4
-1.325, 5.793e-4
-1.326, 5.805e-4
-1.327, 5.819e-4
-1.328, 5.833e-4
-1.329, 5.845e-4
-1.330, 5.857e-4
-1.331, 5.871e-4
-1.332, 5.884e-4
-1.333, 5.897e-4
-1.334, 5.910e-4
-1.335, 5.924e-4
-1.336, 5.940e-4
-1.337, 5.954e-4
-1.338, 5.967e-4
-1.339, 5.979e-4
-1.340, 5.990e-4
-1.341, 6.002e-4
-1.342, 6.017e-4
-1.343, 6.035e-4
-1.344, 6.047e-4
-1.345, 6.060e-4
-1.346, 6.073e-4
-1.347, 6.087e-4
-1.348, 6.101e-4
-1.349, 6.113e-4
-1.350, 6.125e-4
-1.351, 6.137e-4
-1.352, 6.150e-4
-1.353, 6.163e-4
-1.354, 6.175e-4
-1.355, 6.187e-4
-1.356, 6.202e-4
-1.357, 6.218e-4
-1.358, 6.232e-4
-1.359, 6.244e-4
-1.360, 6.260e-4
-1.361, 6.276e-4
-1.362, 6.293e-4
-1.363, 6.312e-4
-1.364, 6.325e-4
-1.365, 6.339e-4
-1.366, 6.355e-4
-1.367, 6.372e-4
-1.368, 6.388e-4
-1.369, 6.405e-4
-1.370, 6.420e-4
-1.371, 6.435e-4
-1.372, 6.449e-4
-1.373, 6.465e-4
-1.374, 6.487e-4
-1.375, 6.506e-4
-1.376, 6.525e-4
-1.377, 6.544e-4
-1.378, 6.562e-4
-1.379, 6.584e-4
-1.380, 6.604e-4
-1.381, 6.625e-4
-1.382, 6.648e-4
-1.383, 6.674e-4
-1.384, 6.700e-4
-1.385, 6.723e-4
-1.386, 6.749e-4
-1.387, 6.772e-4
-1.388, 6.796e-4
-1.389, 6.823e-4
-1.390, 6.849e-4
-1.391, 6.874e-4
-1.392, 6.904e-4
-1.393, 6.930e-4
-1.394, 6.957e-4
-1.395, 6.985e-4
-1.396, 7.013e-4
-1.397, 7.041e-4
-1.398, 7.069e-4
-1.399, 7.096e-4
-1.400, 7.128e-4
-1.401, 7.164e-4
-1.402, 7.197e-4
-1.403, 7.231e-4
-1.404, 7.267e-4
-1.405, 7.305e-4
-1.406, 7.345e-4
-1.407, 7.384e-4
-1.408, 7.425e-4
-1.409, 7.468e-4
-1.410, 7.511e-4
-1.411, 7.551e-4
-1.412, 7.592e-4
-1.413, 7.636e-4
-1.414, 7.678e-4
-1.415, 7.719e-4
-1.416, 7.769e-4
-1.417, 7.820e-4
-1.418, 7.868e-4
-1.419, 7.914e-4
-1.420, 7.963e-4
-1.421, 8.017e-4
-1.422, 8.064e-4
-1.423, 8.113e-4
-1.424, 8.165e-4
-1.425, 8.219e-4
-1.426, 8.273e-4
-1.427, 8.327e-4
-1.428, 8.382e-4
-1.429, 8.440e-4
-1.430, 8.498e-4
-1.431, 8.557e-4
-1.432, 8.621e-4
-1.433, 8.683e-4
-1.434, 8.749e-4
-1.435, 8.816e-4
-1.436, 8.881e-4
-1.437, 8.948e-4
-1.438, 9.016e-4
-1.439, 9.085e-4
-1.440, 9.159e-4
-1.441, 9.232e-4
-1.442, 9.306e-4
-1.443, 9.382e-4
-1.444, 9.458e-4
-1.445, 9.536e-4
-1.446, 9.614e-4
-1.447, 9.692e-4
-1.448, 9.777e-4
-1.449, 9.862e-4
-1.450, 9.942e-4
-1.451, 1.003e-3
-1.452, 1.010e-3
-1.453, 1.011e-3
-1.454, 1.011e-3
-1.455, 1.011e-3
-1.456, 1.011e-3
-1.457, 1.011e-3
-1.458, 1.011e-3
-1.459, 1.011e-3
-1.460, 1.011e-3
-1.461, 1.011e-3
-1.462, 1.011e-3
-1.463, 1.011e-3
-1.464, 1.011e-3
-1.465, 1.011e-3
-1.466, 1.011e-3
-1.467, 1.011e-3
-1.468, 1.011e-3
-1.469, 1.011e-3
-1.470, 1.011e-3
-1.471, 1.011e-3
-1.472, 1.011e-3
-1.473, 1.011e-3
-1.474, 1.011e-3
-1.475, 1.011e-3
-1.476, 1.011e-3
-1.477, 1.011e-3
-1.478, 1.011e-3
-1.479, 1.011e-3
-1.480, 1.011e-3
-1.481, 1.011e-3
-1.482, 1.011e-3
-1.483, 1.011e-3
-1.484, 1.011e-3
-1.485, 1.011e-3
-1.486, 1.011e-3
-1.487, 1.011e-3
-1.488, 1.011e-3
-1.489, 1.011e-3
-1.490, 1.011e-3
-1.491, 1.011e-3
-1.492, 1.011e-3
-1.493, 1.011e-3
-1.494, 1.011e-3
-1.495, 1.011e-3
-1.496, 1.011e-3
-1.497, 1.011e-3
-1.498, 1.011e-3
-1.499, 1.011e-3
-1.500, 1.011e-3
-1.501, 1.011e-3
-1.502, 1.011e-3
-1.503, 1.011e-3
-1.504, 1.011e-3
-1.505, 1.011e-3
-1.506, 1.011e-3
-1.507, 1.011e-3
-1.508, 1.011e-3
-1.509, 1.011e-3
-1.510, 1.011e-3
-1.511, 1.011e-3
-1.512, 1.011e-3
-1.513, 1.011e-3
-1.514, 1.011e-3
-1.515, 1.011e-3
-1.516, 1.011e-3
-1.517, 1.011e-3
-1.518, 1.011e-3
-1.519, 1.011e-3
-1.520, 1.011e-3
-1.521, 1.011e-3
-1.522, 1.011e-3
-1.523, 1.011e-3
-1.524, 1.011e-3
-1.525, 1.011e-3
-1.526, 1.011e-3
-1.527, 1.011e-3
-1.528, 1.011e-3
-1.529, 1.011e-3
-1.530, 1.011e-3
-1.531, 1.011e-3
-1.532, 1.011e-3
-1.533, 1.011e-3
-1.534, 1.011e-3
-1.535, 1.011e-3
-1.536, 1.011e-3
-1.537, 1.011e-3
-1.538, 1.011e-3
-1.539, 1.011e-3
-1.540, 1.011e-3
-1.541, 1.011e-3
-1.542, 1.011e-3
-1.543, 1.011e-3
-1.544, 1.011e-3
-1.545, 1.011e-3
-1.546, 1.011e-3
-1.547, 1.011e-3
-1.548, 1.011e-3
-1.549, 1.011e-3
-1.550, 1.011e-3
-1.551, 1.011e-3
-1.552, 1.011e-3
-1.553, 1.011e-3
-1.554, 1.011e-3
-1.555, 1.011e-3
-1.556, 1.011e-3
-1.557, 1.011e-3
-1.558, 1.011e-3
-1.559, 1.011e-3
-1.560, 1.011e-3
-1.561, 1.011e-3
-1.562, 1.011e-3
-1.563, 1.011e-3
-1.564, 1.011e-3
-1.565, 1.011e-3
-1.566, 1.011e-3
-1.567, 1.011e-3
-1.568, 1.011e-3
-1.569, 1.011e-3
-1.570, 1.011e-3
-1.571, 1.011e-3
-1.572, 1.011e-3
-1.573, 1.011e-3
-1.574, 1.011e-3
-1.575, 1.011e-3
-1.576, 1.011e-3
-1.577, 1.011e-3
-1.578, 1.011e-3
-1.579, 1.011e-3
-1.580, 1.011e-3
-1.581, 1.011e-3
-1.582, 1.011e-3
-1.583, 1.011e-3
-1.584, 1.011e-3
-1.585, 1.011e-3
-1.586, 1.011e-3
-1.587, 1.011e-3
-1.588, 1.011e-3
-1.589, 1.011e-3
-1.590, 1.011e-3
-1.591, 1.011e-3
-1.592, 1.011e-3
-1.593, 1.011e-3
-1.594, 1.011e-3
-1.595, 1.011e-3
-1.596, 1.011e-3
-1.597, 1.011e-3
-1.598, 1.011e-3
-1.599, 1.011e-3
-1.600, 1.011e-3
-1.601, 1.011e-3
-1.602, 1.011e-3
-1.603, 1.011e-3
-1.604, 1.011e-3
-1.605, 1.011e-3
-1.606, 1.011e-3
-1.607, 1.011e-3
-1.608, 1.011e-3
-1.609, 1.011e-3
-1.610, 1.011e-3
-1.611, 1.011e-3
-1.612, 1.011e-3
-1.613, 1.011e-3
-1.614, 1.011e-3
-1.615, 1.011e-3
-1.616, 1.011e-3
-1.617, 1.011e-3
-1.618, 1.011e-3
-1.619, 1.011e-3
-1.620, 1.011e-3
-1.621, 1.011e-3
-1.622, 1.011e-3
-1.623, 1.011e-3
-1.624, 1.011e-3
-1.625, 1.011e-3
-1.626, 1.011e-3
-1.627, 1.011e-3
-1.628, 1.011e-3
-1.629, 1.011e-3
-1.630, 1.011e-3
-1.631, 1.011e-3
-1.632, 1.011e-3
-1.633, 1.011e-3
-1.634, 1.011e-3
-1.635, 1.011e-3
-1.636, 1.011e-3
-1.637, 1.011e-3
-1.638, 1.011e-3
-1.639, 1.011e-3
-1.640, 1.011e-3
-1.641, 1.011e-3
-1.642, 1.011e-3
-1.643, 1.011e-3
-1.644, 1.011e-3
-1.645, 1.011e-3
-1.646, 1.011e-3
-1.647, 1.011e-3
-1.648, 1.011e-3
-1.649, 1.011e-3
-1.650, 1.011e-3
-1.651, 1.011e-3
-1.652, 1.011e-3
-1.653, 1.011e-3
-1.654, 1.011e-3
-1.655, 1.011e-3
-1.656, 1.011e-3
-1.657, 1.011e-3
-1.658, 1.011e-3
-1.659, 1.011e-3
-1.660, 1.011e-3
-1.661, 1.011e-3
-1.662, 1.011e-3
-1.663, 1.011e-3
-1.664, 1.011e-3
-1.665, 1.011e-3
-1.666, 1.011e-3
-1.667, 1.011e-3
-1.668, 1.011e-3
-1.669, 1.011e-3
-1.670, 1.011e-3
-1.671, 1.011e-3
-1.672, 1.011e-3
-1.673, 1.011e-3
-1.674, 1.011e-3
-1.675, 1.011e-3
-1.676, 1.011e-3
-1.677, 1.011e-3
-1.678, 1.011e-3
-1.679, 1.011e-3
-1.680, 1.011e-3
-1.681, 1.011e-3
-1.682, 1.011e-3
-1.683, 1.011e-3
-1.684, 1.011e-3
-1.685, 1.011e-3
-1.686, 1.011e-3
-1.687, 1.011e-3
-1.688, 1.011e-3
-1.689, 1.011e-3
-1.690, 1.011e-3
-1.691, 1.011e-3
-1.692, 1.011e-3
-1.693, 1.011e-3
-1.694, 1.011e-3
-1.695, 1.011e-3
-1.696, 1.011e-3
-1.697, 1.011e-3
-1.698, 1.011e-3
-1.699, 1.011e-3
-1.700, 1.011e-3
-1.701, 1.011e-3
-1.702, 1.011e-3
-1.703, 1.011e-3
-1.704, 1.011e-3
-1.705, 1.011e-3
-1.706, 1.011e-3
-1.707, 1.011e-3
-1.708, 1.011e-3
-1.709, 1.011e-3
-1.710, 1.011e-3
-1.711, 1.011e-3
-1.712, 1.011e-3
-1.713, 1.011e-3
-1.714, 1.011e-3
-1.715, 1.011e-3
-1.716, 1.011e-3
-1.717, 1.011e-3
-1.718, 1.011e-3
-1.719, 1.011e-3
-1.720, 1.011e-3
-1.721, 1.011e-3
-1.722, 1.011e-3
-1.723, 1.011e-3
-1.724, 1.011e-3
-1.725, 1.011e-3
-1.726, 1.011e-3
-1.727, 1.011e-3
-1.728, 1.011e-3
-1.729, 1.011e-3
-1.730, 1.011e-3
-1.731, 1.011e-3
-1.732, 1.011e-3
-1.733, 1.011e-3
-1.734, 1.011e-3
-1.735, 1.011e-3
-1.736, 1.011e-3
-1.737, 1.011e-3
-1.738, 1.011e-3
-1.739, 1.011e-3
-1.740, 1.011e-3
-1.741, 1.011e-3
-1.742, 1.011e-3
-1.743, 1.011e-3
-1.744, 1.011e-3
-1.745, 1.011e-3
-1.746, 1.011e-3
-1.747, 1.011e-3
-1.748, 1.011e-3
-1.749, 1.011e-3
-1.750, 1.011e-3
-1.751, 1.011e-3
-1.752, 1.011e-3
-1.753, 1.011e-3
-1.754, 1.011e-3
-1.755, 1.011e-3
-1.756, 1.011e-3
-1.757, 1.011e-3
-1.758, 1.011e-3
-1.759, 1.011e-3
-1.760, 1.011e-3
-1.761, 1.011e-3
-1.762, 1.011e-3
-1.763, 1.011e-3
-1.764, 1.011e-3
-1.765, 1.011e-3
-1.766, 1.011e-3
-1.767, 1.011e-3
-1.768, 1.011e-3
-1.769, 1.011e-3
-1.770, 1.011e-3
-1.771, 1.011e-3
-1.772, 1.011e-3
-1.773, 1.011e-3
-1.774, 1.011e-3
-1.775, 1.011e-3
-1.776, 1.011e-3
-1.777, 1.011e-3
-1.778, 1.011e-3
-1.779, 1.011e-3
-1.780, 1.011e-3
-1.781, 1.011e-3
-1.782, 1.011e-3
-1.783, 1.011e-3
-1.784, 1.011e-3
-1.785, 1.011e-3
-1.786, 1.011e-3
-1.787, 1.011e-3
-1.788, 1.011e-3
-1.789, 1.011e-3
-1.790, 1.011e-3
-1.791, 1.011e-3
-1.792, 1.011e-3
-1.793, 1.011e-3
-1.794, 1.011e-3
-1.795, 1.011e-3
-1.796, 1.011e-3
-1.797, 1.011e-3
-1.798, 1.011e-3
-1.799, 1.011e-3
-1.800, 1.011e-3
-1.801, 1.011e-3
-1.802, 1.011e-3
-1.803, 1.011e-3
-1.804, 1.011e-3
-1.805, 1.011e-3
-1.806, 1.011e-3
-1.807, 1.011e-3
-1.808, 1.011e-3
-1.809, 1.011e-3
-1.810, 1.011e-3
-1.811, 1.011e-3
-1.812, 1.011e-3
-1.813, 1.011e-3
-1.814, 1.011e-3
-1.815, 1.011e-3
-1.816, 1.011e-3
-1.817, 1.011e-3
-1.818, 1.011e-3
-1.819, 1.011e-3
-1.820, 1.011e-3
-1.821, 1.011e-3
-1.822, 1.011e-3
-1.823, 1.011e-3
-1.824, 1.011e-3
-1.825, 1.011e-3
-1.826, 1.011e-3
-1.827, 1.011e-3
-1.828, 1.011e-3
-1.829, 1.011e-3
-1.830, 1.011e-3
-1.831, 1.011e-3
-1.832, 1.011e-3
-1.833, 1.011e-3
-1.834, 1.011e-3
-1.835, 1.011e-3
-1.836, 1.011e-3
-1.837, 1.011e-3
-1.838, 1.011e-3
-1.839, 1.011e-3
-1.840, 1.011e-3
-1.841, 1.011e-3
-1.842, 1.011e-3
-1.843, 1.011e-3
-1.844, 1.011e-3
-1.845, 1.011e-3
-1.846, 1.011e-3
-1.847, 1.011e-3
-1.848, 1.011e-3
-1.849, 1.011e-3
-1.850, 1.011e-3
-1.851, 1.011e-3
-1.852, 1.011e-3
-1.853, 1.011e-3
-1.854, 1.011e-3
-1.855, 1.011e-3
-1.856, 1.011e-3
-1.857, 1.011e-3
-1.858, 1.011e-3
-1.859, 1.011e-3
-1.860, 1.011e-3
-1.861, 1.011e-3
-1.862, 1.011e-3
-1.863, 1.011e-3
-1.864, 1.011e-3
-1.865, 1.011e-3
-1.866, 1.011e-3
-1.867, 1.011e-3
-1.868, 1.011e-3
-1.869, 1.011e-3
-1.870, 1.011e-3
-1.871, 1.011e-3
-1.872, 1.011e-3
-1.873, 1.011e-3
-1.874, 1.011e-3
-1.875, 1.011e-3
-1.876, 1.011e-3
-1.877, 1.011e-3
-1.878, 1.011e-3
-1.879, 1.011e-3
-1.880, 1.011e-3
-1.881, 1.011e-3
-1.882, 1.011e-3
-1.883, 1.011e-3
-1.884, 1.011e-3
-1.885, 1.011e-3
-1.886, 1.011e-3
-1.887, 1.011e-3
-1.888, 1.011e-3
-1.889, 1.011e-3
-1.890, 1.011e-3
-1.891, 1.011e-3
-1.892, 1.011e-3
-1.893, 1.011e-3
-1.894, 1.011e-3
-1.895, 1.011e-3
-1.896, 1.011e-3
-1.897, 1.011e-3
-1.898, 1.011e-3
-1.899, 1.011e-3
-1.900, 1.011e-3
-1.901, 1.011e-3
-1.902, 1.011e-3
-1.903, 1.011e-3
-1.904, 1.011e-3
-1.905, 1.011e-3
-1.906, 1.011e-3
-1.907, 1.011e-3
-1.908, 1.011e-3
-1.909, 1.011e-3
-1.910, 1.011e-3
-1.911, 1.011e-3
-1.912, 1.011e-3
-1.913, 1.011e-3
-1.914, 1.011e-3
-1.915, 1.011e-3
-1.916, 1.011e-3
-1.917, 1.011e-3
-1.918, 1.011e-3
-1.919, 1.011e-3
-1.920, 1.011e-3
-1.921, 1.011e-3
-1.922, 1.011e-3
-1.923, 1.011e-3
-1.924, 1.011e-3
-1.925, 1.011e-3
-1.926, 1.011e-3
-1.927, 1.011e-3
-1.928, 1.011e-3
-1.929, 1.011e-3
-1.930, 1.011e-3
-1.931, 1.011e-3
-1.932, 1.011e-3
-1.933, 1.011e-3
-1.934, 1.011e-3
-1.935, 1.011e-3
-1.936, 1.011e-3
-1.937, 1.011e-3
-1.938, 1.011e-3
-1.939, 1.011e-3
-1.940, 1.011e-3
-1.941, 1.011e-3
-1.942, 1.011e-3
-1.943, 1.011e-3
-1.944, 1.011e-3
-1.945, 1.011e-3
-1.946, 1.011e-3
-1.947, 1.011e-3
-1.948, 1.011e-3
-1.949, 1.011e-3
-1.950, 1.011e-3
-1.951, 1.011e-3
-1.952, 1.011e-3
-1.953, 1.011e-3
-1.954, 1.011e-3
-1.955, 1.011e-3
-1.956, 1.011e-3
-1.957, 1.011e-3
-1.958, 1.011e-3
-1.959, 1.011e-3
-1.960, 1.011e-3
-1.961, 1.011e-3
-1.962, 1.011e-3
-1.963, 1.011e-3
-1.964, 1.011e-3
-1.965, 1.011e-3
-1.966, 1.011e-3
-1.967, 1.011e-3
-1.968, 1.011e-3
-1.969, 1.011e-3
-1.970, 1.011e-3
-1.971, 1.011e-3
-1.972, 1.011e-3
-1.973, 1.011e-3
-1.974, 1.011e-3
-1.975, 1.011e-3
-1.976, 1.011e-3
-1.977, 1.011e-3
-1.978, 1.011e-3
-1.979, 1.011e-3
-1.980, 1.011e-3
-1.981, 1.011e-3
-1.982, 1.011e-3
-1.983, 1.011e-3
-1.984, 1.011e-3
-1.985, 1.011e-3
-1.986, 1.011e-3
-1.987, 1.011e-3
-1.988, 1.011e-3
-1.989, 1.011e-3
-1.990, 1.011e-3
-1.991, 1.011e-3
-1.992, 1.011e-3
-1.993, 1.011e-3
-1.994, 1.011e-3
-1.995, 1.011e-3
-1.996, 1.011e-3
-1.997, 1.011e-3
-1.998, 1.011e-3
-1.999, 1.011e-3
-2.000, 1.011e-3
-2.001, 1.011e-3
-2.002, 1.011e-3
-2.003, 1.011e-3
-2.004, 1.011e-3
-2.005, 1.011e-3
-2.006, 1.011e-3
-2.007, 1.011e-3
-2.008, 1.011e-3
-2.009, 1.011e-3
-2.010, 1.011e-3
-2.011, 1.011e-3
-2.012, 1.011e-3
-2.013, 1.011e-3
-2.014, 1.011e-3
-2.015, 1.011e-3
-2.016, 1.011e-3
-2.017, 1.011e-3
-2.018, 1.011e-3
-2.019, 1.011e-3
-2.020, 1.011e-3
-2.021, 1.011e-3
-2.022, 1.011e-3
-2.023, 1.011e-3
-2.024, 1.011e-3
-2.025, 1.011e-3
-2.026, 1.011e-3
-2.027, 1.011e-3
-2.028, 1.011e-3
-2.029, 1.011e-3
-2.030, 1.011e-3
-2.031, 1.011e-3
-2.032, 1.011e-3
-2.033, 1.011e-3
-2.034, 1.011e-3
-2.035, 1.011e-3
-2.036, 1.011e-3
-2.037, 1.011e-3
-2.038, 1.011e-3
-2.039, 1.011e-3
-2.040, 1.011e-3
-2.041, 1.011e-3
-2.042, 1.011e-3
-2.043, 1.011e-3
-2.044, 1.011e-3
-2.045, 1.011e-3
-2.046, 1.011e-3
-2.047, 1.011e-3
-2.048, 1.011e-3
-2.049, 1.011e-3
-2.050, 1.011e-3
-2.051, 1.011e-3
-2.052, 1.011e-3
-2.053, 1.011e-3
-2.054, 1.011e-3
-2.055, 1.011e-3
-2.056, 1.011e-3
-2.057, 1.011e-3
-2.058, 1.011e-3
-2.059, 1.011e-3
-2.060, 1.011e-3
-2.061, 1.011e-3
-2.062, 1.011e-3
-2.063, 1.011e-3
-2.064, 1.011e-3
-2.065, 1.011e-3
-2.066, 1.011e-3
-2.067, 1.011e-3
-2.068, 1.011e-3
-2.069, 1.011e-3
-2.070, 1.011e-3
-2.071, 1.011e-3
-2.072, 1.011e-3
-2.073, 1.011e-3
-2.074, 1.011e-3
-2.075, 1.011e-3
-2.076, 1.011e-3
-2.077, 1.011e-3
-2.078, 1.011e-3
-2.079, 1.011e-3
-2.080, 1.011e-3
-2.081, 1.011e-3
-2.082, 1.011e-3
-2.083, 1.011e-3
-2.084, 1.011e-3
-2.085, 1.011e-3
-2.086, 1.011e-3
-2.087, 1.011e-3
-2.088, 1.011e-3
-2.089, 1.011e-3
-2.090, 1.011e-3
-2.091, 1.011e-3
-2.092, 1.011e-3
-2.093, 1.011e-3
-2.094, 1.011e-3
-2.095, 1.011e-3
-2.096, 1.011e-3
-2.097, 1.011e-3
-2.098, 1.011e-3
-2.099, 1.011e-3
-2.100, 1.011e-3
-2.101, 1.011e-3
-2.102, 1.011e-3
-2.103, 1.011e-3
-2.104, 1.011e-3
-2.105, 1.011e-3
-2.106, 1.011e-3
-2.107, 1.011e-3
-2.108, 1.011e-3
-2.109, 1.011e-3
-2.110, 1.011e-3
-2.111, 1.011e-3
-2.112, 1.011e-3
-2.113, 1.011e-3
-2.114, 1.011e-3
-2.115, 1.011e-3
-2.116, 1.011e-3
-2.117, 1.011e-3
-2.118, 1.011e-3
-2.119, 1.011e-3
-2.120, 1.011e-3
-2.121, 1.011e-3
-2.122, 1.011e-3
-2.123, 1.011e-3
-2.124, 1.011e-3
-2.125, 1.011e-3
-2.126, 1.011e-3
-2.127, 1.011e-3
-2.128, 1.011e-3
-2.129, 1.011e-3
-2.130, 1.011e-3
-2.131, 1.011e-3
-2.132, 1.011e-3
-2.133, 1.011e-3
-2.134, 1.011e-3
-2.135, 1.011e-3
-2.136, 1.011e-3
-2.137, 1.011e-3
-2.138, 1.011e-3
-2.139, 1.011e-3
-2.140, 1.011e-3
-2.141, 1.011e-3
-2.142, 1.011e-3
-2.143, 1.011e-3
-2.144, 1.011e-3
-2.145, 1.011e-3
-2.146, 1.011e-3
-2.147, 1.011e-3
-2.148, 1.011e-3
-2.149, 1.011e-3
-2.150, 1.011e-3
-2.151, 1.011e-3
-2.152, 1.011e-3
-2.153, 1.011e-3
-2.154, 1.011e-3
-2.155, 1.011e-3
-2.156, 1.011e-3
-2.157, 1.011e-3
-2.158, 1.011e-3
-2.159, 1.011e-3
-2.160, 1.011e-3
-2.161, 1.011e-3
-2.162, 1.011e-3
-2.163, 1.011e-3
-2.164, 1.011e-3
-2.165, 1.011e-3
-2.166, 1.011e-3
-2.167, 1.011e-3
-2.168, 1.011e-3
-2.169, 1.011e-3
-2.170, 1.011e-3
-2.171, 1.011e-3
-2.172, 1.011e-3
-2.173, 1.011e-3
-2.174, 1.011e-3
-2.175, 1.011e-3
-2.176, 1.011e-3
-2.177, 1.011e-3
-2.178, 1.011e-3
-2.179, 1.011e-3
-2.180, 1.011e-3
-2.181, 1.011e-3
-2.182, 1.011e-3
-2.183, 1.011e-3
-2.184, 1.011e-3
-2.185, 1.011e-3
-2.186, 1.011e-3
-2.187, 1.011e-3
-2.188, 1.011e-3
-2.189, 1.011e-3
-2.190, 1.011e-3
-2.191, 1.011e-3
-2.192, 1.011e-3
-2.193, 1.011e-3
-2.194, 1.011e-3
-2.195, 1.011e-3
-2.196, 1.011e-3
-2.197, 1.011e-3
-2.198, 1.011e-3
-2.199, 1.011e-3
-2.200, 1.011e-3
-2.201, 1.011e-3
-2.202, 1.011e-3
-2.203, 1.011e-3
-2.204, 1.011e-3
-2.205, 1.011e-3
-2.206, 1.011e-3
-2.207, 1.011e-3
-2.208, 1.011e-3
-2.209, 1.011e-3
-2.210, 1.011e-3
-2.211, 1.011e-3
-2.212, 1.011e-3
-2.213, 1.011e-3
-2.214, 1.011e-3
-2.215, 1.011e-3
-2.216, 1.011e-3
-2.217, 1.011e-3
-2.218, 1.011e-3
-2.219, 1.011e-3
-2.220, 1.011e-3
-2.221, 1.011e-3
-2.222, 1.011e-3
-2.223, 1.011e-3
-2.224, 1.011e-3
-2.225, 1.011e-3
-2.226, 1.011e-3
-2.227, 1.011e-3
-2.228, 1.011e-3
-2.229, 1.011e-3
-2.230, 1.011e-3
-2.231, 1.011e-3
-2.232, 1.011e-3
-2.233, 1.011e-3
-2.234, 1.011e-3
-2.235, 1.011e-3
-2.236, 1.011e-3
-2.237, 1.011e-3
-2.238, 1.011e-3
-2.239, 1.011e-3
-2.240, 1.011e-3
-2.241, 1.011e-3
-2.242, 1.011e-3
-2.243, 1.011e-3
-2.244, 1.011e-3
-2.245, 1.011e-3
-2.246, 1.011e-3
-2.247, 1.011e-3
-2.248, 1.011e-3
-2.249, 1.011e-3
-2.250, 1.011e-3
-2.251, 1.011e-3
-2.252, 1.011e-3
-2.253, 1.011e-3
-2.254, 1.011e-3
-2.255, 1.011e-3
-2.256, 1.011e-3
-2.257, 1.011e-3
-2.258, 1.011e-3
-2.259, 1.011e-3
-2.260, 1.011e-3
-2.261, 1.011e-3
-2.262, 1.011e-3
-2.263, 1.011e-3
-2.264, 1.011e-3
-2.265, 1.011e-3
-2.266, 1.011e-3
-2.267, 1.011e-3
-2.268, 1.011e-3
-2.269, 1.011e-3
-2.270, 1.011e-3
-2.271, 1.011e-3
-2.272, 1.011e-3
-2.273, 1.011e-3
-2.274, 1.011e-3
-2.275, 1.011e-3
-2.276, 1.011e-3
-2.277, 1.011e-3
-2.278, 1.011e-3
-2.279, 1.011e-3
-2.280, 1.011e-3
-2.281, 1.011e-3
-2.282, 1.011e-3
-2.283, 1.011e-3
-2.284, 1.011e-3
-2.285, 1.011e-3
-2.286, 1.011e-3
-2.287, 1.011e-3
-2.288, 1.011e-3
-2.289, 1.011e-3
-2.290, 1.011e-3
-2.291, 1.011e-3
-2.292, 1.011e-3
-2.293, 1.011e-3
-2.294, 1.011e-3
-2.295, 1.011e-3
-2.296, 1.011e-3
-2.297, 1.011e-3
-2.298, 1.011e-3
-2.299, 1.011e-3
