Sept. 12, 2024   04:35:11
Linear Sweep Voltammetry
File: c:/users/guazh/data/20240903_batch_252_500/2024-09-03-exp330\1acid_1ac-2024-09-12t04_32_03-lsvinphos\1acid_1ac_lsv_50mvs_efin_-2100mv.bin
Data Source:  Experiment
Instrument Model:  CHI760E
Header: LSV ran at 50 mVs with Efin at -2100mV
Note: 

Init E (V) = -0.6
Final E (V) = -2.1
Scan Rate (V/s) = 0.05
Sample Interval (V) = 0.001
Quiet Time (sec) = 2
Sensitivity (A/V) = 1e-4
Comp R (ohm) = 12.0

Results:

Channel 1:
Ep = -2.017V
ip = 5.159e-4A
Ah = 8.088e-4C

Potential/V, Current/A

-0.600, 5.000e-6
-0.601, 5.124e-6
-0.602, 5.182e-6
-0.603, 5.228e-6
-0.604, 5.274e-6
-0.605, 5.315e-6
-0.606, 5.355e-6
-0.607, 5.393e-6
-0.608, 5.431e-6
-0.609, 5.467e-6
-0.610, 5.503e-6
-0.611, 5.541e-6
-0.612, 5.577e-6
-0.613, 5.613e-6
-0.614, 5.649e-6
-0.615, 5.685e-6
-0.616, 5.717e-6
-0.617, 5.752e-6
-0.618, 5.785e-6
-0.619, 5.820e-6
-0.620, 5.854e-6
-0.621, 5.884e-6
-0.622, 5.914e-6
-0.623, 5.944e-6
-0.624, 5.974e-6
-0.625, 6.005e-6
-0.626, 6.035e-6
-0.627, 6.066e-6
-0.628, 6.097e-6
-0.629, 6.125e-6
-0.630, 6.155e-6
-0.631, 6.181e-6
-0.632, 6.208e-6
-0.633, 6.233e-6
-0.634, 6.260e-6
-0.635, 6.290e-6
-0.636, 6.317e-6
-0.637, 6.341e-6
-0.638, 6.370e-6
-0.639, 6.394e-6
-0.640, 6.421e-6
-0.641, 6.449e-6
-0.642, 6.472e-6
-0.643, 6.496e-6
-0.644, 6.520e-6
-0.645, 6.543e-6
-0.646, 6.567e-6
-0.647, 6.591e-6
-0.648, 6.612e-6
-0.649, 6.636e-6
-0.650, 6.658e-6
-0.651, 6.679e-6
-0.652, 6.699e-6
-0.653, 6.720e-6
-0.654, 6.738e-6
-0.655, 6.758e-6
-0.656, 6.779e-6
-0.657, 6.797e-6
-0.658, 6.816e-6
-0.659, 6.835e-6
-0.660, 6.852e-6
-0.661, 6.868e-6
-0.662, 6.885e-6
-0.663, 6.903e-6
-0.664, 6.917e-6
-0.665, 6.936e-6
-0.666, 6.950e-6
-0.667, 6.963e-6
-0.668, 6.978e-6
-0.669, 6.992e-6
-0.670, 7.005e-6
-0.671, 7.017e-6
-0.672, 7.031e-6
-0.673, 7.044e-6
-0.674, 7.054e-6
-0.675, 7.065e-6
-0.676, 7.075e-6
-0.677, 7.086e-6
-0.678, 7.097e-6
-0.679, 7.107e-6
-0.680, 7.116e-6
-0.681, 7.125e-6
-0.682, 7.132e-6
-0.683, 7.142e-6
-0.684, 7.149e-6
-0.685, 7.158e-6
-0.686, 7.163e-6
-0.687, 7.169e-6
-0.688, 7.176e-6
-0.689, 7.183e-6
-0.690, 7.187e-6
-0.691, 7.192e-6
-0.692, 7.199e-6
-0.693, 7.203e-6
-0.694, 7.207e-6
-0.695, 7.209e-6
-0.696, 7.212e-6
-0.697, 7.213e-6
-0.698, 7.215e-6
-0.699, 7.219e-6
-0.700, 7.220e-6
-0.701, 7.219e-6
-0.702, 7.220e-6
-0.703, 7.222e-6
-0.704, 7.223e-6
-0.705, 7.222e-6
-0.706, 7.220e-6
-0.707, 7.219e-6
-0.708, 7.220e-6
-0.709, 7.218e-6
-0.710, 7.216e-6
-0.711, 7.211e-6
-0.712, 7.211e-6
-0.713, 7.211e-6
-0.714, 7.205e-6
-0.715, 7.202e-6
-0.716, 7.202e-6
-0.717, 7.198e-6
-0.718, 7.197e-6
-0.719, 7.195e-6
-0.720, 7.188e-6
-0.721, 7.180e-6
-0.722, 7.172e-6
-0.723, 7.169e-6
-0.724, 7.164e-6
-0.725, 7.164e-6
-0.726, 7.153e-6
-0.727, 7.144e-6
-0.728, 7.137e-6
-0.729, 7.129e-6
-0.730, 7.126e-6
-0.731, 7.119e-6
-0.732, 7.109e-6
-0.733, 7.101e-6
-0.734, 7.095e-6
-0.735, 7.086e-6
-0.736, 7.076e-6
-0.737, 7.067e-6
-0.738, 7.058e-6
-0.739, 7.049e-6
-0.740, 7.037e-6
-0.741, 7.025e-6
-0.742, 7.017e-6
-0.743, 7.009e-6
-0.744, 6.998e-6
-0.745, 6.990e-6
-0.746, 6.979e-6
-0.747, 6.971e-6
-0.748, 6.962e-6
-0.749, 6.951e-6
-0.750, 6.943e-6
-0.751, 6.931e-6
-0.752, 6.921e-6
-0.753, 6.911e-6
-0.754, 6.899e-6
-0.755, 6.891e-6
-0.756, 6.880e-6
-0.757, 6.870e-6
-0.758, 6.861e-6
-0.759, 6.848e-6
-0.760, 6.838e-6
-0.761, 6.828e-6
-0.762, 6.815e-6
-0.763, 6.805e-6
-0.764, 6.794e-6
-0.765, 6.782e-6
-0.766, 6.770e-6
-0.767, 6.759e-6
-0.768, 6.750e-6
-0.769, 6.737e-6
-0.770, 6.725e-6
-0.771, 6.715e-6
-0.772, 6.703e-6
-0.773, 6.692e-6
-0.774, 6.681e-6
-0.775, 6.669e-6
-0.776, 6.657e-6
-0.777, 6.646e-6
-0.778, 6.633e-6
-0.779, 6.624e-6
-0.780, 6.613e-6
-0.781, 6.600e-6
-0.782, 6.590e-6
-0.783, 6.578e-6
-0.784, 6.568e-6
-0.785, 6.558e-6
-0.786, 6.544e-6
-0.787, 6.534e-6
-0.788, 6.530e-6
-0.789, 6.516e-6
-0.790, 6.507e-6
-0.791, 6.490e-6
-0.792, 6.479e-6
-0.793, 6.470e-6
-0.794, 6.457e-6
-0.795, 6.445e-6
-0.796, 6.432e-6
-0.797, 6.418e-6
-0.798, 6.407e-6
-0.799, 6.395e-6
-0.800, 6.385e-6
-0.801, 6.375e-6
-0.802, 6.363e-6
-0.803, 6.352e-6
-0.804, 6.339e-6
-0.805, 6.329e-6
-0.806, 6.317e-6
-0.807, 6.307e-6
-0.808, 6.295e-6
-0.809, 6.286e-6
-0.810, 6.274e-6
-0.811, 6.263e-6
-0.812, 6.252e-6
-0.813, 6.243e-6
-0.814, 6.235e-6
-0.815, 6.225e-6
-0.816, 6.215e-6
-0.817, 6.204e-6
-0.818, 6.194e-6
-0.819, 6.190e-6
-0.820, 6.181e-6
-0.821, 6.166e-6
-0.822, 6.156e-6
-0.823, 6.146e-6
-0.824, 6.137e-6
-0.825, 6.129e-6
-0.826, 6.119e-6
-0.827, 6.110e-6
-0.828, 6.100e-6
-0.829, 6.087e-6
-0.830, 6.080e-6
-0.831, 6.070e-6
-0.832, 6.062e-6
-0.833, 6.053e-6
-0.834, 6.044e-6
-0.835, 6.035e-6
-0.836, 6.022e-6
-0.837, 6.014e-6
-0.838, 6.006e-6
-0.839, 5.997e-6
-0.840, 5.987e-6
-0.841, 5.976e-6
-0.842, 5.966e-6
-0.843, 5.959e-6
-0.844, 5.948e-6
-0.845, 5.941e-6
-0.846, 5.932e-6
-0.847, 5.925e-6
-0.848, 5.916e-6
-0.849, 5.908e-6
-0.850, 5.900e-6
-0.851, 5.893e-6
-0.852, 5.883e-6
-0.853, 5.875e-6
-0.854, 5.867e-6
-0.855, 5.860e-6
-0.856, 5.852e-6
-0.857, 5.845e-6
-0.858, 5.835e-6
-0.859, 5.828e-6
-0.860, 5.820e-6
-0.861, 5.811e-6
-0.862, 5.806e-6
-0.863, 5.797e-6
-0.864, 5.789e-6
-0.865, 5.781e-6
-0.866, 5.772e-6
-0.867, 5.765e-6
-0.868, 5.757e-6
-0.869, 5.749e-6
-0.870, 5.745e-6
-0.871, 5.737e-6
-0.872, 5.728e-6
-0.873, 5.721e-6
-0.874, 5.713e-6
-0.875, 5.709e-6
-0.876, 5.702e-6
-0.877, 5.695e-6
-0.878, 5.688e-6
-0.879, 5.681e-6
-0.880, 5.674e-6
-0.881, 5.667e-6
-0.882, 5.660e-6
-0.883, 5.655e-6
-0.884, 5.649e-6
-0.885, 5.641e-6
-0.886, 5.634e-6
-0.887, 5.627e-6
-0.888, 5.622e-6
-0.889, 5.616e-6
-0.890, 5.611e-6
-0.891, 5.607e-6
-0.892, 5.601e-6
-0.893, 5.591e-6
-0.894, 5.585e-6
-0.895, 5.580e-6
-0.896, 5.574e-6
-0.897, 5.569e-6
-0.898, 5.563e-6
-0.899, 5.556e-6
-0.900, 5.550e-6
-0.901, 5.544e-6
-0.902, 5.539e-6
-0.903, 5.533e-6
-0.904, 5.527e-6
-0.905, 5.523e-6
-0.906, 5.516e-6
-0.907, 5.510e-6
-0.908, 5.506e-6
-0.909, 5.501e-6
-0.910, 5.495e-6
-0.911, 5.487e-6
-0.912, 5.480e-6
-0.913, 5.477e-6
-0.914, 5.470e-6
-0.915, 5.468e-6
-0.916, 5.460e-6
-0.917, 5.455e-6
-0.918, 5.452e-6
-0.919, 5.445e-6
-0.920, 5.440e-6
-0.921, 5.434e-6
-0.922, 5.430e-6
-0.923, 5.426e-6
-0.924, 5.422e-6
-0.925, 5.417e-6
-0.926, 5.412e-6
-0.927, 5.407e-6
-0.928, 5.403e-6
-0.929, 5.398e-6
-0.930, 5.393e-6
-0.931, 5.388e-6
-0.932, 5.384e-6
-0.933, 5.381e-6
-0.934, 5.379e-6
-0.935, 5.376e-6
-0.936, 5.370e-6
-0.937, 5.365e-6
-0.938, 5.360e-6
-0.939, 5.359e-6
-0.940, 5.350e-6
-0.941, 5.344e-6
-0.942, 5.341e-6
-0.943, 5.336e-6
-0.944, 5.330e-6
-0.945, 5.326e-6
-0.946, 5.321e-6
-0.947, 5.319e-6
-0.948, 5.314e-6
-0.949, 5.309e-6
-0.950, 5.307e-6
-0.951, 5.300e-6
-0.952, 5.296e-6
-0.953, 5.293e-6
-0.954, 5.289e-6
-0.955, 5.286e-6
-0.956, 5.281e-6
-0.957, 5.277e-6
-0.958, 5.273e-6
-0.959, 5.269e-6
-0.960, 5.268e-6
-0.961, 5.265e-6
-0.962, 5.260e-6
-0.963, 5.258e-6
-0.964, 5.254e-6
-0.965, 5.249e-6
-0.966, 5.246e-6
-0.967, 5.244e-6
-0.968, 5.241e-6
-0.969, 5.238e-6
-0.970, 5.234e-6
-0.971, 5.229e-6
-0.972, 5.223e-6
-0.973, 5.222e-6
-0.974, 5.220e-6
-0.975, 5.215e-6
-0.976, 5.210e-6
-0.977, 5.209e-6
-0.978, 5.204e-6
-0.979, 5.201e-6
-0.980, 5.197e-6
-0.981, 5.192e-6
-0.982, 5.191e-6
-0.983, 5.187e-6
-0.984, 5.184e-6
-0.985, 5.182e-6
-0.986, 5.177e-6
-0.987, 5.175e-6
-0.988, 5.170e-6
-0.989, 5.165e-6
-0.990, 5.165e-6
-0.991, 5.160e-6
-0.992, 5.157e-6
-0.993, 5.155e-6
-0.994, 5.151e-6
-0.995, 5.147e-6
-0.996, 5.145e-6
-0.997, 5.141e-6
-0.998, 5.139e-6
-0.999, 5.135e-6
-1.000, 5.132e-6
-1.001, 5.128e-6
-1.002, 5.128e-6
-1.003, 5.123e-6
-1.004, 5.118e-6
-1.005, 5.118e-6
-1.006, 5.118e-6
-1.007, 5.116e-6
-1.008, 5.109e-6
-1.009, 5.106e-6
-1.010, 5.102e-6
-1.011, 5.101e-6
-1.012, 5.100e-6
-1.013, 5.093e-6
-1.014, 5.095e-6
-1.015, 5.091e-6
-1.016, 5.085e-6
-1.017, 5.087e-6
-1.018, 5.083e-6
-1.019, 5.084e-6
-1.020, 5.079e-6
-1.021, 5.072e-6
-1.022, 5.068e-6
-1.023, 5.063e-6
-1.024, 5.063e-6
-1.025, 5.063e-6
-1.026, 5.059e-6
-1.027, 5.057e-6
-1.028, 5.055e-6
-1.029, 5.053e-6
-1.030, 5.049e-6
-1.031, 5.045e-6
-1.032, 5.044e-6
-1.033, 5.042e-6
-1.034, 5.039e-6
-1.035, 5.037e-6
-1.036, 5.035e-6
-1.037, 5.033e-6
-1.038, 5.032e-6
-1.039, 5.032e-6
-1.040, 5.030e-6
-1.041, 5.028e-6
-1.042, 5.026e-6
-1.043, 5.027e-6
-1.044, 5.025e-6
-1.045, 5.023e-6
-1.046, 5.022e-6
-1.047, 5.020e-6
-1.048, 5.020e-6
-1.049, 5.021e-6
-1.050, 5.019e-6
-1.051, 5.018e-6
-1.052, 5.015e-6
-1.053, 5.012e-6
-1.054, 5.015e-6
-1.055, 5.012e-6
-1.056, 5.012e-6
-1.057, 5.011e-6
-1.058, 5.009e-6
-1.059, 5.014e-6
-1.060, 5.012e-6
-1.061, 5.008e-6
-1.062, 5.011e-6
-1.063, 5.004e-6
-1.064, 5.003e-6
-1.065, 5.006e-6
-1.066, 5.004e-6
-1.067, 5.004e-6
-1.068, 5.004e-6
-1.069, 5.002e-6
-1.070, 5.004e-6
-1.071, 5.000e-6
-1.072, 5.002e-6
-1.073, 5.008e-6
-1.074, 5.007e-6
-1.075, 5.006e-6
-1.076, 5.009e-6
-1.077, 5.006e-6
-1.078, 5.005e-6
-1.079, 5.006e-6
-1.080, 5.011e-6
-1.081, 5.006e-6
-1.082, 5.006e-6
-1.083, 5.009e-6
-1.084, 5.012e-6
-1.085, 5.001e-6
-1.086, 4.996e-6
-1.087, 4.997e-6
-1.088, 4.997e-6
-1.089, 4.999e-6
-1.090, 5.001e-6
-1.091, 5.001e-6
-1.092, 5.003e-6
-1.093, 5.004e-6
-1.094, 5.007e-6
-1.095, 5.008e-6
-1.096, 5.008e-6
-1.097, 5.011e-6
-1.098, 5.010e-6
-1.099, 5.014e-6
-1.100, 5.016e-6
-1.101, 5.017e-6
-1.102, 5.020e-6
-1.103, 5.021e-6
-1.104, 5.023e-6
-1.105, 5.026e-6
-1.106, 5.028e-6
-1.107, 5.031e-6
-1.108, 5.034e-6
-1.109, 5.035e-6
-1.110, 5.036e-6
-1.111, 5.037e-6
-1.112, 5.042e-6
-1.113, 5.044e-6
-1.114, 5.047e-6
-1.115, 5.051e-6
-1.116, 5.052e-6
-1.117, 5.056e-6
-1.118, 5.061e-6
-1.119, 5.062e-6
-1.120, 5.066e-6
-1.121, 5.068e-6
-1.122, 5.070e-6
-1.123, 5.074e-6
-1.124, 5.079e-6
-1.125, 5.081e-6
-1.126, 5.085e-6
-1.127, 5.089e-6
-1.128, 5.091e-6
-1.129, 5.096e-6
-1.130, 5.102e-6
-1.131, 5.105e-6
-1.132, 5.109e-6
-1.133, 5.115e-6
-1.134, 5.120e-6
-1.135, 5.121e-6
-1.136, 5.126e-6
-1.137, 5.130e-6
-1.138, 5.132e-6
-1.139, 5.171e-6
-1.140, 5.282e-6
-1.141, 5.259e-6
-1.142, 5.248e-6
-1.143, 5.243e-6
-1.144, 5.229e-6
-1.145, 5.221e-6
-1.146, 5.222e-6
-1.147, 5.221e-6
-1.148, 5.219e-6
-1.149, 5.231e-6
-1.150, 5.227e-6
-1.151, 5.204e-6
-1.152, 5.203e-6
-1.153, 5.206e-6
-1.154, 5.211e-6
-1.155, 5.242e-6
-1.156, 5.236e-6
-1.157, 5.227e-6
-1.158, 5.236e-6
-1.159, 5.285e-6
-1.160, 5.305e-6
-1.161, 5.295e-6
-1.162, 5.294e-6
-1.163, 5.295e-6
-1.164, 5.299e-6
-1.165, 5.302e-6
-1.166, 5.307e-6
-1.167, 5.313e-6
-1.168, 5.325e-6
-1.169, 5.332e-6
-1.170, 5.333e-6
-1.171, 5.337e-6
-1.172, 5.341e-6
-1.173, 5.350e-6
-1.174, 5.359e-6
-1.175, 5.363e-6
-1.176, 5.368e-6
-1.177, 5.376e-6
-1.178, 5.385e-6
-1.179, 5.388e-6
-1.180, 5.393e-6
-1.181, 5.398e-6
-1.182, 5.405e-6
-1.183, 5.410e-6
-1.184, 5.415e-6
-1.185, 5.420e-6
-1.186, 5.427e-6
-1.187, 5.437e-6
-1.188, 5.442e-6
-1.189, 5.447e-6
-1.190, 5.453e-6
-1.191, 5.461e-6
-1.192, 5.468e-6
-1.193, 5.475e-6
-1.194, 5.483e-6
-1.195, 5.491e-6
-1.196, 5.498e-6
-1.197, 5.505e-6
-1.198, 5.513e-6
-1.199, 5.517e-6
-1.200, 5.523e-6
-1.201, 5.527e-6
-1.202, 5.534e-6
-1.203, 5.546e-6
-1.204, 5.555e-6
-1.205, 5.560e-6
-1.206, 5.567e-6
-1.207, 5.572e-6
-1.208, 5.561e-6
-1.209, 5.570e-6
-1.210, 5.582e-6
-1.211, 5.583e-6
-1.212, 5.596e-6
-1.213, 5.616e-6
-1.214, 5.625e-6
-1.215, 5.632e-6
-1.216, 5.639e-6
-1.217, 5.649e-6
-1.218, 5.658e-6
-1.219, 5.668e-6
-1.220, 5.676e-6
-1.221, 5.684e-6
-1.222, 5.694e-6
-1.223, 5.700e-6
-1.224, 5.708e-6
-1.225, 5.717e-6
-1.226, 5.725e-6
-1.227, 5.735e-6
-1.228, 5.744e-6
-1.229, 5.761e-6
-1.230, 5.765e-6
-1.231, 5.768e-6
-1.232, 5.772e-6
-1.233, 5.780e-6
-1.234, 5.794e-6
-1.235, 5.802e-6
-1.236, 5.809e-6
-1.237, 5.814e-6
-1.238, 5.822e-6
-1.239, 5.830e-6
-1.240, 5.838e-6
-1.241, 5.850e-6
-1.242, 5.855e-6
-1.243, 5.861e-6
-1.244, 5.872e-6
-1.245, 5.880e-6
-1.246, 5.887e-6
-1.247, 5.893e-6
-1.248, 5.905e-6
-1.249, 5.915e-6
-1.250, 5.926e-6
-1.251, 5.934e-6
-1.252, 5.944e-6
-1.253, 5.951e-6
-1.254, 5.961e-6
-1.255, 5.969e-6
-1.256, 5.978e-6
-1.257, 5.985e-6
-1.258, 5.993e-6
-1.259, 6.003e-6
-1.260, 6.011e-6
-1.261, 6.020e-6
-1.262, 6.031e-6
-1.263, 6.042e-6
-1.264, 6.052e-6
-1.265, 6.061e-6
-1.266, 6.068e-6
-1.267, 6.079e-6
-1.268, 6.088e-6
-1.269, 6.100e-6
-1.270, 6.107e-6
-1.271, 6.120e-6
-1.272, 6.136e-6
-1.273, 6.146e-6
-1.274, 6.152e-6
-1.275, 6.163e-6
-1.276, 6.173e-6
-1.277, 6.182e-6
-1.278, 6.191e-6
-1.279, 6.199e-6
-1.280, 6.209e-6
-1.281, 6.217e-6
-1.282, 6.226e-6
-1.283, 6.236e-6
-1.284, 6.247e-6
-1.285, 6.258e-6
-1.286, 6.268e-6
-1.287, 6.276e-6
-1.288, 6.284e-6
-1.289, 6.299e-6
-1.290, 6.315e-6
-1.291, 6.329e-6
-1.292, 6.340e-6
-1.293, 6.357e-6
-1.294, 6.372e-6
-1.295, 6.384e-6
-1.296, 6.393e-6
-1.297, 6.404e-6
-1.298, 6.413e-6
-1.299, 6.426e-6
-1.300, 6.443e-6
-1.301, 6.457e-6
-1.302, 6.473e-6
-1.303, 6.490e-6
-1.304, 6.509e-6
-1.305, 6.533e-6
-1.306, 6.560e-6
-1.307, 6.580e-6
-1.308, 6.604e-6
-1.309, 6.633e-6
-1.310, 6.643e-6
-1.311, 6.643e-6
-1.312, 6.646e-6
-1.313, 6.656e-6
-1.314, 6.663e-6
-1.315, 6.670e-6
-1.316, 6.675e-6
-1.317, 6.681e-6
-1.318, 6.690e-6
-1.319, 6.696e-6
-1.320, 6.701e-6
-1.321, 6.707e-6
-1.322, 6.714e-6
-1.323, 6.722e-6
-1.324, 6.733e-6
-1.325, 6.739e-6
-1.326, 6.746e-6
-1.327, 6.755e-6
-1.328, 6.770e-6
-1.329, 6.786e-6
-1.330, 6.794e-6
-1.331, 6.799e-6
-1.332, 6.809e-6
-1.333, 6.848e-6
-1.334, 6.887e-6
-1.335, 6.894e-6
-1.336, 6.889e-6
-1.337, 6.891e-6
-1.338, 6.896e-6
-1.339, 6.902e-6
-1.340, 6.911e-6
-1.341, 6.923e-6
-1.342, 6.931e-6
-1.343, 6.939e-6
-1.344, 6.951e-6
-1.345, 6.961e-6
-1.346, 6.949e-6
-1.347, 6.957e-6
-1.348, 6.968e-6
-1.349, 6.977e-6
-1.350, 6.991e-6
-1.351, 7.001e-6
-1.352, 7.012e-6
-1.353, 7.023e-6
-1.354, 7.036e-6
-1.355, 7.047e-6
-1.356, 7.057e-6
-1.357, 7.069e-6
-1.358, 7.081e-6
-1.359, 7.091e-6
-1.360, 7.105e-6
-1.361, 7.117e-6
-1.362, 7.128e-6
-1.363, 7.142e-6
-1.364, 7.154e-6
-1.365, 7.163e-6
-1.366, 7.176e-6
-1.367, 7.191e-6
-1.368, 7.203e-6
-1.369, 7.216e-6
-1.370, 7.229e-6
-1.371, 7.236e-6
-1.372, 7.247e-6
-1.373, 7.257e-6
-1.374, 7.271e-6
-1.375, 7.283e-6
-1.376, 7.296e-6
-1.377, 7.314e-6
-1.378, 7.327e-6
-1.379, 7.340e-6
-1.380, 7.349e-6
-1.381, 7.361e-6
-1.382, 7.379e-6
-1.383, 7.396e-6
-1.384, 7.411e-6
-1.385, 7.426e-6
-1.386, 7.436e-6
-1.387, 7.450e-6
-1.388, 7.460e-6
-1.389, 7.475e-6
-1.390, 7.488e-6
-1.391, 7.504e-6
-1.392, 7.520e-6
-1.393, 7.534e-6
-1.394, 7.546e-6
-1.395, 7.557e-6
-1.396, 7.572e-6
-1.397, 7.588e-6
-1.398, 7.607e-6
-1.399, 7.619e-6
-1.400, 7.631e-6
-1.401, 7.643e-6
-1.402, 7.652e-6
-1.403, 7.667e-6
-1.404, 7.682e-6
-1.405, 7.697e-6
-1.406, 7.714e-6
-1.407, 7.727e-6
-1.408, 7.740e-6
-1.409, 7.750e-6
-1.410, 7.762e-6
-1.411, 7.778e-6
-1.412, 7.794e-6
-1.413, 7.806e-6
-1.414, 7.824e-6
-1.415, 7.842e-6
-1.416, 7.853e-6
-1.417, 7.866e-6
-1.418, 7.879e-6
-1.419, 7.895e-6
-1.420, 7.910e-6
-1.421, 7.927e-6
-1.422, 7.945e-6
-1.423, 7.960e-6
-1.424, 7.980e-6
-1.425, 7.997e-6
-1.426, 8.015e-6
-1.427, 8.037e-6
-1.428, 8.047e-6
-1.429, 8.059e-6
-1.430, 8.074e-6
-1.431, 8.089e-6
-1.432, 8.109e-6
-1.433, 8.127e-6
-1.434, 8.151e-6
-1.435, 8.166e-6
-1.436, 8.183e-6
-1.437, 8.201e-6
-1.438, 8.217e-6
-1.439, 8.236e-6
-1.440, 8.253e-6
-1.441, 8.258e-6
-1.442, 8.276e-6
-1.443, 8.296e-6
-1.444, 8.310e-6
-1.445, 8.326e-6
-1.446, 8.343e-6
-1.447, 8.366e-6
-1.448, 8.384e-6
-1.449, 8.401e-6
-1.450, 8.420e-6
-1.451, 8.441e-6
-1.452, 8.460e-6
-1.453, 8.474e-6
-1.454, 8.492e-6
-1.455, 8.505e-6
-1.456, 8.520e-6
-1.457, 8.542e-6
-1.458, 8.557e-6
-1.459, 8.570e-6
-1.460, 8.581e-6
-1.461, 8.598e-6
-1.462, 8.621e-6
-1.463, 8.636e-6
-1.464, 8.655e-6
-1.465, 8.670e-6
-1.466, 8.687e-6
-1.467, 8.706e-6
-1.468, 8.729e-6
-1.469, 8.749e-6
-1.470, 8.774e-6
-1.471, 8.790e-6
-1.472, 8.810e-6
-1.473, 8.826e-6
-1.474, 8.841e-6
-1.475, 8.866e-6
-1.476, 8.890e-6
-1.477, 8.921e-6
-1.478, 8.942e-6
-1.479, 8.959e-6
-1.480, 8.975e-6
-1.481, 8.998e-6
-1.482, 9.020e-6
-1.483, 9.049e-6
-1.484, 9.071e-6
-1.485, 9.101e-6
-1.486, 9.122e-6
-1.487, 9.129e-6
-1.488, 9.148e-6
-1.489, 9.173e-6
-1.490, 9.201e-6
-1.491, 9.224e-6
-1.492, 9.237e-6
-1.493, 9.258e-6
-1.494, 9.276e-6
-1.495, 9.294e-6
-1.496, 9.321e-6
-1.497, 9.348e-6
-1.498, 9.377e-6
-1.499, 9.407e-6
-1.500, 9.432e-6
-1.501, 9.462e-6
-1.502, 9.497e-6
-1.503, 9.516e-6
-1.504, 9.548e-6
-1.505, 9.581e-6
-1.506, 9.608e-6
-1.507, 9.634e-6
-1.508, 9.663e-6
-1.509, 9.694e-6
-1.510, 9.739e-6
-1.511, 9.766e-6
-1.512, 9.783e-6
-1.513, 9.818e-6
-1.514, 9.848e-6
-1.515, 9.884e-6
-1.516, 9.908e-6
-1.517, 9.941e-6
-1.518, 9.979e-6
-1.519, 1.002e-5
-1.520, 1.005e-5
-1.521, 1.008e-5
-1.522, 1.011e-5
-1.523, 1.015e-5
-1.524, 1.019e-5
-1.525, 1.022e-5
-1.526, 1.026e-5
-1.527, 1.029e-5
-1.528, 1.032e-5
-1.529, 1.035e-5
-1.530, 1.039e-5
-1.531, 1.043e-5
-1.532, 1.047e-5
-1.533, 1.051e-5
-1.534, 1.055e-5
-1.535, 1.058e-5
-1.536, 1.062e-5
-1.537, 1.067e-5
-1.538, 1.072e-5
-1.539, 1.076e-5
-1.540, 1.080e-5
-1.541, 1.085e-5
-1.542, 1.089e-5
-1.543, 1.094e-5
-1.544, 1.098e-5
-1.545, 1.102e-5
-1.546, 1.107e-5
-1.547, 1.111e-5
-1.548, 1.116e-5
-1.549, 1.122e-5
-1.550, 1.127e-5
-1.551, 1.132e-5
-1.552, 1.138e-5
-1.553, 1.144e-5
-1.554, 1.148e-5
-1.555, 1.153e-5
-1.556, 1.158e-5
-1.557, 1.163e-5
-1.558, 1.168e-5
-1.559, 1.174e-5
-1.560, 1.179e-5
-1.561, 1.185e-5
-1.562, 1.190e-5
-1.563, 1.196e-5
-1.564, 1.202e-5
-1.565, 1.208e-5
-1.566, 1.213e-5
-1.567, 1.220e-5
-1.568, 1.227e-5
-1.569, 1.234e-5
-1.570, 1.241e-5
-1.571, 1.248e-5
-1.572, 1.256e-5
-1.573, 1.263e-5
-1.574, 1.270e-5
-1.575, 1.277e-5
-1.576, 1.284e-5
-1.577, 1.292e-5
-1.578, 1.300e-5
-1.579, 1.307e-5
-1.580, 1.315e-5
-1.581, 1.324e-5
-1.582, 1.333e-5
-1.583, 1.342e-5
-1.584, 1.351e-5
-1.585, 1.360e-5
-1.586, 1.369e-5
-1.587, 1.378e-5
-1.588, 1.388e-5
-1.589, 1.398e-5
-1.590, 1.407e-5
-1.591, 1.416e-5
-1.592, 1.425e-5
-1.593, 1.436e-5
-1.594, 1.446e-5
-1.595, 1.456e-5
-1.596, 1.466e-5
-1.597, 1.477e-5
-1.598, 1.488e-5
-1.599, 1.500e-5
-1.600, 1.511e-5
-1.601, 1.523e-5
-1.602, 1.535e-5
-1.603, 1.547e-5
-1.604, 1.559e-5
-1.605, 1.573e-5
-1.606, 1.586e-5
-1.607, 1.601e-5
-1.608, 1.614e-5
-1.609, 1.628e-5
-1.610, 1.641e-5
-1.611, 1.656e-5
-1.612, 1.671e-5
-1.613, 1.685e-5
-1.614, 1.700e-5
-1.615, 1.716e-5
-1.616, 1.732e-5
-1.617, 1.748e-5
-1.618, 1.765e-5
-1.619, 1.782e-5
-1.620, 1.798e-5
-1.621, 1.814e-5
-1.622, 1.832e-5
-1.623, 1.849e-5
-1.624, 1.868e-5
-1.625, 1.887e-5
-1.626, 1.906e-5
-1.627, 1.924e-5
-1.628, 1.944e-5
-1.629, 1.965e-5
-1.630, 1.986e-5
-1.631, 2.005e-5
-1.632, 2.027e-5
-1.633, 2.048e-5
-1.634, 2.070e-5
-1.635, 2.093e-5
-1.636, 2.116e-5
-1.637, 2.138e-5
-1.638, 2.163e-5
-1.639, 2.188e-5
-1.640, 2.211e-5
-1.641, 2.236e-5
-1.642, 2.261e-5
-1.643, 2.288e-5
-1.644, 2.314e-5
-1.645, 2.341e-5
-1.646, 2.367e-5
-1.647, 2.396e-5
-1.648, 2.424e-5
-1.649, 2.453e-5
-1.650, 2.483e-5
-1.651, 2.512e-5
-1.652, 2.541e-5
-1.653, 2.572e-5
-1.654, 2.603e-5
-1.655, 2.634e-5
-1.656, 2.666e-5
-1.657, 2.701e-5
-1.658, 2.735e-5
-1.659, 2.769e-5
-1.660, 2.803e-5
-1.661, 2.839e-5
-1.662, 2.875e-5
-1.663, 2.911e-5
-1.664, 2.949e-5
-1.665, 2.989e-5
-1.666, 3.027e-5
-1.667, 3.066e-5
-1.668, 3.105e-5
-1.669, 3.144e-5
-1.670, 3.185e-5
-1.671, 3.228e-5
-1.672, 3.270e-5
-1.673, 3.313e-5
-1.674, 3.357e-5
-1.675, 3.400e-5
-1.676, 3.445e-5
-1.677, 3.493e-5
-1.678, 3.539e-5
-1.679, 3.585e-5
-1.680, 3.633e-5
-1.681, 3.683e-5
-1.682, 3.732e-5
-1.683, 3.782e-5
-1.684, 3.833e-5
-1.685, 3.885e-5
-1.686, 3.939e-5
-1.687, 3.993e-5
-1.688, 4.045e-5
-1.689, 4.100e-5
-1.690, 4.158e-5
-1.691, 4.215e-5
-1.692, 4.272e-5
-1.693, 4.329e-5
-1.694, 4.386e-5
-1.695, 4.446e-5
-1.696, 4.506e-5
-1.697, 4.569e-5
-1.698, 4.632e-5
-1.699, 4.696e-5
-1.700, 4.761e-5
-1.701, 4.827e-5
-1.702, 4.894e-5
-1.703, 4.960e-5
-1.704, 5.027e-5
-1.705, 5.092e-5
-1.706, 5.160e-5
-1.707, 5.231e-5
-1.708, 5.302e-5
-1.709, 5.372e-5
-1.710, 5.444e-5
-1.711, 5.516e-5
-1.712, 5.591e-5
-1.713, 5.666e-5
-1.714, 5.744e-5
-1.715, 5.823e-5
-1.716, 5.900e-5
-1.717, 5.978e-5
-1.718, 6.058e-5
-1.719, 6.139e-5
-1.720, 6.219e-5
-1.721, 6.302e-5
-1.722, 6.387e-5
-1.723, 6.472e-5
-1.724, 6.558e-5
-1.725, 6.646e-5
-1.726, 6.735e-5
-1.727, 6.824e-5
-1.728, 6.913e-5
-1.729, 7.002e-5
-1.730, 7.091e-5
-1.731, 7.183e-5
-1.732, 7.276e-5
-1.733, 7.371e-5
-1.734, 7.469e-5
-1.735, 7.564e-5
-1.736, 7.660e-5
-1.737, 7.760e-5
-1.738, 7.859e-5
-1.739, 7.964e-5
-1.740, 8.077e-5
-1.741, 8.190e-5
-1.742, 8.291e-5
-1.743, 8.392e-5
-1.744, 8.493e-5
-1.745, 8.603e-5
-1.746, 8.710e-5
-1.747, 8.798e-5
-1.748, 8.904e-5
-1.749, 9.013e-5
-1.750, 9.121e-5
-1.751, 9.232e-5
-1.752, 9.340e-5
-1.753, 9.451e-5
-1.754, 9.564e-5
-1.755, 9.683e-5
-1.756, 9.803e-5
-1.757, 9.921e-5
-1.758, 1.004e-4
-1.759, 1.016e-4
-1.760, 1.029e-4
-1.761, 1.041e-4
-1.762, 1.054e-4
-1.763, 1.067e-4
-1.764, 1.079e-4
-1.765, 1.092e-4
-1.766, 1.105e-4
-1.767, 1.118e-4
-1.768, 1.131e-4
-1.769, 1.144e-4
-1.770, 1.157e-4
-1.771, 1.170e-4
-1.772, 1.184e-4
-1.773, 1.197e-4
-1.774, 1.211e-4
-1.775, 1.225e-4
-1.776, 1.239e-4
-1.777, 1.253e-4
-1.778, 1.267e-4
-1.779, 1.282e-4
-1.780, 1.296e-4
-1.781, 1.311e-4
-1.782, 1.326e-4
-1.783, 1.340e-4
-1.784, 1.355e-4
-1.785, 1.370e-4
-1.786, 1.385e-4
-1.787, 1.401e-4
-1.788, 1.416e-4
-1.789, 1.432e-4
-1.790, 1.448e-4
-1.791, 1.465e-4
-1.792, 1.481e-4
-1.793, 1.497e-4
-1.794, 1.514e-4
-1.795, 1.530e-4
-1.796, 1.547e-4
-1.797, 1.564e-4
-1.798, 1.581e-4
-1.799, 1.598e-4
-1.800, 1.616e-4
-1.801, 1.634e-4
-1.802, 1.651e-4
-1.803, 1.669e-4
-1.804, 1.687e-4
-1.805, 1.705e-4
-1.806, 1.726e-4
-1.807, 1.746e-4
-1.808, 1.765e-4
-1.809, 1.784e-4
-1.810, 1.803e-4
-1.811, 1.822e-4
-1.812, 1.841e-4
-1.813, 1.861e-4
-1.814, 1.881e-4
-1.815, 1.902e-4
-1.816, 1.922e-4
-1.817, 1.943e-4
-1.818, 1.964e-4
-1.819, 1.985e-4
-1.820, 2.006e-4
-1.821, 2.028e-4
-1.822, 2.050e-4
-1.823, 2.073e-4
-1.824, 2.095e-4
-1.825, 2.117e-4
-1.826, 2.140e-4
-1.827, 2.164e-4
-1.828, 2.188e-4
-1.829, 2.211e-4
-1.830, 2.235e-4
-1.831, 2.258e-4
-1.832, 2.282e-4
-1.833, 2.305e-4
-1.834, 2.329e-4
-1.835, 2.354e-4
-1.836, 2.379e-4
-1.837, 2.404e-4
-1.838, 2.429e-4
-1.839, 2.454e-4
-1.840, 2.480e-4
-1.841, 2.505e-4
-1.842, 2.531e-4
-1.843, 2.558e-4
-1.844, 2.584e-4
-1.845, 2.611e-4
-1.846, 2.638e-4
-1.847, 2.665e-4
-1.848, 2.693e-4
-1.849, 2.720e-4
-1.850, 2.748e-4
-1.851, 2.776e-4
-1.852, 2.804e-4
-1.853, 2.833e-4
-1.854, 2.862e-4
-1.855, 2.891e-4
-1.856, 2.920e-4
-1.857, 2.949e-4
-1.858, 2.979e-4
-1.859, 3.010e-4
-1.860, 3.040e-4
-1.861, 3.071e-4
-1.862, 3.101e-4
-1.863, 3.132e-4
-1.864, 3.163e-4
-1.865, 3.194e-4
-1.866, 3.226e-4
-1.867, 3.258e-4
-1.868, 3.289e-4
-1.869, 3.321e-4
-1.870, 3.354e-4
-1.871, 3.386e-4
-1.872, 3.419e-4
-1.873, 3.452e-4
-1.874, 3.485e-4
-1.875, 3.519e-4
-1.876, 3.553e-4
-1.877, 3.586e-4
-1.878, 3.620e-4
-1.879, 3.655e-4
-1.880, 3.690e-4
-1.881, 3.725e-4
-1.882, 3.760e-4
-1.883, 3.796e-4
-1.884, 3.831e-4
-1.885, 3.868e-4
-1.886, 3.904e-4
-1.887, 3.939e-4
-1.888, 3.975e-4
-1.889, 4.011e-4
-1.890, 4.048e-4
-1.891, 4.084e-4
-1.892, 4.120e-4
-1.893, 4.158e-4
-1.894, 4.195e-4
-1.895, 4.232e-4
-1.896, 4.269e-4
-1.897, 4.306e-4
-1.898, 4.344e-4
-1.899, 4.382e-4
-1.900, 4.421e-4
-1.901, 4.458e-4
-1.902, 4.497e-4
-1.903, 4.535e-4
-1.904, 4.575e-4
-1.905, 4.614e-4
-1.906, 4.654e-4
-1.907, 4.693e-4
-1.908, 4.733e-4
-1.909, 4.773e-4
-1.910, 4.814e-4
-1.911, 4.855e-4
-1.912, 4.896e-4
-1.913, 4.937e-4
-1.914, 4.979e-4
-1.915, 5.021e-4
-1.916, 5.063e-4
-1.917, 5.106e-4
-1.918, 5.149e-4
-1.919, 5.189e-4
-1.920, 5.230e-4
-1.921, 5.274e-4
-1.922, 5.318e-4
-1.923, 5.360e-4
-1.924, 5.403e-4
-1.925, 5.443e-4
-1.926, 5.485e-4
-1.927, 5.529e-4
-1.928, 5.572e-4
-1.929, 5.612e-4
-1.930, 5.652e-4
-1.931, 5.695e-4
-1.932, 5.738e-4
-1.933, 5.784e-4
-1.934, 5.828e-4
-1.935, 5.872e-4
-1.936, 5.919e-4
-1.937, 5.966e-4
-1.938, 6.012e-4
-1.939, 6.057e-4
-1.940, 6.102e-4
-1.941, 6.148e-4
-1.942, 6.196e-4
-1.943, 6.243e-4
-1.944, 6.290e-4
-1.945, 6.337e-4
-1.946, 6.384e-4
-1.947, 6.430e-4
-1.948, 6.477e-4
-1.949, 6.525e-4
-1.950, 6.574e-4
-1.951, 6.620e-4
-1.952, 6.667e-4
-1.953, 6.714e-4
-1.954, 6.762e-4
-1.955, 6.809e-4
-1.956, 6.856e-4
-1.957, 6.905e-4
-1.958, 6.954e-4
-1.959, 7.003e-4
-1.960, 7.052e-4
-1.961, 7.101e-4
-1.962, 7.151e-4
-1.963, 7.202e-4
-1.964, 7.250e-4
-1.965, 7.297e-4
-1.966, 7.347e-4
-1.967, 7.399e-4
-1.968, 7.450e-4
-1.969, 7.500e-4
-1.970, 7.552e-4
-1.971, 7.605e-4
-1.972, 7.658e-4
-1.973, 7.711e-4
-1.974, 7.762e-4
-1.975, 7.812e-4
-1.976, 7.863e-4
-1.977, 7.918e-4
-1.978, 7.973e-4
-1.979, 8.027e-4
-1.980, 8.080e-4
-1.981, 8.134e-4
-1.982, 8.185e-4
-1.983, 8.238e-4
-1.984, 8.291e-4
-1.985, 8.346e-4
-1.986, 8.400e-4
-1.987, 8.453e-4
-1.988, 8.507e-4
-1.989, 8.560e-4
-1.990, 8.614e-4
-1.991, 8.668e-4
-1.992, 8.723e-4
-1.993, 8.777e-4
-1.994, 8.830e-4
-1.995, 8.885e-4
-1.996, 8.939e-4
-1.997, 8.993e-4
-1.998, 9.048e-4
-1.999, 9.100e-4
-2.000, 9.152e-4
-2.001, 9.207e-4
-2.002, 9.263e-4
-2.003, 9.318e-4
-2.004, 9.374e-4
-2.005, 9.428e-4
-2.006, 9.482e-4
-2.007, 9.537e-4
-2.008, 9.595e-4
-2.009, 9.654e-4
-2.010, 9.716e-4
-2.011, 9.792e-4
-2.012, 9.875e-4
-2.013, 9.941e-4
-2.014, 1.001e-3
-2.015, 1.007e-3
-2.016, 1.011e-3
-2.017, 1.011e-3
-2.018, 1.011e-3
-2.019, 1.011e-3
-2.020, 1.011e-3
-2.021, 1.011e-3
-2.022, 1.011e-3
-2.023, 1.011e-3
-2.024, 1.011e-3
-2.025, 1.011e-3
-2.026, 1.011e-3
-2.027, 1.011e-3
-2.028, 1.011e-3
-2.029, 1.011e-3
-2.030, 1.011e-3
-2.031, 1.011e-3
-2.032, 1.011e-3
-2.033, 1.011e-3
-2.034, 1.011e-3
-2.035, 1.011e-3
-2.036, 1.011e-3
-2.037, 1.011e-3
-2.038, 1.011e-3
-2.039, 1.011e-3
-2.040, 1.011e-3
-2.041, 1.011e-3
-2.042, 1.011e-3
-2.043, 1.011e-3
-2.044, 1.011e-3
-2.045, 1.011e-3
-2.046, 1.011e-3
-2.047, 1.011e-3
-2.048, 1.011e-3
-2.049, 1.011e-3
-2.050, 1.011e-3
-2.051, 1.011e-3
-2.052, 1.011e-3
-2.053, 1.011e-3
-2.054, 1.011e-3
-2.055, 1.011e-3
-2.056, 1.011e-3
-2.057, 1.011e-3
-2.058, 1.011e-3
-2.059, 1.011e-3
-2.060, 1.011e-3
-2.061, 1.011e-3
-2.062, 1.011e-3
-2.063, 1.011e-3
-2.064, 1.011e-3
-2.065, 1.011e-3
-2.066, 1.011e-3
-2.067, 1.011e-3
-2.068, 1.011e-3
-2.069, 1.011e-3
-2.070, 1.011e-3
-2.071, 1.011e-3
-2.072, 1.011e-3
-2.073, 1.011e-3
-2.074, 1.011e-3
-2.075, 1.011e-3
-2.076, 1.011e-3
-2.077, 1.011e-3
-2.078, 1.011e-3
-2.079, 1.011e-3
-2.080, 1.011e-3
-2.081, 1.011e-3
-2.082, 1.011e-3
-2.083, 1.011e-3
-2.084, 1.011e-3
-2.085, 1.011e-3
-2.086, 1.011e-3
-2.087, 1.011e-3
-2.088, 1.011e-3
-2.089, 1.011e-3
-2.090, 1.011e-3
-2.091, 1.011e-3
-2.092, 1.011e-3
-2.093, 1.011e-3
-2.094, 1.011e-3
-2.095, 1.011e-3
-2.096, 1.011e-3
-2.097, 1.011e-3
-2.098, 1.011e-3
-2.099, 1.011e-3
