Potential V vs RHE, Current mA cm-2
0.05339999999999995,2.5988246578520724
0.05239999999999995,2.4587682391654337
0.051399999999999946,2.283344037982169
0.050399999999999945,2.124896372397285
0.049399999999999944,1.9848399537106465
0.04839999999999994,1.8589306480226582
0.04739999999999994,1.7415096101338603
0.04639999999999994,1.6339915513441174
0.04539999999999994,1.5307176264539697
0.04439999999999994,1.4345172580631471
0.04339999999999994,1.3438342637417984
0.04239999999999994,1.256405105410139
0.04139999999999994,1.1725127253281424
0.040399999999999936,1.0911668255859028
0.039399999999999935,1.0132162329633392
0.038399999999999934,0.9378121206805329
0.03739999999999993,0.8643886042175374
0.03639999999999993,0.7937945103542721
0.03539999999999993,0.7256054257007774
0.03439999999999993,0.6589725234771341
0.03339999999999993,0.594886101593248
0.03239999999999993,0.5317899776192673
0.03139999999999993,0.47025003607513816
0.030399999999999927,0.40998333470088766
0.029399999999999926,0.35169722914644813
0.028399999999999925,0.29539171941181963
0.027399999999999924,0.2399350364571102
0.026399999999999924,0.1846198246323873
0.025399999999999923,0.13088908946351321
0.024399999999999922,0.0791530972274488
0.02339999999999992,0.029058170099227856
0.02239999999999992,-0.020612343639033585
0.02139999999999992,-0.07026871026429637
0.020399999999999918,-0.11845377713769951
0.019399999999999917,-0.16467239530429026
0.018399999999999916,-0.21008462802995795
0.017399999999999916,-0.25535538962563914
0.016399999999999915,-0.2999187955713878
0.015399999999999914,-0.34391631699719044
0.014399999999999913,-0.386499127123128
0.013399999999999912,-0.42865752385910616
0.012399999999999911,-0.4692597381652327
0.01139999999999991,-0.5094375390813997
0.01039999999999991,-0.5498982822575398
0.009399999999999908,-0.5888028430038282
0.008399999999999908,-0.6267171058402112
0.007399999999999907,-0.6640654841566482
0.006399999999999906,-0.7018382758630447
0.005399999999999905,-0.7384792985295492
0.004399999999999904,-0.774130023286148
0.003399999999999903,-0.8092148635228009
0.002399999999999902,-0.8442997037594538
0.0013999999999999013,-0.8792430728661204
0.00039999999999990044,-0.9139034997128136
-0.0006000000000001005,-0.9470077441296556
-0.0016000000000001013,-0.978838748376619
-0.0026000000000001022,-1.0116600505334876
-0.003600000000000103,-1.0437739970404243
-0.004600000000000104,-1.0758879435473605
-0.005600000000000105,-1.1074360055343508
-0.006600000000000106,-1.137852298481449
-0.007600000000000107,-1.1682685914285473
-0.008600000000000108,-1.1985434132456592
-0.009600000000000108,-1.228535292802798
-0.01060000000000011,-1.2581027589699771
-0.01160000000000011,-1.286962869487224
-0.012600000000000111,-1.3169547490443627
-0.013600000000000112,-1.3466636863415284
-0.014600000000000113,-1.3748164412088428
-0.015600000000000114,-1.4022618404262244
-0.016600000000000115,-1.4288584128636872
-0.017600000000000116,-1.4557379275611226
-0.018600000000000116,-1.4840321535584236
-0.019600000000000117,-1.510911668255859
-0.020600000000000118,-1.5377911829532949
-0.02160000000000012,-1.5646706976507305
-0.02260000000000012,-1.5901355010483011
-0.02360000000000012,-1.6156003044458718
-0.024600000000000122,-1.6424798191433077
-0.025600000000000123,-1.6679446225408785
-0.026600000000000124,-1.693409425938449
-0.027600000000000124,-1.7188742293360195
-0.028600000000000125,-1.7429243214337253
-0.029600000000000126,-1.769803836131161
-0.030600000000000127,-1.7938539282288664
-0.03160000000000013,-1.8179040203265722
-0.03260000000000013,-1.8419541124242775
-0.03360000000000013,-1.8674189158218486
-0.03460000000000002,-1.892883719219419
-0.03560000000000002,-1.9169338113171246
-0.03660000000000002,-1.9395691921149654
-0.03760000000000002,-1.9650339955125358
-0.03860000000000002,-1.9890840876102414
-0.039600000000000024,-2.013134179707947
-0.040600000000000025,-2.0371842718056525
-0.041600000000000026,-2.0598196526034935
-0.04260000000000003,-2.083869744701199
-0.04360000000000003,-2.1079198367989047
-0.04460000000000003,-2.13196992889661
-0.04560000000000003,-2.1546053096944506
-0.04660000000000003,-2.177240690492291
-0.04760000000000003,-2.201290782589997
-0.04860000000000003,-2.225340874687703
-0.04960000000000003,-2.249390966785408
-0.050600000000000034,-2.273441058883114
-0.051600000000000035,-2.296076439680954
-0.052600000000000036,-2.318711820478795
-0.053600000000000037,-2.3427619125765005
-0.05460000000000004,-2.3668120046742067
-0.05560000000000004,-2.3908620967719116
-0.05660000000000004,-2.4134974775697526
-0.05760000000000004,-2.436132858367593
-0.05860000000000004,-2.461597661765164
-0.05960000000000004,-2.4842330425630044
-0.06060000000000004,-2.50828313466071
-0.061600000000000044,-2.532333226758415
-0.06260000000000004,-2.554968607556256
-0.06360000000000005,-2.5804334109538267
-0.06460000000000005,-2.6044835030515325
-0.06560000000000005,-2.6285335951492383
-0.06660000000000005,-2.6511689759470785
-0.06760000000000005,-2.6752190680447843
-0.06860000000000005,-2.700683871442355
-0.06960000000000005,-2.7247339635400607
-0.07060000000000005,-2.7487840556377665
-0.07160000000000005,-2.772834147735472
-0.07260000000000005,-2.798298951133043
-0.07360000000000005,-2.823763754530613
-0.07460000000000006,-2.8492285579281837
-0.07560000000000006,-2.8732786500258896
-0.07660000000000006,-2.897328742123595
-0.07760000000000006,-2.924208256821031
-0.07860000000000006,-2.949673060218602
-0.07960000000000006,-2.975137863616172
-0.08060000000000006,-3.000602667013743
-0.08160000000000006,-3.0260674704113137
-0.08260000000000006,-3.0529469851087487
-0.08360000000000006,-3.07841178850632
-0.08460000000000006,-3.1052913032037557
-0.08560000000000006,-3.1321708179011907
-0.08660000000000007,-3.1576356212987617
-0.08760000000000007,-3.1845151359961976
-0.08860000000000007,-3.211394650693633
-0.08960000000000007,-3.2396888766909337
-0.09060000000000007,-3.267983102688235
-0.09160000000000007,-3.2948626173856703
-0.09260000000000007,-3.321742132083106
-0.09360000000000007,-3.3500363580804073
-0.09460000000000007,-3.3783305840777076
-0.09560000000000007,-3.4066248100750083
-0.09660000000000007,-3.4335043247724437
-0.09760000000000008,-3.4617985507697444
-0.09860000000000008,-3.492922199366775
-0.09960000000000008,-3.5212164253640763
-0.10060000000000008,-3.550925362661242
-0.10160000000000008,-3.580634299958408
-0.10260000000000008,-3.608928525955709
-0.10360000000000008,-3.6400521745527397
-0.10460000000000008,-3.669761111849905
-0.10560000000000008,-3.699470049147071
-0.10660000000000008,-3.7291789864442366
-0.10760000000000008,-3.7603026350412674
-0.10860000000000009,-3.791426283638298
-0.10960000000000009,-3.823964643535194
-0.11060000000000009,-3.85367358083236
-0.11160000000000009,-3.884797229429391
-0.11260000000000009,-3.915920878026421
-0.11360000000000009,-3.9484592379233177
-0.11460000000000009,-3.982412309120079
-0.11560000000000009,-4.014950669016974
-0.11660000000000009,-4.04748902891387
-0.1176000000000001,-4.078612677510901
-0.1186000000000001,-4.112565748707662
-0.1196000000000001,-4.146518819904423
-0.1206000000000001,-4.179057179801319
-0.1216000000000001,-4.211595539698214
-0.1226000000000001,-4.245548610894974
-0.1236000000000001,-4.279501682091736
-0.1246000000000001,-4.313454753288497
-0.1256000000000001,-4.347407824485257
-0.1266000000000001,-4.381360895682018
-0.1276000000000001,-4.415313966878779
-0.1286000000000001,-4.450681749375406
-0.1296000000000001,-4.486049531872031
-0.1306000000000001,-4.521417314368658
-0.1316000000000001,-4.555370385565419
-0.1326000000000001,-4.590738168062044
-0.1336000000000001,-4.627520661858535
-0.1346000000000001,-4.66288844435516
-0.1356000000000001,-4.698256226851787
-0.1366000000000001,-4.735038720648277
-0.1376000000000001,-4.770406503144904
-0.1386000000000001,-4.807188996941395
-0.1396000000000001,-4.843971490737885
-0.1406000000000001,-4.880753984534377
-0.14160000000000011,-4.9175364783308675
-0.14260000000000012,-4.954318972127359
-0.14360000000000012,-4.992516177223715
-0.14460000000000012,-5.0292986710202054
-0.14560000000000012,-5.066081164816696
-0.14660000000000012,-5.104278369913052
-0.14760000000000012,-5.141060863709543
-0.14860000000000012,-5.1792580688059
-0.14960000000000012,-5.217455273902255
-0.15060000000000012,-5.255652478998611
-0.15160000000000012,-5.293849684094967
-0.15260000000000012,-5.332046889191323
-0.15360000000000013,-5.3702440942876795
-0.15460000000000013,-5.409856010683901
-0.15560000000000013,-5.448053215780256
-0.15660000000000013,-5.484835709576747
-0.15760000000000013,-5.524447625972968
-0.15860000000000013,-5.562644831069325
-0.15960000000000002,-5.602256747465545
-0.16060000000000002,-5.641868663861766
-0.16160000000000002,-5.680065868958122
-0.16260000000000002,-5.719677785354343
-0.16360000000000002,-5.757874990450699
-0.16460000000000002,-5.7974869068469195
-0.16560000000000002,-5.838513534543006
-0.16660000000000003,-5.880954873538958
-0.16760000000000003,-5.920566789935179
-0.16860000000000003,-5.9601787063314
-0.16960000000000003,-5.998375911427756
-0.17060000000000003,-6.037987827823977
-0.17160000000000003,-6.076185032920332
-0.17260000000000003,-6.115796949316553
-0.17360000000000003,-6.155408865712774
-0.17460000000000003,-6.195020782108996
-0.17560000000000003,-6.234632698505217
-0.17660000000000003,-6.272829903601573
-0.17760000000000004,-6.312441819997794
-0.17860000000000004,-6.352053736394015
-0.17960000000000004,-6.391665652790236
-0.18060000000000004,-6.431277569186457
-0.18160000000000004,-6.469474774282813
-0.18260000000000004,-6.507671979379168
-0.18360000000000004,-6.54728389577539
-0.18460000000000004,-6.588310523471475
-0.18560000000000004,-6.626507728567832
-0.18660000000000004,-6.666119644964053
-0.18760000000000004,-6.704316850060409
-0.18860000000000005,-6.74392876645663
-0.18960000000000005,-6.783540682852851
-0.19060000000000005,-6.821737887949207
-0.19160000000000005,-6.859935093045563
-0.19260000000000005,-6.899547009441784
-0.19360000000000005,-6.93774421453814
-0.19460000000000005,-6.977356130934361
-0.19560000000000005,-7.015553336030716
-0.19660000000000005,-7.052335829827209
-0.19760000000000005,-7.090533034923564
-0.19860000000000005,-7.130144951319785
-0.19960000000000006,-7.1683421564161405
-0.20060000000000006,-7.205124650212632
-0.20160000000000006,-7.241907144009123
-0.20260000000000006,-7.280104349105479
-0.20360000000000006,-7.3183015542018355
-0.20460000000000006,-7.355084047998325
-0.20560000000000006,-7.391866541794816
-0.20660000000000006,-7.428649035591308
-0.20760000000000006,-7.465431529387798
-0.20860000000000006,-7.50221402318429
-0.20960000000000006,-7.53899651698078
-0.21060000000000006,-7.575779010777271
-0.21160000000000007,-7.611146793273897
-0.21260000000000007,-7.646514575770523
-0.21360000000000007,-7.683297069567015
-0.21460000000000007,-7.7186648520636405
-0.21560000000000007,-7.754032634560266
-0.21660000000000007,-7.787985705757026
-0.21760000000000007,-7.824768199553517
-0.21860000000000007,-7.860135982050143
-0.21960000000000007,-7.894089053246905
-0.22060000000000007,-7.928042124443665
-0.22160000000000007,-7.960580484340561
-0.22260000000000008,-7.9945335555373225
-0.22360000000000008,-8.028486626734082
-0.22460000000000008,-8.062439697930845
-0.22560000000000008,-8.093563346527874
-0.22660000000000008,-8.124686995124907
-0.22760000000000008,-8.157225355021803
-0.22860000000000008,-8.189763714918698
-0.22960000000000008,-8.222302074815595
-0.23060000000000008,-8.252011012112758
-0.23160000000000008,-8.28313466070979
-0.23260000000000008,-8.31425830930682
-0.23360000000000009,-8.343967246603986
-0.2346000000000001,-8.375090895201017
-0.2356000000000001,-8.404799832498183
-0.2366000000000001,-8.433094058495483
-0.2376000000000001,-8.46280299579265
-0.2386000000000001,-8.492511933089816
-0.2396000000000001,-8.520806159087115
-0.2406000000000001,-8.549100385084417
-0.2416000000000001,-8.575979899781853
-0.2426000000000001,-8.602859414479289
-0.2436000000000001,-8.631153640476589
-0.2446000000000001,-8.658033155174026
-0.2456000000000001,-8.683497958571595
-0.2466000000000001,-8.708962761969165
-0.2476000000000001,-8.734427565366737
-0.2486000000000001,-8.761307080064174
-0.2496000000000001,-8.785357172161877
-0.2506000000000001,-8.809407264259583
-0.2516000000000001,-8.833457356357288
-0.2526000000000001,-8.85609273715513
-0.2536000000000001,-8.8815575405527
-0.2546000000000001,-8.905607632650405
-0.2556000000000001,-8.926828302148381
-0.2566000000000001,-8.949463682946222
-0.2576000000000001,-8.970684352444197
-0.2586000000000001,-8.991905021942173
-0.2596000000000001,-9.013125691440148
-0.2606000000000001,-9.034346360938125
-0.2616000000000001,-9.054152319136236
-0.2626000000000001,-9.073958277334345
-0.2636000000000001,-9.09517894683232
-0.2646000000000001,-9.11498490503043
-0.2656000000000001,-9.133376151928676
-0.2666000000000001,-9.150352687527057
-0.2676000000000001,-9.168743934425303
-0.2686000000000001,-9.188549892623413
-0.2696000000000001,-9.206941139521659
-0.2706000000000001,-9.22391767512004
-0.2716000000000001,-9.239479499418556
-0.2726000000000001,-9.256456035016935
-0.2736000000000001,-9.273432570615316
-0.2746000000000001,-9.290409106213696
-0.2756000000000001,-9.305970930512213
-0.2766000000000001,-9.32011804351086
-0.2776000000000001,-9.335679867809377
-0.2786000000000001,-9.351241692107893
-0.2796000000000001,-9.366803516406407
-0.2806000000000001,-9.380950629405058
-0.28160000000000013,-9.39509774240371
-0.28260000000000013,-9.40924485540236
-0.28360000000000013,-9.423391968401008
-0.2846,-9.43753908139966
-0.2856,-9.451686194398311
-0.2866,-9.464418596097095
-0.2876,-9.477150997795881
-0.2886,-9.492712822094397
-0.2896,-9.505445223793181
-0.2906,-9.518177625491967
-0.2916,-9.530910027190751
-0.2926,-9.543642428889537
-0.2936,-9.557789541888187
-0.29460000000000003,-9.570521943586973
-0.29560000000000003,-9.583254345285757
-0.29660000000000003,-9.595986746984543
-0.29760000000000003,-9.60871914868333
-0.29860000000000003,-9.622866261681981
-0.29960000000000003,-9.635598663380765
-0.30060000000000003,-9.648331065079551
-0.30160000000000003,-9.661063466778335
-0.30260000000000004,-9.673795868477121
-0.30360000000000004,-9.68794298147577
-0.30460000000000004,-9.702090094474421
-0.30560000000000004,-9.714822496173207
-0.30660000000000004,-9.728969609171857
-0.30760000000000004,-9.743116722170507
-0.30860000000000004,-9.757263835169159
-0.30960000000000004,-9.772825659467674
-0.31060000000000004,-9.785558061166459
-0.31160000000000004,-9.799705174165108
-0.31260000000000004,-9.815266998463624
-0.31360000000000005,-9.830828822762141
-0.31460000000000005,-9.846390647060655
-0.31560000000000005,-9.86195247135917
-0.31660000000000005,-9.876099584357823
-0.31760000000000005,-9.893076119956202
-0.31860000000000005,-9.911467366854446
-0.31960000000000005,-9.929858613752693
-0.32060000000000005,-9.946835149351072
-0.32160000000000005,-9.962396973649588
-0.32260000000000005,-9.980788220547833
-0.32360000000000005,-9.997764756146214
-0.32460000000000006,-10.01615600304446
-0.32560000000000006,-10.034547249942705
-0.32660000000000006,-10.051523785541084
-0.32760000000000006,-10.071329743739195
-0.32860000000000006,-10.091135701937308
-0.32960000000000006,-10.110941660135417
-0.33060000000000006,-10.130747618333528
-0.33160000000000006,-10.150553576531639
-0.33260000000000006,-10.170359534729748
-0.33360000000000006,-10.19299491552759
-0.33460000000000006,-10.214215585025565
-0.33560000000000006,-10.23543625452354
-0.33660000000000007,-10.256656924021515
-0.33760000000000007,-10.277877593519491
-0.33860000000000007,-10.301927685617198
-0.33960000000000007,-10.325977777714902
-0.34060000000000007,-10.348613158512745
-0.34160000000000007,-10.372663250610449
-0.34260000000000007,-10.396713342708155
-0.34360000000000007,-10.422178146105725
-0.3446000000000001,-10.447642949503296
-0.3456000000000001,-10.471693041601002
-0.3466000000000001,-10.497157844998572
-0.34759999999999996,-10.52403735969601
-0.3486000000000001,-10.549502163093578
-0.34959999999999997,-10.576381677791014
-0.3506000000000001,-10.60326119248845
-0.35159999999999997,-10.630140707185886
-0.3526000000000001,-10.658434933183187
-0.35359999999999997,-10.686729159180487
-0.3546000000000001,-10.716438096477654
-0.35559999999999997,-10.744732322474952
-0.3566000000000001,-10.773026548472256
-0.3576,-10.80273548576942
-0.3586000000000001,-10.833859134366449
-0.3596,-10.863568071663616
-0.3606000000000001,-10.894691720260647
-0.3616,-10.924400657557813
-0.3626000000000001,-10.95693901745471
-0.3636,-10.98806266605174
-0.3646000000000001,-11.020601025948634
-0.3656,-11.053139385845531
-0.3666000000000001,-11.085677745742426
-0.3676,-11.118216105639322
-0.3686000000000001,-11.153583888135948
-0.3696,-11.18753695933271
-0.3706000000000001,-11.222904741829336
-0.3716,-11.256857813026096
-0.3726000000000001,-11.292225595522723
-0.3736,-11.32759337801935
-0.3746000000000001,-11.362961160515976
-0.3756,-11.399743654312466
-0.3766000000000001,-11.435111436809091
-0.3776,-11.470479219305716
-0.3786000000000001,-11.508676424402074
-0.3796,-11.54687362949843
-0.3806000000000001,-11.583656123294919
-0.3816,-11.621853328391275
-0.3826000000000001,-11.660050533487633
-0.3836,-11.699662449883853
-0.3846000000000001,-11.737859654980209
-0.3856,-11.776056860076565
-0.3866000000000001,-11.815668776472787
-0.3876,-11.855280692869009
-0.3886000000000001,-11.896307320565093
-0.3896,-11.937333948261179
-0.3906000000000001,-11.9769458646574
-0.3916,-12.016557781053622
-0.3926000000000001,-12.058999120049574
-0.3936,-12.10002574774566
-0.3946000000000001,-12.14246708674161
-0.3956,-12.18490842573756
-0.3966000000000001,-12.225935053433647
-0.3976,-12.269791103729462
-0.3986000000000001,-12.31364715402528
-0.3996,-12.35608849302123
-0.4006000000000001,-12.398529832017182
-0.4016,-12.442385882312998
-0.4026000000000001,-12.486241932608813
-0.4036,-12.531512694204494
-0.4046000000000001,-12.576783455800177
-0.4056,-12.62063950609599
-0.40660000000000013,-12.664495556391808
-0.4076,-12.709766317987489
-0.40860000000000013,-12.756451790883034
-0.4096,-12.80313726377858
-0.41060000000000013,-12.848408025374262
-0.4116,-12.893678786969945
-0.41260000000000013,-12.94036425986549
-0.4136,-12.987049732761037
-0.41460000000000014,-13.035149916956447
-0.4156,-13.081835389851994
-0.41660000000000014,-13.128520862747541
-0.4176,-13.175206335643086
-0.41860000000000014,-13.224721231138362
-0.41960000000000003,-13.272821415333775
-0.42060000000000014,-13.31950688822932
-0.42160000000000003,-13.367607072424732
-0.42260000000000014,-13.418536679219873
-0.42360000000000003,-13.468051574715151
-0.42460000000000014,-13.517566470210424
-0.42560000000000003,-13.565666654405838
-0.42660000000000015,-13.615181549901113
-0.42760000000000004,-13.66469644539639
-0.42860000000000015,-13.714211340891666
-0.42960000000000004,-13.763726236386942
-0.43060000000000015,-13.813241131882217
-0.43160000000000004,-13.862756027377493
-0.43260000000000015,-13.913685634172637
-0.43360000000000004,-13.964615240967778
-0.43460000000000015,-14.015544847762918
-0.43560000000000004,-14.06647445455806
-0.43660000000000015,-14.1174040613532
-0.43760000000000004,-14.175407224647667
-0.43860000000000016,-14.217848563643619
-0.43960000000000005,-14.274437015638219
-0.44060000000000016,-14.30273124163552
-0.44160000000000005,-14.30273124163552
-0.44260000000000016,-14.30273124163552
-0.44360000000000005,-14.30273124163552
-0.44460000000000016,-14.30273124163552
-0.44560000000000005,-14.30273124163552
-0.44660000000000016,-14.30273124163552
-0.44760000000000005,-14.30273124163552
-0.44860000000000017,-14.30273124163552
-0.44960000000000006,-14.30273124163552
-0.45060000000000017,-14.30273124163552
-0.45160000000000006,-14.30273124163552
-0.45260000000000017,-14.30273124163552
-0.45360000000000006,-14.30273124163552
-0.45460000000000017,-14.30273124163552
-0.45560000000000006,-14.30273124163552
