Mar. 29, 2025   15:42:05
Cyclic Voltammetry
File: c:/users/guazh/data/banditlqround7_x0exp518_r20/2025-03-28-exp981\exp981-2025-03-29t15_24_17-h2koh\exp981_cv_sr_50mvs_efin_-1800mv.bin
Data Source:  Experiment
Instrument Model:  CHI760E
Header: CV ran at 50 mVs
Note: 

Init E (V) = -1
High E (V) = -1
Low E (V) = -1.8
Final E (V) = -1
Init P/N = N
Scan Rate (V/s) = 0.05
Segment = 3
Sample Interval (V) = 0.001
Quiet Time (sec) = 2
Sensitivity (A/V) = 0.01
Comp R (ohm) = 1.8

Results:

Channel 1:
Segment 1:
Ep = -1.230V
ip = 1.220e-5A
Ah = 1.130e-5C

Segment 2:
Ep = -1.081V
ip = -4.340e-6A
Ah = -3.794e-6C

Segment 3:

Potential/V, Current/A

-1.000, 6.393e-7
-1.001, 1.261e-6
-1.002, 1.290e-6
-1.003, 1.340e-6
-1.004, 1.478e-6
-1.005, 1.498e-6
-1.006, 1.636e-6
-1.007, 1.725e-6
-1.008, 1.725e-6
-1.009, 1.705e-6
-1.010, 1.803e-6
-1.011, 1.912e-6
-1.012, 1.922e-6
-1.013, 1.932e-6
-1.014, 2.011e-6
-1.015, 1.991e-6
-1.016, 2.040e-6
-1.017, 2.080e-6
-1.018, 2.159e-6
-1.019, 2.119e-6
-1.020, 2.070e-6
-1.021, 2.228e-6
-1.022, 2.178e-6
-1.023, 2.218e-6
-1.024, 2.346e-6
-1.025, 2.267e-6
-1.026, 2.425e-6
-1.027, 2.366e-6
-1.028, 2.415e-6
-1.029, 2.425e-6
-1.030, 2.445e-6
-1.031, 2.603e-6
-1.032, 2.494e-6
-1.033, 2.455e-6
-1.034, 2.465e-6
-1.035, 2.445e-6
-1.036, 2.474e-6
-1.037, 2.583e-6
-1.038, 2.622e-6
-1.039, 2.563e-6
-1.040, 2.603e-6
-1.041, 2.613e-6
-1.042, 2.593e-6
-1.043, 2.632e-6
-1.044, 2.632e-6
-1.045, 2.672e-6
-1.046, 2.721e-6
-1.047, 2.662e-6
-1.048, 2.534e-6
-1.049, 2.632e-6
-1.050, 2.691e-6
-1.051, 2.800e-6
-1.052, 2.780e-6
-1.053, 2.711e-6
-1.054, 2.760e-6
-1.055, 2.672e-6
-1.056, 2.869e-6
-1.057, 2.751e-6
-1.058, 2.790e-6
-1.059, 2.810e-6
-1.060, 2.780e-6
-1.061, 2.770e-6
-1.062, 2.869e-6
-1.063, 2.899e-6
-1.064, 2.790e-6
-1.065, 2.800e-6
-1.066, 2.958e-6
-1.067, 2.820e-6
-1.068, 2.800e-6
-1.069, 2.731e-6
-1.070, 2.721e-6
-1.071, 2.918e-6
-1.072, 2.849e-6
-1.073, 2.760e-6
-1.074, 2.780e-6
-1.075, 2.869e-6
-1.076, 2.978e-6
-1.077, 2.938e-6
-1.078, 2.948e-6
-1.079, 2.889e-6
-1.080, 2.879e-6
-1.081, 2.978e-6
-1.082, 2.928e-6
-1.083, 2.908e-6
-1.084, 2.928e-6
-1.085, 2.849e-6
-1.086, 2.948e-6
-1.087, 2.978e-6
-1.088, 2.938e-6
-1.089, 2.889e-6
-1.090, 2.968e-6
-1.091, 3.086e-6
-1.092, 2.997e-6
-1.093, 2.928e-6
-1.094, 2.987e-6
-1.095, 2.968e-6
-1.096, 3.096e-6
-1.097, 3.086e-6
-1.098, 3.086e-6
-1.099, 3.027e-6
-1.100, 3.007e-6
-1.101, 3.145e-6
-1.102, 3.106e-6
-1.103, 3.175e-6
-1.104, 3.145e-6
-1.105, 3.126e-6
-1.106, 3.204e-6
-1.107, 3.135e-6
-1.108, 3.214e-6
-1.109, 3.293e-6
-1.110, 3.254e-6
-1.111, 3.343e-6
-1.112, 3.293e-6
-1.113, 3.224e-6
-1.114, 3.352e-6
-1.115, 3.352e-6
-1.116, 3.431e-6
-1.117, 3.431e-6
-1.118, 3.412e-6
-1.119, 3.392e-6
-1.120, 3.382e-6
-1.121, 3.491e-6
-1.122, 3.343e-6
-1.123, 3.441e-6
-1.124, 3.402e-6
-1.125, 3.412e-6
-1.126, 3.579e-6
-1.127, 3.530e-6
-1.128, 3.678e-6
-1.129, 3.668e-6
-1.130, 3.619e-6
-1.131, 3.777e-6
-1.132, 3.737e-6
-1.133, 3.806e-6
-1.134, 3.856e-6
-1.135, 3.767e-6
-1.136, 3.836e-6
-1.137, 3.757e-6
-1.138, 3.895e-6
-1.139, 3.885e-6
-1.140, 3.954e-6
-1.141, 3.994e-6
-1.142, 4.073e-6
-1.143, 4.013e-6
-1.144, 4.112e-6
-1.145, 4.142e-6
-1.146, 4.231e-6
-1.147, 4.240e-6
-1.148, 4.201e-6
-1.149, 4.369e-6
-1.150, 4.319e-6
-1.151, 4.448e-6
-1.152, 4.467e-6
-1.153, 4.605e-6
-1.154, 4.635e-6
-1.155, 4.605e-6
-1.156, 4.753e-6
-1.157, 4.763e-6
-1.158, 4.734e-6
-1.159, 4.842e-6
-1.160, 4.951e-6
-1.161, 5.089e-6
-1.162, 5.079e-6
-1.163, 5.148e-6
-1.164, 5.257e-6
-1.165, 5.336e-6
-1.166, 5.562e-6
-1.167, 5.592e-6
-1.168, 5.661e-6
-1.169, 5.829e-6
-1.170, 5.927e-6
-1.171, 5.997e-6
-1.172, 6.115e-6
-1.173, 6.135e-6
-1.174, 6.421e-6
-1.175, 6.500e-6
-1.176, 6.746e-6
-1.177, 6.815e-6
-1.178, 7.032e-6
-1.179, 7.131e-6
-1.180, 7.338e-6
-1.181, 7.644e-6
-1.182, 7.753e-6
-1.183, 7.851e-6
-1.184, 8.137e-6
-1.185, 8.315e-6
-1.186, 8.601e-6
-1.187, 8.808e-6
-1.188, 9.045e-6
-1.189, 9.163e-6
-1.190, 9.489e-6
-1.191, 9.844e-6
-1.192, 1.005e-5
-1.193, 1.025e-5
-1.194, 1.058e-5
-1.195, 1.081e-5
-1.196, 1.116e-5
-1.197, 1.141e-5
-1.198, 1.165e-5
-1.199, 1.190e-5
-1.200, 1.217e-5
-1.201, 1.244e-5
-1.202, 1.256e-5
-1.203, 1.287e-5
-1.204, 1.301e-5
-1.205, 1.322e-5
-1.206, 1.343e-5
-1.207, 1.356e-5
-1.208, 1.370e-5
-1.209, 1.384e-5
-1.210, 1.408e-5
-1.211, 1.420e-5
-1.212, 1.433e-5
-1.213, 1.444e-5
-1.214, 1.451e-5
-1.215, 1.464e-5
-1.216, 1.480e-5
-1.217, 1.489e-5
-1.218, 1.498e-5
-1.219, 1.499e-5
-1.220, 1.513e-5
-1.221, 1.523e-5
-1.222, 1.527e-5
-1.223, 1.543e-5
-1.224, 1.540e-5
-1.225, 1.550e-5
-1.226, 1.561e-5
-1.227, 1.554e-5
-1.228, 1.555e-5
-1.229, 1.567e-5
-1.230, 1.572e-5
-1.231, 1.568e-5
-1.232, 1.563e-5
-1.233, 1.563e-5
-1.234, 1.567e-5
-1.235, 1.547e-5
-1.236, 1.550e-5
-1.237, 1.549e-5
-1.238, 1.531e-5
-1.239, 1.526e-5
-1.240, 1.517e-5
-1.241, 1.514e-5
-1.242, 1.511e-5
-1.243, 1.497e-5
-1.244, 1.490e-5
-1.245, 1.480e-5
-1.246, 1.477e-5
-1.247, 1.460e-5
-1.248, 1.452e-5
-1.249, 1.438e-5
-1.250, 1.436e-5
-1.251, 1.423e-5
-1.252, 1.426e-5
-1.253, 1.415e-5
-1.254, 1.389e-5
-1.255, 1.394e-5
-1.256, 1.382e-5
-1.257, 1.372e-5
-1.258, 1.365e-5
-1.259, 1.362e-5
-1.260, 1.359e-5
-1.261, 1.365e-5
-1.262, 1.341e-5
-1.263, 1.333e-5
-1.264, 1.324e-5
-1.265, 1.327e-5
-1.266, 1.328e-5
-1.267, 1.311e-5
-1.268, 1.314e-5
-1.269, 1.308e-5
-1.270, 1.292e-5
-1.271, 1.304e-5
-1.272, 1.293e-5
-1.273, 1.283e-5
-1.274, 1.295e-5
-1.275, 1.286e-5
-1.276, 1.298e-5
-1.277, 1.280e-5
-1.278, 1.284e-5
-1.279, 1.274e-5
-1.280, 1.286e-5
-1.281, 1.301e-5
-1.282, 1.298e-5
-1.283, 1.294e-5
-1.284, 1.293e-5
-1.285, 1.296e-5
-1.286, 1.315e-5
-1.287, 1.306e-5
-1.288, 1.313e-5
-1.289, 1.306e-5
-1.290, 1.322e-5
-1.291, 1.331e-5
-1.292, 1.330e-5
-1.293, 1.335e-5
-1.294, 1.342e-5
-1.295, 1.342e-5
-1.296, 1.350e-5
-1.297, 1.351e-5
-1.298, 1.361e-5
-1.299, 1.376e-5
-1.300, 1.380e-5
-1.301, 1.392e-5
-1.302, 1.405e-5
-1.303, 1.406e-5
-1.304, 1.410e-5
-1.305, 1.423e-5
-1.306, 1.445e-5
-1.307, 1.449e-5
-1.308, 1.461e-5
-1.309, 1.453e-5
-1.310, 1.478e-5
-1.311, 1.485e-5
-1.312, 1.496e-5
-1.313, 1.501e-5
-1.314, 1.521e-5
-1.315, 1.528e-5
-1.316, 1.538e-5
-1.317, 1.547e-5
-1.318, 1.562e-5
-1.319, 1.577e-5
-1.320, 1.584e-5
-1.321, 1.603e-5
-1.322, 1.614e-5
-1.323, 1.625e-5
-1.324, 1.637e-5
-1.325, 1.647e-5
-1.326, 1.678e-5
-1.327, 1.686e-5
-1.328, 1.697e-5
-1.329, 1.700e-5
-1.330, 1.727e-5
-1.331, 1.751e-5
-1.332, 1.766e-5
-1.333, 1.779e-5
-1.334, 1.789e-5
-1.335, 1.812e-5
-1.336, 1.829e-5
-1.337, 1.839e-5
-1.338, 1.868e-5
-1.339, 1.867e-5
-1.340, 1.890e-5
-1.341, 1.917e-5
-1.342, 1.920e-5
-1.343, 1.933e-5
-1.344, 1.953e-5
-1.345, 1.977e-5
-1.346, 1.987e-5
-1.347, 2.010e-5
-1.348, 2.031e-5
-1.349, 2.037e-5
-1.350, 2.063e-5
-1.351, 2.081e-5
-1.352, 2.096e-5
-1.353, 2.101e-5
-1.354, 2.113e-5
-1.355, 2.134e-5
-1.356, 2.156e-5
-1.357, 2.166e-5
-1.358, 2.187e-5
-1.359, 2.194e-5
-1.360, 2.201e-5
-1.361, 2.228e-5
-1.362, 2.235e-5
-1.363, 2.259e-5
-1.364, 2.280e-5
-1.365, 2.289e-5
-1.366, 2.309e-5
-1.367, 2.313e-5
-1.368, 2.320e-5
-1.369, 2.328e-5
-1.370, 2.355e-5
-1.371, 2.376e-5
-1.372, 2.386e-5
-1.373, 2.400e-5
-1.374, 2.406e-5
-1.375, 2.431e-5
-1.376, 2.444e-5
-1.377, 2.452e-5
-1.378, 2.463e-5
-1.379, 2.470e-5
-1.380, 2.486e-5
-1.381, 2.504e-5
-1.382, 2.506e-5
-1.383, 2.526e-5
-1.384, 2.526e-5
-1.385, 2.533e-5
-1.386, 2.557e-5
-1.387, 2.561e-5
-1.388, 2.570e-5
-1.389, 2.568e-5
-1.390, 2.574e-5
-1.391, 2.595e-5
-1.392, 2.582e-5
-1.393, 2.579e-5
-1.394, 2.577e-5
-1.395, 2.593e-5
-1.396, 2.603e-5
-1.397, 2.591e-5
-1.398, 2.598e-5
-1.399, 2.600e-5
-1.400, 2.598e-5
-1.401, 2.618e-5
-1.402, 2.625e-5
-1.403, 2.627e-5
-1.404, 2.630e-5
-1.405, 2.644e-5
-1.406, 2.662e-5
-1.407, 2.673e-5
-1.408, 2.677e-5
-1.409, 2.689e-5
-1.410, 2.707e-5
-1.411, 2.730e-5
-1.412, 2.734e-5
-1.413, 2.746e-5
-1.414, 2.763e-5
-1.415, 2.787e-5
-1.416, 2.815e-5
-1.417, 2.829e-5
-1.418, 2.855e-5
-1.419, 2.871e-5
-1.420, 2.908e-5
-1.421, 2.959e-5
-1.422, 2.988e-5
-1.423, 3.008e-5
-1.424, 3.039e-5
-1.425, 3.092e-5
-1.426, 3.144e-5
-1.427, 3.174e-5
-1.428, 3.211e-5
-1.429, 3.255e-5
-1.430, 3.294e-5
-1.431, 3.360e-5
-1.432, 3.399e-5
-1.433, 3.450e-5
-1.434, 3.506e-5
-1.435, 3.549e-5
-1.436, 3.607e-5
-1.437, 3.654e-5
-1.438, 3.709e-5
-1.439, 3.763e-5
-1.440, 3.825e-5
-1.441, 3.881e-5
-1.442, 3.927e-5
-1.443, 3.978e-5
-1.444, 4.031e-5
-1.445, 4.101e-5
-1.446, 4.163e-5
-1.447, 4.216e-5
-1.448, 4.262e-5
-1.449, 4.316e-5
-1.450, 4.383e-5
-1.451, 4.435e-5
-1.452, 4.474e-5
-1.453, 4.540e-5
-1.454, 4.589e-5
-1.455, 4.651e-5
-1.456, 4.715e-5
-1.457, 4.768e-5
-1.458, 4.804e-5
-1.459, 4.863e-5
-1.460, 4.926e-5
-1.461, 4.977e-5
-1.462, 5.025e-5
-1.463, 5.085e-5
-1.464, 5.137e-5
-1.465, 5.180e-5
-1.466, 5.245e-5
-1.467, 5.275e-5
-1.468, 5.321e-5
-1.469, 5.362e-5
-1.470, 5.410e-5
-1.471, 5.475e-5
-1.472, 5.517e-5
-1.473, 5.557e-5
-1.474, 5.597e-5
-1.475, 5.636e-5
-1.476, 5.674e-5
-1.477, 5.703e-5
-1.478, 5.752e-5
-1.479, 5.788e-5
-1.480, 5.809e-5
-1.481, 5.866e-5
-1.482, 5.887e-5
-1.483, 5.910e-5
-1.484, 5.938e-5
-1.485, 5.980e-5
-1.486, 6.031e-5
-1.487, 6.067e-5
-1.488, 6.088e-5
-1.489, 6.136e-5
-1.490, 6.183e-5
-1.491, 6.223e-5
-1.492, 6.273e-5
-1.493, 6.321e-5
-1.494, 6.378e-5
-1.495, 6.450e-5
-1.496, 6.502e-5
-1.497, 6.560e-5
-1.498, 6.634e-5
-1.499, 6.699e-5
-1.500, 6.772e-5
-1.501, 6.858e-5
-1.502, 6.935e-5
-1.503, 7.012e-5
-1.504, 7.105e-5
-1.505, 7.197e-5
-1.506, 7.290e-5
-1.507, 7.374e-5
-1.508, 7.477e-5
-1.509, 7.561e-5
-1.510, 7.674e-5
-1.511, 7.780e-5
-1.512, 7.887e-5
-1.513, 8.010e-5
-1.514, 8.118e-5
-1.515, 8.229e-5
-1.516, 8.350e-5
-1.517, 8.472e-5
-1.518, 8.593e-5
-1.519, 8.725e-5
-1.520, 8.845e-5
-1.521, 8.966e-5
-1.522, 9.089e-5
-1.523, 9.233e-5
-1.524, 9.368e-5
-1.525, 9.507e-5
-1.526, 9.646e-5
-1.527, 9.788e-5
-1.528, 9.927e-5
-1.529, 1.010e-4
-1.530, 1.023e-4
-1.531, 1.037e-4
-1.532, 1.052e-4
-1.533, 1.066e-4
-1.534, 1.082e-4
-1.535, 1.098e-4
-1.536, 1.115e-4
-1.537, 1.129e-4
-1.538, 1.147e-4
-1.539, 1.162e-4
-1.540, 1.180e-4
-1.541, 1.199e-4
-1.542, 1.217e-4
-1.543, 1.233e-4
-1.544, 1.252e-4
-1.545, 1.271e-4
-1.546, 1.289e-4
-1.547, 1.309e-4
-1.548, 1.329e-4
-1.549, 1.349e-4
-1.550, 1.370e-4
-1.551, 1.390e-4
-1.552, 1.411e-4
-1.553, 1.431e-4
-1.554, 1.452e-4
-1.555, 1.475e-4
-1.556, 1.497e-4
-1.557, 1.520e-4
-1.558, 1.544e-4
-1.559, 1.568e-4
-1.560, 1.591e-4
-1.561, 1.616e-4
-1.562, 1.641e-4
-1.563, 1.666e-4
-1.564, 1.692e-4
-1.565, 1.717e-4
-1.566, 1.743e-4
-1.567, 1.771e-4
-1.568, 1.799e-4
-1.569, 1.826e-4
-1.570, 1.853e-4
-1.571, 1.882e-4
-1.572, 1.910e-4
-1.573, 1.941e-4
-1.574, 1.969e-4
-1.575, 2.003e-4
-1.576, 2.032e-4
-1.577, 2.065e-4
-1.578, 2.096e-4
-1.579, 2.129e-4
-1.580, 2.161e-4
-1.581, 2.194e-4
-1.582, 2.228e-4
-1.583, 2.263e-4
-1.584, 2.299e-4
-1.585, 2.333e-4
-1.586, 2.368e-4
-1.587, 2.407e-4
-1.588, 2.446e-4
-1.589, 2.483e-4
-1.590, 2.523e-4
-1.591, 2.564e-4
-1.592, 2.607e-4
-1.593, 2.649e-4
-1.594, 2.692e-4
-1.595, 2.735e-4
-1.596, 2.780e-4
-1.597, 2.825e-4
-1.598, 2.870e-4
-1.599, 2.917e-4
-1.600, 2.963e-4
-1.601, 3.012e-4
-1.602, 3.061e-4
-1.603, 3.113e-4
-1.604, 3.164e-4
-1.605, 3.217e-4
-1.606, 3.271e-4
-1.607, 3.327e-4
-1.608, 3.381e-4
-1.609, 3.437e-4
-1.610, 3.493e-4
-1.611, 3.549e-4
-1.612, 3.609e-4
-1.613, 3.671e-4
-1.614, 3.733e-4
-1.615, 3.797e-4
-1.616, 3.860e-4
-1.617, 3.925e-4
-1.618, 3.989e-4
-1.619, 4.054e-4
-1.620, 4.123e-4
-1.621, 4.192e-4
-1.622, 4.262e-4
-1.623, 4.335e-4
-1.624, 4.408e-4
-1.625, 4.485e-4
-1.626, 4.566e-4
-1.627, 4.643e-4
-1.628, 4.723e-4
-1.629, 4.802e-4
-1.630, 4.886e-4
-1.631, 4.969e-4
-1.632, 5.059e-4
-1.633, 5.146e-4
-1.634, 5.231e-4
-1.635, 5.321e-4
-1.636, 5.414e-4
-1.637, 5.511e-4
-1.638, 5.611e-4
-1.639, 5.711e-4
-1.640, 5.812e-4
-1.641, 5.914e-4
-1.642, 6.015e-4
-1.643, 6.121e-4
-1.644, 6.224e-4
-1.645, 6.332e-4
-1.646, 6.445e-4
-1.647, 6.555e-4
-1.648, 6.671e-4
-1.649, 6.791e-4
-1.650, 6.910e-4
-1.651, 7.029e-4
-1.652, 7.155e-4
-1.653, 7.282e-4
-1.654, 7.409e-4
-1.655, 7.540e-4
-1.656, 7.672e-4
-1.657, 7.808e-4
-1.658, 7.950e-4
-1.659, 8.096e-4
-1.660, 8.243e-4
-1.661, 8.395e-4
-1.662, 8.541e-4
-1.663, 8.689e-4
-1.664, 8.846e-4
-1.665, 9.003e-4
-1.666, 9.165e-4
-1.667, 9.330e-4
-1.668, 9.498e-4
-1.669, 9.662e-4
-1.670, 9.833e-4
-1.671, 1.001e-3
-1.672, 1.018e-3
-1.673, 1.036e-3
-1.674, 1.054e-3
-1.675, 1.073e-3
-1.676, 1.092e-3
-1.677, 1.110e-3
-1.678, 1.130e-3
-1.679, 1.149e-3
-1.680, 1.170e-3
-1.681, 1.191e-3
-1.682, 1.210e-3
-1.683, 1.231e-3
-1.684, 1.252e-3
-1.685, 1.273e-3
-1.686, 1.295e-3
-1.687, 1.317e-3
-1.688, 1.339e-3
-1.689, 1.364e-3
-1.690, 1.388e-3
-1.691, 1.411e-3
-1.692, 1.436e-3
-1.693, 1.461e-3
-1.694, 1.485e-3
-1.695, 1.510e-3
-1.696, 1.536e-3
-1.697, 1.562e-3
-1.698, 1.589e-3
-1.699, 1.616e-3
-1.700, 1.643e-3
-1.701, 1.671e-3
-1.702, 1.699e-3
-1.703, 1.728e-3
-1.704, 1.756e-3
-1.705, 1.783e-3
-1.706, 1.813e-3
-1.707, 1.843e-3
-1.708, 1.874e-3
-1.709, 1.905e-3
-1.710, 1.936e-3
-1.711, 1.968e-3
-1.712, 1.997e-3
-1.713, 2.029e-3
-1.714, 2.062e-3
-1.715, 2.096e-3
-1.716, 2.130e-3
-1.717, 2.166e-3
-1.718, 2.200e-3
-1.719, 2.236e-3
-1.720, 2.270e-3
-1.721, 2.303e-3
-1.722, 2.340e-3
-1.723, 2.378e-3
-1.724, 2.419e-3
-1.725, 2.456e-3
-1.726, 2.494e-3
-1.727, 2.535e-3
-1.728, 2.575e-3
-1.729, 2.613e-3
-1.730, 2.650e-3
-1.731, 2.694e-3
-1.732, 2.734e-3
-1.733, 2.775e-3
-1.734, 2.817e-3
-1.735, 2.861e-3
-1.736, 2.905e-3
-1.737, 2.945e-3
-1.738, 2.986e-3
-1.739, 3.030e-3
-1.740, 3.077e-3
-1.741, 3.124e-3
-1.742, 3.167e-3
-1.743, 3.212e-3
-1.744, 3.253e-3
-1.745, 3.299e-3
-1.746, 3.352e-3
-1.747, 3.400e-3
-1.748, 3.449e-3
-1.749, 3.499e-3
-1.750, 3.550e-3
-1.751, 3.598e-3
-1.752, 3.645e-3
-1.753, 3.693e-3
-1.754, 3.749e-3
-1.755, 3.803e-3
-1.756, 3.853e-3
-1.757, 3.900e-3
-1.758, 3.950e-3
-1.759, 4.002e-3
-1.760, 4.053e-3
-1.761, 4.107e-3
-1.762, 4.171e-3
-1.763, 4.236e-3
-1.764, 4.288e-3
-1.765, 4.348e-3
-1.766, 4.397e-3
-1.767, 4.447e-3
-1.768, 4.500e-3
-1.769, 4.545e-3
-1.770, 4.600e-3
-1.771, 4.662e-3
-1.772, 4.730e-3
-1.773, 4.794e-3
-1.774, 4.852e-3
-1.775, 4.909e-3
-1.776, 4.969e-3
-1.777, 5.027e-3
-1.778, 5.099e-3
-1.779, 5.156e-3
-1.780, 5.219e-3
-1.781, 5.280e-3
-1.782, 5.339e-3
-1.783, 5.394e-3
-1.784, 5.447e-3
-1.785, 5.511e-3
-1.786, 5.584e-3
-1.787, 5.652e-3
-1.788, 5.708e-3
-1.789, 5.764e-3
-1.790, 5.821e-3
-1.791, 5.887e-3
-1.792, 5.954e-3
-1.793, 6.028e-3
-1.794, 6.108e-3
-1.795, 6.175e-3
-1.796, 6.243e-3
-1.797, 6.299e-3
-1.798, 6.361e-3
-1.799, 6.431e-3
-1.800, 6.452e-3
-1.799, 6.392e-3
-1.798, 6.328e-3
-1.797, 6.271e-3
-1.796, 6.203e-3
-1.795, 6.140e-3
-1.794, 6.071e-3
-1.793, 6.012e-3
-1.792, 5.954e-3
-1.791, 5.903e-3
-1.790, 5.839e-3
-1.789, 5.782e-3
-1.788, 5.725e-3
-1.787, 5.666e-3
-1.786, 5.603e-3
-1.785, 5.541e-3
-1.784, 5.480e-3
-1.783, 5.415e-3
-1.782, 5.361e-3
-1.781, 5.300e-3
-1.780, 5.239e-3
-1.779, 5.186e-3
-1.778, 5.127e-3
-1.777, 5.060e-3
-1.776, 5.000e-3
-1.775, 4.942e-3
-1.774, 4.883e-3
-1.773, 4.830e-3
-1.772, 4.769e-3
-1.771, 4.709e-3
-1.770, 4.652e-3
-1.769, 4.591e-3
-1.768, 4.538e-3
-1.767, 4.478e-3
-1.766, 4.429e-3
-1.765, 4.384e-3
-1.764, 4.325e-3
-1.763, 4.273e-3
-1.762, 4.213e-3
-1.761, 4.161e-3
-1.760, 4.106e-3
-1.759, 4.055e-3
-1.758, 4.001e-3
-1.757, 3.949e-3
-1.756, 3.898e-3
-1.755, 3.849e-3
-1.754, 3.799e-3
-1.753, 3.750e-3
-1.752, 3.704e-3
-1.751, 3.664e-3
-1.750, 3.623e-3
-1.749, 3.582e-3
-1.748, 3.532e-3
-1.747, 3.487e-3
-1.746, 3.440e-3
-1.745, 3.396e-3
-1.744, 3.348e-3
-1.743, 3.306e-3
-1.742, 3.259e-3
-1.741, 3.216e-3
-1.740, 3.169e-3
-1.739, 3.128e-3
-1.738, 3.080e-3
-1.737, 3.038e-3
-1.736, 2.999e-3
-1.735, 2.952e-3
-1.734, 2.914e-3
-1.733, 2.875e-3
-1.732, 2.834e-3
-1.731, 2.796e-3
-1.730, 2.757e-3
-1.729, 2.718e-3
-1.728, 2.678e-3
-1.727, 2.640e-3
-1.726, 2.605e-3
-1.725, 2.568e-3
-1.724, 2.531e-3
-1.723, 2.495e-3
-1.722, 2.459e-3
-1.721, 2.426e-3
-1.720, 2.394e-3
-1.719, 2.360e-3
-1.718, 2.325e-3
-1.717, 2.292e-3
-1.716, 2.259e-3
-1.715, 2.226e-3
-1.714, 2.191e-3
-1.713, 2.162e-3
-1.712, 2.131e-3
-1.711, 2.097e-3
-1.710, 2.066e-3
-1.709, 2.035e-3
-1.708, 2.003e-3
-1.707, 1.973e-3
-1.706, 1.941e-3
-1.705, 1.911e-3
-1.704, 1.882e-3
-1.703, 1.856e-3
-1.702, 1.827e-3
-1.701, 1.800e-3
-1.700, 1.775e-3
-1.699, 1.745e-3
-1.698, 1.719e-3
-1.697, 1.696e-3
-1.696, 1.669e-3
-1.695, 1.641e-3
-1.694, 1.613e-3
-1.693, 1.587e-3
-1.692, 1.562e-3
-1.691, 1.540e-3
-1.690, 1.517e-3
-1.689, 1.491e-3
-1.688, 1.464e-3
-1.687, 1.443e-3
-1.686, 1.422e-3
-1.685, 1.400e-3
-1.684, 1.378e-3
-1.683, 1.356e-3
-1.682, 1.334e-3
-1.681, 1.312e-3
-1.680, 1.292e-3
-1.679, 1.271e-3
-1.678, 1.251e-3
-1.677, 1.227e-3
-1.676, 1.207e-3
-1.675, 1.191e-3
-1.674, 1.173e-3
-1.673, 1.154e-3
-1.672, 1.134e-3
-1.671, 1.116e-3
-1.670, 1.096e-3
-1.669, 1.077e-3
-1.668, 1.059e-3
-1.667, 1.041e-3
-1.666, 1.024e-3
-1.665, 1.006e-3
-1.664, 9.895e-4
-1.663, 9.712e-4
-1.662, 9.544e-4
-1.661, 9.379e-4
-1.660, 9.211e-4
-1.659, 9.049e-4
-1.658, 8.888e-4
-1.657, 8.730e-4
-1.656, 8.579e-4
-1.655, 8.432e-4
-1.654, 8.287e-4
-1.653, 8.136e-4
-1.652, 7.986e-4
-1.651, 7.841e-4
-1.650, 7.695e-4
-1.649, 7.554e-4
-1.648, 7.416e-4
-1.647, 7.287e-4
-1.646, 7.160e-4
-1.645, 7.034e-4
-1.644, 6.906e-4
-1.643, 6.779e-4
-1.642, 6.659e-4
-1.641, 6.535e-4
-1.640, 6.417e-4
-1.639, 6.301e-4
-1.638, 6.188e-4
-1.637, 6.079e-4
-1.636, 5.967e-4
-1.635, 5.856e-4
-1.634, 5.750e-4
-1.633, 5.655e-4
-1.632, 5.553e-4
-1.631, 5.458e-4
-1.630, 5.360e-4
-1.629, 5.262e-4
-1.628, 5.165e-4
-1.627, 5.069e-4
-1.626, 4.975e-4
-1.625, 4.886e-4
-1.624, 4.798e-4
-1.623, 4.711e-4
-1.622, 4.625e-4
-1.621, 4.543e-4
-1.620, 4.458e-4
-1.619, 4.372e-4
-1.618, 4.289e-4
-1.617, 4.212e-4
-1.616, 4.126e-4
-1.615, 4.054e-4
-1.614, 3.979e-4
-1.613, 3.904e-4
-1.612, 3.829e-4
-1.611, 3.757e-4
-1.610, 3.688e-4
-1.609, 3.616e-4
-1.608, 3.547e-4
-1.607, 3.483e-4
-1.606, 3.412e-4
-1.605, 3.348e-4
-1.604, 3.285e-4
-1.603, 3.224e-4
-1.602, 3.164e-4
-1.601, 3.103e-4
-1.600, 3.044e-4
-1.599, 2.988e-4
-1.598, 2.931e-4
-1.597, 2.878e-4
-1.596, 2.827e-4
-1.595, 2.777e-4
-1.594, 2.725e-4
-1.593, 2.674e-4
-1.592, 2.625e-4
-1.591, 2.579e-4
-1.590, 2.533e-4
-1.589, 2.480e-4
-1.588, 2.434e-4
-1.587, 2.389e-4
-1.586, 2.348e-4
-1.585, 2.308e-4
-1.584, 2.269e-4
-1.583, 2.230e-4
-1.582, 2.190e-4
-1.581, 2.150e-4
-1.580, 2.107e-4
-1.579, 2.066e-4
-1.578, 2.026e-4
-1.577, 1.986e-4
-1.576, 1.950e-4
-1.575, 1.918e-4
-1.574, 1.877e-4
-1.573, 1.843e-4
-1.572, 1.808e-4
-1.571, 1.777e-4
-1.570, 1.743e-4
-1.569, 1.710e-4
-1.568, 1.679e-4
-1.567, 1.650e-4
-1.566, 1.621e-4
-1.565, 1.595e-4
-1.564, 1.562e-4
-1.563, 1.537e-4
-1.562, 1.510e-4
-1.561, 1.482e-4
-1.560, 1.456e-4
-1.559, 1.429e-4
-1.558, 1.403e-4
-1.557, 1.379e-4
-1.556, 1.355e-4
-1.555, 1.329e-4
-1.554, 1.305e-4
-1.553, 1.282e-4
-1.552, 1.259e-4
-1.551, 1.237e-4
-1.550, 1.216e-4
-1.549, 1.193e-4
-1.548, 1.173e-4
-1.547, 1.151e-4
-1.546, 1.131e-4
-1.545, 1.113e-4
-1.544, 1.093e-4
-1.543, 1.075e-4
-1.542, 1.057e-4
-1.541, 1.039e-4
-1.540, 1.021e-4
-1.539, 1.003e-4
-1.538, 9.866e-5
-1.537, 9.693e-5
-1.536, 9.527e-5
-1.535, 9.367e-5
-1.534, 9.186e-5
-1.533, 9.036e-5
-1.532, 8.881e-5
-1.531, 8.738e-5
-1.530, 8.593e-5
-1.529, 8.442e-5
-1.528, 8.302e-5
-1.527, 8.170e-5
-1.526, 8.004e-5
-1.525, 7.893e-5
-1.524, 7.753e-5
-1.523, 7.604e-5
-1.522, 7.485e-5
-1.521, 7.354e-5
-1.520, 7.255e-5
-1.519, 7.133e-5
-1.518, 7.000e-5
-1.517, 6.888e-5
-1.516, 6.777e-5
-1.515, 6.677e-5
-1.514, 6.572e-5
-1.513, 6.454e-5
-1.512, 6.356e-5
-1.511, 6.230e-5
-1.510, 6.137e-5
-1.509, 6.041e-5
-1.508, 5.940e-5
-1.507, 5.838e-5
-1.506, 5.743e-5
-1.505, 5.644e-5
-1.504, 5.549e-5
-1.503, 5.464e-5
-1.502, 5.381e-5
-1.501, 5.287e-5
-1.500, 5.209e-5
-1.499, 5.104e-5
-1.498, 5.027e-5
-1.497, 4.954e-5
-1.496, 4.871e-5
-1.495, 4.791e-5
-1.494, 4.720e-5
-1.493, 4.642e-5
-1.492, 4.561e-5
-1.491, 4.483e-5
-1.490, 4.426e-5
-1.489, 4.340e-5
-1.488, 4.272e-5
-1.487, 4.210e-5
-1.486, 4.139e-5
-1.485, 4.074e-5
-1.484, 3.995e-5
-1.483, 3.943e-5
-1.482, 3.887e-5
-1.481, 3.814e-5
-1.480, 3.756e-5
-1.479, 3.693e-5
-1.478, 3.635e-5
-1.477, 3.581e-5
-1.476, 3.523e-5
-1.475, 3.477e-5
-1.474, 3.416e-5
-1.473, 3.357e-5
-1.472, 3.306e-5
-1.471, 3.253e-5
-1.470, 3.212e-5
-1.469, 3.148e-5
-1.468, 3.094e-5
-1.467, 3.052e-5
-1.466, 2.989e-5
-1.465, 2.952e-5
-1.464, 2.898e-5
-1.463, 2.856e-5
-1.462, 2.817e-5
-1.461, 2.760e-5
-1.460, 2.723e-5
-1.459, 2.668e-5
-1.458, 2.624e-5
-1.457, 2.570e-5
-1.456, 2.536e-5
-1.455, 2.496e-5
-1.454, 2.451e-5
-1.453, 2.413e-5
-1.452, 2.366e-5
-1.451, 2.332e-5
-1.450, 2.295e-5
-1.449, 2.246e-5
-1.448, 2.214e-5
-1.447, 2.186e-5
-1.446, 2.133e-5
-1.445, 2.101e-5
-1.444, 2.064e-5
-1.443, 2.034e-5
-1.442, 1.998e-5
-1.441, 1.962e-5
-1.440, 1.927e-5
-1.439, 1.888e-5
-1.438, 1.869e-5
-1.437, 1.830e-5
-1.436, 1.799e-5
-1.435, 1.766e-5
-1.434, 1.727e-5
-1.433, 1.695e-5
-1.432, 1.669e-5
-1.431, 1.641e-5
-1.430, 1.615e-5
-1.429, 1.580e-5
-1.428, 1.555e-5
-1.427, 1.523e-5
-1.426, 1.510e-5
-1.425, 1.483e-5
-1.424, 1.454e-5
-1.423, 1.428e-5
-1.422, 1.390e-5
-1.421, 1.360e-5
-1.420, 1.344e-5
-1.419, 1.316e-5
-1.418, 1.292e-5
-1.417, 1.270e-5
-1.416, 1.243e-5
-1.415, 1.212e-5
-1.414, 1.196e-5
-1.413, 1.179e-5
-1.412, 1.154e-5
-1.411, 1.125e-5
-1.410, 1.113e-5
-1.409, 1.093e-5
-1.408, 1.067e-5
-1.407, 1.052e-5
-1.406, 1.018e-5
-1.405, 1.008e-5
-1.404, 9.844e-6
-1.403, 9.726e-6
-1.402, 9.479e-6
-1.401, 9.292e-6
-1.400, 9.124e-6
-1.399, 8.917e-6
-1.398, 8.700e-6
-1.397, 8.542e-6
-1.396, 8.384e-6
-1.395, 8.236e-6
-1.394, 7.920e-6
-1.393, 7.851e-6
-1.392, 7.565e-6
-1.391, 7.605e-6
-1.390, 7.427e-6
-1.389, 7.220e-6
-1.388, 7.052e-6
-1.387, 6.894e-6
-1.386, 6.746e-6
-1.385, 6.579e-6
-1.384, 6.510e-6
-1.383, 6.342e-6
-1.382, 6.036e-6
-1.381, 5.967e-6
-1.380, 5.829e-6
-1.379, 5.710e-6
-1.378, 5.513e-6
-1.377, 5.493e-6
-1.376, 5.237e-6
-1.375, 5.276e-6
-1.374, 5.010e-6
-1.373, 4.961e-6
-1.372, 4.832e-6
-1.371, 4.586e-6
-1.370, 4.605e-6
-1.369, 4.339e-6
-1.368, 4.181e-6
-1.367, 4.053e-6
-1.366, 3.964e-6
-1.365, 3.836e-6
-1.364, 3.708e-6
-1.363, 3.609e-6
-1.362, 3.510e-6
-1.361, 3.402e-6
-1.360, 3.214e-6
-1.359, 3.017e-6
-1.358, 2.908e-6
-1.357, 2.701e-6
-1.356, 2.504e-6
-1.355, 2.534e-6
-1.354, 2.287e-6
-1.353, 2.149e-6
-1.352, 2.070e-6
-1.351, 1.843e-6
-1.350, 1.784e-6
-1.349, 1.557e-6
-1.348, 1.488e-6
-1.347, 1.281e-6
-1.346, 1.251e-6
-1.345, 1.014e-6
-1.344, 7.873e-7
-1.343, 6.393e-7
-1.342, 5.209e-7
-1.341, 4.124e-7
-1.340, 3.433e-7
-1.339, 1.460e-7
-1.338, 7.893e-9
-1.337, -1.796e-7
-1.336, -2.289e-7
-1.335, -2.190e-7
-1.334, -3.867e-7
-1.333, -5.545e-7
-1.332, -7.222e-7
-1.331, -8.998e-7
-1.330, -7.518e-7
-1.329, -9.392e-7
-1.328, -1.067e-6
-1.327, -1.235e-6
-1.326, -1.324e-6
-1.325, -1.314e-6
-1.324, -1.462e-6
-1.323, -1.620e-6
-1.322, -1.738e-6
-1.321, -1.926e-6
-1.320, -1.798e-6
-1.319, -2.005e-6
-1.318, -2.251e-6
-1.317, -2.340e-6
-1.316, -2.488e-6
-1.315, -2.498e-6
-1.314, -2.695e-6
-1.313, -2.922e-6
-1.312, -3.060e-6
-1.311, -3.120e-6
-1.310, -3.199e-6
-1.309, -3.386e-6
-1.308, -3.475e-6
-1.307, -3.583e-6
-1.306, -3.860e-6
-1.305, -3.978e-6
-1.304, -4.116e-6
-1.303, -4.185e-6
-1.302, -4.442e-6
-1.301, -4.521e-6
-1.300, -4.521e-6
-1.299, -4.747e-6
-1.298, -4.886e-6
-1.297, -5.014e-6
-1.296, -5.191e-6
-1.295, -5.231e-6
-1.294, -5.458e-6
-1.293, -5.665e-6
-1.292, -5.833e-6
-1.291, -5.922e-6
-1.290, -5.971e-6
-1.289, -6.227e-6
-1.288, -6.385e-6
-1.287, -6.504e-6
-1.286, -6.780e-6
-1.285, -6.859e-6
-1.284, -6.997e-6
-1.283, -7.263e-6
-1.282, -7.441e-6
-1.281, -7.628e-6
-1.280, -7.697e-6
-1.279, -8.003e-6
-1.278, -8.210e-6
-1.277, -8.319e-6
-1.276, -8.526e-6
-1.275, -8.625e-6
-1.274, -8.950e-6
-1.273, -9.069e-6
-1.272, -9.237e-6
-1.271, -9.503e-6
-1.270, -9.572e-6
-1.269, -9.819e-6
-1.268, -1.005e-5
-1.267, -1.023e-5
-1.266, -1.051e-5
-1.265, -1.053e-5
-1.264, -1.070e-5
-1.263, -1.091e-5
-1.262, -1.114e-5
-1.261, -1.126e-5
-1.260, -1.126e-5
-1.259, -1.146e-5
-1.258, -1.158e-5
-1.257, -1.178e-5
-1.256, -1.179e-5
-1.255, -1.203e-5
-1.254, -1.217e-5
-1.253, -1.218e-5
-1.252, -1.231e-5
-1.251, -1.247e-5
-1.250, -1.242e-5
-1.249, -1.249e-5
-1.248, -1.263e-5
-1.247, -1.256e-5
-1.246, -1.262e-5
-1.245, -1.251e-5
-1.244, -1.258e-5
-1.243, -1.248e-5
-1.242, -1.253e-5
-1.241, -1.256e-5
-1.240, -1.235e-5
-1.239, -1.227e-5
-1.238, -1.226e-5
-1.237, -1.216e-5
-1.236, -1.195e-5
-1.235, -1.175e-5
-1.234, -1.176e-5
-1.233, -1.160e-5
-1.232, -1.146e-5
-1.231, -1.132e-5
-1.230, -1.100e-5
-1.229, -1.108e-5
-1.228, -1.092e-5
-1.227, -1.065e-5
-1.226, -1.044e-5
-1.225, -1.017e-5
-1.224, -1.004e-5
-1.223, -9.838e-6
-1.222, -9.621e-6
-1.221, -9.424e-6
-1.220, -9.098e-6
-1.219, -8.941e-6
-1.218, -8.694e-6
-1.217, -8.497e-6
-1.216, -8.408e-6
-1.215, -8.122e-6
-1.214, -7.964e-6
-1.213, -7.766e-6
-1.212, -7.678e-6
-1.211, -7.451e-6
-1.210, -7.165e-6
-1.209, -7.155e-6
-1.208, -6.918e-6
-1.207, -6.869e-6
-1.206, -6.760e-6
-1.205, -6.533e-6
-1.204, -6.474e-6
-1.203, -6.523e-6
-1.202, -6.385e-6
-1.201, -6.277e-6
-1.200, -6.218e-6
-1.199, -6.119e-6
-1.198, -6.079e-6
-1.197, -5.981e-6
-1.196, -5.991e-6
-1.195, -5.912e-6
-1.194, -5.892e-6
-1.193, -5.872e-6
-1.192, -5.872e-6
-1.191, -5.872e-6
-1.190, -5.783e-6
-1.189, -5.754e-6
-1.188, -5.793e-6
-1.187, -5.754e-6
-1.186, -5.754e-6
-1.185, -5.744e-6
-1.184, -5.704e-6
-1.183, -5.685e-6
-1.182, -5.645e-6
-1.181, -5.724e-6
-1.180, -5.645e-6
-1.179, -5.616e-6
-1.178, -5.783e-6
-1.177, -5.833e-6
-1.176, -5.862e-6
-1.175, -5.783e-6
-1.174, -5.852e-6
-1.173, -5.813e-6
-1.172, -5.882e-6
-1.171, -5.951e-6
-1.170, -5.872e-6
-1.169, -5.922e-6
-1.168, -5.961e-6
-1.167, -6.050e-6
-1.166, -6.000e-6
-1.165, -6.050e-6
-1.164, -6.139e-6
-1.163, -6.198e-6
-1.162, -6.188e-6
-1.161, -6.267e-6
-1.160, -6.109e-6
-1.159, -6.316e-6
-1.158, -6.395e-6
-1.157, -6.316e-6
-1.156, -6.435e-6
-1.155, -6.415e-6
-1.154, -6.454e-6
-1.153, -6.405e-6
-1.152, -6.573e-6
-1.151, -6.563e-6
-1.150, -6.612e-6
-1.149, -6.671e-6
-1.148, -6.622e-6
-1.147, -6.740e-6
-1.146, -6.809e-6
-1.145, -6.819e-6
-1.144, -6.819e-6
-1.143, -6.849e-6
-1.142, -6.977e-6
-1.141, -6.997e-6
-1.140, -7.036e-6
-1.139, -7.165e-6
-1.138, -7.007e-6
-1.137, -7.155e-6
-1.136, -7.155e-6
-1.135, -7.175e-6
-1.134, -7.263e-6
-1.133, -7.234e-6
-1.132, -7.510e-6
-1.131, -7.382e-6
-1.130, -7.332e-6
-1.129, -7.559e-6
-1.128, -7.549e-6
-1.127, -7.678e-6
-1.126, -7.747e-6
-1.125, -7.727e-6
-1.124, -7.875e-6
-1.123, -7.964e-6
-1.122, -7.993e-6
-1.121, -7.984e-6
-1.120, -8.082e-6
-1.119, -8.191e-6
-1.118, -8.240e-6
-1.117, -8.230e-6
-1.116, -8.319e-6
-1.115, -8.329e-6
-1.114, -8.447e-6
-1.113, -8.575e-6
-1.112, -8.704e-6
-1.111, -8.763e-6
-1.110, -8.654e-6
-1.109, -8.714e-6
-1.108, -8.802e-6
-1.107, -8.990e-6
-1.106, -9.039e-6
-1.105, -9.019e-6
-1.104, -9.158e-6
-1.103, -9.286e-6
-1.102, -9.315e-6
-1.101, -9.444e-6
-1.100, -9.394e-6
-1.099, -9.483e-6
-1.098, -9.602e-6
-1.097, -9.690e-6
-1.096, -9.631e-6
-1.095, -9.700e-6
-1.094, -9.848e-6
-1.093, -9.868e-6
-1.092, -9.898e-6
-1.091, -9.907e-6
-1.090, -9.937e-6
-1.089, -9.907e-6
-1.088, -9.996e-6
-1.087, -1.016e-5
-1.086, -1.015e-5
-1.085, -1.006e-5
-1.084, -1.017e-5
-1.083, -1.021e-5
-1.082, -1.019e-5
-1.081, -1.027e-5
-1.080, -1.009e-5
-1.079, -1.023e-5
-1.078, -1.027e-5
-1.077, -1.024e-5
-1.076, -1.019e-5
-1.075, -1.019e-5
-1.074, -1.024e-5
-1.073, -1.020e-5
-1.072, -1.026e-5
-1.071, -1.023e-5
-1.070, -1.015e-5
-1.069, -1.018e-5
-1.068, -1.022e-5
-1.067, -1.025e-5
-1.066, -1.014e-5
-1.065, -1.007e-5
-1.064, -1.005e-5
-1.063, -9.996e-6
-1.062, -1.016e-5
-1.061, -1.006e-5
-1.060, -1.001e-5
-1.059, -1.002e-5
-1.058, -1.001e-5
-1.057, -9.907e-6
-1.056, -9.848e-6
-1.055, -9.759e-6
-1.054, -9.819e-6
-1.053, -9.730e-6
-1.052, -9.730e-6
-1.051, -9.680e-6
-1.050, -9.621e-6
-1.049, -9.671e-6
-1.048, -9.592e-6
-1.047, -9.661e-6
-1.046, -9.552e-6
-1.045, -9.444e-6
-1.044, -9.394e-6
-1.043, -9.454e-6
-1.042, -9.384e-6
-1.041, -9.375e-6
-1.040, -9.246e-6
-1.039, -9.246e-6
-1.038, -9.207e-6
-1.037, -9.158e-6
-1.036, -9.128e-6
-1.035, -8.980e-6
-1.034, -9.010e-6
-1.033, -8.950e-6
-1.032, -9.029e-6
-1.031, -8.931e-6
-1.030, -8.714e-6
-1.029, -8.763e-6
-1.028, -8.763e-6
-1.027, -8.802e-6
-1.026, -8.674e-6
-1.025, -8.575e-6
-1.024, -8.645e-6
-1.023, -8.516e-6
-1.022, -8.536e-6
-1.021, -8.497e-6
-1.020, -8.408e-6
-1.019, -8.418e-6
-1.018, -8.408e-6
-1.017, -8.447e-6
-1.016, -8.339e-6
-1.015, -8.191e-6
-1.014, -8.191e-6
-1.013, -8.161e-6
-1.012, -8.161e-6
-1.011, -8.210e-6
-1.010, -7.993e-6
-1.009, -8.062e-6
-1.008, -7.954e-6
-1.007, -7.993e-6
-1.006, -7.875e-6
-1.005, -7.895e-6
-1.004, -7.845e-6
-1.003, -7.786e-6
-1.002, -7.826e-6
-1.001, -7.707e-6
