Apr. 25, 2025   02:24:30
Cyclic Voltammetry
File: c:/users/guazh/data/banditlqround7_x0exp590_r20/2025-04-16-exp1181\exp1181-2025-04-25t02_18_10-arkoh\exp1181_cv_sr_200mvs_efin_-1400mv.bin
Data Source:  Experiment
Instrument Model:  CHI760E
Header: CV ran at 200 mVs
Note: 

Init E (V) = -1
High E (V) = -1
Low E (V) = -1.4
Final E (V) = -1
Init P/N = N
Scan Rate (V/s) = 0.2
Segment = 3
Sample Interval (V) = 0.001
Quiet Time (sec) = 2
Sensitivity (A/V) = 0.01
Comp R (ohm) = 1.8

Results:

Channel 1:
Segment 1:

Segment 2:

Segment 3:

Potential/V, Current/A

-1.000, 5.076e-5
-1.001, 1.362e-4
-1.002, 1.923e-4
-1.003, 2.434e-4
-1.004, 2.681e-4
-1.005, 2.784e-4
-1.006, 3.043e-4
-1.007, 3.191e-4
-1.008, 3.153e-4
-1.009, 3.259e-4
-1.010, 3.402e-4
-1.011, 3.343e-4
-1.012, 3.353e-4
-1.013, 3.494e-4
-1.014, 3.474e-4
-1.015, 3.404e-4
-1.016, 3.510e-4
-1.017, 3.554e-4
-1.018, 3.455e-4
-1.019, 3.516e-4
-1.020, 3.628e-4
-1.021, 3.534e-4
-1.022, 3.521e-4
-1.023, 3.641e-4
-1.024, 3.615e-4
-1.025, 3.533e-4
-1.026, 3.630e-4
-1.027, 3.665e-4
-1.028, 3.558e-4
-1.029, 3.601e-4
-1.030, 3.709e-4
-1.031, 3.617e-4
-1.032, 3.592e-4
-1.033, 3.722e-4
-1.034, 3.673e-4
-1.035, 3.591e-4
-1.036, 3.693e-4
-1.037, 3.720e-4
-1.038, 3.610e-4
-1.039, 3.652e-4
-1.040, 3.725e-4
-1.041, 3.634e-4
-1.042, 3.615e-4
-1.043, 3.746e-4
-1.044, 3.715e-4
-1.045, 3.622e-4
-1.046, 3.730e-4
-1.047, 3.762e-4
-1.048, 3.644e-4
-1.049, 3.704e-4
-1.050, 3.804e-4
-1.051, 3.699e-4
-1.052, 3.669e-4
-1.053, 3.772e-4
-1.054, 3.728e-4
-1.055, 3.643e-4
-1.056, 3.748e-4
-1.057, 3.782e-4
-1.058, 3.675e-4
-1.059, 3.720e-4
-1.060, 3.820e-4
-1.061, 3.712e-4
-1.062, 3.692e-4
-1.063, 3.813e-4
-1.064, 3.759e-4
-1.065, 3.678e-4
-1.066, 3.776e-4
-1.067, 3.800e-4
-1.068, 3.689e-4
-1.069, 3.734e-4
-1.070, 3.838e-4
-1.071, 3.744e-4
-1.072, 3.716e-4
-1.073, 3.844e-4
-1.074, 3.791e-4
-1.075, 3.716e-4
-1.076, 3.826e-4
-1.077, 3.840e-4
-1.078, 3.718e-4
-1.079, 3.765e-4
-1.080, 3.849e-4
-1.081, 3.752e-4
-1.082, 3.730e-4
-1.083, 3.850e-4
-1.084, 3.812e-4
-1.085, 3.724e-4
-1.086, 3.834e-4
-1.087, 3.866e-4
-1.088, 3.750e-4
-1.089, 3.808e-4
-1.090, 3.890e-4
-1.091, 3.786e-4
-1.092, 3.767e-4
-1.093, 3.882e-4
-1.094, 3.841e-4
-1.095, 3.751e-4
-1.096, 3.848e-4
-1.097, 3.876e-4
-1.098, 3.751e-4
-1.099, 3.799e-4
-1.100, 3.900e-4
-1.101, 3.794e-4
-1.102, 3.779e-4
-1.103, 3.902e-4
-1.104, 3.849e-4
-1.105, 3.771e-4
-1.106, 3.882e-4
-1.107, 3.902e-4
-1.108, 3.794e-4
-1.109, 3.840e-4
-1.110, 3.934e-4
-1.111, 3.841e-4
-1.112, 3.816e-4
-1.113, 3.930e-4
-1.114, 3.877e-4
-1.115, 3.793e-4
-1.116, 3.904e-4
-1.117, 3.928e-4
-1.118, 3.817e-4
-1.119, 3.874e-4
-1.120, 3.960e-4
-1.121, 3.863e-4
-1.122, 3.843e-4
-1.123, 3.968e-4
-1.124, 3.919e-4
-1.125, 3.833e-4
-1.126, 3.943e-4
-1.127, 3.972e-4
-1.128, 3.856e-4
-1.129, 3.919e-4
-1.130, 4.009e-4
-1.131, 3.902e-4
-1.132, 3.883e-4
-1.133, 4.000e-4
-1.134, 3.954e-4
-1.135, 3.879e-4
-1.136, 3.980e-4
-1.137, 4.009e-4
-1.138, 3.894e-4
-1.139, 3.951e-4
-1.140, 4.046e-4
-1.141, 3.938e-4
-1.142, 3.928e-4
-1.143, 4.048e-4
-1.144, 3.998e-4
-1.145, 3.934e-4
-1.146, 4.045e-4
-1.147, 4.071e-4
-1.148, 3.964e-4
-1.149, 4.016e-4
-1.150, 4.106e-4
-1.151, 4.009e-4
-1.152, 3.995e-4
-1.153, 4.116e-4
-1.154, 4.064e-4
-1.155, 3.990e-4
-1.156, 4.106e-4
-1.157, 4.132e-4
-1.158, 4.036e-4
-1.159, 4.099e-4
-1.160, 4.179e-4
-1.161, 4.090e-4
-1.162, 4.076e-4
-1.163, 4.198e-4
-1.164, 4.155e-4
-1.165, 4.084e-4
-1.166, 4.198e-4
-1.167, 4.237e-4
-1.168, 4.129e-4
-1.169, 4.186e-4
-1.170, 4.269e-4
-1.171, 4.179e-4
-1.172, 4.183e-4
-1.173, 4.299e-4
-1.174, 4.257e-4
-1.175, 4.188e-4
-1.176, 4.291e-4
-1.177, 4.332e-4
-1.178, 4.231e-4
-1.179, 4.299e-4
-1.180, 4.406e-4
-1.181, 4.317e-4
-1.182, 4.325e-4
-1.183, 4.467e-4
-1.184, 4.418e-4
-1.185, 4.349e-4
-1.186, 4.472e-4
-1.187, 4.505e-4
-1.188, 4.402e-4
-1.189, 4.463e-4
-1.190, 4.562e-4
-1.191, 4.483e-4
-1.192, 4.481e-4
-1.193, 4.627e-4
-1.194, 4.589e-4
-1.195, 4.526e-4
-1.196, 4.664e-4
-1.197, 4.698e-4
-1.198, 4.622e-4
-1.199, 4.702e-4
-1.200, 4.802e-4
-1.201, 4.722e-4
-1.202, 4.737e-4
-1.203, 4.887e-4
-1.204, 4.869e-4
-1.205, 4.803e-4
-1.206, 4.936e-4
-1.207, 4.985e-4
-1.208, 4.898e-4
-1.209, 5.002e-4
-1.210, 5.119e-4
-1.211, 5.044e-4
-1.212, 5.065e-4
-1.213, 5.220e-4
-1.214, 5.197e-4
-1.215, 5.152e-4
-1.216, 5.294e-4
-1.217, 5.351e-4
-1.218, 5.282e-4
-1.219, 5.379e-4
-1.220, 5.504e-4
-1.221, 5.445e-4
-1.222, 5.488e-4
-1.223, 5.655e-4
-1.224, 5.649e-4
-1.225, 5.627e-4
-1.226, 5.782e-4
-1.227, 5.851e-4
-1.228, 5.801e-4
-1.229, 5.942e-4
-1.230, 6.056e-4
-1.231, 6.003e-4
-1.232, 6.052e-4
-1.233, 6.248e-4
-1.234, 6.255e-4
-1.235, 6.242e-4
-1.236, 6.407e-4
-1.237, 6.478e-4
-1.238, 6.440e-4
-1.239, 6.583e-4
-1.240, 6.731e-4
-1.241, 6.709e-4
-1.242, 6.774e-4
-1.243, 6.967e-4
-1.244, 7.005e-4
-1.245, 7.014e-4
-1.246, 7.217e-4
-1.247, 7.318e-4
-1.248, 7.296e-4
-1.249, 7.453e-4
-1.250, 7.635e-4
-1.251, 7.619e-4
-1.252, 7.715e-4
-1.253, 7.944e-4
-1.254, 8.003e-4
-1.255, 8.036e-4
-1.256, 8.235e-4
-1.257, 8.365e-4
-1.258, 8.364e-4
-1.259, 8.551e-4
-1.260, 8.768e-4
-1.261, 8.784e-4
-1.262, 8.908e-4
-1.263, 9.155e-4
-1.264, 9.209e-4
-1.265, 9.268e-4
-1.266, 9.516e-4
-1.267, 9.681e-4
-1.268, 9.722e-4
-1.269, 9.929e-4
-1.270, 1.014e-3
-1.271, 1.019e-3
-1.272, 1.033e-3
-1.273, 1.063e-3
-1.274, 1.076e-3
-1.275, 1.085e-3
-1.276, 1.114e-3
-1.277, 1.132e-3
-1.278, 1.139e-3
-1.279, 1.163e-3
-1.280, 1.191e-3
-1.281, 1.199e-3
-1.282, 1.216e-3
-1.283, 1.248e-3
-1.284, 1.263e-3
-1.285, 1.275e-3
-1.286, 1.308e-3
-1.287, 1.331e-3
-1.288, 1.341e-3
-1.289, 1.370e-3
-1.290, 1.401e-3
-1.291, 1.413e-3
-1.292, 1.436e-3
-1.293, 1.473e-3
-1.294, 1.492e-3
-1.295, 1.510e-3
-1.296, 1.547e-3
-1.297, 1.576e-3
-1.298, 1.590e-3
-1.299, 1.623e-3
-1.300, 1.657e-3
-1.301, 1.674e-3
-1.302, 1.701e-3
-1.303, 1.743e-3
-1.304, 1.766e-3
-1.305, 1.788e-3
-1.306, 1.827e-3
-1.307, 1.859e-3
-1.308, 1.879e-3
-1.309, 1.917e-3
-1.310, 1.958e-3
-1.311, 1.982e-3
-1.312, 2.012e-3
-1.313, 2.059e-3
-1.314, 2.089e-3
-1.315, 2.118e-3
-1.316, 2.164e-3
-1.317, 2.201e-3
-1.318, 2.226e-3
-1.319, 2.265e-3
-1.320, 2.306e-3
-1.321, 2.333e-3
-1.322, 2.372e-3
-1.323, 2.425e-3
-1.324, 2.458e-3
-1.325, 2.490e-3
-1.326, 2.544e-3
-1.327, 2.590e-3
-1.328, 2.623e-3
-1.329, 2.673e-3
-1.330, 2.723e-3
-1.331, 2.756e-3
-1.332, 2.797e-3
-1.333, 2.851e-3
-1.334, 2.891e-3
-1.335, 2.930e-3
-1.336, 2.984e-3
-1.337, 3.030e-3
-1.338, 3.065e-3
-1.339, 3.121e-3
-1.340, 3.179e-3
-1.341, 3.213e-3
-1.342, 3.255e-3
-1.343, 3.315e-3
-1.344, 3.361e-3
-1.345, 3.407e-3
-1.346, 3.475e-3
-1.347, 3.530e-3
-1.348, 3.575e-3
-1.349, 3.637e-3
-1.350, 3.699e-3
-1.351, 3.743e-3
-1.352, 3.795e-3
-1.353, 3.860e-3
-1.354, 3.907e-3
-1.355, 3.952e-3
-1.356, 4.016e-3
-1.357, 4.071e-3
-1.358, 4.118e-3
-1.359, 4.186e-3
-1.360, 4.257e-3
-1.361, 4.309e-3
-1.362, 4.367e-3
-1.363, 4.439e-3
-1.364, 4.492e-3
-1.365, 4.541e-3
-1.366, 4.609e-3
-1.367, 4.670e-3
-1.368, 4.722e-3
-1.369, 4.794e-3
-1.370, 4.862e-3
-1.371, 4.916e-3
-1.372, 4.982e-3
-1.373, 5.058e-3
-1.374, 5.119e-3
-1.375, 5.178e-3
-1.376, 5.256e-3
-1.377, 5.322e-3
-1.378, 5.375e-3
-1.379, 5.451e-3
-1.380, 5.525e-3
-1.381, 5.590e-3
-1.382, 5.664e-3
-1.383, 5.739e-3
-1.384, 5.800e-3
-1.385, 5.864e-3
-1.386, 5.942e-3
-1.387, 6.014e-3
-1.388, 6.078e-3
-1.389, 6.156e-3
-1.390, 6.238e-3
-1.391, 6.300e-3
-1.392, 6.370e-3
-1.393, 6.454e-3
-1.394, 6.519e-3
-1.395, 6.583e-3
-1.396, 6.674e-3
-1.397, 6.750e-3
-1.398, 6.812e-3
-1.399, 6.891e-3
-1.400, 6.846e-3
-1.399, 6.690e-3
-1.398, 6.583e-3
-1.397, 6.502e-3
-1.396, 6.409e-3
-1.395, 6.317e-3
-1.394, 6.243e-3
-1.393, 6.163e-3
-1.392, 6.073e-3
-1.391, 6.006e-3
-1.390, 5.938e-3
-1.389, 5.853e-3
-1.388, 5.775e-3
-1.387, 5.705e-3
-1.386, 5.619e-3
-1.385, 5.533e-3
-1.384, 5.465e-3
-1.383, 5.390e-3
-1.382, 5.303e-3
-1.381, 5.237e-3
-1.380, 5.172e-3
-1.379, 5.089e-3
-1.378, 5.017e-3
-1.377, 4.958e-3
-1.376, 4.883e-3
-1.375, 4.805e-3
-1.374, 4.741e-3
-1.373, 4.670e-3
-1.372, 4.587e-3
-1.371, 4.524e-3
-1.370, 4.468e-3
-1.369, 4.395e-3
-1.368, 4.326e-3
-1.367, 4.264e-3
-1.366, 4.189e-3
-1.365, 4.118e-3
-1.364, 4.066e-3
-1.363, 4.005e-3
-1.362, 3.932e-3
-1.361, 3.876e-3
-1.360, 3.820e-3
-1.359, 3.748e-3
-1.358, 3.687e-3
-1.357, 3.639e-3
-1.356, 3.571e-3
-1.355, 3.503e-3
-1.354, 3.454e-3
-1.353, 3.394e-3
-1.352, 3.327e-3
-1.351, 3.278e-3
-1.350, 3.230e-3
-1.349, 3.167e-3
-1.348, 3.113e-3
-1.347, 3.069e-3
-1.346, 3.001e-3
-1.345, 2.933e-3
-1.344, 2.886e-3
-1.343, 2.833e-3
-1.342, 2.771e-3
-1.341, 2.727e-3
-1.340, 2.685e-3
-1.339, 2.627e-3
-1.338, 2.578e-3
-1.337, 2.538e-3
-1.336, 2.482e-3
-1.335, 2.429e-3
-1.334, 2.391e-3
-1.333, 2.339e-3
-1.332, 2.278e-3
-1.331, 2.240e-3
-1.330, 2.203e-3
-1.329, 2.147e-3
-1.328, 2.103e-3
-1.327, 2.067e-3
-1.326, 2.016e-3
-1.325, 1.966e-3
-1.324, 1.933e-3
-1.323, 1.888e-3
-1.322, 1.833e-3
-1.321, 1.797e-3
-1.320, 1.763e-3
-1.319, 1.711e-3
-1.318, 1.671e-3
-1.317, 1.642e-3
-1.316, 1.596e-3
-1.315, 1.553e-3
-1.314, 1.527e-3
-1.313, 1.488e-3
-1.312, 1.440e-3
-1.311, 1.411e-3
-1.310, 1.382e-3
-1.309, 1.337e-3
-1.308, 1.301e-3
-1.307, 1.278e-3
-1.306, 1.236e-3
-1.305, 1.197e-3
-1.304, 1.177e-3
-1.303, 1.144e-3
-1.302, 1.100e-3
-1.301, 1.077e-3
-1.300, 1.051e-3
-1.299, 1.008e-3
-1.298, 9.785e-4
-1.297, 9.592e-4
-1.296, 9.232e-4
-1.295, 8.882e-4
-1.294, 8.703e-4
-1.293, 8.418e-4
-1.292, 8.024e-4
-1.291, 7.832e-4
-1.290, 7.621e-4
-1.289, 7.230e-4
-1.288, 6.981e-4
-1.287, 6.834e-4
-1.286, 6.501e-4
-1.285, 6.186e-4
-1.284, 6.049e-4
-1.283, 5.804e-4
-1.282, 5.455e-4
-1.281, 5.299e-4
-1.280, 5.130e-4
-1.279, 4.797e-4
-1.278, 4.586e-4
-1.277, 4.483e-4
-1.276, 4.195e-4
-1.275, 3.932e-4
-1.274, 3.839e-4
-1.273, 3.622e-4
-1.272, 3.311e-4
-1.271, 3.194e-4
-1.270, 3.058e-4
-1.269, 2.766e-4
-1.268, 2.589e-4
-1.267, 2.524e-4
-1.266, 2.260e-4
-1.265, 2.021e-4
-1.264, 1.969e-4
-1.263, 1.793e-4
-1.262, 1.518e-4
-1.261, 1.436e-4
-1.260, 1.326e-4
-1.259, 1.061e-4
-1.258, 9.168e-5
-1.257, 8.756e-5
-1.256, 6.581e-5
-1.255, 4.512e-5
-1.254, 4.251e-5
-1.253, 2.799e-5
-1.252, 2.652e-6
-1.251, -2.291e-6
-1.250, -9.286e-6
-1.249, -3.380e-5
-1.248, -4.436e-5
-1.247, -4.641e-5
-1.246, -6.660e-5
-1.245, -8.371e-5
-1.244, -8.377e-5
-1.243, -9.588e-5
-1.242, -1.180e-4
-1.241, -1.204e-4
-1.240, -1.251e-4
-1.239, -1.463e-4
-1.238, -1.548e-4
-1.237, -1.534e-4
-1.236, -1.711e-4
-1.235, -1.865e-4
-1.234, -1.843e-4
-1.233, -1.949e-4
-1.232, -2.140e-4
-1.231, -2.146e-4
-1.230, -2.175e-4
-1.229, -2.395e-4
-1.228, -2.460e-4
-1.227, -2.420e-4
-1.226, -2.574e-4
-1.225, -2.701e-4
-1.224, -2.649e-4
-1.223, -2.734e-4
-1.222, -2.904e-4
-1.221, -2.890e-4
-1.220, -2.904e-4
-1.219, -3.084e-4
-1.218, -3.125e-4
-1.217, -3.086e-4
-1.216, -3.222e-4
-1.215, -3.338e-4
-1.214, -3.286e-4
-1.213, -3.350e-4
-1.212, -3.513e-4
-1.211, -3.479e-4
-1.210, -3.473e-4
-1.209, -3.635e-4
-1.208, -3.665e-4
-1.207, -3.603e-4
-1.206, -3.735e-4
-1.205, -3.822e-4
-1.204, -3.766e-4
-1.203, -3.824e-4
-1.202, -3.956e-4
-1.201, -3.916e-4
-1.200, -3.894e-4
-1.199, -4.052e-4
-1.198, -4.081e-4
-1.197, -4.005e-4
-1.196, -4.127e-4
-1.195, -4.204e-4
-1.194, -4.121e-4
-1.193, -4.175e-4
-1.192, -4.308e-4
-1.191, -4.259e-4
-1.190, -4.234e-4
-1.189, -4.362e-4
-1.188, -4.375e-4
-1.187, -4.297e-4
-1.186, -4.412e-4
-1.185, -4.503e-4
-1.184, -4.399e-4
-1.183, -4.440e-4
-1.182, -4.578e-4
-1.181, -4.506e-4
-1.180, -4.475e-4
-1.179, -4.611e-4
-1.178, -4.619e-4
-1.177, -4.537e-4
-1.176, -4.632e-4
-1.175, -4.700e-4
-1.174, -4.605e-4
-1.173, -4.633e-4
-1.172, -4.762e-4
-1.171, -4.694e-4
-1.170, -4.659e-4
-1.169, -4.791e-4
-1.168, -4.773e-4
-1.167, -4.689e-4
-1.166, -4.794e-4
-1.165, -4.851e-4
-1.164, -4.748e-4
-1.163, -4.778e-4
-1.162, -4.880e-4
-1.161, -4.801e-4
-1.160, -4.763e-4
-1.159, -4.892e-4
-1.158, -4.883e-4
-1.157, -4.786e-4
-1.156, -4.894e-4
-1.155, -4.951e-4
-1.154, -4.845e-4
-1.153, -4.886e-4
-1.152, -4.989e-4
-1.151, -4.908e-4
-1.150, -4.871e-4
-1.149, -4.988e-4
-1.148, -4.982e-4
-1.147, -4.882e-4
-1.146, -4.973e-4
-1.145, -5.022e-4
-1.144, -4.894e-4
-1.143, -4.918e-4
-1.142, -5.037e-4
-1.141, -4.950e-4
-1.140, -4.918e-4
-1.139, -5.032e-4
-1.138, -5.006e-4
-1.137, -4.918e-4
-1.136, -5.020e-4
-1.135, -5.074e-4
-1.134, -4.957e-4
-1.133, -4.970e-4
-1.132, -5.081e-4
-1.131, -4.985e-4
-1.130, -4.942e-4
-1.129, -5.069e-4
-1.128, -5.041e-4
-1.127, -4.941e-4
-1.126, -5.037e-4
-1.125, -5.085e-4
-1.124, -4.977e-4
-1.123, -5.009e-4
-1.122, -5.108e-4
-1.121, -5.030e-4
-1.120, -4.973e-4
-1.119, -5.100e-4
-1.118, -5.072e-4
-1.117, -4.966e-4
-1.116, -5.056e-4
-1.115, -5.096e-4
-1.114, -4.970e-4
-1.113, -4.996e-4
-1.112, -5.106e-4
-1.111, -5.026e-4
-1.110, -4.984e-4
-1.109, -5.106e-4
-1.108, -5.082e-4
-1.107, -4.977e-4
-1.106, -5.075e-4
-1.105, -5.126e-4
-1.104, -4.999e-4
-1.103, -5.023e-4
-1.102, -5.124e-4
-1.101, -5.030e-4
-1.100, -4.991e-4
-1.099, -5.108e-4
-1.098, -5.089e-4
-1.097, -4.987e-4
-1.096, -5.076e-4
-1.095, -5.122e-4
-1.094, -4.998e-4
-1.093, -5.021e-4
-1.092, -5.124e-4
-1.091, -5.030e-4
-1.090, -4.985e-4
-1.089, -5.102e-4
-1.088, -5.075e-4
-1.087, -4.980e-4
-1.086, -5.081e-4
-1.085, -5.115e-4
-1.084, -4.996e-4
-1.083, -5.022e-4
-1.082, -5.126e-4
-1.081, -5.039e-4
-1.080, -4.985e-4
-1.079, -5.103e-4
-1.078, -5.087e-4
-1.077, -4.977e-4
-1.076, -5.078e-4
-1.075, -5.128e-4
-1.074, -5.010e-4
-1.073, -5.040e-4
-1.072, -5.131e-4
-1.071, -5.038e-4
-1.070, -4.992e-4
-1.069, -5.107e-4
-1.068, -5.092e-4
-1.067, -4.989e-4
-1.066, -5.079e-4
-1.065, -5.126e-4
-1.064, -5.012e-4
-1.063, -5.048e-4
-1.062, -5.157e-4
-1.061, -5.056e-4
-1.060, -5.014e-4
-1.059, -5.133e-4
-1.058, -5.106e-4
-1.057, -5.015e-4
-1.056, -5.103e-4
-1.055, -5.140e-4
-1.054, -5.026e-4
-1.053, -5.050e-4
-1.052, -5.148e-4
-1.051, -5.051e-4
-1.050, -5.018e-4
-1.049, -5.141e-4
-1.048, -5.108e-4
-1.047, -5.005e-4
-1.046, -5.100e-4
-1.045, -5.144e-4
-1.044, -5.034e-4
-1.043, -5.069e-4
-1.042, -5.171e-4
-1.041, -5.081e-4
-1.040, -5.037e-4
-1.039, -5.159e-4
-1.038, -5.128e-4
-1.037, -5.039e-4
-1.036, -5.136e-4
-1.035, -5.175e-4
-1.034, -5.065e-4
-1.033, -5.105e-4
-1.032, -5.202e-4
-1.031, -5.117e-4
-1.030, -5.076e-4
-1.029, -5.188e-4
-1.028, -5.161e-4
-1.027, -5.066e-4
-1.026, -5.162e-4
-1.025, -5.213e-4
-1.024, -5.108e-4
-1.023, -5.146e-4
-1.022, -5.252e-4
-1.021, -5.156e-4
-1.020, -5.128e-4
-1.019, -5.246e-4
-1.018, -5.218e-4
-1.017, -5.129e-4
-1.016, -5.220e-4
-1.015, -5.265e-4
-1.014, -5.154e-4
-1.013, -5.181e-4
-1.012, -5.280e-4
-1.011, -5.186e-4
-1.010, -5.151e-4
-1.009, -5.281e-4
-1.008, -5.252e-4
-1.007, -5.164e-4
-1.006, -5.274e-4
-1.005, -5.313e-4
-1.004, -5.207e-4
-1.003, -5.247e-4
-1.002, -5.354e-4
-1.001, -5.267e-4
