Sept. 22, 2024   17:00:40
Cyclic Voltammetry
File: c:/users/guazh/data/20240922_batch_417_500/2024-09-22-exp418\exp418-2024-09-22t16_49_22-arkoh\exp418_cv_sr_500mvs_efin_-1500mv.bin
Data Source:  Experiment
Instrument Model:  CHI760E
Header: CV ran at 500 mVs
Note: 

Init E (V) = -1
High E (V) = -1
Low E (V) = -1.5
Final E (V) = -1
Init P/N = N
Scan Rate (V/s) = 0.5
Segment = 3
Sample Interval (V) = 0.001
Quiet Time (sec) = 2
Sensitivity (A/V) = 0.01
Comp R (ohm) = 1.9

Results:

Channel 1:
Segment 1:

Segment 2:

Segment 3:

Potential/V, Current/A

-1.000, 1.865e-5
-1.001, 7.723e-5
-1.002, 1.173e-4
-1.003, 1.420e-4
-1.004, 1.636e-4
-1.005, 1.759e-4
-1.006, 1.851e-4
-1.007, 1.913e-4
-1.008, 2.006e-4
-1.009, 2.036e-4
-1.010, 2.098e-4
-1.011, 2.129e-4
-1.012, 2.129e-4
-1.013, 2.129e-4
-1.014, 2.160e-4
-1.015, 2.160e-4
-1.016, 2.191e-4
-1.017, 2.221e-4
-1.018, 2.221e-4
-1.019, 2.221e-4
-1.020, 2.252e-4
-1.021, 2.252e-4
-1.022, 2.252e-4
-1.023, 2.252e-4
-1.024, 2.283e-4
-1.025, 2.283e-4
-1.026, 2.283e-4
-1.027, 2.283e-4
-1.028, 2.314e-4
-1.029, 2.314e-4
-1.030, 2.314e-4
-1.031, 2.314e-4
-1.032, 2.345e-4
-1.033, 2.345e-4
-1.034, 2.345e-4
-1.035, 2.345e-4
-1.036, 2.376e-4
-1.037, 2.345e-4
-1.038, 2.345e-4
-1.039, 2.345e-4
-1.040, 2.345e-4
-1.041, 2.376e-4
-1.042, 2.376e-4
-1.043, 2.406e-4
-1.044, 2.406e-4
-1.045, 2.406e-4
-1.046, 2.406e-4
-1.047, 2.406e-4
-1.048, 2.406e-4
-1.049, 2.406e-4
-1.050, 2.406e-4
-1.051, 2.406e-4
-1.052, 2.437e-4
-1.053, 2.437e-4
-1.054, 2.437e-4
-1.055, 2.437e-4
-1.056, 2.437e-4
-1.057, 2.468e-4
-1.058, 2.468e-4
-1.059, 2.468e-4
-1.060, 2.468e-4
-1.061, 2.468e-4
-1.062, 2.468e-4
-1.063, 2.468e-4
-1.064, 2.468e-4
-1.065, 2.468e-4
-1.066, 2.468e-4
-1.067, 2.499e-4
-1.068, 2.499e-4
-1.069, 2.499e-4
-1.070, 2.499e-4
-1.071, 2.499e-4
-1.072, 2.499e-4
-1.073, 2.499e-4
-1.074, 2.499e-4
-1.075, 2.499e-4
-1.076, 2.530e-4
-1.077, 2.530e-4
-1.078, 2.530e-4
-1.079, 2.499e-4
-1.080, 2.499e-4
-1.081, 2.530e-4
-1.082, 2.530e-4
-1.083, 2.530e-4
-1.084, 2.530e-4
-1.085, 2.530e-4
-1.086, 2.530e-4
-1.087, 2.530e-4
-1.088, 2.530e-4
-1.089, 2.530e-4
-1.090, 2.530e-4
-1.091, 2.530e-4
-1.092, 2.561e-4
-1.093, 2.561e-4
-1.094, 2.561e-4
-1.095, 2.530e-4
-1.096, 2.530e-4
-1.097, 2.530e-4
-1.098, 2.530e-4
-1.099, 2.530e-4
-1.100, 2.530e-4
-1.101, 2.561e-4
-1.102, 2.561e-4
-1.103, 2.561e-4
-1.104, 2.561e-4
-1.105, 2.561e-4
-1.106, 2.561e-4
-1.107, 2.561e-4
-1.108, 2.561e-4
-1.109, 2.561e-4
-1.110, 2.561e-4
-1.111, 2.561e-4
-1.112, 2.561e-4
-1.113, 2.561e-4
-1.114, 2.530e-4
-1.115, 2.561e-4
-1.116, 2.561e-4
-1.117, 2.561e-4
-1.118, 2.561e-4
-1.119, 2.561e-4
-1.120, 2.561e-4
-1.121, 2.561e-4
-1.122, 2.561e-4
-1.123, 2.561e-4
-1.124, 2.561e-4
-1.125, 2.561e-4
-1.126, 2.561e-4
-1.127, 2.591e-4
-1.128, 2.591e-4
-1.129, 2.561e-4
-1.130, 2.561e-4
-1.131, 2.561e-4
-1.132, 2.561e-4
-1.133, 2.561e-4
-1.134, 2.561e-4
-1.135, 2.561e-4
-1.136, 2.561e-4
-1.137, 2.591e-4
-1.138, 2.561e-4
-1.139, 2.561e-4
-1.140, 2.561e-4
-1.141, 2.561e-4
-1.142, 2.561e-4
-1.143, 2.591e-4
-1.144, 2.561e-4
-1.145, 2.561e-4
-1.146, 2.561e-4
-1.147, 2.561e-4
-1.148, 2.591e-4
-1.149, 2.591e-4
-1.150, 2.591e-4
-1.151, 2.591e-4
-1.152, 2.622e-4
-1.153, 2.591e-4
-1.154, 2.591e-4
-1.155, 2.561e-4
-1.156, 2.561e-4
-1.157, 2.561e-4
-1.158, 2.591e-4
-1.159, 2.591e-4
-1.160, 2.622e-4
-1.161, 2.622e-4
-1.162, 2.622e-4
-1.163, 2.622e-4
-1.164, 2.591e-4
-1.165, 2.591e-4
-1.166, 2.591e-4
-1.167, 2.591e-4
-1.168, 2.591e-4
-1.169, 2.622e-4
-1.170, 2.622e-4
-1.171, 2.622e-4
-1.172, 2.622e-4
-1.173, 2.653e-4
-1.174, 2.622e-4
-1.175, 2.653e-4
-1.176, 2.653e-4
-1.177, 2.653e-4
-1.178, 2.653e-4
-1.179, 2.653e-4
-1.180, 2.653e-4
-1.181, 2.653e-4
-1.182, 2.653e-4
-1.183, 2.653e-4
-1.184, 2.684e-4
-1.185, 2.684e-4
-1.186, 2.715e-4
-1.187, 2.715e-4
-1.188, 2.715e-4
-1.189, 2.715e-4
-1.190, 2.684e-4
-1.191, 2.715e-4
-1.192, 2.715e-4
-1.193, 2.746e-4
-1.194, 2.746e-4
-1.195, 2.715e-4
-1.196, 2.746e-4
-1.197, 2.746e-4
-1.198, 2.746e-4
-1.199, 2.746e-4
-1.200, 2.776e-4
-1.201, 2.776e-4
-1.202, 2.807e-4
-1.203, 2.807e-4
-1.204, 2.807e-4
-1.205, 2.807e-4
-1.206, 2.807e-4
-1.207, 2.838e-4
-1.208, 2.838e-4
-1.209, 2.869e-4
-1.210, 2.869e-4
-1.211, 2.869e-4
-1.212, 2.869e-4
-1.213, 2.869e-4
-1.214, 2.900e-4
-1.215, 2.900e-4
-1.216, 2.931e-4
-1.217, 2.931e-4
-1.218, 2.961e-4
-1.219, 2.961e-4
-1.220, 2.961e-4
-1.221, 2.992e-4
-1.222, 2.992e-4
-1.223, 2.992e-4
-1.224, 2.992e-4
-1.225, 3.023e-4
-1.226, 3.023e-4
-1.227, 3.054e-4
-1.228, 3.085e-4
-1.229, 3.115e-4
-1.230, 3.115e-4
-1.231, 3.115e-4
-1.232, 3.146e-4
-1.233, 3.146e-4
-1.234, 3.177e-4
-1.235, 3.208e-4
-1.236, 3.208e-4
-1.237, 3.239e-4
-1.238, 3.239e-4
-1.239, 3.270e-4
-1.240, 3.270e-4
-1.241, 3.300e-4
-1.242, 3.331e-4
-1.243, 3.331e-4
-1.244, 3.362e-4
-1.245, 3.362e-4
-1.246, 3.393e-4
-1.247, 3.393e-4
-1.248, 3.455e-4
-1.249, 3.485e-4
-1.250, 3.516e-4
-1.251, 3.516e-4
-1.252, 3.578e-4
-1.253, 3.578e-4
-1.254, 3.609e-4
-1.255, 3.640e-4
-1.256, 3.640e-4
-1.257, 3.640e-4
-1.258, 3.670e-4
-1.259, 3.701e-4
-1.260, 3.763e-4
-1.261, 3.794e-4
-1.262, 3.825e-4
-1.263, 3.855e-4
-1.264, 3.886e-4
-1.265, 3.917e-4
-1.266, 3.948e-4
-1.267, 3.979e-4
-1.268, 4.040e-4
-1.269, 4.071e-4
-1.270, 4.071e-4
-1.271, 4.102e-4
-1.272, 4.133e-4
-1.273, 4.195e-4
-1.274, 4.225e-4
-1.275, 4.256e-4
-1.276, 4.349e-4
-1.277, 4.380e-4
-1.278, 4.410e-4
-1.279, 4.472e-4
-1.280, 4.472e-4
-1.281, 4.503e-4
-1.282, 4.534e-4
-1.283, 4.595e-4
-1.284, 4.657e-4
-1.285, 4.719e-4
-1.286, 4.780e-4
-1.287, 4.811e-4
-1.288, 4.873e-4
-1.289, 4.904e-4
-1.290, 4.935e-4
-1.291, 4.996e-4
-1.292, 5.058e-4
-1.293, 5.089e-4
-1.294, 5.150e-4
-1.295, 5.212e-4
-1.296, 5.243e-4
-1.297, 5.305e-4
-1.298, 5.366e-4
-1.299, 5.428e-4
-1.300, 5.520e-4
-1.301, 5.551e-4
-1.302, 5.644e-4
-1.303, 5.705e-4
-1.304, 5.767e-4
-1.305, 5.798e-4
-1.306, 5.859e-4
-1.307, 5.921e-4
-1.308, 6.014e-4
-1.309, 6.106e-4
-1.310, 6.168e-4
-1.311, 6.260e-4
-1.312, 6.322e-4
-1.313, 6.384e-4
-1.314, 6.445e-4
-1.315, 6.507e-4
-1.316, 6.569e-4
-1.317, 6.661e-4
-1.318, 6.754e-4
-1.319, 6.815e-4
-1.320, 6.877e-4
-1.321, 6.969e-4
-1.322, 7.062e-4
-1.323, 7.154e-4
-1.324, 7.278e-4
-1.325, 7.370e-4
-1.326, 7.463e-4
-1.327, 7.524e-4
-1.328, 7.586e-4
-1.329, 7.679e-4
-1.330, 7.740e-4
-1.331, 7.833e-4
-1.332, 7.956e-4
-1.333, 8.079e-4
-1.334, 8.203e-4
-1.335, 8.326e-4
-1.336, 8.418e-4
-1.337, 8.511e-4
-1.338, 8.603e-4
-1.339, 8.696e-4
-1.340, 8.758e-4
-1.341, 8.881e-4
-1.342, 9.004e-4
-1.343, 9.128e-4
-1.344, 9.282e-4
-1.345, 9.405e-4
-1.346, 9.528e-4
-1.347, 9.621e-4
-1.348, 9.744e-4
-1.349, 9.837e-4
-1.350, 9.960e-4
-1.351, 1.005e-3
-1.352, 1.018e-3
-1.353, 1.030e-3
-1.354, 1.045e-3
-1.355, 1.058e-3
-1.356, 1.076e-3
-1.357, 1.092e-3
-1.358, 1.107e-3
-1.359, 1.119e-3
-1.360, 1.132e-3
-1.361, 1.147e-3
-1.362, 1.156e-3
-1.363, 1.169e-3
-1.364, 1.184e-3
-1.365, 1.196e-3
-1.366, 1.212e-3
-1.367, 1.230e-3
-1.368, 1.249e-3
-1.369, 1.267e-3
-1.370, 1.286e-3
-1.371, 1.301e-3
-1.372, 1.317e-3
-1.373, 1.329e-3
-1.374, 1.341e-3
-1.375, 1.354e-3
-1.376, 1.369e-3
-1.377, 1.388e-3
-1.378, 1.406e-3
-1.379, 1.428e-3
-1.380, 1.449e-3
-1.381, 1.471e-3
-1.382, 1.492e-3
-1.383, 1.511e-3
-1.384, 1.529e-3
-1.385, 1.545e-3
-1.386, 1.557e-3
-1.387, 1.573e-3
-1.388, 1.591e-3
-1.389, 1.610e-3
-1.390, 1.628e-3
-1.391, 1.653e-3
-1.392, 1.677e-3
-1.393, 1.699e-3
-1.394, 1.724e-3
-1.395, 1.742e-3
-1.396, 1.764e-3
-1.397, 1.782e-3
-1.398, 1.801e-3
-1.399, 1.816e-3
-1.400, 1.835e-3
-1.401, 1.856e-3
-1.402, 1.878e-3
-1.403, 1.906e-3
-1.404, 1.930e-3
-1.405, 1.958e-3
-1.406, 1.986e-3
-1.407, 2.007e-3
-1.408, 2.029e-3
-1.409, 2.050e-3
-1.410, 2.069e-3
-1.411, 2.091e-3
-1.412, 2.112e-3
-1.413, 2.137e-3
-1.414, 2.164e-3
-1.415, 2.192e-3
-1.416, 2.217e-3
-1.417, 2.245e-3
-1.418, 2.269e-3
-1.419, 2.297e-3
-1.420, 2.319e-3
-1.421, 2.343e-3
-1.422, 2.368e-3
-1.423, 2.393e-3
-1.424, 2.420e-3
-1.425, 2.448e-3
-1.426, 2.479e-3
-1.427, 2.510e-3
-1.428, 2.541e-3
-1.429, 2.571e-3
-1.430, 2.596e-3
-1.431, 2.621e-3
-1.432, 2.642e-3
-1.433, 2.667e-3
-1.434, 2.689e-3
-1.435, 2.716e-3
-1.436, 2.750e-3
-1.437, 2.781e-3
-1.438, 2.818e-3
-1.439, 2.852e-3
-1.440, 2.883e-3
-1.441, 2.917e-3
-1.442, 2.945e-3
-1.443, 2.972e-3
-1.444, 3.000e-3
-1.445, 3.028e-3
-1.446, 3.059e-3
-1.447, 3.089e-3
-1.448, 3.123e-3
-1.449, 3.160e-3
-1.450, 3.194e-3
-1.451, 3.222e-3
-1.452, 3.253e-3
-1.453, 3.284e-3
-1.454, 3.318e-3
-1.455, 3.345e-3
-1.456, 3.379e-3
-1.457, 3.410e-3
-1.458, 3.444e-3
-1.459, 3.478e-3
-1.460, 3.515e-3
-1.461, 3.549e-3
-1.462, 3.586e-3
-1.463, 3.623e-3
-1.464, 3.654e-3
-1.465, 3.684e-3
-1.466, 3.712e-3
-1.467, 3.740e-3
-1.468, 3.774e-3
-1.469, 3.808e-3
-1.470, 3.848e-3
-1.471, 3.891e-3
-1.472, 3.934e-3
-1.473, 3.971e-3
-1.474, 4.008e-3
-1.475, 4.039e-3
-1.476, 4.073e-3
-1.477, 4.107e-3
-1.478, 4.141e-3
-1.479, 4.172e-3
-1.480, 4.206e-3
-1.481, 4.243e-3
-1.482, 4.283e-3
-1.483, 4.323e-3
-1.484, 4.369e-3
-1.485, 4.412e-3
-1.486, 4.455e-3
-1.487, 4.492e-3
-1.488, 4.529e-3
-1.489, 4.560e-3
-1.490, 4.588e-3
-1.491, 4.622e-3
-1.492, 4.659e-3
-1.493, 4.702e-3
-1.494, 4.748e-3
-1.495, 4.797e-3
-1.496, 4.844e-3
-1.497, 4.893e-3
-1.498, 4.933e-3
-1.499, 4.973e-3
-1.500, 4.958e-3
-1.499, 4.862e-3
-1.498, 4.791e-3
-1.497, 4.727e-3
-1.496, 4.677e-3
-1.495, 4.631e-3
-1.494, 4.588e-3
-1.493, 4.554e-3
-1.492, 4.517e-3
-1.491, 4.483e-3
-1.490, 4.440e-3
-1.489, 4.394e-3
-1.488, 4.341e-3
-1.487, 4.286e-3
-1.486, 4.233e-3
-1.485, 4.184e-3
-1.484, 4.141e-3
-1.483, 4.101e-3
-1.482, 4.070e-3
-1.481, 4.036e-3
-1.480, 3.999e-3
-1.479, 3.956e-3
-1.478, 3.910e-3
-1.477, 3.863e-3
-1.476, 3.814e-3
-1.475, 3.765e-3
-1.474, 3.715e-3
-1.473, 3.672e-3
-1.472, 3.635e-3
-1.471, 3.601e-3
-1.470, 3.570e-3
-1.469, 3.540e-3
-1.468, 3.509e-3
-1.467, 3.472e-3
-1.466, 3.432e-3
-1.465, 3.385e-3
-1.464, 3.339e-3
-1.463, 3.293e-3
-1.462, 3.247e-3
-1.461, 3.207e-3
-1.460, 3.167e-3
-1.459, 3.136e-3
-1.458, 3.108e-3
-1.457, 3.077e-3
-1.456, 3.046e-3
-1.455, 3.009e-3
-1.454, 2.972e-3
-1.453, 2.929e-3
-1.452, 2.886e-3
-1.451, 2.843e-3
-1.450, 2.806e-3
-1.449, 2.772e-3
-1.448, 2.747e-3
-1.447, 2.723e-3
-1.446, 2.695e-3
-1.445, 2.667e-3
-1.444, 2.633e-3
-1.443, 2.599e-3
-1.442, 2.559e-3
-1.441, 2.519e-3
-1.440, 2.479e-3
-1.439, 2.442e-3
-1.438, 2.408e-3
-1.437, 2.374e-3
-1.436, 2.346e-3
-1.435, 2.322e-3
-1.434, 2.297e-3
-1.433, 2.272e-3
-1.432, 2.248e-3
-1.431, 2.220e-3
-1.430, 2.183e-3
-1.429, 2.149e-3
-1.428, 2.112e-3
-1.427, 2.078e-3
-1.426, 2.047e-3
-1.425, 2.020e-3
-1.424, 1.998e-3
-1.423, 1.976e-3
-1.422, 1.955e-3
-1.421, 1.930e-3
-1.420, 1.902e-3
-1.419, 1.875e-3
-1.418, 1.844e-3
-1.417, 1.813e-3
-1.416, 1.785e-3
-1.415, 1.754e-3
-1.414, 1.730e-3
-1.413, 1.705e-3
-1.412, 1.684e-3
-1.411, 1.662e-3
-1.410, 1.640e-3
-1.409, 1.616e-3
-1.408, 1.591e-3
-1.407, 1.563e-3
-1.406, 1.539e-3
-1.405, 1.511e-3
-1.404, 1.483e-3
-1.403, 1.458e-3
-1.402, 1.437e-3
-1.401, 1.415e-3
-1.400, 1.397e-3
-1.399, 1.378e-3
-1.398, 1.360e-3
-1.397, 1.338e-3
-1.396, 1.317e-3
-1.395, 1.292e-3
-1.394, 1.270e-3
-1.393, 1.246e-3
-1.392, 1.224e-3
-1.391, 1.206e-3
-1.390, 1.184e-3
-1.389, 1.166e-3
-1.388, 1.147e-3
-1.387, 1.132e-3
-1.386, 1.113e-3
-1.385, 1.095e-3
-1.384, 1.073e-3
-1.383, 1.055e-3
-1.382, 1.033e-3
-1.381, 1.011e-3
-1.380, 9.929e-4
-1.379, 9.744e-4
-1.378, 9.559e-4
-1.377, 9.374e-4
-1.376, 9.220e-4
-1.375, 9.035e-4
-1.374, 8.881e-4
-1.373, 8.727e-4
-1.372, 8.542e-4
-1.371, 8.388e-4
-1.370, 8.203e-4
-1.369, 8.048e-4
-1.368, 7.863e-4
-1.367, 7.709e-4
-1.366, 7.555e-4
-1.365, 7.401e-4
-1.364, 7.216e-4
-1.363, 7.062e-4
-1.362, 6.908e-4
-1.361, 6.754e-4
-1.360, 6.599e-4
-1.359, 6.507e-4
-1.358, 6.384e-4
-1.357, 6.260e-4
-1.356, 6.106e-4
-1.355, 5.952e-4
-1.354, 5.767e-4
-1.353, 5.613e-4
-1.352, 5.459e-4
-1.351, 5.305e-4
-1.350, 5.181e-4
-1.349, 5.058e-4
-1.348, 4.965e-4
-1.347, 4.873e-4
-1.346, 4.750e-4
-1.345, 4.626e-4
-1.344, 4.534e-4
-1.343, 4.380e-4
-1.342, 4.256e-4
-1.341, 4.133e-4
-1.340, 4.010e-4
-1.339, 3.886e-4
-1.338, 3.763e-4
-1.337, 3.640e-4
-1.336, 3.547e-4
-1.335, 3.424e-4
-1.334, 3.331e-4
-1.333, 3.239e-4
-1.332, 3.146e-4
-1.331, 3.054e-4
-1.330, 2.931e-4
-1.329, 2.838e-4
-1.328, 2.715e-4
-1.327, 2.622e-4
-1.326, 2.530e-4
-1.325, 2.437e-4
-1.324, 2.314e-4
-1.323, 2.252e-4
-1.322, 2.160e-4
-1.321, 2.067e-4
-1.320, 1.975e-4
-1.319, 1.882e-4
-1.318, 1.821e-4
-1.317, 1.728e-4
-1.316, 1.636e-4
-1.315, 1.574e-4
-1.314, 1.481e-4
-1.313, 1.389e-4
-1.312, 1.327e-4
-1.311, 1.235e-4
-1.310, 1.142e-4
-1.309, 1.111e-4
-1.308, 1.019e-4
-1.307, 9.573e-5
-1.306, 8.957e-5
-1.305, 8.032e-5
-1.304, 7.415e-5
-1.303, 6.490e-5
-1.302, 5.873e-5
-1.301, 5.257e-5
-1.300, 4.640e-5
-1.299, 4.024e-5
-1.298, 3.715e-5
-1.297, 2.790e-5
-1.296, 2.174e-5
-1.295, 1.557e-5
-1.294, 9.405e-6
-1.293, 3.239e-6
-1.292, -2.927e-6
-1.291, -9.093e-6
-1.290, -1.218e-5
-1.289, -1.834e-5
-1.288, -2.143e-5
-1.287, -3.068e-5
-1.286, -3.376e-5
-1.285, -3.992e-5
-1.284, -4.301e-5
-1.283, -4.917e-5
-1.282, -5.226e-5
-1.281, -5.534e-5
-1.280, -6.459e-5
-1.279, -6.767e-5
-1.278, -7.384e-5
-1.277, -7.692e-5
-1.276, -8.000e-5
-1.275, -8.309e-5
-1.274, -8.925e-5
-1.273, -9.234e-5
-1.272, -9.542e-5
-1.271, -1.016e-4
-1.270, -1.078e-4
-1.269, -1.108e-4
-1.268, -1.139e-4
-1.267, -1.170e-4
-1.266, -1.201e-4
-1.265, -1.232e-4
-1.264, -1.263e-4
-1.263, -1.293e-4
-1.262, -1.324e-4
-1.261, -1.355e-4
-1.260, -1.417e-4
-1.259, -1.448e-4
-1.258, -1.478e-4
-1.257, -1.509e-4
-1.256, -1.509e-4
-1.255, -1.540e-4
-1.254, -1.571e-4
-1.253, -1.602e-4
-1.252, -1.632e-4
-1.251, -1.663e-4
-1.250, -1.694e-4
-1.249, -1.725e-4
-1.248, -1.725e-4
-1.247, -1.756e-4
-1.246, -1.787e-4
-1.245, -1.817e-4
-1.244, -1.848e-4
-1.243, -1.879e-4
-1.242, -1.879e-4
-1.241, -1.910e-4
-1.240, -1.910e-4
-1.239, -1.941e-4
-1.238, -1.972e-4
-1.237, -2.002e-4
-1.236, -2.033e-4
-1.235, -2.064e-4
-1.234, -2.064e-4
-1.233, -2.095e-4
-1.232, -2.095e-4
-1.231, -2.095e-4
-1.230, -2.126e-4
-1.229, -2.157e-4
-1.228, -2.187e-4
-1.227, -2.218e-4
-1.226, -2.218e-4
-1.225, -2.218e-4
-1.224, -2.218e-4
-1.223, -2.249e-4
-1.222, -2.249e-4
-1.221, -2.280e-4
-1.220, -2.311e-4
-1.219, -2.311e-4
-1.218, -2.342e-4
-1.217, -2.342e-4
-1.216, -2.342e-4
-1.215, -2.342e-4
-1.214, -2.342e-4
-1.213, -2.372e-4
-1.212, -2.403e-4
-1.211, -2.434e-4
-1.210, -2.434e-4
-1.209, -2.434e-4
-1.208, -2.434e-4
-1.207, -2.434e-4
-1.206, -2.465e-4
-1.205, -2.465e-4
-1.204, -2.496e-4
-1.203, -2.496e-4
-1.202, -2.527e-4
-1.201, -2.527e-4
-1.200, -2.527e-4
-1.199, -2.557e-4
-1.198, -2.527e-4
-1.197, -2.557e-4
-1.196, -2.557e-4
-1.195, -2.557e-4
-1.194, -2.588e-4
-1.193, -2.588e-4
-1.192, -2.588e-4
-1.191, -2.588e-4
-1.190, -2.619e-4
-1.189, -2.619e-4
-1.188, -2.619e-4
-1.187, -2.650e-4
-1.186, -2.650e-4
-1.185, -2.650e-4
-1.184, -2.650e-4
-1.183, -2.650e-4
-1.182, -2.650e-4
-1.181, -2.650e-4
-1.180, -2.681e-4
-1.179, -2.681e-4
-1.178, -2.681e-4
-1.177, -2.712e-4
-1.176, -2.712e-4
-1.175, -2.712e-4
-1.174, -2.712e-4
-1.173, -2.681e-4
-1.172, -2.681e-4
-1.171, -2.712e-4
-1.170, -2.712e-4
-1.169, -2.712e-4
-1.168, -2.742e-4
-1.167, -2.742e-4
-1.166, -2.742e-4
-1.165, -2.742e-4
-1.164, -2.742e-4
-1.163, -2.742e-4
-1.162, -2.773e-4
-1.161, -2.742e-4
-1.160, -2.773e-4
-1.159, -2.742e-4
-1.158, -2.742e-4
-1.157, -2.742e-4
-1.156, -2.742e-4
-1.155, -2.773e-4
-1.154, -2.773e-4
-1.153, -2.804e-4
-1.152, -2.773e-4
-1.151, -2.804e-4
-1.150, -2.773e-4
-1.149, -2.773e-4
-1.148, -2.773e-4
-1.147, -2.773e-4
-1.146, -2.773e-4
-1.145, -2.804e-4
-1.144, -2.804e-4
-1.143, -2.804e-4
-1.142, -2.804e-4
-1.141, -2.804e-4
-1.140, -2.804e-4
-1.139, -2.773e-4
-1.138, -2.773e-4
-1.137, -2.804e-4
-1.136, -2.804e-4
-1.135, -2.804e-4
-1.134, -2.804e-4
-1.133, -2.804e-4
-1.132, -2.835e-4
-1.131, -2.804e-4
-1.130, -2.835e-4
-1.129, -2.835e-4
-1.128, -2.804e-4
-1.127, -2.835e-4
-1.126, -2.835e-4
-1.125, -2.835e-4
-1.124, -2.804e-4
-1.123, -2.804e-4
-1.122, -2.835e-4
-1.121, -2.835e-4
-1.120, -2.835e-4
-1.119, -2.866e-4
-1.118, -2.866e-4
-1.117, -2.835e-4
-1.116, -2.835e-4
-1.115, -2.835e-4
-1.114, -2.835e-4
-1.113, -2.835e-4
-1.112, -2.835e-4
-1.111, -2.835e-4
-1.110, -2.866e-4
-1.109, -2.866e-4
-1.108, -2.866e-4
-1.107, -2.866e-4
-1.106, -2.835e-4
-1.105, -2.866e-4
-1.104, -2.866e-4
-1.103, -2.866e-4
-1.102, -2.866e-4
-1.101, -2.866e-4
-1.100, -2.866e-4
-1.099, -2.866e-4
-1.098, -2.866e-4
-1.097, -2.866e-4
-1.096, -2.866e-4
-1.095, -2.897e-4
-1.094, -2.897e-4
-1.093, -2.927e-4
-1.092, -2.927e-4
-1.091, -2.897e-4
-1.090, -2.866e-4
-1.089, -2.866e-4
-1.088, -2.866e-4
-1.087, -2.866e-4
-1.086, -2.897e-4
-1.085, -2.897e-4
-1.084, -2.927e-4
-1.083, -2.927e-4
-1.082, -2.927e-4
-1.081, -2.927e-4
-1.080, -2.927e-4
-1.079, -2.927e-4
-1.078, -2.927e-4
-1.077, -2.927e-4
-1.076, -2.927e-4
-1.075, -2.927e-4
-1.074, -2.927e-4
-1.073, -2.927e-4
-1.072, -2.958e-4
-1.071, -2.958e-4
-1.070, -2.989e-4
-1.069, -2.989e-4
-1.068, -2.989e-4
-1.067, -2.989e-4
-1.066, -2.958e-4
-1.065, -2.958e-4
-1.064, -2.958e-4
-1.063, -2.989e-4
-1.062, -2.989e-4
-1.061, -2.989e-4
-1.060, -2.989e-4
-1.059, -2.989e-4
-1.058, -3.020e-4
-1.057, -3.020e-4
-1.056, -2.989e-4
-1.055, -3.020e-4
-1.054, -3.020e-4
-1.053, -3.051e-4
-1.052, -3.051e-4
-1.051, -3.051e-4
-1.050, -3.051e-4
-1.049, -3.051e-4
-1.048, -3.051e-4
-1.047, -3.051e-4
-1.046, -3.082e-4
-1.045, -3.082e-4
-1.044, -3.082e-4
-1.043, -3.082e-4
-1.042, -3.082e-4
-1.041, -3.082e-4
-1.040, -3.082e-4
-1.039, -3.082e-4
-1.038, -3.112e-4
-1.037, -3.112e-4
-1.036, -3.143e-4
-1.035, -3.143e-4
-1.034, -3.143e-4
-1.033, -3.143e-4
-1.032, -3.143e-4
-1.031, -3.143e-4
-1.030, -3.143e-4
-1.029, -3.174e-4
-1.028, -3.174e-4
-1.027, -3.174e-4
-1.026, -3.205e-4
-1.025, -3.174e-4
-1.024, -3.205e-4
-1.023, -3.205e-4
-1.022, -3.205e-4
-1.021, -3.205e-4
-1.020, -3.236e-4
-1.019, -3.267e-4
-1.018, -3.267e-4
-1.017, -3.267e-4
-1.016, -3.267e-4
-1.015, -3.267e-4
-1.014, -3.267e-4
-1.013, -3.267e-4
-1.012, -3.297e-4
-1.011, -3.297e-4
-1.010, -3.297e-4
-1.009, -3.328e-4
-1.008, -3.328e-4
-1.007, -3.328e-4
-1.006, -3.328e-4
-1.005, -3.359e-4
-1.004, -3.390e-4
-1.003, -3.390e-4
-1.002, -3.390e-4
-1.001, -3.390e-4
