Apr. 26, 2025   04:38:13
Cyclic Voltammetry
File: c:/users/guazh/data/banditlqround7_x0exp590_r20/2025-04-16-exp1192\exp1192-2025-04-26t04_30_40-h2koh\exp1192_cv_sr_600mvs_efin_-1400mv.bin
Data Source:  Experiment
Instrument Model:  CHI760E
Header: CV ran at 600 mVs
Note: 

Init E (V) = -1
High E (V) = -1
Low E (V) = -1.4
Final E (V) = -1
Init P/N = N
Scan Rate (V/s) = 0.6
Segment = 3
Sample Interval (V) = 0.001
Quiet Time (sec) = 2
Sensitivity (A/V) = 0.01
Comp R (ohm) = 1.6

Results:

Channel 1:
Segment 1:

Segment 2:

Segment 3:

Potential/V, Current/A

-1.000, -1.324e-4
-1.001, 9.405e-6
-1.002, 1.296e-4
-1.003, 2.406e-4
-1.004, 3.362e-4
-1.005, 4.225e-4
-1.006, 5.027e-4
-1.007, 5.767e-4
-1.008, 6.445e-4
-1.009, 7.124e-4
-1.010, 7.771e-4
-1.011, 8.449e-4
-1.012, 9.066e-4
-1.013, 9.621e-4
-1.014, 1.014e-3
-1.015, 1.064e-3
-1.016, 1.107e-3
-1.017, 1.150e-3
-1.018, 1.193e-3
-1.019, 1.236e-3
-1.020, 1.280e-3
-1.021, 1.323e-3
-1.022, 1.366e-3
-1.023, 1.406e-3
-1.024, 1.443e-3
-1.025, 1.480e-3
-1.026, 1.511e-3
-1.027, 1.545e-3
-1.028, 1.576e-3
-1.029, 1.610e-3
-1.030, 1.647e-3
-1.031, 1.684e-3
-1.032, 1.717e-3
-1.033, 1.751e-3
-1.034, 1.785e-3
-1.035, 1.813e-3
-1.036, 1.844e-3
-1.037, 1.872e-3
-1.038, 1.899e-3
-1.039, 1.930e-3
-1.040, 1.961e-3
-1.041, 1.998e-3
-1.042, 2.029e-3
-1.043, 2.063e-3
-1.044, 2.097e-3
-1.045, 2.124e-3
-1.046, 2.152e-3
-1.047, 2.180e-3
-1.048, 2.208e-3
-1.049, 2.242e-3
-1.050, 2.275e-3
-1.051, 2.312e-3
-1.052, 2.346e-3
-1.053, 2.380e-3
-1.054, 2.414e-3
-1.055, 2.442e-3
-1.056, 2.473e-3
-1.057, 2.501e-3
-1.058, 2.531e-3
-1.059, 2.562e-3
-1.060, 2.596e-3
-1.061, 2.633e-3
-1.062, 2.670e-3
-1.063, 2.704e-3
-1.064, 2.735e-3
-1.065, 2.766e-3
-1.066, 2.797e-3
-1.067, 2.824e-3
-1.068, 2.858e-3
-1.069, 2.892e-3
-1.070, 2.929e-3
-1.071, 2.966e-3
-1.072, 3.003e-3
-1.073, 3.043e-3
-1.074, 3.077e-3
-1.075, 3.114e-3
-1.076, 3.145e-3
-1.077, 3.176e-3
-1.078, 3.210e-3
-1.079, 3.244e-3
-1.080, 3.281e-3
-1.081, 3.321e-3
-1.082, 3.358e-3
-1.083, 3.395e-3
-1.084, 3.432e-3
-1.085, 3.466e-3
-1.086, 3.499e-3
-1.087, 3.533e-3
-1.088, 3.567e-3
-1.089, 3.604e-3
-1.090, 3.644e-3
-1.091, 3.684e-3
-1.092, 3.725e-3
-1.093, 3.765e-3
-1.094, 3.802e-3
-1.095, 3.836e-3
-1.096, 3.869e-3
-1.097, 3.903e-3
-1.098, 3.940e-3
-1.099, 3.977e-3
-1.100, 4.017e-3
-1.101, 4.054e-3
-1.102, 4.098e-3
-1.103, 4.135e-3
-1.104, 4.169e-3
-1.105, 4.206e-3
-1.106, 4.239e-3
-1.107, 4.273e-3
-1.108, 4.307e-3
-1.109, 4.344e-3
-1.110, 4.384e-3
-1.111, 4.421e-3
-1.112, 4.461e-3
-1.113, 4.501e-3
-1.114, 4.538e-3
-1.115, 4.569e-3
-1.116, 4.603e-3
-1.117, 4.634e-3
-1.118, 4.671e-3
-1.119, 4.705e-3
-1.120, 4.742e-3
-1.121, 4.779e-3
-1.122, 4.819e-3
-1.123, 4.853e-3
-1.124, 4.890e-3
-1.125, 4.924e-3
-1.126, 4.958e-3
-1.127, 4.992e-3
-1.128, 5.029e-3
-1.129, 5.066e-3
-1.130, 5.106e-3
-1.131, 5.146e-3
-1.132, 5.186e-3
-1.133, 5.223e-3
-1.134, 5.263e-3
-1.135, 5.297e-3
-1.136, 5.331e-3
-1.137, 5.362e-3
-1.138, 5.399e-3
-1.139, 5.433e-3
-1.140, 5.473e-3
-1.141, 5.510e-3
-1.142, 5.550e-3
-1.143, 5.587e-3
-1.144, 5.618e-3
-1.145, 5.651e-3
-1.146, 5.685e-3
-1.147, 5.716e-3
-1.148, 5.750e-3
-1.149, 5.784e-3
-1.150, 5.824e-3
-1.151, 5.861e-3
-1.152, 5.901e-3
-1.153, 5.938e-3
-1.154, 5.972e-3
-1.155, 6.003e-3
-1.156, 6.037e-3
-1.157, 6.068e-3
-1.158, 6.102e-3
-1.159, 6.136e-3
-1.160, 6.173e-3
-1.161, 6.213e-3
-1.162, 6.253e-3
-1.163, 6.290e-3
-1.164, 6.327e-3
-1.165, 6.361e-3
-1.166, 6.391e-3
-1.167, 6.425e-3
-1.168, 6.456e-3
-1.169, 6.493e-3
-1.170, 6.533e-3
-1.171, 6.573e-3
-1.172, 6.610e-3
-1.173, 6.650e-3
-1.174, 6.687e-3
-1.175, 6.724e-3
-1.176, 6.758e-3
-1.177, 6.795e-3
-1.178, 6.832e-3
-1.179, 6.869e-3
-1.180, 6.909e-3
-1.181, 6.949e-3
-1.182, 6.993e-3
-1.183, 7.030e-3
-1.184, 7.070e-3
-1.185, 7.101e-3
-1.186, 7.134e-3
-1.187, 7.168e-3
-1.188, 7.202e-3
-1.189, 7.236e-3
-1.190, 7.276e-3
-1.191, 7.316e-3
-1.192, 7.356e-3
-1.193, 7.393e-3
-1.194, 7.430e-3
-1.195, 7.467e-3
-1.196, 7.501e-3
-1.197, 7.532e-3
-1.198, 7.569e-3
-1.199, 7.603e-3
-1.200, 7.643e-3
-1.201, 7.683e-3
-1.202, 7.723e-3
-1.203, 7.763e-3
-1.204, 7.800e-3
-1.205, 7.834e-3
-1.206, 7.868e-3
-1.207, 7.902e-3
-1.208, 7.936e-3
-1.209, 7.973e-3
-1.210, 8.010e-3
-1.211, 8.050e-3
-1.212, 8.090e-3
-1.213, 8.127e-3
-1.214, 8.161e-3
-1.215, 8.195e-3
-1.216, 8.226e-3
-1.217, 8.257e-3
-1.218, 8.291e-3
-1.219, 8.328e-3
-1.220, 8.365e-3
-1.221, 8.405e-3
-1.222, 8.445e-3
-1.223, 8.485e-3
-1.224, 8.522e-3
-1.225, 8.556e-3
-1.226, 8.590e-3
-1.227, 8.624e-3
-1.228, 8.651e-3
-1.229, 8.688e-3
-1.230, 8.722e-3
-1.231, 8.756e-3
-1.232, 8.793e-3
-1.233, 8.830e-3
-1.234, 8.867e-3
-1.235, 8.907e-3
-1.236, 8.941e-3
-1.237, 8.981e-3
-1.238, 9.018e-3
-1.239, 9.058e-3
-1.240, 9.098e-3
-1.241, 9.138e-3
-1.242, 9.179e-3
-1.243, 9.216e-3
-1.244, 9.249e-3
-1.245, 9.277e-3
-1.246, 9.305e-3
-1.247, 9.330e-3
-1.248, 9.354e-3
-1.249, 9.382e-3
-1.250, 9.413e-3
-1.251, 9.444e-3
-1.252, 9.475e-3
-1.253, 9.502e-3
-1.254, 9.533e-3
-1.255, 9.561e-3
-1.256, 9.586e-3
-1.257, 9.610e-3
-1.258, 9.635e-3
-1.259, 9.663e-3
-1.260, 9.690e-3
-1.261, 9.718e-3
-1.262, 9.746e-3
-1.263, 9.771e-3
-1.264, 9.795e-3
-1.265, 9.820e-3
-1.266, 9.841e-3
-1.267, 9.863e-3
-1.268, 9.885e-3
-1.269, 9.903e-3
-1.270, 9.925e-3
-1.271, 9.949e-3
-1.272, 9.971e-3
-1.273, 9.993e-3
-1.274, 1.001e-2
-1.275, 1.003e-2
-1.276, 1.004e-2
-1.277, 1.006e-2
-1.278, 1.008e-2
-1.279, 1.010e-2
-1.280, 1.013e-2
-1.281, 1.015e-2
-1.282, 1.018e-2
-1.283, 1.020e-2
-1.284, 1.022e-2
-1.285, 1.023e-2
-1.286, 1.024e-2
-1.287, 1.025e-2
-1.288, 1.026e-2
-1.289, 1.027e-2
-1.290, 1.028e-2
-1.291, 1.029e-2
-1.292, 1.030e-2
-1.293, 1.031e-2
-1.294, 1.031e-2
-1.295, 1.031e-2
-1.296, 1.030e-2
-1.297, 1.030e-2
-1.298, 1.030e-2
-1.299, 1.029e-2
-1.300, 1.029e-2
-1.301, 1.029e-2
-1.302, 1.028e-2
-1.303, 1.027e-2
-1.304, 1.026e-2
-1.305, 1.025e-2
-1.306, 1.024e-2
-1.307, 1.022e-2
-1.308, 1.021e-2
-1.309, 1.021e-2
-1.310, 1.020e-2
-1.311, 1.019e-2
-1.312, 1.018e-2
-1.313, 1.017e-2
-1.314, 1.016e-2
-1.315, 1.014e-2
-1.316, 1.013e-2
-1.317, 1.010e-2
-1.318, 1.009e-2
-1.319, 1.007e-2
-1.320, 1.005e-2
-1.321, 1.004e-2
-1.322, 1.002e-2
-1.323, 1.000e-2
-1.324, 9.980e-3
-1.325, 9.956e-3
-1.326, 9.931e-3
-1.327, 9.906e-3
-1.328, 9.882e-3
-1.329, 9.857e-3
-1.330, 9.835e-3
-1.331, 9.814e-3
-1.332, 9.792e-3
-1.333, 9.764e-3
-1.334, 9.734e-3
-1.335, 9.697e-3
-1.336, 9.660e-3
-1.337, 9.619e-3
-1.338, 9.582e-3
-1.339, 9.545e-3
-1.340, 9.512e-3
-1.341, 9.475e-3
-1.342, 9.441e-3
-1.343, 9.401e-3
-1.344, 9.357e-3
-1.345, 9.311e-3
-1.346, 9.265e-3
-1.347, 9.216e-3
-1.348, 9.169e-3
-1.349, 9.126e-3
-1.350, 9.083e-3
-1.351, 9.043e-3
-1.352, 8.997e-3
-1.353, 8.950e-3
-1.354, 8.901e-3
-1.355, 8.846e-3
-1.356, 8.790e-3
-1.357, 8.735e-3
-1.358, 8.679e-3
-1.359, 8.630e-3
-1.360, 8.580e-3
-1.361, 8.534e-3
-1.362, 8.488e-3
-1.363, 8.442e-3
-1.364, 8.392e-3
-1.365, 8.340e-3
-1.366, 8.288e-3
-1.367, 8.235e-3
-1.368, 8.183e-3
-1.369, 8.133e-3
-1.370, 8.084e-3
-1.371, 8.041e-3
-1.372, 7.998e-3
-1.373, 7.948e-3
-1.374, 7.899e-3
-1.375, 7.847e-3
-1.376, 7.797e-3
-1.377, 7.745e-3
-1.378, 7.696e-3
-1.379, 7.646e-3
-1.380, 7.600e-3
-1.381, 7.557e-3
-1.382, 7.517e-3
-1.383, 7.477e-3
-1.384, 7.434e-3
-1.385, 7.387e-3
-1.386, 7.341e-3
-1.387, 7.295e-3
-1.388, 7.252e-3
-1.389, 7.212e-3
-1.390, 7.175e-3
-1.391, 7.138e-3
-1.392, 7.104e-3
-1.393, 7.067e-3
-1.394, 7.030e-3
-1.395, 6.993e-3
-1.396, 6.953e-3
-1.397, 6.916e-3
-1.398, 6.882e-3
-1.399, 6.851e-3
-1.400, 6.715e-3
-1.399, 6.395e-3
-1.398, 6.105e-3
-1.397, 5.836e-3
-1.396, 5.578e-3
-1.395, 5.334e-3
-1.394, 5.097e-3
-1.393, 4.875e-3
-1.392, 4.662e-3
-1.391, 4.461e-3
-1.390, 4.270e-3
-1.389, 4.088e-3
-1.388, 3.916e-3
-1.387, 3.743e-3
-1.386, 3.577e-3
-1.385, 3.416e-3
-1.384, 3.259e-3
-1.383, 3.108e-3
-1.382, 2.960e-3
-1.381, 2.821e-3
-1.380, 2.692e-3
-1.379, 2.565e-3
-1.378, 2.442e-3
-1.377, 2.322e-3
-1.376, 2.205e-3
-1.375, 2.087e-3
-1.374, 1.976e-3
-1.373, 1.865e-3
-1.372, 1.758e-3
-1.371, 1.656e-3
-1.370, 1.560e-3
-1.369, 1.468e-3
-1.368, 1.378e-3
-1.367, 1.292e-3
-1.366, 1.206e-3
-1.365, 1.119e-3
-1.364, 1.033e-3
-1.363, 9.498e-4
-1.362, 8.696e-4
-1.361, 7.894e-4
-1.360, 7.185e-4
-1.359, 6.476e-4
-1.358, 5.798e-4
-1.357, 5.150e-4
-1.356, 4.441e-4
-1.355, 3.763e-4
-1.354, 3.085e-4
-1.353, 2.437e-4
-1.352, 1.790e-4
-1.351, 1.204e-4
-1.350, 6.182e-5
-1.349, 6.322e-6
-1.348, -4.609e-5
-1.347, -9.850e-5
-1.346, -1.509e-4
-1.345, -2.064e-4
-1.344, -2.619e-4
-1.343, -3.174e-4
-1.342, -3.667e-4
-1.341, -4.130e-4
-1.340, -4.592e-4
-1.339, -5.024e-4
-1.338, -5.456e-4
-1.337, -5.887e-4
-1.336, -6.288e-4
-1.335, -6.750e-4
-1.334, -7.213e-4
-1.333, -7.645e-4
-1.332, -8.076e-4
-1.331, -8.477e-4
-1.330, -8.816e-4
-1.329, -9.186e-4
-1.328, -9.494e-4
-1.327, -9.864e-4
-1.326, -1.020e-3
-1.325, -1.057e-3
-1.324, -1.097e-3
-1.323, -1.134e-3
-1.322, -1.168e-3
-1.321, -1.202e-3
-1.320, -1.230e-3
-1.319, -1.261e-3
-1.318, -1.289e-3
-1.317, -1.316e-3
-1.316, -1.347e-3
-1.315, -1.378e-3
-1.314, -1.412e-3
-1.313, -1.443e-3
-1.312, -1.474e-3
-1.311, -1.501e-3
-1.310, -1.526e-3
-1.309, -1.548e-3
-1.308, -1.572e-3
-1.307, -1.597e-3
-1.306, -1.622e-3
-1.305, -1.649e-3
-1.304, -1.677e-3
-1.303, -1.705e-3
-1.302, -1.733e-3
-1.301, -1.754e-3
-1.300, -1.776e-3
-1.299, -1.794e-3
-1.298, -1.813e-3
-1.297, -1.834e-3
-1.296, -1.856e-3
-1.295, -1.884e-3
-1.294, -1.908e-3
-1.293, -1.933e-3
-1.292, -1.955e-3
-1.291, -1.973e-3
-1.290, -1.992e-3
-1.289, -2.007e-3
-1.288, -2.025e-3
-1.287, -2.044e-3
-1.286, -2.062e-3
-1.285, -2.084e-3
-1.284, -2.106e-3
-1.283, -2.127e-3
-1.282, -2.149e-3
-1.281, -2.167e-3
-1.280, -2.183e-3
-1.279, -2.198e-3
-1.278, -2.210e-3
-1.277, -2.226e-3
-1.276, -2.244e-3
-1.275, -2.263e-3
-1.274, -2.281e-3
-1.273, -2.300e-3
-1.272, -2.318e-3
-1.271, -2.334e-3
-1.270, -2.346e-3
-1.269, -2.355e-3
-1.268, -2.368e-3
-1.267, -2.380e-3
-1.266, -2.395e-3
-1.265, -2.414e-3
-1.264, -2.432e-3
-1.263, -2.451e-3
-1.262, -2.469e-3
-1.261, -2.482e-3
-1.260, -2.494e-3
-1.259, -2.503e-3
-1.258, -2.513e-3
-1.257, -2.525e-3
-1.256, -2.540e-3
-1.255, -2.556e-3
-1.254, -2.574e-3
-1.253, -2.590e-3
-1.252, -2.605e-3
-1.251, -2.620e-3
-1.250, -2.633e-3
-1.249, -2.645e-3
-1.248, -2.654e-3
-1.247, -2.670e-3
-1.246, -2.682e-3
-1.245, -2.701e-3
-1.244, -2.719e-3
-1.243, -2.735e-3
-1.242, -2.747e-3
-1.241, -2.762e-3
-1.240, -2.772e-3
-1.239, -2.784e-3
-1.238, -2.793e-3
-1.237, -2.802e-3
-1.236, -2.818e-3
-1.235, -2.833e-3
-1.234, -2.852e-3
-1.233, -2.870e-3
-1.232, -2.886e-3
-1.231, -2.901e-3
-1.230, -2.910e-3
-1.229, -2.923e-3
-1.228, -2.935e-3
-1.227, -2.944e-3
-1.226, -2.953e-3
-1.225, -2.969e-3
-1.224, -2.984e-3
-1.223, -3.000e-3
-1.222, -3.015e-3
-1.221, -3.027e-3
-1.220, -3.040e-3
-1.219, -3.049e-3
-1.218, -3.055e-3
-1.217, -3.068e-3
-1.216, -3.080e-3
-1.215, -3.095e-3
-1.214, -3.111e-3
-1.213, -3.129e-3
-1.212, -3.145e-3
-1.211, -3.160e-3
-1.210, -3.169e-3
-1.209, -3.182e-3
-1.208, -3.191e-3
-1.207, -3.203e-3
-1.206, -3.219e-3
-1.205, -3.234e-3
-1.204, -3.253e-3
-1.203, -3.271e-3
-1.202, -3.290e-3
-1.201, -3.305e-3
-1.200, -3.317e-3
-1.199, -3.330e-3
-1.198, -3.342e-3
-1.197, -3.354e-3
-1.196, -3.370e-3
-1.195, -3.385e-3
-1.194, -3.404e-3
-1.193, -3.422e-3
-1.192, -3.438e-3
-1.191, -3.453e-3
-1.190, -3.465e-3
-1.189, -3.478e-3
-1.188, -3.493e-3
-1.187, -3.508e-3
-1.186, -3.524e-3
-1.185, -3.542e-3
-1.184, -3.558e-3
-1.183, -3.579e-3
-1.182, -3.595e-3
-1.181, -3.610e-3
-1.180, -3.626e-3
-1.179, -3.638e-3
-1.178, -3.650e-3
-1.177, -3.666e-3
-1.176, -3.681e-3
-1.175, -3.703e-3
-1.174, -3.724e-3
-1.173, -3.749e-3
-1.172, -3.774e-3
-1.171, -3.795e-3
-1.170, -3.814e-3
-1.169, -3.832e-3
-1.168, -3.851e-3
-1.167, -3.869e-3
-1.166, -3.888e-3
-1.165, -3.909e-3
-1.164, -3.934e-3
-1.163, -3.955e-3
-1.162, -3.980e-3
-1.161, -4.002e-3
-1.160, -4.017e-3
-1.159, -4.036e-3
-1.158, -4.051e-3
-1.157, -4.073e-3
-1.156, -4.094e-3
-1.155, -4.119e-3
-1.154, -4.144e-3
-1.153, -4.171e-3
-1.152, -4.196e-3
-1.151, -4.221e-3
-1.150, -4.242e-3
-1.149, -4.264e-3
-1.148, -4.285e-3
-1.147, -4.304e-3
-1.146, -4.329e-3
-1.145, -4.356e-3
-1.144, -4.381e-3
-1.143, -4.412e-3
-1.142, -4.436e-3
-1.141, -4.461e-3
-1.140, -4.486e-3
-1.139, -4.507e-3
-1.138, -4.529e-3
-1.137, -4.554e-3
-1.136, -4.581e-3
-1.135, -4.609e-3
-1.134, -4.640e-3
-1.133, -4.671e-3
-1.132, -4.702e-3
-1.131, -4.726e-3
-1.130, -4.751e-3
-1.129, -4.779e-3
-1.128, -4.800e-3
-1.127, -4.828e-3
-1.126, -4.856e-3
-1.125, -4.887e-3
-1.124, -4.917e-3
-1.123, -4.951e-3
-1.122, -4.979e-3
-1.121, -5.007e-3
-1.120, -5.031e-3
-1.119, -5.059e-3
-1.118, -5.084e-3
-1.117, -5.109e-3
-1.116, -5.136e-3
-1.115, -5.167e-3
-1.114, -5.201e-3
-1.113, -5.232e-3
-1.112, -5.263e-3
-1.111, -5.294e-3
-1.110, -5.321e-3
-1.109, -5.349e-3
-1.108, -5.377e-3
-1.107, -5.408e-3
-1.106, -5.438e-3
-1.105, -5.469e-3
-1.104, -5.503e-3
-1.103, -5.537e-3
-1.102, -5.568e-3
-1.101, -5.599e-3
-1.100, -5.627e-3
-1.099, -5.651e-3
-1.098, -5.679e-3
-1.097, -5.710e-3
-1.096, -5.738e-3
-1.095, -5.771e-3
-1.094, -5.805e-3
-1.093, -5.839e-3
-1.092, -5.873e-3
-1.091, -5.907e-3
-1.090, -5.938e-3
-1.089, -5.966e-3
-1.088, -5.990e-3
-1.087, -6.021e-3
-1.086, -6.049e-3
-1.085, -6.077e-3
-1.084, -6.107e-3
-1.083, -6.138e-3
-1.082, -6.169e-3
-1.081, -6.200e-3
-1.080, -6.234e-3
-1.079, -6.265e-3
-1.078, -6.299e-3
-1.077, -6.333e-3
-1.076, -6.370e-3
-1.075, -6.410e-3
-1.074, -6.450e-3
-1.073, -6.490e-3
-1.072, -6.524e-3
-1.071, -6.561e-3
-1.070, -6.588e-3
-1.069, -6.616e-3
-1.068, -6.647e-3
-1.067, -6.675e-3
-1.066, -6.706e-3
-1.065, -6.736e-3
-1.064, -6.770e-3
-1.063, -6.807e-3
-1.062, -6.841e-3
-1.061, -6.869e-3
-1.060, -6.897e-3
-1.059, -6.921e-3
-1.058, -6.949e-3
-1.057, -6.974e-3
-1.056, -7.002e-3
-1.055, -7.032e-3
-1.054, -7.063e-3
-1.053, -7.094e-3
-1.052, -7.125e-3
-1.051, -7.153e-3
-1.050, -7.177e-3
-1.049, -7.205e-3
-1.048, -7.227e-3
-1.047, -7.251e-3
-1.046, -7.282e-3
-1.045, -7.313e-3
-1.044, -7.347e-3
-1.043, -7.378e-3
-1.042, -7.405e-3
-1.041, -7.430e-3
-1.040, -7.452e-3
-1.039, -7.476e-3
-1.038, -7.501e-3
-1.037, -7.526e-3
-1.036, -7.553e-3
-1.035, -7.584e-3
-1.034, -7.612e-3
-1.033, -7.643e-3
-1.032, -7.668e-3
-1.031, -7.695e-3
-1.030, -7.717e-3
-1.029, -7.738e-3
-1.028, -7.760e-3
-1.027, -7.782e-3
-1.026, -7.809e-3
-1.025, -7.834e-3
-1.024, -7.865e-3
-1.023, -7.896e-3
-1.022, -7.920e-3
-1.021, -7.945e-3
-1.020, -7.970e-3
-1.019, -7.988e-3
-1.018, -8.007e-3
-1.017, -8.022e-3
-1.016, -8.044e-3
-1.015, -8.068e-3
-1.014, -8.093e-3
-1.013, -8.118e-3
-1.012, -8.139e-3
-1.011, -8.161e-3
-1.010, -8.179e-3
-1.009, -8.195e-3
-1.008, -8.210e-3
-1.007, -8.232e-3
-1.006, -8.250e-3
-1.005, -8.275e-3
-1.004, -8.300e-3
-1.003, -8.327e-3
-1.002, -8.349e-3
-1.001, -8.374e-3
