Potential V vs RHE, Current mA cm-2
0.013299999999999867,1.8716630497214433
0.012299999999999978,0.28322520223298037
0.011299999999999866,-0.8082245656128955
0.010299999999999976,-1.7938539282288664
0.009299999999999864,-2.7233192522401954
0.008299999999999974,-3.352865780680137
0.007299999999999862,-3.9541180831227782
0.006299999999999972,-4.636008929657725
0.00529999999999986,-5.124084328111163
0.0042999999999999705,-5.510300512974317
0.0032999999999998586,-6.016767158326001
0.0022999999999999687,-6.470889485582678
0.0012999999999998568,-6.75807587945528
0.00029999999999996696,-7.140047930418839
-0.000700000000000145,-7.584267278576461
-0.0017000000000000348,-7.841744735151897
-0.0027000000000001467,-8.113369304725985
-0.0037000000000000366,-8.533538560785903
-0.0047000000000001485,-8.810821975559447
-0.005700000000000038,-8.989075599342444
-0.00670000000000015,-9.361144671206947
-0.00770000000000004,-9.661063466778335
-0.008700000000000152,-9.815266998463624
-0.009700000000000042,-10.091135701937308
-0.010700000000000154,-10.443398815603702
-0.011700000000000044,-10.58628465689007
-0.012700000000000156,-10.778685393671715
-0.013700000000000045,-11.116801394339458
-0.014700000000000157,-11.326178666719484
-0.015700000000000047,-11.467649796705988
-0.01670000000000016,-11.790203973075215
-0.01770000000000005,-12.070316810448494
-0.01870000000000016,-12.18490842573756
-0.01970000000000005,-12.431068191914079
-0.020700000000000163,-12.759281213482765
-0.021700000000000053,-12.88660523047062
-0.022700000000000164,-13.073347122052803
-0.023700000000000054,-13.402974854921357
-0.024700000000000166,-13.612352127301383
-0.025700000000000056,-13.725529031290584
-0.026700000000000168,-14.01271542516319
-0.027700000000000058,-14.274437015638219
-0.02870000000000017,-14.387613919627421
-0.02970000000000006,-14.62811484060448
-0.03070000000000017,-14.967645552572087
-0.03170000000000006,-15.10911668255859
-0.03270000000000017,-15.293029151541045
-0.03370000000000006,-15.618412750510005
-0.034700000000000175,-15.830619445489761
-0.035700000000000065,-15.972090575476265
-0.03670000000000018,-16.28332706144657
-0.03770000000000007,-16.53797509542228
-0.03870000000000018,-16.637004886412832
-0.03970000000000007,-16.877505807389888
-0.04070000000000018,-17.20288940635885
-0.04170000000000007,-17.34436053634535
-0.04270000000000018,-17.514125892329155
-0.04370000000000007,-17.839509491298113
-0.044700000000000184,-18.05171618627787
-0.045700000000000074,-18.19318731626437
-0.046700000000000186,-18.518570915233333
-0.047700000000000076,-18.80151317520634
-0.04870000000000019,-18.94298430519284
-0.04970000000000008,-19.211779452167196
-0.05070000000000019,-19.537163051136158
-0.05170000000000008,-19.70692840711996
-0.05270000000000019,-19.890840876102416
-0.05370000000000008,-20.230371588070028
-0.05470000000000019,-20.44257828304978
-0.05570000000000008,-20.569902300037633
-0.056700000000000195,-20.89528589900659
-0.057700000000000085,-21.16408104598095
-0.058700000000000196,-21.277257949970153
-0.059700000000000086,-21.531905983945855
-0.0607000000000002,-21.857289582914817
-0.06170000000000009,-22.027054938898623
-0.0627000000000002,-22.239261633878378
-0.06370000000000009,-22.564645232847337
-0.0647000000000002,-22.76270481482844
-0.06570000000000009,-22.87588171881764
-0.0667000000000002,-23.187118204787954
-0.0677000000000001,-23.49835469075826
-0.0687000000000002,-23.62567870774611
-0.0697000000000001,-23.88032674172182
-0.07070000000000021,-24.20571034069078
-0.0717000000000001,-24.33303435767863
-0.07270000000000021,-24.502799713662437
-0.0737000000000001,-24.842330425630045
-0.07470000000000021,-25.06868423360845
-0.0757000000000001,-25.224302476593607
-0.07670000000000021,-25.549686075562565
-0.0777000000000001,-25.81848122253692
-0.07870000000000021,-25.94580523952477
-0.0797000000000001,-26.20045327350048
-0.08070000000000022,-26.568278211465387
-0.0817000000000001,-26.709749341451893
-0.08270000000000022,-26.879514697435695
-0.08370000000000011,-27.219045409403304
-0.08470000000000022,-27.445399217381713
-0.08570000000000011,-27.615164573365515
-0.08670000000000022,-27.940548172334477
-0.08770000000000011,-28.19519620631018
-0.08870000000000022,-28.336667336296685
-0.08970000000000011,-28.591315370272387
-0.09070000000000022,-28.9025518562427
-0.09170000000000011,-29.058170099227848
-0.09270000000000023,-29.242082568210304
-0.09370000000000012,-29.59576039317657
-0.09470000000000023,-29.822114201154974
-0.09570000000000012,-29.935291105144174
-0.09670000000000023,-30.288968930110435
-0.09770000000000012,-30.614352529079397
-0.09870000000000023,-30.79826499806185
-0.09970000000000012,-31.067060145036205
-0.10070000000000023,-31.420737970002463
-0.10170000000000012,-31.56220909998897
-0.10270000000000024,-31.76026868197007
-0.10370000000000013,-32.12809361993498
-0.10470000000000024,-32.340300314914735
-0.10570000000000013,-32.49591855789989
-0.10670000000000024,-32.821302156868846
-0.10770000000000013,-33.11839152984051
-0.10870000000000024,-33.18912709483376
-0.10970000000000013,-33.41548090281216
-0.11070000000000024,-33.76915872777842
-0.11170000000000013,-33.924776970763574
-0.11270000000000002,-34.16527789174064
-0.11370000000000013,-34.53310282970554
-0.11470000000000002,-34.75945663768395
-0.11570000000000014,-34.94336910666641
-0.11670000000000003,-35.32534115762997
-0.11770000000000014,-35.664871869597576
-0.11870000000000003,-35.83463722558138
-0.11970000000000014,-36.10343237255574
-0.12070000000000003,-36.49955153651795
-0.12170000000000014,-36.7117582314977
-0.12270000000000003,-36.96640626547341
-0.12370000000000014,-37.39081965543292
-0.12470000000000003,-37.702056141403226
-0.12570000000000014,-37.92840994938163
-0.12670000000000003,-38.31038200034519
-0.12770000000000015,-38.63576559931415
-0.12870000000000004,-38.81967806829661
-0.12970000000000015,-39.130914554266916
-0.13070000000000004,-39.47044526623452
-0.13170000000000015,-39.66850484821563
-0.13270000000000004,-39.86656443019674
-0.13370000000000015,-40.220242255162994
-0.13470000000000004,-40.4748902891387
-0.13570000000000015,-40.65880275812115
-0.13670000000000004,-41.06906903508202
-0.13770000000000016,-41.40859974704962
-0.13870000000000005,-41.57836510303343
-0.13970000000000016,-41.93204292799969
-0.14070000000000005,-42.3564563179592
-0.14170000000000016,-42.568663012938956
-0.14270000000000005,-42.86575238591062
-0.14370000000000016,-43.290165775870115
-0.14470000000000005,-43.58725514884178
-0.14570000000000016,-43.81360895682018
-0.14670000000000005,-44.195581007783744
-0.14770000000000016,-44.520964606752706
-0.14870000000000005,-44.67658284973786
-0.14970000000000017,-44.98781933570817
-0.15070000000000006,-45.42637983866633
-0.15170000000000017,-45.63858653364609
-0.15270000000000006,-45.87908745462314
-0.15370000000000017,-46.30350084458265
-0.15470000000000006,-46.572295991557006
-0.15570000000000017,-46.74206134754081
-0.15670000000000006,-47.10988628550572
-0.15770000000000017,-47.449416997473335
-0.15870000000000006,-47.66162369245309
-0.15970000000000018,-48.01530151741934
-0.16070000000000007,-48.4255677943802
-0.16170000000000018,-48.68021582835591
-0.16270000000000007,-48.991452314326224
-0.16370000000000018,-49.41586570428573
-0.16470000000000007,-49.656366625262784
-0.16570000000000018,-49.85442620724389
-0.16670000000000007,-50.23639825820745
-0.16770000000000018,-50.53348763117911
-0.16870000000000007,-50.71740010016157
-0.16970000000000018,-51.000342360134574
-0.17070000000000007,-51.325725959103536
-0.17170000000000019,-51.481344202088685
-0.17270000000000008,-51.72184512306574
-0.1737000000000002,-52.1038171740293
-0.17470000000000008,-52.33017098200771
-0.1757000000000002,-52.485789224992864
-0.17670000000000008,-52.83946704995912
-0.1777000000000002,-53.16485064892808
-0.17870000000000008,-53.348763117910536
-0.1797000000000002,-53.67414671687949
-0.18070000000000008,-54.05611876784305
-0.1817000000000002,-54.22588412382685
-0.18270000000000008,-54.423943705807964
-0.1837000000000002,-54.72103307877962
-0.1847000000000001,-54.904945547762075
-0.1857000000000002,-55.06056379074723
-0.1867000000000001,-55.34350605072023
-0.1877000000000002,-55.5840069716973
-0.1887000000000001,-55.6688896496892
-0.1897000000000002,-55.85280211867165
-0.1907000000000001,-56.12159726564601
-0.1917000000000001,-56.23477416963521
-0.19269999999999998,-56.46112797761361
-0.1937000000000001,-56.77236446358392
-0.19469999999999998,-56.89968848057178
-0.1957000000000001,-56.91383559357042
-0.19669999999999999,-57.12604228855018
-0.1977000000000001,-57.352396096528594
-0.1987,-57.465573000517786
-0.1997000000000001,-57.70607392149485
-0.2007,-57.98901618146786
-0.2017000000000001,-58.04560463346245
-0.2027,-58.08804597245841
-0.2037000000000001,-58.27195844144086
-0.2047,-58.34269400643411
-0.2057000000000001,-58.39928245842871
-0.2067,-58.63978337940577
-0.2077000000000001,-58.75296028339497
-0.2087,-58.68222471840172
-0.2097000000000001,-58.73881317039633
-0.2107,-58.83784296138688
-0.2117000000000001,-58.76710739639362
-0.2127,-58.69637183140037
-0.2137000000000001,-58.76710739639362
-0.2147,-58.72466605739767
-0.2157000000000001,-58.72466605739767
-0.2167,-58.894431413381476
-0.21770000000000012,-59.035902543367975
-0.2187,-59.00760831737068
-0.21970000000000012,-59.12078522135989
-0.2207,-59.23396212534908
-0.22170000000000012,-59.10663810836124
-0.2227,-58.99346120437203
-0.22370000000000012,-59.02175543036933
-0.2247,-58.894431413381476
-0.22570000000000012,-58.66807760540307
-0.2267,-58.55490070141387
-0.22770000000000012,-58.41342957142736
-0.22870000000000001,-58.08804597245841
-0.22970000000000013,-57.96072195547055
-0.23070000000000002,-57.91828061647461
-0.23170000000000013,-57.66363258249889
-0.23270000000000002,-57.479720113516436
-0.23370000000000013,-57.394837435524536
-0.23470000000000002,-57.14018940154883
-0.23570000000000013,-56.82895291557852
-0.23670000000000002,-56.67333467259337
-0.2376999999999999,-56.46112797761361
-0.23870000000000002,-56.10745015264736
-0.2396999999999999,-55.8669492316703
-0.24070000000000003,-55.68303676268785
-0.24169999999999991,-55.30106471172429
-0.24270000000000003,-54.904945547762075
-0.24369999999999992,-54.69273885278232
-0.24470000000000003,-54.33906102781606
-0.24569999999999992,-53.9287947508552
-0.24670000000000003,-53.75902939487139
-0.24769999999999992,-53.50438136089569
-0.24870000000000003,-53.065820857937524
-0.24969999999999992,-52.76873148496586
-0.25070000000000003,-52.514083450990164
-0.2516999999999999,-52.08967006103065
-0.25270000000000004,-51.65110955807249
-0.2536999999999999,-51.33987307210218
-0.25470000000000004,-50.85887123014807
-0.2556999999999999,-50.29298671020206
-0.25670000000000004,-49.95345599823444
-0.25769999999999993,-49.571483947270885
-0.25870000000000004,-49.019746540323524
-0.25969999999999993,-48.609480263362656
-0.26070000000000004,-48.2558024383964
-0.26169999999999993,-47.70406503144903
-0.26270000000000004,-47.22306318949492
-0.26369999999999993,-46.88353247752732
-0.26470000000000005,-46.38838352257455
-0.26569999999999994,-45.78005766363259
-0.26670000000000005,-45.38393849967037
-0.26769999999999994,-44.97367222270952
-0.26870000000000005,-44.42193481576215
-0.26969999999999994,-43.98337431280399
-0.27070000000000005,-43.629696487837734
-0.27169999999999994,-43.077959080890366
-0.27270000000000005,-42.59695723893625
-0.27369999999999994,-42.2715736399673
-0.27470000000000006,-41.80471891101183
-0.27569999999999995,-41.29542284306042
-0.27670000000000006,-40.92759790509552
-0.27769999999999995,-40.4748902891387
-0.27870000000000006,-39.90900576919269
-0.27969999999999995,-39.48459237923317
-0.28070000000000006,-39.173355893262865
-0.28169999999999995,-38.692354051308754
-0.28270000000000006,-38.267940661349236
-0.28369999999999995,-38.01329262737354
-0.28470000000000006,-37.56058501141672
-0.28569999999999995,-37.037141830466666
-0.28670000000000007,-36.768346683492304
-0.28769999999999996,-36.44296308452335
-0.28870000000000007,-35.99025546856653
-0.28969999999999996,-35.735607434590825
-0.29070000000000007,-35.53754785260972
-0.29169999999999996,-35.14142868864751
-0.29270000000000007,-34.773603750682604
-0.29369999999999996,-34.58969128170015
-0.2947000000000001,-34.306749021727136
-0.29569999999999996,-33.924776970763574
-0.2967000000000001,-33.755011614779775
-0.29769999999999996,-33.54280491980002
-0.2987000000000001,-33.160832868836465
-0.29969999999999997,-32.96277328685535
-0.3007000000000001,-32.8354492698675
-0.30169999999999997,-32.53835989689585
-0.3027000000000001,-32.32615320191609
-0.30369999999999997,-32.255417636922836
-0.3047000000000001,-32.07150516794038
-0.30569999999999997,-31.83100424696332
-0.3067000000000001,-31.802710020966025
-0.3077,-31.74612156897142
-0.3087000000000001,-31.505620647994366
-0.3097,-31.37829663100651
-0.3107000000000001,-31.335855292010564
-0.3117,-31.052913032037555
-0.3127000000000001,-30.88314767605375
-0.3137,-30.8690005630551
-0.3147000000000001,-30.727529433068593
-0.3157,-30.571911190083444
-0.3167000000000001,-30.58605830308209
-0.3177,-30.571911190083444
-0.3187000000000001,-30.47288139909289
-0.3197,-30.50117562509019
-0.3207000000000001,-30.54361696408614
-0.3217,-30.43044006009694
-0.3227000000000001,-30.387998721100992
-0.3237,-30.487028512091538
-0.3247000000000001,-30.416292947098288
-0.3257,-30.317263156107735
-0.3267000000000001,-30.416292947098288
-0.3277,-30.444587173095588
-0.3287000000000001,-30.359704495103685
-0.3297,-30.444587173095588
-0.3307000000000001,-30.58605830308209
-0.3317,-30.54361696408614
-0.3327000000000001,-30.614352529079397
-0.3337,-30.812412111060496
-0.3347000000000001,-30.854853450056453
-0.3357,-30.82655922405915
-0.3367000000000001,-30.99632458004295
-0.3377,-31.12364859703081
-0.3387000000000001,-31.095354371033505
-0.3397,-31.265119727017314
-0.3407000000000001,-31.519767760993016
-0.3417,-31.57635621298762
-0.3427000000000001,-31.632944664982226
-0.3437,-31.83100424696332
-0.3447000000000001,-31.873445585959274
-0.3457,-31.873445585959274
-0.3467000000000001,-32.08565228093904
-0.3477,-32.255417636922836
-0.3487000000000001,-32.269564749921486
-0.3497,-32.439330105905285
-0.3507000000000001,-32.70812525287965
-0.3517,-32.7788608178729
-0.3527000000000001,-32.93447906085806
-0.3537,-33.245715546828364
-0.3547000000000001,-33.41548090281216
-0.3557,-33.57109914579732
-0.35670000000000013,-33.910629857764924
-0.3577,-34.09454232674739
-0.35870000000000013,-34.15113077874198
-0.3597,-34.36333747372174
-0.36070000000000013,-34.6604268466934
-0.3617,-34.773603750682604
-0.3626999999999999,-34.9150748806691
-0.3637,-35.226311366639415
-0.3646999999999999,-35.46681228761647
-0.3657,-35.707313208593526
-0.3666999999999999,-36.10343237255574
-0.3677,-36.41466885852605
-0.3686999999999999,-36.570287101511205
-0.36970000000000003,-36.88152358748151
-0.3706999999999999,-37.235201412447765
-0.37170000000000003,-37.40496676843157
-0.3726999999999999,-37.631320576409976
-0.37370000000000003,-38.01329262737354
-0.3746999999999999,-38.23964643535194
-0.37570000000000003,-38.480147356329
-0.3766999999999999,-38.93285497228581
-0.37770000000000004,-39.30067991025072
-0.3786999999999999,-39.51288660523048
-0.37970000000000004,-39.92315288219133
-0.3806999999999999,-40.36171338514949
-0.38170000000000004,-40.602214306126555
-0.38269999999999993,-40.97003924409146
-0.38370000000000004,-41.49348242504152
-0.38469999999999993,-41.93204292799969
-0.38570000000000004,-42.31401497896325
-0.38669999999999993,-41.06906903508202
-0.38570000000000004,-38.11232241836409
-0.38469999999999993,-35.664871869597576
-0.38370000000000004,-33.726717388782475
-0.38269999999999993,-32.09979939393769
-0.38170000000000004,-30.51532273808884
-0.3806999999999999,-29.18549411621571
-0.37970000000000004,-28.11031352831828
-0.3786999999999999,-26.97854448842625
-0.37770000000000004,-25.875069674531517
-0.3766999999999999,-25.04039000761115
-0.37570000000000003,-24.17741611469348
-0.3746999999999999,-23.24370665678255
-0.37370000000000003,-22.508056780852733
-0.3726999999999999,-21.871436695913467
-0.37170000000000003,-21.065051254990397
-0.3706999999999999,-20.38598983105518
-0.36970000000000003,-19.848399537106463
-0.3686999999999999,-19.169338113171246
-0.3677,-18.44783535024008
-0.3666999999999999,-17.910245056291366
-0.3657,-17.358507649344002
-0.3646999999999999,-16.679446225408782
-0.3637,-16.15600304445872
-0.3626999999999999,-15.689148315503255
-0.3617,-15.03838111756534
-0.36070000000000013,-14.458349484620674
-0.3597,-14.053742052859274
-0.35870000000000013,-13.48785753291326
-0.3577,-12.88943465307035
-0.35670000000000013,-12.486241932608813
-0.3557,-12.000995956755107
-0.3547000000000001,-11.40398778821206
-0.3537,-10.982403820852278
-0.3527000000000001,-10.59477292468926
-0.3517,-10.018985425644189
-0.3507000000000001,-9.523836470691428
-0.3497,-9.181476336124089
-0.3487000000000001,-8.701889205469842
-0.3477,-8.184104869719237
-0.3467000000000001,-7.88135665154812
-0.3457,-7.48806691018564
-0.3447000000000001,-6.977356130934361
-0.3437,-6.630751862467427
-0.3427000000000001,-6.3081976860981985
-0.3417,-5.8229517102444905
-0.3407000000000001,-5.4225884123826855
-0.3397,-5.148134420208869
-0.3387000000000001,-4.730794586748683
-0.3377,-4.26393985779322
-0.3367000000000001,-4.0050476899179195
-0.3357,-3.6725905344496357
-0.3347000000000001,-3.2128093619934983
-0.3337,-2.919964122921436
-0.3327000000000001,-2.6822926245441097
-0.3317,-2.238073276386488
-0.3307000000000001,-1.895713141819149
-0.3297,-1.6863358694391237
-0.3287000000000001,-1.31624739339443
-0.3277,-0.9320118043510861
-0.3267000000000001,-0.7282933771705209
-0.3257,-0.44520964606752705
-0.3247000000000001,-0.029284523907206258
-0.3237,0.2040013694405383
-0.3227000000000001,0.38635765599314154
-0.3217,0.7652173420969983
-0.3207000000000001,1.0507060824097627
-0.3197,1.2029290182752408
-0.3187000000000001,1.5179852247551844
-0.3177,1.8645894932221183
-0.3167000000000001,2.0032312006088917
-0.3157,2.2324144311870278
-0.3147000000000001,2.5719451431546365
-0.3137,2.7714194364356066
-0.3127000000000001,2.9171347003217054
-0.3117,3.2368594540912037
-0.3107000000000001,3.4886780654671803
-0.3097,3.589122567757598
-0.3087000000000001,3.85084415823263
-0.3077,4.147933531204288
-0.3067000000000001,4.245548610894974
-0.30569999999999997,4.433705213777024
-0.3047000000000001,4.739282854547873
-0.30369999999999997,4.8849981184339715
-0.3027000000000001,4.998175022423175
-0.30169999999999997,5.274043725896856
-0.3007000000000001,5.460785617479042
-0.29969999999999997,5.542838872871213
-0.2987000000000001,5.766363258249889
-0.29769999999999996,6.030914271324651
-0.2967000000000001,6.094576279818578
-0.29569999999999996,6.233217987205351
-0.2947000000000001,6.514745535878494
-0.29369999999999996,6.630751862467427
-0.29270000000000007,6.700072716160815
-0.29169999999999996,6.956135461436385
-0.29070000000000007,7.113168415721404
-0.28969999999999996,7.131559662619649
-0.28870000000000007,7.331033955900621
-0.28769999999999996,7.57294958817754
-0.28670000000000007,7.612561504573763
-0.28569999999999995,7.727153119862831
-0.28470000000000006,7.967654040839887
-0.28369999999999995,8.052536718831789
-0.28270000000000006,8.089319212628281
-0.28169999999999995,8.321331865806146
-0.28070000000000006,8.469876552291973
-0.27969999999999995,8.481194242690894
-0.27870000000000006,8.65944786647389
-0.27769999999999995,8.861751582354591
-0.27670000000000006,8.880142829252835
-0.27569999999999995,8.974928486343794
-0.27470000000000006,9.195623449122737
-0.27369999999999994,9.259285457616667
-0.27270000000000005,9.283335549714371
-0.27169999999999994,9.477150997795881
-0.27070000000000005,9.605889726083598
-0.26969999999999994,9.598816169584273
-0.26870000000000005,9.745946144770238
-0.26769999999999994,9.935517458952152
-0.26670000000000005,9.949664571950803
-0.26569999999999994,10.020400136944055
-0.26470000000000005,10.239680388423137
