July 12, 2024   20:41:02
Cyclic Voltammetry
File: c:/users/guazh/data/20240709_batch67/2024-07-10-exp25\exp25-2024-07-12t20_28_44-h2koh\exp25_cv_sr_800mvs_efin_-1500mv.bin
Data Source:  Experiment
Instrument Model:  CHI760E
Header: CV ran at 800 mVs
Note: 

Init E (V) = -1
High E (V) = -1
Low E (V) = -1.5
Final E (V) = -1
Init P/N = N
Scan Rate (V/s) = 0.8
Segment = 3
Sample Interval (V) = 0.001
Quiet Time (sec) = 2
Sensitivity (A/V) = 0.01
Comp R (ohm) = 1.8

Results:

Channel 1:
Segment 1:

Segment 2:

Segment 3:

Potential/V, Current/A

-1.000, 3.407e-5
-1.001, 1.358e-4
-1.002, 2.036e-4
-1.003, 2.499e-4
-1.004, 2.900e-4
-1.005, 3.208e-4
-1.006, 3.485e-4
-1.007, 3.701e-4
-1.008, 3.886e-4
-1.009, 4.102e-4
-1.010, 4.195e-4
-1.011, 4.287e-4
-1.012, 4.318e-4
-1.013, 4.349e-4
-1.014, 4.318e-4
-1.015, 4.318e-4
-1.016, 4.287e-4
-1.017, 4.349e-4
-1.018, 4.380e-4
-1.019, 4.441e-4
-1.020, 4.534e-4
-1.021, 4.595e-4
-1.022, 4.657e-4
-1.023, 4.719e-4
-1.024, 4.750e-4
-1.025, 4.780e-4
-1.026, 4.719e-4
-1.027, 4.657e-4
-1.028, 4.626e-4
-1.029, 4.595e-4
-1.030, 4.595e-4
-1.031, 4.626e-4
-1.032, 4.657e-4
-1.033, 4.719e-4
-1.034, 4.780e-4
-1.035, 4.842e-4
-1.036, 4.904e-4
-1.037, 4.904e-4
-1.038, 4.935e-4
-1.039, 4.904e-4
-1.040, 4.842e-4
-1.041, 4.811e-4
-1.042, 4.780e-4
-1.043, 4.719e-4
-1.044, 4.780e-4
-1.045, 4.750e-4
-1.046, 4.842e-4
-1.047, 4.904e-4
-1.048, 4.965e-4
-1.049, 5.058e-4
-1.050, 5.058e-4
-1.051, 5.058e-4
-1.052, 5.027e-4
-1.053, 4.996e-4
-1.054, 4.965e-4
-1.055, 4.935e-4
-1.056, 4.842e-4
-1.057, 4.904e-4
-1.058, 4.904e-4
-1.059, 4.965e-4
-1.060, 5.058e-4
-1.061, 5.089e-4
-1.062, 5.150e-4
-1.063, 5.212e-4
-1.064, 5.212e-4
-1.065, 5.212e-4
-1.066, 5.181e-4
-1.067, 5.120e-4
-1.068, 5.089e-4
-1.069, 5.027e-4
-1.070, 5.027e-4
-1.071, 5.058e-4
-1.072, 5.089e-4
-1.073, 5.181e-4
-1.074, 5.212e-4
-1.075, 5.274e-4
-1.076, 5.366e-4
-1.077, 5.366e-4
-1.078, 5.366e-4
-1.079, 5.335e-4
-1.080, 5.274e-4
-1.081, 5.243e-4
-1.082, 5.181e-4
-1.083, 5.181e-4
-1.084, 5.212e-4
-1.085, 5.212e-4
-1.086, 5.274e-4
-1.087, 5.335e-4
-1.088, 5.397e-4
-1.089, 5.489e-4
-1.090, 5.520e-4
-1.091, 5.489e-4
-1.092, 5.489e-4
-1.093, 5.428e-4
-1.094, 5.428e-4
-1.095, 5.366e-4
-1.096, 5.305e-4
-1.097, 5.366e-4
-1.098, 5.366e-4
-1.099, 5.428e-4
-1.100, 5.520e-4
-1.101, 5.551e-4
-1.102, 5.613e-4
-1.103, 5.674e-4
-1.104, 5.674e-4
-1.105, 5.674e-4
-1.106, 5.644e-4
-1.107, 5.613e-4
-1.108, 5.551e-4
-1.109, 5.489e-4
-1.110, 5.520e-4
-1.111, 5.551e-4
-1.112, 5.582e-4
-1.113, 5.644e-4
-1.114, 5.674e-4
-1.115, 5.767e-4
-1.116, 5.859e-4
-1.117, 5.859e-4
-1.118, 5.859e-4
-1.119, 5.798e-4
-1.120, 5.767e-4
-1.121, 5.736e-4
-1.122, 5.705e-4
-1.123, 5.674e-4
-1.124, 5.705e-4
-1.125, 5.705e-4
-1.126, 5.798e-4
-1.127, 5.859e-4
-1.128, 5.921e-4
-1.129, 6.014e-4
-1.130, 6.044e-4
-1.131, 6.044e-4
-1.132, 6.014e-4
-1.133, 5.983e-4
-1.134, 5.952e-4
-1.135, 5.921e-4
-1.136, 5.829e-4
-1.137, 5.890e-4
-1.138, 5.890e-4
-1.139, 5.952e-4
-1.140, 6.044e-4
-1.141, 6.106e-4
-1.142, 6.168e-4
-1.143, 6.260e-4
-1.144, 6.229e-4
-1.145, 6.260e-4
-1.146, 6.229e-4
-1.147, 6.168e-4
-1.148, 6.137e-4
-1.149, 6.075e-4
-1.150, 6.106e-4
-1.151, 6.137e-4
-1.152, 6.168e-4
-1.153, 6.260e-4
-1.154, 6.291e-4
-1.155, 6.353e-4
-1.156, 6.476e-4
-1.157, 6.476e-4
-1.158, 6.507e-4
-1.159, 6.476e-4
-1.160, 6.445e-4
-1.161, 6.414e-4
-1.162, 6.384e-4
-1.163, 6.322e-4
-1.164, 6.384e-4
-1.165, 6.384e-4
-1.166, 6.445e-4
-1.167, 6.538e-4
-1.168, 6.599e-4
-1.169, 6.723e-4
-1.170, 6.723e-4
-1.171, 6.877e-4
-1.172, 6.969e-4
-1.173, 6.877e-4
-1.174, 6.784e-4
-1.175, 6.723e-4
-1.176, 6.630e-4
-1.177, 6.661e-4
-1.178, 6.692e-4
-1.179, 6.754e-4
-1.180, 6.815e-4
-1.181, 6.877e-4
-1.182, 6.939e-4
-1.183, 7.031e-4
-1.184, 7.031e-4
-1.185, 7.031e-4
-1.186, 7.000e-4
-1.187, 6.969e-4
-1.188, 6.939e-4
-1.189, 6.877e-4
-1.190, 6.908e-4
-1.191, 6.939e-4
-1.192, 6.969e-4
-1.193, 7.062e-4
-1.194, 7.124e-4
-1.195, 7.216e-4
-1.196, 7.339e-4
-1.197, 7.339e-4
-1.198, 7.339e-4
-1.199, 7.309e-4
-1.200, 7.278e-4
-1.201, 7.278e-4
-1.202, 7.247e-4
-1.203, 7.247e-4
-1.204, 7.278e-4
-1.205, 7.309e-4
-1.206, 7.370e-4
-1.207, 7.463e-4
-1.208, 7.524e-4
-1.209, 7.648e-4
-1.210, 7.679e-4
-1.211, 7.679e-4
-1.212, 7.679e-4
-1.213, 7.617e-4
-1.214, 7.617e-4
-1.215, 7.617e-4
-1.216, 7.524e-4
-1.217, 7.586e-4
-1.218, 7.617e-4
-1.219, 7.709e-4
-1.220, 7.802e-4
-1.221, 7.863e-4
-1.222, 7.956e-4
-1.223, 8.018e-4
-1.224, 8.018e-4
-1.225, 8.048e-4
-1.226, 8.018e-4
-1.227, 7.987e-4
-1.228, 7.956e-4
-1.229, 7.956e-4
-1.230, 7.956e-4
-1.231, 7.987e-4
-1.232, 8.048e-4
-1.233, 8.141e-4
-1.234, 8.172e-4
-1.235, 8.264e-4
-1.236, 8.388e-4
-1.237, 8.388e-4
-1.238, 8.418e-4
-1.239, 8.388e-4
-1.240, 8.357e-4
-1.241, 8.326e-4
-1.242, 8.326e-4
-1.243, 8.264e-4
-1.244, 8.326e-4
-1.245, 8.357e-4
-1.246, 8.418e-4
-1.247, 8.511e-4
-1.248, 8.696e-4
-1.249, 8.943e-4
-1.250, 8.943e-4
-1.251, 8.912e-4
-1.252, 8.850e-4
-1.253, 8.758e-4
-1.254, 8.727e-4
-1.255, 8.696e-4
-1.256, 8.603e-4
-1.257, 8.634e-4
-1.258, 8.634e-4
-1.259, 8.696e-4
-1.260, 8.758e-4
-1.261, 8.819e-4
-1.262, 8.881e-4
-1.263, 8.943e-4
-1.264, 8.912e-4
-1.265, 8.943e-4
-1.266, 8.881e-4
-1.267, 8.819e-4
-1.268, 8.788e-4
-1.269, 8.696e-4
-1.270, 8.727e-4
-1.271, 8.727e-4
-1.272, 8.758e-4
-1.273, 8.850e-4
-1.274, 8.850e-4
-1.275, 8.912e-4
-1.276, 8.973e-4
-1.277, 8.943e-4
-1.278, 8.973e-4
-1.279, 8.912e-4
-1.280, 8.850e-4
-1.281, 8.819e-4
-1.282, 8.758e-4
-1.283, 8.696e-4
-1.284, 8.696e-4
-1.285, 8.696e-4
-1.286, 8.727e-4
-1.287, 8.788e-4
-1.288, 8.819e-4
-1.289, 8.912e-4
-1.290, 8.912e-4
-1.291, 8.912e-4
-1.292, 8.912e-4
-1.293, 8.819e-4
-1.294, 8.819e-4
-1.295, 8.727e-4
-1.296, 8.665e-4
-1.297, 8.634e-4
-1.298, 8.634e-4
-1.299, 8.696e-4
-1.300, 8.758e-4
-1.301, 8.788e-4
-1.302, 8.881e-4
-1.303, 8.912e-4
-1.304, 8.912e-4
-1.305, 8.912e-4
-1.306, 8.881e-4
-1.307, 8.850e-4
-1.308, 8.819e-4
-1.309, 8.758e-4
-1.310, 8.758e-4
-1.311, 8.788e-4
-1.312, 8.819e-4
-1.313, 8.943e-4
-1.314, 9.004e-4
-1.315, 9.066e-4
-1.316, 9.189e-4
-1.317, 9.189e-4
-1.318, 9.251e-4
-1.319, 9.220e-4
-1.320, 9.189e-4
-1.321, 9.189e-4
-1.322, 9.189e-4
-1.323, 9.189e-4
-1.324, 9.282e-4
-1.325, 9.313e-4
-1.326, 9.467e-4
-1.327, 9.621e-4
-1.328, 9.713e-4
-1.329, 9.837e-4
-1.330, 9.868e-4
-1.331, 9.929e-4
-1.332, 9.960e-4
-1.333, 9.960e-4
-1.334, 9.991e-4
-1.335, 1.005e-3
-1.336, 1.005e-3
-1.337, 1.011e-3
-1.338, 1.021e-3
-1.339, 1.036e-3
-1.340, 1.051e-3
-1.341, 1.064e-3
-1.342, 1.079e-3
-1.343, 1.095e-3
-1.344, 1.101e-3
-1.345, 1.113e-3
-1.346, 1.119e-3
-1.347, 1.125e-3
-1.348, 1.135e-3
-1.349, 1.144e-3
-1.350, 1.156e-3
-1.351, 1.169e-3
-1.352, 1.184e-3
-1.353, 1.199e-3
-1.354, 1.215e-3
-1.355, 1.233e-3
-1.356, 1.255e-3
-1.357, 1.267e-3
-1.358, 1.283e-3
-1.359, 1.289e-3
-1.360, 1.298e-3
-1.361, 1.310e-3
-1.362, 1.320e-3
-1.363, 1.332e-3
-1.364, 1.347e-3
-1.365, 1.363e-3
-1.366, 1.388e-3
-1.367, 1.409e-3
-1.368, 1.431e-3
-1.369, 1.455e-3
-1.370, 1.474e-3
-1.371, 1.495e-3
-1.372, 1.508e-3
-1.373, 1.520e-3
-1.374, 1.536e-3
-1.375, 1.551e-3
-1.376, 1.563e-3
-1.377, 1.588e-3
-1.378, 1.606e-3
-1.379, 1.634e-3
-1.380, 1.662e-3
-1.381, 1.687e-3
-1.382, 1.714e-3
-1.383, 1.742e-3
-1.384, 1.764e-3
-1.385, 1.788e-3
-1.386, 1.807e-3
-1.387, 1.825e-3
-1.388, 1.847e-3
-1.389, 1.865e-3
-1.390, 1.893e-3
-1.391, 1.921e-3
-1.392, 1.949e-3
-1.393, 1.980e-3
-1.394, 2.010e-3
-1.395, 2.044e-3
-1.396, 2.078e-3
-1.397, 2.109e-3
-1.398, 2.140e-3
-1.399, 2.161e-3
-1.400, 2.183e-3
-1.401, 2.211e-3
-1.402, 2.238e-3
-1.403, 2.266e-3
-1.404, 2.294e-3
-1.405, 2.328e-3
-1.406, 2.371e-3
-1.407, 2.411e-3
-1.408, 2.448e-3
-1.409, 2.488e-3
-1.410, 2.525e-3
-1.411, 2.562e-3
-1.412, 2.590e-3
-1.413, 2.621e-3
-1.414, 2.652e-3
-1.415, 2.686e-3
-1.416, 2.716e-3
-1.417, 2.760e-3
-1.418, 2.793e-3
-1.419, 2.840e-3
-1.420, 2.886e-3
-1.421, 2.926e-3
-1.422, 2.972e-3
-1.423, 3.019e-3
-1.424, 3.062e-3
-1.425, 3.105e-3
-1.426, 3.145e-3
-1.427, 3.182e-3
-1.428, 3.225e-3
-1.429, 3.262e-3
-1.430, 3.311e-3
-1.431, 3.355e-3
-1.432, 3.407e-3
-1.433, 3.456e-3
-1.434, 3.506e-3
-1.435, 3.558e-3
-1.436, 3.614e-3
-1.437, 3.663e-3
-1.438, 3.715e-3
-1.439, 3.758e-3
-1.440, 3.802e-3
-1.441, 3.848e-3
-1.442, 3.894e-3
-1.443, 3.943e-3
-1.444, 3.993e-3
-1.445, 4.042e-3
-1.446, 4.101e-3
-1.447, 4.159e-3
-1.448, 4.218e-3
-1.449, 4.283e-3
-1.450, 4.338e-3
-1.451, 4.400e-3
-1.452, 4.452e-3
-1.453, 4.505e-3
-1.454, 4.563e-3
-1.455, 4.619e-3
-1.456, 4.668e-3
-1.457, 4.730e-3
-1.458, 4.785e-3
-1.459, 4.853e-3
-1.460, 4.918e-3
-1.461, 4.979e-3
-1.462, 5.047e-3
-1.463, 5.109e-3
-1.464, 5.171e-3
-1.465, 5.235e-3
-1.466, 5.291e-3
-1.467, 5.349e-3
-1.468, 5.408e-3
-1.469, 5.463e-3
-1.470, 5.525e-3
-1.471, 5.587e-3
-1.472, 5.651e-3
-1.473, 5.722e-3
-1.474, 5.793e-3
-1.475, 5.861e-3
-1.476, 5.935e-3
-1.477, 6.000e-3
-1.478, 6.071e-3
-1.479, 6.129e-3
-1.480, 6.191e-3
-1.481, 6.256e-3
-1.482, 6.321e-3
-1.483, 6.382e-3
-1.484, 6.450e-3
-1.485, 6.521e-3
-1.486, 6.592e-3
-1.487, 6.666e-3
-1.488, 6.740e-3
-1.489, 6.817e-3
-1.490, 6.888e-3
-1.491, 6.959e-3
-1.492, 7.030e-3
-1.493, 7.094e-3
-1.494, 7.162e-3
-1.495, 7.230e-3
-1.496, 7.295e-3
-1.497, 7.366e-3
-1.498, 7.430e-3
-1.499, 7.508e-3
-1.500, 7.489e-3
-1.499, 7.341e-3
-1.498, 7.236e-3
-1.497, 7.144e-3
-1.496, 7.060e-3
-1.495, 6.977e-3
-1.494, 6.891e-3
-1.493, 6.805e-3
-1.492, 6.718e-3
-1.491, 6.632e-3
-1.490, 6.552e-3
-1.489, 6.481e-3
-1.488, 6.416e-3
-1.487, 6.342e-3
-1.486, 6.262e-3
-1.485, 6.185e-3
-1.484, 6.108e-3
-1.483, 6.031e-3
-1.482, 5.957e-3
-1.481, 5.877e-3
-1.480, 5.796e-3
-1.479, 5.716e-3
-1.478, 5.636e-3
-1.477, 5.559e-3
-1.476, 5.482e-3
-1.475, 5.408e-3
-1.474, 5.340e-3
-1.473, 5.275e-3
-1.472, 5.211e-3
-1.471, 5.146e-3
-1.470, 5.075e-3
-1.469, 5.010e-3
-1.468, 4.942e-3
-1.467, 4.865e-3
-1.466, 4.791e-3
-1.465, 4.723e-3
-1.464, 4.649e-3
-1.463, 4.585e-3
-1.462, 4.517e-3
-1.461, 4.458e-3
-1.460, 4.403e-3
-1.459, 4.341e-3
-1.458, 4.286e-3
-1.457, 4.224e-3
-1.456, 4.162e-3
-1.455, 4.104e-3
-1.454, 4.036e-3
-1.453, 3.974e-3
-1.452, 3.910e-3
-1.451, 3.842e-3
-1.450, 3.783e-3
-1.449, 3.721e-3
-1.448, 3.672e-3
-1.447, 3.620e-3
-1.446, 3.567e-3
-1.445, 3.515e-3
-1.444, 3.466e-3
-1.443, 3.416e-3
-1.442, 3.364e-3
-1.441, 3.302e-3
-1.440, 3.241e-3
-1.439, 3.185e-3
-1.438, 3.133e-3
-1.437, 3.077e-3
-1.436, 3.022e-3
-1.435, 2.972e-3
-1.434, 2.923e-3
-1.433, 2.877e-3
-1.432, 2.834e-3
-1.431, 2.793e-3
-1.430, 2.747e-3
-1.429, 2.698e-3
-1.428, 2.649e-3
-1.427, 2.596e-3
-1.426, 2.547e-3
-1.425, 2.497e-3
-1.424, 2.448e-3
-1.423, 2.402e-3
-1.422, 2.353e-3
-1.421, 2.316e-3
-1.420, 2.282e-3
-1.419, 2.242e-3
-1.418, 2.208e-3
-1.417, 2.168e-3
-1.416, 2.128e-3
-1.415, 2.084e-3
-1.414, 2.041e-3
-1.413, 1.995e-3
-1.412, 1.952e-3
-1.411, 1.906e-3
-1.410, 1.869e-3
-1.409, 1.828e-3
-1.408, 1.798e-3
-1.407, 1.767e-3
-1.406, 1.733e-3
-1.405, 1.699e-3
-1.404, 1.671e-3
-1.403, 1.637e-3
-1.402, 1.603e-3
-1.401, 1.560e-3
-1.400, 1.523e-3
-1.399, 1.483e-3
-1.398, 1.446e-3
-1.397, 1.412e-3
-1.396, 1.378e-3
-1.395, 1.347e-3
-1.394, 1.320e-3
-1.393, 1.295e-3
-1.392, 1.270e-3
-1.391, 1.246e-3
-1.390, 1.218e-3
-1.389, 1.190e-3
-1.388, 1.156e-3
-1.387, 1.122e-3
-1.386, 1.092e-3
-1.385, 1.061e-3
-1.384, 1.027e-3
-1.383, 9.991e-4
-1.382, 9.713e-4
-1.381, 9.528e-4
-1.380, 9.313e-4
-1.379, 9.128e-4
-1.378, 8.912e-4
-1.377, 8.696e-4
-1.376, 8.449e-4
-1.375, 8.203e-4
-1.374, 7.925e-4
-1.373, 7.617e-4
-1.372, 7.339e-4
-1.371, 7.062e-4
-1.370, 6.846e-4
-1.369, 6.630e-4
-1.368, 6.445e-4
-1.367, 6.291e-4
-1.366, 6.137e-4
-1.365, 5.983e-4
-1.364, 5.829e-4
-1.363, 5.644e-4
-1.362, 5.459e-4
-1.361, 5.212e-4
-1.360, 4.965e-4
-1.359, 4.719e-4
-1.358, 4.472e-4
-1.357, 4.318e-4
-1.356, 4.164e-4
-1.355, 3.979e-4
-1.354, 3.855e-4
-1.353, 3.732e-4
-1.352, 3.609e-4
-1.351, 3.516e-4
-1.350, 3.362e-4
-1.349, 3.208e-4
-1.348, 2.992e-4
-1.347, 2.807e-4
-1.346, 2.591e-4
-1.345, 2.406e-4
-1.344, 2.221e-4
-1.343, 2.067e-4
-1.342, 1.944e-4
-1.341, 1.851e-4
-1.340, 1.790e-4
-1.339, 1.728e-4
-1.338, 1.636e-4
-1.337, 1.512e-4
-1.336, 1.389e-4
-1.335, 1.266e-4
-1.334, 1.081e-4
-1.333, 9.265e-5
-1.332, 7.415e-5
-1.331, 5.565e-5
-1.330, 4.640e-5
-1.329, 3.407e-5
-1.328, 2.790e-5
-1.327, 2.482e-5
-1.326, 1.865e-5
-1.325, 1.249e-5
-1.324, 9.405e-6
-1.323, -2.927e-6
-1.322, -1.218e-5
-1.321, -2.759e-5
-1.320, -4.301e-5
-1.319, -5.534e-5
-1.318, -7.076e-5
-1.317, -8.000e-5
-1.316, -8.925e-5
-1.315, -9.542e-5
-1.314, -9.850e-5
-1.313, -1.016e-4
-1.312, -1.016e-4
-1.311, -1.047e-4
-1.310, -1.139e-4
-1.309, -1.201e-4
-1.308, -1.324e-4
-1.307, -1.448e-4
-1.306, -1.571e-4
-1.305, -1.663e-4
-1.304, -1.787e-4
-1.303, -1.848e-4
-1.302, -1.941e-4
-1.301, -1.941e-4
-1.300, -1.910e-4
-1.299, -1.941e-4
-1.298, -1.941e-4
-1.297, -2.002e-4
-1.296, -2.033e-4
-1.295, -2.126e-4
-1.294, -2.218e-4
-1.293, -2.311e-4
-1.292, -2.434e-4
-1.291, -2.557e-4
-1.290, -2.588e-4
-1.289, -2.650e-4
-1.288, -2.650e-4
-1.287, -2.619e-4
-1.286, -2.619e-4
-1.285, -2.619e-4
-1.284, -2.619e-4
-1.283, -2.681e-4
-1.282, -2.712e-4
-1.281, -2.804e-4
-1.280, -2.958e-4
-1.279, -3.020e-4
-1.278, -3.112e-4
-1.277, -3.174e-4
-1.276, -3.205e-4
-1.275, -3.205e-4
-1.274, -3.174e-4
-1.273, -3.174e-4
-1.272, -3.143e-4
-1.271, -3.143e-4
-1.270, -3.143e-4
-1.269, -3.174e-4
-1.268, -3.267e-4
-1.267, -3.359e-4
-1.266, -3.452e-4
-1.265, -3.513e-4
-1.264, -3.606e-4
-1.263, -3.606e-4
-1.262, -3.637e-4
-1.261, -3.606e-4
-1.260, -3.575e-4
-1.259, -3.544e-4
-1.258, -3.513e-4
-1.257, -3.544e-4
-1.256, -3.544e-4
-1.255, -3.606e-4
-1.254, -3.698e-4
-1.253, -3.760e-4
-1.252, -3.821e-4
-1.251, -3.914e-4
-1.250, -3.914e-4
-1.249, -3.945e-4
-1.248, -3.914e-4
-1.247, -3.883e-4
-1.246, -3.852e-4
-1.245, -3.821e-4
-1.244, -3.791e-4
-1.243, -3.821e-4
-1.242, -3.821e-4
-1.241, -3.914e-4
-1.240, -4.006e-4
-1.239, -4.068e-4
-1.238, -4.130e-4
-1.237, -4.161e-4
-1.236, -4.191e-4
-1.235, -4.161e-4
-1.234, -4.130e-4
-1.233, -4.099e-4
-1.232, -4.037e-4
-1.231, -4.006e-4
-1.230, -4.037e-4
-1.229, -4.068e-4
-1.228, -4.130e-4
-1.227, -4.191e-4
-1.226, -4.253e-4
-1.225, -4.315e-4
-1.224, -4.376e-4
-1.223, -4.376e-4
-1.222, -4.407e-4
-1.221, -4.346e-4
-1.220, -4.284e-4
-1.219, -4.253e-4
-1.218, -4.191e-4
-1.217, -4.222e-4
-1.216, -4.222e-4
-1.215, -4.284e-4
-1.214, -4.315e-4
-1.213, -4.376e-4
-1.212, -4.469e-4
-1.211, -4.531e-4
-1.210, -4.531e-4
-1.209, -4.531e-4
-1.208, -4.500e-4
-1.207, -4.438e-4
-1.206, -4.407e-4
-1.205, -4.376e-4
-1.204, -4.346e-4
-1.203, -4.376e-4
-1.202, -4.346e-4
-1.201, -4.407e-4
-1.200, -4.531e-4
-1.199, -4.592e-4
-1.198, -4.654e-4
-1.197, -4.654e-4
-1.196, -4.654e-4
-1.195, -4.654e-4
-1.194, -4.592e-4
-1.193, -4.561e-4
-1.192, -4.500e-4
-1.191, -4.469e-4
-1.190, -4.500e-4
-1.189, -4.500e-4
-1.188, -4.531e-4
-1.187, -4.623e-4
-1.186, -4.654e-4
-1.185, -4.716e-4
-1.184, -4.777e-4
-1.183, -4.777e-4
-1.182, -4.808e-4
-1.181, -4.746e-4
-1.180, -4.685e-4
-1.179, -4.654e-4
-1.178, -4.592e-4
-1.177, -4.592e-4
-1.176, -4.623e-4
-1.175, -4.654e-4
-1.174, -4.808e-4
-1.173, -4.870e-4
-1.172, -4.931e-4
-1.171, -4.962e-4
-1.170, -4.931e-4
-1.169, -4.931e-4
-1.168, -4.901e-4
-1.167, -4.808e-4
-1.166, -4.777e-4
-1.165, -4.746e-4
-1.164, -4.685e-4
-1.163, -4.716e-4
-1.162, -4.716e-4
-1.161, -4.777e-4
-1.160, -4.870e-4
-1.159, -4.931e-4
-1.158, -4.993e-4
-1.157, -4.993e-4
-1.156, -4.993e-4
-1.155, -4.993e-4
-1.154, -4.931e-4
-1.153, -4.901e-4
-1.152, -4.870e-4
-1.151, -4.777e-4
-1.150, -4.839e-4
-1.149, -4.839e-4
-1.148, -4.870e-4
-1.147, -4.962e-4
-1.146, -5.024e-4
-1.145, -5.055e-4
-1.144, -5.116e-4
-1.143, -5.116e-4
-1.142, -5.147e-4
-1.141, -5.086e-4
-1.140, -5.055e-4
-1.139, -4.993e-4
-1.138, -4.931e-4
-1.137, -4.962e-4
-1.136, -4.962e-4
-1.135, -4.993e-4
-1.134, -5.055e-4
-1.133, -5.116e-4
-1.132, -5.178e-4
-1.131, -5.271e-4
-1.130, -5.240e-4
-1.129, -5.271e-4
-1.128, -5.209e-4
-1.127, -5.178e-4
-1.126, -5.147e-4
-1.125, -5.086e-4
-1.124, -5.086e-4
-1.123, -5.086e-4
-1.122, -5.116e-4
-1.121, -5.178e-4
-1.120, -5.240e-4
-1.119, -5.301e-4
-1.118, -5.363e-4
-1.117, -5.394e-4
-1.116, -5.394e-4
-1.115, -5.363e-4
-1.114, -5.332e-4
-1.113, -5.332e-4
-1.112, -5.240e-4
-1.111, -5.209e-4
-1.110, -5.271e-4
-1.109, -5.240e-4
-1.108, -5.332e-4
-1.107, -5.394e-4
-1.106, -5.456e-4
-1.105, -5.517e-4
-1.104, -5.548e-4
-1.103, -5.548e-4
-1.102, -5.579e-4
-1.101, -5.548e-4
-1.100, -5.517e-4
-1.099, -5.456e-4
-1.098, -5.425e-4
-1.097, -5.425e-4
-1.096, -5.456e-4
-1.095, -5.486e-4
-1.094, -5.548e-4
-1.093, -5.610e-4
-1.092, -5.702e-4
-1.091, -5.764e-4
-1.090, -5.764e-4
-1.089, -5.795e-4
-1.088, -5.764e-4
-1.087, -5.702e-4
-1.086, -5.671e-4
-1.085, -5.641e-4
-1.084, -5.641e-4
-1.083, -5.671e-4
-1.082, -5.671e-4
-1.081, -5.733e-4
-1.080, -5.826e-4
-1.079, -5.887e-4
-1.078, -5.980e-4
-1.077, -5.980e-4
-1.076, -6.011e-4
-1.075, -6.041e-4
-1.074, -5.980e-4
-1.073, -5.980e-4
-1.072, -5.918e-4
-1.071, -5.887e-4
-1.070, -5.918e-4
-1.069, -5.918e-4
-1.068, -6.011e-4
-1.067, -6.103e-4
-1.066, -6.165e-4
-1.065, -6.226e-4
-1.064, -6.288e-4
-1.063, -6.319e-4
-1.062, -6.350e-4
-1.061, -6.319e-4
-1.060, -6.288e-4
-1.059, -6.257e-4
-1.058, -6.226e-4
-1.057, -6.257e-4
-1.056, -6.288e-4
-1.055, -6.319e-4
-1.054, -6.411e-4
-1.053, -6.504e-4
-1.052, -6.596e-4
-1.051, -6.689e-4
-1.050, -6.720e-4
-1.049, -6.750e-4
-1.048, -6.750e-4
-1.047, -6.720e-4
-1.046, -6.720e-4
-1.045, -6.720e-4
-1.044, -6.689e-4
-1.043, -6.750e-4
-1.042, -6.781e-4
-1.041, -6.874e-4
-1.040, -6.997e-4
-1.039, -7.059e-4
-1.038, -7.182e-4
-1.037, -7.244e-4
-1.036, -7.275e-4
-1.035, -7.305e-4
-1.034, -7.305e-4
-1.033, -7.305e-4
-1.032, -7.305e-4
-1.031, -7.275e-4
-1.030, -7.336e-4
-1.029, -7.398e-4
-1.028, -7.490e-4
-1.027, -7.614e-4
-1.026, -7.706e-4
-1.025, -7.830e-4
-1.024, -7.922e-4
-1.023, -7.953e-4
-1.022, -8.045e-4
-1.021, -8.045e-4
-1.020, -8.076e-4
-1.019, -8.076e-4
-1.018, -8.076e-4
-1.017, -8.138e-4
-1.016, -8.200e-4
-1.015, -8.323e-4
-1.014, -8.446e-4
-1.013, -8.569e-4
-1.012, -8.693e-4
-1.011, -8.847e-4
-1.010, -8.909e-4
-1.009, -9.032e-4
-1.008, -9.094e-4
-1.007, -9.094e-4
-1.006, -9.124e-4
-1.005, -9.186e-4
-1.004, -9.248e-4
-1.003, -9.340e-4
-1.002, -9.402e-4
-1.001, -9.525e-4
