Potential V vs RHE, Current mA cm-2
0.013299999999999867,2.4403769922671885
0.012299999999999978,-0.002205534916489592
0.011299999999999866,-2.226755585987568
0.010299999999999976,-4.1889601589003735
0.009299999999999864,-6.064867342521412
0.008299999999999974,-7.7653503249591855
0.007299999999999862,-9.335679867809377
0.006299999999999972,-10.863568071663616
0.00529999999999986,-12.302329463626359
0.0042999999999999705,-13.698649516593148
0.0032999999999998586,-15.05252823056399
0.0022999999999999687,-16.311621287443874
0.0012999999999998568,-17.584861457322408
0.00029999999999996696,-18.80151317520634
-0.000700000000000145,-19.97572355409432
-0.0017000000000000348,-21.065051254990397
-0.0027000000000001467,-22.069496277894572
-0.0037000000000000366,-23.073941300798747
-0.0047000000000001485,-23.993503645711023
-0.005700000000000038,-24.870624651627345
-0.00670000000000015,-25.73359854454502
-0.00770000000000004,-26.61071955046134
-0.008700000000000152,-27.530281895373616
-0.009700000000000042,-28.350814449295335
-0.010700000000000154,-29.22793545521166
-0.011700000000000044,-30.04846800913338
-0.012700000000000156,-30.8407063370578
-0.013700000000000045,-31.618797551983565
-0.014700000000000157,-32.32615320191609
-0.015700000000000047,-33.01936173884996
-0.01670000000000016,-33.712570275783825
-0.01770000000000005,-34.33504324772444
-0.01870000000000016,-35.02825178465831
-0.01970000000000005,-35.679018982596226
-0.020700000000000163,-36.37222751953009
-0.021700000000000053,-37.07958316946261
-0.022700000000000164,-37.73035036740053
-0.023700000000000054,-38.38111756533845
-0.024700000000000166,-38.98944342428042
-0.025700000000000056,-39.51288660523048
-0.026700000000000168,-40.092918238175145
-0.027700000000000058,-40.65880275812115
-0.02870000000000017,-41.22468727806717
-0.02970000000000006,-41.87545447600508
-0.03070000000000017,-42.483780334947056
-0.03170000000000006,-43.09210619388902
-0.03270000000000017,-43.75702050482558
-0.03370000000000006,-44.4077877027635
-0.034700000000000175,-45.05855490070142
-0.035700000000000065,-45.666880759643384
-0.03670000000000018,-46.3176479575813
-0.03770000000000007,-46.84109113853137
-0.03870000000000018,-47.46356411047198
-0.03970000000000007,-48.029448630417996
-0.04070000000000018,-48.63777448935996
-0.04170000000000007,-49.24610034830193
-0.04270000000000018,-49.85442620724389
-0.04370000000000007,-50.50519340518181
-0.044700000000000184,-51.127666377122424
-0.045700000000000074,-51.77843357506035
-0.046700000000000186,-52.471642111994214
-0.047700000000000076,-53.03752663194023
-0.04870000000000019,-53.64585249088219
-0.04970000000000008,-54.1268543328363
-0.05070000000000019,-54.65029751378637
-0.05170000000000008,-55.17374069473642
-0.05270000000000019,-55.6971838756865
-0.05370000000000008,-56.26306839563251
-0.05470000000000019,-56.82895291557852
-0.05570000000000008,-57.493867226515086
-0.056700000000000195,-58.14463442445301
-0.057700000000000085,-58.79540162239092
-0.058700000000000196,-59.403727481332886
-0.059700000000000086,-60.06864179226946
-0.0607000000000002,-60.761850329203334
-0.06170000000000009,-61.37017618814529
-0.0627000000000002,-61.89361936909536
-0.06370000000000009,-62.41706255004542
-0.0647000000000002,-62.94050573099548
-0.06570000000000009,-63.54883158993744
-0.0667000000000002,-64.19959878787537
-0.0677000000000001,-64.86451309881193
-0.0687000000000002,-65.60016297474175
-0.0697000000000001,-66.29337151167562
-0.07070000000000021,-67.04316850060408
-0.0717000000000001,-67.7788183765339
-0.07270000000000021,-68.48617402646643
-0.0737000000000001,-69.1793825634003
-0.07470000000000021,-69.87259110033416
-0.0757000000000001,-70.43847562028017
-0.07670000000000021,-71.10338993121674
-0.0777000000000001,-71.7117157901587
-0.07870000000000021,-72.36248298809663
-0.0797000000000001,-73.01325018603454
-0.08070000000000022,-73.6781644969711
-0.0817000000000001,-74.37137303390499
-0.08270000000000022,-74.97969889284694
-0.08370000000000011,-75.6729074297808
-0.08470000000000022,-76.23879194972683
-0.08570000000000011,-76.86126492166746
-0.08670000000000022,-77.51203211960537
-0.08770000000000011,-78.12035797854733
-0.08870000000000022,-78.68624249849334
-0.08970000000000011,-79.2945683574353
-0.09070000000000022,-79.90289421637728
-0.09170000000000011,-80.56780852731384
-0.09270000000000023,-81.26101706424771
-0.09370000000000012,-81.95422560118158
-0.09470000000000023,-82.61913991211814
-0.09570000000000012,-83.22746577106011
-0.09670000000000023,-83.83579163000208
-0.09770000000000012,-84.44411748894404
-0.09870000000000023,-85.01000200889004
-0.09970000000000012,-85.57588652883607
-0.10070000000000023,-86.22665372677399
-0.10170000000000012,-86.84912669871461
-0.10270000000000024,-87.54233523564847
-0.10370000000000013,-88.19310243358639
-0.10470000000000024,-88.9004580835189
-0.10570000000000013,-89.50878394246087
-0.10670000000000024,-90.15955114039879
-0.10770000000000013,-90.76787699934074
-0.10870000000000024,-91.41864419727867
-0.10970000000000013,-92.08355850821525
-0.11070000000000024,-92.73432570615316
-0.11170000000000013,-93.42753424308701
-0.11270000000000002,-94.17733123201549
-0.11370000000000013,-94.95542244694126
-0.11470000000000002,-95.83254345285758
-0.11570000000000014,-96.61063466778336
-0.11670000000000003,-97.40287299570777
-0.11770000000000014,-98.13852287163759
-0.11870000000000003,-98.97320253855796
-0.11970000000000014,-99.66641107549184
-0.12070000000000003,-100.35961961242569
-0.12170000000000014,-101.06697526235823
-0.12270000000000003,-101.63285978230424
-0.12370000000000014,-102.3260683192381
-0.12470000000000003,-102.93439417818009
-0.12570000000000014,-103.64174982811258
-0.12670000000000003,-104.2925170260505
-0.12770000000000015,-104.90084288499246
-0.12870000000000004,-105.5516100829304
-0.12970000000000015,-106.07505326388046
-0.13070000000000004,-106.59849644483052
-0.13170000000000015,-107.12193962578058
-0.13270000000000004,-107.6029414677347
-0.13370000000000015,-108.12638464868475
-0.13470000000000004,-108.64982782963483
-0.13570000000000015,-109.25815368857677
-0.13670000000000004,-109.8240382085228
-0.13770000000000016,-110.4465111804634
-0.13870000000000005,-111.01239570040943
-0.13970000000000016,-111.57828022035544
-0.14070000000000005,-112.10172340130552
-0.14170000000000016,-112.58272524325962
-0.14270000000000005,-113.00713863321914
-0.14370000000000016,-113.48814047517324
-0.14470000000000005,-114.05402499511925
-0.14570000000000016,-114.57746817606933
-0.14670000000000005,-115.15749980901398
-0.14770000000000016,-115.68094298996405
-0.14870000000000005,-116.33171018790196
-0.14970000000000017,-116.98247738583989
-0.15070000000000006,-117.67568592277377
-0.15170000000000017,-118.3406002337103
-0.15270000000000006,-118.94892609265229
-0.15370000000000017,-119.5996932905902
-0.15470000000000006,-120.12313647154028
-0.15570000000000017,-120.68902099148629
-0.15670000000000006,-121.21246417243634
-0.15770000000000017,-121.73590735338641
-0.15870000000000006,-122.34423321232836
-0.15970000000000018,-123.00914752326493
-0.16070000000000007,-123.70235606019881
-0.16170000000000018,-124.52288861412055
-0.16270000000000007,-125.31512694204494
-0.16370000000000018,-126.05077681797478
-0.16470000000000007,-126.84301514589919
-0.16570000000000018,-127.62110636082497
-0.16670000000000007,-128.41334468874936
-0.16770000000000018,-129.0641118866873
-0.16870000000000007,-129.7148790846252
-0.16970000000000018,-130.32320494356716
-0.17070000000000007,-130.90323657651186
-0.17170000000000019,-131.5115624354538
-0.17270000000000008,-132.11988829439576
-0.1737000000000002,-132.72821415333775
-0.17470000000000008,-133.29409867328377
-0.1757000000000002,-133.8599831932298
-0.17670000000000008,-134.46830905217172
-0.1777000000000002,-134.9917522331218
-0.17870000000000008,-135.5576367530678
-0.1797000000000002,-136.08107993401788
-0.18070000000000008,-136.60452311496792
-0.1817000000000002,-137.22699608690854
-0.18270000000000008,-137.79288060685457
-0.1837000000000002,-138.3587651268006
-0.1847000000000001,-138.96709098574257
-0.1857000000000002,-139.53297550568857
-0.1867000000000001,-140.05641868663866
-0.1877000000000002,-140.62230320658463
-0.1887000000000001,-141.14574638753473
-0.1897000000000002,-141.61260111649017
-0.1907000000000001,-142.03701450644968
-0.1917000000000001,-142.6028990263957
-0.19269999999999998,-143.0273124163552
-0.1937000000000001,-143.5931969363012
-0.19469999999999998,-144.15908145624724
-0.1957000000000001,-144.72496597619326
-0.19669999999999999,-145.29085049613926
-0.1977000000000001,-145.85673501608528
-0.1987,-146.28114840604482
-0.1997000000000001,-146.5640906660178
-0.2007,-146.8470329259908
-0.2017000000000001,-147.1299751859638
-0.2027,-147.55438857592333
-0.2037000000000001,-148.12027309586935
-0.2047,-148.68615761581535
-0.2057000000000001,-149.25204213576137
-0.2067,-149.95939778569388
-0.2077000000000001,-150.66675343562642
-0.2087,-151.23263795557244
-0.2097000000000001,-151.93999360550492
-0.2107,-152.50587812545095
-0.2117000000000001,-153.21323377538346
-0.2127,-153.77911829532948
-0.2137000000000001,-154.3450028152755
-0.2147,-155.05235846520802
-0.2157000000000001,-155.75971411514055
-0.2167,-156.32559863508658
-0.21770000000000012,-157.03295428501906
-0.2187,-157.59883880496508
-0.21970000000000012,-158.3061944548976
-0.2207,-159.01355010483013
-0.22170000000000012,-159.57943462477613
-0.2227,-160.28679027470866
-0.22370000000000012,-160.99414592464117
-0.2247,-161.5600304445872
-0.22570000000000012,-162.12591496453322
-0.2267,-162.6917994844792
-0.22770000000000012,-163.11621287443873
-0.22870000000000001,-163.82356852437124
-0.22970000000000013,-164.38945304431726
-0.23070000000000002,-165.2382798242363
-0.23170000000000013,-166.0871066041553
-0.23270000000000002,-166.93593338407433
-0.23370000000000013,-167.6432890340068
-0.23470000000000002,-168.35064468393938
-0.23570000000000013,-168.91652920388537
-0.23670000000000002,-169.48241372383137
-0.2376999999999999,-169.9068271137909
-0.23870000000000002,-170.61418276372342
-0.2396999999999999,-171.60448067362896
-0.24070000000000003,-172.31183632356147
-0.24169999999999991,-173.16066310348046
-0.24270000000000003,-173.86801875341303
-0.24369999999999992,-174.57537440334553
-0.24470000000000003,-175.28273005327804
-0.24569999999999992,-175.99008570321055
-0.24670000000000003,-176.6974413531431
-0.24769999999999992,-177.2633258730891
-0.24870000000000003,-177.82921039303508
-0.24969999999999992,-178.3950949129811
-0.25070000000000003,-178.96097943292713
-0.2516999999999999,-179.52686395287316
-0.25270000000000004,-179.95127734283267
-0.2536999999999999,-180.37569073279218
-0.25470000000000004,-180.65863299276518
-0.2556999999999999,-181.08304638272472
-0.25670000000000004,-181.64893090267074
-0.25769999999999993,-182.07334429263022
-0.25870000000000004,-182.49775768258974
-0.25969999999999993,-182.92217107254925
-0.26070000000000004,-183.34658446250873
-0.26169999999999993,-183.91246898245475
-0.26270000000000004,-184.19541124242778
-0.26369999999999993,-184.7612957623738
-0.26470000000000005,-185.1857091523333
-0.26569999999999994,-185.7515936722793
-0.26670000000000005,-186.31747819222534
-0.26769999999999994,-187.02483384215788
-0.26870000000000005,-187.59071836210387
-0.26969999999999994,-188.29807401203638
-0.27070000000000005,-189.0054296619689
-0.27169999999999994,-189.57131418191491
-0.27270000000000005,-190.13719870186094
-0.27369999999999994,-190.70308322180696
-0.27470000000000006,-191.268967741753
-0.27569999999999995,-191.9763233916855
-0.27670000000000006,-192.683679041618
-0.27769999999999995,-193.249563561564
-0.27870000000000006,-193.9569192114965
-0.27969999999999995,-194.66427486142905
-0.28070000000000006,-195.23015938137505
-0.28169999999999995,-195.93751503130758
-0.28270000000000006,-196.50339955125358
-0.28369999999999995,-197.0692840711996
-0.28470000000000006,-197.63516859114563
-0.28569999999999995,-198.20105311109162
-0.28670000000000007,-198.90840876102413
-0.28769999999999996,-199.47429328097016
-0.28870000000000007,-200.18164893090267
-0.28969999999999996,-200.88900458083523
-0.29070000000000007,-201.73783136075423
-0.29169999999999996,-202.58665814067325
-0.29270000000000007,-203.29401379060576
-0.29369999999999996,-203.85989831055176
-0.2947000000000001,-204.42578283049778
-0.29569999999999996,-204.9916673504438
-0.2967000000000001,-205.55755187038983
-0.29769999999999996,-205.98196526034934
-0.2987000000000001,-206.54784978029537
-0.29969999999999997,-207.1137343002414
-0.3007000000000001,-207.5381476902009
-0.30169999999999997,-208.1040322101469
-0.3027000000000001,-208.8113878600794
-0.30369999999999997,-209.23580125003892
-0.3047000000000001,-209.8016857699849
-0.30569999999999997,-210.08462802995794
-0.3067000000000001,-210.36757028993094
-0.3077,-210.65051254990397
-0.3087000000000001,-210.79198367989048
-0.3097,-210.79198367989048
-0.3107000000000001,-210.93345480987696
-0.3117,-210.93345480987696
-0.3127000000000001,-211.07492593986345
-0.3137,-211.21639706985
-0.3147000000000001,-211.499339329823
-0.3157,-211.782281589796
-0.3167000000000001,-211.9237527197825
-0.3177,-212.34816610974204
-0.3187000000000001,-212.631108369715
-0.3197,-212.77257949970152
-0.3207000000000001,-212.914050629688
-0.3217,-213.19699288966103
-0.3227000000000001,-213.47993514963403
-0.3237,-213.90434853959354
-0.3247000000000001,-214.61170418952605
-0.3257,-215.17758870947208
-0.3267000000000001,-215.88494435940459
-0.3277,-216.3093577493641
-0.3287000000000001,-216.59230000933712
-0.3297,-216.87524226931012
-0.3307000000000001,-217.01671339929663
-0.3317,-217.15818452928315
-0.3327000000000001,-217.29965565926966
-0.3337,-217.15818452928315
-0.3347000000000001,-217.01671339929663
-0.3357,-217.01671339929663
-0.3367000000000001,-217.01671339929663
-0.3377,-217.01671339929663
-0.3387000000000001,-216.87524226931012
-0.3397,-216.87524226931012
-0.3407000000000001,-217.01671339929663
-0.3417,-216.87524226931012
-0.3427000000000001,-216.87524226931012
-0.3437,-216.59230000933712
-0.3447000000000001,-216.3093577493641
-0.3457,-216.3093577493641
-0.3467000000000001,-216.3093577493641
-0.3477,-216.3093577493641
-0.3487000000000001,-216.4508288793506
-0.3497,-216.4508288793506
-0.3507000000000001,-216.4508288793506
-0.3517,-216.3093577493641
-0.3527000000000001,-216.1678866193776
-0.3537,-216.0264154893911
-0.3547000000000001,-215.7434732294181
-0.3557,-215.6020020994316
-0.35670000000000013,-215.4605309694451
-0.3577,-215.4605309694451
-0.35870000000000013,-215.31905983945856
-0.3597,-215.17758870947208
-0.36070000000000013,-215.17758870947208
-0.3617,-214.89464644949908
-0.3626999999999999,-214.75317531951256
-0.3637,-214.61170418952605
-0.3646999999999999,-214.18729079956654
-0.3657,-213.76287740960703
-0.3666999999999999,-213.33846401964755
-0.3677,-212.914050629688
-0.3686999999999999,-212.631108369715
-0.36970000000000003,-212.2066949797555
-0.3706999999999999,-211.782281589796
-0.37170000000000003,-211.64081045980947
-0.3726999999999999,-211.21639706985
-0.37370000000000003,-210.65051254990397
-0.3746999999999999,-209.66021463999843
-0.37570000000000003,-208.6699167300929
-0.3766999999999999,-208.1040322101469
-0.37770000000000004,-207.3966765602144
-0.3786999999999999,-206.97226317025488
-0.37970000000000004,-206.40637865030885
-0.3806999999999999,-205.84049413036286
-0.38170000000000004,-205.27460961041683
-0.38269999999999993,-204.7087250904708
-0.38370000000000004,-204.14284057052478
-0.38469999999999993,-203.57695605057876
-0.38570000000000004,-202.86960040064628
-0.38669999999999993,-202.30371588070025
-0.38770000000000004,-201.59636023076774
-0.38869999999999993,-200.88900458083523
-0.38970000000000005,-200.18164893090267
-0.39069999999999994,-199.47429328097016
-0.39170000000000005,-198.76693763103765
-0.39269999999999994,-198.05958198110514
-0.39370000000000005,-197.35222633117263
-0.39469999999999994,-196.6448706812401
-0.39570000000000005,-195.93751503130758
-0.39669999999999994,-195.37163051136156
-0.39770000000000005,-194.80574599141553
-0.39869999999999994,-194.09839034148303
-0.39970000000000006,-193.249563561564
-0.40069999999999995,-192.40073678164498
-0.40170000000000006,-191.551910001726
-0.40269999999999995,-190.42014096183394
-0.40370000000000006,-189.57131418191491
-0.40469999999999995,-188.72248740199586
-0.40570000000000006,-188.01513175206335
-0.40669999999999995,-187.16630497214436
-0.40770000000000006,-186.45894932221185
-0.40869999999999995,-185.89306480226583
-0.40970000000000006,-185.1857091523333
-0.41069999999999995,-184.47835350240078
-0.41170000000000007,-183.77099785246824
-0.41269999999999996,-182.92217107254925
-0.41370000000000007,-182.07334429263022
-0.41469999999999996,-181.2245175127112
-0.41570000000000007,-180.37569073279218
-0.41669999999999996,-179.66833508285964
-0.41770000000000007,-178.96097943292713
-0.41869999999999996,-178.25362378299462
-0.4197000000000001,-177.6877392630486
-0.42069999999999996,-176.98038361311612
-0.4217000000000001,-176.4144990931701
-0.42269999999999996,-175.70714344323756
-0.4237000000000001,-174.99978779330505
-0.42469999999999997,-174.2924321433725
-0.4257000000000001,-173.72654762342648
-0.42669999999999997,-173.16066310348046
-0.4277000000000001,-172.59477858353446
-0.42869999999999997,-172.0288940635885
-0.4297000000000001,-171.46300954364247
-0.43069999999999997,-170.89712502369645
-0.4317000000000001,-170.47271163373694
-0.4327,-169.9068271137909
-0.4337000000000001,-169.3409425938449
-0.4347,-168.77505807389886
-0.4357000000000001,-168.35064468393938
-0.4367,-167.92623129397984
-0.4377000000000001,-167.50181790402033
-0.4387,-167.07740451406085
-0.4397000000000001,-166.79446225408785
-0.4407,-166.51151999411482
-0.4417000000000001,-166.3700488641283
-0.4427,-165.94563547416882
-0.4437000000000001,-165.8041643441823
-0.4447,-165.5212220842093
-0.4457000000000001,-165.3797509542228
-0.4467,-165.09680869424977
-0.4477000000000001,-164.81386643427678
-0.4487,-164.67239530429026
-0.4497000000000001,-164.67239530429026
-0.4507,-164.81386643427678
-0.4517000000000001,-165.09680869424977
-0.4527,-165.3797509542228
-0.4537000000000001,-165.6626932141958
-0.4547,-165.8041643441823
-0.4557000000000001,-166.0871066041553
-0.4567,-166.3700488641283
-0.4577000000000001,-166.51151999411482
-0.4587,-166.79446225408785
-0.4597000000000001,-167.07740451406085
-0.4607,-167.21887564404733
-0.4617000000000001,-167.6432890340068
-0.4627,-167.92623129397984
-0.4637000000000001,-168.35064468393938
-0.4647,-168.91652920388537
-0.4657000000000001,-169.3409425938449
-0.4667,-169.9068271137909
-0.4677000000000001,-170.33124050375042
-0.4687,-170.75565389370993
-0.4697000000000001,-171.18006728366944
-0.4707,-171.74595180361547
-0.4717000000000001,-172.17036519357498
-0.4727,-172.73624971352098
-0.4737000000000001,-173.16066310348046
-0.4747,-173.58507649344
-0.4757000000000001,-174.0094898833995
-0.4767,-174.2924321433725
-0.4777000000000001,-174.71684553333202
-0.4787,-175.42420118326456
-0.4797000000000001,-176.27302796318358
-0.4807,-176.98038361311612
-0.48170000000000013,-177.82921039303508
-0.4827,-178.67803717295413
-0.48370000000000013,-179.38539282288664
-0.4847,-180.23421960280567
-0.48570000000000013,-181.08304638272472
-0.4867,-180.09274847281918
-0.48570000000000013,-176.13155683319707
-0.4847,-172.59477858353446
-0.48370000000000013,-169.3409425938449
-0.4827,-166.0871066041553
-0.48170000000000013,-163.11621287443873
-0.4807,-160.14531914472215
-0.4797000000000001,-157.17442541500557
-0.4787,-154.3450028152755
-0.4777000000000001,-151.65705134553193
-0.4767,-149.1105710057749
-0.4757000000000001,-146.5640906660178
-0.4747,-144.15908145624724
-0.4737000000000001,-141.89554337646317
-0.4727,-139.53297550568857
-0.4717000000000001,-137.2694374259045
-0.4707,-134.9917522331218
-0.4697000000000001,-132.81309683132966
-0.4687,-130.59200009054155
-0.4677000000000001,-128.45578602774532
-0.4667,-126.36201330394509
