Apr. 25, 2025   17:08:52
Cyclic Voltammetry
File: c:/users/guazh/data/banditlqround7_x0exp590_r20/2025-04-16-exp1187\exp1187-2025-04-25t16_59_42-arkoh\exp1187_cv_sr_50mvs_efin_-1500mv.bin
Data Source:  Experiment
Instrument Model:  CHI760E
Header: CV ran at 50 mVs
Note: 

Init E (V) = -1
High E (V) = -1
Low E (V) = -1.5
Final E (V) = -1
Init P/N = N
Scan Rate (V/s) = 0.05
Segment = 3
Sample Interval (V) = 0.001
Quiet Time (sec) = 2
Sensitivity (A/V) = 0.01
Comp R (ohm) = 2.1

Results:

Channel 1:
Segment 1:

Segment 2:

Segment 3:

Potential/V, Current/A

-1.000, -1.406e-4
-1.001, -5.062e-5
-1.002, 2.583e-6
-1.003, 4.123e-5
-1.004, 7.276e-5
-1.005, 9.884e-5
-1.006, 1.218e-4
-1.007, 1.415e-4
-1.008, 1.587e-4
-1.009, 1.754e-4
-1.010, 1.901e-4
-1.011, 2.029e-4
-1.012, 2.164e-4
-1.013, 2.298e-4
-1.014, 2.409e-4
-1.015, 2.524e-4
-1.016, 2.627e-4
-1.017, 2.734e-4
-1.018, 2.819e-4
-1.019, 2.894e-4
-1.020, 3.004e-4
-1.021, 3.107e-4
-1.022, 3.191e-4
-1.023, 3.247e-4
-1.024, 3.333e-4
-1.025, 3.432e-4
-1.026, 3.520e-4
-1.027, 3.563e-4
-1.028, 3.630e-4
-1.029, 3.721e-4
-1.030, 3.813e-4
-1.031, 3.866e-4
-1.032, 3.910e-4
-1.033, 3.983e-4
-1.034, 4.075e-4
-1.035, 4.122e-4
-1.036, 4.189e-4
-1.037, 4.243e-4
-1.038, 4.309e-4
-1.039, 4.351e-4
-1.040, 4.415e-4
-1.041, 4.500e-4
-1.042, 4.568e-4
-1.043, 4.595e-4
-1.044, 4.670e-4
-1.045, 4.726e-4
-1.046, 4.780e-4
-1.047, 4.823e-4
-1.048, 4.893e-4
-1.049, 4.969e-4
-1.050, 5.021e-4
-1.051, 5.052e-4
-1.052, 5.083e-4
-1.053, 5.190e-4
-1.054, 5.232e-4
-1.055, 5.285e-4
-1.056, 5.327e-4
-1.057, 5.378e-4
-1.058, 5.427e-4
-1.059, 5.513e-4
-1.060, 5.555e-4
-1.061, 5.584e-4
-1.062, 5.627e-4
-1.063, 5.713e-4
-1.064, 5.755e-4
-1.065, 5.789e-4
-1.066, 5.817e-4
-1.067, 5.895e-4
-1.068, 5.979e-4
-1.069, 5.998e-4
-1.070, 6.044e-4
-1.071, 6.127e-4
-1.072, 6.184e-4
-1.073, 6.222e-4
-1.074, 6.230e-4
-1.075, 6.328e-4
-1.076, 6.443e-4
-1.077, 6.432e-4
-1.078, 6.442e-4
-1.079, 6.505e-4
-1.080, 6.619e-4
-1.081, 6.676e-4
-1.082, 6.720e-4
-1.083, 6.759e-4
-1.084, 6.801e-4
-1.085, 6.881e-4
-1.086, 6.973e-4
-1.087, 7.022e-4
-1.088, 7.032e-4
-1.089, 7.112e-4
-1.090, 7.215e-4
-1.091, 7.274e-4
-1.092, 7.325e-4
-1.093, 7.386e-4
-1.094, 7.491e-4
-1.095, 7.565e-4
-1.096, 7.592e-4
-1.097, 7.629e-4
-1.098, 7.706e-4
-1.099, 7.871e-4
-1.100, 7.924e-4
-1.101, 7.982e-4
-1.102, 8.087e-4
-1.103, 8.146e-4
-1.104, 8.156e-4
-1.105, 8.264e-4
-1.106, 8.388e-4
-1.107, 8.527e-4
-1.108, 8.558e-4
-1.109, 8.546e-4
-1.110, 8.681e-4
-1.111, 8.815e-4
-1.112, 8.882e-4
-1.113, 8.932e-4
-1.114, 9.030e-4
-1.115, 9.140e-4
-1.116, 9.244e-4
-1.117, 9.294e-4
-1.118, 9.397e-4
-1.119, 9.488e-4
-1.120, 9.620e-4
-1.121, 9.704e-4
-1.122, 9.774e-4
-1.123, 9.886e-4
-1.124, 1.002e-3
-1.125, 1.006e-3
-1.126, 1.011e-3
-1.127, 1.024e-3
-1.128, 1.040e-3
-1.129, 1.049e-3
-1.130, 1.050e-3
-1.131, 1.056e-3
-1.132, 1.075e-3
-1.133, 1.086e-3
-1.134, 1.091e-3
-1.135, 1.102e-3
-1.136, 1.117e-3
-1.137, 1.130e-3
-1.138, 1.133e-3
-1.139, 1.141e-3
-1.140, 1.156e-3
-1.141, 1.169e-3
-1.142, 1.176e-3
-1.143, 1.186e-3
-1.144, 1.192e-3
-1.145, 1.200e-3
-1.146, 1.216e-3
-1.147, 1.229e-3
-1.148, 1.230e-3
-1.149, 1.241e-3
-1.150, 1.259e-3
-1.151, 1.267e-3
-1.152, 1.270e-3
-1.153, 1.285e-3
-1.154, 1.301e-3
-1.155, 1.304e-3
-1.156, 1.310e-3
-1.157, 1.320e-3
-1.158, 1.335e-3
-1.159, 1.342e-3
-1.160, 1.356e-3
-1.161, 1.364e-3
-1.162, 1.365e-3
-1.163, 1.375e-3
-1.164, 1.390e-3
-1.165, 1.405e-3
-1.166, 1.407e-3
-1.167, 1.416e-3
-1.168, 1.425e-3
-1.169, 1.431e-3
-1.170, 1.443e-3
-1.171, 1.456e-3
-1.172, 1.464e-3
-1.173, 1.471e-3
-1.174, 1.480e-3
-1.175, 1.490e-3
-1.176, 1.494e-3
-1.177, 1.501e-3
-1.178, 1.510e-3
-1.179, 1.520e-3
-1.180, 1.532e-3
-1.181, 1.535e-3
-1.182, 1.539e-3
-1.183, 1.547e-3
-1.184, 1.556e-3
-1.185, 1.564e-3
-1.186, 1.567e-3
-1.187, 1.578e-3
-1.188, 1.582e-3
-1.189, 1.579e-3
-1.190, 1.592e-3
-1.191, 1.603e-3
-1.192, 1.604e-3
-1.193, 1.610e-3
-1.194, 1.609e-3
-1.195, 1.616e-3
-1.196, 1.631e-3
-1.197, 1.639e-3
-1.198, 1.632e-3
-1.199, 1.626e-3
-1.200, 1.636e-3
-1.201, 1.644e-3
-1.202, 1.645e-3
-1.203, 1.641e-3
-1.204, 1.642e-3
-1.205, 1.652e-3
-1.206, 1.652e-3
-1.207, 1.650e-3
-1.208, 1.654e-3
-1.209, 1.655e-3
-1.210, 1.655e-3
-1.211, 1.657e-3
-1.212, 1.658e-3
-1.213, 1.651e-3
-1.214, 1.648e-3
-1.215, 1.652e-3
-1.216, 1.658e-3
-1.217, 1.655e-3
-1.218, 1.634e-3
-1.219, 1.634e-3
-1.220, 1.641e-3
-1.221, 1.636e-3
-1.222, 1.624e-3
-1.223, 1.617e-3
-1.224, 1.625e-3
-1.225, 1.626e-3
-1.226, 1.607e-3
-1.227, 1.597e-3
-1.228, 1.604e-3
-1.229, 1.604e-3
-1.230, 1.581e-3
-1.231, 1.574e-3
-1.232, 1.579e-3
-1.233, 1.576e-3
-1.234, 1.557e-3
-1.235, 1.536e-3
-1.236, 1.535e-3
-1.237, 1.539e-3
-1.238, 1.532e-3
-1.239, 1.509e-3
-1.240, 1.499e-3
-1.241, 1.494e-3
-1.242, 1.477e-3
-1.243, 1.471e-3
-1.244, 1.469e-3
-1.245, 1.452e-3
-1.246, 1.442e-3
-1.247, 1.434e-3
-1.248, 1.417e-3
-1.249, 1.397e-3
-1.250, 1.389e-3
-1.251, 1.376e-3
-1.252, 1.370e-3
-1.253, 1.348e-3
-1.254, 1.336e-3
-1.255, 1.333e-3
-1.256, 1.329e-3
-1.257, 1.313e-3
-1.258, 1.290e-3
-1.259, 1.276e-3
-1.260, 1.268e-3
-1.261, 1.257e-3
-1.262, 1.243e-3
-1.263, 1.229e-3
-1.264, 1.219e-3
-1.265, 1.208e-3
-1.266, 1.205e-3
-1.267, 1.186e-3
-1.268, 1.174e-3
-1.269, 1.170e-3
-1.270, 1.161e-3
-1.271, 1.136e-3
-1.272, 1.126e-3
-1.273, 1.124e-3
-1.274, 1.114e-3
-1.275, 1.103e-3
-1.276, 1.090e-3
-1.277, 1.080e-3
-1.278, 1.080e-3
-1.279, 1.071e-3
-1.280, 1.053e-3
-1.281, 1.049e-3
-1.282, 1.041e-3
-1.283, 1.036e-3
-1.284, 1.024e-3
-1.285, 1.014e-3
-1.286, 1.011e-3
-1.287, 1.010e-3
-1.288, 1.001e-3
-1.289, 9.877e-4
-1.290, 9.871e-4
-1.291, 9.902e-4
-1.292, 9.831e-4
-1.293, 9.775e-4
-1.294, 9.729e-4
-1.295, 9.646e-4
-1.296, 9.716e-4
-1.297, 9.671e-4
-1.298, 9.608e-4
-1.299, 9.578e-4
-1.300, 9.579e-4
-1.301, 9.520e-4
-1.302, 9.562e-4
-1.303, 9.610e-4
-1.304, 9.556e-4
-1.305, 9.516e-4
-1.306, 9.531e-4
-1.307, 9.570e-4
-1.308, 9.605e-4
-1.309, 9.603e-4
-1.310, 9.628e-4
-1.311, 9.673e-4
-1.312, 9.667e-4
-1.313, 9.686e-4
-1.314, 9.781e-4
-1.315, 9.826e-4
-1.316, 9.818e-4
-1.317, 9.845e-4
-1.318, 9.916e-4
-1.319, 1.001e-3
-1.320, 1.007e-3
-1.321, 1.012e-3
-1.322, 1.017e-3
-1.323, 1.015e-3
-1.324, 1.029e-3
-1.325, 1.036e-3
-1.326, 1.042e-3
-1.327, 1.052e-3
-1.328, 1.061e-3
-1.329, 1.066e-3
-1.330, 1.076e-3
-1.331, 1.090e-3
-1.332, 1.098e-3
-1.333, 1.104e-3
-1.334, 1.117e-3
-1.335, 1.126e-3
-1.336, 1.145e-3
-1.337, 1.152e-3
-1.338, 1.153e-3
-1.339, 1.169e-3
-1.340, 1.191e-3
-1.341, 1.203e-3
-1.342, 1.213e-3
-1.343, 1.217e-3
-1.344, 1.229e-3
-1.345, 1.259e-3
-1.346, 1.277e-3
-1.347, 1.273e-3
-1.348, 1.284e-3
-1.349, 1.317e-3
-1.350, 1.330e-3
-1.351, 1.341e-3
-1.352, 1.356e-3
-1.353, 1.378e-3
-1.354, 1.394e-3
-1.355, 1.413e-3
-1.356, 1.430e-3
-1.357, 1.446e-3
-1.358, 1.466e-3
-1.359, 1.489e-3
-1.360, 1.508e-3
-1.361, 1.533e-3
-1.362, 1.561e-3
-1.363, 1.568e-3
-1.364, 1.585e-3
-1.365, 1.617e-3
-1.366, 1.651e-3
-1.367, 1.664e-3
-1.368, 1.677e-3
-1.369, 1.705e-3
-1.370, 1.731e-3
-1.371, 1.768e-3
-1.372, 1.791e-3
-1.373, 1.804e-3
-1.374, 1.837e-3
-1.375, 1.860e-3
-1.376, 1.886e-3
-1.377, 1.921e-3
-1.378, 1.955e-3
-1.379, 1.986e-3
-1.380, 2.007e-3
-1.381, 2.045e-3
-1.382, 2.087e-3
-1.383, 2.114e-3
-1.384, 2.149e-3
-1.385, 2.189e-3
-1.386, 2.214e-3
-1.387, 2.268e-3
-1.388, 2.305e-3
-1.389, 2.333e-3
-1.390, 2.386e-3
-1.391, 2.433e-3
-1.392, 2.473e-3
-1.393, 2.511e-3
-1.394, 2.566e-3
-1.395, 2.625e-3
-1.396, 2.680e-3
-1.397, 2.716e-3
-1.398, 2.768e-3
-1.399, 2.838e-3
-1.400, 2.916e-3
-1.401, 2.972e-3
-1.402, 3.018e-3
-1.403, 3.077e-3
-1.404, 3.159e-3
-1.405, 3.252e-3
-1.406, 3.316e-3
-1.407, 3.364e-3
-1.408, 3.457e-3
-1.409, 3.550e-3
-1.410, 3.631e-3
-1.411, 3.706e-3
-1.412, 3.812e-3
-1.413, 3.924e-3
-1.414, 3.988e-3
-1.415, 4.108e-3
-1.416, 4.227e-3
-1.417, 4.304e-3
-1.418, 4.403e-3
-1.419, 4.515e-3
-1.420, 4.651e-3
-1.421, 4.795e-3
-1.422, 4.885e-3
-1.423, 4.982e-3
-1.424, 5.118e-3
-1.425, 5.301e-3
-1.426, 5.451e-3
-1.427, 5.544e-3
-1.428, 5.674e-3
-1.429, 5.884e-3
-1.430, 6.060e-3
-1.431, 6.167e-3
-1.432, 6.330e-3
-1.433, 6.560e-3
-1.434, 6.701e-3
-1.435, 6.855e-3
-1.436, 7.038e-3
-1.437, 7.265e-3
-1.438, 7.421e-3
-1.439, 7.590e-3
-1.440, 7.776e-3
-1.441, 7.959e-3
-1.442, 8.144e-3
-1.443, 8.349e-3
-1.444, 8.506e-3
-1.445, 8.715e-3
-1.446, 8.958e-3
-1.447, 9.093e-3
-1.448, 9.172e-3
-1.449, 9.351e-3
-1.450, 9.583e-3
-1.451, 9.735e-3
-1.452, 9.870e-3
-1.453, 1.003e-2
-1.454, 1.023e-2
-1.455, 1.046e-2
-1.456, 1.054e-2
-1.457, 1.065e-2
-1.458, 1.086e-2
-1.459, 1.104e-2
-1.460, 1.116e-2
-1.461, 1.125e-2
-1.462, 1.139e-2
-1.463, 1.157e-2
-1.464, 1.173e-2
-1.465, 1.179e-2
-1.466, 1.199e-2
-1.467, 1.220e-2
-1.468, 1.227e-2
-1.469, 1.231e-2
-1.470, 1.245e-2
-1.471, 1.268e-2
-1.472, 1.283e-2
-1.473, 1.283e-2
-1.474, 1.293e-2
-1.475, 1.313e-2
-1.476, 1.322e-2
-1.477, 1.328e-2
-1.478, 1.340e-2
-1.479, 1.353e-2
-1.480, 1.362e-2
-1.481, 1.369e-2
-1.482, 1.382e-2
-1.483, 1.394e-2
-1.484, 1.404e-2
-1.485, 1.407e-2
-1.486, 1.416e-2
-1.487, 1.433e-2
-1.488, 1.445e-2
-1.489, 1.445e-2
-1.490, 1.446e-2
-1.491, 1.460e-2
-1.492, 1.469e-2
-1.493, 1.472e-2
-1.494, 1.484e-2
-1.495, 1.493e-2
-1.496, 1.494e-2
-1.497, 1.507e-2
-1.498, 1.516e-2
-1.499, 1.519e-2
-1.500, 1.513e-2
-1.499, 1.501e-2
-1.498, 1.484e-2
-1.497, 1.458e-2
-1.496, 1.442e-2
-1.495, 1.431e-2
-1.494, 1.410e-2
-1.493, 1.393e-2
-1.492, 1.385e-2
-1.491, 1.365e-2
-1.490, 1.343e-2
-1.489, 1.335e-2
-1.488, 1.323e-2
-1.487, 1.303e-2
-1.486, 1.290e-2
-1.485, 1.278e-2
-1.484, 1.260e-2
-1.483, 1.248e-2
-1.482, 1.241e-2
-1.481, 1.226e-2
-1.480, 1.217e-2
-1.479, 1.204e-2
-1.478, 1.181e-2
-1.477, 1.160e-2
-1.476, 1.160e-2
-1.475, 1.151e-2
-1.474, 1.130e-2
-1.473, 1.113e-2
-1.472, 1.104e-2
-1.471, 1.092e-2
-1.470, 1.080e-2
-1.469, 1.073e-2
-1.468, 1.059e-2
-1.467, 1.043e-2
-1.466, 1.029e-2
-1.465, 1.021e-2
-1.464, 1.012e-2
-1.463, 9.955e-3
-1.462, 9.907e-3
-1.461, 9.829e-3
-1.460, 9.774e-3
-1.459, 9.629e-3
-1.458, 9.494e-3
-1.457, 9.386e-3
-1.456, 9.331e-3
-1.455, 9.267e-3
-1.454, 9.162e-3
-1.453, 9.023e-3
-1.452, 8.910e-3
-1.451, 8.800e-3
-1.450, 8.750e-3
-1.449, 8.673e-3
-1.448, 8.560e-3
-1.447, 8.455e-3
-1.446, 8.365e-3
-1.445, 8.259e-3
-1.444, 8.134e-3
-1.443, 8.104e-3
-1.442, 8.060e-3
-1.441, 7.929e-3
-1.440, 7.833e-3
-1.439, 7.758e-3
-1.438, 7.664e-3
-1.437, 7.552e-3
-1.436, 7.462e-3
-1.435, 7.353e-3
-1.434, 7.244e-3
-1.433, 7.110e-3
-1.432, 7.004e-3
-1.431, 6.938e-3
-1.430, 6.847e-3
-1.429, 6.754e-3
-1.428, 6.686e-3
-1.427, 6.562e-3
-1.426, 6.459e-3
-1.425, 6.379e-3
-1.424, 6.279e-3
-1.423, 6.201e-3
-1.422, 6.136e-3
-1.421, 6.008e-3
-1.420, 5.891e-3
-1.419, 5.800e-3
-1.418, 5.698e-3
-1.417, 5.611e-3
-1.416, 5.545e-3
-1.415, 5.435e-3
-1.414, 5.344e-3
-1.413, 5.263e-3
-1.412, 5.171e-3
-1.411, 5.083e-3
-1.410, 4.981e-3
-1.409, 4.914e-3
-1.408, 4.839e-3
-1.407, 4.739e-3
-1.406, 4.646e-3
-1.405, 4.557e-3
-1.404, 4.490e-3
-1.403, 4.392e-3
-1.402, 4.323e-3
-1.401, 4.252e-3
-1.400, 4.173e-3
-1.399, 4.066e-3
-1.398, 3.988e-3
-1.397, 3.936e-3
-1.396, 3.869e-3
-1.395, 3.774e-3
-1.394, 3.685e-3
-1.393, 3.600e-3
-1.392, 3.537e-3
-1.391, 3.470e-3
-1.390, 3.405e-3
-1.389, 3.320e-3
-1.388, 3.263e-3
-1.387, 3.188e-3
-1.386, 3.113e-3
-1.385, 3.033e-3
-1.384, 2.957e-3
-1.383, 2.909e-3
-1.382, 2.843e-3
-1.381, 2.771e-3
-1.380, 2.707e-3
-1.379, 2.659e-3
-1.378, 2.599e-3
-1.377, 2.536e-3
-1.376, 2.465e-3
-1.375, 2.400e-3
-1.374, 2.371e-3
-1.373, 2.306e-3
-1.372, 2.236e-3
-1.371, 2.171e-3
-1.370, 2.120e-3
-1.369, 2.076e-3
-1.368, 2.020e-3
-1.367, 1.969e-3
-1.366, 1.917e-3
-1.365, 1.861e-3
-1.364, 1.824e-3
-1.363, 1.780e-3
-1.362, 1.734e-3
-1.361, 1.687e-3
-1.360, 1.645e-3
-1.359, 1.601e-3
-1.358, 1.557e-3
-1.357, 1.505e-3
-1.356, 1.465e-3
-1.355, 1.429e-3
-1.354, 1.386e-3
-1.353, 1.330e-3
-1.352, 1.285e-3
-1.351, 1.248e-3
-1.350, 1.208e-3
-1.349, 1.162e-3
-1.348, 1.125e-3
-1.347, 1.088e-3
-1.346, 1.052e-3
-1.345, 1.014e-3
-1.344, 9.759e-4
-1.343, 9.405e-4
-1.342, 9.051e-4
-1.341, 8.739e-4
-1.340, 8.427e-4
-1.339, 8.117e-4
-1.338, 7.775e-4
-1.337, 7.439e-4
-1.336, 7.157e-4
-1.335, 6.891e-4
-1.334, 6.609e-4
-1.333, 6.313e-4
-1.332, 6.060e-4
-1.331, 5.840e-4
-1.330, 5.594e-4
-1.329, 5.335e-4
-1.328, 5.069e-4
-1.327, 4.760e-4
-1.326, 4.526e-4
-1.325, 4.325e-4
-1.324, 4.104e-4
-1.323, 3.860e-4
-1.322, 3.637e-4
-1.321, 3.422e-4
-1.320, 3.243e-4
-1.319, 3.024e-4
-1.318, 2.802e-4
-1.317, 2.588e-4
-1.316, 2.414e-4
-1.315, 2.263e-4
-1.314, 2.097e-4
-1.313, 1.899e-4
-1.312, 1.714e-4
-1.311, 1.552e-4
-1.310, 1.398e-4
-1.309, 1.253e-4
-1.308, 1.081e-4
-1.307, 9.267e-5
-1.306, 7.864e-5
-1.305, 6.460e-5
-1.304, 5.050e-5
-1.303, 3.541e-5
-1.302, 2.009e-5
-1.301, 8.315e-6
-1.300, -3.968e-6
-1.299, -1.628e-5
-1.298, -2.966e-5
-1.297, -4.396e-5
-1.296, -5.402e-5
-1.295, -6.520e-5
-1.294, -7.671e-5
-1.293, -8.841e-5
-1.292, -1.008e-4
-1.291, -1.108e-4
-1.290, -1.194e-4
-1.289, -1.301e-4
-1.288, -1.410e-4
-1.287, -1.525e-4
-1.286, -1.614e-4
-1.285, -1.660e-4
-1.284, -1.754e-4
-1.283, -1.878e-4
-1.282, -1.981e-4
-1.281, -2.063e-4
-1.280, -2.149e-4
-1.279, -2.225e-4
-1.278, -2.321e-4
-1.277, -2.411e-4
-1.276, -2.496e-4
-1.275, -2.549e-4
-1.274, -2.610e-4
-1.273, -2.712e-4
-1.272, -2.788e-4
-1.271, -2.854e-4
-1.270, -2.937e-4
-1.269, -3.022e-4
-1.268, -3.111e-4
-1.267, -3.176e-4
-1.266, -3.236e-4
-1.265, -3.327e-4
-1.264, -3.390e-4
-1.263, -3.476e-4
-1.262, -3.549e-4
-1.261, -3.617e-4
-1.260, -3.683e-4
-1.259, -3.746e-4
-1.258, -3.836e-4
-1.257, -3.906e-4
-1.256, -3.949e-4
-1.255, -4.026e-4
-1.254, -4.094e-4
-1.253, -4.161e-4
-1.252, -4.253e-4
-1.251, -4.319e-4
-1.250, -4.373e-4
-1.249, -4.453e-4
-1.248, -4.507e-4
-1.247, -4.575e-4
-1.246, -4.658e-4
-1.245, -4.727e-4
-1.244, -4.788e-4
-1.243, -4.876e-4
-1.242, -4.988e-4
-1.241, -5.041e-4
-1.240, -5.059e-4
-1.239, -5.096e-4
-1.238, -5.185e-4
-1.237, -5.306e-4
-1.236, -5.375e-4
-1.235, -5.406e-4
-1.234, -5.462e-4
-1.233, -5.547e-4
-1.232, -5.628e-4
-1.231, -5.686e-4
-1.230, -5.751e-4
-1.229, -5.849e-4
-1.228, -5.942e-4
-1.227, -5.969e-4
-1.226, -6.032e-4
-1.225, -6.148e-4
-1.224, -6.236e-4
-1.223, -6.290e-4
-1.222, -6.343e-4
-1.221, -6.390e-4
-1.220, -6.476e-4
-1.219, -6.562e-4
-1.218, -6.633e-4
-1.217, -6.726e-4
-1.216, -6.814e-4
-1.215, -6.894e-4
-1.214, -6.915e-4
-1.213, -7.010e-4
-1.212, -7.135e-4
-1.211, -7.243e-4
-1.210, -7.297e-4
-1.209, -7.343e-4
-1.208, -7.385e-4
-1.207, -7.473e-4
-1.206, -7.608e-4
-1.205, -7.674e-4
-1.204, -7.728e-4
-1.203, -7.871e-4
-1.202, -7.971e-4
-1.201, -8.036e-4
-1.200, -8.101e-4
-1.199, -8.213e-4
-1.198, -8.314e-4
-1.197, -8.404e-4
-1.196, -8.474e-4
-1.195, -8.565e-4
-1.194, -8.644e-4
-1.193, -8.759e-4
-1.192, -8.900e-4
-1.191, -8.998e-4
-1.190, -9.081e-4
-1.189, -9.093e-4
-1.188, -9.223e-4
-1.187, -9.395e-4
-1.186, -9.502e-4
-1.185, -9.583e-4
-1.184, -9.672e-4
-1.183, -9.758e-4
-1.182, -9.851e-4
-1.181, -9.953e-4
-1.180, -1.006e-3
-1.179, -1.015e-3
-1.178, -1.028e-3
-1.177, -1.040e-3
-1.176, -1.048e-3
-1.175, -1.058e-3
-1.174, -1.069e-3
-1.173, -1.079e-3
-1.172, -1.086e-3
-1.171, -1.100e-3
-1.170, -1.110e-3
-1.169, -1.123e-3
-1.168, -1.131e-3
-1.167, -1.136e-3
-1.166, -1.149e-3
-1.165, -1.164e-3
-1.164, -1.171e-3
-1.163, -1.176e-3
-1.162, -1.182e-3
-1.161, -1.199e-3
-1.160, -1.203e-3
-1.159, -1.214e-3
-1.158, -1.222e-3
-1.157, -1.231e-3
-1.156, -1.240e-3
-1.155, -1.245e-3
-1.154, -1.257e-3
-1.153, -1.269e-3
-1.152, -1.271e-3
-1.151, -1.271e-3
-1.150, -1.277e-3
-1.149, -1.291e-3
-1.148, -1.299e-3
-1.147, -1.301e-3
-1.146, -1.314e-3
-1.145, -1.321e-3
-1.144, -1.326e-3
-1.143, -1.327e-3
-1.142, -1.333e-3
-1.141, -1.337e-3
-1.140, -1.344e-3
-1.139, -1.353e-3
-1.138, -1.355e-3
-1.137, -1.359e-3
-1.136, -1.365e-3
-1.135, -1.372e-3
-1.134, -1.376e-3
-1.133, -1.379e-3
-1.132, -1.382e-3
-1.131, -1.385e-3
-1.130, -1.388e-3
-1.129, -1.392e-3
-1.128, -1.399e-3
-1.127, -1.404e-3
-1.126, -1.409e-3
-1.125, -1.413e-3
-1.124, -1.419e-3
-1.123, -1.417e-3
-1.122, -1.419e-3
-1.121, -1.431e-3
-1.120, -1.432e-3
-1.119, -1.430e-3
-1.118, -1.434e-3
-1.117, -1.438e-3
-1.116, -1.441e-3
-1.115, -1.443e-3
-1.114, -1.446e-3
-1.113, -1.441e-3
-1.112, -1.448e-3
-1.111, -1.454e-3
-1.110, -1.454e-3
-1.109, -1.448e-3
-1.108, -1.455e-3
-1.107, -1.469e-3
-1.106, -1.465e-3
-1.105, -1.459e-3
-1.104, -1.462e-3
-1.103, -1.469e-3
-1.102, -1.472e-3
-1.101, -1.472e-3
-1.100, -1.472e-3
-1.099, -1.482e-3
-1.098, -1.485e-3
-1.097, -1.478e-3
-1.096, -1.477e-3
-1.095, -1.486e-3
-1.094, -1.486e-3
-1.093, -1.486e-3
-1.092, -1.498e-3
-1.091, -1.487e-3
-1.090, -1.482e-3
-1.089, -1.491e-3
-1.088, -1.497e-3
-1.087, -1.497e-3
-1.086, -1.490e-3
-1.085, -1.493e-3
-1.084, -1.496e-3
-1.083, -1.496e-3
-1.082, -1.495e-3
-1.081, -1.492e-3
-1.080, -1.497e-3
-1.079, -1.501e-3
-1.078, -1.501e-3
-1.077, -1.506e-3
-1.076, -1.504e-3
-1.075, -1.499e-3
-1.074, -1.500e-3
-1.073, -1.505e-3
-1.072, -1.507e-3
-1.071, -1.505e-3
-1.070, -1.502e-3
-1.069, -1.498e-3
-1.068, -1.504e-3
-1.067, -1.513e-3
-1.066, -1.509e-3
-1.065, -1.499e-3
-1.064, -1.500e-3
-1.063, -1.505e-3
-1.062, -1.509e-3
-1.061, -1.506e-3
-1.060, -1.503e-3
-1.059, -1.502e-3
-1.058, -1.507e-3
-1.057, -1.509e-3
-1.056, -1.515e-3
-1.055, -1.516e-3
-1.054, -1.498e-3
-1.053, -1.499e-3
-1.052, -1.517e-3
-1.051, -1.529e-3
-1.050, -1.520e-3
-1.049, -1.512e-3
-1.048, -1.514e-3
-1.047, -1.524e-3
-1.046, -1.522e-3
-1.045, -1.523e-3
-1.044, -1.521e-3
-1.043, -1.521e-3
-1.042, -1.524e-3
-1.041, -1.525e-3
-1.040, -1.524e-3
-1.039, -1.525e-3
-1.038, -1.530e-3
-1.037, -1.533e-3
-1.036, -1.524e-3
-1.035, -1.523e-3
-1.034, -1.531e-3
-1.033, -1.537e-3
-1.032, -1.535e-3
-1.031, -1.525e-3
-1.030, -1.527e-3
-1.029, -1.534e-3
-1.028, -1.551e-3
-1.027, -1.563e-3
-1.026, -1.573e-3
-1.025, -1.568e-3
-1.024, -1.555e-3
-1.023, -1.563e-3
-1.022, -1.578e-3
-1.021, -1.576e-3
-1.020, -1.569e-3
-1.019, -1.558e-3
-1.018, -1.566e-3
-1.017, -1.574e-3
-1.016, -1.573e-3
-1.015, -1.569e-3
-1.014, -1.567e-3
-1.013, -1.570e-3
-1.012, -1.582e-3
-1.011, -1.593e-3
-1.010, -1.590e-3
-1.009, -1.587e-3
-1.008, -1.589e-3
-1.007, -1.600e-3
-1.006, -1.590e-3
-1.005, -1.594e-3
-1.004, -1.605e-3
-1.003, -1.617e-3
-1.002, -1.621e-3
-1.001, -1.611e-3
