Potential V vs RHE, Current mA cm-2
0.013299999999999867,1.9310809243157752
0.012299999999999978,0.03785767438438838
0.011299999999999866,-1.6226738609451972
0.010299999999999976,-3.0586058303082093
0.009299999999999864,-4.084271522710361
0.008299999999999974,-5.037786938819395
0.007299999999999862,-6.056379074722222
0.006299999999999972,-6.786370105452581
0.00529999999999986,-7.389037119195086
0.0042999999999999705,-8.171372468020452
0.0032999999999998586,-8.800918996460393
0.0022999999999999687,-9.24938247851761
0.0012999999999998568,-9.84497593576079
0.00029999999999996696,-10.430666413904916
-0.000700000000000145,-10.77727068237185
-0.0017000000000000348,-11.1960252271319
-0.0027000000000001467,-11.74917734537913
-0.0037000000000000366,-12.087293346046872
-0.0047000000000001485,-12.32779426702393
-0.005700000000000038,-12.820113799376964
-0.00670000000000015,-13.216232963339174
-0.00770000000000004,-13.468051574715151
-0.008700000000000152,-13.84436478047925
-0.009700000000000042,-14.274437015638219
-0.010700000000000154,-14.500790823616628
-0.011700000000000044,-14.797880196588284
-0.012700000000000156,-15.236440699546446
-0.013700000000000045,-15.3920589425316
-0.014700000000000157,-15.547677185516752
-0.015700000000000047,-15.943796349478962
-0.01670000000000016,-16.25503283544927
-0.01770000000000005,-16.382356852437127
-0.01870000000000016,-16.693593338407435
-0.01970000000000005,-17.089712502369647
-0.020700000000000163,-17.316066310348052
-0.021700000000000053,-17.556567231325104
-0.022700000000000164,-17.952686395287316
-0.023700000000000054,-18.164893090267068
-0.024700000000000166,-18.348805559249524
-0.025700000000000056,-18.759071836210385
-0.026700000000000168,-19.042014096183394
-0.027700000000000058,-19.169338113171246
-0.02870000000000017,-19.480574599141555
-0.02970000000000006,-19.848399537106463
-0.03070000000000017,-20.00401778009162
-0.03170000000000006,-20.230371588070028
-0.03270000000000017,-20.640637865030882
-0.03370000000000006,-20.881138786007945
-0.034700000000000175,-21.065051254990397
-0.035700000000000065,-21.43287619295531
-0.03670000000000018,-21.68752422693101
-0.03770000000000007,-21.758259791924264
-0.03870000000000018,-22.04120205189727
-0.03970000000000007,-22.36658565086623
-0.04070000000000018,-22.508056780852733
-0.04170000000000007,-22.76270481482844
-0.04270000000000018,-23.187118204787954
-0.04370000000000007,-23.48420757775961
-0.044700000000000184,-23.710561385738018
-0.045700000000000074,-24.134974775697525
-0.046700000000000186,-24.44621126166783
-0.047700000000000076,-24.559388165657033
-0.04870000000000019,-24.884771764625995
-0.04970000000000008,-25.252596702590903
-0.05070000000000019,-25.37992071957876
-0.05170000000000008,-25.57798030155986
-0.05270000000000019,-25.959952352523427
-0.05370000000000008,-26.15801193450453
-0.05470000000000019,-26.29948306449103
-0.05570000000000008,-26.65316088945729
-0.056700000000000195,-26.95025026242895
-0.057700000000000085,-27.06342716641815
-0.058700000000000196,-27.37466365238846
-0.059700000000000086,-27.700047251357418
-0.0607000000000002,-27.728341477354718
-0.06170000000000009,-27.926401059335824
-0.0627000000000002,-28.32252022329803
-0.06370000000000009,-28.506432692280487
-0.0647000000000002,-28.647903822266994
-0.06570000000000009,-29.015728760231898
-0.0667000000000002,-29.35525947219951
-0.0677000000000001,-29.539171941181966
-0.0687000000000002,-29.906996879146874
-0.0697000000000001,-30.288968930110435
-0.07070000000000021,-30.45873428609424
-0.0717000000000001,-30.670940981073993
-0.07270000000000021,-31.052913032037555
-0.0737000000000001,-31.22267838802136
-0.07470000000000021,-31.335855292010564
-0.0757000000000001,-31.689533116976815
-0.07670000000000021,-31.94418115095253
-0.0777000000000001,-31.95832826395118
-0.07870000000000021,-32.283711862920136
-0.0797000000000001,-32.6090954618891
-0.08070000000000022,-32.7222723658783
-0.0817000000000001,-32.9486261738567
-0.08270000000000022,-33.274009772825664
-0.08370000000000011,-33.38718667681487
-0.08470000000000022,-33.58524625879597
-0.08570000000000011,-33.910629857764924
-0.08670000000000022,-34.179425004739294
-0.08770000000000011,-34.25016056973254
-0.08870000000000022,-34.5755441687015
-0.08970000000000011,-34.92922199366775
-0.09070000000000022,-34.95751621966506
-0.09170000000000011,-35.14142868864751
-0.09270000000000023,-35.55169496560837
-0.09370000000000012,-35.91951990357328
-0.09470000000000023,-36.17416793754898
-0.09570000000000012,-36.52784576251525
-0.09670000000000023,-36.725905344496354
-0.09770000000000012,-36.8532293614842
-0.09870000000000023,-37.05128894346531
-0.09970000000000012,-37.221054299449115
-0.10070000000000023,-37.305936977441014
-0.10170000000000012,-37.58887923741403
-0.10270000000000024,-38.02743974037218
-0.10370000000000013,-38.05573396636949
-0.10470000000000024,-38.08402819236679
-0.10570000000000013,-38.4518531303317
-0.10670000000000024,-38.791383842299304
-0.10770000000000013,-38.97529631128177
-0.10870000000000024,-39.328974136248014
-0.10970000000000013,-39.739240413208876
-0.11070000000000024,-39.96559422118728
-0.11170000000000013,-40.191948029165694
-0.11270000000000002,-40.57392008012925
-0.11370000000000013,-40.729538323114404
-0.11470000000000002,-40.84271522710361
-0.11570000000000014,-41.210540165068515
-0.11670000000000003,-41.46518819904423
-0.11770000000000014,-41.57836510303343
-0.11870000000000003,-41.88960158900374
-0.11970000000000014,-42.28572075296594
-0.12070000000000003,-42.497927447945706
-0.12170000000000014,-42.86575238591062
-0.12270000000000003,-43.30431288886877
-0.12370000000000014,-43.57310803584313
-0.12470000000000003,-44.025815651799945
-0.12570000000000014,-44.45022904175945
-0.12670000000000003,-44.690729962736505
-0.12770000000000015,-44.78975975372706
-0.12870000000000004,-45.01611356170547
-0.12970000000000015,-45.29905582167847
-0.13070000000000004,-45.51126251665823
-0.13170000000000015,-45.82249900262854
-0.13270000000000004,-46.36008929657725
-0.13370000000000015,-46.72791423454216
-0.13470000000000004,-46.99670938151652
-0.13570000000000015,-47.435269884474685
-0.13670000000000004,-47.71821214444768
-0.13770000000000016,-47.85968327443419
-0.13870000000000005,-48.1992139864018
-0.13970000000000016,-48.51045047237211
-0.14070000000000005,-48.66606871535726
-0.14170000000000016,-49.090482105316774
-0.14270000000000005,-49.61392528626684
-0.14370000000000016,-49.89686754623985
-0.14470000000000005,-50.22225114520881
-0.14570000000000016,-50.70325298716291
-0.14670000000000005,-51.071077925127824
-0.14770000000000016,-51.35402018510083
-0.14870000000000005,-51.8774633660509
-0.14970000000000017,-52.35846520800501
-0.15070000000000006,-52.485789224992864
-0.15170000000000017,-52.65555458097666
-0.15270000000000006,-52.83946704995912
-0.15370000000000017,-53.15070353592942
-0.15470000000000006,-53.433645795902436
-0.15570000000000017,-54.0136774288471
-0.15670000000000006,-54.409796592809315
-0.15770000000000017,-54.72103307877962
-0.15870000000000006,-55.385947389716186
-0.15970000000000018,-56.022567474655446
-0.16070000000000007,-56.37624529962171
-0.16170000000000018,-56.67333467259337
-0.16270000000000007,-57.12604228855018
-0.16370000000000018,-57.423131661521836
-0.16470000000000007,-57.62119124350295
-0.16570000000000018,-57.904133503475954
-0.16670000000000007,-57.98901618146786
-0.16770000000000018,-58.05975174646111
-0.16870000000000007,-58.44172379742467
-0.16970000000000018,-58.86613718738417
-0.17070000000000007,-59.10663810836124
-0.17170000000000019,-59.502757272323436
-0.17270000000000008,-59.9696120012789
-0.1737000000000002,-60.47890806923032
-0.17470000000000008,-61.228705058158795
-0.1757000000000002,-61.936060708091304
-0.17670000000000008,-62.459503889041365
-0.1777000000000002,-62.67171058402113
-0.17870000000000008,-62.98294706999144
-0.1797000000000002,-63.26588932996445
-0.18070000000000008,-63.29418355596174
-0.1817000000000002,-63.57712581593475
-0.18270000000000008,-64.10056899688482
-0.1837000000000002,-64.44009970885242
-0.1847000000000001,-64.76548330782138
-0.1857000000000002,-65.23233803677684
-0.1867000000000001,-65.64260431373769
-0.1877000000000002,-65.9821350257053
-0.1887000000000001,-66.46313686765943
-0.1897000000000002,-66.97243293561084
-0.1907000000000001,-67.3261107605771
-0.1917000000000001,-67.90614239352176
-0.19269999999999998,-68.51446825246373
-0.1937000000000001,-68.8115576254354
-0.19469999999999998,-69.02376432041514
-0.1957000000000001,-69.40573637137871
-0.19669999999999999,-69.46232482337331
-0.1977000000000001,-69.64623729235576
-0.1987,-69.98576800432336
-0.1997000000000001,-70.32529871629096
-0.2007,-70.45262273327883
-0.2017000000000001,-70.77800633224777
-0.2027,-71.21656683520595
-0.2037000000000001,-71.41462641718705
-0.2047,-71.69756867716005
-0.2057000000000001,-72.34833587509796
-0.2067,-72.8293377170521
-0.2077000000000001,-73.08398575102778
-0.2087,-73.4235164629954
-0.2097000000000001,-73.91866541794816
-0.2107,-74.10257788693062
-0.2117000000000001,-74.22990190391847
-0.2127,-74.61187395488203
-0.2137000000000001,-74.82408064986178
-0.2147,-75.02214023184291
-0.2157000000000001,-75.43240650880375
-0.2167,-75.63046609078486
-0.21770000000000012,-75.82852567276596
-0.2187,-76.16805638473357
-0.21970000000000012,-76.47929287070389
-0.2207,-76.57832266169444
-0.22170000000000012,-76.7622351306769
-0.2227,-77.31397253762425
-0.22370000000000012,-77.62520902359456
-0.2247,-77.56862057159996
-0.22570000000000012,-77.71009170158646
-0.2267,-77.97888684856083
-0.22770000000000012,-78.06376952655272
-0.22870000000000001,-78.30427044752979
-0.22970000000000013,-78.67209538549469
-0.23070000000000002,-78.7852722894839
-0.23170000000000013,-78.983331871465
-0.23270000000000002,-79.39359814842585
-0.23370000000000013,-79.56336350440966
-0.23470000000000002,-79.61995195640426
-0.23570000000000013,-79.94533555537322
-0.23670000000000002,-80.15754225035298
-0.2376999999999999,-80.12924802435568
-0.23870000000000002,-80.34145471933543
-0.2396999999999999,-80.36974894533273
-0.24070000000000003,-80.17168936335163
-0.24169999999999991,-80.15754225035298
-0.24270000000000003,-80.36974894533273
-0.24369999999999992,-80.35560183233409
-0.24470000000000003,-80.27071915434219
-0.24569999999999992,-80.49707296232059
-0.24670000000000003,-80.70927965730034
-0.24769999999999992,-80.61024986630979
-0.24870000000000003,-80.76586810929494
-0.24969999999999992,-80.93563346527876
-0.25070000000000003,-80.8366036742882
-0.2516999999999999,-80.72342677029899
-0.25270000000000004,-80.90733923928146
-0.2536999999999999,-80.7517209962963
-0.25470000000000004,-80.45463162332464
-0.2556999999999999,-80.53951430131653
-0.25670000000000004,-80.42633739732734
-0.25769999999999993,-79.98777689436918
-0.25870000000000004,-80.01607112036648
-0.25969999999999993,-80.14339513735433
-0.26070000000000004,-79.86045287738132
-0.26169999999999993,-79.59165773040696
-0.26270000000000004,-79.76142308639076
-0.26369999999999993,-79.64824618240156
-0.26470000000000005,-79.20968567944341
-0.26569999999999994,-78.9267434194704
-0.26670000000000005,-78.68624249849334
-0.26769999999999994,-78.43159446451764
-0.26870000000000005,-78.45988869051493
-0.26969999999999994,-78.60135982050144
-0.27070000000000005,-78.20524065653922
-0.27169999999999994,-77.87985705757028
-0.27270000000000005,-77.82326860557566
-0.27369999999999994,-77.34226676362155
-0.27470000000000006,-76.66320533968634
-0.27569999999999995,-76.43685153170793
-0.27670000000000006,-76.05487948074436
-0.27769999999999995,-75.06458157083884
-0.27870000000000006,-74.30063746891172
-0.27969999999999995,-74.00354809594008
-0.28070000000000006,-73.62157604497652
-0.28169999999999995,-73.21130976801565
-0.28270000000000006,-72.97080884703858
-0.28369999999999995,-72.51810123108179
-0.28470000000000006,-72.02295227612902
-0.28569999999999995,-71.66927445116276
-0.28670000000000007,-71.1458312702127
-0.28769999999999996,-70.59409386326533
-0.28870000000000007,-70.36774005528693
-0.28969999999999996,-70.14138624730852
-0.29070000000000007,-69.57550172736251
-0.29169999999999996,-69.08035277240974
-0.29270000000000007,-68.86814607742998
-0.29369999999999996,-68.52861536546239
-0.2947000000000001,-67.9485837325177
-0.29569999999999996,-67.48172900356225
-0.2967000000000001,-66.97243293561084
-0.29769999999999996,-66.32166573767293
-0.2987000000000001,-65.84066389571882
-0.29969999999999997,-65.2181909237782
-0.3007000000000001,-64.56742372584027
-0.30169999999999997,-64.08642188388616
-0.3027000000000001,-63.7044498329226
-0.30369999999999997,-63.06782974798333
-0.3047000000000001,-62.459503889041365
-0.30569999999999997,-62.17656162906836
-0.3067000000000001,-61.794589578104805
-0.3077,-61.242852171157445
-0.3087000000000001,-60.988204137181725
-0.3097,-60.60623208621817
-0.3107000000000001,-59.72911108030185
-0.3117,-59.19152078635314
-0.3127000000000001,-58.78125450939227
-0.3137,-57.96072195547055
-0.3147000000000001,-57.26751341853669
-0.3157,-56.88554136757313
-0.3167000000000001,-56.404539525619015
-0.3177,-55.881096344668954
-0.3187000000000001,-55.5840069716973
-0.3197,-55.11715224274183
-0.3207000000000001,-54.551267722795814
-0.3217,-54.2966196888201
-0.3227000000000001,-54.1551485588336
-0.3237,-53.74488228187274
-0.3247000000000001,-53.29217466591593
-0.3257,-52.78287859796452
-0.3267000000000001,-52.31602386900906
-0.3277,-51.792580688059
-0.3287000000000001,-51.481344202088685
-0.3297,-51.17010771611838
-0.3307000000000001,-50.73154721316022
-0.3317,-50.50519340518181
-0.3327000000000001,-50.43445784018856
-0.3337,-49.967603111233096
-0.3347000000000001,-49.571483947270885
-0.3357,-49.43001281728438
-0.3367000000000001,-49.21780612230463
-0.3377,-48.87827541033702
-0.3387000000000001,-48.75095139334916
-0.3397,-48.63777448935996
-0.3407000000000001,-48.45386202037751
-0.3417,-48.41142068138156
-0.3427000000000001,-48.51045047237211
-0.3437,-48.35483222938696
-0.3447000000000001,-48.156772647405845
-0.3457,-48.114331308409895
-0.3467000000000001,-47.8879775004315
-0.3477,-47.520152562466585
-0.3487000000000001,-47.37868143248008
-0.3497,-47.33624009348412
-0.3507000000000001,-47.23721030249357
-0.3517,-47.32209298048547
-0.3527000000000001,-47.590888127459834
-0.3537,-47.56259390146253
-0.3547000000000001,-47.56259390146253
-0.3557,-47.77480059644228
-0.35670000000000013,-47.87383038743284
-0.3577,-47.84553616143554
-0.35870000000000013,-48.029448630417996
-0.3597,-48.21336109940045
-0.36070000000000013,-48.2275082123991
-0.3617,-48.3406851163883
-0.3626999999999999,-48.66606871535726
-0.3637,-48.76509850634781
-0.3646999999999999,-48.79339273234511
-0.3657,-49.118776331314066
-0.3666999999999999,-49.34513013929248
-0.3677,-49.48660126927898
-0.3686999999999999,-49.939308885235796
-0.36970000000000003,-50.30713382320071
-0.3706999999999999,-50.30713382320071
-0.37170000000000003,-50.50519340518181
-0.3726999999999999,-50.87301834314672
-0.37370000000000003,-51.21254905511432
-0.3746999999999999,-51.509638428085985
-0.37570000000000003,-51.962346044042796
-0.3766999999999999,-52.20284696501985
-0.37770000000000004,-52.34431809500636
-0.3786999999999999,-52.79702571096317
-0.37970000000000004,-53.17899776192673
-0.3806999999999999,-53.433645795902436
-0.38170000000000004,-53.7873236208687
-0.38269999999999993,-54.25417834982416
-0.38370000000000004,-54.66444462678501
-0.38469999999999993,-55.032269564749924
-0.38570000000000004,-55.64059542369189
-0.38669999999999993,-56.164038604641945
-0.38770000000000004,-56.560157768604164
-0.38869999999999993,-57.16848362754614
-0.38970000000000005,-57.76266237348945
-0.39069999999999994,-58.20122287644761
-0.39170000000000005,-58.69637183140037
-0.39269999999999994,-59.27640346434504
-0.39370000000000005,-59.6300812893113
-0.39469999999999994,-60.04034756627216
-0.39570000000000005,-60.79014455520062
-0.39669999999999994,-61.48335309213449
-0.39770000000000005,-62.02094338608321
-0.39869999999999994,-62.700004810018434
-0.39970000000000006,-63.37906623395363
-0.40069999999999995,-63.944950753899654
-0.40170000000000006,-64.41180548285512
-0.40269999999999995,-64.96354288980248
-0.40370000000000006,-65.54357452274715
-0.40469999999999995,-66.25093017267966
-0.40570000000000006,-66.97243293561084
-0.40669999999999995,-67.31196364757845
-0.40770000000000006,-67.693935698542
-0.40869999999999995,-68.25982021848802
-0.40970000000000006,-68.9813229814192
-0.41069999999999995,-69.61794306635846
-0.41170000000000007,-70.49506407227477
-0.41269999999999996,-71.58439177317086
-0.41370000000000007,-72.47565989208583
-0.41469999999999996,-73.33863378500351
-0.41570000000000007,-74.35722592090633
-0.41669999999999996,-75.19190558782671
-0.41770000000000007,-75.92755546375653
-0.41869999999999996,-76.86126492166746
-0.4197000000000001,-77.76668015358106
-0.42069999999999996,-78.34671178652573
-0.4217000000000001,-78.8984491934731
-0.42269999999999996,-79.52092216541372
-0.4237000000000001,-80.34145471933543
-0.42469999999999997,-81.13369304725985
-0.4257000000000001,-82.13813807016405
-0.42669999999999997,-83.22746577106011
-0.4277000000000001,-84.18946945496833
-0.42869999999999997,-85.23635581686847
-0.4297000000000001,-86.35397774376185
-0.43069999999999997,-87.28768720167277
-0.4317000000000001,-88.22139665958369
-0.4327,-89.35316569947572
-0.4337000000000001,-90.4990818523664
-0.4347,-91.53182110126787
-0.4357000000000001,-92.81920838414506
-0.4367,-94.16318411901683
-0.4377000000000001,-95.33739449790482
-0.4387,-96.46916353779686
-0.4397000000000001,-97.75655082067404
-0.4407,-98.88831986056607
-0.4417000000000001,-100.02008890045809
-0.4427,-101.44894731332178
-0.4437000000000001,-102.76462882219626
-0.4447,-103.99542765307885
-0.4457000000000001,-105.65063987392094
-0.4467,-107.37658765975628
-0.4477000000000001,-109.21571234958083
-0.4487,-111.23874950838784
-0.4497000000000001,-113.17690398920294
-0.4507,-114.3228201420936
-0.4517000000000001,-115.2423824870059
-0.4527,-116.51562265688442
-0.4537000000000001,-118.01521663474136
-0.4547,-119.4582221606037
-0.4557000000000001,-121.00025747745659
-0.4567,-122.58473413330543
-0.4577000000000001,-124.32482903213943
-0.4587,-126.46104309493563
-0.4597000000000001,-128.72458117471967
-0.4607,-131.2003259494835
-0.4617000000000001,-133.63362938525137
-0.4627,-136.08107993401788
-0.4637000000000001,-138.3870593527979
-0.4647,-141.17404061353201
-0.4657000000000001,-143.5931969363012
-0.4667,-145.29085049613926
-0.4677000000000001,-146.9885040559773
-0.4687,-149.1105710057749
-0.4697000000000001,-150.8082245656129
-0.4707,-152.64734925543743
-0.4717000000000001,-154.6279450752485
-0.4727,-157.03295428501906
-0.4737000000000001,-159.57943462477613
-0.4747,-162.2673860945197
-0.4757000000000001,-165.2382798242363
-0.4767,-168.20917355395284
-0.4777000000000001,-170.89712502369645
-0.4787,-173.72654762342648
-0.4797000000000001,-176.4144990931701
-0.4807,-179.10245056291362
-0.48170000000000013,-182.07334429263022
-0.4827,-185.3271802823198
-0.48370000000000013,-187.87366062207687
-0.4847,-190.13719870186094
-0.48570000000000013,-192.54220791163152
-0.4867,-192.683679041618
-0.48570000000000013,-190.27866983184742
-0.4847,-188.15660288204987
-0.48370000000000013,-186.60042045219836
-0.4827,-184.33688237241427
-0.48170000000000013,-182.92217107254925
-0.4807,-181.93187316264374
-0.4797000000000001,-180.94157525273818
-0.4787,-179.95127734283267
-0.4777000000000001,-179.38539282288664
-0.4767,-179.24392169290016
-0.4757000000000001,-178.81950830294062
-0.4747,-177.54626813306209
-0.4737000000000001,-176.6974413531431
-0.4727,-175.56567231325104
-0.4717000000000001,-174.2924321433725
-0.4707,-173.302134233467
-0.4697000000000001,-171.74595180361547
-0.4687,-169.9068271137909
-0.4677000000000001,-168.20917355395284
-0.4667,-166.79446225408785
-0.4657000000000001,-165.2382798242363
-0.4647,-163.96503965435775
-0.4637000000000001,-162.5503283544927
-0.4627,-161.2770881846142
-0.4617000000000001,-160.00384801473567
