July 12, 2024   04:01:47
Cyclic Voltammetry
File: c:/users/guazh/data/20240709_batch67/2024-07-10-exp18\exp18-2024-07-12t03_55_28-h2koh\exp18_cv_sr_200mvs_efin_-1400mv.bin
Data Source:  Experiment
Instrument Model:  CHI760E
Header: CV ran at 200 mVs
Note: 

Init E (V) = -1
High E (V) = -1
Low E (V) = -1.4
Final E (V) = -1
Init P/N = N
Scan Rate (V/s) = 0.2
Segment = 3
Sample Interval (V) = 0.001
Quiet Time (sec) = 2
Sensitivity (A/V) = 0.01
Comp R (ohm) = 1.8

Results:

Channel 1:
Segment 1:

Segment 2:

Segment 3:

Potential/V, Current/A

-1.000, 1.796e-5
-1.001, 8.022e-5
-1.002, 9.551e-5
-1.003, 1.188e-4
-1.004, 1.511e-4
-1.005, 1.520e-4
-1.006, 1.551e-4
-1.007, 1.815e-4
-1.008, 1.873e-4
-1.009, 1.780e-4
-1.010, 1.959e-4
-1.011, 2.081e-4
-1.012, 1.975e-4
-1.013, 2.029e-4
-1.014, 2.228e-4
-1.015, 2.146e-4
-1.016, 2.102e-4
-1.017, 2.302e-4
-1.018, 2.308e-4
-1.019, 2.171e-4
-1.020, 2.316e-4
-1.021, 2.408e-4
-1.022, 2.269e-4
-1.023, 2.309e-4
-1.024, 2.492e-4
-1.025, 2.386e-4
-1.026, 2.324e-4
-1.027, 2.496e-4
-1.028, 2.491e-4
-1.029, 2.344e-4
-1.030, 2.482e-4
-1.031, 2.572e-4
-1.032, 2.419e-4
-1.033, 2.450e-4
-1.034, 2.612e-4
-1.035, 2.488e-4
-1.036, 2.422e-4
-1.037, 2.594e-4
-1.038, 2.587e-4
-1.039, 2.440e-4
-1.040, 2.567e-4
-1.041, 2.653e-4
-1.042, 2.493e-4
-1.043, 2.517e-4
-1.044, 2.672e-4
-1.045, 2.550e-4
-1.046, 2.482e-4
-1.047, 2.663e-4
-1.048, 2.645e-4
-1.049, 2.490e-4
-1.050, 2.617e-4
-1.051, 2.685e-4
-1.052, 2.529e-4
-1.053, 2.547e-4
-1.054, 2.714e-4
-1.055, 2.596e-4
-1.056, 2.523e-4
-1.057, 2.693e-4
-1.058, 2.674e-4
-1.059, 2.508e-4
-1.060, 2.634e-4
-1.061, 2.711e-4
-1.062, 2.547e-4
-1.063, 2.573e-4
-1.064, 2.733e-4
-1.065, 2.620e-4
-1.066, 2.543e-4
-1.067, 2.705e-4
-1.068, 2.684e-4
-1.069, 2.525e-4
-1.070, 2.652e-4
-1.071, 2.733e-4
-1.072, 2.566e-4
-1.073, 2.595e-4
-1.074, 2.754e-4
-1.075, 2.631e-4
-1.076, 2.554e-4
-1.077, 2.713e-4
-1.078, 2.697e-4
-1.079, 2.539e-4
-1.080, 2.666e-4
-1.081, 2.747e-4
-1.082, 2.584e-4
-1.083, 2.599e-4
-1.084, 2.757e-4
-1.085, 2.629e-4
-1.086, 2.558e-4
-1.087, 2.725e-4
-1.088, 2.709e-4
-1.089, 2.554e-4
-1.090, 2.684e-4
-1.091, 2.751e-4
-1.092, 2.586e-4
-1.093, 2.603e-4
-1.094, 2.764e-4
-1.095, 2.647e-4
-1.096, 2.569e-4
-1.097, 2.743e-4
-1.098, 2.727e-4
-1.099, 2.566e-4
-1.100, 2.689e-4
-1.101, 2.761e-4
-1.102, 2.598e-4
-1.103, 2.618e-4
-1.104, 2.778e-4
-1.105, 2.659e-4
-1.106, 2.589e-4
-1.107, 2.758e-4
-1.108, 2.734e-4
-1.109, 2.568e-4
-1.110, 2.697e-4
-1.111, 2.779e-4
-1.112, 2.613e-4
-1.113, 2.636e-4
-1.114, 2.803e-4
-1.115, 2.679e-4
-1.116, 2.603e-4
-1.117, 2.769e-4
-1.118, 2.748e-4
-1.119, 2.594e-4
-1.120, 2.717e-4
-1.121, 2.799e-4
-1.122, 2.639e-4
-1.123, 2.664e-4
-1.124, 2.830e-4
-1.125, 2.693e-4
-1.126, 2.619e-4
-1.127, 2.793e-4
-1.128, 2.771e-4
-1.129, 2.623e-4
-1.130, 2.752e-4
-1.131, 2.826e-4
-1.132, 2.658e-4
-1.133, 2.677e-4
-1.134, 2.843e-4
-1.135, 2.724e-4
-1.136, 2.653e-4
-1.137, 2.830e-4
-1.138, 2.811e-4
-1.139, 2.655e-4
-1.140, 2.781e-4
-1.141, 2.852e-4
-1.142, 2.685e-4
-1.143, 2.714e-4
-1.144, 2.877e-4
-1.145, 2.757e-4
-1.146, 2.688e-4
-1.147, 2.858e-4
-1.148, 2.848e-4
-1.149, 2.679e-4
-1.150, 2.806e-4
-1.151, 2.888e-4
-1.152, 2.728e-4
-1.153, 2.758e-4
-1.154, 2.929e-4
-1.155, 2.804e-4
-1.156, 2.731e-4
-1.157, 2.894e-4
-1.158, 2.876e-4
-1.159, 2.727e-4
-1.160, 2.856e-4
-1.161, 2.942e-4
-1.162, 2.783e-4
-1.163, 2.808e-4
-1.164, 2.971e-4
-1.165, 2.844e-4
-1.166, 2.771e-4
-1.167, 2.945e-4
-1.168, 2.931e-4
-1.169, 2.786e-4
-1.170, 2.914e-4
-1.171, 2.999e-4
-1.172, 2.845e-4
-1.173, 2.864e-4
-1.174, 3.019e-4
-1.175, 2.909e-4
-1.176, 2.842e-4
-1.177, 3.022e-4
-1.178, 3.013e-4
-1.179, 2.865e-4
-1.180, 2.992e-4
-1.181, 3.062e-4
-1.182, 2.905e-4
-1.183, 2.941e-4
-1.184, 3.103e-4
-1.185, 2.993e-4
-1.186, 2.928e-4
-1.187, 3.104e-4
-1.188, 3.098e-4
-1.189, 2.954e-4
-1.190, 3.084e-4
-1.191, 3.165e-4
-1.192, 3.007e-4
-1.193, 3.046e-4
-1.194, 3.217e-4
-1.195, 3.108e-4
-1.196, 3.053e-4
-1.197, 3.232e-4
-1.198, 3.223e-4
-1.199, 3.078e-4
-1.200, 3.217e-4
-1.201, 3.309e-4
-1.202, 3.166e-4
-1.203, 3.207e-4
-1.204, 3.385e-4
-1.205, 3.283e-4
-1.206, 3.225e-4
-1.207, 3.410e-4
-1.208, 3.410e-4
-1.209, 3.274e-4
-1.210, 3.425e-4
-1.211, 3.524e-4
-1.212, 3.392e-4
-1.213, 3.440e-4
-1.214, 3.622e-4
-1.215, 3.528e-4
-1.216, 3.479e-4
-1.217, 3.675e-4
-1.218, 3.687e-4
-1.219, 3.572e-4
-1.220, 3.740e-4
-1.221, 3.852e-4
-1.222, 3.741e-4
-1.223, 3.806e-4
-1.224, 3.985e-4
-1.225, 3.908e-4
-1.226, 3.884e-4
-1.227, 4.099e-4
-1.228, 4.145e-4
-1.229, 4.056e-4
-1.230, 4.219e-4
-1.231, 4.340e-4
-1.232, 4.239e-4
-1.233, 4.331e-4
-1.234, 4.555e-4
-1.235, 4.503e-4
-1.236, 4.514e-4
-1.237, 4.755e-4
-1.238, 4.817e-4
-1.239, 4.743e-4
-1.240, 4.944e-4
-1.241, 5.117e-4
-1.242, 5.063e-4
-1.243, 5.193e-4
-1.244, 5.453e-4
-1.245, 5.438e-4
-1.246, 5.490e-4
-1.247, 5.772e-4
-1.248, 5.869e-4
-1.249, 5.855e-4
-1.250, 6.114e-4
-1.251, 6.339e-4
-1.252, 6.346e-4
-1.253, 6.530e-4
-1.254, 6.852e-4
-1.255, 6.928e-4
-1.256, 7.066e-4
-1.257, 7.432e-4
-1.258, 7.608e-4
-1.259, 7.667e-4
-1.260, 8.024e-4
-1.261, 8.355e-4
-1.262, 8.476e-4
-1.263, 8.789e-4
-1.264, 9.220e-4
-1.265, 9.408e-4
-1.266, 9.646e-4
-1.267, 1.015e-3
-1.268, 1.052e-3
-1.269, 1.078e-3
-1.270, 1.132e-3
-1.271, 1.186e-3
-1.272, 1.222e-3
-1.273, 1.278e-3
-1.274, 1.351e-3
-1.275, 1.401e-3
-1.276, 1.462e-3
-1.277, 1.551e-3
-1.278, 1.633e-3
-1.279, 1.710e-3
-1.280, 1.820e-3
-1.281, 1.937e-3
-1.282, 2.040e-3
-1.283, 2.167e-3
-1.284, 2.325e-3
-1.285, 2.470e-3
-1.286, 2.623e-3
-1.287, 2.802e-3
-1.288, 2.972e-3
-1.289, 3.130e-3
-1.290, 3.312e-3
-1.291, 3.485e-3
-1.292, 3.630e-3
-1.293, 3.782e-3
-1.294, 3.951e-3
-1.295, 4.094e-3
-1.296, 4.231e-3
-1.297, 4.390e-3
-1.298, 4.539e-3
-1.299, 4.662e-3
-1.300, 4.797e-3
-1.301, 4.932e-3
-1.302, 5.042e-3
-1.303, 5.156e-3
-1.304, 5.286e-3
-1.305, 5.395e-3
-1.306, 5.504e-3
-1.307, 5.635e-3
-1.308, 5.743e-3
-1.309, 5.827e-3
-1.310, 5.935e-3
-1.311, 6.046e-3
-1.312, 6.131e-3
-1.313, 6.231e-3
-1.314, 6.362e-3
-1.315, 6.461e-3
-1.316, 6.542e-3
-1.317, 6.646e-3
-1.318, 6.738e-3
-1.319, 6.814e-3
-1.320, 6.918e-3
-1.321, 7.024e-3
-1.322, 7.113e-3
-1.323, 7.206e-3
-1.324, 7.308e-3
-1.325, 7.379e-3
-1.326, 7.434e-3
-1.327, 7.538e-3
-1.328, 7.628e-3
-1.329, 7.712e-3
-1.330, 7.812e-3
-1.331, 7.912e-3
-1.332, 7.975e-3
-1.333, 8.046e-3
-1.334, 8.150e-3
-1.335, 8.220e-3
-1.336, 8.283e-3
-1.337, 8.379e-3
-1.338, 8.494e-3
-1.339, 8.561e-3
-1.340, 8.645e-3
-1.341, 8.741e-3
-1.342, 8.782e-3
-1.343, 8.855e-3
-1.344, 8.964e-3
-1.345, 9.051e-3
-1.346, 9.135e-3
-1.347, 9.253e-3
-1.348, 9.349e-3
-1.349, 9.406e-3
-1.350, 9.461e-3
-1.351, 9.556e-3
-1.352, 9.624e-3
-1.353, 9.703e-3
-1.354, 9.819e-3
-1.355, 9.918e-3
-1.356, 9.990e-3
-1.357, 1.008e-2
-1.358, 1.015e-2
-1.359, 1.020e-2
-1.360, 1.028e-2
-1.361, 1.040e-2
-1.362, 1.048e-2
-1.363, 1.057e-2
-1.364, 1.068e-2
-1.365, 1.072e-2
-1.366, 1.075e-2
-1.367, 1.087e-2
-1.368, 1.096e-2
-1.369, 1.103e-2
-1.370, 1.115e-2
-1.371, 1.121e-2
-1.372, 1.124e-2
-1.373, 1.130e-2
-1.374, 1.142e-2
-1.375, 1.149e-2
-1.376, 1.156e-2
-1.377, 1.168e-2
-1.378, 1.177e-2
-1.379, 1.182e-2
-1.380, 1.188e-2
-1.381, 1.194e-2
-1.382, 1.199e-2
-1.383, 1.207e-2
-1.384, 1.217e-2
-1.385, 1.228e-2
-1.386, 1.237e-2
-1.387, 1.245e-2
-1.388, 1.251e-2
-1.389, 1.257e-2
-1.390, 1.265e-2
-1.391, 1.275e-2
-1.392, 1.283e-2
-1.393, 1.289e-2
-1.394, 1.302e-2
-1.395, 1.312e-2
-1.396, 1.316e-2
-1.397, 1.324e-2
-1.398, 1.326e-2
-1.399, 1.328e-2
-1.400, 1.327e-2
-1.399, 1.316e-2
-1.398, 1.306e-2
-1.397, 1.302e-2
-1.396, 1.292e-2
-1.395, 1.276e-2
-1.394, 1.265e-2
-1.393, 1.255e-2
-1.392, 1.243e-2
-1.391, 1.235e-2
-1.390, 1.227e-2
-1.389, 1.220e-2
-1.388, 1.206e-2
-1.387, 1.191e-2
-1.386, 1.178e-2
-1.385, 1.169e-2
-1.384, 1.158e-2
-1.383, 1.158e-2
-1.382, 1.151e-2
-1.381, 1.141e-2
-1.380, 1.130e-2
-1.379, 1.123e-2
-1.378, 1.111e-2
-1.377, 1.099e-2
-1.376, 1.090e-2
-1.375, 1.080e-2
-1.374, 1.069e-2
-1.373, 1.064e-2
-1.372, 1.057e-2
-1.371, 1.046e-2
-1.370, 1.027e-2
-1.369, 1.009e-2
-1.368, 9.988e-3
-1.367, 9.872e-3
-1.366, 9.826e-3
-1.365, 9.777e-3
-1.364, 9.690e-3
-1.363, 9.623e-3
-1.362, 9.525e-3
-1.361, 9.391e-3
-1.360, 9.314e-3
-1.359, 9.246e-3
-1.358, 9.127e-3
-1.357, 9.038e-3
-1.356, 8.994e-3
-1.355, 8.913e-3
-1.354, 8.789e-3
-1.353, 8.702e-3
-1.352, 8.613e-3
-1.351, 8.511e-3
-1.350, 8.432e-3
-1.349, 8.380e-3
-1.348, 8.299e-3
-1.347, 8.215e-3
-1.346, 8.141e-3
-1.345, 8.033e-3
-1.344, 7.923e-3
-1.343, 7.852e-3
-1.342, 7.780e-3
-1.341, 7.691e-3
-1.340, 7.630e-3
-1.339, 7.554e-3
-1.338, 7.443e-3
-1.337, 7.332e-3
-1.336, 7.283e-3
-1.335, 7.196e-3
-1.334, 7.098e-3
-1.333, 7.029e-3
-1.332, 6.973e-3
-1.331, 6.889e-3
-1.330, 6.810e-3
-1.329, 6.726e-3
-1.328, 6.629e-3
-1.327, 6.555e-3
-1.326, 6.487e-3
-1.325, 6.419e-3
-1.324, 6.338e-3
-1.323, 6.281e-3
-1.322, 6.201e-3
-1.321, 6.094e-3
-1.320, 6.024e-3
-1.319, 5.968e-3
-1.318, 5.882e-3
-1.317, 5.807e-3
-1.316, 5.744e-3
-1.315, 5.650e-3
-1.314, 5.553e-3
-1.313, 5.499e-3
-1.312, 5.434e-3
-1.311, 5.336e-3
-1.310, 5.259e-3
-1.309, 5.192e-3
-1.308, 5.114e-3
-1.307, 5.048e-3
-1.306, 5.002e-3
-1.305, 4.926e-3
-1.304, 4.840e-3
-1.303, 4.776e-3
-1.302, 4.703e-3
-1.301, 4.616e-3
-1.300, 4.540e-3
-1.299, 4.477e-3
-1.298, 4.404e-3
-1.297, 4.343e-3
-1.296, 4.291e-3
-1.295, 4.216e-3
-1.294, 4.130e-3
-1.293, 4.074e-3
-1.292, 4.018e-3
-1.291, 3.951e-3
-1.290, 3.887e-3
-1.289, 3.830e-3
-1.288, 3.768e-3
-1.287, 3.699e-3
-1.286, 3.657e-3
-1.285, 3.595e-3
-1.284, 3.516e-3
-1.283, 3.470e-3
-1.282, 3.408e-3
-1.281, 3.334e-3
-1.280, 3.279e-3
-1.279, 3.232e-3
-1.278, 3.167e-3
-1.277, 3.104e-3
-1.276, 3.053e-3
-1.275, 2.990e-3
-1.274, 2.915e-3
-1.273, 2.874e-3
-1.272, 2.819e-3
-1.271, 2.752e-3
-1.270, 2.707e-3
-1.269, 2.664e-3
-1.268, 2.599e-3
-1.267, 2.540e-3
-1.266, 2.497e-3
-1.265, 2.433e-3
-1.264, 2.369e-3
-1.263, 2.329e-3
-1.262, 2.278e-3
-1.261, 2.215e-3
-1.260, 2.176e-3
-1.259, 2.137e-3
-1.258, 2.073e-3
-1.257, 2.019e-3
-1.256, 1.985e-3
-1.255, 1.930e-3
-1.254, 1.875e-3
-1.253, 1.841e-3
-1.252, 1.800e-3
-1.251, 1.744e-3
-1.250, 1.705e-3
-1.249, 1.667e-3
-1.248, 1.610e-3
-1.247, 1.567e-3
-1.246, 1.539e-3
-1.245, 1.492e-3
-1.244, 1.444e-3
-1.243, 1.419e-3
-1.242, 1.380e-3
-1.241, 1.326e-3
-1.240, 1.298e-3
-1.239, 1.272e-3
-1.238, 1.224e-3
-1.237, 1.189e-3
-1.236, 1.166e-3
-1.235, 1.123e-3
-1.234, 1.081e-3
-1.233, 1.062e-3
-1.232, 1.031e-3
-1.231, 9.857e-4
-1.230, 9.617e-4
-1.229, 9.375e-4
-1.228, 8.921e-4
-1.227, 8.616e-4
-1.226, 8.477e-4
-1.225, 8.112e-4
-1.224, 7.740e-4
-1.223, 7.641e-4
-1.222, 7.375e-4
-1.221, 6.965e-4
-1.220, 6.779e-4
-1.219, 6.617e-4
-1.218, 6.240e-4
-1.217, 6.000e-4
-1.216, 5.912e-4
-1.215, 5.607e-4
-1.214, 5.304e-4
-1.213, 5.235e-4
-1.212, 5.033e-4
-1.211, 4.691e-4
-1.210, 4.577e-4
-1.209, 4.470e-4
-1.208, 4.150e-4
-1.207, 3.969e-4
-1.206, 3.938e-4
-1.205, 3.681e-4
-1.204, 3.420e-4
-1.203, 3.386e-4
-1.202, 3.233e-4
-1.201, 2.934e-4
-1.200, 2.872e-4
-1.199, 2.815e-4
-1.198, 2.526e-4
-1.197, 2.383e-4
-1.196, 2.387e-4
-1.195, 2.167e-4
-1.194, 1.943e-4
-1.193, 1.958e-4
-1.192, 1.853e-4
-1.191, 1.588e-4
-1.190, 1.556e-4
-1.189, 1.538e-4
-1.188, 1.284e-4
-1.187, 1.172e-4
-1.186, 1.217e-4
-1.185, 1.035e-4
-1.184, 8.465e-5
-1.183, 8.965e-5
-1.182, 8.059e-5
-1.181, 5.763e-5
-1.180, 5.765e-5
-1.179, 5.871e-5
-1.178, 3.595e-5
-1.177, 2.730e-5
-1.176, 3.560e-5
-1.175, 1.936e-5
-1.174, 2.622e-6
-1.173, 1.071e-5
-1.172, 3.935e-6
-1.171, -1.770e-5
-1.170, -1.540e-5
-1.169, -1.242e-5
-1.168, -3.253e-5
-1.167, -3.912e-5
-1.166, -3.023e-5
-1.165, -4.429e-5
-1.164, -5.966e-5
-1.163, -5.027e-5
-1.162, -5.515e-5
-1.161, -7.553e-5
-1.160, -7.151e-5
-1.159, -6.676e-5
-1.158, -8.589e-5
-1.157, -9.104e-5
-1.156, -8.024e-5
-1.155, -9.310e-5
-1.154, -1.070e-4
-1.153, -9.678e-5
-1.152, -9.966e-5
-1.151, -1.185e-4
-1.150, -1.138e-4
-1.149, -1.072e-4
-1.148, -1.258e-4
-1.147, -1.299e-4
-1.146, -1.201e-4
-1.145, -1.327e-4
-1.144, -1.449e-4
-1.143, -1.327e-4
-1.142, -1.350e-4
-1.141, -1.531e-4
-1.140, -1.479e-4
-1.139, -1.411e-4
-1.138, -1.588e-4
-1.137, -1.631e-4
-1.136, -1.499e-4
-1.135, -1.610e-4
-1.134, -1.742e-4
-1.133, -1.617e-4
-1.132, -1.638e-4
-1.131, -1.819e-4
-1.130, -1.758e-4
-1.129, -1.686e-4
-1.128, -1.848e-4
-1.127, -1.882e-4
-1.126, -1.749e-4
-1.125, -1.851e-4
-1.124, -1.980e-4
-1.123, -1.859e-4
-1.122, -1.863e-4
-1.121, -2.042e-4
-1.120, -1.981e-4
-1.119, -1.886e-4
-1.118, -2.039e-4
-1.117, -2.077e-4
-1.116, -1.945e-4
-1.115, -2.048e-4
-1.114, -2.183e-4
-1.113, -2.068e-4
-1.112, -2.074e-4
-1.111, -2.249e-4
-1.110, -2.197e-4
-1.109, -2.108e-4
-1.108, -2.280e-4
-1.107, -2.321e-4
-1.106, -2.187e-4
-1.105, -2.293e-4
-1.104, -2.423e-4
-1.103, -2.289e-4
-1.102, -2.292e-4
-1.101, -2.468e-4
-1.100, -2.414e-4
-1.099, -2.324e-4
-1.098, -2.492e-4
-1.097, -2.534e-4
-1.096, -2.393e-4
-1.095, -2.487e-4
-1.094, -2.620e-4
-1.093, -2.491e-4
-1.092, -2.495e-4
-1.091, -2.676e-4
-1.090, -2.623e-4
-1.089, -2.531e-4
-1.088, -2.693e-4
-1.087, -2.733e-4
-1.086, -2.594e-4
-1.085, -2.682e-4
-1.084, -2.822e-4
-1.083, -2.691e-4
-1.082, -2.690e-4
-1.081, -2.879e-4
-1.080, -2.819e-4
-1.079, -2.723e-4
-1.078, -2.888e-4
-1.077, -2.934e-4
-1.076, -2.802e-4
-1.075, -2.908e-4
-1.074, -3.052e-4
-1.073, -2.930e-4
-1.072, -2.948e-4
-1.071, -3.165e-4
-1.070, -3.109e-4
-1.069, -3.001e-4
-1.068, -3.174e-4
-1.067, -3.230e-4
-1.066, -3.087e-4
-1.065, -3.187e-4
-1.064, -3.328e-4
-1.063, -3.197e-4
-1.062, -3.196e-4
-1.061, -3.377e-4
-1.060, -3.336e-4
-1.059, -3.238e-4
-1.058, -3.409e-4
-1.057, -3.468e-4
-1.056, -3.320e-4
-1.055, -3.411e-4
-1.054, -3.558e-4
-1.053, -3.430e-4
-1.052, -3.428e-4
-1.051, -3.607e-4
-1.050, -3.572e-4
-1.049, -3.479e-4
-1.048, -3.651e-4
-1.047, -3.715e-4
-1.046, -3.581e-4
-1.045, -3.681e-4
-1.044, -3.836e-4
-1.043, -3.712e-4
-1.042, -3.705e-4
-1.041, -3.898e-4
-1.040, -3.875e-4
-1.039, -3.782e-4
-1.038, -3.954e-4
-1.037, -4.014e-4
-1.036, -3.878e-4
-1.035, -3.977e-4
-1.034, -4.140e-4
-1.033, -4.033e-4
-1.032, -4.023e-4
-1.031, -4.234e-4
-1.030, -4.209e-4
-1.029, -4.096e-4
-1.028, -4.266e-4
-1.027, -4.336e-4
-1.026, -4.202e-4
-1.025, -4.301e-4
-1.024, -4.471e-4
-1.023, -4.361e-4
-1.022, -4.350e-4
-1.021, -4.543e-4
-1.020, -4.518e-4
-1.019, -4.416e-4
-1.018, -4.598e-4
-1.017, -4.685e-4
-1.016, -4.563e-4
-1.015, -4.665e-4
-1.014, -4.836e-4
-1.013, -4.719e-4
-1.012, -4.711e-4
-1.011, -4.923e-4
-1.010, -4.910e-4
-1.009, -4.827e-4
-1.008, -5.027e-4
-1.007, -5.105e-4
-1.006, -4.968e-4
-1.005, -5.054e-4
-1.004, -5.240e-4
-1.003, -5.144e-4
-1.002, -5.151e-4
-1.001, -5.366e-4
