July 12, 2024   04:02:09
Cyclic Voltammetry
File: c:/users/guazh/data/20240709_batch67/2024-07-10-exp18\exp18-2024-07-12t03_55_28-h2koh\exp18_cv_sr_300mvs_efin_-1400mv.bin
Data Source:  Experiment
Instrument Model:  CHI760E
Header: CV ran at 300 mVs
Note: 

Init E (V) = -1
High E (V) = -1
Low E (V) = -1.4
Final E (V) = -1
Init P/N = N
Scan Rate (V/s) = 0.3
Segment = 3
Sample Interval (V) = 0.001
Quiet Time (sec) = 2
Sensitivity (A/V) = 0.01
Comp R (ohm) = 1.8

Results:

Channel 1:
Segment 1:

Segment 2:

Segment 3:

Potential/V, Current/A

-1.000, 1.865e-5
-1.001, 7.107e-5
-1.002, 1.111e-4
-1.003, 1.543e-4
-1.004, 1.882e-4
-1.005, 1.975e-4
-1.006, 2.006e-4
-1.007, 2.129e-4
-1.008, 2.376e-4
-1.009, 2.561e-4
-1.010, 2.591e-4
-1.011, 2.530e-4
-1.012, 2.591e-4
-1.013, 2.776e-4
-1.014, 2.931e-4
-1.015, 2.900e-4
-1.016, 2.807e-4
-1.017, 2.838e-4
-1.018, 3.023e-4
-1.019, 3.146e-4
-1.020, 3.115e-4
-1.021, 2.992e-4
-1.022, 3.023e-4
-1.023, 3.177e-4
-1.024, 3.300e-4
-1.025, 3.270e-4
-1.026, 3.146e-4
-1.027, 3.146e-4
-1.028, 3.300e-4
-1.029, 3.393e-4
-1.030, 3.331e-4
-1.031, 3.239e-4
-1.032, 3.239e-4
-1.033, 3.393e-4
-1.034, 3.516e-4
-1.035, 3.424e-4
-1.036, 3.300e-4
-1.037, 3.300e-4
-1.038, 3.455e-4
-1.039, 3.547e-4
-1.040, 3.455e-4
-1.041, 3.362e-4
-1.042, 3.362e-4
-1.043, 3.516e-4
-1.044, 3.609e-4
-1.045, 3.516e-4
-1.046, 3.393e-4
-1.047, 3.393e-4
-1.048, 3.547e-4
-1.049, 3.640e-4
-1.050, 3.578e-4
-1.051, 3.424e-4
-1.052, 3.424e-4
-1.053, 3.547e-4
-1.054, 3.640e-4
-1.055, 3.578e-4
-1.056, 3.455e-4
-1.057, 3.485e-4
-1.058, 3.609e-4
-1.059, 3.701e-4
-1.060, 3.640e-4
-1.061, 3.485e-4
-1.062, 3.485e-4
-1.063, 3.609e-4
-1.064, 3.701e-4
-1.065, 3.640e-4
-1.066, 3.485e-4
-1.067, 3.516e-4
-1.068, 3.640e-4
-1.069, 3.732e-4
-1.070, 3.640e-4
-1.071, 3.516e-4
-1.072, 3.516e-4
-1.073, 3.670e-4
-1.074, 3.763e-4
-1.075, 3.670e-4
-1.076, 3.547e-4
-1.077, 3.516e-4
-1.078, 3.670e-4
-1.079, 3.763e-4
-1.080, 3.670e-4
-1.081, 3.547e-4
-1.082, 3.547e-4
-1.083, 3.670e-4
-1.084, 3.763e-4
-1.085, 3.670e-4
-1.086, 3.578e-4
-1.087, 3.547e-4
-1.088, 3.701e-4
-1.089, 3.794e-4
-1.090, 3.701e-4
-1.091, 3.547e-4
-1.092, 3.547e-4
-1.093, 3.701e-4
-1.094, 3.794e-4
-1.095, 3.701e-4
-1.096, 3.578e-4
-1.097, 3.578e-4
-1.098, 3.732e-4
-1.099, 3.794e-4
-1.100, 3.732e-4
-1.101, 3.609e-4
-1.102, 3.609e-4
-1.103, 3.732e-4
-1.104, 3.794e-4
-1.105, 3.732e-4
-1.106, 3.578e-4
-1.107, 3.578e-4
-1.108, 3.732e-4
-1.109, 3.825e-4
-1.110, 3.732e-4
-1.111, 3.609e-4
-1.112, 3.609e-4
-1.113, 3.732e-4
-1.114, 3.825e-4
-1.115, 3.732e-4
-1.116, 3.609e-4
-1.117, 3.609e-4
-1.118, 3.763e-4
-1.119, 3.825e-4
-1.120, 3.763e-4
-1.121, 3.609e-4
-1.122, 3.640e-4
-1.123, 3.763e-4
-1.124, 3.855e-4
-1.125, 3.794e-4
-1.126, 3.640e-4
-1.127, 3.640e-4
-1.128, 3.763e-4
-1.129, 3.855e-4
-1.130, 3.794e-4
-1.131, 3.640e-4
-1.132, 3.670e-4
-1.133, 3.794e-4
-1.134, 3.886e-4
-1.135, 3.794e-4
-1.136, 3.670e-4
-1.137, 3.670e-4
-1.138, 3.794e-4
-1.139, 3.886e-4
-1.140, 3.794e-4
-1.141, 3.670e-4
-1.142, 3.670e-4
-1.143, 3.825e-4
-1.144, 3.886e-4
-1.145, 3.825e-4
-1.146, 3.701e-4
-1.147, 3.701e-4
-1.148, 3.825e-4
-1.149, 3.917e-4
-1.150, 3.825e-4
-1.151, 3.701e-4
-1.152, 3.701e-4
-1.153, 3.855e-4
-1.154, 3.948e-4
-1.155, 3.855e-4
-1.156, 3.732e-4
-1.157, 3.732e-4
-1.158, 3.886e-4
-1.159, 3.979e-4
-1.160, 3.886e-4
-1.161, 3.763e-4
-1.162, 3.763e-4
-1.163, 3.886e-4
-1.164, 3.979e-4
-1.165, 3.917e-4
-1.166, 3.794e-4
-1.167, 3.794e-4
-1.168, 3.917e-4
-1.169, 4.010e-4
-1.170, 3.917e-4
-1.171, 3.794e-4
-1.172, 3.794e-4
-1.173, 3.948e-4
-1.174, 4.040e-4
-1.175, 3.979e-4
-1.176, 3.825e-4
-1.177, 3.855e-4
-1.178, 4.010e-4
-1.179, 4.071e-4
-1.180, 4.010e-4
-1.181, 3.886e-4
-1.182, 3.886e-4
-1.183, 4.040e-4
-1.184, 4.102e-4
-1.185, 4.040e-4
-1.186, 3.917e-4
-1.187, 3.917e-4
-1.188, 4.071e-4
-1.189, 4.164e-4
-1.190, 4.102e-4
-1.191, 3.979e-4
-1.192, 3.979e-4
-1.193, 4.102e-4
-1.194, 4.195e-4
-1.195, 4.133e-4
-1.196, 4.010e-4
-1.197, 4.010e-4
-1.198, 4.195e-4
-1.199, 4.287e-4
-1.200, 4.195e-4
-1.201, 4.102e-4
-1.202, 4.102e-4
-1.203, 4.256e-4
-1.204, 4.349e-4
-1.205, 4.256e-4
-1.206, 4.164e-4
-1.207, 4.164e-4
-1.208, 4.318e-4
-1.209, 4.441e-4
-1.210, 4.380e-4
-1.211, 4.256e-4
-1.212, 4.287e-4
-1.213, 4.410e-4
-1.214, 4.534e-4
-1.215, 4.472e-4
-1.216, 4.380e-4
-1.217, 4.380e-4
-1.218, 4.534e-4
-1.219, 4.657e-4
-1.220, 4.595e-4
-1.221, 4.503e-4
-1.222, 4.534e-4
-1.223, 4.719e-4
-1.224, 4.811e-4
-1.225, 4.780e-4
-1.226, 4.657e-4
-1.227, 4.719e-4
-1.228, 4.873e-4
-1.229, 5.027e-4
-1.230, 4.965e-4
-1.231, 4.873e-4
-1.232, 4.935e-4
-1.233, 5.120e-4
-1.234, 5.274e-4
-1.235, 5.243e-4
-1.236, 5.150e-4
-1.237, 5.212e-4
-1.238, 5.397e-4
-1.239, 5.551e-4
-1.240, 5.520e-4
-1.241, 5.459e-4
-1.242, 5.520e-4
-1.243, 5.736e-4
-1.244, 5.890e-4
-1.245, 5.890e-4
-1.246, 5.859e-4
-1.247, 5.952e-4
-1.248, 6.199e-4
-1.249, 6.384e-4
-1.250, 6.384e-4
-1.251, 6.322e-4
-1.252, 6.445e-4
-1.253, 6.692e-4
-1.254, 6.908e-4
-1.255, 6.939e-4
-1.256, 6.939e-4
-1.257, 7.093e-4
-1.258, 7.339e-4
-1.259, 7.586e-4
-1.260, 7.679e-4
-1.261, 7.709e-4
-1.262, 7.894e-4
-1.263, 8.203e-4
-1.264, 8.449e-4
-1.265, 8.573e-4
-1.266, 8.634e-4
-1.267, 8.850e-4
-1.268, 9.220e-4
-1.269, 9.528e-4
-1.270, 9.683e-4
-1.271, 9.837e-4
-1.272, 1.008e-3
-1.273, 1.048e-3
-1.274, 1.085e-3
-1.275, 1.107e-3
-1.276, 1.125e-3
-1.277, 1.159e-3
-1.278, 1.209e-3
-1.279, 1.252e-3
-1.280, 1.286e-3
-1.281, 1.314e-3
-1.282, 1.357e-3
-1.283, 1.415e-3
-1.284, 1.474e-3
-1.285, 1.520e-3
-1.286, 1.563e-3
-1.287, 1.625e-3
-1.288, 1.696e-3
-1.289, 1.770e-3
-1.290, 1.835e-3
-1.291, 1.902e-3
-1.292, 1.989e-3
-1.293, 2.087e-3
-1.294, 2.192e-3
-1.295, 2.294e-3
-1.296, 2.393e-3
-1.297, 2.513e-3
-1.298, 2.661e-3
-1.299, 2.818e-3
-1.300, 2.969e-3
-1.301, 3.123e-3
-1.302, 3.293e-3
-1.303, 3.478e-3
-1.304, 3.669e-3
-1.305, 3.842e-3
-1.306, 4.008e-3
-1.307, 4.184e-3
-1.308, 4.375e-3
-1.309, 4.563e-3
-1.310, 4.736e-3
-1.311, 4.902e-3
-1.312, 5.069e-3
-1.313, 5.241e-3
-1.314, 5.408e-3
-1.315, 5.550e-3
-1.316, 5.679e-3
-1.317, 5.818e-3
-1.318, 5.969e-3
-1.319, 6.117e-3
-1.320, 6.250e-3
-1.321, 6.364e-3
-1.322, 6.487e-3
-1.323, 6.623e-3
-1.324, 6.755e-3
-1.325, 6.866e-3
-1.326, 6.971e-3
-1.327, 7.070e-3
-1.328, 7.184e-3
-1.329, 7.298e-3
-1.330, 7.403e-3
-1.331, 7.508e-3
-1.332, 7.615e-3
-1.333, 7.754e-3
-1.334, 7.878e-3
-1.335, 7.985e-3
-1.336, 8.072e-3
-1.337, 8.158e-3
-1.338, 8.257e-3
-1.339, 8.377e-3
-1.340, 8.485e-3
-1.341, 8.584e-3
-1.342, 8.682e-3
-1.343, 8.793e-3
-1.344, 8.920e-3
-1.345, 9.006e-3
-1.346, 9.061e-3
-1.347, 9.126e-3
-1.348, 9.219e-3
-1.349, 9.333e-3
-1.350, 9.425e-3
-1.351, 9.515e-3
-1.352, 9.607e-3
-1.353, 9.718e-3
-1.354, 9.835e-3
-1.355, 9.937e-3
-1.356, 1.002e-2
-1.357, 1.009e-2
-1.358, 1.016e-2
-1.359, 1.022e-2
-1.360, 1.029e-2
-1.361, 1.037e-2
-1.362, 1.044e-2
-1.363, 1.054e-2
-1.364, 1.064e-2
-1.365, 1.072e-2
-1.366, 1.080e-2
-1.367, 1.090e-2
-1.368, 1.102e-2
-1.369, 1.113e-2
-1.370, 1.123e-2
-1.371, 1.132e-2
-1.372, 1.138e-2
-1.373, 1.148e-2
-1.374, 1.158e-2
-1.375, 1.166e-2
-1.376, 1.173e-2
-1.377, 1.181e-2
-1.378, 1.192e-2
-1.379, 1.204e-2
-1.380, 1.214e-2
-1.381, 1.220e-2
-1.382, 1.226e-2
-1.383, 1.234e-2
-1.384, 1.242e-2
-1.385, 1.247e-2
-1.386, 1.251e-2
-1.387, 1.262e-2
-1.388, 1.271e-2
-1.389, 1.270e-2
-1.390, 1.278e-2
-1.391, 1.288e-2
-1.392, 1.297e-2
-1.393, 1.307e-2
-1.394, 1.317e-2
-1.395, 1.325e-2
-1.396, 1.329e-2
-1.397, 1.331e-2
-1.398, 1.339e-2
-1.399, 1.352e-2
-1.400, 1.353e-2
-1.399, 1.341e-2
-1.398, 1.332e-2
-1.397, 1.324e-2
-1.396, 1.314e-2
-1.395, 1.301e-2
-1.394, 1.291e-2
-1.393, 1.277e-2
-1.392, 1.265e-2
-1.391, 1.255e-2
-1.390, 1.245e-2
-1.389, 1.234e-2
-1.388, 1.224e-2
-1.387, 1.218e-2
-1.386, 1.211e-2
-1.385, 1.200e-2
-1.384, 1.187e-2
-1.383, 1.176e-2
-1.382, 1.163e-2
-1.381, 1.152e-2
-1.380, 1.141e-2
-1.379, 1.129e-2
-1.378, 1.120e-2
-1.377, 1.111e-2
-1.376, 1.103e-2
-1.375, 1.094e-2
-1.374, 1.084e-2
-1.373, 1.075e-2
-1.372, 1.068e-2
-1.371, 1.059e-2
-1.370, 1.047e-2
-1.369, 1.032e-2
-1.368, 1.021e-2
-1.367, 1.011e-2
-1.366, 1.003e-2
-1.365, 9.919e-3
-1.364, 9.823e-3
-1.363, 9.724e-3
-1.362, 9.647e-3
-1.361, 9.586e-3
-1.360, 9.512e-3
-1.359, 9.416e-3
-1.358, 9.305e-3
-1.357, 9.216e-3
-1.356, 9.117e-3
-1.355, 9.012e-3
-1.354, 8.901e-3
-1.353, 8.799e-3
-1.352, 8.725e-3
-1.351, 8.654e-3
-1.350, 8.565e-3
-1.349, 8.485e-3
-1.348, 8.408e-3
-1.347, 8.337e-3
-1.346, 8.257e-3
-1.345, 8.149e-3
-1.344, 8.047e-3
-1.343, 7.939e-3
-1.342, 7.859e-3
-1.341, 7.785e-3
-1.340, 7.705e-3
-1.339, 7.622e-3
-1.338, 7.535e-3
-1.337, 7.461e-3
-1.336, 7.381e-3
-1.335, 7.289e-3
-1.334, 7.181e-3
-1.333, 7.085e-3
-1.332, 6.999e-3
-1.331, 6.934e-3
-1.330, 6.848e-3
-1.329, 6.755e-3
-1.328, 6.675e-3
-1.327, 6.626e-3
-1.326, 6.558e-3
-1.325, 6.472e-3
-1.324, 6.376e-3
-1.323, 6.280e-3
-1.322, 6.188e-3
-1.321, 6.111e-3
-1.320, 6.043e-3
-1.319, 5.966e-3
-1.318, 5.886e-3
-1.317, 5.824e-3
-1.316, 5.762e-3
-1.315, 5.679e-3
-1.314, 5.599e-3
-1.313, 5.522e-3
-1.312, 5.445e-3
-1.311, 5.365e-3
-1.310, 5.278e-3
-1.309, 5.192e-3
-1.308, 5.127e-3
-1.307, 5.056e-3
-1.306, 4.998e-3
-1.305, 4.921e-3
-1.304, 4.838e-3
-1.303, 4.773e-3
-1.302, 4.708e-3
-1.301, 4.643e-3
-1.300, 4.569e-3
-1.299, 4.480e-3
-1.298, 4.424e-3
-1.297, 4.360e-3
-1.296, 4.298e-3
-1.295, 4.224e-3
-1.294, 4.141e-3
-1.293, 4.070e-3
-1.292, 4.021e-3
-1.291, 3.971e-3
-1.290, 3.903e-3
-1.289, 3.823e-3
-1.288, 3.755e-3
-1.287, 3.697e-3
-1.286, 3.641e-3
-1.285, 3.573e-3
-1.284, 3.496e-3
-1.283, 3.432e-3
-1.282, 3.379e-3
-1.281, 3.330e-3
-1.280, 3.262e-3
-1.279, 3.197e-3
-1.278, 3.139e-3
-1.277, 3.086e-3
-1.276, 3.037e-3
-1.275, 2.969e-3
-1.274, 2.892e-3
-1.273, 2.830e-3
-1.272, 2.790e-3
-1.271, 2.744e-3
-1.270, 2.682e-3
-1.269, 2.618e-3
-1.268, 2.565e-3
-1.267, 2.519e-3
-1.266, 2.476e-3
-1.265, 2.417e-3
-1.264, 2.353e-3
-1.263, 2.294e-3
-1.262, 2.254e-3
-1.261, 2.211e-3
-1.260, 2.155e-3
-1.259, 2.094e-3
-1.258, 2.044e-3
-1.257, 2.004e-3
-1.256, 1.967e-3
-1.255, 1.915e-3
-1.254, 1.859e-3
-1.253, 1.813e-3
-1.252, 1.779e-3
-1.251, 1.742e-3
-1.250, 1.696e-3
-1.249, 1.637e-3
-1.248, 1.591e-3
-1.247, 1.557e-3
-1.246, 1.526e-3
-1.245, 1.477e-3
-1.244, 1.428e-3
-1.243, 1.391e-3
-1.242, 1.363e-3
-1.241, 1.335e-3
-1.240, 1.289e-3
-1.239, 1.240e-3
-1.238, 1.203e-3
-1.237, 1.178e-3
-1.236, 1.150e-3
-1.235, 1.110e-3
-1.234, 1.067e-3
-1.233, 1.033e-3
-1.232, 1.011e-3
-1.231, 9.898e-4
-1.230, 9.498e-4
-1.229, 9.066e-4
-1.228, 8.727e-4
-1.227, 8.542e-4
-1.226, 8.326e-4
-1.225, 7.956e-4
-1.224, 7.586e-4
-1.223, 7.309e-4
-1.222, 7.154e-4
-1.221, 6.969e-4
-1.220, 6.630e-4
-1.219, 6.260e-4
-1.218, 6.044e-4
-1.217, 5.921e-4
-1.216, 5.736e-4
-1.215, 5.428e-4
-1.214, 5.089e-4
-1.213, 4.873e-4
-1.212, 4.780e-4
-1.211, 4.657e-4
-1.210, 4.380e-4
-1.209, 4.071e-4
-1.208, 3.886e-4
-1.207, 3.794e-4
-1.206, 3.701e-4
-1.205, 3.424e-4
-1.204, 3.146e-4
-1.203, 2.961e-4
-1.202, 2.900e-4
-1.201, 2.807e-4
-1.200, 2.591e-4
-1.199, 2.345e-4
-1.198, 2.191e-4
-1.197, 2.160e-4
-1.196, 2.098e-4
-1.195, 1.882e-4
-1.194, 1.636e-4
-1.193, 1.481e-4
-1.192, 1.481e-4
-1.191, 1.451e-4
-1.190, 1.235e-4
-1.189, 1.019e-4
-1.188, 8.648e-5
-1.187, 8.648e-5
-1.186, 8.648e-5
-1.185, 6.798e-5
-1.184, 4.640e-5
-1.183, 3.407e-5
-1.182, 3.715e-5
-1.181, 3.407e-5
-1.180, 1.865e-5
-1.179, -2.927e-6
-1.178, -1.218e-5
-1.177, -9.093e-6
-1.176, -9.093e-6
-1.175, -2.451e-5
-1.174, -4.301e-5
-1.173, -4.917e-5
-1.172, -4.609e-5
-1.171, -4.609e-5
-1.170, -6.151e-5
-1.169, -7.692e-5
-1.168, -8.617e-5
-1.167, -8.000e-5
-1.166, -7.692e-5
-1.165, -8.925e-5
-1.164, -1.078e-4
-1.163, -1.139e-4
-1.162, -1.078e-4
-1.161, -1.047e-4
-1.160, -1.201e-4
-1.159, -1.355e-4
-1.158, -1.417e-4
-1.157, -1.355e-4
-1.156, -1.324e-4
-1.155, -1.448e-4
-1.154, -1.602e-4
-1.153, -1.663e-4
-1.152, -1.571e-4
-1.151, -1.540e-4
-1.150, -1.663e-4
-1.149, -1.817e-4
-1.148, -1.879e-4
-1.147, -1.787e-4
-1.146, -1.756e-4
-1.145, -1.879e-4
-1.144, -2.002e-4
-1.143, -2.064e-4
-1.142, -1.972e-4
-1.141, -1.941e-4
-1.140, -2.064e-4
-1.139, -2.218e-4
-1.138, -2.249e-4
-1.137, -2.157e-4
-1.136, -2.095e-4
-1.135, -2.218e-4
-1.134, -2.372e-4
-1.133, -2.403e-4
-1.132, -2.311e-4
-1.131, -2.280e-4
-1.130, -2.372e-4
-1.129, -2.527e-4
-1.128, -2.557e-4
-1.127, -2.465e-4
-1.126, -2.434e-4
-1.125, -2.527e-4
-1.124, -2.650e-4
-1.123, -2.681e-4
-1.122, -2.619e-4
-1.121, -2.557e-4
-1.120, -2.650e-4
-1.119, -2.804e-4
-1.118, -2.835e-4
-1.117, -2.742e-4
-1.116, -2.681e-4
-1.115, -2.773e-4
-1.114, -2.927e-4
-1.113, -2.958e-4
-1.112, -2.866e-4
-1.111, -2.804e-4
-1.110, -2.897e-4
-1.109, -3.051e-4
-1.108, -3.082e-4
-1.107, -3.020e-4
-1.106, -2.958e-4
-1.105, -3.051e-4
-1.104, -3.205e-4
-1.103, -3.236e-4
-1.102, -3.143e-4
-1.101, -3.051e-4
-1.100, -3.174e-4
-1.099, -3.328e-4
-1.098, -3.359e-4
-1.097, -3.267e-4
-1.096, -3.205e-4
-1.095, -3.297e-4
-1.094, -3.452e-4
-1.093, -3.482e-4
-1.092, -3.390e-4
-1.091, -3.328e-4
-1.090, -3.421e-4
-1.089, -3.575e-4
-1.088, -3.606e-4
-1.087, -3.544e-4
-1.086, -3.482e-4
-1.085, -3.575e-4
-1.084, -3.729e-4
-1.083, -3.760e-4
-1.082, -3.698e-4
-1.081, -3.606e-4
-1.080, -3.698e-4
-1.079, -3.852e-4
-1.078, -3.914e-4
-1.077, -3.791e-4
-1.076, -3.760e-4
-1.075, -3.852e-4
-1.074, -4.006e-4
-1.073, -4.068e-4
-1.072, -3.976e-4
-1.071, -3.914e-4
-1.070, -4.006e-4
-1.069, -4.161e-4
-1.068, -4.222e-4
-1.067, -4.099e-4
-1.066, -4.037e-4
-1.065, -4.130e-4
-1.064, -4.253e-4
-1.063, -4.346e-4
-1.062, -4.222e-4
-1.061, -4.161e-4
-1.060, -4.284e-4
-1.059, -4.438e-4
-1.058, -4.500e-4
-1.057, -4.407e-4
-1.056, -4.346e-4
-1.055, -4.438e-4
-1.054, -4.623e-4
-1.053, -4.654e-4
-1.052, -4.561e-4
-1.051, -4.500e-4
-1.050, -4.561e-4
-1.049, -4.746e-4
-1.048, -4.808e-4
-1.047, -4.746e-4
-1.046, -4.685e-4
-1.045, -4.777e-4
-1.044, -4.962e-4
-1.043, -4.993e-4
-1.042, -4.931e-4
-1.041, -4.870e-4
-1.040, -4.962e-4
-1.039, -5.147e-4
-1.038, -5.178e-4
-1.037, -5.116e-4
-1.036, -5.055e-4
-1.035, -5.147e-4
-1.034, -5.332e-4
-1.033, -5.394e-4
-1.032, -5.332e-4
-1.031, -5.271e-4
-1.030, -5.363e-4
-1.029, -5.548e-4
-1.028, -5.610e-4
-1.027, -5.548e-4
-1.026, -5.456e-4
-1.025, -5.548e-4
-1.024, -5.733e-4
-1.023, -5.826e-4
-1.022, -5.764e-4
-1.021, -5.702e-4
-1.020, -5.826e-4
-1.019, -6.011e-4
-1.018, -6.072e-4
-1.017, -6.011e-4
-1.016, -5.949e-4
-1.015, -6.041e-4
-1.014, -6.226e-4
-1.013, -6.319e-4
-1.012, -6.257e-4
-1.011, -6.195e-4
-1.010, -6.319e-4
-1.009, -6.504e-4
-1.008, -6.596e-4
-1.007, -6.504e-4
-1.006, -6.442e-4
-1.005, -6.565e-4
-1.004, -6.750e-4
-1.003, -6.843e-4
-1.002, -6.781e-4
-1.001, -6.750e-4
