Potential V vs RHE, Current mA cm-2
0.013299999999999867,-0.04582249900262853
0.012299999999999978,-1.0490084288499246
0.011299999999999866,-1.7471684553333202
0.010299999999999976,-2.3144676865791998
0.009299999999999864,-2.706342716641815
0.008299999999999974,-3.0119203574126634
0.007299999999999862,-3.2297858975918787
0.006299999999999972,-3.403795387475278
0.00529999999999986,-3.579219588658543
0.0042999999999999705,-3.7093730282461257
0.0032999999999998586,-3.840941179133574
0.0022999999999999687,-3.971094618721158
0.0012999999999998568,-4.102662769608606
0.00029999999999996696,-4.1889601589003735
-0.000700000000000145,-4.276672259492005
-0.0017000000000000348,-4.3205283097878215
-0.0027000000000001467,-4.364384360083638
-0.0037000000000000366,-4.406825699079589
-0.0047000000000001485,-4.494537799671222
-0.005700000000000038,-4.582249900262854
-0.00670000000000015,-4.626105950558669
-0.00770000000000004,-4.668547289554621
-0.008700000000000152,-4.712403339850438
-0.009700000000000042,-4.712403339850438
-0.010700000000000154,-4.756259390146253
-0.011700000000000044,-4.800115440442069
-0.012700000000000156,-4.843971490737885
-0.013700000000000045,-4.887827541033701
-0.014700000000000157,-4.974124930325469
-0.015700000000000047,-5.017980980621284
-0.01670000000000016,-5.017980980621284
-0.01770000000000005,-5.017980980621284
-0.01870000000000016,-5.017980980621284
-0.01970000000000005,-5.0618370309171015
-0.020700000000000163,-5.0618370309171015
-0.021700000000000053,-5.105693081212917
-0.022700000000000164,-5.149549131508733
-0.023700000000000054,-5.149549131508733
-0.024700000000000166,-5.191990470504685
-0.025700000000000056,-5.191990470504685
-0.026700000000000168,-5.149549131508733
-0.027700000000000058,-5.149549131508733
-0.02870000000000017,-5.149549131508733
-0.02970000000000006,-5.191990470504685
-0.03070000000000017,-5.235846520800501
-0.03170000000000006,-5.323558621392133
-0.03270000000000017,-5.323558621392133
-0.03370000000000006,-5.323558621392133
-0.034700000000000175,-5.323558621392133
-0.035700000000000065,-5.323558621392133
-0.03670000000000018,-5.323558621392133
-0.03770000000000007,-5.367414671687949
-0.03870000000000018,-5.411270721983764
-0.03970000000000007,-5.453712060979717
-0.04070000000000018,-5.453712060979717
-0.04170000000000007,-5.453712060979717
-0.04270000000000018,-5.453712060979717
-0.04370000000000007,-5.453712060979717
-0.044700000000000184,-5.411270721983764
-0.045700000000000074,-5.411270721983764
-0.046700000000000186,-5.453712060979717
-0.047700000000000076,-5.453712060979717
-0.04870000000000019,-5.497568111275533
-0.04970000000000008,-5.5414241615713475
-0.05070000000000019,-5.5414241615713475
-0.05170000000000008,-5.5414241615713475
-0.05270000000000019,-5.5414241615713475
-0.05370000000000008,-5.5414241615713475
-0.05470000000000019,-5.585280211867165
-0.05570000000000008,-5.629136262162981
-0.056700000000000195,-5.672992312458796
-0.057700000000000085,-5.672992312458796
-0.058700000000000196,-5.672992312458796
-0.059700000000000086,-5.629136262162981
-0.0607000000000002,-5.629136262162981
-0.06170000000000009,-5.629136262162981
-0.0627000000000002,-5.629136262162981
-0.06370000000000009,-5.629136262162981
-0.0647000000000002,-5.672992312458796
-0.06570000000000009,-5.672992312458796
-0.0667000000000002,-5.672992312458796
-0.0677000000000001,-5.715433651454749
-0.0687000000000002,-5.672992312458796
-0.0697000000000001,-5.672992312458796
-0.07070000000000021,-5.715433651454749
-0.0717000000000001,-5.759289701750564
-0.07270000000000021,-5.759289701750564
-0.0737000000000001,-5.80314575204638
-0.07470000000000021,-5.80314575204638
-0.0757000000000001,-5.80314575204638
-0.07670000000000021,-5.80314575204638
-0.0777000000000001,-5.759289701750564
-0.07870000000000021,-5.759289701750564
-0.0797000000000001,-5.80314575204638
-0.08070000000000022,-5.80314575204638
-0.0817000000000001,-5.847001802342197
-0.08270000000000022,-5.847001802342197
-0.08370000000000011,-5.890857852638012
-0.08470000000000022,-5.847001802342197
-0.08570000000000011,-5.847001802342197
-0.08670000000000022,-5.847001802342197
-0.08770000000000011,-5.847001802342197
-0.08870000000000022,-5.890857852638012
-0.08970000000000011,-5.9347139029338285
-0.09070000000000022,-5.9347139029338285
-0.09170000000000011,-5.9347139029338285
-0.09270000000000023,-5.9347139029338285
-0.09370000000000012,-5.9347139029338285
-0.09470000000000023,-5.890857852638012
-0.09570000000000012,-5.890857852638012
-0.09670000000000023,-5.9347139029338285
-0.09770000000000012,-5.977155241929781
-0.09870000000000023,-5.977155241929781
-0.09970000000000012,-5.977155241929781
-0.10070000000000023,-5.977155241929781
-0.10170000000000012,-5.977155241929781
-0.10270000000000024,-5.977155241929781
-0.10370000000000013,-5.977155241929781
-0.10470000000000024,-6.021011292225596
-0.10570000000000013,-6.021011292225596
-0.10670000000000024,-6.108723392817228
-0.10770000000000013,-6.108723392817228
-0.10870000000000024,-6.108723392817228
-0.10970000000000013,-6.064867342521412
-0.11070000000000024,-6.064867342521412
-0.11170000000000013,-6.064867342521412
-0.11270000000000002,-6.064867342521412
-0.11370000000000013,-6.108723392817228
-0.11470000000000002,-6.108723392817228
-0.11570000000000014,-6.108723392817228
-0.11670000000000003,-6.064867342521412
-0.11770000000000014,-6.021011292225596
-0.11870000000000003,-6.021011292225596
-0.11970000000000014,-6.021011292225596
-0.12070000000000003,-6.021011292225596
-0.12170000000000014,-6.064867342521412
-0.12270000000000003,-6.108723392817228
-0.12370000000000014,-6.152579443113044
-0.12470000000000003,-6.152579443113044
-0.12570000000000014,-6.152579443113044
-0.12670000000000003,-6.152579443113044
-0.12770000000000015,-6.108723392817228
-0.12870000000000004,-6.152579443113044
-0.12970000000000015,-6.152579443113044
-0.13070000000000004,-6.196435493408861
-0.13170000000000015,-6.238876832404812
-0.13270000000000004,-6.238876832404812
-0.13370000000000015,-6.238876832404812
-0.13470000000000004,-6.238876832404812
-0.13570000000000015,-6.238876832404812
-0.13670000000000004,-6.196435493408861
-0.13770000000000016,-6.238876832404812
-0.13870000000000005,-6.282732882700628
-0.13970000000000016,-6.326588932996443
-0.14070000000000005,-6.326588932996443
-0.14170000000000016,-6.326588932996443
-0.14270000000000005,-6.326588932996443
-0.14370000000000016,-6.282732882700628
-0.14470000000000005,-6.282732882700628
-0.14570000000000016,-6.282732882700628
-0.14670000000000005,-6.326588932996443
-0.14770000000000016,-6.326588932996443
-0.14870000000000005,-6.37044498329226
-0.14970000000000017,-6.414301033588076
-0.15070000000000006,-6.414301033588076
-0.15170000000000017,-6.37044498329226
-0.15270000000000006,-6.37044498329226
-0.15370000000000017,-6.414301033588076
-0.15470000000000006,-6.414301033588076
-0.15570000000000017,-6.458157083883892
-0.15670000000000006,-6.500598422879844
-0.15770000000000017,-6.500598422879844
-0.15870000000000006,-6.500598422879844
-0.15970000000000018,-6.500598422879844
-0.16070000000000007,-6.458157083883892
-0.16170000000000018,-6.458157083883892
-0.16270000000000007,-6.500598422879844
-0.16370000000000018,-6.54445447317566
-0.16470000000000007,-6.588310523471475
-0.16570000000000018,-6.588310523471475
-0.16670000000000007,-6.588310523471475
-0.16770000000000018,-6.54445447317566
-0.16870000000000007,-6.54445447317566
-0.16970000000000018,-6.54445447317566
-0.17070000000000007,-6.54445447317566
-0.17170000000000019,-6.588310523471475
-0.17270000000000008,-6.6760226240631075
-0.1737000000000002,-6.6760226240631075
-0.17470000000000008,-6.719878674358924
-0.1757000000000002,-6.719878674358924
-0.17670000000000008,-6.6760226240631075
-0.1777000000000002,-6.6760226240631075
-0.17870000000000008,-6.6760226240631075
-0.1797000000000002,-6.719878674358924
-0.18070000000000008,-6.719878674358924
-0.1817000000000002,-6.762320013354876
-0.18270000000000008,-6.762320013354876
-0.1837000000000002,-6.762320013354876
-0.1847000000000001,-6.762320013354876
-0.1857000000000002,-6.762320013354876
-0.1867000000000001,-6.762320013354876
-0.1877000000000002,-6.806176063650692
-0.1887000000000001,-6.893888164242324
-0.1897000000000002,-6.93774421453814
-0.1907000000000001,-6.981600264833956
-0.1917000000000001,-6.981600264833956
-0.19269999999999998,-6.981600264833956
-0.1937000000000001,-6.981600264833956
-0.19469999999999998,-6.93774421453814
-0.1957000000000001,-6.981600264833956
-0.19669999999999999,-6.981600264833956
-0.1977000000000001,-7.024041603829907
-0.1987,-7.067897654125724
-0.1997000000000001,-7.067897654125724
-0.2007,-7.067897654125724
-0.2017000000000001,-7.111753704421539
-0.2027,-7.111753704421539
-0.2037000000000001,-7.155609754717355
-0.2047,-7.199465805013171
-0.2057000000000001,-7.28576319430494
-0.2067,-7.37347529489657
-0.2077000000000001,-7.37347529489657
-0.2087,-7.4173313451923875
-0.2097000000000001,-7.4173313451923875
-0.2107,-7.37347529489657
-0.2117000000000001,-7.4173313451923875
-0.2127,-7.461187395488204
-0.2137000000000001,-7.50504344578402
-0.2147,-7.5474847847799715
-0.2157000000000001,-7.635196885371603
-0.2167,-7.635196885371603
-0.21770000000000012,-7.635196885371603
-0.2187,-7.635196885371603
-0.21970000000000012,-7.679052935667419
-0.2207,-7.722908985963235
-0.22170000000000012,-7.7653503249591855
-0.2227,-7.809206375255003
-0.22370000000000012,-7.853062425550818
-0.2247,-7.940774526142452
-0.22570000000000012,-7.940774526142452
-0.2267,-7.940774526142452
-0.22770000000000012,-7.984630576438266
-0.22870000000000001,-7.984630576438266
-0.22970000000000013,-8.027071915434218
-0.23070000000000002,-8.070927965730034
-0.23170000000000013,-8.11478401602585
-0.23270000000000002,-8.158640066321666
-0.23370000000000013,-8.202496116617484
-0.23470000000000002,-8.246352166913299
-0.23570000000000013,-8.332649556205066
-0.23670000000000002,-8.376505606500881
-0.2376999999999999,-8.464217707092514
-0.23870000000000002,-8.55051509638428
-0.2396999999999999,-8.638227196975913
-0.24070000000000003,-8.68208324727173
-0.24169999999999991,-8.68208324727173
-0.24270000000000003,-8.638227196975913
-0.24369999999999992,-8.638227196975913
-0.24470000000000003,-8.638227196975913
-0.24569999999999992,-8.638227196975913
-0.24670000000000003,-8.725939297567548
-0.24769999999999992,-8.769795347863363
-0.24870000000000003,-8.812236686859313
-0.24969999999999992,-8.899948787450944
-0.25070000000000003,-9.031516938338395
-0.2516999999999999,-9.11781432763016
-0.25270000000000004,-9.205526428221793
-0.2536999999999999,-9.293238528813426
-0.25470000000000004,-9.335679867809377
-0.2556999999999999,-9.423391968401008
-0.25670000000000004,-9.511104068992642
-0.25769999999999993,-9.55496011928846
-0.25870000000000004,-9.59740145828441
-0.25969999999999993,-9.685113558876042
-0.26070000000000004,-9.728969609171857
-0.26169999999999993,-9.81668170976349
-0.26270000000000004,-9.902979099055257
-0.26369999999999993,-9.99069119964689
-0.26470000000000005,-10.078403300238522
-0.26569999999999994,-10.120844639234473
-0.26670000000000005,-10.208556739826104
-0.26769999999999994,-10.25241279012192
-0.26870000000000005,-10.296268840417738
-0.26969999999999994,-10.340124890713554
-0.27070000000000005,-10.42642228000532
-0.27169999999999994,-10.514134380596953
-0.27270000000000005,-10.644287820184536
-0.27369999999999994,-10.731999920776168
-0.27470000000000006,-10.863568071663616
-0.27569999999999995,-10.906009410659568
-0.27670000000000006,-10.993721511251199
-0.27769999999999995,-11.081433611842833
-0.27870000000000006,-11.1677310011346
-0.27969999999999995,-11.299299152022046
-0.28070000000000006,-11.385596541313816
-0.28169999999999995,-11.473308641905447
-0.28270000000000006,-11.56102074249708
-0.28369999999999995,-11.647318131788847
-0.28470000000000006,-11.73503023238048
-0.28569999999999995,-11.82274233297211
-0.28670000000000007,-11.909039722263879
-0.28769999999999996,-12.040607873151327
-0.28870000000000007,-12.170761312738911
-0.28969999999999996,-12.346185513922174
-0.29070000000000007,-12.476338953509758
-0.29169999999999996,-12.607907104397206
-0.29270000000000007,-12.694204493688973
-0.29369999999999996,-12.825772644576423
-0.2947000000000001,-12.955926084164007
-0.29569999999999996,-13.087494235051453
-0.2967000000000001,-13.217647674639037
-0.29769999999999996,-13.3930718758223
-0.2987000000000001,-13.523225315409885
-0.29969999999999997,-13.654793466297335
-0.3007000000000001,-13.698649516593148
-0.30169999999999997,-13.784946905884919
-0.3027000000000001,-13.872659006476551
-0.30369999999999997,-14.002812446064135
-0.3047000000000001,-14.13438059695158
-0.30569999999999997,-14.26028990263957
-0.3067000000000001,-14.444202371622024
-0.3077,-14.57152638860988
-0.3087000000000001,-14.69885040559773
-0.3097,-14.826174422585586
-0.3107000000000001,-14.967645552572087
-0.3117,-15.094969569559943
-0.3127000000000001,-15.307176264539699
-0.3137,-15.491088733522153
-0.3147000000000001,-15.70329542850191
-0.3157,-15.87306078448571
-0.3167000000000001,-16.014531914472215
-0.3177,-16.141855931460068
-0.3187000000000001,-16.269179948447924
-0.3197,-16.438945304431726
-0.3207000000000001,-16.622857773414182
-0.3217,-16.792623129397985
-0.3227000000000001,-16.962388485381787
-0.3237,-17.188742293360193
-0.3247000000000001,-17.316066310348052
-0.3257,-17.48583166633185
-0.3267000000000001,-17.669744135314307
-0.3277,-17.839509491298113
-0.3287000000000001,-18.009274847281915
-0.3297,-18.23562865526032
-0.3307000000000001,-18.40539401124413
-0.3317,-18.631747819222536
-0.3327000000000001,-18.80151317520634
-0.3337,-18.97127853119014
-0.3347000000000001,-19.112749661176647
-0.3357,-19.3249563561564
-0.3367000000000001,-19.49472171214021
-0.3377,-19.721075520118614
-0.3387000000000001,-19.97572355409432
-0.3397,-20.202077362072725
-0.3407000000000001,-20.414284057052477
-0.3417,-20.626490752032236
-0.3427000000000001,-20.85284456001064
-0.3437,-21.022609915994444
-0.3447000000000001,-21.248963723972853
-0.3457,-21.461170418952605
-0.3467000000000001,-21.729965565926964
-0.3477,-21.98461359990267
-0.3487000000000001,-22.253408746877028
-0.3497,-22.42317410286083
-0.3507000000000001,-22.67782213683654
-0.3517,-22.946617283810895
-0.3527000000000001,-23.2012653177866
-0.3537,-23.51250180375691
-0.3547000000000001,-23.823738289727217
-0.3557,-24.078386323702922
-0.35670000000000013,-24.34718147067728
-0.3577,-24.559388165657033
-0.35870000000000013,-24.771594860636792
-0.3597,-24.95550732961925
-0.36070000000000013,-25.167714024599
-0.3617,-25.39406783257741
-0.3626999999999999,-25.691157205549064
-0.3637,-26.002393691519377
-0.3646999999999999,-26.29948306449103
-0.3657,-26.61071955046134
-0.3666999999999999,-26.907808923433
-0.3677,-27.219045409403304
-0.3686999999999999,-27.530281895373616
-0.36970000000000003,-27.827371268345274
-0.3706999999999999,-28.18104909331153
-0.37170000000000003,-28.478138466283188
-0.3726999999999999,-28.831816291249446
-0.37370000000000003,-29.14305277721976
-0.3746999999999999,-29.440142150191413
-0.37570000000000003,-29.708937297165768
-0.3766999999999999,-29.921143992145527
-0.37770000000000004,-30.189939139119886
-0.3786999999999999,-30.444587173095588
-0.37970000000000004,-30.79826499806185
-0.3806999999999999,-31.137795710029454
-0.38170000000000004,-31.49147353499572
-0.38269999999999993,-31.887592698957924
-0.38370000000000004,-32.283711862920136
-0.38469999999999993,-32.70812525287965
-0.38570000000000004,-33.10424441684186
-0.38669999999999993,-33.50036358080407
-0.38770000000000004,-33.93892408376223
-0.38869999999999993,-34.377484586720385
-0.38970000000000005,-34.75945663768395
-0.39069999999999994,-35.15557580164616
-0.39170000000000005,-35.46681228761647
-0.39269999999999994,-35.806342999584075
-0.39370000000000005,-36.16002082455034
-0.39469999999999994,-36.5136986495166
-0.39570000000000005,-36.8532293614842
-0.39669999999999994,-37.291789864442364
-0.39770000000000005,-37.687909028404576
-0.39869999999999994,-38.12646953136274
-0.39970000000000006,-38.522588695324956
-0.40069999999999995,-38.90456074628851
-0.40170000000000006,-39.30067991025072
-0.40269999999999995,-39.654357735216976
-0.40370000000000006,-40.03632978618054
-0.40469999999999995,-40.3900076111468
-0.40570000000000006,-40.78612677510901
-0.40669999999999995,-41.182245939071215
-0.40770000000000006,-41.606659329030734
-0.40869999999999995,-42.130102509980794
-0.40970000000000006,-42.6111043519349
-0.41069999999999995,-43.09210619388902
-0.41170000000000007,-43.57310803584313
-0.41269999999999996,-44.096551216793195
-0.41370000000000007,-44.619994397743255
-0.41469999999999996,-45.143437578693316
-0.41570000000000007,-45.624439420647434
-0.41669999999999996,-46.062999923605595
-0.41770000000000007,-46.45911908756781
-0.41869999999999996,-46.84109113853137
-0.4197000000000001,-47.23721030249357
-0.42069999999999996,-47.67577080545174
-0.4217000000000001,-48.114331308409895
-0.42269999999999996,-48.51045047237211
-0.4237000000000001,-48.89242252333566
-0.42469999999999997,-49.33098302629383
-0.4257000000000001,-49.72710219025603
-0.42669999999999997,-50.1656626932142
-0.4277000000000001,-50.64666453516831
-0.42869999999999997,-51.17010771611838
-0.4297000000000001,-51.69355089706845
-0.43069999999999997,-52.30187675601041
-0.4317000000000001,-52.86776127595642
-0.4327,-53.39120445690648
-0.4337000000000001,-53.9570889768525
-0.4347,-54.52297349679851
-0.4357000000000001,-55.046416677748574
-0.4367,-55.56985985869864
-0.4377000000000001,-56.13574437864466
-0.4387,-56.70162889859067
-0.4397000000000001,-57.22507207954074
-0.4407,-57.70607392149485
-0.4417000000000001,-58.22951710244491
-0.4427,-58.66807760540307
-0.4437000000000001,-59.10663810836124
-0.4447,-59.54519861131939
-0.4457000000000001,-60.06864179226946
-0.4467,-60.59208497321952
-0.4477000000000001,-61.11552815416958
-0.4487,-61.63897133511965
-0.4497000000000001,-62.16241451606972
-0.4507,-62.72829903601572
-0.4517000000000001,-63.251742216965795
-0.4527,-63.81762673691181
-0.4537000000000001,-64.38351125685783
-0.4547,-64.99183711579978
-0.4557000000000001,-65.5577216357458
-0.4567,-66.16604749468777
-0.4577000000000001,-66.73193201463377
-0.4587,-67.34025787357575
-0.4597000000000001,-68.0051721845123
-0.4607,-68.69838072144618
-0.4617000000000001,-69.3491479193841
-0.4627,-70.01406223032066
-0.4637000000000001,-70.66482942825859
-0.4647,-71.31559662619651
-0.4657000000000001,-71.92392248513846
-0.4667,-72.53224834408043
-0.4677000000000001,-73.0556915250305
-0.4687,-73.57913470598055
-0.4697000000000001,-74.06013654793468
-0.4707,-74.58357972888473
-0.4717000000000001,-75.06458157083884
-0.4727,-75.54558341279296
-0.4737000000000001,-76.02658525474708
-0.4747,-76.50758709670117
-0.4757000000000001,-76.98858893865528
-0.4767,-77.51203211960537
-0.4777000000000001,-78.12035797854733
-0.4787,-78.77112517648524
-0.4797000000000001,-79.47848082641775
-0.4807,-80.12924802435568
-0.48170000000000013,-80.7800152222936
-0.4827,-81.43078242023151
-0.48370000000000013,-82.09569673116808
-0.4847,-82.78890526810196
-0.48570000000000013,-83.43967246603985
-0.4867,-84.04799832498183
-0.4876999999999999,-84.61388284492786
-0.4887,-85.23635581686847
-0.4896999999999999,-85.88712301480638
-0.4907,-86.58033155174023
-0.4916999999999999,-87.33012854066871
-0.4927,-87.85357172161878
-0.4936999999999999,-88.37701490256885
-0.49470000000000003,-88.9004580835189
-0.4956999999999999,-89.42390126446898
-0.49670000000000003,-89.98978578441499
-0.4976999999999999,-90.59811164335694
-0.49870000000000003,-91.16399616330297
-0.4996999999999999,-91.72988068324898
-0.5007,-92.3806478811869
-0.5016999999999999,-93.03141507912481
-0.5027,-93.78121206805329
-0.5036999999999999,-94.6583330739696
-0.5047,-95.64863098387512
-0.5056999999999999,-96.65307600677932
-0.5067,-97.57263835169158
-0.5076999999999999,-98.3082882276214
-0.5087,-98.7892900695755
-0.5096999999999999,-99.18540923353773
-0.5107,-99.53908705850398
-0.5116999999999999,-99.87861777047159
