Potential V vs RHE, Current mA cm-2
0.013299999999999867,3.922994434525747
0.012299999999999978,2.919964122921436
0.011299999999999866,2.1347993514963406
0.010299999999999976,1.4812027309586933
0.009299999999999864,0.8264743413811545
0.008299999999999974,0.3903188476327636
0.007299999999999862,-0.08943804837746762
0.006299999999999972,-0.5255652478998613
0.00529999999999986,-0.9617207416482519
0.0042999999999999705,-1.3107300193249565
0.0032999999999998586,-1.6594563547416883
0.0022999999999999687,-1.9650339955125358
0.0012999999999998568,-2.3144676865791998
0.00029999999999996696,-2.576189277054232
-0.000700000000000145,-2.8803522065252145
-0.0017000000000000348,-3.1420737970002466
-0.0027000000000001467,-3.403795387475278
-0.0037000000000000366,-3.7093730282461257
-0.0047000000000001485,-3.971094618721158
-0.005700000000000038,-4.146518819904423
-0.00670000000000015,-4.406825699079589
-0.00770000000000004,-4.626105950558669
-0.008700000000000152,-4.843971490737885
-0.009700000000000042,-5.0618370309171015
-0.010700000000000154,-5.235846520800501
-0.011700000000000044,-5.453712060979717
-0.012700000000000156,-5.629136262162981
-0.013700000000000045,-5.80314575204638
-0.014700000000000157,-5.977155241929781
-0.015700000000000047,-6.152579443113044
-0.01670000000000016,-6.326588932996443
-0.01770000000000005,-6.500598422879844
-0.01870000000000016,-6.6760226240631075
-0.01970000000000005,-6.806176063650692
-0.020700000000000163,-6.981600264833956
-0.021700000000000053,-7.111753704421539
-0.022700000000000164,-7.28576319430494
-0.023700000000000054,-7.4173313451923875
-0.024700000000000166,-7.5474847847799715
-0.025700000000000056,-7.722908985963235
-0.026700000000000168,-7.853062425550818
-0.027700000000000058,-8.027071915434218
-0.02870000000000017,-8.202496116617484
-0.02970000000000006,-8.376505606500881
-0.03070000000000017,-8.594371146680096
-0.03170000000000006,-8.769795347863363
-0.03270000000000017,-8.987660888042578
-0.03370000000000006,-9.205526428221793
-0.034700000000000175,-9.467248018696827
-0.035700000000000065,-9.685113558876042
-0.03670000000000018,-9.85912304875944
-0.03770000000000007,-9.946835149351072
-0.03870000000000018,-10.034547249942705
-0.03970000000000007,-10.078403300238522
-0.04070000000000018,-10.120844639234473
-0.04170000000000007,-10.164700689530287
-0.04270000000000018,-10.164700689530287
-0.04370000000000007,-10.208556739826104
-0.044700000000000184,-10.296268840417738
-0.045700000000000074,-10.340124890713554
-0.046700000000000186,-10.382566229709504
-0.047700000000000076,-10.42642228000532
-0.04870000000000019,-10.514134380596953
-0.04970000000000008,-10.601846481188586
-0.05070000000000019,-10.688143870480351
-0.05170000000000008,-10.775855971071984
-0.05270000000000019,-10.906009410659568
-0.05370000000000008,-11.037577561547016
-0.05470000000000019,-11.1677310011346
-0.05570000000000008,-11.255443101726232
-0.056700000000000195,-11.385596541313816
-0.057700000000000085,-11.56102074249708
-0.058700000000000196,-11.691174182084664
-0.059700000000000086,-11.778886282676295
-0.0607000000000002,-11.909039722263879
-0.06170000000000009,-11.996751822855511
-0.0627000000000002,-12.12831997374296
-0.06370000000000009,-12.214617363034726
-0.0647000000000002,-12.346185513922174
-0.06570000000000009,-12.432482903213943
-0.0667000000000002,-12.56405105410139
-0.0677000000000001,-12.651763154693022
-0.0687000000000002,-12.781916594280606
-0.0697000000000001,-12.913484745168056
-0.07070000000000021,-13.043638184755638
-0.0717000000000001,-13.175206335643086
-0.07270000000000021,-13.3930718758223
-0.0737000000000001,-13.523225315409885
-0.07470000000000021,-13.698649516593148
-0.0757000000000001,-13.916515056772363
-0.07670000000000021,-14.13438059695158
-0.0777000000000001,-14.345172580631472
-0.07870000000000021,-14.57152638860988
-0.0797000000000001,-14.783733083589633
-0.08070000000000022,-15.094969569559943
-0.0817000000000001,-15.3920589425316
-0.08270000000000022,-15.660854089505953
-0.08370000000000011,-15.91550212348166
-0.08470000000000022,-16.269179948447924
-0.08570000000000011,-16.53797509542228
-0.08670000000000022,-16.835064468393938
-0.08770000000000011,-17.103859615368293
-0.08870000000000022,-17.40094898833995
-0.08970000000000011,-17.669744135314307
-0.09070000000000022,-17.924392169290012
-0.09170000000000011,-18.19318731626437
-0.09270000000000023,-18.44783535024008
-0.09370000000000012,-18.716630497214435
-0.09470000000000023,-18.92883719219419
-0.09570000000000012,-19.197632339168546
-0.09670000000000023,-19.409839034148305
-0.09770000000000012,-19.636192842126707
-0.09870000000000023,-19.890840876102416
-0.09970000000000012,-20.202077362072725
-0.10070000000000023,-20.414284057052477
-0.10170000000000012,-20.626490752032236
-0.10270000000000024,-20.89528589900659
-0.10370000000000013,-21.107492593986347
-0.10470000000000024,-21.376287740960702
-0.10570000000000013,-21.58849443594046
-0.10670000000000024,-21.814848243918867
-0.10770000000000013,-22.027054938898623
-0.10870000000000024,-22.295850085872978
-0.10970000000000013,-22.508056780852733
-0.11070000000000024,-22.72026347583249
-0.11170000000000013,-22.989058622806844
-0.11270000000000002,-23.24370665678255
-0.11370000000000013,-23.47006046476096
-0.11470000000000002,-23.682267159740714
-0.11570000000000014,-23.908620967719123
-0.11670000000000003,-24.120827662698876
-0.11770000000000014,-24.34718147067728
-0.11870000000000003,-24.559388165657033
-0.11970000000000014,-24.771594860636792
-0.12070000000000003,-24.997948668615198
-0.12170000000000014,-25.252596702590903
-0.12270000000000003,-25.43650917157336
-0.12370000000000014,-25.691157205549064
-0.12470000000000003,-25.86092256153287
-0.12570000000000014,-26.087276369511276
-0.12670000000000003,-26.34192440348698
-0.12770000000000015,-26.525836872469437
-0.12870000000000004,-26.69560222845324
-0.12970000000000015,-26.907808923433
-0.13070000000000004,-27.091721392415455
-0.13170000000000015,-27.303928087395207
-0.13270000000000004,-27.530281895373616
-0.13370000000000015,-27.700047251357418
-0.13470000000000004,-27.912253946337174
-0.13570000000000015,-28.13860775431558
-0.13670000000000004,-28.308373110299385
-0.13770000000000016,-28.478138466283188
-0.13870000000000005,-28.704492274261593
-0.13970000000000016,-28.8742576302454
-0.14070000000000005,-29.100611438223805
-0.14170000000000016,-29.27037679420761
-0.14270000000000005,-29.440142150191413
-0.14370000000000016,-29.581613280177915
-0.14470000000000005,-29.793819975157668
-0.14570000000000016,-29.96358533114148
-0.14670000000000005,-30.147497800123933
-0.14770000000000016,-30.317263156107735
-0.14870000000000005,-30.487028512091538
-0.14970000000000017,-30.71338232006995
-0.15070000000000006,-30.88314767605375
-0.15170000000000017,-31.010471693041605
-0.15270000000000006,-31.19438416202406
-0.15370000000000017,-31.40659085700382
-0.15470000000000006,-31.57635621298762
-0.15570000000000017,-31.717827342974125
-0.15670000000000006,-31.887592698957924
-0.15770000000000017,-32.05735805494172
-0.15870000000000006,-32.24127052392419
-0.15970000000000018,-32.41103587990799
-0.16070000000000007,-32.53835989689585
-0.16170000000000018,-32.70812525287965
-0.16270000000000007,-32.892037721862096
-0.16370000000000018,-33.06180307784591
-0.16470000000000007,-33.231568433829715
-0.16570000000000018,-33.373039563816214
-0.16670000000000007,-33.58524625879597
-0.16770000000000018,-33.755011614779775
-0.16870000000000007,-33.89648274476628
-0.16970000000000018,-34.02380676175414
-0.17070000000000007,-34.193572117737936
-0.17170000000000019,-34.377484586720385
-0.17270000000000008,-34.50480860370825
-0.1737000000000002,-34.67457395969205
-0.17470000000000008,-34.8018979766799
-0.1757000000000002,-34.98581044566235
-0.17670000000000008,-35.11313446265021
-0.1777000000000002,-35.282899818634014
-0.17870000000000008,-35.42437094862052
-0.1797000000000002,-35.594136304604326
-0.18070000000000008,-35.763901660588125
-0.1817000000000002,-35.90537279057463
-0.18270000000000008,-36.03269680756248
-0.1837000000000002,-36.16002082455034
-0.1847000000000001,-36.28734484153819
-0.1857000000000002,-36.47125731052064
-0.1867000000000001,-36.64102266650445
-0.1877000000000002,-36.725905344496354
-0.1887000000000001,-36.89567070048016
-0.1897000000000002,-37.07958316946261
-0.1907000000000001,-37.206907186450465
-0.1917000000000001,-37.376672542434264
-0.19269999999999998,-37.51814367242077
-0.1937000000000001,-37.687909028404576
-0.19469999999999998,-37.81523304539243
-0.1957000000000001,-37.94255706238028
-0.19669999999999999,-38.08402819236679
-0.1977000000000001,-38.253793548350586
-0.1987,-38.38111756533845
-0.1997000000000001,-38.522588695324956
-0.2007,-38.6499127123128
-0.2017000000000001,-38.81967806829661
-0.2027,-38.94700208528445
-0.2037000000000001,-39.130914554266916
-0.2047,-39.258238571254765
-0.2057000000000001,-39.38556258824262
-0.2067,-39.51288660523048
-0.2077000000000001,-39.696799074212926
-0.2087,-39.82412309120078
-0.2097000000000001,-39.99388844718459
-0.2107,-40.092918238175145
-0.2117000000000001,-40.220242255162994
-0.2127,-40.34756627215084
-0.2137000000000001,-40.51733162813464
-0.2147,-40.65880275812115
-0.2157000000000001,-40.828568114104954
-0.2167,-40.95589213109281
-0.21770000000000012,-41.139804600075266
-0.2187,-41.267128617063115
-0.21970000000000012,-41.39445263405098
-0.2207,-41.56421799003478
-0.22170000000000012,-41.70568912002128
-0.2227,-41.87545447600508
-0.22370000000000012,-41.96033715399699
-0.2247,-42.087661170984845
-0.22570000000000012,-42.2715736399673
-0.2267,-42.39889765695515
-0.22770000000000012,-42.526221673943
-0.22870000000000001,-42.653545690930855
-0.22970000000000013,-42.837458159913304
-0.23070000000000002,-42.96478217690117
-0.23170000000000013,-43.134547532884966
-0.23270000000000002,-43.27601866287147
-0.23370000000000013,-43.44578401885527
-0.23470000000000002,-43.53066669684718
-0.23570000000000013,-43.70043205283099
-0.23670000000000002,-43.88434452181344
-0.2376999999999999,-43.96922719980534
-0.23870000000000002,-44.138992555789144
-0.2396999999999999,-44.28046368577565
-0.24070000000000003,-44.45022904175945
-0.24169999999999991,-44.577553058747306
-0.24270000000000003,-44.704877075735155
-0.24369999999999992,-44.88878954471762
-0.24470000000000003,-45.05855490070142
-0.24569999999999992,-45.18587891768927
-0.24670000000000003,-45.36979138667173
-0.24769999999999992,-45.497115403659585
-0.24870000000000003,-45.624439420647434
-0.24969999999999992,-45.79420477663124
-0.25070000000000003,-45.93567590661774
-0.2516999999999999,-46.062999923605595
-0.25270000000000004,-46.19032394059345
-0.2536999999999999,-46.37423640957591
-0.25470000000000004,-46.544001765559706
-0.2556999999999999,-46.67132578254756
-0.25670000000000004,-46.79864979953541
-0.25769999999999993,-46.982562268517874
-0.25870000000000004,-47.10988628550572
-0.25969999999999993,-47.27965164148953
-0.26070000000000004,-47.46356411047198
-0.26169999999999993,-47.590888127459834
-0.26270000000000004,-47.71821214444768
-0.26369999999999993,-47.84553616143554
-0.26470000000000005,-48.029448630417996
-0.26569999999999994,-48.156772647405845
-0.26670000000000005,-48.2840966643937
-0.26769999999999994,-48.45386202037751
-0.26870000000000005,-48.63777448935996
-0.26969999999999994,-48.76509850634781
-0.27070000000000005,-48.93486386233162
-0.27169999999999994,-49.076334992318124
-0.27270000000000005,-49.24610034830193
-0.27369999999999994,-49.373424365289786
-0.27470000000000006,-49.50074838227763
-0.27569999999999995,-49.68466085126009
-0.27670000000000006,-49.81198486824794
-0.27769999999999995,-49.98175022423175
-0.27870000000000006,-50.12322135421825
-0.27969999999999995,-50.2505453712061
-0.28070000000000006,-50.42031072718991
-0.28169999999999995,-50.547634744177756
-0.28270000000000006,-50.73154721316022
-0.28369999999999995,-50.85887123014807
-0.28470000000000006,-51.028636586131874
-0.28569999999999995,-51.17010771611838
-0.28670000000000007,-51.33987307210218
-0.28769999999999996,-51.46719708909004
-0.28870000000000007,-51.594521106077885
-0.28969999999999996,-51.77843357506035
-0.29070000000000007,-51.948198931044146
-0.29169999999999996,-52.075522948032
-0.29270000000000007,-52.2169940780185
-0.29369999999999996,-52.386759434002315
-0.2947000000000001,-52.514083450990164
-0.29569999999999996,-52.69799591997262
-0.2967000000000001,-52.82531993696047
-0.29769999999999996,-52.995085292944275
-0.2987000000000001,-53.12240930993213
-0.29969999999999997,-53.30632177891458
-0.3007000000000001,-53.433645795902436
-0.30169999999999997,-53.56096981289029
-0.3027000000000001,-53.74488228187274
-0.30369999999999997,-53.872206298860604
-0.3047000000000001,-54.0419716548444
-0.30569999999999997,-54.2117370108282
-0.3067000000000001,-54.35320814081471
-0.3077,-54.480532157802564
-0.3087000000000001,-54.65029751378637
-0.3097,-54.791768643772876
-0.3107000000000001,-54.961533999756675
-0.3117,-55.13129935574048
-0.3127000000000001,-55.25862337272834
-0.3137,-55.442535841710786
-0.3147000000000001,-55.56985985869864
-0.3157,-55.6971838756865
-0.3167000000000001,-55.881096344668954
-0.3177,-56.05086170065276
-0.3187000000000001,-56.1781857176406
-0.3197,-56.36209818662306
-0.3207000000000001,-56.489422203610914
-0.3217,-56.65918755959472
-0.3227000000000001,-56.82895291557852
-0.3237,-57.012865384560975
-0.3247000000000001,-57.14018940154883
-0.3257,-57.26751341853669
-0.3267000000000001,-57.45142588751914
-0.3277,-57.62119124350295
-0.3287000000000001,-57.7485152604908
-0.3297,-57.87583927747865
-0.3307000000000001,-58.05975174646111
-0.3317,-58.22951710244491
-0.3327000000000001,-58.39928245842871
-0.3337,-58.54075358841522
-0.3347000000000001,-58.71051894439902
-0.3357,-58.880284300382826
-0.3367000000000001,-59.06419676936528
-0.3377,-59.23396212534908
-0.3387000000000001,-59.36128614233694
-0.3397,-59.587639950315335
-0.3407000000000001,-59.7149639673032
-0.3417,-59.884729323287
-0.3427000000000001,-60.06864179226946
-0.3437,-60.15352447026136
-0.3447000000000001,-60.36573116524111
-0.3457,-60.54964363422357
-0.3467000000000001,-60.67696765121143
-0.3477,-60.84673300719523
-0.3487000000000001,-61.07308681517363
-0.3497,-61.242852171157445
-0.3507000000000001,-61.412617527141244
-0.3517,-61.5965299961237
-0.3527000000000001,-61.7662953521075
-0.3537,-61.936060708091304
-0.3547000000000001,-62.11997317707376
-0.3557,-62.28973853305756
-0.35670000000000013,-62.41706255004542
-0.3577,-62.64341635802381
-0.35870000000000013,-62.81318171400764
-0.3597,-63.02538840898739
-0.36070000000000013,-63.15271242597524
-0.3617,-63.37906623395363
-0.3626999999999999,-63.54883158993744
-0.3637,-63.77518539791585
-0.3646999999999999,-63.98739209289561
-0.3657,-64.15715744887942
-0.3666999999999999,-64.38351125685783
-0.3677,-64.55327661284163
-0.3686999999999999,-64.77963042082003
-0.36970000000000003,-64.94939577680383
-0.3706999999999999,-65.11916113278764
-0.37170000000000003,-65.38795627976201
-0.3726999999999999,-65.5577216357458
-0.37370000000000003,-65.76992833072556
-0.3746999999999999,-65.95384079970802
-0.37570000000000003,-66.20848883368372
-0.3766999999999999,-66.43484264166212
-0.37770000000000004,-66.64704933664189
-0.3786999999999999,-66.87340314462028
-0.37970000000000004,-67.08560983960004
-0.3806999999999999,-67.2978165345798
-0.38170000000000004,-67.56661168155415
-0.38269999999999993,-67.7788183765339
-0.38370000000000004,-68.0051721845123
-0.38469999999999993,-68.25982021848802
-0.38570000000000004,-68.48617402646643
-0.38669999999999993,-68.74082206044213
-0.38770000000000004,-68.96717586842054
-0.38869999999999993,-69.1793825634003
-0.38970000000000005,-69.43403059737601
-0.39069999999999994,-69.70282574435035
-0.39170000000000005,-69.95747377832606
-0.39269999999999994,-70.22626892530042
-0.39370000000000005,-70.48091695927613
-0.39469999999999994,-70.74971210625048
-0.39570000000000005,-71.0043601402262
-0.39669999999999994,-71.27315528720055
-0.39770000000000005,-71.52780332117625
-0.39869999999999994,-71.83903980714656
-0.39970000000000006,-72.10783495412092
-0.40069999999999995,-72.36248298809663
-0.40170000000000006,-72.67371947406694
-0.40269999999999995,-72.92836750804264
-0.40370000000000006,-73.23960399401295
-0.40469999999999995,-73.53669336698461
-0.40570000000000006,-73.8479298529549
-0.40669999999999995,-74.14501922592657
-0.40770000000000006,-74.45625571189689
-0.40869999999999995,-74.76749219786718
-0.40970000000000006,-75.06458157083884
-0.41069999999999995,-75.37581805680915
-0.41170000000000007,-75.6729074297808
-0.41269999999999996,-76.02658525474708
-0.41370000000000007,-76.38026307971333
-0.41469999999999996,-76.71979379168094
-0.41570000000000007,-77.03103027765125
-0.41669999999999996,-77.38470810261751
-0.41770000000000007,-77.7242388145851
-0.41869999999999996,-78.03547530055542
-0.4197000000000001,-78.43159446451764
-0.42069999999999996,-78.77112517648524
-0.4217000000000001,-79.1248030014515
-0.42269999999999996,-79.47848082641775
-0.4237000000000001,-79.86045287738132
-0.42469999999999997,-80.17168936335163
-0.4257000000000001,-80.52536718831789
-0.42669999999999997,-80.90733923928146
-0.4277000000000001,-81.30345840324367
-0.42869999999999997,-81.65713622820991
-0.4297000000000001,-82.03910827917348
-0.43069999999999997,-82.43522744313569
-0.4317000000000001,-82.8313466070979
-0.4327,-83.22746577106011
-0.4337000000000001,-83.60943782202366
-0.4347,-83.96311564698992
-0.4357000000000001,-84.40167614994809
-0.4367,-84.7977953139103
-0.4377000000000001,-85.17976736487385
-0.4387,-85.61832786783202
-0.4397000000000001,-86.01444703179425
-0.4407,-86.45300753475239
-0.4417000000000001,-86.89156803771054
-0.4427,-87.27354008867411
-0.4437000000000001,-87.75454193062824
-0.4447,-88.19310243358639
-0.4457000000000001,-88.63166293654454
-0.4467,-89.11266477849867
-0.4477000000000001,-89.50878394246087
-0.4487,-89.98978578441499
-0.4497000000000001,-90.41419917437449
-0.4507,-90.89520101632861
-0.4517000000000001,-91.33376151928677
-0.4527,-91.81476336124088
-0.4537000000000001,-92.29576520319499
-0.4547,-92.7767670451491
-0.4557000000000001,-93.25776888710321
-0.4567,-93.69632939006138
-0.4577000000000001,-94.21977257101145
-0.4587,-94.70077441296557
-0.4597000000000001,-95.22421759391563
-0.4607,-95.69107232287108
-0.4617000000000001,-96.17207416482519
-0.4627,-96.65307600677932
-0.4637000000000001,-97.17651918772938
-0.4647,-97.6575210296835
-0.4657000000000001,-98.18096421063355
-0.4667,-98.7044073915836
-0.4677000000000001,-99.22785057253368
-0.4687,-99.75129375348374
-0.4697000000000001,-100.2747369344338
-0.4707,-100.79818011538387
-0.4717000000000001,-101.40650597432582
-0.4727,-101.92994915527588
-0.4737000000000001,-102.4958336752219
-0.4747,-103.01927685617197
-0.4757000000000001,-103.59930848911664
-0.4767,-104.12275167006669
-0.4777000000000001,-104.68863619001272
-0.4787,-105.25452070995874
-0.4797000000000001,-105.82040522990474
-0.4807,-106.34384841085482
-0.48170000000000013,-106.95217426979677
-0.4827,-107.51805878974278
-0.48370000000000013,-108.0839433096888
-0.4847,-108.69226916863077
-0.48570000000000013,-109.30059502757274
-0.4867,-108.96106431560513
-0.48570000000000013,-107.16438096477653
-0.4847,-105.63649276092228
-0.48370000000000013,-104.2925170260505
-0.4827,-103.07586530816658
-0.48170000000000013,-101.84506647728399
-0.4807,-100.71329743739196
-0.4797000000000001,-99.62396973649588
-0.4787,-98.57708337459576
-0.4777000000000001,-97.57263835169158
-0.4767,-96.5681933287874
-0.4757000000000001,-95.56374830588322
-0.4747,-94.601744621975
-0.4737000000000001,-93.65388805106544
-0.4727,-92.73432570615316
-0.4717000000000001,-91.77232202224494
-0.4707,-90.81031833833671
-0.4697000000000001,-89.89075599342443
-0.4687,-88.9853407615108
-0.4677000000000001,-88.10821975559449
-0.4667,-87.23109874967815
-0.4657000000000001,-86.32568351776455
-0.4647,-85.49100385084417
-0.4637000000000001,-84.61388284492786
-0.4627,-83.79335029100612
