Mar. 9, 2025   03:41:17
Linear Sweep Voltammetry
File: c:/users/guazh/data/banditlqround7_x0exp169_r20_3/2025-03-03-exp914\regeneratedgce-2025-03-09t03_38_16-lsvinkoh\regeneratedgce_lsv_50mvs_efin_-1700mv.bin
Data Source:  Experiment
Instrument Model:  CHI760E
Header: LSV ran at 50 mVs with Efin at -1700mV
Note: 

Init E (V) = -0.6
Final E (V) = -1.7
Scan Rate (V/s) = 0.05
Sample Interval (V) = 0.001
Quiet Time (sec) = 2
Sensitivity (A/V) = 1e-4
Comp R (ohm) = 1.3

Results:

Channel 1:

Potential/V, Current/A

-0.600, 9.019e-7
-0.601, 1.083e-6
-0.602, 1.121e-6
-0.603, 1.138e-6
-0.604, 1.150e-6
-0.605, 1.158e-6
-0.606, 1.170e-6
-0.607, 1.177e-6
-0.608, 1.186e-6
-0.609, 1.194e-6
-0.610, 1.198e-6
-0.611, 1.205e-6
-0.612, 1.211e-6
-0.613, 1.218e-6
-0.614, 1.225e-6
-0.615, 1.228e-6
-0.616, 1.233e-6
-0.617, 1.240e-6
-0.618, 1.244e-6
-0.619, 1.249e-6
-0.620, 1.253e-6
-0.621, 1.258e-6
-0.622, 1.263e-6
-0.623, 1.269e-6
-0.624, 1.273e-6
-0.625, 1.277e-6
-0.626, 1.279e-6
-0.627, 1.288e-6
-0.628, 1.298e-6
-0.629, 1.302e-6
-0.630, 1.307e-6
-0.631, 1.310e-6
-0.632, 1.313e-6
-0.633, 1.319e-6
-0.634, 1.322e-6
-0.635, 1.325e-6
-0.636, 1.330e-6
-0.637, 1.338e-6
-0.638, 1.345e-6
-0.639, 1.346e-6
-0.640, 1.350e-6
-0.641, 1.354e-6
-0.642, 1.356e-6
-0.643, 1.361e-6
-0.644, 1.366e-6
-0.645, 1.367e-6
-0.646, 1.373e-6
-0.647, 1.376e-6
-0.648, 1.382e-6
-0.649, 1.388e-6
-0.650, 1.388e-6
-0.651, 1.391e-6
-0.652, 1.395e-6
-0.653, 1.399e-6
-0.654, 1.403e-6
-0.655, 1.405e-6
-0.656, 1.408e-6
-0.657, 1.414e-6
-0.658, 1.417e-6
-0.659, 1.421e-6
-0.660, 1.424e-6
-0.661, 1.427e-6
-0.662, 1.432e-6
-0.663, 1.436e-6
-0.664, 1.439e-6
-0.665, 1.442e-6
-0.666, 1.447e-6
-0.667, 1.451e-6
-0.668, 1.455e-6
-0.669, 1.458e-6
-0.670, 1.459e-6
-0.671, 1.462e-6
-0.672, 1.466e-6
-0.673, 1.471e-6
-0.674, 1.472e-6
-0.675, 1.476e-6
-0.676, 1.478e-6
-0.677, 1.480e-6
-0.678, 1.485e-6
-0.679, 1.486e-6
-0.680, 1.489e-6
-0.681, 1.492e-6
-0.682, 1.495e-6
-0.683, 1.502e-6
-0.684, 1.504e-6
-0.685, 1.504e-6
-0.686, 1.507e-6
-0.687, 1.510e-6
-0.688, 1.514e-6
-0.689, 1.519e-6
-0.690, 1.519e-6
-0.691, 1.523e-6
-0.692, 1.531e-6
-0.693, 1.537e-6
-0.694, 1.541e-6
-0.695, 1.543e-6
-0.696, 1.545e-6
-0.697, 1.548e-6
-0.698, 1.552e-6
-0.699, 1.553e-6
-0.700, 1.557e-6
-0.701, 1.559e-6
-0.702, 1.566e-6
-0.703, 1.569e-6
-0.704, 1.571e-6
-0.705, 1.576e-6
-0.706, 1.576e-6
-0.707, 1.581e-6
-0.708, 1.586e-6
-0.709, 1.587e-6
-0.710, 1.589e-6
-0.711, 1.591e-6
-0.712, 1.595e-6
-0.713, 1.600e-6
-0.714, 1.600e-6
-0.715, 1.603e-6
-0.716, 1.605e-6
-0.717, 1.609e-6
-0.718, 1.615e-6
-0.719, 1.615e-6
-0.720, 1.615e-6
-0.721, 1.620e-6
-0.722, 1.619e-6
-0.723, 1.625e-6
-0.724, 1.626e-6
-0.725, 1.628e-6
-0.726, 1.631e-6
-0.727, 1.634e-6
-0.728, 1.637e-6
-0.729, 1.640e-6
-0.730, 1.641e-6
-0.731, 1.643e-6
-0.732, 1.646e-6
-0.733, 1.648e-6
-0.734, 1.652e-6
-0.735, 1.652e-6
-0.736, 1.655e-6
-0.737, 1.661e-6
-0.738, 1.662e-6
-0.739, 1.665e-6
-0.740, 1.668e-6
-0.741, 1.668e-6
-0.742, 1.674e-6
-0.743, 1.678e-6
-0.744, 1.680e-6
-0.745, 1.684e-6
-0.746, 1.686e-6
-0.747, 1.692e-6
-0.748, 1.695e-6
-0.749, 1.695e-6
-0.750, 1.700e-6
-0.751, 1.701e-6
-0.752, 1.704e-6
-0.753, 1.710e-6
-0.754, 1.711e-6
-0.755, 1.712e-6
-0.756, 1.716e-6
-0.757, 1.717e-6
-0.758, 1.722e-6
-0.759, 1.723e-6
-0.760, 1.729e-6
-0.761, 1.736e-6
-0.762, 1.741e-6
-0.763, 1.746e-6
-0.764, 1.748e-6
-0.765, 1.746e-6
-0.766, 1.749e-6
-0.767, 1.749e-6
-0.768, 1.757e-6
-0.769, 1.761e-6
-0.770, 1.763e-6
-0.771, 1.767e-6
-0.772, 1.771e-6
-0.773, 1.773e-6
-0.774, 1.773e-6
-0.775, 1.774e-6
-0.776, 1.776e-6
-0.777, 1.782e-6
-0.778, 1.785e-6
-0.779, 1.787e-6
-0.780, 1.788e-6
-0.781, 1.789e-6
-0.782, 1.793e-6
-0.783, 1.796e-6
-0.784, 1.796e-6
-0.785, 1.802e-6
-0.786, 1.802e-6
-0.787, 1.806e-6
-0.788, 1.812e-6
-0.789, 1.813e-6
-0.790, 1.815e-6
-0.791, 1.815e-6
-0.792, 1.819e-6
-0.793, 1.824e-6
-0.794, 1.824e-6
-0.795, 1.827e-6
-0.796, 1.829e-6
-0.797, 1.832e-6
-0.798, 1.837e-6
-0.799, 1.838e-6
-0.800, 1.841e-6
-0.801, 1.843e-6
-0.802, 1.846e-6
-0.803, 1.850e-6
-0.804, 1.851e-6
-0.805, 1.854e-6
-0.806, 1.858e-6
-0.807, 1.864e-6
-0.808, 1.868e-6
-0.809, 1.872e-6
-0.810, 1.872e-6
-0.811, 1.874e-6
-0.812, 1.879e-6
-0.813, 1.882e-6
-0.814, 1.885e-6
-0.815, 1.888e-6
-0.816, 1.892e-6
-0.817, 1.899e-6
-0.818, 1.905e-6
-0.819, 1.913e-6
-0.820, 1.915e-6
-0.821, 1.911e-6
-0.822, 1.915e-6
-0.823, 1.917e-6
-0.824, 1.919e-6
-0.825, 1.925e-6
-0.826, 1.928e-6
-0.827, 1.936e-6
-0.828, 1.940e-6
-0.829, 1.939e-6
-0.830, 1.943e-6
-0.831, 1.946e-6
-0.832, 1.949e-6
-0.833, 1.954e-6
-0.834, 1.956e-6
-0.835, 1.959e-6
-0.836, 1.962e-6
-0.837, 1.967e-6
-0.838, 1.971e-6
-0.839, 1.973e-6
-0.840, 1.975e-6
-0.841, 1.978e-6
-0.842, 1.981e-6
-0.843, 1.985e-6
-0.844, 1.988e-6
-0.845, 1.992e-6
-0.846, 1.995e-6
-0.847, 2.000e-6
-0.848, 2.002e-6
-0.849, 2.003e-6
-0.850, 2.004e-6
-0.851, 2.009e-6
-0.852, 2.017e-6
-0.853, 2.018e-6
-0.854, 2.021e-6
-0.855, 2.020e-6
-0.856, 2.023e-6
-0.857, 2.029e-6
-0.858, 2.031e-6
-0.859, 2.034e-6
-0.860, 2.038e-6
-0.861, 2.042e-6
-0.862, 2.049e-6
-0.863, 2.051e-6
-0.864, 2.052e-6
-0.865, 2.055e-6
-0.866, 2.056e-6
-0.867, 2.060e-6
-0.868, 2.066e-6
-0.869, 2.069e-6
-0.870, 2.075e-6
-0.871, 2.078e-6
-0.872, 2.082e-6
-0.873, 2.087e-6
-0.874, 2.087e-6
-0.875, 2.091e-6
-0.876, 2.098e-6
-0.877, 2.101e-6
-0.878, 2.107e-6
-0.879, 2.108e-6
-0.880, 2.112e-6
-0.881, 2.116e-6
-0.882, 2.120e-6
-0.883, 2.126e-6
-0.884, 2.127e-6
-0.885, 2.129e-6
-0.886, 2.136e-6
-0.887, 2.138e-6
-0.888, 2.142e-6
-0.889, 2.145e-6
-0.890, 2.147e-6
-0.891, 2.150e-6
-0.892, 2.156e-6
-0.893, 2.160e-6
-0.894, 2.162e-6
-0.895, 2.165e-6
-0.896, 2.167e-6
-0.897, 2.175e-6
-0.898, 2.177e-6
-0.899, 2.180e-6
-0.900, 2.181e-6
-0.901, 2.184e-6
-0.902, 2.191e-6
-0.903, 2.194e-6
-0.904, 2.197e-6
-0.905, 2.201e-6
-0.906, 2.205e-6
-0.907, 2.214e-6
-0.908, 2.217e-6
-0.909, 2.216e-6
-0.910, 2.218e-6
-0.911, 2.218e-6
-0.912, 2.222e-6
-0.913, 2.228e-6
-0.914, 2.230e-6
-0.915, 2.236e-6
-0.916, 2.239e-6
-0.917, 2.243e-6
-0.918, 2.248e-6
-0.919, 2.247e-6
-0.920, 2.249e-6
-0.921, 2.254e-6
-0.922, 2.260e-6
-0.923, 2.266e-6
-0.924, 2.271e-6
-0.925, 2.273e-6
-0.926, 2.274e-6
-0.927, 2.278e-6
-0.928, 2.280e-6
-0.929, 2.284e-6
-0.930, 2.285e-6
-0.931, 2.292e-6
-0.932, 2.297e-6
-0.933, 2.301e-6
-0.934, 2.306e-6
-0.935, 2.308e-6
-0.936, 2.312e-6
-0.937, 2.318e-6
-0.938, 2.319e-6
-0.939, 2.323e-6
-0.940, 2.327e-6
-0.941, 2.330e-6
-0.942, 2.338e-6
-0.943, 2.339e-6
-0.944, 2.341e-6
-0.945, 2.346e-6
-0.946, 2.350e-6
-0.947, 2.361e-6
-0.948, 2.367e-6
-0.949, 2.370e-6
-0.950, 2.375e-6
-0.951, 2.376e-6
-0.952, 2.382e-6
-0.953, 2.387e-6
-0.954, 2.390e-6
-0.955, 2.397e-6
-0.956, 2.402e-6
-0.957, 2.406e-6
-0.958, 2.409e-6
-0.959, 2.411e-6
-0.960, 2.415e-6
-0.961, 2.421e-6
-0.962, 2.427e-6
-0.963, 2.428e-6
-0.964, 2.434e-6
-0.965, 2.437e-6
-0.966, 2.443e-6
-0.967, 2.448e-6
-0.968, 2.452e-6
-0.969, 2.457e-6
-0.970, 2.459e-6
-0.971, 2.464e-6
-0.972, 2.470e-6
-0.973, 2.477e-6
-0.974, 2.479e-6
-0.975, 2.480e-6
-0.976, 2.485e-6
-0.977, 2.491e-6
-0.978, 2.493e-6
-0.979, 2.498e-6
-0.980, 2.502e-6
-0.981, 2.506e-6
-0.982, 2.513e-6
-0.983, 2.515e-6
-0.984, 2.518e-6
-0.985, 2.522e-6
-0.986, 2.527e-6
-0.987, 2.534e-6
-0.988, 2.541e-6
-0.989, 2.544e-6
-0.990, 2.548e-6
-0.991, 2.552e-6
-0.992, 2.557e-6
-0.993, 2.560e-6
-0.994, 2.563e-6
-0.995, 2.570e-6
-0.996, 2.576e-6
-0.997, 2.582e-6
-0.998, 2.588e-6
-0.999, 2.590e-6
-1.000, 2.593e-6
-1.001, 2.597e-6
-1.002, 2.603e-6
-1.003, 2.609e-6
-1.004, 2.611e-6
-1.005, 2.615e-6
-1.006, 2.620e-6
-1.007, 2.625e-6
-1.008, 2.631e-6
-1.009, 2.636e-6
-1.010, 2.639e-6
-1.011, 2.645e-6
-1.012, 2.652e-6
-1.013, 2.654e-6
-1.014, 2.661e-6
-1.015, 2.663e-6
-1.016, 2.665e-6
-1.017, 2.672e-6
-1.018, 2.673e-6
-1.019, 2.677e-6
-1.020, 2.684e-6
-1.021, 2.689e-6
-1.022, 2.695e-6
-1.023, 2.698e-6
-1.024, 2.702e-6
-1.025, 2.706e-6
-1.026, 2.709e-6
-1.027, 2.716e-6
-1.028, 2.719e-6
-1.029, 2.721e-6
-1.030, 2.726e-6
-1.031, 2.729e-6
-1.032, 2.734e-6
-1.033, 2.738e-6
-1.034, 2.738e-6
-1.035, 2.745e-6
-1.036, 2.751e-6
-1.037, 2.757e-6
-1.038, 2.761e-6
-1.039, 2.764e-6
-1.040, 2.769e-6
-1.041, 2.771e-6
-1.042, 2.776e-6
-1.043, 2.781e-6
-1.044, 2.783e-6
-1.045, 2.787e-6
-1.046, 2.794e-6
-1.047, 2.798e-6
-1.048, 2.801e-6
-1.049, 2.806e-6
-1.050, 2.809e-6
-1.051, 2.814e-6
-1.052, 2.819e-6
-1.053, 2.822e-6
-1.054, 2.826e-6
-1.055, 2.829e-6
-1.056, 2.835e-6
-1.057, 2.844e-6
-1.058, 2.844e-6
-1.059, 2.848e-6
-1.060, 2.852e-6
-1.061, 2.858e-6
-1.062, 2.865e-6
-1.063, 2.869e-6
-1.064, 2.870e-6
-1.065, 2.875e-6
-1.066, 2.881e-6
-1.067, 2.887e-6
-1.068, 2.891e-6
-1.069, 2.893e-6
-1.070, 2.896e-6
-1.071, 2.902e-6
-1.072, 2.909e-6
-1.073, 2.914e-6
-1.074, 2.916e-6
-1.075, 2.923e-6
-1.076, 2.929e-6
-1.077, 2.932e-6
-1.078, 2.937e-6
-1.079, 2.940e-6
-1.080, 2.945e-6
-1.081, 2.955e-6
-1.082, 2.965e-6
-1.083, 2.974e-6
-1.084, 2.979e-6
-1.085, 2.979e-6
-1.086, 2.983e-6
-1.087, 2.985e-6
-1.088, 2.988e-6
-1.089, 2.990e-6
-1.090, 2.994e-6
-1.091, 3.001e-6
-1.092, 3.009e-6
-1.093, 3.012e-6
-1.094, 3.016e-6
-1.095, 3.017e-6
-1.096, 3.022e-6
-1.097, 3.027e-6
-1.098, 3.029e-6
-1.099, 3.033e-6
-1.100, 3.038e-6
-1.101, 3.043e-6
-1.102, 3.050e-6
-1.103, 3.052e-6
-1.104, 3.055e-6
-1.105, 3.059e-6
-1.106, 3.063e-6
-1.107, 3.069e-6
-1.108, 3.075e-6
-1.109, 3.076e-6
-1.110, 3.081e-6
-1.111, 3.084e-6
-1.112, 3.093e-6
-1.113, 3.098e-6
-1.114, 3.099e-6
-1.115, 3.107e-6
-1.116, 3.112e-6
-1.117, 3.114e-6
-1.118, 3.124e-6
-1.119, 3.129e-6
-1.120, 3.136e-6
-1.121, 3.142e-6
-1.122, 3.146e-6
-1.123, 3.149e-6
-1.124, 3.149e-6
-1.125, 3.154e-6
-1.126, 3.162e-6
-1.127, 3.171e-6
-1.128, 3.173e-6
-1.129, 3.179e-6
-1.130, 3.181e-6
-1.131, 3.187e-6
-1.132, 3.193e-6
-1.133, 3.198e-6
-1.134, 3.208e-6
-1.135, 3.216e-6
-1.136, 3.223e-6
-1.137, 3.230e-6
-1.138, 3.228e-6
-1.139, 3.231e-6
-1.140, 3.234e-6
-1.141, 3.240e-6
-1.142, 3.249e-6
-1.143, 3.253e-6
-1.144, 3.257e-6
-1.145, 3.264e-6
-1.146, 3.267e-6
-1.147, 3.274e-6
-1.148, 3.275e-6
-1.149, 3.277e-6
-1.150, 3.283e-6
-1.151, 3.287e-6
-1.152, 3.295e-6
-1.153, 3.299e-6
-1.154, 3.300e-6
-1.155, 3.304e-6
-1.156, 3.308e-6
-1.157, 3.313e-6
-1.158, 3.319e-6
-1.159, 3.321e-6
-1.160, 3.326e-6
-1.161, 3.333e-6
-1.162, 3.339e-6
-1.163, 3.345e-6
-1.164, 3.350e-6
-1.165, 3.352e-6
-1.166, 3.358e-6
-1.167, 3.363e-6
-1.168, 3.366e-6
-1.169, 3.371e-6
-1.170, 3.373e-6
-1.171, 3.382e-6
-1.172, 3.390e-6
-1.173, 3.391e-6
-1.174, 3.396e-6
-1.175, 3.399e-6
-1.176, 3.405e-6
-1.177, 3.413e-6
-1.178, 3.419e-6
-1.179, 3.421e-6
-1.180, 3.425e-6
-1.181, 3.429e-6
-1.182, 3.437e-6
-1.183, 3.438e-6
-1.184, 3.441e-6
-1.185, 3.446e-6
-1.186, 3.452e-6
-1.187, 3.459e-6
-1.188, 3.463e-6
-1.189, 3.468e-6
-1.190, 3.474e-6
-1.191, 3.481e-6
-1.192, 3.487e-6
-1.193, 3.492e-6
-1.194, 3.491e-6
-1.195, 3.494e-6
-1.196, 3.500e-6
-1.197, 3.504e-6
-1.198, 3.511e-6
-1.199, 3.515e-6
-1.200, 3.523e-6
-1.201, 3.530e-6
-1.202, 3.534e-6
-1.203, 3.539e-6
-1.204, 3.542e-6
-1.205, 3.544e-6
-1.206, 3.552e-6
-1.207, 3.556e-6
-1.208, 3.559e-6
-1.209, 3.566e-6
-1.210, 3.569e-6
-1.211, 3.575e-6
-1.212, 3.580e-6
-1.213, 3.583e-6
-1.214, 3.588e-6
-1.215, 3.592e-6
-1.216, 3.599e-6
-1.217, 3.607e-6
-1.218, 3.607e-6
-1.219, 3.610e-6
-1.220, 3.614e-6
-1.221, 3.620e-6
-1.222, 3.627e-6
-1.223, 3.630e-6
-1.224, 3.635e-6
-1.225, 3.640e-6
-1.226, 3.645e-6
-1.227, 3.651e-6
-1.228, 3.653e-6
-1.229, 3.667e-6
-1.230, 3.666e-6
-1.231, 3.669e-6
-1.232, 3.675e-6
-1.233, 3.679e-6
-1.234, 3.678e-6
-1.235, 3.685e-6
-1.236, 3.689e-6
-1.237, 3.693e-6
-1.238, 3.698e-6
-1.239, 3.701e-6
-1.240, 3.705e-6
-1.241, 3.713e-6
-1.242, 3.717e-6
-1.243, 3.720e-6
-1.244, 3.725e-6
-1.245, 3.729e-6
-1.246, 3.738e-6
-1.247, 3.743e-6
-1.248, 3.752e-6
-1.249, 3.764e-6
-1.250, 3.771e-6
-1.251, 3.779e-6
-1.252, 3.782e-6
-1.253, 3.782e-6
-1.254, 3.784e-6
-1.255, 3.785e-6
-1.256, 3.789e-6
-1.257, 3.798e-6
-1.258, 3.802e-6
-1.259, 3.807e-6
-1.260, 3.812e-6
-1.261, 3.816e-6
-1.262, 3.819e-6
-1.263, 3.820e-6
-1.264, 3.824e-6
-1.265, 3.828e-6
-1.266, 3.833e-6
-1.267, 3.838e-6
-1.268, 3.841e-6
-1.269, 3.845e-6
-1.270, 3.850e-6
-1.271, 3.854e-6
-1.272, 3.858e-6
-1.273, 3.860e-6
-1.274, 3.859e-6
-1.275, 3.866e-6
-1.276, 3.872e-6
-1.277, 3.877e-6
-1.278, 3.880e-6
-1.279, 3.879e-6
-1.280, 3.887e-6
-1.281, 3.891e-6
-1.282, 3.892e-6
-1.283, 3.894e-6
-1.284, 3.899e-6
-1.285, 3.902e-6
-1.286, 3.910e-6
-1.287, 3.912e-6
-1.288, 3.913e-6
-1.289, 3.917e-6
-1.290, 3.919e-6
-1.291, 3.924e-6
-1.292, 3.930e-6
-1.293, 3.933e-6
-1.294, 3.937e-6
-1.295, 3.940e-6
-1.296, 3.947e-6
-1.297, 3.954e-6
-1.298, 3.954e-6
-1.299, 3.958e-6
-1.300, 3.964e-6
-1.301, 3.969e-6
-1.302, 3.976e-6
-1.303, 3.977e-6
-1.304, 3.982e-6
-1.305, 3.990e-6
-1.306, 3.994e-6
-1.307, 4.000e-6
-1.308, 4.003e-6
-1.309, 4.011e-6
-1.310, 4.030e-6
-1.311, 4.042e-6
-1.312, 4.051e-6
-1.313, 4.053e-6
-1.314, 4.053e-6
-1.315, 4.056e-6
-1.316, 4.061e-6
-1.317, 4.067e-6
-1.318, 4.076e-6
-1.319, 4.084e-6
-1.320, 4.094e-6
-1.321, 4.103e-6
-1.322, 4.104e-6
-1.323, 4.108e-6
-1.324, 4.113e-6
-1.325, 4.116e-6
-1.326, 4.125e-6
-1.327, 4.134e-6
-1.328, 4.141e-6
-1.329, 4.149e-6
-1.330, 4.156e-6
-1.331, 4.165e-6
-1.332, 4.170e-6
-1.333, 4.169e-6
-1.334, 4.175e-6
-1.335, 4.177e-6
-1.336, 4.185e-6
-1.337, 4.194e-6
-1.338, 4.195e-6
-1.339, 4.199e-6
-1.340, 4.203e-6
-1.341, 4.211e-6
-1.342, 4.217e-6
-1.343, 4.219e-6
-1.344, 4.222e-6
-1.345, 4.229e-6
-1.346, 4.233e-6
-1.347, 4.241e-6
-1.348, 4.245e-6
-1.349, 4.246e-6
-1.350, 4.254e-6
-1.351, 4.258e-6
-1.352, 4.264e-6
-1.353, 4.268e-6
-1.354, 4.270e-6
-1.355, 4.276e-6
-1.356, 4.284e-6
-1.357, 4.287e-6
-1.358, 4.290e-6
-1.359, 4.297e-6
-1.360, 4.300e-6
-1.361, 4.310e-6
-1.362, 4.312e-6
-1.363, 4.317e-6
-1.364, 4.324e-6
-1.365, 4.330e-6
-1.366, 4.338e-6
-1.367, 4.341e-6
-1.368, 4.342e-6
-1.369, 4.347e-6
-1.370, 4.353e-6
-1.371, 4.367e-6
-1.372, 4.373e-6
-1.373, 4.376e-6
-1.374, 4.379e-6
-1.375, 4.383e-6
-1.376, 4.389e-6
-1.377, 4.394e-6
-1.378, 4.395e-6
-1.379, 4.402e-6
-1.380, 4.411e-6
-1.381, 4.416e-6
-1.382, 4.426e-6
-1.383, 4.431e-6
-1.384, 4.433e-6
-1.385, 4.438e-6
-1.386, 4.444e-6
-1.387, 4.451e-6
-1.388, 4.458e-6
-1.389, 4.463e-6
-1.390, 4.470e-6
-1.391, 4.476e-6
-1.392, 4.481e-6
-1.393, 4.488e-6
-1.394, 4.501e-6
-1.395, 4.520e-6
-1.396, 4.531e-6
-1.397, 4.538e-6
-1.398, 4.545e-6
-1.399, 4.542e-6
-1.400, 4.545e-6
-1.401, 4.554e-6
-1.402, 4.556e-6
-1.403, 4.564e-6
-1.404, 4.573e-6
-1.405, 4.581e-6
-1.406, 4.593e-6
-1.407, 4.598e-6
-1.408, 4.600e-6
-1.409, 4.607e-6
-1.410, 4.609e-6
-1.411, 4.618e-6
-1.412, 4.624e-6
-1.413, 4.628e-6
-1.414, 4.639e-6
-1.415, 4.643e-6
-1.416, 4.653e-6
-1.417, 4.658e-6
-1.418, 4.659e-6
-1.419, 4.668e-6
-1.420, 4.673e-6
-1.421, 4.682e-6
-1.422, 4.690e-6
-1.423, 4.691e-6
-1.424, 4.697e-6
-1.425, 4.707e-6
-1.426, 4.716e-6
-1.427, 4.726e-6
-1.428, 4.732e-6
-1.429, 4.737e-6
-1.430, 4.743e-6
-1.431, 4.752e-6
-1.432, 4.759e-6
-1.433, 4.770e-6
-1.434, 4.801e-6
-1.435, 4.793e-6
-1.436, 4.788e-6
-1.437, 4.792e-6
-1.438, 4.801e-6
-1.439, 4.805e-6
-1.440, 4.815e-6
-1.441, 4.824e-6
-1.442, 4.830e-6
-1.443, 4.838e-6
-1.444, 4.847e-6
-1.445, 4.852e-6
-1.446, 4.863e-6
-1.447, 4.870e-6
-1.448, 4.872e-6
-1.449, 4.880e-6
-1.450, 4.886e-6
-1.451, 4.903e-6
-1.452, 4.918e-6
-1.453, 4.927e-6
-1.454, 4.938e-6
-1.455, 4.943e-6
-1.456, 4.950e-6
-1.457, 4.958e-6
-1.458, 4.964e-6
-1.459, 4.976e-6
-1.460, 4.987e-6
-1.461, 5.003e-6
-1.462, 5.034e-6
-1.463, 5.073e-6
-1.464, 5.069e-6
-1.465, 5.095e-6
-1.466, 5.118e-6
-1.467, 5.126e-6
-1.468, 5.160e-6
-1.469, 5.153e-6
-1.470, 5.155e-6
-1.471, 5.147e-6
-1.472, 5.159e-6
-1.473, 5.168e-6
-1.474, 5.182e-6
-1.475, 5.202e-6
-1.476, 5.221e-6
-1.477, 5.228e-6
-1.478, 5.237e-6
-1.479, 5.256e-6
-1.480, 5.278e-6
-1.481, 5.292e-6
-1.482, 5.324e-6
-1.483, 5.346e-6
-1.484, 5.423e-6
-1.485, 5.433e-6
-1.486, 5.447e-6
-1.487, 5.446e-6
-1.488, 5.466e-6
-1.489, 5.503e-6
-1.490, 5.554e-6
-1.491, 5.520e-6
-1.492, 5.544e-6
-1.493, 5.586e-6
-1.494, 5.628e-6
-1.495, 5.737e-6
-1.496, 6.107e-6
-1.497, 6.182e-6
-1.498, 6.104e-6
-1.499, 5.998e-6
-1.500, 6.053e-6
-1.501, 6.080e-6
-1.502, 6.137e-6
-1.503, 7.612e-6
-1.504, 1.054e-5
-1.505, 1.065e-5
-1.506, 1.198e-5
-1.507, 1.158e-5
-1.508, 1.046e-5
-1.509, 9.511e-6
-1.510, 9.051e-6
-1.511, 9.151e-6
-1.512, 9.068e-6
-1.513, 8.761e-6
-1.514, 8.158e-6
-1.515, 8.191e-6
-1.516, 8.523e-6
-1.517, 7.784e-6
-1.518, 7.702e-6
-1.519, 7.695e-6
-1.520, 7.706e-6
-1.521, 7.731e-6
-1.522, 7.768e-6
-1.523, 7.844e-6
-1.524, 7.995e-6
-1.525, 8.027e-6
-1.526, 8.029e-6
-1.527, 8.104e-6
-1.528, 8.160e-6
-1.529, 8.268e-6
-1.530, 8.350e-6
-1.531, 8.409e-6
-1.532, 8.485e-6
-1.533, 8.551e-6
-1.534, 8.614e-6
-1.535, 8.681e-6
-1.536, 8.782e-6
-1.537, 8.860e-6
-1.538, 8.966e-6
-1.539, 9.049e-6
-1.540, 9.132e-6
-1.541, 9.188e-6
-1.542, 9.300e-6
-1.543, 9.439e-6
-1.544, 9.556e-6
-1.545, 9.656e-6
-1.546, 9.736e-6
-1.547, 9.833e-6
-1.548, 9.931e-6
-1.549, 1.004e-5
-1.550, 1.017e-5
-1.551, 1.029e-5
-1.552, 1.044e-5
-1.553, 1.131e-5
-1.554, 1.096e-5
-1.555, 1.094e-5
-1.556, 1.103e-5
-1.557, 1.117e-5
-1.558, 1.131e-5
-1.559, 1.147e-5
-1.560, 1.163e-5
-1.561, 1.178e-5
-1.562, 1.193e-5
-1.563, 1.206e-5
-1.564, 1.216e-5
-1.565, 1.232e-5
-1.566, 1.254e-5
-1.567, 1.273e-5
-1.568, 1.294e-5
-1.569, 1.316e-5
-1.570, 1.338e-5
-1.571, 1.365e-5
-1.572, 1.385e-5
-1.573, 1.400e-5
-1.574, 1.420e-5
-1.575, 1.442e-5
-1.576, 1.464e-5
-1.577, 1.486e-5
-1.578, 1.515e-5
-1.579, 1.541e-5
-1.580, 1.566e-5
-1.581, 1.592e-5
-1.582, 1.622e-5
-1.583, 1.697e-5
-1.584, 1.718e-5
-1.585, 1.736e-5
-1.586, 1.760e-5
-1.587, 1.790e-5
-1.588, 1.821e-5
-1.589, 1.854e-5
-1.590, 1.885e-5
-1.591, 1.921e-5
-1.592, 1.962e-5
-1.593, 1.999e-5
-1.594, 2.037e-5
-1.595, 2.079e-5
-1.596, 2.123e-5
-1.597, 2.166e-5
-1.598, 2.219e-5
-1.599, 2.268e-5
-1.600, 2.307e-5
-1.601, 2.352e-5
-1.602, 2.387e-5
-1.603, 2.438e-5
-1.604, 2.494e-5
-1.605, 2.544e-5
-1.606, 2.599e-5
-1.607, 2.661e-5
-1.608, 2.741e-5
-1.609, 2.824e-5
-1.610, 2.808e-5
-1.611, 2.595e-5
-1.612, 2.574e-5
-1.613, 2.640e-5
-1.614, 2.704e-5
-1.615, 2.796e-5
-1.616, 2.864e-5
-1.617, 2.932e-5
-1.618, 2.994e-5
-1.619, 3.062e-5
-1.620, 3.138e-5
-1.621, 3.212e-5
-1.622, 3.304e-5
-1.623, 3.382e-5
-1.624, 3.485e-5
-1.625, 3.585e-5
-1.626, 3.661e-5
-1.627, 3.759e-5
-1.628, 3.839e-5
-1.629, 3.906e-5
-1.630, 4.022e-5
-1.631, 4.129e-5
-1.632, 4.267e-5
-1.633, 4.406e-5
-1.634, 4.522e-5
-1.635, 4.639e-5
-1.636, 4.768e-5
-1.637, 4.889e-5
-1.638, 5.022e-5
-1.639, 5.293e-5
-1.640, 5.514e-5
-1.641, 5.636e-5
-1.642, 5.797e-5
-1.643, 5.911e-5
-1.644, 6.068e-5
-1.645, 6.272e-5
-1.646, 6.486e-5
-1.647, 6.811e-5
-1.648, 6.985e-5
-1.649, 7.144e-5
-1.650, 7.296e-5
-1.651, 7.572e-5
-1.652, 7.969e-5
-1.653, 8.237e-5
-1.654, 8.400e-5
-1.655, 8.554e-5
-1.656, 8.813e-5
-1.657, 9.073e-5
-1.658, 9.322e-5
-1.659, 9.595e-5
-1.660, 9.821e-5
-1.661, 1.007e-4
-1.662, 1.027e-4
-1.663, 1.048e-4
-1.664, 1.078e-4
-1.665, 1.097e-4
-1.666, 1.116e-4
-1.667, 1.143e-4
-1.668, 1.167e-4
-1.669, 1.202e-4
-1.670, 1.225e-4
-1.671, 1.244e-4
-1.672, 1.260e-4
-1.673, 1.292e-4
-1.674, 1.307e-4
-1.675, 1.331e-4
-1.676, 1.371e-4
-1.677, 1.421e-4
-1.678, 1.445e-4
-1.679, 1.466e-4
-1.680, 1.502e-4
-1.681, 1.552e-4
-1.682, 1.584e-4
-1.683, 1.617e-4
-1.684, 1.657e-4
-1.685, 1.700e-4
-1.686, 1.729e-4
-1.687, 1.762e-4
-1.688, 1.797e-4
-1.689, 1.821e-4
-1.690, 1.855e-4
-1.691, 1.905e-4
-1.692, 1.947e-4
-1.693, 1.981e-4
-1.694, 2.024e-4
-1.695, 2.062e-4
-1.696, 2.107e-4
-1.697, 2.157e-4
-1.698, 2.201e-4
-1.699, 2.241e-4
