Apr. 6, 2025   09:24:50
Cyclic Voltammetry
File: c:/users/guazh/data/banditlqround7_x0exp994_r5/2025-03-28-exp998\exp998-2025-04-06t09_19_57-h2koh\exp998_cv_50mvs_efin_-1400mv.bin
Data Source:  Experiment
Instrument Model:  CHI760E
Header: CV ran at 50 mVs
Note: 

Init E (V) = -1
High E (V) = -1
Low E (V) = -1.4
Final E (V) = -1
Init P/N = N
Scan Rate (V/s) = 0.05
Segment = 7
Sample Interval (V) = 0.001
Quiet Time (sec) = 60
Sensitivity (A/V) = 0.001
Comp R (ohm) = 1.9

Results:

Channel 1:
Segment 1:

Segment 2:

Segment 3:

Segment 4:

Segment 5:

Segment 6:

Segment 7:

Potential/V, Current/A

-1.000, 7.052e-7
-1.001, 7.397e-7
-1.002, 7.782e-7
-1.003, 7.881e-7
-1.004, 8.266e-7
-1.005, 8.552e-7
-1.006, 8.690e-7
-1.007, 8.838e-7
-1.008, 9.035e-7
-1.009, 9.065e-7
-1.010, 9.242e-7
-1.011, 9.568e-7
-1.012, 9.834e-7
-1.013, 9.746e-7
-1.014, 9.943e-7
-1.015, 9.943e-7
-1.016, 1.020e-6
-1.017, 1.032e-6
-1.018, 1.045e-6
-1.019, 1.052e-6
-1.020, 1.075e-6
-1.021, 1.074e-6
-1.022, 1.089e-6
-1.023, 1.105e-6
-1.024, 1.126e-6
-1.025, 1.137e-6
-1.026, 1.151e-6
-1.027, 1.178e-6
-1.028, 1.194e-6
-1.029, 1.184e-6
-1.030, 1.209e-6
-1.031, 1.214e-6
-1.032, 1.229e-6
-1.033, 1.229e-6
-1.034, 1.239e-6
-1.035, 1.256e-6
-1.036, 1.277e-6
-1.037, 1.299e-6
-1.038, 1.275e-6
-1.039, 1.325e-6
-1.040, 1.308e-6
-1.041, 1.319e-6
-1.042, 1.343e-6
-1.043, 1.356e-6
-1.044, 1.375e-6
-1.045, 1.370e-6
-1.046, 1.393e-6
-1.047, 1.402e-6
-1.048, 1.411e-6
-1.049, 1.404e-6
-1.050, 1.441e-6
-1.051, 1.441e-6
-1.052, 1.461e-6
-1.053, 1.469e-6
-1.054, 1.491e-6
-1.055, 1.494e-6
-1.056, 1.518e-6
-1.057, 1.524e-6
-1.058, 1.521e-6
-1.059, 1.561e-6
-1.060, 1.554e-6
-1.061, 1.569e-6
-1.062, 1.593e-6
-1.063, 1.592e-6
-1.064, 1.595e-6
-1.065, 1.611e-6
-1.066, 1.628e-6
-1.067, 1.636e-6
-1.068, 1.661e-6
-1.069, 1.665e-6
-1.070, 1.676e-6
-1.071, 1.676e-6
-1.072, 1.714e-6
-1.073, 1.706e-6
-1.074, 1.714e-6
-1.075, 1.744e-6
-1.076, 1.747e-6
-1.077, 1.776e-6
-1.078, 1.791e-6
-1.079, 1.782e-6
-1.080, 1.797e-6
-1.081, 1.813e-6
-1.082, 1.839e-6
-1.083, 1.837e-6
-1.084, 1.838e-6
-1.085, 1.861e-6
-1.086, 1.868e-6
-1.087, 1.899e-6
-1.088, 1.895e-6
-1.089, 1.912e-6
-1.090, 1.919e-6
-1.091, 1.950e-6
-1.092, 1.964e-6
-1.093, 1.965e-6
-1.094, 1.967e-6
-1.095, 1.984e-6
-1.096, 2.004e-6
-1.097, 2.049e-6
-1.098, 2.029e-6
-1.099, 2.033e-6
-1.100, 2.062e-6
-1.101, 2.080e-6
-1.102, 2.081e-6
-1.103, 2.087e-6
-1.104, 2.109e-6
-1.105, 2.115e-6
-1.106, 2.113e-6
-1.107, 2.152e-6
-1.108, 2.163e-6
-1.109, 2.182e-6
-1.110, 2.173e-6
-1.111, 2.203e-6
-1.112, 2.209e-6
-1.113, 2.226e-6
-1.114, 2.235e-6
-1.115, 2.261e-6
-1.116, 2.264e-6
-1.117, 2.289e-6
-1.118, 2.288e-6
-1.119, 2.302e-6
-1.120, 2.320e-6
-1.121, 2.333e-6
-1.122, 2.330e-6
-1.123, 2.383e-6
-1.124, 2.369e-6
-1.125, 2.396e-6
-1.126, 2.408e-6
-1.127, 2.411e-6
-1.128, 2.429e-6
-1.129, 2.441e-6
-1.130, 2.452e-6
-1.131, 2.482e-6
-1.132, 2.482e-6
-1.133, 2.500e-6
-1.134, 2.516e-6
-1.135, 2.530e-6
-1.136, 2.536e-6
-1.137, 2.543e-6
-1.138, 2.563e-6
-1.139, 2.562e-6
-1.140, 2.583e-6
-1.141, 2.615e-6
-1.142, 2.618e-6
-1.143, 2.614e-6
-1.144, 2.635e-6
-1.145, 2.640e-6
-1.146, 2.679e-6
-1.147, 2.702e-6
-1.148, 2.694e-6
-1.149, 2.722e-6
-1.150, 2.729e-6
-1.151, 2.714e-6
-1.152, 2.753e-6
-1.153, 2.783e-6
-1.154, 2.768e-6
-1.155, 2.801e-6
-1.156, 2.815e-6
-1.157, 2.838e-6
-1.158, 2.840e-6
-1.159, 2.827e-6
-1.160, 2.864e-6
-1.161, 2.866e-6
-1.162, 2.892e-6
-1.163, 2.912e-6
-1.164, 2.915e-6
-1.165, 2.941e-6
-1.166, 2.947e-6
-1.167, 2.977e-6
-1.168, 2.950e-6
-1.169, 2.999e-6
-1.170, 3.014e-6
-1.171, 3.008e-6
-1.172, 3.050e-6
-1.173, 3.022e-6
-1.174, 3.067e-6
-1.175, 3.052e-6
-1.176, 3.082e-6
-1.177, 3.104e-6
-1.178, 3.117e-6
-1.179, 3.139e-6
-1.180, 3.144e-6
-1.181, 3.152e-6
-1.182, 3.176e-6
-1.183, 3.174e-6
-1.184, 3.229e-6
-1.185, 3.204e-6
-1.186, 3.233e-6
-1.187, 3.235e-6
-1.188, 3.250e-6
-1.189, 3.274e-6
-1.190, 3.288e-6
-1.191, 3.298e-6
-1.192, 3.334e-6
-1.193, 3.335e-6
-1.194, 3.359e-6
-1.195, 3.339e-6
-1.196, 3.354e-6
-1.197, 3.387e-6
-1.198, 3.388e-6
-1.199, 3.426e-6
-1.200, 3.408e-6
-1.201, 3.437e-6
-1.202, 3.477e-6
-1.203, 3.473e-6
-1.204, 3.481e-6
-1.205, 3.486e-6
-1.206, 3.516e-6
-1.207, 3.536e-6
-1.208, 3.540e-6
-1.209, 3.528e-6
-1.210, 3.563e-6
-1.211, 3.586e-6
-1.212, 3.592e-6
-1.213, 3.588e-6
-1.214, 3.618e-6
-1.215, 3.642e-6
-1.216, 3.630e-6
-1.217, 3.675e-6
-1.218, 3.673e-6
-1.219, 3.677e-6
-1.220, 3.687e-6
-1.221, 3.720e-6
-1.222, 3.749e-6
-1.223, 3.762e-6
-1.224, 3.755e-6
-1.225, 3.765e-6
-1.226, 3.793e-6
-1.227, 3.823e-6
-1.228, 3.814e-6
-1.229, 3.830e-6
-1.230, 3.855e-6
-1.231, 3.868e-6
-1.232, 3.892e-6
-1.233, 3.896e-6
-1.234, 3.900e-6
-1.235, 3.926e-6
-1.236, 3.926e-6
-1.237, 3.965e-6
-1.238, 3.961e-6
-1.239, 3.972e-6
-1.240, 3.996e-6
-1.241, 3.984e-6
-1.242, 4.044e-6
-1.243, 4.038e-6
-1.244, 4.041e-6
-1.245, 4.070e-6
-1.246, 4.064e-6
-1.247, 4.094e-6
-1.248, 4.110e-6
-1.249, 4.123e-6
-1.250, 4.145e-6
-1.251, 4.137e-6
-1.252, 4.150e-6
-1.253, 4.168e-6
-1.254, 4.183e-6
-1.255, 4.197e-6
-1.256, 4.209e-6
-1.257, 4.221e-6
-1.258, 4.251e-6
-1.259, 4.275e-6
-1.260, 4.268e-6
-1.261, 4.294e-6
-1.262, 4.319e-6
-1.263, 4.320e-6
-1.264, 4.326e-6
-1.265, 4.324e-6
-1.266, 4.355e-6
-1.267, 4.376e-6
-1.268, 4.378e-6
-1.269, 4.405e-6
-1.270, 4.431e-6
-1.271, 4.421e-6
-1.272, 4.458e-6
-1.273, 4.468e-6
-1.274, 4.464e-6
-1.275, 4.477e-6
-1.276, 4.512e-6
-1.277, 4.536e-6
-1.278, 4.548e-6
-1.279, 4.543e-6
-1.280, 4.581e-6
-1.281, 4.563e-6
-1.282, 4.610e-6
-1.283, 4.629e-6
-1.284, 4.628e-6
-1.285, 4.643e-6
-1.286, 4.669e-6
-1.287, 4.681e-6
-1.288, 4.711e-6
-1.289, 4.709e-6
-1.290, 4.735e-6
-1.291, 4.740e-6
-1.292, 4.794e-6
-1.293, 4.792e-6
-1.294, 4.812e-6
-1.295, 4.820e-6
-1.296, 4.852e-6
-1.297, 4.885e-6
-1.298, 4.895e-6
-1.299, 4.917e-6
-1.300, 4.935e-6
-1.301, 4.935e-6
-1.302, 4.981e-6
-1.303, 4.994e-6
-1.304, 5.003e-6
-1.305, 5.020e-6
-1.306, 5.077e-6
-1.307, 5.070e-6
-1.308, 5.109e-6
-1.309, 5.101e-6
-1.310, 5.140e-6
-1.311, 5.158e-6
-1.312, 5.190e-6
-1.313, 5.212e-6
-1.314, 5.205e-6
-1.315, 5.268e-6
-1.316, 5.268e-6
-1.317, 5.285e-6
-1.318, 5.327e-6
-1.319, 5.355e-6
-1.320, 5.358e-6
-1.321, 5.366e-6
-1.322, 5.420e-6
-1.323, 5.425e-6
-1.324, 5.459e-6
-1.325, 5.487e-6
-1.326, 5.523e-6
-1.327, 5.534e-6
-1.328, 5.579e-6
-1.329, 5.598e-6
-1.330, 5.603e-6
-1.331, 5.650e-6
-1.332, 5.683e-6
-1.333, 5.707e-6
-1.334, 5.727e-6
-1.335, 5.745e-6
-1.336, 5.775e-6
-1.337, 5.827e-6
-1.338, 5.834e-6
-1.339, 5.872e-6
-1.340, 5.909e-6
-1.341, 5.924e-6
-1.342, 5.958e-6
-1.343, 5.992e-6
-1.344, 6.016e-6
-1.345, 6.065e-6
-1.346, 6.076e-6
-1.347, 6.126e-6
-1.348, 6.167e-6
-1.349, 6.202e-6
-1.350, 6.236e-6
-1.351, 6.280e-6
-1.352, 6.310e-6
-1.353, 6.344e-6
-1.354, 6.380e-6
-1.355, 6.434e-6
-1.356, 6.442e-6
-1.357, 6.531e-6
-1.358, 6.572e-6
-1.359, 6.598e-6
-1.360, 6.637e-6
-1.361, 6.680e-6
-1.362, 6.728e-6
-1.363, 6.787e-6
-1.364, 6.839e-6
-1.365, 6.850e-6
-1.366, 6.911e-6
-1.367, 6.975e-6
-1.368, 7.002e-6
-1.369, 7.071e-6
-1.370, 7.120e-6
-1.371, 7.170e-6
-1.372, 7.239e-6
-1.373, 7.301e-6
-1.374, 7.348e-6
-1.375, 7.400e-6
-1.376, 7.467e-6
-1.377, 7.518e-6
-1.378, 7.584e-6
-1.379, 7.647e-6
-1.380, 7.710e-6
-1.381, 7.762e-6
-1.382, 7.844e-6
-1.383, 7.934e-6
-1.384, 7.991e-6
-1.385, 8.062e-6
-1.386, 8.131e-6
-1.387, 8.202e-6
-1.388, 8.294e-6
-1.389, 8.365e-6
-1.390, 8.448e-6
-1.391, 8.502e-6
-1.392, 8.604e-6
-1.393, 8.668e-6
-1.394, 8.758e-6
-1.395, 8.847e-6
-1.396, 8.934e-6
-1.397, 9.040e-6
-1.398, 9.112e-6
-1.399, 9.222e-6
-1.400, 8.988e-6
-1.399, 8.764e-6
-1.398, 8.676e-6
-1.397, 8.552e-6
-1.396, 8.477e-6
-1.395, 8.406e-6
-1.394, 8.311e-6
-1.393, 8.258e-6
-1.392, 8.206e-6
-1.391, 8.144e-6
-1.390, 8.075e-6
-1.389, 8.005e-6
-1.388, 7.982e-6
-1.387, 7.941e-6
-1.386, 7.897e-6
-1.385, 7.850e-6
-1.384, 7.791e-6
-1.383, 7.726e-6
-1.382, 7.707e-6
-1.381, 7.658e-6
-1.380, 7.620e-6
-1.379, 7.584e-6
-1.378, 7.529e-6
-1.377, 7.493e-6
-1.376, 7.464e-6
-1.375, 7.400e-6
-1.374, 7.372e-6
-1.373, 7.331e-6
-1.372, 7.304e-6
-1.371, 7.254e-6
-1.370, 7.233e-6
-1.369, 7.168e-6
-1.368, 7.130e-6
-1.367, 7.123e-6
-1.366, 7.040e-6
-1.365, 7.012e-6
-1.364, 6.971e-6
-1.363, 6.932e-6
-1.362, 6.925e-6
-1.361, 6.868e-6
-1.360, 6.825e-6
-1.359, 6.783e-6
-1.358, 6.751e-6
-1.357, 6.705e-6
-1.356, 6.671e-6
-1.355, 6.618e-6
-1.354, 6.585e-6
-1.353, 6.526e-6
-1.352, 6.529e-6
-1.351, 6.461e-6
-1.350, 6.412e-6
-1.349, 6.386e-6
-1.348, 6.350e-6
-1.347, 6.290e-6
-1.346, 6.255e-6
-1.345, 6.214e-6
-1.344, 6.159e-6
-1.343, 6.123e-6
-1.342, 6.091e-6
-1.341, 6.033e-6
-1.340, 6.000e-6
-1.339, 5.947e-6
-1.338, 5.928e-6
-1.337, 5.880e-6
-1.336, 5.828e-6
-1.335, 5.793e-6
-1.334, 5.735e-6
-1.333, 5.715e-6
-1.332, 5.667e-6
-1.331, 5.589e-6
-1.330, 5.535e-6
-1.329, 5.487e-6
-1.328, 5.462e-6
-1.327, 5.431e-6
-1.326, 5.379e-6
-1.325, 5.321e-6
-1.324, 5.278e-6
-1.323, 5.243e-6
-1.322, 5.208e-6
-1.321, 5.135e-6
-1.320, 5.097e-6
-1.319, 5.064e-6
-1.318, 5.020e-6
-1.317, 4.961e-6
-1.316, 4.926e-6
-1.315, 4.874e-6
-1.314, 4.828e-6
-1.313, 4.803e-6
-1.312, 4.749e-6
-1.311, 4.693e-6
-1.310, 4.671e-6
-1.309, 4.628e-6
-1.308, 4.595e-6
-1.307, 4.515e-6
-1.306, 4.493e-6
-1.305, 4.418e-6
-1.304, 4.394e-6
-1.303, 4.359e-6
-1.302, 4.325e-6
-1.301, 4.253e-6
-1.300, 4.217e-6
-1.299, 4.174e-6
-1.298, 4.146e-6
-1.297, 4.093e-6
-1.296, 4.062e-6
-1.295, 4.002e-6
-1.294, 3.963e-6
-1.293, 3.923e-6
-1.292, 3.906e-6
-1.291, 3.857e-6
-1.290, 3.801e-6
-1.289, 3.760e-6
-1.288, 3.713e-6
-1.287, 3.716e-6
-1.286, 3.645e-6
-1.285, 3.612e-6
-1.284, 3.552e-6
-1.283, 3.516e-6
-1.282, 3.503e-6
-1.281, 3.437e-6
-1.280, 3.388e-6
-1.279, 3.355e-6
-1.278, 3.299e-6
-1.277, 3.280e-6
-1.276, 3.245e-6
-1.275, 3.212e-6
-1.274, 3.177e-6
-1.273, 3.124e-6
-1.272, 3.103e-6
-1.271, 3.056e-6
-1.270, 3.014e-6
-1.269, 2.983e-6
-1.268, 2.910e-6
-1.267, 2.913e-6
-1.266, 2.874e-6
-1.265, 2.813e-6
-1.264, 2.791e-6
-1.263, 2.763e-6
-1.262, 2.739e-6
-1.261, 2.694e-6
-1.260, 2.662e-6
-1.259, 2.631e-6
-1.258, 2.589e-6
-1.257, 2.576e-6
-1.256, 2.513e-6
-1.255, 2.512e-6
-1.254, 2.450e-6
-1.253, 2.435e-6
-1.252, 2.387e-6
-1.251, 2.363e-6
-1.250, 2.335e-6
-1.249, 2.301e-6
-1.248, 2.258e-6
-1.247, 2.254e-6
-1.246, 2.216e-6
-1.245, 2.169e-6
-1.244, 2.147e-6
-1.243, 2.122e-6
-1.242, 2.095e-6
-1.241, 2.068e-6
-1.240, 2.031e-6
-1.239, 1.986e-6
-1.238, 1.971e-6
-1.237, 1.951e-6
-1.236, 1.908e-6
-1.235, 1.882e-6
-1.234, 1.874e-6
-1.233, 1.856e-6
-1.232, 1.807e-6
-1.231, 1.800e-6
-1.230, 1.762e-6
-1.229, 1.720e-6
-1.228, 1.677e-6
-1.227, 1.674e-6
-1.226, 1.636e-6
-1.225, 1.619e-6
-1.224, 1.604e-6
-1.223, 1.565e-6
-1.222, 1.552e-6
-1.221, 1.537e-6
-1.220, 1.499e-6
-1.219, 1.464e-6
-1.218, 1.455e-6
-1.217, 1.451e-6
-1.216, 1.415e-6
-1.215, 1.384e-6
-1.214, 1.357e-6
-1.213, 1.343e-6
-1.212, 1.340e-6
-1.211, 1.307e-6
-1.210, 1.273e-6
-1.209, 1.241e-6
-1.208, 1.238e-6
-1.207, 1.254e-6
-1.206, 1.202e-6
-1.205, 1.193e-6
-1.204, 1.140e-6
-1.203, 1.145e-6
-1.202, 1.111e-6
-1.201, 1.094e-6
-1.200, 1.090e-6
-1.199, 1.067e-6
-1.198, 1.047e-6
-1.197, 1.033e-6
-1.196, 9.943e-7
-1.195, 9.716e-7
-1.194, 9.903e-7
-1.193, 9.686e-7
-1.192, 9.489e-7
-1.191, 9.134e-7
-1.190, 9.144e-7
-1.189, 8.868e-7
-1.188, 8.739e-7
-1.187, 8.611e-7
-1.186, 8.433e-7
-1.185, 8.295e-7
-1.184, 8.108e-7
-1.183, 7.772e-7
-1.182, 8.029e-7
-1.181, 7.654e-7
-1.180, 7.575e-7
-1.179, 7.289e-7
-1.178, 7.190e-7
-1.177, 7.131e-7
-1.176, 6.904e-7
-1.175, 6.835e-7
-1.174, 6.569e-7
-1.173, 6.618e-7
-1.172, 6.480e-7
-1.171, 6.263e-7
-1.170, 5.967e-7
-1.169, 5.868e-7
-1.168, 5.671e-7
-1.167, 5.730e-7
-1.166, 5.434e-7
-1.165, 5.424e-7
-1.164, 5.059e-7
-1.163, 5.059e-7
-1.162, 5.079e-7
-1.161, 4.803e-7
-1.160, 4.911e-7
-1.159, 4.507e-7
-1.158, 4.201e-7
-1.157, 4.270e-7
-1.156, 4.161e-7
-1.155, 3.954e-7
-1.154, 3.727e-7
-1.153, 3.737e-7
-1.152, 3.787e-7
-1.151, 3.500e-7
-1.150, 3.500e-7
-1.149, 3.333e-7
-1.148, 3.126e-7
-1.147, 3.027e-7
-1.146, 2.997e-7
-1.145, 2.869e-7
-1.144, 2.642e-7
-1.143, 2.484e-7
-1.142, 2.494e-7
-1.141, 2.366e-7
-1.140, 2.178e-7
-1.139, 1.902e-7
-1.138, 2.011e-7
-1.137, 1.823e-7
-1.136, 1.725e-7
-1.135, 1.498e-7
-1.134, 1.547e-7
-1.133, 1.379e-7
-1.132, 1.192e-7
-1.131, 1.113e-7
-1.130, 9.550e-8
-1.129, 8.761e-8
-1.128, 7.084e-8
-1.127, 7.577e-8
-1.126, 5.407e-8
-1.125, 2.841e-8
-1.124, 1.263e-8
-1.123, 1.362e-8
-1.122, 1.460e-8
-1.121, -9.077e-9
-1.120, -2.980e-8
-1.119, -5.249e-8
-1.118, -6.729e-8
-1.117, -5.742e-8
-1.116, -7.617e-8
-1.115, -1.008e-7
-1.114, -1.087e-7
-1.113, -1.304e-7
-1.112, -1.344e-7
-1.111, -1.492e-7
-1.110, -1.729e-7
-1.109, -1.679e-7
-1.108, -1.788e-7
-1.107, -1.995e-7
-1.106, -2.172e-7
-1.105, -2.212e-7
-1.104, -2.380e-7
-1.103, -2.399e-7
-1.102, -2.557e-7
-1.101, -2.814e-7
-1.100, -3.041e-7
-1.099, -3.199e-7
-1.098, -3.208e-7
-1.097, -3.445e-7
-1.096, -3.435e-7
-1.095, -3.731e-7
-1.094, -3.761e-7
-1.093, -4.086e-7
-1.092, -3.948e-7
-1.091, -4.264e-7
-1.090, -4.511e-7
-1.089, -4.600e-7
-1.088, -4.787e-7
-1.087, -4.807e-7
-1.086, -5.053e-7
-1.085, -5.142e-7
-1.084, -5.409e-7
-1.083, -5.655e-7
-1.082, -5.754e-7
-1.081, -5.892e-7
-1.080, -5.991e-7
-1.079, -6.198e-7
-1.078, -6.375e-7
-1.077, -6.612e-7
-1.076, -6.750e-7
-1.075, -6.957e-7
-1.074, -7.076e-7
-1.073, -7.431e-7
-1.072, -7.589e-7
-1.071, -7.569e-7
-1.070, -7.934e-7
-1.069, -8.122e-7
-1.068, -8.319e-7
-1.067, -8.467e-7
-1.066, -8.595e-7
-1.065, -8.941e-7
-1.064, -8.901e-7
-1.063, -9.187e-7
-1.062, -9.394e-7
-1.061, -9.759e-7
-1.060, -9.848e-7
-1.059, -9.967e-7
-1.058, -1.034e-6
-1.057, -1.036e-6
-1.056, -1.065e-6
-1.055, -1.083e-6
-1.054, -1.073e-6
-1.053, -1.132e-6
-1.052, -1.137e-6
-1.051, -1.157e-6
-1.050, -1.183e-6
-1.049, -1.207e-6
-1.048, -1.244e-6
-1.047, -1.239e-6
-1.046, -1.260e-6
-1.045, -1.291e-6
-1.044, -1.313e-6
-1.043, -1.351e-6
-1.042, -1.351e-6
-1.041, -1.394e-6
-1.040, -1.398e-6
-1.039, -1.434e-6
-1.038, -1.460e-6
-1.037, -1.460e-6
-1.036, -1.475e-6
-1.035, -1.507e-6
-1.034, -1.521e-6
-1.033, -1.561e-6
-1.032, -1.564e-6
-1.031, -1.591e-6
-1.030, -1.627e-6
-1.029, -1.635e-6
-1.028, -1.663e-6
-1.027, -1.679e-6
-1.026, -1.718e-6
-1.025, -1.738e-6
-1.024, -1.754e-6
-1.023, -1.786e-6
-1.022, -1.810e-6
-1.021, -1.823e-6
-1.020, -1.842e-6
-1.019, -1.877e-6
-1.018, -1.898e-6
-1.017, -1.930e-6
-1.016, -1.925e-6
-1.015, -1.973e-6
-1.014, -1.966e-6
-1.013, -2.019e-6
-1.012, -2.005e-6
-1.011, -2.068e-6
-1.010, -2.085e-6
-1.009, -2.100e-6
-1.008, -2.106e-6
-1.007, -2.140e-6
-1.006, -2.151e-6
-1.005, -2.180e-6
-1.004, -2.208e-6
-1.003, -2.225e-6
-1.002, -2.244e-6
-1.001, -2.267e-6
-1.000, -2.075e-6
-1.001, -1.860e-6
-1.002, -1.703e-6
-1.003, -1.567e-6
-1.004, -1.444e-6
-1.005, -1.336e-6
-1.006, -1.224e-6
-1.007, -1.146e-6
-1.008, -1.032e-6
-1.009, -9.493e-7
-1.010, -8.783e-7
-1.011, -7.855e-7
-1.012, -7.155e-7
-1.013, -6.425e-7
-1.014, -5.655e-7
-1.015, -4.836e-7
-1.016, -4.215e-7
-1.017, -3.741e-7
-1.018, -3.031e-7
-1.019, -2.538e-7
-1.020, -1.926e-7
-1.021, -1.640e-7
-1.022, -1.097e-7
-1.023, -5.249e-8
-1.024, 2.052e-8
-1.025, 5.407e-8
-1.026, 1.123e-7
-1.027, 1.626e-7
-1.028, 1.902e-7
-1.029, 2.346e-7
-1.030, 2.721e-7
-1.031, 3.185e-7
-1.032, 3.540e-7
-1.033, 3.826e-7
-1.034, 4.290e-7
-1.035, 4.576e-7
-1.036, 4.882e-7
-1.037, 5.118e-7
-1.038, 5.533e-7
-1.039, 5.868e-7
-1.040, 6.214e-7
-1.041, 6.529e-7
-1.042, 6.776e-7
-1.043, 7.082e-7
-1.044, 7.467e-7
-1.045, 7.634e-7
-1.046, 7.861e-7
-1.047, 8.098e-7
-1.048, 8.256e-7
-1.049, 8.897e-7
-1.050, 8.937e-7
-1.051, 9.085e-7
-1.052, 9.450e-7
-1.053, 9.430e-7
-1.054, 1.003e-6
-1.055, 1.005e-6
-1.056, 1.031e-6
-1.057, 1.049e-6
-1.058, 1.072e-6
-1.059, 1.107e-6
-1.060, 1.105e-6
-1.061, 1.104e-6
-1.062, 1.134e-6
-1.063, 1.167e-6
-1.064, 1.201e-6
-1.065, 1.186e-6
-1.066, 1.229e-6
-1.067, 1.219e-6
-1.068, 1.256e-6
-1.069, 1.273e-6
-1.070, 1.292e-6
-1.071, 1.282e-6
-1.072, 1.310e-6
-1.073, 1.338e-6
-1.074, 1.360e-6
-1.075, 1.367e-6
-1.076, 1.384e-6
-1.077, 1.399e-6
-1.078, 1.422e-6
-1.079, 1.442e-6
-1.080, 1.441e-6
-1.081, 1.434e-6
-1.082, 1.455e-6
-1.083, 1.462e-6
-1.084, 1.498e-6
-1.085, 1.496e-6
-1.086, 1.508e-6
-1.087, 1.522e-6
-1.088, 1.545e-6
-1.089, 1.549e-6
-1.090, 1.572e-6
-1.091, 1.564e-6
-1.092, 1.580e-6
-1.093, 1.601e-6
-1.094, 1.609e-6
-1.095, 1.623e-6
-1.096, 1.621e-6
-1.097, 1.641e-6
-1.098, 1.648e-6
-1.099, 1.680e-6
-1.100, 1.678e-6
-1.101, 1.696e-6
-1.102, 1.691e-6
-1.103, 1.711e-6
-1.104, 1.724e-6
-1.105, 1.724e-6
-1.106, 1.752e-6
-1.107, 1.759e-6
-1.108, 1.759e-6
-1.109, 1.777e-6
-1.110, 1.785e-6
-1.111, 1.789e-6
-1.112, 1.801e-6
-1.113, 1.839e-6
-1.114, 1.843e-6
-1.115, 1.854e-6
-1.116, 1.843e-6
-1.117, 1.855e-6
-1.118, 1.853e-6
-1.119, 1.893e-6
-1.120, 1.893e-6
-1.121, 1.905e-6
-1.122, 1.912e-6
-1.123, 1.940e-6
-1.124, 1.936e-6
-1.125, 1.946e-6
-1.126, 1.962e-6
-1.127, 1.978e-6
-1.128, 1.994e-6
-1.129, 1.987e-6
-1.130, 2.020e-6
-1.131, 2.013e-6
-1.132, 2.017e-6
-1.133, 2.031e-6
-1.134, 2.039e-6
-1.135, 2.055e-6
-1.136, 2.073e-6
-1.137, 2.075e-6
-1.138, 2.100e-6
-1.139, 2.103e-6
-1.140, 2.121e-6
-1.141, 2.122e-6
-1.142, 2.117e-6
-1.143, 2.142e-6
-1.144, 2.154e-6
-1.145, 2.162e-6
-1.146, 2.180e-6
-1.147, 2.211e-6
-1.148, 2.193e-6
-1.149, 2.214e-6
-1.150, 2.225e-6
-1.151, 2.230e-6
-1.152, 2.257e-6
-1.153, 2.269e-6
-1.154, 2.275e-6
-1.155, 2.290e-6
-1.156, 2.296e-6
-1.157, 2.320e-6
-1.158, 2.304e-6
-1.159, 2.332e-6
-1.160, 2.338e-6
-1.161, 2.356e-6
-1.162, 2.355e-6
-1.163, 2.386e-6
-1.164, 2.408e-6
-1.165, 2.423e-6
-1.166, 2.432e-6
-1.167, 2.438e-6
-1.168, 2.470e-6
-1.169, 2.472e-6
-1.170, 2.488e-6
-1.171, 2.519e-6
-1.172, 2.506e-6
-1.173, 2.535e-6
-1.174, 2.541e-6
-1.175, 2.523e-6
-1.176, 2.566e-6
-1.177, 2.593e-6
-1.178, 2.599e-6
-1.179, 2.635e-6
-1.180, 2.632e-6
-1.181, 2.647e-6
-1.182, 2.669e-6
-1.183, 2.695e-6
-1.184, 2.726e-6
-1.185, 2.726e-6
-1.186, 2.737e-6
-1.187, 2.753e-6
-1.188, 2.759e-6
-1.189, 2.788e-6
-1.190, 2.798e-6
-1.191, 2.832e-6
-1.192, 2.835e-6
-1.193, 2.881e-6
-1.194, 2.898e-6
-1.195, 2.895e-6
-1.196, 2.919e-6
-1.197, 2.941e-6
-1.198, 2.947e-6
-1.199, 2.984e-6
-1.200, 2.990e-6
-1.201, 3.004e-6
-1.202, 3.047e-6
-1.203, 3.059e-6
-1.204, 3.095e-6
-1.205, 3.118e-6
-1.206, 3.131e-6
-1.207, 3.151e-6
-1.208, 3.164e-6
-1.209, 3.210e-6
-1.210, 3.228e-6
-1.211, 3.240e-6
-1.212, 3.271e-6
-1.213, 3.273e-6
-1.214, 3.311e-6
-1.215, 3.350e-6
-1.216, 3.358e-6
-1.217, 3.390e-6
-1.218, 3.430e-6
-1.219, 3.450e-6
-1.220, 3.479e-6
-1.221, 3.495e-6
-1.222, 3.507e-6
-1.223, 3.547e-6
-1.224, 3.589e-6
-1.225, 3.612e-6
-1.226, 3.637e-6
-1.227, 3.651e-6
-1.228, 3.697e-6
-1.229, 3.752e-6
-1.230, 3.782e-6
-1.231, 3.787e-6
-1.232, 3.818e-6
-1.233, 3.868e-6
-1.234, 3.883e-6
-1.235, 3.925e-6
-1.236, 3.955e-6
-1.237, 3.969e-6
-1.238, 4.024e-6
-1.239, 4.058e-6
-1.240, 4.105e-6
-1.241, 4.135e-6
-1.242, 4.176e-6
-1.243, 4.183e-6
-1.244, 4.245e-6
-1.245, 4.263e-6
-1.246, 4.309e-6
-1.247, 4.323e-6
-1.248, 4.367e-6
-1.249, 4.425e-6
-1.250, 4.444e-6
-1.251, 4.484e-6
-1.252, 4.530e-6
-1.253, 4.533e-6
-1.254, 4.608e-6
-1.255, 4.640e-6
-1.256, 4.673e-6
-1.257, 4.712e-6
-1.258, 4.740e-6
-1.259, 4.792e-6
-1.260, 4.847e-6
-1.261, 4.858e-6
-1.262, 4.895e-6
-1.263, 4.945e-6
-1.264, 5.004e-6
-1.265, 5.028e-6
-1.266, 5.062e-6
-1.267, 5.087e-6
-1.268, 5.145e-6
-1.269, 5.187e-6
-1.270, 5.219e-6
-1.271, 5.246e-6
-1.272, 5.293e-6
-1.273, 5.323e-6
-1.274, 5.393e-6
-1.275, 5.412e-6
-1.276, 5.458e-6
-1.277, 5.495e-6
-1.278, 5.540e-6
-1.279, 5.572e-6
-1.280, 5.616e-6
-1.281, 5.654e-6
-1.282, 5.709e-6
-1.283, 5.738e-6
-1.284, 5.780e-6
-1.285, 5.816e-6
-1.286, 5.885e-6
-1.287, 5.888e-6
-1.288, 5.945e-6
-1.289, 5.991e-6
-1.290, 6.026e-6
-1.291, 6.060e-6
-1.292, 6.106e-6
-1.293, 6.134e-6
-1.294, 6.199e-6
-1.295, 6.240e-6
-1.296, 6.282e-6
-1.297, 6.303e-6
-1.298, 6.354e-6
-1.299, 6.406e-6
-1.300, 6.450e-6
-1.301, 6.468e-6
-1.302, 6.525e-6
-1.303, 6.551e-6
-1.304, 6.622e-6
-1.305, 6.656e-6
-1.306, 6.678e-6
-1.307, 6.732e-6
-1.308, 6.789e-6
-1.309, 6.810e-6
-1.310, 6.878e-6
-1.311, 6.899e-6
-1.312, 6.960e-6
-1.313, 6.991e-6
-1.314, 7.047e-6
-1.315, 7.109e-6
-1.316, 7.107e-6
-1.317, 7.166e-6
-1.318, 7.204e-6
-1.319, 7.264e-6
-1.320, 7.318e-6
-1.321, 7.353e-6
-1.322, 7.404e-6
-1.323, 7.457e-6
-1.324, 7.470e-6
-1.325, 7.532e-6
-1.326, 7.566e-6
-1.327, 7.622e-6
-1.328, 7.663e-6
-1.329, 7.709e-6
-1.330, 7.750e-6
-1.331, 7.792e-6
-1.332, 7.839e-6
-1.333, 7.888e-6
-1.334, 7.940e-6
-1.335, 7.980e-6
-1.336, 8.036e-6
-1.337, 8.060e-6
-1.338, 8.146e-6
-1.339, 8.171e-6
-1.340, 8.225e-6
-1.341, 8.270e-6
-1.342, 8.315e-6
-1.343, 8.353e-6
-1.344, 8.416e-6
-1.345, 8.472e-6
-1.346, 8.506e-6
-1.347, 8.562e-6
-1.348, 8.624e-6
-1.349, 8.631e-6
-1.350, 8.721e-6
-1.351, 8.753e-6
-1.352, 8.799e-6
-1.353, 8.848e-6
-1.354, 8.900e-6
-1.355, 8.935e-6
-1.356, 8.999e-6
-1.357, 9.047e-6
-1.358, 9.097e-6
-1.359, 9.148e-6
-1.360, 9.200e-6
-1.361, 9.240e-6
-1.362, 9.307e-6
-1.363, 9.330e-6
-1.364, 9.407e-6
-1.365, 9.443e-6
-1.366, 9.467e-6
-1.367, 9.523e-6
-1.368, 9.589e-6
-1.369, 9.641e-6
-1.370, 9.715e-6
-1.371, 9.742e-6
-1.372, 9.810e-6
-1.373, 9.830e-6
-1.374, 9.888e-6
-1.375, 9.970e-6
-1.376, 1.002e-5
-1.377, 1.006e-5
-1.378, 1.011e-5
-1.379, 1.017e-5
-1.380, 1.024e-5
-1.381, 1.028e-5
-1.382, 1.034e-5
-1.383, 1.040e-5
-1.384, 1.043e-5
-1.385, 1.051e-5
-1.386, 1.058e-5
-1.387, 1.062e-5
-1.388, 1.066e-5
-1.389, 1.075e-5
-1.390, 1.079e-5
-1.391, 1.085e-5
-1.392, 1.089e-5
-1.393, 1.095e-5
-1.394, 1.104e-5
-1.395, 1.110e-5
-1.396, 1.116e-5
-1.397, 1.120e-5
-1.398, 1.129e-5
-1.399, 1.135e-5
-1.400, 1.108e-5
-1.399, 1.078e-5
-1.398, 1.060e-5
-1.397, 1.044e-5
-1.396, 1.030e-5
-1.395, 1.013e-5
-1.394, 1.003e-5
-1.393, 9.886e-6
-1.392, 9.776e-6
-1.391, 9.677e-6
-1.390, 9.549e-6
-1.389, 9.437e-6
-1.388, 9.340e-6
-1.387, 9.239e-6
-1.386, 9.151e-6
-1.385, 9.036e-6
-1.384, 8.934e-6
-1.383, 8.840e-6
-1.382, 8.739e-6
-1.381, 8.655e-6
-1.380, 8.566e-6
-1.379, 8.470e-6
-1.378, 8.386e-6
-1.377, 8.293e-6
-1.376, 8.208e-6
-1.375, 8.141e-6
-1.374, 8.050e-6
-1.373, 7.970e-6
-1.372, 7.858e-6
-1.371, 7.792e-6
-1.370, 7.728e-6
-1.369, 7.643e-6
-1.368, 7.549e-6
-1.367, 7.489e-6
-1.366, 7.410e-6
-1.365, 7.350e-6
-1.364, 7.258e-6
-1.363, 7.178e-6
-1.362, 7.142e-6
-1.361, 7.028e-6
-1.360, 6.980e-6
-1.359, 6.909e-6
-1.358, 6.827e-6
-1.357, 6.752e-6
-1.356, 6.687e-6
-1.355, 6.637e-6
-1.354, 6.542e-6
-1.353, 6.479e-6
-1.352, 6.419e-6
-1.351, 6.369e-6
-1.350, 6.285e-6
-1.349, 6.233e-6
-1.348, 6.155e-6
-1.347, 6.093e-6
-1.346, 6.021e-6
-1.345, 5.991e-6
-1.344, 5.902e-6
-1.343, 5.851e-6
-1.342, 5.809e-6
-1.341, 5.729e-6
-1.340, 5.684e-6
-1.339, 5.613e-6
-1.338, 5.524e-6
-1.337, 5.471e-6
-1.336, 5.430e-6
-1.335, 5.377e-6
-1.334, 5.301e-6
-1.333, 5.262e-6
-1.332, 5.203e-6
-1.331, 5.154e-6
-1.330, 5.102e-6
-1.329, 5.036e-6
-1.328, 4.980e-6
-1.327, 4.909e-6
-1.326, 4.878e-6
-1.325, 4.834e-6
-1.324, 4.761e-6
-1.323, 4.706e-6
-1.322, 4.659e-6
-1.321, 4.609e-6
-1.320, 4.567e-6
-1.319, 4.510e-6
-1.318, 4.472e-6
-1.317, 4.411e-6
-1.316, 4.358e-6
-1.315, 4.337e-6
-1.314, 4.254e-6
-1.313, 4.223e-6
-1.312, 4.150e-6
-1.311, 4.127e-6
-1.310, 4.070e-6
-1.309, 4.037e-6
-1.308, 3.977e-6
-1.307, 3.933e-6
-1.306, 3.878e-6
-1.305, 3.840e-6
-1.304, 3.806e-6
-1.303, 3.755e-6
-1.302, 3.716e-6
-1.301, 3.642e-6
-1.300, 3.635e-6
-1.299, 3.563e-6
-1.298, 3.523e-6
-1.297, 3.500e-6
-1.296, 3.452e-6
-1.295, 3.416e-6
-1.294, 3.350e-6
-1.293, 3.308e-6
-1.292, 3.270e-6
-1.291, 3.251e-6
-1.290, 3.197e-6
-1.289, 3.172e-6
-1.288, 3.118e-6
-1.287, 3.079e-6
-1.286, 3.040e-6
-1.285, 3.002e-6
-1.284, 2.960e-6
-1.283, 2.927e-6
-1.282, 2.888e-6
-1.281, 2.840e-6
-1.280, 2.824e-6
-1.279, 2.781e-6
-1.278, 2.724e-6
-1.277, 2.708e-6
-1.276, 2.669e-6
-1.275, 2.639e-6
-1.274, 2.594e-6
-1.273, 2.534e-6
-1.272, 2.509e-6
-1.271, 2.494e-6
-1.270, 2.467e-6
-1.269, 2.426e-6
-1.268, 2.391e-6
-1.267, 2.336e-6
-1.266, 2.304e-6
-1.265, 2.278e-6
-1.264, 2.250e-6
-1.263, 2.221e-6
-1.262, 2.177e-6
-1.261, 2.156e-6
-1.260, 2.112e-6
-1.259, 2.076e-6
-1.258, 2.058e-6
-1.257, 2.005e-6
-1.256, 1.974e-6
-1.255, 1.970e-6
-1.254, 1.929e-6
-1.253, 1.899e-6
-1.252, 1.877e-6
-1.251, 1.862e-6
-1.250, 1.834e-6
-1.249, 1.792e-6
-1.248, 1.750e-6
-1.247, 1.726e-6
-1.246, 1.701e-6
-1.245, 1.685e-6
-1.244, 1.647e-6
-1.243, 1.617e-6
-1.242, 1.590e-6
-1.241, 1.532e-6
-1.240, 1.560e-6
-1.239, 1.509e-6
-1.238, 1.481e-6
-1.237, 1.453e-6
-1.236, 1.425e-6
-1.235, 1.408e-6
-1.234, 1.373e-6
-1.233, 1.349e-6
-1.232, 1.313e-6
-1.231, 1.285e-6
-1.230, 1.270e-6
-1.229, 1.234e-6
-1.228, 1.205e-6
-1.227, 1.192e-6
-1.226, 1.168e-6
-1.225, 1.158e-6
-1.224, 1.118e-6
-1.223, 1.096e-6
-1.222, 1.092e-6
-1.221, 1.057e-6
-1.220, 1.032e-6
-1.219, 1.031e-6
-1.218, 1.002e-6
-1.217, 9.627e-7
-1.216, 9.440e-7
-1.215, 9.450e-7
-1.214, 9.085e-7
-1.213, 8.828e-7
-1.212, 8.424e-7
-1.211, 8.463e-7
-1.210, 8.414e-7
-1.209, 8.187e-7
-1.208, 7.920e-7
-1.207, 7.644e-7
-1.206, 7.713e-7
-1.205, 7.388e-7
-1.204, 7.230e-7
-1.203, 6.993e-7
-1.202, 6.806e-7
-1.201, 6.638e-7
-1.200, 6.450e-7
-1.199, 6.352e-7
-1.198, 5.908e-7
-1.197, 5.918e-7
-1.196, 5.918e-7
-1.195, 5.602e-7
-1.194, 5.444e-7
-1.193, 5.010e-7
-1.192, 5.040e-7
-1.191, 4.763e-7
-1.190, 4.783e-7
-1.189, 4.714e-7
-1.188, 4.526e-7
-1.187, 4.132e-7
-1.186, 4.023e-7
-1.185, 3.954e-7
-1.184, 3.757e-7
-1.183, 3.648e-7
-1.182, 3.560e-7
-1.181, 3.303e-7
-1.180, 3.224e-7
-1.179, 2.978e-7
-1.178, 2.830e-7
-1.177, 2.534e-7
-1.176, 2.652e-7
-1.175, 2.415e-7
-1.174, 2.415e-7
-1.173, 2.060e-7
-1.172, 2.040e-7
-1.171, 1.853e-7
-1.170, 1.873e-7
-1.169, 1.586e-7
-1.168, 1.409e-7
-1.167, 1.261e-7
-1.166, 1.192e-7
-1.165, 1.162e-7
-1.164, 9.353e-8
-1.163, 6.886e-8
-1.162, 6.788e-8
-1.161, 4.321e-8
-1.160, 5.308e-8
-1.159, 4.124e-8
-1.158, -5.130e-9
-1.157, 5.722e-9
-1.156, -2.289e-8
-1.155, -3.275e-8
-1.154, -4.361e-8
-1.153, -6.235e-8
-1.152, -7.222e-8
-1.151, -8.603e-8
-1.150, -9.491e-8
-1.149, -1.146e-7
-1.148, -1.117e-7
-1.147, -1.551e-7
-1.146, -1.492e-7
-1.145, -1.551e-7
-1.144, -1.768e-7
-1.143, -1.867e-7
-1.142, -2.094e-7
-1.141, -2.232e-7
-1.140, -2.242e-7
-1.139, -2.597e-7
-1.138, -2.597e-7
-1.137, -2.794e-7
-1.136, -2.883e-7
-1.135, -3.060e-7
-1.134, -3.337e-7
-1.133, -3.425e-7
-1.132, -3.682e-7
-1.131, -3.712e-7
-1.130, -3.603e-7
-1.129, -4.017e-7
-1.128, -4.096e-7
-1.127, -4.452e-7
-1.126, -4.540e-7
-1.125, -4.590e-7
-1.124, -4.728e-7
-1.123, -4.856e-7
-1.122, -5.122e-7
-1.121, -5.359e-7
-1.120, -5.369e-7
-1.119, -5.685e-7
-1.118, -5.833e-7
-1.117, -5.823e-7
-1.116, -6.109e-7
-1.115, -6.070e-7
-1.114, -6.464e-7
-1.113, -6.642e-7
-1.112, -6.938e-7
-1.111, -6.957e-7
-1.110, -6.938e-7
-1.109, -7.184e-7
-1.108, -7.618e-7
-1.107, -7.727e-7
-1.106, -7.905e-7
-1.105, -7.984e-7
-1.104, -8.191e-7
-1.103, -8.526e-7
-1.102, -8.753e-7
-1.101, -9.029e-7
-1.100, -9.118e-7
-1.099, -9.345e-7
-1.098, -9.552e-7
-1.097, -9.661e-7
-1.096, -1.003e-6
-1.095, -1.007e-6
-1.094, -1.041e-6
-1.093, -1.071e-6
-1.092, -1.072e-6
-1.091, -1.115e-6
-1.090, -1.133e-6
-1.089, -1.142e-6
-1.088, -1.181e-6
-1.087, -1.210e-6
-1.086, -1.237e-6
-1.085, -1.254e-6
-1.084, -1.271e-6
-1.083, -1.292e-6
-1.082, -1.325e-6
-1.081, -1.351e-6
-1.080, -1.376e-6
-1.079, -1.425e-6
-1.078, -1.444e-6
-1.077, -1.464e-6
-1.076, -1.504e-6
-1.075, -1.538e-6
-1.074, -1.545e-6
-1.073, -1.587e-6
-1.072, -1.616e-6
-1.071, -1.636e-6
-1.070, -1.655e-6
-1.069, -1.702e-6
-1.068, -1.742e-6
-1.067, -1.771e-6
-1.066, -1.791e-6
-1.065, -1.823e-6
-1.064, -1.853e-6
-1.063, -1.873e-6
-1.062, -1.936e-6
-1.061, -1.953e-6
-1.060, -1.971e-6
-1.059, -2.032e-6
-1.058, -2.050e-6
-1.057, -2.100e-6
-1.056, -2.127e-6
-1.055, -2.166e-6
-1.054, -2.192e-6
-1.053, -2.225e-6
-1.052, -2.264e-6
-1.051, -2.302e-6
-1.050, -2.332e-6
-1.049, -2.380e-6
-1.048, -2.402e-6
-1.047, -2.450e-6
-1.046, -2.483e-6
-1.045, -2.524e-6
-1.044, -2.538e-6
-1.043, -2.602e-6
-1.042, -2.615e-6
-1.041, -2.676e-6
-1.040, -2.695e-6
-1.039, -2.747e-6
-1.038, -2.795e-6
-1.037, -2.823e-6
-1.036, -2.879e-6
-1.035, -2.904e-6
-1.034, -2.925e-6
-1.033, -2.973e-6
-1.032, -3.029e-6
-1.031, -3.076e-6
-1.030, -3.096e-6
-1.029, -3.145e-6
-1.028, -3.178e-6
-1.027, -3.243e-6
-1.026, -3.273e-6
-1.025, -3.306e-6
-1.024, -3.356e-6
-1.023, -3.416e-6
-1.022, -3.454e-6
-1.021, -3.506e-6
-1.020, -3.533e-6
-1.019, -3.577e-6
-1.018, -3.606e-6
-1.017, -3.677e-6
-1.016, -3.707e-6
-1.015, -3.758e-6
-1.014, -3.805e-6
-1.013, -3.852e-6
-1.012, -3.900e-6
-1.011, -3.959e-6
-1.010, -3.981e-6
-1.009, -4.063e-6
-1.008, -4.086e-6
-1.007, -4.170e-6
-1.006, -4.196e-6
-1.005, -4.243e-6
-1.004, -4.297e-6
-1.003, -4.351e-6
-1.002, -4.416e-6
-1.001, -4.468e-6
-1.000, -4.162e-6
-1.001, -3.834e-6
-1.002, -3.556e-6
-1.003, -3.281e-6
-1.004, -3.069e-6
-1.005, -2.836e-6
-1.006, -2.643e-6
-1.007, -2.474e-6
-1.008, -2.283e-6
-1.009, -2.122e-6
-1.010, -1.961e-6
-1.011, -1.822e-6
-1.012, -1.687e-6
-1.013, -1.547e-6
-1.014, -1.436e-6
-1.015, -1.304e-6
-1.016, -1.188e-6
-1.017, -1.088e-6
-1.018, -9.799e-7
-1.019, -8.822e-7
-1.020, -7.766e-7
-1.021, -7.145e-7
-1.022, -6.148e-7
-1.023, -5.438e-7
-1.024, -4.659e-7
-1.025, -3.761e-7
-1.026, -2.942e-7
-1.027, -2.626e-7
-1.028, -1.659e-7
-1.029, -1.215e-7
-1.030, -3.571e-8
-1.031, 2.762e-9
-1.032, 6.689e-8
-1.033, 1.133e-7
-1.034, 1.498e-7
-1.035, 2.297e-7
-1.036, 2.760e-7
-1.037, 3.116e-7
-1.038, 3.609e-7
-1.039, 3.935e-7
-1.040, 4.517e-7
-1.041, 4.990e-7
-1.042, 5.168e-7
-1.043, 5.789e-7
-1.044, 6.075e-7
-1.045, 6.579e-7
-1.046, 6.855e-7
-1.047, 7.092e-7
-1.048, 7.407e-7
-1.049, 7.684e-7
-1.050, 8.276e-7
-1.051, 8.394e-7
-1.052, 8.710e-7
-1.053, 8.976e-7
-1.054, 9.085e-7
-1.055, 9.519e-7
-1.056, 9.884e-7
-1.057, 9.933e-7
-1.058, 1.013e-6
-1.059, 1.033e-6
-1.060, 1.085e-6
-1.061, 1.094e-6
-1.062, 1.107e-6
-1.063, 1.139e-6
-1.064, 1.162e-6
-1.065, 1.200e-6
-1.066, 1.197e-6
-1.067, 1.222e-6
-1.068, 1.234e-6
-1.069, 1.270e-6
-1.070, 1.270e-6
-1.071, 1.304e-6
-1.072, 1.315e-6
-1.073, 1.323e-6
-1.074, 1.334e-6
-1.075, 1.367e-6
-1.076, 1.391e-6
-1.077, 1.405e-6
-1.078, 1.417e-6
-1.079, 1.420e-6
-1.080, 1.445e-6
-1.081, 1.448e-6
-1.082, 1.464e-6
-1.083, 1.492e-6
-1.084, 1.498e-6
-1.085, 1.518e-6
-1.086, 1.532e-6
-1.087, 1.534e-6
-1.088, 1.554e-6
-1.089, 1.553e-6
-1.090, 1.578e-6
-1.091, 1.590e-6
-1.092, 1.610e-6
-1.093, 1.624e-6
-1.094, 1.618e-6
-1.095, 1.645e-6
-1.096, 1.673e-6
-1.097, 1.661e-6
-1.098, 1.673e-6
-1.099, 1.688e-6
-1.100, 1.721e-6
-1.101, 1.730e-6
-1.102, 1.726e-6
-1.103, 1.741e-6
-1.104, 1.768e-6
-1.105, 1.769e-6
-1.106, 1.788e-6
-1.107, 1.778e-6
-1.108, 1.806e-6
-1.109, 1.815e-6
-1.110, 1.828e-6
-1.111, 1.862e-6
-1.112, 1.856e-6
-1.113, 1.871e-6
-1.114, 1.861e-6
-1.115, 1.888e-6
-1.116, 1.914e-6
-1.117, 1.911e-6
-1.118, 1.918e-6
-1.119, 1.942e-6
-1.120, 1.949e-6
-1.121, 1.961e-6
-1.122, 1.963e-6
-1.123, 1.985e-6
-1.124, 1.989e-6
-1.125, 2.016e-6
-1.126, 2.033e-6
-1.127, 2.031e-6
-1.128, 2.053e-6
-1.129, 2.067e-6
-1.130, 2.078e-6
-1.131, 2.083e-6
-1.132, 2.083e-6
-1.133, 2.100e-6
-1.134, 2.130e-6
-1.135, 2.136e-6
-1.136, 2.143e-6
-1.137, 2.161e-6
-1.138, 2.151e-6
-1.139, 2.197e-6
-1.140, 2.205e-6
-1.141, 2.205e-6
-1.142, 2.210e-6
-1.143, 2.245e-6
-1.144, 2.246e-6
-1.145, 2.270e-6
-1.146, 2.294e-6
-1.147, 2.286e-6
-1.148, 2.299e-6
-1.149, 2.306e-6
-1.150, 2.335e-6
-1.151, 2.318e-6
-1.152, 2.347e-6
-1.153, 2.344e-6
-1.154, 2.378e-6
-1.155, 2.404e-6
-1.156, 2.415e-6
-1.157, 2.425e-6
-1.158, 2.432e-6
-1.159, 2.447e-6
-1.160, 2.467e-6
-1.161, 2.470e-6
-1.162, 2.486e-6
-1.163, 2.510e-6
-1.164, 2.516e-6
-1.165, 2.552e-6
-1.166, 2.567e-6
-1.167, 2.580e-6
-1.168, 2.572e-6
-1.169, 2.592e-6
-1.170, 2.622e-6
-1.171, 2.632e-6
-1.172, 2.658e-6
-1.173, 2.657e-6
-1.174, 2.684e-6
-1.175, 2.701e-6
-1.176, 2.717e-6
-1.177, 2.717e-6
-1.178, 2.746e-6
-1.179, 2.754e-6
-1.180, 2.784e-6
-1.181, 2.806e-6
-1.182, 2.810e-6
-1.183, 2.834e-6
-1.184, 2.862e-6
-1.185, 2.884e-6
-1.186, 2.884e-6
-1.187, 2.913e-6
-1.188, 2.904e-6
-1.189, 2.939e-6
-1.190, 2.959e-6
-1.191, 2.983e-6
-1.192, 2.997e-6
-1.193, 3.022e-6
-1.194, 3.029e-6
-1.195, 3.070e-6
-1.196, 3.083e-6
-1.197, 3.100e-6
-1.198, 3.102e-6
-1.199, 3.121e-6
-1.200, 3.157e-6
-1.201, 3.179e-6
-1.202, 3.188e-6
-1.203, 3.225e-6
-1.204, 3.232e-6
-1.205, 3.272e-6
-1.206, 3.286e-6
-1.207, 3.314e-6
-1.208, 3.315e-6
-1.209, 3.349e-6
-1.210, 3.383e-6
-1.211, 3.398e-6
-1.212, 3.432e-6
-1.213, 3.430e-6
-1.214, 3.465e-6
-1.215, 3.487e-6
-1.216, 3.512e-6
-1.217, 3.515e-6
-1.218, 3.542e-6
-1.219, 3.568e-6
-1.220, 3.613e-6
-1.221, 3.626e-6
-1.222, 3.662e-6
-1.223, 3.680e-6
-1.224, 3.700e-6
-1.225, 3.740e-6
-1.226, 3.765e-6
-1.227, 3.773e-6
-1.228, 3.801e-6
-1.229, 3.851e-6
-1.230, 3.870e-6
-1.231, 3.897e-6
-1.232, 3.916e-6
-1.233, 3.951e-6
-1.234, 3.962e-6
-1.235, 3.994e-6
-1.236, 4.028e-6
-1.237, 4.030e-6
-1.238, 4.077e-6
-1.239, 4.097e-6
-1.240, 4.126e-6
-1.241, 4.168e-6
-1.242, 4.172e-6
-1.243, 4.218e-6
-1.244, 4.236e-6
-1.245, 4.275e-6
-1.246, 4.299e-6
-1.247, 4.309e-6
-1.248, 4.329e-6
-1.249, 4.390e-6
-1.250, 4.391e-6
-1.251, 4.438e-6
-1.252, 4.474e-6
-1.253, 4.478e-6
-1.254, 4.504e-6
-1.255, 4.545e-6
-1.256, 4.576e-6
-1.257, 4.593e-6
-1.258, 4.620e-6
-1.259, 4.646e-6
-1.260, 4.685e-6
-1.261, 4.707e-6
-1.262, 4.724e-6
-1.263, 4.754e-6
-1.264, 4.768e-6
-1.265, 4.798e-6
-1.266, 4.831e-6
-1.267, 4.835e-6
-1.268, 4.879e-6
-1.269, 4.925e-6
-1.270, 4.920e-6
-1.271, 4.979e-6
-1.272, 4.973e-6
-1.273, 5.006e-6
-1.274, 5.043e-6
-1.275, 5.086e-6
-1.276, 5.092e-6
-1.277, 5.121e-6
-1.278, 5.133e-6
-1.279, 5.173e-6
-1.280, 5.201e-6
-1.281, 5.223e-6
-1.282, 5.240e-6
-1.283, 5.263e-6
-1.284, 5.288e-6
-1.285, 5.322e-6
-1.286, 5.331e-6
-1.287, 5.341e-6
-1.288, 5.403e-6
-1.289, 5.395e-6
-1.290, 5.438e-6
-1.291, 5.439e-6
-1.292, 5.475e-6
-1.293, 5.506e-6
-1.294, 5.503e-6
-1.295, 5.577e-6
-1.296, 5.568e-6
-1.297, 5.602e-6
-1.298, 5.624e-6
-1.299, 5.636e-6
-1.300, 5.680e-6
-1.301, 5.683e-6
-1.302, 5.702e-6
-1.303, 5.728e-6
-1.304, 5.761e-6
-1.305, 5.796e-6
-1.306, 5.804e-6
-1.307, 5.838e-6
-1.308, 5.835e-6
-1.309, 5.893e-6
-1.310, 5.929e-6
-1.311, 5.929e-6
-1.312, 5.955e-6
-1.313, 5.978e-6
-1.314, 6.001e-6
-1.315, 6.028e-6
-1.316, 6.059e-6
-1.317, 6.065e-6
-1.318, 6.085e-6
-1.319, 6.137e-6
-1.320, 6.168e-6
-1.321, 6.201e-6
-1.322, 6.207e-6
-1.323, 6.240e-6
-1.324, 6.236e-6
-1.325, 6.297e-6
-1.326, 6.322e-6
-1.327, 6.362e-6
-1.328, 6.379e-6
-1.329, 6.400e-6
-1.330, 6.449e-6
-1.331, 6.466e-6
-1.332, 6.502e-6
-1.333, 6.516e-6
-1.334, 6.543e-6
-1.335, 6.605e-6
-1.336, 6.639e-6
-1.337, 6.651e-6
-1.338, 6.673e-6
-1.339, 6.695e-6
-1.340, 6.742e-6
-1.341, 6.777e-6
-1.342, 6.782e-6
-1.343, 6.857e-6
-1.344, 6.867e-6
-1.345, 6.881e-6
-1.346, 6.942e-6
-1.347, 6.960e-6
-1.348, 6.969e-6
-1.349, 7.048e-6
-1.350, 7.063e-6
-1.351, 7.116e-6
-1.352, 7.111e-6
-1.353, 7.169e-6
-1.354, 7.212e-6
-1.355, 7.250e-6
-1.356, 7.278e-6
-1.357, 7.316e-6
-1.358, 7.343e-6
-1.359, 7.384e-6
-1.360, 7.454e-6
-1.361, 7.498e-6
-1.362, 7.513e-6
-1.363, 7.551e-6
-1.364, 7.586e-6
-1.365, 7.620e-6
-1.366, 7.676e-6
-1.367, 7.720e-6
-1.368, 7.753e-6
-1.369, 7.784e-6
-1.370, 7.845e-6
-1.371, 7.871e-6
-1.372, 7.913e-6
-1.373, 7.986e-6
-1.374, 8.010e-6
-1.375, 8.055e-6
-1.376, 8.128e-6
-1.377, 8.153e-6
-1.378, 8.210e-6
-1.379, 8.236e-6
-1.380, 8.290e-6
-1.381, 8.350e-6
-1.382, 8.390e-6
-1.383, 8.427e-6
-1.384, 8.491e-6
-1.385, 8.550e-6
-1.386, 8.597e-6
-1.387, 8.654e-6
-1.388, 8.716e-6
-1.389, 8.756e-6
-1.390, 8.795e-6
-1.391, 8.876e-6
-1.392, 8.911e-6
-1.393, 8.950e-6
-1.394, 9.018e-6
-1.395, 9.091e-6
-1.396, 9.135e-6
-1.397, 9.201e-6
-1.398, 9.258e-6
-1.399, 9.329e-6
-1.400, 9.041e-6
-1.399, 8.767e-6
-1.398, 8.570e-6
-1.397, 8.429e-6
-1.396, 8.290e-6
-1.395, 8.144e-6
-1.394, 8.040e-6
-1.393, 7.904e-6
-1.392, 7.798e-6
-1.391, 7.663e-6
-1.390, 7.570e-6
-1.389, 7.474e-6
-1.388, 7.328e-6
-1.387, 7.250e-6
-1.386, 7.160e-6
-1.385, 7.103e-6
-1.384, 6.972e-6
-1.383, 6.896e-6
-1.382, 6.783e-6
-1.381, 6.720e-6
-1.380, 6.628e-6
-1.379, 6.554e-6
-1.378, 6.452e-6
-1.377, 6.388e-6
-1.376, 6.294e-6
-1.375, 6.224e-6
-1.374, 6.148e-6
-1.373, 6.061e-6
-1.372, 5.991e-6
-1.371, 5.923e-6
-1.370, 5.849e-6
-1.369, 5.773e-6
-1.368, 5.723e-6
-1.367, 5.645e-6
-1.366, 5.586e-6
-1.365, 5.514e-6
-1.364, 5.473e-6
-1.363, 5.382e-6
-1.362, 5.311e-6
-1.361, 5.256e-6
-1.360, 5.214e-6
-1.359, 5.142e-6
-1.358, 5.056e-6
-1.357, 5.000e-6
-1.356, 4.947e-6
-1.355, 4.883e-6
-1.354, 4.858e-6
-1.353, 4.788e-6
-1.352, 4.731e-6
-1.351, 4.660e-6
-1.350, 4.617e-6
-1.349, 4.568e-6
-1.348, 4.525e-6
-1.347, 4.450e-6
-1.346, 4.398e-6
-1.345, 4.369e-6
-1.344, 4.311e-6
-1.343, 4.259e-6
-1.342, 4.202e-6
-1.341, 4.141e-6
-1.340, 4.106e-6
-1.339, 4.070e-6
-1.338, 4.012e-6
-1.337, 3.988e-6
-1.336, 3.908e-6
-1.335, 3.890e-6
-1.334, 3.832e-6
-1.333, 3.788e-6
-1.332, 3.743e-6
-1.331, 3.677e-6
-1.330, 3.654e-6
-1.329, 3.619e-6
-1.328, 3.574e-6
-1.327, 3.506e-6
-1.326, 3.495e-6
-1.325, 3.439e-6
-1.324, 3.420e-6
-1.323, 3.356e-6
-1.322, 3.324e-6
-1.321, 3.310e-6
-1.320, 3.243e-6
-1.319, 3.220e-6
-1.318, 3.161e-6
-1.317, 3.113e-6
-1.316, 3.087e-6
-1.315, 3.055e-6
-1.314, 3.040e-6
-1.313, 2.984e-6
-1.312, 2.932e-6
-1.311, 2.929e-6
-1.310, 2.882e-6
-1.309, 2.835e-6
-1.308, 2.810e-6
-1.307, 2.791e-6
-1.306, 2.718e-6
-1.305, 2.687e-6
-1.304, 2.691e-6
-1.303, 2.622e-6
-1.302, 2.623e-6
-1.301, 2.576e-6
-1.300, 2.556e-6
-1.299, 2.511e-6
-1.298, 2.482e-6
-1.297, 2.439e-6
-1.296, 2.426e-6
-1.295, 2.383e-6
-1.294, 2.345e-6
-1.293, 2.326e-6
-1.292, 2.302e-6
-1.291, 2.249e-6
-1.290, 2.247e-6
-1.289, 2.227e-6
-1.288, 2.187e-6
-1.287, 2.165e-6
-1.286, 2.136e-6
-1.285, 2.084e-6
-1.284, 2.066e-6
-1.283, 2.043e-6
-1.282, 2.021e-6
-1.281, 1.984e-6
-1.280, 1.963e-6
-1.279, 1.933e-6
-1.278, 1.891e-6
-1.277, 1.849e-6
-1.276, 1.852e-6
-1.275, 1.826e-6
-1.274, 1.806e-6
-1.273, 1.781e-6
-1.272, 1.742e-6
-1.271, 1.738e-6
-1.270, 1.710e-6
-1.269, 1.676e-6
-1.268, 1.655e-6
-1.267, 1.615e-6
-1.266, 1.601e-6
-1.265, 1.574e-6
-1.264, 1.562e-6
-1.263, 1.525e-6
-1.262, 1.494e-6
-1.261, 1.475e-6
-1.260, 1.472e-6
-1.259, 1.438e-6
-1.258, 1.399e-6
-1.257, 1.390e-6
-1.256, 1.375e-6
-1.255, 1.350e-6
-1.254, 1.345e-6
-1.253, 1.294e-6
-1.252, 1.279e-6
-1.251, 1.245e-6
-1.250, 1.231e-6
-1.249, 1.212e-6
-1.248, 1.197e-6
-1.247, 1.172e-6
-1.246, 1.148e-6
-1.245, 1.134e-6
-1.244, 1.124e-6
-1.243, 1.116e-6
-1.242, 1.068e-6
-1.241, 1.031e-6
-1.240, 1.021e-6
-1.239, 1.012e-6
-1.238, 9.765e-7
-1.237, 9.607e-7
-1.236, 9.607e-7
-1.235, 9.104e-7
-1.234, 9.006e-7
-1.233, 9.114e-7
-1.232, 8.670e-7
-1.231, 8.621e-7
-1.230, 8.295e-7
-1.229, 8.157e-7
-1.228, 7.950e-7
-1.227, 7.506e-7
-1.226, 7.516e-7
-1.225, 7.407e-7
-1.224, 7.417e-7
-1.223, 7.082e-7
-1.222, 6.914e-7
-1.221, 6.677e-7
-1.220, 6.519e-7
-1.219, 6.579e-7
-1.218, 6.214e-7
-1.217, 5.997e-7
-1.216, 5.720e-7
-1.215, 5.582e-7
-1.214, 5.641e-7
-1.213, 5.523e-7
-1.212, 5.266e-7
-1.211, 5.069e-7
-1.210, 5.010e-7
-1.209, 4.911e-7
-1.208, 4.665e-7
-1.207, 4.467e-7
-1.206, 4.319e-7
-1.205, 4.250e-7
-1.204, 3.865e-7
-1.203, 3.984e-7
-1.202, 3.639e-7
-1.201, 3.599e-7
-1.200, 3.382e-7
-1.199, 3.323e-7
-1.198, 3.096e-7
-1.197, 3.047e-7
-1.196, 2.741e-7
-1.195, 2.701e-7
-1.194, 2.603e-7
-1.193, 2.504e-7
-1.192, 2.119e-7
-1.191, 2.159e-7
-1.190, 1.902e-7
-1.189, 1.774e-7
-1.188, 1.744e-7
-1.187, 1.369e-7
-1.186, 1.537e-7
-1.185, 1.360e-7
-1.184, 1.271e-7
-1.183, 9.945e-8
-1.182, 9.550e-8
-1.181, 7.281e-8
-1.180, 5.801e-8
-1.179, 8.860e-8
-1.178, 5.012e-8
-1.177, 1.855e-8
-1.176, -9.077e-9
-1.175, 4.736e-9
-1.174, 5.722e-9
-1.173, -1.302e-8
-1.172, -3.078e-8
-1.171, -5.249e-8
-1.170, -6.531e-8
-1.169, -6.235e-8
-1.168, -7.814e-8
-1.167, -8.603e-8
-1.166, -1.107e-7
-1.165, -1.255e-7
-1.164, -1.275e-7
-1.163, -1.393e-7
-1.162, -1.413e-7
-1.161, -1.709e-7
-1.160, -1.857e-7
-1.159, -1.926e-7
-1.158, -2.133e-7
-1.157, -2.202e-7
-1.156, -2.488e-7
-1.155, -2.399e-7
-1.154, -2.577e-7
-1.153, -2.942e-7
-1.152, -3.070e-7
-1.151, -2.962e-7
-1.150, -3.159e-7
-1.149, -3.425e-7
-1.148, -3.652e-7
-1.147, -3.741e-7
-1.146, -3.879e-7
-1.145, -3.850e-7
-1.144, -3.889e-7
-1.143, -3.968e-7
-1.142, -4.442e-7
-1.141, -4.521e-7
-1.140, -4.540e-7
-1.139, -4.807e-7
-1.138, -4.836e-7
-1.137, -5.053e-7
-1.136, -5.339e-7
-1.135, -5.182e-7
-1.134, -5.566e-7
-1.133, -5.576e-7
-1.132, -5.843e-7
-1.131, -5.951e-7
-1.130, -6.089e-7
-1.129, -6.089e-7
-1.128, -6.237e-7
-1.127, -6.592e-7
-1.126, -6.898e-7
-1.125, -6.898e-7
-1.124, -7.125e-7
-1.123, -7.470e-7
-1.122, -7.392e-7
-1.121, -7.816e-7
-1.120, -8.043e-7
-1.119, -7.895e-7
-1.118, -8.299e-7
-1.117, -8.457e-7
-1.116, -8.674e-7
-1.115, -8.743e-7
-1.114, -8.891e-7
-1.113, -9.118e-7
-1.112, -9.463e-7
-1.111, -9.611e-7
-1.110, -9.819e-7
-1.109, -9.996e-7
-1.108, -1.039e-6
-1.107, -1.037e-6
-1.106, -1.078e-6
-1.105, -1.095e-6
-1.104, -1.104e-6
-1.103, -1.121e-6
-1.102, -1.156e-6
-1.101, -1.171e-6
-1.100, -1.207e-6
-1.099, -1.235e-6
-1.098, -1.244e-6
-1.097, -1.288e-6
-1.096, -1.293e-6
-1.095, -1.322e-6
-1.094, -1.336e-6
-1.093, -1.366e-6
-1.092, -1.401e-6
-1.091, -1.427e-6
-1.090, -1.462e-6
-1.089, -1.477e-6
-1.088, -1.505e-6
-1.087, -1.531e-6
-1.086, -1.579e-6
-1.085, -1.578e-6
-1.084, -1.597e-6
-1.083, -1.652e-6
-1.082, -1.687e-6
-1.081, -1.694e-6
-1.080, -1.732e-6
-1.079, -1.747e-6
-1.078, -1.796e-6
-1.077, -1.824e-6
-1.076, -1.854e-6
-1.075, -1.889e-6
-1.074, -1.924e-6
-1.073, -1.968e-6
-1.072, -1.984e-6
-1.071, -2.038e-6
-1.070, -2.055e-6
-1.069, -2.075e-6
-1.068, -2.109e-6
-1.067, -2.161e-6
-1.066, -2.192e-6
-1.065, -2.217e-6
-1.064, -2.250e-6
-1.063, -2.286e-6
-1.062, -2.352e-6
-1.061, -2.382e-6
-1.060, -2.407e-6
-1.059, -2.421e-6
-1.058, -2.469e-6
-1.057, -2.519e-6
-1.056, -2.560e-6
-1.055, -2.573e-6
-1.054, -2.628e-6
-1.053, -2.674e-6
-1.052, -2.708e-6
-1.051, -2.755e-6
-1.050, -2.784e-6
-1.049, -2.816e-6
-1.048, -2.880e-6
-1.047, -2.926e-6
-1.046, -2.947e-6
-1.045, -2.977e-6
-1.044, -3.002e-6
-1.043, -3.077e-6
-1.042, -3.106e-6
-1.041, -3.169e-6
-1.040, -3.195e-6
-1.039, -3.231e-6
-1.038, -3.286e-6
-1.037, -3.316e-6
-1.036, -3.370e-6
-1.035, -3.416e-6
-1.034, -3.445e-6
-1.033, -3.509e-6
-1.032, -3.533e-6
-1.031, -3.594e-6
-1.030, -3.627e-6
-1.029, -3.656e-6
-1.028, -3.730e-6
-1.027, -3.771e-6
-1.026, -3.806e-6
-1.025, -3.864e-6
-1.024, -3.907e-6
-1.023, -3.969e-6
-1.022, -4.010e-6
-1.021, -4.070e-6
-1.020, -4.117e-6
-1.019, -4.175e-6
-1.018, -4.209e-6
-1.017, -4.287e-6
-1.016, -4.306e-6
-1.015, -4.368e-6
-1.014, -4.431e-6
-1.013, -4.474e-6
-1.012, -4.527e-6
-1.011, -4.587e-6
-1.010, -4.649e-6
-1.009, -4.686e-6
-1.008, -4.757e-6
-1.007, -4.814e-6
-1.006, -4.869e-6
-1.005, -4.933e-6
-1.004, -4.983e-6
-1.003, -5.065e-6
-1.002, -5.111e-6
-1.001, -5.176e-6
