Sept. 18, 2024   07:55:14
Cyclic Voltammetry
File: c:/users/guazh/data/20240903_batch_252_500/2024-09-03-exp386\exp386-2024-09-18t07_46_32-arkoh\exp386_cv_50mvs_efin_-1600mv.bin
Data Source:  Experiment
Instrument Model:  CHI760E
Header: CV ran at 50 mVs
Note: 

Init E (V) = -1
High E (V) = -1
Low E (V) = -1.6
Final E (V) = -1
Init P/N = N
Scan Rate (V/s) = 0.05
Segment = 7
Sample Interval (V) = 0.001
Quiet Time (sec) = 60
Sensitivity (A/V) = 0.001
Comp R (ohm) = 2.1

Results:

Channel 1:
Segment 1:

Segment 2:

Segment 3:

Segment 4:

Segment 5:

Segment 6:

Segment 7:

Potential/V, Current/A

-1.000, 1.764e-7
-1.001, 2.455e-7
-1.002, 2.622e-7
-1.003, 2.721e-7
-1.004, 3.244e-7
-1.005, 3.244e-7
-1.006, 3.491e-7
-1.007, 3.500e-7
-1.008, 3.461e-7
-1.009, 3.560e-7
-1.010, 3.836e-7
-1.011, 4.398e-7
-1.012, 4.063e-7
-1.013, 4.280e-7
-1.014, 4.250e-7
-1.015, 4.329e-7
-1.016, 4.576e-7
-1.017, 4.724e-7
-1.018, 4.487e-7
-1.019, 4.961e-7
-1.020, 4.546e-7
-1.021, 5.040e-7
-1.022, 5.059e-7
-1.023, 5.148e-7
-1.024, 5.286e-7
-1.025, 5.217e-7
-1.026, 5.612e-7
-1.027, 5.553e-7
-1.028, 5.483e-7
-1.029, 5.927e-7
-1.030, 5.710e-7
-1.031, 5.997e-7
-1.032, 6.095e-7
-1.033, 6.312e-7
-1.034, 6.618e-7
-1.035, 6.204e-7
-1.036, 6.283e-7
-1.037, 6.421e-7
-1.038, 6.559e-7
-1.039, 6.371e-7
-1.040, 6.638e-7
-1.041, 6.707e-7
-1.042, 6.658e-7
-1.043, 7.082e-7
-1.044, 6.845e-7
-1.045, 7.259e-7
-1.046, 7.102e-7
-1.047, 7.190e-7
-1.048, 7.397e-7
-1.049, 7.319e-7
-1.050, 7.555e-7
-1.051, 7.397e-7
-1.052, 7.615e-7
-1.053, 7.861e-7
-1.054, 7.792e-7
-1.055, 7.644e-7
-1.056, 8.068e-7
-1.057, 7.822e-7
-1.058, 7.960e-7
-1.059, 8.285e-7
-1.060, 8.384e-7
-1.061, 8.266e-7
-1.062, 8.512e-7
-1.063, 8.473e-7
-1.064, 8.542e-7
-1.065, 8.937e-7
-1.066, 8.591e-7
-1.067, 8.581e-7
-1.068, 8.739e-7
-1.069, 8.729e-7
-1.070, 8.976e-7
-1.071, 8.937e-7
-1.072, 9.163e-7
-1.073, 9.321e-7
-1.074, 9.085e-7
-1.075, 9.361e-7
-1.076, 9.598e-7
-1.077, 9.657e-7
-1.078, 9.558e-7
-1.079, 9.509e-7
-1.080, 9.775e-7
-1.081, 9.844e-7
-1.082, 9.854e-7
-1.083, 1.011e-6
-1.084, 9.834e-7
-1.085, 9.785e-7
-1.086, 9.992e-7
-1.087, 1.016e-6
-1.088, 1.015e-6
-1.089, 1.043e-6
-1.090, 1.036e-6
-1.091, 1.036e-6
-1.092, 1.055e-6
-1.093, 1.052e-6
-1.094, 1.084e-6
-1.095, 1.051e-6
-1.096, 1.055e-6
-1.097, 1.084e-6
-1.098, 1.092e-6
-1.099, 1.072e-6
-1.100, 1.079e-6
-1.101, 1.083e-6
-1.102, 1.115e-6
-1.103, 1.114e-6
-1.104, 1.137e-6
-1.105, 1.138e-6
-1.106, 1.163e-6
-1.107, 1.142e-6
-1.108, 1.130e-6
-1.109, 1.151e-6
-1.110, 1.171e-6
-1.111, 1.174e-6
-1.112, 1.167e-6
-1.113, 1.164e-6
-1.114, 1.188e-6
-1.115, 1.206e-6
-1.116, 1.214e-6
-1.117, 1.216e-6
-1.118, 1.208e-6
-1.119, 1.182e-6
-1.120, 1.204e-6
-1.121, 1.246e-6
-1.122, 1.244e-6
-1.123, 1.253e-6
-1.124, 1.249e-6
-1.125, 1.226e-6
-1.126, 1.255e-6
-1.127, 1.315e-6
-1.128, 1.293e-6
-1.129, 1.279e-6
-1.130, 1.299e-6
-1.131, 1.298e-6
-1.132, 1.322e-6
-1.133, 1.342e-6
-1.134, 1.351e-6
-1.135, 1.333e-6
-1.136, 1.310e-6
-1.137, 1.358e-6
-1.138, 1.372e-6
-1.139, 1.381e-6
-1.140, 1.390e-6
-1.141, 1.374e-6
-1.142, 1.410e-6
-1.143, 1.406e-6
-1.144, 1.435e-6
-1.145, 1.425e-6
-1.146, 1.427e-6
-1.147, 1.468e-6
-1.148, 1.448e-6
-1.149, 1.472e-6
-1.150, 1.430e-6
-1.151, 1.456e-6
-1.152, 1.467e-6
-1.153, 1.485e-6
-1.154, 1.505e-6
-1.155, 1.485e-6
-1.156, 1.529e-6
-1.157, 1.521e-6
-1.158, 1.521e-6
-1.159, 1.544e-6
-1.160, 1.556e-6
-1.161, 1.550e-6
-1.162, 1.565e-6
-1.163, 1.574e-6
-1.164, 1.571e-6
-1.165, 1.601e-6
-1.166, 1.590e-6
-1.167, 1.621e-6
-1.168, 1.653e-6
-1.169, 1.617e-6
-1.170, 1.633e-6
-1.171, 1.639e-6
-1.172, 1.632e-6
-1.173, 1.674e-6
-1.174, 1.650e-6
-1.175, 1.657e-6
-1.176, 1.687e-6
-1.177, 1.666e-6
-1.178, 1.707e-6
-1.179, 1.713e-6
-1.180, 1.705e-6
-1.181, 1.718e-6
-1.182, 1.743e-6
-1.183, 1.741e-6
-1.184, 1.788e-6
-1.185, 1.750e-6
-1.186, 1.787e-6
-1.187, 1.762e-6
-1.188, 1.801e-6
-1.189, 1.792e-6
-1.190, 1.832e-6
-1.191, 1.848e-6
-1.192, 1.800e-6
-1.193, 1.849e-6
-1.194, 1.874e-6
-1.195, 1.866e-6
-1.196, 1.851e-6
-1.197, 1.871e-6
-1.198, 1.904e-6
-1.199, 1.934e-6
-1.200, 1.915e-6
-1.201, 1.920e-6
-1.202, 1.932e-6
-1.203, 1.964e-6
-1.204, 2.004e-6
-1.205, 2.001e-6
-1.206, 2.003e-6
-1.207, 2.015e-6
-1.208, 2.049e-6
-1.209, 2.044e-6
-1.210, 2.069e-6
-1.211, 2.071e-6
-1.212, 2.075e-6
-1.213, 2.131e-6
-1.214, 2.117e-6
-1.215, 2.150e-6
-1.216, 2.158e-6
-1.217, 2.176e-6
-1.218, 2.164e-6
-1.219, 2.230e-6
-1.220, 2.177e-6
-1.221, 2.228e-6
-1.222, 2.252e-6
-1.223, 2.300e-6
-1.224, 2.298e-6
-1.225, 2.307e-6
-1.226, 2.311e-6
-1.227, 2.324e-6
-1.228, 2.385e-6
-1.229, 2.389e-6
-1.230, 2.405e-6
-1.231, 2.410e-6
-1.232, 2.449e-6
-1.233, 2.480e-6
-1.234, 2.508e-6
-1.235, 2.507e-6
-1.236, 2.539e-6
-1.237, 2.559e-6
-1.238, 2.575e-6
-1.239, 2.627e-6
-1.240, 2.598e-6
-1.241, 2.633e-6
-1.242, 2.689e-6
-1.243, 2.687e-6
-1.244, 2.733e-6
-1.245, 2.729e-6
-1.246, 2.746e-6
-1.247, 2.785e-6
-1.248, 2.841e-6
-1.249, 2.853e-6
-1.250, 2.887e-6
-1.251, 2.908e-6
-1.252, 2.939e-6
-1.253, 2.931e-6
-1.254, 2.978e-6
-1.255, 3.048e-6
-1.256, 3.092e-6
-1.257, 3.117e-6
-1.258, 3.096e-6
-1.259, 3.171e-6
-1.260, 3.189e-6
-1.261, 3.243e-6
-1.262, 3.282e-6
-1.263, 3.302e-6
-1.264, 3.377e-6
-1.265, 3.396e-6
-1.266, 3.443e-6
-1.267, 3.465e-6
-1.268, 3.502e-6
-1.269, 3.582e-6
-1.270, 3.623e-6
-1.271, 3.643e-6
-1.272, 3.713e-6
-1.273, 3.741e-6
-1.274, 3.813e-6
-1.275, 3.865e-6
-1.276, 3.900e-6
-1.277, 3.955e-6
-1.278, 4.031e-6
-1.279, 4.069e-6
-1.280, 4.136e-6
-1.281, 4.179e-6
-1.282, 4.214e-6
-1.283, 4.276e-6
-1.284, 4.383e-6
-1.285, 4.406e-6
-1.286, 4.500e-6
-1.287, 4.527e-6
-1.288, 4.617e-6
-1.289, 4.707e-6
-1.290, 4.735e-6
-1.291, 4.780e-6
-1.292, 4.843e-6
-1.293, 4.950e-6
-1.294, 5.018e-6
-1.295, 5.065e-6
-1.296, 5.172e-6
-1.297, 5.253e-6
-1.298, 5.346e-6
-1.299, 5.423e-6
-1.300, 5.496e-6
-1.301, 5.616e-6
-1.302, 5.672e-6
-1.303, 5.785e-6
-1.304, 5.852e-6
-1.305, 5.918e-6
-1.306, 6.036e-6
-1.307, 6.135e-6
-1.308, 6.214e-6
-1.309, 6.339e-6
-1.310, 6.389e-6
-1.311, 6.532e-6
-1.312, 6.662e-6
-1.313, 6.768e-6
-1.314, 6.857e-6
-1.315, 6.944e-6
-1.316, 7.087e-6
-1.317, 7.176e-6
-1.318, 7.317e-6
-1.319, 7.468e-6
-1.320, 7.544e-6
-1.321, 7.723e-6
-1.322, 7.878e-6
-1.323, 8.001e-6
-1.324, 8.148e-6
-1.325, 8.226e-6
-1.326, 8.424e-6
-1.327, 8.546e-6
-1.328, 8.707e-6
-1.329, 8.824e-6
-1.330, 8.948e-6
-1.331, 9.103e-6
-1.332, 9.276e-6
-1.333, 9.423e-6
-1.334, 9.594e-6
-1.335, 9.690e-6
-1.336, 9.844e-6
-1.337, 1.001e-5
-1.338, 1.012e-5
-1.339, 1.032e-5
-1.340, 1.047e-5
-1.341, 1.069e-5
-1.342, 1.087e-5
-1.343, 1.106e-5
-1.344, 1.126e-5
-1.345, 1.142e-5
-1.346, 1.162e-5
-1.347, 1.185e-5
-1.348, 1.208e-5
-1.349, 1.224e-5
-1.350, 1.244e-5
-1.351, 1.272e-5
-1.352, 1.290e-5
-1.353, 1.312e-5
-1.354, 1.336e-5
-1.355, 1.354e-5
-1.356, 1.378e-5
-1.357, 1.401e-5
-1.358, 1.421e-5
-1.359, 1.449e-5
-1.360, 1.475e-5
-1.361, 1.495e-5
-1.362, 1.517e-5
-1.363, 1.531e-5
-1.364, 1.554e-5
-1.365, 1.575e-5
-1.366, 1.606e-5
-1.367, 1.631e-5
-1.368, 1.661e-5
-1.369, 1.687e-5
-1.370, 1.715e-5
-1.371, 1.744e-5
-1.372, 1.772e-5
-1.373, 1.792e-5
-1.374, 1.828e-5
-1.375, 1.855e-5
-1.376, 1.882e-5
-1.377, 1.917e-5
-1.378, 1.939e-5
-1.379, 1.969e-5
-1.380, 1.995e-5
-1.381, 2.018e-5
-1.382, 2.039e-5
-1.383, 2.067e-5
-1.384, 2.099e-5
-1.385, 2.135e-5
-1.386, 2.168e-5
-1.387, 2.207e-5
-1.388, 2.234e-5
-1.389, 2.264e-5
-1.390, 2.299e-5
-1.391, 2.336e-5
-1.392, 2.355e-5
-1.393, 2.385e-5
-1.394, 2.430e-5
-1.395, 2.463e-5
-1.396, 2.498e-5
-1.397, 2.537e-5
-1.398, 2.577e-5
-1.399, 2.614e-5
-1.400, 2.623e-5
-1.401, 2.667e-5
-1.402, 2.708e-5
-1.403, 2.759e-5
-1.404, 2.803e-5
-1.405, 2.850e-5
-1.406, 2.899e-5
-1.407, 2.937e-5
-1.408, 2.967e-5
-1.409, 3.013e-5
-1.410, 3.061e-5
-1.411, 3.113e-5
-1.412, 3.167e-5
-1.413, 3.209e-5
-1.414, 3.252e-5
-1.415, 3.291e-5
-1.416, 3.353e-5
-1.417, 3.400e-5
-1.418, 3.446e-5
-1.419, 3.496e-5
-1.420, 3.551e-5
-1.421, 3.604e-5
-1.422, 3.666e-5
-1.423, 3.719e-5
-1.424, 3.792e-5
-1.425, 3.842e-5
-1.426, 3.884e-5
-1.427, 3.926e-5
-1.428, 3.972e-5
-1.429, 4.022e-5
-1.430, 4.084e-5
-1.431, 4.141e-5
-1.432, 4.218e-5
-1.433, 4.275e-5
-1.434, 4.339e-5
-1.435, 4.401e-5
-1.436, 4.460e-5
-1.437, 4.523e-5
-1.438, 4.592e-5
-1.439, 4.669e-5
-1.440, 4.734e-5
-1.441, 4.801e-5
-1.442, 4.864e-5
-1.443, 4.922e-5
-1.444, 4.992e-5
-1.445, 5.064e-5
-1.446, 5.134e-5
-1.447, 5.194e-5
-1.448, 5.289e-5
-1.449, 5.358e-5
-1.450, 5.437e-5
-1.451, 5.525e-5
-1.452, 5.600e-5
-1.453, 5.676e-5
-1.454, 5.733e-5
-1.455, 5.819e-5
-1.456, 5.920e-5
-1.457, 6.002e-5
-1.458, 6.090e-5
-1.459, 6.170e-5
-1.460, 6.239e-5
-1.461, 6.328e-5
-1.462, 6.410e-5
-1.463, 6.499e-5
-1.464, 6.588e-5
-1.465, 6.663e-5
-1.466, 6.765e-5
-1.467, 6.869e-5
-1.468, 6.957e-5
-1.469, 7.053e-5
-1.470, 7.164e-5
-1.471, 7.248e-5
-1.472, 7.345e-5
-1.473, 7.466e-5
-1.474, 7.557e-5
-1.475, 7.669e-5
-1.476, 7.786e-5
-1.477, 7.898e-5
-1.478, 8.019e-5
-1.479, 8.123e-5
-1.480, 8.235e-5
-1.481, 8.362e-5
-1.482, 8.461e-5
-1.483, 8.600e-5
-1.484, 8.727e-5
-1.485, 8.847e-5
-1.486, 8.947e-5
-1.487, 9.057e-5
-1.488, 9.186e-5
-1.489, 9.317e-5
-1.490, 9.449e-5
-1.491, 9.579e-5
-1.492, 9.724e-5
-1.493, 9.843e-5
-1.494, 9.990e-5
-1.495, 1.013e-4
-1.496, 1.027e-4
-1.497, 1.042e-4
-1.498, 1.056e-4
-1.499, 1.073e-4
-1.500, 1.088e-4
-1.501, 1.104e-4
-1.502, 1.118e-4
-1.503, 1.134e-4
-1.504, 1.150e-4
-1.505, 1.166e-4
-1.506, 1.182e-4
-1.507, 1.199e-4
-1.508, 1.222e-4
-1.509, 1.239e-4
-1.510, 1.254e-4
-1.511, 1.270e-4
-1.512, 1.287e-4
-1.513, 1.306e-4
-1.514, 1.324e-4
-1.515, 1.343e-4
-1.516, 1.363e-4
-1.517, 1.383e-4
-1.518, 1.402e-4
-1.519, 1.422e-4
-1.520, 1.444e-4
-1.521, 1.466e-4
-1.522, 1.487e-4
-1.523, 1.507e-4
-1.524, 1.532e-4
-1.525, 1.557e-4
-1.526, 1.579e-4
-1.527, 1.602e-4
-1.528, 1.621e-4
-1.529, 1.647e-4
-1.530, 1.669e-4
-1.531, 1.694e-4
-1.532, 1.720e-4
-1.533, 1.746e-4
-1.534, 1.772e-4
-1.535, 1.799e-4
-1.536, 1.827e-4
-1.537, 1.853e-4
-1.538, 1.877e-4
-1.539, 1.902e-4
-1.540, 1.930e-4
-1.541, 1.958e-4
-1.542, 1.990e-4
-1.543, 2.020e-4
-1.544, 2.051e-4
-1.545, 2.080e-4
-1.546, 2.109e-4
-1.547, 2.140e-4
-1.548, 2.172e-4
-1.549, 2.204e-4
-1.550, 2.237e-4
-1.551, 2.270e-4
-1.552, 2.303e-4
-1.553, 2.337e-4
-1.554, 2.369e-4
-1.555, 2.401e-4
-1.556, 2.435e-4
-1.557, 2.471e-4
-1.558, 2.508e-4
-1.559, 2.546e-4
-1.560, 2.585e-4
-1.561, 2.621e-4
-1.562, 2.666e-4
-1.563, 2.710e-4
-1.564, 2.749e-4
-1.565, 2.787e-4
-1.566, 2.830e-4
-1.567, 2.878e-4
-1.568, 2.920e-4
-1.569, 2.963e-4
-1.570, 3.007e-4
-1.571, 3.052e-4
-1.572, 3.094e-4
-1.573, 3.136e-4
-1.574, 3.179e-4
-1.575, 3.225e-4
-1.576, 3.272e-4
-1.577, 3.320e-4
-1.578, 3.365e-4
-1.579, 3.410e-4
-1.580, 3.461e-4
-1.581, 3.510e-4
-1.582, 3.560e-4
-1.583, 3.615e-4
-1.584, 3.676e-4
-1.585, 3.735e-4
-1.586, 3.786e-4
-1.587, 3.838e-4
-1.588, 3.892e-4
-1.589, 3.953e-4
-1.590, 4.012e-4
-1.591, 4.071e-4
-1.592, 4.122e-4
-1.593, 4.186e-4
-1.594, 4.250e-4
-1.595, 4.309e-4
-1.596, 4.366e-4
-1.597, 4.426e-4
-1.598, 4.489e-4
-1.599, 4.574e-4
-1.600, 4.574e-4
-1.599, 4.520e-4
-1.598, 4.480e-4
-1.597, 4.435e-4
-1.596, 4.367e-4
-1.595, 4.313e-4
-1.594, 4.262e-4
-1.593, 4.208e-4
-1.592, 4.148e-4
-1.591, 4.090e-4
-1.590, 4.040e-4
-1.589, 4.001e-4
-1.588, 3.943e-4
-1.587, 3.902e-4
-1.586, 3.847e-4
-1.585, 3.794e-4
-1.584, 3.742e-4
-1.583, 3.697e-4
-1.582, 3.648e-4
-1.581, 3.595e-4
-1.580, 3.545e-4
-1.579, 3.496e-4
-1.578, 3.444e-4
-1.577, 3.394e-4
-1.576, 3.344e-4
-1.575, 3.296e-4
-1.574, 3.250e-4
-1.573, 3.213e-4
-1.572, 3.164e-4
-1.571, 3.114e-4
-1.570, 3.068e-4
-1.569, 3.022e-4
-1.568, 2.980e-4
-1.567, 2.954e-4
-1.566, 2.911e-4
-1.565, 2.864e-4
-1.564, 2.822e-4
-1.563, 2.776e-4
-1.562, 2.733e-4
-1.561, 2.692e-4
-1.560, 2.654e-4
-1.559, 2.612e-4
-1.558, 2.571e-4
-1.557, 2.532e-4
-1.556, 2.495e-4
-1.555, 2.454e-4
-1.554, 2.414e-4
-1.553, 2.374e-4
-1.552, 2.338e-4
-1.551, 2.300e-4
-1.550, 2.262e-4
-1.549, 2.226e-4
-1.548, 2.191e-4
-1.547, 2.156e-4
-1.546, 2.121e-4
-1.545, 2.088e-4
-1.544, 2.059e-4
-1.543, 2.024e-4
-1.542, 1.990e-4
-1.541, 1.957e-4
-1.540, 1.926e-4
-1.539, 1.894e-4
-1.538, 1.861e-4
-1.537, 1.830e-4
-1.536, 1.800e-4
-1.535, 1.771e-4
-1.534, 1.743e-4
-1.533, 1.713e-4
-1.532, 1.685e-4
-1.531, 1.658e-4
-1.530, 1.630e-4
-1.529, 1.602e-4
-1.528, 1.577e-4
-1.527, 1.549e-4
-1.526, 1.526e-4
-1.525, 1.502e-4
-1.524, 1.476e-4
-1.523, 1.451e-4
-1.522, 1.427e-4
-1.521, 1.405e-4
-1.520, 1.380e-4
-1.519, 1.357e-4
-1.518, 1.334e-4
-1.517, 1.311e-4
-1.516, 1.289e-4
-1.515, 1.267e-4
-1.514, 1.244e-4
-1.513, 1.222e-4
-1.512, 1.202e-4
-1.511, 1.180e-4
-1.510, 1.160e-4
-1.509, 1.140e-4
-1.508, 1.121e-4
-1.507, 1.102e-4
-1.506, 1.084e-4
-1.505, 1.066e-4
-1.504, 1.047e-4
-1.503, 1.028e-4
-1.502, 1.011e-4
-1.501, 9.951e-5
-1.500, 9.813e-5
-1.499, 9.643e-5
-1.498, 9.467e-5
-1.497, 9.314e-5
-1.496, 9.157e-5
-1.495, 8.992e-5
-1.494, 8.828e-5
-1.493, 8.661e-5
-1.492, 8.520e-5
-1.491, 8.382e-5
-1.490, 8.241e-5
-1.489, 8.108e-5
-1.488, 7.973e-5
-1.487, 7.846e-5
-1.486, 7.708e-5
-1.485, 7.564e-5
-1.484, 7.431e-5
-1.483, 7.302e-5
-1.482, 7.172e-5
-1.481, 7.057e-5
-1.480, 6.940e-5
-1.479, 6.808e-5
-1.478, 6.693e-5
-1.477, 6.584e-5
-1.476, 6.465e-5
-1.475, 6.360e-5
-1.474, 6.255e-5
-1.473, 6.139e-5
-1.472, 6.031e-5
-1.471, 5.932e-5
-1.470, 5.848e-5
-1.469, 5.735e-5
-1.468, 5.655e-5
-1.467, 5.556e-5
-1.466, 5.461e-5
-1.465, 5.372e-5
-1.464, 5.288e-5
-1.463, 5.190e-5
-1.462, 5.096e-5
-1.461, 5.017e-5
-1.460, 4.936e-5
-1.459, 4.845e-5
-1.458, 4.760e-5
-1.457, 4.673e-5
-1.456, 4.625e-5
-1.455, 4.596e-5
-1.454, 4.579e-5
-1.453, 4.492e-5
-1.452, 4.405e-5
-1.451, 4.313e-5
-1.450, 4.245e-5
-1.449, 4.150e-5
-1.448, 4.001e-5
-1.447, 3.940e-5
-1.446, 3.935e-5
-1.445, 3.927e-5
-1.444, 3.855e-5
-1.443, 3.804e-5
-1.442, 3.735e-5
-1.441, 3.689e-5
-1.440, 3.626e-5
-1.439, 3.564e-5
-1.438, 3.512e-5
-1.437, 3.457e-5
-1.436, 3.392e-5
-1.435, 3.303e-5
-1.434, 3.252e-5
-1.433, 3.209e-5
-1.432, 3.169e-5
-1.431, 3.122e-5
-1.430, 3.067e-5
-1.429, 3.002e-5
-1.428, 2.953e-5
-1.427, 2.913e-5
-1.426, 2.854e-5
-1.425, 2.795e-5
-1.424, 2.750e-5
-1.423, 2.704e-5
-1.422, 2.645e-5
-1.421, 2.593e-5
-1.420, 2.546e-5
-1.419, 2.507e-5
-1.418, 2.460e-5
-1.417, 2.432e-5
-1.416, 2.397e-5
-1.415, 2.351e-5
-1.414, 2.304e-5
-1.413, 2.256e-5
-1.412, 2.227e-5
-1.411, 2.166e-5
-1.410, 2.131e-5
-1.409, 2.101e-5
-1.408, 2.079e-5
-1.407, 2.045e-5
-1.406, 2.009e-5
-1.405, 1.979e-5
-1.404, 1.949e-5
-1.403, 1.916e-5
-1.402, 1.883e-5
-1.401, 1.844e-5
-1.400, 1.810e-5
-1.399, 1.770e-5
-1.398, 1.734e-5
-1.397, 1.704e-5
-1.396, 1.681e-5
-1.395, 1.650e-5
-1.394, 1.614e-5
-1.393, 1.584e-5
-1.392, 1.555e-5
-1.391, 1.525e-5
-1.390, 1.489e-5
-1.389, 1.451e-5
-1.388, 1.409e-5
-1.387, 1.394e-5
-1.386, 1.372e-5
-1.385, 1.340e-5
-1.384, 1.317e-5
-1.383, 1.290e-5
-1.382, 1.259e-5
-1.381, 1.240e-5
-1.380, 1.220e-5
-1.379, 1.205e-5
-1.378, 1.197e-5
-1.377, 1.173e-5
-1.376, 1.168e-5
-1.375, 1.150e-5
-1.374, 1.125e-5
-1.373, 1.116e-5
-1.372, 1.096e-5
-1.371, 1.081e-5
-1.370, 1.056e-5
-1.369, 1.039e-5
-1.368, 1.020e-5
-1.367, 1.000e-5
-1.366, 9.895e-6
-1.365, 9.723e-6
-1.364, 9.486e-6
-1.363, 9.296e-6
-1.362, 9.151e-6
-1.361, 9.036e-6
-1.360, 8.811e-6
-1.359, 8.654e-6
-1.358, 8.514e-6
-1.357, 8.310e-6
-1.356, 8.140e-6
-1.355, 8.018e-6
-1.354, 7.869e-6
-1.353, 7.720e-6
-1.352, 7.597e-6
-1.351, 7.485e-6
-1.350, 7.296e-6
-1.349, 7.134e-6
-1.348, 7.135e-6
-1.347, 7.023e-6
-1.346, 6.947e-6
-1.345, 6.799e-6
-1.344, 6.693e-6
-1.343, 6.532e-6
-1.342, 6.427e-6
-1.341, 6.325e-6
-1.340, 6.192e-6
-1.339, 6.060e-6
-1.338, 5.937e-6
-1.337, 5.840e-6
-1.336, 5.796e-6
-1.335, 5.611e-6
-1.334, 5.449e-6
-1.333, 5.368e-6
-1.332, 5.258e-6
-1.331, 5.158e-6
-1.330, 5.029e-6
-1.329, 4.950e-6
-1.328, 4.864e-6
-1.327, 4.805e-6
-1.326, 4.729e-6
-1.325, 4.684e-6
-1.324, 4.575e-6
-1.323, 4.453e-6
-1.322, 4.350e-6
-1.321, 4.286e-6
-1.320, 4.198e-6
-1.319, 4.150e-6
-1.318, 4.029e-6
-1.317, 3.967e-6
-1.316, 3.865e-6
-1.315, 3.763e-6
-1.314, 3.702e-6
-1.313, 3.637e-6
-1.312, 3.555e-6
-1.311, 3.471e-6
-1.310, 3.404e-6
-1.309, 3.300e-6
-1.308, 3.231e-6
-1.307, 3.125e-6
-1.306, 3.098e-6
-1.305, 3.033e-6
-1.304, 2.995e-6
-1.303, 2.912e-6
-1.302, 2.835e-6
-1.301, 2.832e-6
-1.300, 2.738e-6
-1.299, 2.692e-6
-1.298, 2.636e-6
-1.297, 2.550e-6
-1.296, 2.501e-6
-1.295, 2.476e-6
-1.294, 2.375e-6
-1.293, 2.280e-6
-1.292, 2.211e-6
-1.291, 2.167e-6
-1.290, 2.136e-6
-1.289, 2.083e-6
-1.288, 2.030e-6
-1.287, 1.973e-6
-1.286, 1.922e-6
-1.285, 1.869e-6
-1.284, 1.857e-6
-1.283, 1.799e-6
-1.282, 1.693e-6
-1.281, 1.667e-6
-1.280, 1.673e-6
-1.279, 1.614e-6
-1.278, 1.569e-6
-1.277, 1.530e-6
-1.276, 1.485e-6
-1.275, 1.471e-6
-1.274, 1.445e-6
-1.273, 1.347e-6
-1.272, 1.296e-6
-1.271, 1.281e-6
-1.270, 1.277e-6
-1.269, 1.249e-6
-1.268, 1.188e-6
-1.267, 1.139e-6
-1.266, 1.146e-6
-1.265, 1.067e-6
-1.264, 1.061e-6
-1.263, 1.008e-6
-1.262, 9.854e-7
-1.261, 9.578e-7
-1.260, 9.459e-7
-1.259, 8.828e-7
-1.258, 8.650e-7
-1.257, 8.295e-7
-1.256, 7.822e-7
-1.255, 7.476e-7
-1.254, 7.457e-7
-1.253, 7.023e-7
-1.252, 7.013e-7
-1.251, 6.470e-7
-1.250, 6.312e-7
-1.249, 6.145e-7
-1.248, 5.553e-7
-1.247, 5.572e-7
-1.246, 5.336e-7
-1.245, 4.507e-7
-1.244, 4.724e-7
-1.243, 4.546e-7
-1.242, 4.379e-7
-1.241, 4.319e-7
-1.240, 3.865e-7
-1.239, 3.954e-7
-1.238, 3.303e-7
-1.237, 3.343e-7
-1.236, 3.343e-7
-1.235, 2.652e-7
-1.234, 2.701e-7
-1.233, 2.435e-7
-1.232, 2.326e-7
-1.231, 1.991e-7
-1.230, 1.794e-7
-1.229, 1.636e-7
-1.228, 1.419e-7
-1.227, 1.034e-7
-1.226, 8.070e-8
-1.225, 8.761e-8
-1.224, 7.676e-8
-1.223, 5.801e-8
-1.222, 1.559e-8
-1.221, 8.682e-9
-1.220, 3.532e-8
-1.219, -7.103e-9
-1.218, -6.117e-9
-1.217, -7.222e-8
-1.216, -7.617e-8
-1.215, -6.630e-8
-1.214, -8.800e-8
-1.213, -9.984e-8
-1.212, -1.393e-7
-1.211, -1.433e-7
-1.210, -1.442e-7
-1.209, -1.669e-7
-1.208, -1.936e-7
-1.207, -2.094e-7
-1.206, -2.103e-7
-1.205, -2.271e-7
-1.204, -2.409e-7
-1.203, -2.449e-7
-1.202, -2.932e-7
-1.201, -2.587e-7
-1.200, -2.735e-7
-1.199, -3.199e-7
-1.198, -3.199e-7
-1.197, -3.366e-7
-1.196, -3.327e-7
-1.195, -3.080e-7
-1.194, -3.534e-7
-1.193, -3.712e-7
-1.192, -3.721e-7
-1.191, -4.047e-7
-1.190, -4.008e-7
-1.189, -3.988e-7
-1.188, -4.254e-7
-1.187, -4.195e-7
-1.186, -4.550e-7
-1.185, -4.560e-7
-1.184, -4.511e-7
-1.183, -4.817e-7
-1.182, -5.083e-7
-1.181, -4.560e-7
-1.180, -4.965e-7
-1.179, -4.777e-7
-1.178, -5.113e-7
-1.177, -5.645e-7
-1.176, -5.418e-7
-1.175, -5.537e-7
-1.174, -5.399e-7
-1.173, -5.566e-7
-1.172, -5.527e-7
-1.171, -5.635e-7
-1.170, -5.744e-7
-1.169, -5.833e-7
-1.168, -5.971e-7
-1.167, -5.902e-7
-1.166, -6.208e-7
-1.165, -6.227e-7
-1.164, -6.395e-7
-1.163, -6.425e-7
-1.162, -6.306e-7
-1.161, -6.435e-7
-1.160, -6.701e-7
-1.159, -6.839e-7
-1.158, -6.819e-7
-1.157, -6.780e-7
-1.156, -6.760e-7
-1.155, -7.027e-7
-1.154, -6.908e-7
-1.153, -6.938e-7
-1.152, -7.184e-7
-1.151, -7.303e-7
-1.150, -7.707e-7
-1.149, -7.362e-7
-1.148, -7.559e-7
-1.147, -7.934e-7
-1.146, -7.914e-7
-1.145, -8.043e-7
-1.144, -7.579e-7
-1.143, -7.648e-7
-1.142, -8.378e-7
-1.141, -8.181e-7
-1.140, -8.112e-7
-1.139, -8.309e-7
-1.138, -8.329e-7
-1.137, -8.575e-7
-1.136, -8.487e-7
-1.135, -8.546e-7
-1.134, -8.398e-7
-1.133, -8.536e-7
-1.132, -8.783e-7
-1.131, -9.019e-7
-1.130, -8.941e-7
-1.129, -8.595e-7
-1.128, -8.871e-7
-1.127, -9.167e-7
-1.126, -9.237e-7
-1.125, -9.217e-7
-1.124, -9.384e-7
-1.123, -9.355e-7
-1.122, -9.680e-7
-1.121, -9.483e-7
-1.120, -9.493e-7
-1.119, -9.641e-7
-1.118, -9.799e-7
-1.117, -9.700e-7
-1.116, -9.572e-7
-1.115, -9.740e-7
-1.114, -9.759e-7
-1.113, -1.006e-6
-1.112, -9.967e-7
-1.111, -9.996e-7
-1.110, -1.027e-6
-1.109, -9.996e-7
-1.108, -1.013e-6
-1.107, -1.044e-6
-1.106, -1.035e-6
-1.105, -1.065e-6
-1.104, -1.022e-6
-1.103, -1.051e-6
-1.102, -1.046e-6
-1.101, -1.104e-6
-1.100, -1.055e-6
-1.099, -1.075e-6
-1.098, -1.062e-6
-1.097, -1.082e-6
-1.096, -1.098e-6
-1.095, -1.099e-6
-1.094, -1.095e-6
-1.093, -1.083e-6
-1.092, -1.148e-6
-1.091, -1.117e-6
-1.090, -1.114e-6
-1.089, -1.133e-6
-1.088, -1.132e-6
-1.087, -1.174e-6
-1.086, -1.147e-6
-1.085, -1.154e-6
-1.084, -1.160e-6
-1.083, -1.200e-6
-1.082, -1.179e-6
-1.081, -1.202e-6
-1.080, -1.160e-6
-1.079, -1.226e-6
-1.078, -1.231e-6
-1.077, -1.185e-6
-1.076, -1.227e-6
-1.075, -1.229e-6
-1.074, -1.244e-6
-1.073, -1.225e-6
-1.072, -1.239e-6
-1.071, -1.234e-6
-1.070, -1.257e-6
-1.069, -1.273e-6
-1.068, -1.271e-6
-1.067, -1.289e-6
-1.066, -1.301e-6
-1.065, -1.264e-6
-1.064, -1.265e-6
-1.063, -1.266e-6
-1.062, -1.314e-6
-1.061, -1.298e-6
-1.060, -1.282e-6
-1.059, -1.297e-6
-1.058, -1.299e-6
-1.057, -1.343e-6
-1.056, -1.315e-6
-1.055, -1.321e-6
-1.054, -1.310e-6
-1.053, -1.329e-6
-1.052, -1.316e-6
-1.051, -1.302e-6
-1.050, -1.315e-6
-1.049, -1.352e-6
-1.048, -1.312e-6
-1.047, -1.347e-6
-1.046, -1.341e-6
-1.045, -1.351e-6
-1.044, -1.384e-6
-1.043, -1.334e-6
-1.042, -1.378e-6
-1.041, -1.349e-6
-1.040, -1.358e-6
-1.039, -1.383e-6
-1.038, -1.378e-6
-1.037, -1.397e-6
-1.036, -1.360e-6
-1.035, -1.382e-6
-1.034, -1.367e-6
-1.033, -1.391e-6
-1.032, -1.388e-6
-1.031, -1.389e-6
-1.030, -1.421e-6
-1.029, -1.368e-6
-1.028, -1.381e-6
-1.027, -1.415e-6
-1.026, -1.407e-6
-1.025, -1.399e-6
-1.024, -1.403e-6
-1.023, -1.412e-6
-1.022, -1.449e-6
-1.021, -1.436e-6
-1.020, -1.437e-6
-1.019, -1.435e-6
-1.018, -1.417e-6
-1.017, -1.473e-6
-1.016, -1.428e-6
-1.015, -1.422e-6
-1.014, -1.438e-6
-1.013, -1.461e-6
-1.012, -1.481e-6
-1.011, -1.471e-6
-1.010, -1.438e-6
-1.009, -1.515e-6
-1.008, -1.463e-6
-1.007, -1.493e-6
-1.006, -1.483e-6
-1.005, -1.521e-6
-1.004, -1.511e-6
-1.003, -1.481e-6
-1.002, -1.523e-6
-1.001, -1.508e-6
-1.000, -1.324e-6
-1.001, -1.192e-6
-1.002, -1.082e-6
-1.003, -1.027e-6
-1.004, -1.006e-6
-1.005, -9.375e-7
-1.006, -8.832e-7
-1.007, -8.418e-7
-1.008, -8.220e-7
-1.009, -8.270e-7
-1.010, -7.678e-7
-1.011, -7.125e-7
-1.012, -6.819e-7
-1.013, -6.809e-7
-1.014, -6.504e-7
-1.015, -5.961e-7
-1.016, -5.783e-7
-1.017, -5.320e-7
-1.018, -5.458e-7
-1.019, -5.132e-7
-1.020, -4.886e-7
-1.021, -4.629e-7
-1.022, -4.373e-7
-1.023, -4.244e-7
-1.024, -3.840e-7
-1.025, -3.534e-7
-1.026, -3.337e-7
-1.027, -3.317e-7
-1.028, -3.041e-7
-1.029, -2.981e-7
-1.030, -2.755e-7
-1.031, -2.636e-7
-1.032, -2.222e-7
-1.033, -2.281e-7
-1.034, -2.084e-7
-1.035, -1.650e-7
-1.036, -1.600e-7
-1.037, -1.600e-7
-1.038, -1.393e-7
-1.039, -1.334e-7
-1.040, -9.096e-8
-1.041, -9.491e-8
-1.042, -1.067e-7
-1.043, -7.321e-8
-1.044, -6.827e-8
-1.045, -6.235e-8
-1.046, -3.867e-8
-1.047, -8.090e-9
-1.048, -2.171e-9
-1.049, 2.151e-8
-1.050, 2.762e-9
-1.051, 5.801e-8
-1.052, 3.236e-8
-1.053, 9.550e-8
-1.054, 6.393e-8
-1.055, 7.577e-8
-1.056, 1.044e-7
-1.057, 1.014e-7
-1.058, 1.271e-7
-1.059, 9.452e-8
-1.060, 1.281e-7
-1.061, 1.636e-7
-1.062, 1.882e-7
-1.063, 1.685e-7
-1.064, 1.646e-7
-1.065, 1.981e-7
-1.066, 1.951e-7
-1.067, 2.198e-7
-1.068, 2.178e-7
-1.069, 2.326e-7
-1.070, 2.366e-7
-1.071, 2.376e-7
-1.072, 2.455e-7
-1.073, 2.484e-7
-1.074, 2.820e-7
-1.075, 3.145e-7
-1.076, 2.800e-7
-1.077, 3.303e-7
-1.078, 3.313e-7
-1.079, 3.037e-7
-1.080, 3.283e-7
-1.081, 3.313e-7
-1.082, 3.510e-7
-1.083, 3.520e-7
-1.084, 3.767e-7
-1.085, 3.668e-7
-1.086, 3.865e-7
-1.087, 3.826e-7
-1.088, 4.240e-7
-1.089, 3.925e-7
-1.090, 4.280e-7
-1.091, 4.161e-7
-1.092, 4.477e-7
-1.093, 4.398e-7
-1.094, 4.319e-7
-1.095, 4.734e-7
-1.096, 4.694e-7
-1.097, 4.852e-7
-1.098, 4.763e-7
-1.099, 4.882e-7
-1.100, 4.970e-7
-1.101, 5.138e-7
-1.102, 5.257e-7
-1.103, 5.286e-7
-1.104, 5.355e-7
-1.105, 5.336e-7
-1.106, 5.582e-7
-1.107, 5.483e-7
-1.108, 5.483e-7
-1.109, 5.829e-7
-1.110, 5.750e-7
-1.111, 5.839e-7
-1.112, 6.016e-7
-1.113, 5.888e-7
-1.114, 6.174e-7
-1.115, 6.460e-7
-1.116, 6.135e-7
-1.117, 6.460e-7
-1.118, 6.391e-7
-1.119, 6.480e-7
-1.120, 6.658e-7
-1.121, 6.707e-7
-1.122, 6.766e-7
-1.123, 7.200e-7
-1.124, 6.884e-7
-1.125, 6.944e-7
-1.126, 6.855e-7
-1.127, 7.259e-7
-1.128, 7.289e-7
-1.129, 7.397e-7
-1.130, 7.417e-7
-1.131, 7.397e-7
-1.132, 7.605e-7
-1.133, 7.585e-7
-1.134, 7.703e-7
-1.135, 7.841e-7
-1.136, 7.753e-7
-1.137, 7.743e-7
-1.138, 8.078e-7
-1.139, 7.960e-7
-1.140, 8.266e-7
-1.141, 8.216e-7
-1.142, 8.354e-7
-1.143, 8.522e-7
-1.144, 8.414e-7
-1.145, 8.522e-7
-1.146, 8.759e-7
-1.147, 8.591e-7
-1.148, 8.789e-7
-1.149, 8.621e-7
-1.150, 8.670e-7
-1.151, 8.986e-7
-1.152, 9.252e-7
-1.153, 9.203e-7
-1.154, 8.956e-7
-1.155, 9.242e-7
-1.156, 9.509e-7
-1.157, 9.361e-7
-1.158, 9.726e-7
-1.159, 9.400e-7
-1.160, 9.558e-7
-1.161, 9.726e-7
-1.162, 9.755e-7
-1.163, 1.009e-6
-1.164, 9.706e-7
-1.165, 1.005e-6
-1.166, 9.963e-7
-1.167, 1.024e-6
-1.168, 1.014e-6
-1.169, 1.012e-6
-1.170, 1.046e-6
-1.171, 1.065e-6
-1.172, 1.056e-6
-1.173, 1.058e-6
-1.174, 1.037e-6
-1.175, 1.073e-6
-1.176, 1.094e-6
-1.177, 1.088e-6
-1.178, 1.118e-6
-1.179, 1.099e-6
-1.180, 1.135e-6
-1.181, 1.161e-6
-1.182, 1.117e-6
-1.183, 1.157e-6
-1.184, 1.176e-6
-1.185, 1.165e-6
-1.186, 1.213e-6
-1.187, 1.191e-6
-1.188, 1.186e-6
-1.189, 1.205e-6
-1.190, 1.222e-6
-1.191, 1.282e-6
-1.192, 1.239e-6
-1.193, 1.246e-6
-1.194, 1.264e-6
-1.195, 1.276e-6
-1.196, 1.317e-6
-1.197, 1.284e-6
-1.198, 1.283e-6
-1.199, 1.293e-6
-1.200, 1.321e-6
-1.201, 1.391e-6
-1.202, 1.342e-6
-1.203, 1.365e-6
-1.204, 1.372e-6
-1.205, 1.385e-6
-1.206, 1.425e-6
-1.207, 1.396e-6
-1.208, 1.412e-6
-1.209, 1.427e-6
-1.210, 1.436e-6
-1.211, 1.492e-6
-1.212, 1.473e-6
-1.213, 1.465e-6
-1.214, 1.506e-6
-1.215, 1.523e-6
-1.216, 1.549e-6
-1.217, 1.548e-6
-1.218, 1.574e-6
-1.219, 1.576e-6
-1.220, 1.580e-6
-1.221, 1.613e-6
-1.222, 1.608e-6
-1.223, 1.627e-6
-1.224, 1.659e-6
-1.225, 1.665e-6
-1.226, 1.678e-6
-1.227, 1.679e-6
-1.228, 1.719e-6
-1.229, 1.740e-6
-1.230, 1.767e-6
-1.231, 1.745e-6
-1.232, 1.807e-6
-1.233, 1.807e-6
-1.234, 1.821e-6
-1.235, 1.836e-6
-1.236, 1.868e-6
-1.237, 1.918e-6
-1.238, 1.919e-6
-1.239, 1.930e-6
-1.240, 1.923e-6
-1.241, 1.922e-6
-1.242, 1.970e-6
-1.243, 2.025e-6
-1.244, 2.008e-6
-1.245, 2.061e-6
-1.246, 2.059e-6
-1.247, 2.070e-6
-1.248, 2.128e-6
-1.249, 2.128e-6
-1.250, 2.134e-6
-1.251, 2.161e-6
-1.252, 2.229e-6
-1.253, 2.250e-6
-1.254, 2.256e-6
-1.255, 2.284e-6
-1.256, 2.309e-6
-1.257, 2.356e-6
-1.258, 2.389e-6
-1.259, 2.371e-6
-1.260, 2.413e-6
-1.261, 2.434e-6
-1.262, 2.512e-6
-1.263, 2.522e-6
-1.264, 2.527e-6
-1.265, 2.560e-6
-1.266, 2.605e-6
-1.267, 2.637e-6
-1.268, 2.693e-6
-1.269, 2.701e-6
-1.270, 2.750e-6
-1.271, 2.776e-6
-1.272, 2.829e-6
-1.273, 2.868e-6
-1.274, 2.895e-6
-1.275, 2.925e-6
-1.276, 2.978e-6
-1.277, 3.016e-6
-1.278, 3.032e-6
-1.279, 3.067e-6
-1.280, 3.142e-6
-1.281, 3.155e-6
-1.282, 3.223e-6
-1.283, 3.248e-6
-1.284, 3.306e-6
-1.285, 3.343e-6
-1.286, 3.391e-6
-1.287, 3.455e-6
-1.288, 3.488e-6
-1.289, 3.552e-6
-1.290, 3.604e-6
-1.291, 3.632e-6
-1.292, 3.695e-6
-1.293, 3.794e-6
-1.294, 3.854e-6
-1.295, 3.891e-6
-1.296, 3.928e-6
-1.297, 4.031e-6
-1.298, 4.083e-6
-1.299, 4.156e-6
-1.300, 4.207e-6
-1.301, 4.243e-6
-1.302, 4.341e-6
-1.303, 4.360e-6
-1.304, 4.408e-6
-1.305, 4.477e-6
-1.306, 4.554e-6
-1.307, 4.655e-6
-1.308, 4.682e-6
-1.309, 4.736e-6
-1.310, 4.804e-6
-1.311, 4.891e-6
-1.312, 5.017e-6
-1.313, 5.064e-6
-1.314, 5.086e-6
-1.315, 5.186e-6
-1.316, 5.262e-6
-1.317, 5.366e-6
-1.318, 5.496e-6
-1.319, 5.514e-6
-1.320, 5.651e-6
-1.321, 5.706e-6
-1.322, 5.827e-6
-1.323, 5.883e-6
-1.324, 5.957e-6
-1.325, 6.042e-6
-1.326, 6.219e-6
-1.327, 6.295e-6
-1.328, 6.368e-6
-1.329, 6.497e-6
-1.330, 6.597e-6
-1.331, 6.680e-6
-1.332, 6.802e-6
-1.333, 6.898e-6
-1.334, 6.980e-6
-1.335, 7.114e-6
-1.336, 7.260e-6
-1.337, 7.368e-6
-1.338, 7.474e-6
-1.339, 7.607e-6
-1.340, 7.750e-6
-1.341, 7.903e-6
-1.342, 8.023e-6
-1.343, 8.145e-6
-1.344, 8.305e-6
-1.345, 8.393e-6
-1.346, 8.520e-6
-1.347, 8.723e-6
-1.348, 8.813e-6
-1.349, 8.953e-6
-1.350, 9.059e-6
-1.351, 9.197e-6
-1.352, 9.405e-6
-1.353, 9.531e-6
-1.354, 9.660e-6
-1.355, 9.804e-6
-1.356, 1.005e-5
-1.357, 1.019e-5
-1.358, 1.038e-5
-1.359, 1.060e-5
-1.360, 1.075e-5
-1.361, 1.089e-5
-1.362, 1.112e-5
-1.363, 1.126e-5
-1.364, 1.140e-5
-1.365, 1.156e-5
-1.366, 1.180e-5
-1.367, 1.193e-5
-1.368, 1.211e-5
-1.369, 1.234e-5
-1.370, 1.254e-5
-1.371, 1.273e-5
-1.372, 1.291e-5
-1.373, 1.308e-5
-1.374, 1.331e-5
-1.375, 1.348e-5
-1.376, 1.369e-5
-1.377, 1.388e-5
-1.378, 1.410e-5
-1.379, 1.442e-5
-1.380, 1.456e-5
-1.381, 1.481e-5
-1.382, 1.503e-5
-1.383, 1.528e-5
-1.384, 1.550e-5
-1.385, 1.571e-5
-1.386, 1.592e-5
-1.387, 1.606e-5
-1.388, 1.632e-5
-1.389, 1.658e-5
-1.390, 1.677e-5
-1.391, 1.701e-5
-1.392, 1.725e-5
-1.393, 1.754e-5
-1.394, 1.778e-5
-1.395, 1.810e-5
-1.396, 1.833e-5
-1.397, 1.863e-5
-1.398, 1.891e-5
-1.399, 1.917e-5
-1.400, 1.943e-5
-1.401, 1.970e-5
-1.402, 2.004e-5
-1.403, 2.035e-5
-1.404, 2.063e-5
-1.405, 2.094e-5
-1.406, 2.122e-5
-1.407, 2.148e-5
-1.408, 2.179e-5
-1.409, 2.212e-5
-1.410, 2.233e-5
-1.411, 2.263e-5
-1.412, 2.294e-5
-1.413, 2.335e-5
-1.414, 2.367e-5
-1.415, 2.407e-5
-1.416, 2.445e-5
-1.417, 2.479e-5
-1.418, 2.513e-5
-1.419, 2.543e-5
-1.420, 2.578e-5
-1.421, 2.602e-5
-1.422, 2.636e-5
-1.423, 2.670e-5
-1.424, 2.705e-5
-1.425, 2.741e-5
-1.426, 2.781e-5
-1.427, 2.819e-5
-1.428, 2.858e-5
-1.429, 2.890e-5
-1.430, 2.935e-5
-1.431, 2.977e-5
-1.432, 3.016e-5
-1.433, 3.050e-5
-1.434, 3.089e-5
-1.435, 3.132e-5
-1.436, 3.178e-5
-1.437, 3.217e-5
-1.438, 3.253e-5
-1.439, 3.292e-5
-1.440, 3.342e-5
-1.441, 3.383e-5
-1.442, 3.432e-5
-1.443, 3.463e-5
-1.444, 3.509e-5
-1.445, 3.556e-5
-1.446, 3.602e-5
-1.447, 3.643e-5
-1.448, 3.704e-5
-1.449, 3.751e-5
-1.450, 3.801e-5
-1.451, 3.843e-5
-1.452, 3.893e-5
-1.453, 3.932e-5
-1.454, 3.982e-5
-1.455, 4.042e-5
-1.456, 4.110e-5
-1.457, 4.152e-5
-1.458, 4.223e-5
-1.459, 4.278e-5
-1.460, 4.316e-5
-1.461, 4.378e-5
-1.462, 4.415e-5
-1.463, 4.468e-5
-1.464, 4.524e-5
-1.465, 4.600e-5
-1.466, 4.642e-5
-1.467, 4.709e-5
-1.468, 4.769e-5
-1.469, 4.827e-5
-1.470, 4.908e-5
-1.471, 4.998e-5
-1.472, 5.058e-5
-1.473, 5.097e-5
-1.474, 5.161e-5
-1.475, 5.231e-5
-1.476, 5.298e-5
-1.477, 5.368e-5
-1.478, 5.438e-5
-1.479, 5.510e-5
-1.480, 5.600e-5
-1.481, 5.648e-5
-1.482, 5.719e-5
-1.483, 5.803e-5
-1.484, 5.886e-5
-1.485, 5.962e-5
-1.486, 6.040e-5
-1.487, 6.127e-5
-1.488, 6.210e-5
-1.489, 6.284e-5
-1.490, 6.362e-5
-1.491, 6.446e-5
-1.492, 6.546e-5
-1.493, 6.657e-5
-1.494, 6.756e-5
-1.495, 6.846e-5
-1.496, 6.945e-5
-1.497, 7.033e-5
-1.498, 7.130e-5
-1.499, 7.218e-5
-1.500, 7.320e-5
-1.501, 7.408e-5
-1.502, 7.523e-5
-1.503, 7.623e-5
-1.504, 7.702e-5
-1.505, 7.795e-5
-1.506, 7.902e-5
-1.507, 8.013e-5
-1.508, 8.137e-5
-1.509, 8.258e-5
-1.510, 8.380e-5
-1.511, 8.510e-5
-1.512, 8.622e-5
-1.513, 8.745e-5
-1.514, 8.867e-5
-1.515, 8.990e-5
-1.516, 9.113e-5
-1.517, 9.252e-5
-1.518, 9.378e-5
-1.519, 9.515e-5
-1.520, 9.639e-5
-1.521, 9.786e-5
-1.522, 9.921e-5
-1.523, 1.008e-4
-1.524, 1.022e-4
-1.525, 1.036e-4
-1.526, 1.050e-4
-1.527, 1.065e-4
-1.528, 1.082e-4
-1.529, 1.098e-4
-1.530, 1.110e-4
-1.531, 1.126e-4
-1.532, 1.142e-4
-1.533, 1.159e-4
-1.534, 1.175e-4
-1.535, 1.193e-4
-1.536, 1.211e-4
-1.537, 1.230e-4
-1.538, 1.248e-4
-1.539, 1.266e-4
-1.540, 1.284e-4
-1.541, 1.303e-4
-1.542, 1.321e-4
-1.543, 1.341e-4
-1.544, 1.361e-4
-1.545, 1.381e-4
-1.546, 1.400e-4
-1.547, 1.416e-4
-1.548, 1.445e-4
-1.549, 1.465e-4
-1.550, 1.484e-4
-1.551, 1.502e-4
-1.552, 1.526e-4
-1.553, 1.549e-4
-1.554, 1.573e-4
-1.555, 1.597e-4
-1.556, 1.622e-4
-1.557, 1.647e-4
-1.558, 1.673e-4
-1.559, 1.700e-4
-1.560, 1.725e-4
-1.561, 1.753e-4
-1.562, 1.778e-4
-1.563, 1.805e-4
-1.564, 1.834e-4
-1.565, 1.862e-4
-1.566, 1.892e-4
-1.567, 1.921e-4
-1.568, 1.951e-4
-1.569, 1.982e-4
-1.570, 2.011e-4
-1.571, 2.041e-4
-1.572, 2.074e-4
-1.573, 2.107e-4
-1.574, 2.140e-4
-1.575, 2.173e-4
-1.576, 2.208e-4
-1.577, 2.243e-4
-1.578, 2.278e-4
-1.579, 2.314e-4
-1.580, 2.348e-4
-1.581, 2.382e-4
-1.582, 2.422e-4
-1.583, 2.462e-4
-1.584, 2.502e-4
-1.585, 2.538e-4
-1.586, 2.577e-4
-1.587, 2.618e-4
-1.588, 2.655e-4
-1.589, 2.693e-4
-1.590, 2.732e-4
-1.591, 2.772e-4
-1.592, 2.820e-4
-1.593, 2.870e-4
-1.594, 2.914e-4
-1.595, 2.958e-4
-1.596, 3.004e-4
-1.597, 3.053e-4
-1.598, 3.106e-4
-1.599, 3.157e-4
-1.600, 3.162e-4
-1.599, 3.115e-4
-1.598, 3.078e-4
-1.597, 3.033e-4
-1.596, 2.988e-4
-1.595, 2.945e-4
-1.594, 2.901e-4
-1.593, 2.860e-4
-1.592, 2.822e-4
-1.591, 2.780e-4
-1.590, 2.737e-4
-1.589, 2.695e-4
-1.588, 2.656e-4
-1.587, 2.623e-4
-1.586, 2.581e-4
-1.585, 2.539e-4
-1.584, 2.499e-4
-1.583, 2.463e-4
-1.582, 2.425e-4
-1.581, 2.389e-4
-1.580, 2.349e-4
-1.579, 2.311e-4
-1.578, 2.271e-4
-1.577, 2.235e-4
-1.576, 2.202e-4
-1.575, 2.169e-4
-1.574, 2.133e-4
-1.573, 2.094e-4
-1.572, 2.062e-4
-1.571, 2.029e-4
-1.570, 1.994e-4
-1.569, 1.960e-4
-1.568, 1.929e-4
-1.567, 1.897e-4
-1.566, 1.867e-4
-1.565, 1.836e-4
-1.564, 1.806e-4
-1.563, 1.776e-4
-1.562, 1.746e-4
-1.561, 1.716e-4
-1.560, 1.686e-4
-1.559, 1.664e-4
-1.558, 1.639e-4
-1.557, 1.611e-4
-1.556, 1.584e-4
-1.555, 1.559e-4
-1.554, 1.531e-4
-1.553, 1.504e-4
-1.552, 1.480e-4
-1.551, 1.456e-4
-1.550, 1.433e-4
-1.549, 1.407e-4
-1.548, 1.381e-4
-1.547, 1.355e-4
-1.546, 1.332e-4
-1.545, 1.309e-4
-1.544, 1.286e-4
-1.543, 1.264e-4
-1.542, 1.243e-4
-1.541, 1.222e-4
-1.540, 1.201e-4
-1.539, 1.180e-4
-1.538, 1.161e-4
-1.537, 1.140e-4
-1.536, 1.120e-4
-1.535, 1.101e-4
-1.534, 1.083e-4
-1.533, 1.063e-4
-1.532, 1.046e-4
-1.531, 1.028e-4
-1.530, 1.010e-4
-1.529, 9.926e-5
-1.528, 9.759e-5
-1.527, 9.591e-5
-1.526, 9.416e-5
-1.525, 9.251e-5
-1.524, 9.094e-5
-1.523, 8.941e-5
-1.522, 8.789e-5
-1.521, 8.630e-5
-1.520, 8.467e-5
-1.519, 8.316e-5
-1.518, 8.194e-5
-1.517, 8.063e-5
-1.516, 7.918e-5
-1.515, 7.784e-5
-1.514, 7.653e-5
-1.513, 7.525e-5
-1.512, 7.393e-5
-1.511, 7.256e-5
-1.510, 7.133e-5
-1.509, 7.014e-5
-1.508, 6.888e-5
-1.507, 6.766e-5
-1.506, 6.657e-5
-1.505, 6.551e-5
-1.504, 6.449e-5
-1.503, 6.335e-5
-1.502, 6.228e-5
-1.501, 6.120e-5
-1.500, 6.019e-5
-1.499, 5.912e-5
-1.498, 5.826e-5
-1.497, 5.714e-5
-1.496, 5.612e-5
-1.495, 5.521e-5
-1.494, 5.423e-5
-1.493, 5.334e-5
-1.492, 5.248e-5
-1.491, 5.155e-5
-1.490, 5.063e-5
-1.489, 4.970e-5
-1.488, 4.886e-5
-1.487, 4.800e-5
-1.486, 4.717e-5
-1.485, 4.623e-5
-1.484, 4.533e-5
-1.483, 4.459e-5
-1.482, 4.385e-5
-1.481, 4.307e-5
-1.480, 4.238e-5
-1.479, 4.160e-5
-1.478, 4.080e-5
-1.477, 4.016e-5
-1.476, 3.952e-5
-1.475, 3.883e-5
-1.474, 3.813e-5
-1.473, 3.750e-5
-1.472, 3.704e-5
-1.471, 3.654e-5
-1.470, 3.590e-5
-1.469, 3.527e-5
-1.468, 3.462e-5
-1.467, 3.396e-5
-1.466, 3.336e-5
-1.465, 3.282e-5
-1.464, 3.224e-5
-1.463, 3.180e-5
-1.462, 3.139e-5
-1.461, 3.096e-5
-1.460, 3.034e-5
-1.459, 2.991e-5
-1.458, 2.934e-5
-1.457, 2.888e-5
-1.456, 2.840e-5
-1.455, 2.791e-5
-1.454, 2.739e-5
-1.453, 2.695e-5
-1.452, 2.656e-5
-1.451, 2.618e-5
-1.450, 2.572e-5
-1.449, 2.528e-5
-1.448, 2.482e-5
-1.447, 2.454e-5
-1.446, 2.414e-5
-1.445, 2.367e-5
-1.444, 2.331e-5
-1.443, 2.293e-5
-1.442, 2.257e-5
-1.441, 2.220e-5
-1.440, 2.184e-5
-1.439, 2.143e-5
-1.438, 2.111e-5
-1.437, 2.074e-5
-1.436, 2.040e-5
-1.435, 2.010e-5
-1.434, 1.979e-5
-1.433, 1.943e-5
-1.432, 1.916e-5
-1.431, 1.897e-5
-1.430, 1.858e-5
-1.429, 1.822e-5
-1.428, 1.793e-5
-1.427, 1.768e-5
-1.426, 1.738e-5
-1.425, 1.701e-5
-1.424, 1.677e-5
-1.423, 1.658e-5
-1.422, 1.633e-5
-1.421, 1.601e-5
-1.420, 1.572e-5
-1.419, 1.551e-5
-1.418, 1.517e-5
-1.417, 1.503e-5
-1.416, 1.481e-5
-1.415, 1.457e-5
-1.414, 1.431e-5
-1.413, 1.400e-5
-1.412, 1.382e-5
-1.411, 1.361e-5
-1.410, 1.345e-5
-1.409, 1.321e-5
-1.408, 1.298e-5
-1.407, 1.277e-5
-1.406, 1.256e-5
-1.405, 1.240e-5
-1.404, 1.215e-5
-1.403, 1.194e-5
-1.402, 1.177e-5
-1.401, 1.159e-5
-1.400, 1.141e-5
-1.399, 1.121e-5
-1.398, 1.098e-5
-1.397, 1.077e-5
-1.396, 1.064e-5
-1.395, 1.044e-5
-1.394, 1.027e-5
-1.393, 1.011e-5
-1.392, 9.937e-6
-1.391, 9.795e-6
-1.390, 9.622e-6
-1.389, 9.364e-6
-1.388, 9.216e-6
-1.387, 9.088e-6
-1.386, 8.990e-6
-1.385, 8.887e-6
-1.384, 8.710e-6
-1.383, 8.581e-6
-1.382, 8.396e-6
-1.381, 8.294e-6
-1.380, 8.112e-6
-1.379, 7.971e-6
-1.378, 7.811e-6
-1.377, 7.715e-6
-1.376, 7.571e-6
-1.375, 7.417e-6
-1.374, 7.313e-6
-1.373, 7.179e-6
-1.372, 7.045e-6
-1.371, 6.940e-6
-1.370, 6.881e-6
-1.369, 6.726e-6
-1.368, 6.627e-6
-1.367, 6.579e-6
-1.366, 6.441e-6
-1.365, 6.336e-6
-1.364, 6.226e-6
-1.363, 6.118e-6
-1.362, 6.000e-6
-1.361, 5.898e-6
-1.360, 5.795e-6
-1.359, 5.687e-6
-1.358, 5.625e-6
-1.357, 5.549e-6
-1.356, 5.448e-6
-1.355, 5.340e-6
-1.354, 5.243e-6
-1.353, 5.181e-6
-1.352, 5.075e-6
-1.351, 5.009e-6
-1.350, 4.886e-6
-1.349, 4.824e-6
-1.348, 4.777e-6
-1.347, 4.670e-6
-1.346, 4.575e-6
-1.345, 4.488e-6
-1.344, 4.385e-6
-1.343, 4.333e-6
-1.342, 4.237e-6
-1.341, 4.168e-6
-1.340, 4.030e-6
-1.339, 4.027e-6
-1.338, 3.954e-6
-1.337, 3.873e-6
-1.336, 3.835e-6
-1.335, 3.758e-6
-1.334, 3.694e-6
-1.333, 3.616e-6
-1.332, 3.588e-6
-1.331, 3.466e-6
-1.330, 3.407e-6
-1.329, 3.381e-6
-1.328, 3.330e-6
-1.327, 3.191e-6
-1.326, 3.144e-6
-1.325, 3.090e-6
-1.324, 3.040e-6
-1.323, 2.977e-6
-1.322, 2.907e-6
-1.321, 2.853e-6
-1.320, 2.820e-6
-1.319, 2.750e-6
-1.318, 2.700e-6
-1.317, 2.671e-6
-1.316, 2.604e-6
-1.315, 2.494e-6
-1.314, 2.473e-6
-1.313, 2.418e-6
-1.312, 2.362e-6
-1.311, 2.346e-6
-1.310, 2.272e-6
-1.309, 2.224e-6
-1.308, 2.184e-6
-1.307, 2.148e-6
-1.306, 2.082e-6
-1.305, 1.998e-6
-1.304, 1.957e-6
-1.303, 1.936e-6
-1.302, 1.911e-6
-1.301, 1.843e-6
-1.300, 1.754e-6
-1.299, 1.709e-6
-1.298, 1.663e-6
-1.297, 1.647e-6
-1.296, 1.638e-6
-1.295, 1.579e-6
-1.294, 1.543e-6
-1.293, 1.523e-6
-1.292, 1.495e-6
-1.291, 1.448e-6
-1.290, 1.372e-6
-1.289, 1.322e-6
-1.288, 1.344e-6
-1.287, 1.263e-6
-1.286, 1.246e-6
-1.285, 1.221e-6
-1.284, 1.195e-6
-1.283, 1.133e-6
-1.282, 1.110e-6
-1.281, 1.115e-6
-1.280, 1.052e-6
-1.279, 1.027e-6
-1.278, 1.024e-6
-1.277, 9.420e-7
-1.276, 9.371e-7
-1.275, 8.986e-7
-1.274, 8.631e-7
-1.273, 8.285e-7
-1.272, 8.059e-7
-1.271, 7.891e-7
-1.270, 7.427e-7
-1.269, 7.092e-7
-1.268, 7.309e-7
-1.267, 6.658e-7
-1.266, 6.569e-7
-1.265, 6.273e-7
-1.264, 5.858e-7
-1.263, 5.770e-7
-1.262, 5.681e-7
-1.261, 5.168e-7
-1.260, 5.197e-7
-1.259, 4.813e-7
-1.258, 4.615e-7
-1.257, 4.467e-7
-1.256, 4.379e-7
-1.255, 3.994e-7
-1.254, 3.767e-7
-1.253, 3.402e-7
-1.252, 3.027e-7
-1.251, 3.126e-7
-1.250, 2.889e-7
-1.249, 2.741e-7
-1.248, 2.741e-7
-1.247, 2.247e-7
-1.246, 1.922e-7
-1.245, 1.991e-7
-1.244, 1.498e-7
-1.243, 1.527e-7
-1.242, 1.271e-7
-1.241, 1.073e-7
-1.240, 1.300e-7
-1.239, 5.801e-8
-1.238, 7.972e-8
-1.237, 3.137e-8
-1.236, 3.631e-8
-1.235, 3.236e-8
-1.234, -1.006e-8
-1.233, -1.598e-8
-1.232, -2.388e-8
-1.231, -2.388e-8
-1.230, -5.249e-8
-1.229, -1.196e-7
-1.228, -9.294e-8
-1.227, -1.265e-7
-1.226, -1.018e-7
-1.225, -1.511e-7
-1.224, -1.827e-7
-1.223, -1.383e-7
-1.222, -1.807e-7
-1.221, -1.413e-7
-1.220, -1.936e-7
-1.219, -2.399e-7
-1.218, -2.133e-7
-1.217, -2.380e-7
-1.216, -2.518e-7
-1.215, -2.646e-7
-1.214, -2.646e-7
-1.213, -2.686e-7
-1.212, -2.991e-7
-1.211, -3.051e-7
-1.210, -3.060e-7
-1.209, -3.139e-7
-1.208, -2.991e-7
-1.207, -3.435e-7
-1.206, -3.495e-7
-1.205, -3.495e-7
-1.204, -3.869e-7
-1.203, -3.840e-7
-1.202, -4.136e-7
-1.201, -4.027e-7
-1.200, -4.057e-7
-1.199, -3.988e-7
-1.198, -4.353e-7
-1.197, -4.323e-7
-1.196, -4.215e-7
-1.195, -4.392e-7
-1.194, -4.767e-7
-1.193, -5.024e-7
-1.192, -4.757e-7
-1.191, -4.757e-7
-1.190, -5.122e-7
-1.189, -5.251e-7
-1.188, -5.320e-7
-1.187, -5.428e-7
-1.186, -5.280e-7
-1.185, -5.576e-7
-1.184, -5.793e-7
-1.183, -5.586e-7
-1.182, -5.734e-7
-1.181, -5.922e-7
-1.180, -6.198e-7
-1.179, -6.020e-7
-1.178, -6.089e-7
-1.177, -6.208e-7
-1.176, -6.474e-7
-1.175, -6.523e-7
-1.174, -6.336e-7
-1.173, -6.583e-7
-1.172, -6.602e-7
-1.171, -6.879e-7
-1.170, -6.790e-7
-1.169, -6.957e-7
-1.168, -6.928e-7
-1.167, -7.234e-7
-1.166, -7.086e-7
-1.165, -7.204e-7
-1.164, -7.342e-7
-1.163, -7.549e-7
-1.162, -7.451e-7
-1.161, -7.500e-7
-1.160, -7.382e-7
-1.159, -7.836e-7
-1.158, -7.914e-7
-1.157, -7.845e-7
-1.156, -7.914e-7
-1.155, -7.934e-7
-1.154, -7.964e-7
-1.153, -8.003e-7
-1.152, -8.033e-7
-1.151, -8.477e-7
-1.150, -8.536e-7
-1.149, -8.575e-7
-1.148, -8.723e-7
-1.147, -8.575e-7
-1.146, -8.585e-7
-1.145, -8.654e-7
-1.144, -8.714e-7
-1.143, -8.753e-7
-1.142, -8.793e-7
-1.141, -8.723e-7
-1.140, -8.921e-7
-1.139, -9.069e-7
-1.138, -9.227e-7
-1.137, -9.148e-7
-1.136, -9.217e-7
-1.135, -9.069e-7
-1.134, -9.582e-7
-1.133, -9.227e-7
-1.132, -9.542e-7
-1.131, -9.602e-7
-1.130, -9.690e-7
-1.129, -9.779e-7
-1.128, -9.868e-7
-1.127, -9.878e-7
-1.126, -9.976e-7
-1.125, -9.779e-7
-1.124, -1.031e-6
-1.123, -1.002e-6
-1.122, -1.026e-6
-1.121, -1.041e-6
-1.120, -1.060e-6
-1.119, -1.054e-6
-1.118, -1.056e-6
-1.117, -1.054e-6
-1.116, -1.082e-6
-1.115, -1.091e-6
-1.114, -1.090e-6
-1.113, -1.076e-6
-1.112, -1.112e-6
-1.111, -1.119e-6
-1.110, -1.143e-6
-1.109, -1.134e-6
-1.108, -1.153e-6
-1.107, -1.153e-6
-1.106, -1.139e-6
-1.105, -1.157e-6
-1.104, -1.185e-6
-1.103, -1.186e-6
-1.102, -1.187e-6
-1.101, -1.184e-6
-1.100, -1.210e-6
-1.099, -1.213e-6
-1.098, -1.222e-6
-1.097, -1.226e-6
-1.096, -1.224e-6
-1.095, -1.201e-6
-1.094, -1.244e-6
-1.093, -1.236e-6
-1.092, -1.261e-6
-1.091, -1.241e-6
-1.090, -1.259e-6
-1.089, -1.292e-6
-1.088, -1.287e-6
-1.087, -1.273e-6
-1.086, -1.295e-6
-1.085, -1.286e-6
-1.084, -1.300e-6
-1.083, -1.310e-6
-1.082, -1.314e-6
-1.081, -1.332e-6
-1.080, -1.339e-6
-1.079, -1.341e-6
-1.078, -1.345e-6
-1.077, -1.314e-6
-1.076, -1.338e-6
-1.075, -1.359e-6
-1.074, -1.366e-6
-1.073, -1.383e-6
-1.072, -1.367e-6
-1.071, -1.367e-6
-1.070, -1.371e-6
-1.069, -1.389e-6
-1.068, -1.421e-6
-1.067, -1.397e-6
-1.066, -1.382e-6
-1.065, -1.415e-6
-1.064, -1.421e-6
-1.063, -1.440e-6
-1.062, -1.389e-6
-1.061, -1.433e-6
-1.060, -1.459e-6
-1.059, -1.441e-6
-1.058, -1.465e-6
-1.057, -1.448e-6
-1.056, -1.466e-6
-1.055, -1.454e-6
-1.054, -1.438e-6
-1.053, -1.470e-6
-1.052, -1.460e-6
-1.051, -1.488e-6
-1.050, -1.450e-6
-1.049, -1.489e-6
-1.048, -1.502e-6
-1.047, -1.485e-6
-1.046, -1.488e-6
-1.045, -1.514e-6
-1.044, -1.504e-6
-1.043, -1.517e-6
-1.042, -1.508e-6
-1.041, -1.532e-6
-1.040, -1.524e-6
-1.039, -1.524e-6
-1.038, -1.501e-6
-1.037, -1.534e-6
-1.036, -1.532e-6
-1.035, -1.524e-6
-1.034, -1.541e-6
-1.033, -1.576e-6
-1.032, -1.543e-6
-1.031, -1.528e-6
-1.030, -1.542e-6
-1.029, -1.572e-6
-1.028, -1.541e-6
-1.027, -1.551e-6
-1.026, -1.557e-6
-1.025, -1.551e-6
-1.024, -1.574e-6
-1.023, -1.578e-6
-1.022, -1.568e-6
-1.021, -1.606e-6
-1.020, -1.571e-6
-1.019, -1.614e-6
-1.018, -1.575e-6
-1.017, -1.596e-6
-1.016, -1.603e-6
-1.015, -1.572e-6
-1.014, -1.603e-6
-1.013, -1.605e-6
-1.012, -1.597e-6
-1.011, -1.598e-6
-1.010, -1.598e-6
-1.009, -1.639e-6
-1.008, -1.597e-6
-1.007, -1.617e-6
-1.006, -1.618e-6
-1.005, -1.627e-6
-1.004, -1.625e-6
-1.003, -1.618e-6
-1.002, -1.633e-6
-1.001, -1.634e-6
-1.000, -1.443e-6
-1.001, -1.303e-6
-1.002, -1.223e-6
-1.003, -1.146e-6
-1.004, -1.078e-6
-1.005, -1.028e-6
-1.006, -1.035e-6
-1.007, -9.700e-7
-1.008, -8.911e-7
-1.009, -8.714e-7
-1.010, -8.220e-7
-1.011, -8.102e-7
-1.012, -7.836e-7
-1.013, -7.244e-7
-1.014, -7.313e-7
-1.015, -6.721e-7
-1.016, -6.514e-7
-1.017, -6.770e-7
-1.018, -5.991e-7
-1.019, -5.833e-7
-1.020, -5.665e-7
-1.021, -5.626e-7
-1.022, -5.409e-7
-1.023, -4.994e-7
-1.024, -4.501e-7
-1.025, -4.659e-7
-1.026, -4.294e-7
-1.027, -4.313e-7
-1.028, -3.968e-7
-1.029, -3.781e-7
-1.030, -3.544e-7
-1.031, -3.366e-7
-1.032, -3.623e-7
-1.033, -3.218e-7
-1.034, -2.853e-7
-1.035, -2.745e-7
-1.036, -2.666e-7
-1.037, -2.735e-7
-1.038, -2.271e-7
-1.039, -2.182e-7
-1.040, -1.965e-7
-1.041, -1.877e-7
-1.042, -1.719e-7
-1.043, -1.423e-7
-1.044, -1.363e-7
-1.045, -1.186e-7
-1.046, -9.886e-8
-1.047, -1.058e-7
-1.048, -9.096e-8
-1.049, -6.827e-8
-1.050, -5.051e-8
-1.051, -5.347e-8
-1.052, -7.025e-8
-1.053, -9.077e-9
-1.054, -7.103e-9
-1.055, -7.103e-9
-1.056, -2.684e-8
-1.057, 3.729e-8
-1.058, 5.308e-8
-1.059, 5.505e-8
-1.060, 4.025e-8
-1.061, 8.564e-8
-1.062, 5.209e-8
-1.063, 9.156e-8
-1.064, 1.330e-7
-1.065, 1.093e-7
-1.066, 1.290e-7
-1.067, 1.172e-7
-1.068, 1.567e-7
-1.069, 1.508e-7
-1.070, 1.902e-7
-1.071, 1.803e-7
-1.072, 1.882e-7
-1.073, 1.873e-7
-1.074, 1.991e-7
-1.075, 2.178e-7
-1.076, 2.514e-7
-1.077, 1.981e-7
-1.078, 2.307e-7
-1.079, 2.711e-7
-1.080, 2.514e-7
-1.081, 2.741e-7
-1.082, 2.593e-7
-1.083, 2.830e-7
-1.084, 2.889e-7
-1.085, 3.076e-7
-1.086, 3.007e-7
-1.087, 2.830e-7
-1.088, 3.392e-7
-1.089, 3.224e-7
-1.090, 3.323e-7
-1.091, 3.678e-7
-1.092, 3.648e-7
-1.093, 3.698e-7
-1.094, 3.885e-7
-1.095, 3.668e-7
-1.096, 3.915e-7
-1.097, 3.698e-7
-1.098, 4.152e-7
-1.099, 4.142e-7
-1.100, 4.171e-7
-1.101, 4.083e-7
-1.102, 4.457e-7
-1.103, 4.526e-7
-1.104, 4.379e-7
-1.105, 4.655e-7
-1.106, 4.694e-7
-1.107, 4.753e-7
-1.108, 4.882e-7
-1.109, 4.862e-7
-1.110, 5.188e-7
-1.111, 5.089e-7
-1.112, 4.882e-7
-1.113, 5.079e-7
-1.114, 5.464e-7
-1.115, 5.355e-7
-1.116, 5.138e-7
-1.117, 5.385e-7
-1.118, 5.631e-7
-1.119, 5.612e-7
-1.120, 5.720e-7
-1.121, 5.799e-7
-1.122, 5.760e-7
-1.123, 5.937e-7
-1.124, 5.622e-7
-1.125, 6.164e-7
-1.126, 6.135e-7
-1.127, 6.263e-7
-1.128, 6.095e-7
-1.129, 6.283e-7
-1.130, 6.588e-7
-1.131, 6.085e-7
-1.132, 6.243e-7
-1.133, 6.825e-7
-1.134, 6.519e-7
-1.135, 6.746e-7
-1.136, 7.023e-7
-1.137, 6.993e-7
-1.138, 7.032e-7
-1.139, 6.815e-7
-1.140, 7.042e-7
-1.141, 7.230e-7
-1.142, 7.437e-7
-1.143, 7.309e-7
-1.144, 7.615e-7
-1.145, 7.496e-7
-1.146, 7.476e-7
-1.147, 7.802e-7
-1.148, 7.654e-7
-1.149, 7.841e-7
-1.150, 7.693e-7
-1.151, 8.137e-7
-1.152, 8.206e-7
-1.153, 8.305e-7
-1.154, 8.128e-7
-1.155, 8.354e-7
-1.156, 8.345e-7
-1.157, 8.276e-7
-1.158, 8.483e-7
-1.159, 8.818e-7
-1.160, 8.798e-7
-1.161, 8.581e-7
-1.162, 8.946e-7
-1.163, 8.907e-7
-1.164, 9.035e-7
-1.165, 8.848e-7
-1.166, 8.956e-7
-1.167, 9.233e-7
-1.168, 9.203e-7
-1.169, 9.173e-7
-1.170, 9.607e-7
-1.171, 9.903e-7
-1.172, 9.430e-7
-1.173, 9.598e-7
-1.174, 9.982e-7
-1.175, 1.015e-6
-1.176, 9.834e-7
-1.177, 1.035e-6
-1.178, 1.033e-6
-1.179, 1.041e-6
-1.180, 1.022e-6
-1.181, 1.055e-6
-1.182, 1.052e-6
-1.183, 1.033e-6
-1.184, 1.081e-6
-1.185, 1.059e-6
-1.186, 1.110e-6
-1.187, 1.072e-6
-1.188, 1.067e-6
-1.189, 1.124e-6
-1.190, 1.093e-6
-1.191, 1.125e-6
-1.192, 1.135e-6
-1.193, 1.129e-6
-1.194, 1.174e-6
-1.195, 1.160e-6
-1.196, 1.185e-6
-1.197, 1.210e-6
-1.198, 1.196e-6
-1.199, 1.204e-6
-1.200, 1.207e-6
-1.201, 1.261e-6
-1.202, 1.215e-6
-1.203, 1.240e-6
-1.204, 1.279e-6
-1.205, 1.270e-6
-1.206, 1.296e-6
-1.207, 1.306e-6
-1.208, 1.312e-6
-1.209, 1.331e-6
-1.210, 1.312e-6
-1.211, 1.310e-6
-1.212, 1.359e-6
-1.213, 1.373e-6
-1.214, 1.355e-6
-1.215, 1.378e-6
-1.216, 1.428e-6
-1.217, 1.394e-6
-1.218, 1.429e-6
-1.219, 1.465e-6
-1.220, 1.471e-6
-1.221, 1.480e-6
-1.222, 1.465e-6
-1.223, 1.551e-6
-1.224, 1.531e-6
-1.225, 1.508e-6
-1.226, 1.577e-6
-1.227, 1.543e-6
-1.228, 1.579e-6
-1.229, 1.593e-6
-1.230, 1.618e-6
-1.231, 1.658e-6
-1.232, 1.651e-6
-1.233, 1.668e-6
-1.234, 1.717e-6
-1.235, 1.712e-6
-1.236, 1.711e-6
-1.237, 1.743e-6
-1.238, 1.768e-6
-1.239, 1.823e-6
-1.240, 1.787e-6
-1.241, 1.826e-6
-1.242, 1.860e-6
-1.243, 1.856e-6
-1.244, 1.855e-6
-1.245, 1.918e-6
-1.246, 1.932e-6
-1.247, 1.945e-6
-1.248, 1.963e-6
-1.249, 1.988e-6
-1.250, 2.014e-6
-1.251, 2.031e-6
-1.252, 2.048e-6
-1.253, 2.073e-6
-1.254, 2.121e-6
-1.255, 2.131e-6
-1.256, 2.162e-6
-1.257, 2.185e-6
-1.258, 2.201e-6
-1.259, 2.232e-6
-1.260, 2.284e-6
-1.261, 2.301e-6
-1.262, 2.314e-6
-1.263, 2.347e-6
-1.264, 2.359e-6
-1.265, 2.422e-6
-1.266, 2.452e-6
-1.267, 2.452e-6
-1.268, 2.516e-6
-1.269, 2.530e-6
-1.270, 2.559e-6
-1.271, 2.590e-6
-1.272, 2.650e-6
-1.273, 2.667e-6
-1.274, 2.655e-6
-1.275, 2.772e-6
-1.276, 2.762e-6
-1.277, 2.776e-6
-1.278, 2.822e-6
-1.279, 2.874e-6
-1.280, 2.930e-6
-1.281, 2.938e-6
-1.282, 3.000e-6
-1.283, 3.020e-6
-1.284, 3.069e-6
-1.285, 3.100e-6
-1.286, 3.131e-6
-1.287, 3.166e-6
-1.288, 3.213e-6
-1.289, 3.272e-6
-1.290, 3.337e-6
-1.291, 3.392e-6
-1.292, 3.399e-6
-1.293, 3.453e-6
-1.294, 3.552e-6
-1.295, 3.549e-6
-1.296, 3.589e-6
-1.297, 3.701e-6
-1.298, 3.752e-6
-1.299, 3.825e-6
-1.300, 3.880e-6
-1.301, 3.979e-6
-1.302, 3.990e-6
-1.303, 4.056e-6
-1.304, 4.087e-6
-1.305, 4.121e-6
-1.306, 4.213e-6
-1.307, 4.253e-6
-1.308, 4.327e-6
-1.309, 4.406e-6
-1.310, 4.462e-6
-1.311, 4.516e-6
-1.312, 4.571e-6
-1.313, 4.629e-6
-1.314, 4.713e-6
-1.315, 4.851e-6
-1.316, 4.914e-6
-1.317, 4.893e-6
-1.318, 4.978e-6
-1.319, 5.103e-6
-1.320, 5.163e-6
-1.321, 5.275e-6
-1.322, 5.309e-6
-1.323, 5.422e-6
-1.324, 5.519e-6
-1.325, 5.588e-6
-1.326, 5.669e-6
-1.327, 5.756e-6
-1.328, 5.779e-6
-1.329, 5.888e-6
-1.330, 5.990e-6
-1.331, 6.085e-6
-1.332, 6.216e-6
-1.333, 6.285e-6
-1.334, 6.383e-6
-1.335, 6.502e-6
-1.336, 6.597e-6
-1.337, 6.664e-6
-1.338, 6.762e-6
-1.339, 6.859e-6
-1.340, 6.969e-6
-1.341, 7.044e-6
-1.342, 7.155e-6
-1.343, 7.275e-6
-1.344, 7.352e-6
-1.345, 7.495e-6
-1.346, 7.603e-6
-1.347, 7.736e-6
-1.348, 7.852e-6
-1.349, 7.987e-6
-1.350, 8.099e-6
-1.351, 8.208e-6
-1.352, 8.295e-6
-1.353, 8.461e-6
-1.354, 8.569e-6
-1.355, 8.688e-6
-1.356, 8.845e-6
-1.357, 8.948e-6
-1.358, 9.044e-6
-1.359, 9.202e-6
-1.360, 9.355e-6
-1.361, 9.497e-6
-1.362, 9.627e-6
-1.363, 9.808e-6
-1.364, 1.001e-5
-1.365, 1.012e-5
-1.366, 1.029e-5
-1.367, 1.045e-5
-1.368, 1.059e-5
-1.369, 1.080e-5
-1.370, 1.099e-5
-1.371, 1.114e-5
-1.372, 1.123e-5
-1.373, 1.137e-5
-1.374, 1.155e-5
-1.375, 1.168e-5
-1.376, 1.191e-5
-1.377, 1.211e-5
-1.378, 1.223e-5
-1.379, 1.241e-5
-1.380, 1.255e-5
-1.381, 1.273e-5
-1.382, 1.290e-5
-1.383, 1.306e-5
-1.384, 1.321e-5
-1.385, 1.342e-5
-1.386, 1.362e-5
-1.387, 1.382e-5
-1.388, 1.401e-5
-1.389, 1.425e-5
-1.390, 1.439e-5
-1.391, 1.456e-5
-1.392, 1.479e-5
-1.393, 1.494e-5
-1.394, 1.516e-5
-1.395, 1.534e-5
-1.396, 1.561e-5
-1.397, 1.584e-5
-1.398, 1.598e-5
-1.399, 1.629e-5
-1.400, 1.650e-5
-1.401, 1.667e-5
-1.402, 1.693e-5
-1.403, 1.714e-5
-1.404, 1.741e-5
-1.405, 1.766e-5
-1.406, 1.801e-5
-1.407, 1.823e-5
-1.408, 1.847e-5
-1.409, 1.867e-5
-1.410, 1.895e-5
-1.411, 1.916e-5
-1.412, 1.941e-5
-1.413, 1.966e-5
-1.414, 1.988e-5
-1.415, 2.013e-5
-1.416, 2.048e-5
-1.417, 2.071e-5
-1.418, 2.103e-5
-1.419, 2.129e-5
-1.420, 2.150e-5
-1.421, 2.182e-5
-1.422, 2.204e-5
-1.423, 2.223e-5
-1.424, 2.254e-5
-1.425, 2.285e-5
-1.426, 2.313e-5
-1.427, 2.342e-5
-1.428, 2.373e-5
-1.429, 2.400e-5
-1.430, 2.427e-5
-1.431, 2.460e-5
-1.432, 2.486e-5
-1.433, 2.518e-5
-1.434, 2.572e-5
-1.435, 2.603e-5
-1.436, 2.641e-5
-1.437, 2.684e-5
-1.438, 2.721e-5
-1.439, 2.762e-5
-1.440, 2.801e-5
-1.441, 2.825e-5
-1.442, 2.848e-5
-1.443, 2.895e-5
-1.444, 2.931e-5
-1.445, 2.972e-5
-1.446, 3.010e-5
-1.447, 3.052e-5
-1.448, 3.094e-5
-1.449, 3.133e-5
-1.450, 3.162e-5
-1.451, 3.202e-5
-1.452, 3.242e-5
-1.453, 3.276e-5
-1.454, 3.321e-5
-1.455, 3.365e-5
-1.456, 3.401e-5
-1.457, 3.443e-5
-1.458, 3.489e-5
-1.459, 3.543e-5
-1.460, 3.594e-5
-1.461, 3.642e-5
-1.462, 3.682e-5
-1.463, 3.728e-5
-1.464, 3.776e-5
-1.465, 3.828e-5
-1.466, 3.878e-5
-1.467, 3.931e-5
-1.468, 3.978e-5
-1.469, 4.024e-5
-1.470, 4.077e-5
-1.471, 4.127e-5
-1.472, 4.171e-5
-1.473, 4.223e-5
-1.474, 4.274e-5
-1.475, 4.321e-5
-1.476, 4.386e-5
-1.477, 4.436e-5
-1.478, 4.501e-5
-1.479, 4.544e-5
-1.480, 4.603e-5
-1.481, 4.675e-5
-1.482, 4.732e-5
-1.483, 4.798e-5
-1.484, 4.847e-5
-1.485, 4.907e-5
-1.486, 4.977e-5
-1.487, 5.011e-5
-1.488, 5.080e-5
-1.489, 5.144e-5
-1.490, 5.213e-5
-1.491, 5.283e-5
-1.492, 5.353e-5
-1.493, 5.420e-5
-1.494, 5.487e-5
-1.495, 5.559e-5
-1.496, 5.627e-5
-1.497, 5.702e-5
-1.498, 5.766e-5
-1.499, 5.850e-5
-1.500, 5.915e-5
-1.501, 6.000e-5
-1.502, 6.079e-5
-1.503, 6.156e-5
-1.504, 6.239e-5
-1.505, 6.319e-5
-1.506, 6.403e-5
-1.507, 6.475e-5
-1.508, 6.573e-5
-1.509, 6.649e-5
-1.510, 6.735e-5
-1.511, 6.832e-5
-1.512, 6.928e-5
-1.513, 7.024e-5
-1.514, 7.116e-5
-1.515, 7.214e-5
-1.516, 7.316e-5
-1.517, 7.414e-5
-1.518, 7.514e-5
-1.519, 7.611e-5
-1.520, 7.725e-5
-1.521, 7.828e-5
-1.522, 7.930e-5
-1.523, 8.029e-5
-1.524, 8.129e-5
-1.525, 8.250e-5
-1.526, 8.373e-5
-1.527, 8.500e-5
-1.528, 8.628e-5
-1.529, 8.749e-5
-1.530, 8.866e-5
-1.531, 9.000e-5
-1.532, 9.123e-5
-1.533, 9.258e-5
-1.534, 9.395e-5
-1.535, 9.500e-5
-1.536, 9.649e-5
-1.537, 9.788e-5
-1.538, 9.936e-5
-1.539, 1.007e-4
-1.540, 1.021e-4
-1.541, 1.037e-4
-1.542, 1.049e-4
-1.543, 1.064e-4
-1.544, 1.079e-4
-1.545, 1.097e-4
-1.546, 1.111e-4
-1.547, 1.127e-4
-1.548, 1.144e-4
-1.549, 1.161e-4
-1.550, 1.177e-4
-1.551, 1.196e-4
-1.552, 1.213e-4
-1.553, 1.230e-4
-1.554, 1.250e-4
-1.555, 1.270e-4
-1.556, 1.287e-4
-1.557, 1.307e-4
-1.558, 1.327e-4
-1.559, 1.348e-4
-1.560, 1.368e-4
-1.561, 1.384e-4
-1.562, 1.405e-4
-1.563, 1.426e-4
-1.564, 1.449e-4
-1.565, 1.470e-4
-1.566, 1.493e-4
-1.567, 1.516e-4
-1.568, 1.539e-4
-1.569, 1.562e-4
-1.570, 1.586e-4
-1.571, 1.610e-4
-1.572, 1.636e-4
-1.573, 1.663e-4
-1.574, 1.688e-4
-1.575, 1.717e-4
-1.576, 1.750e-4
-1.577, 1.779e-4
-1.578, 1.807e-4
-1.579, 1.835e-4
-1.580, 1.864e-4
-1.581, 1.894e-4
-1.582, 1.923e-4
-1.583, 1.954e-4
-1.584, 1.984e-4
-1.585, 2.016e-4
-1.586, 2.050e-4
-1.587, 2.081e-4
-1.588, 2.115e-4
-1.589, 2.147e-4
-1.590, 2.181e-4
-1.591, 2.216e-4
-1.592, 2.253e-4
-1.593, 2.290e-4
-1.594, 2.328e-4
-1.595, 2.365e-4
-1.596, 2.402e-4
-1.597, 2.441e-4
-1.598, 2.478e-4
-1.599, 2.516e-4
-1.600, 2.517e-4
-1.599, 2.478e-4
-1.598, 2.438e-4
-1.597, 2.403e-4
-1.596, 2.366e-4
-1.595, 2.327e-4
-1.594, 2.288e-4
-1.593, 2.250e-4
-1.592, 2.214e-4
-1.591, 2.180e-4
-1.590, 2.146e-4
-1.589, 2.114e-4
-1.588, 2.085e-4
-1.587, 2.053e-4
-1.586, 2.018e-4
-1.585, 1.985e-4
-1.584, 1.952e-4
-1.583, 1.918e-4
-1.582, 1.885e-4
-1.581, 1.857e-4
-1.580, 1.827e-4
-1.579, 1.797e-4
-1.578, 1.768e-4
-1.577, 1.738e-4
-1.576, 1.709e-4
-1.575, 1.679e-4
-1.574, 1.649e-4
-1.573, 1.621e-4
-1.572, 1.593e-4
-1.571, 1.566e-4
-1.570, 1.540e-4
-1.569, 1.512e-4
-1.568, 1.487e-4
-1.567, 1.460e-4
-1.566, 1.437e-4
-1.565, 1.413e-4
-1.564, 1.391e-4
-1.563, 1.368e-4
-1.562, 1.343e-4
-1.561, 1.320e-4
-1.560, 1.298e-4
-1.559, 1.276e-4
-1.558, 1.253e-4
-1.557, 1.230e-4
-1.556, 1.207e-4
-1.555, 1.187e-4
-1.554, 1.169e-4
-1.553, 1.149e-4
-1.552, 1.129e-4
-1.551, 1.110e-4
-1.550, 1.091e-4
-1.549, 1.072e-4
-1.548, 1.055e-4
-1.547, 1.037e-4
-1.546, 1.020e-4
-1.545, 1.001e-4
-1.544, 9.846e-5
-1.543, 9.670e-5
-1.542, 9.501e-5
-1.541, 9.341e-5
-1.540, 9.167e-5
-1.539, 8.998e-5
-1.538, 8.847e-5
-1.537, 8.688e-5
-1.536, 8.546e-5
-1.535, 8.410e-5
-1.534, 8.270e-5
-1.533, 8.112e-5
-1.532, 7.975e-5
-1.531, 7.841e-5
-1.530, 7.697e-5
-1.529, 7.567e-5
-1.528, 7.439e-5
-1.527, 7.315e-5
-1.526, 7.184e-5
-1.525, 7.058e-5
-1.524, 6.935e-5
-1.523, 6.827e-5
-1.522, 6.717e-5
-1.521, 6.604e-5
-1.520, 6.498e-5
-1.519, 6.378e-5
-1.518, 6.289e-5
-1.517, 6.177e-5
-1.516, 6.077e-5
-1.515, 5.972e-5
-1.514, 5.873e-5
-1.513, 5.779e-5
-1.512, 5.687e-5
-1.511, 5.584e-5
-1.510, 5.494e-5
-1.509, 5.374e-5
-1.508, 5.302e-5
-1.507, 5.208e-5
-1.506, 5.124e-5
-1.505, 5.032e-5
-1.504, 4.951e-5
-1.503, 4.860e-5
-1.502, 4.771e-5
-1.501, 4.711e-5
-1.500, 4.638e-5
-1.499, 4.542e-5
-1.498, 4.464e-5
-1.497, 4.383e-5
-1.496, 4.309e-5
-1.495, 4.251e-5
-1.494, 4.171e-5
-1.493, 4.095e-5
-1.492, 4.027e-5
-1.491, 3.965e-5
-1.490, 3.900e-5
-1.489, 3.833e-5
-1.488, 3.773e-5
-1.487, 3.713e-5
-1.486, 3.652e-5
-1.485, 3.600e-5
-1.484, 3.544e-5
-1.483, 3.492e-5
-1.482, 3.439e-5
-1.481, 3.383e-5
-1.480, 3.317e-5
-1.479, 3.269e-5
-1.478, 3.216e-5
-1.477, 3.167e-5
-1.476, 3.131e-5
-1.475, 3.070e-5
-1.474, 3.026e-5
-1.473, 2.984e-5
-1.472, 2.931e-5
-1.471, 2.881e-5
-1.470, 2.840e-5
-1.469, 2.779e-5
-1.468, 2.749e-5
-1.467, 2.702e-5
-1.466, 2.647e-5
-1.465, 2.600e-5
-1.464, 2.566e-5
-1.463, 2.541e-5
-1.462, 2.496e-5
-1.461, 2.448e-5
-1.460, 2.404e-5
-1.459, 2.359e-5
-1.458, 2.301e-5
-1.457, 2.272e-5
-1.456, 2.259e-5
-1.455, 2.226e-5
-1.454, 2.188e-5
-1.453, 2.137e-5
-1.452, 2.118e-5
-1.451, 2.098e-5
-1.450, 2.051e-5
-1.449, 2.027e-5
-1.448, 1.978e-5
-1.447, 1.953e-5
-1.446, 1.930e-5
-1.445, 1.881e-5
-1.444, 1.854e-5
-1.443, 1.842e-5
-1.442, 1.822e-5
-1.441, 1.795e-5
-1.440, 1.767e-5
-1.439, 1.721e-5
-1.438, 1.687e-5
-1.437, 1.655e-5
-1.436, 1.640e-5
-1.435, 1.609e-5
-1.434, 1.595e-5
-1.433, 1.576e-5
-1.432, 1.561e-5
-1.431, 1.522e-5
-1.430, 1.487e-5
-1.429, 1.466e-5
-1.428, 1.442e-5
-1.427, 1.415e-5
-1.426, 1.398e-5
-1.425, 1.369e-5
-1.424, 1.359e-5
-1.423, 1.334e-5
-1.422, 1.303e-5
-1.421, 1.277e-5
-1.420, 1.277e-5
-1.419, 1.260e-5
-1.418, 1.240e-5
-1.417, 1.198e-5
-1.416, 1.180e-5
-1.415, 1.166e-5
-1.414, 1.148e-5
-1.413, 1.131e-5
-1.412, 1.110e-5
-1.411, 1.100e-5
-1.410, 1.091e-5
-1.409, 1.074e-5
-1.408, 1.058e-5
-1.407, 1.040e-5
-1.406, 1.020e-5
-1.405, 1.004e-5
-1.404, 9.853e-6
-1.403, 9.700e-6
-1.402, 9.586e-6
-1.401, 9.404e-6
-1.400, 9.267e-6
-1.399, 9.104e-6
-1.398, 8.966e-6
-1.397, 8.791e-6
-1.396, 8.686e-6
-1.395, 8.568e-6
-1.394, 8.426e-6
-1.393, 8.422e-6
-1.392, 8.302e-6
-1.391, 8.197e-6
-1.390, 8.100e-6
-1.389, 7.992e-6
-1.388, 7.633e-6
-1.387, 7.540e-6
-1.386, 7.453e-6
-1.385, 7.281e-6
-1.384, 7.206e-6
-1.383, 7.088e-6
-1.382, 6.899e-6
-1.381, 6.816e-6
-1.380, 6.683e-6
-1.379, 6.592e-6
-1.378, 6.476e-6
-1.377, 6.378e-6
-1.376, 6.265e-6
-1.375, 6.151e-6
-1.374, 6.099e-6
-1.373, 6.020e-6
-1.372, 5.949e-6
-1.371, 5.806e-6
-1.370, 5.710e-6
-1.369, 5.595e-6
-1.368, 5.527e-6
-1.367, 5.370e-6
-1.366, 5.248e-6
-1.365, 5.207e-6
-1.364, 5.127e-6
-1.363, 5.055e-6
-1.362, 4.988e-6
-1.361, 4.917e-6
-1.360, 4.748e-6
-1.359, 4.741e-6
-1.358, 4.634e-6
-1.357, 4.514e-6
-1.356, 4.459e-6
-1.355, 4.424e-6
-1.354, 4.312e-6
-1.353, 4.263e-6
-1.352, 4.207e-6
-1.351, 4.108e-6
-1.350, 4.022e-6
-1.349, 4.008e-6
-1.348, 3.903e-6
-1.347, 3.823e-6
-1.346, 3.790e-6
-1.345, 3.683e-6
-1.344, 3.645e-6
-1.343, 3.544e-6
-1.342, 3.465e-6
-1.341, 3.398e-6
-1.340, 3.368e-6
-1.339, 3.356e-6
-1.338, 3.209e-6
-1.337, 3.190e-6
-1.336, 3.148e-6
-1.335, 3.070e-6
-1.334, 3.020e-6
-1.333, 2.955e-6
-1.332, 2.853e-6
-1.331, 2.820e-6
-1.330, 2.740e-6
-1.329, 2.720e-6
-1.328, 2.660e-6
-1.327, 2.592e-6
-1.326, 2.566e-6
-1.325, 2.475e-6
-1.324, 2.450e-6
-1.323, 2.383e-6
-1.322, 2.333e-6
-1.321, 2.283e-6
-1.320, 2.253e-6
-1.319, 2.151e-6
-1.318, 2.143e-6
-1.317, 2.104e-6
-1.316, 2.031e-6
-1.315, 1.988e-6
-1.314, 1.989e-6
-1.313, 1.941e-6
-1.312, 1.847e-6
-1.311, 1.818e-6
-1.310, 1.785e-6
-1.309, 1.752e-6
-1.308, 1.700e-6
-1.307, 1.660e-6
-1.306, 1.641e-6
-1.305, 1.562e-6
-1.304, 1.574e-6
-1.303, 1.520e-6
-1.302, 1.474e-6
-1.301, 1.459e-6
-1.300, 1.413e-6
-1.299, 1.370e-6
-1.298, 1.362e-6
-1.297, 1.294e-6
-1.296, 1.265e-6
-1.295, 1.220e-6
-1.294, 1.194e-6
-1.293, 1.155e-6
-1.292, 1.114e-6
-1.291, 1.088e-6
-1.290, 1.054e-6
-1.289, 1.033e-6
-1.288, 9.992e-7
-1.287, 9.420e-7
-1.286, 9.223e-7
-1.285, 9.173e-7
-1.284, 9.114e-7
-1.283, 8.354e-7
-1.282, 8.394e-7
-1.281, 8.098e-7
-1.280, 7.634e-7
-1.279, 7.467e-7
-1.278, 7.319e-7
-1.277, 7.003e-7
-1.276, 6.944e-7
-1.275, 6.154e-7
-1.274, 6.273e-7
-1.273, 5.730e-7
-1.272, 5.829e-7
-1.271, 5.444e-7
-1.270, 4.951e-7
-1.269, 5.217e-7
-1.268, 5.010e-7
-1.267, 4.448e-7
-1.266, 4.053e-7
-1.265, 4.339e-7
-1.264, 4.132e-7
-1.263, 3.875e-7
-1.262, 3.639e-7
-1.261, 3.362e-7
-1.260, 2.968e-7
-1.259, 2.948e-7
-1.258, 2.711e-7
-1.257, 2.543e-7
-1.256, 2.257e-7
-1.255, 2.159e-7
-1.254, 2.099e-7
-1.253, 1.685e-7
-1.252, 1.951e-7
-1.251, 1.784e-7
-1.250, 1.162e-7
-1.249, 1.478e-7
-1.248, 1.034e-7
-1.247, 7.084e-8
-1.246, 7.478e-8
-1.245, 6.689e-8
-1.244, 5.012e-8
-1.243, -1.973e-10
-1.242, 2.052e-8
-1.241, -2.782e-8
-1.240, -2.289e-8
-1.239, -1.302e-8
-1.238, -3.867e-8
-1.237, -8.406e-8
-1.236, -6.531e-8
-1.235, -1.117e-7
-1.234, -1.117e-7
-1.233, -1.511e-7
-1.232, -1.502e-7
-1.231, -1.492e-7
-1.230, -1.738e-7
-1.229, -1.758e-7
-1.228, -1.906e-7
-1.227, -2.705e-7
-1.226, -2.340e-7
-1.225, -2.518e-7
-1.224, -2.439e-7
-1.223, -2.735e-7
-1.222, -2.597e-7
-1.221, -2.587e-7
-1.220, -2.991e-7
-1.219, -2.834e-7
-1.218, -3.080e-7
-1.217, -3.218e-7
-1.216, -3.396e-7
-1.215, -3.702e-7
-1.214, -3.919e-7
-1.213, -3.830e-7
-1.212, -3.662e-7
-1.211, -4.037e-7
-1.210, -4.165e-7
-1.209, -3.909e-7
-1.208, -4.156e-7
-1.207, -4.225e-7
-1.206, -4.501e-7
-1.205, -4.412e-7
-1.204, -4.481e-7
-1.203, -4.540e-7
-1.202, -4.698e-7
-1.201, -4.965e-7
-1.200, -4.886e-7
-1.199, -5.103e-7
-1.198, -4.974e-7
-1.197, -5.290e-7
-1.196, -5.290e-7
-1.195, -5.586e-7
-1.194, -5.547e-7
-1.193, -5.616e-7
-1.192, -5.645e-7
-1.191, -5.902e-7
-1.190, -5.843e-7
-1.189, -5.685e-7
-1.188, -6.148e-7
-1.187, -5.892e-7
-1.186, -6.484e-7
-1.185, -6.306e-7
-1.184, -6.296e-7
-1.183, -6.405e-7
-1.182, -6.237e-7
-1.181, -6.563e-7
-1.180, -6.523e-7
-1.179, -6.464e-7
-1.178, -7.017e-7
-1.177, -7.046e-7
-1.176, -6.928e-7
-1.175, -7.036e-7
-1.174, -7.066e-7
-1.173, -7.165e-7
-1.172, -7.214e-7
-1.171, -7.332e-7
-1.170, -7.638e-7
-1.169, -7.470e-7
-1.168, -7.638e-7
-1.167, -7.569e-7
-1.166, -7.707e-7
-1.165, -7.905e-7
-1.164, -8.023e-7
-1.163, -7.826e-7
-1.162, -8.161e-7
-1.161, -8.132e-7
-1.160, -8.053e-7
-1.159, -7.826e-7
-1.158, -8.418e-7
-1.157, -7.924e-7
-1.156, -8.289e-7
-1.155, -8.615e-7
-1.154, -8.230e-7
-1.153, -8.536e-7
-1.152, -8.970e-7
-1.151, -8.664e-7
-1.150, -8.980e-7
-1.149, -8.881e-7
-1.148, -8.921e-7
-1.147, -9.049e-7
-1.146, -9.039e-7
-1.145, -9.276e-7
-1.144, -9.306e-7
-1.143, -9.138e-7
-1.142, -9.444e-7
-1.141, -9.256e-7
-1.140, -9.611e-7
-1.139, -9.641e-7
-1.138, -9.769e-7
-1.137, -9.394e-7
-1.136, -1.001e-6
-1.135, -9.976e-7
-1.134, -9.858e-7
-1.133, -1.012e-6
-1.132, -9.917e-7
-1.131, -9.957e-7
-1.130, -1.039e-6
-1.129, -1.022e-6
-1.128, -1.042e-6
-1.127, -1.044e-6
-1.126, -1.050e-6
-1.125, -1.070e-6
-1.124, -1.027e-6
-1.123, -1.082e-6
-1.122, -1.047e-6
-1.121, -1.091e-6
-1.120, -1.102e-6
-1.119, -1.103e-6
-1.118, -1.112e-6
-1.117, -1.100e-6
-1.116, -1.123e-6
-1.115, -1.146e-6
-1.114, -1.165e-6
-1.113, -1.137e-6
-1.112, -1.151e-6
-1.111, -1.174e-6
-1.110, -1.185e-6
-1.109, -1.176e-6
-1.108, -1.194e-6
-1.107, -1.180e-6
-1.106, -1.177e-6
-1.105, -1.209e-6
-1.104, -1.195e-6
-1.103, -1.256e-6
-1.102, -1.234e-6
-1.101, -1.246e-6
-1.100, -1.237e-6
-1.099, -1.241e-6
-1.098, -1.266e-6
-1.097, -1.251e-6
-1.096, -1.267e-6
-1.095, -1.292e-6
-1.094, -1.266e-6
-1.093, -1.270e-6
-1.092, -1.303e-6
-1.091, -1.317e-6
-1.090, -1.316e-6
-1.089, -1.335e-6
-1.088, -1.333e-6
-1.087, -1.330e-6
-1.086, -1.364e-6
-1.085, -1.347e-6
-1.084, -1.363e-6
-1.083, -1.386e-6
-1.082, -1.380e-6
-1.081, -1.360e-6
-1.080, -1.378e-6
-1.079, -1.394e-6
-1.078, -1.403e-6
-1.077, -1.412e-6
-1.076, -1.409e-6
-1.075, -1.450e-6
-1.074, -1.414e-6
-1.073, -1.465e-6
-1.072, -1.460e-6
-1.071, -1.443e-6
-1.070, -1.471e-6
-1.069, -1.465e-6
-1.068, -1.483e-6
-1.067, -1.481e-6
-1.066, -1.499e-6
-1.065, -1.480e-6
-1.064, -1.470e-6
-1.063, -1.530e-6
-1.062, -1.503e-6
-1.061, -1.488e-6
-1.060, -1.538e-6
-1.059, -1.528e-6
-1.058, -1.509e-6
-1.057, -1.565e-6
-1.056, -1.558e-6
-1.055, -1.550e-6
-1.054, -1.514e-6
-1.053, -1.552e-6
-1.052, -1.556e-6
-1.051, -1.545e-6
-1.050, -1.569e-6
-1.049, -1.567e-6
-1.048, -1.548e-6
-1.047, -1.585e-6
-1.046, -1.581e-6
-1.045, -1.596e-6
-1.044, -1.565e-6
-1.043, -1.598e-6
-1.042, -1.613e-6
-1.041, -1.578e-6
-1.040, -1.620e-6
-1.039, -1.609e-6
-1.038, -1.593e-6
-1.037, -1.622e-6
-1.036, -1.614e-6
-1.035, -1.599e-6
-1.034, -1.621e-6
-1.033, -1.618e-6
-1.032, -1.626e-6
-1.031, -1.628e-6
-1.030, -1.655e-6
-1.029, -1.619e-6
-1.028, -1.621e-6
-1.027, -1.671e-6
-1.026, -1.656e-6
-1.025, -1.665e-6
-1.024, -1.656e-6
-1.023, -1.682e-6
-1.022, -1.680e-6
-1.021, -1.665e-6
-1.020, -1.710e-6
-1.019, -1.663e-6
-1.018, -1.687e-6
-1.017, -1.703e-6
-1.016, -1.684e-6
-1.015, -1.684e-6
-1.014, -1.682e-6
-1.013, -1.697e-6
-1.012, -1.694e-6
-1.011, -1.689e-6
-1.010, -1.704e-6
-1.009, -1.692e-6
-1.008, -1.682e-6
-1.007, -1.737e-6
-1.006, -1.707e-6
-1.005, -1.729e-6
-1.004, -1.710e-6
-1.003, -1.732e-6
-1.002, -1.741e-6
-1.001, -1.750e-6
