Potential V vs RHE, Current mA cm-2
0.013299999999999867,0.17231183632356148
0.012299999999999978,-1.5293029151541047
0.011299999999999866,-3.055776407708479
0.010299999999999976,-4.582249900262854
0.009299999999999864,-5.977155241929781
0.008299999999999974,-7.199465805013171
0.007299999999999862,-8.4203616567967
0.006299999999999972,-9.467248018696827
0.00529999999999986,-10.601846481188586
0.0042999999999999705,-11.691174182084664
0.0032999999999998586,-12.781916594280606
0.0022999999999999687,-13.828802956180734
0.0012999999999998568,-14.826174422585586
0.00029999999999996696,-15.74573676749786
-0.000700000000000145,-16.622857773414182
-0.0017000000000000348,-17.358507649344002
-0.0027000000000001467,-18.19318731626437
-0.0037000000000000366,-18.97127853119014
-0.0047000000000001485,-19.805958198110513
-0.005700000000000038,-20.626490752032236
-0.00670000000000015,-21.461170418952605
-0.00770000000000004,-22.196820294882425
-0.008700000000000152,-22.861734605818995
-0.009700000000000042,-23.51250180375691
-0.010700000000000154,-24.120827662698876
-0.011700000000000044,-24.729153521640843
-0.012700000000000156,-25.337479380582806
-0.013700000000000045,-26.002393691519377
-0.014700000000000157,-26.65316088945729
-0.015700000000000047,-27.261486748399253
-0.01670000000000016,-27.827371268345274
-0.01770000000000005,-28.308373110299385
-0.01870000000000016,-28.789374952253496
-0.01970000000000005,-29.27037679420761
-0.020700000000000163,-29.793819975157668
-0.021700000000000053,-30.317263156107735
-0.022700000000000164,-30.88314767605375
-0.023700000000000054,-31.40659085700382
-0.024700000000000166,-31.887592698957924
-0.025700000000000056,-32.32615320191609
-0.026700000000000168,-32.66568391388369
-0.027700000000000058,-33.10424441684186
-0.02870000000000017,-33.50036358080407
-0.02970000000000006,-33.93892408376223
-0.03070000000000017,-34.41992592571634
-0.03170000000000006,-34.85848642867451
-0.03270000000000017,-35.240458479638065
-0.03370000000000006,-35.594136304604326
-0.034700000000000175,-35.848784338580025
-0.035700000000000065,-36.16002082455034
-0.03670000000000018,-36.47125731052064
-0.03770000000000007,-36.81078802248826
-0.03870000000000018,-37.206907186450465
-0.03970000000000007,-37.56058501141672
-0.04070000000000018,-37.90011572338433
-0.04170000000000007,-38.211352209354644
-0.04270000000000018,-38.42355890433439
-0.04370000000000007,-38.692354051308754
-0.044700000000000184,-38.94700208528445
-0.045700000000000074,-39.258238571254765
-0.046700000000000186,-39.56947505722508
-0.047700000000000076,-39.90900576919269
-0.04870000000000019,-40.220242255162994
-0.04970000000000008,-40.4748902891387
-0.05070000000000019,-40.701244097117105
-0.05170000000000008,-40.91345079209687
-0.05270000000000019,-41.083216148080666
-0.05370000000000008,-41.352011295055014
-0.05470000000000019,-41.66324778102533
-0.05570000000000008,-41.91789581500104
-0.056700000000000195,-42.229132300971344
-0.057700000000000085,-42.4413389959511
-0.058700000000000196,-42.6111043519349
-0.059700000000000086,-42.79501682091736
-0.0607000000000002,-42.92234083790521
-0.06170000000000009,-43.134547532884966
-0.0627000000000002,-43.36090134086337
-0.06370000000000009,-43.57310803584313
-0.0647000000000002,-43.84190318281749
-0.06570000000000009,-44.054109877797245
-0.0667000000000002,-44.181433894785094
-0.0677000000000001,-44.36534636376755
-0.0687000000000002,-44.45022904175945
-0.0697000000000001,-44.577553058747306
-0.07070000000000021,-44.80390686672572
-0.0717000000000001,-45.01611356170547
-0.07270000000000021,-45.22832025668522
-0.0737000000000001,-45.412232725667685
-0.07470000000000021,-45.581998081651484
-0.0757000000000001,-45.666880759643384
-0.07670000000000021,-45.70932209863933
-0.0777000000000001,-45.89323456762179
-0.07870000000000021,-46.02055858460964
-0.0797000000000001,-46.19032394059345
-0.08070000000000022,-46.41667774857186
-0.0817000000000001,-46.544001765559706
-0.08270000000000022,-46.713767121543505
-0.08370000000000011,-46.84109113853137
-0.08470000000000022,-46.94012092952192
-0.08570000000000011,-47.02500360751382
-0.08670000000000022,-47.10988628550572
-0.08770000000000011,-47.27965164148953
-0.08870000000000022,-47.46356411047198
-0.08970000000000011,-47.633329466455784
-0.09070000000000022,-47.76065348344364
-0.09170000000000011,-47.84553616143554
-0.09270000000000023,-47.93041883942744
-0.09370000000000012,-47.987007291422046
-0.09470000000000023,-48.071889969413945
-0.09570000000000012,-48.24165532539775
-0.09670000000000023,-48.41142068138156
-0.09770000000000012,-48.59533315036401
-0.09870000000000023,-48.72265716735186
-0.09970000000000012,-48.84998118433972
-0.10070000000000023,-48.93486386233162
-0.10170000000000012,-48.93486386233162
-0.10270000000000024,-49.03389365332217
-0.10370000000000013,-49.16121767031002
-0.10470000000000024,-49.28854168729788
-0.10570000000000013,-49.458307043281685
-0.10670000000000024,-49.642219512264134
-0.10770000000000013,-49.76954352925199
-0.10870000000000024,-49.85442620724389
-0.10970000000000013,-49.939308885235796
-0.11070000000000024,-49.98175022423175
-0.11170000000000013,-50.0807800152223
-0.11270000000000002,-50.20810403221015
-0.11370000000000013,-50.37786938819396
-0.11470000000000002,-50.50519340518181
-0.11570000000000014,-50.68910587416426
-0.11670000000000003,-50.73154721316022
-0.11770000000000014,-50.81642989115212
-0.11870000000000003,-50.81642989115212
-0.11970000000000014,-50.90131256914402
-0.12070000000000003,-51.028636586131874
-0.12170000000000014,-51.17010771611838
-0.12270000000000003,-51.33987307210218
-0.12370000000000014,-51.46719708909004
-0.12470000000000003,-51.594521106077885
-0.12570000000000014,-51.65110955807249
-0.12670000000000003,-51.69355089706845
-0.12770000000000015,-51.73599223606439
-0.12870000000000004,-51.82087491405629
-0.12970000000000015,-51.948198931044146
-0.13070000000000004,-52.11796428702795
-0.13170000000000015,-52.30187675601041
-0.13270000000000004,-52.42920077299826
-0.13370000000000015,-52.471642111994214
-0.13470000000000004,-52.514083450990164
-0.13570000000000015,-52.55652478998611
-0.13670000000000004,-52.64140746797801
-0.13770000000000016,-52.82531993696047
-0.13870000000000005,-52.95264395394832
-0.13970000000000016,-53.12240930993213
-0.14070000000000005,-53.26388043991864
-0.14170000000000016,-53.348763117910536
-0.14270000000000005,-53.39120445690648
-0.14370000000000016,-53.433645795902436
-0.14470000000000005,-53.518528473894335
-0.14570000000000016,-53.64585249088219
-0.14670000000000005,-53.74488228187274
-0.14770000000000016,-53.9570889768525
-0.14870000000000005,-54.08441299384035
-0.14970000000000017,-54.16929567183226
-0.15070000000000006,-54.26832546282281
-0.15170000000000017,-54.31076680181876
-0.15270000000000006,-54.39564947981066
-0.15370000000000017,-54.480532157802564
-0.15470000000000006,-54.60785617479041
-0.15570000000000017,-54.791768643772876
-0.15670000000000006,-54.961533999756675
-0.15770000000000017,-55.088858016744524
-0.15870000000000006,-55.17374069473642
-0.15970000000000018,-55.21618203373238
-0.16070000000000007,-55.31521182472294
-0.16170000000000018,-55.400094502714836
-0.16270000000000007,-55.527418519702685
-0.16370000000000018,-55.73962521468245
-0.16470000000000007,-55.96597902266086
-0.16570000000000018,-56.1781857176406
-0.16670000000000007,-56.30550973462846
-0.16770000000000018,-56.36209818662306
-0.16870000000000007,-56.404539525619015
-0.16970000000000018,-56.53186354260687
-0.17070000000000007,-56.65918755959472
-0.17170000000000019,-56.82895291557852
-0.17270000000000008,-57.012865384560975
-0.1737000000000002,-57.182630740544774
-0.17470000000000008,-57.30995475753264
-0.1757000000000002,-57.45142588751914
-0.17670000000000008,-57.53630856551105
-0.1777000000000002,-57.66363258249889
-0.17870000000000008,-57.79095659948675
-0.1797000000000002,-58.017310407465146
-0.18070000000000008,-58.18707576344896
-0.1817000000000002,-58.35684111943277
-0.18270000000000008,-58.54075358841522
-0.1837000000000002,-58.66807760540307
-0.1847000000000001,-58.79540162239092
-0.1857000000000002,-58.880284300382826
-0.1867000000000001,-59.02175543036933
-0.1877000000000002,-59.19152078635314
-0.1887000000000001,-59.403727481332886
-0.1897000000000002,-59.67252262830725
-0.1907000000000001,-59.884729323287
-0.1917000000000001,-60.06864179226946
-0.19269999999999998,-60.19596580925731
-0.1937000000000001,-60.23840714825326
-0.19469999999999998,-60.40817250423707
-0.1957000000000001,-60.59208497321952
-0.19669999999999999,-60.761850329203334
-0.1977000000000001,-60.974057024183075
-0.1987,-61.20041083216149
-0.1997000000000001,-61.37017618814529
-0.2007,-61.49750020513315
-0.2017000000000001,-61.6814126741156
-0.2027,-61.80873669110345
-0.2037000000000001,-61.97850204708726
-0.2047,-62.24729719406162
-0.2057000000000001,-62.501945228037314
-0.2067,-62.77074037501168
-0.2077000000000001,-62.98294706999144
-0.2087,-63.15271242597524
-0.2097000000000001,-63.3366248949577
-0.2107,-63.46394891194555
-0.2117000000000001,-63.6761556069253
-0.2127,-63.902509414903705
-0.2137000000000001,-64.19959878787537
-0.2147,-64.46839393484973
-0.2157000000000001,-64.72304196882543
-0.2167,-64.99183711579978
-0.21770000000000012,-65.16160247178358
-0.2187,-65.3030736017701
-0.21970000000000012,-65.51528029674984
-0.2207,-65.76992833072556
-0.22170000000000012,-66.03872347769992
-0.2227,-66.34995996367022
-0.22370000000000012,-66.60460799764593
-0.2247,-66.81681469262568
-0.22570000000000012,-67.00072716160814
-0.2267,-67.17049251759194
-0.22770000000000012,-67.39684632557035
-0.22870000000000001,-67.65149435954605
-0.22970000000000013,-67.9202895065204
-0.23070000000000002,-68.21737887949207
-0.23170000000000013,-68.48617402646643
-0.23270000000000002,-68.74082206044213
-0.23370000000000013,-68.96717586842054
-0.23470000000000002,-69.0944998854084
-0.23570000000000013,-69.30670658038814
-0.23670000000000002,-69.53306038836655
-0.2376999999999999,-69.8301497613382
-0.23870000000000002,-70.14138624730852
-0.2396999999999999,-70.48091695927613
-0.24070000000000003,-70.8345947842424
-0.24169999999999991,-71.1458312702127
-0.24270000000000003,-71.4004793041884
-0.24369999999999992,-71.58439177317086
-0.24470000000000003,-71.8814811461425
-0.24569999999999992,-72.19271763211282
-0.24670000000000003,-72.53224834408043
-0.24769999999999992,-72.92836750804264
-0.24870000000000003,-73.32448667200485
-0.24969999999999992,-73.62157604497652
-0.25070000000000003,-73.89037119195086
-0.2516999999999999,-74.14501922592657
-0.25270000000000004,-74.41381437290093
-0.2536999999999999,-74.66846240687663
-0.25470000000000004,-75.02214023184291
-0.2556999999999999,-75.33337671781321
-0.25670000000000004,-75.63046609078486
-0.25769999999999993,-75.98414391575112
-0.25870000000000004,-76.15390927173492
-0.25969999999999993,-76.38026307971333
-0.26070000000000004,-76.5924697746931
-0.26169999999999993,-76.86126492166746
-0.26270000000000004,-77.1583542946391
-0.26369999999999993,-77.51203211960537
-0.26470000000000005,-77.90815128356756
-0.26569999999999994,-78.24768199553519
-0.26670000000000005,-78.64380115949739
-0.26769999999999994,-78.9550376454677
-0.26870000000000005,-79.20968567944341
-0.26969999999999994,-79.52092216541372
-0.27070000000000005,-79.86045287738132
-0.27169999999999994,-80.25657204134353
-0.27270000000000005,-80.65269120530574
-0.27369999999999994,-81.04881036926795
-0.27470000000000006,-81.38834108123557
-0.27569999999999995,-81.74201890620182
-0.27670000000000006,-82.03910827917348
-0.27769999999999995,-82.39278610413973
-0.27870000000000006,-82.746463929106
-0.27969999999999995,-83.18502443206415
-0.28070000000000006,-83.66602627401826
-0.28169999999999995,-84.04799832498183
-0.28270000000000006,-84.44411748894404
-0.28369999999999995,-84.7977953139103
-0.28470000000000006,-85.09488468688197
-0.28569999999999995,-85.44856251184822
-0.28670000000000007,-85.75979899781852
-0.28769999999999996,-86.18421238777805
-0.28870000000000007,-86.66521422973216
-0.28969999999999996,-87.14621607168625
-0.29070000000000007,-87.62721791364037
-0.29169999999999996,-88.02333707760259
-0.29270000000000007,-88.37701490256885
-0.29369999999999996,-88.7589869535324
-0.2947000000000001,-89.15510611749461
-0.29569999999999996,-89.63610795944872
-0.2967000000000001,-90.15955114039879
-0.29769999999999996,-90.6405529823529
-0.2987000000000001,-91.12155482430701
-0.29969999999999997,-91.56011532726518
-0.3007000000000001,-91.94208737822873
-0.30169999999999997,-92.29576520319499
-0.3027000000000001,-92.6918843671572
-0.30369999999999997,-93.08800353111941
-0.3047000000000001,-93.55485826007487
-0.30569999999999997,-94.07830144102493
-0.3067000000000001,-94.55930328297906
-0.3077,-95.04030512493317
-0.3087000000000001,-95.43642428889537
-0.3097,-95.87498479185354
-0.3107000000000001,-96.31354529481169
-0.3117,-96.73795868477121
-0.3127000000000001,-97.26140186572127
-0.3137,-97.84143349866595
-0.3147000000000001,-98.40731801861195
-0.3157,-98.97320253855796
-0.3167000000000001,-99.49664571950804
-0.3177,-99.93520622246619
-0.3187000000000001,-100.40206095142165
-0.3197,-100.92550413237171
-0.3207000000000001,-101.50553576531638
-0.3217,-102.1563029632543
-0.3227000000000001,-102.72218748320032
-0.3237,-103.33051334214227
-0.3247000000000001,-103.85395652309235
-0.3257,-104.3773997040424
-0.3267000000000001,-104.85840154599651
-0.3277,-105.38184472694657
-0.3287000000000001,-105.94772924689259
-0.3297,-106.51361376683862
-0.3307000000000001,-107.12193962578058
-0.3317,-107.78685393671715
-0.3327000000000001,-108.39517979565912
-0.3337,-108.91862297660917
-0.3347000000000001,-109.44206615755924
-0.3357,-109.9655093385093
-0.3367000000000001,-110.48895251945936
-0.3377,-111.09727837840134
-0.3387000000000001,-111.7056042373433
-0.3397,-112.39881277427718
-0.3407000000000001,-113.00713863321914
-0.3417,-113.58717026616378
-0.3427000000000001,-114.19549612510575
-0.3437,-114.71893930605583
-0.3447000000000001,-115.32726516499778
-0.3457,-116.02047370193165
-0.3467000000000001,-116.67124089986959
-0.3477,-117.46347922779398
-0.3487000000000001,-118.15668776472786
-0.3497,-118.82160207566443
-0.3507000000000001,-119.4299279346064
-0.3517,-120.03825379354835
-0.3527000000000001,-120.68902099148629
-0.3537,-121.33978818942418
-0.3547000000000001,-122.08958517835266
-0.3557,-122.86767639327843
-0.35670000000000013,-123.65991472120285
-0.3577,-124.39556459713268
-0.35870000000000013,-125.14536158606113
-0.3597,-125.79612878399907
-0.36070000000000013,-126.48933732093293
-0.3617,-127.19669297086547
-0.3626999999999999,-127.97478418579122
-0.3637,-128.71043406172103
-0.3646999999999999,-129.5451137286414
-0.3657,-130.28076360457123
-0.3666999999999999,-131.07300193249566
-0.3677,-131.80865180842545
-0.3686999999999999,-132.516007458358
-0.36970000000000003,-133.3365400122797
-0.3706999999999999,-134.12877834020412
-0.37170000000000003,-134.94931089412586
-0.3726999999999999,-135.82643190004217
-0.37370000000000003,-136.70355290595847
-0.3746999999999999,-137.6089681378721
-0.37570000000000003,-138.44364780479248
-0.3766999999999999,-139.22173901971826
-0.37770000000000004,-140.01397734764268
-0.3786999999999999,-140.79206856256846
-0.37970000000000004,-141.75407224647665
-0.3806999999999999,-142.6028990263957
-0.38170000000000004,-143.4517258063147
-0.38269999999999993,-144.30055258623375
-0.38370000000000004,-145.14937936615277
-0.38469999999999993,-146.1396772760583
-0.38570000000000004,-146.9885040559773
-0.38669999999999993,-146.7055617960043
-0.38570000000000004,-144.30055258623375
-0.38469999999999993,-142.03701450644968
-0.38370000000000004,-140.05641868663866
-0.38269999999999993,-138.08996997982624
-0.38170000000000004,-136.2225510640044
-0.3806999999999999,-134.29854369618792
-0.37970000000000004,-132.41697766736743
-0.3786999999999999,-130.67688276853346
-0.37770000000000004,-128.9792292086954
-0.3766999999999999,-127.4088996658452
-0.37570000000000003,-125.79612878399907
-0.3746999999999999,-124.26824058014482
-0.37370000000000003,-122.69791103729463
-0.3726999999999999,-121.12758149444444
-0.37170000000000003,-119.55725195159425
-0.3706999999999999,-118.02936374774
-0.36970000000000003,-116.50147554388576
-0.3686999999999999,-115.10091135701937
-0.3677,-113.75693562214758
-0.3666999999999999,-112.3563714352812
-0.3657,-110.96995436141347
-0.3646999999999999,-109.56939017454708
-0.3637,-108.1688259876807
-0.3626999999999999,-106.68337912282242
-0.3617,-105.33940338795064
-0.36070000000000013,-104.02372187907615
-0.3597,-102.76462882219626
-0.35870000000000013,-101.50553576531638
-0.3577,-100.23229559543785
-0.35670000000000013,-98.93076119956201
-0.3557,-97.61507969068752
-0.3547000000000001,-96.27110395581576
-0.3537,-94.99786378593721
-0.3527000000000001,-93.78121206805329
-0.3517,-92.6070016891653
-0.3507000000000001,-91.41864419727867
-0.3497,-90.24443381839069
-0.3487000000000001,-89.07022343950271
-0.3477,-87.85357172161878
-0.3467000000000001,-86.5378902127443
-0.3457,-85.32123849486035
-0.3447000000000001,-84.13288100297372
-0.3437,-83.04355330207765
-0.3427000000000001,-81.95422560118158
-0.3417,-80.86489790028548
-0.3407000000000001,-79.73312886039348
-0.3397,-78.55891848150549
-0.3387000000000001,-77.38470810261751
-0.3377,-76.19635061073087
-0.3367000000000001,-75.06458157083884
-0.3357,-73.97525386994278
-0.3347000000000001,-72.92836750804264
-0.3337,-71.8814811461425
-0.3327000000000001,-70.79215344524643
-0.3317,-69.6603844053544
-0.3307000000000001,-68.52861536546239
-0.3297,-67.34025787357575
-0.3287000000000001,-66.20848883368372
-0.3277,-65.11916113278764
-0.3267000000000001,-64.0722747708875
-0.3257,-63.11027108697928
-0.3247000000000001,-62.02094338608321
-0.3237,-60.974057024183075
-0.3227000000000001,-59.884729323287
-0.3217,-58.880284300382826
-0.3207000000000001,-57.79095659948675
-0.3197,-56.74407023758662
-0.3187000000000001,-55.73962521468245
-0.3177,-54.834209982768826
-0.3167000000000001,-53.872206298860604
-0.3157,-52.86776127595642
-0.3147000000000001,-51.86331625305225
-0.3137,-50.77398855215617
-0.3127000000000001,-49.72710219025603
-0.3117,-48.72265716735186
-0.3107000000000001,-47.71821214444768
-0.3097,-46.84109113853137
-0.3087000000000001,-45.93567590661774
-0.3077,-44.97367222270952
-0.3067000000000001,-44.011668538801295
-0.30569999999999997,-43.007223515897124
-0.3047000000000001,-42.00277849299294
-0.30369999999999997,-41.04077480908471
-0.3027000000000001,-40.092918238175145
-0.30169999999999997,-39.21579723225882
-0.3007000000000001,-38.33867622634249
-0.29969999999999997,-37.47570233342482
-0.2987000000000001,-36.55613998851254
-0.29769999999999996,-35.594136304604326
-0.2967000000000001,-34.632132620696105
-0.29569999999999996,-33.712570275783825
-0.2947000000000001,-32.764713704874254
-0.29369999999999996,-31.887592698957924
-0.29270000000000007,-31.095354371033505
-0.29169999999999996,-30.274821817111786
-0.29070000000000007,-29.440142150191413
-0.28969999999999996,-28.478138466283188
-0.28870000000000007,-27.572723234369565
-0.28769999999999996,-26.65316088945729
-0.28670000000000007,-25.77603988354097
-0.28569999999999995,-24.95550732961925
-0.28470000000000006,-24.120827662698876
-0.28369999999999995,-23.385177786769056
-0.28270000000000006,-22.550498119848687
-0.28169999999999995,-21.729965565926964
-0.28070000000000006,-20.85284456001064
-0.27969999999999995,-19.93328221509837
-0.27870000000000006,-19.112749661176647
-0.27769999999999995,-18.27806999425627
-0.27670000000000006,-17.48583166633185
-0.27569999999999995,-16.792623129397985
-0.27470000000000006,-16.014531914472215
-0.27369999999999994,-15.222293586547794
-0.27270000000000005,-14.401761032626075
-0.27169999999999994,-13.567081365705702
-0.27070000000000005,-12.694204493688973
-0.26969999999999994,-11.909039722263879
-0.26870000000000005,-11.1677310011346
-0.26769999999999994,-10.470278330301136
-0.26670000000000005,-9.728969609171857
-0.26569999999999994,-8.987660888042578
