Potential V vs RHE, Current mA cm-2
0.013299999999999867,0.08502414912188871
0.012299999999999978,-1.5717442541500557
0.011299999999999866,-3.0996324580042955
0.010299999999999976,-4.538393849967037
0.009299999999999864,-5.977155241929781
0.008299999999999974,-7.329619244600755
0.007299999999999862,-8.68208324727173
0.006299999999999972,-9.946835149351072
0.00529999999999986,-11.1677310011346
0.0042999999999999705,-12.302329463626359
0.0032999999999998586,-13.3930718758223
0.0022999999999999687,-14.345172580631472
0.0012999999999998568,-15.349617603535648
0.00029999999999996696,-16.354062626439823
-0.000700000000000145,-17.316066310348052
-0.0017000000000000348,-18.27806999425627
-0.0027000000000001467,-19.2400736781645
-0.0037000000000000366,-20.159636023076775
-0.0047000000000001485,-21.065051254990397
-0.005700000000000038,-21.857289582914817
-0.00670000000000015,-22.63538079784059
-0.00770000000000004,-23.385177786769056
-0.008700000000000152,-24.120827662698876
-0.009700000000000042,-24.870624651627345
-0.010700000000000154,-25.60627452755716
-0.011700000000000044,-26.38436574248293
-0.012700000000000156,-27.134162731411404
-0.013700000000000045,-27.827371268345274
-0.014700000000000157,-28.53472691827779
-0.015700000000000047,-29.14305277721976
-0.01670000000000016,-29.751378636161718
-0.01770000000000005,-30.274821817111786
-0.01870000000000016,-30.88314767605375
-0.01970000000000005,-31.449032195999767
-0.020700000000000163,-32.05735805494172
-0.021700000000000053,-32.66568391388369
-0.022700000000000164,-33.288156885824314
-0.023700000000000054,-33.85404140577033
-0.024700000000000166,-34.41992592571634
-0.025700000000000056,-34.94336910666641
-0.026700000000000168,-35.38192960962457
-0.027700000000000058,-35.848784338580025
-0.02870000000000017,-36.329786180534136
-0.02970000000000006,-36.768346683492304
-0.03070000000000017,-37.249348525446415
-0.03170000000000006,-37.77279170639648
-0.03270000000000017,-38.253793548350586
-0.03370000000000006,-38.734795390304704
-0.034700000000000175,-39.173355893262865
-0.035700000000000065,-39.56947505722508
-0.03670000000000018,-39.95144710818864
-0.03770000000000007,-40.34756627215084
-0.03870000000000018,-40.701244097117105
-0.03970000000000007,-41.04077480908471
-0.04070000000000018,-41.47933531204288
-0.04170000000000007,-41.87545447600508
-0.04270000000000018,-42.2715736399673
-0.04370000000000007,-42.653545690930855
-0.044700000000000184,-43.04966485489307
-0.045700000000000074,-43.36090134086337
-0.046700000000000186,-43.657990713835034
-0.047700000000000076,-43.92678586080939
-0.04870000000000019,-44.223875233781044
-0.04970000000000008,-44.4926703807554
-0.05070000000000019,-44.84634820572166
-0.05170000000000008,-45.18587891768927
-0.05270000000000019,-45.581998081651484
-0.05370000000000008,-45.89323456762179
-0.05470000000000019,-46.2327652795894
-0.05570000000000008,-46.501560426563756
-0.056700000000000195,-46.75620846053947
-0.057700000000000085,-46.982562268517874
-0.058700000000000196,-47.23721030249357
-0.059700000000000086,-47.506005449467935
-0.0607000000000002,-47.76065348344364
-0.06170000000000009,-48.114331308409895
-0.0627000000000002,-48.45386202037751
-0.06370000000000009,-48.76509850634781
-0.0647000000000002,-49.03389365332217
-0.06570000000000009,-49.24610034830193
-0.0667000000000002,-49.458307043281685
-0.0677000000000001,-49.642219512264134
-0.0687000000000002,-49.85442620724389
-0.0697000000000001,-50.024191563227696
-0.07070000000000021,-50.29298671020206
-0.0717000000000001,-50.50519340518181
-0.07270000000000021,-50.81642989115212
-0.0737000000000001,-51.028636586131874
-0.07470000000000021,-51.25499039411028
-0.0757000000000001,-51.46719708909004
-0.07670000000000021,-51.65110955807249
-0.0777000000000001,-51.82087491405629
-0.07870000000000021,-51.990640270040096
-0.0797000000000001,-52.11796428702795
-0.08070000000000022,-52.34431809500636
-0.0817000000000001,-52.55652478998611
-0.08270000000000022,-52.82531993696047
-0.08370000000000011,-52.995085292944275
-0.08470000000000022,-53.22143910092268
-0.08570000000000011,-53.348763117910536
-0.08670000000000022,-53.518528473894335
-0.08770000000000011,-53.64585249088219
-0.08870000000000022,-53.7873236208687
-0.08970000000000011,-53.91464763785655
-0.09070000000000022,-54.1268543328363
-0.09170000000000011,-54.35320814081471
-0.09270000000000023,-54.52297349679851
-0.09370000000000012,-54.73518019177827
-0.09470000000000023,-54.919092660760725
-0.09570000000000012,-55.003975338752625
-0.09670000000000023,-55.13129935574048
-0.09770000000000012,-55.21618203373238
-0.09870000000000023,-55.31521182472294
-0.09970000000000012,-55.442535841710786
-0.10070000000000023,-55.612301197694585
-0.10170000000000012,-55.7820665536784
-0.10270000000000024,-55.96597902266086
-0.10370000000000013,-56.1781857176406
-0.10470000000000024,-56.30550973462846
-0.10570000000000013,-56.404539525619015
-0.10670000000000024,-56.53186354260687
-0.10770000000000013,-56.57430488160282
-0.10870000000000024,-56.70162889859067
-0.10970000000000013,-56.786511576582576
-0.11070000000000024,-56.927982706569075
-0.11170000000000013,-57.097748062552874
-0.11270000000000002,-57.30995475753264
-0.11370000000000013,-57.493867226515086
-0.11470000000000002,-57.62119124350295
-0.11570000000000014,-57.7485152604908
-0.11670000000000003,-57.8333979384827
-0.11770000000000014,-57.93242772947325
-0.11870000000000003,-58.017310407465146
-0.11970000000000014,-58.10219308545706
-0.12070000000000003,-58.27195844144086
-0.12170000000000014,-58.45587091042332
-0.12270000000000003,-58.62563626640712
-0.12370000000000014,-58.83784296138688
-0.12470000000000003,-58.97931409137338
-0.12570000000000014,-59.06419676936528
-0.12670000000000003,-59.19152078635314
-0.12770000000000015,-59.23396212534908
-0.12870000000000004,-59.31884480334099
-0.12970000000000015,-59.403727481332886
-0.13070000000000004,-59.54519861131939
-0.13170000000000015,-59.7149639673032
-0.13270000000000004,-59.884729323287
-0.13370000000000015,-60.02620045327351
-0.13470000000000004,-60.19596580925731
-0.13570000000000015,-60.28084848724921
-0.13670000000000004,-60.36573116524111
-0.13770000000000016,-60.45061384323302
-0.13870000000000005,-60.54964363422357
-0.13970000000000016,-60.63452631221547
-0.14070000000000005,-60.80429166819927
-0.14170000000000016,-60.93161568518713
-0.14270000000000005,-61.15796949316553
-0.14370000000000016,-61.327734849149344
-0.14470000000000005,-61.49750020513315
-0.14570000000000016,-61.5965299961237
-0.14670000000000005,-61.6814126741156
-0.14770000000000016,-61.7662953521075
-0.14870000000000005,-61.851178030099405
-0.14970000000000017,-61.97850204708726
-0.15070000000000006,-62.16241451606972
-0.15170000000000017,-62.33217987205352
-0.15270000000000006,-62.544386567033264
-0.15370000000000017,-62.72829903601572
-0.15470000000000006,-62.89806439199953
-0.15570000000000017,-63.02538840898739
-0.15670000000000006,-63.06782974798333
-0.15770000000000017,-63.15271242597524
-0.15870000000000006,-63.251742216965795
-0.15970000000000018,-63.29418355596174
-0.16070000000000007,-63.421507572949594
-0.16170000000000018,-63.59127292893339
-0.16270000000000007,-63.732744058919906
-0.16370000000000018,-63.902509414903705
-0.16470000000000007,-64.0722747708875
-0.16570000000000018,-64.15715744887942
-0.16670000000000007,-64.25618723986996
-0.16770000000000018,-64.34106991786187
-0.16870000000000007,-64.42595259585376
-0.16970000000000018,-64.51083527384567
-0.17070000000000007,-64.68060062982947
-0.17170000000000019,-64.86451309881193
-0.17270000000000008,-65.03427845479574
-0.1737000000000002,-65.2464851497755
-0.17470000000000008,-65.4728389577539
-0.1757000000000002,-65.60016297474175
-0.17670000000000008,-65.7274869917296
-0.1777000000000002,-65.82651678272015
-0.17870000000000008,-65.95384079970802
-0.1797000000000002,-66.08116481669586
-0.18070000000000008,-66.25093017267966
-0.1817000000000002,-66.43484264166212
-0.18270000000000008,-66.64704933664189
-0.1837000000000002,-66.87340314462028
-0.1847000000000001,-67.04316850060408
-0.1857000000000002,-67.17049251759194
-0.1867000000000001,-67.34025787357575
-0.1877000000000002,-67.48172900356225
-0.1887000000000001,-67.56661168155415
-0.1897000000000002,-67.73637703753796
-0.1907000000000001,-68.0051721845123
-0.1917000000000001,-68.17493754049613
-0.19269999999999998,-68.44373268747047
-0.1937000000000001,-68.65593938245023
-0.19469999999999998,-68.86814607742998
-0.1957000000000001,-69.05205854641244
-0.19669999999999999,-69.22182390239624
-0.1977000000000001,-69.30670658038814
-0.1987,-69.4906190493706
-0.1997000000000001,-69.61794306635846
-0.2007,-69.8301497613382
-0.2017000000000001,-70.05650356931662
-0.2027,-70.31115160329232
-0.2037000000000001,-70.57994675026669
-0.2047,-70.79215344524643
-0.2057000000000001,-70.96191880123024
-0.2067,-71.18827260920865
-0.2077000000000001,-71.31559662619651
-0.2087,-71.48536198218031
-0.2097000000000001,-71.6268331121668
-0.2107,-71.83903980714656
-0.2117000000000001,-72.05124650212633
-0.2127,-72.32004164910067
-0.2137000000000001,-72.53224834408043
-0.2147,-72.80104349105478
-0.2157000000000001,-73.0556915250305
-0.2167,-73.197162655017
-0.21770000000000012,-73.32448667200485
-0.2187,-73.49425202798865
-0.21970000000000012,-73.72060583596706
-0.2207,-73.97525386994278
-0.22170000000000012,-74.24404901691713
-0.2227,-74.49869705089283
-0.22370000000000012,-74.72505085887124
-0.2247,-75.02214023184291
-0.22570000000000012,-75.19190558782671
-0.2267,-75.37581805680915
-0.22770000000000012,-75.5880247517889
-0.22870000000000001,-75.77193722077136
-0.22970000000000013,-75.94170257675518
-0.23070000000000002,-76.19635061073087
-0.23170000000000013,-76.46514575770523
-0.23270000000000002,-76.7622351306769
-0.23370000000000013,-77.0734716166472
-0.23470000000000002,-77.28567831162695
-0.23570000000000013,-77.51203211960537
-0.23670000000000002,-77.76668015358106
-0.2376999999999999,-77.95059262256353
-0.23870000000000002,-78.16279931754329
-0.2396999999999999,-78.33256467352709
-0.24070000000000003,-78.64380115949739
-0.24169999999999991,-78.9550376454677
-0.24270000000000003,-79.20968567944341
-0.24369999999999992,-79.52092216541372
-0.24470000000000003,-79.7755701993894
-0.24569999999999992,-80.04436534636378
-0.24670000000000003,-80.25657204134353
-0.24769999999999992,-80.42633739732734
-0.24870000000000003,-80.69513254430169
-0.24969999999999992,-80.9497805782774
-0.25070000000000003,-81.26101706424771
-0.2516999999999999,-81.51566509822342
-0.25270000000000004,-81.86934292318966
-0.2536999999999999,-82.22302074815593
-0.25470000000000004,-82.61913991211814
-0.2556999999999999,-82.87378794609386
-0.25670000000000004,-83.14258309306821
-0.25769999999999993,-83.39723112704392
-0.25870000000000004,-83.66602627401826
-0.25969999999999993,-83.96311564698992
-0.26070000000000004,-84.23191079396429
-0.26169999999999993,-84.57144150593189
-0.26270000000000004,-84.92511933089816
-0.26369999999999993,-85.32123849486035
-0.26470000000000005,-85.61832786783202
-0.26569999999999994,-85.92956435380233
-0.26670000000000005,-86.28324217876859
-0.26769999999999994,-86.5378902127443
-0.26870000000000005,-86.80668535971866
-0.26969999999999994,-87.14621607168625
-0.27070000000000005,-87.49989389665252
-0.27169999999999994,-87.89601306061473
-0.27270000000000005,-88.27798511157829
-0.27369999999999994,-88.6741042755405
-0.27470000000000006,-89.07022343950271
-0.27569999999999995,-89.36731281247435
-0.27670000000000006,-89.63610795944872
-0.27769999999999995,-89.94734444541903
-0.27870000000000006,-90.24443381839069
-0.27969999999999995,-90.59811164335694
-0.28070000000000006,-90.99423080731917
-0.28169999999999995,-91.37620285828272
-0.28270000000000006,-91.81476336124088
-0.28369999999999995,-92.25332386419905
-0.28470000000000006,-92.6918843671572
-0.28569999999999995,-93.03141507912481
-0.28670000000000007,-93.42753424308701
-0.28769999999999996,-93.78121206805329
-0.28870000000000007,-94.17733123201549
-0.28969999999999996,-94.5168619439831
-0.29070000000000007,-94.95542244694126
-0.29169999999999996,-95.39398294989942
-0.29270000000000007,-95.83254345285758
-0.29369999999999996,-96.31354529481169
-0.2947000000000001,-96.73795868477121
-0.29569999999999996,-97.09163650973747
-0.2967000000000001,-97.4877556736997
-0.29769999999999996,-97.84143349866595
-0.2987000000000001,-98.2234055496295
-0.29969999999999997,-98.74684873057957
-0.3007000000000001,-99.22785057253368
-0.30169999999999997,-99.70885241448778
-0.3027000000000001,-100.18985425644189
-0.30369999999999997,-100.62841475940007
-0.3047000000000001,-101.10941660135417
-0.30569999999999997,-101.54797710431234
-0.3067000000000001,-101.92994915527588
-0.3077,-102.28362698024215
-0.3087000000000001,-102.63730480520842
-0.3097,-103.07586530816658
-0.3107000000000001,-103.64174982811258
-0.3117,-104.16519300906265
-0.3127000000000001,-104.68863619001272
-0.3137,-105.21207937096277
-0.3147000000000001,-105.7779638909088
-0.3157,-106.30140707185885
-0.3167000000000001,-106.78240891381296
-0.3177,-107.26341075576708
-0.3187000000000001,-107.73026548472255
-0.3197,-108.3102971176672
-0.3207000000000001,-108.91862297660917
-0.3217,-109.4845074965552
-0.3227000000000001,-110.05039201650122
-0.3237,-110.6162765364472
-0.3247000000000001,-111.13971971739728
-0.3257,-111.6207215593514
-0.3267000000000001,-112.14416474030146
-0.3277,-112.58272524325962
-0.3287000000000001,-113.06372708521374
-0.3297,-113.53058181416918
-0.3307000000000001,-114.11061344711386
-0.3317,-114.63405662806393
-0.3327000000000001,-115.2423824870059
-0.3337,-115.80826700695191
-0.3347000000000001,-116.41659286589388
-0.3357,-116.98247738583989
-0.3367000000000001,-117.59080324478184
-0.3377,-118.11424642573192
-0.3387000000000001,-118.68013094567793
-0.3397,-119.24601546562396
-0.3407000000000001,-119.9109297765605
-0.3417,-120.56169697449842
-0.3427000000000001,-121.21246417243634
-0.3437,-121.86323137037427
-0.3447000000000001,-122.57058702030677
-0.3457,-123.1364715402528
-0.3467000000000001,-123.70235606019881
-0.3477,-124.26824058014482
-0.3487000000000001,-124.87656643908679
-0.3497,-125.48489229802875
-0.3507000000000001,-126.14980660896532
-0.3517,-126.80057380690324
-0.3527000000000001,-127.4937823438371
-0.3537,-128.2294322197669
-0.3547000000000001,-128.89434653070347
-0.3557,-129.5451137286414
-0.35670000000000013,-130.19588092657932
-0.3577,-130.90323657651186
-0.35870000000000013,-131.5964451134457
-0.3597,-132.2896536503796
-0.36070000000000013,-133.12433331729994
-0.3617,-133.94486587122168
-0.3626999999999999,-134.77954553814206
-0.3637,-135.6142252050624
-0.3646999999999999,-136.34987508099226
-0.3657,-137.04308361792607
-0.3666999999999999,-137.75043926785864
-0.3677,-138.44364780479248
-0.3686999999999999,-139.1792976807223
-0.36970000000000003,-139.97153600864672
-0.3706999999999999,-140.74962722357247
-0.37170000000000003,-141.61260111649017
-0.3726999999999999,-142.4614278964092
-0.37370000000000003,-143.3102546763282
-0.3746999999999999,-144.15908145624724
-0.37570000000000003,-144.86643710617977
-0.3766999999999999,-145.57379275611228
-0.37770000000000004,-146.4226195360313
-0.3786999999999999,-147.1299751859638
-0.37970000000000004,-147.83733083589632
-0.3806999999999999,-148.68615761581535
-0.38170000000000004,-149.53498439573437
-0.38269999999999993,-150.38381117565342
-0.38370000000000004,-151.23263795557244
-0.38469999999999993,-151.93999360550492
-0.38570000000000004,-152.78882038542397
-0.38669999999999993,-152.36440699546444
-0.38570000000000004,-149.8179266557074
-0.38469999999999993,-147.4129174459368
-0.38370000000000004,-145.14937936615277
-0.38269999999999993,-143.0273124163552
-0.38170000000000004,-141.06086370954282
-0.3806999999999999,-139.13685634172634
-0.37970000000000004,-137.2694374259045
-0.3786999999999999,-135.47275407507593
-0.37770000000000004,-133.64777649825
-0.3766999999999999,-131.80865180842545
-0.37570000000000003,-130.06855690959148
-0.3746999999999999,-128.32846201075745
-0.37370000000000003,-126.6732497899154
-0.3726999999999999,-125.04633179507057
-0.37170000000000003,-123.532590704215
-0.3706999999999999,-122.00470250036076
-0.36970000000000003,-120.51925563550247
-0.3686999999999999,-118.99136743164823
-0.3677,-117.50592056678994
-0.3666999999999999,-115.97803236293572
-0.3657,-114.53502683707337
-0.3646999999999999,-113.06372708521374
-0.3637,-111.57828022035544
-0.3626999999999999,-110.17771603348905
-0.3617,-108.83374029861727
-0.36070000000000013,-107.51805878974278
-0.3597,-106.15993594187235
-0.35870000000000013,-104.81596020700057
-0.3577,-103.50027869812607
-0.35670000000000013,-102.11386162425833
-0.3557,-100.75573877638791
-0.3547000000000001,-99.35517458952152
-0.3537,-98.05364019364569
-0.3527000000000001,-96.79454713676581
-0.3517,-95.52130696688728
-0.3507000000000001,-94.30465524900335
-0.3497,-93.08800353111941
-0.3487000000000001,-91.81476336124088
-0.3477,-90.55567030436099
-0.3467000000000001,-89.28243013448247
-0.3457,-87.98089573860662
-0.3447000000000001,-86.66521422973216
-0.3437,-85.44856251184822
-0.3427000000000001,-84.27435213296022
-0.3417,-83.14258309306821
-0.3407000000000001,-81.95422560118158
-0.3397,-80.82245656128954
-0.3387000000000001,-79.73312886039348
-0.3377,-78.51647714250953
-0.3367000000000001,-77.34226676362155
-0.3357,-76.15390927173492
-0.3347000000000001,-74.97969889284694
-0.3337,-73.80548851395896
-0.3327000000000001,-72.71616081306288
-0.3317,-71.6268331121668
-0.3307000000000001,-70.53750541127073
-0.3297,-69.43403059737601
-0.3287000000000001,-68.34470289647993
-0.3277,-67.21293385658788
-0.3267000000000001,-66.08116481669586
-0.3257,-64.94939577680383
-0.3247000000000001,-63.77518539791585
-0.3237,-62.68585769701977
-0.3227000000000001,-61.63897133511965
-0.3217,-60.59208497321952
-0.3207000000000001,-59.587639950315335
-0.3197,-58.54075358841522
-0.3187000000000001,-57.493867226515086
-0.3177,-56.44698086461496
-0.3167000000000001,-55.31521182472294
-0.3157,-54.2117370108282
-0.3147000000000001,-53.12240930993213
-0.3137,-52.075522948032
-0.3127000000000001,-51.028636586131874
-0.3117,-50.024191563227696
-0.3107000000000001,-49.076334992318124
-0.3097,-48.156772647405845
-0.3087000000000001,-47.15232762450167
-0.3077,-46.147882601597495
-0.3067000000000001,-45.10099623969737
-0.30569999999999997,-44.054109877797245
-0.3047000000000001,-43.007223515897124
-0.30369999999999997,-42.00277849299294
-0.3027000000000001,-41.04077480908471
-0.30169999999999997,-40.092918238175145
-0.3007000000000001,-39.21579723225882
-0.29969999999999997,-38.29623488734655
-0.2987000000000001,-37.376672542434264
-0.29769999999999996,-36.4288159715247
-0.2967000000000001,-35.42437094862052
-0.29569999999999996,-34.462367264712285
-0.2947000000000001,-33.45792224180811
-0.29369999999999996,-32.49591855789989
-0.29270000000000007,-31.57635621298762
-0.29169999999999996,-30.71338232006995
-0.29070000000000007,-29.836261314153624
-0.28969999999999996,-28.959140308237306
-0.28870000000000007,-28.09616641531963
-0.28769999999999996,-27.176604070407354
-0.28670000000000007,-26.257041725495082
-0.28569999999999995,-25.295038041586857
-0.28470000000000006,-24.389622809673234
-0.28369999999999995,-23.51250180375691
-0.28270000000000006,-22.592939458844636
-0.28169999999999995,-21.772406904922917
-0.28070000000000006,-20.93772723800254
-0.27969999999999995,-20.159636023076775
-0.27870000000000006,-19.3249563561564
-0.27769999999999995,-18.44783535024008
-0.27670000000000006,-17.584861457322408
-0.27569999999999995,-16.70774045140608
-0.27470000000000006,-15.830619445489761
-0.27369999999999994,-15.01008689156804
-0.27270000000000005,-14.175407224647667
-0.27169999999999994,-13.3930718758223
-0.27070000000000005,-12.607907104397206
-0.26969999999999994,-11.86659838326793
-0.26870000000000005,-11.081433611842833
-0.26769999999999994,-10.25241279012192
-0.26670000000000005,-9.423391968401008
-0.26569999999999994,-8.55051509638428
-0.26470000000000005,-7.722908985963235
