Potential V vs RHE, Current mA cm-2
0.013299999999999867,-0.26384365742482935
0.012299999999999978,-2.576189277054232
0.011299999999999866,-4.582249900262854
0.010299999999999976,-6.458157083883892
0.009299999999999864,-8.070927965730034
0.008299999999999974,-9.467248018696827
0.007299999999999862,-10.819712021367803
0.006299999999999972,-11.996751822855511
0.00529999999999986,-13.087494235051453
0.0042999999999999705,-14.175407224647667
0.0032999999999998586,-15.222293586547794
0.0022999999999999687,-16.269179948447924
0.0012999999999998568,-17.40094898833995
0.00029999999999996696,-18.49027668923603
-0.000700000000000145,-19.636192842126707
-0.0017000000000000348,-20.76796188201874
-0.0027000000000001467,-21.814848243918867
-0.0037000000000000366,-22.819293266823045
-0.0047000000000001485,-23.724708498736668
-0.005700000000000038,-24.474505487665134
-0.00670000000000015,-25.12527268560305
-0.00770000000000004,-25.691157205549064
-0.008700000000000152,-26.17215904750318
-0.009700000000000042,-26.65316088945729
-0.010700000000000154,-27.091721392415455
-0.011700000000000044,-27.615164573365515
-0.012700000000000156,-28.13860775431558
-0.013700000000000045,-28.746933613257543
-0.014700000000000157,-29.35525947219951
-0.015700000000000047,-30.04846800913338
-0.01670000000000016,-30.7558236590659
-0.01770000000000005,-31.40659085700382
-0.01870000000000016,-32.01491671594578
-0.01970000000000005,-32.53835989689585
-0.020700000000000163,-32.93447906085806
-0.021700000000000053,-33.231568433829715
-0.022700000000000164,-33.54280491980002
-0.023700000000000054,-33.712570275783825
-0.024700000000000166,-33.85404140577033
-0.025700000000000056,-34.06624810075008
-0.026700000000000168,-34.236013456733886
-0.027700000000000058,-34.58969128170015
-0.02870000000000017,-34.94336910666641
-0.02970000000000006,-35.32534115762997
-0.03070000000000017,-35.806342999584075
-0.03170000000000006,-36.28734484153819
-0.03270000000000017,-36.768346683492304
-0.03370000000000006,-37.164465847454515
-0.034700000000000175,-37.51814367242077
-0.035700000000000065,-37.73035036740053
-0.03670000000000018,-37.90011572338433
-0.03770000000000007,-37.94255706238028
-0.03870000000000018,-37.99914551437489
-0.03970000000000007,-37.99914551437489
-0.04070000000000018,-38.04158685337084
-0.04170000000000007,-38.08402819236679
-0.04270000000000018,-38.253793548350586
-0.04370000000000007,-38.46600024333035
-0.044700000000000184,-38.734795390304704
-0.045700000000000074,-39.08847321527096
-0.046700000000000186,-39.42800392723857
-0.047700000000000076,-39.739240413208876
-0.04870000000000019,-40.03632978618054
-0.04970000000000008,-40.26268359415894
-0.05070000000000019,-40.34756627215084
-0.05170000000000008,-40.3900076111468
-0.05270000000000019,-40.3900076111468
-0.05370000000000008,-40.26268359415894
-0.05470000000000019,-40.220242255162994
-0.05570000000000008,-40.135359577171094
-0.056700000000000195,-40.135359577171094
-0.057700000000000085,-40.177800916167044
-0.058700000000000196,-40.34756627215084
-0.059700000000000086,-40.51733162813464
-0.0607000000000002,-40.828568114104954
-0.06170000000000009,-41.083216148080666
-0.0627000000000002,-41.352011295055014
-0.06370000000000009,-41.606659329030734
-0.0647000000000002,-41.74813045901723
-0.06570000000000009,-41.79057179801318
-0.0667000000000002,-41.74813045901723
-0.0677000000000001,-41.70568912002128
-0.0687000000000002,-41.52177665103883
-0.0697000000000001,-41.352011295055014
-0.07070000000000021,-41.22468727806717
-0.0717000000000001,-41.139804600075266
-0.07270000000000021,-41.182245939071215
-0.0737000000000001,-41.267128617063115
-0.07470000000000021,-41.39445263405098
-0.0757000000000001,-41.606659329030734
-0.07670000000000021,-41.79057179801318
-0.0777000000000001,-42.00277849299294
-0.07870000000000021,-42.186690961975394
-0.0797000000000001,-42.2715736399673
-0.08070000000000022,-42.2715736399673
-0.0817000000000001,-42.186690961975394
-0.08270000000000022,-42.04521983198889
-0.08370000000000011,-41.83301313700913
-0.08470000000000022,-41.66324778102533
-0.08570000000000011,-41.47933531204288
-0.08670000000000022,-41.352011295055014
-0.08770000000000011,-41.352011295055014
-0.08870000000000022,-41.39445263405098
-0.08970000000000011,-41.47933531204288
-0.09070000000000022,-41.66324778102533
-0.09170000000000011,-41.83301313700913
-0.09270000000000023,-42.00277849299294
-0.09370000000000012,-42.130102509980794
-0.09470000000000023,-42.186690961975394
-0.09570000000000012,-42.130102509980794
-0.09670000000000023,-42.00277849299294
-0.09770000000000012,-41.83301313700913
-0.09870000000000023,-41.56421799003478
-0.09970000000000012,-41.352011295055014
-0.10070000000000023,-41.139804600075266
-0.10170000000000012,-40.99833347008877
-0.10270000000000024,-40.91345079209687
-0.10370000000000013,-40.95589213109281
-0.10470000000000024,-40.99833347008877
-0.10570000000000013,-41.139804600075266
-0.10670000000000024,-41.267128617063115
-0.10770000000000013,-41.43689397304693
-0.10870000000000024,-41.52177665103883
-0.10970000000000013,-41.52177665103883
-0.11070000000000024,-41.43689397304693
-0.11170000000000013,-41.30956995605907
-0.11270000000000002,-41.083216148080666
-0.11370000000000013,-40.828568114104954
-0.11470000000000002,-40.559772967130606
-0.11570000000000014,-40.34756627215084
-0.11670000000000003,-40.135359577171094
-0.11770000000000014,-40.03632978618054
-0.11870000000000003,-40.092918238175145
-0.11970000000000014,-40.092918238175145
-0.12070000000000003,-40.220242255162994
-0.12170000000000014,-40.34756627215084
-0.12270000000000003,-40.43244895014274
-0.12370000000000014,-40.51733162813464
-0.12470000000000003,-40.51733162813464
-0.12570000000000014,-40.43244895014274
-0.12670000000000003,-40.26268359415894
-0.12770000000000015,-40.03632978618054
-0.12870000000000004,-39.739240413208876
-0.12970000000000015,-39.47044526623452
-0.13070000000000004,-39.258238571254765
-0.13170000000000015,-39.08847321527096
-0.13270000000000004,-38.94700208528445
-0.13370000000000015,-38.94700208528445
-0.13470000000000004,-38.98944342428042
-0.13570000000000015,-39.08847321527096
-0.13670000000000004,-39.21579723225882
-0.13770000000000016,-39.30067991025072
-0.13870000000000005,-39.34312124924667
-0.13970000000000016,-39.34312124924667
-0.14070000000000005,-39.258238571254765
-0.14170000000000016,-39.08847321527096
-0.14270000000000005,-38.86211940729255
-0.14370000000000016,-38.5650300343209
-0.14470000000000005,-38.33867622634249
-0.14570000000000016,-38.08402819236679
-0.14670000000000005,-37.90011572338433
-0.14770000000000016,-37.77279170639648
-0.14870000000000005,-37.77279170639648
-0.14970000000000017,-37.81523304539243
-0.15070000000000006,-37.90011572338433
-0.15170000000000017,-38.08402819236679
-0.15270000000000006,-38.16891087035869
-0.15370000000000017,-38.211352209354644
-0.15470000000000006,-38.211352209354644
-0.15570000000000017,-38.12646953136274
-0.15670000000000006,-37.99914551437489
-0.15770000000000017,-37.73035036740053
-0.15870000000000006,-37.51814367242077
-0.15970000000000018,-37.249348525446415
-0.16070000000000007,-36.99470049147071
-0.16170000000000018,-36.8532293614842
-0.16270000000000007,-36.81078802248826
-0.16370000000000018,-36.81078802248826
-0.16470000000000007,-36.89567070048016
-0.16570000000000018,-37.037141830466666
-0.16670000000000007,-37.164465847454515
-0.16770000000000018,-37.291789864442364
-0.16870000000000007,-37.376672542434264
-0.16970000000000018,-37.376672542434264
-0.17070000000000007,-37.291789864442364
-0.17170000000000019,-37.164465847454515
-0.17270000000000008,-36.99470049147071
-0.1737000000000002,-36.725905344496354
-0.17470000000000008,-36.5136986495166
-0.1757000000000002,-36.28734484153819
-0.17670000000000008,-36.16002082455034
-0.1777000000000002,-36.11757948555439
-0.17870000000000008,-36.11757948555439
-0.1797000000000002,-36.244903502542236
-0.18070000000000008,-36.37222751953009
-0.1817000000000002,-36.55613998851254
-0.18270000000000008,-36.6834640055004
-0.1837000000000002,-36.768346683492304
-0.1847000000000001,-36.81078802248826
-0.1857000000000002,-36.768346683492304
-0.1867000000000001,-36.6834640055004
-0.1877000000000002,-36.47125731052064
-0.1887000000000001,-36.244903502542236
-0.1897000000000002,-36.03269680756248
-0.1907000000000001,-35.848784338580025
-0.1917000000000001,-35.679018982596226
-0.19269999999999998,-35.679018982596226
-0.1937000000000001,-35.721460321592176
-0.19469999999999998,-35.806342999584075
-0.1957000000000001,-35.99025546856653
-0.19669999999999999,-36.16002082455034
-0.1977000000000001,-36.37222751953009
-0.1987,-36.5136986495166
-0.1997000000000001,-36.55613998851254
-0.2007,-36.55613998851254
-0.2017000000000001,-36.4288159715247
-0.2027,-36.28734484153819
-0.2037000000000001,-36.07513814655844
-0.2047,-35.90537279057463
-0.2057000000000001,-35.721460321592176
-0.2067,-35.636577643600276
-0.2077000000000001,-35.636577643600276
-0.2087,-35.679018982596226
-0.2097000000000001,-35.806342999584075
-0.2107,-36.03269680756248
-0.2117000000000001,-36.244903502542236
-0.2127,-36.4288159715247
-0.2137000000000001,-36.55613998851254
-0.2147,-36.64102266650445
-0.2157000000000001,-36.6834640055004
-0.2167,-36.5985813275085
-0.21770000000000012,-36.47125731052064
-0.2187,-36.244903502542236
-0.21970000000000012,-36.07513814655844
-0.2207,-35.94781412957058
-0.22170000000000012,-35.848784338580025
-0.2227,-35.848784338580025
-0.22370000000000012,-35.94781412957058
-0.2247,-36.07513814655844
-0.22570000000000012,-36.28734484153819
-0.2267,-36.5136986495166
-0.22770000000000012,-36.6834640055004
-0.22870000000000001,-36.81078802248826
-0.22970000000000013,-36.89567070048016
-0.23070000000000002,-36.89567070048016
-0.23170000000000013,-36.81078802248826
-0.23270000000000002,-36.6834640055004
-0.23370000000000013,-36.5136986495166
-0.23470000000000002,-36.329786180534136
-0.23570000000000013,-36.20246216354629
-0.23670000000000002,-36.11757948555439
-0.2376999999999999,-36.11757948555439
-0.23870000000000002,-36.20246216354629
-0.2396999999999999,-36.329786180534136
-0.24070000000000003,-36.5985813275085
-0.24169999999999991,-36.725905344496354
-0.24270000000000003,-36.95225915247476
-0.24369999999999992,-37.122024508458566
-0.24470000000000003,-37.164465847454515
-0.24569999999999992,-37.122024508458566
-0.24670000000000003,-37.07958316946261
-0.24769999999999992,-36.89567070048016
-0.24870000000000003,-36.725905344496354
-0.24969999999999992,-36.55613998851254
-0.25070000000000003,-36.4288159715247
-0.2516999999999999,-36.37222751953009
-0.25270000000000004,-36.329786180534136
-0.2536999999999999,-36.4288159715247
-0.25470000000000004,-36.55613998851254
-0.2556999999999999,-36.725905344496354
-0.25670000000000004,-36.95225915247476
-0.25769999999999993,-37.122024508458566
-0.25870000000000004,-37.249348525446415
-0.25969999999999993,-37.291789864442364
-0.26070000000000004,-37.291789864442364
-0.26169999999999993,-37.206907186450465
-0.26270000000000004,-37.037141830466666
-0.26369999999999993,-36.81078802248826
-0.26470000000000005,-36.6834640055004
-0.26569999999999994,-36.5136986495166
-0.26670000000000005,-36.47125731052064
-0.26769999999999994,-36.47125731052064
-0.26870000000000005,-36.5136986495166
-0.26969999999999994,-36.64102266650445
-0.27070000000000005,-36.81078802248826
-0.27169999999999994,-36.99470049147071
-0.27270000000000005,-37.206907186450465
-0.27369999999999994,-37.334231203438314
-0.27470000000000006,-37.376672542434264
-0.27569999999999995,-37.334231203438314
-0.27670000000000006,-37.249348525446415
-0.27769999999999995,-37.07958316946261
-0.27870000000000006,-36.8532293614842
-0.27969999999999995,-36.6834640055004
-0.28070000000000006,-36.5136986495166
-0.28169999999999995,-36.4288159715247
-0.28270000000000006,-36.4288159715247
-0.28369999999999995,-36.5136986495166
-0.28470000000000006,-36.64102266650445
-0.28569999999999995,-36.81078802248826
-0.28670000000000007,-37.037141830466666
-0.28769999999999996,-37.164465847454515
-0.28870000000000007,-37.291789864442364
-0.28969999999999996,-37.376672542434264
-0.29070000000000007,-37.334231203438314
-0.29169999999999996,-37.249348525446415
-0.29270000000000007,-37.07958316946261
-0.29369999999999996,-36.89567070048016
-0.2947000000000001,-36.725905344496354
-0.29569999999999996,-36.5985813275085
-0.2967000000000001,-36.5136986495166
-0.29769999999999996,-36.47125731052064
-0.2987000000000001,-36.55613998851254
-0.29969999999999997,-36.6834640055004
-0.3007000000000001,-36.8532293614842
-0.30169999999999997,-37.07958316946261
-0.3027000000000001,-37.249348525446415
-0.30369999999999997,-37.376672542434264
-0.3047000000000001,-37.47570233342482
-0.30569999999999997,-37.41911388143023
-0.3067000000000001,-37.334231203438314
-0.3077,-37.164465847454515
-0.3087000000000001,-36.95225915247476
-0.3097,-36.81078802248826
-0.3107000000000001,-36.6834640055004
-0.3117,-36.5985813275085
-0.3127000000000001,-36.5985813275085
-0.3137,-36.6834640055004
-0.3147000000000001,-36.81078802248826
-0.3157,-37.07958316946261
-0.3167000000000001,-37.249348525446415
-0.3177,-37.47570233342482
-0.3187000000000001,-37.60302635041268
-0.3197,-37.687909028404576
-0.3207000000000001,-37.687909028404576
-0.3217,-37.645467689408626
-0.3227000000000001,-37.47570233342482
-0.3237,-37.291789864442364
-0.3247000000000001,-37.164465847454515
-0.3257,-37.037141830466666
-0.3267000000000001,-36.99470049147071
-0.3277,-37.037141830466666
-0.3287000000000001,-37.164465847454515
-0.3297,-37.291789864442364
-0.3307000000000001,-37.60302635041268
-0.3317,-37.85767438438838
-0.3327000000000001,-38.04158685337084
-0.3337,-38.253793548350586
-0.3347000000000001,-38.38111756533845
-0.3357,-38.38111756533845
-0.3367000000000001,-38.33867622634249
-0.3377,-38.29623488734655
-0.3387000000000001,-38.12646953136274
-0.3397,-38.08402819236679
-0.3407000000000001,-37.99914551437489
-0.3417,-37.99914551437489
-0.3427000000000001,-38.08402819236679
-0.3437,-38.211352209354644
-0.3447000000000001,-38.46600024333035
-0.3457,-38.734795390304704
-0.3467000000000001,-39.046031876275016
-0.3477,-39.34312124924667
-0.3487000000000001,-39.56947505722508
-0.3497,-39.739240413208876
-0.3507000000000001,-39.82412309120078
-0.3517,-39.86656443019674
-0.3527000000000001,-39.82412309120078
-0.3537,-39.82412309120078
-0.3547000000000001,-39.78168175220483
-0.3557,-39.78168175220483
-0.35670000000000013,-39.82412309120078
-0.3577,-39.99388844718459
-0.35870000000000013,-40.26268359415894
-0.3597,-40.51733162813464
-0.36070000000000013,-40.87100945310091
-0.3617,-41.267128617063115
-0.3626999999999999,-41.606659329030734
-0.3637,-41.96033715399699
-0.3646999999999999,-42.229132300971344
-0.3657,-42.39889765695515
-0.3666999999999999,-42.526221673943
-0.3677,-42.568663012938956
-0.3686999999999999,-42.6111043519349
-0.36970000000000003,-42.71013414292546
-0.3706999999999999,-42.79501682091736
-0.37170000000000003,-43.007223515897124
-0.3726999999999999,-43.23357732387552
-0.37370000000000003,-43.61554937483908
-0.3746999999999999,-44.011668538801295
-0.37570000000000003,-44.535111719751356
-0.3766999999999999,-45.01611356170547
-0.37770000000000004,-45.497115403659585
-0.3786999999999999,-45.93567590661774
-0.37970000000000004,-46.3176479575813
-0.3806999999999999,-46.628884443551605
-0.38170000000000004,-46.88353247752732
-0.38269999999999993,-47.067444946509774
-0.38370000000000004,-47.19476896349763
-0.38469999999999993,-47.40697565847737
-0.38570000000000004,-47.633329466455784
-0.38669999999999993,-46.37423640957591
-0.38570000000000004,-42.71013414292546
-0.38469999999999993,-39.61191639622103
-0.38370000000000004,-36.95225915247476
-0.38269999999999993,-34.632132620696105
-0.38170000000000004,-32.53835989689585
-0.3806999999999999,-30.670940981073993
-0.37970000000000004,-28.8742576302454
-0.3786999999999999,-27.219045409403304
-0.37770000000000004,-25.60627452755716
-0.3766999999999999,-23.993503645711023
-0.37570000000000003,-22.46561544185678
-0.3746999999999999,-20.93772723800254
-0.37370000000000003,-19.579604390132108
-0.3726999999999999,-18.23562865526032
-0.37170000000000003,-17.103859615368293
-0.3706999999999999,-16.056973253468165
-0.36970000000000003,-15.137410908555893
-0.3686999999999999,-14.30273124163552
-0.3677,-13.610937416001518
-0.3666999999999999,-12.913484745168056
-0.3657,-12.258473413330542
-0.3646999999999999,-11.604876792792895
-0.3637,-10.863568071663616
-0.3626999999999999,-10.120844639234473
-0.3617,-9.293238528813426
-0.36070000000000013,-8.4203616567967
-0.3597,-7.591340835075788
-0.35870000000000013,-6.719878674358924
-0.3577,-5.9347139029338285
-0.35670000000000013,-5.235846520800501
-0.3557,-4.626105950558669
-0.3547000000000001,-4.102662769608606
-0.3537,-3.623075638954359
-0.3527000000000001,-3.317497998183511
-0.3517,-2.924208256821031
-0.3507000000000001,-2.576189277054232
-0.3497,-2.1828995356917518
-0.3487000000000001,-1.7033124050375041
-0.3477,-1.1362961160515976
-0.3467000000000001,-0.5692798270656908
-0.3457,0.08502414912188871
-0.3447000000000001,0.7829012333453113
-0.3437,1.3934906303670611
-0.3427000000000001,2.004645911908757
-0.3417,2.5280890928588207
-0.3407000000000001,2.963820173217252
-0.3397,3.355695203279867
-0.3387000000000001,3.6174167937548987
-0.3377,3.8366970452339793
-0.3367000000000001,4.054562585413195
-0.3357,4.272428125592412
-0.3347000000000001,4.578005766363259
-0.3337,4.883583407134107
-0.3327000000000001,5.319314487492538
-0.3317,5.75504556785097
-0.3307000000000001,6.278488748801033
-0.3297,6.845787980046913
-0.3287000000000001,7.413087211292793
-0.3277,7.892674341947039
-0.3267000000000001,8.328405422305472
-0.3257,8.63398306307632
-0.3247000000000001,8.89570465355135
-0.3237,9.06971414343475
-0.3227000000000001,9.157426244026382
-0.3217,9.287579683613965
-0.3207000000000001,9.419147834501414
-0.3197,9.593157324384812
-0.3187000000000001,9.811022864564029
-0.3177,10.160456555630693
-0.3167000000000001,10.509890246697358
-0.3157,10.989477377351605
-0.3147000000000001,11.425208457710037
-0.3137,11.862354249368334
-0.3127000000000001,12.298085329726765
-0.3117,12.603662970497613
-0.3107000000000001,12.865384560972643
-0.3097,13.039394050856043
-0.3087000000000001,13.08325010115186
-0.3077,13.127106151447675
-0.3067000000000001,13.127106151447675
-0.30569999999999997,13.213403540739444
-0.3047000000000001,13.344971691626892
-0.30369999999999997,13.475125131214474
-0.3027000000000001,13.736846721689506
-0.30169999999999997,13.998568312164537
-0.3007000000000001,14.387613919627421
-0.29969999999999997,14.741291744593681
-0.2987000000000001,15.137410908555893
-0.29769999999999996,15.4769416205235
-0.2967000000000001,15.74573676749786
-0.29569999999999996,15.91550212348166
-0.2947000000000001,16.04282614046952
-0.29369999999999996,16.04282614046952
-0.29270000000000007,16.000384801473565
-0.29169999999999996,16.000384801473565
-0.29070000000000007,15.957943462477614
-0.28969999999999996,16.000384801473565
-0.28870000000000007,16.141855931460068
-0.28769999999999996,16.269179948447924
-0.28670000000000007,16.56626932141958
-0.28569999999999995,16.835064468393938
-0.28470000000000006,17.188742293360193
-0.28369999999999995,17.528273005327804
-0.28270000000000006,17.797068152302163
-0.28169999999999995,18.009274847281915
-0.28070000000000006,18.13659886426977
-0.27969999999999995,18.19318731626437
-0.27870000000000006,18.19318731626437
-0.27769999999999995,18.05171618627787
-0.27670000000000006,17.966833508285966
-0.27569999999999995,17.924392169290012
-0.27470000000000006,17.881950830294063
-0.27369999999999994,17.966833508285966
-0.27270000000000005,18.13659886426977
-0.27169999999999994,18.320511333252224
-0.27070000000000005,18.617600706223882
-0.26969999999999994,18.92883719219419
-0.26870000000000005,19.141043887173947
-0.26769999999999994,19.409839034148305
-0.26670000000000005,19.622045729128057
-0.26569999999999994,19.70692840711996
-0.26470000000000005,19.70692840711996
-0.26369999999999993,19.622045729128057
