Potential V vs RHE, Current mA cm-2
0.013299999999999867,0.3467457395969205
0.012299999999999978,-1.8334658446250875
0.011299999999999866,-3.840941179133574
0.010299999999999976,-5.411270721983764
0.009299999999999864,-6.458157083883892
0.008299999999999974,-7.155609754717355
0.007299999999999862,-7.896918475846635
0.006299999999999972,-8.85609273715513
0.00529999999999986,-10.120844639234473
0.0042999999999999705,-11.255443101726232
0.0032999999999998586,-12.040607873151327
0.0022999999999999687,-12.346185513922174
0.0012999999999998568,-12.56405105410139
0.00029999999999996696,-12.913484745168056
-0.000700000000000145,-13.654793466297335
-0.0017000000000000348,-14.57152638860988
-0.0027000000000001467,-15.264734925543747
-0.0037000000000000366,-15.618412750510005
-0.0047000000000001485,-15.618412750510005
-0.005700000000000038,-15.618412750510005
-0.00670000000000015,-15.87306078448571
-0.00770000000000004,-16.53797509542228
-0.008700000000000152,-17.231183632356142
-0.009700000000000042,-17.669744135314307
-0.010700000000000154,-17.71218547431026
-0.011700000000000044,-17.542420118326454
-0.012700000000000156,-17.48583166633185
-0.013700000000000045,-17.75462681330621
-0.014700000000000157,-18.362952672248177
-0.015700000000000047,-18.88639585319824
-0.01670000000000016,-19.112749661176647
-0.01770000000000005,-18.97127853119014
-0.01870000000000016,-18.674189158218486
-0.01970000000000005,-18.674189158218486
-0.020700000000000163,-19.01371987018609
-0.021700000000000053,-19.537163051136158
-0.022700000000000164,-19.97572355409432
-0.023700000000000054,-19.97572355409432
-0.024700000000000166,-19.678634181122664
-0.025700000000000056,-19.409839034148305
-0.026700000000000168,-19.452280373144255
-0.027700000000000058,-19.848399537106463
-0.02870000000000017,-20.329401379060574
-0.02970000000000006,-20.584049413036283
-0.03070000000000017,-20.414284057052477
-0.03170000000000006,-20.06060623208622
-0.03270000000000017,-19.848399537106463
-0.03370000000000006,-19.97572355409432
-0.034700000000000175,-20.414284057052477
-0.035700000000000065,-20.85284456001064
-0.03670000000000018,-20.93772723800254
-0.03770000000000007,-20.626490752032236
-0.03870000000000018,-20.244518701068674
-0.03970000000000007,-20.10304757108217
-0.04070000000000018,-20.329401379060574
-0.04170000000000007,-20.810403221014692
-0.04270000000000018,-21.065051254990397
-0.04370000000000007,-21.022609915994444
-0.044700000000000184,-20.584049413036283
-0.045700000000000074,-20.244518701068674
-0.046700000000000186,-20.202077362072725
-0.047700000000000076,-20.541608074040333
-0.04870000000000019,-20.93772723800254
-0.04970000000000008,-21.065051254990397
-0.05070000000000019,-20.85284456001064
-0.05170000000000008,-20.414284057052477
-0.05270000000000019,-20.10304757108217
-0.05370000000000008,-20.244518701068674
-0.05470000000000019,-20.626490752032236
-0.05570000000000008,-20.93772723800254
-0.056700000000000195,-20.93772723800254
-0.057700000000000085,-20.584049413036283
-0.058700000000000196,-20.202077362072725
-0.059700000000000086,-20.01816489309027
-0.0607000000000002,-20.202077362072725
-0.06170000000000009,-20.626490752032236
-0.0627000000000002,-20.89528589900659
-0.06370000000000009,-20.72552054302279
-0.0647000000000002,-20.286960040064624
-0.06570000000000009,-19.890840876102416
-0.0667000000000002,-19.848399537106463
-0.0677000000000001,-20.10304757108217
-0.0687000000000002,-20.499166735044383
-0.0697000000000001,-20.584049413036283
-0.07070000000000021,-20.329401379060574
-0.0717000000000001,-19.805958198110513
-0.07270000000000021,-19.49472171214021
-0.0737000000000001,-19.537163051136158
-0.07470000000000021,-19.890840876102416
-0.0757000000000001,-20.202077362072725
-0.07670000000000021,-20.202077362072725
-0.0777000000000001,-19.805958198110513
-0.07870000000000021,-19.367397695152352
-0.0797000000000001,-19.197632339168546
-0.08070000000000022,-19.367397695152352
-0.0817000000000001,-19.721075520118614
-0.08270000000000022,-19.93328221509837
-0.08370000000000011,-19.763516859114564
-0.08470000000000022,-19.28251501716045
-0.08570000000000011,-18.88639585319824
-0.08670000000000022,-18.843954514202288
-0.08770000000000011,-19.112749661176647
-0.08870000000000022,-19.452280373144255
-0.08970000000000011,-19.537163051136158
-0.09070000000000022,-19.2400736781645
-0.09170000000000011,-18.759071836210385
-0.09270000000000023,-18.44783535024008
-0.09370000000000012,-18.49027668923603
-0.09470000000000023,-18.843954514202288
-0.09570000000000012,-19.155191000172596
-0.09670000000000023,-19.112749661176647
-0.09770000000000012,-18.716630497214435
-0.09870000000000023,-18.23562865526032
-0.09970000000000012,-18.009274847281915
-0.10070000000000023,-18.23562865526032
-0.10170000000000012,-18.589306480226583
-0.10270000000000024,-18.80151317520634
-0.10370000000000013,-18.631747819222536
-0.10470000000000024,-18.15074597726842
-0.10570000000000013,-17.71218547431026
-0.10670000000000024,-17.669744135314307
-0.10770000000000013,-17.966833508285966
-0.10870000000000024,-18.27806999425627
-0.10970000000000013,-18.362952672248177
-0.11070000000000024,-18.10830463827247
-0.11170000000000013,-17.627302796318357
-0.11270000000000002,-17.316066310348052
-0.11370000000000013,-17.358507649344002
-0.11470000000000002,-17.71218547431026
-0.11570000000000014,-18.009274847281915
-0.11670000000000003,-17.966833508285966
-0.11770000000000014,-17.584861457322408
-0.11870000000000003,-17.146300954364243
-0.11970000000000014,-16.962388485381787
-0.12070000000000003,-17.146300954364243
-0.12170000000000014,-17.48583166633185
-0.12270000000000003,-17.669744135314307
-0.12370000000000014,-17.542420118326454
-0.12470000000000003,-17.103859615368293
-0.12570000000000014,-16.70774045140608
-0.12670000000000003,-16.665299112410132
-0.12770000000000015,-16.919947146385837
-0.12870000000000004,-17.316066310348052
-0.12970000000000015,-17.40094898833995
-0.13070000000000004,-17.146300954364243
-0.13170000000000015,-16.70774045140608
-0.13270000000000004,-16.396503965435777
-0.13370000000000015,-16.495533756426326
-0.13470000000000004,-16.877505807389888
-0.13570000000000015,-17.146300954364243
-0.13670000000000004,-17.146300954364243
-0.13770000000000016,-16.792623129397985
-0.13870000000000005,-16.354062626439823
-0.13970000000000016,-16.184297270456018
-0.14070000000000005,-16.396503965435777
-0.14170000000000016,-16.792623129397985
-0.14270000000000005,-16.962388485381787
-0.14370000000000016,-16.835064468393938
-0.14470000000000005,-16.396503965435777
-0.14570000000000016,-16.056973253468165
-0.14670000000000005,-16.014531914472215
-0.14770000000000016,-16.354062626439823
-0.14870000000000005,-16.70774045140608
-0.14970000000000017,-16.835064468393938
-0.15070000000000006,-16.580416434418233
-0.15170000000000017,-16.099414592464115
-0.15270000000000006,-15.87306078448571
-0.15370000000000017,-15.972090575476265
-0.15470000000000006,-16.354062626439823
-0.15570000000000017,-16.665299112410132
-0.15670000000000006,-16.622857773414182
-0.15770000000000017,-16.269179948447924
-0.15870000000000006,-15.87306078448571
-0.15970000000000018,-15.70329542850191
-0.16070000000000007,-15.972090575476265
-0.16170000000000018,-16.354062626439823
-0.16270000000000007,-16.580416434418233
-0.16370000000000018,-16.495533756426326
-0.16470000000000007,-16.099414592464115
-0.16570000000000018,-15.74573676749786
-0.16670000000000007,-15.70329542850191
-0.16770000000000018,-16.056973253468165
-0.16870000000000007,-16.495533756426326
-0.16970000000000018,-16.580416434418233
-0.17070000000000007,-16.311621287443874
-0.17170000000000019,-15.91550212348166
-0.17270000000000008,-15.660854089505953
-0.1737000000000002,-15.78817810649381
-0.17470000000000008,-16.22673860945197
-0.1757000000000002,-16.53797509542228
-0.17670000000000008,-16.53797509542228
-0.1777000000000002,-16.22673860945197
-0.17870000000000008,-15.830619445489761
-0.1797000000000002,-15.70329542850191
-0.18070000000000008,-15.972090575476265
-0.1817000000000002,-16.396503965435777
-0.18270000000000008,-16.665299112410132
-0.1837000000000002,-16.53797509542228
-0.1847000000000001,-16.141855931460068
-0.1857000000000002,-15.78817810649381
-0.1867000000000001,-15.78817810649381
-0.1877000000000002,-16.141855931460068
-0.1887000000000001,-16.53797509542228
-0.1897000000000002,-16.70774045140608
-0.1907000000000001,-16.438945304431726
-0.1917000000000001,-16.014531914472215
-0.19269999999999998,-15.78817810649381
-0.1937000000000001,-15.91550212348166
-0.19469999999999998,-16.354062626439823
-0.1957000000000001,-16.70774045140608
-0.19669999999999999,-16.70774045140608
-0.1977000000000001,-16.354062626439823
-0.1987,-15.972090575476265
-0.1997000000000001,-15.87306078448571
-0.2007,-16.141855931460068
-0.2017000000000001,-16.53797509542228
-0.2027,-16.792623129397985
-0.2037000000000001,-16.70774045140608
-0.2047,-16.269179948447924
-0.2057000000000001,-15.972090575476265
-0.2067,-15.972090575476265
-0.2077000000000001,-16.311621287443874
-0.2087,-16.70774045140608
-0.2097000000000001,-16.877505807389888
-0.2107,-16.622857773414182
-0.2117000000000001,-16.22673860945197
-0.2127,-16.014531914472215
-0.2137000000000001,-16.141855931460068
-0.2147,-16.580416434418233
-0.2157000000000001,-16.962388485381787
-0.2167,-16.962388485381787
-0.21770000000000012,-16.622857773414182
-0.2187,-16.184297270456018
-0.21970000000000012,-16.099414592464115
-0.2207,-16.354062626439823
-0.22170000000000012,-16.792623129397985
-0.2227,-17.018976937376394
-0.22370000000000012,-16.877505807389888
-0.2247,-16.495533756426326
-0.22570000000000012,-16.141855931460068
-0.2267,-16.184297270456018
-0.22770000000000012,-16.53797509542228
-0.22870000000000001,-16.919947146385837
-0.22970000000000013,-17.018976937376394
-0.23070000000000002,-16.792623129397985
-0.23170000000000013,-16.354062626439823
-0.23270000000000002,-16.141855931460068
-0.23370000000000013,-16.311621287443874
-0.23470000000000002,-16.665299112410132
-0.23570000000000013,-17.018976937376394
-0.23670000000000002,-17.018976937376394
-0.2376999999999999,-16.70774045140608
-0.23870000000000002,-16.311621287443874
-0.2396999999999999,-16.184297270456018
-0.24070000000000003,-16.438945304431726
-0.24169999999999991,-16.877505807389888
-0.24270000000000003,-17.103859615368293
-0.24369999999999992,-16.962388485381787
-0.24470000000000003,-16.580416434418233
-0.24569999999999992,-16.22673860945197
-0.24670000000000003,-16.22673860945197
-0.24769999999999992,-16.580416434418233
-0.24870000000000003,-16.962388485381787
-0.24969999999999992,-17.103859615368293
-0.25070000000000003,-16.835064468393938
-0.2516999999999999,-16.438945304431726
-0.25270000000000004,-16.184297270456018
-0.2536999999999999,-16.311621287443874
-0.25470000000000004,-16.750181790402035
-0.2556999999999999,-17.061418276372343
-0.25670000000000004,-17.061418276372343
-0.25769999999999993,-16.750181790402035
-0.25870000000000004,-16.354062626439823
-0.25969999999999993,-16.269179948447924
-0.26070000000000004,-16.495533756426326
-0.26169999999999993,-16.919947146385837
-0.26270000000000004,-17.146300954364243
-0.26369999999999993,-17.018976937376394
-0.26470000000000005,-16.622857773414182
-0.26569999999999994,-16.311621287443874
-0.26670000000000005,-16.354062626439823
-0.26769999999999994,-16.70774045140608
-0.26870000000000005,-17.061418276372343
-0.26969999999999994,-17.188742293360193
-0.27070000000000005,-16.962388485381787
-0.27169999999999994,-16.53797509542228
-0.27270000000000005,-16.311621287443874
-0.27369999999999994,-16.495533756426326
-0.27470000000000006,-16.877505807389888
-0.27569999999999995,-17.231183632356142
-0.27670000000000006,-17.188742293360193
-0.27769999999999995,-16.877505807389888
-0.27870000000000006,-16.53797509542228
-0.27969999999999995,-16.438945304431726
-0.28070000000000006,-16.70774045140608
-0.28169999999999995,-17.103859615368293
-0.28270000000000006,-17.358507649344002
-0.28369999999999995,-17.231183632356142
-0.28470000000000006,-16.877505807389888
-0.28569999999999995,-16.580416434418233
-0.28670000000000007,-16.622857773414182
-0.28769999999999996,-16.962388485381787
-0.28870000000000007,-17.358507649344002
-0.28969999999999996,-17.48583166633185
-0.29070000000000007,-17.2736249713521
-0.29169999999999996,-16.919947146385837
-0.29270000000000007,-16.70774045140608
-0.29369999999999996,-16.877505807389888
-0.2947000000000001,-17.316066310348052
-0.29569999999999996,-17.627302796318357
-0.2967000000000001,-17.669744135314307
-0.29769999999999996,-17.358507649344002
-0.2987000000000001,-17.018976937376394
-0.29969999999999997,-16.962388485381787
-0.3007000000000001,-17.231183632356142
-0.30169999999999997,-17.71218547431026
-0.3027000000000001,-17.966833508285966
-0.30369999999999997,-17.881950830294063
-0.3047000000000001,-17.542420118326454
-0.30569999999999997,-17.2736249713521
-0.3067000000000001,-17.358507649344002
-0.3077,-17.75462681330621
-0.3087000000000001,-18.19318731626437
-0.3097,-18.362952672248177
-0.3107000000000001,-18.23562865526032
-0.3117,-17.881950830294063
-0.3127000000000001,-17.71218547431026
-0.3137,-17.924392169290012
-0.3147000000000001,-18.40539401124413
-0.3157,-18.80151317520634
-0.3167000000000001,-18.88639585319824
-0.3177,-18.631747819222536
-0.3187000000000001,-18.320511333252224
-0.3197,-18.320511333252224
-0.3207000000000001,-18.674189158218486
-0.3217,-19.197632339168546
-0.3227000000000001,-19.49472171214021
-0.3237,-19.452280373144255
-0.3247000000000001,-19.197632339168546
-0.3257,-18.97127853119014
-0.3267000000000001,-19.112749661176647
-0.3277,-19.579604390132108
-0.3287000000000001,-20.10304757108217
-0.3297,-20.329401379060574
-0.3307000000000001,-20.244518701068674
-0.3317,-19.97572355409432
-0.3327000000000001,-19.890840876102416
-0.3337,-20.202077362072725
-0.3347000000000001,-20.76796188201874
-0.3357,-21.248963723972853
-0.3367000000000001,-21.376287740960702
-0.3377,-21.248963723972853
-0.3387000000000001,-21.022609915994444
-0.3397,-21.107492593986347
-0.3407000000000001,-21.54605309694451
-0.3417,-22.15437895588647
-0.3427000000000001,-22.592939458844636
-0.3437,-22.67782213683654
-0.3447000000000001,-22.508056780852733
-0.3457,-22.38073276386488
-0.3467000000000001,-22.63538079784059
-0.3477,-23.2012653177866
-0.3487000000000001,-23.86617962872317
-0.3497,-24.20571034069078
-0.3507000000000001,-24.24815167968673
-0.3517,-24.078386323702922
-0.3527000000000001,-24.16326900169483
-0.3537,-24.559388165657033
-0.3547000000000001,-25.295038041586857
-0.3557,-25.959952352523427
-0.35670000000000013,-26.21460038649913
-0.3577,-26.21460038649913
-0.35870000000000013,-26.17215904750318
-0.3597,-26.440954194477534
-0.36070000000000013,-27.049280053419505
-0.3617,-27.869812607341224
-0.3626999999999999,-28.435697127287238
-0.3637,-28.746933613257543
-0.3646999999999999,-28.789374952253496
-0.3657,-28.8742576302454
-0.3666999999999999,-29.31281813320356
-0.3677,-30.147497800123933
-0.3686999999999999,-31.010471693041605
-0.36970000000000003,-31.618797551983565
-0.3706999999999999,-31.887592698957924
-0.37170000000000003,-32.01491671594578
-0.3726999999999999,-32.32615320191609
-0.37370000000000003,-33.01936173884996
-0.3746999999999999,-34.02380676175414
-0.37570000000000003,-34.94336910666641
-0.3766999999999999,-35.594136304604326
-0.37770000000000004,-35.94781412957058
-0.3786999999999999,-36.20246216354629
-0.37970000000000004,-36.81078802248826
-0.3806999999999999,-37.81523304539243
-0.38170000000000004,-38.98944342428042
-0.38269999999999993,-40.03632978618054
-0.38370000000000004,-40.743685436113054
-0.38469999999999993,-41.22468727806717
-0.38570000000000004,-41.79057179801318
-0.38669999999999993,-41.30956995605907
-0.38570000000000004,-39.08847321527096
-0.38469999999999993,-37.645467689408626
-0.38370000000000004,-36.37222751953009
-0.38269999999999993,-35.07069312365426
-0.38170000000000004,-33.81160006677438
-0.3806999999999999,-32.892037721862096
-0.37970000000000004,-32.41103587990799
-0.3786999999999999,-32.32615320191609
-0.37770000000000004,-32.14224073293363
-0.3766999999999999,-31.717827342974125
-0.37570000000000003,-31.010471693041605
-0.3746999999999999,-30.232380478115836
-0.37370000000000003,-29.793819975157668
-0.3726999999999999,-29.708937297165768
-0.37170000000000003,-29.751378636161718
-0.3706999999999999,-29.66649595816982
-0.36970000000000003,-29.18549411621571
-0.3686999999999999,-28.435697127287238
-0.3677,-27.78492992934932
-0.3666999999999999,-27.487840556377662
-0.3657,-27.530281895373616
-0.3646999999999999,-27.572723234369565
-0.3637,-27.34636942639116
-0.3626999999999999,-26.738043567449193
-0.3617,-26.002393691519377
-0.36070000000000013,-25.43650917157336
-0.3597,-25.252596702590903
-0.35870000000000013,-25.295038041586857
-0.3577,-25.252596702590903
-0.35670000000000013,-24.870624651627345
-0.3557,-24.120827662698876
-0.3547000000000001,-23.427619125765005
-0.3537,-22.904175944814945
-0.3527000000000001,-22.776851927827092
-0.3517,-22.819293266823045
-0.3507000000000001,-22.63538079784059
-0.3497,-22.15437895588647
-0.3487000000000001,-21.376287740960702
-0.3477,-20.683079204026836
-0.3467000000000001,-20.329401379060574
-0.3457,-20.286960040064624
-0.3447000000000001,-20.286960040064624
-0.3437,-20.01816489309027
-0.3427000000000001,-19.367397695152352
-0.3417,-18.589306480226583
-0.3407000000000001,-17.924392169290012
-0.3397,-17.71218547431026
-0.3387000000000001,-17.71218547431026
-0.3377,-17.627302796318357
-0.3367000000000001,-17.231183632356142
-0.3357,-16.53797509542228
-0.3347000000000001,-15.70329542850191
-0.3337,-15.264734925543747
-0.3327000000000001,-15.137410908555893
-0.3317,-15.137410908555893
-0.3307000000000001,-15.01008689156804
-0.3297,-14.486643710617974
-0.3287000000000001,-13.654793466297335
-0.3277,-12.99978213445982
-0.3267000000000001,-12.651763154693022
-0.3257,-12.651763154693022
-0.3247000000000001,-12.607907104397206
-0.3237,-12.346185513922174
-0.3227000000000001,-11.73503023238048
-0.3217,-10.949865460955383
-0.3207000000000001,-10.340124890713554
-0.3197,-10.164700689530287
-0.3187000000000001,-10.164700689530287
-0.3177,-10.164700689530287
-0.3167000000000001,-9.772825659467674
-0.3157,-9.073958277334345
-0.3147000000000001,-8.332649556205066
-0.3137,-7.896918475846635
-0.3127000000000001,-7.809206375255003
-0.3117,-7.896918475846635
-0.3107000000000001,-7.7653503249591855
-0.3097,-7.28576319430494
-0.3087000000000001,-6.54445447317566
-0.3077,-5.890857852638012
-0.3067000000000001,-5.629136262162981
-0.30569999999999997,-5.629136262162981
-0.3047000000000001,-5.715433651454749
-0.30369999999999997,-5.497568111275533
-0.3027000000000001,-4.9302688800296535
-0.30169999999999997,-4.23281620919619
-0.3007000000000001,-3.6655169779503103
-0.29969999999999997,-3.5353635383627267
-0.2987000000000001,-3.6655169779503103
-0.29769999999999996,-3.6655169779503103
-0.2967000000000001,-3.317497998183511
-0.29569999999999996,-2.706342716641815
-0.2947000000000001,-2.052746096104168
-0.29369999999999996,-1.7033124050375041
-0.29270000000000007,-1.6594563547416883
-0.29169999999999996,-1.7910245056291363
-0.29070000000000007,-1.7471684553333202
-0.28969999999999996,-1.3543031273607997
-0.28870000000000007,-0.6564260431373771
-0.28769999999999996,-0.08943804837746762
-0.28670000000000007,0.12863969849672777
-0.28569999999999995,-0.002205534916489592
-0.28470000000000006,-0.1330535977523067
-0.28369999999999995,-0.002205534916489592
-0.28270000000000006,0.5211796428702795
-0.28169999999999995,1.1317690398920295
-0.28070000000000006,1.6113561705462767
-0.27969999999999995,1.655212220842093
-0.27870000000000006,1.4812027309586933
-0.27769999999999995,1.349917522331218
-0.27670000000000006,1.6113561705462767
-0.27569999999999995,2.178655401792157
-0.27470000000000006,2.745954633038036
-0.27369999999999994,3.0515322738088844
-0.27270000000000005,3.0076762235130676
-0.27169999999999994,2.745954633038036
-0.27070000000000005,2.745954633038036
-0.26969999999999994,3.0515322738088844
