Potential V vs RHE, Current mA cm-2
0.013299999999999867,-0.1766974413531431
0.012299999999999978,-2.008890045808352
0.011299999999999866,-3.623075638954359
0.010299999999999976,-5.191990470504685
0.009299999999999864,-6.762320013354876
0.008299999999999974,-8.376505606500881
0.007299999999999862,-9.946835149351072
0.006299999999999972,-11.42945259160963
0.00529999999999986,-12.781916594280606
0.0042999999999999705,-13.916515056772363
0.0032999999999998586,-14.868615761581536
0.0022999999999999687,-15.660854089505953
0.0012999999999998568,-16.311621287443874
0.00029999999999996696,-16.919947146385837
-0.000700000000000145,-17.584861457322408
-0.0017000000000000348,-18.362952672248177
-0.0027000000000001467,-19.197632339168546
-0.0037000000000000366,-20.10304757108217
-0.0047000000000001485,-21.022609915994444
-0.005700000000000038,-21.899730921910766
-0.00670000000000015,-22.63538079784059
-0.00770000000000004,-23.2012653177866
-0.008700000000000152,-23.639825820744765
-0.009700000000000042,-23.908620967719123
-0.010700000000000154,-24.16326900169483
-0.011700000000000044,-24.432064148669184
-0.012700000000000156,-24.771594860636792
-0.013700000000000045,-25.210155363594954
-0.014700000000000157,-25.73359854454502
-0.015700000000000047,-26.38436574248293
-0.01670000000000016,-27.00683871442355
-0.01770000000000005,-27.530281895373616
-0.01870000000000016,-27.954695285333123
-0.01970000000000005,-28.22349043230748
-0.020700000000000163,-28.393255788291288
-0.021700000000000053,-28.393255788291288
-0.022700000000000164,-28.435697127287238
-0.023700000000000054,-28.53472691827779
-0.024700000000000166,-28.704492274261593
-0.025700000000000056,-29.001581647233255
-0.026700000000000168,-29.39770081119546
-0.027700000000000058,-29.878702653149578
-0.02870000000000017,-30.317263156107735
-0.02970000000000006,-30.71338232006995
-0.03070000000000017,-30.925589015049702
-0.03170000000000006,-31.052913032037555
-0.03270000000000017,-31.052913032037555
-0.03370000000000006,-30.925589015049702
-0.034700000000000175,-30.88314767605375
-0.035700000000000065,-30.88314767605375
-0.03670000000000018,-31.010471693041605
-0.03770000000000007,-31.23682550102001
-0.03870000000000018,-31.618797551983565
-0.03970000000000007,-31.972475376949827
-0.04070000000000018,-32.32615320191609
-0.04170000000000007,-32.58080123589179
-0.04270000000000018,-32.66568391388369
-0.04370000000000007,-32.66568391388369
-0.044700000000000184,-32.53835989689585
-0.045700000000000074,-32.41103587990799
-0.046700000000000186,-32.283711862920136
-0.047700000000000076,-32.24127052392419
-0.04870000000000019,-32.368594540912035
-0.04970000000000008,-32.58080123589179
-0.05070000000000019,-32.892037721862096
-0.05170000000000008,-33.18912709483376
-0.05270000000000019,-33.45792224180811
-0.05370000000000008,-33.58524625879597
-0.05470000000000019,-33.627687597791926
-0.05570000000000008,-33.50036358080407
-0.056700000000000195,-33.288156885824314
-0.057700000000000085,-33.10424441684186
-0.058700000000000196,-32.93447906085806
-0.059700000000000086,-32.93447906085806
-0.0607000000000002,-33.01936173884996
-0.06170000000000009,-33.18912709483376
-0.0627000000000002,-33.50036358080407
-0.06370000000000009,-33.755011614779775
-0.0647000000000002,-33.93892408376223
-0.06570000000000009,-33.98136542275818
-0.0667000000000002,-33.89648274476628
-0.0677000000000001,-33.712570275783825
-0.0687000000000002,-33.45792224180811
-0.0697000000000001,-33.231568433829715
-0.07070000000000021,-33.10424441684186
-0.0717000000000001,-33.10424441684186
-0.07270000000000021,-33.18912709483376
-0.0737000000000001,-33.41548090281216
-0.07470000000000021,-33.670128936787876
-0.0757000000000001,-33.89648274476628
-0.07670000000000021,-33.98136542275818
-0.0777000000000001,-33.98136542275818
-0.07870000000000021,-33.81160006677438
-0.0797000000000001,-33.58524625879597
-0.08070000000000022,-33.288156885824314
-0.0817000000000001,-33.10424441684186
-0.08270000000000022,-32.93447906085806
-0.08370000000000011,-32.97692039985401
-0.08470000000000022,-33.06180307784591
-0.08570000000000011,-33.288156885824314
-0.08670000000000022,-33.50036358080407
-0.08770000000000011,-33.670128936787876
-0.08870000000000022,-33.712570275783825
-0.08970000000000011,-33.58524625879597
-0.09070000000000022,-33.373039563816214
-0.09170000000000011,-33.06180307784591
-0.09270000000000023,-32.807155043870196
-0.09370000000000012,-32.53835989689585
-0.09470000000000023,-32.45347721890394
-0.09570000000000012,-32.45347721890394
-0.09670000000000023,-32.58080123589179
-0.09770000000000012,-32.807155043870196
-0.09870000000000023,-32.97692039985401
-0.09970000000000012,-33.06180307784591
-0.10070000000000023,-33.01936173884996
-0.10170000000000012,-32.892037721862096
-0.10270000000000024,-32.62324257488775
-0.10370000000000013,-32.283711862920136
-0.10470000000000024,-32.01491671594578
-0.10570000000000013,-31.76026868197007
-0.10670000000000024,-31.717827342974125
-0.10770000000000013,-31.76026868197007
-0.10870000000000024,-31.887592698957924
-0.10970000000000013,-32.09979939393769
-0.11070000000000024,-32.24127052392419
-0.11170000000000013,-32.283711862920136
-0.11270000000000002,-32.24127052392419
-0.11370000000000013,-32.01491671594578
-0.11470000000000002,-31.661238890979522
-0.11570000000000014,-31.36414951800786
-0.11670000000000003,-31.095354371033505
-0.11770000000000014,-30.925589015049702
-0.11870000000000003,-30.925589015049702
-0.11970000000000014,-30.968030354045652
-0.12070000000000003,-31.137795710029454
-0.12170000000000014,-31.321708179011907
-0.12270000000000003,-31.40659085700382
-0.12370000000000014,-31.40659085700382
-0.12470000000000003,-31.27926684001596
-0.12570000000000014,-31.010471693041605
-0.12670000000000003,-30.71338232006995
-0.12770000000000015,-30.402145834099635
-0.12870000000000004,-30.147497800123933
-0.12970000000000015,-30.00602667013743
-0.13070000000000004,-30.00602667013743
-0.13170000000000015,-30.147497800123933
-0.13270000000000004,-30.317263156107735
-0.13370000000000015,-30.444587173095588
-0.13470000000000004,-30.529469851087494
-0.13570000000000015,-30.487028512091538
-0.13670000000000004,-30.359704495103685
-0.13770000000000016,-30.10505646112798
-0.13870000000000005,-29.751378636161718
-0.13970000000000016,-29.482583489187363
-0.14070000000000005,-29.27037679420761
-0.14170000000000016,-29.18549411621571
-0.14270000000000005,-29.27037679420761
-0.14370000000000016,-29.39770081119546
-0.14470000000000005,-29.62405461917387
-0.14570000000000016,-29.793819975157668
-0.14670000000000005,-29.836261314153624
-0.14770000000000016,-29.751378636161718
-0.14870000000000005,-29.581613280177915
-0.14970000000000017,-29.27037679420761
-0.15070000000000006,-29.001581647233255
-0.15170000000000017,-28.746933613257543
-0.15270000000000006,-28.577168257273744
-0.15370000000000017,-28.619609596269694
-0.15470000000000006,-28.704492274261593
-0.15570000000000017,-28.91669896924135
-0.15670000000000006,-29.100611438223805
-0.15770000000000017,-29.27037679420761
-0.15870000000000006,-29.27037679420761
-0.15970000000000018,-29.18549411621571
-0.16070000000000007,-28.959140308237306
-0.16170000000000018,-28.662050935265643
-0.16270000000000007,-28.393255788291288
-0.16370000000000018,-28.22349043230748
-0.16470000000000007,-28.13860775431558
-0.16570000000000018,-28.18104909331153
-0.16670000000000007,-28.350814449295335
-0.16770000000000018,-28.577168257273744
-0.16870000000000007,-28.746933613257543
-0.16970000000000018,-28.831816291249446
-0.17070000000000007,-28.831816291249446
-0.17170000000000019,-28.704492274261593
-0.17270000000000008,-28.435697127287238
-0.1737000000000002,-28.13860775431558
-0.17470000000000008,-27.912253946337174
-0.1757000000000002,-27.742488590353368
-0.17670000000000008,-27.700047251357418
-0.1777000000000002,-27.78492992934932
-0.17870000000000008,-28.011283737327723
-0.1797000000000002,-28.265931771303435
-0.18070000000000008,-28.435697127287238
-0.1817000000000002,-28.577168257273744
-0.18270000000000008,-28.53472691827779
-0.1837000000000002,-28.393255788291288
-0.1847000000000001,-28.13860775431558
-0.1857000000000002,-27.912253946337174
-0.1867000000000001,-27.700047251357418
-0.1877000000000002,-27.615164573365515
-0.1887000000000001,-27.65760591236147
-0.1897000000000002,-27.78492992934932
-0.1907000000000001,-28.09616641531963
-0.1917000000000001,-28.308373110299385
-0.19269999999999998,-28.53472691827779
-0.1937000000000001,-28.577168257273744
-0.19469999999999998,-28.53472691827779
-0.1957000000000001,-28.393255788291288
-0.19669999999999999,-28.13860775431558
-0.1977000000000001,-27.912253946337174
-0.1987,-27.742488590353368
-0.1997000000000001,-27.700047251357418
-0.2007,-27.78492992934932
-0.2017000000000001,-27.954695285333123
-0.2027,-28.265931771303435
-0.2037000000000001,-28.478138466283188
-0.2047,-28.619609596269694
-0.2057000000000001,-28.662050935265643
-0.2067,-28.577168257273744
-0.2077000000000001,-28.350814449295335
-0.2087,-28.09616641531963
-0.2097000000000001,-27.912253946337174
-0.2107,-27.78492992934932
-0.2117000000000001,-27.827371268345274
-0.2127,-27.912253946337174
-0.2137000000000001,-28.18104909331153
-0.2147,-28.435697127287238
-0.2157000000000001,-28.704492274261593
-0.2167,-28.789374952253496
-0.21770000000000012,-28.789374952253496
-0.2187,-28.662050935265643
-0.21970000000000012,-28.435697127287238
-0.2207,-28.18104909331153
-0.22170000000000012,-28.05372507632368
-0.2227,-27.954695285333123
-0.22370000000000012,-28.011283737327723
-0.2247,-28.18104909331153
-0.22570000000000012,-28.435697127287238
-0.2267,-28.704492274261593
-0.22770000000000012,-28.91669896924135
-0.22870000000000001,-28.959140308237306
-0.22970000000000013,-28.91669896924135
-0.23070000000000002,-28.789374952253496
-0.23170000000000013,-28.53472691827779
-0.23270000000000002,-28.308373110299385
-0.23370000000000013,-28.13860775431558
-0.23470000000000002,-28.13860775431558
-0.23570000000000013,-28.22349043230748
-0.23670000000000002,-28.435697127287238
-0.2376999999999999,-28.704492274261593
-0.23870000000000002,-28.959140308237306
-0.2396999999999999,-29.100611438223805
-0.24070000000000003,-29.14305277721976
-0.24169999999999991,-29.058170099227848
-0.24270000000000003,-28.831816291249446
-0.24369999999999992,-28.619609596269694
-0.24470000000000003,-28.350814449295335
-0.24569999999999992,-28.22349043230748
-0.24670000000000003,-28.265931771303435
-0.24769999999999992,-28.350814449295335
-0.24870000000000003,-28.619609596269694
-0.24969999999999992,-28.91669896924135
-0.25070000000000003,-29.100611438223805
-0.2516999999999999,-29.18549411621571
-0.25270000000000004,-29.18549411621571
-0.2536999999999999,-29.058170099227848
-0.25470000000000004,-28.789374952253496
-0.2556999999999999,-28.53472691827779
-0.25670000000000004,-28.350814449295335
-0.25769999999999993,-28.265931771303435
-0.25870000000000004,-28.308373110299385
-0.25969999999999993,-28.478138466283188
-0.26070000000000004,-28.704492274261593
-0.26169999999999993,-28.959140308237306
-0.26270000000000004,-29.14305277721976
-0.26369999999999993,-29.22793545521166
-0.26470000000000005,-29.18549411621571
-0.26569999999999994,-29.001581647233255
-0.26670000000000005,-28.789374952253496
-0.26769999999999994,-28.577168257273744
-0.26870000000000005,-28.393255788291288
-0.26969999999999994,-28.350814449295335
-0.27070000000000005,-28.478138466283188
-0.27169999999999994,-28.619609596269694
-0.27270000000000005,-28.91669896924135
-0.27369999999999994,-29.14305277721976
-0.27470000000000006,-29.31281813320356
-0.27569999999999995,-29.31281813320356
-0.27670000000000006,-29.18549411621571
-0.27769999999999995,-28.959140308237306
-0.27870000000000006,-28.746933613257543
-0.27969999999999995,-28.478138466283188
-0.28070000000000006,-28.393255788291288
-0.28169999999999995,-28.393255788291288
-0.28270000000000006,-28.478138466283188
-0.28369999999999995,-28.746933613257543
-0.28470000000000006,-29.001581647233255
-0.28569999999999995,-29.18549411621571
-0.28670000000000007,-29.31281813320356
-0.28769999999999996,-29.27037679420761
-0.28870000000000007,-29.14305277721976
-0.28969999999999996,-28.8742576302454
-0.29070000000000007,-28.662050935265643
-0.29169999999999996,-28.435697127287238
-0.29270000000000007,-28.393255788291288
-0.29369999999999996,-28.435697127287238
-0.2947000000000001,-28.619609596269694
-0.29569999999999996,-28.831816291249446
-0.2967000000000001,-29.100611438223805
-0.29769999999999996,-29.27037679420761
-0.2987000000000001,-29.39770081119546
-0.29969999999999997,-29.31281813320356
-0.3007000000000001,-29.14305277721976
-0.30169999999999997,-28.91669896924135
-0.3027000000000001,-28.704492274261593
-0.30369999999999997,-28.53472691827779
-0.3047000000000001,-28.53472691827779
-0.30569999999999997,-28.662050935265643
-0.3067000000000001,-28.831816291249446
-0.3077,-29.14305277721976
-0.3087000000000001,-29.35525947219951
-0.3097,-29.581613280177915
-0.3107000000000001,-29.62405461917387
-0.3117,-29.525024828183312
-0.3127000000000001,-29.35525947219951
-0.3137,-29.14305277721976
-0.3147000000000001,-28.959140308237306
-0.3157,-28.8742576302454
-0.3167000000000001,-28.959140308237306
-0.3177,-29.14305277721976
-0.3187000000000001,-29.39770081119546
-0.3197,-29.708937297165768
-0.3207000000000001,-29.96358533114148
-0.3217,-30.10505646112798
-0.3227000000000001,-30.147497800123933
-0.3237,-30.04846800913338
-0.3247000000000001,-29.878702653149578
-0.3257,-29.708937297165768
-0.3267000000000001,-29.581613280177915
-0.3277,-29.525024828183312
-0.3287000000000001,-29.708937297165768
-0.3297,-29.921143992145527
-0.3307000000000001,-30.232380478115836
-0.3317,-30.571911190083444
-0.3327000000000001,-30.8407063370578
-0.3337,-31.010471693041605
-0.3347000000000001,-31.010471693041605
-0.3357,-30.925589015049702
-0.3367000000000001,-30.79826499806185
-0.3377,-30.670940981073993
-0.3387000000000001,-30.614352529079397
-0.3397,-30.71338232006995
-0.3407000000000001,-30.925589015049702
-0.3417,-31.23682550102001
-0.3427000000000001,-31.618797551983565
-0.3437,-31.972475376949827
-0.3447000000000001,-32.283711862920136
-0.3457,-32.41103587990799
-0.3467000000000001,-32.45347721890394
-0.3477,-32.41103587990799
-0.3487000000000001,-32.32615320191609
-0.3497,-32.24127052392419
-0.3507000000000001,-32.32615320191609
-0.3517,-32.49591855789989
-0.3527000000000001,-32.807155043870196
-0.3537,-33.18912709483376
-0.3547000000000001,-33.627687597791926
-0.3557,-34.06624810075008
-0.35670000000000013,-34.377484586720385
-0.3577,-34.5472499427042
-0.35870000000000013,-34.632132620696105
-0.3597,-34.58969128170015
-0.36070000000000013,-34.58969128170015
-0.3617,-34.632132620696105
-0.3626999999999999,-34.8018979766799
-0.3637,-35.11313446265021
-0.3646999999999999,-35.55169496560837
-0.3657,-36.07513814655844
-0.3666999999999999,-36.5985813275085
-0.3677,-37.07958316946261
-0.3686999999999999,-37.41911388143023
-0.36970000000000003,-37.645467689408626
-0.3706999999999999,-37.81523304539243
-0.37170000000000003,-37.85767438438838
-0.3726999999999999,-37.94255706238028
-0.37370000000000003,-38.12646953136274
-0.3746999999999999,-38.46600024333035
-0.37570000000000003,-38.90456074628851
-0.3766999999999999,-39.47044526623452
-0.37770000000000004,-40.135359577171094
-0.3786999999999999,-40.743685436113054
-0.37970000000000004,-41.30956995605907
-0.3806999999999999,-41.70568912002128
-0.38170000000000004,-42.04521983198889
-0.38269999999999993,-42.2715736399673
-0.38370000000000004,-42.483780334947056
-0.38469999999999993,-42.752575481921404
-0.38570000000000004,-43.09210619388902
-0.38669999999999993,-42.04521983198889
-0.38570000000000004,-38.777236729300654
-0.38469999999999993,-36.11757948555439
-0.38370000000000004,-33.89648274476628
-0.38269999999999993,-31.972475376949827
-0.38170000000000004,-30.189939139119886
-0.3806999999999999,-28.478138466283188
-0.37970000000000004,-26.822926245441096
-0.3786999999999999,-25.210155363594954
-0.37770000000000004,-23.724708498736668
-0.3766999999999999,-22.38073276386488
-0.37570000000000003,-21.248963723972853
-0.3746999999999999,-20.286960040064624
-0.37370000000000003,-19.537163051136158
-0.3726999999999999,-18.88639585319824
-0.37170000000000003,-18.27806999425627
-0.3706999999999999,-17.669744135314307
-0.36970000000000003,-17.018976937376394
-0.3686999999999999,-16.184297270456018
-0.3677,-15.307176264539699
-0.3666999999999999,-14.345172580631472
-0.3657,-13.523225315409885
-0.3646999999999999,-12.73806054398479
-0.3637,-12.084463923447142
-0.3626999999999999,-11.56102074249708
-0.3617,-11.1677310011346
-0.36070000000000013,-10.863568071663616
-0.3597,-10.514134380596953
-0.35870000000000013,-10.120844639234473
-0.3577,-9.59740145828441
-0.35670000000000013,-8.943804837746763
-0.3557,-8.202496116617484
-0.3547000000000001,-7.50504344578402
-0.3537,-6.762320013354876
-0.3527000000000001,-6.152579443113044
-0.3517,-5.715433651454749
-0.3507000000000001,-5.367414671687949
-0.3497,-5.149549131508733
-0.3487000000000001,-4.9302688800296535
-0.3477,-4.668547289554621
-0.3467000000000001,-4.3205283097878215
-0.3457,-3.840941179133574
-0.3447000000000001,-3.317497998183511
-0.3437,-2.618630616050183
-0.3427000000000001,-1.9650339955125358
-0.3417,-1.3980177065266295
-0.3407000000000001,-0.9181476336124089
-0.3397,-0.5692798270656908
-0.3387000000000001,-0.3511313446265021
-0.3377,-0.2202705493889862
-0.3367000000000001,-0.08943804837746762
-0.3357,0.12863969849672777
-0.3347000000000001,0.43403342679859325
-0.3337,0.870188920546984
-0.3327000000000001,1.3934906303670611
-0.3317,2.004645911908757
-0.3307000000000001,2.5280890928588207
-0.3297,3.0515322738088844
-0.3287000000000001,3.3995512535756833
-0.3277,3.6174167937548987
-0.3267000000000001,3.748984944642347
-0.3257,3.7928409949381634
-0.3247000000000001,3.8791383842299307
-0.3237,4.054562585413195
-0.3227000000000001,4.316284175888227
-0.3217,4.752015256246658
-0.3207000000000001,5.231602386900906
-0.3197,5.75504556785097
-0.3187000000000001,6.278488748801033
-0.3177,6.627922439867697
-0.3167000000000001,6.845787980046913
-0.3157,7.019797469930312
-0.3147000000000001,7.019797469930312
-0.3137,7.019797469930312
-0.3127000000000001,7.063653520226129
-0.3117,7.195221671113577
-0.3107000000000001,7.49938460058456
-0.3097,7.848818291651225
-0.3087000000000001,8.284549372009655
-0.3077,8.764136502663902
-0.3067000000000001,9.157426244026382
-0.30569999999999997,9.463003884797232
-0.3047000000000001,9.593157324384812
-0.30369999999999997,9.63701337468063
-0.3027000000000001,9.593157324384812
-0.30169999999999997,9.549301274088998
-0.3007000000000001,9.549301274088998
-0.29969999999999997,9.680869424976446
-0.2987000000000001,9.942591015451477
-0.29769999999999996,10.334466045514093
-0.2967000000000001,10.727755786876573
-0.29569999999999996,11.163486867235004
-0.2947000000000001,11.469064508005852
-0.29369999999999996,11.643073997889251
-0.29270000000000007,11.730786098480884
-0.29169999999999996,11.686930048185067
-0.29070000000000007,11.556776608597485
-0.28969999999999996,11.51292055830167
-0.28870000000000007,11.51292055830167
-0.28769999999999996,11.643073997889251
-0.28670000000000007,11.904795588364284
-0.28569999999999995,12.254229279430946
-0.28470000000000006,12.646104309493563
-0.28369999999999995,12.995538000560227
-0.28270000000000006,13.213403540739444
-0.28169999999999995,13.301115641331073
-0.28070000000000006,13.301115641331073
-0.27969999999999995,13.169547490443627
-0.27870000000000006,13.039394050856043
-0.27769999999999995,12.95168195026441
-0.27670000000000006,12.95168195026441
-0.27569999999999995,13.127106151447675
-0.27470000000000006,13.344971691626892
-0.27369999999999994,13.69299067139369
-0.27270000000000005,14.042424362460354
-0.27169999999999994,14.30273124163552
-0.27070000000000005,14.529085049613924
-0.26969999999999994,14.529085049613924
-0.26870000000000005,14.430055258623375
-0.26769999999999994,14.26028990263957
-0.26670000000000005,14.130136463051985
