Dec. 11, 2024   20:51:20
Cyclic Voltammetry
File: c:/users/guazh/data/banditlqround7_x0exp59_r20/2024-12-09-exp631\exp631-2024-12-11t20_42_49-h2koh\exp631_cv_50mvs_efin_-1500mv.bin
Data Source:  Experiment
Instrument Model:  CHI760E
Header: CV ran at 50 mVs
Note: 

Init E (V) = -1
High E (V) = -1
Low E (V) = -1.5
Final E (V) = -1
Init P/N = N
Scan Rate (V/s) = 0.05
Segment = 7
Sample Interval (V) = 0.001
Quiet Time (sec) = 60
Sensitivity (A/V) = 0.001
Comp R (ohm) = 1.5

Results:

Channel 1:
Segment 1:

Segment 2:

Segment 3:

Segment 4:

Segment 5:

Segment 6:

Segment 7:

Potential/V, Current/A

-1.000, 2.865e-6
-1.001, 4.598e-6
-1.002, 5.621e-6
-1.003, 6.605e-6
-1.004, 6.997e-6
-1.005, 6.993e-6
-1.006, 7.106e-6
-1.007, 7.800e-6
-1.008, 8.495e-6
-1.009, 8.696e-6
-1.010, 8.627e-6
-1.011, 8.554e-6
-1.012, 9.162e-6
-1.013, 9.885e-6
-1.014, 1.000e-5
-1.015, 9.940e-6
-1.016, 9.824e-6
-1.017, 1.037e-5
-1.018, 1.116e-5
-1.019, 1.123e-5
-1.020, 1.100e-5
-1.021, 1.099e-5
-1.022, 1.154e-5
-1.023, 1.232e-5
-1.024, 1.238e-5
-1.025, 1.216e-5
-1.026, 1.212e-5
-1.027, 1.262e-5
-1.028, 1.336e-5
-1.029, 1.347e-5
-1.030, 1.328e-5
-1.031, 1.328e-5
-1.032, 1.372e-5
-1.033, 1.448e-5
-1.034, 1.464e-5
-1.035, 1.440e-5
-1.036, 1.439e-5
-1.037, 1.492e-5
-1.038, 1.569e-5
-1.039, 1.587e-5
-1.040, 1.557e-5
-1.041, 1.559e-5
-1.042, 1.623e-5
-1.043, 1.695e-5
-1.044, 1.712e-5
-1.045, 1.690e-5
-1.046, 1.690e-5
-1.047, 1.752e-5
-1.048, 1.822e-5
-1.049, 1.848e-5
-1.050, 1.834e-5
-1.051, 1.829e-5
-1.052, 1.886e-5
-1.053, 1.975e-5
-1.054, 1.988e-5
-1.055, 1.976e-5
-1.056, 1.973e-5
-1.057, 2.037e-5
-1.058, 2.121e-5
-1.059, 2.136e-5
-1.060, 2.125e-5
-1.061, 2.130e-5
-1.062, 2.187e-5
-1.063, 2.284e-5
-1.064, 2.295e-5
-1.065, 2.279e-5
-1.066, 2.295e-5
-1.067, 2.351e-5
-1.068, 2.441e-5
-1.069, 2.468e-5
-1.070, 2.448e-5
-1.071, 2.461e-5
-1.072, 2.526e-5
-1.073, 2.608e-5
-1.074, 2.645e-5
-1.075, 2.628e-5
-1.076, 2.627e-5
-1.077, 2.695e-5
-1.078, 2.781e-5
-1.079, 2.816e-5
-1.080, 2.797e-5
-1.081, 2.798e-5
-1.082, 2.876e-5
-1.083, 2.952e-5
-1.084, 2.985e-5
-1.085, 2.975e-5
-1.086, 2.968e-5
-1.087, 3.050e-5
-1.088, 3.137e-5
-1.089, 3.161e-5
-1.090, 3.153e-5
-1.091, 3.146e-5
-1.092, 3.217e-5
-1.093, 3.306e-5
-1.094, 3.332e-5
-1.095, 3.321e-5
-1.096, 3.315e-5
-1.097, 3.384e-5
-1.098, 3.470e-5
-1.099, 3.497e-5
-1.100, 3.477e-5
-1.101, 3.479e-5
-1.102, 3.535e-5
-1.103, 3.637e-5
-1.104, 3.649e-5
-1.105, 3.629e-5
-1.106, 3.634e-5
-1.107, 3.687e-5
-1.108, 3.774e-5
-1.109, 3.794e-5
-1.110, 3.763e-5
-1.111, 3.769e-5
-1.112, 3.817e-5
-1.113, 3.903e-5
-1.114, 3.930e-5
-1.115, 3.887e-5
-1.116, 3.883e-5
-1.117, 3.942e-5
-1.118, 4.015e-5
-1.119, 4.034e-5
-1.120, 3.996e-5
-1.121, 3.986e-5
-1.122, 4.042e-5
-1.123, 4.113e-5
-1.124, 4.132e-5
-1.125, 4.095e-5
-1.126, 4.069e-5
-1.127, 4.134e-5
-1.128, 4.192e-5
-1.129, 4.206e-5
-1.130, 4.166e-5
-1.131, 4.142e-5
-1.132, 4.192e-5
-1.133, 4.256e-5
-1.134, 4.260e-5
-1.135, 4.222e-5
-1.136, 4.192e-5
-1.137, 4.237e-5
-1.138, 4.300e-5
-1.139, 4.305e-5
-1.140, 4.263e-5
-1.141, 4.224e-5
-1.142, 4.264e-5
-1.143, 4.331e-5
-1.144, 4.327e-5
-1.145, 4.269e-5
-1.146, 4.251e-5
-1.147, 4.276e-5
-1.148, 4.337e-5
-1.149, 4.335e-5
-1.150, 4.266e-5
-1.151, 4.249e-5
-1.152, 4.275e-5
-1.153, 4.329e-5
-1.154, 4.327e-5
-1.155, 4.260e-5
-1.156, 4.227e-5
-1.157, 4.261e-5
-1.158, 4.310e-5
-1.159, 4.303e-5
-1.160, 4.238e-5
-1.161, 4.200e-5
-1.162, 4.232e-5
-1.163, 4.275e-5
-1.164, 4.270e-5
-1.165, 4.203e-5
-1.166, 4.160e-5
-1.167, 4.203e-5
-1.168, 4.238e-5
-1.169, 4.223e-5
-1.170, 4.173e-5
-1.171, 4.122e-5
-1.172, 4.153e-5
-1.173, 4.198e-5
-1.174, 4.181e-5
-1.175, 4.124e-5
-1.176, 4.078e-5
-1.177, 4.117e-5
-1.178, 4.161e-5
-1.179, 4.137e-5
-1.180, 4.080e-5
-1.181, 4.039e-5
-1.182, 4.061e-5
-1.183, 4.114e-5
-1.184, 4.093e-5
-1.185, 4.028e-5
-1.186, 3.992e-5
-1.187, 4.014e-5
-1.188, 4.061e-5
-1.189, 4.048e-5
-1.190, 3.983e-5
-1.191, 3.953e-5
-1.192, 3.968e-5
-1.193, 4.017e-5
-1.194, 4.013e-5
-1.195, 3.941e-5
-1.196, 3.907e-5
-1.197, 3.933e-5
-1.198, 3.983e-5
-1.199, 3.970e-5
-1.200, 3.901e-5
-1.201, 3.867e-5
-1.202, 3.900e-5
-1.203, 3.941e-5
-1.204, 3.931e-5
-1.205, 3.873e-5
-1.206, 3.836e-5
-1.207, 3.872e-5
-1.208, 3.908e-5
-1.209, 3.903e-5
-1.210, 3.854e-5
-1.211, 3.812e-5
-1.212, 3.843e-5
-1.213, 3.900e-5
-1.214, 3.882e-5
-1.215, 3.834e-5
-1.216, 3.801e-5
-1.217, 3.823e-5
-1.218, 3.893e-5
-1.219, 3.878e-5
-1.220, 3.830e-5
-1.221, 3.801e-5
-1.222, 3.831e-5
-1.223, 3.905e-5
-1.224, 3.889e-5
-1.225, 3.842e-5
-1.226, 3.817e-5
-1.227, 3.866e-5
-1.228, 3.939e-5
-1.229, 3.934e-5
-1.230, 3.886e-5
-1.231, 3.867e-5
-1.232, 3.907e-5
-1.233, 3.976e-5
-1.234, 3.990e-5
-1.235, 3.944e-5
-1.236, 3.932e-5
-1.237, 3.983e-5
-1.238, 4.058e-5
-1.239, 4.068e-5
-1.240, 4.037e-5
-1.241, 4.026e-5
-1.242, 4.093e-5
-1.243, 4.171e-5
-1.244, 4.186e-5
-1.245, 4.159e-5
-1.246, 4.163e-5
-1.247, 4.233e-5
-1.248, 4.317e-5
-1.249, 4.340e-5
-1.250, 4.338e-5
-1.251, 4.339e-5
-1.252, 4.420e-5
-1.253, 4.522e-5
-1.254, 4.559e-5
-1.255, 4.565e-5
-1.256, 4.573e-5
-1.257, 4.671e-5
-1.258, 4.794e-5
-1.259, 4.830e-5
-1.260, 4.866e-5
-1.261, 4.893e-5
-1.262, 4.998e-5
-1.263, 5.136e-5
-1.264, 5.207e-5
-1.265, 5.240e-5
-1.266, 5.305e-5
-1.267, 5.432e-5
-1.268, 5.591e-5
-1.269, 5.691e-5
-1.270, 5.755e-5
-1.271, 5.844e-5
-1.272, 5.989e-5
-1.273, 6.192e-5
-1.274, 6.331e-5
-1.275, 6.428e-5
-1.276, 6.555e-5
-1.277, 6.759e-5
-1.278, 6.993e-5
-1.279, 7.184e-5
-1.280, 7.344e-5
-1.281, 7.510e-5
-1.282, 7.791e-5
-1.283, 8.080e-5
-1.284, 8.340e-5
-1.285, 8.563e-5
-1.286, 8.824e-5
-1.287, 9.181e-5
-1.288, 9.567e-5
-1.289, 9.917e-5
-1.290, 1.026e-4
-1.291, 1.062e-4
-1.292, 1.108e-4
-1.293, 1.160e-4
-1.294, 1.208e-4
-1.295, 1.256e-4
-1.296, 1.308e-4
-1.297, 1.370e-4
-1.298, 1.439e-4
-1.299, 1.506e-4
-1.300, 1.574e-4
-1.301, 1.646e-4
-1.302, 1.730e-4
-1.303, 1.822e-4
-1.304, 1.912e-4
-1.305, 2.004e-4
-1.306, 2.103e-4
-1.307, 2.213e-4
-1.308, 2.333e-4
-1.309, 2.451e-4
-1.310, 2.572e-4
-1.311, 2.701e-4
-1.312, 2.839e-4
-1.313, 2.988e-4
-1.314, 3.139e-4
-1.315, 3.289e-4
-1.316, 3.449e-4
-1.317, 3.621e-4
-1.318, 3.803e-4
-1.319, 3.987e-4
-1.320, 4.170e-4
-1.321, 4.363e-4
-1.322, 4.565e-4
-1.323, 4.777e-4
-1.324, 4.993e-4
-1.325, 5.208e-4
-1.326, 5.429e-4
-1.327, 5.664e-4
-1.328, 5.907e-4
-1.329, 6.155e-4
-1.330, 6.405e-4
-1.331, 6.656e-4
-1.332, 6.921e-4
-1.333, 7.197e-4
-1.334, 7.476e-4
-1.335, 7.757e-4
-1.336, 8.042e-4
-1.337, 8.343e-4
-1.338, 8.656e-4
-1.339, 8.969e-4
-1.340, 9.284e-4
-1.341, 9.605e-4
-1.342, 9.940e-4
-1.343, 1.029e-3
-1.344, 1.064e-3
-1.345, 1.099e-3
-1.346, 1.135e-3
-1.347, 1.172e-3
-1.348, 1.210e-3
-1.349, 1.249e-3
-1.350, 1.288e-3
-1.351, 1.328e-3
-1.352, 1.368e-3
-1.353, 1.410e-3
-1.354, 1.453e-3
-1.355, 1.496e-3
-1.356, 1.538e-3
-1.357, 1.583e-3
-1.358, 1.630e-3
-1.359, 1.678e-3
-1.360, 1.726e-3
-1.361, 1.773e-3
-1.362, 1.821e-3
-1.363, 1.870e-3
-1.364, 1.921e-3
-1.365, 1.971e-3
-1.366, 2.023e-3
-1.367, 2.075e-3
-1.368, 2.127e-3
-1.369, 2.181e-3
-1.370, 2.236e-3
-1.371, 2.290e-3
-1.372, 2.347e-3
-1.373, 2.404e-3
-1.374, 2.462e-3
-1.375, 2.519e-3
-1.376, 2.576e-3
-1.377, 2.636e-3
-1.378, 2.697e-3
-1.379, 2.759e-3
-1.380, 2.820e-3
-1.381, 2.881e-3
-1.382, 2.946e-3
-1.383, 3.013e-3
-1.384, 3.078e-3
-1.385, 3.144e-3
-1.386, 3.210e-3
-1.387, 3.276e-3
-1.388, 3.343e-3
-1.389, 3.410e-3
-1.390, 3.477e-3
-1.391, 3.544e-3
-1.392, 3.612e-3
-1.393, 3.682e-3
-1.394, 3.752e-3
-1.395, 3.821e-3
-1.396, 3.892e-3
-1.397, 3.965e-3
-1.398, 4.042e-3
-1.399, 4.119e-3
-1.400, 4.196e-3
-1.401, 4.269e-3
-1.402, 4.341e-3
-1.403, 4.417e-3
-1.404, 4.491e-3
-1.405, 4.564e-3
-1.406, 4.636e-3
-1.407, 4.711e-3
-1.408, 4.787e-3
-1.409, 4.865e-3
-1.410, 4.944e-3
-1.411, 5.020e-3
-1.412, 5.097e-3
-1.413, 5.171e-3
-1.414, 5.247e-3
-1.415, 5.323e-3
-1.416, 5.400e-3
-1.417, 5.474e-3
-1.418, 5.550e-3
-1.419, 5.626e-3
-1.420, 5.697e-3
-1.421, 5.768e-3
-1.422, 5.846e-3
-1.423, 5.927e-3
-1.424, 6.003e-3
-1.425, 6.080e-3
-1.426, 6.159e-3
-1.427, 6.229e-3
-1.428, 6.310e-3
-1.429, 6.389e-3
-1.430, 6.471e-3
-1.431, 6.548e-3
-1.432, 6.626e-3
-1.433, 6.697e-3
-1.434, 6.769e-3
-1.435, 6.848e-3
-1.436, 6.922e-3
-1.437, 6.993e-3
-1.438, 7.064e-3
-1.439, 7.133e-3
-1.440, 7.206e-3
-1.441, 7.282e-3
-1.442, 7.348e-3
-1.443, 7.415e-3
-1.444, 7.479e-3
-1.445, 7.545e-3
-1.446, 7.605e-3
-1.447, 7.666e-3
-1.448, 7.739e-3
-1.449, 7.807e-3
-1.450, 7.873e-3
-1.451, 7.938e-3
-1.452, 8.013e-3
-1.453, 8.096e-3
-1.454, 8.162e-3
-1.455, 8.223e-3
-1.456, 8.285e-3
-1.457, 8.354e-3
-1.458, 8.417e-3
-1.459, 8.485e-3
-1.460, 8.551e-3
-1.461, 8.620e-3
-1.462, 8.688e-3
-1.463, 8.755e-3
-1.464, 8.828e-3
-1.465, 8.900e-3
-1.466, 8.964e-3
-1.467, 9.033e-3
-1.468, 9.096e-3
-1.469, 9.161e-3
-1.470, 9.232e-3
-1.471, 9.313e-3
-1.472, 9.402e-3
-1.473, 9.464e-3
-1.474, 9.531e-3
-1.475, 9.621e-3
-1.476, 9.693e-3
-1.477, 9.748e-3
-1.478, 9.815e-3
-1.479, 9.873e-3
-1.480, 9.926e-3
-1.481, 1.001e-2
-1.482, 1.009e-2
-1.483, 1.011e-2
-1.484, 1.011e-2
-1.485, 1.011e-2
-1.486, 1.011e-2
-1.487, 1.011e-2
-1.488, 1.011e-2
-1.489, 1.011e-2
-1.490, 1.011e-2
-1.491, 1.011e-2
-1.492, 1.011e-2
-1.493, 1.011e-2
-1.494, 1.011e-2
-1.495, 1.011e-2
-1.496, 1.011e-2
-1.497, 1.011e-2
-1.498, 1.011e-2
-1.499, 1.011e-2
-1.500, 1.011e-2
-1.499, 1.011e-2
-1.498, 1.011e-2
-1.497, 1.011e-2
-1.496, 1.011e-2
-1.495, 1.011e-2
-1.494, 1.011e-2
-1.493, 1.011e-2
-1.492, 1.011e-2
-1.491, 1.011e-2
-1.490, 1.011e-2
-1.489, 1.004e-2
-1.488, 9.922e-3
-1.487, 9.792e-3
-1.486, 9.691e-3
-1.485, 9.618e-3
-1.484, 9.499e-3
-1.483, 9.382e-3
-1.482, 9.270e-3
-1.481, 9.137e-3
-1.480, 9.016e-3
-1.479, 8.937e-3
-1.478, 8.853e-3
-1.477, 8.792e-3
-1.476, 8.740e-3
-1.475, 8.608e-3
-1.474, 8.491e-3
-1.473, 8.396e-3
-1.472, 8.337e-3
-1.471, 8.254e-3
-1.470, 8.186e-3
-1.469, 8.144e-3
-1.468, 8.063e-3
-1.467, 7.981e-3
-1.466, 7.894e-3
-1.465, 7.795e-3
-1.464, 7.694e-3
-1.463, 7.645e-3
-1.462, 7.562e-3
-1.461, 7.496e-3
-1.460, 7.425e-3
-1.459, 7.350e-3
-1.458, 7.248e-3
-1.457, 7.146e-3
-1.456, 7.051e-3
-1.455, 6.968e-3
-1.454, 6.881e-3
-1.453, 6.796e-3
-1.452, 6.724e-3
-1.451, 6.644e-3
-1.450, 6.583e-3
-1.449, 6.525e-3
-1.448, 6.458e-3
-1.447, 6.379e-3
-1.446, 6.296e-3
-1.445, 6.213e-3
-1.444, 6.119e-3
-1.443, 6.030e-3
-1.442, 5.945e-3
-1.441, 5.891e-3
-1.440, 5.868e-3
-1.439, 5.799e-3
-1.438, 5.709e-3
-1.437, 5.611e-3
-1.436, 5.522e-3
-1.435, 5.444e-3
-1.434, 5.367e-3
-1.433, 5.295e-3
-1.432, 5.251e-3
-1.431, 5.198e-3
-1.430, 5.127e-3
-1.429, 5.049e-3
-1.428, 4.981e-3
-1.427, 4.900e-3
-1.426, 4.825e-3
-1.425, 4.756e-3
-1.424, 4.692e-3
-1.423, 4.622e-3
-1.422, 4.556e-3
-1.421, 4.484e-3
-1.420, 4.410e-3
-1.419, 4.346e-3
-1.418, 4.289e-3
-1.417, 4.220e-3
-1.416, 4.153e-3
-1.415, 4.099e-3
-1.414, 4.035e-3
-1.413, 3.969e-3
-1.412, 3.905e-3
-1.411, 3.843e-3
-1.410, 3.781e-3
-1.409, 3.719e-3
-1.408, 3.656e-3
-1.407, 3.590e-3
-1.406, 3.538e-3
-1.405, 3.485e-3
-1.404, 3.438e-3
-1.403, 3.386e-3
-1.402, 3.328e-3
-1.401, 3.271e-3
-1.400, 3.226e-3
-1.399, 3.176e-3
-1.398, 3.134e-3
-1.397, 3.083e-3
-1.396, 3.037e-3
-1.395, 2.983e-3
-1.394, 2.929e-3
-1.393, 2.880e-3
-1.392, 2.830e-3
-1.391, 2.779e-3
-1.390, 2.726e-3
-1.389, 2.672e-3
-1.388, 2.625e-3
-1.387, 2.580e-3
-1.386, 2.530e-3
-1.385, 2.480e-3
-1.384, 2.432e-3
-1.383, 2.387e-3
-1.382, 2.341e-3
-1.381, 2.295e-3
-1.380, 2.248e-3
-1.379, 2.204e-3
-1.378, 2.161e-3
-1.377, 2.118e-3
-1.376, 2.078e-3
-1.375, 2.036e-3
-1.374, 1.993e-3
-1.373, 1.952e-3
-1.372, 1.907e-3
-1.371, 1.871e-3
-1.370, 1.834e-3
-1.369, 1.796e-3
-1.368, 1.756e-3
-1.367, 1.714e-3
-1.366, 1.673e-3
-1.365, 1.642e-3
-1.364, 1.610e-3
-1.363, 1.573e-3
-1.362, 1.539e-3
-1.361, 1.506e-3
-1.360, 1.473e-3
-1.359, 1.438e-3
-1.358, 1.405e-3
-1.357, 1.372e-3
-1.356, 1.340e-3
-1.355, 1.308e-3
-1.354, 1.276e-3
-1.353, 1.245e-3
-1.352, 1.215e-3
-1.351, 1.188e-3
-1.350, 1.159e-3
-1.349, 1.130e-3
-1.348, 1.103e-3
-1.347, 1.080e-3
-1.346, 1.055e-3
-1.345, 1.026e-3
-1.344, 9.982e-4
-1.343, 9.728e-4
-1.342, 9.481e-4
-1.341, 9.237e-4
-1.340, 8.994e-4
-1.339, 8.752e-4
-1.338, 8.525e-4
-1.337, 8.305e-4
-1.336, 8.087e-4
-1.335, 7.869e-4
-1.334, 7.654e-4
-1.333, 7.459e-4
-1.332, 7.256e-4
-1.331, 7.054e-4
-1.330, 6.852e-4
-1.329, 6.650e-4
-1.328, 6.469e-4
-1.327, 6.293e-4
-1.326, 6.122e-4
-1.325, 5.948e-4
-1.324, 5.775e-4
-1.323, 5.621e-4
-1.322, 5.459e-4
-1.321, 5.306e-4
-1.320, 5.151e-4
-1.319, 5.015e-4
-1.318, 4.877e-4
-1.317, 4.738e-4
-1.316, 4.599e-4
-1.315, 4.463e-4
-1.314, 4.332e-4
-1.313, 4.206e-4
-1.312, 4.088e-4
-1.311, 3.972e-4
-1.310, 3.849e-4
-1.309, 3.731e-4
-1.308, 3.618e-4
-1.307, 3.513e-4
-1.306, 3.408e-4
-1.305, 3.300e-4
-1.304, 3.195e-4
-1.303, 3.094e-4
-1.302, 3.001e-4
-1.301, 2.912e-4
-1.300, 2.818e-4
-1.299, 2.723e-4
-1.298, 2.638e-4
-1.297, 2.556e-4
-1.296, 2.480e-4
-1.295, 2.397e-4
-1.294, 2.314e-4
-1.293, 2.239e-4
-1.292, 2.170e-4
-1.291, 2.102e-4
-1.290, 2.031e-4
-1.289, 1.958e-4
-1.288, 1.894e-4
-1.287, 1.837e-4
-1.286, 1.780e-4
-1.285, 1.717e-4
-1.284, 1.652e-4
-1.283, 1.595e-4
-1.282, 1.546e-4
-1.281, 1.497e-4
-1.280, 1.442e-4
-1.279, 1.387e-4
-1.278, 1.336e-4
-1.277, 1.296e-4
-1.276, 1.253e-4
-1.275, 1.206e-4
-1.274, 1.157e-4
-1.273, 1.114e-4
-1.272, 1.079e-4
-1.271, 1.045e-4
-1.270, 1.004e-4
-1.269, 9.610e-5
-1.268, 9.239e-5
-1.267, 8.934e-5
-1.266, 8.639e-5
-1.265, 8.306e-5
-1.264, 7.959e-5
-1.263, 7.612e-5
-1.262, 7.324e-5
-1.261, 7.078e-5
-1.260, 6.800e-5
-1.259, 6.457e-5
-1.258, 6.164e-5
-1.257, 5.932e-5
-1.256, 5.724e-5
-1.255, 5.450e-5
-1.254, 5.146e-5
-1.253, 4.921e-5
-1.252, 4.744e-5
-1.251, 4.563e-5
-1.250, 4.347e-5
-1.249, 4.088e-5
-1.248, 3.891e-5
-1.247, 3.746e-5
-1.246, 3.597e-5
-1.245, 3.394e-5
-1.244, 3.155e-5
-1.243, 2.972e-5
-1.242, 2.871e-5
-1.241, 2.750e-5
-1.240, 2.577e-5
-1.239, 2.359e-5
-1.238, 2.193e-5
-1.237, 2.125e-5
-1.236, 2.027e-5
-1.235, 1.871e-5
-1.234, 1.681e-5
-1.233, 1.540e-5
-1.232, 1.479e-5
-1.231, 1.399e-5
-1.230, 1.259e-5
-1.229, 1.065e-5
-1.228, 9.632e-6
-1.227, 9.052e-6
-1.226, 8.562e-6
-1.225, 7.359e-6
-1.224, 5.884e-6
-1.223, 4.738e-6
-1.222, 4.396e-6
-1.221, 4.023e-6
-1.220, 3.019e-6
-1.219, 1.563e-6
-1.218, 6.302e-7
-1.217, 4.744e-7
-1.216, 1.794e-7
-1.215, -7.155e-7
-1.214, -2.027e-6
-1.213, -2.913e-6
-1.212, -3.052e-6
-1.211, -3.475e-6
-1.210, -4.138e-6
-1.209, -5.562e-6
-1.208, -6.192e-6
-1.207, -6.312e-6
-1.206, -6.478e-6
-1.205, -6.991e-6
-1.204, -8.218e-6
-1.203, -9.019e-6
-1.202, -8.913e-6
-1.201, -8.922e-6
-1.200, -9.451e-6
-1.199, -1.060e-5
-1.198, -1.139e-5
-1.197, -1.127e-5
-1.196, -1.117e-5
-1.195, -1.181e-5
-1.194, -1.271e-5
-1.193, -1.343e-5
-1.192, -1.311e-5
-1.191, -1.294e-5
-1.190, -1.358e-5
-1.189, -1.448e-5
-1.188, -1.511e-5
-1.187, -1.507e-5
-1.186, -1.477e-5
-1.185, -1.538e-5
-1.184, -1.630e-5
-1.183, -1.688e-5
-1.182, -1.689e-5
-1.181, -1.652e-5
-1.180, -1.693e-5
-1.179, -1.792e-5
-1.178, -1.842e-5
-1.177, -1.830e-5
-1.176, -1.791e-5
-1.175, -1.836e-5
-1.174, -1.927e-5
-1.173, -1.968e-5
-1.172, -1.944e-5
-1.171, -1.928e-5
-1.170, -1.960e-5
-1.169, -2.044e-5
-1.168, -2.085e-5
-1.167, -2.069e-5
-1.166, -2.045e-5
-1.165, -2.063e-5
-1.164, -2.141e-5
-1.163, -2.203e-5
-1.162, -2.172e-5
-1.161, -2.144e-5
-1.160, -2.165e-5
-1.159, -2.237e-5
-1.158, -2.298e-5
-1.157, -2.269e-5
-1.156, -2.229e-5
-1.155, -2.263e-5
-1.154, -2.332e-5
-1.153, -2.388e-5
-1.152, -2.360e-5
-1.151, -2.321e-5
-1.150, -2.357e-5
-1.149, -2.414e-5
-1.148, -2.460e-5
-1.147, -2.456e-5
-1.146, -2.397e-5
-1.145, -2.428e-5
-1.144, -2.497e-5
-1.143, -2.537e-5
-1.142, -2.523e-5
-1.141, -2.473e-5
-1.140, -2.497e-5
-1.139, -2.583e-5
-1.138, -2.617e-5
-1.137, -2.610e-5
-1.136, -2.565e-5
-1.135, -2.577e-5
-1.134, -2.665e-5
-1.133, -2.699e-5
-1.132, -2.678e-5
-1.131, -2.640e-5
-1.130, -2.648e-5
-1.129, -2.729e-5
-1.128, -2.765e-5
-1.127, -2.750e-5
-1.126, -2.712e-5
-1.125, -2.719e-5
-1.124, -2.789e-5
-1.123, -2.847e-5
-1.122, -2.823e-5
-1.121, -2.776e-5
-1.120, -2.789e-5
-1.119, -2.859e-5
-1.118, -2.922e-5
-1.117, -2.889e-5
-1.116, -2.855e-5
-1.115, -2.874e-5
-1.114, -2.941e-5
-1.113, -3.002e-5
-1.112, -2.980e-5
-1.111, -2.933e-5
-1.110, -2.967e-5
-1.109, -3.026e-5
-1.108, -3.080e-5
-1.107, -3.078e-5
-1.106, -3.027e-5
-1.105, -3.049e-5
-1.104, -3.102e-5
-1.103, -3.161e-5
-1.102, -3.174e-5
-1.101, -3.110e-5
-1.100, -3.138e-5
-1.099, -3.211e-5
-1.098, -3.271e-5
-1.097, -3.270e-5
-1.096, -3.226e-5
-1.095, -3.240e-5
-1.094, -3.326e-5
-1.093, -3.380e-5
-1.092, -3.370e-5
-1.091, -3.339e-5
-1.090, -3.359e-5
-1.089, -3.431e-5
-1.088, -3.502e-5
-1.087, -3.499e-5
-1.086, -3.469e-5
-1.085, -3.477e-5
-1.084, -3.563e-5
-1.083, -3.640e-5
-1.082, -3.631e-5
-1.081, -3.609e-5
-1.080, -3.613e-5
-1.079, -3.694e-5
-1.078, -3.779e-5
-1.077, -3.764e-5
-1.076, -3.749e-5
-1.075, -3.771e-5
-1.074, -3.847e-5
-1.073, -3.915e-5
-1.072, -3.914e-5
-1.071, -3.891e-5
-1.070, -3.913e-5
-1.069, -3.985e-5
-1.068, -4.073e-5
-1.067, -4.083e-5
-1.066, -4.053e-5
-1.065, -4.086e-5
-1.064, -4.166e-5
-1.063, -4.254e-5
-1.062, -4.280e-5
-1.061, -4.246e-5
-1.060, -4.269e-5
-1.059, -4.368e-5
-1.058, -4.435e-5
-1.057, -4.465e-5
-1.056, -4.436e-5
-1.055, -4.451e-5
-1.054, -4.554e-5
-1.053, -4.631e-5
-1.052, -4.638e-5
-1.051, -4.626e-5
-1.050, -4.630e-5
-1.049, -4.741e-5
-1.048, -4.810e-5
-1.047, -4.833e-5
-1.046, -4.821e-5
-1.045, -4.828e-5
-1.044, -4.924e-5
-1.043, -5.022e-5
-1.042, -5.039e-5
-1.041, -5.030e-5
-1.040, -5.028e-5
-1.039, -5.135e-5
-1.038, -5.233e-5
-1.037, -5.249e-5
-1.036, -5.229e-5
-1.035, -5.252e-5
-1.034, -5.342e-5
-1.033, -5.446e-5
-1.032, -5.455e-5
-1.031, -5.440e-5
-1.030, -5.473e-5
-1.029, -5.560e-5
-1.028, -5.660e-5
-1.027, -5.697e-5
-1.026, -5.677e-5
-1.025, -5.693e-5
-1.024, -5.805e-5
-1.023, -5.898e-5
-1.022, -5.930e-5
-1.021, -5.908e-5
-1.020, -5.924e-5
-1.019, -6.040e-5
-1.018, -6.132e-5
-1.017, -6.179e-5
-1.016, -6.151e-5
-1.015, -6.165e-5
-1.014, -6.277e-5
-1.013, -6.367e-5
-1.012, -6.406e-5
-1.011, -6.406e-5
-1.010, -6.419e-5
-1.009, -6.530e-5
-1.008, -6.621e-5
-1.007, -6.660e-5
-1.006, -6.663e-5
-1.005, -6.667e-5
-1.004, -6.779e-5
-1.003, -6.886e-5
-1.002, -6.919e-5
-1.001, -6.925e-5
-1.000, -5.180e-5
-1.001, -4.223e-5
-1.002, -3.718e-5
-1.003, -3.275e-5
-1.004, -2.842e-5
-1.005, -2.490e-5
-1.006, -2.255e-5
-1.007, -2.046e-5
-1.008, -1.810e-5
-1.009, -1.549e-5
-1.010, -1.306e-5
-1.011, -1.176e-5
-1.012, -1.062e-5
-1.013, -8.899e-6
-1.014, -6.929e-6
-1.015, -5.041e-6
-1.016, -4.356e-6
-1.017, -3.637e-6
-1.018, -2.352e-6
-1.019, -7.115e-7
-1.020, 6.983e-7
-1.021, 1.219e-6
-1.022, 1.710e-6
-1.023, 2.685e-6
-1.024, 4.187e-6
-1.025, 5.251e-6
-1.026, 5.680e-6
-1.027, 5.797e-6
-1.028, 6.656e-6
-1.029, 7.991e-6
-1.030, 8.939e-6
-1.031, 9.194e-6
-1.032, 9.213e-6
-1.033, 9.914e-6
-1.034, 1.114e-5
-1.035, 1.196e-5
-1.036, 1.215e-5
-1.037, 1.216e-5
-1.038, 1.273e-5
-1.039, 1.385e-5
-1.040, 1.454e-5
-1.041, 1.465e-5
-1.042, 1.466e-5
-1.043, 1.510e-5
-1.044, 1.611e-5
-1.045, 1.693e-5
-1.046, 1.693e-5
-1.047, 1.679e-5
-1.048, 1.725e-5
-1.049, 1.811e-5
-1.050, 1.900e-5
-1.051, 1.889e-5
-1.052, 1.881e-5
-1.053, 1.914e-5
-1.054, 2.001e-5
-1.055, 2.083e-5
-1.056, 2.066e-5
-1.057, 2.044e-5
-1.058, 2.091e-5
-1.059, 2.173e-5
-1.060, 2.242e-5
-1.061, 2.235e-5
-1.062, 2.206e-5
-1.063, 2.249e-5
-1.064, 2.314e-5
-1.065, 2.389e-5
-1.066, 2.381e-5
-1.067, 2.349e-5
-1.068, 2.380e-5
-1.069, 2.459e-5
-1.070, 2.524e-5
-1.071, 2.517e-5
-1.072, 2.481e-5
-1.073, 2.507e-5
-1.074, 2.589e-5
-1.075, 2.654e-5
-1.076, 2.638e-5
-1.077, 2.599e-5
-1.078, 2.618e-5
-1.079, 2.701e-5
-1.080, 2.749e-5
-1.081, 2.735e-5
-1.082, 2.702e-5
-1.083, 2.710e-5
-1.084, 2.782e-5
-1.085, 2.834e-5
-1.086, 2.825e-5
-1.087, 2.795e-5
-1.088, 2.810e-5
-1.089, 2.878e-5
-1.090, 2.925e-5
-1.091, 2.907e-5
-1.092, 2.866e-5
-1.093, 2.880e-5
-1.094, 2.935e-5
-1.095, 2.994e-5
-1.096, 2.967e-5
-1.097, 2.917e-5
-1.098, 2.929e-5
-1.099, 2.987e-5
-1.100, 3.036e-5
-1.101, 3.018e-5
-1.102, 2.961e-5
-1.103, 2.980e-5
-1.104, 3.016e-5
-1.105, 3.063e-5
-1.106, 3.042e-5
-1.107, 2.977e-5
-1.108, 2.986e-5
-1.109, 3.040e-5
-1.110, 3.076e-5
-1.111, 3.051e-5
-1.112, 2.988e-5
-1.113, 2.988e-5
-1.114, 3.043e-5
-1.115, 3.077e-5
-1.116, 3.040e-5
-1.117, 2.982e-5
-1.118, 2.983e-5
-1.119, 3.029e-5
-1.120, 3.060e-5
-1.121, 3.021e-5
-1.122, 2.971e-5
-1.123, 2.960e-5
-1.124, 3.001e-5
-1.125, 3.040e-5
-1.126, 2.994e-5
-1.127, 2.938e-5
-1.128, 2.930e-5
-1.129, 2.971e-5
-1.130, 3.009e-5
-1.131, 2.961e-5
-1.132, 2.901e-5
-1.133, 2.896e-5
-1.134, 2.930e-5
-1.135, 2.972e-5
-1.136, 2.927e-5
-1.137, 2.859e-5
-1.138, 2.858e-5
-1.139, 2.893e-5
-1.140, 2.931e-5
-1.141, 2.898e-5
-1.142, 2.828e-5
-1.143, 2.829e-5
-1.144, 2.860e-5
-1.145, 2.891e-5
-1.146, 2.859e-5
-1.147, 2.792e-5
-1.148, 2.794e-5
-1.149, 2.840e-5
-1.150, 2.869e-5
-1.151, 2.843e-5
-1.152, 2.765e-5
-1.153, 2.761e-5
-1.154, 2.823e-5
-1.155, 2.842e-5
-1.156, 2.817e-5
-1.157, 2.765e-5
-1.158, 2.754e-5
-1.159, 2.814e-5
-1.160, 2.844e-5
-1.161, 2.817e-5
-1.162, 2.758e-5
-1.163, 2.748e-5
-1.164, 2.809e-5
-1.165, 2.851e-5
-1.166, 2.816e-5
-1.167, 2.770e-5
-1.168, 2.755e-5
-1.169, 2.814e-5
-1.170, 2.857e-5
-1.171, 2.827e-5
-1.172, 2.775e-5
-1.173, 2.768e-5
-1.174, 2.824e-5
-1.175, 2.887e-5
-1.176, 2.841e-5
-1.177, 2.804e-5
-1.178, 2.809e-5
-1.179, 2.847e-5
-1.180, 2.891e-5
-1.181, 2.879e-5
-1.182, 2.823e-5
-1.183, 2.833e-5
-1.184, 2.880e-5
-1.185, 2.925e-5
-1.186, 2.914e-5
-1.187, 2.860e-5
-1.188, 2.861e-5
-1.189, 2.924e-5
-1.190, 2.968e-5
-1.191, 2.971e-5
-1.192, 2.918e-5
-1.193, 2.917e-5
-1.194, 2.991e-5
-1.195, 3.024e-5
-1.196, 3.030e-5
-1.197, 2.988e-5
-1.198, 2.986e-5
-1.199, 3.064e-5
-1.200, 3.106e-5
-1.201, 3.101e-5
-1.202, 3.067e-5
-1.203, 3.063e-5
-1.204, 3.141e-5
-1.205, 3.200e-5
-1.206, 3.195e-5
-1.207, 3.177e-5
-1.208, 3.169e-5
-1.209, 3.247e-5
-1.210, 3.323e-5
-1.211, 3.328e-5
-1.212, 3.300e-5
-1.213, 3.308e-5
-1.214, 3.397e-5
-1.215, 3.474e-5
-1.216, 3.480e-5
-1.217, 3.463e-5
-1.218, 3.485e-5
-1.219, 3.569e-5
-1.220, 3.663e-5
-1.221, 3.678e-5
-1.222, 3.671e-5
-1.223, 3.698e-5
-1.224, 3.791e-5
-1.225, 3.882e-5
-1.226, 3.929e-5
-1.227, 3.918e-5
-1.228, 3.968e-5
-1.229, 4.082e-5
-1.230, 4.180e-5
-1.231, 4.231e-5
-1.232, 4.237e-5
-1.233, 4.288e-5
-1.234, 4.421e-5
-1.235, 4.534e-5
-1.236, 4.595e-5
-1.237, 4.623e-5
-1.238, 4.681e-5
-1.239, 4.831e-5
-1.240, 4.953e-5
-1.241, 5.038e-5
-1.242, 5.094e-5
-1.243, 5.171e-5
-1.244, 5.329e-5
-1.245, 5.486e-5
-1.246, 5.587e-5
-1.247, 5.664e-5
-1.248, 5.763e-5
-1.249, 5.949e-5
-1.250, 6.136e-5
-1.251, 6.254e-5
-1.252, 6.355e-5
-1.253, 6.490e-5
-1.254, 6.702e-5
-1.255, 6.923e-5
-1.256, 7.073e-5
-1.257, 7.210e-5
-1.258, 7.384e-5
-1.259, 7.615e-5
-1.260, 7.878e-5
-1.261, 8.075e-5
-1.262, 8.250e-5
-1.263, 8.467e-5
-1.264, 8.753e-5
-1.265, 9.052e-5
-1.266, 9.305e-5
-1.267, 9.522e-5
-1.268, 9.790e-5
-1.269, 1.012e-4
-1.270, 1.048e-4
-1.271, 1.080e-4
-1.272, 1.107e-4
-1.273, 1.140e-4
-1.274, 1.181e-4
-1.275, 1.222e-4
-1.276, 1.262e-4
-1.277, 1.297e-4
-1.278, 1.337e-4
-1.279, 1.386e-4
-1.280, 1.438e-4
-1.281, 1.486e-4
-1.282, 1.531e-4
-1.283, 1.580e-4
-1.284, 1.640e-4
-1.285, 1.701e-4
-1.286, 1.759e-4
-1.287, 1.816e-4
-1.288, 1.876e-4
-1.289, 1.947e-4
-1.290, 2.021e-4
-1.291, 2.092e-4
-1.292, 2.162e-4
-1.293, 2.237e-4
-1.294, 2.321e-4
-1.295, 2.411e-4
-1.296, 2.497e-4
-1.297, 2.582e-4
-1.298, 2.673e-4
-1.299, 2.773e-4
-1.300, 2.880e-4
-1.301, 2.984e-4
-1.302, 3.088e-4
-1.303, 3.197e-4
-1.304, 3.314e-4
-1.305, 3.438e-4
-1.306, 3.566e-4
-1.307, 3.690e-4
-1.308, 3.822e-4
-1.309, 3.965e-4
-1.310, 4.113e-4
-1.311, 4.262e-4
-1.312, 4.410e-4
-1.313, 4.567e-4
-1.314, 4.735e-4
-1.315, 4.910e-4
-1.316, 5.086e-4
-1.317, 5.260e-4
-1.318, 5.445e-4
-1.319, 5.642e-4
-1.320, 5.845e-4
-1.321, 6.052e-4
-1.322, 6.259e-4
-1.323, 6.472e-4
-1.324, 6.699e-4
-1.325, 6.934e-4
-1.326, 7.172e-4
-1.327, 7.412e-4
-1.328, 7.657e-4
-1.329, 7.916e-4
-1.330, 8.184e-4
-1.331, 8.456e-4
-1.332, 8.735e-4
-1.333, 9.018e-4
-1.334, 9.315e-4
-1.335, 9.616e-4
-1.336, 9.918e-4
-1.337, 1.023e-3
-1.338, 1.054e-3
-1.339, 1.087e-3
-1.340, 1.122e-3
-1.341, 1.157e-3
-1.342, 1.192e-3
-1.343, 1.227e-3
-1.344, 1.264e-3
-1.345, 1.303e-3
-1.346, 1.341e-3
-1.347, 1.380e-3
-1.348, 1.420e-3
-1.349, 1.461e-3
-1.350, 1.503e-3
-1.351, 1.546e-3
-1.352, 1.589e-3
-1.353, 1.633e-3
-1.354, 1.678e-3
-1.355, 1.724e-3
-1.356, 1.771e-3
-1.357, 1.818e-3
-1.358, 1.866e-3
-1.359, 1.915e-3
-1.360, 1.965e-3
-1.361, 2.014e-3
-1.362, 2.064e-3
-1.363, 2.114e-3
-1.364, 2.167e-3
-1.365, 2.221e-3
-1.366, 2.274e-3
-1.367, 2.329e-3
-1.368, 2.384e-3
-1.369, 2.443e-3
-1.370, 2.500e-3
-1.371, 2.556e-3
-1.372, 2.616e-3
-1.373, 2.677e-3
-1.374, 2.738e-3
-1.375, 2.796e-3
-1.376, 2.854e-3
-1.377, 2.910e-3
-1.378, 2.970e-3
-1.379, 3.033e-3
-1.380, 3.099e-3
-1.381, 3.165e-3
-1.382, 3.231e-3
-1.383, 3.296e-3
-1.384, 3.359e-3
-1.385, 3.424e-3
-1.386, 3.490e-3
-1.387, 3.559e-3
-1.388, 3.629e-3
-1.389, 3.697e-3
-1.390, 3.768e-3
-1.391, 3.839e-3
-1.392, 3.909e-3
-1.393, 3.983e-3
-1.394, 4.056e-3
-1.395, 4.127e-3
-1.396, 4.196e-3
-1.397, 4.265e-3
-1.398, 4.336e-3
-1.399, 4.413e-3
-1.400, 4.490e-3
-1.401, 4.572e-3
-1.402, 4.645e-3
-1.403, 4.714e-3
-1.404, 4.784e-3
-1.405, 4.854e-3
-1.406, 4.929e-3
-1.407, 5.006e-3
-1.408, 5.079e-3
-1.409, 5.156e-3
-1.410, 5.231e-3
-1.411, 5.303e-3
-1.412, 5.376e-3
-1.413, 5.451e-3
-1.414, 5.526e-3
-1.415, 5.600e-3
-1.416, 5.678e-3
-1.417, 5.750e-3
-1.418, 5.825e-3
-1.419, 5.909e-3
-1.420, 5.987e-3
-1.421, 6.060e-3
-1.422, 6.133e-3
-1.423, 6.206e-3
-1.424, 6.284e-3
-1.425, 6.361e-3
-1.426, 6.436e-3
-1.427, 6.510e-3
-1.428, 6.580e-3
-1.429, 6.665e-3
-1.430, 6.762e-3
-1.431, 6.847e-3
-1.432, 6.917e-3
-1.433, 6.990e-3
-1.434, 7.070e-3
-1.435, 7.139e-3
-1.436, 7.183e-3
-1.437, 7.240e-3
-1.438, 7.303e-3
-1.439, 7.370e-3
-1.440, 7.445e-3
-1.441, 7.536e-3
-1.442, 7.633e-3
-1.443, 7.699e-3
-1.444, 7.760e-3
-1.445, 7.819e-3
-1.446, 7.873e-3
-1.447, 7.938e-3
-1.448, 8.012e-3
-1.449, 8.075e-3
-1.450, 8.147e-3
-1.451, 8.214e-3
-1.452, 8.282e-3
-1.453, 8.349e-3
-1.454, 8.418e-3
-1.455, 8.477e-3
-1.456, 8.565e-3
-1.457, 8.647e-3
-1.458, 8.722e-3
-1.459, 8.792e-3
-1.460, 8.855e-3
-1.461, 8.915e-3
-1.462, 8.981e-3
-1.463, 9.055e-3
-1.464, 9.133e-3
-1.465, 9.200e-3
-1.466, 9.278e-3
-1.467, 9.358e-3
-1.468, 9.420e-3
-1.469, 9.504e-3
-1.470, 9.591e-3
-1.471, 9.651e-3
-1.472, 9.705e-3
-1.473, 9.771e-3
-1.474, 9.832e-3
-1.475, 9.897e-3
-1.476, 9.980e-3
-1.477, 1.005e-2
-1.478, 1.010e-2
-1.479, 1.011e-2
-1.480, 1.011e-2
-1.481, 1.011e-2
-1.482, 1.011e-2
-1.483, 1.011e-2
-1.484, 1.011e-2
-1.485, 1.011e-2
-1.486, 1.011e-2
-1.487, 1.011e-2
-1.488, 1.011e-2
-1.489, 1.011e-2
-1.490, 1.011e-2
-1.491, 1.011e-2
-1.492, 1.011e-2
-1.493, 1.011e-2
-1.494, 1.011e-2
-1.495, 1.011e-2
-1.496, 1.011e-2
-1.497, 1.011e-2
-1.498, 1.011e-2
-1.499, 1.011e-2
-1.500, 1.011e-2
-1.499, 1.011e-2
-1.498, 1.011e-2
-1.497, 1.011e-2
-1.496, 1.011e-2
-1.495, 1.011e-2
-1.494, 1.011e-2
-1.493, 1.011e-2
-1.492, 1.011e-2
-1.491, 1.011e-2
-1.490, 1.011e-2
-1.489, 1.011e-2
-1.488, 1.005e-2
-1.487, 9.961e-3
-1.486, 9.823e-3
-1.485, 9.697e-3
-1.484, 9.604e-3
-1.483, 9.519e-3
-1.482, 9.409e-3
-1.481, 9.287e-3
-1.480, 9.186e-3
-1.479, 9.135e-3
-1.478, 9.029e-3
-1.477, 8.946e-3
-1.476, 8.848e-3
-1.475, 8.760e-3
-1.474, 8.672e-3
-1.473, 8.570e-3
-1.472, 8.482e-3
-1.471, 8.425e-3
-1.470, 8.319e-3
-1.469, 8.224e-3
-1.468, 8.151e-3
-1.467, 8.103e-3
-1.466, 8.068e-3
-1.465, 7.949e-3
-1.464, 7.860e-3
-1.463, 7.759e-3
-1.462, 7.669e-3
-1.461, 7.563e-3
-1.460, 7.476e-3
-1.459, 7.382e-3
-1.458, 7.279e-3
-1.457, 7.194e-3
-1.456, 7.120e-3
-1.455, 7.088e-3
-1.454, 6.999e-3
-1.453, 6.917e-3
-1.452, 6.849e-3
-1.451, 6.785e-3
-1.450, 6.691e-3
-1.449, 6.606e-3
-1.448, 6.525e-3
-1.447, 6.435e-3
-1.446, 6.390e-3
-1.445, 6.342e-3
-1.444, 6.301e-3
-1.443, 6.256e-3
-1.442, 6.129e-3
-1.441, 6.075e-3
-1.440, 6.048e-3
-1.439, 5.996e-3
-1.438, 5.899e-3
-1.437, 5.811e-3
-1.436, 5.744e-3
-1.435, 5.681e-3
-1.434, 5.614e-3
-1.433, 5.546e-3
-1.432, 5.462e-3
-1.431, 5.409e-3
-1.430, 5.333e-3
-1.429, 5.248e-3
-1.428, 5.171e-3
-1.427, 5.116e-3
-1.426, 5.061e-3
-1.425, 5.013e-3
-1.424, 4.943e-3
-1.423, 4.869e-3
-1.422, 4.828e-3
-1.421, 4.760e-3
-1.420, 4.692e-3
-1.419, 4.641e-3
-1.418, 4.589e-3
-1.417, 4.522e-3
-1.416, 4.451e-3
-1.415, 4.384e-3
-1.414, 4.327e-3
-1.413, 4.258e-3
-1.412, 4.195e-3
-1.411, 4.123e-3
-1.410, 4.060e-3
-1.409, 3.998e-3
-1.408, 3.931e-3
-1.407, 3.864e-3
-1.406, 3.797e-3
-1.405, 3.733e-3
-1.404, 3.683e-3
-1.403, 3.623e-3
-1.402, 3.561e-3
-1.401, 3.501e-3
-1.400, 3.444e-3
-1.399, 3.388e-3
-1.398, 3.328e-3
-1.397, 3.269e-3
-1.396, 3.209e-3
-1.395, 3.154e-3
-1.394, 3.096e-3
-1.393, 3.035e-3
-1.392, 2.978e-3
-1.391, 2.931e-3
-1.390, 2.878e-3
-1.389, 2.825e-3
-1.388, 2.776e-3
-1.387, 2.724e-3
-1.386, 2.675e-3
-1.385, 2.617e-3
-1.384, 2.565e-3
-1.383, 2.525e-3
-1.382, 2.475e-3
-1.381, 2.425e-3
-1.380, 2.377e-3
-1.379, 2.333e-3
-1.378, 2.287e-3
-1.377, 2.238e-3
-1.376, 2.194e-3
-1.375, 2.151e-3
-1.374, 2.106e-3
-1.373, 2.064e-3
-1.372, 2.017e-3
-1.371, 1.976e-3
-1.370, 1.936e-3
-1.369, 1.894e-3
-1.368, 1.854e-3
-1.367, 1.812e-3
-1.366, 1.771e-3
-1.365, 1.734e-3
-1.364, 1.695e-3
-1.363, 1.659e-3
-1.362, 1.619e-3
-1.361, 1.583e-3
-1.360, 1.547e-3
-1.359, 1.511e-3
-1.358, 1.472e-3
-1.357, 1.437e-3
-1.356, 1.402e-3
-1.355, 1.369e-3
-1.354, 1.338e-3
-1.353, 1.306e-3
-1.352, 1.274e-3
-1.351, 1.242e-3
-1.350, 1.212e-3
-1.349, 1.183e-3
-1.348, 1.154e-3
-1.347, 1.125e-3
-1.346, 1.096e-3
-1.345, 1.068e-3
-1.344, 1.042e-3
-1.343, 1.014e-3
-1.342, 9.870e-4
-1.341, 9.606e-4
-1.340, 9.358e-4
-1.339, 9.111e-4
-1.338, 8.866e-4
-1.337, 8.622e-4
-1.336, 8.391e-4
-1.335, 8.169e-4
-1.334, 7.948e-4
-1.333, 7.746e-4
-1.332, 7.523e-4
-1.331, 7.312e-4
-1.330, 7.120e-4
-1.329, 6.924e-4
-1.328, 6.728e-4
-1.327, 6.537e-4
-1.326, 6.353e-4
-1.325, 6.176e-4
-1.324, 6.004e-4
-1.323, 5.823e-4
-1.322, 5.690e-4
-1.321, 5.499e-4
-1.320, 5.336e-4
-1.319, 5.176e-4
-1.318, 5.018e-4
-1.317, 4.860e-4
-1.316, 4.710e-4
-1.315, 4.573e-4
-1.314, 4.438e-4
-1.313, 4.301e-4
-1.312, 4.170e-4
-1.311, 4.041e-4
-1.310, 3.919e-4
-1.309, 3.802e-4
-1.308, 3.682e-4
-1.307, 3.563e-4
-1.306, 3.453e-4
-1.305, 3.349e-4
-1.304, 3.250e-4
-1.303, 3.144e-4
-1.302, 3.040e-4
-1.301, 2.948e-4
-1.300, 2.860e-4
-1.299, 2.767e-4
-1.298, 2.673e-4
-1.297, 2.581e-4
-1.296, 2.496e-4
-1.295, 2.418e-4
-1.294, 2.340e-4
-1.293, 2.259e-4
-1.292, 2.177e-4
-1.291, 2.102e-4
-1.290, 2.035e-4
-1.289, 1.968e-4
-1.288, 1.904e-4
-1.287, 1.828e-4
-1.286, 1.765e-4
-1.285, 1.713e-4
-1.284, 1.654e-4
-1.283, 1.591e-4
-1.282, 1.532e-4
-1.281, 1.478e-4
-1.280, 1.431e-4
-1.279, 1.387e-4
-1.278, 1.332e-4
-1.277, 1.283e-4
-1.276, 1.236e-4
-1.275, 1.197e-4
-1.274, 1.158e-4
-1.273, 1.112e-4
-1.272, 1.066e-4
-1.271, 1.029e-4
-1.270, 9.951e-5
-1.269, 9.632e-5
-1.268, 9.235e-5
-1.267, 8.821e-5
-1.266, 8.494e-5
-1.265, 8.202e-5
-1.264, 7.936e-5
-1.263, 7.586e-5
-1.262, 7.228e-5
-1.261, 6.951e-5
-1.260, 6.713e-5
-1.259, 6.462e-5
-1.258, 6.158e-5
-1.257, 5.840e-5
-1.256, 5.607e-5
-1.255, 5.413e-5
-1.254, 5.215e-5
-1.253, 4.954e-5
-1.252, 4.675e-5
-1.251, 4.457e-5
-1.250, 4.309e-5
-1.249, 4.138e-5
-1.248, 3.911e-5
-1.247, 3.665e-5
-1.246, 3.488e-5
-1.245, 3.366e-5
-1.244, 3.229e-5
-1.243, 3.008e-5
-1.242, 2.805e-5
-1.241, 2.645e-5
-1.240, 2.553e-5
-1.239, 2.446e-5
-1.238, 2.253e-5
-1.237, 2.082e-5
-1.236, 1.959e-5
-1.235, 1.883e-5
-1.234, 1.793e-5
-1.233, 1.622e-5
-1.232, 1.456e-5
-1.231, 1.350e-5
-1.230, 1.286e-5
-1.229, 1.198e-5
-1.228, 1.059e-5
-1.227, 9.048e-6
-1.226, 8.275e-6
-1.225, 7.691e-6
-1.224, 7.274e-6
-1.223, 6.006e-6
-1.222, 4.565e-6
-1.221, 3.887e-6
-1.220, 3.571e-6
-1.219, 3.117e-6
-1.218, 2.111e-6
-1.217, 7.536e-7
-1.216, 1.271e-7
-1.215, -1.500e-8
-1.214, -4.116e-7
-1.213, -1.381e-6
-1.212, -2.597e-6
-1.211, -3.184e-6
-1.210, -3.215e-6
-1.209, -3.490e-6
-1.208, -4.429e-6
-1.207, -5.527e-6
-1.206, -6.036e-6
-1.205, -5.980e-6
-1.204, -6.035e-6
-1.203, -6.990e-6
-1.202, -7.863e-6
-1.201, -8.328e-6
-1.200, -8.201e-6
-1.199, -8.329e-6
-1.198, -9.297e-6
-1.197, -1.015e-5
-1.196, -1.042e-5
-1.195, -1.033e-5
-1.194, -1.025e-5
-1.193, -1.113e-5
-1.192, -1.204e-5
-1.191, -1.228e-5
-1.190, -1.224e-5
-1.189, -1.212e-5
-1.188, -1.293e-5
-1.187, -1.392e-5
-1.186, -1.404e-5
-1.185, -1.391e-5
-1.184, -1.373e-5
-1.183, -1.436e-5
-1.182, -1.528e-5
-1.181, -1.544e-5
-1.180, -1.526e-5
-1.179, -1.523e-5
-1.178, -1.591e-5
-1.177, -1.664e-5
-1.176, -1.654e-5
-1.175, -1.635e-5
-1.174, -1.634e-5
-1.173, -1.685e-5
-1.172, -1.768e-5
-1.171, -1.800e-5
-1.170, -1.764e-5
-1.169, -1.747e-5
-1.168, -1.817e-5
-1.167, -1.891e-5
-1.166, -1.908e-5
-1.165, -1.874e-5
-1.164, -1.856e-5
-1.163, -1.929e-5
-1.162, -1.991e-5
-1.161, -2.012e-5
-1.160, -1.970e-5
-1.159, -1.957e-5
-1.158, -2.027e-5
-1.157, -2.088e-5
-1.156, -2.100e-5
-1.155, -2.073e-5
-1.154, -2.037e-5
-1.153, -2.112e-5
-1.152, -2.173e-5
-1.151, -2.174e-5
-1.150, -2.149e-5
-1.149, -2.122e-5
-1.148, -2.180e-5
-1.147, -2.259e-5
-1.146, -2.271e-5
-1.145, -2.240e-5
-1.144, -2.203e-5
-1.143, -2.260e-5
-1.142, -2.338e-5
-1.141, -2.340e-5
-1.140, -2.300e-5
-1.139, -2.286e-5
-1.138, -2.333e-5
-1.137, -2.413e-5
-1.136, -2.410e-5
-1.135, -2.373e-5
-1.134, -2.357e-5
-1.133, -2.402e-5
-1.132, -2.469e-5
-1.131, -2.490e-5
-1.130, -2.442e-5
-1.129, -2.428e-5
-1.128, -2.473e-5
-1.127, -2.543e-5
-1.126, -2.561e-5
-1.125, -2.516e-5
-1.124, -2.484e-5
-1.123, -2.545e-5
-1.122, -2.611e-5
-1.121, -2.629e-5
-1.120, -2.589e-5
-1.119, -2.561e-5
-1.118, -2.617e-5
-1.117, -2.686e-5
-1.116, -2.693e-5
-1.115, -2.666e-5
-1.114, -2.632e-5
-1.113, -2.689e-5
-1.112, -2.762e-5
-1.111, -2.771e-5
-1.110, -2.747e-5
-1.109, -2.714e-5
-1.108, -2.774e-5
-1.107, -2.853e-5
-1.106, -2.864e-5
-1.105, -2.837e-5
-1.104, -2.807e-5
-1.103, -2.874e-5
-1.102, -2.946e-5
-1.101, -2.954e-5
-1.100, -2.921e-5
-1.099, -2.907e-5
-1.098, -2.960e-5
-1.097, -3.049e-5
-1.096, -3.056e-5
-1.095, -3.022e-5
-1.094, -3.017e-5
-1.093, -3.073e-5
-1.092, -3.149e-5
-1.091, -3.176e-5
-1.090, -3.135e-5
-1.089, -3.123e-5
-1.088, -3.177e-5
-1.087, -3.265e-5
-1.086, -3.293e-5
-1.085, -3.257e-5
-1.084, -3.245e-5
-1.083, -3.320e-5
-1.082, -3.397e-5
-1.081, -3.423e-5
-1.080, -3.390e-5
-1.079, -3.379e-5
-1.078, -3.454e-5
-1.077, -3.531e-5
-1.076, -3.564e-5
-1.075, -3.540e-5
-1.074, -3.524e-5
-1.073, -3.603e-5
-1.072, -3.677e-5
-1.071, -3.707e-5
-1.070, -3.691e-5
-1.069, -3.668e-5
-1.068, -3.746e-5
-1.067, -3.850e-5
-1.066, -3.863e-5
-1.065, -3.848e-5
-1.064, -3.832e-5
-1.063, -3.902e-5
-1.062, -4.007e-5
-1.061, -4.023e-5
-1.060, -4.006e-5
-1.059, -4.002e-5
-1.058, -4.075e-5
-1.057, -4.175e-5
-1.056, -4.198e-5
-1.055, -4.174e-5
-1.054, -4.183e-5
-1.053, -4.255e-5
-1.052, -4.351e-5
-1.051, -4.388e-5
-1.050, -4.367e-5
-1.049, -4.369e-5
-1.048, -4.439e-5
-1.047, -4.533e-5
-1.046, -4.590e-5
-1.045, -4.561e-5
-1.044, -4.559e-5
-1.043, -4.648e-5
-1.042, -4.740e-5
-1.041, -4.785e-5
-1.040, -4.763e-5
-1.039, -4.766e-5
-1.038, -4.862e-5
-1.037, -4.957e-5
-1.036, -4.992e-5
-1.035, -4.987e-5
-1.034, -4.981e-5
-1.033, -5.070e-5
-1.032, -5.176e-5
-1.031, -5.216e-5
-1.030, -5.212e-5
-1.029, -5.210e-5
-1.028, -5.303e-5
-1.027, -5.417e-5
-1.026, -5.446e-5
-1.025, -5.448e-5
-1.024, -5.462e-5
-1.023, -5.546e-5
-1.022, -5.663e-5
-1.021, -5.702e-5
-1.020, -5.697e-5
-1.019, -5.706e-5
-1.018, -5.795e-5
-1.017, -5.914e-5
-1.016, -5.959e-5
-1.015, -5.949e-5
-1.014, -5.975e-5
-1.013, -6.061e-5
-1.012, -6.172e-5
-1.011, -6.239e-5
-1.010, -6.225e-5
-1.009, -6.246e-5
-1.008, -6.344e-5
-1.007, -6.459e-5
-1.006, -6.516e-5
-1.005, -6.513e-5
-1.004, -6.531e-5
-1.003, -6.639e-5
-1.002, -6.761e-5
-1.001, -6.810e-5
-1.000, -5.050e-5
-1.001, -3.976e-5
-1.002, -3.470e-5
-1.003, -3.117e-5
-1.004, -2.747e-5
-1.005, -2.379e-5
-1.006, -2.062e-5
-1.007, -1.851e-5
-1.008, -1.684e-5
-1.009, -1.482e-5
-1.010, -1.218e-5
-1.011, -1.018e-5
-1.012, -8.941e-6
-1.013, -8.007e-6
-1.014, -6.540e-6
-1.015, -4.519e-6
-1.016, -2.985e-6
-1.017, -2.225e-6
-1.018, -1.637e-6
-1.019, -5.359e-7
-1.020, 1.099e-6
-1.021, 2.414e-6
-1.022, 2.913e-6
-1.023, 3.274e-6
-1.024, 4.146e-6
-1.025, 5.461e-6
-1.026, 6.639e-6
-1.027, 6.904e-6
-1.028, 7.065e-6
-1.029, 7.894e-6
-1.030, 9.030e-6
-1.031, 1.011e-5
-1.032, 1.014e-5
-1.033, 1.021e-5
-1.034, 1.087e-5
-1.035, 1.195e-5
-1.036, 1.294e-5
-1.037, 1.288e-5
-1.038, 1.284e-5
-1.039, 1.349e-5
-1.040, 1.443e-5
-1.041, 1.527e-5
-1.042, 1.531e-5
-1.043, 1.507e-5
-1.044, 1.569e-5
-1.045, 1.665e-5
-1.046, 1.736e-5
-1.047, 1.740e-5
-1.048, 1.718e-5
-1.049, 1.764e-5
-1.050, 1.859e-5
-1.051, 1.923e-5
-1.052, 1.911e-5
-1.053, 1.896e-5
-1.054, 1.935e-5
-1.055, 2.033e-5
-1.056, 2.091e-5
-1.057, 2.082e-5
-1.058, 2.067e-5
-1.059, 2.094e-5
-1.060, 2.184e-5
-1.061, 2.249e-5
-1.062, 2.220e-5
-1.063, 2.207e-5
-1.064, 2.230e-5
-1.065, 2.319e-5
-1.066, 2.382e-5
-1.067, 2.359e-5
-1.068, 2.333e-5
-1.069, 2.364e-5
-1.070, 2.446e-5
-1.071, 2.508e-5
-1.072, 2.472e-5
-1.073, 2.446e-5
-1.074, 2.487e-5
-1.075, 2.561e-5
-1.076, 2.618e-5
-1.077, 2.579e-5
-1.078, 2.549e-5
-1.079, 2.587e-5
-1.080, 2.648e-5
-1.081, 2.697e-5
-1.082, 2.676e-5
-1.083, 2.629e-5
-1.084, 2.672e-5
-1.085, 2.735e-5
-1.086, 2.781e-5
-1.087, 2.756e-5
-1.088, 2.705e-5
-1.089, 2.731e-5
-1.090, 2.806e-5
-1.091, 2.844e-5
-1.092, 2.809e-5
-1.093, 2.770e-5
-1.094, 2.787e-5
-1.095, 2.858e-5
-1.096, 2.891e-5
-1.097, 2.856e-5
-1.098, 2.816e-5
-1.099, 2.829e-5
-1.100, 2.895e-5
-1.101, 2.929e-5
-1.102, 2.887e-5
-1.103, 2.845e-5
-1.104, 2.857e-5
-1.105, 2.917e-5
-1.106, 2.947e-5
-1.107, 2.901e-5
-1.108, 2.859e-5
-1.109, 2.869e-5
-1.110, 2.919e-5
-1.111, 2.960e-5
-1.112, 2.896e-5
-1.113, 2.848e-5
-1.114, 2.875e-5
-1.115, 2.911e-5
-1.116, 2.947e-5
-1.117, 2.897e-5
-1.118, 2.845e-5
-1.119, 2.860e-5
-1.120, 2.896e-5
-1.121, 2.932e-5
-1.122, 2.878e-5
-1.123, 2.815e-5
-1.124, 2.831e-5
-1.125, 2.875e-5
-1.126, 2.898e-5
-1.127, 2.854e-5
-1.128, 2.793e-5
-1.129, 2.801e-5
-1.130, 2.851e-5
-1.131, 2.862e-5
-1.132, 2.812e-5
-1.133, 2.760e-5
-1.134, 2.763e-5
-1.135, 2.820e-5
-1.136, 2.835e-5
-1.137, 2.777e-5
-1.138, 2.733e-5
-1.139, 2.733e-5
-1.140, 2.781e-5
-1.141, 2.806e-5
-1.142, 2.741e-5
-1.143, 2.702e-5
-1.144, 2.705e-5
-1.145, 2.749e-5
-1.146, 2.782e-5
-1.147, 2.720e-5
-1.148, 2.667e-5
-1.149, 2.686e-5
-1.150, 2.729e-5
-1.151, 2.769e-5
-1.152, 2.696e-5
-1.153, 2.648e-5
-1.154, 2.670e-5
-1.155, 2.720e-5
-1.156, 2.746e-5
-1.157, 2.694e-5
-1.158, 2.641e-5
-1.159, 2.675e-5
-1.160, 2.711e-5
-1.161, 2.738e-5
-1.162, 2.695e-5
-1.163, 2.648e-5
-1.164, 2.665e-5
-1.165, 2.720e-5
-1.166, 2.748e-5
-1.167, 2.707e-5
-1.168, 2.654e-5
-1.169, 2.672e-5
-1.170, 2.738e-5
-1.171, 2.766e-5
-1.172, 2.709e-5
-1.173, 2.672e-5
-1.174, 2.696e-5
-1.175, 2.761e-5
-1.176, 2.777e-5
-1.177, 2.742e-5
-1.178, 2.701e-5
-1.179, 2.724e-5
-1.180, 2.781e-5
-1.181, 2.816e-5
-1.182, 2.761e-5
-1.183, 2.734e-5
-1.184, 2.755e-5
-1.185, 2.824e-5
-1.186, 2.857e-5
-1.187, 2.796e-5
-1.188, 2.772e-5
-1.189, 2.798e-5
-1.190, 2.860e-5
-1.191, 2.908e-5
-1.192, 2.857e-5
-1.193, 2.822e-5
-1.194, 2.865e-5
-1.195, 2.923e-5
-1.196, 2.956e-5
-1.197, 2.919e-5
-1.198, 2.900e-5
-1.199, 2.937e-5
-1.200, 3.002e-5
-1.201, 3.044e-5
-1.202, 3.014e-5
-1.203, 2.987e-5
-1.204, 3.027e-5
-1.205, 3.106e-5
-1.206, 3.148e-5
-1.207, 3.125e-5
-1.208, 3.093e-5
-1.209, 3.148e-5
-1.210, 3.234e-5
-1.211, 3.279e-5
-1.212, 3.250e-5
-1.213, 3.254e-5
-1.214, 3.301e-5
-1.215, 3.392e-5
-1.216, 3.441e-5
-1.217, 3.425e-5
-1.218, 3.429e-5
-1.219, 3.486e-5
-1.220, 3.591e-5
-1.221, 3.657e-5
-1.222, 3.638e-5
-1.223, 3.658e-5
-1.224, 3.720e-5
-1.225, 3.836e-5
-1.226, 3.910e-5
-1.227, 3.908e-5
-1.228, 3.947e-5
-1.229, 4.031e-5
-1.230, 4.136e-5
-1.231, 4.226e-5
-1.232, 4.238e-5
-1.233, 4.275e-5
-1.234, 4.378e-5
-1.235, 4.502e-5
-1.236, 4.605e-5
-1.237, 4.636e-5
-1.238, 4.684e-5
-1.239, 4.808e-5
-1.240, 4.944e-5
-1.241, 5.061e-5
-1.242, 5.117e-5
-1.243, 5.183e-5
-1.244, 5.320e-5
-1.245, 5.495e-5
-1.246, 5.628e-5
-1.247, 5.706e-5
-1.248, 5.793e-5
-1.249, 5.950e-5
-1.250, 6.149e-5
-1.251, 6.309e-5
-1.252, 6.415e-5
-1.253, 6.539e-5
-1.254, 6.728e-5
-1.255, 6.957e-5
-1.256, 7.148e-5
-1.257, 7.277e-5
-1.258, 7.446e-5
-1.259, 7.660e-5
-1.260, 7.929e-5
-1.261, 8.167e-5
-1.262, 8.335e-5
-1.263, 8.542e-5
-1.264, 8.806e-5
-1.265, 9.116e-5
-1.266, 9.405e-5
-1.267, 9.623e-5
-1.268, 9.875e-5
-1.269, 1.020e-4
-1.270, 1.057e-4
-1.271, 1.091e-4
-1.272, 1.119e-4
-1.273, 1.150e-4
-1.274, 1.190e-4
-1.275, 1.233e-4
-1.276, 1.273e-4
-1.277, 1.310e-4
-1.278, 1.347e-4
-1.279, 1.395e-4
-1.280, 1.449e-4
-1.281, 1.498e-4
-1.282, 1.543e-4
-1.283, 1.591e-4
-1.284, 1.648e-4
-1.285, 1.710e-4
-1.286, 1.771e-4
-1.287, 1.828e-4
-1.288, 1.887e-4
-1.289, 1.955e-4
-1.290, 2.030e-4
-1.291, 2.101e-4
-1.292, 2.172e-4
-1.293, 2.245e-4
-1.294, 2.326e-4
-1.295, 2.417e-4
-1.296, 2.503e-4
-1.297, 2.587e-4
-1.298, 2.677e-4
-1.299, 2.774e-4
-1.300, 2.880e-4
-1.301, 2.984e-4
-1.302, 3.088e-4
-1.303, 3.195e-4
-1.304, 3.312e-4
-1.305, 3.437e-4
-1.306, 3.563e-4
-1.307, 3.685e-4
-1.308, 3.815e-4
-1.309, 3.954e-4
-1.310, 4.102e-4
-1.311, 4.252e-4
-1.312, 4.398e-4
-1.313, 4.550e-4
-1.314, 4.717e-4
-1.315, 4.893e-4
-1.316, 5.066e-4
-1.317, 5.239e-4
-1.318, 5.418e-4
-1.319, 5.611e-4
-1.320, 5.810e-4
-1.321, 6.015e-4
-1.322, 6.218e-4
-1.323, 6.428e-4
-1.324, 6.651e-4
-1.325, 6.882e-4
-1.326, 7.123e-4
-1.327, 7.359e-4
-1.328, 7.597e-4
-1.329, 7.851e-4
-1.330, 8.117e-4
-1.331, 8.388e-4
-1.332, 8.662e-4
-1.333, 8.937e-4
-1.334, 9.227e-4
-1.335, 9.528e-4
-1.336, 9.833e-4
-1.337, 1.014e-3
-1.338, 1.045e-3
-1.339, 1.078e-3
-1.340, 1.112e-3
-1.341, 1.146e-3
-1.342, 1.180e-3
-1.343, 1.215e-3
-1.344, 1.252e-3
-1.345, 1.290e-3
-1.346, 1.328e-3
-1.347, 1.367e-3
-1.348, 1.406e-3
-1.349, 1.445e-3
-1.350, 1.487e-3
-1.351, 1.529e-3
-1.352, 1.570e-3
-1.353, 1.612e-3
-1.354, 1.655e-3
-1.355, 1.700e-3
-1.356, 1.746e-3
-1.357, 1.792e-3
-1.358, 1.837e-3
-1.359, 1.885e-3
-1.360, 1.933e-3
-1.361, 1.982e-3
-1.362, 2.030e-3
-1.363, 2.078e-3
-1.364, 2.130e-3
-1.365, 2.182e-3
-1.366, 2.236e-3
-1.367, 2.288e-3
-1.368, 2.342e-3
-1.369, 2.395e-3
-1.370, 2.451e-3
-1.371, 2.506e-3
-1.372, 2.566e-3
-1.373, 2.622e-3
-1.374, 2.680e-3
-1.375, 2.737e-3
-1.376, 2.797e-3
-1.377, 2.858e-3
-1.378, 2.917e-3
-1.379, 2.976e-3
-1.380, 3.038e-3
-1.381, 3.103e-3
-1.382, 3.164e-3
-1.383, 3.229e-3
-1.384, 3.292e-3
-1.385, 3.357e-3
-1.386, 3.422e-3
-1.387, 3.486e-3
-1.388, 3.551e-3
-1.389, 3.615e-3
-1.390, 3.686e-3
-1.391, 3.762e-3
-1.392, 3.833e-3
-1.393, 3.902e-3
-1.394, 3.967e-3
-1.395, 4.034e-3
-1.396, 4.099e-3
-1.397, 4.167e-3
-1.398, 4.236e-3
-1.399, 4.307e-3
-1.400, 4.386e-3
-1.401, 4.462e-3
-1.402, 4.532e-3
-1.403, 4.599e-3
-1.404, 4.677e-3
-1.405, 4.750e-3
-1.406, 4.821e-3
-1.407, 4.886e-3
-1.408, 4.955e-3
-1.409, 5.026e-3
-1.410, 5.099e-3
-1.411, 5.168e-3
-1.412, 5.242e-3
-1.413, 5.307e-3
-1.414, 5.374e-3
-1.415, 5.453e-3
-1.416, 5.528e-3
-1.417, 5.597e-3
-1.418, 5.670e-3
-1.419, 5.735e-3
-1.420, 5.810e-3
-1.421, 5.883e-3
-1.422, 5.953e-3
-1.423, 6.022e-3
-1.424, 6.097e-3
-1.425, 6.186e-3
-1.426, 6.255e-3
-1.427, 6.329e-3
-1.428, 6.398e-3
-1.429, 6.477e-3
-1.430, 6.546e-3
-1.431, 6.616e-3
-1.432, 6.687e-3
-1.433, 6.762e-3
-1.434, 6.824e-3
-1.435, 6.890e-3
-1.436, 6.975e-3
-1.437, 7.042e-3
-1.438, 7.107e-3
-1.439, 7.164e-3
-1.440, 7.230e-3
-1.441, 7.304e-3
-1.442, 7.382e-3
-1.443, 7.452e-3
-1.444, 7.510e-3
-1.445, 7.599e-3
-1.446, 7.680e-3
-1.447, 7.756e-3
-1.448, 7.820e-3
-1.449, 7.906e-3
-1.450, 7.991e-3
-1.451, 8.076e-3
-1.452, 8.137e-3
-1.453, 8.200e-3
-1.454, 8.266e-3
-1.455, 8.319e-3
-1.456, 8.395e-3
-1.457, 8.469e-3
-1.458, 8.528e-3
-1.459, 8.605e-3
-1.460, 8.667e-3
-1.461, 8.728e-3
-1.462, 8.797e-3
-1.463, 8.857e-3
-1.464, 8.925e-3
-1.465, 9.008e-3
-1.466, 9.082e-3
-1.467, 9.148e-3
-1.468, 9.243e-3
-1.469, 9.263e-3
-1.470, 9.326e-3
-1.471, 9.401e-3
-1.472, 9.445e-3
-1.473, 9.485e-3
-1.474, 9.544e-3
-1.475, 9.593e-3
-1.476, 9.655e-3
-1.477, 9.714e-3
-1.478, 9.776e-3
-1.479, 9.836e-3
-1.480, 9.880e-3
-1.481, 9.969e-3
-1.482, 1.005e-2
-1.483, 1.009e-2
-1.484, 1.011e-2
-1.485, 1.011e-2
-1.486, 1.011e-2
-1.487, 1.011e-2
-1.488, 1.011e-2
-1.489, 1.011e-2
-1.490, 1.011e-2
-1.491, 1.011e-2
-1.492, 1.011e-2
-1.493, 1.011e-2
-1.494, 1.011e-2
-1.495, 1.011e-2
-1.496, 1.011e-2
-1.497, 1.011e-2
-1.498, 1.011e-2
-1.499, 1.011e-2
-1.500, 1.011e-2
-1.499, 1.011e-2
-1.498, 1.011e-2
-1.497, 1.011e-2
-1.496, 1.011e-2
-1.495, 1.011e-2
-1.494, 1.011e-2
-1.493, 1.011e-2
-1.492, 1.011e-2
-1.491, 1.011e-2
-1.490, 1.011e-2
-1.489, 1.007e-2
-1.488, 9.948e-3
-1.487, 9.821e-3
-1.486, 9.712e-3
-1.485, 9.628e-3
-1.484, 9.540e-3
-1.483, 9.462e-3
-1.482, 9.372e-3
-1.481, 9.304e-3
-1.480, 9.210e-3
-1.479, 9.108e-3
-1.478, 8.999e-3
-1.477, 8.894e-3
-1.476, 8.777e-3
-1.475, 8.655e-3
-1.474, 8.563e-3
-1.473, 8.463e-3
-1.472, 8.354e-3
-1.471, 8.272e-3
-1.470, 8.184e-3
-1.469, 8.098e-3
-1.468, 8.017e-3
-1.467, 7.968e-3
-1.466, 7.872e-3
-1.465, 7.790e-3
-1.464, 7.699e-3
-1.463, 7.602e-3
-1.462, 7.527e-3
-1.461, 7.453e-3
-1.460, 7.362e-3
-1.459, 7.289e-3
-1.458, 7.214e-3
-1.457, 7.154e-3
-1.456, 7.064e-3
-1.455, 6.964e-3
-1.454, 6.880e-3
-1.453, 6.807e-3
-1.452, 6.746e-3
-1.451, 6.727e-3
-1.450, 6.648e-3
-1.449, 6.571e-3
-1.448, 6.522e-3
-1.447, 6.479e-3
-1.446, 6.406e-3
-1.445, 6.351e-3
-1.444, 6.265e-3
-1.443, 6.178e-3
-1.442, 6.087e-3
-1.441, 6.000e-3
-1.440, 5.921e-3
-1.439, 5.829e-3
-1.438, 5.757e-3
-1.437, 5.677e-3
-1.436, 5.590e-3
-1.435, 5.510e-3
-1.434, 5.470e-3
-1.433, 5.404e-3
-1.432, 5.321e-3
-1.431, 5.241e-3
-1.430, 5.175e-3
-1.429, 5.111e-3
-1.428, 5.044e-3
-1.427, 4.966e-3
-1.426, 4.899e-3
-1.425, 4.912e-3
-1.424, 4.870e-3
-1.423, 4.823e-3
-1.422, 4.743e-3
-1.421, 4.673e-3
-1.420, 4.605e-3
-1.419, 4.544e-3
-1.418, 4.470e-3
-1.417, 4.399e-3
-1.416, 4.329e-3
-1.415, 4.271e-3
-1.414, 4.215e-3
-1.413, 4.156e-3
-1.412, 4.091e-3
-1.411, 4.023e-3
-1.410, 3.964e-3
-1.409, 3.911e-3
-1.408, 3.851e-3
-1.407, 3.813e-3
-1.406, 3.761e-3
-1.405, 3.706e-3
-1.404, 3.648e-3
-1.403, 3.592e-3
-1.402, 3.537e-3
-1.401, 3.484e-3
-1.400, 3.423e-3
-1.399, 3.367e-3
-1.398, 3.309e-3
-1.397, 3.266e-3
-1.396, 3.217e-3
-1.395, 3.162e-3
-1.394, 3.115e-3
-1.393, 3.063e-3
-1.392, 3.009e-3
-1.391, 2.954e-3
-1.390, 2.901e-3
-1.389, 2.847e-3
-1.388, 2.797e-3
-1.387, 2.742e-3
-1.386, 2.693e-3
-1.385, 2.640e-3
-1.384, 2.588e-3
-1.383, 2.536e-3
-1.382, 2.490e-3
-1.381, 2.444e-3
-1.380, 2.399e-3
-1.379, 2.348e-3
-1.378, 2.294e-3
-1.377, 2.252e-3
-1.376, 2.220e-3
-1.375, 2.176e-3
-1.374, 2.132e-3
-1.373, 2.093e-3
-1.372, 2.052e-3
-1.371, 2.012e-3
-1.370, 1.970e-3
-1.369, 1.928e-3
-1.368, 1.885e-3
-1.367, 1.844e-3
-1.366, 1.809e-3
-1.365, 1.776e-3
-1.364, 1.734e-3
-1.363, 1.698e-3
-1.362, 1.659e-3
-1.361, 1.622e-3
-1.360, 1.586e-3
-1.359, 1.550e-3
-1.358, 1.513e-3
-1.357, 1.478e-3
-1.356, 1.444e-3
-1.355, 1.411e-3
-1.354, 1.378e-3
-1.353, 1.345e-3
-1.352, 1.314e-3
-1.351, 1.282e-3
-1.350, 1.253e-3
-1.349, 1.224e-3
-1.348, 1.194e-3
-1.347, 1.166e-3
-1.346, 1.137e-3
-1.345, 1.109e-3
-1.344, 1.082e-3
-1.343, 1.054e-3
-1.342, 1.028e-3
-1.341, 1.003e-3
-1.340, 9.777e-4
-1.339, 9.516e-4
-1.338, 9.243e-4
-1.337, 8.986e-4
-1.336, 8.745e-4
-1.335, 8.511e-4
-1.334, 8.276e-4
-1.333, 8.045e-4
-1.332, 7.826e-4
-1.331, 7.613e-4
-1.330, 7.405e-4
-1.329, 7.200e-4
-1.328, 6.992e-4
-1.327, 6.797e-4
-1.326, 6.608e-4
-1.325, 6.424e-4
-1.324, 6.239e-4
-1.323, 6.054e-4
-1.322, 5.878e-4
-1.321, 5.716e-4
-1.320, 5.554e-4
-1.319, 5.390e-4
-1.318, 5.227e-4
-1.317, 5.074e-4
-1.316, 4.926e-4
-1.315, 4.778e-4
-1.314, 4.631e-4
-1.313, 4.488e-4
-1.312, 4.354e-4
-1.311, 4.223e-4
-1.310, 4.094e-4
-1.309, 3.965e-4
-1.308, 3.840e-4
-1.307, 3.721e-4
-1.306, 3.610e-4
-1.305, 3.502e-4
-1.304, 3.390e-4
-1.303, 3.278e-4
-1.302, 3.172e-4
-1.301, 3.075e-4
-1.300, 2.978e-4
-1.299, 2.877e-4
-1.298, 2.781e-4
-1.297, 2.695e-4
-1.296, 2.611e-4
-1.295, 2.531e-4
-1.294, 2.445e-4
-1.293, 2.359e-4
-1.292, 2.279e-4
-1.291, 2.205e-4
-1.290, 2.134e-4
-1.289, 2.059e-4
-1.288, 1.984e-4
-1.287, 1.916e-4
-1.286, 1.855e-4
-1.285, 1.796e-4
-1.284, 1.730e-4
-1.283, 1.665e-4
-1.282, 1.606e-4
-1.281, 1.554e-4
-1.280, 1.501e-4
-1.279, 1.445e-4
-1.278, 1.387e-4
-1.277, 1.335e-4
-1.276, 1.290e-4
-1.275, 1.248e-4
-1.274, 1.202e-4
-1.273, 1.153e-4
-1.272, 1.112e-4
-1.271, 1.075e-4
-1.270, 1.036e-4
-1.269, 9.933e-5
-1.268, 9.501e-5
-1.267, 9.132e-5
-1.266, 8.829e-5
-1.265, 8.504e-5
-1.264, 8.139e-5
-1.263, 7.759e-5
-1.262, 7.439e-5
-1.261, 7.190e-5
-1.260, 6.933e-5
-1.259, 6.601e-5
-1.258, 6.275e-5
-1.257, 6.011e-5
-1.256, 5.814e-5
-1.255, 5.604e-5
-1.254, 5.316e-5
-1.253, 5.040e-5
-1.252, 4.803e-5
-1.251, 4.621e-5
-1.250, 4.432e-5
-1.249, 4.182e-5
-1.248, 3.944e-5
-1.247, 3.767e-5
-1.246, 3.632e-5
-1.245, 3.482e-5
-1.244, 3.253e-5
-1.243, 3.016e-5
-1.242, 2.863e-5
-1.241, 2.752e-5
-1.240, 2.636e-5
-1.239, 2.428e-5
-1.238, 2.234e-5
-1.237, 2.109e-5
-1.236, 2.028e-5
-1.235, 1.918e-5
-1.234, 1.752e-5
-1.233, 1.574e-5
-1.232, 1.483e-5
-1.231, 1.428e-5
-1.230, 1.337e-5
-1.229, 1.165e-5
-1.228, 1.023e-5
-1.227, 9.346e-6
-1.226, 8.904e-6
-1.225, 8.182e-6
-1.224, 6.699e-6
-1.223, 5.433e-6
-1.222, 4.620e-6
-1.221, 4.402e-6
-1.220, 3.872e-6
-1.219, 2.581e-6
-1.218, 1.408e-6
-1.217, 7.486e-7
-1.216, 6.944e-7
-1.215, 2.553e-7
-1.214, -1.037e-6
-1.213, -2.068e-6
-1.212, -2.527e-6
-1.211, -2.685e-6
-1.210, -2.936e-6
-1.209, -4.116e-6
-1.208, -4.994e-6
-1.207, -5.406e-6
-1.206, -5.465e-6
-1.205, -5.665e-6
-1.204, -6.641e-6
-1.203, -7.683e-6
-1.202, -7.902e-6
-1.201, -7.890e-6
-1.200, -8.099e-6
-1.199, -8.977e-6
-1.198, -9.813e-6
-1.197, -9.897e-6
-1.196, -9.814e-6
-1.195, -1.012e-5
-1.194, -1.087e-5
-1.193, -1.173e-5
-1.192, -1.186e-5
-1.191, -1.164e-5
-1.190, -1.192e-5
-1.189, -1.264e-5
-1.188, -1.343e-5
-1.187, -1.363e-5
-1.186, -1.328e-5
-1.185, -1.346e-5
-1.184, -1.417e-5
-1.183, -1.487e-5
-1.182, -1.486e-5
-1.181, -1.444e-5
-1.180, -1.456e-5
-1.179, -1.531e-5
-1.178, -1.608e-5
-1.177, -1.621e-5
-1.176, -1.574e-5
-1.175, -1.569e-5
-1.174, -1.652e-5
-1.173, -1.707e-5
-1.172, -1.712e-5
-1.171, -1.677e-5
-1.170, -1.681e-5
-1.169, -1.758e-5
-1.168, -1.811e-5
-1.167, -1.807e-5
-1.166, -1.769e-5
-1.165, -1.778e-5
-1.164, -1.836e-5
-1.163, -1.893e-5
-1.162, -1.891e-5
-1.161, -1.871e-5
-1.160, -1.872e-5
-1.159, -1.949e-5
-1.158, -2.008e-5
-1.157, -1.984e-5
-1.156, -1.945e-5
-1.155, -1.963e-5
-1.154, -2.019e-5
-1.153, -2.091e-5
-1.152, -2.067e-5
-1.151, -2.028e-5
-1.150, -2.039e-5
-1.149, -2.096e-5
-1.148, -2.148e-5
-1.147, -2.142e-5
-1.146, -2.094e-5
-1.145, -2.112e-5
-1.144, -2.173e-5
-1.143, -2.228e-5
-1.142, -2.214e-5
-1.141, -2.154e-5
-1.140, -2.175e-5
-1.139, -2.248e-5
-1.138, -2.291e-5
-1.137, -2.283e-5
-1.136, -2.230e-5
-1.135, -2.238e-5
-1.134, -2.313e-5
-1.133, -2.358e-5
-1.132, -2.340e-5
-1.131, -2.298e-5
-1.130, -2.315e-5
-1.129, -2.377e-5
-1.128, -2.424e-5
-1.127, -2.384e-5
-1.126, -2.336e-5
-1.125, -2.347e-5
-1.124, -2.427e-5
-1.123, -2.507e-5
-1.122, -2.491e-5
-1.121, -2.447e-5
-1.120, -2.443e-5
-1.119, -2.511e-5
-1.118, -2.573e-5
-1.117, -2.548e-5
-1.116, -2.493e-5
-1.115, -2.516e-5
-1.114, -2.575e-5
-1.113, -2.632e-5
-1.112, -2.618e-5
-1.111, -2.558e-5
-1.110, -2.589e-5
-1.109, -2.648e-5
-1.108, -2.703e-5
-1.107, -2.692e-5
-1.106, -2.651e-5
-1.105, -2.672e-5
-1.104, -2.730e-5
-1.103, -2.787e-5
-1.102, -2.779e-5
-1.101, -2.737e-5
-1.100, -2.756e-5
-1.099, -2.839e-5
-1.098, -2.894e-5
-1.097, -2.879e-5
-1.096, -2.832e-5
-1.095, -2.853e-5
-1.094, -2.933e-5
-1.093, -2.986e-5
-1.092, -2.976e-5
-1.091, -2.951e-5
-1.090, -2.964e-5
-1.089, -3.056e-5
-1.088, -3.107e-5
-1.087, -3.087e-5
-1.086, -3.072e-5
-1.085, -3.075e-5
-1.084, -3.160e-5
-1.083, -3.229e-5
-1.082, -3.209e-5
-1.081, -3.190e-5
-1.080, -3.202e-5
-1.079, -3.289e-5
-1.078, -3.360e-5
-1.077, -3.341e-5
-1.076, -3.320e-5
-1.075, -3.353e-5
-1.074, -3.438e-5
-1.073, -3.508e-5
-1.072, -3.487e-5
-1.071, -3.456e-5
-1.070, -3.497e-5
-1.069, -3.570e-5
-1.068, -3.643e-5
-1.067, -3.639e-5
-1.066, -3.603e-5
-1.065, -3.644e-5
-1.064, -3.726e-5
-1.063, -3.798e-5
-1.062, -3.802e-5
-1.061, -3.759e-5
-1.060, -3.798e-5
-1.059, -3.893e-5
-1.058, -3.952e-5
-1.057, -3.956e-5
-1.056, -3.932e-5
-1.055, -3.976e-5
-1.054, -4.072e-5
-1.053, -4.136e-5
-1.052, -4.131e-5
-1.051, -4.116e-5
-1.050, -4.143e-5
-1.049, -4.248e-5
-1.048, -4.318e-5
-1.047, -4.316e-5
-1.046, -4.302e-5
-1.045, -4.333e-5
-1.044, -4.450e-5
-1.043, -4.520e-5
-1.042, -4.513e-5
-1.041, -4.487e-5
-1.040, -4.518e-5
-1.039, -4.620e-5
-1.038, -4.716e-5
-1.037, -4.706e-5
-1.036, -4.690e-5
-1.035, -4.759e-5
-1.034, -4.847e-5
-1.033, -4.935e-5
-1.032, -4.920e-5
-1.031, -4.914e-5
-1.030, -4.969e-5
-1.029, -5.064e-5
-1.028, -5.152e-5
-1.027, -5.159e-5
-1.026, -5.141e-5
-1.025, -5.205e-5
-1.024, -5.321e-5
-1.023, -5.396e-5
-1.022, -5.405e-5
-1.021, -5.383e-5
-1.020, -5.442e-5
-1.019, -5.567e-5
-1.018, -5.643e-5
-1.017, -5.658e-5
-1.016, -5.642e-5
-1.015, -5.712e-5
-1.014, -5.825e-5
-1.013, -5.906e-5
-1.012, -5.913e-5
-1.011, -5.924e-5
-1.010, -5.984e-5
-1.009, -6.109e-5
-1.008, -6.191e-5
-1.007, -6.197e-5
-1.006, -6.218e-5
-1.005, -6.277e-5
-1.004, -6.396e-5
-1.003, -6.494e-5
-1.002, -6.500e-5
-1.001, -6.525e-5
