Potential V vs RHE, Current mA cm-2
0.013299999999999867,0.7829012333453113
0.012299999999999978,0.17231183632356148
0.011299999999999866,-0.3511313446265021
0.010299999999999976,-0.7437137303390498
0.009299999999999864,-1.0925815368857679
0.008299999999999974,-1.3980177065266295
0.007299999999999862,-1.7033124050375041
0.006299999999999972,-2.052746096104168
0.00529999999999986,-2.2706116362833835
0.0042999999999999705,-2.4884771764625997
0.0032999999999998586,-2.706342716641815
0.0022999999999999687,-2.968064307116847
0.0012999999999998568,-3.2297858975918787
0.00029999999999996696,-3.403795387475278
-0.000700000000000145,-3.623075638954359
-0.0017000000000000348,-3.7532290785419424
-0.0027000000000001467,-3.927238568425342
-0.0037000000000000366,-4.146518819904423
-0.0047000000000001485,-4.3205283097878215
-0.005700000000000038,-4.450681749375406
-0.00670000000000015,-4.582249900262854
-0.00770000000000004,-4.800115440442069
-0.008700000000000152,-4.974124930325469
-0.009700000000000042,-5.149549131508733
-0.010700000000000154,-5.235846520800501
-0.011700000000000044,-5.323558621392133
-0.012700000000000156,-5.497568111275533
-0.013700000000000045,-5.629136262162981
-0.014700000000000157,-5.80314575204638
-0.015700000000000047,-5.9347139029338285
-0.01670000000000016,-6.064867342521412
-0.01770000000000005,-6.238876832404812
-0.01870000000000016,-6.458157083883892
-0.01970000000000005,-6.588310523471475
-0.020700000000000163,-6.6760226240631075
-0.021700000000000053,-6.762320013354876
-0.022700000000000164,-6.93774421453814
-0.023700000000000054,-7.111753704421539
-0.024700000000000166,-7.28576319430494
-0.025700000000000056,-7.37347529489657
-0.026700000000000168,-7.461187395488204
-0.027700000000000058,-7.591340835075788
-0.02870000000000017,-7.722908985963235
-0.02970000000000006,-7.896918475846635
-0.03070000000000017,-8.027071915434218
-0.03170000000000006,-8.158640066321666
-0.03270000000000017,-8.376505606500881
-0.03370000000000006,-8.55051509638428
-0.034700000000000175,-8.68208324727173
-0.035700000000000065,-8.769795347863363
-0.03670000000000018,-8.812236686859313
-0.03770000000000007,-8.987660888042578
-0.03870000000000018,-9.205526428221793
-0.03970000000000007,-9.379535918105192
-0.04070000000000018,-9.55496011928846
-0.04170000000000007,-9.685113558876042
-0.04270000000000018,-9.81668170976349
-0.04370000000000007,-9.946835149351072
-0.044700000000000184,-10.078403300238522
-0.045700000000000074,-10.120844639234473
-0.046700000000000186,-10.208556739826104
-0.047700000000000076,-10.340124890713554
-0.04870000000000019,-10.557990430892769
-0.04970000000000008,-10.775855971071984
-0.05070000000000019,-10.906009410659568
-0.05170000000000008,-11.037577561547016
-0.05270000000000019,-11.123874950838783
-0.05370000000000008,-11.255443101726232
-0.05470000000000019,-11.343155202317865
-0.05570000000000008,-11.385596541313816
-0.056700000000000195,-11.517164692201263
-0.057700000000000085,-11.73503023238048
-0.058700000000000196,-11.996751822855511
-0.059700000000000086,-12.12831997374296
-0.0607000000000002,-12.214617363034726
-0.06170000000000009,-12.214617363034726
-0.0627000000000002,-12.302329463626359
-0.06370000000000009,-12.390041564217992
-0.0647000000000002,-12.432482903213943
-0.06570000000000009,-12.476338953509758
-0.0667000000000002,-12.607907104397206
-0.0677000000000001,-12.781916594280606
-0.0687000000000002,-12.955926084164007
-0.0697000000000001,-13.087494235051453
-0.07070000000000021,-13.175206335643086
-0.0717000000000001,-13.217647674639037
-0.07270000000000021,-13.30535977523067
-0.0737000000000001,-13.436927926118118
-0.07470000000000021,-13.523225315409885
-0.0757000000000001,-13.610937416001518
-0.07670000000000021,-13.610937416001518
-0.0777000000000001,-13.698649516593148
-0.07870000000000021,-13.828802956180734
-0.0797000000000001,-13.872659006476551
-0.08070000000000022,-13.916515056772363
-0.0817000000000001,-13.960371107068182
-0.08270000000000022,-14.046668496359947
-0.08370000000000011,-14.13438059695158
-0.08470000000000022,-14.175407224647667
-0.08570000000000011,-14.175407224647667
-0.08670000000000022,-14.217848563643619
-0.08770000000000011,-14.26028990263957
-0.08870000000000022,-14.30273124163552
-0.08970000000000011,-14.345172580631472
-0.09070000000000022,-14.345172580631472
-0.09170000000000011,-14.345172580631472
-0.09270000000000023,-14.401761032626075
-0.09370000000000012,-14.401761032626075
-0.09470000000000023,-14.401761032626075
-0.09570000000000012,-14.345172580631472
-0.09670000000000023,-14.30273124163552
-0.09770000000000012,-14.345172580631472
-0.09870000000000023,-14.444202371622024
-0.09970000000000012,-14.444202371622024
-0.10070000000000023,-14.444202371622024
-0.10170000000000012,-14.401761032626075
-0.10270000000000024,-14.401761032626075
-0.10370000000000013,-14.401761032626075
-0.10470000000000024,-14.345172580631472
-0.10570000000000013,-14.26028990263957
-0.10670000000000024,-14.175407224647667
-0.10770000000000013,-14.090524546655764
-0.10870000000000024,-14.046668496359947
-0.10970000000000013,-14.002812446064135
-0.11070000000000024,-13.916515056772363
-0.11170000000000013,-13.828802956180734
-0.11270000000000002,-13.828802956180734
-0.11370000000000013,-13.872659006476551
-0.11470000000000002,-13.828802956180734
-0.11570000000000014,-13.698649516593148
-0.11670000000000003,-13.47936926511407
-0.11770000000000014,-13.3930718758223
-0.11870000000000003,-13.349215825526485
-0.11970000000000014,-13.261503724934855
-0.12070000000000003,-13.13135028534727
-0.12170000000000014,-12.99978213445982
-0.12270000000000003,-12.99978213445982
-0.12370000000000014,-12.913484745168056
-0.12470000000000003,-12.825772644576423
-0.12570000000000014,-12.694204493688973
-0.12670000000000003,-12.520195003805576
-0.12770000000000015,-12.390041564217992
-0.12870000000000004,-12.346185513922174
-0.12970000000000015,-12.258473413330542
-0.13070000000000004,-12.084463923447142
-0.13170000000000015,-11.909039722263879
-0.13270000000000004,-11.82274233297211
-0.13370000000000015,-11.73503023238048
-0.13470000000000004,-11.517164692201263
-0.13570000000000015,-11.255443101726232
-0.13670000000000004,-11.123874950838783
-0.13770000000000016,-11.037577561547016
-0.13870000000000005,-11.037577561547016
-0.13970000000000016,-10.863568071663616
-0.14070000000000005,-10.688143870480351
-0.14170000000000016,-10.470278330301136
-0.14270000000000005,-10.340124890713554
-0.14370000000000016,-10.25241279012192
-0.14470000000000005,-10.120844639234473
-0.14570000000000016,-9.99069119964689
-0.14670000000000005,-9.772825659467674
-0.14770000000000016,-9.641257508580225
-0.14870000000000005,-9.511104068992642
-0.14970000000000017,-9.379535918105192
-0.15070000000000006,-9.205526428221793
-0.15170000000000017,-9.073958277334345
-0.15270000000000006,-9.031516938338395
-0.15370000000000017,-8.987660888042578
-0.15470000000000006,-8.812236686859313
-0.15570000000000017,-8.638227196975913
-0.15670000000000006,-8.4203616567967
-0.15770000000000017,-8.288793505909249
-0.15870000000000006,-8.202496116617484
-0.15970000000000018,-8.070927965730034
-0.16070000000000007,-7.940774526142452
-0.16170000000000018,-7.809206375255003
-0.16270000000000007,-7.722908985963235
-0.16370000000000018,-7.635196885371603
-0.16470000000000007,-7.50504344578402
-0.16570000000000018,-7.329619244600755
-0.16670000000000007,-7.155609754717355
-0.16770000000000018,-7.067897654125724
-0.16870000000000007,-7.024041603829907
-0.16970000000000018,-6.93774421453814
-0.17070000000000007,-6.762320013354876
-0.17170000000000019,-6.632166573767292
-0.17270000000000008,-6.500598422879844
-0.1737000000000002,-6.414301033588076
-0.17470000000000008,-6.37044498329226
-0.1757000000000002,-6.196435493408861
-0.17670000000000008,-6.108723392817228
-0.1777000000000002,-6.064867342521412
-0.17870000000000008,-6.021011292225596
-0.1797000000000002,-5.9347139029338285
-0.18070000000000008,-5.80314575204638
-0.1817000000000002,-5.672992312458796
-0.18270000000000008,-5.629136262162981
-0.1837000000000002,-5.5414241615713475
-0.1847000000000001,-5.497568111275533
-0.1857000000000002,-5.411270721983764
-0.1867000000000001,-5.323558621392133
-0.1877000000000002,-5.323558621392133
-0.1887000000000001,-5.367414671687949
-0.1897000000000002,-5.279702571096316
-0.1907000000000001,-5.149549131508733
-0.1917000000000001,-5.017980980621284
-0.19269999999999998,-4.974124930325469
-0.1937000000000001,-4.9302688800296535
-0.19469999999999998,-4.887827541033701
-0.1957000000000001,-4.843971490737885
-0.19669999999999999,-4.800115440442069
-0.1977000000000001,-4.800115440442069
-0.1987,-4.800115440442069
-0.1997000000000001,-4.756259390146253
-0.2007,-4.668547289554621
-0.2017000000000001,-4.582249900262854
-0.2027,-4.538393849967037
-0.2037000000000001,-4.582249900262854
-0.2047,-4.582249900262854
-0.2057000000000001,-4.494537799671222
-0.2067,-4.406825699079589
-0.2077000000000001,-4.364384360083638
-0.2087,-4.364384360083638
-0.2097000000000001,-4.3205283097878215
-0.2107,-4.276672259492005
-0.2117000000000001,-4.23281620919619
-0.2127,-4.23281620919619
-0.2137000000000001,-4.276672259492005
-0.2147,-4.23281620919619
-0.2157000000000001,-4.1889601589003735
-0.2167,-4.0588067193127895
-0.21770000000000012,-4.102662769608606
-0.2187,-4.102662769608606
-0.21970000000000012,-4.102662769608606
-0.2207,-4.0588067193127895
-0.22170000000000012,-3.971094618721158
-0.2227,-3.971094618721158
-0.22370000000000012,-3.971094618721158
-0.2247,-3.971094618721158
-0.22570000000000012,-3.884797229429391
-0.2267,-3.840941179133574
-0.22770000000000012,-3.840941179133574
-0.22870000000000001,-3.884797229429391
-0.22970000000000013,-3.884797229429391
-0.23070000000000002,-3.7970851288377587
-0.23170000000000013,-3.7093730282461257
-0.23270000000000002,-3.7093730282461257
-0.23370000000000013,-3.7532290785419424
-0.23470000000000002,-3.7532290785419424
-0.23570000000000013,-3.7093730282461257
-0.23670000000000002,-3.6655169779503103
-0.2376999999999999,-3.7093730282461257
-0.23870000000000002,-3.7093730282461257
-0.2396999999999999,-3.6655169779503103
-0.24070000000000003,-3.623075638954359
-0.24169999999999991,-3.579219588658543
-0.24270000000000003,-3.579219588658543
-0.24369999999999992,-3.623075638954359
-0.24470000000000003,-3.623075638954359
-0.24569999999999992,-3.579219588658543
-0.24670000000000003,-3.5353635383627267
-0.24769999999999992,-3.5353635383627267
-0.24870000000000003,-3.579219588658543
-0.24969999999999992,-3.579219588658543
-0.25070000000000003,-3.4915074880669104
-0.2516999999999999,-3.4915074880669104
-0.25270000000000004,-3.4915074880669104
-0.2536999999999999,-3.5353635383627267
-0.25470000000000004,-3.5353635383627267
-0.2556999999999999,-3.4915074880669104
-0.25670000000000004,-3.447651437771094
-0.25769999999999993,-3.447651437771094
-0.25870000000000004,-3.4915074880669104
-0.25969999999999993,-3.4915074880669104
-0.26070000000000004,-3.447651437771094
-0.26169999999999993,-3.403795387475278
-0.26270000000000004,-3.447651437771094
-0.26369999999999993,-3.447651437771094
-0.26470000000000005,-3.447651437771094
-0.26569999999999994,-3.361354048479327
-0.26670000000000005,-3.361354048479327
-0.26769999999999994,-3.361354048479327
-0.26870000000000005,-3.403795387475278
-0.26969999999999994,-3.403795387475278
-0.27070000000000005,-3.361354048479327
-0.27169999999999994,-3.361354048479327
-0.27270000000000005,-3.361354048479327
-0.27369999999999994,-3.403795387475278
-0.27470000000000006,-3.361354048479327
-0.27569999999999995,-3.361354048479327
-0.27670000000000006,-3.361354048479327
-0.27769999999999995,-3.361354048479327
-0.27870000000000006,-3.403795387475278
-0.27969999999999995,-3.403795387475278
-0.28070000000000006,-3.361354048479327
-0.28169999999999995,-3.317497998183511
-0.28270000000000006,-3.317497998183511
-0.28369999999999995,-3.361354048479327
-0.28470000000000006,-3.361354048479327
-0.28569999999999995,-3.361354048479327
-0.28670000000000007,-3.361354048479327
-0.28769999999999996,-3.403795387475278
-0.28870000000000007,-3.447651437771094
-0.28969999999999996,-3.403795387475278
-0.29070000000000007,-3.361354048479327
-0.29169999999999996,-3.317497998183511
-0.29270000000000007,-3.361354048479327
-0.29369999999999996,-3.403795387475278
-0.2947000000000001,-3.403795387475278
-0.29569999999999996,-3.403795387475278
-0.2967000000000001,-3.403795387475278
-0.29769999999999996,-3.403795387475278
-0.2987000000000001,-3.403795387475278
-0.29969999999999997,-3.447651437771094
-0.3007000000000001,-3.447651437771094
-0.30169999999999997,-3.403795387475278
-0.3027000000000001,-3.447651437771094
-0.30369999999999997,-3.4915074880669104
-0.3047000000000001,-3.4915074880669104
-0.30569999999999997,-3.4915074880669104
-0.3067000000000001,-3.447651437771094
-0.3077,-3.4915074880669104
-0.3087000000000001,-3.5353635383627267
-0.3097,-3.579219588658543
-0.3107000000000001,-3.579219588658543
-0.3117,-3.5353635383627267
-0.3127000000000001,-3.579219588658543
-0.3137,-3.579219588658543
-0.3147000000000001,-3.579219588658543
-0.3157,-3.5353635383627267
-0.3167000000000001,-3.579219588658543
-0.3177,-3.6655169779503103
-0.3187000000000001,-3.7093730282461257
-0.3197,-3.7093730282461257
-0.3207000000000001,-3.6655169779503103
-0.3217,-3.6655169779503103
-0.3227000000000001,-3.6655169779503103
-0.3237,-3.7532290785419424
-0.3247000000000001,-3.7532290785419424
-0.3257,-3.7532290785419424
-0.3267000000000001,-3.7970851288377587
-0.3277,-3.840941179133574
-0.3287000000000001,-3.927238568425342
-0.3297,-3.927238568425342
-0.3307000000000001,-3.884797229429391
-0.3317,-3.840941179133574
-0.3327000000000001,-3.884797229429391
-0.3337,-3.971094618721158
-0.3347000000000001,-3.971094618721158
-0.3357,-3.971094618721158
-0.3367000000000001,-4.014950669016974
-0.3377,-4.0588067193127895
-0.3387000000000001,-4.146518819904423
-0.3397,-4.1889601589003735
-0.3407000000000001,-4.146518819904423
-0.3417,-4.146518819904423
-0.3427000000000001,-4.146518819904423
-0.3437,-4.23281620919619
-0.3447000000000001,-4.276672259492005
-0.3457,-4.3205283097878215
-0.3467000000000001,-4.276672259492005
-0.3477,-4.364384360083638
-0.3487000000000001,-4.406825699079589
-0.3497,-4.450681749375406
-0.3507000000000001,-4.494537799671222
-0.3517,-4.494537799671222
-0.3527000000000001,-4.582249900262854
-0.3537,-4.626105950558669
-0.3547000000000001,-4.668547289554621
-0.3557,-4.668547289554621
-0.35670000000000013,-4.668547289554621
-0.3577,-4.756259390146253
-0.35870000000000013,-4.843971490737885
-0.3597,-4.887827541033701
-0.36070000000000013,-4.9302688800296535
-0.3617,-4.9302688800296535
-0.3626999999999999,-4.974124930325469
-0.3637,-5.0618370309171015
-0.3646999999999999,-5.105693081212917
-0.3657,-5.105693081212917
-0.3666999999999999,-5.105693081212917
-0.3677,-5.191990470504685
-0.3686999999999999,-5.323558621392133
-0.36970000000000003,-5.411270721983764
-0.3706999999999999,-5.411270721983764
-0.37170000000000003,-5.411270721983764
-0.3726999999999999,-5.497568111275533
-0.37370000000000003,-5.585280211867165
-0.3746999999999999,-5.629136262162981
-0.37570000000000003,-5.629136262162981
-0.3766999999999999,-5.715433651454749
-0.37770000000000004,-5.80314575204638
-0.3786999999999999,-5.9347139029338285
-0.37970000000000004,-5.977155241929781
-0.3806999999999999,-5.977155241929781
-0.38170000000000004,-5.977155241929781
-0.38269999999999993,-6.064867342521412
-0.38370000000000004,-6.152579443113044
-0.38469999999999993,-6.282732882700628
-0.38570000000000004,-6.326588932996443
-0.38669999999999993,-6.37044498329226
-0.38770000000000004,-6.458157083883892
-0.38869999999999993,-6.54445447317566
-0.38970000000000005,-6.632166573767292
-0.39069999999999994,-6.632166573767292
-0.39170000000000005,-6.632166573767292
-0.39269999999999994,-6.762320013354876
-0.39370000000000005,-6.93774421453814
-0.39469999999999994,-7.067897654125724
-0.39570000000000005,-7.155609754717355
-0.39669999999999994,-7.199465805013171
-0.39770000000000005,-7.28576319430494
-0.39869999999999994,-7.37347529489657
-0.39970000000000006,-7.4173313451923875
-0.40069999999999995,-7.461187395488204
-0.40170000000000006,-7.5474847847799715
-0.40269999999999995,-7.722908985963235
-0.40370000000000006,-7.853062425550818
-0.40469999999999995,-7.940774526142452
-0.40570000000000006,-8.027071915434218
-0.40669999999999995,-8.11478401602585
-0.40770000000000006,-8.246352166913299
-0.40869999999999995,-8.376505606500881
-0.40970000000000006,-8.464217707092514
-0.41069999999999995,-8.55051509638428
-0.41170000000000007,-8.638227196975913
-0.41269999999999996,-8.812236686859313
-0.41370000000000007,-8.987660888042578
-0.41469999999999996,-9.11781432763016
-0.41570000000000007,-9.205526428221793
-0.41669999999999996,-9.335679867809377
-0.41770000000000007,-9.467248018696827
-0.41869999999999996,-9.641257508580225
-0.4197000000000001,-9.81668170976349
-0.42069999999999996,-9.99069119964689
-0.4217000000000001,-10.120844639234473
-0.42269999999999996,-10.382566229709504
-0.4237000000000001,-10.601846481188586
-0.42469999999999997,-10.819712021367803
-0.4257000000000001,-10.949865460955383
-0.42669999999999997,-11.1677310011346
-0.4277000000000001,-11.385596541313816
-0.42869999999999997,-11.691174182084664
-0.4297000000000001,-11.996751822855511
-0.43069999999999997,-12.258473413330542
-0.4317000000000001,-12.56405105410139
-0.4327,-12.913484745168056
-0.4337000000000001,-13.30535977523067
-0.4347,-13.698649516593148
-0.4357000000000001,-14.046668496359947
-0.4367,-14.486643710617974
-0.4377000000000001,-14.967645552572087
-0.4387,-15.533530072518102
-0.4397000000000001,-16.141855931460068
-0.4407,-16.835064468393938
-0.4417000000000001,-17.48583166633185
-0.4427,-18.27806999425627
-0.4437000000000001,-19.155191000172596
-0.4447,-20.01816489309027
-0.4457000000000001,-20.85284456001064
-0.4467,-21.772406904922917
-0.4477000000000001,-22.861734605818995
-0.4487,-24.035944984706973
-0.4497000000000001,-25.210155363594954
-0.4507,-26.38436574248293
-0.4517000000000001,-27.65760591236147
-0.4527,-28.91669896924135
-0.4537000000000001,-30.274821817111786
-0.4547,-31.618797551983565
-0.4557000000000001,-32.93447906085806
-0.4567,-34.377484586720385
-0.4577000000000001,-35.848784338580025
-0.4587,-37.376672542434264
-0.4597000000000001,-38.777236729300654
-0.4607,-40.177800916167044
-0.4617000000000001,-41.56421799003478
-0.4627,-43.007223515897124
-0.4637000000000001,-44.4926703807554
-0.4647,-46.02055858460964
-0.4657000000000001,-47.40697565847737
-0.4667,-48.76509850634781
-0.4677000000000001,-50.1656626932142
-0.4687,-51.46719708909004
-0.4697000000000001,-52.74043725896857
-0.4707,-53.9570889768525
-0.4717000000000001,-55.31521182472294
-0.4727,-56.74407023758662
-0.4737000000000001,-58.18707576344896
-0.4747,-59.587639950315335
-0.4757000000000001,-60.84673300719523
-0.4767,-61.97850204708726
-0.4777000000000001,-63.11027108697928
-0.4787,-64.38351125685783
-0.4797000000000001,-65.5577216357458
-0.4807,-66.77437335362974
-0.48170000000000013,-68.0051721845123
-0.4827,-69.30670658038814
-0.48370000000000013,-70.53750541127073
-0.4847,-71.6268331121668
-0.48570000000000013,-72.71616081306288
-0.4867,-73.197162655017
-0.48570000000000013,-72.80104349105478
-0.4847,-72.48980700508447
-0.48370000000000013,-72.19271763211282
-0.4827,-71.83903980714656
-0.48170000000000013,-71.4004793041884
-0.4807,-71.0043601402262
-0.4797000000000001,-70.66482942825859
-0.4787,-70.35359294228827
-0.4777000000000001,-69.91503243933012
-0.4767,-69.39158925838004
-0.4757000000000001,-68.96717586842054
-0.4747,-68.57105670445833
-0.4737000000000001,-67.96273084551636
-0.4727,-67.48172900356225
-0.4717000000000001,-66.9582858226122
-0.4707,-66.56216665864997
-0.4697000000000001,-66.20848883368372
-0.4687,-65.91139946071206
-0.4677000000000001,-65.5577216357458
-0.4667,-65.16160247178358
-0.4657000000000001,-64.77963042082003
-0.4647,-64.19959878787537
-0.4637000000000001,-63.54883158993744
-0.4627,-62.89806439199953
