Dec. 15, 2024   05:45:48
Cyclic Voltammetry
File: c:/users/guazh/data/banditlqround7_x0exp59_r20/2024-12-09-exp665\exp665-2024-12-15t05_36_08-arkoh\exp665_cv_sr_100mvs_efin_-1500mv.bin
Data Source:  Experiment
Instrument Model:  CHI760E
Header: CV ran at 100 mVs
Note: 

Init E (V) = -1
High E (V) = -1
Low E (V) = -1.5
Final E (V) = -1
Init P/N = N
Scan Rate (V/s) = 0.1
Segment = 3
Sample Interval (V) = 0.001
Quiet Time (sec) = 2
Sensitivity (A/V) = 0.01
Comp R (ohm) = 1.3

Results:

Channel 1:
Segment 1:

Segment 2:

Segment 3:

Potential/V, Current/A

-1.000, -4.968e-5
-1.001, -2.004e-5
-1.002, 1.073e-6
-1.003, 2.183e-5
-1.004, 3.505e-5
-1.005, 5.102e-5
-1.006, 6.288e-5
-1.007, 7.332e-5
-1.008, 8.602e-5
-1.009, 9.268e-5
-1.010, 1.044e-4
-1.011, 1.125e-4
-1.012, 1.199e-4
-1.013, 1.296e-4
-1.014, 1.345e-4
-1.015, 1.445e-4
-1.016, 1.499e-4
-1.017, 1.562e-4
-1.018, 1.651e-4
-1.019, 1.691e-4
-1.020, 1.780e-4
-1.021, 1.818e-4
-1.022, 1.882e-4
-1.023, 1.964e-4
-1.024, 1.982e-4
-1.025, 2.069e-4
-1.026, 2.131e-4
-1.027, 2.170e-4
-1.028, 2.240e-4
-1.029, 2.275e-4
-1.030, 2.369e-4
-1.031, 2.408e-4
-1.032, 2.447e-4
-1.033, 2.533e-4
-1.034, 2.568e-4
-1.035, 2.642e-4
-1.036, 2.667e-4
-1.037, 2.722e-4
-1.038, 2.810e-4
-1.039, 2.827e-4
-1.040, 2.908e-4
-1.041, 2.947e-4
-1.042, 2.983e-4
-1.043, 3.056e-4
-1.044, 3.104e-4
-1.045, 3.157e-4
-1.046, 3.200e-4
-1.047, 3.249e-4
-1.048, 3.287e-4
-1.049, 3.330e-4
-1.050, 3.412e-4
-1.051, 3.417e-4
-1.052, 3.494e-4
-1.053, 3.559e-4
-1.054, 3.552e-4
-1.055, 3.649e-4
-1.056, 3.651e-4
-1.057, 3.662e-4
-1.058, 3.742e-4
-1.059, 3.734e-4
-1.060, 3.816e-4
-1.061, 3.803e-4
-1.062, 3.832e-4
-1.063, 3.902e-4
-1.064, 3.882e-4
-1.065, 3.968e-4
-1.066, 3.979e-4
-1.067, 4.011e-4
-1.068, 4.112e-4
-1.069, 4.032e-4
-1.070, 4.092e-4
-1.071, 4.036e-4
-1.072, 4.100e-4
-1.073, 4.196e-4
-1.074, 4.031e-4
-1.075, 4.123e-4
-1.076, 4.192e-4
-1.077, 4.068e-4
-1.078, 4.174e-4
-1.079, 4.183e-4
-1.080, 4.144e-4
-1.081, 4.185e-4
-1.082, 4.164e-4
-1.083, 4.178e-4
-1.084, 4.158e-4
-1.085, 4.159e-4
-1.086, 4.161e-4
-1.087, 4.174e-4
-1.088, 4.159e-4
-1.089, 4.093e-4
-1.090, 4.133e-4
-1.091, 4.088e-4
-1.092, 4.074e-4
-1.093, 4.080e-4
-1.094, 4.032e-4
-1.095, 4.037e-4
-1.096, 4.002e-4
-1.097, 3.978e-4
-1.098, 3.986e-4
-1.099, 3.936e-4
-1.100, 3.935e-4
-1.101, 3.884e-4
-1.102, 3.847e-4
-1.103, 3.845e-4
-1.104, 3.784e-4
-1.105, 3.780e-4
-1.106, 3.715e-4
-1.107, 3.690e-4
-1.108, 3.672e-4
-1.109, 3.610e-4
-1.110, 3.581e-4
-1.111, 3.552e-4
-1.112, 3.517e-4
-1.113, 3.472e-4
-1.114, 3.420e-4
-1.115, 3.401e-4
-1.116, 3.335e-4
-1.117, 3.297e-4
-1.118, 3.258e-4
-1.119, 3.193e-4
-1.120, 3.177e-4
-1.121, 3.116e-4
-1.122, 3.070e-4
-1.123, 3.039e-4
-1.124, 2.963e-4
-1.125, 2.952e-4
-1.126, 2.894e-4
-1.127, 2.836e-4
-1.128, 2.825e-4
-1.129, 2.740e-4
-1.130, 2.731e-4
-1.131, 2.681e-4
-1.132, 2.619e-4
-1.133, 2.608e-4
-1.134, 2.536e-4
-1.135, 2.509e-4
-1.136, 2.462e-4
-1.137, 2.428e-4
-1.138, 2.407e-4
-1.139, 2.337e-4
-1.140, 2.329e-4
-1.141, 2.291e-4
-1.142, 2.219e-4
-1.143, 2.226e-4
-1.144, 2.184e-4
-1.145, 2.126e-4
-1.146, 2.112e-4
-1.147, 2.081e-4
-1.148, 2.059e-4
-1.149, 2.010e-4
-1.150, 2.009e-4
-1.151, 1.951e-4
-1.152, 1.910e-4
-1.153, 1.927e-4
-1.154, 1.880e-4
-1.155, 1.869e-4
-1.156, 1.824e-4
-1.157, 1.810e-4
-1.158, 1.798e-4
-1.159, 1.737e-4
-1.160, 1.740e-4
-1.161, 1.698e-4
-1.162, 1.666e-4
-1.163, 1.672e-4
-1.164, 1.628e-4
-1.165, 1.626e-4
-1.166, 1.595e-4
-1.167, 1.578e-4
-1.168, 1.576e-4
-1.169, 1.539e-4
-1.170, 1.547e-4
-1.171, 1.517e-4
-1.172, 1.492e-4
-1.173, 1.494e-4
-1.174, 1.444e-4
-1.175, 1.435e-4
-1.176, 1.421e-4
-1.177, 1.408e-4
-1.178, 1.408e-4
-1.179, 1.373e-4
-1.180, 1.381e-4
-1.181, 1.353e-4
-1.182, 1.345e-4
-1.183, 1.346e-4
-1.184, 1.305e-4
-1.185, 1.327e-4
-1.186, 1.304e-4
-1.187, 1.282e-4
-1.188, 1.303e-4
-1.189, 1.259e-4
-1.190, 1.263e-4
-1.191, 1.252e-4
-1.192, 1.231e-4
-1.193, 1.253e-4
-1.194, 1.215e-4
-1.195, 1.213e-4
-1.196, 1.202e-4
-1.197, 1.189e-4
-1.198, 1.199e-4
-1.199, 1.169e-4
-1.200, 1.186e-4
-1.201, 1.167e-4
-1.202, 1.158e-4
-1.203, 1.173e-4
-1.204, 1.137e-4
-1.205, 1.153e-4
-1.206, 1.132e-4
-1.207, 1.113e-4
-1.208, 1.149e-4
-1.209, 1.107e-4
-1.210, 1.112e-4
-1.211, 1.119e-4
-1.212, 1.094e-4
-1.213, 1.107e-4
-1.214, 1.079e-4
-1.215, 1.096e-4
-1.216, 1.077e-4
-1.217, 1.068e-4
-1.218, 1.088e-4
-1.219, 1.053e-4
-1.220, 1.076e-4
-1.221, 1.057e-4
-1.222, 1.046e-4
-1.223, 1.065e-4
-1.224, 1.037e-4
-1.225, 1.051e-4
-1.226, 1.035e-4
-1.227, 1.026e-4
-1.228, 1.048e-4
-1.229, 1.029e-4
-1.230, 1.045e-4
-1.231, 1.024e-4
-1.232, 1.021e-4
-1.233, 1.030e-4
-1.234, 9.959e-5
-1.235, 1.016e-4
-1.236, 1.004e-4
-1.237, 9.991e-5
-1.238, 1.018e-4
-1.239, 9.836e-5
-1.240, 1.005e-4
-1.241, 9.985e-5
-1.242, 9.924e-5
-1.243, 1.008e-4
-1.244, 9.818e-5
-1.245, 1.003e-4
-1.246, 9.902e-5
-1.247, 9.835e-5
-1.248, 9.953e-5
-1.249, 9.684e-5
-1.250, 9.921e-5
-1.251, 9.770e-5
-1.252, 9.728e-5
-1.253, 9.929e-5
-1.254, 9.671e-5
-1.255, 9.885e-5
-1.256, 9.776e-5
-1.257, 9.768e-5
-1.258, 9.909e-5
-1.259, 9.610e-5
-1.260, 9.872e-5
-1.261, 9.858e-5
-1.262, 9.782e-5
-1.263, 9.854e-5
-1.264, 9.629e-5
-1.265, 9.946e-5
-1.266, 9.743e-5
-1.267, 9.641e-5
-1.268, 1.012e-4
-1.269, 9.624e-5
-1.270, 9.925e-5
-1.271, 1.004e-4
-1.272, 9.731e-5
-1.273, 9.999e-5
-1.274, 9.922e-5
-1.275, 9.956e-5
-1.276, 9.944e-5
-1.277, 9.966e-5
-1.278, 1.010e-4
-1.279, 9.953e-5
-1.280, 1.022e-4
-1.281, 9.987e-5
-1.282, 1.016e-4
-1.283, 1.028e-4
-1.284, 9.988e-5
-1.285, 1.036e-4
-1.286, 1.016e-4
-1.287, 1.023e-4
-1.288, 1.049e-4
-1.289, 1.020e-4
-1.290, 1.050e-4
-1.291, 1.046e-4
-1.292, 1.044e-4
-1.293, 1.067e-4
-1.294, 1.044e-4
-1.295, 1.076e-4
-1.296, 1.067e-4
-1.297, 1.069e-4
-1.298, 1.090e-4
-1.299, 1.070e-4
-1.300, 1.097e-4
-1.301, 1.090e-4
-1.302, 1.097e-4
-1.303, 1.121e-4
-1.304, 1.100e-4
-1.305, 1.134e-4
-1.306, 1.129e-4
-1.307, 1.129e-4
-1.308, 1.158e-4
-1.309, 1.135e-4
-1.310, 1.167e-4
-1.311, 1.163e-4
-1.312, 1.169e-4
-1.313, 1.197e-4
-1.314, 1.172e-4
-1.315, 1.205e-4
-1.316, 1.207e-4
-1.317, 1.204e-4
-1.318, 1.243e-4
-1.319, 1.220e-4
-1.320, 1.251e-4
-1.321, 1.256e-4
-1.322, 1.260e-4
-1.323, 1.283e-4
-1.324, 1.281e-4
-1.325, 1.300e-4
-1.326, 1.304e-4
-1.327, 1.324e-4
-1.328, 1.335e-4
-1.329, 1.327e-4
-1.330, 1.365e-4
-1.331, 1.361e-4
-1.332, 1.376e-4
-1.333, 1.402e-4
-1.334, 1.394e-4
-1.335, 1.430e-4
-1.336, 1.426e-4
-1.337, 1.453e-4
-1.338, 1.481e-4
-1.339, 1.462e-4
-1.340, 1.513e-4
-1.341, 1.500e-4
-1.342, 1.513e-4
-1.343, 1.551e-4
-1.344, 1.529e-4
-1.345, 1.584e-4
-1.346, 1.589e-4
-1.347, 1.593e-4
-1.348, 1.632e-4
-1.349, 1.627e-4
-1.350, 1.672e-4
-1.351, 1.673e-4
-1.352, 1.693e-4
-1.353, 1.722e-4
-1.354, 1.716e-4
-1.355, 1.760e-4
-1.356, 1.772e-4
-1.357, 1.782e-4
-1.358, 1.823e-4
-1.359, 1.825e-4
-1.360, 1.859e-4
-1.361, 1.873e-4
-1.362, 1.897e-4
-1.363, 1.933e-4
-1.364, 1.933e-4
-1.365, 1.983e-4
-1.366, 1.983e-4
-1.367, 2.012e-4
-1.368, 2.043e-4
-1.369, 2.060e-4
-1.370, 2.108e-4
-1.371, 2.101e-4
-1.372, 2.146e-4
-1.373, 2.186e-4
-1.374, 2.184e-4
-1.375, 2.247e-4
-1.376, 2.253e-4
-1.377, 2.295e-4
-1.378, 2.351e-4
-1.379, 2.341e-4
-1.380, 2.407e-4
-1.381, 2.423e-4
-1.382, 2.454e-4
-1.383, 2.510e-4
-1.384, 2.512e-4
-1.385, 2.582e-4
-1.386, 2.607e-4
-1.387, 2.645e-4
-1.388, 2.717e-4
-1.389, 2.730e-4
-1.390, 2.805e-4
-1.391, 2.825e-4
-1.392, 2.891e-4
-1.393, 2.972e-4
-1.394, 2.993e-4
-1.395, 3.089e-4
-1.396, 3.150e-4
-1.397, 3.222e-4
-1.398, 3.320e-4
-1.399, 3.383e-4
-1.400, 3.507e-4
-1.401, 3.608e-4
-1.402, 3.719e-4
-1.403, 3.858e-4
-1.404, 3.988e-4
-1.405, 4.168e-4
-1.406, 4.326e-4
-1.407, 4.571e-4
-1.408, 4.792e-4
-1.409, 5.019e-4
-1.410, 5.366e-4
-1.411, 5.636e-4
-1.412, 5.980e-4
-1.413, 6.404e-4
-1.414, 6.804e-4
-1.415, 7.282e-4
-1.416, 7.783e-4
-1.417, 8.338e-4
-1.418, 8.963e-4
-1.419, 9.525e-4
-1.420, 1.024e-3
-1.421, 1.100e-3
-1.422, 1.176e-3
-1.423, 1.248e-3
-1.424, 1.336e-3
-1.425, 1.429e-3
-1.426, 1.510e-3
-1.427, 1.609e-3
-1.428, 1.712e-3
-1.429, 1.799e-3
-1.430, 1.902e-3
-1.431, 2.002e-3
-1.432, 2.093e-3
-1.433, 2.209e-3
-1.434, 2.304e-3
-1.435, 2.398e-3
-1.436, 2.498e-3
-1.437, 2.598e-3
-1.438, 2.692e-3
-1.439, 2.774e-3
-1.440, 2.872e-3
-1.441, 2.950e-3
-1.442, 3.038e-3
-1.443, 3.118e-3
-1.444, 3.200e-3
-1.445, 3.276e-3
-1.446, 3.335e-3
-1.447, 3.409e-3
-1.448, 3.490e-3
-1.449, 3.551e-3
-1.450, 3.631e-3
-1.451, 3.692e-3
-1.452, 3.760e-3
-1.453, 3.854e-3
-1.454, 3.904e-3
-1.455, 3.982e-3
-1.456, 4.057e-3
-1.457, 4.115e-3
-1.458, 4.189e-3
-1.459, 4.252e-3
-1.460, 4.305e-3
-1.461, 4.379e-3
-1.462, 4.446e-3
-1.463, 4.457e-3
-1.464, 4.535e-3
-1.465, 4.635e-3
-1.466, 4.660e-3
-1.467, 4.713e-3
-1.468, 4.762e-3
-1.469, 4.824e-3
-1.470, 4.902e-3
-1.471, 4.967e-3
-1.472, 5.029e-3
-1.473, 5.104e-3
-1.474, 5.146e-3
-1.475, 5.233e-3
-1.476, 5.270e-3
-1.477, 5.301e-3
-1.478, 5.377e-3
-1.479, 5.420e-3
-1.480, 5.443e-3
-1.481, 5.527e-3
-1.482, 5.586e-3
-1.483, 5.611e-3
-1.484, 5.697e-3
-1.485, 5.765e-3
-1.486, 5.801e-3
-1.487, 5.861e-3
-1.488, 5.924e-3
-1.489, 5.968e-3
-1.490, 6.027e-3
-1.491, 6.110e-3
-1.492, 6.144e-3
-1.493, 6.190e-3
-1.494, 6.277e-3
-1.495, 6.286e-3
-1.496, 6.373e-3
-1.497, 6.425e-3
-1.498, 6.443e-3
-1.499, 6.495e-3
-1.500, 6.496e-3
-1.499, 6.382e-3
-1.498, 6.371e-3
-1.497, 6.343e-3
-1.496, 6.228e-3
-1.495, 6.175e-3
-1.494, 6.206e-3
-1.493, 6.103e-3
-1.492, 6.018e-3
-1.491, 5.999e-3
-1.490, 5.945e-3
-1.489, 5.875e-3
-1.488, 5.878e-3
-1.487, 5.817e-3
-1.486, 5.666e-3
-1.485, 5.691e-3
-1.484, 5.662e-3
-1.483, 5.525e-3
-1.482, 5.535e-3
-1.481, 5.462e-3
-1.480, 5.371e-3
-1.479, 5.362e-3
-1.478, 5.284e-3
-1.477, 5.233e-3
-1.476, 5.181e-3
-1.475, 5.134e-3
-1.474, 5.098e-3
-1.473, 5.049e-3
-1.472, 4.998e-3
-1.471, 4.942e-3
-1.470, 4.883e-3
-1.469, 4.848e-3
-1.468, 4.809e-3
-1.467, 4.763e-3
-1.466, 4.700e-3
-1.465, 4.680e-3
-1.464, 4.644e-3
-1.463, 4.575e-3
-1.462, 4.539e-3
-1.461, 4.473e-3
-1.460, 4.427e-3
-1.459, 4.381e-3
-1.458, 4.328e-3
-1.457, 4.295e-3
-1.456, 4.258e-3
-1.455, 4.201e-3
-1.454, 4.147e-3
-1.453, 4.107e-3
-1.452, 4.050e-3
-1.451, 3.999e-3
-1.450, 3.983e-3
-1.449, 3.967e-3
-1.448, 3.906e-3
-1.447, 3.849e-3
-1.446, 3.812e-3
-1.445, 3.776e-3
-1.444, 3.727e-3
-1.443, 3.693e-3
-1.442, 3.650e-3
-1.441, 3.588e-3
-1.440, 3.569e-3
-1.439, 3.513e-3
-1.438, 3.471e-3
-1.437, 3.446e-3
-1.436, 3.391e-3
-1.435, 3.356e-3
-1.434, 3.311e-3
-1.433, 3.269e-3
-1.432, 3.238e-3
-1.431, 3.187e-3
-1.430, 3.166e-3
-1.429, 3.114e-3
-1.428, 3.078e-3
-1.427, 3.036e-3
-1.426, 2.989e-3
-1.425, 2.958e-3
-1.424, 2.916e-3
-1.423, 2.887e-3
-1.422, 2.866e-3
-1.421, 2.828e-3
-1.420, 2.793e-3
-1.419, 2.760e-3
-1.418, 2.722e-3
-1.417, 2.685e-3
-1.416, 2.644e-3
-1.415, 2.608e-3
-1.414, 2.577e-3
-1.413, 2.543e-3
-1.412, 2.507e-3
-1.411, 2.461e-3
-1.410, 2.427e-3
-1.409, 2.410e-3
-1.408, 2.357e-3
-1.407, 2.327e-3
-1.406, 2.309e-3
-1.405, 2.258e-3
-1.404, 2.214e-3
-1.403, 2.213e-3
-1.402, 2.160e-3
-1.401, 2.139e-3
-1.400, 2.118e-3
-1.399, 2.047e-3
-1.398, 2.039e-3
-1.397, 2.010e-3
-1.396, 1.970e-3
-1.395, 1.947e-3
-1.394, 1.914e-3
-1.393, 1.883e-3
-1.392, 1.850e-3
-1.391, 1.815e-3
-1.390, 1.788e-3
-1.389, 1.754e-3
-1.388, 1.723e-3
-1.387, 1.693e-3
-1.386, 1.662e-3
-1.385, 1.636e-3
-1.384, 1.599e-3
-1.383, 1.565e-3
-1.382, 1.539e-3
-1.381, 1.512e-3
-1.380, 1.482e-3
-1.379, 1.452e-3
-1.378, 1.423e-3
-1.377, 1.396e-3
-1.376, 1.365e-3
-1.375, 1.343e-3
-1.374, 1.313e-3
-1.373, 1.291e-3
-1.372, 1.280e-3
-1.371, 1.257e-3
-1.370, 1.231e-3
-1.369, 1.207e-3
-1.368, 1.187e-3
-1.367, 1.161e-3
-1.366, 1.133e-3
-1.365, 1.106e-3
-1.364, 1.081e-3
-1.363, 1.057e-3
-1.362, 1.040e-3
-1.361, 1.008e-3
-1.360, 9.897e-4
-1.359, 9.648e-4
-1.358, 9.370e-4
-1.357, 9.186e-4
-1.356, 8.945e-4
-1.355, 8.710e-4
-1.354, 8.537e-4
-1.353, 8.356e-4
-1.352, 8.136e-4
-1.351, 7.935e-4
-1.350, 7.765e-4
-1.349, 7.521e-4
-1.348, 7.367e-4
-1.347, 7.189e-4
-1.346, 7.095e-4
-1.345, 6.838e-4
-1.344, 6.676e-4
-1.343, 6.422e-4
-1.342, 6.230e-4
-1.341, 6.075e-4
-1.340, 5.876e-4
-1.339, 5.717e-4
-1.338, 5.587e-4
-1.337, 5.344e-4
-1.336, 5.185e-4
-1.335, 5.108e-4
-1.334, 4.867e-4
-1.333, 4.727e-4
-1.332, 4.596e-4
-1.331, 4.391e-4
-1.330, 4.282e-4
-1.329, 4.122e-4
-1.328, 3.975e-4
-1.327, 3.833e-4
-1.326, 3.672e-4
-1.325, 3.576e-4
-1.324, 3.430e-4
-1.323, 3.270e-4
-1.322, 3.178e-4
-1.321, 3.029e-4
-1.320, 2.902e-4
-1.319, 2.793e-4
-1.318, 2.669e-4
-1.317, 2.546e-4
-1.316, 2.424e-4
-1.315, 2.310e-4
-1.314, 2.251e-4
-1.313, 2.166e-4
-1.312, 2.073e-4
-1.311, 1.978e-4
-1.310, 1.913e-4
-1.309, 1.776e-4
-1.308, 1.695e-4
-1.307, 1.647e-4
-1.306, 1.534e-4
-1.305, 1.479e-4
-1.304, 1.391e-4
-1.303, 1.309e-4
-1.302, 1.238e-4
-1.301, 1.161e-4
-1.300, 1.112e-4
-1.299, 1.025e-4
-1.298, 9.811e-5
-1.297, 9.228e-5
-1.296, 8.474e-5
-1.295, 8.189e-5
-1.294, 7.396e-5
-1.293, 6.969e-5
-1.292, 6.506e-5
-1.291, 5.749e-5
-1.290, 5.660e-5
-1.289, 5.142e-5
-1.288, 4.904e-5
-1.287, 4.517e-5
-1.286, 3.879e-5
-1.285, 3.697e-5
-1.284, 3.121e-5
-1.283, 2.858e-5
-1.282, 2.583e-5
-1.281, 2.044e-5
-1.280, 1.963e-5
-1.279, 1.426e-5
-1.278, 1.190e-5
-1.277, 9.903e-6
-1.276, 5.188e-6
-1.275, 5.237e-6
-1.274, 1.300e-6
-1.273, -7.419e-7
-1.272, -2.123e-6
-1.271, -5.843e-6
-1.270, -5.339e-6
-1.269, -9.473e-6
-1.268, -1.134e-5
-1.267, -1.303e-5
-1.266, -1.761e-5
-1.265, -1.762e-5
-1.264, -2.104e-5
-1.263, -2.128e-5
-1.262, -2.223e-5
-1.261, -2.541e-5
-1.260, -2.403e-5
-1.259, -2.718e-5
-1.258, -2.736e-5
-1.257, -2.773e-5
-1.256, -3.018e-5
-1.255, -2.916e-5
-1.254, -3.242e-5
-1.253, -3.255e-5
-1.252, -3.256e-5
-1.251, -3.481e-5
-1.250, -3.212e-5
-1.249, -3.547e-5
-1.248, -3.588e-5
-1.247, -3.604e-5
-1.246, -3.898e-5
-1.245, -3.695e-5
-1.244, -3.978e-5
-1.243, -3.981e-5
-1.242, -4.013e-5
-1.241, -4.271e-5
-1.240, -4.094e-5
-1.239, -4.341e-5
-1.238, -4.273e-5
-1.237, -4.317e-5
-1.236, -4.615e-5
-1.235, -4.324e-5
-1.234, -4.580e-5
-1.233, -4.605e-5
-1.232, -4.533e-5
-1.231, -4.752e-5
-1.230, -4.596e-5
-1.229, -4.936e-5
-1.228, -5.028e-5
-1.227, -4.908e-5
-1.226, -5.046e-5
-1.225, -4.849e-5
-1.224, -5.094e-5
-1.223, -5.090e-5
-1.222, -5.133e-5
-1.221, -5.312e-5
-1.220, -5.098e-5
-1.219, -5.380e-5
-1.218, -5.307e-5
-1.217, -5.293e-5
-1.216, -5.504e-5
-1.215, -5.283e-5
-1.214, -5.547e-5
-1.213, -5.469e-5
-1.212, -5.468e-5
-1.211, -5.655e-5
-1.210, -5.477e-5
-1.209, -5.656e-5
-1.208, -5.587e-5
-1.207, -5.498e-5
-1.206, -5.722e-5
-1.205, -5.487e-5
-1.204, -5.729e-5
-1.203, -5.651e-5
-1.202, -5.651e-5
-1.201, -5.886e-5
-1.200, -5.619e-5
-1.199, -5.900e-5
-1.198, -5.864e-5
-1.197, -5.793e-5
-1.196, -6.031e-5
-1.195, -5.781e-5
-1.194, -5.988e-5
-1.193, -5.949e-5
-1.192, -5.892e-5
-1.191, -6.125e-5
-1.190, -5.904e-5
-1.189, -6.180e-5
-1.188, -6.112e-5
-1.187, -6.056e-5
-1.186, -6.338e-5
-1.185, -6.115e-5
-1.184, -6.404e-5
-1.183, -6.323e-5
-1.182, -6.286e-5
-1.181, -6.523e-5
-1.180, -6.333e-5
-1.179, -6.539e-5
-1.178, -6.543e-5
-1.177, -6.599e-5
-1.176, -6.699e-5
-1.175, -6.502e-5
-1.174, -6.912e-5
-1.173, -6.718e-5
-1.172, -6.628e-5
-1.171, -6.988e-5
-1.170, -6.755e-5
-1.169, -6.970e-5
-1.168, -6.960e-5
-1.167, -6.963e-5
-1.166, -7.165e-5
-1.165, -6.913e-5
-1.164, -7.272e-5
-1.163, -7.215e-5
-1.162, -7.163e-5
-1.161, -7.485e-5
-1.160, -7.277e-5
-1.159, -7.428e-5
-1.158, -7.489e-5
-1.157, -7.552e-5
-1.156, -7.689e-5
-1.155, -7.460e-5
-1.154, -7.865e-5
-1.153, -7.730e-5
-1.152, -7.731e-5
-1.151, -8.074e-5
-1.150, -7.805e-5
-1.149, -8.014e-5
-1.148, -8.084e-5
-1.147, -8.049e-5
-1.146, -8.267e-5
-1.145, -8.145e-5
-1.144, -8.400e-5
-1.143, -8.323e-5
-1.142, -8.435e-5
-1.141, -8.626e-5
-1.140, -8.513e-5
-1.139, -8.829e-5
-1.138, -8.733e-5
-1.137, -8.827e-5
-1.136, -9.043e-5
-1.135, -8.831e-5
-1.134, -9.221e-5
-1.133, -9.177e-5
-1.132, -9.149e-5
-1.131, -9.431e-5
-1.130, -9.289e-5
-1.129, -9.581e-5
-1.128, -9.563e-5
-1.127, -9.667e-5
-1.126, -9.897e-5
-1.125, -9.602e-5
-1.124, -1.017e-4
-1.123, -1.000e-4
-1.122, -9.981e-5
-1.121, -1.052e-4
-1.120, -1.021e-4
-1.119, -1.050e-4
-1.118, -1.069e-4
-1.117, -1.069e-4
-1.116, -1.099e-4
-1.115, -1.087e-4
-1.114, -1.118e-4
-1.113, -1.118e-4
-1.112, -1.127e-4
-1.111, -1.154e-4
-1.110, -1.140e-4
-1.109, -1.172e-4
-1.108, -1.174e-4
-1.107, -1.182e-4
-1.106, -1.215e-4
-1.105, -1.197e-4
-1.104, -1.241e-4
-1.103, -1.239e-4
-1.102, -1.251e-4
-1.101, -1.284e-4
-1.100, -1.271e-4
-1.099, -1.319e-4
-1.098, -1.312e-4
-1.097, -1.321e-4
-1.096, -1.358e-4
-1.095, -1.352e-4
-1.094, -1.389e-4
-1.093, -1.393e-4
-1.092, -1.408e-4
-1.091, -1.434e-4
-1.090, -1.419e-4
-1.089, -1.458e-4
-1.088, -1.465e-4
-1.087, -1.486e-4
-1.086, -1.511e-4
-1.085, -1.494e-4
-1.084, -1.554e-4
-1.083, -1.565e-4
-1.082, -1.570e-4
-1.081, -1.605e-4
-1.080, -1.611e-4
-1.079, -1.644e-4
-1.078, -1.636e-4
-1.077, -1.659e-4
-1.076, -1.700e-4
-1.075, -1.693e-4
-1.074, -1.736e-4
-1.073, -1.739e-4
-1.072, -1.765e-4
-1.071, -1.814e-4
-1.070, -1.805e-4
-1.069, -1.852e-4
-1.068, -1.853e-4
-1.067, -1.894e-4
-1.066, -1.929e-4
-1.065, -1.916e-4
-1.064, -1.976e-4
-1.063, -1.986e-4
-1.062, -2.011e-4
-1.061, -2.051e-4
-1.060, -2.053e-4
-1.059, -2.103e-4
-1.058, -2.108e-4
-1.057, -2.150e-4
-1.056, -2.197e-4
-1.055, -2.190e-4
-1.054, -2.235e-4
-1.053, -2.244e-4
-1.052, -2.280e-4
-1.051, -2.319e-4
-1.050, -2.320e-4
-1.049, -2.383e-4
-1.048, -2.389e-4
-1.047, -2.418e-4
-1.046, -2.469e-4
-1.045, -2.485e-4
-1.044, -2.539e-4
-1.043, -2.551e-4
-1.042, -2.603e-4
-1.041, -2.641e-4
-1.040, -2.658e-4
-1.039, -2.737e-4
-1.038, -2.752e-4
-1.037, -2.795e-4
-1.036, -2.868e-4
-1.035, -2.866e-4
-1.034, -2.936e-4
-1.033, -2.984e-4
-1.032, -3.012e-4
-1.031, -3.071e-4
-1.030, -3.106e-4
-1.029, -3.190e-4
-1.028, -3.213e-4
-1.027, -3.278e-4
-1.026, -3.342e-4
-1.025, -3.385e-4
-1.024, -3.492e-4
-1.023, -3.500e-4
-1.022, -3.591e-4
-1.021, -3.686e-4
-1.020, -3.689e-4
-1.019, -3.820e-4
-1.018, -3.878e-4
-1.017, -3.920e-4
-1.016, -4.018e-4
-1.015, -4.077e-4
-1.014, -4.164e-4
-1.013, -4.226e-4
-1.012, -4.346e-4
-1.011, -4.418e-4
-1.010, -4.473e-4
-1.009, -4.620e-4
-1.008, -4.637e-4
-1.007, -4.756e-4
-1.006, -4.900e-4
-1.005, -4.954e-4
-1.004, -5.077e-4
-1.003, -5.177e-4
-1.002, -5.273e-4
-1.001, -5.394e-4
