Potential V vs RHE, Current mA cm-2
0.013299999999999867,2.2225114520879723
0.012299999999999978,0.7393281253094681
0.011299999999999866,-0.48199213986401795
0.010299999999999976,-1.3980177065266295
0.009299999999999864,-2.226755585987568
0.008299999999999974,-3.055776407708479
0.007299999999999862,-3.927238568425342
0.006299999999999972,-4.626105950558669
0.00529999999999986,-5.149549131508733
0.0042999999999999705,-5.672992312458796
0.0032999999999998586,-6.196435493408861
0.0022999999999999687,-6.850032113946507
0.0012999999999998568,-7.329619244600755
0.00029999999999996696,-7.679052935667419
-0.000700000000000145,-7.984630576438266
-0.0017000000000000348,-8.4203616567967
-0.0027000000000001467,-8.899948787450944
-0.0037000000000000366,-9.293238528813426
-0.0047000000000001485,-9.55496011928846
-0.005700000000000038,-9.772825659467674
-0.00670000000000015,-10.164700689530287
-0.00770000000000004,-10.557990430892769
-0.008700000000000152,-10.906009410659568
-0.009700000000000042,-11.081433611842833
-0.010700000000000154,-11.255443101726232
-0.011700000000000044,-11.604876792792895
-0.012700000000000156,-11.996751822855511
-0.013700000000000045,-12.302329463626359
-0.014700000000000157,-12.432482903213943
-0.015700000000000047,-12.56405105410139
-0.01670000000000016,-12.869628694872238
-0.01770000000000005,-13.261503724934855
-0.01870000000000016,-13.523225315409885
-0.01970000000000005,-13.654793466297335
-0.020700000000000163,-13.784946905884919
-0.021700000000000053,-14.046668496359947
-0.022700000000000164,-14.401761032626075
-0.023700000000000054,-14.65640906660178
-0.024700000000000166,-14.826174422585586
-0.025700000000000056,-14.925204213576137
-0.026700000000000168,-15.222293586547794
-0.027700000000000058,-15.618412750510005
-0.02870000000000017,-15.87306078448571
-0.02970000000000006,-16.014531914472215
-0.03070000000000017,-16.141855931460068
-0.03170000000000006,-16.396503965435777
-0.03270000000000017,-16.750181790402035
-0.03370000000000006,-17.018976937376394
-0.034700000000000175,-17.103859615368293
-0.035700000000000065,-17.231183632356142
-0.03670000000000018,-17.48583166633185
-0.03770000000000007,-17.881950830294063
-0.03870000000000018,-18.19318731626437
-0.03970000000000007,-18.320511333252224
-0.04070000000000018,-18.49027668923603
-0.04170000000000007,-18.759071836210385
-0.04270000000000018,-19.155191000172596
-0.04370000000000007,-19.452280373144255
-0.044700000000000184,-19.579604390132108
-0.045700000000000074,-19.721075520118614
-0.046700000000000186,-19.97572355409432
-0.047700000000000076,-20.286960040064624
-0.04870000000000019,-20.541608074040333
-0.04970000000000008,-20.683079204026836
-0.05070000000000019,-20.85284456001064
-0.05170000000000008,-21.248963723972853
-0.05270000000000019,-21.63093577493641
-0.05370000000000008,-21.94217226090672
-0.05470000000000019,-22.069496277894572
-0.05570000000000008,-22.111937616890522
-0.056700000000000195,-22.38073276386488
-0.057700000000000085,-22.776851927827092
-0.058700000000000196,-23.073941300798747
-0.059700000000000086,-23.2012653177866
-0.0607000000000002,-23.385177786769056
-0.06170000000000009,-23.724708498736668
-0.0627000000000002,-24.16326900169483
-0.06370000000000009,-24.432064148669184
-0.0647000000000002,-24.601829504652986
-0.06570000000000009,-24.729153521640843
-0.0667000000000002,-25.04039000761115
-0.0677000000000001,-25.43650917157336
-0.0687000000000002,-25.648715866553115
-0.0697000000000001,-25.77603988354097
-0.07070000000000021,-25.91751101352747
-0.0717000000000001,-26.21460038649913
-0.07270000000000021,-26.61071955046134
-0.0737000000000001,-26.907808923433
-0.07470000000000021,-27.049280053419505
-0.0757000000000001,-27.261486748399253
-0.07670000000000021,-27.530281895373616
-0.0777000000000001,-27.912253946337174
-0.07870000000000021,-28.22349043230748
-0.0797000000000001,-28.350814449295335
-0.08070000000000022,-28.53472691827779
-0.0817000000000001,-28.831816291249446
-0.08270000000000022,-29.27037679420761
-0.08370000000000011,-29.525024828183312
-0.08470000000000022,-29.66649595816982
-0.08570000000000011,-29.793819975157668
-0.08670000000000022,-30.10505646112798
-0.08770000000000011,-30.444587173095588
-0.08870000000000022,-30.79826499806185
-0.08970000000000011,-30.968030354045652
-0.09070000000000022,-31.095354371033505
-0.09170000000000011,-31.40659085700382
-0.09270000000000023,-31.802710020966025
-0.09370000000000012,-32.05735805494172
-0.09470000000000023,-32.184682071929586
-0.09570000000000012,-32.32615320191609
-0.09670000000000023,-32.62324257488775
-0.09770000000000012,-32.97692039985401
-0.09870000000000023,-33.288156885824314
-0.09970000000000012,-33.45792224180811
-0.10070000000000023,-33.627687597791926
-0.10170000000000012,-33.93892408376223
-0.10270000000000024,-34.33504324772444
-0.10370000000000013,-34.632132620696105
-0.10470000000000024,-34.8018979766799
-0.10570000000000013,-34.94336910666641
-0.10670000000000024,-35.15557580164616
-0.10770000000000013,-35.50925362661242
-0.10870000000000024,-35.806342999584075
-0.10970000000000013,-35.94781412957058
-0.11070000000000024,-36.11757948555439
-0.11170000000000013,-36.4288159715247
-0.11270000000000002,-36.8532293614842
-0.11370000000000013,-37.164465847454515
-0.11470000000000002,-37.291789864442364
-0.11570000000000014,-37.41911388143023
-0.11670000000000003,-37.687909028404576
-0.11770000000000014,-38.04158685337084
-0.11870000000000003,-38.33867622634249
-0.11970000000000014,-38.522588695324956
-0.12070000000000003,-38.692354051308754
-0.12170000000000014,-38.98944342428042
-0.12270000000000003,-39.34312124924667
-0.12370000000000014,-39.654357735216976
-0.12470000000000003,-39.78168175220483
-0.12570000000000014,-39.90900576919269
-0.12670000000000003,-40.220242255162994
-0.12770000000000015,-40.616361419125205
-0.12870000000000004,-40.87100945310091
-0.12970000000000015,-40.99833347008877
-0.13070000000000004,-41.139804600075266
-0.13170000000000015,-41.39445263405098
-0.13270000000000004,-41.79057179801318
-0.13370000000000015,-42.087661170984845
-0.13470000000000004,-42.31401497896325
-0.13570000000000015,-42.4413389959511
-0.13670000000000004,-42.79501682091736
-0.13770000000000016,-43.134547532884966
-0.13870000000000005,-43.40334267985933
-0.13970000000000016,-43.53066669684718
-0.14070000000000005,-43.61554937483908
-0.14170000000000016,-43.88434452181344
-0.14270000000000005,-44.223875233781044
-0.14370000000000016,-44.4926703807554
-0.14470000000000005,-44.66243573673921
-0.14570000000000016,-44.88878954471762
-0.14670000000000005,-45.22832025668522
-0.14770000000000016,-45.666880759643384
-0.14870000000000005,-46.02055858460964
-0.14970000000000017,-46.2327652795894
-0.15070000000000006,-46.3176479575813
-0.15170000000000017,-46.586443104555656
-0.15270000000000006,-46.94012092952192
-0.15370000000000017,-47.23721030249357
-0.15470000000000006,-47.36453431948143
-0.15570000000000017,-47.46356411047198
-0.15670000000000006,-47.80309482243959
-0.15770000000000017,-48.2840966643937
-0.15870000000000006,-48.63777448935996
-0.15970000000000018,-48.80753984534376
-0.16070000000000007,-48.97730520132757
-0.16170000000000018,-49.28854168729788
-0.16270000000000007,-49.59977817326819
-0.16370000000000018,-49.85442620724389
-0.16470000000000007,-50.024191563227696
-0.16570000000000018,-50.2505453712061
-0.16670000000000007,-50.50519340518181
-0.16770000000000018,-50.943753908139975
-0.16870000000000007,-51.29743173310623
-0.16970000000000018,-51.46719708909004
-0.17070000000000007,-51.73599223606439
-0.17170000000000019,-52.075522948032
-0.17270000000000008,-52.55652478998611
-0.1737000000000002,-52.91020261495237
-0.17470000000000008,-53.079967970936174
-0.1757000000000002,-53.26388043991864
-0.17670000000000008,-53.518528473894335
-0.1777000000000002,-53.872206298860604
-0.17870000000000008,-54.16929567183226
-0.1797000000000002,-54.43809081880661
-0.18070000000000008,-54.69273885278232
-0.1817000000000002,-55.046416677748574
-0.18270000000000008,-55.56985985869864
-0.1837000000000002,-56.008420361656796
-0.1847000000000001,-56.26306839563251
-0.1857000000000002,-56.44698086461496
-0.1867000000000001,-56.786511576582576
-0.1877000000000002,-57.26751341853669
-0.1887000000000001,-57.57874990450699
-0.1897000000000002,-57.62119124350295
-0.1907000000000001,-57.79095659948675
-0.1917000000000001,-58.22951710244491
-0.19269999999999998,-58.75296028339497
-0.1937000000000001,-59.10663810836124
-0.19469999999999998,-59.36128614233694
-0.1957000000000001,-59.54519861131939
-0.19669999999999999,-59.7998466452951
-0.1977000000000001,-60.23840714825326
-0.1987,-60.761850329203334
-0.1997000000000001,-61.11552815416958
-0.2007,-61.455058866137186
-0.2017000000000001,-61.936060708091304
-0.2027,-62.544386567033264
-0.2037000000000001,-63.02538840898739
-0.2047,-63.251742216965795
-0.2057000000000001,-63.46394891194555
-0.2067,-63.81762673691181
-0.2077000000000001,-64.25618723986996
-0.2087,-64.59571795183757
-0.2097000000000001,-64.86451309881193
-0.2107,-65.16160247178358
-0.2117000000000001,-65.64260431373769
-0.2127,-66.20848883368372
-0.2137000000000001,-66.64704933664189
-0.2147,-66.9582858226122
-0.2157000000000001,-67.21293385658788
-0.2167,-67.56661168155415
-0.21770000000000012,-68.0051721845123
-0.2187,-68.21737887949207
-0.21970000000000012,-68.48617402646643
-0.2207,-68.91058741642594
-0.22170000000000012,-69.4906190493706
-0.2227,-70.14138624730852
-0.22370000000000012,-70.74971210625048
-0.2247,-71.18827260920865
-0.22570000000000012,-71.48536198218031
-0.2267,-71.75415712915466
-0.22770000000000012,-72.10783495412092
-0.22870000000000001,-72.32004164910067
-0.22970000000000013,-72.53224834408043
-0.23070000000000002,-72.92836750804264
-0.23170000000000013,-73.57913470598055
-0.23270000000000002,-74.45625571189689
-0.23370000000000013,-74.97969889284694
-0.23470000000000002,-75.06458157083884
-0.23570000000000013,-75.06458157083884
-0.23670000000000002,-75.2484940398213
-0.2376999999999999,-75.6729074297808
-0.23870000000000002,-76.19635061073087
-0.2396999999999999,-76.71979379168094
-0.24070000000000003,-77.34226676362155
-0.24169999999999991,-77.99303396155948
-0.24270000000000003,-78.64380115949739
-0.24369999999999992,-79.0399203234596
-0.24470000000000003,-79.16724434044745
-0.24569999999999992,-79.33700969643127
-0.24670000000000003,-79.7755701993894
-0.24769999999999992,-80.38389605833139
-0.24870000000000003,-80.90733923928146
-0.24969999999999992,-81.43078242023151
-0.25070000000000003,-81.82690158419373
-0.2516999999999999,-82.22302074815593
-0.25270000000000004,-82.6615812511141
-0.2536999999999999,-83.04355330207765
-0.25470000000000004,-83.35478978804795
-0.2556999999999999,-83.70846761301424
-0.25670000000000004,-84.35923481095215
-0.25769999999999993,-85.09488468688197
-0.25870000000000004,-85.66076920682796
-0.25969999999999993,-86.09932970978613
-0.26070000000000004,-86.45300753475239
-0.26169999999999993,-86.80668535971866
-0.26270000000000004,-87.23109874967815
-0.26369999999999993,-87.62721791364037
-0.26470000000000005,-88.02333707760259
-0.26569999999999994,-88.37701490256885
-0.26670000000000005,-88.8438696315243
-0.26769999999999994,-89.46634260346492
-0.26870000000000005,-89.98978578441499
-0.26969999999999994,-90.28687515738663
-0.27070000000000005,-90.55567030436099
-0.27169999999999994,-90.93764235532454
-0.27270000000000005,-91.41864419727867
-0.27369999999999994,-91.81476336124088
-0.27470000000000006,-91.94208737822873
-0.27569999999999995,-92.12599984721119
-0.27670000000000006,-92.50797189817473
-0.27769999999999995,-92.94653240113291
-0.27870000000000006,-93.46997558208298
-0.27969999999999995,-93.99341876303303
-0.28070000000000006,-94.47442060498715
-0.28169999999999995,-94.99786378593721
-0.28270000000000006,-95.56374830588322
-0.28369999999999995,-95.95986746984543
-0.28470000000000006,-96.00230880884139
-0.28569999999999995,-96.04475014783733
-0.28670000000000007,-96.35598663380765
-0.28769999999999996,-96.79454713676581
-0.28870000000000007,-97.21896052672531
-0.28969999999999996,-97.53019701269562
-0.29070000000000007,-97.96875751565379
-0.29169999999999996,-98.5346420355998
-0.29270000000000007,-99.10052655554581
-0.29369999999999996,-99.53908705850398
-0.2947000000000001,-99.75129375348374
-0.29569999999999996,-99.93520622246619
-0.2967000000000001,-100.2747369344338
-0.29769999999999996,-100.75573877638791
-0.2987000000000001,-101.10941660135417
-0.29969999999999997,-101.23674061834203
-0.3007000000000001,-101.27918195733798
-0.30169999999999997,-101.59041844330828
-0.3027000000000001,-102.11386162425833
-0.30369999999999997,-102.4958336752219
-0.3047000000000001,-102.76462882219626
-0.30569999999999997,-103.07586530816658
-0.3067000000000001,-103.54272003712204
-0.3077,-104.02372187907615
-0.3087000000000001,-104.41984104303836
-0.3097,-104.64619485101677
-0.3107000000000001,-104.77351886800463
-0.3117,-104.98572556298437
-0.3127000000000001,-105.25452070995874
-0.3137,-105.38184472694657
-0.3147000000000001,-105.42428606594254
-0.3157,-105.5516100829304
-0.3167000000000001,-105.82040522990474
-0.3177,-106.07505326388046
-0.3187000000000001,-106.30140707185885
-0.3197,-106.47117242784265
-0.3207000000000001,-106.59849644483052
-0.3217,-106.90973293080083
-0.3227000000000001,-107.30585209476303
-0.3237,-107.64538280673065
-0.3247000000000001,-107.8292952757131
-0.3257,-107.87173661470905
-0.3267000000000001,-107.95661929270095
-0.3277,-107.95661929270095
-0.3287000000000001,-107.95661929270095
-0.3297,-107.87173661470905
-0.3307000000000001,-107.8292952757131
-0.3317,-107.95661929270095
-0.3327000000000001,-108.35273845666316
-0.3337,-108.69226916863077
-0.3347000000000001,-108.69226916863077
-0.3357,-108.56494515164292
-0.3367000000000001,-108.60738649063886
-0.3377,-108.77715184662266
-0.3387000000000001,-108.96106431560513
-0.3397,-108.87618163761321
-0.3407000000000001,-108.96106431560513
-0.3417,-109.35718347956733
-0.3427000000000001,-109.69671419153494
-0.3437,-109.56939017454708
-0.3447000000000001,-109.04594699359701
-0.3457,-108.2537086656726
-0.3467000000000001,-108.04150197069285
-0.3477,-108.35273845666316
-0.3487000000000001,-108.52250381264696
-0.3497,-108.3102971176672
-0.3507000000000001,-108.35273845666316
-0.3517,-108.83374029861727
-0.3527000000000001,-109.25815368857677
-0.3537,-109.17327101058488
-0.3547000000000001,-108.64982782963483
-0.3557,-107.99906063169689
-0.35670000000000013,-107.39073477275493
-0.3577,-106.95217426979677
-0.35870000000000013,-106.82485025280893
-0.3597,-106.86729159180487
-0.36070000000000013,-106.99461560879273
-0.3617,-107.03705694778867
-0.3626999999999999,-107.03705694778867
-0.3637,-106.99461560879273
-0.3646999999999999,-106.47117242784265
-0.3657,-105.7779638909088
-0.3666999999999999,-105.38184472694657
-0.3677,-105.16963803196683
-0.3686999999999999,-104.85840154599651
-0.36970000000000003,-104.3773997040424
-0.3706999999999999,-104.02372187907615
-0.37170000000000003,-103.93883920108425
-0.3726999999999999,-104.02372187907615
-0.37370000000000003,-103.93883920108425
-0.3746999999999999,-103.64174982811258
-0.37570000000000003,-103.20318932515443
-0.3766999999999999,-102.93439417818009
-0.37770000000000004,-102.80707016119221
-0.3786999999999999,-102.59486346621246
-0.37970000000000004,-102.1563029632543
-0.3806999999999999,-101.71774246029614
-0.38170000000000004,-101.44894731332178
-0.38269999999999993,-101.19429927934607
-0.38370000000000004,-100.92550413237171
-0.38469999999999993,-100.54353208140815
-0.38570000000000004,-100.2747369344338
-0.38669999999999993,-100.06253023945405
-0.38770000000000004,-99.97764756146215
-0.38869999999999993,-99.87861777047159
-0.38970000000000005,-99.66641107549184
-0.39069999999999994,-99.41176304151614
-0.39170000000000005,-99.22785057253368
-0.39269999999999994,-99.10052655554581
-0.39370000000000005,-98.88831986056607
-0.39469999999999994,-98.4497593576079
-0.39570000000000005,-98.05364019364569
-0.39669999999999994,-97.92631617665783
-0.39770000000000005,-97.92631617665783
-0.39869999999999994,-97.92631617665783
-0.39970000000000006,-97.69996236867944
-0.40069999999999995,-97.53019701269562
-0.40170000000000006,-97.36043165671182
-0.40269999999999995,-97.26140186572127
-0.40370000000000006,-97.17651918772938
-0.40469999999999995,-96.83698847576176
-0.40570000000000006,-96.73795868477121
-0.40669999999999995,-96.92187115375367
-0.40770000000000006,-97.04919517074151
-0.40869999999999995,-97.13407784873341
-0.40970000000000006,-97.17651918772938
-0.41069999999999995,-97.21896052672531
-0.41170000000000007,-97.31799031771587
-0.41269999999999996,-97.36043165671182
-0.41370000000000007,-97.36043165671182
-0.41469999999999996,-97.31799031771587
-0.41570000000000007,-97.21896052672531
-0.41669999999999996,-97.36043165671182
-0.41770000000000007,-97.74240370767538
-0.41869999999999996,-98.05364019364569
-0.4197000000000001,-98.3082882276214
-0.42069999999999996,-98.6195247135917
-0.4217000000000001,-99.01564387755391
-0.42269999999999996,-99.45420438051207
-0.4237000000000001,-99.62396973649588
-0.42469999999999997,-99.58152839749994
-0.4257000000000001,-99.58152839749994
-0.42669999999999997,-99.87861777047159
-0.4277000000000001,-100.40206095142165
-0.42869999999999997,-100.84062145437981
-0.4297000000000001,-101.15185794035013
-0.43069999999999997,-101.50553576531638
-0.4317000000000001,-101.97239049427183
-0.4327,-102.59486346621246
-0.4337000000000001,-103.11830664716253
-0.4347,-103.41539602013418
-0.4357000000000001,-103.7266325061045
-0.4367,-103.98128054008019
-0.4377000000000001,-104.41984104303836
-0.4387,-104.85840154599651
-0.4397000000000001,-105.21207937096277
-0.4407,-105.63649276092228
-0.4417000000000001,-106.21652439386696
-0.4427,-106.82485025280893
-0.4437000000000001,-107.39073477275493
-0.4447,-107.68782414572658
-0.4457000000000001,-107.95661929270095
-0.4467,-108.43762113465506
-0.4477000000000001,-109.04594699359701
-0.4487,-109.4845074965552
-0.4497000000000001,-109.73915553053091
-0.4507,-110.05039201650122
-0.4517000000000001,-110.65871787544317
-0.4527,-111.35192641237703
-0.4537000000000001,-111.8753695933271
-0.4547,-112.18660607929739
-0.4557000000000001,-112.62516658225556
-0.4567,-113.23349244119754
-0.4577000000000001,-113.92670097813141
-0.4587,-114.57746817606933
-0.4597000000000001,-115.01602867902749
-0.4607,-115.36970650399375
-0.4617000000000001,-115.76582566795594
-0.4627,-116.20438617091412
-0.4637000000000001,-116.77027069086012
-0.4647,-117.15224274182368
-0.4657000000000001,-117.54836190578591
-0.4667,-118.07180508673595
-0.4677000000000001,-118.86404341466037
-0.4687,-119.47236927360234
-0.4697000000000001,-119.9109297765605
-0.4707,-120.25046048852812
-0.4717000000000001,-120.81634500847414
-0.4727,-121.52370065840667
-0.4737000000000001,-122.08958517835266
-0.4747,-122.48570434231489
-0.4757000000000001,-122.82523505428249
-0.4767,-123.34867823523254
-0.4777000000000001,-124.05603388516508
-0.4787,-124.70680108310299
-0.4797000000000001,-125.272685603049
-0.4807,-125.88101146199097
-0.48170000000000013,-126.61666133792076
-0.4827,-127.36645832684925
-0.48370000000000013,-128.10210820277908
-0.4847,-128.5831100447332
-0.48570000000000013,-129.19143590367514
-0.4867,-129.02167054769134
-0.48570000000000013,-127.09766317987489
-0.4847,-125.44245095903281
-0.48370000000000013,-123.95700409417452
-0.4827,-122.52814568131083
-0.48170000000000013,-121.17002283344038
-0.4807,-119.95337111555646
-0.4797000000000001,-118.90648475365633
-0.4787,-117.77471571376431
-0.4777000000000001,-116.62879956087362
-0.4767,-115.62435453796945
-0.4757000000000001,-114.71893930605583
-0.4747,-113.75693562214758
-0.4737000000000001,-112.66760792125153
-0.4727,-111.7056042373433
-0.4717000000000001,-111.01239570040943
-0.4707,-110.4465111804634
-0.4697000000000001,-109.73915553053091
-0.4687,-108.91862297660917
-0.4677000000000001,-107.99906063169689
-0.4667,-107.20682230377247
-0.4657000000000001,-106.51361376683862
-0.4647,-105.63649276092228
