Dec. 19, 2024   17:58:53
Cyclic Voltammetry
File: c:/users/guazh/data/banditlqround7_x0exp667_r5/2024-12-16-exp703\exp703-2024-12-19t17_48_02-h2koh\exp703_cv_sr_400mvs_efin_-1500mv.bin
Data Source:  Experiment
Instrument Model:  CHI760E
Header: CV ran at 400 mVs
Note: 

Init E (V) = -1
High E (V) = -1
Low E (V) = -1.5
Final E (V) = -1
Init P/N = N
Scan Rate (V/s) = 0.4
Segment = 3
Sample Interval (V) = 0.001
Quiet Time (sec) = 2
Sensitivity (A/V) = 0.01
Comp R (ohm) = 1.2

Results:

Channel 1:
Segment 1:
Ep = -1.376V
ip = 7.604e-4A
Ah = 2.647e-4C

Segment 2:

Segment 3:

Potential/V, Current/A

-1.000, -1.663e-4
-1.001, -6.459e-5
-1.002, 2.482e-5
-1.003, 9.882e-5
-1.004, 1.605e-4
-1.005, 2.221e-4
-1.006, 2.838e-4
-1.007, 3.455e-4
-1.008, 4.040e-4
-1.009, 4.534e-4
-1.010, 4.935e-4
-1.011, 5.243e-4
-1.012, 5.613e-4
-1.013, 6.044e-4
-1.014, 6.445e-4
-1.015, 6.846e-4
-1.016, 7.154e-4
-1.017, 7.432e-4
-1.018, 7.679e-4
-1.019, 7.987e-4
-1.020, 8.326e-4
-1.021, 8.665e-4
-1.022, 8.943e-4
-1.023, 9.158e-4
-1.024, 9.313e-4
-1.025, 9.498e-4
-1.026, 9.744e-4
-1.027, 1.002e-3
-1.028, 1.033e-3
-1.029, 1.055e-3
-1.030, 1.073e-3
-1.031, 1.088e-3
-1.032, 1.107e-3
-1.033, 1.132e-3
-1.034, 1.159e-3
-1.035, 1.184e-3
-1.036, 1.203e-3
-1.037, 1.215e-3
-1.038, 1.230e-3
-1.039, 1.249e-3
-1.040, 1.270e-3
-1.041, 1.298e-3
-1.042, 1.320e-3
-1.043, 1.332e-3
-1.044, 1.347e-3
-1.045, 1.363e-3
-1.046, 1.384e-3
-1.047, 1.409e-3
-1.048, 1.437e-3
-1.049, 1.458e-3
-1.050, 1.474e-3
-1.051, 1.486e-3
-1.052, 1.502e-3
-1.053, 1.526e-3
-1.054, 1.551e-3
-1.055, 1.576e-3
-1.056, 1.594e-3
-1.057, 1.606e-3
-1.058, 1.622e-3
-1.059, 1.640e-3
-1.060, 1.665e-3
-1.061, 1.696e-3
-1.062, 1.721e-3
-1.063, 1.739e-3
-1.064, 1.751e-3
-1.065, 1.764e-3
-1.066, 1.788e-3
-1.067, 1.816e-3
-1.068, 1.841e-3
-1.069, 1.862e-3
-1.070, 1.878e-3
-1.071, 1.890e-3
-1.072, 1.909e-3
-1.073, 1.936e-3
-1.074, 1.964e-3
-1.075, 1.989e-3
-1.076, 2.010e-3
-1.077, 2.023e-3
-1.078, 2.041e-3
-1.079, 2.063e-3
-1.080, 2.091e-3
-1.081, 2.118e-3
-1.082, 2.143e-3
-1.083, 2.158e-3
-1.084, 2.177e-3
-1.085, 2.192e-3
-1.086, 2.217e-3
-1.087, 2.242e-3
-1.088, 2.269e-3
-1.089, 2.294e-3
-1.090, 2.312e-3
-1.091, 2.328e-3
-1.092, 2.346e-3
-1.093, 2.371e-3
-1.094, 2.399e-3
-1.095, 2.427e-3
-1.096, 2.448e-3
-1.097, 2.464e-3
-1.098, 2.485e-3
-1.099, 2.507e-3
-1.100, 2.534e-3
-1.101, 2.565e-3
-1.102, 2.593e-3
-1.103, 2.615e-3
-1.104, 2.624e-3
-1.105, 2.639e-3
-1.106, 2.661e-3
-1.107, 2.692e-3
-1.108, 2.726e-3
-1.109, 2.760e-3
-1.110, 2.784e-3
-1.111, 2.793e-3
-1.112, 2.806e-3
-1.113, 2.827e-3
-1.114, 2.855e-3
-1.115, 2.877e-3
-1.116, 2.895e-3
-1.117, 2.911e-3
-1.118, 2.935e-3
-1.119, 2.966e-3
-1.120, 3.003e-3
-1.121, 3.040e-3
-1.122, 3.071e-3
-1.123, 3.096e-3
-1.124, 3.114e-3
-1.125, 3.133e-3
-1.126, 3.151e-3
-1.127, 3.179e-3
-1.128, 3.200e-3
-1.129, 3.219e-3
-1.130, 3.228e-3
-1.131, 3.237e-3
-1.132, 3.250e-3
-1.133, 3.274e-3
-1.134, 3.305e-3
-1.135, 3.336e-3
-1.136, 3.361e-3
-1.137, 3.376e-3
-1.138, 3.392e-3
-1.139, 3.416e-3
-1.140, 3.450e-3
-1.141, 3.478e-3
-1.142, 3.499e-3
-1.143, 3.515e-3
-1.144, 3.530e-3
-1.145, 3.549e-3
-1.146, 3.577e-3
-1.147, 3.604e-3
-1.148, 3.632e-3
-1.149, 3.654e-3
-1.150, 3.678e-3
-1.151, 3.700e-3
-1.152, 3.721e-3
-1.153, 3.749e-3
-1.154, 3.777e-3
-1.155, 3.799e-3
-1.156, 3.814e-3
-1.157, 3.829e-3
-1.158, 3.839e-3
-1.159, 3.857e-3
-1.160, 3.885e-3
-1.161, 3.919e-3
-1.162, 3.943e-3
-1.163, 3.965e-3
-1.164, 3.984e-3
-1.165, 4.002e-3
-1.166, 4.027e-3
-1.167, 4.051e-3
-1.168, 4.076e-3
-1.169, 4.098e-3
-1.170, 4.116e-3
-1.171, 4.128e-3
-1.172, 4.147e-3
-1.173, 4.169e-3
-1.174, 4.199e-3
-1.175, 4.230e-3
-1.176, 4.249e-3
-1.177, 4.267e-3
-1.178, 4.283e-3
-1.179, 4.307e-3
-1.180, 4.338e-3
-1.181, 4.366e-3
-1.182, 4.387e-3
-1.183, 4.406e-3
-1.184, 4.428e-3
-1.185, 4.449e-3
-1.186, 4.480e-3
-1.187, 4.511e-3
-1.188, 4.545e-3
-1.189, 4.569e-3
-1.190, 4.594e-3
-1.191, 4.616e-3
-1.192, 4.634e-3
-1.193, 4.662e-3
-1.194, 4.690e-3
-1.195, 4.717e-3
-1.196, 4.739e-3
-1.197, 4.757e-3
-1.198, 4.779e-3
-1.199, 4.810e-3
-1.200, 4.850e-3
-1.201, 4.887e-3
-1.202, 4.921e-3
-1.203, 4.945e-3
-1.204, 4.964e-3
-1.205, 4.982e-3
-1.206, 5.007e-3
-1.207, 5.035e-3
-1.208, 5.060e-3
-1.209, 5.084e-3
-1.210, 5.100e-3
-1.211, 5.115e-3
-1.212, 5.134e-3
-1.213, 5.164e-3
-1.214, 5.198e-3
-1.215, 5.232e-3
-1.216, 5.260e-3
-1.217, 5.278e-3
-1.218, 5.297e-3
-1.219, 5.325e-3
-1.220, 5.356e-3
-1.221, 5.386e-3
-1.222, 5.411e-3
-1.223, 5.433e-3
-1.224, 5.442e-3
-1.225, 5.457e-3
-1.226, 5.482e-3
-1.227, 5.513e-3
-1.228, 5.547e-3
-1.229, 5.578e-3
-1.230, 5.602e-3
-1.231, 5.624e-3
-1.232, 5.651e-3
-1.233, 5.685e-3
-1.234, 5.719e-3
-1.235, 5.747e-3
-1.236, 5.772e-3
-1.237, 5.790e-3
-1.238, 5.812e-3
-1.239, 5.836e-3
-1.240, 5.864e-3
-1.241, 5.895e-3
-1.242, 5.926e-3
-1.243, 5.951e-3
-1.244, 5.972e-3
-1.245, 5.997e-3
-1.246, 6.028e-3
-1.247, 6.065e-3
-1.248, 6.099e-3
-1.249, 6.129e-3
-1.250, 6.154e-3
-1.251, 6.179e-3
-1.252, 6.206e-3
-1.253, 6.240e-3
-1.254, 6.280e-3
-1.255, 6.314e-3
-1.256, 6.345e-3
-1.257, 6.370e-3
-1.258, 6.391e-3
-1.259, 6.413e-3
-1.260, 6.444e-3
-1.261, 6.475e-3
-1.262, 6.512e-3
-1.263, 6.546e-3
-1.264, 6.583e-3
-1.265, 6.626e-3
-1.266, 6.675e-3
-1.267, 6.728e-3
-1.268, 6.771e-3
-1.269, 6.805e-3
-1.270, 6.832e-3
-1.271, 6.854e-3
-1.272, 6.875e-3
-1.273, 6.906e-3
-1.274, 6.937e-3
-1.275, 6.968e-3
-1.276, 6.999e-3
-1.277, 7.027e-3
-1.278, 7.051e-3
-1.279, 7.085e-3
-1.280, 7.119e-3
-1.281, 7.153e-3
-1.282, 7.184e-3
-1.283, 7.208e-3
-1.284, 7.230e-3
-1.285, 7.252e-3
-1.286, 7.282e-3
-1.287, 7.313e-3
-1.288, 7.344e-3
-1.289, 7.375e-3
-1.290, 7.406e-3
-1.291, 7.440e-3
-1.292, 7.489e-3
-1.293, 7.535e-3
-1.294, 7.582e-3
-1.295, 7.622e-3
-1.296, 7.649e-3
-1.297, 7.656e-3
-1.298, 7.659e-3
-1.299, 7.674e-3
-1.300, 7.689e-3
-1.301, 7.714e-3
-1.302, 7.751e-3
-1.303, 7.791e-3
-1.304, 7.834e-3
-1.305, 7.887e-3
-1.306, 7.945e-3
-1.307, 8.010e-3
-1.308, 8.072e-3
-1.309, 8.115e-3
-1.310, 8.143e-3
-1.311, 8.155e-3
-1.312, 8.161e-3
-1.313, 8.170e-3
-1.314, 8.183e-3
-1.315, 8.192e-3
-1.316, 8.198e-3
-1.317, 8.201e-3
-1.318, 8.214e-3
-1.319, 8.232e-3
-1.320, 8.269e-3
-1.321, 8.328e-3
-1.322, 8.392e-3
-1.323, 8.445e-3
-1.324, 8.482e-3
-1.325, 8.506e-3
-1.326, 8.537e-3
-1.327, 8.571e-3
-1.328, 8.596e-3
-1.329, 8.602e-3
-1.330, 8.599e-3
-1.331, 8.599e-3
-1.332, 8.617e-3
-1.333, 8.648e-3
-1.334, 8.685e-3
-1.335, 8.722e-3
-1.336, 8.756e-3
-1.337, 8.787e-3
-1.338, 8.806e-3
-1.339, 8.827e-3
-1.340, 8.852e-3
-1.341, 8.873e-3
-1.342, 8.889e-3
-1.343, 8.901e-3
-1.344, 8.910e-3
-1.345, 8.929e-3
-1.346, 8.954e-3
-1.347, 8.984e-3
-1.348, 9.009e-3
-1.349, 9.031e-3
-1.350, 9.055e-3
-1.351, 9.080e-3
-1.352, 9.098e-3
-1.353, 9.114e-3
-1.354, 9.123e-3
-1.355, 9.129e-3
-1.356, 9.132e-3
-1.357, 9.123e-3
-1.358, 9.123e-3
-1.359, 9.142e-3
-1.360, 9.175e-3
-1.361, 9.212e-3
-1.362, 9.256e-3
-1.363, 9.286e-3
-1.364, 9.302e-3
-1.365, 9.308e-3
-1.366, 9.317e-3
-1.367, 9.327e-3
-1.368, 9.330e-3
-1.369, 9.333e-3
-1.370, 9.327e-3
-1.371, 9.320e-3
-1.372, 9.333e-3
-1.373, 9.357e-3
-1.374, 9.379e-3
-1.375, 9.391e-3
-1.376, 9.394e-3
-1.377, 9.394e-3
-1.378, 9.391e-3
-1.379, 9.388e-3
-1.380, 9.382e-3
-1.381, 9.382e-3
-1.382, 9.385e-3
-1.383, 9.382e-3
-1.384, 9.370e-3
-1.385, 9.364e-3
-1.386, 9.364e-3
-1.387, 9.373e-3
-1.388, 9.382e-3
-1.389, 9.385e-3
-1.390, 9.373e-3
-1.391, 9.354e-3
-1.392, 9.342e-3
-1.393, 9.339e-3
-1.394, 9.345e-3
-1.395, 9.345e-3
-1.396, 9.327e-3
-1.397, 9.299e-3
-1.398, 9.277e-3
-1.399, 9.268e-3
-1.400, 9.262e-3
-1.401, 9.259e-3
-1.402, 9.243e-3
-1.403, 9.219e-3
-1.404, 9.200e-3
-1.405, 9.191e-3
-1.406, 9.185e-3
-1.407, 9.179e-3
-1.408, 9.175e-3
-1.409, 9.166e-3
-1.410, 9.145e-3
-1.411, 9.117e-3
-1.412, 9.095e-3
-1.413, 9.071e-3
-1.414, 9.055e-3
-1.415, 9.043e-3
-1.416, 9.021e-3
-1.417, 8.997e-3
-1.418, 8.972e-3
-1.419, 8.954e-3
-1.420, 8.941e-3
-1.421, 8.932e-3
-1.422, 8.913e-3
-1.423, 8.883e-3
-1.424, 8.852e-3
-1.425, 8.830e-3
-1.426, 8.821e-3
-1.427, 8.815e-3
-1.428, 8.802e-3
-1.429, 8.781e-3
-1.430, 8.762e-3
-1.431, 8.747e-3
-1.432, 8.735e-3
-1.433, 8.725e-3
-1.434, 8.725e-3
-1.435, 8.719e-3
-1.436, 8.710e-3
-1.437, 8.695e-3
-1.438, 8.676e-3
-1.439, 8.661e-3
-1.440, 8.654e-3
-1.441, 8.654e-3
-1.442, 8.651e-3
-1.443, 8.648e-3
-1.444, 8.645e-3
-1.445, 8.642e-3
-1.446, 8.648e-3
-1.447, 8.651e-3
-1.448, 8.651e-3
-1.449, 8.642e-3
-1.450, 8.627e-3
-1.451, 8.621e-3
-1.452, 8.624e-3
-1.453, 8.633e-3
-1.454, 8.648e-3
-1.455, 8.667e-3
-1.456, 8.676e-3
-1.457, 8.688e-3
-1.458, 8.695e-3
-1.459, 8.704e-3
-1.460, 8.716e-3
-1.461, 8.738e-3
-1.462, 8.753e-3
-1.463, 8.762e-3
-1.464, 8.772e-3
-1.465, 8.787e-3
-1.466, 8.812e-3
-1.467, 8.846e-3
-1.468, 8.873e-3
-1.469, 8.895e-3
-1.470, 8.917e-3
-1.471, 8.938e-3
-1.472, 8.963e-3
-1.473, 8.997e-3
-1.474, 9.028e-3
-1.475, 9.058e-3
-1.476, 9.080e-3
-1.477, 9.101e-3
-1.478, 9.123e-3
-1.479, 9.157e-3
-1.480, 9.194e-3
-1.481, 9.237e-3
-1.482, 9.280e-3
-1.483, 9.317e-3
-1.484, 9.354e-3
-1.485, 9.388e-3
-1.486, 9.422e-3
-1.487, 9.456e-3
-1.488, 9.490e-3
-1.489, 9.515e-3
-1.490, 9.536e-3
-1.491, 9.555e-3
-1.492, 9.586e-3
-1.493, 9.623e-3
-1.494, 9.669e-3
-1.495, 9.715e-3
-1.496, 9.755e-3
-1.497, 9.798e-3
-1.498, 9.841e-3
-1.499, 9.888e-3
-1.500, 9.857e-3
-1.499, 9.697e-3
-1.498, 9.536e-3
-1.497, 9.370e-3
-1.496, 9.212e-3
-1.495, 9.068e-3
-1.494, 8.935e-3
-1.493, 8.815e-3
-1.492, 8.704e-3
-1.491, 8.590e-3
-1.490, 8.473e-3
-1.489, 8.358e-3
-1.488, 8.257e-3
-1.487, 8.164e-3
-1.486, 8.078e-3
-1.485, 7.988e-3
-1.484, 7.887e-3
-1.483, 7.782e-3
-1.482, 7.680e-3
-1.481, 7.575e-3
-1.480, 7.477e-3
-1.479, 7.378e-3
-1.478, 7.282e-3
-1.477, 7.187e-3
-1.476, 7.094e-3
-1.475, 7.005e-3
-1.474, 6.919e-3
-1.473, 6.838e-3
-1.472, 6.758e-3
-1.471, 6.669e-3
-1.470, 6.573e-3
-1.469, 6.481e-3
-1.468, 6.391e-3
-1.467, 6.314e-3
-1.466, 6.240e-3
-1.465, 6.166e-3
-1.464, 6.083e-3
-1.463, 6.000e-3
-1.462, 5.923e-3
-1.461, 5.849e-3
-1.460, 5.781e-3
-1.459, 5.716e-3
-1.458, 5.645e-3
-1.457, 5.565e-3
-1.456, 5.485e-3
-1.455, 5.411e-3
-1.454, 5.340e-3
-1.453, 5.278e-3
-1.452, 5.217e-3
-1.451, 5.149e-3
-1.450, 5.072e-3
-1.449, 4.998e-3
-1.448, 4.927e-3
-1.447, 4.871e-3
-1.446, 4.825e-3
-1.445, 4.773e-3
-1.444, 4.711e-3
-1.443, 4.643e-3
-1.442, 4.579e-3
-1.441, 4.514e-3
-1.440, 4.455e-3
-1.439, 4.397e-3
-1.438, 4.335e-3
-1.437, 4.267e-3
-1.436, 4.196e-3
-1.435, 4.138e-3
-1.434, 4.082e-3
-1.433, 4.036e-3
-1.432, 3.987e-3
-1.431, 3.937e-3
-1.430, 3.879e-3
-1.429, 3.817e-3
-1.428, 3.755e-3
-1.427, 3.703e-3
-1.426, 3.651e-3
-1.425, 3.595e-3
-1.424, 3.533e-3
-1.423, 3.466e-3
-1.422, 3.401e-3
-1.421, 3.355e-3
-1.420, 3.311e-3
-1.419, 3.262e-3
-1.418, 3.213e-3
-1.417, 3.157e-3
-1.416, 3.099e-3
-1.415, 3.043e-3
-1.414, 2.994e-3
-1.413, 2.948e-3
-1.412, 2.898e-3
-1.411, 2.843e-3
-1.410, 2.784e-3
-1.409, 2.726e-3
-1.408, 2.673e-3
-1.407, 2.627e-3
-1.406, 2.584e-3
-1.405, 2.531e-3
-1.404, 2.473e-3
-1.403, 2.417e-3
-1.402, 2.359e-3
-1.401, 2.303e-3
-1.400, 2.260e-3
-1.399, 2.223e-3
-1.398, 2.180e-3
-1.397, 2.134e-3
-1.396, 2.078e-3
-1.395, 2.026e-3
-1.394, 1.976e-3
-1.393, 1.930e-3
-1.392, 1.884e-3
-1.391, 1.832e-3
-1.390, 1.776e-3
-1.389, 1.724e-3
-1.388, 1.671e-3
-1.387, 1.631e-3
-1.386, 1.594e-3
-1.385, 1.551e-3
-1.384, 1.505e-3
-1.383, 1.452e-3
-1.382, 1.400e-3
-1.381, 1.354e-3
-1.380, 1.314e-3
-1.379, 1.277e-3
-1.378, 1.233e-3
-1.377, 1.190e-3
-1.376, 1.138e-3
-1.375, 1.088e-3
-1.374, 1.048e-3
-1.373, 1.008e-3
-1.372, 9.683e-4
-1.371, 9.251e-4
-1.370, 8.788e-4
-1.369, 8.326e-4
-1.368, 7.894e-4
-1.367, 7.555e-4
-1.366, 7.216e-4
-1.365, 6.877e-4
-1.364, 6.445e-4
-1.363, 5.983e-4
-1.362, 5.520e-4
-1.361, 5.120e-4
-1.360, 4.780e-4
-1.359, 4.441e-4
-1.358, 4.102e-4
-1.357, 3.701e-4
-1.356, 3.239e-4
-1.355, 2.869e-4
-1.354, 2.530e-4
-1.353, 2.252e-4
-1.352, 1.944e-4
-1.351, 1.574e-4
-1.350, 1.142e-4
-1.349, 7.415e-5
-1.348, 3.407e-5
-1.347, 6.322e-6
-1.346, -2.143e-5
-1.345, -5.226e-5
-1.344, -8.925e-5
-1.343, -1.293e-4
-1.342, -1.663e-4
-1.341, -2.002e-4
-1.340, -2.249e-4
-1.339, -2.527e-4
-1.338, -2.804e-4
-1.337, -3.174e-4
-1.336, -3.544e-4
-1.335, -3.914e-4
-1.334, -4.161e-4
-1.333, -4.407e-4
-1.332, -4.654e-4
-1.331, -4.962e-4
-1.330, -5.332e-4
-1.329, -5.702e-4
-1.328, -6.041e-4
-1.327, -6.288e-4
-1.326, -6.504e-4
-1.325, -6.750e-4
-1.324, -7.059e-4
-1.323, -7.398e-4
-1.322, -7.737e-4
-1.321, -8.015e-4
-1.320, -8.230e-4
-1.319, -8.446e-4
-1.318, -8.724e-4
-1.317, -9.032e-4
-1.316, -9.371e-4
-1.315, -9.679e-4
-1.314, -9.895e-4
-1.313, -1.011e-3
-1.312, -1.030e-3
-1.311, -1.057e-3
-1.310, -1.091e-3
-1.309, -1.122e-3
-1.308, -1.150e-3
-1.307, -1.175e-3
-1.306, -1.190e-3
-1.305, -1.212e-3
-1.304, -1.239e-3
-1.303, -1.273e-3
-1.302, -1.304e-3
-1.301, -1.329e-3
-1.300, -1.347e-3
-1.299, -1.366e-3
-1.298, -1.390e-3
-1.297, -1.418e-3
-1.296, -1.449e-3
-1.295, -1.480e-3
-1.294, -1.498e-3
-1.293, -1.517e-3
-1.292, -1.535e-3
-1.291, -1.560e-3
-1.290, -1.591e-3
-1.289, -1.622e-3
-1.288, -1.646e-3
-1.287, -1.665e-3
-1.286, -1.680e-3
-1.285, -1.702e-3
-1.284, -1.729e-3
-1.283, -1.760e-3
-1.282, -1.791e-3
-1.281, -1.813e-3
-1.280, -1.834e-3
-1.279, -1.850e-3
-1.278, -1.871e-3
-1.277, -1.899e-3
-1.276, -1.927e-3
-1.275, -1.951e-3
-1.274, -1.970e-3
-1.273, -1.985e-3
-1.272, -2.001e-3
-1.271, -2.025e-3
-1.270, -2.056e-3
-1.269, -2.087e-3
-1.268, -2.118e-3
-1.267, -2.140e-3
-1.266, -2.158e-3
-1.265, -2.177e-3
-1.264, -2.201e-3
-1.263, -2.232e-3
-1.262, -2.257e-3
-1.261, -2.275e-3
-1.260, -2.291e-3
-1.259, -2.306e-3
-1.258, -2.328e-3
-1.257, -2.355e-3
-1.256, -2.386e-3
-1.255, -2.417e-3
-1.254, -2.439e-3
-1.253, -2.454e-3
-1.252, -2.476e-3
-1.251, -2.497e-3
-1.250, -2.525e-3
-1.249, -2.556e-3
-1.248, -2.580e-3
-1.247, -2.599e-3
-1.246, -2.614e-3
-1.245, -2.633e-3
-1.244, -2.654e-3
-1.243, -2.682e-3
-1.242, -2.710e-3
-1.241, -2.731e-3
-1.240, -2.744e-3
-1.239, -2.762e-3
-1.238, -2.784e-3
-1.237, -2.815e-3
-1.236, -2.849e-3
-1.235, -2.876e-3
-1.234, -2.898e-3
-1.233, -2.916e-3
-1.232, -2.935e-3
-1.231, -2.960e-3
-1.230, -2.984e-3
-1.229, -3.012e-3
-1.228, -3.037e-3
-1.227, -3.052e-3
-1.226, -3.068e-3
-1.225, -3.083e-3
-1.224, -3.108e-3
-1.223, -3.148e-3
-1.222, -3.188e-3
-1.221, -3.219e-3
-1.220, -3.243e-3
-1.219, -3.265e-3
-1.218, -3.286e-3
-1.217, -3.317e-3
-1.216, -3.348e-3
-1.215, -3.373e-3
-1.214, -3.388e-3
-1.213, -3.397e-3
-1.212, -3.410e-3
-1.211, -3.425e-3
-1.210, -3.450e-3
-1.209, -3.475e-3
-1.208, -3.499e-3
-1.207, -3.527e-3
-1.206, -3.555e-3
-1.205, -3.579e-3
-1.204, -3.616e-3
-1.203, -3.656e-3
-1.202, -3.693e-3
-1.201, -3.721e-3
-1.200, -3.743e-3
-1.199, -3.761e-3
-1.198, -3.780e-3
-1.197, -3.804e-3
-1.196, -3.832e-3
-1.195, -3.854e-3
-1.194, -3.875e-3
-1.193, -3.894e-3
-1.192, -3.915e-3
-1.191, -3.943e-3
-1.190, -3.974e-3
-1.189, -4.002e-3
-1.188, -4.020e-3
-1.187, -4.029e-3
-1.186, -4.036e-3
-1.185, -4.060e-3
-1.184, -4.110e-3
-1.183, -4.184e-3
-1.182, -4.248e-3
-1.181, -4.279e-3
-1.180, -4.295e-3
-1.179, -4.307e-3
-1.178, -4.338e-3
-1.177, -4.372e-3
-1.176, -4.399e-3
-1.175, -4.430e-3
-1.174, -4.455e-3
-1.173, -4.473e-3
-1.172, -4.489e-3
-1.171, -4.507e-3
-1.170, -4.532e-3
-1.169, -4.563e-3
-1.168, -4.594e-3
-1.167, -4.615e-3
-1.166, -4.637e-3
-1.165, -4.668e-3
-1.164, -4.711e-3
-1.163, -4.757e-3
-1.162, -4.800e-3
-1.161, -4.837e-3
-1.160, -4.862e-3
-1.159, -4.890e-3
-1.158, -4.914e-3
-1.157, -4.945e-3
-1.156, -4.979e-3
-1.155, -5.004e-3
-1.154, -5.025e-3
-1.153, -5.038e-3
-1.152, -5.059e-3
-1.151, -5.090e-3
-1.150, -5.130e-3
-1.149, -5.170e-3
-1.148, -5.210e-3
-1.147, -5.241e-3
-1.146, -5.275e-3
-1.145, -5.312e-3
-1.144, -5.352e-3
-1.143, -5.392e-3
-1.142, -5.429e-3
-1.141, -5.457e-3
-1.140, -5.475e-3
-1.139, -5.494e-3
-1.138, -5.516e-3
-1.137, -5.543e-3
-1.136, -5.580e-3
-1.135, -5.617e-3
-1.134, -5.645e-3
-1.133, -5.670e-3
-1.132, -5.707e-3
-1.131, -5.747e-3
-1.130, -5.793e-3
-1.129, -5.833e-3
-1.128, -5.864e-3
-1.127, -5.886e-3
-1.126, -5.907e-3
-1.125, -5.932e-3
-1.124, -5.959e-3
-1.123, -5.993e-3
-1.122, -6.027e-3
-1.121, -6.061e-3
-1.120, -6.089e-3
-1.119, -6.114e-3
-1.118, -6.141e-3
-1.117, -6.181e-3
-1.116, -6.222e-3
-1.115, -6.255e-3
-1.114, -6.283e-3
-1.113, -6.302e-3
-1.112, -6.326e-3
-1.111, -6.354e-3
-1.110, -6.391e-3
-1.109, -6.431e-3
-1.108, -6.459e-3
-1.107, -6.481e-3
-1.106, -6.502e-3
-1.105, -6.527e-3
-1.104, -6.558e-3
-1.103, -6.592e-3
-1.102, -6.622e-3
-1.101, -6.650e-3
-1.100, -6.678e-3
-1.099, -6.712e-3
-1.098, -6.755e-3
-1.097, -6.795e-3
-1.096, -6.835e-3
-1.095, -6.872e-3
-1.094, -6.900e-3
-1.093, -6.921e-3
-1.092, -6.946e-3
-1.091, -6.971e-3
-1.090, -7.002e-3
-1.089, -7.036e-3
-1.088, -7.069e-3
-1.087, -7.097e-3
-1.086, -7.125e-3
-1.085, -7.162e-3
-1.084, -7.205e-3
-1.083, -7.239e-3
-1.082, -7.261e-3
-1.081, -7.273e-3
-1.080, -7.279e-3
-1.079, -7.294e-3
-1.078, -7.319e-3
-1.077, -7.356e-3
-1.076, -7.405e-3
-1.075, -7.452e-3
-1.074, -7.483e-3
-1.073, -7.501e-3
-1.072, -7.513e-3
-1.071, -7.526e-3
-1.070, -7.541e-3
-1.069, -7.557e-3
-1.068, -7.566e-3
-1.067, -7.575e-3
-1.066, -7.587e-3
-1.065, -7.603e-3
-1.064, -7.627e-3
-1.063, -7.661e-3
-1.062, -7.695e-3
-1.061, -7.726e-3
-1.060, -7.754e-3
-1.059, -7.779e-3
-1.058, -7.797e-3
-1.057, -7.816e-3
-1.056, -7.840e-3
-1.055, -7.859e-3
-1.054, -7.871e-3
-1.053, -7.877e-3
-1.052, -7.886e-3
-1.051, -7.902e-3
-1.050, -7.923e-3
-1.049, -7.951e-3
-1.048, -7.973e-3
-1.047, -7.988e-3
-1.046, -8.001e-3
-1.045, -8.016e-3
-1.044, -8.041e-3
-1.043, -8.071e-3
-1.042, -8.096e-3
-1.041, -8.112e-3
-1.040, -8.115e-3
-1.039, -8.121e-3
-1.038, -8.124e-3
-1.037, -8.127e-3
-1.036, -8.139e-3
-1.035, -8.149e-3
-1.034, -8.158e-3
-1.033, -8.167e-3
-1.032, -8.179e-3
-1.031, -8.195e-3
-1.030, -8.216e-3
-1.029, -8.244e-3
-1.028, -8.269e-3
-1.027, -8.275e-3
-1.026, -8.278e-3
-1.025, -8.278e-3
-1.024, -8.284e-3
-1.023, -8.300e-3
-1.022, -8.318e-3
-1.021, -8.327e-3
-1.020, -8.330e-3
-1.019, -8.340e-3
-1.018, -8.355e-3
-1.017, -8.374e-3
-1.016, -8.389e-3
-1.015, -8.398e-3
-1.014, -8.401e-3
-1.013, -8.404e-3
-1.012, -8.411e-3
-1.011, -8.423e-3
-1.010, -8.432e-3
-1.009, -8.444e-3
-1.008, -8.448e-3
-1.007, -8.441e-3
-1.006, -8.435e-3
-1.005, -8.429e-3
-1.004, -8.435e-3
-1.003, -8.448e-3
-1.002, -8.463e-3
-1.001, -8.469e-3
