Potential V vs RHE, Current mA cm-2
0.013299999999999867,-0.013200671139040658
0.012299999999999978,-0.019848399537106463
0.011299999999999866,-0.024134974775697527
0.010299999999999976,-0.02979381997515767
0.009299999999999864,-0.0347736037506826
0.008299999999999974,-0.03890456074628851
0.007299999999999862,-0.04304966485489307
0.006299999999999972,-0.04719476896349762
0.00529999999999986,-0.05187746336605089
0.0042999999999999705,-0.05422588412382686
0.0032999999999998586,-0.059248109238347745
0.0022999999999999687,-0.06301124129598873
0.0012999999999998568,-0.06561431008774041
0.00029999999999996696,-0.06925011812839355
-0.000700000000000145,-0.07301325018603454
-0.0017000000000000348,-0.07636611596671468
-0.0027000000000001467,-0.07970483463439616
-0.0037000000000000366,-0.08240693321713838
-0.0047000000000001485,-0.08559003364183472
-0.005700000000000038,-0.08846189758056075
-0.00670000000000015,-0.09212599984721119
-0.00770000000000004,-0.09566277809687378
-0.008700000000000152,-0.09730384320471722
-0.009700000000000042,-0.10074159166338927
-0.010700000000000154,-0.10473107752900866
-0.011700000000000044,-0.10682485025280893
-0.012700000000000156,-0.10944206615755923
-0.013700000000000045,-0.11235637143528121
-0.014700000000000157,-0.11558191319897348
-0.015700000000000047,-0.11793033395674946
-0.01670000000000016,-0.12143881798041474
-0.01770000000000005,-0.12375894451219341
-0.01870000000000016,-0.12556977497602065
-0.01970000000000005,-0.12907825899968592
-0.020700000000000163,-0.13149741532245518
-0.021700000000000053,-0.13361948227225273
-0.022700000000000164,-0.13654793466297335
-0.023700000000000054,-0.13893879675974524
-0.024700000000000166,-0.14007056579963728
-0.025700000000000056,-0.1428858412863687
-0.026700000000000168,-0.14599820614607179
-0.027700000000000058,-0.14854468648582883
-0.02870000000000017,-0.1503838111756534
-0.02970000000000006,-0.15377911829532948
-0.03070000000000017,-0.15590118524512703
-0.03170000000000006,-0.15802325219492458
-0.03270000000000017,-0.16071120366466815
-0.03370000000000006,-0.16311621287443873
-0.034700000000000175,-0.16453092417430376
-0.035700000000000065,-0.16778476016399335
-0.03670000000000018,-0.17103859615368294
-0.03770000000000007,-0.173868018753413
-0.03870000000000018,-0.17457537440334553
-0.03970000000000007,-0.1772633258730891
-0.04070000000000018,-0.17938539282288665
-0.04170000000000007,-0.1806586329927652
-0.04270000000000018,-0.18334658446250876
-0.04370000000000007,-0.1858930648022658
-0.044700000000000184,-0.18759071836210386
-0.045700000000000074,-0.18957131418191492
-0.046700000000000186,-0.19183485226169897
-0.047700000000000076,-0.1922592656516585
-0.04870000000000019,-0.1936739769515235
-0.04970000000000008,-0.1974936974611591
-0.05070000000000019,-0.20018164893090268
-0.05170000000000008,-0.20159636023076774
-0.05270000000000019,-0.2035769560505788
-0.05370000000000008,-0.20569902300037635
-0.05470000000000019,-0.2076796188201874
-0.05570000000000008,-0.20994315689997145
-0.056700000000000195,-0.21248963723972852
-0.057700000000000085,-0.21291405062968802
-0.058700000000000196,-0.21404581966958006
-0.059700000000000086,-0.2161678866193776
-0.0607000000000002,-0.21913878034909418
-0.06170000000000009,-0.22126084729889173
-0.0627000000000002,-0.2242317410286083
-0.06370000000000009,-0.22493909667854084
-0.0647000000000002,-0.2267782213683654
-0.06570000000000009,-0.22720263475832486
-0.0667000000000002,-0.2310223552679605
-0.0677000000000001,-0.23088088413797397
-0.0687000000000002,-0.23498354690758255
-0.0697000000000001,-0.23583237368750162
-0.07070000000000021,-0.23625678707746112
-0.0717000000000001,-0.23781296950731265
-0.07270000000000021,-0.2399350364571102
-0.0737000000000001,-0.24177416114693479
-0.07470000000000021,-0.24191563227692126
-0.0757000000000001,-0.2446035837466648
-0.07670000000000021,-0.24644270843648935
-0.0777000000000001,-0.2477159486063679
-0.07870000000000021,-0.24842330425630044
-0.0797000000000001,-0.251960082505963
-0.08070000000000022,-0.2532333226758416
-0.0817000000000001,-0.25436509171573357
-0.08270000000000022,-0.2567701009255041
-0.08370000000000011,-0.25733598544545017
-0.08470000000000022,-0.2581848122253692
-0.08570000000000011,-0.26129717708507233
-0.08670000000000022,-0.2624289461249643
-0.08770000000000011,-0.26299483064491036
-0.08870000000000022,-0.2646924842047484
-0.08970000000000011,-0.2662486666345999
-0.09070000000000022,-0.26907808923433
-0.09170000000000011,-0.269361031494303
-0.09270000000000023,-0.2726148674839926
-0.09370000000000012,-0.27190751183406003
-0.09470000000000023,-0.2726148674839926
-0.09570000000000012,-0.27530281895373615
-0.09670000000000023,-0.27601017460366867
-0.09770000000000012,-0.2767175302536012
-0.09870000000000023,-0.27869812607341227
-0.09970000000000012,-0.27898106833338526
-0.10070000000000023,-0.2801128373732773
-0.10170000000000012,-0.2826593177130343
-0.10270000000000024,-0.2844984424028589
-0.10370000000000013,-0.28534726918277786
-0.10470000000000024,-0.28379108675292636
-0.10570000000000013,-0.2883181629124945
-0.10670000000000024,-0.28605462483271044
-0.10770000000000013,-0.2886011051724675
-0.10870000000000024,-0.29128905664221105
-0.10970000000000013,-0.29369406585198166
-0.11070000000000024,-0.29510877715184664
-0.11170000000000013,-0.29482583489187364
-0.11270000000000002,-0.2955331905418062
-0.11370000000000013,-0.2966649595816982
-0.11470000000000002,-0.2992114399214552
-0.11570000000000014,-0.30105056461127977
-0.11670000000000003,-0.2996358533114148
-0.11770000000000014,-0.29977732444140126
-0.11870000000000003,-0.29906996879146874
-0.11970000000000014,-0.3009090934812933
-0.12070000000000003,-0.30430440060096936
-0.12170000000000014,-0.3058605830308209
-0.12270000000000003,-0.30628499642078044
-0.12370000000000014,-0.30600205416080745
-0.12470000000000003,-0.30628499642078044
-0.12570000000000014,-0.30727529433068596
-0.12670000000000003,-0.310670601450362
-0.12770000000000015,-0.30982177467044303
-0.12870000000000004,-0.31052913032037555
-0.12970000000000015,-0.3144903219599976
-0.13070000000000004,-0.3159050332598627
-0.13170000000000015,-0.31604650438984916
-0.13270000000000004,-0.3171782734297412
-0.13370000000000015,-0.31958328263951175
-0.13470000000000004,-0.32000769602947127
-0.13570000000000015,-0.3171782734297412
-0.13670000000000004,-0.31986622489948474
-0.13770000000000016,-0.3211394650693633
-0.13870000000000005,-0.32354447427913385
-0.13970000000000016,-0.326373896878864
-0.14070000000000005,-0.3243933010590529
-0.14170000000000016,-0.3246762433190259
-0.14270000000000005,-0.326373896878864
-0.14370000000000016,-0.3287789060886345
-0.14470000000000005,-0.328920377218621
-0.14570000000000016,-0.3290618483486075
-0.14670000000000005,-0.33245715546828364
-0.14770000000000016,-0.3340133378981352
-0.14870000000000005,-0.33288156885824316
-0.14970000000000017,-0.3340133378981352
-0.15070000000000006,-0.33571099145797323
-0.15170000000000017,-0.33684276049786527
-0.15270000000000006,-0.3378330584077708
-0.15370000000000017,-0.3378330584077708
-0.15470000000000006,-0.33995512535756833
-0.15570000000000017,-0.3416527789174064
-0.15670000000000006,-0.34108689439746037
-0.15770000000000017,-0.3425016056973254
-0.15870000000000006,-0.3389648274476628
-0.15970000000000018,-0.3396721830975953
-0.16070000000000007,-0.3422186634373524
-0.16170000000000018,-0.34462367264712296
-0.16270000000000007,-0.34363337473721745
-0.16370000000000018,-0.345472499427042
-0.16470000000000007,-0.346038383946988
-0.16570000000000018,-0.3492922199366776
-0.16670000000000007,-0.34844339315675854
-0.16770000000000018,-0.34816045089678554
-0.16870000000000007,-0.34915074880669106
-0.16970000000000018,-0.3528289981863401
-0.17070000000000007,-0.3528289981863401
-0.17170000000000019,-0.3533948827062862
-0.17270000000000008,-0.3536778249662592
-0.1737000000000002,-0.3541022383562187
-0.17470000000000008,-0.3539607672262322
-0.1757000000000002,-0.3572146032159218
-0.17670000000000008,-0.36046843920561134
-0.1777000000000002,-0.3570731320859353
-0.17870000000000008,-0.3565072475659892
-0.1797000000000002,-0.3567901898259622
-0.18070000000000008,-0.3577804877358678
-0.1817000000000002,-0.35990255468566534
-0.18270000000000008,-0.3610343237255574
-0.1837000000000002,-0.36287344841538194
-0.1847000000000001,-0.3649955153651795
-0.1857000000000002,-0.36442963084523344
-0.1867000000000001,-0.36541992875513896
-0.1877000000000002,-0.365985813275085
-0.1887000000000001,-0.368249351354869
-0.1897000000000002,-0.3672590534449635
-0.1907000000000001,-0.36994700491470706
-0.1917000000000001,-0.3712202450845856
-0.19269999999999998,-0.3717861296045316
-0.1937000000000001,-0.37263495638445066
-0.19469999999999998,-0.3744740810742752
-0.1957000000000001,-0.3740496676843157
-0.19669999999999999,-0.3737667254243427
-0.1977000000000001,-0.37419113881430216
-0.1987,-0.3760302635041267
-0.1997000000000001,-0.37560585011416725
-0.2007,-0.37744497480399175
-0.2017000000000001,-0.3802743974037219
-0.2027,-0.38211352209354643
-0.2037000000000001,-0.3799914551437488
-0.2047,-0.38140616644361386
-0.2057000000000001,-0.3823964643535194
-0.2067,-0.3822549932235329
-0.2077000000000001,-0.3812646953136274
-0.2087,-0.3815476375736004
-0.2097000000000001,-0.3835282333934114
-0.2107,-0.384235589043344
-0.2117000000000001,-0.38437706017333045
-0.2127,-0.38508441582326297
-0.2137000000000001,-0.38409411791335746
-0.2147,-0.385933242603182
-0.2157000000000001,-0.38791383842299304
-0.2167,-0.38961149198283107
-0.21770000000000012,-0.38890413633289855
-0.2187,-0.38918707859287155
-0.21970000000000012,-0.3915920878026421
-0.2207,-0.3903188476327636
-0.22170000000000012,-0.39215797232258814
-0.2227,-0.39357268362245323
-0.22370000000000012,-0.3949873949223182
-0.2247,-0.3952703371822912
-0.22570000000000012,-0.39725093300210224
-0.2267,-0.39710946187211577
-0.22770000000000012,-0.39682651961214277
-0.22870000000000001,-0.3986656443019673
-0.22970000000000013,-0.3956947505722508
-0.23070000000000002,-0.39809975978202133
-0.23170000000000013,-0.4007877112517649
-0.23270000000000002,-0.40092918238175135
-0.23370000000000013,-0.4013535957717109
-0.23470000000000002,-0.4010706535117379
-0.23570000000000013,-0.4019194802916569
-0.23670000000000002,-0.4013535957717109
-0.2376999999999999,-0.40064624012177835
-0.23870000000000002,-0.40092918238175135
-0.2396999999999999,-0.40333419159152195
-0.24070000000000003,-0.40404154724145447
-0.24169999999999991,-0.40559772967130603
-0.24270000000000003,-0.40602214306126555
-0.24369999999999992,-0.4054562585413195
-0.24470000000000003,-0.40559772967130603
-0.24569999999999992,-0.40432448950142746
-0.24670000000000003,-0.40687096984118454
-0.24769999999999992,-0.406446556451225
-0.24870000000000003,-0.40687096984118454
-0.24969999999999992,-0.4077197966211036
-0.25070000000000003,-0.40856862340102257
-0.2516999999999999,-0.4082856811410496
-0.25270000000000004,-0.4088515656609956
-0.2536999999999999,-0.41054921922083365
-0.25470000000000004,-0.4106906903508202
-0.2556999999999999,-0.4112565748707662
-0.25670000000000004,-0.41083216148080665
-0.25769999999999993,-0.41012480583087413
-0.25870000000000004,-0.40913450792096867
-0.25969999999999993,-0.4106906903508202
-0.26070000000000004,-0.41054921922083365
-0.26169999999999993,-0.4106906903508202
-0.26270000000000004,-0.4112565748707662
-0.26369999999999993,-0.4119639305206987
-0.26470000000000005,-0.4123883439106582
-0.26569999999999994,-0.41422746860048276
-0.26670000000000005,-0.4160665932903073
-0.26769999999999994,-0.4166324778102533
-0.26870000000000005,-0.41380305521052324
-0.26969999999999994,-0.4153592376403748
-0.27070000000000005,-0.4166324778102533
-0.27169999999999994,-0.41776424685014535
-0.27270000000000005,-0.4176227757201588
-0.27369999999999994,-0.41847160250007787
-0.27470000000000006,-0.4198863137999429
-0.27569999999999995,-0.42031072718990237
-0.27670000000000006,-0.42299867865964597
-0.27769999999999995,-0.42568663012938956
-0.27870000000000006,-0.4290819372490656
-0.27969999999999995,-0.43007223515897114
-0.28070000000000006,-0.42823311046914664
-0.28169999999999995,-0.4280916393391601
-0.28270000000000006,-0.42894046611907916
-0.28369999999999995,-0.4290819372490656
-0.28470000000000006,-0.43049664854893066
-0.28569999999999995,-0.43318460001867426
-0.28670000000000007,-0.4336090134086337
-0.28769999999999996,-0.4338919556686068
-0.28870000000000007,-0.43530666696847176
-0.28969999999999996,-0.43459931131853924
-0.29070000000000007,-0.43587255148841775
-0.29169999999999996,-0.43686284939832337
-0.29270000000000007,-0.43672137826833685
-0.29369999999999996,-0.43827756069818835
-0.2947000000000001,-0.43728726278828284
-0.29569999999999996,-0.43940932973808033
-0.2967000000000001,-0.4392678586080939
-0.29769999999999996,-0.4408240410379454
-0.2987000000000001,-0.44238022346779693
-0.29969999999999997,-0.44238022346779693
-0.3007000000000001,-0.443511992507689
-0.30169999999999997,-0.4463414151074191
-0.3027000000000001,-0.44605847284744604
-0.30369999999999997,-0.44775612640728407
-0.3047000000000001,-0.44888789544717617
-0.30569999999999997,-0.45086849126698714
-0.3067000000000001,-0.45086849126698714
-0.3077,-0.4520002603068792
-0.3087000000000001,-0.45256614482682517
-0.3097,-0.4536979138667173
-0.3107000000000001,-0.4528490870867982
-0.3117,-0.4546882117766228
-0.3127000000000001,-0.4558199808165148
-0.3137,-0.4558199808165148
-0.3147000000000001,-0.4572346921163799
-0.3157,-0.4583664611562719
-0.3167000000000001,-0.4594982301961639
-0.3177,-0.45822499002628536
-0.3187000000000001,-0.46077147036604243
-0.3197,-0.46246912392588047
-0.3207000000000001,-0.46077147036604243
-0.3217,-0.46176176827594795
-0.3227000000000001,-0.46444971974569155
-0.3237,-0.46473266200566454
-0.3247000000000001,-0.4641667774857185
-0.3257,-0.46685472895546215
-0.3267000000000001,-0.46699620008544857
-0.3277,-0.46756208460539456
-0.3287000000000001,-0.47025003607513816
-0.3297,-0.47095739172507073
-0.3307000000000001,-0.47109886285505725
-0.3317,-0.47251357415492223
-0.3327000000000001,-0.4730794586748682
-0.3337,-0.4740697565847738
-0.3347000000000001,-0.4747771122347063
-0.3357,-0.4776065348344364
-0.3367000000000001,-0.47689917918450386
-0.3377,-0.47689917918450386
-0.3387000000000001,-0.47972860178423393
-0.3397,-0.480577428564153
-0.3407000000000001,-0.4798700729142204
-0.3417,-0.48241655325397753
-0.3427000000000001,-0.4853874469836941
-0.3437,-0.48835834071341067
-0.3447000000000001,-0.4911877633131407
-0.3457,-0.4941586570428573
-0.3467000000000001,-0.49316835913295176
-0.3477,-0.4950074838227763
-0.3487000000000001,-0.4964221951226413
-0.3497,-0.49981750224231747
-0.3507000000000001,-0.501656626932142
-0.3517,-0.5027883959720341
-0.3527000000000001,-0.504486049531872
-0.3537,-0.5026469248420475
-0.3547000000000001,-0.504203107271899
-0.3557,-0.5071740010016156
-0.35670000000000013,-0.5081642989115212
-0.3577,-0.5107107792512783
-0.35870000000000013,-0.5142475575009409
-0.3597,-0.5166525667107114
-0.36070000000000013,-0.518491691400536
-0.3617,-0.5218869985202121
-0.3626999999999999,-0.5228772964301176
-0.3637,-0.5265555458097667
-0.3646999999999999,-0.5275458437196722
-0.3657,-0.5324973332691998
-0.3666999999999999,-0.5340535156990515
-0.3677,-0.5353267558689299
-0.3686999999999999,-0.5385805918586195
-0.36970000000000003,-0.5411270721983766
-0.3706999999999999,-0.5455126772279582
-0.37170000000000003,-0.5480591575677152
-0.3726999999999999,-0.5507471090374588
-0.37370000000000003,-0.553293589377216
-0.3746999999999999,-0.5562644831069326
-0.37570000000000003,-0.559801261356595
-0.3766999999999999,-0.5616403860464196
-0.37770000000000004,-0.5648942220361092
-0.3786999999999999,-0.5663089333359742
-0.37970000000000004,-0.5721092496654209
-0.3806999999999999,-0.5746557300051779
-0.38170000000000004,-0.576919268084962
-0.38269999999999993,-0.5811634019845571
-0.38370000000000004,-0.5838513534543007
-0.38469999999999993,-0.5880954873538957
-0.38570000000000004,-0.5896516697837473
-0.38669999999999993,-0.5834269400643411
-0.38570000000000004,-0.5678651157658258
-0.38469999999999993,-0.5542838872871214
-0.38370000000000004,-0.5452297349679852
-0.38269999999999993,-0.5353267558689299
-0.38170000000000004,-0.5258481901598342
-0.3806999999999999,-0.5186331625305225
-0.37970000000000004,-0.5114181349012108
-0.3786999999999999,-0.5026469248420475
-0.37770000000000004,-0.49599778173268183
-0.3766999999999999,-0.4884998118433972
-0.37570000000000003,-0.48312390890391005
-0.3746999999999999,-0.47435269884474673
-0.37370000000000003,-0.4677035557353811
-0.3726999999999999,-0.4621861816659074
-0.37170000000000003,-0.4544052695166497
-0.3706999999999999,-0.4484634820572166
-0.36970000000000003,-0.4433705213777025
-0.3686999999999999,-0.4370043205283098
-0.3677,-0.4299307640289846
-0.3666999999999999,-0.4265354569093086
-0.3657,-0.4196033715399699
-0.3646999999999999,-0.4126712861706312
-0.3637,-0.4078612677510901
-0.3626999999999999,-0.40460743176140046
-0.3617,-0.3978168175220483
-0.36070000000000013,-0.3942800392723857
-0.3597,-0.38791383842299304
-0.35870000000000013,-0.38366970452339794
-0.3577,-0.3792840994938163
-0.35670000000000013,-0.3750399655942212
-0.3557,-0.37164465847454514
-0.3547000000000001,-0.3637222751953009
-0.3537,-0.35933667016571935
-0.3527000000000001,-0.35509253626612425
-0.3517,-0.3509898734965156
-0.3507000000000001,-0.34759456637683955
-0.3497,-0.34136983665743337
-0.3487000000000001,-0.3382574717977303
-0.3477,-0.3350036358080407
-0.3467000000000001,-0.3303350885184861
-0.3457,-0.32552507009894494
-0.3447000000000001,-0.32241270523924187
-0.3437,-0.3171782734297412
-0.3427000000000001,-0.3136414951800786
-0.3417,-0.31095354371033507
-0.3407000000000001,-0.30755823659065895
-0.3397,-0.30232380478115833
-0.3387000000000001,-0.29822114201154976
-0.3377,-0.2963820173217252
-0.3367000000000001,-0.29256229681208956
-0.3357,-0.28930846082239997
-0.3347000000000001,-0.28506432692280487
-0.3337,-0.2809616641531963
-0.3327000000000001,-0.2775663570335202
-0.3317,-0.27558576121370915
-0.3307000000000001,-0.27176604070407356
-0.3297,-0.26766337793446493
-0.3287000000000001,-0.2649754264647214
-0.3277,-0.2625704172549508
-0.3267000000000001,-0.2584677544853422
-0.3257,-0.2552139184956526
-0.3247000000000001,-0.2532333226758416
-0.3237,-0.24913065990623293
-0.3227000000000001,-0.24672565069646235
-0.3217,-0.2446035837466648
-0.3207000000000001,-0.24106680549700227
-0.3197,-0.23781296950731265
-0.3187000000000001,-0.23512501803756908
-0.3177,-0.23300295108777153
-0.3167000000000001,-0.22904175944814942
-0.3157,-0.22649527910839237
-0.3147000000000001,-0.2242317410286083
-0.3137,-0.22126084729889173
-0.3127000000000001,-0.2189973092191077
-0.3117,-0.21701671339929662
-0.3107000000000001,-0.21489464644949907
-0.3097,-0.21121639706985
-0.3087000000000001,-0.20838697447011992
-0.3077,-0.20569902300037635
-0.3067000000000001,-0.2040013694405383
-0.30569999999999997,-0.20032312006088918
-0.3047000000000001,-0.1973522263311726
-0.30369999999999997,-0.19636192842126707
-0.3027000000000001,-0.19381544808151
-0.30169999999999997,-0.19141043887173945
-0.3007000000000001,-0.18843954514202288
-0.29969999999999997,-0.1860345359322523
-0.2987000000000001,-0.18235628655260325
-0.29769999999999996,-0.18094157525273818
-0.2967000000000001,-0.17995127734283267
-0.29569999999999996,-0.17797068152302162
-0.2947000000000001,-0.17485831666331855
-0.29369999999999996,-0.1734436053634535
-0.29270000000000007,-0.17160448067362896
-0.29169999999999996,-0.16863358694391237
-0.29070000000000007,-0.16651151999411481
-0.28969999999999996,-0.16481386643427676
-0.28870000000000007,-0.1622673860945197
-0.28769999999999996,-0.16056973253468165
-0.28670000000000007,-0.16000384801473563
-0.28569999999999995,-0.15802325219492458
-0.28470000000000006,-0.155335300725181
-0.28369999999999995,-0.154203531685289
-0.28270000000000006,-0.15208146473549145
-0.28169999999999995,-0.1498179266557074
-0.28070000000000006,-0.14840321535584233
