Potential V vs RHE, Current mA cm-2
0.013299999999999867,3.4872633541673155
0.012299999999999978,1.7867803717295414
0.011299999999999866,0.21588494435940458
0.010299999999999976,-1.2234423321232837
0.009299999999999864,-2.532333226758415
0.008299999999999974,-3.7093730282461257
0.007299999999999862,-4.843971490737885
0.006299999999999972,-5.9347139029338285
0.00529999999999986,-6.93774421453814
0.0042999999999999705,-7.940774526142452
0.0032999999999998586,-8.85609273715513
0.0022999999999999687,-9.685113558876042
0.0012999999999998568,-10.470278330301136
0.00029999999999996696,-11.211587051430415
-0.000700000000000145,-11.952895772559694
-0.0017000000000000348,-12.694204493688973
-0.0027000000000001467,-13.349215825526485
-0.0037000000000000366,-13.960371107068182
-0.0047000000000001485,-14.486643710617974
-0.005700000000000038,-14.967645552572087
-0.00670000000000015,-15.533530072518102
-0.00770000000000004,-16.056973253468165
-0.008700000000000152,-16.580416434418233
-0.009700000000000042,-17.061418276372343
-0.010700000000000154,-17.4433903273359
-0.011700000000000044,-17.881950830294063
-0.012700000000000156,-18.27806999425627
-0.013700000000000045,-18.716630497214435
-0.014700000000000157,-19.197632339168546
-0.015700000000000047,-19.537163051136158
-0.01670000000000016,-19.890840876102416
-0.01770000000000005,-20.159636023076775
-0.01870000000000016,-20.371842718056527
-0.01970000000000005,-20.584049413036283
-0.020700000000000163,-20.93772723800254
-0.021700000000000053,-21.291405062968803
-0.022700000000000164,-21.58849443594046
-0.023700000000000054,-21.857289582914817
-0.024700000000000166,-22.069496277894572
-0.025700000000000056,-22.196820294882425
-0.026700000000000168,-22.38073276386488
-0.027700000000000058,-22.63538079784059
-0.02870000000000017,-22.946617283810895
-0.02970000000000006,-23.15882397879065
-0.03070000000000017,-23.342736447773106
-0.03170000000000006,-23.55494314275286
-0.03270000000000017,-23.767149837732617
-0.03370000000000006,-24.035944984706973
-0.034700000000000175,-24.290593018682678
-0.035700000000000065,-24.474505487665134
-0.03670000000000018,-24.64427084364894
-0.03770000000000007,-24.729153521640843
-0.03870000000000018,-24.870624651627345
-0.03970000000000007,-24.997948668615198
-0.04070000000000018,-25.210155363594954
-0.04170000000000007,-25.43650917157336
-0.04270000000000018,-25.648715866553115
-0.04370000000000007,-25.86092256153287
-0.044700000000000184,-25.959952352523427
-0.045700000000000074,-26.087276369511276
-0.046700000000000186,-26.129717708507226
-0.047700000000000076,-26.257041725495082
-0.04870000000000019,-26.38436574248293
-0.04970000000000008,-26.525836872469437
-0.05070000000000019,-26.61071955046134
-0.05170000000000008,-26.738043567449193
-0.05270000000000019,-26.907808923433
-0.05370000000000008,-27.176604070407354
-0.05470000000000019,-27.38881076538711
-0.05570000000000008,-27.615164573365515
-0.056700000000000195,-27.742488590353368
-0.057700000000000085,-27.827371268345274
-0.058700000000000196,-27.827371268345274
-0.059700000000000086,-27.869812607341224
-0.0607000000000002,-28.011283737327723
-0.06170000000000009,-28.265931771303435
-0.0627000000000002,-28.53472691827779
-0.06370000000000009,-28.746933613257543
-0.0647000000000002,-28.8742576302454
-0.06570000000000009,-28.91669896924135
-0.0667000000000002,-28.959140308237306
-0.0677000000000001,-29.058170099227848
-0.0687000000000002,-29.22793545521166
-0.0697000000000001,-29.440142150191413
-0.07070000000000021,-29.66649595816982
-0.0717000000000001,-29.751378636161718
-0.07270000000000021,-29.836261314153624
-0.0737000000000001,-29.921143992145527
-0.07470000000000021,-30.10505646112798
-0.0757000000000001,-30.317263156107735
-0.07670000000000021,-30.571911190083444
-0.0777000000000001,-30.8407063370578
-0.07870000000000021,-30.925589015049702
-0.0797000000000001,-31.095354371033505
-0.08070000000000022,-31.23682550102001
-0.0817000000000001,-31.27926684001596
-0.08270000000000022,-31.36414951800786
-0.08370000000000011,-31.533914873991666
-0.08470000000000022,-31.76026868197007
-0.08570000000000011,-31.972475376949827
-0.08670000000000022,-32.14224073293363
-0.08770000000000011,-32.32615320191609
-0.08870000000000022,-32.41103587990799
-0.08970000000000011,-32.45347721890394
-0.09070000000000022,-32.53835989689585
-0.09170000000000011,-32.66568391388369
-0.09270000000000023,-32.84959638286615
-0.09370000000000012,-33.01936173884996
-0.09470000000000023,-33.231568433829715
-0.09570000000000012,-33.41548090281216
-0.09670000000000023,-33.627687597791926
-0.09770000000000012,-33.85404140577033
-0.09870000000000023,-34.10868943974604
-0.09970000000000012,-34.33504324772444
-0.10070000000000023,-34.50480860370825
-0.10170000000000012,-34.632132620696105
-0.10270000000000024,-34.67457395969205
-0.10370000000000013,-34.8018979766799
-0.10470000000000024,-34.98581044566235
-0.10570000000000013,-35.198017140642115
-0.10670000000000024,-35.46681228761647
-0.10770000000000013,-35.721460321592176
-0.10870000000000024,-35.90537279057463
-0.10970000000000013,-35.99025546856653
-0.11070000000000024,-36.03269680756248
-0.11170000000000013,-36.11757948555439
-0.11270000000000002,-36.37222751953009
-0.11370000000000013,-36.725905344496354
-0.11470000000000002,-36.99470049147071
-0.11570000000000014,-37.122024508458566
-0.11670000000000003,-37.206907186450465
-0.11770000000000014,-37.291789864442364
-0.11870000000000003,-37.47570233342482
-0.11970000000000014,-37.77279170639648
-0.12070000000000003,-38.16891087035869
-0.12170000000000014,-38.46600024333035
-0.12270000000000003,-38.734795390304704
-0.12370000000000014,-38.86211940729255
-0.12470000000000003,-38.81967806829661
-0.12570000000000014,-38.81967806829661
-0.12670000000000003,-39.08847321527096
-0.12770000000000015,-39.38556258824262
-0.12870000000000004,-39.739240413208876
-0.12970000000000015,-40.03632978618054
-0.13070000000000004,-40.26268359415894
-0.13170000000000015,-40.3900076111468
-0.13270000000000004,-40.4748902891387
-0.13370000000000015,-40.65880275812115
-0.13470000000000004,-40.743685436113054
-0.13570000000000015,-40.87100945310091
-0.13670000000000004,-41.04077480908471
-0.13770000000000016,-41.30956995605907
-0.13870000000000005,-41.66324778102533
-0.13970000000000016,-42.087661170984845
-0.14070000000000005,-42.4413389959511
-0.14170000000000016,-42.71013414292546
-0.14270000000000005,-42.79501682091736
-0.14370000000000016,-42.837458159913304
-0.14470000000000005,-42.92234083790521
-0.14570000000000016,-43.17698887188092
-0.14670000000000005,-43.57310803584313
-0.14770000000000016,-44.054109877797245
-0.14870000000000005,-44.36534636376755
-0.14970000000000017,-44.535111719751356
-0.15070000000000006,-44.66243573673921
-0.15170000000000017,-44.704877075735155
-0.15270000000000006,-44.84634820572166
-0.15370000000000017,-45.10099623969737
-0.15470000000000006,-45.45467406466363
-0.15570000000000017,-45.79420477663124
-0.15670000000000006,-46.062999923605595
-0.15770000000000017,-46.37423640957591
-0.15870000000000006,-46.628884443551605
-0.15970000000000018,-46.88353247752732
-0.16070000000000007,-47.23721030249357
-0.16170000000000018,-47.54844678846388
-0.16270000000000007,-47.80309482243959
-0.16370000000000018,-48.114331308409895
-0.16470000000000007,-48.32653800338966
-0.16570000000000018,-48.55289181136806
-0.16670000000000007,-48.72265716735186
-0.16770000000000018,-48.97730520132757
-0.16870000000000007,-49.28854168729788
-0.16970000000000018,-49.557336834272235
-0.17070000000000007,-49.85442620724389
-0.17170000000000019,-50.12322135421825
-0.17270000000000008,-50.335428049198
-0.1737000000000002,-50.547634744177756
-0.17470000000000008,-50.81642989115212
-0.1757000000000002,-51.17010771611838
-0.17670000000000008,-51.55207976708194
-0.1777000000000002,-51.82087491405629
-0.17870000000000008,-52.033081609036046
-0.1797000000000002,-52.25943541701445
-0.18070000000000008,-52.55652478998611
-0.1817000000000002,-52.95264395394832
-0.18270000000000008,-53.433645795902436
-0.1837000000000002,-53.82976495986464
-0.1847000000000001,-54.16929567183226
-0.1857000000000002,-54.43809081880661
-0.1867000000000001,-54.52297349679851
-0.1877000000000002,-54.69273885278232
-0.1887000000000001,-55.046416677748574
-0.1897000000000002,-55.400094502714836
-0.1907000000000001,-55.9235376836649
-0.1917000000000001,-56.36209818662306
-0.19269999999999998,-56.74407023758662
-0.1937000000000001,-57.012865384560975
-0.19469999999999998,-57.182630740544774
-0.1957000000000001,-57.30995475753264
-0.19669999999999999,-57.53630856551105
-0.1977000000000001,-57.8333979384827
-0.1987,-58.14463442445301
-0.1997000000000001,-58.54075358841522
-0.2007,-59.02175543036933
-0.2017000000000001,-59.54519861131939
-0.2027,-60.06864179226946
-0.2037000000000001,-60.40817250423707
-0.2047,-60.71940899020737
-0.2057000000000001,-61.07308681517363
-0.2067,-61.37017618814529
-0.2077000000000001,-61.6814126741156
-0.2087,-61.936060708091304
-0.2097000000000001,-62.24729719406162
-0.2107,-62.64341635802381
-0.2117000000000001,-63.02538840898739
-0.2127,-63.421507572949594
-0.2137000000000001,-63.81762673691181
-0.2147,-64.15715744887942
-0.2157000000000001,-64.46839393484973
-0.2167,-64.77963042082003
-0.21770000000000012,-65.20404381077954
-0.2187,-65.5577216357458
-0.21970000000000012,-65.95384079970802
-0.2207,-66.34995996367022
-0.22170000000000012,-66.68949067563783
-0.2227,-67.17049251759194
-0.22370000000000012,-67.65149435954605
-0.2247,-68.17493754049613
-0.22570000000000012,-68.61349804345427
-0.2267,-69.0944998854084
-0.22770000000000012,-69.4906190493706
-0.22870000000000001,-69.74526708334632
-0.22970000000000013,-69.91503243933012
-0.23070000000000002,-70.18382758630447
-0.23170000000000013,-70.74971210625048
-0.23270000000000002,-71.35803796519245
-0.23370000000000013,-71.96636382413442
-0.23470000000000002,-72.40492432709259
-0.23570000000000013,-72.63127813507097
-0.23670000000000002,-72.80104349105478
-0.2376999999999999,-72.97080884703858
-0.23870000000000002,-73.32448667200485
-0.2396999999999999,-73.89037119195086
-0.24070000000000003,-74.41381437290093
-0.24169999999999991,-74.89481621485504
-0.24270000000000003,-75.29093537881725
-0.24369999999999992,-75.77193722077136
-0.24470000000000003,-76.33782174071737
-0.24569999999999992,-76.98858893865528
-0.24670000000000003,-77.55447345860131
-0.24769999999999992,-77.86570994457162
-0.24870000000000003,-78.16279931754329
-0.24969999999999992,-78.38915312552167
-0.25070000000000003,-78.51647714250953
-0.2516999999999999,-78.9550376454677
-0.25270000000000004,-79.64824618240156
-0.2536999999999999,-80.25657204134353
-0.25470000000000004,-80.73757388329766
-0.2556999999999999,-81.1761343862558
-0.25670000000000004,-81.47322375922747
-0.25769999999999993,-81.65713622820991
-0.25870000000000004,-81.91178426218562
-0.25969999999999993,-82.22302074815593
-0.26070000000000004,-82.56255146012353
-0.26169999999999993,-83.14258309306821
-0.26270000000000004,-83.56699648302772
-0.26369999999999993,-83.87823296899803
-0.26470000000000005,-84.27435213296022
-0.26569999999999994,-84.7129126359184
-0.26670000000000005,-85.32123849486035
-0.26769999999999994,-85.92956435380233
-0.26870000000000005,-86.49544887374834
-0.26969999999999994,-86.89156803771054
-0.27070000000000005,-87.14621607168625
-0.27169999999999994,-87.45745255765657
-0.27270000000000005,-87.66965925263632
-0.27369999999999994,-88.02333707760259
-0.27470000000000006,-88.54678025855264
-0.27569999999999995,-89.07022343950271
-0.27670000000000006,-89.50878394246087
-0.27769999999999995,-89.76343197643658
-0.27870000000000006,-89.80587331543254
-0.27969999999999995,-89.89075599342443
-0.28070000000000006,-90.15955114039879
-0.28169999999999995,-90.55567030436099
-0.28270000000000006,-90.89520101632861
-0.28369999999999995,-91.16399616330297
-0.28470000000000006,-91.37620285828272
-0.28569999999999995,-91.68743934425302
-0.28670000000000007,-92.12599984721119
-0.28769999999999996,-92.64944302816124
-0.28870000000000007,-93.17288620911131
-0.28969999999999996,-93.46997558208298
-0.29070000000000007,-93.65388805106544
-0.29169999999999996,-93.55485826007487
-0.29270000000000007,-93.38509290409107
-0.29369999999999996,-93.34265156509512
-0.2947000000000001,-93.65388805106544
-0.29569999999999996,-94.03586010202899
-0.2967000000000001,-94.47442060498715
-0.29769999999999996,-94.7432157519615
-0.2987000000000001,-94.7432157519615
-0.29969999999999997,-94.7432157519615
-0.3007000000000001,-94.78565709095746
-0.30169999999999997,-94.91298110794531
-0.3027000000000001,-95.08274646392913
-0.30369999999999997,-95.04030512493317
-0.3047000000000001,-94.78565709095746
-0.30569999999999997,-94.55930328297906
-0.3067000000000001,-94.5168619439831
-0.3077,-94.78565709095746
-0.3087000000000001,-95.18177625491967
-0.3097,-95.52130696688728
-0.3107000000000001,-95.56374830588322
-0.3117,-95.30910027190752
-0.3127000000000001,-94.95542244694126
-0.3137,-94.4319792659912
-0.3147000000000001,-93.95097742403709
-0.3157,-93.90853608504113
-0.3167000000000001,-93.99341876303303
-0.3177,-94.07830144102493
-0.3187000000000001,-94.17733123201549
-0.3197,-93.99341876303303
-0.3207000000000001,-93.55485826007487
-0.3217,-92.98897374012887
-0.3227000000000001,-92.33820654219093
-0.3237,-91.94208737822873
-0.3247000000000001,-91.56011532726518
-0.3257,-91.20643750229891
-0.3267000000000001,-91.03667214631511
-0.3277,-90.85275967733266
-0.3287000000000001,-90.85275967733266
-0.3297,-90.93764235532454
-0.3307000000000001,-90.85275967733266
-0.3317,-90.51322896536506
-0.3327000000000001,-89.98978578441499
-0.3337,-89.28243013448247
-0.3347000000000001,-88.54678025855264
-0.3357,-88.06577841659853
-0.3367000000000001,-88.10821975559449
-0.3377,-88.27798511157829
-0.3387000000000001,-88.23554377258235
-0.3397,-88.10821975559449
-0.3407000000000001,-87.75454193062824
-0.3417,-87.27354008867411
-0.3427000000000001,-86.80668535971866
-0.3437,-86.58033155174023
-0.3447000000000001,-86.5378902127443
-0.3457,-86.5378902127443
-0.3467000000000001,-86.45300753475239
-0.3477,-86.45300753475239
-0.3487000000000001,-86.5378902127443
-0.3497,-86.80668535971866
-0.3507000000000001,-87.14621607168625
-0.3517,-87.37256987966467
-0.3527000000000001,-87.37256987966467
-0.3537,-87.23109874967815
-0.3547000000000001,-87.14621607168625
-0.3557,-87.06133339369435
-0.35670000000000013,-87.10377473269031
-0.3577,-87.41501121866061
-0.35870000000000013,-87.85357172161878
-0.3597,-88.19310243358639
-0.36070000000000013,-88.6741042755405
-0.3617,-88.9853407615108
-0.3626999999999999,-89.11266477849867
-0.3637,-89.23998879548651
-0.3646999999999999,-89.32487147347842
-0.3657,-89.42390126446898
-0.3666999999999999,-89.63610795944872
-0.3677,-90.11710980140283
-0.3686999999999999,-90.7254356603448
-0.36970000000000003,-91.46108553627462
-0.3706999999999999,-92.25332386419905
-0.37170000000000003,-92.86164972314101
-0.3726999999999999,-93.34265156509512
-0.37370000000000003,-93.78121206805329
-0.3746999999999999,-94.07830144102493
-0.37570000000000003,-94.38953792699526
-0.3766999999999999,-94.8280984299534
-0.37770000000000004,-95.52130696688728
-0.3786999999999999,-96.27110395581576
-0.37970000000000004,-97.13407784873341
-0.3806999999999999,-97.88387483766188
-0.38170000000000004,-98.49220069660386
-0.38269999999999993,-98.97320253855796
-0.38370000000000004,-99.35517458952152
-0.38469999999999993,-99.83617643147564
-0.38570000000000004,-100.62841475940007
-0.38669999999999993,-100.31717827342976
-0.38570000000000004,-97.78484504667132
-0.38469999999999993,-95.26665893291157
-0.38370000000000004,-92.98897374012887
-0.38269999999999993,-90.89520101632861
-0.38170000000000004,-89.15510611749461
-0.3806999999999999,-87.98089573860662
-0.37970000000000004,-86.80668535971866
-0.3786999999999999,-85.13732602587791
-0.37770000000000004,-83.52455514403178
-0.3766999999999999,-81.82690158419373
-0.37570000000000003,-80.21413070234757
-0.3746999999999999,-78.60135982050144
-0.37370000000000003,-77.28567831162695
-0.3726999999999999,-76.11146793273898
-0.37170000000000003,-74.80993353686314
-0.3706999999999999,-73.57913470598055
-0.36970000000000003,-72.23515897110877
-0.3686999999999999,-70.87703612323833
-0.3677,-69.57550172736251
-0.3666999999999999,-68.44373268747047
-0.3657,-67.2978165345798
-0.3646999999999999,-66.20848883368372
-0.3637,-65.03427845479574
-0.3626999999999999,-63.902509414903705
-0.3617,-62.98294706999144
-0.36070000000000013,-62.06338472507916
-0.3597,-61.242852171157445
-0.35870000000000013,-60.32328982624517
-0.3577,-59.36128614233694
-0.35670000000000013,-58.22951710244491
-0.3557,-57.012865384560975
-0.3547000000000001,-55.881096344668954
-0.3537,-54.834209982768826
-0.3527000000000001,-53.9570889768525
-0.3517,-53.12240930993213
-0.3507000000000001,-52.17455273902255
-0.3497,-51.17010771611838
-0.3487000000000001,-50.0807800152223
-0.3477,-48.97730520132757
-0.3467000000000001,-48.029448630417996
-0.3457,-47.15232762450167
-0.3447000000000001,-46.3176479575813
-0.3437,-45.36979138667173
-0.3427000000000001,-44.3229050247716
-0.3417,-43.36090134086337
-0.3407000000000001,-42.4413389959511
-0.3397,-41.66324778102533
-0.3387000000000001,-40.99833347008877
-0.3377,-40.26268359415894
-0.3367000000000001,-39.42800392723857
-0.3357,-39.046031876275016
-0.3347000000000001,-38.42355890433439
-0.3337,-37.47570233342482
-0.3327000000000001,-36.55613998851254
-0.3317,-35.806342999584075
-0.3307000000000001,-34.94336910666641
-0.3297,-34.06624810075008
-0.3287000000000001,-33.06180307784591
-0.3277,-32.184682071929586
-0.3267000000000001,-31.36414951800786
-0.3257,-30.529469851087494
-0.3247000000000001,-29.751378636161718
-0.3237,-29.001581647233255
-0.3227000000000001,-28.22349043230748
-0.3217,-27.43125210438306
-0.3207000000000001,-26.61071955046134
-0.3197,-25.81848122253692
-0.3187000000000001,-25.210155363594954
-0.3177,-24.559388165657033
-0.3167000000000001,-23.908620967719123
-0.3157,-23.15882397879065
-0.3147000000000001,-22.42317410286083
-0.3137,-21.67337711393236
-0.3127000000000001,-20.980168576998494
-0.3117,-20.286960040064624
-0.3107000000000001,-19.579604390132108
-0.3097,-18.88639585319824
-0.3087000000000001,-18.23562865526032
-0.3077,-17.542420118326454
-0.3067000000000001,-16.877505807389888
-0.30569999999999997,-16.269179948447924
-0.3047000000000001,-15.575971411514052
-0.30369999999999997,-14.925204213576137
-0.3027000000000001,-14.26028990263957
-0.30169999999999997,-13.610937416001518
-0.3007000000000001,-12.955926084164007
-0.29969999999999997,-12.390041564217992
-0.2987000000000001,-11.82274233297211
-0.29769999999999996,-11.255443101726232
-0.2967000000000001,-10.688143870480351
-0.29569999999999996,-10.120844639234473
-0.2947000000000001,-9.511104068992642
-0.29369999999999996,-8.899948787450944
-0.29270000000000007,-8.376505606500881
-0.29169999999999996,-7.809206375255003
-0.29070000000000007,-7.28576319430494
-0.28969999999999996,-6.719878674358924
-0.28870000000000007,-6.152579443113044
-0.28769999999999996,-5.629136262162981
-0.28670000000000007,-5.105693081212917
-0.28569999999999995,-4.582249900262854
-0.28470000000000006,-4.102662769608606
-0.28369999999999995,-3.623075638954359
-0.28270000000000006,-3.0996324580042955
-0.28169999999999995,-2.576189277054232
-0.28070000000000006,-2.095187435100119
-0.27969999999999995,-1.6156003044458718
-0.27870000000000006,-1.1362961160515976
-0.27769999999999995,-0.7437137303390498
-0.27670000000000006,-0.26384365742482935
-0.27569999999999995,0.21588494435940458
-0.27470000000000006,0.6956135461436386
-0.27369999999999994,1.175483619057859
-0.27270000000000005,1.5675001202504606
-0.27169999999999994,2.004645911908757
-0.27070000000000005,2.396520941971372
-0.26969999999999994,2.7898106833338523
-0.26870000000000005,3.225541763692284
-0.26769999999999994,3.661272844050715
-0.26670000000000005,4.098418635709011
-0.26569999999999994,4.490293665771627
-0.26470000000000005,4.839727356838291
-0.26369999999999993,5.231602386900906
