Potential V vs RHE, Current mA cm-2
0.013299999999999867,3.1378296631006513
0.012299999999999978,1.3063444142953748
0.011299999999999866,-0.48199213986401795
0.010299999999999976,-2.1390434853959355
0.009299999999999864,-3.7532290785419424
0.008299999999999974,-5.279702571096316
0.007299999999999862,-6.762320013354876
0.006299999999999972,-8.202496116617484
0.00529999999999986,-9.55496011928846
0.0042999999999999705,-10.906009410659568
0.0032999999999998586,-12.170761312738911
0.0022999999999999687,-13.436927926118118
0.0012999999999998568,-14.69885040559773
0.00029999999999996696,-15.87306078448571
-0.000700000000000145,-17.061418276372343
-0.0017000000000000348,-18.15074597726842
-0.0027000000000001467,-19.2400736781645
-0.0037000000000000366,-20.286960040064624
-0.0047000000000001485,-21.291405062968803
-0.005700000000000038,-22.295850085872978
-0.00670000000000015,-23.2012653177866
-0.00770000000000004,-24.078386323702922
-0.008700000000000152,-24.95550732961925
-0.009700000000000042,-25.77603988354097
-0.010700000000000154,-26.65316088945729
-0.011700000000000044,-27.487840556377662
-0.012700000000000156,-28.265931771303435
-0.013700000000000045,-29.001581647233255
-0.014700000000000157,-29.836261314153624
-0.015700000000000047,-30.571911190083444
-0.01670000000000016,-31.321708179011907
-0.01770000000000005,-32.01491671594578
-0.01870000000000016,-32.70812525287965
-0.01970000000000005,-33.330598224820264
-0.020700000000000163,-33.98136542275818
-0.021700000000000053,-34.5472499427042
-0.022700000000000164,-35.11313446265021
-0.023700000000000054,-35.679018982596226
-0.024700000000000166,-36.16002082455034
-0.025700000000000056,-36.6834640055004
-0.026700000000000168,-37.206907186450465
-0.027700000000000058,-37.687909028404576
-0.02870000000000017,-38.211352209354644
-0.02970000000000006,-38.734795390304704
-0.03070000000000017,-39.21579723225882
-0.03170000000000006,-39.696799074212926
-0.03270000000000017,-40.177800916167044
-0.03370000000000006,-40.616361419125205
-0.034700000000000175,-41.04077480908471
-0.035700000000000065,-41.52177665103883
-0.03670000000000018,-41.91789581500104
-0.03770000000000007,-42.3564563179592
-0.03870000000000018,-42.752575481921404
-0.03970000000000007,-43.134547532884966
-0.04070000000000018,-43.48822535785123
-0.04170000000000007,-43.84190318281749
-0.04270000000000018,-44.181433894785094
-0.04370000000000007,-44.535111719751356
-0.044700000000000184,-44.88878954471762
-0.045700000000000074,-45.18587891768927
-0.046700000000000186,-45.497115403659585
-0.047700000000000076,-45.79420477663124
-0.04870000000000019,-46.10544126260155
-0.04970000000000008,-46.37423640957591
-0.05070000000000019,-46.628884443551605
-0.05170000000000008,-46.88353247752732
-0.05270000000000019,-47.15232762450167
-0.05370000000000008,-47.40697565847737
-0.05470000000000019,-47.71821214444768
-0.05570000000000008,-47.987007291422046
-0.056700000000000195,-48.2840966643937
-0.057700000000000085,-48.63777448935996
-0.058700000000000196,-48.93486386233162
-0.059700000000000086,-49.24610034830193
-0.0607000000000002,-49.557336834272235
-0.06170000000000009,-49.85442620724389
-0.0627000000000002,-50.1656626932142
-0.06370000000000009,-50.42031072718991
-0.0647000000000002,-50.64666453516831
-0.06570000000000009,-50.85887123014807
-0.0667000000000002,-51.071077925127824
-0.0677000000000001,-51.29743173310623
-0.0687000000000002,-51.594521106077885
-0.0697000000000001,-51.86331625305225
-0.07070000000000021,-52.075522948032
-0.0717000000000001,-52.30187675601041
-0.07270000000000021,-52.514083450990164
-0.0737000000000001,-52.74043725896857
-0.07470000000000021,-52.95264395394832
-0.0757000000000001,-53.12240930993213
-0.07670000000000021,-53.30632177891458
-0.0777000000000001,-53.476087134898386
-0.07870000000000021,-53.64585249088219
-0.0797000000000001,-53.82976495986464
-0.08070000000000022,-54.0419716548444
-0.0817000000000001,-54.26832546282281
-0.08270000000000022,-54.480532157802564
-0.08370000000000011,-54.791768643772876
-0.08470000000000022,-55.088858016744524
-0.08570000000000011,-55.484977180706736
-0.08670000000000022,-55.838655005673
-0.08770000000000011,-56.1781857176406
-0.08870000000000022,-56.53186354260687
-0.08970000000000011,-56.82895291557852
-0.09070000000000022,-57.097748062552874
-0.09170000000000011,-57.408984548523186
-0.09270000000000023,-57.62119124350295
-0.09370000000000012,-57.8333979384827
-0.09470000000000023,-58.017310407465146
-0.09570000000000012,-58.14463442445301
-0.09670000000000023,-58.22951710244491
-0.09770000000000012,-58.31439978043681
-0.09870000000000023,-58.39928245842871
-0.09970000000000012,-58.54075358841522
-0.10070000000000023,-58.71051894439902
-0.10170000000000012,-58.880284300382826
-0.10270000000000024,-59.14907944735718
-0.10370000000000013,-59.36128614233694
-0.10470000000000024,-59.7149639673032
-0.10570000000000013,-60.02620045327351
-0.10670000000000024,-60.36573116524111
-0.10770000000000013,-60.63452631221547
-0.10870000000000024,-60.889174346191176
-0.10970000000000013,-61.11552815416958
-0.11070000000000024,-61.37017618814529
-0.11170000000000013,-61.53994154412909
-0.11270000000000002,-61.72385401311155
-0.11370000000000013,-61.89361936909536
-0.11470000000000002,-61.97850204708726
-0.11570000000000014,-62.11997317707376
-0.11670000000000003,-62.20485585506566
-0.11770000000000014,-62.37462121104946
-0.11870000000000003,-62.501945228037314
-0.11970000000000014,-62.68585769701977
-0.12070000000000003,-62.89806439199953
-0.12170000000000014,-63.11027108697928
-0.12270000000000003,-63.37906623395363
-0.12370000000000014,-63.59127292893339
-0.12470000000000003,-63.902509414903705
-0.12570000000000014,-64.19959878787537
-0.12670000000000003,-64.46839393484973
-0.12770000000000015,-64.72304196882543
-0.12870000000000004,-65.0767197937917
-0.12970000000000015,-65.34551494076604
-0.13070000000000004,-65.64260431373769
-0.13170000000000015,-65.91139946071206
-0.13270000000000004,-66.16604749468777
-0.13370000000000015,-66.47728398065809
-0.13470000000000004,-66.73193201463377
-0.13570000000000015,-66.9582858226122
-0.13670000000000004,-67.17049251759194
-0.13770000000000016,-67.39684632557035
-0.13870000000000005,-67.693935698542
-0.13970000000000016,-67.96273084551636
-0.14070000000000005,-68.21737887949207
-0.14170000000000016,-68.44373268747047
-0.14270000000000005,-68.69838072144618
-0.14370000000000016,-68.96717586842054
-0.14470000000000005,-69.26426524139221
-0.14570000000000016,-69.57550172736251
-0.14670000000000005,-69.91503243933012
-0.14770000000000016,-70.22626892530042
-0.14870000000000005,-70.53750541127073
-0.14970000000000017,-70.8345947842424
-0.15070000000000006,-71.10338993121674
-0.15170000000000017,-71.4004793041884
-0.15270000000000006,-71.7117157901587
-0.15370000000000017,-71.92392248513846
-0.15470000000000006,-72.23515897110877
-0.15570000000000017,-72.48980700508447
-0.15670000000000006,-72.75860215205884
-0.15770000000000017,-73.0556915250305
-0.15870000000000006,-73.32448667200485
-0.15970000000000018,-73.62157604497652
-0.16070000000000007,-73.97525386994278
-0.16170000000000018,-74.28649035591307
-0.16270000000000007,-74.66846240687663
-0.16370000000000018,-75.02214023184291
-0.16470000000000007,-75.37581805680915
-0.16570000000000018,-75.71534876877676
-0.16670000000000007,-76.06902659374302
-0.16770000000000018,-76.33782174071737
-0.16870000000000007,-76.63491111368903
-0.16970000000000018,-76.98858893865528
-0.17070000000000007,-77.34226676362155
-0.17170000000000019,-77.68179747558916
-0.17270000000000008,-77.99303396155948
-0.1737000000000002,-78.29012333453113
-0.17470000000000008,-78.64380115949739
-0.1757000000000002,-78.9550376454677
-0.17670000000000008,-79.25212701843935
-0.1777000000000002,-79.56336350440966
-0.17870000000000008,-79.86045287738132
-0.1797000000000002,-80.17168936335163
-0.18070000000000008,-80.42633739732734
-0.1817000000000002,-80.73757388329766
-0.18270000000000008,-81.04881036926795
-0.1837000000000002,-81.3458997422396
-0.1847000000000001,-81.65713622820991
-0.1857000000000002,-81.95422560118158
-0.1867000000000001,-82.26546208715187
-0.1877000000000002,-82.6615812511141
-0.1887000000000001,-83.04355330207765
-0.1897000000000002,-83.43967246603985
-0.1907000000000001,-83.87823296899803
-0.1917000000000001,-84.27435213296022
-0.19269999999999998,-84.61388284492786
-0.1937000000000001,-84.96756066989411
-0.19469999999999998,-85.32123849486035
-0.1957000000000001,-85.70321054582392
-0.19669999999999999,-86.14177104878208
-0.1977000000000001,-86.58033155174023
-0.1987,-87.01889205469841
-0.1997000000000001,-87.45745255765657
-0.2007,-88.02333707760259
-0.2017000000000001,-88.54678025855264
-0.2027,-89.11266477849867
-0.2037000000000001,-89.63610795944872
-0.2047,-90.07466846240689
-0.2057000000000001,-90.51322896536506
-0.2067,-90.89520101632861
-0.2077000000000001,-91.24887884129487
-0.2087,-91.56011532726518
-0.2097000000000001,-91.81476336124088
-0.2107,-91.98452871722468
-0.2117000000000001,-92.12599984721119
-0.2127,-92.29576520319499
-0.2137000000000001,-92.4655305591788
-0.2147,-92.6070016891653
-0.2157000000000001,-92.81920838414506
-0.2167,-93.08800353111941
-0.21770000000000012,-93.42753424308701
-0.2187,-93.86609474604518
-0.21970000000000012,-94.34709658799929
-0.2207,-94.91298110794531
-0.22170000000000012,-95.56374830588322
-0.2227,-96.27110395581576
-0.22370000000000012,-96.92187115375367
-0.2247,-97.57263835169158
-0.22570000000000012,-98.2234055496295
-0.2267,-98.83173140857146
-0.22770000000000012,-99.41176304151614
-0.22870000000000001,-99.87861777047159
-0.22970000000000013,-100.23229559543785
-0.23070000000000002,-100.58597342040412
-0.23170000000000013,-100.88306279337576
-0.23270000000000002,-101.23674061834203
-0.23370000000000013,-101.59041844330828
-0.23470000000000002,-101.80262513828804
-0.23570000000000013,-102.07142028526239
-0.23670000000000002,-102.36850965823406
-0.2376999999999999,-102.76462882219626
-0.23870000000000002,-103.20318932515443
-0.2396999999999999,-103.64174982811258
-0.24070000000000003,-104.12275167006669
-0.24169999999999991,-104.58960639902216
-0.24270000000000003,-105.11304957997223
-0.24369999999999992,-105.73552255191284
-0.24470000000000003,-106.30140707185885
-0.24569999999999992,-106.82485025280893
-0.24670000000000003,-107.39073477275493
-0.24769999999999992,-107.95661929270095
-0.24870000000000003,-108.52250381264696
-0.24969999999999992,-109.08838833259297
-0.25070000000000003,-109.61183151354304
-0.2516999999999999,-110.1352746944931
-0.25270000000000004,-110.65871787544317
-0.2536999999999999,-111.18216105639323
-0.25470000000000004,-111.6207215593514
-0.2556999999999999,-112.10172340130552
-0.25670000000000004,-112.62516658225556
-0.25769999999999993,-113.10616842420968
-0.25870000000000004,-113.53058181416918
-0.25969999999999993,-113.96914231712736
-0.26070000000000004,-114.3228201420936
-0.26169999999999993,-114.67649796705987
-0.26270000000000004,-115.05847001802343
-0.26369999999999993,-115.5819131989735
-0.26470000000000005,-116.14779771891952
-0.26569999999999994,-116.77027069086012
-0.26670000000000005,-117.3785965498021
-0.26769999999999994,-118.11424642573192
-0.26870000000000005,-118.86404341466037
-0.26969999999999994,-119.55725195159425
-0.27070000000000005,-120.25046048852812
-0.27169999999999994,-120.85878634747009
-0.27270000000000005,-121.38222952842017
-0.27369999999999994,-121.82079003137831
-0.27470000000000006,-122.25935053433648
-0.27569999999999995,-122.69791103729463
-0.27670000000000006,-123.1364715402528
-0.27769999999999995,-123.57503204321095
-0.27870000000000006,-124.05603388516508
-0.27969999999999995,-124.57947706611512
-0.28070000000000006,-125.23024426405304
-0.28169999999999995,-125.92345280098691
-0.28270000000000006,-126.80057380690324
-0.28369999999999995,-127.66354769982091
-0.28470000000000006,-128.62555138372915
-0.28569999999999995,-129.5451137286414
-0.28670000000000007,-130.50711741254963
-0.28769999999999996,-131.4266797574619
-0.28870000000000007,-132.16232963339172
-0.28969999999999996,-132.99700930031207
-0.29070000000000007,-133.73265917624192
-0.29169999999999996,-134.42586771317576
-0.29270000000000007,-135.03419357211774
-0.29369999999999996,-135.6142252050624
-0.2947000000000001,-136.08107993401788
-0.29569999999999996,-136.47719909798008
-0.2967000000000001,-136.74599424495443
-0.29769999999999996,-137.04308361792607
-0.2987000000000001,-137.39676144289237
-0.29969999999999997,-137.83532194585052
-0.3007000000000001,-138.3163237878046
-0.30169999999999997,-138.8397669687547
-0.3027000000000001,-139.4056514887007
-0.30369999999999997,-140.0988600256346
-0.3047000000000001,-140.89109835355902
-0.30569999999999997,-141.75407224647665
-0.3067000000000001,-142.6028990263957
-0.3077,-143.4517258063147
-0.3087000000000001,-144.15908145624724
-0.3097,-144.86643710617977
-0.3107000000000001,-145.43232162612577
-0.3117,-145.9982061460718
-0.3127000000000001,-146.5640906660178
-0.3137,-146.9885040559773
-0.3147000000000001,-147.4129174459368
-0.3157,-147.83733083589632
-0.3167000000000001,-148.12027309586935
-0.3177,-148.54468648582886
-0.3187000000000001,-148.82762874580186
-0.3197,-149.1105710057749
-0.3207000000000001,-149.6764555257209
-0.3217,-150.1008689156804
-0.3227000000000001,-150.66675343562642
-0.3237,-151.37410908555893
-0.3247000000000001,-151.93999360550492
-0.3257,-152.64734925543743
-0.3267000000000001,-153.35470490536997
-0.3277,-153.920589425316
-0.3287000000000001,-154.6279450752485
-0.3297,-155.47677185516753
-0.3307000000000001,-156.18412750510007
-0.3317,-157.03295428501906
-0.3327000000000001,-157.7403099349516
-0.3337,-158.4476655848841
-0.3347000000000001,-159.15502123481662
-0.3357,-159.72090575476264
-0.3367000000000001,-160.28679027470866
-0.3377,-160.71120366466818
-0.3387000000000001,-161.1356170546277
-0.3397,-161.41855931460069
-0.3407000000000001,-161.84297270456022
-0.3417,-162.2673860945197
-0.3427000000000001,-162.6917994844792
-0.3437,-163.11621287443873
-0.3447000000000001,-163.54062626439824
-0.3457,-163.96503965435775
-0.3467000000000001,-164.38945304431726
-0.3477,-164.9553375642633
-0.3487000000000001,-165.5212220842093
-0.3497,-166.22857773414182
-0.3507000000000001,-166.93593338407433
-0.3517,-167.50181790402033
-0.3527000000000001,-168.06770242396635
-0.3537,-168.49211581392586
-0.3547000000000001,-168.91652920388537
-0.3557,-169.3409425938449
-0.35670000000000013,-169.7653559838044
-0.3577,-170.0482982437774
-0.35870000000000013,-170.47271163373694
-0.3597,-170.75565389370993
-0.36070000000000013,-170.89712502369645
-0.3617,-171.03859615368293
-0.3626999999999999,-171.18006728366944
-0.3637,-171.46300954364247
-0.3646999999999999,-171.74595180361547
-0.3657,-172.0288940635885
-0.3666999999999999,-172.31183632356147
-0.3677,-172.45330745354798
-0.3686999999999999,-172.87772084350746
-0.36970000000000003,-173.302134233467
-0.3706999999999999,-173.58507649344
-0.37170000000000003,-173.86801875341303
-0.3726999999999999,-174.0094898833995
-0.37370000000000003,-174.150961013386
-0.3746999999999999,-174.2924321433725
-0.37570000000000003,-174.2924321433725
-0.3766999999999999,-174.43390327335902
-0.37770000000000004,-174.2924321433725
-0.3786999999999999,-174.150961013386
-0.37970000000000004,-173.86801875341303
-0.3806999999999999,-173.72654762342648
-0.38170000000000004,-173.44360536345349
-0.38269999999999993,-173.302134233467
-0.38370000000000004,-173.16066310348046
-0.38469999999999993,-172.87772084350746
-0.38570000000000004,-172.87772084350746
-0.38669999999999993,-171.46300954364247
-0.38570000000000004,-167.6432890340068
-0.38469999999999993,-163.96503965435775
-0.38370000000000004,-160.42826140469515
-0.38269999999999993,-157.17442541500557
-0.38170000000000004,-153.920589425316
-0.3806999999999999,-150.8082245656129
-0.37970000000000004,-147.6958597059098
-0.3786999999999999,-144.72496597619326
-0.37770000000000004,-141.61260111649017
-0.3766999999999999,-138.65585449977226
-0.37570000000000003,-135.6991078830543
-0.3746999999999999,-132.72821415333775
-0.37370000000000003,-129.75732042362114
-0.3726999999999999,-126.84301514589919
-0.37170000000000003,-123.95700409417452
-0.3706999999999999,-121.17002283344038
-0.36970000000000003,-118.46792425069816
-0.3686999999999999,-115.80826700695191
-0.3677,-113.27593378019348
-0.3666999999999999,-110.82848323142699
-0.3657,-108.48006247365102
-0.3646999999999999,-106.21652439386696
-0.3637,-104.06616321807209
-0.3626999999999999,-102.02897894626645
-0.3617,-99.97764756146215
-0.36070000000000013,-98.01119885464975
-0.3597,-96.04475014783733
-0.35870000000000013,-94.13488989301955
-0.3577,-92.25332386419905
-0.35670000000000013,-90.37175783537855
-0.3557,-88.5043389195567
-0.3547000000000001,-86.66521422973216
-0.3537,-84.8826779919022
-0.3527000000000001,-83.08599464107361
-0.3517,-81.30345840324367
-0.3507000000000001,-79.42189237442317
-0.3497,-77.59691479759726
-0.3487000000000001,-75.85681989876326
-0.3477,-74.10257788693062
-0.3467000000000001,-72.36248298809663
-0.3457,-70.62238808926263
-0.3447000000000001,-68.91058741642594
-0.3437,-67.2978165345798
-0.3427000000000001,-65.76992833072556
-0.3417,-64.34106991786187
-0.3407000000000001,-62.855623053003576
-0.3397,-61.455058866137186
-0.3387000000000001,-60.06864179226946
-0.3377,-58.71051894439902
-0.3367000000000001,-57.408984548523186
-0.3357,-56.093303039648696
-0.3347000000000001,-54.73518019177827
-0.3337,-53.39120445690648
-0.3327000000000001,-51.948198931044146
-0.3317,-50.547634744177756
-0.3307000000000001,-49.16121767031002
-0.3297,-47.76065348344364
-0.3287000000000001,-46.3176479575813
-0.3277,-44.93123088371356
-0.3267000000000001,-43.53066669684718
-0.3257,-42.2715736399673
-0.3247000000000001,-40.95589213109281
-0.3237,-39.696799074212926
-0.3227000000000001,-38.522588695324956
-0.3217,-37.334231203438314
-0.3207000000000001,-36.20246216354629
-0.3197,-35.07069312365426
-0.3187000000000001,-33.98136542275818
-0.3177,-32.84959638286615
-0.3167000000000001,-31.717827342974125
-0.3157,-30.614352529079397
-0.3147000000000001,-29.525024828183312
-0.3137,-28.350814449295335
-0.3127000000000001,-27.261486748399253
-0.3117,-26.17215904750318
-0.3107000000000001,-25.12527268560305
-0.3097,-24.078386323702922
-0.3087000000000001,-23.031499961802798
-0.3077,-22.027054938898623
-0.3067000000000001,-20.980168576998494
-0.30569999999999997,-19.97572355409432
-0.3047000000000001,-18.97127853119014
-0.30369999999999997,-17.966833508285966
-0.3027000000000001,-17.018976937376394
-0.30169999999999997,-16.014531914472215
-0.3007000000000001,-15.05252823056399
-0.29969999999999997,-14.090524546655764
-0.2987000000000001,-13.13135028534727
-0.29769999999999996,-12.170761312738911
-0.2967000000000001,-11.255443101726232
-0.29569999999999996,-10.382566229709504
-0.2947000000000001,-9.511104068992642
-0.29369999999999996,-8.68208324727173
-0.29270000000000007,-7.853062425550818
-0.29169999999999996,-7.024041603829907
-0.29070000000000007,-6.238876832404812
-0.28969999999999996,-5.411270721983764
-0.28870000000000007,-4.582249900262854
-0.28769999999999996,-3.7970851288377587
-0.28670000000000007,-2.968064307116847
-0.28569999999999995,-2.1828995356917518
-0.28470000000000006,-1.3980177065266295
-0.28369999999999995,-0.5692798270656908
-0.28270000000000006,0.21588494435940458
-0.28169999999999995,1.0010497157844997
-0.28070000000000006,1.7429243214337253
-0.27969999999999995,2.4842330425630044
-0.27870000000000006,3.1816857133964676
-0.27769999999999995,3.922994434525747
-0.27670000000000006,4.578005766363259
-0.27569999999999995,5.275458437196722
-0.27470000000000006,5.929055057734368
-0.27369999999999994,6.627922439867697
-0.27270000000000005,7.32537511070116
-0.27169999999999994,8.022827781534623
-0.27070000000000005,8.72169516366795
-0.26969999999999994,9.375291784205599
-0.26870000000000005,10.07274445503906
-0.26769999999999994,10.727755786876573
-0.26670000000000005,11.38135240741422
-0.26569999999999994,12.036363739251732
