Mar. 6, 2025   11:08:25
Cyclic Voltammetry
File: c:/users/guazh/data/banditlqround7_x0exp169_r20_3/2025-03-03-exp887\exp887-2025-03-06t11_01_50-h2koh\exp887_cv_sr_300mvs_efin_-1400mv.bin
Data Source:  Experiment
Instrument Model:  CHI760E
Header: CV ran at 300 mVs
Note: 

Init E (V) = -1
High E (V) = -1
Low E (V) = -1.4
Final E (V) = -1
Init P/N = N
Scan Rate (V/s) = 0.3
Segment = 3
Sample Interval (V) = 0.001
Quiet Time (sec) = 2
Sensitivity (A/V) = 0.01
Comp R (ohm) = 1.2

Results:

Channel 1:
Segment 1:
Ep = -1.299V
ip = 1.865e-3A
Ah = 5.207e-4C

Segment 2:

Segment 3:

Potential/V, Current/A

-1.000, -2.434e-4
-1.001, -1.232e-4
-1.002, -2.143e-5
-1.003, 6.798e-5
-1.004, 1.512e-4
-1.005, 2.314e-4
-1.006, 3.054e-4
-1.007, 3.701e-4
-1.008, 4.287e-4
-1.009, 4.873e-4
-1.010, 5.428e-4
-1.011, 5.952e-4
-1.012, 6.414e-4
-1.013, 6.815e-4
-1.014, 7.247e-4
-1.015, 7.679e-4
-1.016, 8.079e-4
-1.017, 8.418e-4
-1.018, 8.696e-4
-1.019, 9.004e-4
-1.020, 9.313e-4
-1.021, 9.621e-4
-1.022, 9.868e-4
-1.023, 1.008e-3
-1.024, 1.030e-3
-1.025, 1.051e-3
-1.026, 1.076e-3
-1.027, 1.095e-3
-1.028, 1.113e-3
-1.029, 1.132e-3
-1.030, 1.156e-3
-1.031, 1.178e-3
-1.032, 1.196e-3
-1.033, 1.206e-3
-1.034, 1.218e-3
-1.035, 1.233e-3
-1.036, 1.252e-3
-1.037, 1.264e-3
-1.038, 1.270e-3
-1.039, 1.286e-3
-1.040, 1.298e-3
-1.041, 1.314e-3
-1.042, 1.323e-3
-1.043, 1.326e-3
-1.044, 1.332e-3
-1.045, 1.344e-3
-1.046, 1.366e-3
-1.047, 1.381e-3
-1.048, 1.388e-3
-1.049, 1.397e-3
-1.050, 1.403e-3
-1.051, 1.415e-3
-1.052, 1.428e-3
-1.053, 1.437e-3
-1.054, 1.446e-3
-1.055, 1.449e-3
-1.056, 1.458e-3
-1.057, 1.465e-3
-1.058, 1.471e-3
-1.059, 1.480e-3
-1.060, 1.489e-3
-1.061, 1.502e-3
-1.062, 1.517e-3
-1.063, 1.526e-3
-1.064, 1.536e-3
-1.065, 1.542e-3
-1.066, 1.545e-3
-1.067, 1.548e-3
-1.068, 1.560e-3
-1.069, 1.573e-3
-1.070, 1.585e-3
-1.071, 1.594e-3
-1.072, 1.597e-3
-1.073, 1.600e-3
-1.074, 1.606e-3
-1.075, 1.616e-3
-1.076, 1.628e-3
-1.077, 1.640e-3
-1.078, 1.650e-3
-1.079, 1.662e-3
-1.080, 1.677e-3
-1.081, 1.684e-3
-1.082, 1.687e-3
-1.083, 1.687e-3
-1.084, 1.702e-3
-1.085, 1.721e-3
-1.086, 1.736e-3
-1.087, 1.739e-3
-1.088, 1.733e-3
-1.089, 1.736e-3
-1.090, 1.748e-3
-1.091, 1.764e-3
-1.092, 1.776e-3
-1.093, 1.785e-3
-1.094, 1.798e-3
-1.095, 1.813e-3
-1.096, 1.825e-3
-1.097, 1.828e-3
-1.098, 1.825e-3
-1.099, 1.835e-3
-1.100, 1.856e-3
-1.101, 1.872e-3
-1.102, 1.881e-3
-1.103, 1.881e-3
-1.104, 1.884e-3
-1.105, 1.899e-3
-1.106, 1.918e-3
-1.107, 1.924e-3
-1.108, 1.927e-3
-1.109, 1.936e-3
-1.110, 1.958e-3
-1.111, 1.980e-3
-1.112, 1.992e-3
-1.113, 1.995e-3
-1.114, 1.995e-3
-1.115, 2.007e-3
-1.116, 2.029e-3
-1.117, 2.047e-3
-1.118, 2.054e-3
-1.119, 2.054e-3
-1.120, 2.060e-3
-1.121, 2.072e-3
-1.122, 2.084e-3
-1.123, 2.097e-3
-1.124, 2.109e-3
-1.125, 2.131e-3
-1.126, 2.152e-3
-1.127, 2.158e-3
-1.128, 2.158e-3
-1.129, 2.161e-3
-1.130, 2.183e-3
-1.131, 2.208e-3
-1.132, 2.223e-3
-1.133, 2.226e-3
-1.134, 2.229e-3
-1.135, 2.242e-3
-1.136, 2.260e-3
-1.137, 2.279e-3
-1.138, 2.288e-3
-1.139, 2.294e-3
-1.140, 2.303e-3
-1.141, 2.325e-3
-1.142, 2.353e-3
-1.143, 2.371e-3
-1.144, 2.386e-3
-1.145, 2.399e-3
-1.146, 2.405e-3
-1.147, 2.408e-3
-1.148, 2.420e-3
-1.149, 2.442e-3
-1.150, 2.464e-3
-1.151, 2.476e-3
-1.152, 2.479e-3
-1.153, 2.485e-3
-1.154, 2.491e-3
-1.155, 2.516e-3
-1.156, 2.544e-3
-1.157, 2.568e-3
-1.158, 2.581e-3
-1.159, 2.590e-3
-1.160, 2.599e-3
-1.161, 2.615e-3
-1.162, 2.636e-3
-1.163, 2.658e-3
-1.164, 2.673e-3
-1.165, 2.692e-3
-1.166, 2.704e-3
-1.167, 2.716e-3
-1.168, 2.726e-3
-1.169, 2.741e-3
-1.170, 2.756e-3
-1.171, 2.778e-3
-1.172, 2.800e-3
-1.173, 2.824e-3
-1.174, 2.846e-3
-1.175, 2.871e-3
-1.176, 2.883e-3
-1.177, 2.889e-3
-1.178, 2.898e-3
-1.179, 2.923e-3
-1.180, 2.951e-3
-1.181, 2.975e-3
-1.182, 2.985e-3
-1.183, 2.985e-3
-1.184, 2.997e-3
-1.185, 3.028e-3
-1.186, 3.052e-3
-1.187, 3.068e-3
-1.188, 3.083e-3
-1.189, 3.108e-3
-1.190, 3.142e-3
-1.191, 3.167e-3
-1.192, 3.179e-3
-1.193, 3.185e-3
-1.194, 3.204e-3
-1.195, 3.237e-3
-1.196, 3.271e-3
-1.197, 3.287e-3
-1.198, 3.290e-3
-1.199, 3.299e-3
-1.200, 3.324e-3
-1.201, 3.351e-3
-1.202, 3.373e-3
-1.203, 3.388e-3
-1.204, 3.422e-3
-1.205, 3.462e-3
-1.206, 3.487e-3
-1.207, 3.496e-3
-1.208, 3.493e-3
-1.209, 3.512e-3
-1.210, 3.555e-3
-1.211, 3.595e-3
-1.212, 3.614e-3
-1.213, 3.620e-3
-1.214, 3.626e-3
-1.215, 3.651e-3
-1.216, 3.681e-3
-1.217, 3.703e-3
-1.218, 3.715e-3
-1.219, 3.746e-3
-1.220, 3.786e-3
-1.221, 3.829e-3
-1.222, 3.851e-3
-1.223, 3.860e-3
-1.224, 3.879e-3
-1.225, 3.906e-3
-1.226, 3.940e-3
-1.227, 3.968e-3
-1.228, 3.990e-3
-1.229, 4.005e-3
-1.230, 4.027e-3
-1.231, 4.048e-3
-1.232, 4.067e-3
-1.233, 4.085e-3
-1.234, 4.110e-3
-1.235, 4.162e-3
-1.236, 4.206e-3
-1.237, 4.233e-3
-1.238, 4.233e-3
-1.239, 4.233e-3
-1.240, 4.261e-3
-1.241, 4.317e-3
-1.242, 4.357e-3
-1.243, 4.375e-3
-1.244, 4.378e-3
-1.245, 4.397e-3
-1.246, 4.431e-3
-1.247, 4.468e-3
-1.248, 4.492e-3
-1.249, 4.505e-3
-1.250, 4.517e-3
-1.251, 4.551e-3
-1.252, 4.603e-3
-1.253, 4.653e-3
-1.254, 4.680e-3
-1.255, 4.690e-3
-1.256, 4.699e-3
-1.257, 4.723e-3
-1.258, 4.764e-3
-1.259, 4.797e-3
-1.260, 4.819e-3
-1.261, 4.819e-3
-1.262, 4.825e-3
-1.263, 4.850e-3
-1.264, 4.875e-3
-1.265, 4.896e-3
-1.266, 4.930e-3
-1.267, 4.973e-3
-1.268, 5.010e-3
-1.269, 5.023e-3
-1.270, 5.032e-3
-1.271, 5.035e-3
-1.272, 5.063e-3
-1.273, 5.106e-3
-1.274, 5.137e-3
-1.275, 5.152e-3
-1.276, 5.164e-3
-1.277, 5.171e-3
-1.278, 5.183e-3
-1.279, 5.201e-3
-1.280, 5.220e-3
-1.281, 5.235e-3
-1.282, 5.254e-3
-1.283, 5.288e-3
-1.284, 5.322e-3
-1.285, 5.343e-3
-1.286, 5.362e-3
-1.287, 5.362e-3
-1.288, 5.346e-3
-1.289, 5.352e-3
-1.290, 5.383e-3
-1.291, 5.411e-3
-1.292, 5.417e-3
-1.293, 5.405e-3
-1.294, 5.389e-3
-1.295, 5.393e-3
-1.296, 5.405e-3
-1.297, 5.423e-3
-1.298, 5.430e-3
-1.299, 5.445e-3
-1.300, 5.445e-3
-1.301, 5.439e-3
-1.302, 5.423e-3
-1.303, 5.414e-3
-1.304, 5.417e-3
-1.305, 5.423e-3
-1.306, 5.420e-3
-1.307, 5.417e-3
-1.308, 5.399e-3
-1.309, 5.386e-3
-1.310, 5.368e-3
-1.311, 5.337e-3
-1.312, 5.319e-3
-1.313, 5.322e-3
-1.314, 5.337e-3
-1.315, 5.337e-3
-1.316, 5.309e-3
-1.317, 5.275e-3
-1.318, 5.229e-3
-1.319, 5.204e-3
-1.320, 5.198e-3
-1.321, 5.192e-3
-1.322, 5.167e-3
-1.323, 5.121e-3
-1.324, 5.081e-3
-1.325, 5.050e-3
-1.326, 5.035e-3
-1.327, 5.019e-3
-1.328, 4.998e-3
-1.329, 4.979e-3
-1.330, 4.967e-3
-1.331, 4.945e-3
-1.332, 4.921e-3
-1.333, 4.887e-3
-1.334, 4.862e-3
-1.335, 4.847e-3
-1.336, 4.838e-3
-1.337, 4.831e-3
-1.338, 4.813e-3
-1.339, 4.788e-3
-1.340, 4.767e-3
-1.341, 4.736e-3
-1.342, 4.723e-3
-1.343, 4.730e-3
-1.344, 4.754e-3
-1.345, 4.767e-3
-1.346, 4.757e-3
-1.347, 4.751e-3
-1.348, 4.733e-3
-1.349, 4.730e-3
-1.350, 4.745e-3
-1.351, 4.767e-3
-1.352, 4.782e-3
-1.353, 4.782e-3
-1.354, 4.779e-3
-1.355, 4.782e-3
-1.356, 4.804e-3
-1.357, 4.834e-3
-1.358, 4.853e-3
-1.359, 4.871e-3
-1.360, 4.905e-3
-1.361, 4.945e-3
-1.362, 4.979e-3
-1.363, 5.004e-3
-1.364, 5.029e-3
-1.365, 5.044e-3
-1.366, 5.069e-3
-1.367, 5.118e-3
-1.368, 5.167e-3
-1.369, 5.204e-3
-1.370, 5.223e-3
-1.371, 5.245e-3
-1.372, 5.272e-3
-1.373, 5.312e-3
-1.374, 5.371e-3
-1.375, 5.442e-3
-1.376, 5.491e-3
-1.377, 5.544e-3
-1.378, 5.574e-3
-1.379, 5.608e-3
-1.380, 5.645e-3
-1.381, 5.707e-3
-1.382, 5.769e-3
-1.383, 5.824e-3
-1.384, 5.867e-3
-1.385, 5.901e-3
-1.386, 5.932e-3
-1.387, 5.981e-3
-1.388, 6.043e-3
-1.389, 6.102e-3
-1.390, 6.166e-3
-1.391, 6.231e-3
-1.392, 6.296e-3
-1.393, 6.351e-3
-1.394, 6.407e-3
-1.395, 6.469e-3
-1.396, 6.518e-3
-1.397, 6.558e-3
-1.398, 6.626e-3
-1.399, 6.703e-3
-1.400, 6.684e-3
-1.399, 6.490e-3
-1.398, 6.314e-3
-1.397, 6.160e-3
-1.396, 6.034e-3
-1.395, 5.932e-3
-1.394, 5.846e-3
-1.393, 5.766e-3
-1.392, 5.673e-3
-1.391, 5.568e-3
-1.390, 5.479e-3
-1.389, 5.393e-3
-1.388, 5.312e-3
-1.387, 5.235e-3
-1.386, 5.155e-3
-1.385, 5.069e-3
-1.384, 4.982e-3
-1.383, 4.896e-3
-1.382, 4.825e-3
-1.381, 4.773e-3
-1.380, 4.720e-3
-1.379, 4.625e-3
-1.378, 4.569e-3
-1.377, 4.514e-3
-1.376, 4.443e-3
-1.375, 4.391e-3
-1.374, 4.289e-3
-1.373, 4.206e-3
-1.372, 4.132e-3
-1.371, 4.076e-3
-1.370, 4.017e-3
-1.369, 3.943e-3
-1.368, 3.860e-3
-1.367, 3.777e-3
-1.366, 3.715e-3
-1.365, 3.675e-3
-1.364, 3.617e-3
-1.363, 3.549e-3
-1.362, 3.481e-3
-1.361, 3.425e-3
-1.360, 3.370e-3
-1.359, 3.311e-3
-1.358, 3.244e-3
-1.357, 3.170e-3
-1.356, 3.111e-3
-1.355, 3.071e-3
-1.354, 3.019e-3
-1.353, 2.957e-3
-1.352, 2.880e-3
-1.351, 2.809e-3
-1.350, 2.756e-3
-1.349, 2.704e-3
-1.348, 2.652e-3
-1.347, 2.599e-3
-1.346, 2.550e-3
-1.345, 2.501e-3
-1.344, 2.445e-3
-1.343, 2.386e-3
-1.342, 2.328e-3
-1.341, 2.275e-3
-1.340, 2.229e-3
-1.339, 2.180e-3
-1.338, 2.124e-3
-1.337, 2.063e-3
-1.336, 2.013e-3
-1.335, 1.973e-3
-1.334, 1.930e-3
-1.333, 1.878e-3
-1.332, 1.822e-3
-1.331, 1.776e-3
-1.330, 1.736e-3
-1.329, 1.705e-3
-1.328, 1.677e-3
-1.327, 1.631e-3
-1.326, 1.585e-3
-1.325, 1.545e-3
-1.324, 1.505e-3
-1.323, 1.462e-3
-1.322, 1.412e-3
-1.321, 1.363e-3
-1.320, 1.320e-3
-1.319, 1.280e-3
-1.318, 1.236e-3
-1.317, 1.190e-3
-1.316, 1.147e-3
-1.315, 1.110e-3
-1.314, 1.076e-3
-1.313, 1.039e-3
-1.312, 9.960e-4
-1.311, 9.498e-4
-1.310, 9.097e-4
-1.309, 8.758e-4
-1.308, 8.388e-4
-1.307, 7.987e-4
-1.306, 7.586e-4
-1.305, 7.185e-4
-1.304, 6.846e-4
-1.303, 6.476e-4
-1.302, 6.075e-4
-1.301, 5.705e-4
-1.300, 5.366e-4
-1.299, 5.089e-4
-1.298, 4.750e-4
-1.297, 4.410e-4
-1.296, 4.071e-4
-1.295, 3.732e-4
-1.294, 3.424e-4
-1.293, 3.115e-4
-1.292, 2.807e-4
-1.291, 2.530e-4
-1.290, 2.221e-4
-1.289, 1.975e-4
-1.288, 1.666e-4
-1.287, 1.358e-4
-1.286, 1.050e-4
-1.285, 7.723e-5
-1.284, 5.257e-5
-1.283, 5.257e-5
-1.282, 1.557e-5
-1.281, -1.834e-5
-1.280, -4.301e-5
-1.279, -6.767e-5
-1.278, -9.850e-5
-1.277, -1.263e-4
-1.276, -1.540e-4
-1.275, -1.756e-4
-1.274, -1.972e-4
-1.273, -2.218e-4
-1.272, -2.496e-4
-1.271, -2.773e-4
-1.270, -2.927e-4
-1.269, -3.143e-4
-1.268, -3.390e-4
-1.267, -3.667e-4
-1.266, -3.883e-4
-1.265, -4.068e-4
-1.264, -4.191e-4
-1.263, -4.407e-4
-1.262, -4.654e-4
-1.261, -4.901e-4
-1.260, -5.055e-4
-1.259, -5.240e-4
-1.258, -5.394e-4
-1.257, -5.610e-4
-1.256, -5.795e-4
-1.255, -5.949e-4
-1.254, -6.072e-4
-1.253, -6.288e-4
-1.252, -6.535e-4
-1.251, -6.689e-4
-1.250, -6.812e-4
-1.249, -6.935e-4
-1.248, -7.059e-4
-1.247, -7.275e-4
-1.246, -7.460e-4
-1.245, -7.583e-4
-1.244, -7.737e-4
-1.243, -7.860e-4
-1.242, -7.984e-4
-1.241, -8.138e-4
-1.240, -8.230e-4
-1.239, -8.354e-4
-1.238, -8.508e-4
-1.237, -8.662e-4
-1.236, -8.847e-4
-1.235, -8.909e-4
-1.234, -9.001e-4
-1.233, -9.063e-4
-1.232, -9.186e-4
-1.231, -9.371e-4
-1.230, -9.464e-4
-1.229, -9.587e-4
-1.228, -9.679e-4
-1.227, -9.772e-4
-1.226, -9.864e-4
-1.225, -9.988e-4
-1.224, -1.005e-3
-1.223, -1.014e-3
-1.222, -1.027e-3
-1.221, -1.039e-3
-1.220, -1.051e-3
-1.219, -1.057e-3
-1.218, -1.067e-3
-1.217, -1.073e-3
-1.216, -1.082e-3
-1.215, -1.091e-3
-1.214, -1.101e-3
-1.213, -1.107e-3
-1.212, -1.113e-3
-1.211, -1.119e-3
-1.210, -1.122e-3
-1.209, -1.128e-3
-1.208, -1.138e-3
-1.207, -1.150e-3
-1.206, -1.162e-3
-1.205, -1.168e-3
-1.204, -1.171e-3
-1.203, -1.171e-3
-1.202, -1.178e-3
-1.201, -1.190e-3
-1.200, -1.208e-3
-1.199, -1.208e-3
-1.198, -1.218e-3
-1.197, -1.224e-3
-1.196, -1.227e-3
-1.195, -1.227e-3
-1.194, -1.233e-3
-1.193, -1.249e-3
-1.192, -1.255e-3
-1.191, -1.255e-3
-1.190, -1.255e-3
-1.189, -1.264e-3
-1.188, -1.279e-3
-1.187, -1.286e-3
-1.186, -1.289e-3
-1.185, -1.286e-3
-1.184, -1.286e-3
-1.183, -1.298e-3
-1.182, -1.307e-3
-1.181, -1.310e-3
-1.180, -1.304e-3
-1.179, -1.304e-3
-1.178, -1.307e-3
-1.177, -1.316e-3
-1.176, -1.322e-3
-1.175, -1.326e-3
-1.174, -1.332e-3
-1.173, -1.338e-3
-1.172, -1.347e-3
-1.171, -1.350e-3
-1.170, -1.350e-3
-1.169, -1.350e-3
-1.168, -1.356e-3
-1.167, -1.366e-3
-1.166, -1.369e-3
-1.165, -1.369e-3
-1.164, -1.369e-3
-1.163, -1.375e-3
-1.162, -1.384e-3
-1.161, -1.390e-3
-1.160, -1.390e-3
-1.159, -1.387e-3
-1.158, -1.393e-3
-1.157, -1.409e-3
-1.156, -1.418e-3
-1.155, -1.421e-3
-1.154, -1.415e-3
-1.153, -1.418e-3
-1.152, -1.424e-3
-1.151, -1.433e-3
-1.150, -1.437e-3
-1.149, -1.430e-3
-1.148, -1.430e-3
-1.147, -1.440e-3
-1.146, -1.455e-3
-1.145, -1.455e-3
-1.144, -1.452e-3
-1.143, -1.455e-3
-1.142, -1.470e-3
-1.141, -1.483e-3
-1.140, -1.486e-3
-1.139, -1.480e-3
-1.138, -1.477e-3
-1.137, -1.483e-3
-1.136, -1.495e-3
-1.135, -1.504e-3
-1.134, -1.504e-3
-1.133, -1.498e-3
-1.132, -1.501e-3
-1.131, -1.507e-3
-1.130, -1.514e-3
-1.129, -1.514e-3
-1.128, -1.514e-3
-1.127, -1.523e-3
-1.126, -1.535e-3
-1.125, -1.544e-3
-1.124, -1.548e-3
-1.123, -1.548e-3
-1.122, -1.548e-3
-1.121, -1.557e-3
-1.120, -1.563e-3
-1.119, -1.569e-3
-1.118, -1.569e-3
-1.117, -1.572e-3
-1.116, -1.575e-3
-1.115, -1.578e-3
-1.114, -1.581e-3
-1.113, -1.588e-3
-1.112, -1.594e-3
-1.111, -1.606e-3
-1.110, -1.618e-3
-1.109, -1.622e-3
-1.108, -1.625e-3
-1.107, -1.625e-3
-1.106, -1.628e-3
-1.105, -1.640e-3
-1.104, -1.646e-3
-1.103, -1.652e-3
-1.102, -1.659e-3
-1.101, -1.659e-3
-1.100, -1.659e-3
-1.099, -1.662e-3
-1.098, -1.668e-3
-1.097, -1.677e-3
-1.096, -1.686e-3
-1.095, -1.692e-3
-1.094, -1.702e-3
-1.093, -1.711e-3
-1.092, -1.723e-3
-1.091, -1.729e-3
-1.090, -1.726e-3
-1.089, -1.729e-3
-1.088, -1.739e-3
-1.087, -1.751e-3
-1.086, -1.760e-3
-1.085, -1.760e-3
-1.084, -1.760e-3
-1.083, -1.763e-3
-1.082, -1.770e-3
-1.081, -1.785e-3
-1.080, -1.797e-3
-1.079, -1.807e-3
-1.078, -1.816e-3
-1.077, -1.822e-3
-1.076, -1.825e-3
-1.075, -1.831e-3
-1.074, -1.840e-3
-1.073, -1.859e-3
-1.072, -1.877e-3
-1.071, -1.884e-3
-1.070, -1.884e-3
-1.069, -1.884e-3
-1.068, -1.896e-3
-1.067, -1.914e-3
-1.066, -1.930e-3
-1.065, -1.936e-3
-1.064, -1.948e-3
-1.063, -1.970e-3
-1.062, -1.995e-3
-1.061, -2.013e-3
-1.060, -2.019e-3
-1.059, -2.053e-3
-1.058, -2.066e-3
-1.057, -2.096e-3
-1.056, -2.118e-3
-1.055, -2.130e-3
-1.054, -2.136e-3
-1.053, -2.152e-3
-1.052, -2.186e-3
-1.051, -2.217e-3
-1.050, -2.232e-3
-1.049, -2.251e-3
-1.048, -2.288e-3
-1.047, -2.334e-3
-1.046, -2.374e-3
-1.045, -2.405e-3
-1.044, -2.426e-3
-1.043, -2.454e-3
-1.042, -2.500e-3
-1.041, -2.550e-3
-1.040, -2.590e-3
-1.039, -2.630e-3
-1.038, -2.667e-3
-1.037, -2.710e-3
-1.036, -2.747e-3
-1.035, -2.778e-3
-1.034, -2.818e-3
-1.033, -2.873e-3
-1.032, -2.941e-3
-1.031, -2.994e-3
-1.030, -3.021e-3
-1.029, -3.052e-3
-1.028, -3.089e-3
-1.027, -3.148e-3
-1.026, -3.197e-3
-1.025, -3.237e-3
-1.024, -3.265e-3
-1.023, -3.296e-3
-1.022, -3.336e-3
-1.021, -3.385e-3
-1.020, -3.425e-3
-1.019, -3.453e-3
-1.018, -3.484e-3
-1.017, -3.539e-3
-1.016, -3.598e-3
-1.015, -3.641e-3
-1.014, -3.663e-3
-1.013, -3.681e-3
-1.012, -3.706e-3
-1.011, -3.749e-3
-1.010, -3.798e-3
-1.009, -3.835e-3
-1.008, -3.857e-3
-1.007, -3.878e-3
-1.006, -3.915e-3
-1.005, -3.949e-3
-1.004, -3.974e-3
-1.003, -3.992e-3
-1.002, -4.026e-3
-1.001, -4.079e-3
