Sept. 13, 2024   03:21:53
Cyclic Voltammetry
File: c:/users/guazh/data/20240903_batch_252_500/2024-09-03-exp339\exp339-2024-09-13t03_17_01-h2koh\exp339_cv_50mvs_efin_-1400mv.bin
Data Source:  Experiment
Instrument Model:  CHI760E
Header: CV ran at 50 mVs
Note: 

Init E (V) = -1
High E (V) = -1
Low E (V) = -1.4
Final E (V) = -1
Init P/N = N
Scan Rate (V/s) = 0.05
Segment = 7
Sample Interval (V) = 0.001
Quiet Time (sec) = 60
Sensitivity (A/V) = 0.001
Comp R (ohm) = 2.4

Results:

Channel 1:
Segment 1:

Segment 2:

Segment 3:

Segment 4:

Segment 5:

Segment 6:

Segment 7:

Potential/V, Current/A

-1.000, 7.473e-6
-1.001, 9.839e-6
-1.002, 1.061e-5
-1.003, 1.112e-5
-1.004, 1.150e-5
-1.005, 1.171e-5
-1.006, 1.182e-5
-1.007, 1.222e-5
-1.008, 1.239e-5
-1.009, 1.255e-5
-1.010, 1.272e-5
-1.011, 1.272e-5
-1.012, 1.283e-5
-1.013, 1.315e-5
-1.014, 1.316e-5
-1.015, 1.336e-5
-1.016, 1.318e-5
-1.017, 1.338e-5
-1.018, 1.366e-5
-1.019, 1.366e-5
-1.020, 1.363e-5
-1.021, 1.364e-5
-1.022, 1.378e-5
-1.023, 1.403e-5
-1.024, 1.407e-5
-1.025, 1.399e-5
-1.026, 1.406e-5
-1.027, 1.406e-5
-1.028, 1.426e-5
-1.029, 1.433e-5
-1.030, 1.427e-5
-1.031, 1.436e-5
-1.032, 1.429e-5
-1.033, 1.456e-5
-1.034, 1.465e-5
-1.035, 1.453e-5
-1.036, 1.452e-5
-1.037, 1.461e-5
-1.038, 1.477e-5
-1.039, 1.496e-5
-1.040, 1.475e-5
-1.041, 1.478e-5
-1.042, 1.493e-5
-1.043, 1.503e-5
-1.044, 1.517e-5
-1.045, 1.506e-5
-1.046, 1.512e-5
-1.047, 1.524e-5
-1.048, 1.538e-5
-1.049, 1.535e-5
-1.050, 1.539e-5
-1.051, 1.533e-5
-1.052, 1.547e-5
-1.053, 1.568e-5
-1.054, 1.574e-5
-1.055, 1.568e-5
-1.056, 1.569e-5
-1.057, 1.580e-5
-1.058, 1.601e-5
-1.059, 1.605e-5
-1.060, 1.602e-5
-1.061, 1.603e-5
-1.062, 1.613e-5
-1.063, 1.640e-5
-1.064, 1.640e-5
-1.065, 1.633e-5
-1.066, 1.649e-5
-1.067, 1.640e-5
-1.068, 1.680e-5
-1.069, 1.675e-5
-1.070, 1.676e-5
-1.071, 1.691e-5
-1.072, 1.688e-5
-1.073, 1.707e-5
-1.074, 1.729e-5
-1.075, 1.730e-5
-1.076, 1.729e-5
-1.077, 1.742e-5
-1.078, 1.762e-5
-1.079, 1.773e-5
-1.080, 1.768e-5
-1.081, 1.771e-5
-1.082, 1.793e-5
-1.083, 1.811e-5
-1.084, 1.824e-5
-1.085, 1.818e-5
-1.086, 1.829e-5
-1.087, 1.848e-5
-1.088, 1.863e-5
-1.089, 1.878e-5
-1.090, 1.883e-5
-1.091, 1.884e-5
-1.092, 1.897e-5
-1.093, 1.932e-5
-1.094, 1.938e-5
-1.095, 1.943e-5
-1.096, 1.948e-5
-1.097, 1.961e-5
-1.098, 1.999e-5
-1.099, 1.997e-5
-1.100, 2.009e-5
-1.101, 2.020e-5
-1.102, 2.029e-5
-1.103, 2.065e-5
-1.104, 2.068e-5
-1.105, 2.072e-5
-1.106, 2.095e-5
-1.107, 2.106e-5
-1.108, 2.130e-5
-1.109, 2.145e-5
-1.110, 2.144e-5
-1.111, 2.172e-5
-1.112, 2.184e-5
-1.113, 2.207e-5
-1.114, 2.233e-5
-1.115, 2.224e-5
-1.116, 2.243e-5
-1.117, 2.259e-5
-1.118, 2.297e-5
-1.119, 2.310e-5
-1.120, 2.305e-5
-1.121, 2.330e-5
-1.122, 2.353e-5
-1.123, 2.376e-5
-1.124, 2.404e-5
-1.125, 2.403e-5
-1.126, 2.417e-5
-1.127, 2.445e-5
-1.128, 2.469e-5
-1.129, 2.487e-5
-1.130, 2.497e-5
-1.131, 2.513e-5
-1.132, 2.537e-5
-1.133, 2.563e-5
-1.134, 2.596e-5
-1.135, 2.602e-5
-1.136, 2.611e-5
-1.137, 2.639e-5
-1.138, 2.676e-5
-1.139, 2.689e-5
-1.140, 2.704e-5
-1.141, 2.726e-5
-1.142, 2.750e-5
-1.143, 2.781e-5
-1.144, 2.800e-5
-1.145, 2.809e-5
-1.146, 2.844e-5
-1.147, 2.858e-5
-1.148, 2.899e-5
-1.149, 2.919e-5
-1.150, 2.941e-5
-1.151, 2.964e-5
-1.152, 2.983e-5
-1.153, 3.014e-5
-1.154, 3.055e-5
-1.155, 3.064e-5
-1.156, 3.090e-5
-1.157, 3.119e-5
-1.158, 3.147e-5
-1.159, 3.193e-5
-1.160, 3.189e-5
-1.161, 3.226e-5
-1.162, 3.262e-5
-1.163, 3.290e-5
-1.164, 3.334e-5
-1.165, 3.350e-5
-1.166, 3.374e-5
-1.167, 3.418e-5
-1.168, 3.445e-5
-1.169, 3.485e-5
-1.170, 3.507e-5
-1.171, 3.531e-5
-1.172, 3.579e-5
-1.173, 3.620e-5
-1.174, 3.650e-5
-1.175, 3.685e-5
-1.176, 3.703e-5
-1.177, 3.762e-5
-1.178, 3.805e-5
-1.179, 3.833e-5
-1.180, 3.876e-5
-1.181, 3.899e-5
-1.182, 3.947e-5
-1.183, 4.002e-5
-1.184, 4.036e-5
-1.185, 4.065e-5
-1.186, 4.111e-5
-1.187, 4.152e-5
-1.188, 4.216e-5
-1.189, 4.256e-5
-1.190, 4.296e-5
-1.191, 4.348e-5
-1.192, 4.386e-5
-1.193, 4.448e-5
-1.194, 4.499e-5
-1.195, 4.543e-5
-1.196, 4.587e-5
-1.197, 4.643e-5
-1.198, 4.707e-5
-1.199, 4.774e-5
-1.200, 4.814e-5
-1.201, 4.859e-5
-1.202, 4.936e-5
-1.203, 4.995e-5
-1.204, 5.064e-5
-1.205, 5.112e-5
-1.206, 5.163e-5
-1.207, 5.251e-5
-1.208, 5.310e-5
-1.209, 5.378e-5
-1.210, 5.451e-5
-1.211, 5.497e-5
-1.212, 5.584e-5
-1.213, 5.671e-5
-1.214, 5.745e-5
-1.215, 5.830e-5
-1.216, 5.879e-5
-1.217, 5.969e-5
-1.218, 6.069e-5
-1.219, 6.147e-5
-1.220, 6.229e-5
-1.221, 6.307e-5
-1.222, 6.402e-5
-1.223, 6.509e-5
-1.224, 6.600e-5
-1.225, 6.689e-5
-1.226, 6.782e-5
-1.227, 6.895e-5
-1.228, 7.022e-5
-1.229, 7.126e-5
-1.230, 7.210e-5
-1.231, 7.322e-5
-1.232, 7.432e-5
-1.233, 7.570e-5
-1.234, 7.694e-5
-1.235, 7.795e-5
-1.236, 7.917e-5
-1.237, 8.055e-5
-1.238, 8.185e-5
-1.239, 8.331e-5
-1.240, 8.451e-5
-1.241, 8.581e-5
-1.242, 8.750e-5
-1.243, 8.902e-5
-1.244, 9.049e-5
-1.245, 9.205e-5
-1.246, 9.350e-5
-1.247, 9.535e-5
-1.248, 9.692e-5
-1.249, 9.866e-5
-1.250, 1.003e-4
-1.251, 1.020e-4
-1.252, 1.040e-4
-1.253, 1.059e-4
-1.254, 1.079e-4
-1.255, 1.098e-4
-1.256, 1.116e-4
-1.257, 1.137e-4
-1.258, 1.160e-4
-1.259, 1.180e-4
-1.260, 1.202e-4
-1.261, 1.223e-4
-1.262, 1.246e-4
-1.263, 1.271e-4
-1.264, 1.293e-4
-1.265, 1.316e-4
-1.266, 1.339e-4
-1.267, 1.365e-4
-1.268, 1.391e-4
-1.269, 1.416e-4
-1.270, 1.440e-4
-1.271, 1.467e-4
-1.272, 1.493e-4
-1.273, 1.521e-4
-1.274, 1.550e-4
-1.275, 1.574e-4
-1.276, 1.602e-4
-1.277, 1.631e-4
-1.278, 1.661e-4
-1.279, 1.689e-4
-1.280, 1.718e-4
-1.281, 1.744e-4
-1.282, 1.777e-4
-1.283, 1.807e-4
-1.284, 1.837e-4
-1.285, 1.866e-4
-1.286, 1.896e-4
-1.287, 1.928e-4
-1.288, 1.959e-4
-1.289, 1.990e-4
-1.290, 2.022e-4
-1.291, 2.053e-4
-1.292, 2.086e-4
-1.293, 2.119e-4
-1.294, 2.151e-4
-1.295, 2.187e-4
-1.296, 2.217e-4
-1.297, 2.251e-4
-1.298, 2.287e-4
-1.299, 2.322e-4
-1.300, 2.357e-4
-1.301, 2.391e-4
-1.302, 2.427e-4
-1.303, 2.466e-4
-1.304, 2.501e-4
-1.305, 2.535e-4
-1.306, 2.574e-4
-1.307, 2.611e-4
-1.308, 2.651e-4
-1.309, 2.690e-4
-1.310, 2.727e-4
-1.311, 2.766e-4
-1.312, 2.808e-4
-1.313, 2.847e-4
-1.314, 2.889e-4
-1.315, 2.928e-4
-1.316, 2.971e-4
-1.317, 3.013e-4
-1.318, 3.057e-4
-1.319, 3.101e-4
-1.320, 3.143e-4
-1.321, 3.187e-4
-1.322, 3.235e-4
-1.323, 3.280e-4
-1.324, 3.327e-4
-1.325, 3.372e-4
-1.326, 3.421e-4
-1.327, 3.470e-4
-1.328, 3.518e-4
-1.329, 3.566e-4
-1.330, 3.617e-4
-1.331, 3.664e-4
-1.332, 3.713e-4
-1.333, 3.766e-4
-1.334, 3.816e-4
-1.335, 3.865e-4
-1.336, 3.917e-4
-1.337, 3.967e-4
-1.338, 4.020e-4
-1.339, 4.069e-4
-1.340, 4.122e-4
-1.341, 4.172e-4
-1.342, 4.223e-4
-1.343, 4.277e-4
-1.344, 4.327e-4
-1.345, 4.375e-4
-1.346, 4.424e-4
-1.347, 4.474e-4
-1.348, 4.525e-4
-1.349, 4.573e-4
-1.350, 4.617e-4
-1.351, 4.664e-4
-1.352, 4.713e-4
-1.353, 4.757e-4
-1.354, 4.810e-4
-1.355, 4.851e-4
-1.356, 4.896e-4
-1.357, 4.940e-4
-1.358, 4.983e-4
-1.359, 5.027e-4
-1.360, 5.066e-4
-1.361, 5.107e-4
-1.362, 5.149e-4
-1.363, 5.190e-4
-1.364, 5.228e-4
-1.365, 5.266e-4
-1.366, 5.300e-4
-1.367, 5.341e-4
-1.368, 5.379e-4
-1.369, 5.421e-4
-1.370, 5.457e-4
-1.371, 5.498e-4
-1.372, 5.535e-4
-1.373, 5.575e-4
-1.374, 5.617e-4
-1.375, 5.659e-4
-1.376, 5.698e-4
-1.377, 5.740e-4
-1.378, 5.786e-4
-1.379, 5.830e-4
-1.380, 5.877e-4
-1.381, 5.922e-4
-1.382, 5.976e-4
-1.383, 6.027e-4
-1.384, 6.080e-4
-1.385, 6.129e-4
-1.386, 6.184e-4
-1.387, 6.236e-4
-1.388, 6.295e-4
-1.389, 6.349e-4
-1.390, 6.408e-4
-1.391, 6.466e-4
-1.392, 6.523e-4
-1.393, 6.586e-4
-1.394, 6.648e-4
-1.395, 6.709e-4
-1.396, 6.775e-4
-1.397, 6.842e-4
-1.398, 6.907e-4
-1.399, 6.971e-4
-1.400, 6.781e-4
-1.399, 6.560e-4
-1.398, 6.372e-4
-1.397, 6.199e-4
-1.396, 6.031e-4
-1.395, 5.869e-4
-1.394, 5.720e-4
-1.393, 5.574e-4
-1.392, 5.436e-4
-1.391, 5.307e-4
-1.390, 5.172e-4
-1.389, 5.052e-4
-1.388, 4.932e-4
-1.387, 4.817e-4
-1.386, 4.703e-4
-1.385, 4.593e-4
-1.384, 4.489e-4
-1.383, 4.386e-4
-1.382, 4.285e-4
-1.381, 4.192e-4
-1.380, 4.094e-4
-1.379, 4.002e-4
-1.378, 3.911e-4
-1.377, 3.824e-4
-1.376, 3.744e-4
-1.375, 3.660e-4
-1.374, 3.578e-4
-1.373, 3.500e-4
-1.372, 3.423e-4
-1.371, 3.347e-4
-1.370, 3.273e-4
-1.369, 3.199e-4
-1.368, 3.131e-4
-1.367, 3.063e-4
-1.366, 2.993e-4
-1.365, 2.926e-4
-1.364, 2.863e-4
-1.363, 2.800e-4
-1.362, 2.740e-4
-1.361, 2.679e-4
-1.360, 2.620e-4
-1.359, 2.561e-4
-1.358, 2.503e-4
-1.357, 2.450e-4
-1.356, 2.395e-4
-1.355, 2.340e-4
-1.354, 2.287e-4
-1.353, 2.236e-4
-1.352, 2.188e-4
-1.351, 2.139e-4
-1.350, 2.088e-4
-1.349, 2.041e-4
-1.348, 1.996e-4
-1.347, 1.952e-4
-1.346, 1.907e-4
-1.345, 1.862e-4
-1.344, 1.819e-4
-1.343, 1.778e-4
-1.342, 1.737e-4
-1.341, 1.699e-4
-1.340, 1.657e-4
-1.339, 1.617e-4
-1.338, 1.580e-4
-1.337, 1.544e-4
-1.336, 1.508e-4
-1.335, 1.471e-4
-1.334, 1.434e-4
-1.333, 1.402e-4
-1.332, 1.370e-4
-1.331, 1.336e-4
-1.330, 1.303e-4
-1.329, 1.270e-4
-1.328, 1.241e-4
-1.327, 1.211e-4
-1.326, 1.180e-4
-1.325, 1.150e-4
-1.324, 1.122e-4
-1.323, 1.093e-4
-1.322, 1.068e-4
-1.321, 1.040e-4
-1.320, 1.013e-4
-1.319, 9.862e-5
-1.318, 9.609e-5
-1.317, 9.390e-5
-1.316, 9.136e-5
-1.315, 8.879e-5
-1.314, 8.643e-5
-1.313, 8.419e-5
-1.312, 8.209e-5
-1.311, 7.986e-5
-1.310, 7.742e-5
-1.309, 7.536e-5
-1.308, 7.338e-5
-1.307, 7.134e-5
-1.306, 6.939e-5
-1.305, 6.723e-5
-1.304, 6.538e-5
-1.303, 6.349e-5
-1.302, 6.172e-5
-1.301, 5.995e-5
-1.300, 5.811e-5
-1.299, 5.617e-5
-1.298, 5.466e-5
-1.297, 5.302e-5
-1.296, 5.153e-5
-1.295, 4.976e-5
-1.294, 4.804e-5
-1.293, 4.671e-5
-1.292, 4.533e-5
-1.291, 4.369e-5
-1.290, 4.220e-5
-1.289, 4.071e-5
-1.288, 3.952e-5
-1.287, 3.837e-5
-1.286, 3.679e-5
-1.285, 3.558e-5
-1.284, 3.408e-5
-1.283, 3.295e-5
-1.282, 3.185e-5
-1.281, 3.059e-5
-1.280, 2.930e-5
-1.279, 2.813e-5
-1.278, 2.716e-5
-1.277, 2.620e-5
-1.276, 2.514e-5
-1.275, 2.385e-5
-1.274, 2.288e-5
-1.273, 2.190e-5
-1.272, 2.119e-5
-1.271, 2.009e-5
-1.270, 1.902e-5
-1.269, 1.810e-5
-1.268, 1.725e-5
-1.267, 1.642e-5
-1.266, 1.555e-5
-1.265, 1.459e-5
-1.264, 1.380e-5
-1.263, 1.310e-5
-1.262, 1.231e-5
-1.261, 1.163e-5
-1.260, 1.073e-5
-1.259, 9.804e-6
-1.258, 9.322e-6
-1.257, 8.663e-6
-1.256, 7.974e-6
-1.255, 7.210e-6
-1.254, 6.385e-6
-1.253, 5.976e-6
-1.252, 5.449e-6
-1.251, 4.684e-6
-1.250, 4.007e-6
-1.249, 3.333e-6
-1.248, 2.969e-6
-1.247, 2.495e-6
-1.246, 1.836e-6
-1.245, 1.237e-6
-1.244, 6.608e-7
-1.243, 2.169e-7
-1.242, -9.491e-8
-1.241, -6.938e-7
-1.240, -1.232e-6
-1.239, -1.739e-6
-1.238, -2.197e-6
-1.237, -2.402e-6
-1.236, -2.941e-6
-1.235, -3.536e-6
-1.234, -3.969e-6
-1.233, -4.367e-6
-1.232, -4.506e-6
-1.231, -4.901e-6
-1.230, -5.552e-6
-1.229, -6.125e-6
-1.228, -6.199e-6
-1.227, -6.466e-6
-1.226, -6.811e-6
-1.225, -7.279e-6
-1.224, -7.648e-6
-1.223, -7.856e-6
-1.222, -8.200e-6
-1.221, -8.415e-6
-1.220, -8.876e-6
-1.219, -9.291e-6
-1.218, -9.436e-6
-1.217, -9.708e-6
-1.216, -9.904e-6
-1.215, -1.034e-5
-1.214, -1.071e-5
-1.213, -1.074e-5
-1.212, -1.093e-5
-1.211, -1.133e-5
-1.210, -1.162e-5
-1.209, -1.203e-5
-1.208, -1.204e-5
-1.207, -1.213e-5
-1.206, -1.251e-5
-1.205, -1.276e-5
-1.204, -1.312e-5
-1.203, -1.323e-5
-1.202, -1.323e-5
-1.201, -1.367e-5
-1.200, -1.390e-5
-1.199, -1.410e-5
-1.198, -1.433e-5
-1.197, -1.434e-5
-1.196, -1.456e-5
-1.195, -1.498e-5
-1.194, -1.506e-5
-1.193, -1.528e-5
-1.192, -1.526e-5
-1.191, -1.553e-5
-1.190, -1.595e-5
-1.189, -1.611e-5
-1.188, -1.618e-5
-1.187, -1.630e-5
-1.186, -1.643e-5
-1.185, -1.674e-5
-1.184, -1.693e-5
-1.183, -1.698e-5
-1.182, -1.719e-5
-1.181, -1.726e-5
-1.180, -1.754e-5
-1.179, -1.788e-5
-1.178, -1.799e-5
-1.177, -1.798e-5
-1.176, -1.814e-5
-1.175, -1.831e-5
-1.174, -1.869e-5
-1.173, -1.862e-5
-1.172, -1.872e-5
-1.171, -1.905e-5
-1.170, -1.921e-5
-1.169, -1.951e-5
-1.168, -1.946e-5
-1.167, -1.941e-5
-1.166, -1.981e-5
-1.165, -2.006e-5
-1.164, -2.019e-5
-1.163, -2.037e-5
-1.162, -2.027e-5
-1.161, -2.053e-5
-1.160, -2.077e-5
-1.159, -2.097e-5
-1.158, -2.109e-5
-1.157, -2.108e-5
-1.156, -2.130e-5
-1.155, -2.163e-5
-1.154, -2.177e-5
-1.153, -2.191e-5
-1.152, -2.189e-5
-1.151, -2.203e-5
-1.150, -2.246e-5
-1.149, -2.249e-5
-1.148, -2.267e-5
-1.147, -2.269e-5
-1.146, -2.285e-5
-1.145, -2.319e-5
-1.144, -2.336e-5
-1.143, -2.339e-5
-1.142, -2.354e-5
-1.141, -2.376e-5
-1.140, -2.402e-5
-1.139, -2.430e-5
-1.138, -2.432e-5
-1.137, -2.437e-5
-1.136, -2.454e-5
-1.135, -2.479e-5
-1.134, -2.522e-5
-1.133, -2.513e-5
-1.132, -2.515e-5
-1.131, -2.549e-5
-1.130, -2.565e-5
-1.129, -2.582e-5
-1.128, -2.584e-5
-1.127, -2.586e-5
-1.126, -2.621e-5
-1.125, -2.638e-5
-1.124, -2.661e-5
-1.123, -2.685e-5
-1.122, -2.678e-5
-1.121, -2.707e-5
-1.120, -2.725e-5
-1.119, -2.738e-5
-1.118, -2.758e-5
-1.117, -2.757e-5
-1.116, -2.770e-5
-1.115, -2.807e-5
-1.114, -2.823e-5
-1.113, -2.842e-5
-1.112, -2.835e-5
-1.111, -2.861e-5
-1.110, -2.899e-5
-1.109, -2.910e-5
-1.108, -2.926e-5
-1.107, -2.932e-5
-1.106, -2.945e-5
-1.105, -2.978e-5
-1.104, -2.994e-5
-1.103, -3.003e-5
-1.102, -3.024e-5
-1.101, -3.027e-5
-1.100, -3.059e-5
-1.099, -3.079e-5
-1.098, -3.080e-5
-1.097, -3.094e-5
-1.096, -3.102e-5
-1.095, -3.129e-5
-1.094, -3.169e-5
-1.093, -3.174e-5
-1.092, -3.177e-5
-1.091, -3.203e-5
-1.090, -3.234e-5
-1.089, -3.249e-5
-1.088, -3.250e-5
-1.087, -3.247e-5
-1.086, -3.274e-5
-1.085, -3.286e-5
-1.084, -3.316e-5
-1.083, -3.332e-5
-1.082, -3.328e-5
-1.081, -3.354e-5
-1.080, -3.382e-5
-1.079, -3.397e-5
-1.078, -3.427e-5
-1.077, -3.408e-5
-1.076, -3.427e-5
-1.075, -3.462e-5
-1.074, -3.472e-5
-1.073, -3.492e-5
-1.072, -3.488e-5
-1.071, -3.517e-5
-1.070, -3.552e-5
-1.069, -3.569e-5
-1.068, -3.570e-5
-1.067, -3.589e-5
-1.066, -3.601e-5
-1.065, -3.638e-5
-1.064, -3.652e-5
-1.063, -3.659e-5
-1.062, -3.678e-5
-1.061, -3.682e-5
-1.060, -3.721e-5
-1.059, -3.749e-5
-1.058, -3.754e-5
-1.057, -3.766e-5
-1.056, -3.770e-5
-1.055, -3.804e-5
-1.054, -3.842e-5
-1.053, -3.835e-5
-1.052, -3.842e-5
-1.051, -3.884e-5
-1.050, -3.900e-5
-1.049, -3.937e-5
-1.048, -3.948e-5
-1.047, -3.950e-5
-1.046, -3.983e-5
-1.045, -4.011e-5
-1.044, -4.031e-5
-1.043, -4.051e-5
-1.042, -4.052e-5
-1.041, -4.098e-5
-1.040, -4.122e-5
-1.039, -4.157e-5
-1.038, -4.189e-5
-1.037, -4.186e-5
-1.036, -4.211e-5
-1.035, -4.258e-5
-1.034, -4.278e-5
-1.033, -4.305e-5
-1.032, -4.313e-5
-1.031, -4.344e-5
-1.030, -4.400e-5
-1.029, -4.415e-5
-1.028, -4.444e-5
-1.027, -4.463e-5
-1.026, -4.482e-5
-1.025, -4.541e-5
-1.024, -4.578e-5
-1.023, -4.601e-5
-1.022, -4.623e-5
-1.021, -4.647e-5
-1.020, -4.696e-5
-1.019, -4.736e-5
-1.018, -4.756e-5
-1.017, -4.787e-5
-1.016, -4.801e-5
-1.015, -4.854e-5
-1.014, -4.902e-5
-1.013, -4.921e-5
-1.012, -4.943e-5
-1.011, -4.993e-5
-1.010, -5.034e-5
-1.009, -5.090e-5
-1.008, -5.107e-5
-1.007, -5.118e-5
-1.006, -5.174e-5
-1.005, -5.210e-5
-1.004, -5.257e-5
-1.003, -5.293e-5
-1.002, -5.311e-5
-1.001, -5.360e-5
-1.000, -3.441e-5
-1.001, -2.475e-5
-1.002, -2.025e-5
-1.003, -1.694e-5
-1.004, -1.408e-5
-1.005, -1.186e-5
-1.006, -9.796e-6
-1.007, -7.708e-6
-1.008, -5.984e-6
-1.009, -4.482e-6
-1.010, -3.133e-6
-1.011, -1.992e-6
-1.012, -7.253e-7
-1.013, 5.069e-7
-1.014, 1.344e-6
-1.015, 2.300e-6
-1.016, 2.943e-6
-1.017, 3.935e-6
-1.018, 4.942e-6
-1.019, 5.477e-6
-1.020, 6.091e-6
-1.021, 6.569e-6
-1.022, 7.288e-6
-1.023, 7.995e-6
-1.024, 8.485e-6
-1.025, 8.756e-6
-1.026, 9.350e-6
-1.027, 9.695e-6
-1.028, 1.038e-5
-1.029, 1.066e-5
-1.030, 1.087e-5
-1.031, 1.126e-5
-1.032, 1.156e-5
-1.033, 1.209e-5
-1.034, 1.235e-5
-1.035, 1.244e-5
-1.036, 1.272e-5
-1.037, 1.312e-5
-1.038, 1.342e-5
-1.039, 1.371e-5
-1.040, 1.367e-5
-1.041, 1.388e-5
-1.042, 1.434e-5
-1.043, 1.447e-5
-1.044, 1.481e-5
-1.045, 1.477e-5
-1.046, 1.485e-5
-1.047, 1.519e-5
-1.048, 1.539e-5
-1.049, 1.552e-5
-1.050, 1.565e-5
-1.051, 1.565e-5
-1.052, 1.593e-5
-1.053, 1.614e-5
-1.054, 1.627e-5
-1.055, 1.635e-5
-1.056, 1.631e-5
-1.057, 1.652e-5
-1.058, 1.687e-5
-1.059, 1.680e-5
-1.060, 1.682e-5
-1.061, 1.697e-5
-1.062, 1.708e-5
-1.063, 1.747e-5
-1.064, 1.743e-5
-1.065, 1.729e-5
-1.066, 1.749e-5
-1.067, 1.756e-5
-1.068, 1.787e-5
-1.069, 1.783e-5
-1.070, 1.784e-5
-1.071, 1.793e-5
-1.072, 1.803e-5
-1.073, 1.826e-5
-1.074, 1.837e-5
-1.075, 1.831e-5
-1.076, 1.836e-5
-1.077, 1.850e-5
-1.078, 1.862e-5
-1.079, 1.872e-5
-1.080, 1.865e-5
-1.081, 1.863e-5
-1.082, 1.895e-5
-1.083, 1.902e-5
-1.084, 1.909e-5
-1.085, 1.900e-5
-1.086, 1.904e-5
-1.087, 1.927e-5
-1.088, 1.933e-5
-1.089, 1.937e-5
-1.090, 1.944e-5
-1.091, 1.937e-5
-1.092, 1.950e-5
-1.093, 1.971e-5
-1.094, 1.972e-5
-1.095, 1.975e-5
-1.096, 1.966e-5
-1.097, 1.983e-5
-1.098, 2.008e-5
-1.099, 2.006e-5
-1.100, 2.001e-5
-1.101, 2.002e-5
-1.102, 2.016e-5
-1.103, 2.043e-5
-1.104, 2.029e-5
-1.105, 2.025e-5
-1.106, 2.038e-5
-1.107, 2.044e-5
-1.108, 2.069e-5
-1.109, 2.066e-5
-1.110, 2.058e-5
-1.111, 2.065e-5
-1.112, 2.076e-5
-1.113, 2.095e-5
-1.114, 2.105e-5
-1.115, 2.085e-5
-1.116, 2.097e-5
-1.117, 2.107e-5
-1.118, 2.126e-5
-1.119, 2.130e-5
-1.120, 2.120e-5
-1.121, 2.118e-5
-1.122, 2.143e-5
-1.123, 2.149e-5
-1.124, 2.157e-5
-1.125, 2.145e-5
-1.126, 2.153e-5
-1.127, 2.179e-5
-1.128, 2.180e-5
-1.129, 2.184e-5
-1.130, 2.188e-5
-1.131, 2.184e-5
-1.132, 2.201e-5
-1.133, 2.218e-5
-1.134, 2.218e-5
-1.135, 2.216e-5
-1.136, 2.216e-5
-1.137, 2.224e-5
-1.138, 2.259e-5
-1.139, 2.253e-5
-1.140, 2.248e-5
-1.141, 2.248e-5
-1.142, 2.267e-5
-1.143, 2.288e-5
-1.144, 2.284e-5
-1.145, 2.269e-5
-1.146, 2.292e-5
-1.147, 2.294e-5
-1.148, 2.316e-5
-1.149, 2.318e-5
-1.150, 2.310e-5
-1.151, 2.321e-5
-1.152, 2.335e-5
-1.153, 2.346e-5
-1.154, 2.363e-5
-1.155, 2.345e-5
-1.156, 2.355e-5
-1.157, 2.370e-5
-1.158, 2.385e-5
-1.159, 2.398e-5
-1.160, 2.382e-5
-1.161, 2.385e-5
-1.162, 2.417e-5
-1.163, 2.424e-5
-1.164, 2.432e-5
-1.165, 2.426e-5
-1.166, 2.431e-5
-1.167, 2.457e-5
-1.168, 2.458e-5
-1.169, 2.471e-5
-1.170, 2.470e-5
-1.171, 2.472e-5
-1.172, 2.496e-5
-1.173, 2.516e-5
-1.174, 2.505e-5
-1.175, 2.522e-5
-1.176, 2.509e-5
-1.177, 2.549e-5
-1.178, 2.564e-5
-1.179, 2.559e-5
-1.180, 2.558e-5
-1.181, 2.568e-5
-1.182, 2.584e-5
-1.183, 2.611e-5
-1.184, 2.609e-5
-1.185, 2.607e-5
-1.186, 2.626e-5
-1.187, 2.636e-5
-1.188, 2.658e-5
-1.189, 2.667e-5
-1.190, 2.659e-5
-1.191, 2.679e-5
-1.192, 2.701e-5
-1.193, 2.712e-5
-1.194, 2.738e-5
-1.195, 2.721e-5
-1.196, 2.736e-5
-1.197, 2.766e-5
-1.198, 2.783e-5
-1.199, 2.804e-5
-1.200, 2.791e-5
-1.201, 2.800e-5
-1.202, 2.842e-5
-1.203, 2.854e-5
-1.204, 2.871e-5
-1.205, 2.867e-5
-1.206, 2.874e-5
-1.207, 2.919e-5
-1.208, 2.927e-5
-1.209, 2.949e-5
-1.210, 2.961e-5
-1.211, 2.970e-5
-1.212, 2.997e-5
-1.213, 3.022e-5
-1.214, 3.038e-5
-1.215, 3.054e-5
-1.216, 3.055e-5
-1.217, 3.091e-5
-1.218, 3.127e-5
-1.219, 3.134e-5
-1.220, 3.151e-5
-1.221, 3.173e-5
-1.222, 3.203e-5
-1.223, 3.241e-5
-1.224, 3.249e-5
-1.225, 3.260e-5
-1.226, 3.290e-5
-1.227, 3.325e-5
-1.228, 3.376e-5
-1.229, 3.395e-5
-1.230, 3.404e-5
-1.231, 3.431e-5
-1.232, 3.468e-5
-1.233, 3.509e-5
-1.234, 3.547e-5
-1.235, 3.544e-5
-1.236, 3.587e-5
-1.237, 3.630e-5
-1.238, 3.673e-5
-1.239, 3.699e-5
-1.240, 3.720e-5
-1.241, 3.754e-5
-1.242, 3.822e-5
-1.243, 3.852e-5
-1.244, 3.891e-5
-1.245, 3.914e-5
-1.246, 3.954e-5
-1.247, 4.022e-5
-1.248, 4.063e-5
-1.249, 4.103e-5
-1.250, 4.144e-5
-1.251, 4.184e-5
-1.252, 4.249e-5
-1.253, 4.303e-5
-1.254, 4.344e-5
-1.255, 4.402e-5
-1.256, 4.436e-5
-1.257, 4.506e-5
-1.258, 4.577e-5
-1.259, 4.624e-5
-1.260, 4.672e-5
-1.261, 4.728e-5
-1.262, 4.808e-5
-1.263, 4.886e-5
-1.264, 4.939e-5
-1.265, 4.993e-5
-1.266, 5.064e-5
-1.267, 5.140e-5
-1.268, 5.219e-5
-1.269, 5.293e-5
-1.270, 5.354e-5
-1.271, 5.441e-5
-1.272, 5.526e-5
-1.273, 5.610e-5
-1.274, 5.704e-5
-1.275, 5.765e-5
-1.276, 5.847e-5
-1.277, 5.962e-5
-1.278, 6.051e-5
-1.279, 6.152e-5
-1.280, 6.240e-5
-1.281, 6.323e-5
-1.282, 6.454e-5
-1.283, 6.554e-5
-1.284, 6.660e-5
-1.285, 6.759e-5
-1.286, 6.855e-5
-1.287, 7.002e-5
-1.288, 7.109e-5
-1.289, 7.229e-5
-1.290, 7.340e-5
-1.291, 7.464e-5
-1.292, 7.601e-5
-1.293, 7.734e-5
-1.294, 7.866e-5
-1.295, 8.003e-5
-1.296, 8.126e-5
-1.297, 8.280e-5
-1.298, 8.444e-5
-1.299, 8.583e-5
-1.300, 8.717e-5
-1.301, 8.878e-5
-1.302, 9.051e-5
-1.303, 9.216e-5
-1.304, 9.379e-5
-1.305, 9.530e-5
-1.306, 9.702e-5
-1.307, 9.894e-5
-1.308, 1.007e-4
-1.309, 1.026e-4
-1.310, 1.042e-4
-1.311, 1.062e-4
-1.312, 1.083e-4
-1.313, 1.102e-4
-1.314, 1.123e-4
-1.315, 1.141e-4
-1.316, 1.162e-4
-1.317, 1.185e-4
-1.318, 1.207e-4
-1.319, 1.230e-4
-1.320, 1.250e-4
-1.321, 1.272e-4
-1.322, 1.299e-4
-1.323, 1.322e-4
-1.324, 1.346e-4
-1.325, 1.370e-4
-1.326, 1.394e-4
-1.327, 1.422e-4
-1.328, 1.449e-4
-1.329, 1.475e-4
-1.330, 1.502e-4
-1.331, 1.527e-4
-1.332, 1.557e-4
-1.333, 1.586e-4
-1.334, 1.615e-4
-1.335, 1.644e-4
-1.336, 1.674e-4
-1.337, 1.706e-4
-1.338, 1.737e-4
-1.339, 1.768e-4
-1.340, 1.800e-4
-1.341, 1.831e-4
-1.342, 1.866e-4
-1.343, 1.902e-4
-1.344, 1.935e-4
-1.345, 1.968e-4
-1.346, 2.004e-4
-1.347, 2.041e-4
-1.348, 2.078e-4
-1.349, 2.115e-4
-1.350, 2.149e-4
-1.351, 2.190e-4
-1.352, 2.228e-4
-1.353, 2.269e-4
-1.354, 2.309e-4
-1.355, 2.348e-4
-1.356, 2.389e-4
-1.357, 2.433e-4
-1.358, 2.474e-4
-1.359, 2.518e-4
-1.360, 2.559e-4
-1.361, 2.604e-4
-1.362, 2.652e-4
-1.363, 2.695e-4
-1.364, 2.742e-4
-1.365, 2.787e-4
-1.366, 2.835e-4
-1.367, 2.885e-4
-1.368, 2.932e-4
-1.369, 2.984e-4
-1.370, 3.032e-4
-1.371, 3.081e-4
-1.372, 3.134e-4
-1.373, 3.188e-4
-1.374, 3.239e-4
-1.375, 3.293e-4
-1.376, 3.346e-4
-1.377, 3.402e-4
-1.378, 3.460e-4
-1.379, 3.514e-4
-1.380, 3.569e-4
-1.381, 3.627e-4
-1.382, 3.690e-4
-1.383, 3.749e-4
-1.384, 3.809e-4
-1.385, 3.867e-4
-1.386, 3.928e-4
-1.387, 3.991e-4
-1.388, 4.054e-4
-1.389, 4.117e-4
-1.390, 4.180e-4
-1.391, 4.245e-4
-1.392, 4.309e-4
-1.393, 4.380e-4
-1.394, 4.445e-4
-1.395, 4.513e-4
-1.396, 4.579e-4
-1.397, 4.653e-4
-1.398, 4.721e-4
-1.399, 4.792e-4
-1.400, 4.635e-4
-1.399, 4.480e-4
-1.398, 4.359e-4
-1.397, 4.242e-4
-1.396, 4.132e-4
-1.395, 4.022e-4
-1.394, 3.922e-4
-1.393, 3.825e-4
-1.392, 3.733e-4
-1.391, 3.639e-4
-1.390, 3.551e-4
-1.389, 3.465e-4
-1.388, 3.384e-4
-1.387, 3.304e-4
-1.386, 3.227e-4
-1.385, 3.148e-4
-1.384, 3.076e-4
-1.383, 3.001e-4
-1.382, 2.933e-4
-1.381, 2.865e-4
-1.380, 2.799e-4
-1.379, 2.732e-4
-1.378, 2.672e-4
-1.377, 2.609e-4
-1.376, 2.550e-4
-1.375, 2.491e-4
-1.374, 2.431e-4
-1.373, 2.379e-4
-1.372, 2.324e-4
-1.371, 2.269e-4
-1.370, 2.217e-4
-1.369, 2.165e-4
-1.368, 2.116e-4
-1.367, 2.069e-4
-1.366, 2.020e-4
-1.365, 1.974e-4
-1.364, 1.927e-4
-1.363, 1.884e-4
-1.362, 1.840e-4
-1.361, 1.797e-4
-1.360, 1.755e-4
-1.359, 1.714e-4
-1.358, 1.674e-4
-1.357, 1.636e-4
-1.356, 1.597e-4
-1.355, 1.558e-4
-1.354, 1.522e-4
-1.353, 1.486e-4
-1.352, 1.453e-4
-1.351, 1.418e-4
-1.350, 1.382e-4
-1.349, 1.351e-4
-1.348, 1.318e-4
-1.347, 1.287e-4
-1.346, 1.256e-4
-1.345, 1.225e-4
-1.344, 1.195e-4
-1.343, 1.168e-4
-1.342, 1.138e-4
-1.341, 1.111e-4
-1.340, 1.083e-4
-1.339, 1.055e-4
-1.338, 1.030e-4
-1.337, 1.005e-4
-1.336, 9.800e-5
-1.335, 9.552e-5
-1.334, 9.299e-5
-1.333, 9.078e-5
-1.332, 8.855e-5
-1.331, 8.612e-5
-1.330, 8.394e-5
-1.329, 8.170e-5
-1.328, 7.967e-5
-1.327, 7.765e-5
-1.326, 7.551e-5
-1.325, 7.348e-5
-1.324, 7.158e-5
-1.323, 6.958e-5
-1.322, 6.791e-5
-1.321, 6.594e-5
-1.320, 6.413e-5
-1.319, 6.238e-5
-1.318, 6.064e-5
-1.317, 5.910e-5
-1.316, 5.743e-5
-1.315, 5.559e-5
-1.314, 5.406e-5
-1.313, 5.261e-5
-1.312, 5.119e-5
-1.311, 4.970e-5
-1.310, 4.798e-5
-1.309, 4.670e-5
-1.308, 4.538e-5
-1.307, 4.404e-5
-1.306, 4.264e-5
-1.305, 4.114e-5
-1.304, 3.996e-5
-1.303, 3.888e-5
-1.302, 3.765e-5
-1.301, 3.642e-5
-1.300, 3.518e-5
-1.299, 3.389e-5
-1.298, 3.299e-5
-1.297, 3.189e-5
-1.296, 3.085e-5
-1.295, 2.964e-5
-1.294, 2.858e-5
-1.293, 2.772e-5
-1.292, 2.681e-5
-1.291, 2.570e-5
-1.290, 2.475e-5
-1.289, 2.378e-5
-1.288, 2.309e-5
-1.287, 2.220e-5
-1.286, 2.118e-5
-1.285, 2.036e-5
-1.284, 1.949e-5
-1.283, 1.871e-5
-1.282, 1.802e-5
-1.281, 1.722e-5
-1.280, 1.623e-5
-1.279, 1.563e-5
-1.278, 1.494e-5
-1.277, 1.433e-5
-1.276, 1.364e-5
-1.275, 1.273e-5
-1.274, 1.216e-5
-1.273, 1.157e-5
-1.272, 1.104e-5
-1.271, 1.039e-5
-1.270, 9.522e-6
-1.269, 9.076e-6
-1.268, 8.642e-6
-1.267, 8.049e-6
-1.266, 7.566e-6
-1.265, 6.689e-6
-1.264, 6.348e-6
-1.263, 5.897e-6
-1.262, 5.328e-6
-1.261, 4.970e-6
-1.260, 4.273e-6
-1.259, 3.671e-6
-1.258, 3.528e-6
-1.257, 2.990e-6
-1.256, 2.576e-6
-1.255, 2.038e-6
-1.254, 1.532e-6
-1.253, 1.342e-6
-1.252, 1.001e-6
-1.251, 3.648e-7
-1.250, 4.519e-8
-1.249, -4.905e-7
-1.248, -5.852e-7
-1.247, -9.631e-7
-1.246, -1.412e-6
-1.245, -1.832e-6
-1.244, -2.104e-6
-1.243, -2.376e-6
-1.242, -2.607e-6
-1.241, -3.022e-6
-1.240, -3.389e-6
-1.239, -3.738e-6
-1.238, -3.899e-6
-1.237, -4.130e-6
-1.236, -4.450e-6
-1.235, -4.974e-6
-1.234, -5.125e-6
-1.233, -5.251e-6
-1.232, -5.493e-6
-1.231, -5.747e-6
-1.230, -6.254e-6
-1.229, -6.658e-6
-1.228, -6.529e-6
-1.227, -6.834e-6
-1.226, -6.978e-6
-1.225, -7.456e-6
-1.224, -7.565e-6
-1.223, -7.568e-6
-1.222, -7.908e-6
-1.221, -8.051e-6
-1.220, -8.400e-6
-1.219, -8.678e-6
-1.218, -8.622e-6
-1.217, -8.867e-6
-1.216, -8.994e-6
-1.215, -9.377e-6
-1.214, -9.597e-6
-1.213, -9.510e-6
-1.212, -9.725e-6
-1.211, -9.950e-6
-1.210, -1.022e-5
-1.209, -1.047e-5
-1.208, -1.037e-5
-1.207, -1.042e-5
-1.206, -1.083e-5
-1.205, -1.106e-5
-1.204, -1.117e-5
-1.203, -1.119e-5
-1.202, -1.121e-5
-1.201, -1.151e-5
-1.200, -1.174e-5
-1.199, -1.185e-5
-1.198, -1.194e-5
-1.197, -1.191e-5
-1.196, -1.210e-5
-1.195, -1.247e-5
-1.194, -1.258e-5
-1.193, -1.256e-5
-1.192, -1.260e-5
-1.191, -1.275e-5
-1.190, -1.310e-5
-1.189, -1.314e-5
-1.188, -1.305e-5
-1.187, -1.338e-5
-1.186, -1.337e-5
-1.185, -1.372e-5
-1.184, -1.372e-5
-1.183, -1.364e-5
-1.182, -1.388e-5
-1.181, -1.387e-5
-1.180, -1.416e-5
-1.179, -1.428e-5
-1.178, -1.428e-5
-1.177, -1.434e-5
-1.176, -1.447e-5
-1.175, -1.473e-5
-1.174, -1.489e-5
-1.173, -1.472e-5
-1.172, -1.479e-5
-1.171, -1.510e-5
-1.170, -1.524e-5
-1.169, -1.529e-5
-1.168, -1.520e-5
-1.167, -1.529e-5
-1.166, -1.559e-5
-1.165, -1.559e-5
-1.164, -1.577e-5
-1.163, -1.578e-5
-1.162, -1.582e-5
-1.161, -1.599e-5
-1.160, -1.616e-5
-1.159, -1.616e-5
-1.158, -1.629e-5
-1.157, -1.622e-5
-1.156, -1.640e-5
-1.155, -1.670e-5
-1.154, -1.670e-5
-1.153, -1.680e-5
-1.152, -1.674e-5
-1.151, -1.685e-5
-1.150, -1.719e-5
-1.149, -1.716e-5
-1.148, -1.708e-5
-1.147, -1.728e-5
-1.146, -1.734e-5
-1.145, -1.767e-5
-1.144, -1.764e-5
-1.143, -1.758e-5
-1.142, -1.777e-5
-1.141, -1.785e-5
-1.140, -1.798e-5
-1.139, -1.822e-5
-1.138, -1.802e-5
-1.137, -1.818e-5
-1.136, -1.833e-5
-1.135, -1.847e-5
-1.134, -1.868e-5
-1.133, -1.852e-5
-1.132, -1.867e-5
-1.131, -1.895e-5
-1.130, -1.905e-5
-1.129, -1.913e-5
-1.128, -1.901e-5
-1.127, -1.912e-5
-1.126, -1.943e-5
-1.125, -1.953e-5
-1.124, -1.956e-5
-1.123, -1.967e-5
-1.122, -1.968e-5
-1.121, -1.995e-5
-1.120, -2.002e-5
-1.119, -2.012e-5
-1.118, -2.014e-5
-1.117, -2.019e-5
-1.116, -2.045e-5
-1.115, -2.061e-5
-1.114, -2.068e-5
-1.113, -2.072e-5
-1.112, -2.075e-5
-1.111, -2.096e-5
-1.110, -2.125e-5
-1.109, -2.117e-5
-1.108, -2.119e-5
-1.107, -2.136e-5
-1.106, -2.157e-5
-1.105, -2.182e-5
-1.104, -2.184e-5
-1.103, -2.184e-5
-1.102, -2.201e-5
-1.101, -2.215e-5
-1.100, -2.236e-5
-1.099, -2.254e-5
-1.098, -2.239e-5
-1.097, -2.266e-5
-1.096, -2.282e-5
-1.095, -2.291e-5
-1.094, -2.327e-5
-1.093, -2.311e-5
-1.092, -2.318e-5
-1.091, -2.365e-5
-1.090, -2.368e-5
-1.089, -2.396e-5
-1.088, -2.388e-5
-1.087, -2.405e-5
-1.086, -2.439e-5
-1.085, -2.448e-5
-1.084, -2.467e-5
-1.083, -2.475e-5
-1.082, -2.475e-5
-1.081, -2.526e-5
-1.080, -2.534e-5
-1.079, -2.552e-5
-1.078, -2.566e-5
-1.077, -2.572e-5
-1.076, -2.616e-5
-1.075, -2.643e-5
-1.074, -2.657e-5
-1.073, -2.664e-5
-1.072, -2.670e-5
-1.071, -2.712e-5
-1.070, -2.739e-5
-1.069, -2.746e-5
-1.068, -2.765e-5
-1.067, -2.790e-5
-1.066, -2.814e-5
-1.065, -2.855e-5
-1.064, -2.856e-5
-1.063, -2.879e-5
-1.062, -2.908e-5
-1.061, -2.927e-5
-1.060, -2.967e-5
-1.059, -2.992e-5
-1.058, -2.993e-5
-1.057, -3.023e-5
-1.056, -3.059e-5
-1.055, -3.083e-5
-1.054, -3.125e-5
-1.053, -3.122e-5
-1.052, -3.155e-5
-1.051, -3.202e-5
-1.050, -3.231e-5
-1.049, -3.259e-5
-1.048, -3.269e-5
-1.047, -3.299e-5
-1.046, -3.360e-5
-1.045, -3.374e-5
-1.044, -3.406e-5
-1.043, -3.428e-5
-1.042, -3.455e-5
-1.041, -3.510e-5
-1.040, -3.538e-5
-1.039, -3.563e-5
-1.038, -3.601e-5
-1.037, -3.620e-5
-1.036, -3.673e-5
-1.035, -3.720e-5
-1.034, -3.740e-5
-1.033, -3.772e-5
-1.032, -3.801e-5
-1.031, -3.853e-5
-1.030, -3.901e-5
-1.029, -3.927e-5
-1.028, -3.951e-5
-1.027, -3.998e-5
-1.026, -4.046e-5
-1.025, -4.098e-5
-1.024, -4.136e-5
-1.023, -4.163e-5
-1.022, -4.204e-5
-1.021, -4.240e-5
-1.020, -4.296e-5
-1.019, -4.342e-5
-1.018, -4.361e-5
-1.017, -4.415e-5
-1.016, -4.455e-5
-1.015, -4.511e-5
-1.014, -4.561e-5
-1.013, -4.583e-5
-1.012, -4.621e-5
-1.011, -4.686e-5
-1.010, -4.732e-5
-1.009, -4.787e-5
-1.008, -4.804e-5
-1.007, -4.852e-5
-1.006, -4.923e-5
-1.005, -4.967e-5
-1.004, -5.008e-5
-1.003, -5.054e-5
-1.002, -5.095e-5
-1.001, -5.163e-5
-1.000, -3.205e-5
-1.001, -2.204e-5
-1.002, -1.750e-5
-1.003, -1.421e-5
-1.004, -1.137e-5
-1.005, -9.259e-6
-1.006, -7.117e-6
-1.007, -5.124e-6
-1.008, -3.610e-6
-1.009, -2.110e-6
-1.010, -7.697e-7
-1.011, 3.540e-7
-1.012, 1.692e-6
-1.013, 2.635e-6
-1.014, 3.585e-6
-1.015, 4.427e-6
-1.016, 5.228e-6
-1.017, 6.093e-6
-1.018, 6.858e-6
-1.019, 7.389e-6
-1.020, 7.974e-6
-1.021, 8.590e-6
-1.022, 9.240e-6
-1.023, 9.796e-6
-1.024, 1.028e-5
-1.025, 1.051e-5
-1.026, 1.108e-5
-1.027, 1.152e-5
-1.028, 1.196e-5
-1.029, 1.223e-5
-1.030, 1.237e-5
-1.031, 1.295e-5
-1.032, 1.317e-5
-1.033, 1.349e-5
-1.034, 1.374e-5
-1.035, 1.387e-5
-1.036, 1.425e-5
-1.037, 1.455e-5
-1.038, 1.473e-5
-1.039, 1.500e-5
-1.040, 1.491e-5
-1.041, 1.524e-5
-1.042, 1.563e-5
-1.043, 1.570e-5
-1.044, 1.580e-5
-1.045, 1.588e-5
-1.046, 1.607e-5
-1.047, 1.644e-5
-1.048, 1.640e-5
-1.049, 1.657e-5
-1.050, 1.668e-5
-1.051, 1.677e-5
-1.052, 1.701e-5
-1.053, 1.716e-5
-1.054, 1.708e-5
-1.055, 1.718e-5
-1.056, 1.729e-5
-1.057, 1.751e-5
-1.058, 1.762e-5
-1.059, 1.759e-5
-1.060, 1.757e-5
-1.061, 1.780e-5
-1.062, 1.791e-5
-1.063, 1.805e-5
-1.064, 1.793e-5
-1.065, 1.794e-5
-1.066, 1.818e-5
-1.067, 1.827e-5
-1.068, 1.831e-5
-1.069, 1.837e-5
-1.070, 1.826e-5
-1.071, 1.853e-5
-1.072, 1.852e-5
-1.073, 1.863e-5
-1.074, 1.862e-5
-1.075, 1.865e-5
-1.076, 1.872e-5
-1.077, 1.890e-5
-1.078, 1.882e-5
-1.079, 1.897e-5
-1.080, 1.876e-5
-1.081, 1.890e-5
-1.082, 1.910e-5
-1.083, 1.903e-5
-1.084, 1.905e-5
-1.085, 1.901e-5
-1.086, 1.906e-5
-1.087, 1.928e-5
-1.088, 1.923e-5
-1.089, 1.917e-5
-1.090, 1.918e-5
-1.091, 1.918e-5
-1.092, 1.943e-5
-1.093, 1.941e-5
-1.094, 1.933e-5
-1.095, 1.928e-5
-1.096, 1.932e-5
-1.097, 1.945e-5
-1.098, 1.956e-5
-1.099, 1.946e-5
-1.100, 1.937e-5
-1.101, 1.948e-5
-1.102, 1.968e-5
-1.103, 1.967e-5
-1.104, 1.955e-5
-1.105, 1.948e-5
-1.106, 1.963e-5
-1.107, 1.963e-5
-1.108, 1.976e-5
-1.109, 1.960e-5
-1.110, 1.961e-5
-1.111, 1.972e-5
-1.112, 1.979e-5
-1.113, 1.979e-5
-1.114, 1.975e-5
-1.115, 1.965e-5
-1.116, 1.978e-5
-1.117, 1.983e-5
-1.118, 1.992e-5
-1.119, 1.983e-5
-1.120, 1.970e-5
-1.121, 1.979e-5
-1.122, 2.002e-5
-1.123, 1.986e-5
-1.124, 1.990e-5
-1.125, 1.974e-5
-1.126, 1.985e-5
-1.127, 2.004e-5
-1.128, 2.002e-5
-1.129, 1.988e-5
-1.130, 1.991e-5
-1.131, 1.986e-5
-1.132, 2.013e-5
-1.133, 2.000e-5
-1.134, 1.994e-5
-1.135, 1.999e-5
-1.136, 1.997e-5
-1.137, 2.007e-5
-1.138, 2.014e-5
-1.139, 1.996e-5
-1.140, 1.993e-5
-1.141, 2.007e-5
-1.142, 2.012e-5
-1.143, 2.021e-5
-1.144, 2.008e-5
-1.145, 1.996e-5
-1.146, 2.012e-5
-1.147, 2.025e-5
-1.148, 2.028e-5
-1.149, 2.009e-5
-1.150, 2.007e-5
-1.151, 2.022e-5
-1.152, 2.027e-5
-1.153, 2.020e-5
-1.154, 2.032e-5
-1.155, 2.008e-5
-1.156, 2.033e-5
-1.157, 2.037e-5
-1.158, 2.038e-5
-1.159, 2.035e-5
-1.160, 2.021e-5
-1.161, 2.034e-5
-1.162, 2.057e-5
-1.163, 2.049e-5
-1.164, 2.042e-5
-1.165, 2.038e-5
-1.166, 2.042e-5
-1.167, 2.068e-5
-1.168, 2.061e-5
-1.169, 2.051e-5
-1.170, 2.056e-5
-1.171, 2.056e-5
-1.172, 2.077e-5
-1.173, 2.081e-5
-1.174, 2.066e-5
-1.175, 2.074e-5
-1.176, 2.070e-5
-1.177, 2.107e-5
-1.178, 2.098e-5
-1.179, 2.087e-5
-1.180, 2.087e-5
-1.181, 2.103e-5
-1.182, 2.113e-5
-1.183, 2.124e-5
-1.184, 2.109e-5
-1.185, 2.102e-5
-1.186, 2.131e-5
-1.187, 2.142e-5
-1.188, 2.143e-5
-1.189, 2.136e-5
-1.190, 2.140e-5
-1.191, 2.161e-5
-1.192, 2.168e-5
-1.193, 2.171e-5
-1.194, 2.170e-5
-1.195, 2.168e-5
-1.196, 2.186e-5
-1.197, 2.208e-5
-1.198, 2.207e-5
-1.199, 2.215e-5
-1.200, 2.207e-5
-1.201, 2.223e-5
-1.202, 2.254e-5
-1.203, 2.249e-5
-1.204, 2.249e-5
-1.205, 2.258e-5
-1.206, 2.274e-5
-1.207, 2.304e-5
-1.208, 2.302e-5
-1.209, 2.305e-5
-1.210, 2.316e-5
-1.211, 2.324e-5
-1.212, 2.351e-5
-1.213, 2.367e-5
-1.214, 2.368e-5
-1.215, 2.384e-5
-1.216, 2.390e-5
-1.217, 2.421e-5
-1.218, 2.440e-5
-1.219, 2.431e-5
-1.220, 2.452e-5
-1.221, 2.471e-5
-1.222, 2.499e-5
-1.223, 2.517e-5
-1.224, 2.516e-5
-1.225, 2.530e-5
-1.226, 2.560e-5
-1.227, 2.591e-5
-1.228, 2.623e-5
-1.229, 2.631e-5
-1.230, 2.634e-5
-1.231, 2.672e-5
-1.232, 2.698e-5
-1.233, 2.707e-5
-1.234, 2.741e-5
-1.235, 2.739e-5
-1.236, 2.783e-5
-1.237, 2.823e-5
-1.238, 2.837e-5
-1.239, 2.862e-5
-1.240, 2.881e-5
-1.241, 2.912e-5
-1.242, 2.972e-5
-1.243, 2.978e-5
-1.244, 3.006e-5
-1.245, 3.035e-5
-1.246, 3.073e-5
-1.247, 3.127e-5
-1.248, 3.146e-5
-1.249, 3.166e-5
-1.250, 3.211e-5
-1.251, 3.251e-5
-1.252, 3.299e-5
-1.253, 3.338e-5
-1.254, 3.362e-5
-1.255, 3.409e-5
-1.256, 3.450e-5
-1.257, 3.507e-5
-1.258, 3.563e-5
-1.259, 3.572e-5
-1.260, 3.629e-5
-1.261, 3.690e-5
-1.262, 3.749e-5
-1.263, 3.799e-5
-1.264, 3.829e-5
-1.265, 3.880e-5
-1.266, 3.958e-5
-1.267, 4.013e-5
-1.268, 4.073e-5
-1.269, 4.115e-5
-1.270, 4.172e-5
-1.271, 4.248e-5
-1.272, 4.322e-5
-1.273, 4.382e-5
-1.274, 4.441e-5
-1.275, 4.504e-5
-1.276, 4.586e-5
-1.277, 4.668e-5
-1.278, 4.733e-5
-1.279, 4.801e-5
-1.280, 4.879e-5
-1.281, 4.960e-5
-1.282, 5.071e-5
-1.283, 5.133e-5
-1.284, 5.210e-5
-1.285, 5.293e-5
-1.286, 5.395e-5
-1.287, 5.502e-5
-1.288, 5.587e-5
-1.289, 5.668e-5
-1.290, 5.768e-5
-1.291, 5.876e-5
-1.292, 5.994e-5
-1.293, 6.089e-5
-1.294, 6.186e-5
-1.295, 6.286e-5
-1.296, 6.416e-5
-1.297, 6.531e-5
-1.298, 6.659e-5
-1.299, 6.756e-5
-1.300, 6.883e-5
-1.301, 7.021e-5
-1.302, 7.154e-5
-1.303, 7.289e-5
-1.304, 7.397e-5
-1.305, 7.530e-5
-1.306, 7.702e-5
-1.307, 7.831e-5
-1.308, 7.984e-5
-1.309, 8.123e-5
-1.310, 8.263e-5
-1.311, 8.450e-5
-1.312, 8.590e-5
-1.313, 8.758e-5
-1.314, 8.919e-5
-1.315, 9.073e-5
-1.316, 9.260e-5
-1.317, 9.441e-5
-1.318, 9.619e-5
-1.319, 9.795e-5
-1.320, 9.964e-5
-1.321, 1.017e-4
-1.322, 1.038e-4
-1.323, 1.055e-4
-1.324, 1.076e-4
-1.325, 1.094e-4
-1.326, 1.117e-4
-1.327, 1.140e-4
-1.328, 1.160e-4
-1.329, 1.180e-4
-1.330, 1.204e-4
-1.331, 1.227e-4
-1.332, 1.252e-4
-1.333, 1.275e-4
-1.334, 1.298e-4
-1.335, 1.323e-4
-1.336, 1.348e-4
-1.337, 1.373e-4
-1.338, 1.401e-4
-1.339, 1.424e-4
-1.340, 1.451e-4
-1.341, 1.481e-4
-1.342, 1.509e-4
-1.343, 1.538e-4
-1.344, 1.564e-4
-1.345, 1.593e-4
-1.346, 1.626e-4
-1.347, 1.656e-4
-1.348, 1.687e-4
-1.349, 1.716e-4
-1.350, 1.747e-4
-1.351, 1.786e-4
-1.352, 1.817e-4
-1.353, 1.849e-4
-1.354, 1.880e-4
-1.355, 1.914e-4
-1.356, 1.953e-4
-1.357, 1.988e-4
-1.358, 2.025e-4
-1.359, 2.061e-4
-1.360, 2.098e-4
-1.361, 2.137e-4
-1.362, 2.177e-4
-1.363, 2.216e-4
-1.364, 2.254e-4
-1.365, 2.295e-4
-1.366, 2.338e-4
-1.367, 2.381e-4
-1.368, 2.422e-4
-1.369, 2.465e-4
-1.370, 2.509e-4
-1.371, 2.552e-4
-1.372, 2.600e-4
-1.373, 2.646e-4
-1.374, 2.690e-4
-1.375, 2.737e-4
-1.376, 2.787e-4
-1.377, 2.835e-4
-1.378, 2.884e-4
-1.379, 2.933e-4
-1.380, 2.983e-4
-1.381, 3.036e-4
-1.382, 3.089e-4
-1.383, 3.142e-4
-1.384, 3.194e-4
-1.385, 3.247e-4
-1.386, 3.305e-4
-1.387, 3.360e-4
-1.388, 3.418e-4
-1.389, 3.473e-4
-1.390, 3.527e-4
-1.391, 3.591e-4
-1.392, 3.650e-4
-1.393, 3.709e-4
-1.394, 3.772e-4
-1.395, 3.832e-4
-1.396, 3.894e-4
-1.397, 3.960e-4
-1.398, 4.023e-4
-1.399, 4.089e-4
-1.400, 3.936e-4
-1.399, 3.800e-4
-1.398, 3.693e-4
-1.397, 3.596e-4
-1.396, 3.497e-4
-1.395, 3.404e-4
-1.394, 3.318e-4
-1.393, 3.236e-4
-1.392, 3.154e-4
-1.391, 3.075e-4
-1.390, 2.997e-4
-1.389, 2.926e-4
-1.388, 2.856e-4
-1.387, 2.784e-4
-1.386, 2.718e-4
-1.385, 2.651e-4
-1.384, 2.590e-4
-1.383, 2.527e-4
-1.382, 2.466e-4
-1.381, 2.407e-4
-1.380, 2.350e-4
-1.379, 2.295e-4
-1.378, 2.243e-4
-1.377, 2.188e-4
-1.376, 2.135e-4
-1.375, 2.085e-4
-1.374, 2.037e-4
-1.373, 1.990e-4
-1.372, 1.942e-4
-1.371, 1.896e-4
-1.370, 1.850e-4
-1.369, 1.808e-4
-1.368, 1.766e-4
-1.367, 1.723e-4
-1.366, 1.680e-4
-1.365, 1.642e-4
-1.364, 1.604e-4
-1.363, 1.566e-4
-1.362, 1.530e-4
-1.361, 1.490e-4
-1.360, 1.457e-4
-1.359, 1.422e-4
-1.358, 1.388e-4
-1.357, 1.355e-4
-1.356, 1.321e-4
-1.355, 1.289e-4
-1.354, 1.259e-4
-1.353, 1.228e-4
-1.352, 1.199e-4
-1.351, 1.170e-4
-1.350, 1.139e-4
-1.349, 1.113e-4
-1.348, 1.087e-4
-1.347, 1.059e-4
-1.346, 1.033e-4
-1.345, 1.006e-4
-1.344, 9.824e-5
-1.343, 9.581e-5
-1.342, 9.326e-5
-1.341, 9.098e-5
-1.340, 8.859e-5
-1.339, 8.650e-5
-1.338, 8.429e-5
-1.337, 8.202e-5
-1.336, 7.994e-5
-1.335, 7.781e-5
-1.334, 7.585e-5
-1.333, 7.391e-5
-1.332, 7.200e-5
-1.331, 6.986e-5
-1.330, 6.814e-5
-1.329, 6.636e-5
-1.328, 6.462e-5
-1.327, 6.290e-5
-1.326, 6.103e-5
-1.325, 5.936e-5
-1.324, 5.787e-5
-1.323, 5.614e-5
-1.322, 5.479e-5
-1.321, 5.303e-5
-1.320, 5.152e-5
-1.319, 5.024e-5
-1.318, 4.877e-5
-1.317, 4.743e-5
-1.316, 4.590e-5
-1.315, 4.439e-5
-1.314, 4.331e-5
-1.313, 4.201e-5
-1.312, 4.080e-5
-1.311, 3.950e-5
-1.310, 3.809e-5
-1.309, 3.720e-5
-1.308, 3.603e-5
-1.307, 3.488e-5
-1.306, 3.362e-5
-1.305, 3.254e-5
-1.304, 3.162e-5
-1.303, 3.065e-5
-1.302, 2.946e-5
-1.301, 2.855e-5
-1.300, 2.746e-5
-1.299, 2.663e-5
-1.298, 2.574e-5
-1.297, 2.473e-5
-1.296, 2.384e-5
-1.295, 2.290e-5
-1.294, 2.205e-5
-1.293, 2.143e-5
-1.292, 2.053e-5
-1.291, 1.958e-5
-1.290, 1.883e-5
-1.289, 1.816e-5
-1.288, 1.748e-5
-1.287, 1.673e-5
-1.286, 1.587e-5
-1.285, 1.519e-5
-1.284, 1.466e-5
-1.283, 1.390e-5
-1.282, 1.334e-5
-1.281, 1.254e-5
-1.280, 1.178e-5
-1.279, 1.143e-5
-1.278, 1.080e-5
-1.277, 1.019e-5
-1.276, 9.576e-6
-1.275, 8.928e-6
-1.274, 8.521e-6
-1.273, 8.020e-6
-1.272, 7.491e-6
-1.271, 6.840e-6
-1.270, 6.357e-6
-1.269, 6.046e-6
-1.268, 5.556e-6
-1.267, 4.942e-6
-1.266, 4.470e-6
-1.265, 3.998e-6
-1.264, 3.729e-6
-1.263, 3.376e-6
-1.262, 2.758e-6
-1.261, 2.360e-6
-1.260, 1.927e-6
-1.259, 1.573e-6
-1.258, 1.387e-6
-1.257, 8.374e-7
-1.256, 3.974e-7
-1.255, 1.172e-7
-1.254, -2.360e-7
-1.253, -4.274e-7
-1.252, -8.358e-7
-1.251, -1.349e-6
-1.250, -1.533e-6
-1.249, -1.820e-6
-1.248, -2.046e-6
-1.247, -2.452e-6
-1.246, -2.891e-6
-1.245, -3.036e-6
-1.244, -3.239e-6
-1.243, -3.534e-6
-1.242, -3.771e-6
-1.241, -4.247e-6
-1.240, -4.439e-6
-1.239, -4.566e-6
-1.238, -4.827e-6
-1.237, -5.005e-6
-1.236, -5.399e-6
-1.235, -5.665e-6
-1.234, -5.785e-6
-1.233, -5.965e-6
-1.232, -6.184e-6
-1.231, -6.508e-6
-1.230, -6.753e-6
-1.229, -7.049e-6
-1.228, -6.949e-6
-1.227, -7.370e-6
-1.226, -7.512e-6
-1.225, -7.758e-6
-1.224, -7.782e-6
-1.223, -7.866e-6
-1.222, -8.257e-6
-1.221, -8.468e-6
-1.220, -8.550e-6
-1.219, -8.733e-6
-1.218, -8.750e-6
-1.217, -9.034e-6
-1.216, -9.239e-6
-1.215, -9.364e-6
-1.214, -9.518e-6
-1.213, -9.472e-6
-1.212, -9.655e-6
-1.211, -1.004e-5
-1.210, -1.011e-5
-1.209, -1.020e-5
-1.208, -1.020e-5
-1.207, -1.037e-5
-1.206, -1.076e-5
-1.205, -1.075e-5
-1.204, -1.076e-5
-1.203, -1.092e-5
-1.202, -1.100e-5
-1.201, -1.128e-5
-1.200, -1.134e-5
-1.199, -1.134e-5
-1.198, -1.158e-5
-1.197, -1.154e-5
-1.196, -1.182e-5
-1.195, -1.198e-5
-1.194, -1.191e-5
-1.193, -1.205e-5
-1.192, -1.209e-5
-1.191, -1.231e-5
-1.190, -1.253e-5
-1.189, -1.242e-5
-1.188, -1.246e-5
-1.187, -1.270e-5
-1.186, -1.289e-5
-1.185, -1.303e-5
-1.184, -1.289e-5
-1.183, -1.300e-5
-1.182, -1.323e-5
-1.181, -1.335e-5
-1.180, -1.342e-5
-1.179, -1.347e-5
-1.178, -1.357e-5
-1.177, -1.368e-5
-1.176, -1.384e-5
-1.175, -1.384e-5
-1.174, -1.393e-5
-1.173, -1.390e-5
-1.172, -1.401e-5
-1.171, -1.430e-5
-1.170, -1.431e-5
-1.169, -1.432e-5
-1.168, -1.436e-5
-1.167, -1.438e-5
-1.166, -1.470e-5
-1.165, -1.476e-5
-1.164, -1.474e-5
-1.163, -1.483e-5
-1.162, -1.487e-5
-1.161, -1.517e-5
-1.160, -1.521e-5
-1.159, -1.506e-5
-1.158, -1.529e-5
-1.157, -1.524e-5
-1.156, -1.555e-5
-1.155, -1.563e-5
-1.154, -1.556e-5
-1.153, -1.568e-5
-1.152, -1.573e-5
-1.151, -1.593e-5
-1.150, -1.616e-5
-1.149, -1.590e-5
-1.148, -1.602e-5
-1.147, -1.625e-5
-1.146, -1.638e-5
-1.145, -1.656e-5
-1.144, -1.648e-5
-1.143, -1.650e-5
-1.142, -1.671e-5
-1.141, -1.678e-5
-1.140, -1.693e-5
-1.139, -1.696e-5
-1.138, -1.696e-5
-1.137, -1.713e-5
-1.136, -1.730e-5
-1.135, -1.736e-5
-1.134, -1.740e-5
-1.133, -1.737e-5
-1.132, -1.749e-5
-1.131, -1.781e-5
-1.130, -1.790e-5
-1.129, -1.786e-5
-1.128, -1.785e-5
-1.127, -1.798e-5
-1.126, -1.838e-5
-1.125, -1.834e-5
-1.124, -1.828e-5
-1.123, -1.848e-5
-1.122, -1.848e-5
-1.121, -1.883e-5
-1.120, -1.885e-5
-1.119, -1.877e-5
-1.118, -1.898e-5
-1.117, -1.908e-5
-1.116, -1.927e-5
-1.115, -1.944e-5
-1.114, -1.939e-5
-1.113, -1.954e-5
-1.112, -1.958e-5
-1.111, -1.985e-5
-1.110, -1.998e-5
-1.109, -1.996e-5
-1.108, -1.999e-5
-1.107, -2.031e-5
-1.106, -2.037e-5
-1.105, -2.069e-5
-1.104, -2.054e-5
-1.103, -2.060e-5
-1.102, -2.092e-5
-1.101, -2.105e-5
-1.100, -2.126e-5
-1.099, -2.130e-5
-1.098, -2.136e-5
-1.097, -2.154e-5
-1.096, -2.177e-5
-1.095, -2.191e-5
-1.094, -2.199e-5
-1.093, -2.205e-5
-1.092, -2.215e-5
-1.091, -2.261e-5
-1.090, -2.261e-5
-1.089, -2.279e-5
-1.088, -2.276e-5
-1.087, -2.305e-5
-1.086, -2.337e-5
-1.085, -2.346e-5
-1.084, -2.350e-5
-1.083, -2.372e-5
-1.082, -2.380e-5
-1.081, -2.432e-5
-1.080, -2.431e-5
-1.079, -2.435e-5
-1.078, -2.461e-5
-1.077, -2.480e-5
-1.076, -2.519e-5
-1.075, -2.542e-5
-1.074, -2.536e-5
-1.073, -2.566e-5
-1.072, -2.575e-5
-1.071, -2.615e-5
-1.070, -2.643e-5
-1.069, -2.640e-5
-1.068, -2.661e-5
-1.067, -2.696e-5
-1.066, -2.723e-5
-1.065, -2.753e-5
-1.064, -2.756e-5
-1.063, -2.777e-5
-1.062, -2.810e-5
-1.061, -2.846e-5
-1.060, -2.858e-5
-1.059, -2.888e-5
-1.058, -2.902e-5
-1.057, -2.935e-5
-1.056, -2.968e-5
-1.055, -2.991e-5
-1.054, -3.011e-5
-1.053, -3.030e-5
-1.052, -3.059e-5
-1.051, -3.110e-5
-1.050, -3.128e-5
-1.049, -3.153e-5
-1.048, -3.176e-5
-1.047, -3.208e-5
-1.046, -3.251e-5
-1.045, -3.270e-5
-1.044, -3.291e-5
-1.043, -3.339e-5
-1.042, -3.353e-5
-1.041, -3.408e-5
-1.040, -3.431e-5
-1.039, -3.455e-5
-1.038, -3.492e-5
-1.037, -3.523e-5
-1.036, -3.570e-5
-1.035, -3.616e-5
-1.034, -3.627e-5
-1.033, -3.665e-5
-1.032, -3.694e-5
-1.031, -3.757e-5
-1.030, -3.791e-5
-1.029, -3.810e-5
-1.028, -3.844e-5
-1.027, -3.891e-5
-1.026, -3.947e-5
-1.025, -3.992e-5
-1.024, -4.013e-5
-1.023, -4.052e-5
-1.022, -4.099e-5
-1.021, -4.146e-5
-1.020, -4.188e-5
-1.019, -4.225e-5
-1.018, -4.260e-5
-1.017, -4.315e-5
-1.016, -4.361e-5
-1.015, -4.405e-5
-1.014, -4.443e-5
-1.013, -4.482e-5
-1.012, -4.524e-5
-1.011, -4.593e-5
-1.010, -4.632e-5
-1.009, -4.673e-5
-1.008, -4.705e-5
-1.007, -4.759e-5
-1.006, -4.837e-5
-1.005, -4.871e-5
-1.004, -4.911e-5
-1.003, -4.971e-5
-1.002, -5.003e-5
-1.001, -5.094e-5
