Potential V vs RHE, Current mA cm-2
0.013299999999999867,-0.2202705493889862
0.012299999999999978,-0.9181476336124089
0.011299999999999866,-1.3980177065266295
0.010299999999999976,-1.7471684553333202
0.009299999999999864,-1.9650339955125358
0.008299999999999974,-2.1390434853959355
0.007299999999999862,-2.2706116362833835
0.006299999999999972,-2.3569090255751513
0.00529999999999986,-2.4446211261667834
0.0042999999999999705,-2.532333226758415
0.0032999999999998586,-2.576189277054232
0.0022999999999999687,-2.662486666345999
0.0012999999999998568,-2.706342716641815
0.00029999999999996696,-2.7501987669376318
-0.000700000000000145,-2.794054817233447
-0.0017000000000000348,-2.8379108675292635
-0.0027000000000001467,-2.8803522065252145
-0.0037000000000000366,-2.924208256821031
-0.0047000000000001485,-2.924208256821031
-0.005700000000000038,-2.968064307116847
-0.00670000000000015,-3.0119203574126634
-0.00770000000000004,-3.0119203574126634
-0.008700000000000152,-3.055776407708479
-0.009700000000000042,-3.055776407708479
-0.010700000000000154,-3.0996324580042955
-0.011700000000000044,-3.0996324580042955
-0.012700000000000156,-3.1420737970002466
-0.013700000000000045,-3.1420737970002466
-0.014700000000000157,-3.1859298472960624
-0.015700000000000047,-3.1859298472960624
-0.01670000000000016,-3.1859298472960624
-0.01770000000000005,-3.2297858975918787
-0.01870000000000016,-3.2297858975918787
-0.01970000000000005,-3.273641947887695
-0.020700000000000163,-3.2297858975918787
-0.021700000000000053,-3.273641947887695
-0.022700000000000164,-3.273641947887695
-0.023700000000000054,-3.273641947887695
-0.024700000000000166,-3.317497998183511
-0.025700000000000056,-3.317497998183511
-0.026700000000000168,-3.317497998183511
-0.027700000000000058,-3.361354048479327
-0.02870000000000017,-3.361354048479327
-0.02970000000000006,-3.361354048479327
-0.03070000000000017,-3.403795387475278
-0.03170000000000006,-3.361354048479327
-0.03270000000000017,-3.403795387475278
-0.03370000000000006,-3.403795387475278
-0.034700000000000175,-3.403795387475278
-0.035700000000000065,-3.403795387475278
-0.03670000000000018,-3.403795387475278
-0.03770000000000007,-3.447651437771094
-0.03870000000000018,-3.447651437771094
-0.03970000000000007,-3.447651437771094
-0.04070000000000018,-3.447651437771094
-0.04170000000000007,-3.447651437771094
-0.04270000000000018,-3.447651437771094
-0.04370000000000007,-3.4915074880669104
-0.044700000000000184,-3.4915074880669104
-0.045700000000000074,-3.4915074880669104
-0.046700000000000186,-3.4915074880669104
-0.047700000000000076,-3.4915074880669104
-0.04870000000000019,-3.4915074880669104
-0.04970000000000008,-3.5353635383627267
-0.05070000000000019,-3.5353635383627267
-0.05170000000000008,-3.5353635383627267
-0.05270000000000019,-3.5353635383627267
-0.05370000000000008,-3.5353635383627267
-0.05470000000000019,-3.5353635383627267
-0.05570000000000008,-3.5353635383627267
-0.056700000000000195,-3.5353635383627267
-0.057700000000000085,-3.5353635383627267
-0.058700000000000196,-3.5353635383627267
-0.059700000000000086,-3.579219588658543
-0.0607000000000002,-3.579219588658543
-0.06170000000000009,-3.579219588658543
-0.0627000000000002,-3.579219588658543
-0.06370000000000009,-3.623075638954359
-0.0647000000000002,-3.579219588658543
-0.06570000000000009,-3.623075638954359
-0.0667000000000002,-3.579219588658543
-0.0677000000000001,-3.623075638954359
-0.0687000000000002,-3.623075638954359
-0.0697000000000001,-3.623075638954359
-0.07070000000000021,-3.623075638954359
-0.0717000000000001,-3.623075638954359
-0.07270000000000021,-3.623075638954359
-0.0737000000000001,-3.623075638954359
-0.07470000000000021,-3.623075638954359
-0.0757000000000001,-3.623075638954359
-0.07670000000000021,-3.6655169779503103
-0.0777000000000001,-3.6655169779503103
-0.07870000000000021,-3.6655169779503103
-0.0797000000000001,-3.6655169779503103
-0.08070000000000022,-3.6655169779503103
-0.0817000000000001,-3.6655169779503103
-0.08270000000000022,-3.6655169779503103
-0.08370000000000011,-3.6655169779503103
-0.08470000000000022,-3.6655169779503103
-0.08570000000000011,-3.6655169779503103
-0.08670000000000022,-3.6655169779503103
-0.08770000000000011,-3.6655169779503103
-0.08870000000000022,-3.7093730282461257
-0.08970000000000011,-3.7093730282461257
-0.09070000000000022,-3.7093730282461257
-0.09170000000000011,-3.7093730282461257
-0.09270000000000023,-3.7093730282461257
-0.09370000000000012,-3.7093730282461257
-0.09470000000000023,-3.7093730282461257
-0.09570000000000012,-3.7093730282461257
-0.09670000000000023,-3.7093730282461257
-0.09770000000000012,-3.7093730282461257
-0.09870000000000023,-3.7093730282461257
-0.09970000000000012,-3.7093730282461257
-0.10070000000000023,-3.7093730282461257
-0.10170000000000012,-3.7093730282461257
-0.10270000000000024,-3.7093730282461257
-0.10370000000000013,-3.7093730282461257
-0.10470000000000024,-3.7532290785419424
-0.10570000000000013,-3.7532290785419424
-0.10670000000000024,-3.7532290785419424
-0.10770000000000013,-3.7532290785419424
-0.10870000000000024,-3.7532290785419424
-0.10970000000000013,-3.7532290785419424
-0.11070000000000024,-3.7532290785419424
-0.11170000000000013,-3.7532290785419424
-0.11270000000000002,-3.7532290785419424
-0.11370000000000013,-3.7532290785419424
-0.11470000000000002,-3.7093730282461257
-0.11570000000000014,-3.7532290785419424
-0.11670000000000003,-3.7532290785419424
-0.11770000000000014,-3.7532290785419424
-0.11870000000000003,-3.7970851288377587
-0.11970000000000014,-3.7970851288377587
-0.12070000000000003,-3.7970851288377587
-0.12170000000000014,-3.7970851288377587
-0.12270000000000003,-3.7532290785419424
-0.12370000000000014,-3.7970851288377587
-0.12470000000000003,-3.7970851288377587
-0.12570000000000014,-3.7970851288377587
-0.12670000000000003,-3.7970851288377587
-0.12770000000000015,-3.7970851288377587
-0.12870000000000004,-3.7532290785419424
-0.12970000000000015,-3.7970851288377587
-0.13070000000000004,-3.7970851288377587
-0.13170000000000015,-3.7970851288377587
-0.13270000000000004,-3.7970851288377587
-0.13370000000000015,-3.7970851288377587
-0.13470000000000004,-3.7970851288377587
-0.13570000000000015,-3.7970851288377587
-0.13670000000000004,-3.7970851288377587
-0.13770000000000016,-3.7970851288377587
-0.13870000000000005,-3.7970851288377587
-0.13970000000000016,-3.840941179133574
-0.14070000000000005,-3.7970851288377587
-0.14170000000000016,-3.7970851288377587
-0.14270000000000005,-3.7970851288377587
-0.14370000000000016,-3.7970851288377587
-0.14470000000000005,-3.7970851288377587
-0.14570000000000016,-3.840941179133574
-0.14670000000000005,-3.840941179133574
-0.14770000000000016,-3.7970851288377587
-0.14870000000000005,-3.840941179133574
-0.14970000000000017,-3.840941179133574
-0.15070000000000006,-3.840941179133574
-0.15170000000000017,-3.840941179133574
-0.15270000000000006,-3.840941179133574
-0.15370000000000017,-3.840941179133574
-0.15470000000000006,-3.840941179133574
-0.15570000000000017,-3.840941179133574
-0.15670000000000006,-3.840941179133574
-0.15770000000000017,-3.840941179133574
-0.15870000000000006,-3.840941179133574
-0.15970000000000018,-3.840941179133574
-0.16070000000000007,-3.840941179133574
-0.16170000000000018,-3.840941179133574
-0.16270000000000007,-3.840941179133574
-0.16370000000000018,-3.840941179133574
-0.16470000000000007,-3.884797229429391
-0.16570000000000018,-3.840941179133574
-0.16670000000000007,-3.840941179133574
-0.16770000000000018,-3.884797229429391
-0.16870000000000007,-3.884797229429391
-0.16970000000000018,-3.884797229429391
-0.17070000000000007,-3.884797229429391
-0.17170000000000019,-3.884797229429391
-0.17270000000000008,-3.884797229429391
-0.1737000000000002,-3.884797229429391
-0.17470000000000008,-3.884797229429391
-0.1757000000000002,-3.884797229429391
-0.17670000000000008,-3.884797229429391
-0.1777000000000002,-3.884797229429391
-0.17870000000000008,-3.927238568425342
-0.1797000000000002,-3.884797229429391
-0.18070000000000008,-3.884797229429391
-0.1817000000000002,-3.927238568425342
-0.18270000000000008,-3.884797229429391
-0.1837000000000002,-3.927238568425342
-0.1847000000000001,-3.927238568425342
-0.1857000000000002,-3.927238568425342
-0.1867000000000001,-3.927238568425342
-0.1877000000000002,-3.927238568425342
-0.1887000000000001,-3.884797229429391
-0.1897000000000002,-3.927238568425342
-0.1907000000000001,-3.927238568425342
-0.1917000000000001,-3.927238568425342
-0.19269999999999998,-3.927238568425342
-0.1937000000000001,-3.927238568425342
-0.19469999999999998,-3.971094618721158
-0.1957000000000001,-3.971094618721158
-0.19669999999999999,-3.971094618721158
-0.1977000000000001,-3.971094618721158
-0.1987,-3.971094618721158
-0.1997000000000001,-3.971094618721158
-0.2007,-3.971094618721158
-0.2017000000000001,-3.971094618721158
-0.2027,-3.971094618721158
-0.2037000000000001,-3.971094618721158
-0.2047,-3.971094618721158
-0.2057000000000001,-4.014950669016974
-0.2067,-4.014950669016974
-0.2077000000000001,-4.014950669016974
-0.2087,-4.014950669016974
-0.2097000000000001,-4.014950669016974
-0.2107,-4.014950669016974
-0.2117000000000001,-4.014950669016974
-0.2127,-4.014950669016974
-0.2137000000000001,-4.014950669016974
-0.2147,-4.0588067193127895
-0.2157000000000001,-4.0588067193127895
-0.2167,-4.0588067193127895
-0.21770000000000012,-4.0588067193127895
-0.2187,-4.0588067193127895
-0.21970000000000012,-4.0588067193127895
-0.2207,-4.102662769608606
-0.22170000000000012,-4.0588067193127895
-0.2227,-4.0588067193127895
-0.22370000000000012,-4.102662769608606
-0.2247,-4.102662769608606
-0.22570000000000012,-4.102662769608606
-0.2267,-4.102662769608606
-0.22770000000000012,-4.146518819904423
-0.22870000000000001,-4.146518819904423
-0.22970000000000013,-4.146518819904423
-0.23070000000000002,-4.146518819904423
-0.23170000000000013,-4.1889601589003735
-0.23270000000000002,-4.1889601589003735
-0.23370000000000013,-4.1889601589003735
-0.23470000000000002,-4.1889601589003735
-0.23570000000000013,-4.1889601589003735
-0.23670000000000002,-4.1889601589003735
-0.2376999999999999,-4.1889601589003735
-0.23870000000000002,-4.1889601589003735
-0.2396999999999999,-4.23281620919619
-0.24070000000000003,-4.23281620919619
-0.24169999999999991,-4.23281620919619
-0.24270000000000003,-4.23281620919619
-0.24369999999999992,-4.276672259492005
-0.24470000000000003,-4.276672259492005
-0.24569999999999992,-4.276672259492005
-0.24670000000000003,-4.276672259492005
-0.24769999999999992,-4.276672259492005
-0.24870000000000003,-4.3205283097878215
-0.24969999999999992,-4.3205283097878215
-0.25070000000000003,-4.3205283097878215
-0.2516999999999999,-4.3205283097878215
-0.25270000000000004,-4.3205283097878215
-0.2536999999999999,-4.364384360083638
-0.25470000000000004,-4.364384360083638
-0.2556999999999999,-4.406825699079589
-0.25670000000000004,-4.406825699079589
-0.25769999999999993,-4.406825699079589
-0.25870000000000004,-4.450681749375406
-0.25969999999999993,-4.450681749375406
-0.26070000000000004,-4.450681749375406
-0.26169999999999993,-4.494537799671222
-0.26270000000000004,-4.494537799671222
-0.26369999999999993,-4.494537799671222
-0.26470000000000005,-4.494537799671222
-0.26569999999999994,-4.538393849967037
-0.26670000000000005,-4.538393849967037
-0.26769999999999994,-4.538393849967037
-0.26870000000000005,-4.582249900262854
-0.26969999999999994,-4.582249900262854
-0.27070000000000005,-4.626105950558669
-0.27169999999999994,-4.626105950558669
-0.27270000000000005,-4.626105950558669
-0.27369999999999994,-4.626105950558669
-0.27470000000000006,-4.668547289554621
-0.27569999999999995,-4.668547289554621
-0.27670000000000006,-4.668547289554621
-0.27769999999999995,-4.712403339850438
-0.27870000000000006,-4.712403339850438
-0.27969999999999995,-4.712403339850438
-0.28070000000000006,-4.756259390146253
-0.28169999999999995,-4.800115440442069
-0.28270000000000006,-4.800115440442069
-0.28369999999999995,-4.843971490737885
-0.28470000000000006,-4.843971490737885
-0.28569999999999995,-4.887827541033701
-0.28670000000000007,-4.887827541033701
-0.28769999999999996,-4.9302688800296535
-0.28870000000000007,-4.974124930325469
-0.28969999999999996,-4.974124930325469
-0.29070000000000007,-5.017980980621284
-0.29169999999999996,-5.017980980621284
-0.29270000000000007,-5.0618370309171015
-0.29369999999999996,-5.0618370309171015
-0.2947000000000001,-5.105693081212917
-0.29569999999999996,-5.105693081212917
-0.2967000000000001,-5.149549131508733
-0.29769999999999996,-5.191990470504685
-0.2987000000000001,-5.191990470504685
-0.29969999999999997,-5.235846520800501
-0.3007000000000001,-5.235846520800501
-0.30169999999999997,-5.279702571096316
-0.3027000000000001,-5.323558621392133
-0.30369999999999997,-5.323558621392133
-0.3047000000000001,-5.367414671687949
-0.30569999999999997,-5.411270721983764
-0.3067000000000001,-5.411270721983764
-0.3077,-5.453712060979717
-0.3087000000000001,-5.497568111275533
-0.3097,-5.497568111275533
-0.3107000000000001,-5.5414241615713475
-0.3117,-5.585280211867165
-0.3127000000000001,-5.585280211867165
-0.3137,-5.629136262162981
-0.3147000000000001,-5.672992312458796
-0.3157,-5.715433651454749
-0.3167000000000001,-5.759289701750564
-0.3177,-5.80314575204638
-0.3187000000000001,-5.847001802342197
-0.3197,-5.890857852638012
-0.3207000000000001,-5.9347139029338285
-0.3217,-5.977155241929781
-0.3227000000000001,-6.021011292225596
-0.3237,-6.064867342521412
-0.3247000000000001,-6.064867342521412
-0.3257,-6.152579443113044
-0.3267000000000001,-6.152579443113044
-0.3277,-6.196435493408861
-0.3287000000000001,-6.282732882700628
-0.3297,-6.326588932996443
-0.3307000000000001,-6.37044498329226
-0.3317,-6.414301033588076
-0.3327000000000001,-6.458157083883892
-0.3337,-6.500598422879844
-0.3347000000000001,-6.588310523471475
-0.3357,-6.632166573767292
-0.3367000000000001,-6.6760226240631075
-0.3377,-6.719878674358924
-0.3387000000000001,-6.762320013354876
-0.3397,-6.806176063650692
-0.3407000000000001,-6.893888164242324
-0.3417,-6.93774421453814
-0.3427000000000001,-6.981600264833956
-0.3437,-7.067897654125724
-0.3447000000000001,-7.111753704421539
-0.3457,-7.199465805013171
-0.3467000000000001,-7.243321855308987
-0.3477,-7.329619244600755
-0.3487000000000001,-7.37347529489657
-0.3497,-7.461187395488204
-0.3507000000000001,-7.50504344578402
-0.3517,-7.5474847847799715
-0.3527000000000001,-7.635196885371603
-0.3537,-7.722908985963235
-0.3547000000000001,-7.7653503249591855
-0.3557,-7.853062425550818
-0.35670000000000013,-7.896918475846635
-0.3577,-7.984630576438266
-0.35870000000000013,-8.070927965730034
-0.3597,-8.11478401602585
-0.36070000000000013,-8.202496116617484
-0.3617,-8.288793505909249
-0.3626999999999999,-8.332649556205066
-0.3637,-8.464217707092514
-0.3646999999999999,-8.508073757388331
-0.3657,-8.55051509638428
-0.3666999999999999,-8.638227196975913
-0.3677,-8.725939297567548
-0.3686999999999999,-8.812236686859313
-0.36970000000000003,-8.899948787450944
-0.3706999999999999,-8.987660888042578
-0.37170000000000003,-9.073958277334345
-0.3726999999999999,-9.161670377925978
-0.37370000000000003,-9.24938247851761
-0.3746999999999999,-9.335679867809377
-0.37570000000000003,-9.467248018696827
-0.3766999999999999,-9.511104068992642
-0.37770000000000004,-9.641257508580225
-0.3786999999999999,-9.728969609171857
-0.37970000000000004,-9.81668170976349
-0.3806999999999999,-9.902979099055257
-0.38170000000000004,-10.034547249942705
-0.38269999999999993,-10.164700689530287
-0.38370000000000004,-10.208556739826104
-0.38469999999999993,-10.340124890713554
-0.38570000000000004,-10.42642228000532
-0.38669999999999993,-10.514134380596953
-0.38770000000000004,-10.601846481188586
-0.38869999999999993,-10.731999920776168
-0.38970000000000005,-10.819712021367803
-0.39069999999999994,-10.949865460955383
-0.39170000000000005,-11.037577561547016
-0.39269999999999994,-11.1677310011346
-0.39370000000000005,-11.299299152022046
-0.39469999999999994,-11.42945259160963
-0.39570000000000005,-11.517164692201263
-0.39669999999999994,-11.647318131788847
-0.39770000000000005,-11.778886282676295
-0.39869999999999994,-11.86659838326793
-0.39970000000000006,-11.952895772559694
-0.40069999999999995,-12.12831997374296
-0.40170000000000006,-12.258473413330542
-0.40269999999999995,-12.346185513922174
-0.40370000000000006,-12.520195003805576
-0.40469999999999995,-12.651763154693022
-0.40570000000000006,-12.825772644576423
-0.40669999999999995,-12.913484745168056
-0.40770000000000006,-13.087494235051453
-0.40869999999999995,-13.217647674639037
-0.40970000000000006,-13.349215825526485
-0.41069999999999995,-13.47936926511407
-0.41170000000000007,-13.610937416001518
-0.41269999999999996,-13.741090855589102
-0.41370000000000007,-13.872659006476551
-0.41469999999999996,-14.002812446064135
-0.41570000000000007,-14.13438059695158
-0.41669999999999996,-14.30273124163552
-0.41770000000000007,-14.444202371622024
-0.41869999999999996,-14.57152638860988
-0.4197000000000001,-14.741291744593681
-0.42069999999999996,-14.868615761581536
-0.4217000000000001,-15.01008689156804
-0.42269999999999996,-15.137410908555893
-0.4237000000000001,-15.307176264539699
-0.42469999999999997,-15.448647394526201
-0.4257000000000001,-15.618412750510005
-0.42669999999999997,-15.78817810649381
-0.4277000000000001,-15.91550212348166
-0.42869999999999997,-16.099414592464115
-0.4297000000000001,-16.269179948447924
-0.43069999999999997,-16.438945304431726
-0.4317000000000001,-16.622857773414182
-0.4327,-16.750181790402035
-0.4337000000000001,-16.962388485381787
-0.4347,-17.103859615368293
-0.4357000000000001,-17.2736249713521
-0.4367,-17.40094898833995
-0.4377000000000001,-17.627302796318357
-0.4387,-17.797068152302163
-0.4397000000000001,-17.966833508285966
-0.4407,-18.15074597726842
-0.4417000000000001,-18.320511333252224
-0.4427,-18.53271802823198
-0.4437000000000001,-18.674189158218486
-0.4447,-18.843954514202288
-0.4457000000000001,-19.01371987018609
-0.4467,-19.197632339168546
-0.4477000000000001,-19.367397695152352
-0.4487,-19.537163051136158
-0.4497000000000001,-19.763516859114564
-0.4507,-19.890840876102416
-0.4517000000000001,-20.10304757108217
-0.4527,-20.286960040064624
-0.4537000000000001,-20.499166735044383
-0.4547,-20.72552054302279
-0.4557000000000001,-20.89528589900659
-0.4567,-21.107492593986347
-0.4577000000000001,-21.333846401964752
-0.4587,-21.503611757948562
-0.4597000000000001,-21.67337711393236
-0.4607,-21.899730921910766
-0.4617000000000001,-22.111937616890522
-0.4627,-22.33829142486893
-0.4637000000000001,-22.550498119848687
-0.4647,-22.776851927827092
-0.4657000000000001,-23.031499961802798
-0.4667,-23.2012653177866
-0.4677000000000001,-23.427619125765005
-0.4687,-23.639825820744765
-0.4697000000000001,-23.86617962872317
-0.4707,-24.078386323702922
-0.4717000000000001,-24.290593018682678
-0.4727,-24.474505487665134
-0.4737000000000001,-24.686712182644893
-0.4747,-24.9130659906233
-0.4757000000000001,-25.12527268560305
-0.4767,-25.337479380582806
-0.4777000000000001,-25.563833188561212
-0.4787,-25.81848122253692
-0.4797000000000001,-26.044835030515326
-0.4807,-26.257041725495082
-0.48170000000000013,-26.483395533473487
-0.4827,-26.69560222845324
-0.48370000000000013,-26.9643973754276
-0.4847,-27.176604070407354
-0.48570000000000013,-27.38881076538711
-0.4867,-27.65760591236147
-0.4876999999999999,-27.869812607341224
-0.4887,-28.13860775431558
-0.4896999999999999,-28.350814449295335
-0.4907,-28.619609596269694
-0.4916999999999999,-28.8742576302454
-0.4927,-29.100611438223805
-0.4936999999999999,-29.35525947219951
-0.49470000000000003,-29.581613280177915
-0.4956999999999999,-29.836261314153624
-0.49670000000000003,-30.04846800913338
-0.4976999999999999,-30.317263156107735
-0.49870000000000003,-30.529469851087494
-0.4996999999999999,-30.79826499806185
-0.5007,-31.010471693041605
-0.5016999999999999,-31.27926684001596
-0.5027,-31.49147353499572
-0.5036999999999999,-31.717827342974125
-0.5047,-31.972475376949827
-0.5056999999999999,-32.24127052392419
-0.5067,-32.49591855789989
-0.5076999999999999,-32.764713704874254
