Potential V vs RHE, Current mA cm-2
0.013299999999999867,0.04140859974704963
0.012299999999999978,-1.1362961160515976
0.011299999999999866,-1.9650339955125358
0.010299999999999976,-2.618630616050183
0.009299999999999864,-3.0996324580042955
0.008299999999999974,-3.447651437771094
0.007299999999999862,-3.7532290785419424
0.006299999999999972,-4.014950669016974
0.00529999999999986,-4.276672259492005
0.0042999999999999705,-4.626105950558669
0.0032999999999998586,-4.887827541033701
0.0022999999999999687,-5.149549131508733
0.0012999999999998568,-5.367414671687949
0.00029999999999996696,-5.5414241615713475
-0.000700000000000145,-5.585280211867165
-0.0017000000000000348,-5.672992312458796
-0.0027000000000001467,-5.672992312458796
-0.0037000000000000366,-5.80314575204638
-0.0047000000000001485,-5.847001802342197
-0.005700000000000038,-6.021011292225596
-0.00670000000000015,-6.152579443113044
-0.00770000000000004,-6.326588932996443
-0.008700000000000152,-6.458157083883892
-0.009700000000000042,-6.500598422879844
-0.010700000000000154,-6.54445447317566
-0.011700000000000044,-6.54445447317566
-0.012700000000000156,-6.500598422879844
-0.013700000000000045,-6.54445447317566
-0.014700000000000157,-6.588310523471475
-0.015700000000000047,-6.6760226240631075
-0.01670000000000016,-6.806176063650692
-0.01770000000000005,-6.981600264833956
-0.01870000000000016,-7.024041603829907
-0.01970000000000005,-7.111753704421539
-0.020700000000000163,-7.067897654125724
-0.021700000000000053,-7.024041603829907
-0.022700000000000164,-6.981600264833956
-0.023700000000000054,-6.981600264833956
-0.024700000000000166,-7.024041603829907
-0.025700000000000056,-7.111753704421539
-0.026700000000000168,-7.243321855308987
-0.027700000000000058,-7.329619244600755
-0.02870000000000017,-7.4173313451923875
-0.02970000000000006,-7.461187395488204
-0.03070000000000017,-7.4173313451923875
-0.03170000000000006,-7.4173313451923875
-0.03270000000000017,-7.329619244600755
-0.03370000000000006,-7.329619244600755
-0.034700000000000175,-7.329619244600755
-0.035700000000000065,-7.4173313451923875
-0.03670000000000018,-7.50504344578402
-0.03770000000000007,-7.635196885371603
-0.03870000000000018,-7.679052935667419
-0.03970000000000007,-7.722908985963235
-0.04070000000000018,-7.635196885371603
-0.04170000000000007,-7.635196885371603
-0.04270000000000018,-7.5474847847799715
-0.04370000000000007,-7.5474847847799715
-0.044700000000000184,-7.5474847847799715
-0.045700000000000074,-7.635196885371603
-0.046700000000000186,-7.722908985963235
-0.047700000000000076,-7.809206375255003
-0.04870000000000019,-7.896918475846635
-0.04970000000000008,-7.940774526142452
-0.05070000000000019,-7.896918475846635
-0.05170000000000008,-7.896918475846635
-0.05270000000000019,-7.809206375255003
-0.05370000000000008,-7.7653503249591855
-0.05470000000000019,-7.7653503249591855
-0.05570000000000008,-7.809206375255003
-0.056700000000000195,-7.940774526142452
-0.057700000000000085,-8.027071915434218
-0.058700000000000196,-8.070927965730034
-0.059700000000000086,-8.11478401602585
-0.0607000000000002,-8.027071915434218
-0.06170000000000009,-8.027071915434218
-0.0627000000000002,-7.940774526142452
-0.06370000000000009,-7.940774526142452
-0.0647000000000002,-7.940774526142452
-0.06570000000000009,-7.984630576438266
-0.0667000000000002,-8.070927965730034
-0.0677000000000001,-8.158640066321666
-0.0687000000000002,-8.202496116617484
-0.0697000000000001,-8.246352166913299
-0.07070000000000021,-8.202496116617484
-0.0717000000000001,-8.158640066321666
-0.07270000000000021,-8.070927965730034
-0.0737000000000001,-8.070927965730034
-0.07470000000000021,-8.070927965730034
-0.0757000000000001,-8.158640066321666
-0.07670000000000021,-8.246352166913299
-0.0777000000000001,-8.332649556205066
-0.07870000000000021,-8.376505606500881
-0.0797000000000001,-8.376505606500881
-0.08070000000000022,-8.332649556205066
-0.0817000000000001,-8.288793505909249
-0.08270000000000022,-8.246352166913299
-0.08370000000000011,-8.202496116617484
-0.08470000000000022,-8.202496116617484
-0.08570000000000011,-8.288793505909249
-0.08670000000000022,-8.376505606500881
-0.08770000000000011,-8.464217707092514
-0.08870000000000022,-8.508073757388331
-0.08970000000000011,-8.55051509638428
-0.09070000000000022,-8.508073757388331
-0.09170000000000011,-8.464217707092514
-0.09270000000000023,-8.332649556205066
-0.09370000000000012,-8.332649556205066
-0.09470000000000023,-8.332649556205066
-0.09570000000000012,-8.4203616567967
-0.09670000000000023,-8.508073757388331
-0.09770000000000012,-8.594371146680096
-0.09870000000000023,-8.638227196975913
-0.09970000000000012,-8.638227196975913
-0.10070000000000023,-8.594371146680096
-0.10170000000000012,-8.55051509638428
-0.10270000000000024,-8.508073757388331
-0.10370000000000013,-8.464217707092514
-0.10470000000000024,-8.508073757388331
-0.10570000000000013,-8.55051509638428
-0.10670000000000024,-8.638227196975913
-0.10770000000000013,-8.769795347863363
-0.10870000000000024,-8.769795347863363
-0.10970000000000013,-8.812236686859313
-0.11070000000000024,-8.725939297567548
-0.11170000000000013,-8.68208324727173
-0.11270000000000002,-8.638227196975913
-0.11370000000000013,-8.68208324727173
-0.11470000000000002,-8.68208324727173
-0.11570000000000014,-8.769795347863363
-0.11670000000000003,-8.812236686859313
-0.11770000000000014,-8.899948787450944
-0.11870000000000003,-8.987660888042578
-0.11970000000000014,-8.987660888042578
-0.12070000000000003,-8.943804837746763
-0.12170000000000014,-8.85609273715513
-0.12270000000000003,-8.812236686859313
-0.12370000000000014,-8.812236686859313
-0.12470000000000003,-8.812236686859313
-0.12570000000000014,-8.899948787450944
-0.12670000000000003,-8.987660888042578
-0.12770000000000015,-9.073958277334345
-0.12870000000000004,-9.11781432763016
-0.12970000000000015,-9.161670377925978
-0.13070000000000004,-9.11781432763016
-0.13170000000000015,-9.073958277334345
-0.13270000000000004,-8.987660888042578
-0.13370000000000015,-8.987660888042578
-0.13470000000000004,-8.943804837746763
-0.13570000000000015,-9.073958277334345
-0.13670000000000004,-9.11781432763016
-0.13770000000000016,-9.205526428221793
-0.13870000000000005,-9.24938247851761
-0.13970000000000016,-9.293238528813426
-0.14070000000000005,-9.24938247851761
-0.14170000000000016,-9.161670377925978
-0.14270000000000005,-9.11781432763016
-0.14370000000000016,-9.073958277334345
-0.14470000000000005,-9.11781432763016
-0.14570000000000016,-9.205526428221793
-0.14670000000000005,-9.24938247851761
-0.14770000000000016,-9.379535918105192
-0.14870000000000005,-9.423391968401008
-0.14970000000000017,-9.467248018696827
-0.15070000000000006,-9.423391968401008
-0.15170000000000017,-9.379535918105192
-0.15270000000000006,-9.293238528813426
-0.15370000000000017,-9.293238528813426
-0.15470000000000006,-9.293238528813426
-0.15570000000000017,-9.379535918105192
-0.15670000000000006,-9.467248018696827
-0.15770000000000017,-9.55496011928846
-0.15870000000000006,-9.641257508580225
-0.15970000000000018,-9.685113558876042
-0.16070000000000007,-9.641257508580225
-0.16170000000000018,-9.59740145828441
-0.16270000000000007,-9.511104068992642
-0.16370000000000018,-9.511104068992642
-0.16470000000000007,-9.511104068992642
-0.16570000000000018,-9.59740145828441
-0.16670000000000007,-9.685113558876042
-0.16770000000000018,-9.81668170976349
-0.16870000000000007,-9.85912304875944
-0.16970000000000018,-9.902979099055257
-0.17070000000000007,-9.85912304875944
-0.17170000000000019,-9.81668170976349
-0.17270000000000008,-9.772825659467674
-0.1737000000000002,-9.772825659467674
-0.17470000000000008,-9.772825659467674
-0.1757000000000002,-9.902979099055257
-0.17670000000000008,-9.99069119964689
-0.1777000000000002,-10.120844639234473
-0.17870000000000008,-10.164700689530287
-0.1797000000000002,-10.208556739826104
-0.18070000000000008,-10.164700689530287
-0.1817000000000002,-10.120844639234473
-0.18270000000000008,-10.078403300238522
-0.1837000000000002,-10.078403300238522
-0.1847000000000001,-10.078403300238522
-0.1857000000000002,-10.164700689530287
-0.1867000000000001,-10.25241279012192
-0.1877000000000002,-10.382566229709504
-0.1887000000000001,-10.42642228000532
-0.1897000000000002,-10.470278330301136
-0.1907000000000001,-10.470278330301136
-0.1917000000000001,-10.382566229709504
-0.19269999999999998,-10.340124890713554
-0.1937000000000001,-10.340124890713554
-0.19469999999999998,-10.382566229709504
-0.1957000000000001,-10.470278330301136
-0.19669999999999999,-10.557990430892769
-0.1977000000000001,-10.688143870480351
-0.1987,-10.775855971071984
-0.1997000000000001,-10.819712021367803
-0.2007,-10.819712021367803
-0.2017000000000001,-10.819712021367803
-0.2027,-10.731999920776168
-0.2037000000000001,-10.775855971071984
-0.2047,-10.775855971071984
-0.2057000000000001,-10.863568071663616
-0.2067,-10.993721511251199
-0.2077000000000001,-11.123874950838783
-0.2087,-11.1677310011346
-0.2097000000000001,-11.255443101726232
-0.2107,-11.211587051430415
-0.2117000000000001,-11.211587051430415
-0.2127,-11.1677310011346
-0.2137000000000001,-11.1677310011346
-0.2147,-11.211587051430415
-0.2157000000000001,-11.385596541313816
-0.2167,-11.473308641905447
-0.21770000000000012,-11.604876792792895
-0.2187,-11.691174182084664
-0.21970000000000012,-11.73503023238048
-0.2207,-11.73503023238048
-0.22170000000000012,-11.691174182084664
-0.2227,-11.691174182084664
-0.22370000000000012,-11.691174182084664
-0.2247,-11.73503023238048
-0.22570000000000012,-11.86659838326793
-0.2267,-11.952895772559694
-0.22770000000000012,-12.12831997374296
-0.22870000000000001,-12.170761312738911
-0.22970000000000013,-12.258473413330542
-0.23070000000000002,-12.214617363034726
-0.23170000000000013,-12.214617363034726
-0.23270000000000002,-12.170761312738911
-0.23370000000000013,-12.214617363034726
-0.23470000000000002,-12.258473413330542
-0.23570000000000013,-12.390041564217992
-0.23670000000000002,-12.520195003805576
-0.2376999999999999,-12.651763154693022
-0.23870000000000002,-12.73806054398479
-0.2396999999999999,-12.825772644576423
-0.24070000000000003,-12.825772644576423
-0.24169999999999991,-12.781916594280606
-0.24270000000000003,-12.781916594280606
-0.24369999999999992,-12.825772644576423
-0.24470000000000003,-12.869628694872238
-0.24569999999999992,-12.99978213445982
-0.24670000000000003,-13.175206335643086
-0.24769999999999992,-13.30535977523067
-0.24870000000000003,-13.3930718758223
-0.24969999999999992,-13.47936926511407
-0.25070000000000003,-13.47936926511407
-0.2516999999999999,-13.47936926511407
-0.25270000000000004,-13.47936926511407
-0.2536999999999999,-13.523225315409885
-0.25470000000000004,-13.567081365705702
-0.2556999999999999,-13.698649516593148
-0.25670000000000004,-13.828802956180734
-0.25769999999999993,-14.002812446064135
-0.25870000000000004,-14.090524546655764
-0.25969999999999993,-14.175407224647667
-0.26070000000000004,-14.175407224647667
-0.26169999999999993,-14.217848563643619
-0.26270000000000004,-14.26028990263957
-0.26369999999999993,-14.30273124163552
-0.26470000000000005,-14.30273124163552
-0.26569999999999994,-14.444202371622024
-0.26670000000000005,-14.57152638860988
-0.26769999999999994,-14.741291744593681
-0.26870000000000005,-14.826174422585586
-0.26969999999999994,-14.967645552572087
-0.27070000000000005,-14.967645552572087
-0.27169999999999994,-14.967645552572087
-0.27270000000000005,-15.01008689156804
-0.27369999999999994,-15.05252823056399
-0.27470000000000006,-15.094969569559943
-0.27569999999999995,-15.264734925543747
-0.27670000000000006,-15.448647394526201
-0.27769999999999995,-15.618412750510005
-0.27870000000000006,-15.70329542850191
-0.27969999999999995,-15.78817810649381
-0.28070000000000006,-15.87306078448571
-0.28169999999999995,-15.87306078448571
-0.28270000000000006,-15.87306078448571
-0.28369999999999995,-15.972090575476265
-0.28470000000000006,-16.014531914472215
-0.28569999999999995,-16.184297270456018
-0.28670000000000007,-16.311621287443874
-0.28769999999999996,-16.53797509542228
-0.28870000000000007,-16.622857773414182
-0.28969999999999996,-16.750181790402035
-0.29070000000000007,-16.792623129397985
-0.29169999999999996,-16.835064468393938
-0.29270000000000007,-16.835064468393938
-0.29369999999999996,-16.919947146385837
-0.2947000000000001,-16.962388485381787
-0.29569999999999996,-17.146300954364243
-0.2967000000000001,-17.316066310348052
-0.29769999999999996,-17.48583166633185
-0.2987000000000001,-17.627302796318357
-0.29969999999999997,-17.75462681330621
-0.3007000000000001,-17.797068152302163
-0.30169999999999997,-17.839509491298113
-0.3027000000000001,-17.881950830294063
-0.30369999999999997,-17.966833508285966
-0.3047000000000001,-18.06586329927652
-0.30569999999999997,-18.23562865526032
-0.3067000000000001,-18.40539401124413
-0.3077,-18.631747819222536
-0.3087000000000001,-18.759071836210385
-0.3097,-18.88639585319824
-0.3107000000000001,-18.97127853119014
-0.3117,-18.97127853119014
-0.3127000000000001,-19.01371987018609
-0.3137,-19.155191000172596
-0.3147000000000001,-19.2400736781645
-0.3157,-19.452280373144255
-0.3167000000000001,-19.579604390132108
-0.3177,-19.805958198110513
-0.3187000000000001,-19.97572355409432
-0.3197,-20.10304757108217
-0.3207000000000001,-20.159636023076775
-0.3217,-20.244518701068674
-0.3227000000000001,-20.286960040064624
-0.3237,-20.414284057052477
-0.3247000000000001,-20.499166735044383
-0.3257,-20.72552054302279
-0.3267000000000001,-20.89528589900659
-0.3277,-21.107492593986347
-0.3287000000000001,-21.291405062968803
-0.3297,-21.418729079956652
-0.3307000000000001,-21.503611757948562
-0.3317,-21.63093577493641
-0.3327000000000001,-21.67337711393236
-0.3337,-21.814848243918867
-0.3347000000000001,-21.899730921910766
-0.3357,-22.111937616890522
-0.3367000000000001,-22.33829142486893
-0.3377,-22.550498119848687
-0.3387000000000001,-22.776851927827092
-0.3397,-22.989058622806844
-0.3407000000000001,-23.031499961802798
-0.3417,-23.1163826397947
-0.3427000000000001,-23.15882397879065
-0.3437,-23.300295108777156
-0.3447000000000001,-23.47006046476096
-0.3457,-23.682267159740714
-0.3467000000000001,-23.908620967719123
-0.3477,-24.16326900169483
-0.3487000000000001,-24.34718147067728
-0.3497,-24.516946826661083
-0.3507000000000001,-24.64427084364894
-0.3517,-24.729153521640843
-0.3527000000000001,-24.814036199632742
-0.3537,-24.95550732961925
-0.3547000000000001,-25.0828313466071
-0.3557,-25.337479380582806
-0.35670000000000013,-25.648715866553115
-0.3577,-25.91751101352747
-0.35870000000000013,-26.087276369511276
-0.3597,-26.257041725495082
-0.36070000000000013,-26.34192440348698
-0.3617,-26.483395533473487
-0.3626999999999999,-26.568278211465387
-0.3637,-26.69560222845324
-0.3646999999999999,-26.822926245441096
-0.3657,-27.091721392415455
-0.3666999999999999,-27.38881076538711
-0.3677,-27.65760591236147
-0.3686999999999999,-27.869812607341224
-0.36970000000000003,-28.09616641531963
-0.3706999999999999,-28.18104909331153
-0.37170000000000003,-28.350814449295335
-0.3726999999999999,-28.435697127287238
-0.37370000000000003,-28.619609596269694
-0.3746999999999999,-28.789374952253496
-0.37570000000000003,-29.058170099227848
-0.3766999999999999,-29.35525947219951
-0.37770000000000004,-29.62405461917387
-0.3786999999999999,-29.836261314153624
-0.37970000000000004,-30.04846800913338
-0.3806999999999999,-30.232380478115836
-0.38170000000000004,-30.359704495103685
-0.38269999999999993,-30.487028512091538
-0.38370000000000004,-30.670940981073993
-0.38469999999999993,-30.8407063370578
-0.38570000000000004,-31.095354371033505
-0.38669999999999993,-31.36414951800786
-0.38770000000000004,-31.717827342974125
-0.38869999999999993,-31.930034037953877
-0.38970000000000005,-32.14224073293363
-0.39069999999999994,-32.32615320191609
-0.39170000000000005,-32.49591855789989
-0.39269999999999994,-32.62324257488775
-0.39370000000000005,-32.84959638286615
-0.39469999999999994,-33.06180307784591
-0.39570000000000005,-33.373039563816214
-0.39669999999999994,-33.627687597791926
-0.39770000000000005,-33.98136542275818
-0.39869999999999994,-34.236013456733886
-0.39970000000000006,-34.50480860370825
-0.40069999999999995,-34.67457395969205
-0.40170000000000006,-34.90092776767045
-0.40269999999999995,-35.02825178465831
-0.40370000000000006,-35.240458479638065
-0.40469999999999995,-35.46681228761647
-0.40570000000000006,-35.763901660588125
-0.40669999999999995,-36.07513814655844
-0.40770000000000006,-36.4288159715247
-0.40869999999999995,-36.6834640055004
-0.40970000000000006,-36.99470049147071
-0.41069999999999995,-37.164465847454515
-0.41170000000000007,-37.376672542434264
-0.41269999999999996,-37.56058501141672
-0.41370000000000007,-37.77279170639648
-0.41469999999999996,-38.04158685337084
-0.41570000000000007,-38.38111756533845
-0.41669999999999996,-38.734795390304704
-0.41770000000000007,-39.08847321527096
-0.41869999999999996,-39.34312124924667
-0.4197000000000001,-39.654357735216976
-0.42069999999999996,-39.86656443019674
-0.4217000000000001,-40.092918238175145
-0.42269999999999996,-40.30512493315489
-0.4237000000000001,-40.51733162813464
-0.42469999999999997,-40.78612677510901
-0.4257000000000001,-41.139804600075266
-0.42669999999999997,-41.47933531204288
-0.4277000000000001,-41.87545447600508
-0.42869999999999997,-42.186690961975394
-0.4297000000000001,-42.483780334947056
-0.43069999999999997,-42.752575481921404
-0.4317000000000001,-42.96478217690117
-0.4327,-43.17698887188092
-0.4337000000000001,-43.48822535785123
-0.4347,-43.75702050482558
-0.4357000000000001,-44.096551216793195
-0.4367,-44.4926703807554
-0.4377000000000001,-44.93123088371356
-0.4387,-45.27076159568118
-0.4397000000000001,-45.581998081651484
-0.4407,-45.85079322862584
-0.4417000000000001,-46.147882601597495
-0.4427,-46.37423640957591
-0.4437000000000001,-46.67132578254756
-0.4447,-46.982562268517874
-0.4457000000000001,-47.36453431948143
-0.4467,-47.76065348344364
-0.4477000000000001,-48.1992139864018
-0.4487,-48.55289181136806
-0.4497000000000001,-48.93486386233162
-0.4507,-49.20365900930597
-0.4517000000000001,-49.50074838227763
-0.4527,-49.72710219025603
-0.4537000000000001,-50.0807800152223
-0.4547,-50.37786938819396
-0.4557000000000001,-50.77398855215617
-0.4567,-51.21254905511432
-0.4577000000000001,-51.65110955807249
-0.4587,-52.033081609036046
-0.4597000000000001,-52.386759434002315
-0.4607,-52.69799591997262
-0.4617000000000001,-52.995085292944275
-0.4627,-53.26388043991864
-0.4637000000000001,-53.603411151886235
-0.4647,-53.9570889768525
-0.4657000000000001,-54.43809081880661
-0.4667,-54.834209982768826
-0.4677000000000001,-55.357653163718886
-0.4687,-55.73962521468245
-0.4697000000000001,-56.1781857176406
-0.4707,-56.53186354260687
-0.4717000000000001,-56.82895291557852
-0.4727,-57.14018940154883
-0.4737000000000001,-57.493867226515086
-0.4747,-57.87583927747865
-0.4757000000000001,-58.35684111943277
-0.4767,-58.79540162239092
-0.4777000000000001,-59.27640346434504
-0.4787,-59.7149639673032
-0.4797000000000001,-60.15352447026136
-0.4807,-60.49305518222897
-0.48170000000000013,-60.84673300719523
-0.4827,-61.15796949316553
-0.48370000000000013,-61.49750020513315
-0.4847,-61.89361936909536
-0.48570000000000013,-62.33217987205352
-0.4867,-61.936060708091304
-0.48570000000000013,-60.32328982624517
-0.4847,-58.97931409137338
-0.48370000000000013,-57.8333979384827
-0.4827,-56.74407023758662
-0.48170000000000013,-55.7820665536784
-0.4807,-54.834209982768826
-0.4797000000000001,-53.9570889768525
-0.4787,-53.12240930993213
-0.4777000000000001,-52.42920077299826
-0.4767,-51.77843357506035
-0.4757000000000001,-51.17010771611838
-0.4747,-50.50519340518181
-0.4737000000000001,-49.81198486824794
-0.4727,-49.118776331314066
-0.4717000000000001,-48.41142068138156
-0.4707,-47.67577080545174
-0.4697000000000001,-47.02500360751382
-0.4687,-46.41667774857186
-0.4677000000000001,-45.85079322862584
-0.4667,-45.32735004767578
-0.4657000000000001,-44.80390686672572
-0.4647,-44.28046368577565
-0.4637000000000001,-43.75702050482558
-0.4627,-43.09210619388902
