Dec. 11, 2024   07:11:50
Linear Sweep Voltammetry
File: c:/users/guazh/data/banditlqround7_x0exp59_r20/2024-12-09-exp625\pre-regen-2024-12-11t07_08_45-lsvinphos\pre-regen_lsv_50mvs_efin_-1900mv.bin
Data Source:  Experiment
Instrument Model:  CHI760E
Header: LSV ran at 50 mVs with Efin at -1900mV
Note: 

Init E (V) = -0.6
Final E (V) = -1.9
Scan Rate (V/s) = 0.05
Sample Interval (V) = 0.001
Quiet Time (sec) = 2
Sensitivity (A/V) = 1e-4
Comp R (ohm) = 8.1

Results:

Channel 1:
Ep = -1.340V
ip = 6.064e-4A
Ah = 7.537e-4C

Potential/V, Current/A

-0.600, -5.889e-4
-0.601, -5.784e-4
-0.602, -5.641e-4
-0.603, -5.498e-4
-0.604, -5.361e-4
-0.605, -5.228e-4
-0.606, -5.100e-4
-0.607, -4.976e-4
-0.608, -4.855e-4
-0.609, -4.736e-4
-0.610, -4.620e-4
-0.611, -4.506e-4
-0.612, -4.395e-4
-0.613, -4.285e-4
-0.614, -4.176e-4
-0.615, -4.069e-4
-0.616, -3.963e-4
-0.617, -3.860e-4
-0.618, -3.757e-4
-0.619, -3.656e-4
-0.620, -3.556e-4
-0.621, -3.457e-4
-0.622, -3.360e-4
-0.623, -3.263e-4
-0.624, -3.167e-4
-0.625, -3.072e-4
-0.626, -2.979e-4
-0.627, -2.886e-4
-0.628, -2.795e-4
-0.629, -2.704e-4
-0.630, -2.613e-4
-0.631, -2.524e-4
-0.632, -2.436e-4
-0.633, -2.349e-4
-0.634, -2.262e-4
-0.635, -2.176e-4
-0.636, -2.092e-4
-0.637, -2.007e-4
-0.638, -1.924e-4
-0.639, -1.841e-4
-0.640, -1.759e-4
-0.641, -1.677e-4
-0.642, -1.597e-4
-0.643, -1.517e-4
-0.644, -1.438e-4
-0.645, -1.359e-4
-0.646, -1.282e-4
-0.647, -1.205e-4
-0.648, -1.129e-4
-0.649, -1.053e-4
-0.650, -9.781e-5
-0.651, -9.036e-5
-0.652, -8.303e-5
-0.653, -7.576e-5
-0.654, -6.853e-5
-0.655, -6.138e-5
-0.656, -5.426e-5
-0.657, -4.730e-5
-0.658, -4.032e-5
-0.659, -3.336e-5
-0.660, -2.651e-5
-0.661, -1.973e-5
-0.662, -1.304e-5
-0.663, -6.415e-6
-0.664, 2.167e-7
-0.665, 6.780e-6
-0.666, 1.334e-5
-0.667, 1.978e-5
-0.668, 2.612e-5
-0.669, 3.242e-5
-0.670, 3.863e-5
-0.671, 4.473e-5
-0.672, 5.081e-5
-0.673, 5.683e-5
-0.674, 6.282e-5
-0.675, 6.876e-5
-0.676, 7.458e-5
-0.677, 8.033e-5
-0.678, 8.604e-5
-0.679, 9.173e-5
-0.680, 9.740e-5
-0.681, 1.029e-4
-0.682, 1.084e-4
-0.683, 1.139e-4
-0.684, 1.193e-4
-0.685, 1.246e-4
-0.686, 1.299e-4
-0.687, 1.351e-4
-0.688, 1.402e-4
-0.689, 1.454e-4
-0.690, 1.505e-4
-0.691, 1.555e-4
-0.692, 1.605e-4
-0.693, 1.653e-4
-0.694, 1.702e-4
-0.695, 1.750e-4
-0.696, 1.798e-4
-0.697, 1.845e-4
-0.698, 1.891e-4
-0.699, 1.937e-4
-0.700, 1.983e-4
-0.701, 2.028e-4
-0.702, 2.073e-4
-0.703, 2.117e-4
-0.704, 2.161e-4
-0.705, 2.204e-4
-0.706, 2.246e-4
-0.707, 2.288e-4
-0.708, 2.330e-4
-0.709, 2.371e-4
-0.710, 2.412e-4
-0.711, 2.452e-4
-0.712, 2.492e-4
-0.713, 2.531e-4
-0.714, 2.570e-4
-0.715, 2.608e-4
-0.716, 2.646e-4
-0.717, 2.683e-4
-0.718, 2.720e-4
-0.719, 2.757e-4
-0.720, 2.793e-4
-0.721, 2.829e-4
-0.722, 2.864e-4
-0.723, 2.898e-4
-0.724, 2.933e-4
-0.725, 2.966e-4
-0.726, 3.000e-4
-0.727, 3.032e-4
-0.728, 3.064e-4
-0.729, 3.097e-4
-0.730, 3.128e-4
-0.731, 3.159e-4
-0.732, 3.189e-4
-0.733, 3.220e-4
-0.734, 3.250e-4
-0.735, 3.279e-4
-0.736, 3.308e-4
-0.737, 3.336e-4
-0.738, 3.363e-4
-0.739, 3.391e-4
-0.740, 3.418e-4
-0.741, 3.445e-4
-0.742, 3.471e-4
-0.743, 3.497e-4
-0.744, 3.522e-4
-0.745, 3.547e-4
-0.746, 3.572e-4
-0.747, 3.596e-4
-0.748, 3.619e-4
-0.749, 3.642e-4
-0.750, 3.665e-4
-0.751, 3.688e-4
-0.752, 3.709e-4
-0.753, 3.730e-4
-0.754, 3.752e-4
-0.755, 3.773e-4
-0.756, 3.793e-4
-0.757, 3.812e-4
-0.758, 3.832e-4
-0.759, 3.851e-4
-0.760, 3.870e-4
-0.761, 3.889e-4
-0.762, 3.906e-4
-0.763, 3.924e-4
-0.764, 3.941e-4
-0.765, 3.959e-4
-0.766, 3.975e-4
-0.767, 3.991e-4
-0.768, 4.008e-4
-0.769, 4.025e-4
-0.770, 4.040e-4
-0.771, 4.055e-4
-0.772, 4.069e-4
-0.773, 4.084e-4
-0.774, 4.099e-4
-0.775, 4.113e-4
-0.776, 4.126e-4
-0.777, 4.139e-4
-0.778, 4.152e-4
-0.779, 4.166e-4
-0.780, 4.179e-4
-0.781, 4.192e-4
-0.782, 4.204e-4
-0.783, 4.217e-4
-0.784, 4.229e-4
-0.785, 4.241e-4
-0.786, 4.253e-4
-0.787, 4.265e-4
-0.788, 4.276e-4
-0.789, 4.288e-4
-0.790, 4.300e-4
-0.791, 4.311e-4
-0.792, 4.323e-4
-0.793, 4.335e-4
-0.794, 4.346e-4
-0.795, 4.358e-4
-0.796, 4.369e-4
-0.797, 4.380e-4
-0.798, 4.392e-4
-0.799, 4.403e-4
-0.800, 4.415e-4
-0.801, 4.426e-4
-0.802, 4.437e-4
-0.803, 4.449e-4
-0.804, 4.460e-4
-0.805, 4.472e-4
-0.806, 4.483e-4
-0.807, 4.495e-4
-0.808, 4.506e-4
-0.809, 4.518e-4
-0.810, 4.530e-4
-0.811, 4.541e-4
-0.812, 4.553e-4
-0.813, 4.565e-4
-0.814, 4.577e-4
-0.815, 4.589e-4
-0.816, 4.601e-4
-0.817, 4.613e-4
-0.818, 4.625e-4
-0.819, 4.639e-4
-0.820, 4.654e-4
-0.821, 4.667e-4
-0.822, 4.678e-4
-0.823, 4.690e-4
-0.824, 4.703e-4
-0.825, 4.715e-4
-0.826, 4.726e-4
-0.827, 4.739e-4
-0.828, 4.750e-4
-0.829, 4.763e-4
-0.830, 4.775e-4
-0.831, 4.787e-4
-0.832, 4.799e-4
-0.833, 4.811e-4
-0.834, 4.824e-4
-0.835, 4.836e-4
-0.836, 4.847e-4
-0.837, 4.859e-4
-0.838, 4.871e-4
-0.839, 4.883e-4
-0.840, 4.895e-4
-0.841, 4.906e-4
-0.842, 4.917e-4
-0.843, 4.929e-4
-0.844, 4.940e-4
-0.845, 4.951e-4
-0.846, 4.962e-4
-0.847, 4.973e-4
-0.848, 4.984e-4
-0.849, 4.994e-4
-0.850, 5.004e-4
-0.851, 5.014e-4
-0.852, 5.023e-4
-0.853, 5.033e-4
-0.854, 5.042e-4
-0.855, 5.051e-4
-0.856, 5.060e-4
-0.857, 5.068e-4
-0.858, 5.077e-4
-0.859, 5.085e-4
-0.860, 5.093e-4
-0.861, 5.100e-4
-0.862, 5.106e-4
-0.863, 5.113e-4
-0.864, 5.120e-4
-0.865, 5.126e-4
-0.866, 5.131e-4
-0.867, 5.136e-4
-0.868, 5.141e-4
-0.869, 5.146e-4
-0.870, 5.150e-4
-0.871, 5.155e-4
-0.872, 5.158e-4
-0.873, 5.161e-4
-0.874, 5.164e-4
-0.875, 5.166e-4
-0.876, 5.167e-4
-0.877, 5.168e-4
-0.878, 5.168e-4
-0.879, 5.168e-4
-0.880, 5.168e-4
-0.881, 5.167e-4
-0.882, 5.165e-4
-0.883, 5.164e-4
-0.884, 5.162e-4
-0.885, 5.160e-4
-0.886, 5.157e-4
-0.887, 5.153e-4
-0.888, 5.149e-4
-0.889, 5.144e-4
-0.890, 5.140e-4
-0.891, 5.134e-4
-0.892, 5.128e-4
-0.893, 5.122e-4
-0.894, 5.116e-4
-0.895, 5.109e-4
-0.896, 5.101e-4
-0.897, 5.094e-4
-0.898, 5.086e-4
-0.899, 5.078e-4
-0.900, 5.068e-4
-0.901, 5.059e-4
-0.902, 5.050e-4
-0.903, 5.041e-4
-0.904, 5.032e-4
-0.905, 5.021e-4
-0.906, 5.011e-4
-0.907, 5.000e-4
-0.908, 4.989e-4
-0.909, 4.979e-4
-0.910, 4.968e-4
-0.911, 4.957e-4
-0.912, 4.946e-4
-0.913, 4.935e-4
-0.914, 4.924e-4
-0.915, 4.914e-4
-0.916, 4.902e-4
-0.917, 4.890e-4
-0.918, 4.879e-4
-0.919, 4.869e-4
-0.920, 4.858e-4
-0.921, 4.847e-4
-0.922, 4.836e-4
-0.923, 4.826e-4
-0.924, 4.815e-4
-0.925, 4.805e-4
-0.926, 4.795e-4
-0.927, 4.784e-4
-0.928, 4.775e-4
-0.929, 4.766e-4
-0.930, 4.756e-4
-0.931, 4.747e-4
-0.932, 4.737e-4
-0.933, 4.729e-4
-0.934, 4.721e-4
-0.935, 4.712e-4
-0.936, 4.704e-4
-0.937, 4.696e-4
-0.938, 4.688e-4
-0.939, 4.680e-4
-0.940, 4.673e-4
-0.941, 4.666e-4
-0.942, 4.659e-4
-0.943, 4.652e-4
-0.944, 4.646e-4
-0.945, 4.640e-4
-0.946, 4.633e-4
-0.947, 4.627e-4
-0.948, 4.621e-4
-0.949, 4.616e-4
-0.950, 4.610e-4
-0.951, 4.604e-4
-0.952, 4.598e-4
-0.953, 4.593e-4
-0.954, 4.589e-4
-0.955, 4.584e-4
-0.956, 4.579e-4
-0.957, 4.574e-4
-0.958, 4.569e-4
-0.959, 4.565e-4
-0.960, 4.560e-4
-0.961, 4.556e-4
-0.962, 4.551e-4
-0.963, 4.547e-4
-0.964, 4.543e-4
-0.965, 4.539e-4
-0.966, 4.535e-4
-0.967, 4.530e-4
-0.968, 4.527e-4
-0.969, 4.523e-4
-0.970, 4.519e-4
-0.971, 4.515e-4
-0.972, 4.511e-4
-0.973, 4.508e-4
-0.974, 4.506e-4
-0.975, 4.501e-4
-0.976, 4.497e-4
-0.977, 4.493e-4
-0.978, 4.489e-4
-0.979, 4.486e-4
-0.980, 4.481e-4
-0.981, 4.477e-4
-0.982, 4.473e-4
-0.983, 4.469e-4
-0.984, 4.466e-4
-0.985, 4.462e-4
-0.986, 4.457e-4
-0.987, 4.453e-4
-0.988, 4.449e-4
-0.989, 4.445e-4
-0.990, 4.441e-4
-0.991, 4.437e-4
-0.992, 4.433e-4
-0.993, 4.428e-4
-0.994, 4.425e-4
-0.995, 4.421e-4
-0.996, 4.416e-4
-0.997, 4.412e-4
-0.998, 4.408e-4
-0.999, 4.404e-4
-1.000, 4.400e-4
-1.001, 4.395e-4
-1.002, 4.391e-4
-1.003, 4.386e-4
-1.004, 4.382e-4
-1.005, 4.378e-4
-1.006, 4.374e-4
-1.007, 4.369e-4
-1.008, 4.365e-4
-1.009, 4.360e-4
-1.010, 4.356e-4
-1.011, 4.351e-4
-1.012, 4.346e-4
-1.013, 4.342e-4
-1.014, 4.338e-4
-1.015, 4.333e-4
-1.016, 4.329e-4
-1.017, 4.324e-4
-1.018, 4.320e-4
-1.019, 4.316e-4
-1.020, 4.311e-4
-1.021, 4.306e-4
-1.022, 4.302e-4
-1.023, 4.297e-4
-1.024, 4.294e-4
-1.025, 4.290e-4
-1.026, 4.285e-4
-1.027, 4.281e-4
-1.028, 4.276e-4
-1.029, 4.272e-4
-1.030, 4.267e-4
-1.031, 4.262e-4
-1.032, 4.258e-4
-1.033, 4.254e-4
-1.034, 4.250e-4
-1.035, 4.245e-4
-1.036, 4.241e-4
-1.037, 4.236e-4
-1.038, 4.232e-4
-1.039, 4.228e-4
-1.040, 4.224e-4
-1.041, 4.219e-4
-1.042, 4.215e-4
-1.043, 4.211e-4
-1.044, 4.207e-4
-1.045, 4.203e-4
-1.046, 4.199e-4
-1.047, 4.195e-4
-1.048, 4.191e-4
-1.049, 4.187e-4
-1.050, 4.183e-4
-1.051, 4.179e-4
-1.052, 4.175e-4
-1.053, 4.171e-4
-1.054, 4.168e-4
-1.055, 4.164e-4
-1.056, 4.160e-4
-1.057, 4.156e-4
-1.058, 4.152e-4
-1.059, 4.149e-4
-1.060, 4.145e-4
-1.061, 4.142e-4
-1.062, 4.138e-4
-1.063, 4.134e-4
-1.064, 4.131e-4
-1.065, 4.128e-4
-1.066, 4.124e-4
-1.067, 4.121e-4
-1.068, 4.118e-4
-1.069, 4.115e-4
-1.070, 4.112e-4
-1.071, 4.108e-4
-1.072, 4.105e-4
-1.073, 4.102e-4
-1.074, 4.099e-4
-1.075, 4.097e-4
-1.076, 4.095e-4
-1.077, 4.092e-4
-1.078, 4.090e-4
-1.079, 4.087e-4
-1.080, 4.084e-4
-1.081, 4.082e-4
-1.082, 4.079e-4
-1.083, 4.077e-4
-1.084, 4.074e-4
-1.085, 4.072e-4
-1.086, 4.070e-4
-1.087, 4.067e-4
-1.088, 4.066e-4
-1.089, 4.064e-4
-1.090, 4.062e-4
-1.091, 4.060e-4
-1.092, 4.058e-4
-1.093, 4.057e-4
-1.094, 4.056e-4
-1.095, 4.054e-4
-1.096, 4.052e-4
-1.097, 4.051e-4
-1.098, 4.049e-4
-1.099, 4.049e-4
-1.100, 4.047e-4
-1.101, 4.046e-4
-1.102, 4.045e-4
-1.103, 4.044e-4
-1.104, 4.044e-4
-1.105, 4.043e-4
-1.106, 4.042e-4
-1.107, 4.041e-4
-1.108, 4.041e-4
-1.109, 4.041e-4
-1.110, 4.040e-4
-1.111, 4.039e-4
-1.112, 4.039e-4
-1.113, 4.039e-4
-1.114, 4.039e-4
-1.115, 4.040e-4
-1.116, 4.039e-4
-1.117, 4.039e-4
-1.118, 4.040e-4
-1.119, 4.040e-4
-1.120, 4.041e-4
-1.121, 4.041e-4
-1.122, 4.041e-4
-1.123, 4.042e-4
-1.124, 4.042e-4
-1.125, 4.043e-4
-1.126, 4.044e-4
-1.127, 4.045e-4
-1.128, 4.046e-4
-1.129, 4.047e-4
-1.130, 4.048e-4
-1.131, 4.049e-4
-1.132, 4.050e-4
-1.133, 4.051e-4
-1.134, 4.053e-4
-1.135, 4.055e-4
-1.136, 4.056e-4
-1.137, 4.058e-4
-1.138, 4.060e-4
-1.139, 4.063e-4
-1.140, 4.065e-4
-1.141, 4.067e-4
-1.142, 4.069e-4
-1.143, 4.072e-4
-1.144, 4.075e-4
-1.145, 4.077e-4
-1.146, 4.080e-4
-1.147, 4.083e-4
-1.148, 4.086e-4
-1.149, 4.090e-4
-1.150, 4.093e-4
-1.151, 4.097e-4
-1.152, 4.100e-4
-1.153, 4.105e-4
-1.154, 4.109e-4
-1.155, 4.113e-4
-1.156, 4.116e-4
-1.157, 4.121e-4
-1.158, 4.126e-4
-1.159, 4.131e-4
-1.160, 4.136e-4
-1.161, 4.140e-4
-1.162, 4.146e-4
-1.163, 4.152e-4
-1.164, 4.157e-4
-1.165, 4.163e-4
-1.166, 4.168e-4
-1.167, 4.174e-4
-1.168, 4.180e-4
-1.169, 4.187e-4
-1.170, 4.193e-4
-1.171, 4.200e-4
-1.172, 4.206e-4
-1.173, 4.214e-4
-1.174, 4.222e-4
-1.175, 4.229e-4
-1.176, 4.236e-4
-1.177, 4.244e-4
-1.178, 4.253e-4
-1.179, 4.262e-4
-1.180, 4.270e-4
-1.181, 4.278e-4
-1.182, 4.286e-4
-1.183, 4.295e-4
-1.184, 4.305e-4
-1.185, 4.314e-4
-1.186, 4.323e-4
-1.187, 4.333e-4
-1.188, 4.343e-4
-1.189, 4.354e-4
-1.190, 4.365e-4
-1.191, 4.375e-4
-1.192, 4.386e-4
-1.193, 4.397e-4
-1.194, 4.408e-4
-1.195, 4.420e-4
-1.196, 4.432e-4
-1.197, 4.444e-4
-1.198, 4.457e-4
-1.199, 4.470e-4
-1.200, 4.483e-4
-1.201, 4.496e-4
-1.202, 4.510e-4
-1.203, 4.524e-4
-1.204, 4.539e-4
-1.205, 4.553e-4
-1.206, 4.568e-4
-1.207, 4.582e-4
-1.208, 4.598e-4
-1.209, 4.614e-4
-1.210, 4.630e-4
-1.211, 4.646e-4
-1.212, 4.662e-4
-1.213, 4.680e-4
-1.214, 4.697e-4
-1.215, 4.715e-4
-1.216, 4.733e-4
-1.217, 4.751e-4
-1.218, 4.769e-4
-1.219, 4.789e-4
-1.220, 4.808e-4
-1.221, 4.828e-4
-1.222, 4.848e-4
-1.223, 4.868e-4
-1.224, 4.889e-4
-1.225, 4.910e-4
-1.226, 4.931e-4
-1.227, 4.953e-4
-1.228, 4.975e-4
-1.229, 5.000e-4
-1.230, 5.025e-4
-1.231, 5.047e-4
-1.232, 5.071e-4
-1.233, 5.095e-4
-1.234, 5.119e-4
-1.235, 5.143e-4
-1.236, 5.168e-4
-1.237, 5.193e-4
-1.238, 5.219e-4
-1.239, 5.245e-4
-1.240, 5.271e-4
-1.241, 5.298e-4
-1.242, 5.326e-4
-1.243, 5.354e-4
-1.244, 5.382e-4
-1.245, 5.410e-4
-1.246, 5.439e-4
-1.247, 5.469e-4
-1.248, 5.499e-4
-1.249, 5.530e-4
-1.250, 5.560e-4
-1.251, 5.591e-4
-1.252, 5.623e-4
-1.253, 5.655e-4
-1.254, 5.688e-4
-1.255, 5.721e-4
-1.256, 5.755e-4
-1.257, 5.789e-4
-1.258, 5.823e-4
-1.259, 5.858e-4
-1.260, 5.893e-4
-1.261, 5.928e-4
-1.262, 5.964e-4
-1.263, 6.001e-4
-1.264, 6.039e-4
-1.265, 6.076e-4
-1.266, 6.113e-4
-1.267, 6.152e-4
-1.268, 6.191e-4
-1.269, 6.230e-4
-1.270, 6.270e-4
-1.271, 6.309e-4
-1.272, 6.350e-4
-1.273, 6.392e-4
-1.274, 6.434e-4
-1.275, 6.476e-4
-1.276, 6.518e-4
-1.277, 6.561e-4
-1.278, 6.604e-4
-1.279, 6.648e-4
-1.280, 6.693e-4
-1.281, 6.739e-4
-1.282, 6.784e-4
-1.283, 6.830e-4
-1.284, 6.876e-4
-1.285, 6.923e-4
-1.286, 6.970e-4
-1.287, 7.017e-4
-1.288, 7.066e-4
-1.289, 7.114e-4
-1.290, 7.163e-4
-1.291, 7.212e-4
-1.292, 7.262e-4
-1.293, 7.313e-4
-1.294, 7.365e-4
-1.295, 7.416e-4
-1.296, 7.467e-4
-1.297, 7.520e-4
-1.298, 7.573e-4
-1.299, 7.626e-4
-1.300, 7.680e-4
-1.301, 7.734e-4
-1.302, 7.789e-4
-1.303, 7.844e-4
-1.304, 7.900e-4
-1.305, 7.957e-4
-1.306, 8.013e-4
-1.307, 8.070e-4
-1.308, 8.127e-4
-1.309, 8.186e-4
-1.310, 8.244e-4
-1.311, 8.303e-4
-1.312, 8.362e-4
-1.313, 8.422e-4
-1.314, 8.483e-4
-1.315, 8.544e-4
-1.316, 8.605e-4
-1.317, 8.666e-4
-1.318, 8.728e-4
-1.319, 8.791e-4
-1.320, 8.854e-4
-1.321, 8.918e-4
-1.322, 8.982e-4
-1.323, 9.046e-4
-1.324, 9.111e-4
-1.325, 9.177e-4
-1.326, 9.243e-4
-1.327, 9.309e-4
-1.328, 9.375e-4
-1.329, 9.443e-4
-1.330, 9.510e-4
-1.331, 9.578e-4
-1.332, 9.646e-4
-1.333, 9.716e-4
-1.334, 9.785e-4
-1.335, 9.855e-4
-1.336, 9.925e-4
-1.337, 9.996e-4
-1.338, 1.007e-3
-1.339, 1.011e-3
-1.340, 1.011e-3
-1.341, 1.011e-3
-1.342, 1.011e-3
-1.343, 1.011e-3
-1.344, 1.011e-3
-1.345, 1.011e-3
-1.346, 1.011e-3
-1.347, 1.011e-3
-1.348, 1.011e-3
-1.349, 1.011e-3
-1.350, 1.011e-3
-1.351, 1.011e-3
-1.352, 1.011e-3
-1.353, 1.011e-3
-1.354, 1.011e-3
-1.355, 1.011e-3
-1.356, 1.011e-3
-1.357, 1.011e-3
-1.358, 1.011e-3
-1.359, 1.011e-3
-1.360, 1.011e-3
-1.361, 1.011e-3
-1.362, 1.011e-3
-1.363, 1.011e-3
-1.364, 1.011e-3
-1.365, 1.011e-3
-1.366, 1.011e-3
-1.367, 1.011e-3
-1.368, 1.011e-3
-1.369, 1.011e-3
-1.370, 1.011e-3
-1.371, 1.011e-3
-1.372, 1.011e-3
-1.373, 1.011e-3
-1.374, 1.011e-3
-1.375, 1.011e-3
-1.376, 1.011e-3
-1.377, 1.011e-3
-1.378, 1.011e-3
-1.379, 1.011e-3
-1.380, 1.011e-3
-1.381, 1.011e-3
-1.382, 1.011e-3
-1.383, 1.011e-3
-1.384, 1.011e-3
-1.385, 1.011e-3
-1.386, 1.011e-3
-1.387, 1.011e-3
-1.388, 1.011e-3
-1.389, 1.011e-3
-1.390, 1.011e-3
-1.391, 1.011e-3
-1.392, 1.011e-3
-1.393, 1.011e-3
-1.394, 1.011e-3
-1.395, 1.011e-3
-1.396, 1.011e-3
-1.397, 1.011e-3
-1.398, 1.011e-3
-1.399, 1.011e-3
-1.400, 1.011e-3
-1.401, 1.011e-3
-1.402, 1.011e-3
-1.403, 1.011e-3
-1.404, 1.011e-3
-1.405, 1.011e-3
-1.406, 1.011e-3
-1.407, 1.011e-3
-1.408, 1.011e-3
-1.409, 1.011e-3
-1.410, 1.011e-3
-1.411, 1.011e-3
-1.412, 1.011e-3
-1.413, 1.011e-3
-1.414, 1.011e-3
-1.415, 1.011e-3
-1.416, 1.011e-3
-1.417, 1.011e-3
-1.418, 1.011e-3
-1.419, 1.011e-3
-1.420, 1.011e-3
-1.421, 1.011e-3
-1.422, 1.011e-3
-1.423, 1.011e-3
-1.424, 1.011e-3
-1.425, 1.011e-3
-1.426, 1.011e-3
-1.427, 1.011e-3
-1.428, 1.011e-3
-1.429, 1.011e-3
-1.430, 1.011e-3
-1.431, 1.011e-3
-1.432, 1.011e-3
-1.433, 1.011e-3
-1.434, 1.011e-3
-1.435, 1.011e-3
-1.436, 1.011e-3
-1.437, 1.011e-3
-1.438, 1.011e-3
-1.439, 1.011e-3
-1.440, 1.011e-3
-1.441, 1.011e-3
-1.442, 1.011e-3
-1.443, 1.011e-3
-1.444, 1.011e-3
-1.445, 1.011e-3
-1.446, 1.011e-3
-1.447, 1.011e-3
-1.448, 1.011e-3
-1.449, 1.011e-3
-1.450, 1.011e-3
-1.451, 1.011e-3
-1.452, 1.011e-3
-1.453, 1.011e-3
-1.454, 1.011e-3
-1.455, 1.011e-3
-1.456, 1.011e-3
-1.457, 1.011e-3
-1.458, 1.011e-3
-1.459, 1.011e-3
-1.460, 1.011e-3
-1.461, 1.011e-3
-1.462, 1.011e-3
-1.463, 1.011e-3
-1.464, 1.011e-3
-1.465, 1.011e-3
-1.466, 1.011e-3
-1.467, 1.011e-3
-1.468, 1.011e-3
-1.469, 1.011e-3
-1.470, 1.011e-3
-1.471, 1.011e-3
-1.472, 1.011e-3
-1.473, 1.011e-3
-1.474, 1.011e-3
-1.475, 1.011e-3
-1.476, 1.011e-3
-1.477, 1.011e-3
-1.478, 1.011e-3
-1.479, 1.011e-3
-1.480, 1.011e-3
-1.481, 1.011e-3
-1.482, 1.011e-3
-1.483, 1.011e-3
-1.484, 1.011e-3
-1.485, 1.011e-3
-1.486, 1.011e-3
-1.487, 1.011e-3
-1.488, 1.011e-3
-1.489, 1.011e-3
-1.490, 1.011e-3
-1.491, 1.011e-3
-1.492, 1.011e-3
-1.493, 1.011e-3
-1.494, 1.011e-3
-1.495, 1.011e-3
-1.496, 1.011e-3
-1.497, 1.011e-3
-1.498, 1.011e-3
-1.499, 1.011e-3
-1.500, 1.011e-3
-1.501, 1.011e-3
-1.502, 1.011e-3
-1.503, 1.011e-3
-1.504, 1.011e-3
-1.505, 1.011e-3
-1.506, 1.011e-3
-1.507, 1.011e-3
-1.508, 1.011e-3
-1.509, 1.011e-3
-1.510, 1.011e-3
-1.511, 1.011e-3
-1.512, 1.011e-3
-1.513, 1.011e-3
-1.514, 1.011e-3
-1.515, 1.011e-3
-1.516, 1.011e-3
-1.517, 1.011e-3
-1.518, 1.011e-3
-1.519, 1.011e-3
-1.520, 1.011e-3
-1.521, 1.011e-3
-1.522, 1.011e-3
-1.523, 1.011e-3
-1.524, 1.011e-3
-1.525, 1.011e-3
-1.526, 1.011e-3
-1.527, 1.011e-3
-1.528, 1.011e-3
-1.529, 1.011e-3
-1.530, 1.011e-3
-1.531, 1.011e-3
-1.532, 1.011e-3
-1.533, 1.011e-3
-1.534, 1.011e-3
-1.535, 1.011e-3
-1.536, 1.011e-3
-1.537, 1.011e-3
-1.538, 1.011e-3
-1.539, 1.011e-3
-1.540, 1.011e-3
-1.541, 1.011e-3
-1.542, 1.011e-3
-1.543, 1.011e-3
-1.544, 1.011e-3
-1.545, 1.011e-3
-1.546, 1.011e-3
-1.547, 1.011e-3
-1.548, 1.011e-3
-1.549, 1.011e-3
-1.550, 1.011e-3
-1.551, 1.011e-3
-1.552, 1.011e-3
-1.553, 1.011e-3
-1.554, 1.011e-3
-1.555, 1.011e-3
-1.556, 1.011e-3
-1.557, 1.011e-3
-1.558, 1.011e-3
-1.559, 1.011e-3
-1.560, 1.011e-3
-1.561, 1.011e-3
-1.562, 1.011e-3
-1.563, 1.011e-3
-1.564, 1.011e-3
-1.565, 1.011e-3
-1.566, 1.011e-3
-1.567, 1.011e-3
-1.568, 1.011e-3
-1.569, 1.011e-3
-1.570, 1.011e-3
-1.571, 1.011e-3
-1.572, 1.011e-3
-1.573, 1.011e-3
-1.574, 1.011e-3
-1.575, 1.011e-3
-1.576, 1.011e-3
-1.577, 1.011e-3
-1.578, 1.011e-3
-1.579, 1.011e-3
-1.580, 1.011e-3
-1.581, 1.011e-3
-1.582, 1.011e-3
-1.583, 1.011e-3
-1.584, 1.011e-3
-1.585, 1.011e-3
-1.586, 1.011e-3
-1.587, 1.011e-3
-1.588, 1.011e-3
-1.589, 1.011e-3
-1.590, 1.011e-3
-1.591, 1.011e-3
-1.592, 1.011e-3
-1.593, 1.011e-3
-1.594, 1.011e-3
-1.595, 1.011e-3
-1.596, 1.011e-3
-1.597, 1.011e-3
-1.598, 1.011e-3
-1.599, 1.011e-3
-1.600, 1.011e-3
-1.601, 1.011e-3
-1.602, 1.011e-3
-1.603, 1.011e-3
-1.604, 1.011e-3
-1.605, 1.011e-3
-1.606, 1.011e-3
-1.607, 1.011e-3
-1.608, 1.011e-3
-1.609, 1.011e-3
-1.610, 1.011e-3
-1.611, 1.011e-3
-1.612, 1.011e-3
-1.613, 1.011e-3
-1.614, 1.011e-3
-1.615, 1.011e-3
-1.616, 1.011e-3
-1.617, 1.011e-3
-1.618, 1.011e-3
-1.619, 1.011e-3
-1.620, 1.011e-3
-1.621, 1.011e-3
-1.622, 1.011e-3
-1.623, 1.011e-3
-1.624, 1.011e-3
-1.625, 1.011e-3
-1.626, 1.011e-3
-1.627, 1.011e-3
-1.628, 1.011e-3
-1.629, 1.011e-3
-1.630, 1.011e-3
-1.631, 1.011e-3
-1.632, 1.011e-3
-1.633, 1.011e-3
-1.634, 1.011e-3
-1.635, 1.011e-3
-1.636, 1.011e-3
-1.637, 1.011e-3
-1.638, 1.011e-3
-1.639, 1.011e-3
-1.640, 1.011e-3
-1.641, 1.011e-3
-1.642, 1.011e-3
-1.643, 1.011e-3
-1.644, 1.011e-3
-1.645, 1.011e-3
-1.646, 1.011e-3
-1.647, 1.011e-3
-1.648, 1.011e-3
-1.649, 1.011e-3
-1.650, 1.011e-3
-1.651, 1.011e-3
-1.652, 1.011e-3
-1.653, 1.011e-3
-1.654, 1.011e-3
-1.655, 1.011e-3
-1.656, 1.011e-3
-1.657, 1.011e-3
-1.658, 1.011e-3
-1.659, 1.011e-3
-1.660, 1.011e-3
-1.661, 1.011e-3
-1.662, 1.011e-3
-1.663, 1.011e-3
-1.664, 1.011e-3
-1.665, 1.011e-3
-1.666, 1.011e-3
-1.667, 1.011e-3
-1.668, 1.011e-3
-1.669, 1.011e-3
-1.670, 1.011e-3
-1.671, 1.011e-3
-1.672, 1.011e-3
-1.673, 1.011e-3
-1.674, 1.011e-3
-1.675, 1.011e-3
-1.676, 1.011e-3
-1.677, 1.011e-3
-1.678, 1.011e-3
-1.679, 1.011e-3
-1.680, 1.011e-3
-1.681, 1.011e-3
-1.682, 1.011e-3
-1.683, 1.011e-3
-1.684, 1.011e-3
-1.685, 1.011e-3
-1.686, 1.011e-3
-1.687, 1.011e-3
-1.688, 1.011e-3
-1.689, 1.011e-3
-1.690, 1.011e-3
-1.691, 1.011e-3
-1.692, 1.011e-3
-1.693, 1.011e-3
-1.694, 1.011e-3
-1.695, 1.011e-3
-1.696, 1.011e-3
-1.697, 1.011e-3
-1.698, 1.011e-3
-1.699, 1.011e-3
-1.700, 1.011e-3
-1.701, 1.011e-3
-1.702, 1.011e-3
-1.703, 1.011e-3
-1.704, 1.011e-3
-1.705, 1.011e-3
-1.706, 1.011e-3
-1.707, 1.011e-3
-1.708, 1.011e-3
-1.709, 1.011e-3
-1.710, 1.011e-3
-1.711, 1.011e-3
-1.712, 1.011e-3
-1.713, 1.011e-3
-1.714, 1.011e-3
-1.715, 1.011e-3
-1.716, 1.011e-3
-1.717, 1.011e-3
-1.718, 1.011e-3
-1.719, 1.011e-3
-1.720, 1.011e-3
-1.721, 1.011e-3
-1.722, 1.011e-3
-1.723, 1.011e-3
-1.724, 1.011e-3
-1.725, 1.011e-3
-1.726, 1.011e-3
-1.727, 1.011e-3
-1.728, 1.011e-3
-1.729, 1.011e-3
-1.730, 1.011e-3
-1.731, 1.011e-3
-1.732, 1.011e-3
-1.733, 1.011e-3
-1.734, 1.011e-3
-1.735, 1.011e-3
-1.736, 1.011e-3
-1.737, 1.011e-3
-1.738, 1.011e-3
-1.739, 1.011e-3
-1.740, 1.011e-3
-1.741, 1.011e-3
-1.742, 1.011e-3
-1.743, 1.011e-3
-1.744, 1.011e-3
-1.745, 1.011e-3
-1.746, 1.011e-3
-1.747, 1.011e-3
-1.748, 1.011e-3
-1.749, 1.011e-3
-1.750, 1.011e-3
-1.751, 1.011e-3
-1.752, 1.011e-3
-1.753, 1.011e-3
-1.754, 1.011e-3
-1.755, 1.011e-3
-1.756, 1.011e-3
-1.757, 1.011e-3
-1.758, 1.011e-3
-1.759, 1.011e-3
-1.760, 1.011e-3
-1.761, 1.011e-3
-1.762, 1.011e-3
-1.763, 1.011e-3
-1.764, 1.011e-3
-1.765, 1.011e-3
-1.766, 1.011e-3
-1.767, 1.011e-3
-1.768, 1.011e-3
-1.769, 1.011e-3
-1.770, 1.011e-3
-1.771, 1.011e-3
-1.772, 1.011e-3
-1.773, 1.011e-3
-1.774, 1.011e-3
-1.775, 1.011e-3
-1.776, 1.011e-3
-1.777, 1.011e-3
-1.778, 1.011e-3
-1.779, 1.011e-3
-1.780, 1.011e-3
-1.781, 1.011e-3
-1.782, 1.011e-3
-1.783, 1.011e-3
-1.784, 1.011e-3
-1.785, 1.011e-3
-1.786, 1.011e-3
-1.787, 1.011e-3
-1.788, 1.011e-3
-1.789, 1.011e-3
-1.790, 1.011e-3
-1.791, 1.011e-3
-1.792, 1.011e-3
-1.793, 1.011e-3
-1.794, 1.011e-3
-1.795, 1.011e-3
-1.796, 1.011e-3
-1.797, 1.011e-3
-1.798, 1.011e-3
-1.799, 1.011e-3
-1.800, 1.011e-3
-1.801, 1.011e-3
-1.802, 1.011e-3
-1.803, 1.011e-3
-1.804, 1.011e-3
-1.805, 1.011e-3
-1.806, 1.011e-3
-1.807, 1.011e-3
-1.808, 1.011e-3
-1.809, 1.011e-3
-1.810, 1.011e-3
-1.811, 1.011e-3
-1.812, 1.011e-3
-1.813, 1.011e-3
-1.814, 1.011e-3
-1.815, 1.011e-3
-1.816, 1.011e-3
-1.817, 1.011e-3
-1.818, 1.011e-3
-1.819, 1.011e-3
-1.820, 1.011e-3
-1.821, 1.011e-3
-1.822, 1.011e-3
-1.823, 1.011e-3
-1.824, 1.011e-3
-1.825, 1.011e-3
-1.826, 1.011e-3
-1.827, 1.011e-3
-1.828, 1.011e-3
-1.829, 1.011e-3
-1.830, 1.011e-3
-1.831, 1.011e-3
-1.832, 1.011e-3
-1.833, 1.011e-3
-1.834, 1.011e-3
-1.835, 1.011e-3
-1.836, 1.011e-3
-1.837, 1.011e-3
-1.838, 1.011e-3
-1.839, 1.011e-3
-1.840, 1.011e-3
-1.841, 1.011e-3
-1.842, 1.011e-3
-1.843, 1.011e-3
-1.844, 1.011e-3
-1.845, 1.011e-3
-1.846, 1.011e-3
-1.847, 1.011e-3
-1.848, 1.011e-3
-1.849, 1.011e-3
-1.850, 1.011e-3
-1.851, 1.011e-3
-1.852, 1.011e-3
-1.853, 1.011e-3
-1.854, 1.011e-3
-1.855, 1.011e-3
-1.856, 1.011e-3
-1.857, 1.011e-3
-1.858, 1.011e-3
-1.859, 1.011e-3
-1.860, 1.011e-3
-1.861, 1.011e-3
-1.862, 1.011e-3
-1.863, 1.011e-3
-1.864, 1.011e-3
-1.865, 1.011e-3
-1.866, 1.011e-3
-1.867, 1.011e-3
-1.868, 1.011e-3
-1.869, 1.011e-3
-1.870, 1.011e-3
-1.871, 1.011e-3
-1.872, 1.011e-3
-1.873, 1.011e-3
-1.874, 1.011e-3
-1.875, 1.011e-3
-1.876, 1.011e-3
-1.877, 1.011e-3
-1.878, 1.011e-3
-1.879, 1.011e-3
-1.880, 1.011e-3
-1.881, 1.011e-3
-1.882, 1.011e-3
-1.883, 1.011e-3
-1.884, 1.011e-3
-1.885, 1.011e-3
-1.886, 1.011e-3
-1.887, 1.011e-3
-1.888, 1.011e-3
-1.889, 1.011e-3
-1.890, 1.011e-3
-1.891, 1.011e-3
-1.892, 1.011e-3
-1.893, 1.011e-3
-1.894, 1.011e-3
-1.895, 1.011e-3
-1.896, 1.011e-3
-1.897, 1.011e-3
-1.898, 1.011e-3
-1.899, 1.011e-3
