Sept. 4, 2024   14:32:49
Cyclic Voltammetry
File: c:/users/guazh/data/20240903_batch_252_500/2024-09-03-exp262\exp262-2024-09-04t14_05_52-h2koh\exp262_cv_sr_200mvs_efin_-1800mv.bin
Data Source:  Experiment
Instrument Model:  CHI760E
Header: CV ran at 200 mVs
Note: 

Init E (V) = -1
High E (V) = -1
Low E (V) = -1.8
Final E (V) = -1
Init P/N = N
Scan Rate (V/s) = 0.2
Segment = 3
Sample Interval (V) = 0.001
Quiet Time (sec) = 2
Sensitivity (A/V) = 0.01
Comp R (ohm) = 2.1

Results:

Channel 1:
Segment 1:

Segment 2:

Segment 3:

Potential/V, Current/A

-1.000, 9.669e-8
-1.001, 6.709e-8
-1.002, 3.532e-7
-1.003, 5.604e-7
-1.004, 4.815e-7
-1.005, 5.998e-7
-1.006, 6.393e-7
-1.007, 7.182e-7
-1.008, 7.873e-7
-1.009, 5.604e-7
-1.010, 8.958e-7
-1.011, 7.182e-7
-1.012, 1.123e-6
-1.013, 9.550e-7
-1.014, 8.860e-7
-1.015, 1.142e-6
-1.016, 1.024e-6
-1.017, 1.014e-6
-1.018, 1.212e-6
-1.019, 1.034e-6
-1.020, 1.202e-6
-1.021, 1.251e-6
-1.022, 1.103e-6
-1.023, 1.458e-6
-1.024, 1.271e-6
-1.025, 1.646e-6
-1.026, 1.527e-6
-1.027, 1.290e-6
-1.028, 1.567e-6
-1.029, 1.182e-6
-1.030, 1.517e-6
-1.031, 1.419e-6
-1.032, 1.508e-6
-1.033, 1.547e-6
-1.034, 1.350e-6
-1.035, 1.557e-6
-1.036, 1.596e-6
-1.037, 1.478e-6
-1.038, 1.725e-6
-1.039, 1.429e-6
-1.040, 1.527e-6
-1.041, 1.685e-6
-1.042, 1.715e-6
-1.043, 1.823e-6
-1.044, 1.626e-6
-1.045, 1.823e-6
-1.046, 1.636e-6
-1.047, 1.685e-6
-1.048, 1.774e-6
-1.049, 1.853e-6
-1.050, 1.892e-6
-1.051, 1.912e-6
-1.052, 1.942e-6
-1.053, 1.961e-6
-1.054, 1.823e-6
-1.055, 2.001e-6
-1.056, 1.912e-6
-1.057, 1.961e-6
-1.058, 2.070e-6
-1.059, 2.060e-6
-1.060, 2.060e-6
-1.061, 1.764e-6
-1.062, 1.961e-6
-1.063, 2.247e-6
-1.064, 1.892e-6
-1.065, 2.139e-6
-1.066, 2.001e-6
-1.067, 1.991e-6
-1.068, 2.159e-6
-1.069, 2.090e-6
-1.070, 2.218e-6
-1.071, 2.188e-6
-1.072, 2.336e-6
-1.073, 2.208e-6
-1.074, 2.208e-6
-1.075, 2.376e-6
-1.076, 2.307e-6
-1.077, 2.425e-6
-1.078, 2.484e-6
-1.079, 2.169e-6
-1.080, 2.386e-6
-1.081, 2.494e-6
-1.082, 2.445e-6
-1.083, 2.524e-6
-1.084, 2.218e-6
-1.085, 2.504e-6
-1.086, 2.366e-6
-1.087, 2.405e-6
-1.088, 2.484e-6
-1.089, 2.445e-6
-1.090, 2.474e-6
-1.091, 2.553e-6
-1.092, 2.465e-6
-1.093, 2.642e-6
-1.094, 2.425e-6
-1.095, 2.770e-6
-1.096, 2.593e-6
-1.097, 2.445e-6
-1.098, 2.474e-6
-1.099, 2.583e-6
-1.100, 2.652e-6
-1.101, 2.770e-6
-1.102, 2.583e-6
-1.103, 2.613e-6
-1.104, 2.563e-6
-1.105, 2.800e-6
-1.106, 2.642e-6
-1.107, 2.642e-6
-1.108, 2.849e-6
-1.109, 2.751e-6
-1.110, 2.622e-6
-1.111, 2.751e-6
-1.112, 2.938e-6
-1.113, 2.662e-6
-1.114, 2.652e-6
-1.115, 2.839e-6
-1.116, 2.968e-6
-1.117, 2.622e-6
-1.118, 2.958e-6
-1.119, 2.731e-6
-1.120, 2.869e-6
-1.121, 2.987e-6
-1.122, 2.820e-6
-1.123, 2.839e-6
-1.124, 2.849e-6
-1.125, 2.830e-6
-1.126, 2.987e-6
-1.127, 2.908e-6
-1.128, 3.056e-6
-1.129, 2.879e-6
-1.130, 3.224e-6
-1.131, 2.672e-6
-1.132, 3.047e-6
-1.133, 3.076e-6
-1.134, 2.839e-6
-1.135, 3.086e-6
-1.136, 3.106e-6
-1.137, 3.195e-6
-1.138, 3.106e-6
-1.139, 2.830e-6
-1.140, 3.037e-6
-1.141, 3.214e-6
-1.142, 3.027e-6
-1.143, 3.264e-6
-1.144, 3.027e-6
-1.145, 3.500e-6
-1.146, 3.214e-6
-1.147, 3.135e-6
-1.148, 3.244e-6
-1.149, 2.968e-6
-1.150, 3.352e-6
-1.151, 3.145e-6
-1.152, 3.392e-6
-1.153, 3.362e-6
-1.154, 3.372e-6
-1.155, 3.481e-6
-1.156, 3.204e-6
-1.157, 3.254e-6
-1.158, 3.234e-6
-1.159, 3.234e-6
-1.160, 3.471e-6
-1.161, 3.323e-6
-1.162, 3.392e-6
-1.163, 3.382e-6
-1.164, 3.382e-6
-1.165, 3.520e-6
-1.166, 3.599e-6
-1.167, 3.323e-6
-1.168, 3.599e-6
-1.169, 3.382e-6
-1.170, 3.589e-6
-1.171, 3.441e-6
-1.172, 3.767e-6
-1.173, 3.570e-6
-1.174, 3.402e-6
-1.175, 3.579e-6
-1.176, 3.471e-6
-1.177, 3.836e-6
-1.178, 3.520e-6
-1.179, 3.639e-6
-1.180, 3.787e-6
-1.181, 3.796e-6
-1.182, 3.915e-6
-1.183, 3.708e-6
-1.184, 3.471e-6
-1.185, 3.944e-6
-1.186, 3.875e-6
-1.187, 3.658e-6
-1.188, 3.994e-6
-1.189, 3.629e-6
-1.190, 4.004e-6
-1.191, 3.777e-6
-1.192, 3.954e-6
-1.193, 4.073e-6
-1.194, 3.648e-6
-1.195, 3.836e-6
-1.196, 3.885e-6
-1.197, 4.023e-6
-1.198, 3.777e-6
-1.199, 3.856e-6
-1.200, 3.935e-6
-1.201, 4.063e-6
-1.202, 4.033e-6
-1.203, 4.053e-6
-1.204, 3.846e-6
-1.205, 4.152e-6
-1.206, 4.112e-6
-1.207, 3.964e-6
-1.208, 4.191e-6
-1.209, 4.053e-6
-1.210, 4.092e-6
-1.211, 3.935e-6
-1.212, 4.270e-6
-1.213, 4.191e-6
-1.214, 4.132e-6
-1.215, 4.221e-6
-1.216, 4.092e-6
-1.217, 4.211e-6
-1.218, 4.309e-6
-1.219, 4.171e-6
-1.220, 4.211e-6
-1.221, 4.211e-6
-1.222, 4.448e-6
-1.223, 4.438e-6
-1.224, 4.319e-6
-1.225, 4.487e-6
-1.226, 4.457e-6
-1.227, 4.231e-6
-1.228, 4.625e-6
-1.229, 4.457e-6
-1.230, 4.448e-6
-1.231, 4.556e-6
-1.232, 4.477e-6
-1.233, 4.803e-6
-1.234, 4.477e-6
-1.235, 4.635e-6
-1.236, 4.536e-6
-1.237, 4.714e-6
-1.238, 4.290e-6
-1.239, 4.536e-6
-1.240, 4.517e-6
-1.241, 4.645e-6
-1.242, 4.931e-6
-1.243, 4.605e-6
-1.244, 4.596e-6
-1.245, 4.970e-6
-1.246, 4.536e-6
-1.247, 4.665e-6
-1.248, 4.694e-6
-1.249, 4.576e-6
-1.250, 4.783e-6
-1.251, 4.566e-6
-1.252, 4.753e-6
-1.253, 4.901e-6
-1.254, 4.566e-6
-1.255, 4.921e-6
-1.256, 4.694e-6
-1.257, 4.694e-6
-1.258, 5.099e-6
-1.259, 4.596e-6
-1.260, 4.832e-6
-1.261, 4.753e-6
-1.262, 5.010e-6
-1.263, 4.882e-6
-1.264, 4.882e-6
-1.265, 5.158e-6
-1.266, 5.049e-6
-1.267, 5.089e-6
-1.268, 5.227e-6
-1.269, 4.892e-6
-1.270, 4.990e-6
-1.271, 5.138e-6
-1.272, 5.020e-6
-1.273, 5.237e-6
-1.274, 5.168e-6
-1.275, 5.257e-6
-1.276, 5.296e-6
-1.277, 5.168e-6
-1.278, 5.424e-6
-1.279, 5.365e-6
-1.280, 5.444e-6
-1.281, 5.493e-6
-1.282, 5.424e-6
-1.283, 5.424e-6
-1.284, 5.316e-6
-1.285, 5.513e-6
-1.286, 5.622e-6
-1.287, 5.444e-6
-1.288, 5.572e-6
-1.289, 5.336e-6
-1.290, 5.553e-6
-1.291, 5.572e-6
-1.292, 5.395e-6
-1.293, 5.858e-6
-1.294, 5.474e-6
-1.295, 5.503e-6
-1.296, 5.405e-6
-1.297, 5.592e-6
-1.298, 5.553e-6
-1.299, 5.474e-6
-1.300, 5.602e-6
-1.301, 5.789e-6
-1.302, 5.849e-6
-1.303, 5.799e-6
-1.304, 5.819e-6
-1.305, 5.987e-6
-1.306, 5.868e-6
-1.307, 5.977e-6
-1.308, 5.927e-6
-1.309, 5.789e-6
-1.310, 5.868e-6
-1.311, 6.075e-6
-1.312, 5.947e-6
-1.313, 6.411e-6
-1.314, 5.908e-6
-1.315, 6.066e-6
-1.316, 5.987e-6
-1.317, 6.095e-6
-1.318, 6.125e-6
-1.319, 6.125e-6
-1.320, 6.401e-6
-1.321, 6.085e-6
-1.322, 6.549e-6
-1.323, 6.322e-6
-1.324, 6.440e-6
-1.325, 6.510e-6
-1.326, 6.727e-6
-1.327, 6.421e-6
-1.328, 6.352e-6
-1.329, 6.214e-6
-1.330, 6.401e-6
-1.331, 6.371e-6
-1.332, 6.391e-6
-1.333, 6.500e-6
-1.334, 6.460e-6
-1.335, 6.638e-6
-1.336, 6.440e-6
-1.337, 6.598e-6
-1.338, 6.855e-6
-1.339, 6.539e-6
-1.340, 6.855e-6
-1.341, 6.825e-6
-1.342, 6.746e-6
-1.343, 7.003e-6
-1.344, 7.052e-6
-1.345, 7.269e-6
-1.346, 7.190e-6
-1.347, 7.220e-6
-1.348, 7.240e-6
-1.349, 7.072e-6
-1.350, 7.417e-6
-1.351, 7.269e-6
-1.352, 7.131e-6
-1.353, 7.180e-6
-1.354, 7.230e-6
-1.355, 7.457e-6
-1.356, 7.585e-6
-1.357, 7.457e-6
-1.358, 7.615e-6
-1.359, 7.467e-6
-1.360, 7.772e-6
-1.361, 7.703e-6
-1.362, 7.832e-6
-1.363, 7.802e-6
-1.364, 7.624e-6
-1.365, 7.911e-6
-1.366, 7.782e-6
-1.367, 8.009e-6
-1.368, 7.871e-6
-1.369, 7.782e-6
-1.370, 7.920e-6
-1.371, 7.930e-6
-1.372, 7.861e-6
-1.373, 8.345e-6
-1.374, 7.605e-6
-1.375, 8.059e-6
-1.376, 7.920e-6
-1.377, 7.960e-6
-1.378, 8.147e-6
-1.379, 7.940e-6
-1.380, 8.295e-6
-1.381, 7.901e-6
-1.382, 8.197e-6
-1.383, 8.187e-6
-1.384, 8.157e-6
-1.385, 8.394e-6
-1.386, 8.374e-6
-1.387, 8.414e-6
-1.388, 8.295e-6
-1.389, 8.266e-6
-1.390, 8.453e-6
-1.391, 8.236e-6
-1.392, 8.354e-6
-1.393, 8.512e-6
-1.394, 8.068e-6
-1.395, 8.660e-6
-1.396, 8.295e-6
-1.397, 8.433e-6
-1.398, 8.552e-6
-1.399, 8.512e-6
-1.400, 8.404e-6
-1.401, 8.483e-6
-1.402, 8.779e-6
-1.403, 8.729e-6
-1.404, 8.424e-6
-1.405, 8.808e-6
-1.406, 8.522e-6
-1.407, 8.522e-6
-1.408, 8.670e-6
-1.409, 8.670e-6
-1.410, 9.075e-6
-1.411, 8.621e-6
-1.412, 8.739e-6
-1.413, 8.779e-6
-1.414, 8.581e-6
-1.415, 8.907e-6
-1.416, 9.025e-6
-1.417, 8.927e-6
-1.418, 9.055e-6
-1.419, 8.739e-6
-1.420, 9.085e-6
-1.421, 9.163e-6
-1.422, 9.154e-6
-1.423, 9.154e-6
-1.424, 9.173e-6
-1.425, 9.489e-6
-1.426, 9.094e-6
-1.427, 9.154e-6
-1.428, 9.302e-6
-1.429, 9.134e-6
-1.430, 9.499e-6
-1.431, 9.519e-6
-1.432, 9.262e-6
-1.433, 9.657e-6
-1.434, 9.450e-6
-1.435, 9.489e-6
-1.436, 9.647e-6
-1.437, 9.450e-6
-1.438, 9.874e-6
-1.439, 9.519e-6
-1.440, 9.765e-6
-1.441, 9.657e-6
-1.442, 9.677e-6
-1.443, 9.726e-6
-1.444, 9.598e-6
-1.445, 9.834e-6
-1.446, 9.982e-6
-1.447, 1.020e-5
-1.448, 1.012e-5
-1.449, 9.992e-6
-1.450, 1.028e-5
-1.451, 9.903e-6
-1.452, 1.028e-5
-1.453, 1.069e-5
-1.454, 1.000e-5
-1.455, 1.056e-5
-1.456, 1.034e-5
-1.457, 1.044e-5
-1.458, 1.048e-5
-1.459, 1.060e-5
-1.460, 1.060e-5
-1.461, 1.057e-5
-1.462, 1.082e-5
-1.463, 1.084e-5
-1.464, 1.074e-5
-1.465, 1.091e-5
-1.466, 1.114e-5
-1.467, 1.097e-5
-1.468, 1.107e-5
-1.469, 1.110e-5
-1.470, 1.119e-5
-1.471, 1.135e-5
-1.472, 1.108e-5
-1.473, 1.120e-5
-1.474, 1.125e-5
-1.475, 1.134e-5
-1.476, 1.128e-5
-1.477, 1.138e-5
-1.478, 1.141e-5
-1.479, 1.160e-5
-1.480, 1.169e-5
-1.481, 1.155e-5
-1.482, 1.175e-5
-1.483, 1.173e-5
-1.484, 1.166e-5
-1.485, 1.212e-5
-1.486, 1.200e-5
-1.487, 1.194e-5
-1.488, 1.208e-5
-1.489, 1.202e-5
-1.490, 1.210e-5
-1.491, 1.218e-5
-1.492, 1.202e-5
-1.493, 1.247e-5
-1.494, 1.209e-5
-1.495, 1.247e-5
-1.496, 1.259e-5
-1.497, 1.274e-5
-1.498, 1.282e-5
-1.499, 1.275e-5
-1.500, 1.277e-5
-1.501, 1.306e-5
-1.502, 1.285e-5
-1.503, 1.314e-5
-1.504, 1.302e-5
-1.505, 1.333e-5
-1.506, 1.321e-5
-1.507, 1.328e-5
-1.508, 1.330e-5
-1.509, 1.325e-5
-1.510, 1.337e-5
-1.511, 1.347e-5
-1.512, 1.347e-5
-1.513, 1.355e-5
-1.514, 1.358e-5
-1.515, 1.372e-5
-1.516, 1.369e-5
-1.517, 1.410e-5
-1.518, 1.409e-5
-1.519, 1.396e-5
-1.520, 1.446e-5
-1.521, 1.423e-5
-1.522, 1.451e-5
-1.523, 1.461e-5
-1.524, 1.448e-5
-1.525, 1.486e-5
-1.526, 1.465e-5
-1.527, 1.478e-5
-1.528, 1.495e-5
-1.529, 1.473e-5
-1.530, 1.495e-5
-1.531, 1.502e-5
-1.532, 1.501e-5
-1.533, 1.540e-5
-1.534, 1.492e-5
-1.535, 1.543e-5
-1.536, 1.529e-5
-1.537, 1.577e-5
-1.538, 1.573e-5
-1.539, 1.578e-5
-1.540, 1.619e-5
-1.541, 1.592e-5
-1.542, 1.638e-5
-1.543, 1.641e-5
-1.544, 1.613e-5
-1.545, 1.658e-5
-1.546, 1.670e-5
-1.547, 1.648e-5
-1.548, 1.671e-5
-1.549, 1.680e-5
-1.550, 1.706e-5
-1.551, 1.700e-5
-1.552, 1.708e-5
-1.553, 1.742e-5
-1.554, 1.721e-5
-1.555, 1.776e-5
-1.556, 1.751e-5
-1.557, 1.779e-5
-1.558, 1.803e-5
-1.559, 1.825e-5
-1.560, 1.831e-5
-1.561, 1.830e-5
-1.562, 1.856e-5
-1.563, 1.864e-5
-1.564, 1.867e-5
-1.565, 1.907e-5
-1.566, 1.915e-5
-1.567, 1.896e-5
-1.568, 1.963e-5
-1.569, 1.934e-5
-1.570, 1.959e-5
-1.571, 1.952e-5
-1.572, 2.002e-5
-1.573, 2.003e-5
-1.574, 2.002e-5
-1.575, 2.049e-5
-1.576, 2.051e-5
-1.577, 2.062e-5
-1.578, 2.099e-5
-1.579, 2.090e-5
-1.580, 2.137e-5
-1.581, 2.123e-5
-1.582, 2.168e-5
-1.583, 2.182e-5
-1.584, 2.187e-5
-1.585, 2.216e-5
-1.586, 2.220e-5
-1.587, 2.280e-5
-1.588, 2.305e-5
-1.589, 2.308e-5
-1.590, 2.339e-5
-1.591, 2.346e-5
-1.592, 2.371e-5
-1.593, 2.392e-5
-1.594, 2.426e-5
-1.595, 2.480e-5
-1.596, 2.490e-5
-1.597, 2.523e-5
-1.598, 2.537e-5
-1.599, 2.528e-5
-1.600, 2.611e-5
-1.601, 2.619e-5
-1.602, 2.658e-5
-1.603, 2.669e-5
-1.604, 2.707e-5
-1.605, 2.742e-5
-1.606, 2.770e-5
-1.607, 2.803e-5
-1.608, 2.842e-5
-1.609, 2.862e-5
-1.610, 2.910e-5
-1.611, 2.952e-5
-1.612, 2.965e-5
-1.613, 3.039e-5
-1.614, 3.027e-5
-1.615, 3.115e-5
-1.616, 3.123e-5
-1.617, 3.186e-5
-1.618, 3.225e-5
-1.619, 3.233e-5
-1.620, 3.311e-5
-1.621, 3.366e-5
-1.622, 3.392e-5
-1.623, 3.450e-5
-1.624, 3.481e-5
-1.625, 3.543e-5
-1.626, 3.604e-5
-1.627, 3.653e-5
-1.628, 3.704e-5
-1.629, 3.755e-5
-1.630, 3.839e-5
-1.631, 3.873e-5
-1.632, 3.955e-5
-1.633, 4.031e-5
-1.634, 4.066e-5
-1.635, 4.158e-5
-1.636, 4.209e-5
-1.637, 4.296e-5
-1.638, 4.359e-5
-1.639, 4.422e-5
-1.640, 4.520e-5
-1.641, 4.573e-5
-1.642, 4.683e-5
-1.643, 4.757e-5
-1.644, 4.833e-5
-1.645, 4.946e-5
-1.646, 5.009e-5
-1.647, 5.101e-5
-1.648, 5.234e-5
-1.649, 5.280e-5
-1.650, 5.407e-5
-1.651, 5.516e-5
-1.652, 5.636e-5
-1.653, 5.756e-5
-1.654, 5.831e-5
-1.655, 5.993e-5
-1.656, 6.078e-5
-1.657, 6.209e-5
-1.658, 6.364e-5
-1.659, 6.461e-5
-1.660, 6.621e-5
-1.661, 6.746e-5
-1.662, 6.895e-5
-1.663, 7.046e-5
-1.664, 7.173e-5
-1.665, 7.344e-5
-1.666, 7.517e-5
-1.667, 7.665e-5
-1.668, 7.858e-5
-1.669, 8.018e-5
-1.670, 8.194e-5
-1.671, 8.399e-5
-1.672, 8.574e-5
-1.673, 8.779e-5
-1.674, 8.957e-5
-1.675, 9.186e-5
-1.676, 9.401e-5
-1.677, 9.632e-5
-1.678, 9.871e-5
-1.679, 1.010e-4
-1.680, 1.035e-4
-1.681, 1.062e-4
-1.682, 1.088e-4
-1.683, 1.113e-4
-1.684, 1.136e-4
-1.685, 1.166e-4
-1.686, 1.196e-4
-1.687, 1.225e-4
-1.688, 1.254e-4
-1.689, 1.287e-4
-1.690, 1.326e-4
-1.691, 1.357e-4
-1.692, 1.395e-4
-1.693, 1.432e-4
-1.694, 1.461e-4
-1.695, 1.505e-4
-1.696, 1.545e-4
-1.697, 1.586e-4
-1.698, 1.628e-4
-1.699, 1.670e-4
-1.700, 1.718e-4
-1.701, 1.761e-4
-1.702, 1.813e-4
-1.703, 1.861e-4
-1.704, 1.915e-4
-1.705, 1.965e-4
-1.706, 2.017e-4
-1.707, 2.072e-4
-1.708, 2.131e-4
-1.709, 2.187e-4
-1.710, 2.247e-4
-1.711, 2.311e-4
-1.712, 2.376e-4
-1.713, 2.440e-4
-1.714, 2.503e-4
-1.715, 2.576e-4
-1.716, 2.654e-4
-1.717, 2.727e-4
-1.718, 2.807e-4
-1.719, 2.887e-4
-1.720, 2.970e-4
-1.721, 3.053e-4
-1.722, 3.146e-4
-1.723, 3.241e-4
-1.724, 3.321e-4
-1.725, 3.422e-4
-1.726, 3.523e-4
-1.727, 3.621e-4
-1.728, 3.732e-4
-1.729, 3.847e-4
-1.730, 3.959e-4
-1.731, 4.066e-4
-1.732, 4.181e-4
-1.733, 4.303e-4
-1.734, 4.439e-4
-1.735, 4.575e-4
-1.736, 4.710e-4
-1.737, 4.852e-4
-1.738, 4.998e-4
-1.739, 5.150e-4
-1.740, 5.314e-4
-1.741, 5.468e-4
-1.742, 5.650e-4
-1.743, 5.826e-4
-1.744, 5.990e-4
-1.745, 6.173e-4
-1.746, 6.348e-4
-1.747, 6.556e-4
-1.748, 6.770e-4
-1.749, 6.960e-4
-1.750, 7.202e-4
-1.751, 7.419e-4
-1.752, 7.662e-4
-1.753, 7.927e-4
-1.754, 8.154e-4
-1.755, 8.440e-4
-1.756, 8.703e-4
-1.757, 8.985e-4
-1.758, 9.297e-4
-1.759, 9.587e-4
-1.760, 9.942e-4
-1.761, 1.024e-3
-1.762, 1.057e-3
-1.763, 1.091e-3
-1.764, 1.127e-3
-1.765, 1.161e-3
-1.766, 1.198e-3
-1.767, 1.236e-3
-1.768, 1.276e-3
-1.769, 1.318e-3
-1.770, 1.361e-3
-1.771, 1.405e-3
-1.772, 1.451e-3
-1.773, 1.501e-3
-1.774, 1.544e-3
-1.775, 1.585e-3
-1.776, 1.632e-3
-1.777, 1.679e-3
-1.778, 1.733e-3
-1.779, 1.780e-3
-1.780, 1.840e-3
-1.781, 1.895e-3
-1.782, 1.959e-3
-1.783, 2.018e-3
-1.784, 2.079e-3
-1.785, 2.145e-3
-1.786, 2.207e-3
-1.787, 2.278e-3
-1.788, 2.347e-3
-1.789, 2.428e-3
-1.790, 2.500e-3
-1.791, 2.577e-3
-1.792, 2.657e-3
-1.793, 2.734e-3
-1.794, 2.816e-3
-1.795, 2.897e-3
-1.796, 2.978e-3
-1.797, 3.065e-3
-1.798, 3.147e-3
-1.799, 3.228e-3
-1.800, 3.288e-3
-1.799, 3.292e-3
-1.798, 3.294e-3
-1.797, 3.289e-3
-1.796, 3.276e-3
-1.795, 3.263e-3
-1.794, 3.251e-3
-1.793, 3.229e-3
-1.792, 3.189e-3
-1.791, 3.145e-3
-1.790, 3.115e-3
-1.789, 3.086e-3
-1.788, 3.058e-3
-1.787, 3.032e-3
-1.786, 3.006e-3
-1.785, 2.976e-3
-1.784, 2.948e-3
-1.783, 2.917e-3
-1.782, 2.888e-3
-1.781, 2.859e-3
-1.780, 2.831e-3
-1.779, 2.808e-3
-1.778, 2.780e-3
-1.777, 2.754e-3
-1.776, 2.724e-3
-1.775, 2.695e-3
-1.774, 2.662e-3
-1.773, 2.631e-3
-1.772, 2.597e-3
-1.771, 2.563e-3
-1.770, 2.531e-3
-1.769, 2.496e-3
-1.768, 2.462e-3
-1.767, 2.425e-3
-1.766, 2.390e-3
-1.765, 2.351e-3
-1.764, 2.320e-3
-1.763, 2.282e-3
-1.762, 2.253e-3
-1.761, 2.219e-3
-1.760, 2.188e-3
-1.759, 2.154e-3
-1.758, 2.111e-3
-1.757, 2.067e-3
-1.756, 2.031e-3
-1.755, 1.999e-3
-1.754, 1.967e-3
-1.753, 1.940e-3
-1.752, 1.907e-3
-1.751, 1.877e-3
-1.750, 1.845e-3
-1.749, 1.814e-3
-1.748, 1.788e-3
-1.747, 1.759e-3
-1.746, 1.729e-3
-1.745, 1.705e-3
-1.744, 1.674e-3
-1.743, 1.649e-3
-1.742, 1.619e-3
-1.741, 1.593e-3
-1.740, 1.564e-3
-1.739, 1.539e-3
-1.738, 1.509e-3
-1.737, 1.480e-3
-1.736, 1.455e-3
-1.735, 1.426e-3
-1.734, 1.400e-3
-1.733, 1.375e-3
-1.732, 1.349e-3
-1.731, 1.322e-3
-1.730, 1.298e-3
-1.729, 1.273e-3
-1.728, 1.249e-3
-1.727, 1.225e-3
-1.726, 1.202e-3
-1.725, 1.176e-3
-1.724, 1.151e-3
-1.723, 1.125e-3
-1.722, 1.104e-3
-1.721, 1.080e-3
-1.720, 1.060e-3
-1.719, 1.037e-3
-1.718, 1.014e-3
-1.717, 9.968e-4
-1.716, 9.768e-4
-1.715, 9.560e-4
-1.714, 9.363e-4
-1.713, 9.182e-4
-1.712, 8.995e-4
-1.711, 8.819e-4
-1.710, 8.634e-4
-1.709, 8.460e-4
-1.708, 8.281e-4
-1.707, 8.105e-4
-1.706, 7.925e-4
-1.705, 7.776e-4
-1.704, 7.608e-4
-1.703, 7.438e-4
-1.702, 7.288e-4
-1.701, 7.130e-4
-1.700, 6.976e-4
-1.699, 6.817e-4
-1.698, 6.679e-4
-1.697, 6.521e-4
-1.696, 6.372e-4
-1.695, 6.246e-4
-1.694, 6.113e-4
-1.693, 5.976e-4
-1.692, 5.841e-4
-1.691, 5.717e-4
-1.690, 5.588e-4
-1.689, 5.448e-4
-1.688, 5.328e-4
-1.687, 5.206e-4
-1.686, 5.084e-4
-1.685, 4.971e-4
-1.684, 4.871e-4
-1.683, 4.765e-4
-1.682, 4.659e-4
-1.681, 4.548e-4
-1.680, 4.448e-4
-1.679, 4.354e-4
-1.678, 4.255e-4
-1.677, 4.159e-4
-1.676, 4.057e-4
-1.675, 3.975e-4
-1.674, 3.889e-4
-1.673, 3.801e-4
-1.672, 3.719e-4
-1.671, 3.626e-4
-1.670, 3.552e-4
-1.669, 3.468e-4
-1.668, 3.395e-4
-1.667, 3.320e-4
-1.666, 3.240e-4
-1.665, 3.173e-4
-1.664, 3.106e-4
-1.663, 3.030e-4
-1.662, 2.959e-4
-1.661, 2.893e-4
-1.660, 2.820e-4
-1.659, 2.765e-4
-1.658, 2.704e-4
-1.657, 2.644e-4
-1.656, 2.580e-4
-1.655, 2.521e-4
-1.654, 2.461e-4
-1.653, 2.413e-4
-1.652, 2.364e-4
-1.651, 2.304e-4
-1.650, 2.254e-4
-1.649, 2.203e-4
-1.648, 2.145e-4
-1.647, 2.094e-4
-1.646, 2.047e-4
-1.645, 2.010e-4
-1.644, 1.965e-4
-1.643, 1.920e-4
-1.642, 1.878e-4
-1.641, 1.833e-4
-1.640, 1.795e-4
-1.639, 1.751e-4
-1.638, 1.713e-4
-1.637, 1.675e-4
-1.636, 1.637e-4
-1.635, 1.603e-4
-1.634, 1.569e-4
-1.633, 1.530e-4
-1.632, 1.498e-4
-1.631, 1.463e-4
-1.630, 1.432e-4
-1.629, 1.398e-4
-1.628, 1.366e-4
-1.627, 1.335e-4
-1.626, 1.304e-4
-1.625, 1.279e-4
-1.624, 1.247e-4
-1.623, 1.218e-4
-1.622, 1.193e-4
-1.621, 1.165e-4
-1.620, 1.140e-4
-1.619, 1.112e-4
-1.618, 1.089e-4
-1.617, 1.070e-4
-1.616, 1.041e-4
-1.615, 1.022e-4
-1.614, 1.000e-4
-1.613, 9.764e-5
-1.612, 9.529e-5
-1.611, 9.340e-5
-1.610, 9.138e-5
-1.609, 8.922e-5
-1.608, 8.754e-5
-1.607, 8.563e-5
-1.606, 8.336e-5
-1.605, 8.167e-5
-1.604, 7.988e-5
-1.603, 7.791e-5
-1.602, 7.626e-5
-1.601, 7.470e-5
-1.600, 7.291e-5
-1.599, 7.136e-5
-1.598, 6.970e-5
-1.597, 6.841e-5
-1.596, 6.658e-5
-1.595, 6.544e-5
-1.594, 6.414e-5
-1.593, 6.271e-5
-1.592, 6.114e-5
-1.591, 5.970e-5
-1.590, 5.843e-5
-1.589, 5.702e-5
-1.588, 5.589e-5
-1.587, 5.486e-5
-1.586, 5.341e-5
-1.585, 5.233e-5
-1.584, 5.100e-5
-1.583, 4.981e-5
-1.582, 4.872e-5
-1.581, 4.759e-5
-1.580, 4.669e-5
-1.579, 4.564e-5
-1.578, 4.485e-5
-1.577, 4.383e-5
-1.576, 4.285e-5
-1.575, 4.198e-5
-1.574, 4.069e-5
-1.573, 4.013e-5
-1.572, 3.925e-5
-1.571, 3.821e-5
-1.570, 3.743e-5
-1.569, 3.665e-5
-1.568, 3.582e-5
-1.567, 3.506e-5
-1.566, 3.404e-5
-1.565, 3.343e-5
-1.564, 3.252e-5
-1.563, 3.193e-5
-1.562, 3.126e-5
-1.561, 3.033e-5
-1.560, 3.012e-5
-1.559, 2.912e-5
-1.558, 2.865e-5
-1.557, 2.812e-5
-1.556, 2.741e-5
-1.555, 2.657e-5
-1.554, 2.612e-5
-1.553, 2.547e-5
-1.552, 2.493e-5
-1.551, 2.430e-5
-1.550, 2.374e-5
-1.549, 2.333e-5
-1.548, 2.272e-5
-1.547, 2.221e-5
-1.546, 2.136e-5
-1.545, 2.095e-5
-1.544, 2.073e-5
-1.543, 2.025e-5
-1.542, 1.957e-5
-1.541, 1.926e-5
-1.540, 1.909e-5
-1.539, 1.842e-5
-1.538, 1.790e-5
-1.537, 1.760e-5
-1.536, 1.717e-5
-1.535, 1.660e-5
-1.534, 1.642e-5
-1.533, 1.615e-5
-1.532, 1.586e-5
-1.531, 1.516e-5
-1.530, 1.514e-5
-1.529, 1.459e-5
-1.528, 1.423e-5
-1.527, 1.392e-5
-1.526, 1.330e-5
-1.525, 1.329e-5
-1.524, 1.298e-5
-1.523, 1.244e-5
-1.522, 1.241e-5
-1.521, 1.199e-5
-1.520, 1.173e-5
-1.519, 1.126e-5
-1.518, 1.114e-5
-1.517, 1.075e-5
-1.516, 1.053e-5
-1.515, 1.017e-5
-1.514, 1.003e-5
-1.513, 9.706e-6
-1.512, 9.637e-6
-1.511, 8.897e-6
-1.510, 9.124e-6
-1.509, 8.424e-6
-1.508, 8.493e-6
-1.507, 8.206e-6
-1.506, 7.605e-6
-1.505, 7.871e-6
-1.504, 7.506e-6
-1.503, 7.397e-6
-1.502, 7.200e-6
-1.501, 7.161e-6
-1.500, 7.003e-6
-1.499, 6.727e-6
-1.498, 6.411e-6
-1.497, 6.421e-6
-1.496, 6.085e-6
-1.495, 6.135e-6
-1.494, 5.681e-6
-1.493, 5.474e-6
-1.492, 5.454e-6
-1.491, 5.059e-6
-1.490, 5.266e-6
-1.489, 4.783e-6
-1.488, 4.783e-6
-1.487, 4.724e-6
-1.486, 4.388e-6
-1.485, 4.448e-6
-1.484, 4.063e-6
-1.483, 3.885e-6
-1.482, 3.796e-6
-1.481, 3.510e-6
-1.480, 3.648e-6
-1.479, 3.451e-6
-1.478, 3.195e-6
-1.477, 3.303e-6
-1.476, 2.573e-6
-1.475, 2.889e-6
-1.474, 2.691e-6
-1.473, 2.494e-6
-1.472, 2.297e-6
-1.471, 2.090e-6
-1.470, 2.030e-6
-1.469, 1.882e-6
-1.468, 1.961e-6
-1.467, 1.764e-6
-1.466, 1.527e-6
-1.465, 1.764e-6
-1.464, 1.606e-6
-1.463, 1.725e-6
-1.462, 1.458e-6
-1.461, 1.488e-6
-1.460, 1.261e-6
-1.459, 1.202e-6
-1.458, 1.034e-6
-1.457, 1.054e-6
-1.456, 6.590e-7
-1.455, 8.564e-7
-1.454, 8.169e-7
-1.453, 6.590e-7
-1.452, 7.774e-7
-1.451, 3.729e-7
-1.450, 5.998e-7
-1.449, 1.855e-7
-1.448, 3.236e-7
-1.447, 2.545e-7
-1.446, 9.669e-8
-1.445, 7.695e-8
-1.444, 7.695e-8
-1.443, -5.130e-8
-1.442, -9.077e-8
-1.441, -2.486e-7
-1.440, -1.894e-7
-1.439, -3.078e-7
-1.438, -5.150e-7
-1.437, -1.401e-7
-1.436, -7.912e-7
-1.435, -3.867e-7
-1.434, -7.321e-7
-1.433, -8.998e-7
-1.432, -6.926e-7
-1.431, -9.392e-7
-1.430, -1.097e-6
-1.429, -8.702e-7
-1.428, -9.294e-7
-1.427, -1.097e-6
-1.426, -1.225e-6
-1.425, -1.058e-6
-1.424, -1.117e-6
-1.423, -1.176e-6
-1.422, -1.423e-6
-1.421, -1.442e-6
-1.420, -1.275e-6
-1.419, -1.383e-6
-1.418, -1.571e-6
-1.417, -1.590e-6
-1.416, -1.699e-6
-1.415, -1.502e-6
-1.414, -1.630e-6
-1.413, -1.748e-6
-1.412, -1.689e-6
-1.411, -2.005e-6
-1.410, -1.729e-6
-1.409, -1.955e-6
-1.408, -1.886e-6
-1.407, -1.975e-6
-1.406, -1.886e-6
-1.405, -1.847e-6
-1.404, -2.005e-6
-1.403, -1.965e-6
-1.402, -1.886e-6
-1.401, -2.212e-6
-1.400, -2.044e-6
-1.399, -2.232e-6
-1.398, -2.044e-6
-1.397, -2.034e-6
-1.396, -2.232e-6
-1.395, -2.330e-6
-1.394, -2.281e-6
-1.393, -2.429e-6
-1.392, -2.261e-6
-1.391, -2.715e-6
-1.390, -2.636e-6
-1.389, -2.774e-6
-1.388, -2.686e-6
-1.387, -2.695e-6
-1.386, -2.932e-6
-1.385, -2.616e-6
-1.384, -2.705e-6
-1.383, -2.755e-6
-1.382, -2.557e-6
-1.381, -2.843e-6
-1.380, -2.705e-6
-1.379, -2.656e-6
-1.378, -2.538e-6
-1.377, -2.666e-6
-1.376, -2.972e-6
-1.375, -2.626e-6
-1.374, -2.774e-6
-1.373, -2.853e-6
-1.372, -2.764e-6
-1.371, -2.735e-6
-1.370, -2.814e-6
-1.369, -2.873e-6
-1.368, -2.962e-6
-1.367, -2.942e-6
-1.366, -3.120e-6
-1.365, -2.972e-6
-1.364, -2.853e-6
-1.363, -2.942e-6
-1.362, -2.912e-6
-1.361, -3.149e-6
-1.360, -2.636e-6
-1.359, -3.169e-6
-1.358, -3.051e-6
-1.357, -3.258e-6
-1.356, -3.396e-6
-1.355, -3.041e-6
-1.354, -3.317e-6
-1.353, -3.208e-6
-1.352, -3.297e-6
-1.351, -3.011e-6
-1.350, -3.287e-6
-1.349, -3.110e-6
-1.348, -3.199e-6
-1.347, -3.228e-6
-1.346, -3.445e-6
-1.345, -3.041e-6
-1.344, -3.129e-6
-1.343, -3.425e-6
-1.342, -3.090e-6
-1.341, -3.347e-6
-1.340, -3.110e-6
-1.339, -3.327e-6
-1.338, -3.327e-6
-1.337, -3.366e-6
-1.336, -3.455e-6
-1.335, -3.465e-6
-1.334, -3.573e-6
-1.333, -3.189e-6
-1.332, -3.189e-6
-1.331, -3.406e-6
-1.330, -3.337e-6
-1.329, -3.603e-6
-1.328, -3.425e-6
-1.327, -3.199e-6
-1.326, -3.633e-6
-1.325, -3.248e-6
-1.324, -3.465e-6
-1.323, -3.623e-6
-1.322, -3.514e-6
-1.321, -3.277e-6
-1.320, -3.662e-6
-1.319, -3.485e-6
-1.318, -3.643e-6
-1.317, -3.514e-6
-1.316, -3.850e-6
-1.315, -3.741e-6
-1.314, -3.830e-6
-1.313, -3.998e-6
-1.312, -3.800e-6
-1.311, -3.919e-6
-1.310, -3.820e-6
-1.309, -3.790e-6
-1.308, -3.692e-6
-1.307, -3.613e-6
-1.306, -3.968e-6
-1.305, -3.534e-6
-1.304, -3.504e-6
-1.303, -3.781e-6
-1.302, -3.583e-6
-1.301, -3.712e-6
-1.300, -3.465e-6
-1.299, -3.643e-6
-1.298, -3.692e-6
-1.297, -3.504e-6
-1.296, -3.662e-6
-1.295, -3.564e-6
-1.294, -3.623e-6
-1.293, -3.583e-6
-1.292, -3.573e-6
-1.291, -3.978e-6
-1.290, -3.524e-6
-1.289, -3.741e-6
-1.288, -3.702e-6
-1.287, -3.593e-6
-1.286, -3.840e-6
-1.285, -3.712e-6
-1.284, -3.692e-6
-1.283, -3.702e-6
-1.282, -3.781e-6
-1.281, -3.761e-6
-1.280, -3.682e-6
-1.279, -3.938e-6
-1.278, -3.593e-6
-1.277, -3.702e-6
-1.276, -3.741e-6
-1.275, -3.712e-6
-1.274, -3.889e-6
-1.273, -3.840e-6
-1.272, -3.564e-6
-1.271, -3.771e-6
-1.270, -3.524e-6
-1.269, -3.800e-6
-1.268, -3.800e-6
-1.267, -3.820e-6
-1.266, -3.978e-6
-1.265, -3.938e-6
-1.264, -3.899e-6
-1.263, -3.860e-6
-1.262, -3.800e-6
-1.261, -3.938e-6
-1.260, -3.524e-6
-1.259, -3.899e-6
-1.258, -3.850e-6
-1.257, -3.790e-6
-1.256, -3.938e-6
-1.255, -3.524e-6
-1.254, -4.008e-6
-1.253, -3.800e-6
-1.252, -3.820e-6
-1.251, -3.988e-6
-1.250, -3.702e-6
-1.249, -3.869e-6
-1.248, -3.800e-6
-1.247, -3.613e-6
-1.246, -3.781e-6
-1.245, -3.672e-6
-1.244, -3.929e-6
-1.243, -4.027e-6
-1.242, -4.027e-6
-1.241, -4.175e-6
-1.240, -4.017e-6
-1.239, -4.215e-6
-1.238, -4.215e-6
-1.237, -4.116e-6
-1.236, -4.234e-6
-1.235, -4.106e-6
-1.234, -4.274e-6
-1.233, -4.156e-6
-1.232, -4.047e-6
-1.231, -4.008e-6
-1.230, -4.017e-6
-1.229, -4.057e-6
-1.228, -4.037e-6
-1.227, -4.096e-6
-1.226, -4.304e-6
-1.225, -4.027e-6
-1.224, -3.919e-6
-1.223, -4.047e-6
-1.222, -3.978e-6
-1.221, -4.175e-6
-1.220, -3.840e-6
-1.219, -3.879e-6
-1.218, -3.929e-6
-1.217, -3.958e-6
-1.216, -4.037e-6
-1.215, -4.096e-6
-1.214, -4.146e-6
-1.213, -3.968e-6
-1.212, -3.958e-6
-1.211, -4.116e-6
-1.210, -3.899e-6
-1.209, -4.136e-6
-1.208, -4.234e-6
-1.207, -4.008e-6
-1.206, -4.156e-6
-1.205, -3.869e-6
-1.204, -3.938e-6
-1.203, -3.948e-6
-1.202, -4.254e-6
-1.201, -4.156e-6
-1.200, -4.106e-6
-1.199, -4.146e-6
-1.198, -3.978e-6
-1.197, -4.077e-6
-1.196, -4.047e-6
-1.195, -4.017e-6
-1.194, -4.175e-6
-1.193, -4.195e-6
-1.192, -3.978e-6
-1.191, -4.225e-6
-1.190, -4.008e-6
-1.189, -4.185e-6
-1.188, -4.037e-6
-1.187, -3.998e-6
-1.186, -4.225e-6
-1.185, -4.008e-6
-1.184, -4.185e-6
-1.183, -4.264e-6
-1.182, -3.988e-6
-1.181, -4.294e-6
-1.180, -4.077e-6
-1.179, -4.106e-6
-1.178, -4.008e-6
-1.177, -4.116e-6
-1.176, -4.165e-6
-1.175, -4.116e-6
-1.174, -4.234e-6
-1.173, -4.304e-6
-1.172, -4.027e-6
-1.171, -4.195e-6
-1.170, -4.156e-6
-1.169, -4.304e-6
-1.168, -3.998e-6
-1.167, -4.067e-6
-1.166, -4.313e-6
-1.165, -4.057e-6
-1.164, -4.343e-6
-1.163, -4.156e-6
-1.162, -4.057e-6
-1.161, -4.254e-6
-1.160, -4.156e-6
-1.159, -4.156e-6
-1.158, -4.373e-6
-1.157, -4.304e-6
-1.156, -4.353e-6
-1.155, -4.175e-6
-1.154, -4.234e-6
-1.153, -4.205e-6
-1.152, -4.037e-6
-1.151, -4.373e-6
-1.150, -4.215e-6
-1.149, -4.323e-6
-1.148, -4.313e-6
-1.147, -4.077e-6
-1.146, -4.175e-6
-1.145, -4.333e-6
-1.144, -4.402e-6
-1.143, -4.254e-6
-1.142, -4.175e-6
-1.141, -4.452e-6
-1.140, -4.323e-6
-1.139, -4.392e-6
-1.138, -4.294e-6
-1.137, -4.304e-6
-1.136, -4.294e-6
-1.135, -4.116e-6
-1.134, -4.432e-6
-1.133, -4.363e-6
-1.132, -4.126e-6
-1.131, -4.402e-6
-1.130, -4.402e-6
-1.129, -4.422e-6
-1.128, -4.382e-6
-1.127, -4.422e-6
-1.126, -4.530e-6
-1.125, -4.491e-6
-1.124, -4.481e-6
-1.123, -4.412e-6
-1.122, -4.402e-6
-1.121, -4.422e-6
-1.120, -4.402e-6
-1.119, -4.373e-6
-1.118, -4.481e-6
-1.117, -4.511e-6
-1.116, -4.649e-6
-1.115, -4.471e-6
-1.114, -4.511e-6
-1.113, -4.540e-6
-1.112, -4.392e-6
-1.111, -4.422e-6
-1.110, -4.501e-6
-1.109, -4.530e-6
-1.108, -4.570e-6
-1.107, -4.363e-6
-1.106, -4.609e-6
-1.105, -4.353e-6
-1.104, -4.481e-6
-1.103, -4.452e-6
-1.102, -4.422e-6
-1.101, -4.530e-6
-1.100, -4.570e-6
-1.099, -4.698e-6
-1.098, -4.481e-6
-1.097, -4.333e-6
-1.096, -4.708e-6
-1.095, -4.363e-6
-1.094, -4.728e-6
-1.093, -4.787e-6
-1.092, -4.333e-6
-1.091, -4.688e-6
-1.090, -4.511e-6
-1.089, -4.797e-6
-1.088, -4.728e-6
-1.087, -4.757e-6
-1.086, -4.826e-6
-1.085, -4.550e-6
-1.084, -4.767e-6
-1.083, -4.590e-6
-1.082, -4.747e-6
-1.081, -4.619e-6
-1.080, -4.540e-6
-1.079, -4.738e-6
-1.078, -4.570e-6
-1.077, -4.412e-6
-1.076, -4.688e-6
-1.075, -4.728e-6
-1.074, -4.767e-6
-1.073, -4.846e-6
-1.072, -4.471e-6
-1.071, -4.787e-6
-1.070, -4.678e-6
-1.069, -4.708e-6
-1.068, -4.738e-6
-1.067, -4.688e-6
-1.066, -5.083e-6
-1.065, -4.639e-6
-1.064, -4.728e-6
-1.063, -4.836e-6
-1.062, -4.580e-6
-1.061, -4.836e-6
-1.060, -4.836e-6
-1.059, -4.905e-6
-1.058, -4.817e-6
-1.057, -4.905e-6
-1.056, -5.073e-6
-1.055, -4.846e-6
-1.054, -5.053e-6
-1.053, -4.974e-6
-1.052, -4.925e-6
-1.051, -4.974e-6
-1.050, -4.777e-6
-1.049, -5.063e-6
-1.048, -4.876e-6
-1.047, -4.895e-6
-1.046, -4.945e-6
-1.045, -4.886e-6
-1.044, -5.034e-6
-1.043, -4.905e-6
-1.042, -4.826e-6
-1.041, -5.231e-6
-1.040, -5.043e-6
-1.039, -5.132e-6
-1.038, -5.280e-6
-1.037, -5.172e-6
-1.036, -5.201e-6
-1.035, -5.093e-6
-1.034, -5.162e-6
-1.033, -5.221e-6
-1.032, -4.915e-6
-1.031, -5.300e-6
-1.030, -5.172e-6
-1.029, -5.132e-6
-1.028, -5.379e-6
-1.027, -5.083e-6
-1.026, -5.241e-6
-1.025, -5.182e-6
-1.024, -5.389e-6
-1.023, -5.409e-6
-1.022, -5.478e-6
-1.021, -5.478e-6
-1.020, -5.399e-6
-1.019, -5.478e-6
-1.018, -5.458e-6
-1.017, -5.418e-6
-1.016, -5.438e-6
-1.015, -5.241e-6
-1.014, -5.537e-6
-1.013, -5.389e-6
-1.012, -5.576e-6
-1.011, -5.833e-6
-1.010, -5.418e-6
-1.009, -5.566e-6
-1.008, -5.517e-6
-1.007, -5.497e-6
-1.006, -5.724e-6
-1.005, -5.468e-6
-1.004, -5.833e-6
-1.003, -5.882e-6
-1.002, -5.626e-6
-1.001, -5.961e-6
