Potential V vs RHE, Current mA cm-2
0.013299999999999867,-0.028463991353284535
0.012299999999999978,-0.07986045287738132
0.011299999999999866,-0.10538184472694657
0.010299999999999976,-0.12012313647154027
0.009299999999999864,-0.1289226407567008
0.008299999999999974,-0.136845024035945
0.007299999999999862,-0.14840321535584233
0.006299999999999972,-0.16113561705462764
0.00529999999999986,-0.16721887564404736
0.0042999999999999705,-0.17033124050375043
0.0032999999999998586,-0.17584861457322407
0.0022999999999999687,-0.18377099785246825
0.0012999999999998568,-0.19452280373144254
0.00029999999999996696,-0.19989870667092968
-0.000700000000000145,-0.20202077362072723
-0.0017000000000000348,-0.2075381476902009
-0.0027000000000001467,-0.21447023305953958
-0.0037000000000000366,-0.2242317410286083
-0.0047000000000001485,-0.23031499961802795
-0.005700000000000038,-0.232578537697812
-0.00670000000000015,-0.23710561385738013
-0.00770000000000004,-0.2446035837466648
-0.008700000000000152,-0.25493097623567956
-0.009700000000000042,-0.2618630616050183
-0.010700000000000154,-0.2651168975947079
-0.011700000000000044,-0.269643973754276
-0.012700000000000156,-0.27869812607341227
-0.013700000000000045,-0.288742576302454
-0.014700000000000157,-0.29652348845171167
-0.015700000000000047,-0.29906996879146874
-0.01670000000000016,-0.30487028512091535
-0.01770000000000005,-0.31519767760993017
-0.01870000000000016,-0.3260909546188909
-0.01970000000000005,-0.3355695203279867
-0.020700000000000163,-0.34108689439746037
-0.021700000000000053,-0.346887210726907
-0.022700000000000164,-0.35763901660588127
-0.023700000000000054,-0.3688152358748151
-0.024700000000000166,-0.3780108593239378
-0.025700000000000056,-0.38437706017333045
-0.026700000000000168,-0.39272385684253414
-0.027700000000000058,-0.404183018371441
-0.02870000000000017,-0.4194619004099834
-0.02970000000000006,-0.42851605272911963
-0.03070000000000017,-0.43615549374839085
-0.03170000000000006,-0.4469072996273651
-0.03270000000000017,-0.4589323456762179
-0.03370000000000006,-0.4735038720648278
-0.034700000000000175,-0.4858118603736536
-0.035700000000000065,-0.49316835913295176
-0.03670000000000018,-0.5034957516219666
-0.03770000000000007,-0.5186331625305225
-0.03870000000000018,-0.5360341115188624
-0.03970000000000007,-0.5479176864377286
-0.04070000000000018,-0.5573962521468245
-0.04170000000000007,-0.5721092496654209
-0.04270000000000018,-0.5875296028339497
-0.04370000000000007,-0.6039402539123842
-0.044700000000000184,-0.6179458957810481
-0.045700000000000074,-0.6279903460100897
-0.046700000000000186,-0.6429862857886591
-0.047700000000000076,-0.658689581217161
-0.04870000000000019,-0.6796273084551637
-0.04970000000000008,-0.6957550172736251
-0.05070000000000019,-0.7038188716828558
-0.05170000000000008,-0.7212198206711957
-0.05270000000000019,-0.7384792985295492
-0.05370000000000008,-0.7575779010777272
-0.05470000000000019,-0.7768179747558916
-0.05570000000000008,-0.7925212701843936
-0.056700000000000195,-0.8032730760633678
-0.057700000000000085,-0.8220887363515729
-0.058700000000000196,-0.846280299579265
-0.059700000000000086,-0.864247133087551
-0.0607000000000002,-0.8768380636563498
-0.06170000000000009,-0.8945219549046627
-0.0627000000000002,-0.9158840955326246
-0.06370000000000009,-0.9372462361605868
-0.0647000000000002,-0.9553545407988592
-0.06570000000000009,-0.9724725475272262
-0.0667000000000002,-0.9883173140857145
-0.0677000000000001,-1.0093965124537037
-0.0687000000000002,-1.0328807200314631
-0.0697000000000001,-1.0550916874393443
-0.07070000000000021,-1.0715023385177789
-0.0717000000000001,-1.0864982782963482
-0.07270000000000021,-1.1053139385845532
-0.0737000000000001,-1.1331837511918943
-0.07470000000000021,-1.1536970650399374
-0.0757000000000001,-1.1669953512586688
-0.07670000000000021,-1.1869427805867658
-0.0777000000000001,-1.2119831705943769
-0.07870000000000021,-1.237872387381907
-0.0797000000000001,-1.2596589413998287
-0.08070000000000022,-1.2747963523083847
-0.0817000000000001,-1.290075234346927
-0.08270000000000022,-1.311720317234862
-0.08370000000000011,-1.3411463122720548
-0.08470000000000022,-1.3637816930698954
-0.08570000000000011,-1.3804752864083027
-0.08670000000000022,-1.3991494755665215
-0.08770000000000011,-1.4189554337646317
-0.08870000000000022,-1.4500790823616625
-0.08970000000000011,-1.471299751859638
-0.09070000000000022,-1.4854468648582886
-0.09170000000000011,-1.501008689156804
-0.09270000000000023,-1.5250587812545096
-0.09370000000000012,-1.5533530072518102
-0.09470000000000023,-1.583061944548976
-0.09570000000000012,-1.5972090575476263
-0.09670000000000023,-1.614185593146007
-0.09770000000000012,-1.6339915513441174
-0.09870000000000023,-1.660871066041553
-0.09970000000000012,-1.6849211581392587
-0.10070000000000023,-1.696238848538179
-0.10170000000000012,-1.7160448067362895
-0.10270000000000024,-1.7471684553333202
-0.10370000000000013,-1.771218547431026
-0.10470000000000024,-1.7924392169290013
-0.10570000000000013,-1.8080010412275167
-0.10670000000000024,-1.8263922881257622
-0.10770000000000013,-1.8518570915233332
-0.10870000000000024,-1.8730777610213083
-0.10970000000000013,-1.892883719219419
-0.11070000000000024,-1.9112749661176645
-0.11170000000000013,-1.9367397695152353
-0.11270000000000002,-1.9622045729128061
-0.11370000000000013,-1.9834252424107812
-0.11470000000000002,-2.0004017780091616
-0.11570000000000014,-2.017378313607542
-0.11670000000000003,-2.0371842718056525
-0.11770000000000014,-2.051331384804303
-0.11870000000000003,-2.079625610801604
-0.11970000000000014,-2.1008462802995793
-0.12070000000000003,-2.116408104598095
-0.12170000000000014,-2.136214062796206
-0.12270000000000003,-2.1602641548939108
-0.12370000000000014,-2.1857289582914814
-0.12470000000000003,-2.202705493889862
-0.12570000000000014,-2.2182673181883774
-0.12670000000000003,-2.2324144311870278
-0.12770000000000015,-2.2479762554855434
-0.12870000000000004,-2.272026347583249
-0.12970000000000015,-2.2946617283810897
-0.13070000000000004,-2.3130529752793345
-0.13170000000000015,-2.3272000882779853
-0.13270000000000004,-2.3455913351762305
-0.13370000000000015,-2.3639825820744766
-0.13470000000000004,-2.379544406372992
-0.13570000000000015,-2.389447385472047
-0.13670000000000004,-2.4106680549700226
-0.13770000000000016,-2.4290593018682682
-0.13870000000000005,-2.4460358374666487
-0.13970000000000016,-2.4715006408642193
-0.14070000000000005,-2.4814036199632743
-0.14170000000000016,-2.4870624651627344
-0.14270000000000005,-2.504039000761115
-0.14370000000000016,-2.5252596702590906
-0.14470000000000005,-2.545065628457201
-0.14570000000000016,-2.552139184956526
-0.14670000000000005,-2.554968607556256
-0.14770000000000016,-2.5705304318547717
-0.14870000000000005,-2.590336390052882
-0.14970000000000017,-2.6129717708507227
-0.15070000000000006,-2.6143864821505876
-0.15170000000000017,-2.6200453273500477
-0.15270000000000006,-2.639851285548158
-0.15370000000000017,-2.6539983985468085
-0.15470000000000006,-2.6723896454450546
-0.15570000000000017,-2.6723896454450546
-0.15670000000000006,-2.663901377645864
-0.15770000000000017,-2.6794632019443796
-0.15870000000000006,-2.69926916014249
-0.15970000000000018,-2.7077574279416803
-0.16070000000000007,-2.7105868505414104
-0.16170000000000018,-2.7134162731411404
-0.16270000000000007,-2.720489829640466
-0.16370000000000018,-2.7318075200393857
-0.16470000000000007,-2.737466365238846
-0.16570000000000018,-2.744539921738171
-0.16670000000000007,-2.737466365238846
-0.16770000000000018,-2.741710499138441
-0.16870000000000007,-2.7558576121370915
-0.16970000000000018,-2.7586870347368215
-0.17070000000000007,-2.7530281895373614
-0.17170000000000019,-2.7487840556377665
-0.17270000000000008,-2.7572723234369563
-0.1737000000000002,-2.765760591236147
-0.17470000000000008,-2.7629311686364164
-0.1757000000000002,-2.7558576121370915
-0.17670000000000008,-2.7530281895373614
-0.1777000000000002,-2.743125210438306
-0.17870000000000008,-2.745954633038036
-0.1797000000000002,-2.745954633038036
-0.18070000000000008,-2.744539921738171
-0.1817000000000002,-2.7318075200393857
-0.18270000000000008,-2.7275633861397908
-0.1837000000000002,-2.7233192522401954
-0.1847000000000001,-2.7233192522401954
-0.1857000000000002,-2.7035132940420854
-0.1867000000000001,-2.70209858274222
-0.1877000000000002,-2.69926916014249
-0.1887000000000001,-2.6808779132442444
-0.1897000000000002,-2.6681455115454593
-0.1907000000000001,-2.669560222845324
-0.1917000000000001,-2.6539983985468085
-0.19269999999999998,-2.6497542646472136
-0.1937000000000001,-2.637021862948428
-0.19469999999999998,-2.627118883849373
-0.1957000000000001,-2.610142348250993
-0.19669999999999999,-2.590336390052882
-0.1977000000000001,-2.5747745657543666
-0.1987,-2.576189277054232
-0.1997000000000001,-2.5691157205549064
-0.2007,-2.546480339757066
-0.2017000000000001,-2.5295038041586855
-0.2027,-2.515356691160035
-0.2037000000000001,-2.518186113759765
-0.2047,-2.4955507329619246
-0.2057000000000001,-2.4814036199632743
-0.2067,-2.457353527865569
-0.2077000000000001,-2.4318887244679983
-0.2087,-2.430474013168133
-0.2097000000000001,-2.4191563227692128
-0.2107,-2.4007650758709675
-0.2117000000000001,-2.386617962872317
-0.2127,-2.3738855611735317
-0.2137000000000001,-2.362567870774611
-0.2147,-2.3569090255751513
-0.2157000000000001,-2.3342736447773107
-0.2167,-2.3130529752793345
-0.21770000000000012,-2.3017352848804147
-0.2187,-2.2890028831816296
-0.21970000000000012,-2.2748557701829792
-0.2207,-2.257879234584599
-0.22170000000000012,-2.2479762554855434
-0.2227,-2.2437321215859485
-0.22370000000000012,-2.2239261633878376
-0.2247,-2.2140231842887825
-0.22570000000000012,-2.194217226090672
-0.2267,-2.1800701130920217
-0.22770000000000012,-2.1673377113932366
-0.22870000000000001,-2.1645082887935065
-0.22970000000000013,-2.158849443594046
-0.23070000000000002,-2.156020020994316
-0.23170000000000013,-2.12914050629688
-0.23270000000000002,-2.12631108369715
-0.23370000000000013,-2.11782281589796
-0.23470000000000002,-2.1065051254990395
-0.23570000000000013,-2.10367570289931
-0.23670000000000002,-2.092358012500389
-0.2376999999999999,-2.0866991673009294
-0.23870000000000002,-2.0866991673009294
-0.2396999999999999,-2.079625610801604
-0.24070000000000003,-2.0697226317025486
-0.24169999999999991,-2.0626490752032236
-0.24270000000000003,-2.0569902300037635
-0.24369999999999992,-2.0598196526034935
-0.24470000000000003,-2.0598196526034935
-0.24569999999999992,-2.054160807404033
-0.24670000000000003,-2.042843117005113
-0.24769999999999992,-2.0414284057052483
-0.24870000000000003,-2.051331384804303
-0.24969999999999992,-2.051331384804303
-0.25070000000000003,-2.0414284057052483
-0.2516999999999999,-2.0357695605057877
-0.25270000000000004,-2.0414284057052483
-0.2536999999999999,-2.045672539604843
-0.25470000000000004,-2.049916673504438
-0.2556999999999999,-2.047087250904708
-0.25670000000000004,-2.044257828304978
-0.25769999999999993,-2.054160807404033
-0.25870000000000004,-2.0598196526034935
-0.25969999999999993,-2.0612343639033583
-0.26070000000000004,-2.0598196526034935
-0.26169999999999993,-2.0598196526034935
-0.26270000000000004,-2.0683079204026833
-0.26369999999999993,-2.0753814769020087
-0.26470000000000005,-2.081040322101469
-0.26569999999999994,-2.0881138786007942
-0.26670000000000005,-2.1065051254990395
-0.26769999999999994,-2.1390434853959355
-0.26870000000000005,-2.136214062796206
-0.26969999999999994,-2.133384640196476
-0.27070000000000005,-2.12631108369715
-0.27169999999999994,-2.136214062796206
-0.27270000000000005,-2.1475317531951257
-0.27369999999999994,-2.1574347322941807
-0.27470000000000006,-2.1574347322941807
-0.27569999999999995,-2.151775887094721
-0.27670000000000006,-2.1630935774936413
-0.27769999999999995,-2.174411267892561
-0.27870000000000006,-2.1885583808912115
-0.27969999999999995,-2.197046648690402
-0.28070000000000006,-2.201290782589997
-0.28169999999999995,-2.197046648690402
-0.28270000000000006,-2.2225114520879723
-0.28369999999999995,-2.238073276386488
-0.28470000000000006,-2.2423174102860832
-0.28569999999999995,-2.2423174102860832
-0.28670000000000007,-2.2423174102860832
-0.28769999999999996,-2.2564645232847336
-0.28870000000000007,-2.2776851927827093
-0.28969999999999996,-2.2946617283810897
-0.29070000000000007,-2.298905862280684
-0.29169999999999996,-2.3017352848804147
-0.29270000000000007,-2.3130529752793345
-0.29369999999999996,-2.3272000882779853
-0.2947000000000001,-2.3257853769781205
-0.29569999999999996,-2.3342736447773107
-0.2967000000000001,-2.3385177786769056
-0.29769999999999996,-2.3668120046742067
-0.2987000000000001,-2.380959117672857
-0.29969999999999997,-2.392276808071777
-0.3007000000000001,-2.389447385472047
-0.30169999999999997,-2.388032674172182
-0.3027000000000001,-2.4050092097705624
-0.30369999999999997,-2.420571034069078
-0.3047000000000001,-2.437547569667458
-0.30569999999999997,-2.437547569667458
-0.3067000000000001,-2.436132858367593
-0.3077,-2.4502799713662435
-0.3087000000000001,-2.460182950465299
-0.3097,-2.4799889086634095
-0.3107000000000001,-2.4884771764625997
-0.3117,-2.4828183312631396
-0.3127000000000001,-2.4828183312631396
-0.3137,-2.506868423360845
-0.3147000000000001,-2.5210155363594953
-0.3157,-2.5280890928588207
-0.3167000000000001,-2.5224302476593605
-0.3177,-2.5309185154585507
-0.3187000000000001,-2.5478950510569307
-0.3197,-2.5535538962563913
-0.3207000000000001,-2.557798030155986
-0.3217,-2.5592127414558514
-0.3227000000000001,-2.552139184956526
-0.3237,-2.5719451431546365
-0.3247000000000001,-2.586092256153287
-0.3257,-2.590336390052882
-0.3267000000000001,-2.5945805239524775
-0.3277,-2.5931658126526123
-0.3287000000000001,-2.6016540804518025
-0.3297,-2.6087276369511274
-0.3307000000000001,-2.6087276369511274
-0.3317,-2.6058982143513973
-0.3327000000000001,-2.6058982143513973
-0.3337,-2.6115570595508575
-0.3347000000000001,-2.6327777290488332
-0.3357,-2.637021862948428
-0.3367000000000001,-2.629948306449103
-0.3377,-2.6172159047503176
-0.3387000000000001,-2.6327777290488332
-0.3397,-2.6327777290488332
-0.3407000000000001,-2.6285335951492383
-0.3417,-2.631363017748968
-0.3427000000000001,-2.634192440348698
-0.3437,-2.6440954194477535
-0.3447000000000001,-2.6469248420474836
-0.3457,-2.6469248420474836
-0.3467000000000001,-2.6384365742482934
-0.3477,-2.634192440348698
-0.3487000000000001,-2.6440954194477535
-0.3497,-2.6497542646472136
-0.3507000000000001,-2.6440954194477535
-0.3517,-2.641265996848024
-0.3527000000000001,-2.637021862948428
-0.3537,-2.639851285548158
-0.3547000000000001,-2.6356071516485633
-0.3557,-2.6440954194477535
-0.35670000000000013,-2.6497542646472136
-0.3577,-2.641265996848024
-0.35870000000000013,-2.6426807081478887
-0.3597,-2.6384365742482934
-0.36070000000000013,-2.6384365742482934
-0.3617,-2.641265996848024
-0.3626999999999999,-2.639851285548158
-0.3637,-2.6511689759470785
-0.3646999999999999,-2.6539983985468085
-0.3657,-2.6511689759470785
-0.3666999999999999,-2.6525836872469437
-0.3677,-2.656827821146539
-0.3686999999999999,-2.6738043567449195
-0.36970000000000003,-2.6808779132442444
-0.3706999999999999,-2.6766337793446495
-0.37170000000000003,-2.6837073358439745
-0.3726999999999999,-2.69926916014249
-0.37370000000000003,-2.712001561841275
-0.3746999999999999,-2.7318075200393857
-0.37570000000000003,-2.738881076538711
-0.3766999999999999,-2.745954633038036
-0.37770000000000004,-2.770004725135742
-0.3786999999999999,-2.7827371268345273
-0.37970000000000004,-2.8082019302320975
-0.3806999999999999,-2.823763754530613
-0.38170000000000004,-2.846399135328454
-0.38269999999999993,-2.8831816291249446
-0.38370000000000004,-2.924208256821031
-0.38469999999999993,-2.9624054619173865
-0.38570000000000004,-2.997773244414013
-0.38669999999999993,-3.0331410269106387
-0.38770000000000004,-3.0939736128048354
-0.38869999999999993,-3.174612156897142
-0.38970000000000005,-3.253835989689584
-0.39069999999999994,-3.335889245081757
-0.39170000000000005,-3.437748458672039
-0.39269999999999994,-3.580634299958408
-0.39370000000000005,-3.7716203254401877
-0.39469999999999994,-4.0121212464172435
-0.39570000000000005,-4.297892928989982
-0.39669999999999994,-4.669962000854486
-0.39770000000000005,-5.109937215112512
-0.39869999999999994,-5.6192332830639256
-0.39970000000000006,-6.145505886613719
-0.40069999999999995,-6.678852046662837
-0.40170000000000006,-7.216442340611552
-0.40269999999999995,-7.752617923260401
-0.40370000000000006,-8.27181697031087
-0.40469999999999995,-8.798089573860663
-0.40570000000000006,-9.341338713008836
-0.40669999999999995,-9.901564387755393
-0.40770000000000006,-10.461790062501947
-0.40869999999999995,-11.020601025948634
-0.40970000000000006,-11.582241411995057
-0.41069999999999995,-12.081634500847414
-0.41170000000000007,-12.571124610600718
-0.41269999999999996,-13.1058854819497
-0.41370000000000007,-13.54444598490786
-0.41469999999999996,-13.953297550568857
-0.41570000000000007,-14.331025467632822
-0.41669999999999996,-14.67055617960043
-0.41770000000000007,-15.01008689156804
-0.41869999999999996,-15.278882038542395
-0.4197000000000001,-15.533530072518102
-0.42069999999999996,-15.844766558488407
-0.4217000000000001,-16.056973253468165
-0.42269999999999996,-16.311621287443874
-0.4237000000000001,-16.60871066041553
-0.42469999999999997,-16.891652920388537
-0.4257000000000001,-17.061418276372343
-0.42669999999999997,-17.34436053634535
-0.4277000000000001,-17.514125892329155
-0.42869999999999997,-17.797068152302163
-0.4297000000000001,-18.02342196028057
-0.43069999999999997,-18.207334429263025
-0.4317000000000001,-18.504423802234676
-0.4327,-18.631747819222536
-0.4337000000000001,-18.77321894920904
-0.4347,-19.01371987018609
-0.4357000000000001,-19.395691921149652
-0.4367,-19.579604390132108
-0.4377000000000001,-19.73522263311726
-0.4387,-20.01816489309027
-0.4397000000000001,-20.51331384804303
-0.4407,-20.824550334013338
-0.4417000000000001,-21.036757028993097
-0.4427,-21.2631108369715
-0.4437000000000001,-21.404581966958006
-0.4447,-21.772406904922917
-0.4457000000000001,-21.98461359990267
-0.4467,-22.281702972874328
-0.4477000000000001,-22.578792345845983
-0.4487,-22.84758749282034
-0.4497000000000001,-22.960764396809545
-0.4507,-23.031499961802798
-0.4517000000000001,-23.2012653177866
-0.4527,-23.795444063729917
-0.4537000000000001,-24.34718147067728
-0.4547,-24.884771764625995
-0.4557000000000001,-25.111125572604404
-0.4567,-25.43650917157336
-0.4577000000000001,-25.60627452755716
-0.4587,-25.705304318547718
-0.4597000000000001,-25.889216787530174
-0.4607,-26.257041725495082
-0.4617000000000001,-26.794632019443796
-0.4627,-27.00683871442355
-0.4637000000000001,-27.247339635400607
-0.4647,-27.459546330380363
-0.4657000000000001,-27.714194364356068
-0.4667,-27.827371268345274
-0.4677000000000001,-28.12446064131693
-0.4687,-28.237637545306132
-0.4697000000000001,-28.506432692280487
-0.4707,-29.044022986229205
-0.4717000000000001,-29.31281813320356
-0.4727,-29.539171941181966
-0.4737000000000001,-29.892849766148224
-0.4747,-30.345557382105042
-0.4757000000000001,-30.727529433068593
-0.4767,-30.812412111060496
-0.4777000000000001,-30.939736128048356
-0.4787,-31.12364859703081
-0.4797000000000001,-31.604650438984915
-0.4807,-31.887592698957924
-0.48170000000000013,-32.184682071929586
-0.4827,-33.160832868836465
-0.48370000000000013,-33.47206935480677
-0.4847,-33.740864501781125
-0.48570000000000013,-34.08039521374873
-0.4867,-34.34919036072309
-0.4876999999999999,-34.6604268466934
-0.4887,-35.11313446265021
-0.4896999999999999,-35.254605592636715
-0.4907,-35.50925362661242
-0.4916999999999999,-35.83463722558138
-0.4927,-36.00440258156518
-0.4936999999999999,-36.54199287551389
-0.49470000000000003,-36.7117582314977
-0.4956999999999999,-36.88152358748151
-0.49670000000000003,-37.122024508458566
-0.4976999999999999,-37.26349563844507
-0.49870000000000003,-37.645467689408626
-0.4996999999999999,-37.97085128837759
-0.5007,-38.31038200034519
-0.5016999999999999,-38.593324260318205
-0.5027,-38.777236729300654
-0.5036999999999999,-39.59776928322238
