Dec. 28, 2024   14:25:52
Cyclic Voltammetry
File: c:/users/guazh/data/banditlqround7_x0exp136_r20/2024-12-24-exp768\exp768-2024-12-28t14_20_54-arkoh\exp768_cv_50mvs_efin_-1400mv.bin
Data Source:  Experiment
Instrument Model:  CHI760E
Header: CV ran at 50 mVs
Note: 

Init E (V) = -1
High E (V) = -1
Low E (V) = -1.4
Final E (V) = -1
Init P/N = N
Scan Rate (V/s) = 0.05
Segment = 7
Sample Interval (V) = 0.001
Quiet Time (sec) = 60
Sensitivity (A/V) = 0.001
Comp R (ohm) = 1.5

Results:

Channel 1:
Segment 1:

Segment 2:

Segment 3:

Segment 4:

Segment 5:

Segment 6:

Segment 7:

Potential/V, Current/A

-1.000, 3.180e-5
-1.001, 8.988e-5
-1.002, 1.143e-4
-1.003, 1.220e-4
-1.004, 1.246e-4
-1.005, 1.269e-4
-1.006, 1.316e-4
-1.007, 1.351e-4
-1.008, 1.345e-4
-1.009, 1.326e-4
-1.010, 1.328e-4
-1.011, 1.366e-4
-1.012, 1.397e-4
-1.013, 1.386e-4
-1.014, 1.352e-4
-1.015, 1.346e-4
-1.016, 1.382e-4
-1.017, 1.413e-4
-1.018, 1.399e-4
-1.019, 1.368e-4
-1.020, 1.366e-4
-1.021, 1.394e-4
-1.022, 1.419e-4
-1.023, 1.409e-4
-1.024, 1.379e-4
-1.025, 1.371e-4
-1.026, 1.402e-4
-1.027, 1.421e-4
-1.028, 1.410e-4
-1.029, 1.377e-4
-1.030, 1.372e-4
-1.031, 1.404e-4
-1.032, 1.425e-4
-1.033, 1.413e-4
-1.034, 1.374e-4
-1.035, 1.372e-4
-1.036, 1.405e-4
-1.037, 1.423e-4
-1.038, 1.414e-4
-1.039, 1.384e-4
-1.040, 1.370e-4
-1.041, 1.402e-4
-1.042, 1.426e-4
-1.043, 1.408e-4
-1.044, 1.378e-4
-1.045, 1.373e-4
-1.046, 1.398e-4
-1.047, 1.430e-4
-1.048, 1.412e-4
-1.049, 1.379e-4
-1.050, 1.369e-4
-1.051, 1.390e-4
-1.052, 1.432e-4
-1.053, 1.416e-4
-1.054, 1.377e-4
-1.055, 1.373e-4
-1.056, 1.401e-4
-1.057, 1.429e-4
-1.058, 1.414e-4
-1.059, 1.378e-4
-1.060, 1.370e-4
-1.061, 1.399e-4
-1.062, 1.427e-4
-1.063, 1.417e-4
-1.064, 1.380e-4
-1.065, 1.371e-4
-1.066, 1.402e-4
-1.067, 1.425e-4
-1.068, 1.414e-4
-1.069, 1.374e-4
-1.070, 1.376e-4
-1.071, 1.401e-4
-1.072, 1.431e-4
-1.073, 1.422e-4
-1.074, 1.377e-4
-1.075, 1.376e-4
-1.076, 1.403e-4
-1.077, 1.425e-4
-1.078, 1.417e-4
-1.079, 1.383e-4
-1.080, 1.374e-4
-1.081, 1.403e-4
-1.082, 1.430e-4
-1.083, 1.414e-4
-1.084, 1.381e-4
-1.085, 1.373e-4
-1.086, 1.402e-4
-1.087, 1.431e-4
-1.088, 1.417e-4
-1.089, 1.384e-4
-1.090, 1.379e-4
-1.091, 1.404e-4
-1.092, 1.432e-4
-1.093, 1.415e-4
-1.094, 1.383e-4
-1.095, 1.383e-4
-1.096, 1.404e-4
-1.097, 1.435e-4
-1.098, 1.421e-4
-1.099, 1.387e-4
-1.100, 1.386e-4
-1.101, 1.413e-4
-1.102, 1.438e-4
-1.103, 1.421e-4
-1.104, 1.386e-4
-1.105, 1.385e-4
-1.106, 1.411e-4
-1.107, 1.442e-4
-1.108, 1.434e-4
-1.109, 1.390e-4
-1.110, 1.389e-4
-1.111, 1.419e-4
-1.112, 1.439e-4
-1.113, 1.431e-4
-1.114, 1.402e-4
-1.115, 1.392e-4
-1.116, 1.424e-4
-1.117, 1.444e-4
-1.118, 1.439e-4
-1.119, 1.410e-4
-1.120, 1.392e-4
-1.121, 1.429e-4
-1.122, 1.456e-4
-1.123, 1.438e-4
-1.124, 1.411e-4
-1.125, 1.398e-4
-1.126, 1.435e-4
-1.127, 1.470e-4
-1.128, 1.449e-4
-1.129, 1.416e-4
-1.130, 1.409e-4
-1.131, 1.439e-4
-1.132, 1.475e-4
-1.133, 1.457e-4
-1.134, 1.411e-4
-1.135, 1.424e-4
-1.136, 1.447e-4
-1.137, 1.474e-4
-1.138, 1.472e-4
-1.139, 1.438e-4
-1.140, 1.434e-4
-1.141, 1.453e-4
-1.142, 1.483e-4
-1.143, 1.472e-4
-1.144, 1.441e-4
-1.145, 1.440e-4
-1.146, 1.466e-4
-1.147, 1.496e-4
-1.148, 1.494e-4
-1.149, 1.455e-4
-1.150, 1.451e-4
-1.151, 1.482e-4
-1.152, 1.505e-4
-1.153, 1.501e-4
-1.154, 1.470e-4
-1.155, 1.466e-4
-1.156, 1.493e-4
-1.157, 1.520e-4
-1.158, 1.514e-4
-1.159, 1.486e-4
-1.160, 1.478e-4
-1.161, 1.512e-4
-1.162, 1.539e-4
-1.163, 1.530e-4
-1.164, 1.508e-4
-1.165, 1.496e-4
-1.166, 1.523e-4
-1.167, 1.565e-4
-1.168, 1.555e-4
-1.169, 1.526e-4
-1.170, 1.517e-4
-1.171, 1.538e-4
-1.172, 1.581e-4
-1.173, 1.570e-4
-1.174, 1.543e-4
-1.175, 1.540e-4
-1.176, 1.571e-4
-1.177, 1.616e-4
-1.178, 1.604e-4
-1.179, 1.570e-4
-1.180, 1.567e-4
-1.181, 1.596e-4
-1.182, 1.632e-4
-1.183, 1.628e-4
-1.184, 1.598e-4
-1.185, 1.597e-4
-1.186, 1.634e-4
-1.187, 1.663e-4
-1.188, 1.664e-4
-1.189, 1.637e-4
-1.190, 1.633e-4
-1.191, 1.667e-4
-1.192, 1.696e-4
-1.193, 1.701e-4
-1.194, 1.673e-4
-1.195, 1.669e-4
-1.196, 1.712e-4
-1.197, 1.744e-4
-1.198, 1.749e-4
-1.199, 1.729e-4
-1.200, 1.720e-4
-1.201, 1.752e-4
-1.202, 1.794e-4
-1.203, 1.793e-4
-1.204, 1.778e-4
-1.205, 1.776e-4
-1.206, 1.822e-4
-1.207, 1.856e-4
-1.208, 1.856e-4
-1.209, 1.837e-4
-1.210, 1.839e-4
-1.211, 1.876e-4
-1.212, 1.923e-4
-1.213, 1.927e-4
-1.214, 1.912e-4
-1.215, 1.916e-4
-1.216, 1.960e-4
-1.217, 2.000e-4
-1.218, 2.013e-4
-1.219, 1.993e-4
-1.220, 2.008e-4
-1.221, 2.041e-4
-1.222, 2.097e-4
-1.223, 2.108e-4
-1.224, 2.096e-4
-1.225, 2.112e-4
-1.226, 2.148e-4
-1.227, 2.203e-4
-1.228, 2.223e-4
-1.229, 2.229e-4
-1.230, 2.232e-4
-1.231, 2.283e-4
-1.232, 2.336e-4
-1.233, 2.348e-4
-1.234, 2.341e-4
-1.235, 2.366e-4
-1.236, 2.421e-4
-1.237, 2.479e-4
-1.238, 2.498e-4
-1.239, 2.498e-4
-1.240, 2.533e-4
-1.241, 2.590e-4
-1.242, 2.652e-4
-1.243, 2.692e-4
-1.244, 2.673e-4
-1.245, 2.707e-4
-1.246, 2.764e-4
-1.247, 2.836e-4
-1.248, 2.877e-4
-1.249, 2.892e-4
-1.250, 2.951e-4
-1.251, 2.975e-4
-1.252, 3.069e-4
-1.253, 3.119e-4
-1.254, 3.127e-4
-1.255, 3.177e-4
-1.256, 3.246e-4
-1.257, 3.323e-4
-1.258, 3.389e-4
-1.259, 3.406e-4
-1.260, 3.460e-4
-1.261, 3.539e-4
-1.262, 3.630e-4
-1.263, 3.694e-4
-1.264, 3.723e-4
-1.265, 3.781e-4
-1.266, 3.876e-4
-1.267, 3.982e-4
-1.268, 4.042e-4
-1.269, 4.087e-4
-1.270, 4.172e-4
-1.271, 4.257e-4
-1.272, 4.368e-4
-1.273, 4.445e-4
-1.274, 4.516e-4
-1.275, 4.582e-4
-1.276, 4.724e-4
-1.277, 4.783e-4
-1.278, 4.907e-4
-1.279, 4.988e-4
-1.280, 5.090e-4
-1.281, 5.220e-4
-1.282, 5.340e-4
-1.283, 5.446e-4
-1.284, 5.529e-4
-1.285, 5.625e-4
-1.286, 5.771e-4
-1.287, 5.918e-4
-1.288, 6.043e-4
-1.289, 6.163e-4
-1.290, 6.247e-4
-1.291, 6.415e-4
-1.292, 6.576e-4
-1.293, 6.722e-4
-1.294, 6.844e-4
-1.295, 6.979e-4
-1.296, 7.140e-4
-1.297, 7.330e-4
-1.298, 7.478e-4
-1.299, 7.606e-4
-1.300, 7.756e-4
-1.301, 7.947e-4
-1.302, 8.153e-4
-1.303, 8.337e-4
-1.304, 8.484e-4
-1.305, 8.653e-4
-1.306, 8.853e-4
-1.307, 9.072e-4
-1.308, 9.257e-4
-1.309, 9.448e-4
-1.310, 9.636e-4
-1.311, 9.853e-4
-1.312, 1.011e-3
-1.313, 1.033e-3
-1.314, 1.051e-3
-1.315, 1.074e-3
-1.316, 1.093e-3
-1.317, 1.122e-3
-1.318, 1.143e-3
-1.319, 1.166e-3
-1.320, 1.191e-3
-1.321, 1.221e-3
-1.322, 1.248e-3
-1.323, 1.274e-3
-1.324, 1.293e-3
-1.325, 1.318e-3
-1.326, 1.346e-3
-1.327, 1.377e-3
-1.328, 1.406e-3
-1.329, 1.429e-3
-1.330, 1.468e-3
-1.331, 1.479e-3
-1.332, 1.533e-3
-1.333, 1.557e-3
-1.334, 1.579e-3
-1.335, 1.614e-3
-1.336, 1.640e-3
-1.337, 1.681e-3
-1.338, 1.717e-3
-1.339, 1.742e-3
-1.340, 1.774e-3
-1.341, 1.812e-3
-1.342, 1.848e-3
-1.343, 1.883e-3
-1.344, 1.917e-3
-1.345, 1.951e-3
-1.346, 1.992e-3
-1.347, 2.042e-3
-1.348, 2.069e-3
-1.349, 2.095e-3
-1.350, 2.134e-3
-1.351, 2.172e-3
-1.352, 2.209e-3
-1.353, 2.258e-3
-1.354, 2.294e-3
-1.355, 2.337e-3
-1.356, 2.379e-3
-1.357, 2.431e-3
-1.358, 2.448e-3
-1.359, 2.500e-3
-1.360, 2.537e-3
-1.361, 2.586e-3
-1.362, 2.633e-3
-1.363, 2.676e-3
-1.364, 2.718e-3
-1.365, 2.761e-3
-1.366, 2.811e-3
-1.367, 2.855e-3
-1.368, 2.900e-3
-1.369, 2.937e-3
-1.370, 2.986e-3
-1.371, 3.040e-3
-1.372, 3.086e-3
-1.373, 3.145e-3
-1.374, 3.182e-3
-1.375, 3.229e-3
-1.376, 3.287e-3
-1.377, 3.333e-3
-1.378, 3.387e-3
-1.379, 3.430e-3
-1.380, 3.479e-3
-1.381, 3.530e-3
-1.382, 3.583e-3
-1.383, 3.642e-3
-1.384, 3.682e-3
-1.385, 3.738e-3
-1.386, 3.799e-3
-1.387, 3.841e-3
-1.388, 3.904e-3
-1.389, 3.948e-3
-1.390, 4.006e-3
-1.391, 4.062e-3
-1.392, 4.121e-3
-1.393, 4.183e-3
-1.394, 4.227e-3
-1.395, 4.280e-3
-1.396, 4.340e-3
-1.397, 4.397e-3
-1.398, 4.455e-3
-1.399, 4.510e-3
-1.400, 4.470e-3
-1.399, 4.371e-3
-1.398, 4.296e-3
-1.397, 4.226e-3
-1.396, 4.162e-3
-1.395, 4.088e-3
-1.394, 4.028e-3
-1.393, 3.970e-3
-1.392, 3.909e-3
-1.391, 3.849e-3
-1.390, 3.784e-3
-1.389, 3.719e-3
-1.388, 3.656e-3
-1.387, 3.616e-3
-1.386, 3.534e-3
-1.385, 3.491e-3
-1.384, 3.431e-3
-1.383, 3.374e-3
-1.382, 3.325e-3
-1.381, 3.262e-3
-1.380, 3.201e-3
-1.379, 3.151e-3
-1.378, 3.093e-3
-1.377, 3.048e-3
-1.376, 2.992e-3
-1.375, 2.937e-3
-1.374, 2.887e-3
-1.373, 2.842e-3
-1.372, 2.793e-3
-1.371, 2.740e-3
-1.370, 2.696e-3
-1.369, 2.636e-3
-1.368, 2.596e-3
-1.367, 2.547e-3
-1.366, 2.503e-3
-1.365, 2.451e-3
-1.364, 2.402e-3
-1.363, 2.357e-3
-1.362, 2.310e-3
-1.361, 2.270e-3
-1.360, 2.230e-3
-1.359, 2.189e-3
-1.358, 2.148e-3
-1.357, 2.104e-3
-1.356, 2.056e-3
-1.355, 2.015e-3
-1.354, 1.973e-3
-1.353, 1.937e-3
-1.352, 1.901e-3
-1.351, 1.858e-3
-1.350, 1.818e-3
-1.349, 1.782e-3
-1.348, 1.745e-3
-1.347, 1.711e-3
-1.346, 1.666e-3
-1.345, 1.632e-3
-1.344, 1.596e-3
-1.343, 1.570e-3
-1.342, 1.533e-3
-1.341, 1.498e-3
-1.340, 1.464e-3
-1.339, 1.430e-3
-1.338, 1.404e-3
-1.337, 1.372e-3
-1.336, 1.330e-3
-1.335, 1.294e-3
-1.334, 1.273e-3
-1.333, 1.243e-3
-1.332, 1.219e-3
-1.331, 1.181e-3
-1.330, 1.153e-3
-1.329, 1.125e-3
-1.328, 1.103e-3
-1.327, 1.071e-3
-1.326, 1.043e-3
-1.325, 1.015e-3
-1.324, 9.882e-4
-1.323, 9.680e-4
-1.322, 9.448e-4
-1.321, 9.174e-4
-1.320, 8.879e-4
-1.319, 8.661e-4
-1.318, 8.370e-4
-1.317, 8.259e-4
-1.316, 7.994e-4
-1.315, 7.727e-4
-1.314, 7.534e-4
-1.313, 7.344e-4
-1.312, 7.123e-4
-1.311, 6.892e-4
-1.310, 6.642e-4
-1.309, 6.468e-4
-1.308, 6.300e-4
-1.307, 6.105e-4
-1.306, 5.895e-4
-1.305, 5.690e-4
-1.304, 5.534e-4
-1.303, 5.367e-4
-1.302, 5.207e-4
-1.301, 4.995e-4
-1.300, 4.802e-4
-1.299, 4.666e-4
-1.298, 4.538e-4
-1.297, 4.373e-4
-1.296, 4.205e-4
-1.295, 4.023e-4
-1.294, 3.896e-4
-1.293, 3.769e-4
-1.292, 3.634e-4
-1.291, 3.479e-4
-1.290, 3.314e-4
-1.289, 3.208e-4
-1.288, 3.107e-4
-1.287, 2.968e-4
-1.286, 2.820e-4
-1.285, 2.671e-4
-1.284, 2.576e-4
-1.283, 2.501e-4
-1.282, 2.389e-4
-1.281, 2.241e-4
-1.280, 2.107e-4
-1.279, 2.020e-4
-1.278, 1.951e-4
-1.277, 1.855e-4
-1.276, 1.721e-4
-1.275, 1.608e-4
-1.274, 1.536e-4
-1.273, 1.478e-4
-1.272, 1.387e-4
-1.271, 1.275e-4
-1.270, 1.167e-4
-1.269, 1.106e-4
-1.268, 1.056e-4
-1.267, 9.808e-5
-1.266, 8.724e-5
-1.265, 7.775e-5
-1.264, 7.280e-5
-1.263, 6.893e-5
-1.262, 6.185e-5
-1.261, 5.236e-5
-1.260, 4.369e-5
-1.259, 3.941e-5
-1.258, 3.671e-5
-1.257, 3.054e-5
-1.256, 2.229e-5
-1.255, 1.443e-5
-1.254, 1.026e-5
-1.253, 8.433e-6
-1.252, 3.238e-6
-1.251, -4.551e-6
-1.250, -1.116e-5
-1.249, -1.443e-5
-1.248, -1.548e-5
-1.247, -2.015e-5
-1.246, -2.745e-5
-1.245, -3.298e-5
-1.244, -3.596e-5
-1.243, -3.677e-5
-1.242, -4.033e-5
-1.241, -4.704e-5
-1.240, -5.219e-5
-1.239, -5.419e-5
-1.238, -5.463e-5
-1.237, -5.766e-5
-1.236, -6.363e-5
-1.235, -6.877e-5
-1.234, -6.991e-5
-1.233, -7.001e-5
-1.232, -7.231e-5
-1.231, -7.799e-5
-1.230, -8.310e-5
-1.229, -8.540e-5
-1.228, -8.361e-5
-1.227, -8.540e-5
-1.226, -9.018e-5
-1.225, -9.484e-5
-1.224, -9.534e-5
-1.223, -9.441e-5
-1.222, -9.643e-5
-1.221, -1.011e-4
-1.220, -1.045e-4
-1.219, -1.048e-4
-1.218, -1.028e-4
-1.217, -1.052e-4
-1.216, -1.090e-4
-1.215, -1.127e-4
-1.214, -1.132e-4
-1.213, -1.109e-4
-1.212, -1.129e-4
-1.211, -1.167e-4
-1.210, -1.196e-4
-1.209, -1.194e-4
-1.208, -1.175e-4
-1.207, -1.184e-4
-1.206, -1.233e-4
-1.205, -1.253e-4
-1.204, -1.252e-4
-1.203, -1.232e-4
-1.202, -1.234e-4
-1.201, -1.277e-4
-1.200, -1.299e-4
-1.199, -1.299e-4
-1.198, -1.276e-4
-1.197, -1.278e-4
-1.196, -1.315e-4
-1.195, -1.346e-4
-1.194, -1.332e-4
-1.193, -1.308e-4
-1.192, -1.311e-4
-1.191, -1.347e-4
-1.190, -1.378e-4
-1.189, -1.365e-4
-1.188, -1.340e-4
-1.187, -1.344e-4
-1.186, -1.371e-4
-1.185, -1.405e-4
-1.184, -1.389e-4
-1.183, -1.364e-4
-1.182, -1.370e-4
-1.181, -1.396e-4
-1.180, -1.419e-4
-1.179, -1.407e-4
-1.178, -1.385e-4
-1.177, -1.391e-4
-1.176, -1.414e-4
-1.175, -1.444e-4
-1.174, -1.437e-4
-1.173, -1.397e-4
-1.172, -1.398e-4
-1.171, -1.431e-4
-1.170, -1.457e-4
-1.169, -1.437e-4
-1.168, -1.406e-4
-1.167, -1.411e-4
-1.166, -1.445e-4
-1.165, -1.468e-4
-1.164, -1.446e-4
-1.163, -1.428e-4
-1.162, -1.414e-4
-1.161, -1.451e-4
-1.160, -1.471e-4
-1.159, -1.472e-4
-1.158, -1.429e-4
-1.157, -1.432e-4
-1.156, -1.460e-4
-1.155, -1.483e-4
-1.154, -1.469e-4
-1.153, -1.440e-4
-1.152, -1.435e-4
-1.151, -1.469e-4
-1.150, -1.492e-4
-1.149, -1.476e-4
-1.148, -1.447e-4
-1.147, -1.442e-4
-1.146, -1.473e-4
-1.145, -1.493e-4
-1.144, -1.482e-4
-1.143, -1.449e-4
-1.142, -1.450e-4
-1.141, -1.475e-4
-1.140, -1.499e-4
-1.139, -1.488e-4
-1.138, -1.459e-4
-1.137, -1.457e-4
-1.136, -1.480e-4
-1.135, -1.506e-4
-1.134, -1.493e-4
-1.133, -1.456e-4
-1.132, -1.464e-4
-1.131, -1.490e-4
-1.130, -1.511e-4
-1.129, -1.498e-4
-1.128, -1.456e-4
-1.127, -1.459e-4
-1.126, -1.489e-4
-1.125, -1.510e-4
-1.124, -1.500e-4
-1.123, -1.471e-4
-1.122, -1.469e-4
-1.121, -1.504e-4
-1.120, -1.514e-4
-1.119, -1.500e-4
-1.118, -1.475e-4
-1.117, -1.472e-4
-1.116, -1.504e-4
-1.115, -1.530e-4
-1.114, -1.505e-4
-1.113, -1.478e-4
-1.112, -1.479e-4
-1.111, -1.500e-4
-1.110, -1.528e-4
-1.109, -1.516e-4
-1.108, -1.487e-4
-1.107, -1.485e-4
-1.106, -1.512e-4
-1.105, -1.537e-4
-1.104, -1.505e-4
-1.103, -1.488e-4
-1.102, -1.491e-4
-1.101, -1.518e-4
-1.100, -1.543e-4
-1.099, -1.534e-4
-1.098, -1.499e-4
-1.097, -1.500e-4
-1.096, -1.519e-4
-1.095, -1.544e-4
-1.094, -1.535e-4
-1.093, -1.507e-4
-1.092, -1.505e-4
-1.091, -1.537e-4
-1.090, -1.553e-4
-1.089, -1.540e-4
-1.088, -1.511e-4
-1.087, -1.506e-4
-1.086, -1.539e-4
-1.085, -1.558e-4
-1.084, -1.550e-4
-1.083, -1.519e-4
-1.082, -1.515e-4
-1.081, -1.548e-4
-1.080, -1.567e-4
-1.079, -1.557e-4
-1.078, -1.532e-4
-1.077, -1.529e-4
-1.076, -1.554e-4
-1.075, -1.581e-4
-1.074, -1.572e-4
-1.073, -1.546e-4
-1.072, -1.536e-4
-1.071, -1.572e-4
-1.070, -1.598e-4
-1.069, -1.583e-4
-1.068, -1.554e-4
-1.067, -1.548e-4
-1.066, -1.577e-4
-1.065, -1.605e-4
-1.064, -1.595e-4
-1.063, -1.584e-4
-1.062, -1.571e-4
-1.061, -1.597e-4
-1.060, -1.622e-4
-1.059, -1.609e-4
-1.058, -1.587e-4
-1.057, -1.585e-4
-1.056, -1.613e-4
-1.055, -1.643e-4
-1.054, -1.634e-4
-1.053, -1.605e-4
-1.052, -1.602e-4
-1.051, -1.633e-4
-1.050, -1.662e-4
-1.049, -1.654e-4
-1.048, -1.630e-4
-1.047, -1.633e-4
-1.046, -1.661e-4
-1.045, -1.692e-4
-1.044, -1.684e-4
-1.043, -1.659e-4
-1.042, -1.654e-4
-1.041, -1.691e-4
-1.040, -1.720e-4
-1.039, -1.718e-4
-1.038, -1.695e-4
-1.037, -1.690e-4
-1.036, -1.718e-4
-1.035, -1.756e-4
-1.034, -1.749e-4
-1.033, -1.730e-4
-1.032, -1.720e-4
-1.031, -1.756e-4
-1.030, -1.794e-4
-1.029, -1.781e-4
-1.028, -1.767e-4
-1.027, -1.766e-4
-1.026, -1.801e-4
-1.025, -1.835e-4
-1.024, -1.838e-4
-1.023, -1.814e-4
-1.022, -1.822e-4
-1.021, -1.835e-4
-1.020, -1.876e-4
-1.019, -1.875e-4
-1.018, -1.854e-4
-1.017, -1.866e-4
-1.016, -1.906e-4
-1.015, -1.932e-4
-1.014, -1.938e-4
-1.013, -1.912e-4
-1.012, -1.919e-4
-1.011, -1.962e-4
-1.010, -1.993e-4
-1.009, -2.003e-4
-1.008, -1.978e-4
-1.007, -1.989e-4
-1.006, -2.034e-4
-1.005, -2.068e-4
-1.004, -2.080e-4
-1.003, -2.064e-4
-1.002, -2.072e-4
-1.001, -2.123e-4
-1.000, -1.312e-4
-1.001, -2.213e-5
-1.002, 2.872e-5
-1.003, 5.391e-5
-1.004, 6.584e-5
-1.005, 7.379e-5
-1.006, 8.127e-5
-1.007, 9.090e-5
-1.008, 9.478e-5
-1.009, 9.684e-5
-1.010, 9.808e-5
-1.011, 1.016e-4
-1.012, 1.080e-4
-1.013, 1.112e-4
-1.014, 1.106e-4
-1.015, 1.106e-4
-1.016, 1.134e-4
-1.017, 1.177e-4
-1.018, 1.205e-4
-1.019, 1.191e-4
-1.020, 1.174e-4
-1.021, 1.195e-4
-1.022, 1.245e-4
-1.023, 1.270e-4
-1.024, 1.253e-4
-1.025, 1.234e-4
-1.026, 1.248e-4
-1.027, 1.288e-4
-1.028, 1.300e-4
-1.029, 1.276e-4
-1.030, 1.260e-4
-1.031, 1.285e-4
-1.032, 1.315e-4
-1.033, 1.332e-4
-1.034, 1.306e-4
-1.035, 1.287e-4
-1.036, 1.304e-4
-1.037, 1.334e-4
-1.038, 1.340e-4
-1.039, 1.321e-4
-1.040, 1.293e-4
-1.041, 1.319e-4
-1.042, 1.347e-4
-1.043, 1.358e-4
-1.044, 1.331e-4
-1.045, 1.311e-4
-1.046, 1.321e-4
-1.047, 1.361e-4
-1.048, 1.361e-4
-1.049, 1.343e-4
-1.050, 1.318e-4
-1.051, 1.330e-4
-1.052, 1.365e-4
-1.053, 1.371e-4
-1.054, 1.346e-4
-1.055, 1.325e-4
-1.056, 1.331e-4
-1.057, 1.369e-4
-1.058, 1.385e-4
-1.059, 1.346e-4
-1.060, 1.328e-4
-1.061, 1.340e-4
-1.062, 1.370e-4
-1.063, 1.388e-4
-1.064, 1.355e-4
-1.065, 1.336e-4
-1.066, 1.344e-4
-1.067, 1.373e-4
-1.068, 1.379e-4
-1.069, 1.354e-4
-1.070, 1.332e-4
-1.071, 1.352e-4
-1.072, 1.381e-4
-1.073, 1.386e-4
-1.074, 1.362e-4
-1.075, 1.346e-4
-1.076, 1.352e-4
-1.077, 1.384e-4
-1.078, 1.385e-4
-1.079, 1.361e-4
-1.080, 1.340e-4
-1.081, 1.354e-4
-1.082, 1.385e-4
-1.083, 1.388e-4
-1.084, 1.368e-4
-1.085, 1.342e-4
-1.086, 1.351e-4
-1.087, 1.384e-4
-1.088, 1.386e-4
-1.089, 1.366e-4
-1.090, 1.343e-4
-1.091, 1.353e-4
-1.092, 1.388e-4
-1.093, 1.389e-4
-1.094, 1.370e-4
-1.095, 1.349e-4
-1.096, 1.346e-4
-1.097, 1.403e-4
-1.098, 1.383e-4
-1.099, 1.358e-4
-1.100, 1.343e-4
-1.101, 1.356e-4
-1.102, 1.398e-4
-1.103, 1.406e-4
-1.104, 1.367e-4
-1.105, 1.344e-4
-1.106, 1.351e-4
-1.107, 1.389e-4
-1.108, 1.402e-4
-1.109, 1.369e-4
-1.110, 1.348e-4
-1.111, 1.359e-4
-1.112, 1.397e-4
-1.113, 1.402e-4
-1.114, 1.376e-4
-1.115, 1.350e-4
-1.116, 1.363e-4
-1.117, 1.389e-4
-1.118, 1.399e-4
-1.119, 1.377e-4
-1.120, 1.354e-4
-1.121, 1.370e-4
-1.122, 1.397e-4
-1.123, 1.403e-4
-1.124, 1.380e-4
-1.125, 1.355e-4
-1.126, 1.368e-4
-1.127, 1.408e-4
-1.128, 1.409e-4
-1.129, 1.386e-4
-1.130, 1.362e-4
-1.131, 1.371e-4
-1.132, 1.402e-4
-1.133, 1.414e-4
-1.134, 1.387e-4
-1.135, 1.370e-4
-1.136, 1.373e-4
-1.137, 1.410e-4
-1.138, 1.422e-4
-1.139, 1.391e-4
-1.140, 1.374e-4
-1.141, 1.386e-4
-1.142, 1.412e-4
-1.143, 1.424e-4
-1.144, 1.397e-4
-1.145, 1.382e-4
-1.146, 1.389e-4
-1.147, 1.424e-4
-1.148, 1.433e-4
-1.149, 1.409e-4
-1.150, 1.386e-4
-1.151, 1.399e-4
-1.152, 1.432e-4
-1.153, 1.443e-4
-1.154, 1.415e-4
-1.155, 1.392e-4
-1.156, 1.410e-4
-1.157, 1.436e-4
-1.158, 1.450e-4
-1.159, 1.434e-4
-1.160, 1.403e-4
-1.161, 1.418e-4
-1.162, 1.451e-4
-1.163, 1.466e-4
-1.164, 1.446e-4
-1.165, 1.416e-4
-1.166, 1.431e-4
-1.167, 1.469e-4
-1.168, 1.467e-4
-1.169, 1.456e-4
-1.170, 1.437e-4
-1.171, 1.448e-4
-1.172, 1.483e-4
-1.173, 1.490e-4
-1.174, 1.471e-4
-1.175, 1.450e-4
-1.176, 1.463e-4
-1.177, 1.509e-4
-1.178, 1.520e-4
-1.179, 1.495e-4
-1.180, 1.476e-4
-1.181, 1.489e-4
-1.182, 1.521e-4
-1.183, 1.537e-4
-1.184, 1.511e-4
-1.185, 1.500e-4
-1.186, 1.511e-4
-1.187, 1.550e-4
-1.188, 1.566e-4
-1.189, 1.541e-4
-1.190, 1.528e-4
-1.191, 1.548e-4
-1.192, 1.572e-4
-1.193, 1.595e-4
-1.194, 1.576e-4
-1.195, 1.563e-4
-1.196, 1.580e-4
-1.197, 1.612e-4
-1.198, 1.633e-4
-1.199, 1.617e-4
-1.200, 1.599e-4
-1.201, 1.622e-4
-1.202, 1.656e-4
-1.203, 1.673e-4
-1.204, 1.662e-4
-1.205, 1.646e-4
-1.206, 1.669e-4
-1.207, 1.715e-4
-1.208, 1.725e-4
-1.209, 1.718e-4
-1.210, 1.697e-4
-1.211, 1.725e-4
-1.212, 1.773e-4
-1.213, 1.788e-4
-1.214, 1.774e-4
-1.215, 1.773e-4
-1.216, 1.783e-4
-1.217, 1.841e-4
-1.218, 1.866e-4
-1.219, 1.847e-4
-1.220, 1.843e-4
-1.221, 1.868e-4
-1.222, 1.915e-4
-1.223, 1.947e-4
-1.224, 1.936e-4
-1.225, 1.934e-4
-1.226, 1.966e-4
-1.227, 2.008e-4
-1.228, 2.053e-4
-1.229, 2.050e-4
-1.230, 2.045e-4
-1.231, 2.067e-4
-1.232, 2.133e-4
-1.233, 2.165e-4
-1.234, 2.164e-4
-1.235, 2.153e-4
-1.236, 2.198e-4
-1.237, 2.261e-4
-1.238, 2.283e-4
-1.239, 2.279e-4
-1.240, 2.295e-4
-1.241, 2.349e-4
-1.242, 2.443e-4
-1.243, 2.443e-4
-1.244, 2.441e-4
-1.245, 2.457e-4
-1.246, 2.504e-4
-1.247, 2.585e-4
-1.248, 2.627e-4
-1.249, 2.640e-4
-1.250, 2.664e-4
-1.251, 2.711e-4
-1.252, 2.791e-4
-1.253, 2.840e-4
-1.254, 2.860e-4
-1.255, 2.884e-4
-1.256, 2.944e-4
-1.257, 3.008e-4
-1.258, 3.092e-4
-1.259, 3.105e-4
-1.260, 3.141e-4
-1.261, 3.197e-4
-1.262, 3.290e-4
-1.263, 3.366e-4
-1.264, 3.400e-4
-1.265, 3.435e-4
-1.266, 3.509e-4
-1.267, 3.605e-4
-1.268, 3.681e-4
-1.269, 3.727e-4
-1.270, 3.769e-4
-1.271, 3.871e-4
-1.272, 3.958e-4
-1.273, 4.059e-4
-1.274, 4.101e-4
-1.275, 4.156e-4
-1.276, 4.262e-4
-1.277, 4.374e-4
-1.278, 4.471e-4
-1.279, 4.538e-4
-1.280, 4.611e-4
-1.281, 4.708e-4
-1.282, 4.847e-4
-1.283, 4.955e-4
-1.284, 5.042e-4
-1.285, 5.137e-4
-1.286, 5.220e-4
-1.287, 5.357e-4
-1.288, 5.469e-4
-1.289, 5.572e-4
-1.290, 5.679e-4
-1.291, 5.821e-4
-1.292, 5.978e-4
-1.293, 6.115e-4
-1.294, 6.207e-4
-1.295, 6.318e-4
-1.296, 6.463e-4
-1.297, 6.632e-4
-1.298, 6.778e-4
-1.299, 6.898e-4
-1.300, 7.024e-4
-1.301, 7.209e-4
-1.302, 7.392e-4
-1.303, 7.558e-4
-1.304, 7.691e-4
-1.305, 7.829e-4
-1.306, 8.006e-4
-1.307, 8.222e-4
-1.308, 8.414e-4
-1.309, 8.558e-4
-1.310, 8.719e-4
-1.311, 8.905e-4
-1.312, 9.150e-4
-1.313, 9.348e-4
-1.314, 9.519e-4
-1.315, 9.690e-4
-1.316, 9.925e-4
-1.317, 1.018e-3
-1.318, 1.040e-3
-1.319, 1.056e-3
-1.320, 1.076e-3
-1.321, 1.103e-3
-1.322, 1.127e-3
-1.323, 1.155e-3
-1.324, 1.175e-3
-1.325, 1.197e-3
-1.326, 1.221e-3
-1.327, 1.250e-3
-1.328, 1.277e-3
-1.329, 1.300e-3
-1.330, 1.325e-3
-1.331, 1.350e-3
-1.332, 1.386e-3
-1.333, 1.408e-3
-1.334, 1.442e-3
-1.335, 1.460e-3
-1.336, 1.488e-3
-1.337, 1.535e-3
-1.338, 1.555e-3
-1.339, 1.580e-3
-1.340, 1.615e-3
-1.341, 1.647e-3
-1.342, 1.685e-3
-1.343, 1.713e-3
-1.344, 1.746e-3
-1.345, 1.783e-3
-1.346, 1.816e-3
-1.347, 1.844e-3
-1.348, 1.883e-3
-1.349, 1.904e-3
-1.350, 1.950e-3
-1.351, 1.977e-3
-1.352, 2.022e-3
-1.353, 2.064e-3
-1.354, 2.097e-3
-1.355, 2.137e-3
-1.356, 2.173e-3
-1.357, 2.212e-3
-1.358, 2.249e-3
-1.359, 2.287e-3
-1.360, 2.320e-3
-1.361, 2.365e-3
-1.362, 2.413e-3
-1.363, 2.453e-3
-1.364, 2.493e-3
-1.365, 2.532e-3
-1.366, 2.571e-3
-1.367, 2.620e-3
-1.368, 2.667e-3
-1.369, 2.709e-3
-1.370, 2.751e-3
-1.371, 2.791e-3
-1.372, 2.843e-3
-1.373, 2.888e-3
-1.374, 2.933e-3
-1.375, 2.980e-3
-1.376, 3.024e-3
-1.377, 3.073e-3
-1.378, 3.121e-3
-1.379, 3.164e-3
-1.380, 3.212e-3
-1.381, 3.262e-3
-1.382, 3.310e-3
-1.383, 3.374e-3
-1.384, 3.423e-3
-1.385, 3.459e-3
-1.386, 3.513e-3
-1.387, 3.563e-3
-1.388, 3.621e-3
-1.389, 3.673e-3
-1.390, 3.725e-3
-1.391, 3.774e-3
-1.392, 3.831e-3
-1.393, 3.876e-3
-1.394, 3.938e-3
-1.395, 3.983e-3
-1.396, 4.037e-3
-1.397, 4.098e-3
-1.398, 4.146e-3
-1.399, 4.201e-3
-1.400, 4.176e-3
-1.399, 4.084e-3
-1.398, 4.004e-3
-1.397, 3.943e-3
-1.396, 3.882e-3
-1.395, 3.813e-3
-1.394, 3.765e-3
-1.393, 3.685e-3
-1.392, 3.668e-3
-1.391, 3.568e-3
-1.390, 3.533e-3
-1.389, 3.450e-3
-1.388, 3.413e-3
-1.387, 3.361e-3
-1.386, 3.316e-3
-1.385, 3.248e-3
-1.384, 3.201e-3
-1.383, 3.144e-3
-1.382, 3.094e-3
-1.381, 3.046e-3
-1.380, 3.003e-3
-1.379, 2.946e-3
-1.378, 2.895e-3
-1.377, 2.833e-3
-1.376, 2.782e-3
-1.375, 2.742e-3
-1.374, 2.696e-3
-1.373, 2.657e-3
-1.372, 2.603e-3
-1.371, 2.553e-3
-1.370, 2.498e-3
-1.369, 2.456e-3
-1.368, 2.419e-3
-1.367, 2.379e-3
-1.366, 2.326e-3
-1.365, 2.286e-3
-1.364, 2.238e-3
-1.363, 2.198e-3
-1.362, 2.158e-3
-1.361, 2.119e-3
-1.360, 2.072e-3
-1.359, 2.034e-3
-1.358, 1.997e-3
-1.357, 1.955e-3
-1.356, 1.911e-3
-1.355, 1.869e-3
-1.354, 1.835e-3
-1.353, 1.799e-3
-1.352, 1.764e-3
-1.351, 1.726e-3
-1.350, 1.684e-3
-1.349, 1.649e-3
-1.348, 1.622e-3
-1.347, 1.587e-3
-1.346, 1.549e-3
-1.345, 1.514e-3
-1.344, 1.480e-3
-1.343, 1.449e-3
-1.342, 1.419e-3
-1.341, 1.384e-3
-1.340, 1.351e-3
-1.339, 1.322e-3
-1.338, 1.290e-3
-1.337, 1.267e-3
-1.336, 1.237e-3
-1.335, 1.202e-3
-1.334, 1.166e-3
-1.333, 1.145e-3
-1.332, 1.117e-3
-1.331, 1.090e-3
-1.330, 1.059e-3
-1.329, 1.034e-3
-1.328, 1.010e-3
-1.327, 9.856e-4
-1.326, 9.585e-4
-1.325, 9.293e-4
-1.324, 9.060e-4
-1.323, 8.852e-4
-1.322, 8.626e-4
-1.321, 8.393e-4
-1.320, 8.115e-4
-1.319, 7.897e-4
-1.318, 7.704e-4
-1.317, 7.501e-4
-1.316, 7.249e-4
-1.315, 7.020e-4
-1.314, 6.840e-4
-1.313, 6.659e-4
-1.312, 6.488e-4
-1.311, 6.256e-4
-1.310, 6.021e-4
-1.309, 5.851e-4
-1.308, 5.705e-4
-1.307, 5.533e-4
-1.306, 5.331e-4
-1.305, 5.138e-4
-1.304, 4.975e-4
-1.303, 4.842e-4
-1.302, 4.668e-4
-1.301, 4.502e-4
-1.300, 4.331e-4
-1.299, 4.182e-4
-1.298, 4.069e-4
-1.297, 3.913e-4
-1.296, 3.755e-4
-1.295, 3.569e-4
-1.294, 3.458e-4
-1.293, 3.349e-4
-1.292, 3.232e-4
-1.291, 3.078e-4
-1.290, 2.923e-4
-1.289, 2.821e-4
-1.288, 2.716e-4
-1.287, 2.619e-4
-1.286, 2.479e-4
-1.285, 2.346e-4
-1.284, 2.236e-4
-1.283, 2.162e-4
-1.282, 2.069e-4
-1.281, 1.938e-4
-1.280, 1.813e-4
-1.279, 1.712e-4
-1.278, 1.659e-4
-1.277, 1.584e-4
-1.276, 1.469e-4
-1.275, 1.357e-4
-1.274, 1.281e-4
-1.273, 1.220e-4
-1.272, 1.158e-4
-1.271, 1.047e-4
-1.270, 9.515e-5
-1.269, 8.831e-5
-1.268, 8.381e-5
-1.267, 7.764e-5
-1.266, 6.857e-5
-1.265, 5.901e-5
-1.264, 5.415e-5
-1.263, 5.038e-5
-1.262, 4.470e-5
-1.261, 3.681e-5
-1.260, 2.814e-5
-1.259, 2.366e-5
-1.258, 2.101e-5
-1.257, 1.612e-5
-1.256, 9.159e-6
-1.255, 1.208e-6
-1.254, -3.081e-6
-1.253, -4.534e-6
-1.252, -8.589e-6
-1.251, -1.516e-5
-1.250, -2.200e-5
-1.249, -2.559e-5
-1.248, -2.645e-5
-1.247, -2.975e-5
-1.246, -3.614e-5
-1.245, -4.186e-5
-1.244, -4.517e-5
-1.243, -4.580e-5
-1.242, -4.801e-5
-1.241, -5.382e-5
-1.240, -5.869e-5
-1.239, -6.188e-5
-1.238, -6.205e-5
-1.237, -6.348e-5
-1.236, -6.900e-5
-1.235, -7.361e-5
-1.234, -7.587e-5
-1.233, -7.560e-5
-1.232, -7.713e-5
-1.231, -8.157e-5
-1.230, -8.649e-5
-1.229, -8.982e-5
-1.228, -8.803e-5
-1.227, -8.955e-5
-1.226, -9.320e-5
-1.225, -9.802e-5
-1.224, -9.832e-5
-1.223, -9.717e-5
-1.222, -9.821e-5
-1.221, -1.021e-4
-1.220, -1.063e-4
-1.219, -1.072e-4
-1.218, -1.058e-4
-1.217, -1.064e-4
-1.216, -1.096e-4
-1.215, -1.138e-4
-1.214, -1.146e-4
-1.213, -1.125e-4
-1.212, -1.130e-4
-1.211, -1.164e-4
-1.210, -1.195e-4
-1.209, -1.207e-4
-1.208, -1.180e-4
-1.207, -1.187e-4
-1.206, -1.225e-4
-1.205, -1.251e-4
-1.204, -1.249e-4
-1.203, -1.235e-4
-1.202, -1.231e-4
-1.201, -1.271e-4
-1.200, -1.295e-4
-1.199, -1.296e-4
-1.198, -1.276e-4
-1.197, -1.264e-4
-1.196, -1.301e-4
-1.195, -1.334e-4
-1.194, -1.328e-4
-1.193, -1.308e-4
-1.192, -1.299e-4
-1.191, -1.330e-4
-1.190, -1.367e-4
-1.189, -1.356e-4
-1.188, -1.336e-4
-1.187, -1.326e-4
-1.186, -1.356e-4
-1.185, -1.390e-4
-1.184, -1.381e-4
-1.183, -1.362e-4
-1.182, -1.354e-4
-1.181, -1.376e-4
-1.180, -1.404e-4
-1.179, -1.397e-4
-1.178, -1.383e-4
-1.177, -1.376e-4
-1.176, -1.400e-4
-1.175, -1.427e-4
-1.174, -1.418e-4
-1.173, -1.390e-4
-1.172, -1.385e-4
-1.171, -1.412e-4
-1.170, -1.441e-4
-1.169, -1.433e-4
-1.168, -1.400e-4
-1.167, -1.394e-4
-1.166, -1.428e-4
-1.165, -1.455e-4
-1.164, -1.445e-4
-1.163, -1.414e-4
-1.162, -1.406e-4
-1.161, -1.433e-4
-1.160, -1.456e-4
-1.159, -1.449e-4
-1.158, -1.426e-4
-1.157, -1.417e-4
-1.156, -1.444e-4
-1.155, -1.469e-4
-1.154, -1.458e-4
-1.153, -1.433e-4
-1.152, -1.423e-4
-1.151, -1.451e-4
-1.150, -1.474e-4
-1.149, -1.460e-4
-1.148, -1.442e-4
-1.147, -1.432e-4
-1.146, -1.453e-4
-1.145, -1.483e-4
-1.144, -1.469e-4
-1.143, -1.445e-4
-1.142, -1.435e-4
-1.141, -1.455e-4
-1.140, -1.483e-4
-1.139, -1.479e-4
-1.138, -1.446e-4
-1.137, -1.441e-4
-1.136, -1.462e-4
-1.135, -1.490e-4
-1.134, -1.483e-4
-1.133, -1.451e-4
-1.132, -1.448e-4
-1.131, -1.470e-4
-1.130, -1.491e-4
-1.129, -1.486e-4
-1.128, -1.453e-4
-1.127, -1.449e-4
-1.126, -1.482e-4
-1.125, -1.498e-4
-1.124, -1.490e-4
-1.123, -1.466e-4
-1.122, -1.448e-4
-1.121, -1.483e-4
-1.120, -1.503e-4
-1.119, -1.496e-4
-1.118, -1.469e-4
-1.117, -1.455e-4
-1.116, -1.491e-4
-1.115, -1.505e-4
-1.114, -1.496e-4
-1.113, -1.477e-4
-1.112, -1.477e-4
-1.111, -1.499e-4
-1.110, -1.506e-4
-1.109, -1.498e-4
-1.108, -1.470e-4
-1.107, -1.458e-4
-1.106, -1.499e-4
-1.105, -1.522e-4
-1.104, -1.509e-4
-1.103, -1.488e-4
-1.102, -1.475e-4
-1.101, -1.507e-4
-1.100, -1.523e-4
-1.099, -1.520e-4
-1.098, -1.505e-4
-1.097, -1.477e-4
-1.096, -1.506e-4
-1.095, -1.526e-4
-1.094, -1.529e-4
-1.093, -1.500e-4
-1.092, -1.496e-4
-1.091, -1.520e-4
-1.090, -1.537e-4
-1.089, -1.537e-4
-1.088, -1.500e-4
-1.087, -1.497e-4
-1.086, -1.530e-4
-1.085, -1.549e-4
-1.084, -1.548e-4
-1.083, -1.517e-4
-1.082, -1.510e-4
-1.081, -1.537e-4
-1.080, -1.557e-4
-1.079, -1.551e-4
-1.078, -1.524e-4
-1.077, -1.519e-4
-1.076, -1.568e-4
-1.075, -1.582e-4
-1.074, -1.573e-4
-1.073, -1.535e-4
-1.072, -1.535e-4
-1.071, -1.557e-4
-1.070, -1.584e-4
-1.069, -1.583e-4
-1.068, -1.548e-4
-1.067, -1.552e-4
-1.066, -1.570e-4
-1.065, -1.602e-4
-1.064, -1.592e-4
-1.063, -1.569e-4
-1.062, -1.567e-4
-1.061, -1.590e-4
-1.060, -1.618e-4
-1.059, -1.613e-4
-1.058, -1.586e-4
-1.057, -1.584e-4
-1.056, -1.609e-4
-1.055, -1.641e-4
-1.054, -1.645e-4
-1.053, -1.610e-4
-1.052, -1.610e-4
-1.051, -1.639e-4
-1.050, -1.662e-4
-1.049, -1.661e-4
-1.048, -1.634e-4
-1.047, -1.641e-4
-1.046, -1.665e-4
-1.045, -1.694e-4
-1.044, -1.685e-4
-1.043, -1.661e-4
-1.042, -1.666e-4
-1.041, -1.692e-4
-1.040, -1.731e-4
-1.039, -1.730e-4
-1.038, -1.712e-4
-1.037, -1.694e-4
-1.036, -1.723e-4
-1.035, -1.759e-4
-1.034, -1.760e-4
-1.033, -1.744e-4
-1.032, -1.739e-4
-1.031, -1.775e-4
-1.030, -1.808e-4
-1.029, -1.806e-4
-1.028, -1.773e-4
-1.027, -1.779e-4
-1.026, -1.822e-4
-1.025, -1.855e-4
-1.024, -1.852e-4
-1.023, -1.840e-4
-1.022, -1.841e-4
-1.021, -1.874e-4
-1.020, -1.903e-4
-1.019, -1.905e-4
-1.018, -1.887e-4
-1.017, -1.890e-4
-1.016, -1.926e-4
-1.015, -1.971e-4
-1.014, -1.974e-4
-1.013, -1.957e-4
-1.012, -1.964e-4
-1.011, -2.000e-4
-1.010, -2.042e-4
-1.009, -2.053e-4
-1.008, -2.030e-4
-1.007, -2.045e-4
-1.006, -2.094e-4
-1.005, -2.120e-4
-1.004, -2.126e-4
-1.003, -2.141e-4
-1.002, -2.138e-4
-1.001, -2.176e-4
-1.000, -1.426e-4
-1.001, -3.528e-5
-1.002, 1.769e-5
-1.003, 4.544e-5
-1.004, 5.923e-5
-1.005, 6.736e-5
-1.006, 7.609e-5
-1.007, 8.556e-5
-1.008, 9.142e-5
-1.009, 9.322e-5
-1.010, 9.518e-5
-1.011, 9.909e-5
-1.012, 1.049e-4
-1.013, 1.084e-4
-1.014, 1.086e-4
-1.015, 1.085e-4
-1.016, 1.122e-4
-1.017, 1.163e-4
-1.018, 1.191e-4
-1.019, 1.178e-4
-1.020, 1.171e-4
-1.021, 1.196e-4
-1.022, 1.239e-4
-1.023, 1.251e-4
-1.024, 1.244e-4
-1.025, 1.232e-4
-1.026, 1.246e-4
-1.027, 1.283e-4
-1.028, 1.299e-4
-1.029, 1.280e-4
-1.030, 1.264e-4
-1.031, 1.281e-4
-1.032, 1.306e-4
-1.033, 1.327e-4
-1.034, 1.314e-4
-1.035, 1.293e-4
-1.036, 1.301e-4
-1.037, 1.332e-4
-1.038, 1.345e-4
-1.039, 1.319e-4
-1.040, 1.303e-4
-1.041, 1.318e-4
-1.042, 1.344e-4
-1.043, 1.363e-4
-1.044, 1.342e-4
-1.045, 1.312e-4
-1.046, 1.324e-4
-1.047, 1.359e-4
-1.048, 1.365e-4
-1.049, 1.347e-4
-1.050, 1.325e-4
-1.051, 1.331e-4
-1.052, 1.372e-4
-1.053, 1.373e-4
-1.054, 1.348e-4
-1.055, 1.330e-4
-1.056, 1.338e-4
-1.057, 1.371e-4
-1.058, 1.380e-4
-1.059, 1.355e-4
-1.060, 1.336e-4
-1.061, 1.339e-4
-1.062, 1.375e-4
-1.063, 1.387e-4
-1.064, 1.360e-4
-1.065, 1.342e-4
-1.066, 1.345e-4
-1.067, 1.372e-4
-1.068, 1.394e-4
-1.069, 1.354e-4
-1.070, 1.343e-4
-1.071, 1.355e-4
-1.072, 1.378e-4
-1.073, 1.393e-4
-1.074, 1.360e-4
-1.075, 1.344e-4
-1.076, 1.358e-4
-1.077, 1.385e-4
-1.078, 1.399e-4
-1.079, 1.362e-4
-1.080, 1.346e-4
-1.081, 1.351e-4
-1.082, 1.386e-4
-1.083, 1.391e-4
-1.084, 1.360e-4
-1.085, 1.336e-4
-1.086, 1.352e-4
-1.087, 1.389e-4
-1.088, 1.395e-4
-1.089, 1.369e-4
-1.090, 1.346e-4
-1.091, 1.350e-4
-1.092, 1.381e-4
-1.093, 1.389e-4
-1.094, 1.369e-4
-1.095, 1.348e-4
-1.096, 1.353e-4
-1.097, 1.391e-4
-1.098, 1.392e-4
-1.099, 1.366e-4
-1.100, 1.347e-4
-1.101, 1.364e-4
-1.102, 1.392e-4
-1.103, 1.393e-4
-1.104, 1.366e-4
-1.105, 1.343e-4
-1.106, 1.357e-4
-1.107, 1.387e-4
-1.108, 1.400e-4
-1.109, 1.368e-4
-1.110, 1.345e-4
-1.111, 1.365e-4
-1.112, 1.387e-4
-1.113, 1.396e-4
-1.114, 1.376e-4
-1.115, 1.345e-4
-1.116, 1.363e-4
-1.117, 1.390e-4
-1.118, 1.411e-4
-1.119, 1.369e-4
-1.120, 1.348e-4
-1.121, 1.357e-4
-1.122, 1.400e-4
-1.123, 1.396e-4
-1.124, 1.382e-4
-1.125, 1.353e-4
-1.126, 1.373e-4
-1.127, 1.396e-4
-1.128, 1.407e-4
-1.129, 1.379e-4
-1.130, 1.355e-4
-1.131, 1.367e-4
-1.132, 1.399e-4
-1.133, 1.405e-4
-1.134, 1.383e-4
-1.135, 1.357e-4
-1.136, 1.372e-4
-1.137, 1.402e-4
-1.138, 1.421e-4
-1.139, 1.384e-4
-1.140, 1.364e-4
-1.141, 1.374e-4
-1.142, 1.405e-4
-1.143, 1.416e-4
-1.144, 1.386e-4
-1.145, 1.373e-4
-1.146, 1.383e-4
-1.147, 1.415e-4
-1.148, 1.427e-4
-1.149, 1.399e-4
-1.150, 1.375e-4
-1.151, 1.393e-4
-1.152, 1.422e-4
-1.153, 1.429e-4
-1.154, 1.409e-4
-1.155, 1.380e-4
-1.156, 1.402e-4
-1.157, 1.429e-4
-1.158, 1.441e-4
-1.159, 1.418e-4
-1.160, 1.391e-4
-1.161, 1.412e-4
-1.162, 1.439e-4
-1.163, 1.446e-4
-1.164, 1.430e-4
-1.165, 1.408e-4
-1.166, 1.419e-4
-1.167, 1.454e-4
-1.168, 1.460e-4
-1.169, 1.439e-4
-1.170, 1.418e-4
-1.171, 1.433e-4
-1.172, 1.468e-4
-1.173, 1.478e-4
-1.174, 1.452e-4
-1.175, 1.439e-4
-1.176, 1.447e-4
-1.177, 1.505e-4
-1.178, 1.521e-4
-1.179, 1.482e-4
-1.180, 1.457e-4
-1.181, 1.471e-4
-1.182, 1.499e-4
-1.183, 1.528e-4
-1.184, 1.487e-4
-1.185, 1.472e-4
-1.186, 1.492e-4
-1.187, 1.534e-4
-1.188, 1.548e-4
-1.189, 1.515e-4
-1.190, 1.507e-4
-1.191, 1.517e-4
-1.192, 1.557e-4
-1.193, 1.568e-4
-1.194, 1.552e-4
-1.195, 1.536e-4
-1.196, 1.554e-4
-1.197, 1.601e-4
-1.198, 1.603e-4
-1.199, 1.587e-4
-1.200, 1.568e-4
-1.201, 1.589e-4
-1.202, 1.632e-4
-1.203, 1.646e-4
-1.204, 1.633e-4
-1.205, 1.617e-4
-1.206, 1.646e-4
-1.207, 1.680e-4
-1.208, 1.693e-4
-1.209, 1.679e-4
-1.210, 1.668e-4
-1.211, 1.684e-4
-1.212, 1.739e-4
-1.213, 1.752e-4
-1.214, 1.735e-4
-1.215, 1.727e-4
-1.216, 1.750e-4
-1.217, 1.800e-4
-1.218, 1.817e-4
-1.219, 1.798e-4
-1.220, 1.804e-4
-1.221, 1.824e-4
-1.222, 1.875e-4
-1.223, 1.893e-4
-1.224, 1.884e-4
-1.225, 1.882e-4
-1.226, 1.906e-4
-1.227, 1.961e-4
-1.228, 1.995e-4
-1.229, 2.003e-4
-1.230, 1.986e-4
-1.231, 2.021e-4
-1.232, 2.063e-4
-1.233, 2.095e-4
-1.234, 2.094e-4
-1.235, 2.090e-4
-1.236, 2.140e-4
-1.237, 2.194e-4
-1.238, 2.217e-4
-1.239, 2.222e-4
-1.240, 2.227e-4
-1.241, 2.275e-4
-1.242, 2.339e-4
-1.243, 2.381e-4
-1.244, 2.362e-4
-1.245, 2.391e-4
-1.246, 2.406e-4
-1.247, 2.510e-4
-1.248, 2.544e-4
-1.249, 2.552e-4
-1.250, 2.565e-4
-1.251, 2.628e-4
-1.252, 2.681e-4
-1.253, 2.745e-4
-1.254, 2.750e-4
-1.255, 2.785e-4
-1.256, 2.824e-4
-1.257, 2.921e-4
-1.258, 2.966e-4
-1.259, 2.992e-4
-1.260, 3.021e-4
-1.261, 3.086e-4
-1.262, 3.169e-4
-1.263, 3.243e-4
-1.264, 3.263e-4
-1.265, 3.300e-4
-1.266, 3.370e-4
-1.267, 3.443e-4
-1.268, 3.559e-4
-1.269, 3.587e-4
-1.270, 3.612e-4
-1.271, 3.707e-4
-1.272, 3.811e-4
-1.273, 3.886e-4
-1.274, 3.958e-4
-1.275, 3.985e-4
-1.276, 4.091e-4
-1.277, 4.205e-4
-1.278, 4.283e-4
-1.279, 4.351e-4
-1.280, 4.417e-4
-1.281, 4.520e-4
-1.282, 4.654e-4
-1.283, 4.745e-4
-1.284, 4.822e-4
-1.285, 4.904e-4
-1.286, 5.009e-4
-1.287, 5.133e-4
-1.288, 5.263e-4
-1.289, 5.346e-4
-1.290, 5.447e-4
-1.291, 5.572e-4
-1.292, 5.731e-4
-1.293, 5.820e-4
-1.294, 5.952e-4
-1.295, 6.055e-4
-1.296, 6.206e-4
-1.297, 6.356e-4
-1.298, 6.498e-4
-1.299, 6.625e-4
-1.300, 6.749e-4
-1.301, 6.981e-4
-1.302, 7.102e-4
-1.303, 7.290e-4
-1.304, 7.374e-4
-1.305, 7.551e-4
-1.306, 7.719e-4
-1.307, 7.907e-4
-1.308, 8.084e-4
-1.309, 8.193e-4
-1.310, 8.374e-4
-1.311, 8.584e-4
-1.312, 8.800e-4
-1.313, 9.000e-4
-1.314, 9.173e-4
-1.315, 9.343e-4
-1.316, 9.540e-4
-1.317, 9.771e-4
-1.318, 9.995e-4
-1.319, 1.018e-3
-1.320, 1.041e-3
-1.321, 1.055e-3
-1.322, 1.092e-3
-1.323, 1.102e-3
-1.324, 1.133e-3
-1.325, 1.154e-3
-1.326, 1.176e-3
-1.327, 1.206e-3
-1.328, 1.232e-3
-1.329, 1.255e-3
-1.330, 1.278e-3
-1.331, 1.304e-3
-1.332, 1.336e-3
-1.333, 1.371e-3
-1.334, 1.385e-3
-1.335, 1.408e-3
-1.336, 1.441e-3
-1.337, 1.471e-3
-1.338, 1.506e-3
-1.339, 1.534e-3
-1.340, 1.561e-3
-1.341, 1.593e-3
-1.342, 1.626e-3
-1.343, 1.660e-3
-1.344, 1.684e-3
-1.345, 1.719e-3
-1.346, 1.749e-3
-1.347, 1.792e-3
-1.348, 1.824e-3
-1.349, 1.858e-3
-1.350, 1.887e-3
-1.351, 1.923e-3
-1.352, 1.964e-3
-1.353, 2.001e-3
-1.354, 2.029e-3
-1.355, 2.069e-3
-1.356, 2.106e-3
-1.357, 2.141e-3
-1.358, 2.191e-3
-1.359, 2.220e-3
-1.360, 2.258e-3
-1.361, 2.302e-3
-1.362, 2.342e-3
-1.363, 2.399e-3
-1.364, 2.416e-3
-1.365, 2.468e-3
-1.366, 2.502e-3
-1.367, 2.546e-3
-1.368, 2.590e-3
-1.369, 2.627e-3
-1.370, 2.691e-3
-1.371, 2.709e-3
-1.372, 2.775e-3
-1.373, 2.811e-3
-1.374, 2.867e-3
-1.375, 2.905e-3
-1.376, 2.944e-3
-1.377, 2.998e-3
-1.378, 3.040e-3
-1.379, 3.085e-3
-1.380, 3.131e-3
-1.381, 3.183e-3
-1.382, 3.237e-3
-1.383, 3.295e-3
-1.384, 3.342e-3
-1.385, 3.367e-3
-1.386, 3.425e-3
-1.387, 3.491e-3
-1.388, 3.528e-3
-1.389, 3.606e-3
-1.390, 3.634e-3
-1.391, 3.692e-3
-1.392, 3.736e-3
-1.393, 3.800e-3
-1.394, 3.825e-3
-1.395, 3.895e-3
-1.396, 3.948e-3
-1.397, 3.996e-3
-1.398, 4.060e-3
-1.399, 4.111e-3
-1.400, 4.081e-3
-1.399, 3.983e-3
-1.398, 3.911e-3
-1.397, 3.858e-3
-1.396, 3.777e-3
-1.395, 3.724e-3
-1.394, 3.674e-3
-1.393, 3.612e-3
-1.392, 3.577e-3
-1.391, 3.503e-3
-1.390, 3.444e-3
-1.389, 3.387e-3
-1.388, 3.343e-3
-1.387, 3.282e-3
-1.386, 3.224e-3
-1.385, 3.183e-3
-1.384, 3.118e-3
-1.383, 3.071e-3
-1.382, 3.018e-3
-1.381, 2.967e-3
-1.380, 2.914e-3
-1.379, 2.860e-3
-1.378, 2.820e-3
-1.377, 2.763e-3
-1.376, 2.720e-3
-1.375, 2.668e-3
-1.374, 2.623e-3
-1.373, 2.588e-3
-1.372, 2.534e-3
-1.371, 2.486e-3
-1.370, 2.432e-3
-1.369, 2.402e-3
-1.368, 2.350e-3
-1.367, 2.303e-3
-1.366, 2.271e-3
-1.365, 2.226e-3
-1.364, 2.180e-3
-1.363, 2.130e-3
-1.362, 2.101e-3
-1.361, 2.049e-3
-1.360, 2.012e-3
-1.359, 1.971e-3
-1.358, 1.936e-3
-1.357, 1.893e-3
-1.356, 1.857e-3
-1.355, 1.818e-3
-1.354, 1.787e-3
-1.353, 1.746e-3
-1.352, 1.710e-3
-1.351, 1.671e-3
-1.350, 1.633e-3
-1.349, 1.599e-3
-1.348, 1.570e-3
-1.347, 1.541e-3
-1.346, 1.501e-3
-1.345, 1.473e-3
-1.344, 1.433e-3
-1.343, 1.409e-3
-1.342, 1.375e-3
-1.341, 1.343e-3
-1.340, 1.310e-3
-1.339, 1.271e-3
-1.338, 1.246e-3
-1.337, 1.223e-3
-1.336, 1.188e-3
-1.335, 1.162e-3
-1.334, 1.136e-3
-1.333, 1.111e-3
-1.332, 1.081e-3
-1.331, 1.051e-3
-1.330, 1.023e-3
-1.329, 1.005e-3
-1.328, 9.844e-4
-1.327, 9.525e-4
-1.326, 9.282e-4
-1.325, 9.008e-4
-1.324, 8.779e-4
-1.323, 8.552e-4
-1.322, 8.328e-4
-1.321, 8.068e-4
-1.320, 7.844e-4
-1.319, 7.598e-4
-1.318, 7.451e-4
-1.317, 7.217e-4
-1.316, 7.024e-4
-1.315, 6.758e-4
-1.314, 6.579e-4
-1.313, 6.438e-4
-1.312, 6.217e-4
-1.311, 6.008e-4
-1.310, 5.799e-4
-1.309, 5.623e-4
-1.308, 5.492e-4
-1.307, 5.311e-4
-1.306, 5.090e-4
-1.305, 4.926e-4
-1.304, 4.788e-4
-1.303, 4.637e-4
-1.302, 4.498e-4
-1.301, 4.283e-4
-1.300, 4.117e-4
-1.299, 3.980e-4
-1.298, 3.889e-4
-1.297, 3.732e-4
-1.296, 3.578e-4
-1.295, 3.421e-4
-1.294, 3.289e-4
-1.293, 3.199e-4
-1.292, 3.058e-4
-1.291, 2.926e-4
-1.290, 2.766e-4
-1.289, 2.670e-4
-1.288, 2.600e-4
-1.287, 2.485e-4
-1.286, 2.337e-4
-1.285, 2.202e-4
-1.284, 2.109e-4
-1.283, 2.036e-4
-1.282, 1.940e-4
-1.281, 1.814e-4
-1.280, 1.697e-4
-1.279, 1.618e-4
-1.278, 1.562e-4
-1.277, 1.470e-4
-1.276, 1.357e-4
-1.275, 1.257e-4
-1.274, 1.187e-4
-1.273, 1.142e-4
-1.272, 1.062e-4
-1.271, 9.580e-5
-1.270, 8.657e-5
-1.269, 8.096e-5
-1.268, 7.674e-5
-1.267, 6.983e-5
-1.266, 6.062e-5
-1.265, 5.208e-5
-1.264, 4.758e-5
-1.263, 4.429e-5
-1.262, 3.808e-5
-1.261, 3.027e-5
-1.260, 2.221e-5
-1.259, 1.841e-5
-1.258, 1.623e-5
-1.257, 1.079e-5
-1.256, 3.225e-6
-1.255, -3.719e-6
-1.254, -6.810e-6
-1.253, -8.277e-6
-1.252, -1.300e-5
-1.251, -1.980e-5
-1.250, -2.576e-5
-1.249, -2.904e-5
-1.248, -2.890e-5
-1.247, -3.344e-5
-1.246, -4.036e-5
-1.245, -4.529e-5
-1.244, -4.738e-5
-1.243, -4.785e-5
-1.242, -5.079e-5
-1.241, -5.708e-5
-1.240, -6.138e-5
-1.239, -6.284e-5
-1.238, -6.326e-5
-1.237, -6.573e-5
-1.236, -7.146e-5
-1.235, -7.627e-5
-1.234, -7.678e-5
-1.233, -7.641e-5
-1.232, -7.844e-5
-1.231, -8.377e-5
-1.230, -8.797e-5
-1.229, -8.994e-5
-1.228, -8.861e-5
-1.227, -9.014e-5
-1.226, -9.447e-5
-1.225, -9.857e-5
-1.224, -9.784e-5
-1.223, -9.690e-5
-1.222, -9.929e-5
-1.221, -1.028e-4
-1.220, -1.071e-4
-1.219, -1.063e-4
-1.218, -1.052e-4
-1.217, -1.073e-4
-1.216, -1.103e-4
-1.215, -1.133e-4
-1.214, -1.135e-4
-1.213, -1.115e-4
-1.212, -1.129e-4
-1.211, -1.166e-4
-1.210, -1.197e-4
-1.209, -1.199e-4
-1.208, -1.169e-4
-1.207, -1.185e-4
-1.206, -1.218e-4
-1.205, -1.247e-4
-1.204, -1.243e-4
-1.203, -1.218e-4
-1.202, -1.226e-4
-1.201, -1.268e-4
-1.200, -1.288e-4
-1.199, -1.283e-4
-1.198, -1.258e-4
-1.197, -1.267e-4
-1.196, -1.304e-4
-1.195, -1.323e-4
-1.194, -1.309e-4
-1.193, -1.291e-4
-1.192, -1.290e-4
-1.191, -1.331e-4
-1.190, -1.351e-4
-1.189, -1.343e-4
-1.188, -1.319e-4
-1.187, -1.320e-4
-1.186, -1.354e-4
-1.185, -1.379e-4
-1.184, -1.361e-4
-1.183, -1.337e-4
-1.182, -1.346e-4
-1.181, -1.370e-4
-1.180, -1.397e-4
-1.179, -1.386e-4
-1.178, -1.353e-4
-1.177, -1.370e-4
-1.176, -1.398e-4
-1.175, -1.423e-4
-1.174, -1.403e-4
-1.173, -1.374e-4
-1.172, -1.372e-4
-1.171, -1.400e-4
-1.170, -1.433e-4
-1.169, -1.409e-4
-1.168, -1.382e-4
-1.167, -1.392e-4
-1.166, -1.421e-4
-1.165, -1.435e-4
-1.164, -1.425e-4
-1.163, -1.396e-4
-1.162, -1.399e-4
-1.161, -1.427e-4
-1.160, -1.447e-4
-1.159, -1.431e-4
-1.158, -1.406e-4
-1.157, -1.407e-4
-1.156, -1.440e-4
-1.155, -1.456e-4
-1.154, -1.442e-4
-1.153, -1.414e-4
-1.152, -1.415e-4
-1.151, -1.442e-4
-1.150, -1.465e-4
-1.149, -1.441e-4
-1.148, -1.422e-4
-1.147, -1.423e-4
-1.146, -1.459e-4
-1.145, -1.466e-4
-1.144, -1.449e-4
-1.143, -1.420e-4
-1.142, -1.435e-4
-1.141, -1.457e-4
-1.140, -1.474e-4
-1.139, -1.458e-4
-1.138, -1.433e-4
-1.137, -1.442e-4
-1.136, -1.459e-4
-1.135, -1.480e-4
-1.134, -1.458e-4
-1.133, -1.431e-4
-1.132, -1.434e-4
-1.131, -1.473e-4
-1.130, -1.483e-4
-1.129, -1.466e-4
-1.128, -1.446e-4
-1.127, -1.449e-4
-1.126, -1.486e-4
-1.125, -1.490e-4
-1.124, -1.475e-4
-1.123, -1.453e-4
-1.122, -1.437e-4
-1.121, -1.480e-4
-1.120, -1.489e-4
-1.119, -1.485e-4
-1.118, -1.455e-4
-1.117, -1.458e-4
-1.116, -1.485e-4
-1.115, -1.499e-4
-1.114, -1.478e-4
-1.113, -1.457e-4
-1.112, -1.457e-4
-1.111, -1.491e-4
-1.110, -1.509e-4
-1.109, -1.491e-4
-1.108, -1.464e-4
-1.107, -1.466e-4
-1.106, -1.496e-4
-1.105, -1.514e-4
-1.104, -1.495e-4
-1.103, -1.468e-4
-1.102, -1.476e-4
-1.101, -1.505e-4
-1.100, -1.522e-4
-1.099, -1.504e-4
-1.098, -1.473e-4
-1.097, -1.481e-4
-1.096, -1.503e-4
-1.095, -1.527e-4
-1.094, -1.513e-4
-1.093, -1.480e-4
-1.092, -1.499e-4
-1.091, -1.509e-4
-1.090, -1.541e-4
-1.089, -1.520e-4
-1.088, -1.492e-4
-1.087, -1.493e-4
-1.086, -1.529e-4
-1.085, -1.547e-4
-1.084, -1.523e-4
-1.083, -1.507e-4
-1.082, -1.501e-4
-1.081, -1.541e-4
-1.080, -1.555e-4
-1.079, -1.534e-4
-1.078, -1.517e-4
-1.077, -1.518e-4
-1.076, -1.556e-4
-1.075, -1.570e-4
-1.074, -1.549e-4
-1.073, -1.535e-4
-1.072, -1.526e-4
-1.071, -1.563e-4
-1.070, -1.582e-4
-1.069, -1.563e-4
-1.068, -1.542e-4
-1.067, -1.546e-4
-1.066, -1.572e-4
-1.065, -1.602e-4
-1.064, -1.580e-4
-1.063, -1.556e-4
-1.062, -1.570e-4
-1.061, -1.595e-4
-1.060, -1.616e-4
-1.059, -1.598e-4
-1.058, -1.579e-4
-1.057, -1.584e-4
-1.056, -1.617e-4
-1.055, -1.638e-4
-1.054, -1.625e-4
-1.053, -1.599e-4
-1.052, -1.616e-4
-1.051, -1.638e-4
-1.050, -1.662e-4
-1.049, -1.654e-4
-1.048, -1.626e-4
-1.047, -1.637e-4
-1.046, -1.678e-4
-1.045, -1.691e-4
-1.044, -1.680e-4
-1.043, -1.656e-4
-1.042, -1.668e-4
-1.041, -1.708e-4
-1.040, -1.726e-4
-1.039, -1.721e-4
-1.038, -1.699e-4
-1.037, -1.705e-4
-1.036, -1.740e-4
-1.035, -1.766e-4
-1.034, -1.752e-4
-1.033, -1.729e-4
-1.032, -1.746e-4
-1.031, -1.782e-4
-1.030, -1.819e-4
-1.029, -1.796e-4
-1.028, -1.780e-4
-1.027, -1.796e-4
-1.026, -1.837e-4
-1.025, -1.855e-4
-1.024, -1.858e-4
-1.023, -1.829e-4
-1.022, -1.855e-4
-1.021, -1.889e-4
-1.020, -1.919e-4
-1.019, -1.912e-4
-1.018, -1.896e-4
-1.017, -1.917e-4
-1.016, -1.951e-4
-1.015, -1.981e-4
-1.014, -1.977e-4
-1.013, -1.966e-4
-1.012, -1.989e-4
-1.011, -2.030e-4
-1.010, -2.062e-4
-1.009, -2.068e-4
-1.008, -2.050e-4
-1.007, -2.071e-4
-1.006, -2.120e-4
-1.005, -2.152e-4
-1.004, -2.161e-4
-1.003, -2.168e-4
-1.002, -2.184e-4
-1.001, -2.227e-4
