Potential V vs RHE, Current mA cm-2
0.013299999999999867,-0.02341347201276636
0.012299999999999978,-0.06360542004193205
0.011299999999999866,-0.08571735765882257
0.010299999999999976,-0.10243924522322731
0.009299999999999864,-0.11749177345379128
0.008299999999999974,-0.13067688276853343
0.007299999999999862,-0.14387613919627423
0.006299999999999972,-0.15618412750510002
0.00529999999999986,-0.16764328903400685
0.0042999999999999705,-0.17853656604296764
0.0032999999999998586,-0.18971278531190142
0.0022999999999999687,-0.20131341797079472
0.0012999999999998568,-0.212065223849769
0.00029999999999996696,-0.22225114520879727
-0.000700000000000145,-0.23300295108777153
-0.0017000000000000348,-0.24403769922671883
-0.0027000000000001467,-0.2547895051056931
-0.0037000000000000366,-0.2651168975947079
-0.0047000000000001485,-0.2768590013835877
-0.005700000000000038,-0.2874693361325754
-0.00670000000000015,-0.2989284976614822
-0.00770000000000004,-0.31123648597030806
-0.008700000000000152,-0.32269564749921487
-0.009700000000000042,-0.3352865780680137
-0.010700000000000154,-0.3473116241168665
-0.011700000000000044,-0.35961961242569235
-0.012700000000000156,-0.3733423120343832
-0.013700000000000045,-0.38565030034320896
-0.014700000000000157,-0.3989485865619403
-0.015700000000000047,-0.4118224593907122
-0.01670000000000016,-0.4248378033494705
-0.01770000000000005,-0.43898491634812087
-0.01870000000000016,-0.4521417314368657
-0.01970000000000005,-0.465157075395624
-0.020700000000000163,-0.47817241935438237
-0.021700000000000053,-0.4911877633131407
-0.022700000000000164,-0.5046275206618586
-0.023700000000000054,-0.5169355089706844
-0.024700000000000166,-0.5293849684094968
-0.025700000000000056,-0.5416929567183226
-0.026700000000000168,-0.5531521182472294
-0.027700000000000058,-0.5663089333359742
-0.02870000000000017,-0.5784754505148135
-0.02970000000000006,-0.5889443141338148
-0.03070000000000017,-0.6011108313126541
-0.03170000000000006,-0.6118626371916284
-0.03270000000000017,-0.6234632698505217
-0.03370000000000006,-0.6343565468594824
-0.034700000000000175,-0.6439765836985646
-0.035700000000000065,-0.6540210339276065
-0.03670000000000018,-0.6646313686765942
-0.03770000000000007,-0.6739684632557035
-0.03870000000000018,-0.6847202691346778
-0.03970000000000007,-0.694057363713787
-0.04070000000000018,-0.7038188716828558
-0.04170000000000007,-0.713438908521938
-0.04270000000000018,-0.7220686474511148
-0.04370000000000007,-0.732537511070116
-0.044700000000000184,-0.7414501922592658
-0.045700000000000074,-0.74937257553851
-0.046700000000000186,-0.7591340835075786
-0.047700000000000076,-0.7673394090467959
-0.04870000000000019,-0.7772423881458511
-0.04970000000000008,-0.7855891848150548
-0.05070000000000019,-0.7933700969643125
-0.05170000000000008,-0.8018583647635027
-0.05270000000000019,-0.81006369030272
-0.05370000000000008,-0.8188349003618833
-0.05470000000000019,-0.826898754771114
-0.05570000000000008,-0.8346796669203717
-0.056700000000000195,-0.8426020501996159
-0.057700000000000085,-0.8513732602587791
-0.058700000000000196,-0.8588712301480638
-0.059700000000000086,-0.866793613427308
-0.0607000000000002,-0.8744330544465793
-0.06170000000000009,-0.8829213222457692
-0.0627000000000002,-0.8912681189149732
-0.06370000000000009,-0.8993319733242039
-0.0647000000000002,-0.9062640586935425
-0.06570000000000009,-0.9141864419727868
-0.0667000000000002,-0.9208355850821524
-0.0677000000000001,-0.9284750261014234
-0.0687000000000002,-0.9365388805106541
-0.0697000000000001,-0.943753908139966
-0.07070000000000021,-0.9512518780292506
-0.0717000000000001,-0.9583254345285759
-0.07270000000000021,-0.965964875547847
-0.0737000000000001,-0.9737457876971048
-0.07470000000000021,-0.9802534596764839
-0.0757000000000001,-0.9877514295657687
-0.07670000000000021,-0.9948249860650937
-0.0777000000000001,-1.0023229559543785
-0.07870000000000021,-1.0102453392336226
-0.0797000000000001,-1.0177433091229073
-0.08070000000000022,-1.023826567712327
-0.0817000000000001,-1.0317489509915712
-0.08270000000000022,-1.0376907384510043
-0.08370000000000011,-1.0457545928602352
-0.08470000000000022,-1.0526866782295738
-0.08570000000000011,-1.059477292468926
-0.08670000000000022,-1.066692320098238
-0.08770000000000011,-1.0733414632076033
-0.08870000000000022,-1.0804150197069284
-0.08970000000000011,-1.0883374029861725
-0.09070000000000022,-1.0942791904456057
-0.09170000000000011,-1.101069804684958
-0.09270000000000023,-1.1080018900542967
-0.09370000000000012,-1.115358388813595
-0.09470000000000023,-1.1232807720928393
-0.09570000000000012,-1.1292225595522725
-0.09670000000000023,-1.1351643470117054
-0.09770000000000012,-1.1430867302909495
-0.09870000000000023,-1.1495944022703288
-0.09970000000000012,-1.156385016509681
-0.10070000000000023,-1.1637415152689792
-0.10170000000000012,-1.1694003604684393
-0.10270000000000024,-1.176332445837778
-0.10370000000000013,-1.1821327621672248
-0.10470000000000024,-1.189772203186496
-0.10570000000000013,-1.195996932905902
-0.10670000000000024,-1.2017972492353488
-0.10770000000000013,-1.2094366902546199
-0.10870000000000024,-1.216510246753945
-0.10970000000000013,-1.2228764476033378
-0.11070000000000024,-1.2295255907127036
-0.11170000000000013,-1.2360332626920827
-0.11270000000000002,-1.2428238769314346
-0.11370000000000013,-1.2503218468207193
-0.11470000000000002,-1.2556977497602064
-0.11570000000000014,-1.2630542485195047
-0.11670000000000003,-1.2697033916288705
-0.11770000000000014,-1.2762110636082498
-0.11870000000000003,-1.2839919757575073
-0.11970000000000014,-1.289792292086954
-0.12070000000000003,-1.2967243774562924
-0.12170000000000014,-1.3026661649157256
-0.12270000000000003,-1.310305605934997
-0.12370000000000014,-1.317096220174349
-0.12470000000000003,-1.3234624210237418
-0.12570000000000014,-1.3302530352630941
-0.12670000000000003,-1.3361948227225273
-0.12770000000000015,-1.3425610235719199
-0.12870000000000004,-1.3489272244213124
-0.12970000000000015,-1.3564251943105972
-0.13070000000000004,-1.3625084529000169
-0.13170000000000015,-1.367601413579531
-0.13270000000000004,-1.3745334989488698
-0.13370000000000015,-1.3804752864083027
-0.13470000000000004,-1.386982958387682
-0.13570000000000015,-1.3929247458471152
-0.13670000000000004,-1.3987250621765617
-0.13770000000000016,-1.4059400898058736
-0.13870000000000005,-1.41174040613532
-0.13970000000000016,-1.4189554337646317
-0.14070000000000005,-1.426028990263957
-0.14170000000000016,-1.4302731241635522
-0.14270000000000005,-1.4387613919627424
-0.14370000000000016,-1.4444202371622026
-0.14470000000000005,-1.4514937936615278
-0.14570000000000016,-1.4571526388609877
-0.14670000000000005,-1.4642261953603128
-0.14770000000000016,-1.471299751859638
-0.14870000000000005,-1.4769585970590984
-0.14970000000000017,-1.4826174422585585
-0.15070000000000006,-1.4896909987578837
-0.15170000000000017,-1.4967645552572086
-0.15270000000000006,-1.5038381117565338
-0.15370000000000017,-1.5094969569559942
-0.15470000000000006,-1.5151558021554543
-0.15570000000000017,-1.5222293586547795
-0.15670000000000006,-1.5278882038542394
-0.15770000000000017,-1.5349617603535646
-0.15870000000000006,-1.54203531685289
-0.15970000000000018,-1.54769416205235
-0.16070000000000007,-1.5533530072518102
-0.16170000000000018,-1.5604265637511354
-0.16270000000000007,-1.5660854089505953
-0.16370000000000018,-1.5731589654499207
-0.16470000000000007,-1.580232521949246
-0.16570000000000018,-1.585891367148706
-0.16670000000000007,-1.5929649236480312
-0.16770000000000018,-1.6000384801473564
-0.16870000000000007,-1.6056973253468165
-0.16970000000000018,-1.6113561705462767
-0.17070000000000007,-1.6170150157457368
-0.17170000000000019,-1.6240885722450622
-0.17270000000000008,-1.6325768400442524
-0.1737000000000002,-1.6396503965435776
-0.17470000000000008,-1.6453092417430377
-0.1757000000000002,-1.6523827982423631
-0.17670000000000008,-1.658041643441823
-0.1777000000000002,-1.6651151999411482
-0.17870000000000008,-1.6707740451406083
-0.1797000000000002,-1.6792623129397986
-0.18070000000000008,-1.6849211581392587
-0.1817000000000002,-1.690580003338719
-0.18270000000000008,-1.6990682711379093
-0.1837000000000002,-1.7047271163373692
-0.1847000000000001,-1.7118006728366943
-0.1857000000000002,-1.7174595180361545
-0.1867000000000001,-1.7231183632356148
-0.1877000000000002,-1.7301919197349398
-0.1887000000000001,-1.7372654762342652
-0.1897000000000002,-1.7443390327335901
-0.1907000000000001,-1.7514125892329155
-0.1917000000000001,-1.7584861457322407
-0.19269999999999998,-1.7627302796318356
-0.1937000000000001,-1.771218547431026
-0.19469999999999998,-1.776877392630486
-0.1957000000000001,-1.7839509491298113
-0.19669999999999999,-1.7896097943292715
-0.1977000000000001,-1.7980980621284617
-0.1987,-1.8051716186277869
-0.1997000000000001,-1.813659886426977
-0.2007,-1.8207334429263025
-0.2017000000000001,-1.8278069994256272
-0.2027,-1.8348805559249526
-0.2037000000000001,-1.8419541124242775
-0.2047,-1.850442380223468
-0.2057000000000001,-1.8561012254229279
-0.2067,-1.8645894932221183
-0.2077000000000001,-1.8702483384215782
-0.2087,-1.8773218949209036
-0.2097000000000001,-1.884395451420229
-0.2107,-1.891469007919554
-0.2117000000000001,-1.8985425644188794
-0.2127,-1.9056161209182045
-0.2137000000000001,-1.9126896774175295
-0.2147,-1.92117794521672
-0.2157000000000001,-1.9296662130159101
-0.2167,-1.9367397695152353
-0.21770000000000012,-1.9438133260145605
-0.2187,-1.9508868825138854
-0.21970000000000012,-1.9579604390132106
-0.2207,-1.9650339955125358
-0.22170000000000012,-1.972107552011861
-0.2227,-1.980595819811051
-0.22370000000000012,-1.9890840876102414
-0.2247,-1.9961576441095665
-0.22570000000000012,-2.0032312006088917
-0.2267,-2.0103047571082175
-0.22770000000000012,-2.0187930249074073
-0.22870000000000001,-2.0286960040064623
-0.22970000000000013,-2.0343548492059225
-0.23070000000000002,-2.042843117005113
-0.23170000000000013,-2.049916673504438
-0.23270000000000002,-2.0569902300037635
-0.23370000000000013,-2.0668932091028185
-0.23470000000000002,-2.0753814769020087
-0.23570000000000013,-2.082455033401334
-0.23670000000000002,-2.0909433012005243
-0.2376999999999999,-2.0994315689997145
-0.23870000000000002,-2.1093345480987695
-0.2396999999999999,-2.116408104598095
-0.24070000000000003,-2.12348166109742
-0.24169999999999991,-2.133384640196476
-0.24270000000000003,-2.1404581966958003
-0.24369999999999992,-2.150361175794856
-0.24470000000000003,-2.158849443594046
-0.24569999999999992,-2.1673377113932366
-0.24670000000000003,-2.177240690492291
-0.24769999999999992,-2.1857289582914814
-0.24870000000000003,-2.194217226090672
-0.24969999999999992,-2.204120205189727
-0.25070000000000003,-2.2111937616890525
-0.2516999999999999,-2.2210967407881075
-0.25270000000000004,-2.230999719887163
-0.2536999999999999,-2.2394879876863527
-0.25470000000000004,-2.249390966785408
-0.2556999999999999,-2.2564645232847336
-0.25670000000000004,-2.2649527910839233
-0.25769999999999993,-2.2748557701829792
-0.25870000000000004,-2.284758749282034
-0.25969999999999993,-2.296076439680954
-0.26070000000000004,-2.30314999618028
-0.26169999999999993,-2.3130529752793345
-0.26270000000000004,-2.321541243078525
-0.26369999999999993,-2.33144422217758
-0.26470000000000005,-2.339932489976771
-0.26569999999999994,-2.351250180375691
-0.26670000000000005,-2.361153159474746
-0.26769999999999994,-2.3724708498736664
-0.26870000000000005,-2.382373828972722
-0.26969999999999994,-2.392276808071777
-0.27070000000000005,-2.4021797871708324
-0.27169999999999994,-2.412082766269888
-0.27270000000000005,-2.4219857453689424
-0.27369999999999994,-2.433303435767863
-0.27470000000000006,-2.4432064148669186
-0.27569999999999995,-2.4545241052658384
-0.27670000000000006,-2.463012373065029
-0.27769999999999995,-2.4743300634639493
-0.27870000000000006,-2.485647753862869
-0.27969999999999995,-2.49696544426179
-0.28070000000000006,-2.506868423360845
-0.28169999999999995,-2.518186113759765
-0.28270000000000006,-2.5309185154585507
-0.28369999999999995,-2.542236205857471
-0.28470000000000006,-2.5535538962563913
-0.28569999999999995,-2.5634568753554463
-0.28670000000000007,-2.5747745657543666
-0.28769999999999996,-2.586092256153287
-0.28870000000000007,-2.5988246578520724
-0.28969999999999996,-2.6115570595508575
-0.29070000000000007,-2.621460038649913
-0.29169999999999996,-2.634192440348698
-0.29270000000000007,-2.6469248420474836
-0.29369999999999996,-2.659657243746269
-0.2947000000000001,-2.6723896454450546
-0.29569999999999996,-2.6851220471438397
-0.2967000000000001,-2.69643973754276
-0.29769999999999996,-2.7105868505414104
-0.2987000000000001,-2.7247339635400607
-0.29969999999999997,-2.7360516539389814
-0.3007000000000001,-2.7487840556377665
-0.30169999999999997,-2.7615164573365516
-0.3027000000000001,-2.7742488590353367
-0.30369999999999997,-2.7869812607341222
-0.3047000000000001,-2.8025430850326374
-0.30569999999999997,-2.813860775431558
-0.3067000000000001,-2.8265931771303436
-0.3077,-2.842155001428859
-0.3087000000000001,-2.854887403127644
-0.3097,-2.867619804826429
-0.3107000000000001,-2.8831816291249446
-0.3117,-2.8959140308237297
-0.3127000000000001,-2.9100611438223805
-0.3137,-2.924208256821031
-0.3147000000000001,-2.938355369819681
-0.3157,-2.9539171941181968
-0.3167000000000001,-2.968064307116847
-0.3177,-2.9807967088156326
-0.3187000000000001,-2.997773244414013
-0.3197,-3.0119203574126634
-0.3207000000000001,-3.0274821817111786
-0.3217,-3.041629294709829
-0.3227000000000001,-3.055776407708479
-0.3237,-3.0713382320069944
-0.3247000000000001,-3.0883147676053753
-0.3257,-3.10104716930416
-0.3267000000000001,-3.1151942823028107
-0.3277,-3.129341395301461
-0.3287000000000001,-3.1449032195999767
-0.3297,-3.159050332598627
-0.3307000000000001,-3.174612156897142
-0.3317,-3.1887592698957925
-0.3327000000000001,-3.204321094194308
-0.3337,-3.2184682071929585
-0.3347000000000001,-3.2340300314914736
-0.3357,-3.2481771444901244
-0.3367000000000001,-3.2637389687886396
-0.3377,-3.279300793087155
-0.3387000000000001,-3.2920331947859403
-0.3397,-3.3090097303843207
-0.3407000000000001,-3.3245715546828363
-0.3417,-3.3401333789813514
-0.3427000000000001,-3.355695203279867
-0.3437,-3.371257027578382
-0.3447000000000001,-3.386818851876898
-0.3457,-3.400965964875548
-0.3467000000000001,-3.415113077874199
-0.3477,-3.430674902172714
-0.3487000000000001,-3.4462367264712297
-0.3497,-3.4603838394698796
-0.3507000000000001,-3.4745309524685304
-0.3517,-3.4900927767670455
-0.3527000000000001,-3.502825178465831
-0.3537,-3.5183870027643462
-0.3547000000000001,-3.532534115762996
-0.3557,-3.548095940061512
-0.35670000000000013,-3.562243053060162
-0.3577,-3.5778048773586777
-0.35870000000000013,-3.593366701657193
-0.3597,-3.6075138146558436
-0.36070000000000013,-3.623075638954359
-0.3617,-3.6386374632528744
-0.3626999999999999,-3.6527845762515243
-0.3637,-3.6683464005500404
-0.3646999999999999,-3.6824935135486903
-0.3657,-3.695225915247476
-0.3666999999999999,-3.710787739545991
-0.3677,-3.7235201412447765
-0.3686999999999999,-3.7390819655432916
-0.36970000000000003,-3.7546437898418072
-0.3706999999999999,-3.7673761915405932
-0.37170000000000003,-3.781523304539243
-0.3726999999999999,-3.795670417537894
-0.37370000000000003,-3.8098175305365434
-0.3746999999999999,-3.823964643535194
-0.37570000000000003,-3.8366970452339793
-0.3766999999999999,-3.849429446932765
-0.37770000000000004,-3.8635765599314156
-0.3786999999999999,-3.8777236729300655
-0.37970000000000004,-3.8904560746288515
-0.3806999999999999,-3.901773765027771
-0.38170000000000004,-3.9130914554266916
-0.38269999999999993,-3.9258238571254775
-0.38370000000000004,-3.9385562588242617
-0.38469999999999993,-3.9498739492231825
-0.38570000000000004,-3.9640210622218324
-0.38669999999999993,-3.9767534639206183
-0.38770000000000004,-3.988071154319539
-0.38869999999999993,-4.000803556018323
-0.38970000000000005,-4.0121212464172435
-0.39069999999999994,-4.026268359415894
-0.39170000000000005,-4.03900076111468
-0.39269999999999994,-4.050318451513601
-0.39370000000000005,-4.065880275812115
-0.39469999999999994,-4.078612677510901
-0.39570000000000005,-4.091345079209686
-0.39669999999999994,-4.101248058308742
-0.39770000000000005,-4.113980460007527
-0.39869999999999994,-4.128127573006177
-0.39970000000000006,-4.140859974704963
-0.40069999999999995,-4.1564217990034775
-0.40170000000000006,-4.167739489402398
-0.40269999999999995,-4.181886602401049
-0.40370000000000006,-4.194619004099834
-0.40469999999999995,-4.2087661170984845
-0.40570000000000006,-4.222913230097134
-0.40669999999999995,-4.239889765695515
-0.40770000000000006,-4.2526221673943
-0.40869999999999995,-4.2681839916928155
-0.40970000000000006,-4.285160527291196
-0.41069999999999995,-4.299307640289847
-0.41170000000000007,-4.314869464588361
-0.41269999999999996,-4.330431288886877
-0.41370000000000007,-4.348822535785122
-0.41469999999999996,-4.367213782683368
-0.41570000000000007,-4.384190318281749
-0.41669999999999996,-4.399752142580264
-0.41770000000000007,-4.41814338947851
-0.41869999999999996,-4.4379493476766205
-0.4197000000000001,-4.454925883275001
-0.42069999999999996,-4.474731841473111
-0.4217000000000001,-4.494537799671222
-0.42269999999999996,-4.512929046569467
-0.4237000000000001,-4.534149716067443
-0.42469999999999997,-4.551126251665823
-0.4257000000000001,-4.568102787264204
-0.42669999999999997,-4.5893234567621795
-0.4277000000000001,-4.6091294149602895
-0.42869999999999997,-4.636008929657725
-0.4297000000000001,-4.658644310455566
-0.43069999999999997,-4.684109113853137
-0.4317000000000001,-4.706744494650977
-0.4327,-4.732209298048548
-0.4337000000000001,-4.754844678846388
-0.4347,-4.778894770944094
-0.4357000000000001,-4.802944863041799
-0.4367,-4.8312390890391
-0.4377000000000001,-4.856703892436671
-0.4387,-4.882168695834241
-0.4397000000000001,-4.903389365332218
-0.4407,-4.928854168729788
-0.4417000000000001,-4.954318972127359
-0.4427,-4.985442620724389
-0.4437000000000001,-5.01656626932142
-0.4447,-5.043445784018855
-0.4457000000000001,-5.073154721316022
-0.4467,-5.102863658613187
-0.4477000000000001,-5.132572595910353
-0.4487,-5.163696244507384
-0.4497000000000001,-5.19906402700401
-0.4507,-5.22735825300131
-0.4517000000000001,-5.258481901598341
-0.4527,-5.289605550195372
-0.4537000000000001,-5.322143910092268
-0.4547,-5.3575116925888935
-0.4557000000000001,-5.3900500524857895
-0.4567,-5.4225884123826855
-0.4577000000000001,-5.457956194879311
-0.4587,-5.493323977375938
-0.4597000000000001,-5.528691759872564
-0.4607,-5.564059542369189
-0.4617000000000001,-5.602256747465545
-0.4627,-5.636209818662306
-0.4637000000000001,-5.675821735058527
-0.4647,-5.712604228855018
-0.4657000000000001,-5.752216145251239
-0.4667,-5.787583927747865
-0.4677000000000001,-5.82578113284422
-0.4687,-5.866807760540307
-0.4697000000000001,-5.903590254336798
-0.4707,-5.947446304632614
-0.4717000000000001,-5.989887643628566
-0.4727,-6.026670137425056
-0.4737000000000001,-6.066282053821277
-0.4747,-6.107308681517363
-0.4757000000000001,-6.152579443113044
-0.4767,-6.1907766482094
-0.4777000000000001,-6.2360474098050815
-0.4787,-6.281318171400763
-0.4797000000000001,-6.32517422169658
-0.4807,-6.37044498329226
-0.48170000000000013,-6.414301033588076
-0.4827,-6.460986506483622
-0.48370000000000013,-6.506257268079304
-0.4847,-6.55577216357458
-0.48570000000000013,-6.601042925170261
-0.4867,-6.651972531965402
-0.4876999999999999,-6.698658004860949
-0.4887,-6.74675818905636
-0.4896999999999999,-6.797687795851501
-0.4907,-6.842958557447183
-0.4916999999999999,-6.896717586842053
-0.4927,-6.949061904937061
-0.4936999999999999,-7.005650356931662
-0.49470000000000003,-7.053750541127073
-0.4956999999999999,-7.1089242818218095
-0.49670000000000003,-7.16268331121668
-0.4976999999999999,-7.219271763211282
-0.49870000000000003,-7.277274926505749
-0.4996999999999999,-7.332448667200485
-0.5007,-7.391866541794816
-0.5016999999999999,-7.4498697050892835
-0.5027,-7.506458157083885
-0.5036999999999999,-7.568705454277946
-0.5047,-7.6267086175724135
