Aug. 16, 2024   18:37:41
Cyclic Voltammetry
File: c:/users/guazh/data/20240813_batch_94_500/2024-08-15-exp106\exp106-2024-08-16t18_08_38-h2koh\exp106_cv_sr_700mvs_efin_-1900mv.bin
Data Source:  Experiment
Instrument Model:  CHI760E
Header: CV ran at 700 mVs
Note: 

Init E (V) = -1
High E (V) = -1
Low E (V) = -1.9
Final E (V) = -1
Init P/N = N
Scan Rate (V/s) = 0.7
Segment = 3
Sample Interval (V) = 0.001
Quiet Time (sec) = 2
Sensitivity (A/V) = 0.01
Comp R (ohm) = 2.1

Results:

Channel 1:
Segment 1:

Segment 2:

Segment 3:

Potential/V, Current/A

-1.000, 3.239e-6
-1.001, 6.322e-6
-1.002, 6.322e-6
-1.003, 6.322e-6
-1.004, 6.322e-6
-1.005, 6.322e-6
-1.006, 6.322e-6
-1.007, 9.405e-6
-1.008, 9.405e-6
-1.009, 9.405e-6
-1.010, 9.405e-6
-1.011, 9.405e-6
-1.012, 9.405e-6
-1.013, 9.405e-6
-1.014, 9.405e-6
-1.015, 9.405e-6
-1.016, 9.405e-6
-1.017, 9.405e-6
-1.018, 9.405e-6
-1.019, 9.405e-6
-1.020, 9.405e-6
-1.021, 1.249e-5
-1.022, 1.249e-5
-1.023, 1.249e-5
-1.024, 1.249e-5
-1.025, 9.405e-6
-1.026, 1.249e-5
-1.027, 1.249e-5
-1.028, 1.249e-5
-1.029, 1.249e-5
-1.030, 1.249e-5
-1.031, 1.249e-5
-1.032, 1.249e-5
-1.033, 1.249e-5
-1.034, 1.249e-5
-1.035, 1.249e-5
-1.036, 1.249e-5
-1.037, 1.249e-5
-1.038, 1.249e-5
-1.039, 1.249e-5
-1.040, 1.249e-5
-1.041, 1.249e-5
-1.042, 1.249e-5
-1.043, 1.249e-5
-1.044, 1.249e-5
-1.045, 1.249e-5
-1.046, 1.249e-5
-1.047, 1.249e-5
-1.048, 1.249e-5
-1.049, 1.249e-5
-1.050, 1.249e-5
-1.051, 1.249e-5
-1.052, 1.249e-5
-1.053, 1.249e-5
-1.054, 1.249e-5
-1.055, 1.557e-5
-1.056, 1.249e-5
-1.057, 1.249e-5
-1.058, 1.249e-5
-1.059, 1.557e-5
-1.060, 1.557e-5
-1.061, 1.249e-5
-1.062, 1.557e-5
-1.063, 1.557e-5
-1.064, 1.557e-5
-1.065, 1.557e-5
-1.066, 1.557e-5
-1.067, 1.557e-5
-1.068, 1.557e-5
-1.069, 1.557e-5
-1.070, 1.557e-5
-1.071, 1.557e-5
-1.072, 1.557e-5
-1.073, 1.557e-5
-1.074, 1.557e-5
-1.075, 1.557e-5
-1.076, 1.557e-5
-1.077, 1.557e-5
-1.078, 1.557e-5
-1.079, 1.557e-5
-1.080, 1.557e-5
-1.081, 1.557e-5
-1.082, 1.557e-5
-1.083, 1.557e-5
-1.084, 1.557e-5
-1.085, 1.557e-5
-1.086, 1.557e-5
-1.087, 1.557e-5
-1.088, 1.557e-5
-1.089, 1.557e-5
-1.090, 1.557e-5
-1.091, 1.557e-5
-1.092, 1.557e-5
-1.093, 1.557e-5
-1.094, 1.865e-5
-1.095, 1.557e-5
-1.096, 1.557e-5
-1.097, 1.557e-5
-1.098, 1.557e-5
-1.099, 1.557e-5
-1.100, 1.865e-5
-1.101, 1.557e-5
-1.102, 1.865e-5
-1.103, 1.865e-5
-1.104, 1.865e-5
-1.105, 1.865e-5
-1.106, 1.865e-5
-1.107, 1.865e-5
-1.108, 1.557e-5
-1.109, 1.865e-5
-1.110, 1.865e-5
-1.111, 1.865e-5
-1.112, 1.865e-5
-1.113, 1.865e-5
-1.114, 1.865e-5
-1.115, 1.865e-5
-1.116, 1.865e-5
-1.117, 1.865e-5
-1.118, 1.865e-5
-1.119, 1.865e-5
-1.120, 1.865e-5
-1.121, 1.865e-5
-1.122, 1.865e-5
-1.123, 1.865e-5
-1.124, 1.865e-5
-1.125, 1.865e-5
-1.126, 1.865e-5
-1.127, 1.865e-5
-1.128, 1.865e-5
-1.129, 1.865e-5
-1.130, 1.865e-5
-1.131, 1.865e-5
-1.132, 1.865e-5
-1.133, 1.865e-5
-1.134, 1.865e-5
-1.135, 1.865e-5
-1.136, 1.865e-5
-1.137, 1.865e-5
-1.138, 1.865e-5
-1.139, 1.865e-5
-1.140, 2.174e-5
-1.141, 2.174e-5
-1.142, 1.865e-5
-1.143, 2.174e-5
-1.144, 2.174e-5
-1.145, 2.174e-5
-1.146, 2.174e-5
-1.147, 2.174e-5
-1.148, 2.174e-5
-1.149, 1.865e-5
-1.150, 2.174e-5
-1.151, 2.174e-5
-1.152, 2.174e-5
-1.153, 2.174e-5
-1.154, 2.174e-5
-1.155, 2.174e-5
-1.156, 2.174e-5
-1.157, 2.174e-5
-1.158, 2.174e-5
-1.159, 2.174e-5
-1.160, 2.174e-5
-1.161, 2.174e-5
-1.162, 2.174e-5
-1.163, 2.174e-5
-1.164, 2.174e-5
-1.165, 2.174e-5
-1.166, 2.174e-5
-1.167, 2.174e-5
-1.168, 2.174e-5
-1.169, 2.174e-5
-1.170, 2.174e-5
-1.171, 2.174e-5
-1.172, 2.174e-5
-1.173, 2.174e-5
-1.174, 2.174e-5
-1.175, 2.174e-5
-1.176, 2.482e-5
-1.177, 2.174e-5
-1.178, 2.174e-5
-1.179, 2.174e-5
-1.180, 2.174e-5
-1.181, 2.482e-5
-1.182, 2.482e-5
-1.183, 2.482e-5
-1.184, 2.174e-5
-1.185, 2.174e-5
-1.186, 2.174e-5
-1.187, 2.174e-5
-1.188, 2.482e-5
-1.189, 2.482e-5
-1.190, 2.482e-5
-1.191, 2.482e-5
-1.192, 2.482e-5
-1.193, 2.482e-5
-1.194, 2.482e-5
-1.195, 2.482e-5
-1.196, 2.482e-5
-1.197, 2.482e-5
-1.198, 2.482e-5
-1.199, 2.482e-5
-1.200, 2.482e-5
-1.201, 2.482e-5
-1.202, 2.482e-5
-1.203, 2.482e-5
-1.204, 2.482e-5
-1.205, 2.482e-5
-1.206, 2.482e-5
-1.207, 2.482e-5
-1.208, 2.482e-5
-1.209, 2.482e-5
-1.210, 2.482e-5
-1.211, 2.482e-5
-1.212, 2.482e-5
-1.213, 2.482e-5
-1.214, 2.482e-5
-1.215, 2.482e-5
-1.216, 2.482e-5
-1.217, 2.482e-5
-1.218, 2.482e-5
-1.219, 2.482e-5
-1.220, 2.482e-5
-1.221, 2.482e-5
-1.222, 2.790e-5
-1.223, 2.790e-5
-1.224, 2.482e-5
-1.225, 2.790e-5
-1.226, 2.482e-5
-1.227, 2.482e-5
-1.228, 2.482e-5
-1.229, 2.790e-5
-1.230, 2.790e-5
-1.231, 2.790e-5
-1.232, 2.790e-5
-1.233, 2.790e-5
-1.234, 2.790e-5
-1.235, 2.790e-5
-1.236, 2.790e-5
-1.237, 2.790e-5
-1.238, 2.790e-5
-1.239, 2.790e-5
-1.240, 2.790e-5
-1.241, 2.790e-5
-1.242, 2.790e-5
-1.243, 2.790e-5
-1.244, 2.790e-5
-1.245, 2.790e-5
-1.246, 2.790e-5
-1.247, 2.790e-5
-1.248, 2.790e-5
-1.249, 2.790e-5
-1.250, 2.790e-5
-1.251, 2.790e-5
-1.252, 2.790e-5
-1.253, 2.790e-5
-1.254, 2.790e-5
-1.255, 2.790e-5
-1.256, 2.790e-5
-1.257, 2.790e-5
-1.258, 2.790e-5
-1.259, 2.790e-5
-1.260, 3.099e-5
-1.261, 2.790e-5
-1.262, 2.790e-5
-1.263, 2.790e-5
-1.264, 2.790e-5
-1.265, 3.099e-5
-1.266, 3.099e-5
-1.267, 2.790e-5
-1.268, 2.790e-5
-1.269, 3.099e-5
-1.270, 3.099e-5
-1.271, 2.790e-5
-1.272, 3.099e-5
-1.273, 2.790e-5
-1.274, 3.099e-5
-1.275, 3.099e-5
-1.276, 3.099e-5
-1.277, 3.099e-5
-1.278, 3.099e-5
-1.279, 3.099e-5
-1.280, 3.099e-5
-1.281, 3.099e-5
-1.282, 3.099e-5
-1.283, 3.099e-5
-1.284, 3.099e-5
-1.285, 3.099e-5
-1.286, 3.099e-5
-1.287, 3.099e-5
-1.288, 3.099e-5
-1.289, 3.099e-5
-1.290, 3.099e-5
-1.291, 3.099e-5
-1.292, 3.099e-5
-1.293, 3.407e-5
-1.294, 3.099e-5
-1.295, 3.099e-5
-1.296, 3.407e-5
-1.297, 3.099e-5
-1.298, 3.099e-5
-1.299, 3.407e-5
-1.300, 3.407e-5
-1.301, 3.407e-5
-1.302, 3.407e-5
-1.303, 3.099e-5
-1.304, 3.407e-5
-1.305, 3.099e-5
-1.306, 3.407e-5
-1.307, 3.407e-5
-1.308, 3.407e-5
-1.309, 3.099e-5
-1.310, 3.407e-5
-1.311, 3.407e-5
-1.312, 3.407e-5
-1.313, 3.407e-5
-1.314, 3.407e-5
-1.315, 3.407e-5
-1.316, 3.407e-5
-1.317, 3.407e-5
-1.318, 3.407e-5
-1.319, 3.407e-5
-1.320, 3.407e-5
-1.321, 3.407e-5
-1.322, 3.407e-5
-1.323, 3.407e-5
-1.324, 3.407e-5
-1.325, 3.407e-5
-1.326, 3.407e-5
-1.327, 3.407e-5
-1.328, 3.407e-5
-1.329, 3.407e-5
-1.330, 3.407e-5
-1.331, 3.407e-5
-1.332, 3.407e-5
-1.333, 3.407e-5
-1.334, 3.407e-5
-1.335, 3.715e-5
-1.336, 3.407e-5
-1.337, 3.407e-5
-1.338, 3.407e-5
-1.339, 3.407e-5
-1.340, 3.715e-5
-1.341, 3.407e-5
-1.342, 3.715e-5
-1.343, 3.407e-5
-1.344, 3.715e-5
-1.345, 3.407e-5
-1.346, 3.407e-5
-1.347, 3.715e-5
-1.348, 3.715e-5
-1.349, 3.715e-5
-1.350, 3.715e-5
-1.351, 3.715e-5
-1.352, 3.715e-5
-1.353, 3.715e-5
-1.354, 3.715e-5
-1.355, 3.715e-5
-1.356, 3.715e-5
-1.357, 3.715e-5
-1.358, 3.715e-5
-1.359, 3.715e-5
-1.360, 3.715e-5
-1.361, 3.715e-5
-1.362, 4.024e-5
-1.363, 4.024e-5
-1.364, 3.715e-5
-1.365, 4.024e-5
-1.366, 4.024e-5
-1.367, 3.715e-5
-1.368, 4.024e-5
-1.369, 4.024e-5
-1.370, 4.024e-5
-1.371, 4.024e-5
-1.372, 4.024e-5
-1.373, 4.024e-5
-1.374, 4.024e-5
-1.375, 4.024e-5
-1.376, 4.024e-5
-1.377, 4.024e-5
-1.378, 4.024e-5
-1.379, 4.024e-5
-1.380, 4.024e-5
-1.381, 4.024e-5
-1.382, 4.024e-5
-1.383, 4.332e-5
-1.384, 4.332e-5
-1.385, 4.332e-5
-1.386, 4.332e-5
-1.387, 4.332e-5
-1.388, 4.024e-5
-1.389, 4.332e-5
-1.390, 4.332e-5
-1.391, 4.332e-5
-1.392, 4.332e-5
-1.393, 4.332e-5
-1.394, 4.332e-5
-1.395, 4.332e-5
-1.396, 4.332e-5
-1.397, 4.332e-5
-1.398, 4.332e-5
-1.399, 4.332e-5
-1.400, 4.332e-5
-1.401, 4.332e-5
-1.402, 4.332e-5
-1.403, 4.332e-5
-1.404, 4.332e-5
-1.405, 4.332e-5
-1.406, 4.332e-5
-1.407, 4.332e-5
-1.408, 4.332e-5
-1.409, 4.332e-5
-1.410, 4.332e-5
-1.411, 4.640e-5
-1.412, 4.640e-5
-1.413, 4.640e-5
-1.414, 4.640e-5
-1.415, 4.640e-5
-1.416, 4.640e-5
-1.417, 4.640e-5
-1.418, 4.640e-5
-1.419, 4.640e-5
-1.420, 4.640e-5
-1.421, 4.949e-5
-1.422, 4.640e-5
-1.423, 4.640e-5
-1.424, 4.640e-5
-1.425, 4.640e-5
-1.426, 4.949e-5
-1.427, 4.640e-5
-1.428, 4.949e-5
-1.429, 4.949e-5
-1.430, 4.949e-5
-1.431, 4.949e-5
-1.432, 4.949e-5
-1.433, 4.949e-5
-1.434, 4.949e-5
-1.435, 4.949e-5
-1.436, 4.949e-5
-1.437, 5.257e-5
-1.438, 5.257e-5
-1.439, 5.257e-5
-1.440, 5.257e-5
-1.441, 5.257e-5
-1.442, 5.257e-5
-1.443, 5.257e-5
-1.444, 5.257e-5
-1.445, 5.257e-5
-1.446, 5.257e-5
-1.447, 5.257e-5
-1.448, 5.257e-5
-1.449, 5.565e-5
-1.450, 5.565e-5
-1.451, 5.565e-5
-1.452, 5.565e-5
-1.453, 5.565e-5
-1.454, 5.565e-5
-1.455, 5.565e-5
-1.456, 5.565e-5
-1.457, 5.565e-5
-1.458, 5.565e-5
-1.459, 5.565e-5
-1.460, 5.565e-5
-1.461, 5.873e-5
-1.462, 5.873e-5
-1.463, 5.873e-5
-1.464, 5.873e-5
-1.465, 5.873e-5
-1.466, 5.873e-5
-1.467, 5.873e-5
-1.468, 6.182e-5
-1.469, 5.873e-5
-1.470, 5.873e-5
-1.471, 5.873e-5
-1.472, 5.873e-5
-1.473, 6.182e-5
-1.474, 6.182e-5
-1.475, 6.182e-5
-1.476, 6.182e-5
-1.477, 6.182e-5
-1.478, 6.182e-5
-1.479, 6.182e-5
-1.480, 6.182e-5
-1.481, 6.182e-5
-1.482, 6.490e-5
-1.483, 6.182e-5
-1.484, 6.490e-5
-1.485, 6.490e-5
-1.486, 6.490e-5
-1.487, 6.490e-5
-1.488, 6.490e-5
-1.489, 6.490e-5
-1.490, 6.490e-5
-1.491, 6.798e-5
-1.492, 6.798e-5
-1.493, 6.798e-5
-1.494, 6.798e-5
-1.495, 6.798e-5
-1.496, 6.798e-5
-1.497, 6.798e-5
-1.498, 6.798e-5
-1.499, 7.107e-5
-1.500, 7.107e-5
-1.501, 7.107e-5
-1.502, 7.107e-5
-1.503, 7.107e-5
-1.504, 7.107e-5
-1.505, 7.107e-5
-1.506, 7.415e-5
-1.507, 7.415e-5
-1.508, 7.415e-5
-1.509, 7.415e-5
-1.510, 7.415e-5
-1.511, 7.415e-5
-1.512, 7.415e-5
-1.513, 7.415e-5
-1.514, 7.415e-5
-1.515, 7.415e-5
-1.516, 7.723e-5
-1.517, 7.723e-5
-1.518, 7.723e-5
-1.519, 7.723e-5
-1.520, 7.723e-5
-1.521, 7.723e-5
-1.522, 8.032e-5
-1.523, 8.032e-5
-1.524, 8.340e-5
-1.525, 8.032e-5
-1.526, 8.032e-5
-1.527, 8.340e-5
-1.528, 8.340e-5
-1.529, 8.340e-5
-1.530, 8.340e-5
-1.531, 8.340e-5
-1.532, 8.648e-5
-1.533, 8.648e-5
-1.534, 8.648e-5
-1.535, 8.648e-5
-1.536, 8.648e-5
-1.537, 8.648e-5
-1.538, 8.957e-5
-1.539, 8.648e-5
-1.540, 8.957e-5
-1.541, 8.957e-5
-1.542, 8.957e-5
-1.543, 9.265e-5
-1.544, 9.265e-5
-1.545, 9.265e-5
-1.546, 9.265e-5
-1.547, 9.265e-5
-1.548, 9.265e-5
-1.549, 9.573e-5
-1.550, 9.573e-5
-1.551, 9.573e-5
-1.552, 9.573e-5
-1.553, 9.882e-5
-1.554, 9.882e-5
-1.555, 9.882e-5
-1.556, 9.882e-5
-1.557, 1.019e-4
-1.558, 1.019e-4
-1.559, 1.019e-4
-1.560, 1.019e-4
-1.561, 1.050e-4
-1.562, 1.050e-4
-1.563, 1.050e-4
-1.564, 1.081e-4
-1.565, 1.081e-4
-1.566, 1.081e-4
-1.567, 1.111e-4
-1.568, 1.111e-4
-1.569, 1.111e-4
-1.570, 1.142e-4
-1.571, 1.142e-4
-1.572, 1.142e-4
-1.573, 1.173e-4
-1.574, 1.173e-4
-1.575, 1.173e-4
-1.576, 1.173e-4
-1.577, 1.204e-4
-1.578, 1.204e-4
-1.579, 1.204e-4
-1.580, 1.204e-4
-1.581, 1.235e-4
-1.582, 1.235e-4
-1.583, 1.235e-4
-1.584, 1.266e-4
-1.585, 1.266e-4
-1.586, 1.296e-4
-1.587, 1.296e-4
-1.588, 1.327e-4
-1.589, 1.327e-4
-1.590, 1.358e-4
-1.591, 1.358e-4
-1.592, 1.389e-4
-1.593, 1.389e-4
-1.594, 1.420e-4
-1.595, 1.420e-4
-1.596, 1.420e-4
-1.597, 1.451e-4
-1.598, 1.451e-4
-1.599, 1.481e-4
-1.600, 1.512e-4
-1.601, 1.543e-4
-1.602, 1.543e-4
-1.603, 1.543e-4
-1.604, 1.574e-4
-1.605, 1.574e-4
-1.606, 1.605e-4
-1.607, 1.636e-4
-1.608, 1.666e-4
-1.609, 1.666e-4
-1.610, 1.697e-4
-1.611, 1.728e-4
-1.612, 1.728e-4
-1.613, 1.759e-4
-1.614, 1.759e-4
-1.615, 1.790e-4
-1.616, 1.790e-4
-1.617, 1.821e-4
-1.618, 1.851e-4
-1.619, 1.882e-4
-1.620, 1.882e-4
-1.621, 1.913e-4
-1.622, 1.944e-4
-1.623, 1.975e-4
-1.624, 2.006e-4
-1.625, 2.006e-4
-1.626, 2.067e-4
-1.627, 2.067e-4
-1.628, 2.129e-4
-1.629, 2.160e-4
-1.630, 2.160e-4
-1.631, 2.191e-4
-1.632, 2.221e-4
-1.633, 2.283e-4
-1.634, 2.314e-4
-1.635, 2.345e-4
-1.636, 2.376e-4
-1.637, 2.406e-4
-1.638, 2.437e-4
-1.639, 2.499e-4
-1.640, 2.530e-4
-1.641, 2.561e-4
-1.642, 2.591e-4
-1.643, 2.622e-4
-1.644, 2.653e-4
-1.645, 2.684e-4
-1.646, 2.746e-4
-1.647, 2.776e-4
-1.648, 2.838e-4
-1.649, 2.900e-4
-1.650, 2.931e-4
-1.651, 2.961e-4
-1.652, 3.023e-4
-1.653, 3.085e-4
-1.654, 3.115e-4
-1.655, 3.177e-4
-1.656, 3.208e-4
-1.657, 3.270e-4
-1.658, 3.300e-4
-1.659, 3.362e-4
-1.660, 3.424e-4
-1.661, 3.485e-4
-1.662, 3.547e-4
-1.663, 3.578e-4
-1.664, 3.640e-4
-1.665, 3.732e-4
-1.666, 3.763e-4
-1.667, 3.825e-4
-1.668, 3.886e-4
-1.669, 3.948e-4
-1.670, 4.010e-4
-1.671, 4.071e-4
-1.672, 4.133e-4
-1.673, 4.195e-4
-1.674, 4.256e-4
-1.675, 4.349e-4
-1.676, 4.410e-4
-1.677, 4.472e-4
-1.678, 4.534e-4
-1.679, 4.595e-4
-1.680, 4.688e-4
-1.681, 4.750e-4
-1.682, 4.811e-4
-1.683, 4.904e-4
-1.684, 4.965e-4
-1.685, 5.027e-4
-1.686, 5.120e-4
-1.687, 5.181e-4
-1.688, 5.274e-4
-1.689, 5.366e-4
-1.690, 5.428e-4
-1.691, 5.520e-4
-1.692, 5.613e-4
-1.693, 5.674e-4
-1.694, 5.767e-4
-1.695, 5.859e-4
-1.696, 5.921e-4
-1.697, 6.014e-4
-1.698, 6.106e-4
-1.699, 6.199e-4
-1.700, 6.291e-4
-1.701, 6.384e-4
-1.702, 6.476e-4
-1.703, 6.569e-4
-1.704, 6.661e-4
-1.705, 6.784e-4
-1.706, 6.877e-4
-1.707, 6.969e-4
-1.708, 7.062e-4
-1.709, 7.154e-4
-1.710, 7.278e-4
-1.711, 7.370e-4
-1.712, 7.463e-4
-1.713, 7.586e-4
-1.714, 7.679e-4
-1.715, 7.802e-4
-1.716, 7.925e-4
-1.717, 8.018e-4
-1.718, 8.141e-4
-1.719, 8.264e-4
-1.720, 8.357e-4
-1.721, 8.480e-4
-1.722, 8.603e-4
-1.723, 8.758e-4
-1.724, 8.881e-4
-1.725, 9.004e-4
-1.726, 9.128e-4
-1.727, 9.251e-4
-1.728, 9.343e-4
-1.729, 9.467e-4
-1.730, 9.621e-4
-1.731, 9.744e-4
-1.732, 9.898e-4
-1.733, 1.002e-3
-1.734, 1.018e-3
-1.735, 1.030e-3
-1.736, 1.045e-3
-1.737, 1.061e-3
-1.738, 1.073e-3
-1.739, 1.092e-3
-1.740, 1.104e-3
-1.741, 1.122e-3
-1.742, 1.135e-3
-1.743, 1.153e-3
-1.744, 1.169e-3
-1.745, 1.184e-3
-1.746, 1.203e-3
-1.747, 1.218e-3
-1.748, 1.233e-3
-1.749, 1.249e-3
-1.750, 1.270e-3
-1.751, 1.289e-3
-1.752, 1.304e-3
-1.753, 1.326e-3
-1.754, 1.341e-3
-1.755, 1.360e-3
-1.756, 1.378e-3
-1.757, 1.400e-3
-1.758, 1.418e-3
-1.759, 1.437e-3
-1.760, 1.458e-3
-1.761, 1.477e-3
-1.762, 1.499e-3
-1.763, 1.520e-3
-1.764, 1.539e-3
-1.765, 1.560e-3
-1.766, 1.585e-3
-1.767, 1.606e-3
-1.768, 1.628e-3
-1.769, 1.653e-3
-1.770, 1.674e-3
-1.771, 1.696e-3
-1.772, 1.721e-3
-1.773, 1.745e-3
-1.774, 1.770e-3
-1.775, 1.798e-3
-1.776, 1.819e-3
-1.777, 1.847e-3
-1.778, 1.872e-3
-1.779, 1.896e-3
-1.780, 1.924e-3
-1.781, 1.952e-3
-1.782, 1.980e-3
-1.783, 2.007e-3
-1.784, 2.035e-3
-1.785, 2.063e-3
-1.786, 2.094e-3
-1.787, 2.121e-3
-1.788, 2.149e-3
-1.789, 2.180e-3
-1.790, 2.208e-3
-1.791, 2.235e-3
-1.792, 2.266e-3
-1.793, 2.297e-3
-1.794, 2.331e-3
-1.795, 2.362e-3
-1.796, 2.393e-3
-1.797, 2.423e-3
-1.798, 2.454e-3
-1.799, 2.485e-3
-1.800, 2.519e-3
-1.801, 2.553e-3
-1.802, 2.587e-3
-1.803, 2.618e-3
-1.804, 2.655e-3
-1.805, 2.689e-3
-1.806, 2.723e-3
-1.807, 2.760e-3
-1.808, 2.793e-3
-1.809, 2.830e-3
-1.810, 2.867e-3
-1.811, 2.908e-3
-1.812, 2.941e-3
-1.813, 2.975e-3
-1.814, 3.015e-3
-1.815, 3.052e-3
-1.816, 3.089e-3
-1.817, 3.126e-3
-1.818, 3.167e-3
-1.819, 3.207e-3
-1.820, 3.247e-3
-1.821, 3.287e-3
-1.822, 3.330e-3
-1.823, 3.370e-3
-1.824, 3.410e-3
-1.825, 3.450e-3
-1.826, 3.490e-3
-1.827, 3.530e-3
-1.828, 3.570e-3
-1.829, 3.610e-3
-1.830, 3.651e-3
-1.831, 3.694e-3
-1.832, 3.734e-3
-1.833, 3.777e-3
-1.834, 3.820e-3
-1.835, 3.863e-3
-1.836, 3.910e-3
-1.837, 3.953e-3
-1.838, 3.999e-3
-1.839, 4.042e-3
-1.840, 4.088e-3
-1.841, 4.138e-3
-1.842, 4.184e-3
-1.843, 4.230e-3
-1.844, 4.280e-3
-1.845, 4.326e-3
-1.846, 4.375e-3
-1.847, 4.421e-3
-1.848, 4.471e-3
-1.849, 4.520e-3
-1.850, 4.566e-3
-1.851, 4.616e-3
-1.852, 4.665e-3
-1.853, 4.714e-3
-1.854, 4.767e-3
-1.855, 4.816e-3
-1.856, 4.868e-3
-1.857, 4.921e-3
-1.858, 4.973e-3
-1.859, 5.023e-3
-1.860, 5.072e-3
-1.861, 5.121e-3
-1.862, 5.171e-3
-1.863, 5.223e-3
-1.864, 5.275e-3
-1.865, 5.325e-3
-1.866, 5.374e-3
-1.867, 5.430e-3
-1.868, 5.479e-3
-1.869, 5.534e-3
-1.870, 5.587e-3
-1.871, 5.642e-3
-1.872, 5.695e-3
-1.873, 5.750e-3
-1.874, 5.806e-3
-1.875, 5.861e-3
-1.876, 5.920e-3
-1.877, 5.972e-3
-1.878, 6.031e-3
-1.879, 6.089e-3
-1.880, 6.148e-3
-1.881, 6.200e-3
-1.882, 6.259e-3
-1.883, 6.314e-3
-1.884, 6.373e-3
-1.885, 6.432e-3
-1.886, 6.487e-3
-1.887, 6.549e-3
-1.888, 6.607e-3
-1.889, 6.669e-3
-1.890, 6.731e-3
-1.891, 6.792e-3
-1.892, 6.854e-3
-1.893, 6.916e-3
-1.894, 6.974e-3
-1.895, 7.033e-3
-1.896, 7.088e-3
-1.897, 7.147e-3
-1.898, 7.205e-3
-1.899, 7.261e-3
-1.900, 7.282e-3
-1.899, 7.245e-3
-1.898, 7.205e-3
-1.897, 7.162e-3
-1.896, 7.122e-3
-1.895, 7.079e-3
-1.894, 7.036e-3
-1.893, 6.996e-3
-1.892, 6.953e-3
-1.891, 6.909e-3
-1.890, 6.866e-3
-1.889, 6.820e-3
-1.888, 6.777e-3
-1.887, 6.731e-3
-1.886, 6.687e-3
-1.885, 6.644e-3
-1.884, 6.598e-3
-1.883, 6.558e-3
-1.882, 6.515e-3
-1.881, 6.472e-3
-1.880, 6.428e-3
-1.879, 6.385e-3
-1.878, 6.342e-3
-1.877, 6.299e-3
-1.876, 6.253e-3
-1.875, 6.210e-3
-1.874, 6.166e-3
-1.873, 6.123e-3
-1.872, 6.080e-3
-1.871, 6.034e-3
-1.870, 5.991e-3
-1.869, 5.947e-3
-1.868, 5.904e-3
-1.867, 5.861e-3
-1.866, 5.818e-3
-1.865, 5.775e-3
-1.864, 5.732e-3
-1.863, 5.688e-3
-1.862, 5.648e-3
-1.861, 5.608e-3
-1.860, 5.565e-3
-1.859, 5.525e-3
-1.858, 5.485e-3
-1.857, 5.445e-3
-1.856, 5.405e-3
-1.855, 5.365e-3
-1.854, 5.325e-3
-1.853, 5.288e-3
-1.852, 5.248e-3
-1.851, 5.208e-3
-1.850, 5.167e-3
-1.849, 5.130e-3
-1.848, 5.090e-3
-1.847, 5.053e-3
-1.846, 5.013e-3
-1.845, 4.973e-3
-1.844, 4.933e-3
-1.843, 4.893e-3
-1.842, 4.856e-3
-1.841, 4.819e-3
-1.840, 4.782e-3
-1.839, 4.742e-3
-1.838, 4.705e-3
-1.837, 4.668e-3
-1.836, 4.631e-3
-1.835, 4.591e-3
-1.834, 4.551e-3
-1.833, 4.511e-3
-1.832, 4.471e-3
-1.831, 4.434e-3
-1.830, 4.394e-3
-1.829, 4.357e-3
-1.828, 4.320e-3
-1.827, 4.280e-3
-1.826, 4.243e-3
-1.825, 4.206e-3
-1.824, 4.169e-3
-1.823, 4.132e-3
-1.822, 4.098e-3
-1.821, 4.058e-3
-1.820, 4.021e-3
-1.819, 3.987e-3
-1.818, 3.950e-3
-1.817, 3.913e-3
-1.816, 3.876e-3
-1.815, 3.839e-3
-1.814, 3.805e-3
-1.813, 3.771e-3
-1.812, 3.734e-3
-1.811, 3.700e-3
-1.810, 3.663e-3
-1.809, 3.629e-3
-1.808, 3.592e-3
-1.807, 3.558e-3
-1.806, 3.521e-3
-1.805, 3.487e-3
-1.804, 3.453e-3
-1.803, 3.419e-3
-1.802, 3.385e-3
-1.801, 3.351e-3
-1.800, 3.318e-3
-1.799, 3.284e-3
-1.798, 3.250e-3
-1.797, 3.216e-3
-1.796, 3.182e-3
-1.795, 3.145e-3
-1.794, 3.111e-3
-1.793, 3.077e-3
-1.792, 3.043e-3
-1.791, 3.012e-3
-1.790, 2.978e-3
-1.789, 2.948e-3
-1.788, 2.914e-3
-1.787, 2.883e-3
-1.786, 2.852e-3
-1.785, 2.821e-3
-1.784, 2.790e-3
-1.783, 2.756e-3
-1.782, 2.726e-3
-1.781, 2.695e-3
-1.780, 2.664e-3
-1.779, 2.636e-3
-1.778, 2.605e-3
-1.777, 2.581e-3
-1.776, 2.553e-3
-1.775, 2.522e-3
-1.774, 2.488e-3
-1.773, 2.464e-3
-1.772, 2.436e-3
-1.771, 2.408e-3
-1.770, 2.380e-3
-1.769, 2.353e-3
-1.768, 2.328e-3
-1.767, 2.300e-3
-1.766, 2.272e-3
-1.765, 2.245e-3
-1.764, 2.220e-3
-1.763, 2.192e-3
-1.762, 2.168e-3
-1.761, 2.140e-3
-1.760, 2.112e-3
-1.759, 2.087e-3
-1.758, 2.063e-3
-1.757, 2.035e-3
-1.756, 2.010e-3
-1.755, 1.986e-3
-1.754, 1.961e-3
-1.753, 1.936e-3
-1.752, 1.912e-3
-1.751, 1.887e-3
-1.750, 1.865e-3
-1.749, 1.841e-3
-1.748, 1.819e-3
-1.747, 1.795e-3
-1.746, 1.773e-3
-1.745, 1.748e-3
-1.744, 1.727e-3
-1.743, 1.705e-3
-1.742, 1.680e-3
-1.741, 1.659e-3
-1.740, 1.637e-3
-1.739, 1.616e-3
-1.738, 1.594e-3
-1.737, 1.573e-3
-1.736, 1.548e-3
-1.735, 1.529e-3
-1.734, 1.508e-3
-1.733, 1.486e-3
-1.732, 1.465e-3
-1.731, 1.446e-3
-1.730, 1.425e-3
-1.729, 1.406e-3
-1.728, 1.388e-3
-1.727, 1.366e-3
-1.726, 1.347e-3
-1.725, 1.329e-3
-1.724, 1.307e-3
-1.723, 1.289e-3
-1.722, 1.270e-3
-1.721, 1.252e-3
-1.720, 1.233e-3
-1.719, 1.218e-3
-1.718, 1.199e-3
-1.717, 1.181e-3
-1.716, 1.162e-3
-1.715, 1.147e-3
-1.714, 1.129e-3
-1.713, 1.110e-3
-1.712, 1.095e-3
-1.711, 1.076e-3
-1.710, 1.061e-3
-1.709, 1.045e-3
-1.708, 1.027e-3
-1.707, 1.011e-3
-1.706, 9.960e-4
-1.705, 9.837e-4
-1.704, 9.652e-4
-1.703, 9.498e-4
-1.702, 9.374e-4
-1.701, 9.220e-4
-1.700, 9.066e-4
-1.699, 8.912e-4
-1.698, 8.758e-4
-1.697, 8.634e-4
-1.696, 8.511e-4
-1.695, 8.357e-4
-1.694, 8.233e-4
-1.693, 8.079e-4
-1.692, 7.956e-4
-1.691, 7.802e-4
-1.690, 7.679e-4
-1.689, 7.555e-4
-1.688, 7.432e-4
-1.687, 7.309e-4
-1.686, 7.185e-4
-1.685, 7.062e-4
-1.684, 6.939e-4
-1.683, 6.815e-4
-1.682, 6.692e-4
-1.681, 6.599e-4
-1.680, 6.476e-4
-1.679, 6.384e-4
-1.678, 6.260e-4
-1.677, 6.168e-4
-1.676, 6.044e-4
-1.675, 5.952e-4
-1.674, 5.859e-4
-1.673, 5.736e-4
-1.672, 5.644e-4
-1.671, 5.551e-4
-1.670, 5.459e-4
-1.669, 5.335e-4
-1.668, 5.243e-4
-1.667, 5.181e-4
-1.666, 5.058e-4
-1.665, 4.965e-4
-1.664, 4.904e-4
-1.663, 4.811e-4
-1.662, 4.719e-4
-1.661, 4.626e-4
-1.660, 4.565e-4
-1.659, 4.472e-4
-1.658, 4.410e-4
-1.657, 4.318e-4
-1.656, 4.256e-4
-1.655, 4.164e-4
-1.654, 4.102e-4
-1.653, 4.010e-4
-1.652, 3.948e-4
-1.651, 3.886e-4
-1.650, 3.825e-4
-1.649, 3.763e-4
-1.648, 3.670e-4
-1.647, 3.609e-4
-1.646, 3.547e-4
-1.645, 3.485e-4
-1.644, 3.424e-4
-1.643, 3.362e-4
-1.642, 3.300e-4
-1.641, 3.239e-4
-1.640, 3.177e-4
-1.639, 3.115e-4
-1.638, 3.054e-4
-1.637, 3.023e-4
-1.636, 2.961e-4
-1.635, 2.900e-4
-1.634, 2.869e-4
-1.633, 2.807e-4
-1.632, 2.746e-4
-1.631, 2.715e-4
-1.630, 2.653e-4
-1.629, 2.622e-4
-1.628, 2.561e-4
-1.627, 2.530e-4
-1.626, 2.499e-4
-1.625, 2.437e-4
-1.624, 2.406e-4
-1.623, 2.345e-4
-1.622, 2.314e-4
-1.621, 2.283e-4
-1.620, 2.221e-4
-1.619, 2.191e-4
-1.618, 2.160e-4
-1.617, 2.129e-4
-1.616, 2.067e-4
-1.615, 2.036e-4
-1.614, 2.006e-4
-1.613, 1.975e-4
-1.612, 1.944e-4
-1.611, 1.913e-4
-1.610, 1.882e-4
-1.609, 1.851e-4
-1.608, 1.790e-4
-1.607, 1.759e-4
-1.606, 1.728e-4
-1.605, 1.728e-4
-1.604, 1.697e-4
-1.603, 1.666e-4
-1.602, 1.636e-4
-1.601, 1.605e-4
-1.600, 1.574e-4
-1.599, 1.543e-4
-1.598, 1.512e-4
-1.597, 1.481e-4
-1.596, 1.451e-4
-1.595, 1.451e-4
-1.594, 1.420e-4
-1.593, 1.389e-4
-1.592, 1.358e-4
-1.591, 1.327e-4
-1.590, 1.327e-4
-1.589, 1.296e-4
-1.588, 1.266e-4
-1.587, 1.235e-4
-1.586, 1.235e-4
-1.585, 1.204e-4
-1.584, 1.173e-4
-1.583, 1.173e-4
-1.582, 1.142e-4
-1.581, 1.142e-4
-1.580, 1.111e-4
-1.579, 1.081e-4
-1.578, 1.050e-4
-1.577, 1.050e-4
-1.576, 1.050e-4
-1.575, 1.019e-4
-1.574, 9.882e-5
-1.573, 9.882e-5
-1.572, 9.573e-5
-1.571, 9.265e-5
-1.570, 9.265e-5
-1.569, 8.957e-5
-1.568, 8.957e-5
-1.567, 8.648e-5
-1.566, 8.648e-5
-1.565, 8.340e-5
-1.564, 8.340e-5
-1.563, 8.340e-5
-1.562, 8.032e-5
-1.561, 8.032e-5
-1.560, 7.723e-5
-1.559, 7.723e-5
-1.558, 7.415e-5
-1.557, 7.415e-5
-1.556, 7.107e-5
-1.555, 7.107e-5
-1.554, 7.107e-5
-1.553, 6.798e-5
-1.552, 6.798e-5
-1.551, 6.490e-5
-1.550, 6.490e-5
-1.549, 6.182e-5
-1.548, 6.182e-5
-1.547, 6.182e-5
-1.546, 5.873e-5
-1.545, 5.873e-5
-1.544, 5.565e-5
-1.543, 5.565e-5
-1.542, 5.565e-5
-1.541, 5.565e-5
-1.540, 5.257e-5
-1.539, 5.257e-5
-1.538, 5.257e-5
-1.537, 4.949e-5
-1.536, 4.949e-5
-1.535, 4.640e-5
-1.534, 4.640e-5
-1.533, 4.640e-5
-1.532, 4.640e-5
-1.531, 4.332e-5
-1.530, 4.332e-5
-1.529, 4.332e-5
-1.528, 4.024e-5
-1.527, 4.024e-5
-1.526, 4.024e-5
-1.525, 4.024e-5
-1.524, 3.715e-5
-1.523, 3.715e-5
-1.522, 3.715e-5
-1.521, 3.715e-5
-1.520, 3.407e-5
-1.519, 3.407e-5
-1.518, 3.407e-5
-1.517, 3.099e-5
-1.516, 3.099e-5
-1.515, 3.099e-5
-1.514, 3.099e-5
-1.513, 2.790e-5
-1.512, 2.790e-5
-1.511, 2.790e-5
-1.510, 2.790e-5
-1.509, 2.790e-5
-1.508, 2.482e-5
-1.507, 2.482e-5
-1.506, 2.482e-5
-1.505, 2.482e-5
-1.504, 2.174e-5
-1.503, 2.174e-5
-1.502, 2.174e-5
-1.501, 1.865e-5
-1.500, 1.865e-5
-1.499, 1.865e-5
-1.498, 1.865e-5
-1.497, 1.865e-5
-1.496, 1.865e-5
-1.495, 1.865e-5
-1.494, 1.557e-5
-1.493, 1.557e-5
-1.492, 1.557e-5
-1.491, 1.557e-5
-1.490, 1.557e-5
-1.489, 1.557e-5
-1.488, 1.249e-5
-1.487, 1.249e-5
-1.486, 1.249e-5
-1.485, 1.249e-5
-1.484, 1.249e-5
-1.483, 1.249e-5
-1.482, 9.405e-6
-1.481, 9.405e-6
-1.480, 9.405e-6
-1.479, 9.405e-6
-1.478, 9.405e-6
-1.477, 9.405e-6
-1.476, 6.322e-6
-1.475, 9.405e-6
-1.474, 6.322e-6
-1.473, 6.322e-6
-1.472, 6.322e-6
-1.471, 6.322e-6
-1.470, 6.322e-6
-1.469, 6.322e-6
-1.468, 6.322e-6
-1.467, 3.239e-6
-1.466, 3.239e-6
-1.465, 3.239e-6
-1.464, 3.239e-6
-1.463, 3.239e-6
-1.462, 3.239e-6
-1.461, 3.239e-6
-1.460, 3.239e-6
-1.459, 3.239e-6
-1.458, 3.239e-6
-1.457, 3.239e-6
-1.456, 1.559e-7
-1.455, 1.559e-7
-1.454, 1.559e-7
-1.453, 1.559e-7
-1.452, 1.559e-7
-1.451, 1.559e-7
-1.450, 1.559e-7
-1.449, 1.559e-7
-1.448, 1.559e-7
-1.447, 1.559e-7
-1.446, 1.559e-7
-1.445, -2.927e-6
-1.444, -2.927e-6
-1.443, -2.927e-6
-1.442, -2.927e-6
-1.441, -2.927e-6
-1.440, -2.927e-6
-1.439, -2.927e-6
-1.438, -2.927e-6
-1.437, -2.927e-6
-1.436, -2.927e-6
-1.435, -2.927e-6
-1.434, -2.927e-6
-1.433, -6.010e-6
-1.432, -2.927e-6
-1.431, -6.010e-6
-1.430, -2.927e-6
-1.429, -6.010e-6
-1.428, -6.010e-6
-1.427, -6.010e-6
-1.426, -6.010e-6
-1.425, -6.010e-6
-1.424, -6.010e-6
-1.423, -6.010e-6
-1.422, -6.010e-6
-1.421, -6.010e-6
-1.420, -6.010e-6
-1.419, -6.010e-6
-1.418, -6.010e-6
-1.417, -6.010e-6
-1.416, -6.010e-6
-1.415, -6.010e-6
-1.414, -6.010e-6
-1.413, -9.093e-6
-1.412, -9.093e-6
-1.411, -9.093e-6
-1.410, -6.010e-6
-1.409, -9.093e-6
-1.408, -9.093e-6
-1.407, -9.093e-6
-1.406, -9.093e-6
-1.405, -9.093e-6
-1.404, -9.093e-6
-1.403, -9.093e-6
-1.402, -9.093e-6
-1.401, -9.093e-6
-1.400, -9.093e-6
-1.399, -9.093e-6
-1.398, -1.218e-5
-1.397, -1.218e-5
-1.396, -9.093e-6
-1.395, -1.218e-5
-1.394, -9.093e-6
-1.393, -9.093e-6
-1.392, -9.093e-6
-1.391, -1.218e-5
-1.390, -1.218e-5
-1.389, -1.218e-5
-1.388, -1.218e-5
-1.387, -9.093e-6
-1.386, -1.218e-5
-1.385, -1.218e-5
-1.384, -1.218e-5
-1.383, -1.218e-5
-1.382, -1.218e-5
-1.381, -1.218e-5
-1.380, -1.218e-5
-1.379, -1.218e-5
-1.378, -1.218e-5
-1.377, -1.218e-5
-1.376, -1.218e-5
-1.375, -1.218e-5
-1.374, -1.218e-5
-1.373, -1.218e-5
-1.372, -1.218e-5
-1.371, -1.218e-5
-1.370, -1.218e-5
-1.369, -1.218e-5
-1.368, -1.218e-5
-1.367, -1.218e-5
-1.366, -1.526e-5
-1.365, -1.218e-5
-1.364, -1.218e-5
-1.363, -1.526e-5
-1.362, -1.526e-5
-1.361, -1.526e-5
-1.360, -1.218e-5
-1.359, -1.218e-5
-1.358, -1.526e-5
-1.357, -1.526e-5
-1.356, -1.526e-5
-1.355, -1.526e-5
-1.354, -1.526e-5
-1.353, -1.526e-5
-1.352, -1.526e-5
-1.351, -1.526e-5
-1.350, -1.526e-5
-1.349, -1.526e-5
-1.348, -1.526e-5
-1.347, -1.526e-5
-1.346, -1.526e-5
-1.345, -1.526e-5
-1.344, -1.526e-5
-1.343, -1.526e-5
-1.342, -1.526e-5
-1.341, -1.526e-5
-1.340, -1.526e-5
-1.339, -1.526e-5
-1.338, -1.526e-5
-1.337, -1.526e-5
-1.336, -1.526e-5
-1.335, -1.526e-5
-1.334, -1.526e-5
-1.333, -1.526e-5
-1.332, -1.834e-5
-1.331, -1.526e-5
-1.330, -1.526e-5
-1.329, -1.526e-5
-1.328, -1.526e-5
-1.327, -1.834e-5
-1.326, -1.526e-5
-1.325, -1.526e-5
-1.324, -1.526e-5
-1.323, -1.526e-5
-1.322, -1.526e-5
-1.321, -1.834e-5
-1.320, -1.526e-5
-1.319, -1.834e-5
-1.318, -1.526e-5
-1.317, -1.526e-5
-1.316, -1.834e-5
-1.315, -1.834e-5
-1.314, -1.834e-5
-1.313, -1.834e-5
-1.312, -1.834e-5
-1.311, -1.834e-5
-1.310, -1.834e-5
-1.309, -1.834e-5
-1.308, -1.834e-5
-1.307, -1.834e-5
-1.306, -1.834e-5
-1.305, -1.834e-5
-1.304, -1.834e-5
-1.303, -1.834e-5
-1.302, -1.834e-5
-1.301, -1.834e-5
-1.300, -1.834e-5
-1.299, -1.834e-5
-1.298, -1.834e-5
-1.297, -1.834e-5
-1.296, -1.834e-5
-1.295, -1.834e-5
-1.294, -1.834e-5
-1.293, -1.834e-5
-1.292, -1.834e-5
-1.291, -1.834e-5
-1.290, -1.834e-5
-1.289, -1.834e-5
-1.288, -1.834e-5
-1.287, -1.834e-5
-1.286, -1.834e-5
-1.285, -1.834e-5
-1.284, -1.834e-5
-1.283, -1.834e-5
-1.282, -1.834e-5
-1.281, -1.834e-5
-1.280, -1.834e-5
-1.279, -1.834e-5
-1.278, -1.834e-5
-1.277, -1.834e-5
-1.276, -1.834e-5
-1.275, -1.834e-5
-1.274, -2.143e-5
-1.273, -2.143e-5
-1.272, -1.834e-5
-1.271, -1.834e-5
-1.270, -1.834e-5
-1.269, -1.834e-5
-1.268, -1.834e-5
-1.267, -2.143e-5
-1.266, -1.834e-5
-1.265, -2.143e-5
-1.264, -1.834e-5
-1.263, -1.834e-5
-1.262, -2.143e-5
-1.261, -1.834e-5
-1.260, -1.834e-5
-1.259, -1.834e-5
-1.258, -2.143e-5
-1.257, -1.834e-5
-1.256, -2.143e-5
-1.255, -2.143e-5
-1.254, -2.143e-5
-1.253, -2.143e-5
-1.252, -1.834e-5
-1.251, -2.143e-5
-1.250, -1.834e-5
-1.249, -2.143e-5
-1.248, -2.143e-5
-1.247, -2.143e-5
-1.246, -2.143e-5
-1.245, -2.143e-5
-1.244, -2.143e-5
-1.243, -2.143e-5
-1.242, -2.143e-5
-1.241, -2.143e-5
-1.240, -2.143e-5
-1.239, -2.143e-5
-1.238, -2.143e-5
-1.237, -2.143e-5
-1.236, -2.143e-5
-1.235, -2.143e-5
-1.234, -2.143e-5
-1.233, -2.143e-5
-1.232, -2.143e-5
-1.231, -2.143e-5
-1.230, -2.143e-5
-1.229, -2.143e-5
-1.228, -2.143e-5
-1.227, -2.143e-5
-1.226, -2.143e-5
-1.225, -2.143e-5
-1.224, -2.143e-5
-1.223, -2.143e-5
-1.222, -2.143e-5
-1.221, -2.143e-5
-1.220, -2.143e-5
-1.219, -2.143e-5
-1.218, -2.143e-5
-1.217, -2.143e-5
-1.216, -2.143e-5
-1.215, -2.143e-5
-1.214, -2.143e-5
-1.213, -2.143e-5
-1.212, -2.143e-5
-1.211, -2.143e-5
-1.210, -2.143e-5
-1.209, -2.143e-5
-1.208, -2.143e-5
-1.207, -2.143e-5
-1.206, -2.143e-5
-1.205, -2.143e-5
-1.204, -2.451e-5
-1.203, -2.451e-5
-1.202, -2.451e-5
-1.201, -2.143e-5
-1.200, -2.143e-5
-1.199, -2.143e-5
-1.198, -2.143e-5
-1.197, -2.451e-5
-1.196, -2.451e-5
-1.195, -2.451e-5
-1.194, -2.143e-5
-1.193, -2.451e-5
-1.192, -2.451e-5
-1.191, -2.143e-5
-1.190, -2.143e-5
-1.189, -2.143e-5
-1.188, -2.451e-5
-1.187, -2.451e-5
-1.186, -2.451e-5
-1.185, -2.451e-5
-1.184, -2.451e-5
-1.183, -2.451e-5
-1.182, -2.451e-5
-1.181, -2.451e-5
-1.180, -2.451e-5
-1.179, -2.451e-5
-1.178, -2.451e-5
-1.177, -2.451e-5
-1.176, -2.451e-5
-1.175, -2.451e-5
-1.174, -2.451e-5
-1.173, -2.451e-5
-1.172, -2.451e-5
-1.171, -2.451e-5
-1.170, -2.451e-5
-1.169, -2.451e-5
-1.168, -2.451e-5
-1.167, -2.451e-5
-1.166, -2.451e-5
-1.165, -2.451e-5
-1.164, -2.451e-5
-1.163, -2.451e-5
-1.162, -2.451e-5
-1.161, -2.451e-5
-1.160, -2.451e-5
-1.159, -2.451e-5
-1.158, -2.451e-5
-1.157, -2.451e-5
-1.156, -2.451e-5
-1.155, -2.451e-5
-1.154, -2.451e-5
-1.153, -2.451e-5
-1.152, -2.759e-5
-1.151, -2.451e-5
-1.150, -2.759e-5
-1.149, -2.759e-5
-1.148, -2.451e-5
-1.147, -2.759e-5
-1.146, -2.759e-5
-1.145, -2.759e-5
-1.144, -2.451e-5
-1.143, -2.759e-5
-1.142, -2.451e-5
-1.141, -2.759e-5
-1.140, -2.759e-5
-1.139, -2.759e-5
-1.138, -2.759e-5
-1.137, -2.759e-5
-1.136, -2.759e-5
-1.135, -2.759e-5
-1.134, -2.759e-5
-1.133, -2.759e-5
-1.132, -2.759e-5
-1.131, -2.759e-5
-1.130, -2.759e-5
-1.129, -2.759e-5
-1.128, -2.759e-5
-1.127, -2.759e-5
-1.126, -2.759e-5
-1.125, -2.759e-5
-1.124, -2.759e-5
-1.123, -2.759e-5
-1.122, -2.759e-5
-1.121, -2.759e-5
-1.120, -2.759e-5
-1.119, -2.759e-5
-1.118, -2.759e-5
-1.117, -2.759e-5
-1.116, -2.759e-5
-1.115, -2.759e-5
-1.114, -2.759e-5
-1.113, -2.759e-5
-1.112, -2.759e-5
-1.111, -2.759e-5
-1.110, -2.759e-5
-1.109, -2.759e-5
-1.108, -2.759e-5
-1.107, -2.759e-5
-1.106, -2.759e-5
-1.105, -2.759e-5
-1.104, -2.759e-5
-1.103, -2.759e-5
-1.102, -2.759e-5
-1.101, -2.759e-5
-1.100, -2.759e-5
-1.099, -2.759e-5
-1.098, -3.068e-5
-1.097, -2.759e-5
-1.096, -2.759e-5
-1.095, -2.759e-5
-1.094, -2.759e-5
-1.093, -3.068e-5
-1.092, -2.759e-5
-1.091, -3.068e-5
-1.090, -2.759e-5
-1.089, -3.068e-5
-1.088, -3.068e-5
-1.087, -3.068e-5
-1.086, -3.068e-5
-1.085, -2.759e-5
-1.084, -2.759e-5
-1.083, -3.068e-5
-1.082, -3.068e-5
-1.081, -3.068e-5
-1.080, -3.068e-5
-1.079, -3.068e-5
-1.078, -3.068e-5
-1.077, -3.068e-5
-1.076, -3.068e-5
-1.075, -3.068e-5
-1.074, -3.068e-5
-1.073, -3.068e-5
-1.072, -3.068e-5
-1.071, -3.068e-5
-1.070, -3.068e-5
-1.069, -3.068e-5
-1.068, -3.068e-5
-1.067, -3.068e-5
-1.066, -3.068e-5
-1.065, -3.068e-5
-1.064, -3.068e-5
-1.063, -3.068e-5
-1.062, -3.068e-5
-1.061, -3.068e-5
-1.060, -3.068e-5
-1.059, -3.068e-5
-1.058, -3.068e-5
-1.057, -3.068e-5
-1.056, -3.068e-5
-1.055, -3.068e-5
-1.054, -3.068e-5
-1.053, -3.376e-5
-1.052, -3.068e-5
-1.051, -3.376e-5
-1.050, -3.376e-5
-1.049, -3.376e-5
-1.048, -3.376e-5
-1.047, -3.376e-5
-1.046, -3.376e-5
-1.045, -3.376e-5
-1.044, -3.376e-5
-1.043, -3.376e-5
-1.042, -3.376e-5
-1.041, -3.376e-5
-1.040, -3.376e-5
-1.039, -3.376e-5
-1.038, -3.376e-5
-1.037, -3.376e-5
-1.036, -3.376e-5
-1.035, -3.376e-5
-1.034, -3.376e-5
-1.033, -3.376e-5
-1.032, -3.376e-5
-1.031, -3.376e-5
-1.030, -3.376e-5
-1.029, -3.376e-5
-1.028, -3.376e-5
-1.027, -3.376e-5
-1.026, -3.376e-5
-1.025, -3.376e-5
-1.024, -3.376e-5
-1.023, -3.376e-5
-1.022, -3.376e-5
-1.021, -3.684e-5
-1.020, -3.376e-5
-1.019, -3.684e-5
-1.018, -3.376e-5
-1.017, -3.684e-5
-1.016, -3.376e-5
-1.015, -3.376e-5
-1.014, -3.684e-5
-1.013, -3.376e-5
-1.012, -3.684e-5
-1.011, -3.684e-5
-1.010, -3.684e-5
-1.009, -3.684e-5
-1.008, -3.684e-5
-1.007, -3.684e-5
-1.006, -3.684e-5
-1.005, -3.684e-5
-1.004, -3.684e-5
-1.003, -3.684e-5
-1.002, -3.684e-5
-1.001, -3.684e-5
