Potential V vs RHE, Current mA cm-2
0.013299999999999867,11.440770282008552
0.012299999999999978,10.318904221215577
0.011299999999999866,9.07537298863421
0.010299999999999976,8.213813807016404
0.009299999999999864,7.526264115281995
0.008299999999999974,6.560016297474175
0.007299999999999862,5.745142588751914
0.006299999999999972,5.272629014596992
0.00529999999999986,4.5497115403659585
0.0042999999999999705,3.7376672542434273
0.0032999999999998586,3.3005214625851305
0.0022999999999999687,2.794054817233447
0.0012999999999998568,2.0103047571082175
0.00029999999999996696,1.53920589425316
-0.000700000000000145,1.1810009931273324
-0.0017000000000000348,0.5071740010016156
-0.0027000000000001467,-0.04561029230764878
-0.0037000000000000366,-0.308407063370578
-0.0047000000000001485,-0.8389238008199668
-0.005700000000000038,-1.4529085049613928
-0.00670000000000015,-1.7245330745354797
-0.00770000000000004,-2.0866991673009294
-0.008700000000000152,-2.7318075200393857
-0.009700000000000042,-3.079826499806185
-0.010700000000000154,-3.317497998183511
-0.011700000000000044,-3.889041363328986
-0.012700000000000156,-4.343163690585662
-0.013700000000000045,-4.495952510971087
-0.014700000000000157,-4.940171859128707
-0.015700000000000047,-5.479176864377286
-0.01670000000000016,-5.678651157658257
-0.01770000000000005,-5.951690438532209
-0.01870000000000016,-6.504842556779439
-0.01970000000000005,-6.782125971552985
-0.020700000000000163,-6.940573637137869
-0.021700000000000053,-7.447040282489553
-0.022700000000000164,-7.837500601252304
-0.023700000000000054,-7.926627413143801
-0.024700000000000166,-8.30859946410736
-0.025700000000000056,-8.766965925263634
-0.026700000000000168,-8.887216385752161
-0.027700000000000058,-9.130546729328946
-0.02870000000000017,-9.64267221988009
-0.02970000000000006,-9.870440739158362
-0.03070000000000017,-10.004838312645537
-0.03170000000000006,-10.467448907701408
-0.03270000000000017,-10.81122375356861
-0.03370000000000006,-10.887618163761323
-0.034700000000000175,-11.242710700027445
-0.035700000000000065,-11.689759470784798
-0.03670000000000018,-11.79161868437508
-0.03770000000000007,-12.044852007050922
-0.03870000000000018,-12.582442300999638
-0.03970000000000007,-12.7295722761856
-0.04070000000000018,-12.837090334975343
-0.04170000000000007,-13.323751022128915
-0.04270000000000018,-13.616596261200979
-0.04370000000000007,-13.601034436902461
-0.044700000000000184,-14.039594939860624
-0.045700000000000074,-14.415908145624723
-0.046700000000000186,-14.387613919627421
-0.047700000000000076,-14.585673501608527
-0.04870000000000019,-15.080822456561293
-0.04970000000000008,-15.236440699546446
-0.05070000000000019,-15.293029151541045
-0.05170000000000008,-15.689148315503255
-0.05270000000000019,-16.014531914472215
-0.05370000000000008,-16.15600304445872
-0.05470000000000019,-16.50968086942498
-0.05570000000000008,-16.877505807389888
-0.056700000000000195,-16.919947146385837
-0.057700000000000085,-17.089712502369647
-0.058700000000000196,-17.528273005327804
-0.059700000000000086,-17.71218547431026
-0.0607000000000002,-17.782921039303513
-0.06170000000000009,-18.207334429263025
-0.0627000000000002,-18.504423802234676
-0.06370000000000009,-18.49027668923603
-0.0647000000000002,-18.80151317520634
-0.06570000000000009,-19.22592656516585
-0.0667000000000002,-19.2683679041618
-0.0677000000000001,-19.395691921149652
-0.0687000000000002,-19.834252424107817
-0.0697000000000001,-19.98987066709297
-0.07070000000000021,-20.06060623208622
-0.0717000000000001,-20.499166735044383
-0.07270000000000021,-20.824550334013338
-0.0737000000000001,-20.824550334013338
-0.07470000000000021,-21.093345480987697
-0.0757000000000001,-21.489464644949905
-0.07670000000000021,-21.574347322941808
-0.0777000000000001,-21.758259791924264
-0.07870000000000021,-22.196820294882425
-0.0797000000000001,-22.324144311870278
-0.08070000000000022,-22.352438537867577
-0.0817000000000001,-22.790999040825742
-0.08270000000000022,-23.144676865792
-0.08370000000000011,-23.15882397879065
-0.08470000000000022,-23.399324899767706
-0.08570000000000011,-23.724708498736668
-0.08670000000000022,-23.767149837732617
-0.08770000000000011,-23.908620967719123
-0.08870000000000022,-24.34718147067728
-0.08970000000000011,-24.502799713662437
-0.09070000000000022,-24.559388165657033
-0.09170000000000011,-24.95550732961925
-0.09270000000000023,-25.280890928588207
-0.09370000000000012,-25.280890928588207
-0.09470000000000023,-25.60627452755716
-0.09570000000000012,-26.030687917516673
-0.09670000000000023,-26.087276369511276
-0.09770000000000012,-26.257041725495082
-0.09870000000000023,-26.667308002455943
-0.09970000000000012,-26.766337793446493
-0.10070000000000023,-26.794632019443796
-0.10170000000000012,-27.14830984441005
-0.10270000000000024,-27.417104991384413
-0.10370000000000013,-27.43125210438306
-0.10470000000000024,-27.728341477354718
-0.10570000000000013,-28.11031352831828
-0.10670000000000024,-28.19519620631018
-0.10770000000000013,-28.379108675292635
-0.10870000000000024,-28.8176691782508
-0.10970000000000013,-28.93084608224
-0.11070000000000024,-28.97328742123595
-0.11170000000000013,-29.369406585198163
-0.11270000000000002,-29.62405461917387
-0.11370000000000013,-29.63820173217252
-0.11470000000000002,-29.949438218142824
-0.11570000000000014,-30.303116043109085
-0.11670000000000003,-30.345557382105042
-0.11770000000000014,-30.54361696408614
-0.11870000000000003,-30.99632458004295
-0.11970000000000014,-31.137795710029454
-0.12070000000000003,-31.19438416202406
-0.12170000000000014,-31.56220909998897
-0.12270000000000003,-31.788562907967375
-0.12370000000000014,-31.74612156897142
-0.12470000000000003,-32.02906382894443
-0.12570000000000014,-32.38274165391069
-0.12670000000000003,-32.42518299290664
-0.12770000000000015,-32.5525070098945
-0.12870000000000004,-32.97692039985401
-0.12970000000000015,-33.13253864283916
-0.13070000000000004,-33.17497998183511
-0.13170000000000015,-33.57109914579732
-0.13270000000000004,-33.86818851876898
-0.13370000000000015,-33.85404140577033
-0.13470000000000004,-34.179425004739294
-0.13570000000000015,-34.61798550769744
-0.13670000000000004,-34.64627973369475
-0.13770000000000016,-34.8018979766799
-0.13870000000000005,-35.268752705635364
-0.13970000000000016,-35.38192960962457
-0.14070000000000005,-35.38192960962457
-0.14170000000000016,-35.806342999584075
-0.14270000000000005,-36.01854969456383
-0.14370000000000016,-35.97610835556789
-0.14470000000000005,-36.30149195453684
-0.14570000000000016,-36.61272844050715
-0.14670000000000005,-36.64102266650445
-0.14770000000000016,-36.8249351354869
-0.14870000000000005,-37.221054299449115
-0.14970000000000017,-37.39081965543292
-0.15070000000000006,-37.47570233342482
-0.15170000000000017,-37.82938015839108
-0.15270000000000006,-38.09817530536544
-0.15370000000000017,-38.12646953136274
-0.15470000000000006,-38.480147356329
-0.15570000000000017,-38.8762665202912
-0.15670000000000006,-38.83382518129526
-0.15770000000000017,-38.8762665202912
-0.15870000000000006,-39.28653279725207
-0.15970000000000018,-39.42800392723857
-0.16070000000000007,-39.47044526623452
-0.16170000000000018,-39.86656443019674
-0.16270000000000007,-40.20609514216434
-0.16370000000000018,-40.24853648116029
-0.16470000000000007,-40.559772967130606
-0.16570000000000018,-40.97003924409146
-0.16670000000000007,-41.02662769608606
-0.16770000000000018,-41.111510374077966
-0.16870000000000007,-41.52177665103883
-0.16970000000000018,-41.649100668026676
-0.17070000000000007,-41.66324778102533
-0.17170000000000019,-42.04521983198889
-0.17270000000000008,-42.186690961975394
-0.1737000000000002,-42.172543848976744
-0.17470000000000008,-42.59695723893625
-0.1757000000000002,-42.89404661190791
-0.17670000000000008,-42.95063506390252
-0.1777000000000002,-43.06381196789171
-0.17870000000000008,-43.40334267985933
-0.1797000000000002,-43.629696487837734
-0.18070000000000008,-43.68628493983233
-0.1817000000000002,-43.96922719980534
-0.18270000000000008,-44.223875233781044
-0.1837000000000002,-44.195581007783744
-0.1847000000000001,-44.520964606752706
-0.1857000000000002,-44.91708377071491
-0.1867000000000001,-44.88878954471762
-0.1877000000000002,-45.07270201370007
-0.1887000000000001,-45.581998081651484
-0.1897000000000002,-45.73761632463664
-0.1907000000000001,-45.73761632463664
-0.1917000000000001,-46.133735488598845
-0.19269999999999998,-46.45911908756781
-0.1937000000000001,-46.43082486157051
-0.19469999999999998,-46.65717866954891
-0.1957000000000001,-46.94012092952192
-0.19669999999999999,-46.91182670352462
-0.1977000000000001,-47.08159205950842
-0.1987,-47.506005449467935
-0.1997000000000001,-47.57674101446119
-0.2007,-47.619182353457134
-0.2017000000000001,-48.04359574341665
-0.2027,-48.312390890391
-0.2037000000000001,-48.2558024383964
-0.2047,-48.538744698369406
-0.2057000000000001,-48.89242252333566
-0.2067,-48.87827541033702
-0.2077000000000001,-49.019746540323524
-0.2087,-49.543189721273585
-0.2097000000000001,-49.61392528626684
-0.2107,-49.656366625262784
-0.2117000000000001,-50.052485789224995
-0.2127,-50.32128093619935
-0.2137000000000001,-50.34957516219666
-0.2147,-50.70325298716291
-0.2157000000000001,-51.15596060311972
-0.2167,-51.17010771611838
-0.21770000000000012,-51.325725959103536
-0.2187,-51.7642864620617
-0.21970000000000012,-51.82087491405629
-0.2207,-51.8491691400536
-0.22170000000000012,-52.24528830401581
-0.2227,-52.40090654700096
-0.22370000000000012,-52.40090654700096
-0.2247,-52.78287859796452
-0.22570000000000012,-53.136556422930774
-0.2267,-53.12240930993213
-0.22770000000000012,-53.32046889191324
-0.22870000000000001,-53.67414671687949
-0.22970000000000013,-53.71658805587545
-0.23070000000000002,-53.815617846866
-0.23170000000000013,-54.1551485588336
-0.23270000000000002,-54.31076680181876
-0.23370000000000013,-54.324913914817415
-0.23470000000000002,-54.62200328778906
-0.23570000000000013,-54.975681112755325
-0.23670000000000002,-54.989828225753975
-0.2376999999999999,-55.17374069473642
-0.23870000000000002,-55.612301197694585
-0.2396999999999999,-55.73962521468245
-0.24070000000000003,-55.838655005673
-0.24169999999999991,-56.24892128263386
-0.24270000000000003,-56.46112797761361
-0.24369999999999992,-56.46112797761361
-0.24470000000000003,-56.786511576582576
-0.24569999999999992,-57.12604228855018
-0.24670000000000003,-57.14018940154883
-0.24769999999999992,-57.30995475753264
-0.24870000000000003,-57.7202210344935
-0.24969999999999992,-57.8333979384827
-0.25070000000000003,-57.87583927747865
-0.2516999999999999,-58.31439978043681
-0.25270000000000004,-58.51245936241792
-0.2536999999999999,-58.47001802342197
-0.25470000000000004,-58.82369584838823
-0.2556999999999999,-59.17737367335449
-0.25670000000000004,-59.14907944735718
-0.25769999999999993,-59.304697690342344
-0.25870000000000004,-59.67252262830725
-0.25969999999999993,-59.7998466452951
-0.26070000000000004,-59.884729323287
-0.26169999999999993,-60.21011292225596
-0.26270000000000004,-60.49305518222897
-0.26369999999999993,-60.54964363422357
-0.26470000000000005,-60.86088012019388
-0.26569999999999994,-61.28529351015339
-0.26670000000000005,-61.228705058158795
-0.26769999999999994,-61.25699928415608
-0.26870000000000005,-61.66726556111695
-0.26969999999999994,-61.780442465106155
-0.27070000000000005,-61.8228838041021
-0.27169999999999994,-62.24729719406162
-0.27270000000000005,-62.501945228037314
-0.27369999999999994,-62.44535677604272
-0.27470000000000006,-62.77074037501168
-0.27569999999999995,-63.181006651972545
-0.27670000000000006,-63.19515376497119
-0.27769999999999995,-63.364919120955
-0.27870000000000006,-63.78933251091451
-0.27969999999999995,-63.8459209629091
-0.28070000000000006,-63.874215188906405
-0.28169999999999995,-64.28448146586726
-0.28270000000000006,-64.31277569186457
-0.28369999999999995,-64.0439805448902
-0.28470000000000006,-64.53912949984297
-0.28569999999999995,-65.31722071476874
-0.28670000000000007,-65.52942740974851
-0.28769999999999996,-65.64260431373769
-0.28870000000000007,-65.95384079970802
-0.28969999999999996,-66.0670177036972
-0.29070000000000007,-66.25093017267966
-0.29169999999999996,-66.68949067563783
-0.29270000000000007,-66.80266757962703
-0.29369999999999996,-66.74607912763243
-0.2947000000000001,-67.0997569525987
-0.29569999999999996,-67.41099343856901
-0.2967000000000001,-67.36855209957304
-0.29769999999999996,-67.5807587945528
-0.2987000000000001,-67.86370105452582
-0.29969999999999997,-67.73637703753796
-0.3007000000000001,-67.73637703753796
-0.30169999999999997,-68.04761352350828
-0.3027000000000001,-68.13249620150016
-0.30369999999999997,-68.01931929751096
-0.3047000000000001,-68.28811444448532
-0.30569999999999997,-68.64179226945159
-0.3067000000000001,-68.61349804345427
-0.3077,-68.78326339943808
-0.3087000000000001,-69.1793825634003
-0.3097,-69.2925594673895
-0.3107000000000001,-69.41988348437735
-0.3117,-69.9433266653274
-0.3127000000000001,-70.26871026429637
-0.3137,-70.35359294228827
-0.3147000000000001,-70.73556499325183
-0.3157,-71.07509570521944
-0.3167000000000001,-71.08924281821808
-0.3177,-71.07509570521944
-0.3187000000000001,-71.35803796519245
-0.3197,-71.49950909517896
-0.3207000000000001,-71.44292064318435
-0.3217,-71.64098022516546
-0.3227000000000001,-71.7965984681506
-0.3237,-71.72586290315735
-0.3247000000000001,-71.96636382413442
-0.3257,-72.33418876209933
-0.3267000000000001,-72.27760031010472
-0.3277,-72.40492432709259
-0.3287000000000001,-72.90007328204534
-0.3297,-72.95666173403994
-0.3307000000000001,-72.95666173403994
-0.3317,-73.31033955900621
-0.3327000000000001,-73.3669280110008
-0.3337,-73.31033955900621
-0.3347000000000001,-73.48010491499001
-0.3357,-73.59328181897921
-0.3367000000000001,-73.55084047998325
-0.3377,-73.72060583596706
-0.3387000000000001,-74.13087211292792
-0.3397,-74.17331345192387
-0.3407000000000001,-74.11672499992927
-0.3417,-74.48454993789417
-0.3427000000000001,-74.7391979718699
-0.3437,-74.69675663287394
-0.3447000000000001,-74.8523748758591
-0.3457,-75.0504344578402
-0.3467000000000001,-75.0504344578402
-0.3477,-75.20605270082535
-0.3487000000000001,-75.50314207379701
-0.3497,-75.48899496079835
-0.3507000000000001,-75.51728918679565
-0.3517,-75.8992612377592
-0.3527000000000001,-76.08317370674168
-0.3537,-76.05487948074436
-0.3547000000000001,-76.29538040172143
-0.3557,-76.45099864470659
-0.35670000000000013,-76.25293906272547
-0.3577,-76.35196885371603
-0.35870000000000013,-76.63491111368903
-0.3597,-76.43685153170793
-0.36070000000000013,-76.35196885371603
-0.3617,-76.64905822668769
-0.3626999999999999,-76.84711780866878
-0.3637,-76.94614759965934
-0.3646999999999999,-77.31397253762425
-0.3657,-77.46959078060941
-0.3666999999999999,-77.37056098961885
-0.3677,-77.66765036259052
-0.3686999999999999,-78.00718107455812
-0.36970000000000003,-77.87985705757028
-0.3706999999999999,-77.71009170158646
-0.37170000000000003,-77.86570994457162
-0.3726999999999999,-77.8940041705689
-0.37370000000000003,-77.63935613659322
-0.3746999999999999,-77.71009170158646
-0.37570000000000003,-77.92229839656622
-0.3766999999999999,-77.82326860557566
-0.37770000000000004,-77.92229839656622
-0.3786999999999999,-78.14865220454463
-0.37970000000000004,-78.07791663955136
-0.3806999999999999,-78.10621086554868
-0.38170000000000004,-78.65794827249603
-0.38269999999999993,-79.1248030014515
-0.38370000000000004,-78.983331871465
-0.38469999999999993,-78.9550376454677
-0.38570000000000004,-79.1530972274488
-0.38669999999999993,-78.96918475846634
-0.38770000000000004,-78.9267434194704
-0.38869999999999993,-79.1530972274488
-0.38970000000000005,-78.96918475846634
-0.39069999999999994,-78.77112517648524
-0.39170000000000005,-79.11065588845284
-0.39269999999999994,-79.19553856644475
-0.39370000000000005,-79.01162609746228
-0.39469999999999994,-79.23797990544071
-0.39570000000000005,-79.54921639141102
-0.39669999999999994,-79.49262793941642
-0.39770000000000005,-79.47848082641775
-0.39869999999999994,-79.59165773040696
-0.39970000000000006,-79.54921639141102
-0.40069999999999995,-79.30871547043395
-0.40170000000000006,-79.71898174739482
-0.40269999999999995,-79.87459999037998
-0.40370000000000006,-79.70483463439616
-0.40469999999999995,-80.14339513735433
-0.40570000000000006,-80.48292584932193
-0.40669999999999995,-80.35560183233409
-0.40770000000000006,-80.38389605833139
-0.40869999999999995,-80.48292584932193
-0.40970000000000006,-80.31316049333813
-0.41069999999999995,-80.19998358934893
-0.41170000000000007,-80.34145471933543
-0.41269999999999996,-80.25657204134353
-0.41370000000000007,-80.05851245936242
-0.41469999999999996,-80.24242492834487
-0.41570000000000007,-80.45463162332464
-0.41669999999999996,-80.32730760633679
-0.41770000000000007,-80.36974894533273
-0.41869999999999996,-80.49707296232059
-0.4197000000000001,-80.44048451032599
-0.42069999999999996,-80.42633739732734
-0.4217000000000001,-80.66683831830439
-0.42269999999999996,-80.8366036742882
-0.4237000000000001,-80.7517209962963
-0.42469999999999997,-80.87904501328414
-0.4257000000000001,-81.02051614327065
-0.42669999999999997,-80.9497805782774
-0.4277000000000001,-81.16198727325715
-0.42869999999999997,-81.43078242023151
-0.4297000000000001,-81.37419396823692
-0.43069999999999997,-81.47322375922747
-0.4317000000000001,-81.84104869719238
-0.4327,-81.78446024519776
-0.4337000000000001,-81.58640066321666
-0.4347,-81.7986073581964
-0.4357000000000001,-81.96837271418022
-0.4367,-81.84104869719238
-0.4377000000000001,-81.98251982717888
-0.4387,-82.25131497415322
-0.4397000000000001,-82.16643229616133
-0.4407,-82.12399095716538
-0.4417000000000001,-82.50596300812894
-0.4427,-82.71816970310869
-0.4437000000000001,-82.54840434712489
-0.4447,-82.78890526810196
-0.4457000000000001,-83.1991715450628
-0.4467,-83.21331865806147
-0.4477000000000001,-83.38308401404527
-0.4487,-83.69432050001558
-0.4497000000000001,-83.72261472601286
-0.4507,-83.90652719499532
-0.4517000000000001,-84.37338192395079
-0.4527,-84.48655882793999
-0.4537000000000001,-84.31679347195619
-0.4547,-84.74120686191569
-0.4557000000000001,-85.37782694685497
-0.4567,-85.15147313887655
-0.4577000000000001,-85.17976736487385
-0.4587,-85.63247498083066
-0.4597000000000001,-85.64662209382932
-0.4607,-85.91541724080368
-0.4617000000000001,-86.45300753475239
-0.4627,-86.60862577773754
-0.4637000000000001,-86.6227728907362
-0.4647,-87.01889205469841
-0.4657000000000001,-87.49989389665252
-0.4667,-87.71210059163228
-0.4677000000000001,-88.09407264259583
-0.4687,-88.40530912856615
-0.4697000000000001,-88.47604469355939
-0.4707,-88.85801674452296
-0.4717000000000001,-89.74928486343794
-0.4727,-90.03222712341093
-0.4737000000000001,-90.04637423640959
-0.4747,-90.55567030436099
-0.4757000000000001,-90.93764235532454
-0.4767,-91.06496637231241
-0.4777000000000001,-91.63085089225844
-0.4787,-92.35235365518959
-0.4797000000000001,-92.45138344618015
-0.4807,-92.39479499418556
-0.48170000000000013,-92.91823817513561
-0.4827,-93.63974093806678
-0.48370000000000013,-93.78121206805329
-0.4847,-94.05000721502763
-0.48570000000000013,-94.81395131695474
-0.4867,-94.21977257101145
-0.48570000000000013,-92.40894210718419
-0.4847,-90.9517894683232
-0.48370000000000013,-89.18340034349191
-0.4827,-87.47159967065522
-0.48170000000000013,-86.42471330875509
-0.4807,-85.17976736487385
-0.4797000000000001,-83.51040803103311
-0.4787,-82.32205053914649
-0.4777000000000001,-81.28931129024501
-0.4767,-79.98777689436918
-0.4757000000000001,-79.01162609746228
-0.4747,-78.20524065653922
-0.4737000000000001,-76.86126492166746
-0.4727,-75.63046609078486
-0.4717000000000001,-74.8806691018564
-0.4707,-73.8762240789522
-0.4697000000000001,-72.71616081306288
-0.4687,-72.00880516313036
-0.4677000000000001,-71.32974373919515
-0.4667,-70.31115160329232
-0.4657000000000001,-69.40573637137871
-0.4647,-68.71252783444483
-0.4637000000000001,-67.693935698542
-0.4627,-66.68949067563783
-0.4617000000000001,-65.8972523477134
-0.4607,-65.28892648877145
-0.4597000000000001,-64.41180548285512
-0.4587,-63.49224313794284
