Dec. 28, 2024   21:57:39
Cyclic Voltammetry
File: c:/users/guazh/data/banditlqround7_x0exp136_r20/2024-12-24-exp771\exp771-2024-12-28t21_38_53-arkoh\exp771_cv_sr_300mvs_efin_-1700mv.bin
Data Source:  Experiment
Instrument Model:  CHI760E
Header: CV ran at 300 mVs
Note: 

Init E (V) = -1
High E (V) = -1
Low E (V) = -1.7
Final E (V) = -1
Init P/N = N
Scan Rate (V/s) = 0.3
Segment = 3
Sample Interval (V) = 0.001
Quiet Time (sec) = 2
Sensitivity (A/V) = 0.01
Comp R (ohm) = 1.3

Results:

Channel 1:
Segment 1:

Segment 2:

Segment 3:

Potential/V, Current/A

-1.000, 1.865e-5
-1.001, 5.565e-5
-1.002, 7.415e-5
-1.003, 7.723e-5
-1.004, 6.798e-5
-1.005, 6.798e-5
-1.006, 7.723e-5
-1.007, 8.957e-5
-1.008, 8.648e-5
-1.009, 8.032e-5
-1.010, 7.723e-5
-1.011, 8.648e-5
-1.012, 9.265e-5
-1.013, 9.265e-5
-1.014, 8.340e-5
-1.015, 8.032e-5
-1.016, 8.957e-5
-1.017, 9.573e-5
-1.018, 9.573e-5
-1.019, 8.648e-5
-1.020, 8.340e-5
-1.021, 9.265e-5
-1.022, 9.882e-5
-1.023, 9.882e-5
-1.024, 8.957e-5
-1.025, 8.648e-5
-1.026, 9.265e-5
-1.027, 9.882e-5
-1.028, 9.882e-5
-1.029, 8.957e-5
-1.030, 8.648e-5
-1.031, 9.573e-5
-1.032, 1.019e-4
-1.033, 1.019e-4
-1.034, 9.265e-5
-1.035, 8.957e-5
-1.036, 9.573e-5
-1.037, 1.050e-4
-1.038, 1.019e-4
-1.039, 9.265e-5
-1.040, 8.957e-5
-1.041, 9.882e-5
-1.042, 1.050e-4
-1.043, 1.019e-4
-1.044, 9.265e-5
-1.045, 8.957e-5
-1.046, 9.573e-5
-1.047, 1.050e-4
-1.048, 1.019e-4
-1.049, 9.573e-5
-1.050, 9.265e-5
-1.051, 9.882e-5
-1.052, 1.081e-4
-1.053, 1.050e-4
-1.054, 9.573e-5
-1.055, 9.265e-5
-1.056, 9.882e-5
-1.057, 1.081e-4
-1.058, 1.050e-4
-1.059, 9.573e-5
-1.060, 9.265e-5
-1.061, 9.882e-5
-1.062, 1.081e-4
-1.063, 1.050e-4
-1.064, 9.573e-5
-1.065, 9.265e-5
-1.066, 9.882e-5
-1.067, 1.050e-4
-1.068, 1.050e-4
-1.069, 9.573e-5
-1.070, 9.265e-5
-1.071, 9.882e-5
-1.072, 1.081e-4
-1.073, 1.050e-4
-1.074, 9.573e-5
-1.075, 9.265e-5
-1.076, 9.882e-5
-1.077, 1.081e-4
-1.078, 1.050e-4
-1.079, 9.573e-5
-1.080, 8.957e-5
-1.081, 9.882e-5
-1.082, 1.081e-4
-1.083, 1.050e-4
-1.084, 9.573e-5
-1.085, 9.265e-5
-1.086, 9.882e-5
-1.087, 1.050e-4
-1.088, 1.050e-4
-1.089, 9.573e-5
-1.090, 9.265e-5
-1.091, 9.882e-5
-1.092, 1.081e-4
-1.093, 1.050e-4
-1.094, 9.573e-5
-1.095, 9.265e-5
-1.096, 9.882e-5
-1.097, 1.050e-4
-1.098, 1.050e-4
-1.099, 9.265e-5
-1.100, 9.265e-5
-1.101, 9.882e-5
-1.102, 1.050e-4
-1.103, 1.019e-4
-1.104, 9.265e-5
-1.105, 9.265e-5
-1.106, 9.882e-5
-1.107, 1.050e-4
-1.108, 1.019e-4
-1.109, 9.265e-5
-1.110, 8.957e-5
-1.111, 9.882e-5
-1.112, 1.050e-4
-1.113, 1.019e-4
-1.114, 9.265e-5
-1.115, 8.957e-5
-1.116, 9.882e-5
-1.117, 1.050e-4
-1.118, 1.019e-4
-1.119, 9.265e-5
-1.120, 8.957e-5
-1.121, 9.573e-5
-1.122, 1.050e-4
-1.123, 1.019e-4
-1.124, 8.957e-5
-1.125, 8.957e-5
-1.126, 9.573e-5
-1.127, 1.050e-4
-1.128, 9.882e-5
-1.129, 9.265e-5
-1.130, 8.648e-5
-1.131, 9.573e-5
-1.132, 1.050e-4
-1.133, 9.882e-5
-1.134, 9.265e-5
-1.135, 8.957e-5
-1.136, 9.573e-5
-1.137, 1.019e-4
-1.138, 9.882e-5
-1.139, 8.957e-5
-1.140, 8.957e-5
-1.141, 9.573e-5
-1.142, 1.019e-4
-1.143, 9.882e-5
-1.144, 8.957e-5
-1.145, 8.957e-5
-1.146, 9.265e-5
-1.147, 1.019e-4
-1.148, 9.882e-5
-1.149, 8.957e-5
-1.150, 8.648e-5
-1.151, 9.265e-5
-1.152, 1.019e-4
-1.153, 9.882e-5
-1.154, 8.957e-5
-1.155, 8.648e-5
-1.156, 9.265e-5
-1.157, 1.019e-4
-1.158, 9.882e-5
-1.159, 8.957e-5
-1.160, 8.648e-5
-1.161, 9.265e-5
-1.162, 1.019e-4
-1.163, 9.882e-5
-1.164, 8.957e-5
-1.165, 8.648e-5
-1.166, 9.265e-5
-1.167, 1.019e-4
-1.168, 9.882e-5
-1.169, 8.957e-5
-1.170, 8.648e-5
-1.171, 9.265e-5
-1.172, 1.019e-4
-1.173, 9.882e-5
-1.174, 8.957e-5
-1.175, 8.648e-5
-1.176, 9.265e-5
-1.177, 1.019e-4
-1.178, 9.882e-5
-1.179, 8.957e-5
-1.180, 8.648e-5
-1.181, 9.265e-5
-1.182, 9.882e-5
-1.183, 9.882e-5
-1.184, 8.957e-5
-1.185, 8.648e-5
-1.186, 9.265e-5
-1.187, 9.882e-5
-1.188, 9.882e-5
-1.189, 8.957e-5
-1.190, 8.648e-5
-1.191, 9.265e-5
-1.192, 1.019e-4
-1.193, 9.882e-5
-1.194, 8.957e-5
-1.195, 8.648e-5
-1.196, 9.265e-5
-1.197, 9.882e-5
-1.198, 9.882e-5
-1.199, 8.957e-5
-1.200, 8.648e-5
-1.201, 9.265e-5
-1.202, 1.019e-4
-1.203, 9.882e-5
-1.204, 8.957e-5
-1.205, 8.648e-5
-1.206, 9.265e-5
-1.207, 1.019e-4
-1.208, 9.882e-5
-1.209, 8.957e-5
-1.210, 8.648e-5
-1.211, 9.265e-5
-1.212, 1.019e-4
-1.213, 9.882e-5
-1.214, 8.957e-5
-1.215, 8.648e-5
-1.216, 9.265e-5
-1.217, 1.019e-4
-1.218, 9.882e-5
-1.219, 8.957e-5
-1.220, 8.648e-5
-1.221, 9.265e-5
-1.222, 1.019e-4
-1.223, 1.019e-4
-1.224, 8.957e-5
-1.225, 8.648e-5
-1.226, 9.265e-5
-1.227, 1.019e-4
-1.228, 9.882e-5
-1.229, 8.957e-5
-1.230, 8.648e-5
-1.231, 9.265e-5
-1.232, 1.019e-4
-1.233, 9.882e-5
-1.234, 8.957e-5
-1.235, 8.957e-5
-1.236, 9.573e-5
-1.237, 1.050e-4
-1.238, 1.019e-4
-1.239, 9.265e-5
-1.240, 8.648e-5
-1.241, 9.573e-5
-1.242, 1.019e-4
-1.243, 9.882e-5
-1.244, 8.957e-5
-1.245, 8.648e-5
-1.246, 9.573e-5
-1.247, 1.019e-4
-1.248, 1.019e-4
-1.249, 8.957e-5
-1.250, 8.957e-5
-1.251, 9.573e-5
-1.252, 1.050e-4
-1.253, 1.019e-4
-1.254, 9.265e-5
-1.255, 8.957e-5
-1.256, 9.573e-5
-1.257, 1.050e-4
-1.258, 1.019e-4
-1.259, 9.265e-5
-1.260, 8.957e-5
-1.261, 9.573e-5
-1.262, 1.050e-4
-1.263, 1.019e-4
-1.264, 9.265e-5
-1.265, 8.957e-5
-1.266, 9.573e-5
-1.267, 1.050e-4
-1.268, 1.019e-4
-1.269, 9.265e-5
-1.270, 8.957e-5
-1.271, 9.882e-5
-1.272, 1.050e-4
-1.273, 1.050e-4
-1.274, 9.573e-5
-1.275, 8.957e-5
-1.276, 9.882e-5
-1.277, 1.050e-4
-1.278, 1.019e-4
-1.279, 9.573e-5
-1.280, 9.265e-5
-1.281, 9.882e-5
-1.282, 1.050e-4
-1.283, 1.050e-4
-1.284, 9.573e-5
-1.285, 9.265e-5
-1.286, 9.882e-5
-1.287, 1.081e-4
-1.288, 1.050e-4
-1.289, 9.573e-5
-1.290, 9.265e-5
-1.291, 1.019e-4
-1.292, 1.081e-4
-1.293, 1.050e-4
-1.294, 9.882e-5
-1.295, 9.573e-5
-1.296, 1.019e-4
-1.297, 1.081e-4
-1.298, 1.081e-4
-1.299, 9.882e-5
-1.300, 9.573e-5
-1.301, 1.019e-4
-1.302, 1.111e-4
-1.303, 1.081e-4
-1.304, 9.882e-5
-1.305, 9.573e-5
-1.306, 1.050e-4
-1.307, 1.111e-4
-1.308, 1.111e-4
-1.309, 1.019e-4
-1.310, 9.882e-5
-1.311, 1.050e-4
-1.312, 1.142e-4
-1.313, 1.111e-4
-1.314, 1.019e-4
-1.315, 9.882e-5
-1.316, 1.081e-4
-1.317, 1.142e-4
-1.318, 1.111e-4
-1.319, 1.050e-4
-1.320, 1.019e-4
-1.321, 1.081e-4
-1.322, 1.173e-4
-1.323, 1.142e-4
-1.324, 1.050e-4
-1.325, 1.019e-4
-1.326, 1.111e-4
-1.327, 1.173e-4
-1.328, 1.173e-4
-1.329, 1.081e-4
-1.330, 1.050e-4
-1.331, 1.111e-4
-1.332, 1.204e-4
-1.333, 1.173e-4
-1.334, 1.081e-4
-1.335, 1.081e-4
-1.336, 1.142e-4
-1.337, 1.235e-4
-1.338, 1.235e-4
-1.339, 1.111e-4
-1.340, 1.111e-4
-1.341, 1.173e-4
-1.342, 1.266e-4
-1.343, 1.235e-4
-1.344, 1.173e-4
-1.345, 1.142e-4
-1.346, 1.204e-4
-1.347, 1.296e-4
-1.348, 1.296e-4
-1.349, 1.173e-4
-1.350, 1.173e-4
-1.351, 1.235e-4
-1.352, 1.327e-4
-1.353, 1.327e-4
-1.354, 1.235e-4
-1.355, 1.204e-4
-1.356, 1.296e-4
-1.357, 1.358e-4
-1.358, 1.358e-4
-1.359, 1.266e-4
-1.360, 1.266e-4
-1.361, 1.327e-4
-1.362, 1.420e-4
-1.363, 1.389e-4
-1.364, 1.327e-4
-1.365, 1.296e-4
-1.366, 1.389e-4
-1.367, 1.451e-4
-1.368, 1.451e-4
-1.369, 1.389e-4
-1.370, 1.358e-4
-1.371, 1.451e-4
-1.372, 1.512e-4
-1.373, 1.512e-4
-1.374, 1.451e-4
-1.375, 1.420e-4
-1.376, 1.512e-4
-1.377, 1.605e-4
-1.378, 1.605e-4
-1.379, 1.512e-4
-1.380, 1.512e-4
-1.381, 1.574e-4
-1.382, 1.666e-4
-1.383, 1.666e-4
-1.384, 1.605e-4
-1.385, 1.574e-4
-1.386, 1.666e-4
-1.387, 1.759e-4
-1.388, 1.759e-4
-1.389, 1.697e-4
-1.390, 1.666e-4
-1.391, 1.759e-4
-1.392, 1.851e-4
-1.393, 1.851e-4
-1.394, 1.790e-4
-1.395, 1.759e-4
-1.396, 1.851e-4
-1.397, 1.944e-4
-1.398, 1.944e-4
-1.399, 1.882e-4
-1.400, 1.882e-4
-1.401, 1.975e-4
-1.402, 2.067e-4
-1.403, 2.067e-4
-1.404, 2.036e-4
-1.405, 2.006e-4
-1.406, 2.098e-4
-1.407, 2.191e-4
-1.408, 2.221e-4
-1.409, 2.160e-4
-1.410, 2.160e-4
-1.411, 2.252e-4
-1.412, 2.345e-4
-1.413, 2.376e-4
-1.414, 2.314e-4
-1.415, 2.314e-4
-1.416, 2.406e-4
-1.417, 2.530e-4
-1.418, 2.530e-4
-1.419, 2.499e-4
-1.420, 2.499e-4
-1.421, 2.591e-4
-1.422, 2.715e-4
-1.423, 2.715e-4
-1.424, 2.684e-4
-1.425, 2.684e-4
-1.426, 2.807e-4
-1.427, 2.931e-4
-1.428, 2.961e-4
-1.429, 2.900e-4
-1.430, 2.931e-4
-1.431, 3.023e-4
-1.432, 3.146e-4
-1.433, 3.177e-4
-1.434, 3.146e-4
-1.435, 3.177e-4
-1.436, 3.300e-4
-1.437, 3.424e-4
-1.438, 3.485e-4
-1.439, 3.455e-4
-1.440, 3.485e-4
-1.441, 3.609e-4
-1.442, 3.732e-4
-1.443, 3.794e-4
-1.444, 3.794e-4
-1.445, 3.825e-4
-1.446, 3.948e-4
-1.447, 4.071e-4
-1.448, 4.164e-4
-1.449, 4.164e-4
-1.450, 4.195e-4
-1.451, 4.318e-4
-1.452, 4.503e-4
-1.453, 4.565e-4
-1.454, 4.565e-4
-1.455, 4.626e-4
-1.456, 4.780e-4
-1.457, 4.965e-4
-1.458, 5.058e-4
-1.459, 5.058e-4
-1.460, 5.150e-4
-1.461, 5.305e-4
-1.462, 5.459e-4
-1.463, 5.582e-4
-1.464, 5.644e-4
-1.465, 5.705e-4
-1.466, 5.890e-4
-1.467, 6.075e-4
-1.468, 6.199e-4
-1.469, 6.260e-4
-1.470, 6.353e-4
-1.471, 6.569e-4
-1.472, 6.754e-4
-1.473, 6.908e-4
-1.474, 6.969e-4
-1.475, 7.093e-4
-1.476, 7.309e-4
-1.477, 7.524e-4
-1.478, 7.679e-4
-1.479, 7.771e-4
-1.480, 7.894e-4
-1.481, 8.110e-4
-1.482, 8.357e-4
-1.483, 8.542e-4
-1.484, 8.665e-4
-1.485, 8.819e-4
-1.486, 9.035e-4
-1.487, 9.313e-4
-1.488, 9.498e-4
-1.489, 9.621e-4
-1.490, 9.775e-4
-1.491, 1.002e-3
-1.492, 1.030e-3
-1.493, 1.051e-3
-1.494, 1.067e-3
-1.495, 1.085e-3
-1.496, 1.110e-3
-1.497, 1.141e-3
-1.498, 1.166e-3
-1.499, 1.181e-3
-1.500, 1.199e-3
-1.501, 1.224e-3
-1.502, 1.255e-3
-1.503, 1.280e-3
-1.504, 1.298e-3
-1.505, 1.320e-3
-1.506, 1.351e-3
-1.507, 1.384e-3
-1.508, 1.412e-3
-1.509, 1.431e-3
-1.510, 1.452e-3
-1.511, 1.483e-3
-1.512, 1.517e-3
-1.513, 1.548e-3
-1.514, 1.569e-3
-1.515, 1.591e-3
-1.516, 1.625e-3
-1.517, 1.662e-3
-1.518, 1.696e-3
-1.519, 1.717e-3
-1.520, 1.745e-3
-1.521, 1.779e-3
-1.522, 1.816e-3
-1.523, 1.853e-3
-1.524, 1.881e-3
-1.525, 1.906e-3
-1.526, 1.943e-3
-1.527, 1.986e-3
-1.528, 2.020e-3
-1.529, 2.047e-3
-1.530, 2.078e-3
-1.531, 2.115e-3
-1.532, 2.161e-3
-1.533, 2.198e-3
-1.534, 2.229e-3
-1.535, 2.260e-3
-1.536, 2.297e-3
-1.537, 2.343e-3
-1.538, 2.377e-3
-1.539, 2.408e-3
-1.540, 2.445e-3
-1.541, 2.491e-3
-1.542, 2.541e-3
-1.543, 2.584e-3
-1.544, 2.618e-3
-1.545, 2.652e-3
-1.546, 2.698e-3
-1.547, 2.747e-3
-1.548, 2.787e-3
-1.549, 2.821e-3
-1.550, 2.858e-3
-1.551, 2.908e-3
-1.552, 2.960e-3
-1.553, 3.009e-3
-1.554, 3.049e-3
-1.555, 3.083e-3
-1.556, 3.130e-3
-1.557, 3.179e-3
-1.558, 3.231e-3
-1.559, 3.271e-3
-1.560, 3.314e-3
-1.561, 3.364e-3
-1.562, 3.419e-3
-1.563, 3.469e-3
-1.564, 3.506e-3
-1.565, 3.546e-3
-1.566, 3.598e-3
-1.567, 3.657e-3
-1.568, 3.712e-3
-1.569, 3.758e-3
-1.570, 3.805e-3
-1.571, 3.854e-3
-1.572, 3.916e-3
-1.573, 3.971e-3
-1.574, 4.017e-3
-1.575, 4.064e-3
-1.576, 4.119e-3
-1.577, 4.181e-3
-1.578, 4.236e-3
-1.579, 4.283e-3
-1.580, 4.329e-3
-1.581, 4.381e-3
-1.582, 4.446e-3
-1.583, 4.505e-3
-1.584, 4.554e-3
-1.585, 4.600e-3
-1.586, 4.656e-3
-1.587, 4.720e-3
-1.588, 4.782e-3
-1.589, 4.828e-3
-1.590, 4.871e-3
-1.591, 4.924e-3
-1.592, 4.982e-3
-1.593, 5.044e-3
-1.594, 5.093e-3
-1.595, 5.143e-3
-1.596, 5.204e-3
-1.597, 5.275e-3
-1.598, 5.340e-3
-1.599, 5.389e-3
-1.600, 5.436e-3
-1.601, 5.500e-3
-1.602, 5.571e-3
-1.603, 5.639e-3
-1.604, 5.698e-3
-1.605, 5.753e-3
-1.606, 5.812e-3
-1.607, 5.873e-3
-1.608, 5.926e-3
-1.609, 5.972e-3
-1.610, 6.015e-3
-1.611, 6.071e-3
-1.612, 6.142e-3
-1.613, 6.206e-3
-1.614, 6.262e-3
-1.615, 6.314e-3
-1.616, 6.382e-3
-1.617, 6.459e-3
-1.618, 6.527e-3
-1.619, 6.583e-3
-1.620, 6.632e-3
-1.621, 6.691e-3
-1.622, 6.758e-3
-1.623, 6.826e-3
-1.624, 6.882e-3
-1.625, 6.934e-3
-1.626, 6.999e-3
-1.627, 7.076e-3
-1.628, 7.147e-3
-1.629, 7.208e-3
-1.630, 7.264e-3
-1.631, 7.335e-3
-1.632, 7.409e-3
-1.633, 7.486e-3
-1.634, 7.541e-3
-1.635, 7.594e-3
-1.636, 7.671e-3
-1.637, 7.751e-3
-1.638, 7.822e-3
-1.639, 7.881e-3
-1.640, 7.936e-3
-1.641, 8.007e-3
-1.642, 8.084e-3
-1.643, 8.155e-3
-1.644, 8.214e-3
-1.645, 8.269e-3
-1.646, 8.331e-3
-1.647, 8.402e-3
-1.648, 8.469e-3
-1.649, 8.528e-3
-1.650, 8.587e-3
-1.651, 8.658e-3
-1.652, 8.738e-3
-1.653, 8.812e-3
-1.654, 8.873e-3
-1.655, 8.929e-3
-1.656, 8.997e-3
-1.657, 9.071e-3
-1.658, 9.138e-3
-1.659, 9.191e-3
-1.660, 9.228e-3
-1.661, 9.290e-3
-1.662, 9.364e-3
-1.663, 9.438e-3
-1.664, 9.527e-3
-1.665, 9.589e-3
-1.666, 9.663e-3
-1.667, 9.740e-3
-1.668, 9.811e-3
-1.669, 9.875e-3
-1.670, 9.937e-3
-1.671, 1.001e-2
-1.672, 1.010e-2
-1.673, 1.020e-2
-1.674, 1.025e-2
-1.675, 1.031e-2
-1.676, 1.038e-2
-1.677, 1.046e-2
-1.678, 1.054e-2
-1.679, 1.060e-2
-1.680, 1.066e-2
-1.681, 1.071e-2
-1.682, 1.079e-2
-1.683, 1.087e-2
-1.684, 1.092e-2
-1.685, 1.098e-2
-1.686, 1.105e-2
-1.687, 1.113e-2
-1.688, 1.121e-2
-1.689, 1.127e-2
-1.690, 1.131e-2
-1.691, 1.138e-2
-1.692, 1.148e-2
-1.693, 1.156e-2
-1.694, 1.163e-2
-1.695, 1.170e-2
-1.696, 1.177e-2
-1.697, 1.185e-2
-1.698, 1.192e-2
-1.699, 1.199e-2
-1.700, 1.199e-2
-1.699, 1.191e-2
-1.698, 1.183e-2
-1.697, 1.173e-2
-1.696, 1.164e-2
-1.695, 1.156e-2
-1.694, 1.149e-2
-1.693, 1.141e-2
-1.692, 1.132e-2
-1.691, 1.124e-2
-1.690, 1.113e-2
-1.689, 1.106e-2
-1.688, 1.100e-2
-1.687, 1.091e-2
-1.686, 1.084e-2
-1.685, 1.074e-2
-1.684, 1.065e-2
-1.683, 1.057e-2
-1.682, 1.050e-2
-1.681, 1.043e-2
-1.680, 1.035e-2
-1.679, 1.026e-2
-1.678, 1.019e-2
-1.677, 1.011e-2
-1.676, 1.001e-2
-1.675, 9.931e-3
-1.674, 9.854e-3
-1.673, 9.780e-3
-1.672, 9.718e-3
-1.671, 9.635e-3
-1.670, 9.558e-3
-1.669, 9.493e-3
-1.668, 9.438e-3
-1.667, 9.360e-3
-1.666, 9.280e-3
-1.665, 9.191e-3
-1.664, 9.117e-3
-1.663, 9.055e-3
-1.662, 8.984e-3
-1.661, 8.895e-3
-1.660, 8.802e-3
-1.659, 8.732e-3
-1.658, 8.667e-3
-1.657, 8.596e-3
-1.656, 8.531e-3
-1.655, 8.445e-3
-1.654, 8.374e-3
-1.653, 8.312e-3
-1.652, 8.257e-3
-1.651, 8.180e-3
-1.650, 8.093e-3
-1.649, 8.038e-3
-1.648, 7.970e-3
-1.647, 7.902e-3
-1.646, 7.822e-3
-1.645, 7.748e-3
-1.644, 7.696e-3
-1.643, 7.631e-3
-1.642, 7.563e-3
-1.641, 7.495e-3
-1.640, 7.421e-3
-1.639, 7.347e-3
-1.638, 7.292e-3
-1.637, 7.230e-3
-1.636, 7.153e-3
-1.635, 7.076e-3
-1.634, 7.008e-3
-1.633, 6.959e-3
-1.632, 6.897e-3
-1.631, 6.832e-3
-1.630, 6.755e-3
-1.629, 6.691e-3
-1.628, 6.635e-3
-1.627, 6.586e-3
-1.626, 6.512e-3
-1.625, 6.435e-3
-1.624, 6.379e-3
-1.623, 6.336e-3
-1.622, 6.268e-3
-1.621, 6.200e-3
-1.620, 6.148e-3
-1.619, 6.086e-3
-1.618, 6.025e-3
-1.617, 5.960e-3
-1.616, 5.898e-3
-1.615, 5.830e-3
-1.614, 5.778e-3
-1.613, 5.725e-3
-1.612, 5.670e-3
-1.611, 5.611e-3
-1.610, 5.541e-3
-1.609, 5.482e-3
-1.608, 5.439e-3
-1.607, 5.383e-3
-1.606, 5.322e-3
-1.605, 5.257e-3
-1.604, 5.201e-3
-1.603, 5.152e-3
-1.602, 5.103e-3
-1.601, 5.041e-3
-1.600, 4.986e-3
-1.599, 4.927e-3
-1.598, 4.881e-3
-1.597, 4.834e-3
-1.596, 4.767e-3
-1.595, 4.705e-3
-1.594, 4.649e-3
-1.593, 4.603e-3
-1.592, 4.560e-3
-1.591, 4.498e-3
-1.590, 4.446e-3
-1.589, 4.400e-3
-1.588, 4.350e-3
-1.587, 4.307e-3
-1.586, 4.246e-3
-1.585, 4.184e-3
-1.584, 4.132e-3
-1.583, 4.091e-3
-1.582, 4.045e-3
-1.581, 3.984e-3
-1.580, 3.943e-3
-1.579, 3.891e-3
-1.578, 3.851e-3
-1.577, 3.805e-3
-1.576, 3.749e-3
-1.575, 3.697e-3
-1.574, 3.647e-3
-1.573, 3.617e-3
-1.572, 3.570e-3
-1.571, 3.518e-3
-1.570, 3.462e-3
-1.569, 3.416e-3
-1.568, 3.376e-3
-1.567, 3.339e-3
-1.566, 3.290e-3
-1.565, 3.234e-3
-1.564, 3.194e-3
-1.563, 3.154e-3
-1.562, 3.114e-3
-1.561, 3.065e-3
-1.560, 3.015e-3
-1.559, 2.978e-3
-1.558, 2.948e-3
-1.557, 2.908e-3
-1.556, 2.858e-3
-1.555, 2.809e-3
-1.554, 2.772e-3
-1.553, 2.738e-3
-1.552, 2.704e-3
-1.551, 2.661e-3
-1.550, 2.615e-3
-1.549, 2.578e-3
-1.548, 2.547e-3
-1.547, 2.510e-3
-1.546, 2.467e-3
-1.545, 2.420e-3
-1.544, 2.386e-3
-1.543, 2.359e-3
-1.542, 2.328e-3
-1.541, 2.285e-3
-1.540, 2.245e-3
-1.539, 2.211e-3
-1.538, 2.186e-3
-1.537, 2.152e-3
-1.536, 2.112e-3
-1.535, 2.075e-3
-1.534, 2.044e-3
-1.533, 2.017e-3
-1.532, 1.986e-3
-1.531, 1.949e-3
-1.530, 1.918e-3
-1.529, 1.884e-3
-1.528, 1.862e-3
-1.527, 1.828e-3
-1.526, 1.791e-3
-1.525, 1.761e-3
-1.524, 1.733e-3
-1.523, 1.708e-3
-1.522, 1.680e-3
-1.521, 1.647e-3
-1.520, 1.613e-3
-1.519, 1.585e-3
-1.518, 1.563e-3
-1.517, 1.536e-3
-1.516, 1.508e-3
-1.515, 1.474e-3
-1.514, 1.449e-3
-1.513, 1.431e-3
-1.512, 1.406e-3
-1.511, 1.375e-3
-1.510, 1.344e-3
-1.509, 1.326e-3
-1.508, 1.304e-3
-1.507, 1.280e-3
-1.506, 1.255e-3
-1.505, 1.227e-3
-1.504, 1.206e-3
-1.503, 1.190e-3
-1.502, 1.169e-3
-1.501, 1.141e-3
-1.500, 1.113e-3
-1.499, 1.098e-3
-1.498, 1.082e-3
-1.497, 1.061e-3
-1.496, 1.036e-3
-1.495, 1.011e-3
-1.494, 9.960e-4
-1.493, 9.806e-4
-1.492, 9.621e-4
-1.491, 9.374e-4
-1.490, 9.158e-4
-1.489, 9.004e-4
-1.488, 8.881e-4
-1.487, 8.727e-4
-1.486, 8.480e-4
-1.485, 8.264e-4
-1.484, 8.110e-4
-1.483, 8.018e-4
-1.482, 7.833e-4
-1.481, 7.617e-4
-1.480, 7.432e-4
-1.479, 7.309e-4
-1.478, 7.247e-4
-1.477, 7.093e-4
-1.476, 6.877e-4
-1.475, 6.692e-4
-1.474, 6.569e-4
-1.473, 6.507e-4
-1.472, 6.384e-4
-1.471, 6.168e-4
-1.470, 5.983e-4
-1.469, 5.890e-4
-1.468, 5.829e-4
-1.467, 5.705e-4
-1.466, 5.520e-4
-1.465, 5.335e-4
-1.464, 5.274e-4
-1.463, 5.212e-4
-1.462, 5.089e-4
-1.461, 4.965e-4
-1.460, 4.780e-4
-1.459, 4.719e-4
-1.458, 4.657e-4
-1.457, 4.534e-4
-1.456, 4.380e-4
-1.455, 4.256e-4
-1.454, 4.195e-4
-1.453, 4.164e-4
-1.452, 4.040e-4
-1.451, 3.886e-4
-1.450, 3.763e-4
-1.449, 3.701e-4
-1.448, 3.701e-4
-1.447, 3.609e-4
-1.446, 3.455e-4
-1.445, 3.331e-4
-1.444, 3.300e-4
-1.443, 3.270e-4
-1.442, 3.177e-4
-1.441, 3.023e-4
-1.440, 2.931e-4
-1.439, 2.900e-4
-1.438, 2.869e-4
-1.437, 2.807e-4
-1.436, 2.684e-4
-1.435, 2.561e-4
-1.434, 2.530e-4
-1.433, 2.530e-4
-1.432, 2.468e-4
-1.431, 2.345e-4
-1.430, 2.221e-4
-1.429, 2.221e-4
-1.428, 2.221e-4
-1.427, 2.160e-4
-1.426, 2.036e-4
-1.425, 1.944e-4
-1.424, 1.944e-4
-1.423, 1.944e-4
-1.422, 1.882e-4
-1.421, 1.759e-4
-1.420, 1.666e-4
-1.419, 1.666e-4
-1.418, 1.666e-4
-1.417, 1.605e-4
-1.416, 1.512e-4
-1.415, 1.420e-4
-1.414, 1.420e-4
-1.413, 1.451e-4
-1.412, 1.389e-4
-1.411, 1.296e-4
-1.410, 1.204e-4
-1.409, 1.204e-4
-1.408, 1.235e-4
-1.407, 1.173e-4
-1.406, 1.081e-4
-1.405, 1.019e-4
-1.404, 1.019e-4
-1.403, 1.050e-4
-1.402, 9.882e-5
-1.401, 8.957e-5
-1.400, 8.340e-5
-1.399, 8.340e-5
-1.398, 8.648e-5
-1.397, 8.340e-5
-1.396, 7.415e-5
-1.395, 6.490e-5
-1.394, 6.798e-5
-1.393, 7.107e-5
-1.392, 6.798e-5
-1.391, 5.565e-5
-1.390, 5.257e-5
-1.389, 5.565e-5
-1.388, 5.873e-5
-1.387, 5.257e-5
-1.386, 4.332e-5
-1.385, 3.715e-5
-1.384, 4.024e-5
-1.383, 4.332e-5
-1.382, 4.024e-5
-1.381, 3.099e-5
-1.380, 2.482e-5
-1.379, 2.790e-5
-1.378, 3.099e-5
-1.377, 2.790e-5
-1.376, 2.174e-5
-1.375, 1.557e-5
-1.374, 1.557e-5
-1.373, 2.174e-5
-1.372, 1.865e-5
-1.371, 9.405e-6
-1.370, 3.239e-6
-1.369, 6.322e-6
-1.368, 1.249e-5
-1.367, 9.405e-6
-1.366, 1.559e-7
-1.365, -6.010e-6
-1.364, -2.927e-6
-1.363, 3.239e-6
-1.362, 1.559e-7
-1.361, -6.010e-6
-1.360, -1.218e-5
-1.359, -9.093e-6
-1.358, -2.927e-6
-1.357, -6.010e-6
-1.356, -1.526e-5
-1.355, -1.834e-5
-1.354, -1.526e-5
-1.353, -1.218e-5
-1.352, -1.218e-5
-1.351, -2.143e-5
-1.350, -2.759e-5
-1.349, -2.451e-5
-1.348, -1.834e-5
-1.347, -1.834e-5
-1.346, -2.759e-5
-1.345, -3.376e-5
-1.344, -3.068e-5
-1.343, -2.451e-5
-1.342, -2.451e-5
-1.341, -3.376e-5
-1.340, -3.684e-5
-1.339, -3.376e-5
-1.338, -2.759e-5
-1.337, -3.068e-5
-1.336, -3.684e-5
-1.335, -4.301e-5
-1.334, -3.992e-5
-1.333, -3.376e-5
-1.332, -3.376e-5
-1.331, -4.301e-5
-1.330, -4.917e-5
-1.329, -4.301e-5
-1.328, -3.684e-5
-1.327, -3.992e-5
-1.326, -4.917e-5
-1.325, -5.226e-5
-1.324, -4.609e-5
-1.323, -4.301e-5
-1.322, -4.301e-5
-1.321, -5.226e-5
-1.320, -5.534e-5
-1.319, -5.226e-5
-1.318, -4.609e-5
-1.317, -4.917e-5
-1.316, -5.534e-5
-1.315, -6.151e-5
-1.314, -5.534e-5
-1.313, -4.917e-5
-1.312, -5.226e-5
-1.311, -5.842e-5
-1.310, -6.459e-5
-1.309, -5.842e-5
-1.308, -5.226e-5
-1.307, -5.226e-5
-1.306, -6.151e-5
-1.305, -6.767e-5
-1.304, -6.151e-5
-1.303, -5.534e-5
-1.302, -5.534e-5
-1.301, -6.459e-5
-1.300, -7.076e-5
-1.299, -6.459e-5
-1.298, -5.842e-5
-1.297, -5.842e-5
-1.296, -6.767e-5
-1.295, -7.076e-5
-1.294, -6.767e-5
-1.293, -5.842e-5
-1.292, -6.151e-5
-1.291, -7.076e-5
-1.290, -7.384e-5
-1.289, -6.767e-5
-1.288, -6.151e-5
-1.287, -6.459e-5
-1.286, -7.076e-5
-1.285, -7.692e-5
-1.284, -7.076e-5
-1.283, -6.459e-5
-1.282, -6.459e-5
-1.281, -7.384e-5
-1.280, -8.000e-5
-1.279, -7.384e-5
-1.278, -6.767e-5
-1.277, -6.767e-5
-1.276, -7.692e-5
-1.275, -8.000e-5
-1.274, -7.384e-5
-1.273, -6.767e-5
-1.272, -6.767e-5
-1.271, -7.692e-5
-1.270, -8.000e-5
-1.269, -7.692e-5
-1.268, -7.076e-5
-1.267, -7.076e-5
-1.266, -8.000e-5
-1.265, -8.309e-5
-1.264, -7.692e-5
-1.263, -7.076e-5
-1.262, -7.076e-5
-1.261, -8.000e-5
-1.260, -8.617e-5
-1.259, -8.000e-5
-1.258, -7.384e-5
-1.257, -7.384e-5
-1.256, -8.000e-5
-1.255, -8.617e-5
-1.254, -8.000e-5
-1.253, -7.384e-5
-1.252, -7.384e-5
-1.251, -8.309e-5
-1.250, -8.617e-5
-1.249, -8.309e-5
-1.248, -7.384e-5
-1.247, -7.692e-5
-1.246, -8.309e-5
-1.245, -8.617e-5
-1.244, -8.309e-5
-1.243, -7.692e-5
-1.242, -7.692e-5
-1.241, -8.309e-5
-1.240, -8.925e-5
-1.239, -8.309e-5
-1.238, -7.692e-5
-1.237, -7.692e-5
-1.236, -8.617e-5
-1.235, -8.925e-5
-1.234, -8.617e-5
-1.233, -7.692e-5
-1.232, -7.692e-5
-1.231, -8.617e-5
-1.230, -9.234e-5
-1.229, -8.617e-5
-1.228, -7.692e-5
-1.227, -8.000e-5
-1.226, -8.617e-5
-1.225, -9.234e-5
-1.224, -8.617e-5
-1.223, -8.000e-5
-1.222, -8.000e-5
-1.221, -8.617e-5
-1.220, -9.542e-5
-1.219, -8.617e-5
-1.218, -8.000e-5
-1.217, -8.000e-5
-1.216, -8.925e-5
-1.215, -9.234e-5
-1.214, -8.925e-5
-1.213, -8.000e-5
-1.212, -8.000e-5
-1.211, -8.925e-5
-1.210, -9.234e-5
-1.209, -8.925e-5
-1.208, -8.000e-5
-1.207, -8.000e-5
-1.206, -8.925e-5
-1.205, -9.542e-5
-1.204, -8.925e-5
-1.203, -8.000e-5
-1.202, -8.000e-5
-1.201, -8.925e-5
-1.200, -9.542e-5
-1.199, -8.925e-5
-1.198, -8.000e-5
-1.197, -8.309e-5
-1.196, -8.925e-5
-1.195, -9.542e-5
-1.194, -8.925e-5
-1.193, -8.000e-5
-1.192, -8.000e-5
-1.191, -8.925e-5
-1.190, -9.542e-5
-1.189, -8.925e-5
-1.188, -8.309e-5
-1.187, -8.309e-5
-1.186, -8.925e-5
-1.185, -9.542e-5
-1.184, -8.925e-5
-1.183, -8.309e-5
-1.182, -8.309e-5
-1.181, -8.925e-5
-1.180, -9.542e-5
-1.179, -8.925e-5
-1.178, -8.309e-5
-1.177, -8.309e-5
-1.176, -9.234e-5
-1.175, -9.542e-5
-1.174, -9.234e-5
-1.173, -8.309e-5
-1.172, -8.309e-5
-1.171, -9.234e-5
-1.170, -9.542e-5
-1.169, -8.925e-5
-1.168, -8.309e-5
-1.167, -8.309e-5
-1.166, -9.234e-5
-1.165, -9.542e-5
-1.164, -8.925e-5
-1.163, -8.309e-5
-1.162, -8.309e-5
-1.161, -9.234e-5
-1.160, -9.850e-5
-1.159, -9.234e-5
-1.158, -8.309e-5
-1.157, -8.309e-5
-1.156, -9.234e-5
-1.155, -9.850e-5
-1.154, -9.234e-5
-1.153, -8.309e-5
-1.152, -8.309e-5
-1.151, -9.234e-5
-1.150, -9.850e-5
-1.149, -9.234e-5
-1.148, -8.309e-5
-1.147, -8.309e-5
-1.146, -9.234e-5
-1.145, -9.850e-5
-1.144, -9.234e-5
-1.143, -8.309e-5
-1.142, -8.309e-5
-1.141, -9.234e-5
-1.140, -9.850e-5
-1.139, -9.234e-5
-1.138, -8.309e-5
-1.137, -8.617e-5
-1.136, -9.234e-5
-1.135, -9.542e-5
-1.134, -9.234e-5
-1.133, -8.309e-5
-1.132, -8.309e-5
-1.131, -9.234e-5
-1.130, -9.542e-5
-1.129, -9.234e-5
-1.128, -8.309e-5
-1.127, -8.309e-5
-1.126, -9.234e-5
-1.125, -9.850e-5
-1.124, -9.234e-5
-1.123, -8.309e-5
-1.122, -8.309e-5
-1.121, -9.234e-5
-1.120, -9.850e-5
-1.119, -9.234e-5
-1.118, -8.617e-5
-1.117, -8.617e-5
-1.116, -9.542e-5
-1.115, -9.850e-5
-1.114, -9.234e-5
-1.113, -8.617e-5
-1.112, -8.617e-5
-1.111, -9.542e-5
-1.110, -9.850e-5
-1.109, -9.234e-5
-1.108, -8.617e-5
-1.107, -8.617e-5
-1.106, -9.542e-5
-1.105, -1.016e-4
-1.104, -9.542e-5
-1.103, -8.617e-5
-1.102, -8.925e-5
-1.101, -9.542e-5
-1.100, -1.016e-4
-1.099, -9.542e-5
-1.098, -8.617e-5
-1.097, -8.617e-5
-1.096, -9.542e-5
-1.095, -1.016e-4
-1.094, -9.542e-5
-1.093, -8.925e-5
-1.092, -9.234e-5
-1.091, -9.850e-5
-1.090, -1.016e-4
-1.089, -9.850e-5
-1.088, -8.925e-5
-1.087, -9.234e-5
-1.086, -9.850e-5
-1.085, -1.047e-4
-1.084, -9.850e-5
-1.083, -9.234e-5
-1.082, -9.234e-5
-1.081, -9.850e-5
-1.080, -1.047e-4
-1.079, -9.850e-5
-1.078, -9.234e-5
-1.077, -9.234e-5
-1.076, -1.016e-4
-1.075, -1.078e-4
-1.074, -1.016e-4
-1.073, -9.234e-5
-1.072, -9.542e-5
-1.071, -1.016e-4
-1.070, -1.078e-4
-1.069, -1.016e-4
-1.068, -9.542e-5
-1.067, -9.542e-5
-1.066, -1.047e-4
-1.065, -1.108e-4
-1.064, -1.047e-4
-1.063, -9.850e-5
-1.062, -9.850e-5
-1.061, -1.047e-4
-1.060, -1.108e-4
-1.059, -1.078e-4
-1.058, -9.850e-5
-1.057, -9.850e-5
-1.056, -1.078e-4
-1.055, -1.139e-4
-1.054, -1.078e-4
-1.053, -1.016e-4
-1.052, -1.016e-4
-1.051, -1.108e-4
-1.050, -1.170e-4
-1.049, -1.108e-4
-1.048, -1.016e-4
-1.047, -1.047e-4
-1.046, -1.108e-4
-1.045, -1.201e-4
-1.044, -1.139e-4
-1.043, -1.047e-4
-1.042, -1.047e-4
-1.041, -1.170e-4
-1.040, -1.201e-4
-1.039, -1.170e-4
-1.038, -1.078e-4
-1.037, -1.078e-4
-1.036, -1.170e-4
-1.035, -1.232e-4
-1.034, -1.170e-4
-1.033, -1.108e-4
-1.032, -1.108e-4
-1.031, -1.201e-4
-1.030, -1.263e-4
-1.029, -1.232e-4
-1.028, -1.170e-4
-1.027, -1.170e-4
-1.026, -1.232e-4
-1.025, -1.293e-4
-1.024, -1.263e-4
-1.023, -1.170e-4
-1.022, -1.201e-4
-1.021, -1.263e-4
-1.020, -1.355e-4
-1.019, -1.293e-4
-1.018, -1.201e-4
-1.017, -1.232e-4
-1.016, -1.293e-4
-1.015, -1.386e-4
-1.014, -1.324e-4
-1.013, -1.263e-4
-1.012, -1.263e-4
-1.011, -1.355e-4
-1.010, -1.417e-4
-1.009, -1.355e-4
-1.008, -1.293e-4
-1.007, -1.293e-4
-1.006, -1.386e-4
-1.005, -1.448e-4
-1.004, -1.417e-4
-1.003, -1.324e-4
-1.002, -1.355e-4
-1.001, -1.448e-4
