Potential V vs RHE, Current mA cm-2
0.013299999999999867,2.3767149837732613
0.012299999999999978,1.580232521949246
0.011299999999999866,0.9028687515738664
0.010299999999999976,0.2917134700321706
0.009299999999999864,-0.24333034357678635
0.008299999999999974,-0.7182489269414791
0.007299999999999862,-1.1624682750991004
0.006299999999999972,-1.580232521949246
0.00529999999999986,-1.9324956356156402
0.0042999999999999705,-2.280514615382439
0.0032999999999998586,-2.615801193450453
0.0022999999999999687,-2.9058170099227856
0.0012999999999998568,-3.1944181150952526
0.00029999999999996696,-3.46887210726907
-0.000700000000000145,-3.7206907186450464
-0.0017000000000000348,-3.9428003927238575
-0.0027000000000001467,-4.179057179801319
-0.0037000000000000366,-4.398337431280399
-0.0047000000000001485,-4.5893234567621795
-0.005700000000000038,-4.793041883942744
-0.00670000000000015,-4.998175022423175
-0.00770000000000004,-5.1608668219076534
-0.008700000000000152,-5.349023424789703
-0.009700000000000042,-5.537180027671754
-0.010700000000000154,-5.6984571158563675
-0.011700000000000044,-5.845587091042332
-0.012700000000000156,-5.995546488828026
-0.013700000000000045,-6.129944062315205
-0.014700000000000157,-6.257268079303058
-0.015700000000000047,-6.386006807590776
-0.01670000000000016,-6.53596620537647
-0.01770000000000005,-6.629337151167562
-0.01870000000000016,-6.745343477756495
-0.01970000000000005,-6.861349804345428
-0.020700000000000163,-6.970282574435036
-0.021700000000000053,-7.059409386326533
-0.022700000000000164,-7.179659846815062
-0.023700000000000054,-7.284348483005074
-0.024700000000000166,-7.370645872296841
-0.025700000000000056,-7.478163931086583
-0.026700000000000168,-7.591340835075788
-0.027700000000000058,-7.680467646967284
-0.02870000000000017,-7.763935613659322
-0.02970000000000006,-7.871453672449064
-0.03070000000000017,-7.956336350440965
-0.03170000000000006,-8.015754225035298
-0.03270000000000017,-8.093563346527874
-0.03370000000000006,-8.189763714918698
-0.034700000000000175,-8.26615812511141
-0.035700000000000065,-8.35387022570304
-0.03670000000000018,-8.428849924595887
-0.03770000000000007,-8.495341355689545
-0.03870000000000018,-8.570321054582392
-0.03970000000000007,-8.649544887374834
-0.04070000000000018,-8.717451029768355
-0.04170000000000007,-8.78252774956215
-0.04270000000000018,-8.84477504675621
-0.04370000000000007,-8.909851766550002
-0.044700000000000184,-8.949463682946222
-0.045700000000000074,-9.03293164963826
-0.046700000000000186,-9.09517894683232
-0.047700000000000076,-9.156011532726518
-0.04870000000000019,-9.208355850821524
-0.04970000000000008,-9.273432570615316
-0.05070000000000019,-9.32577688871032
-0.05170000000000008,-9.363974093806679
-0.05270000000000019,-9.419147834501414
-0.05370000000000008,-9.463003884797232
-0.05470000000000019,-9.505445223793181
-0.05570000000000008,-9.546471851489269
-0.056700000000000195,-9.607304437383464
-0.057700000000000085,-9.678040002376715
-0.058700000000000196,-9.727554897871993
-0.059700000000000086,-9.789802195066054
-0.0607000000000002,-9.85063478096025
-0.06170000000000009,-9.918540923353772
-0.0627000000000002,-9.980788220547833
-0.06370000000000009,-10.023229559543786
-0.0647000000000002,-10.045864940341625
-0.06570000000000009,-10.084062145437981
-0.0667000000000002,-10.113771082735147
-0.0677000000000001,-10.151968287831503
-0.0687000000000002,-10.171774246029615
-0.0697000000000001,-10.207142028526238
-0.07070000000000021,-10.245339233622596
-0.0717000000000001,-10.248168656222326
-0.07270000000000021,-10.303342396917062
-0.0737000000000001,-10.327392489014768
-0.07470000000000021,-10.362760271511394
-0.0757000000000001,-10.388225074908965
-0.07670000000000021,-10.447642949503296
-0.0777000000000001,-10.475937175500595
-0.07870000000000021,-10.522622648396142
-0.0797000000000001,-10.572137543891419
-0.08070000000000022,-10.618823016786965
-0.0817000000000001,-10.642873108884672
-0.08270000000000022,-10.685314447880621
-0.08370000000000011,-10.727755786876573
-0.08470000000000022,-10.73765876597563
-0.08570000000000011,-10.77727068237185
-0.08670000000000022,-10.804150197069285
-0.08770000000000011,-10.853665092564562
-0.08870000000000022,-10.887618163761323
-0.08970000000000011,-10.951280172255249
-0.09070000000000022,-10.972500841753224
-0.09170000000000011,-11.006453912949986
-0.09270000000000023,-11.0503099632458
-0.09370000000000012,-11.081433611842833
-0.09470000000000023,-11.111142549139998
-0.09570000000000012,-11.13094850733811
-0.09670000000000023,-11.173389846334059
-0.09770000000000012,-11.1960252271319
-0.09870000000000023,-11.205928206230956
-0.09970000000000012,-11.276663771224207
-0.10070000000000023,-11.280907905123803
-0.10170000000000012,-11.320519821520024
-0.10270000000000024,-11.361546449216108
-0.10370000000000013,-11.39267009781314
-0.10470000000000024,-11.422379035110307
-0.10570000000000013,-11.445014415908147
-0.10670000000000024,-11.494529311403422
-0.10770000000000013,-11.495944022703288
-0.10870000000000024,-11.529897093900049
-0.10970000000000013,-11.55819131989735
-0.11070000000000024,-11.56102074249708
-0.11170000000000013,-11.57516785549573
-0.11270000000000002,-11.583656123294919
-0.11370000000000013,-11.644488709189117
-0.11470000000000002,-11.665709378687092
-0.11570000000000014,-11.715224274182368
-0.11670000000000003,-11.76898330357724
-0.11770000000000014,-11.795862818274676
-0.11870000000000003,-11.839718868570493
-0.11970000000000014,-11.876501362366984
-0.12070000000000003,-11.88640434146604
-0.12170000000000014,-11.897722031864959
-0.12270000000000003,-11.921772123962665
-0.12370000000000014,-11.947236927360233
-0.12470000000000003,-11.957139906459291
-0.12570000000000014,-11.995337111555646
-0.12670000000000003,-12.026460760152677
-0.12770000000000015,-12.040607873151327
-0.12870000000000004,-12.073146233048224
-0.12970000000000015,-12.107099304244983
-0.13070000000000004,-12.121246417243634
-0.13170000000000015,-12.11134343814458
-0.13270000000000004,-12.143881798041475
-0.13370000000000015,-12.235838032532703
-0.13470000000000004,-12.242911589032026
-0.13570000000000015,-12.286767639327845
-0.13670000000000004,-12.33628253482312
-0.13770000000000016,-12.387212141618262
-0.13870000000000005,-12.416921078915427
-0.13970000000000016,-12.463606551810972
-0.14070000000000005,-12.500389045607465
-0.14170000000000016,-12.51878029250571
-0.14270000000000005,-12.547074518503011
-0.14370000000000016,-12.607907104397206
-0.14470000000000005,-12.592345280098693
-0.14570000000000016,-12.653177865992886
-0.14670000000000005,-12.69278978238911
-0.14770000000000016,-12.722498719686275
-0.14870000000000005,-12.76635476998209
-0.14970000000000017,-12.80313726377858
-0.15070000000000006,-12.86114042707305
-0.15170000000000017,-12.86679927227251
-0.15270000000000006,-12.937534837265758
-0.15370000000000017,-12.968658485862791
-0.15470000000000006,-13.002611557059552
-0.15570000000000017,-13.049297029955099
-0.15670000000000006,-13.1058854819497
-0.15770000000000017,-13.152570954845245
-0.15870000000000006,-13.199256427740792
-0.15970000000000018,-13.268577281434178
-0.16070000000000007,-13.31384804302986
-0.16170000000000018,-13.350630536826351
-0.16270000000000007,-13.391657164522437
-0.16370000000000018,-13.439757348717848
-0.16470000000000007,-13.475125131214474
-0.16570000000000018,-13.521810604110021
-0.16670000000000007,-13.575569633504891
-0.16770000000000018,-13.612352127301383
-0.16870000000000007,-13.642061064598547
-0.16970000000000018,-13.68167298099477
-0.17070000000000007,-13.732602587789911
-0.17170000000000019,-13.77787334938559
-0.17270000000000008,-13.814655843182084
-0.1737000000000002,-13.867000161277092
-0.17470000000000008,-13.913685634172637
-0.1757000000000002,-13.963200529667912
-0.17670000000000008,-14.01271542516319
-0.1777000000000002,-14.042424362460354
-0.17870000000000008,-14.104671659654418
-0.1797000000000002,-14.203701450644967
-0.18070000000000008,-14.231995676642269
-0.1817000000000002,-14.30273124163552
-0.18270000000000008,-14.373466806628771
-0.1837000000000002,-14.444202371622024
-0.1847000000000001,-14.472496597619326
-0.1857000000000002,-14.543232162612577
-0.1867000000000001,-14.62811484060448
-0.1877000000000002,-14.65640906660178
-0.1887000000000001,-14.69885040559773
-0.1897000000000002,-14.769585970590983
-0.1907000000000001,-14.840321535584234
-0.1917000000000001,-14.868615761581536
-0.19269999999999998,-14.98179266557074
-0.1937000000000001,-15.02423400456669
-0.19469999999999998,-15.080822456561293
-0.1957000000000001,-15.137410908555893
-0.19669999999999999,-15.193999360550496
-0.1977000000000001,-15.250587812545096
-0.1987,-15.321323377538347
-0.1997000000000001,-15.406206055530248
-0.2007,-15.4769416205235
-0.2017000000000001,-15.547677185516752
-0.2027,-15.632559863508657
-0.2037000000000001,-15.717442541500558
-0.2047,-15.759883880496508
-0.2057000000000001,-15.830619445489761
-0.2067,-15.91550212348166
-0.2077000000000001,-15.957943462477614
-0.2087,-16.014531914472215
-0.2097000000000001,-16.099414592464115
-0.2107,-16.141855931460068
-0.2117000000000001,-16.184297270456018
-0.2127,-16.269179948447924
-0.2137000000000001,-16.311621287443874
-0.2147,-16.368209739438473
-0.2157000000000001,-16.453092417430376
-0.2167,-16.52382798242363
-0.21770000000000012,-16.580416434418233
-0.2187,-16.637004886412832
-0.21970000000000012,-16.721887564404735
-0.2207,-16.792623129397985
-0.22170000000000012,-16.849211581392588
-0.2227,-16.93409425938449
-0.22370000000000012,-17.00482982437774
-0.2247,-17.03312405037504
-0.22570000000000012,-17.089712502369647
-0.2267,-17.160448067362896
-0.22770000000000012,-17.2453307453548
-0.22870000000000001,-17.3302134233467
-0.22970000000000013,-17.40094898833995
-0.23070000000000002,-17.514125892329155
-0.23170000000000013,-17.556567231325104
-0.23270000000000002,-17.655597022315657
-0.23370000000000013,-17.72633258730891
-0.23470000000000002,-17.797068152302163
-0.23570000000000013,-17.867803717295413
-0.23670000000000002,-17.938539282288666
-0.2376999999999999,-17.980980621284615
-0.23870000000000002,-18.08001041227517
-0.2396999999999999,-18.15074597726842
-0.24070000000000003,-18.249775768258974
-0.24169999999999991,-18.292217107254928
-0.24270000000000003,-18.377099785246827
-0.24369999999999992,-18.47612957623738
-0.24470000000000003,-18.518570915233333
-0.24569999999999992,-18.589306480226583
-0.24670000000000003,-18.645894932221182
-0.24769999999999992,-18.716630497214435
-0.24870000000000003,-18.759071836210385
-0.24969999999999992,-18.858101627200938
-0.25070000000000003,-18.94298430519284
-0.2516999999999999,-18.999572757187444
-0.25270000000000004,-19.070308322180697
-0.2536999999999999,-19.169338113171246
-0.25470000000000004,-19.2683679041618
-0.2556999999999999,-19.3249563561564
-0.25670000000000004,-19.381544808151002
-0.25769999999999993,-19.423986147146955
-0.25870000000000004,-19.49472171214021
-0.25969999999999993,-19.60789861612941
-0.26070000000000004,-19.664487068124007
-0.26169999999999993,-19.749369746115914
-0.26270000000000004,-19.834252424107817
-0.26369999999999993,-19.890840876102416
-0.26470000000000005,-19.93328221509837
-0.26569999999999994,-20.00401778009162
-0.26670000000000005,-20.06060623208622
-0.26769999999999994,-20.10304757108217
-0.26870000000000005,-20.13134179707947
-0.26969999999999994,-20.272812927065978
-0.27070000000000005,-20.357695605057877
-0.27169999999999994,-20.400136944053827
-0.27270000000000005,-20.51331384804303
-0.27369999999999994,-20.584049413036283
-0.27470000000000006,-20.654784978029536
-0.27569999999999995,-20.69722631702549
-0.27670000000000006,-20.810403221014692
-0.27769999999999995,-20.86699167300929
-0.27870000000000006,-20.966021463999844
-0.27969999999999995,-21.022609915994444
-0.28070000000000006,-21.121639706984997
-0.28169999999999995,-21.1782281589796
-0.28270000000000006,-21.291405062968803
-0.28369999999999995,-21.390434853959356
-0.28470000000000006,-21.404581966958006
-0.28569999999999995,-21.54605309694451
-0.28670000000000007,-21.63093577493641
-0.28769999999999996,-21.701671339929664
-0.28870000000000007,-21.786554017921564
-0.28969999999999996,-21.899730921910766
-0.29070000000000007,-21.97046648690402
-0.29169999999999996,-22.055349164895922
-0.29270000000000007,-22.111937616890522
-0.29369999999999996,-22.196820294882425
-0.2947000000000001,-22.239261633878378
-0.29569999999999996,-22.295850085872978
-0.2967000000000001,-22.42317410286083
-0.29769999999999996,-22.493909667854084
-0.2987000000000001,-22.578792345845983
-0.29969999999999997,-22.706116362833843
-0.3007000000000001,-22.790999040825742
-0.30169999999999997,-22.904175944814945
-0.3027000000000001,-22.974911509808198
-0.30369999999999997,-23.088088413797397
-0.3047000000000001,-23.13052975279335
-0.30569999999999997,-23.257853769781203
-0.3067000000000001,-23.314442221775803
-0.3077,-23.427619125765005
-0.3087000000000001,-23.51250180375691
-0.3097,-23.62567870774611
-0.3107000000000001,-23.724708498736668
-0.3117,-23.809591176728567
-0.3127000000000001,-23.908620967719123
-0.3137,-24.00765075870967
-0.3147000000000001,-24.064239210704276
-0.3157,-24.21985745368943
-0.3167000000000001,-24.389622809673234
-0.3177,-24.474505487665134
-0.3187000000000001,-24.601829504652986
-0.3197,-24.74330063463949
-0.3207000000000001,-24.884771764625995
-0.3217,-24.983801555616548
-0.3227000000000001,-25.12527268560305
-0.3237,-25.280890928588207
-0.3247000000000001,-25.36577360658011
-0.3257,-25.478950510569312
-0.3267000000000001,-25.648715866553115
-0.3277,-25.77603988354097
-0.3287000000000001,-25.889216787530174
-0.3297,-26.11557059550858
-0.3307000000000001,-26.17215904750318
-0.3317,-26.34192440348698
-0.3327000000000001,-26.497542646472137
-0.3337,-26.62486666345999
-0.3347000000000001,-26.738043567449193
-0.3357,-26.907808923433
-0.3367000000000001,-27.0775742794168
-0.3377,-27.233192522401957
-0.3387000000000001,-27.417104991384413
-0.3397,-27.64345879936282
-0.3407000000000001,-27.78492992934932
-0.3417,-27.954695285333123
-0.3427000000000001,-28.15275486731423
-0.3437,-28.336667336296685
-0.3447000000000001,-28.478138466283188
-0.3457,-28.647903822266994
-0.3467000000000001,-28.8176691782508
-0.3477,-29.001581647233255
-0.3487000000000001,-29.157199890218404
-0.3497,-29.369406585198163
-0.3507000000000001,-29.525024828183312
-0.3517,-29.708937297165768
-0.3527000000000001,-29.864555540150924
-0.3537,-30.09090934812933
-0.3547000000000001,-30.260674704113132
-0.3557,-30.47288139909289
-0.35670000000000013,-30.670940981073993
-0.3577,-30.897294789052403
-0.35870000000000013,-31.08120725803486
-0.3597,-31.321708179011907
-0.36070000000000013,-31.533914873991666
-0.3617,-31.74612156897142
-0.3626999999999999,-31.986622489948477
-0.3637,-32.19882918492823
-0.3646999999999999,-32.368594540912035
-0.3657,-32.66568391388369
-0.3666999999999999,-32.9486261738567
-0.3677,-33.203274207832415
-0.3686999999999999,-33.45792224180811
-0.36970000000000003,-33.755011614779775
-0.3706999999999999,-34.00965964875548
-0.37170000000000003,-34.236013456733886
-0.3726999999999999,-34.5472499427042
-0.37370000000000003,-34.773603750682604
-0.3746999999999999,-35.02825178465831
-0.37570000000000003,-35.268752705635364
-0.3766999999999999,-35.57998919160567
-0.37770000000000004,-35.862931451578675
-0.3786999999999999,-36.10343237255574
-0.37970000000000004,-36.47125731052064
-0.3806999999999999,-36.7117582314977
-0.38170000000000004,-37.05128894346531
-0.38269999999999993,-37.305936977441014
-0.38370000000000004,-37.631320576409976
-0.38469999999999993,-37.87182149738703
-0.38570000000000004,-38.197205096355994
-0.38669999999999993,-38.49429446932764
-0.38770000000000004,-38.678206938310105
-0.38869999999999993,-38.96114919828311
-0.38970000000000005,-39.244091458256115
-0.39069999999999994,-39.51288660523048
-0.39170000000000005,-39.85241731719808
-0.39269999999999994,-40.220242255162994
-0.39370000000000005,-40.602214306126555
-0.39469999999999994,-40.91345079209687
-0.39570000000000005,-41.29542284306042
-0.39669999999999994,-41.677394894023976
-0.39770000000000005,-42.03107271899024
-0.39869999999999994,-42.37060343095784
-0.39970000000000006,-42.738428368922754
-0.40069999999999995,-42.93648795090387
-0.40170000000000006,-43.26187154987282
-0.40269999999999995,-43.53066669684718
-0.40370000000000006,-43.89849163481209
-0.40469999999999995,-44.138992555789144
-0.40570000000000006,-44.45022904175945
-0.40669999999999995,-44.81805397972436
-0.40770000000000006,-45.20002603068792
-0.40869999999999995,-45.567850968652834
-0.40970000000000006,-46.006411471610996
-0.41069999999999995,-46.38838352257455
-0.41170000000000007,-46.78450268653676
-0.41269999999999996,-47.16647473750032
-0.41370000000000007,-47.54844678846388
-0.41469999999999996,-47.85968327443419
-0.41570000000000007,-48.21336109940045
-0.41669999999999996,-48.59533315036401
-0.41770000000000007,-48.991452314326224
-0.41869999999999996,-49.472454156280335
-0.4197000000000001,-49.84027909424525
-0.42069999999999996,-50.29298671020206
-0.4217000000000001,-50.66081164816696
-0.42269999999999996,-51.09937215112513
-0.4237000000000001,-51.53793265408329
-0.42469999999999997,-51.919904705046854
-0.4257000000000001,-52.34431809500636
-0.42669999999999997,-52.74043725896857
-0.4277000000000001,-53.10826219693348
-0.42869999999999997,-53.617558264884885
-0.4297000000000001,-53.971236089851146
-0.43069999999999997,-54.52297349679851
-0.4317000000000001,-54.86250420876612
-0.4327,-55.41424161571349
-0.4337000000000001,-55.85280211867165
-0.4347,-56.29136262162981
-0.4357000000000001,-56.81480580257987
-0.4367,-57.22507207954074
-0.4377000000000001,-57.59289701750564
-0.4387,-57.974869068469204
-0.4397000000000001,-58.47001802342197
-0.4407,-58.809548735389576
-0.4417000000000001,-59.24810923834774
-0.4427,-59.757405306299155
-0.4437000000000001,-60.18181869625866
-0.4447,-60.70526187720872
-0.4457000000000001,-61.242852171157445
-0.4467,-61.80873669110345
-0.4477000000000001,-62.26144430706027
-0.4487,-62.82732882700627
-0.4497000000000001,-63.350772007956344
-0.4507,-63.803479623913155
-0.4517000000000001,-64.05812765788886
-0.4527,-64.56742372584027
-0.4537000000000001,-64.86451309881193
-0.4547,-65.16160247178358
-0.4557000000000001,-65.51528029674984
-0.4567,-65.8123696697215
-0.4577000000000001,-66.34995996367022
-0.4587,-66.7885204666284
-0.4597000000000001,-67.42514055156765
-0.4607,-67.89199528052312
-0.4617000000000001,-68.40129134847452
-0.4627,-69.02376432041514
-0.4637000000000001,-69.6320901793571
-0.4647,-70.19797469930313
-0.4657000000000001,-70.73556499325183
-0.4667,-71.18827260920865
-0.4677000000000001,-71.64098022516546
-0.4687,-72.05124650212633
-0.4697000000000001,-72.54639545707909
-0.4707,-73.197162655017
-0.4717000000000001,-73.79134140096032
-0.4727,-74.22990190391847
-0.4737000000000001,-74.83822776286046
-0.4747,-75.4465536218024
-0.4757000000000001,-76.0407323677457
-0.4767,-76.49343998370253
-0.4777000000000001,-77.08761872964584
-0.4787,-77.59691479759726
-0.4797000000000001,-78.07791663955136
-0.4807,-78.54477136850683
-0.48170000000000013,-79.20968567944341
-0.4827,-79.73312886039348
-0.48370000000000013,-80.35560183233409
-0.4847,-80.99222191727335
-0.48570000000000013,-81.41663530723285
-0.4867,-81.38834108123557
-0.48570000000000013,-80.41219028432867
-0.4847,-79.60580484340561
-0.48370000000000013,-78.79941940248254
-0.4827,-78.14865220454463
-0.48170000000000013,-77.35641387662021
-0.4807,-76.67735245268499
-0.4797000000000001,-75.99829102874978
-0.4787,-75.38996516980781
-0.4777000000000001,-74.56943261588609
-0.4767,-74.04598943493602
-0.4757000000000001,-73.43766357599405
-0.4747,-72.73030792606153
-0.4737000000000001,-72.16442340611552
-0.4727,-71.42877353018571
-0.4717000000000001,-70.82044767124374
-0.4707,-70.12723913430986
-0.4697000000000001,-69.5189132753679
-0.4687,-68.8115576254354
-0.4677000000000001,-68.11834908850152
-0.4667,-67.45343477756495
-0.4657000000000001,-66.73193201463377
-0.4647,-66.0670177036972
