Mar. 10, 2025   21:37:49
Cyclic Voltammetry
File: c:/users/guazh/data/banditlqround7_x0exp891_r5/2025-03-03-exp870\exp870-2025-03-10t21_31_52-arkoh\exp870_cv_sr_100mvs_efin_-1400mv.bin
Data Source:  Experiment
Instrument Model:  CHI760E
Header: CV ran at 100 mVs
Note: 

Init E (V) = -1
High E (V) = -1
Low E (V) = -1.4
Final E (V) = -1
Init P/N = N
Scan Rate (V/s) = 0.1
Segment = 3
Sample Interval (V) = 0.001
Quiet Time (sec) = 2
Sensitivity (A/V) = 0.01
Comp R (ohm) = 1.8

Results:

Channel 1:
Segment 1:

Segment 2:

Segment 3:

Potential/V, Current/A

-1.000, 1.616e-5
-1.001, 2.547e-5
-1.002, 2.442e-5
-1.003, 2.789e-5
-1.004, 2.683e-5
-1.005, 2.777e-5
-1.006, 2.895e-5
-1.007, 2.748e-5
-1.008, 3.031e-5
-1.009, 2.836e-5
-1.010, 2.966e-5
-1.011, 3.071e-5
-1.012, 2.910e-5
-1.013, 3.153e-5
-1.014, 3.010e-5
-1.015, 3.111e-5
-1.016, 3.192e-5
-1.017, 3.001e-5
-1.018, 3.289e-5
-1.019, 3.112e-5
-1.020, 3.187e-5
-1.021, 3.300e-5
-1.022, 3.080e-5
-1.023, 3.378e-5
-1.024, 3.227e-5
-1.025, 3.260e-5
-1.026, 3.402e-5
-1.027, 3.182e-5
-1.028, 3.448e-5
-1.029, 3.287e-5
-1.030, 3.337e-5
-1.031, 3.481e-5
-1.032, 3.261e-5
-1.033, 3.524e-5
-1.034, 3.352e-5
-1.035, 3.403e-5
-1.036, 3.539e-5
-1.037, 3.345e-5
-1.038, 3.601e-5
-1.039, 3.449e-5
-1.040, 3.469e-5
-1.041, 3.613e-5
-1.042, 3.416e-5
-1.043, 3.647e-5
-1.044, 3.515e-5
-1.045, 3.559e-5
-1.046, 3.673e-5
-1.047, 3.482e-5
-1.048, 3.730e-5
-1.049, 3.568e-5
-1.050, 3.643e-5
-1.051, 3.743e-5
-1.052, 3.550e-5
-1.053, 3.788e-5
-1.054, 3.638e-5
-1.055, 3.723e-5
-1.056, 3.814e-5
-1.057, 3.610e-5
-1.058, 3.871e-5
-1.059, 3.703e-5
-1.060, 3.782e-5
-1.061, 3.854e-5
-1.062, 3.669e-5
-1.063, 3.969e-5
-1.064, 3.778e-5
-1.065, 3.814e-5
-1.066, 3.988e-5
-1.067, 3.724e-5
-1.068, 4.021e-5
-1.069, 3.849e-5
-1.070, 3.877e-5
-1.071, 4.058e-5
-1.072, 3.799e-5
-1.073, 4.090e-5
-1.074, 3.938e-5
-1.075, 3.996e-5
-1.076, 4.123e-5
-1.077, 3.895e-5
-1.078, 4.152e-5
-1.079, 4.022e-5
-1.080, 4.057e-5
-1.081, 4.168e-5
-1.082, 3.981e-5
-1.083, 4.223e-5
-1.084, 4.090e-5
-1.085, 4.116e-5
-1.086, 4.235e-5
-1.087, 4.065e-5
-1.088, 4.310e-5
-1.089, 4.154e-5
-1.090, 4.217e-5
-1.091, 4.339e-5
-1.092, 4.144e-5
-1.093, 4.384e-5
-1.094, 4.224e-5
-1.095, 4.313e-5
-1.096, 4.409e-5
-1.097, 4.195e-5
-1.098, 4.496e-5
-1.099, 4.337e-5
-1.100, 4.394e-5
-1.101, 4.515e-5
-1.102, 4.306e-5
-1.103, 4.591e-5
-1.104, 4.403e-5
-1.105, 4.464e-5
-1.106, 4.610e-5
-1.107, 4.395e-5
-1.108, 4.687e-5
-1.109, 4.505e-5
-1.110, 4.560e-5
-1.111, 4.734e-5
-1.112, 4.482e-5
-1.113, 4.770e-5
-1.114, 4.627e-5
-1.115, 4.651e-5
-1.116, 4.814e-5
-1.117, 4.598e-5
-1.118, 4.873e-5
-1.119, 4.746e-5
-1.120, 4.765e-5
-1.121, 4.921e-5
-1.122, 4.711e-5
-1.123, 4.961e-5
-1.124, 4.853e-5
-1.125, 4.872e-5
-1.126, 5.019e-5
-1.127, 4.843e-5
-1.128, 5.083e-5
-1.129, 4.984e-5
-1.130, 5.007e-5
-1.131, 5.138e-5
-1.132, 4.953e-5
-1.133, 5.207e-5
-1.134, 5.082e-5
-1.135, 5.116e-5
-1.136, 5.259e-5
-1.137, 5.061e-5
-1.138, 5.350e-5
-1.139, 5.193e-5
-1.140, 5.258e-5
-1.141, 5.422e-5
-1.142, 5.197e-5
-1.143, 5.503e-5
-1.144, 5.344e-5
-1.145, 5.378e-5
-1.146, 5.563e-5
-1.147, 5.341e-5
-1.148, 5.627e-5
-1.149, 5.508e-5
-1.150, 5.522e-5
-1.151, 5.716e-5
-1.152, 5.491e-5
-1.153, 5.768e-5
-1.154, 5.664e-5
-1.155, 5.667e-5
-1.156, 5.859e-5
-1.157, 5.658e-5
-1.158, 5.921e-5
-1.159, 5.830e-5
-1.160, 5.825e-5
-1.161, 6.034e-5
-1.162, 5.832e-5
-1.163, 6.098e-5
-1.164, 6.017e-5
-1.165, 6.040e-5
-1.166, 6.202e-5
-1.167, 6.037e-5
-1.168, 6.283e-5
-1.169, 6.185e-5
-1.170, 6.226e-5
-1.171, 6.399e-5
-1.172, 6.234e-5
-1.173, 6.503e-5
-1.174, 6.391e-5
-1.175, 6.454e-5
-1.176, 6.613e-5
-1.177, 6.458e-5
-1.178, 6.751e-5
-1.179, 6.606e-5
-1.180, 6.689e-5
-1.181, 6.846e-5
-1.182, 6.654e-5
-1.183, 6.962e-5
-1.184, 6.843e-5
-1.185, 6.914e-5
-1.186, 7.118e-5
-1.187, 6.917e-5
-1.188, 7.220e-5
-1.189, 7.129e-5
-1.190, 7.169e-5
-1.191, 7.377e-5
-1.192, 7.183e-5
-1.193, 7.488e-5
-1.194, 7.428e-5
-1.195, 7.458e-5
-1.196, 7.669e-5
-1.197, 7.476e-5
-1.198, 7.780e-5
-1.199, 7.734e-5
-1.200, 7.742e-5
-1.201, 7.966e-5
-1.202, 7.812e-5
-1.203, 8.075e-5
-1.204, 8.040e-5
-1.205, 8.099e-5
-1.206, 8.297e-5
-1.207, 8.137e-5
-1.208, 8.428e-5
-1.209, 8.378e-5
-1.210, 8.462e-5
-1.211, 8.669e-5
-1.212, 8.500e-5
-1.213, 8.814e-5
-1.214, 8.734e-5
-1.215, 8.831e-5
-1.216, 9.027e-5
-1.217, 8.865e-5
-1.218, 9.182e-5
-1.219, 9.113e-5
-1.220, 9.166e-5
-1.221, 9.412e-5
-1.222, 9.239e-5
-1.223, 9.562e-5
-1.224, 9.497e-5
-1.225, 9.568e-5
-1.226, 9.809e-5
-1.227, 9.636e-5
-1.228, 9.983e-5
-1.229, 9.958e-5
-1.230, 9.976e-5
-1.231, 1.023e-4
-1.232, 1.004e-4
-1.233, 1.036e-4
-1.234, 1.033e-4
-1.235, 1.037e-4
-1.236, 1.063e-4
-1.237, 1.048e-4
-1.238, 1.077e-4
-1.239, 1.076e-4
-1.240, 1.079e-4
-1.241, 1.104e-4
-1.242, 1.089e-4
-1.243, 1.117e-4
-1.244, 1.118e-4
-1.245, 1.123e-4
-1.246, 1.144e-4
-1.247, 1.134e-4
-1.248, 1.160e-4
-1.249, 1.159e-4
-1.250, 1.167e-4
-1.251, 1.189e-4
-1.252, 1.179e-4
-1.253, 1.206e-4
-1.254, 1.205e-4
-1.255, 1.213e-4
-1.256, 1.236e-4
-1.257, 1.224e-4
-1.258, 1.255e-4
-1.259, 1.254e-4
-1.260, 1.261e-4
-1.261, 1.285e-4
-1.262, 1.275e-4
-1.263, 1.307e-4
-1.264, 1.306e-4
-1.265, 1.313e-4
-1.266, 1.342e-4
-1.267, 1.333e-4
-1.268, 1.363e-4
-1.269, 1.370e-4
-1.270, 1.376e-4
-1.271, 1.406e-4
-1.272, 1.400e-4
-1.273, 1.432e-4
-1.274, 1.442e-4
-1.275, 1.450e-4
-1.276, 1.482e-4
-1.277, 1.480e-4
-1.278, 1.515e-4
-1.279, 1.530e-4
-1.280, 1.546e-4
-1.281, 1.581e-4
-1.282, 1.583e-4
-1.283, 1.623e-4
-1.284, 1.643e-4
-1.285, 1.663e-4
-1.286, 1.703e-4
-1.287, 1.717e-4
-1.288, 1.761e-4
-1.289, 1.788e-4
-1.290, 1.816e-4
-1.291, 1.868e-4
-1.292, 1.889e-4
-1.293, 1.947e-4
-1.294, 1.984e-4
-1.295, 2.027e-4
-1.296, 2.088e-4
-1.297, 2.123e-4
-1.298, 2.195e-4
-1.299, 2.246e-4
-1.300, 2.303e-4
-1.301, 2.385e-4
-1.302, 2.437e-4
-1.303, 2.531e-4
-1.304, 2.606e-4
-1.305, 2.687e-4
-1.306, 2.793e-4
-1.307, 2.874e-4
-1.308, 2.994e-4
-1.309, 3.097e-4
-1.310, 3.212e-4
-1.311, 3.348e-4
-1.312, 3.464e-4
-1.313, 3.618e-4
-1.314, 3.759e-4
-1.315, 3.909e-4
-1.316, 4.084e-4
-1.317, 4.236e-4
-1.318, 4.430e-4
-1.319, 4.614e-4
-1.320, 4.806e-4
-1.321, 5.026e-4
-1.322, 5.224e-4
-1.323, 5.460e-4
-1.324, 5.687e-4
-1.325, 5.922e-4
-1.326, 6.179e-4
-1.327, 6.419e-4
-1.328, 6.699e-4
-1.329, 6.966e-4
-1.330, 7.247e-4
-1.331, 7.548e-4
-1.332, 7.832e-4
-1.333, 8.158e-4
-1.334, 8.469e-4
-1.335, 8.797e-4
-1.336, 9.140e-4
-1.337, 9.470e-4
-1.338, 9.843e-4
-1.339, 1.019e-3
-1.340, 1.056e-3
-1.341, 1.095e-3
-1.342, 1.133e-3
-1.343, 1.174e-3
-1.344, 1.213e-3
-1.345, 1.254e-3
-1.346, 1.298e-3
-1.347, 1.340e-3
-1.348, 1.387e-3
-1.349, 1.432e-3
-1.350, 1.479e-3
-1.351, 1.529e-3
-1.352, 1.576e-3
-1.353, 1.629e-3
-1.354, 1.677e-3
-1.355, 1.730e-3
-1.356, 1.782e-3
-1.357, 1.834e-3
-1.358, 1.890e-3
-1.359, 1.944e-3
-1.360, 2.001e-3
-1.361, 2.058e-3
-1.362, 2.115e-3
-1.363, 2.176e-3
-1.364, 2.234e-3
-1.365, 2.296e-3
-1.366, 2.360e-3
-1.367, 2.422e-3
-1.368, 2.488e-3
-1.369, 2.551e-3
-1.370, 2.617e-3
-1.371, 2.685e-3
-1.372, 2.750e-3
-1.373, 2.819e-3
-1.374, 2.888e-3
-1.375, 2.959e-3
-1.376, 3.029e-3
-1.377, 3.100e-3
-1.378, 3.175e-3
-1.379, 3.248e-3
-1.380, 3.324e-3
-1.381, 3.399e-3
-1.382, 3.473e-3
-1.383, 3.553e-3
-1.384, 3.630e-3
-1.385, 3.714e-3
-1.386, 3.793e-3
-1.387, 3.873e-3
-1.388, 3.958e-3
-1.389, 4.042e-3
-1.390, 4.123e-3
-1.391, 4.207e-3
-1.392, 4.285e-3
-1.393, 4.369e-3
-1.394, 4.448e-3
-1.395, 4.532e-3
-1.396, 4.615e-3
-1.397, 4.699e-3
-1.398, 4.791e-3
-1.399, 4.874e-3
-1.400, 4.882e-3
-1.399, 4.809e-3
-1.398, 4.739e-3
-1.397, 4.676e-3
-1.396, 4.599e-3
-1.395, 4.528e-3
-1.394, 4.454e-3
-1.393, 4.385e-3
-1.392, 4.317e-3
-1.391, 4.245e-3
-1.390, 4.173e-3
-1.389, 4.102e-3
-1.388, 4.029e-3
-1.387, 3.962e-3
-1.386, 3.887e-3
-1.385, 3.821e-3
-1.384, 3.751e-3
-1.383, 3.685e-3
-1.382, 3.621e-3
-1.381, 3.551e-3
-1.380, 3.484e-3
-1.379, 3.418e-3
-1.378, 3.353e-3
-1.377, 3.292e-3
-1.376, 3.224e-3
-1.375, 3.161e-3
-1.374, 3.099e-3
-1.373, 3.037e-3
-1.372, 2.979e-3
-1.371, 2.919e-3
-1.370, 2.859e-3
-1.369, 2.799e-3
-1.368, 2.739e-3
-1.367, 2.683e-3
-1.366, 2.625e-3
-1.365, 2.571e-3
-1.364, 2.517e-3
-1.363, 2.461e-3
-1.362, 2.409e-3
-1.361, 2.354e-3
-1.360, 2.303e-3
-1.359, 2.253e-3
-1.358, 2.200e-3
-1.357, 2.152e-3
-1.356, 2.101e-3
-1.355, 2.054e-3
-1.354, 2.008e-3
-1.353, 1.960e-3
-1.352, 1.918e-3
-1.351, 1.872e-3
-1.350, 1.827e-3
-1.349, 1.783e-3
-1.348, 1.738e-3
-1.347, 1.698e-3
-1.346, 1.655e-3
-1.345, 1.614e-3
-1.344, 1.576e-3
-1.343, 1.535e-3
-1.342, 1.496e-3
-1.341, 1.457e-3
-1.340, 1.420e-3
-1.339, 1.384e-3
-1.338, 1.347e-3
-1.337, 1.313e-3
-1.336, 1.278e-3
-1.335, 1.244e-3
-1.334, 1.212e-3
-1.333, 1.179e-3
-1.332, 1.148e-3
-1.331, 1.116e-3
-1.330, 1.086e-3
-1.329, 1.056e-3
-1.328, 1.026e-3
-1.327, 9.993e-4
-1.326, 9.708e-4
-1.325, 9.439e-4
-1.324, 9.184e-4
-1.323, 8.912e-4
-1.322, 8.675e-4
-1.321, 8.425e-4
-1.320, 8.177e-4
-1.319, 7.950e-4
-1.318, 7.704e-4
-1.317, 7.491e-4
-1.316, 7.271e-4
-1.315, 7.060e-4
-1.314, 6.863e-4
-1.313, 6.644e-4
-1.312, 6.453e-4
-1.311, 6.259e-4
-1.310, 6.069e-4
-1.309, 5.903e-4
-1.308, 5.712e-4
-1.307, 5.549e-4
-1.306, 5.377e-4
-1.305, 5.207e-4
-1.304, 5.057e-4
-1.303, 4.890e-4
-1.302, 4.747e-4
-1.301, 4.602e-4
-1.300, 4.456e-4
-1.299, 4.329e-4
-1.298, 4.186e-4
-1.297, 4.070e-4
-1.296, 3.939e-4
-1.295, 3.809e-4
-1.294, 3.700e-4
-1.293, 3.566e-4
-1.292, 3.457e-4
-1.291, 3.339e-4
-1.290, 3.223e-4
-1.289, 3.129e-4
-1.288, 3.016e-4
-1.287, 2.928e-4
-1.286, 2.835e-4
-1.285, 2.737e-4
-1.284, 2.665e-4
-1.283, 2.566e-4
-1.282, 2.494e-4
-1.281, 2.413e-4
-1.280, 2.326e-4
-1.279, 2.265e-4
-1.278, 2.179e-4
-1.277, 2.118e-4
-1.276, 2.046e-4
-1.275, 1.970e-4
-1.274, 1.916e-4
-1.273, 1.838e-4
-1.272, 1.784e-4
-1.271, 1.723e-4
-1.270, 1.654e-4
-1.269, 1.614e-4
-1.268, 1.543e-4
-1.267, 1.496e-4
-1.266, 1.446e-4
-1.265, 1.386e-4
-1.264, 1.352e-4
-1.263, 1.292e-4
-1.262, 1.253e-4
-1.261, 1.211e-4
-1.260, 1.159e-4
-1.259, 1.133e-4
-1.258, 1.078e-4
-1.257, 1.044e-4
-1.256, 1.009e-4
-1.255, 9.594e-5
-1.254, 9.377e-5
-1.253, 8.915e-5
-1.252, 8.631e-5
-1.251, 8.310e-5
-1.250, 7.882e-5
-1.249, 7.732e-5
-1.248, 7.307e-5
-1.247, 7.090e-5
-1.246, 6.788e-5
-1.245, 6.446e-5
-1.244, 6.316e-5
-1.243, 5.907e-5
-1.242, 5.739e-5
-1.241, 5.515e-5
-1.240, 5.173e-5
-1.239, 5.096e-5
-1.238, 4.709e-5
-1.237, 4.581e-5
-1.236, 4.385e-5
-1.235, 4.041e-5
-1.234, 4.046e-5
-1.233, 3.665e-5
-1.232, 3.583e-5
-1.231, 3.414e-5
-1.230, 3.079e-5
-1.229, 3.030e-5
-1.228, 2.756e-5
-1.227, 2.667e-5
-1.226, 2.550e-5
-1.225, 2.236e-5
-1.224, 2.302e-5
-1.223, 1.970e-5
-1.222, 1.904e-5
-1.221, 1.789e-5
-1.220, 1.525e-5
-1.219, 1.549e-5
-1.218, 1.273e-5
-1.217, 1.222e-5
-1.216, 1.123e-5
-1.215, 8.720e-6
-1.214, 9.173e-6
-1.213, 6.618e-6
-1.212, 6.293e-6
-1.211, 5.355e-6
-1.210, 2.997e-6
-1.209, 3.915e-6
-1.208, 1.300e-6
-1.207, 1.290e-6
-1.206, 3.236e-7
-1.205, -1.719e-6
-1.204, -7.715e-7
-1.203, -3.603e-6
-1.202, -3.228e-6
-1.201, -4.215e-6
-1.200, -6.040e-6
-1.199, -5.063e-6
-1.198, -7.697e-6
-1.197, -7.451e-6
-1.196, -7.836e-6
-1.195, -1.028e-5
-1.194, -8.645e-6
-1.193, -1.157e-5
-1.192, -1.090e-5
-1.191, -1.140e-5
-1.190, -1.385e-5
-1.189, -1.216e-5
-1.188, -1.498e-5
-1.187, -1.450e-5
-1.186, -1.482e-5
-1.185, -1.699e-5
-1.184, -1.528e-5
-1.183, -1.787e-5
-1.182, -1.737e-5
-1.181, -1.755e-5
-1.180, -1.941e-5
-1.179, -1.806e-5
-1.178, -2.050e-5
-1.177, -1.998e-5
-1.176, -2.000e-5
-1.175, -2.205e-5
-1.174, -2.096e-5
-1.173, -2.292e-5
-1.172, -2.257e-5
-1.171, -2.303e-5
-1.170, -2.484e-5
-1.169, -2.334e-5
-1.168, -2.561e-5
-1.167, -2.517e-5
-1.166, -2.533e-5
-1.165, -2.740e-5
-1.164, -2.555e-5
-1.163, -2.859e-5
-1.162, -2.784e-5
-1.161, -2.858e-5
-1.160, -3.015e-5
-1.159, -2.852e-5
-1.158, -3.102e-5
-1.157, -2.936e-5
-1.156, -2.932e-5
-1.155, -3.126e-5
-1.154, -2.882e-5
-1.153, -3.170e-5
-1.152, -3.049e-5
-1.151, -3.059e-5
-1.150, -3.296e-5
-1.149, -3.053e-5
-1.148, -3.337e-5
-1.147, -3.252e-5
-1.146, -3.263e-5
-1.145, -3.509e-5
-1.144, -3.280e-5
-1.143, -3.559e-5
-1.142, -3.478e-5
-1.141, -3.465e-5
-1.140, -3.685e-5
-1.139, -3.504e-5
-1.138, -3.740e-5
-1.137, -3.656e-5
-1.136, -3.643e-5
-1.135, -3.836e-5
-1.134, -3.633e-5
-1.133, -3.880e-5
-1.132, -3.777e-5
-1.131, -3.811e-5
-1.130, -3.975e-5
-1.129, -3.778e-5
-1.128, -4.007e-5
-1.127, -3.904e-5
-1.126, -3.955e-5
-1.125, -4.103e-5
-1.124, -3.901e-5
-1.123, -4.174e-5
-1.122, -4.049e-5
-1.121, -4.049e-5
-1.120, -4.213e-5
-1.119, -4.001e-5
-1.118, -4.274e-5
-1.117, -4.133e-5
-1.116, -4.143e-5
-1.115, -4.370e-5
-1.114, -4.107e-5
-1.113, -4.412e-5
-1.112, -4.260e-5
-1.111, -4.271e-5
-1.110, -4.488e-5
-1.109, -4.236e-5
-1.108, -4.502e-5
-1.107, -4.396e-5
-1.106, -4.365e-5
-1.105, -4.590e-5
-1.104, -4.303e-5
-1.103, -4.574e-5
-1.102, -4.493e-5
-1.101, -4.428e-5
-1.100, -4.647e-5
-1.099, -4.405e-5
-1.098, -4.669e-5
-1.097, -4.554e-5
-1.096, -4.533e-5
-1.095, -4.751e-5
-1.094, -4.532e-5
-1.093, -4.758e-5
-1.092, -4.611e-5
-1.091, -4.616e-5
-1.090, -4.807e-5
-1.089, -4.557e-5
-1.088, -4.810e-5
-1.087, -4.676e-5
-1.086, -4.683e-5
-1.085, -4.849e-5
-1.084, -4.619e-5
-1.083, -4.904e-5
-1.082, -4.761e-5
-1.081, -4.809e-5
-1.080, -4.964e-5
-1.079, -4.729e-5
-1.078, -5.020e-5
-1.077, -4.868e-5
-1.076, -4.890e-5
-1.075, -5.093e-5
-1.074, -4.798e-5
-1.073, -5.073e-5
-1.072, -4.910e-5
-1.071, -4.872e-5
-1.070, -5.106e-5
-1.069, -4.822e-5
-1.068, -5.089e-5
-1.067, -4.946e-5
-1.066, -4.931e-5
-1.065, -5.134e-5
-1.064, -4.859e-5
-1.063, -5.110e-5
-1.062, -5.047e-5
-1.061, -4.992e-5
-1.060, -5.227e-5
-1.059, -4.997e-5
-1.058, -5.277e-5
-1.057, -5.165e-5
-1.056, -5.160e-5
-1.055, -5.376e-5
-1.054, -5.158e-5
-1.053, -5.348e-5
-1.052, -5.230e-5
-1.051, -5.188e-5
-1.050, -5.374e-5
-1.049, -5.111e-5
-1.048, -5.302e-5
-1.047, -5.191e-5
-1.046, -5.165e-5
-1.045, -5.332e-5
-1.044, -5.097e-5
-1.043, -5.351e-5
-1.042, -5.192e-5
-1.041, -5.214e-5
-1.040, -5.407e-5
-1.039, -5.152e-5
-1.038, -5.447e-5
-1.037, -5.320e-5
-1.036, -5.251e-5
-1.035, -5.502e-5
-1.034, -5.227e-5
-1.033, -5.516e-5
-1.032, -5.366e-5
-1.031, -5.315e-5
-1.030, -5.551e-5
-1.029, -5.262e-5
-1.028, -5.524e-5
-1.027, -5.450e-5
-1.026, -5.360e-5
-1.025, -5.624e-5
-1.024, -5.375e-5
-1.023, -5.593e-5
-1.022, -5.535e-5
-1.021, -5.431e-5
-1.020, -5.684e-5
-1.019, -5.427e-5
-1.018, -5.679e-5
-1.017, -5.588e-5
-1.016, -5.520e-5
-1.015, -5.743e-5
-1.014, -5.513e-5
-1.013, -5.756e-5
-1.012, -5.664e-5
-1.011, -5.646e-5
-1.010, -5.868e-5
-1.009, -5.616e-5
-1.008, -5.817e-5
-1.007, -5.735e-5
-1.006, -5.699e-5
-1.005, -5.910e-5
-1.004, -5.647e-5
-1.003, -5.922e-5
-1.002, -5.833e-5
-1.001, -5.797e-5
