Sept. 6, 2024   17:27:25
Cyclic Voltammetry
File: c:/users/guazh/data/20240903_batch_252_500/2024-09-03-exp281\exp281-2024-09-06t17_15_04-h2koh\exp281_cv_50mvs_efin_-1600mv.bin
Data Source:  Experiment
Instrument Model:  CHI760E
Header: CV ran at 50 mVs
Note: 

Init E (V) = -1
High E (V) = -1
Low E (V) = -1.6
Final E (V) = -1
Init P/N = N
Scan Rate (V/s) = 0.05
Segment = 7
Sample Interval (V) = 0.001
Quiet Time (sec) = 60
Sensitivity (A/V) = 0.001
Comp R (ohm) = 2.0

Results:

Channel 1:
Segment 1:

Segment 2:

Segment 3:

Segment 4:

Segment 5:

Segment 6:

Segment 7:

Potential/V, Current/A

-1.000, 1.212e-5
-1.001, 1.863e-5
-1.002, 2.023e-5
-1.003, 2.096e-5
-1.004, 2.196e-5
-1.005, 2.223e-5
-1.006, 2.229e-5
-1.007, 2.247e-5
-1.008, 2.293e-5
-1.009, 2.346e-5
-1.010, 2.352e-5
-1.011, 2.349e-5
-1.012, 2.389e-5
-1.013, 2.390e-5
-1.014, 2.414e-5
-1.015, 2.485e-5
-1.016, 2.453e-5
-1.017, 2.465e-5
-1.018, 2.493e-5
-1.019, 2.487e-5
-1.020, 2.477e-5
-1.021, 2.488e-5
-1.022, 2.504e-5
-1.023, 2.544e-5
-1.024, 2.576e-5
-1.025, 2.570e-5
-1.026, 2.566e-5
-1.027, 2.576e-5
-1.028, 2.606e-5
-1.029, 2.612e-5
-1.030, 2.626e-5
-1.031, 2.643e-5
-1.032, 2.628e-5
-1.033, 2.627e-5
-1.034, 2.644e-5
-1.035, 2.619e-5
-1.036, 2.660e-5
-1.037, 2.681e-5
-1.038, 2.675e-5
-1.039, 2.710e-5
-1.040, 2.704e-5
-1.041, 2.710e-5
-1.042, 2.752e-5
-1.043, 2.764e-5
-1.044, 2.773e-5
-1.045, 2.769e-5
-1.046, 2.759e-5
-1.047, 2.772e-5
-1.048, 2.748e-5
-1.049, 2.764e-5
-1.050, 2.820e-5
-1.051, 2.807e-5
-1.052, 2.801e-5
-1.053, 2.815e-5
-1.054, 2.833e-5
-1.055, 2.853e-5
-1.056, 2.852e-5
-1.057, 2.889e-5
-1.058, 2.911e-5
-1.059, 2.888e-5
-1.060, 2.905e-5
-1.061, 2.879e-5
-1.062, 2.896e-5
-1.063, 2.931e-5
-1.064, 2.929e-5
-1.065, 2.951e-5
-1.066, 2.945e-5
-1.067, 2.945e-5
-1.068, 2.980e-5
-1.069, 2.977e-5
-1.070, 3.005e-5
-1.071, 3.003e-5
-1.072, 2.959e-5
-1.073, 3.000e-5
-1.074, 3.024e-5
-1.075, 3.067e-5
-1.076, 3.077e-5
-1.077, 3.063e-5
-1.078, 3.065e-5
-1.079, 3.088e-5
-1.080, 3.087e-5
-1.081, 3.086e-5
-1.082, 3.112e-5
-1.083, 3.116e-5
-1.084, 3.130e-5
-1.085, 3.140e-5
-1.086, 3.133e-5
-1.087, 3.179e-5
-1.088, 3.229e-5
-1.089, 3.171e-5
-1.090, 3.209e-5
-1.091, 3.200e-5
-1.092, 3.208e-5
-1.093, 3.236e-5
-1.094, 3.239e-5
-1.095, 3.276e-5
-1.096, 3.260e-5
-1.097, 3.271e-5
-1.098, 3.346e-5
-1.099, 3.321e-5
-1.100, 3.349e-5
-1.101, 3.346e-5
-1.102, 3.355e-5
-1.103, 3.392e-5
-1.104, 3.384e-5
-1.105, 3.402e-5
-1.106, 3.373e-5
-1.107, 3.376e-5
-1.108, 3.440e-5
-1.109, 3.458e-5
-1.110, 3.488e-5
-1.111, 3.498e-5
-1.112, 3.494e-5
-1.113, 3.513e-5
-1.114, 3.583e-5
-1.115, 3.607e-5
-1.116, 3.589e-5
-1.117, 3.589e-5
-1.118, 3.623e-5
-1.119, 3.633e-5
-1.120, 3.638e-5
-1.121, 3.662e-5
-1.122, 3.692e-5
-1.123, 3.693e-5
-1.124, 3.745e-5
-1.125, 3.753e-5
-1.126, 3.759e-5
-1.127, 3.790e-5
-1.128, 3.821e-5
-1.129, 3.846e-5
-1.130, 3.893e-5
-1.131, 3.862e-5
-1.132, 3.886e-5
-1.133, 3.886e-5
-1.134, 3.935e-5
-1.135, 3.978e-5
-1.136, 3.978e-5
-1.137, 4.001e-5
-1.138, 4.037e-5
-1.139, 4.060e-5
-1.140, 4.087e-5
-1.141, 4.107e-5
-1.142, 4.143e-5
-1.143, 4.163e-5
-1.144, 4.188e-5
-1.145, 4.209e-5
-1.146, 4.244e-5
-1.147, 4.237e-5
-1.148, 4.281e-5
-1.149, 4.321e-5
-1.150, 4.335e-5
-1.151, 4.366e-5
-1.152, 4.376e-5
-1.153, 4.466e-5
-1.154, 4.491e-5
-1.155, 4.469e-5
-1.156, 4.507e-5
-1.157, 4.518e-5
-1.158, 4.537e-5
-1.159, 4.585e-5
-1.160, 4.624e-5
-1.161, 4.664e-5
-1.162, 4.669e-5
-1.163, 4.711e-5
-1.164, 4.752e-5
-1.165, 4.794e-5
-1.166, 4.803e-5
-1.167, 4.830e-5
-1.168, 4.831e-5
-1.169, 4.878e-5
-1.170, 4.918e-5
-1.171, 4.952e-5
-1.172, 4.974e-5
-1.173, 5.032e-5
-1.174, 5.068e-5
-1.175, 5.125e-5
-1.176, 5.149e-5
-1.177, 5.208e-5
-1.178, 5.211e-5
-1.179, 5.237e-5
-1.180, 5.280e-5
-1.181, 5.304e-5
-1.182, 5.346e-5
-1.183, 5.393e-5
-1.184, 5.444e-5
-1.185, 5.489e-5
-1.186, 5.541e-5
-1.187, 5.581e-5
-1.188, 5.627e-5
-1.189, 5.658e-5
-1.190, 5.690e-5
-1.191, 5.747e-5
-1.192, 5.780e-5
-1.193, 5.829e-5
-1.194, 5.923e-5
-1.195, 5.976e-5
-1.196, 6.018e-5
-1.197, 6.060e-5
-1.198, 6.108e-5
-1.199, 6.196e-5
-1.200, 6.246e-5
-1.201, 6.302e-5
-1.202, 6.371e-5
-1.203, 6.394e-5
-1.204, 6.469e-5
-1.205, 6.522e-5
-1.206, 6.608e-5
-1.207, 6.699e-5
-1.208, 6.748e-5
-1.209, 6.844e-5
-1.210, 6.942e-5
-1.211, 6.976e-5
-1.212, 7.056e-5
-1.213, 7.146e-5
-1.214, 7.238e-5
-1.215, 7.349e-5
-1.216, 7.412e-5
-1.217, 7.375e-5
-1.218, 7.561e-5
-1.219, 7.673e-5
-1.220, 7.819e-5
-1.221, 7.868e-5
-1.222, 7.967e-5
-1.223, 8.076e-5
-1.224, 8.171e-5
-1.225, 8.289e-5
-1.226, 8.413e-5
-1.227, 8.503e-5
-1.228, 8.659e-5
-1.229, 8.816e-5
-1.230, 8.861e-5
-1.231, 8.978e-5
-1.232, 9.116e-5
-1.233, 9.262e-5
-1.234, 9.430e-5
-1.235, 9.563e-5
-1.236, 9.689e-5
-1.237, 9.812e-5
-1.238, 9.988e-5
-1.239, 1.014e-4
-1.240, 1.028e-4
-1.241, 1.043e-4
-1.242, 1.064e-4
-1.243, 1.075e-4
-1.244, 1.093e-4
-1.245, 1.111e-4
-1.246, 1.128e-4
-1.247, 1.146e-4
-1.248, 1.166e-4
-1.249, 1.186e-4
-1.250, 1.206e-4
-1.251, 1.221e-4
-1.252, 1.243e-4
-1.253, 1.265e-4
-1.254, 1.287e-4
-1.255, 1.311e-4
-1.256, 1.337e-4
-1.257, 1.364e-4
-1.258, 1.384e-4
-1.259, 1.406e-4
-1.260, 1.430e-4
-1.261, 1.453e-4
-1.262, 1.477e-4
-1.263, 1.504e-4
-1.264, 1.525e-4
-1.265, 1.557e-4
-1.266, 1.585e-4
-1.267, 1.609e-4
-1.268, 1.637e-4
-1.269, 1.664e-4
-1.270, 1.718e-4
-1.271, 1.750e-4
-1.272, 1.762e-4
-1.273, 1.803e-4
-1.274, 1.841e-4
-1.275, 1.869e-4
-1.276, 1.899e-4
-1.277, 1.908e-4
-1.278, 1.960e-4
-1.279, 2.005e-4
-1.280, 2.039e-4
-1.281, 2.072e-4
-1.282, 2.107e-4
-1.283, 2.156e-4
-1.284, 2.176e-4
-1.285, 2.228e-4
-1.286, 2.314e-4
-1.287, 2.322e-4
-1.288, 2.364e-4
-1.289, 2.408e-4
-1.290, 2.448e-4
-1.291, 2.463e-4
-1.292, 2.488e-4
-1.293, 2.542e-4
-1.294, 2.621e-4
-1.295, 2.653e-4
-1.296, 2.706e-4
-1.297, 2.760e-4
-1.298, 2.802e-4
-1.299, 2.841e-4
-1.300, 2.923e-4
-1.301, 2.994e-4
-1.302, 3.027e-4
-1.303, 3.078e-4
-1.304, 3.058e-4
-1.305, 3.147e-4
-1.306, 3.217e-4
-1.307, 3.277e-4
-1.308, 3.371e-4
-1.309, 3.444e-4
-1.310, 3.470e-4
-1.311, 3.516e-4
-1.312, 3.559e-4
-1.313, 3.627e-4
-1.314, 3.693e-4
-1.315, 3.769e-4
-1.316, 3.831e-4
-1.317, 3.882e-4
-1.318, 3.968e-4
-1.319, 4.024e-4
-1.320, 4.065e-4
-1.321, 4.063e-4
-1.322, 4.178e-4
-1.323, 4.257e-4
-1.324, 4.327e-4
-1.325, 4.423e-4
-1.326, 4.481e-4
-1.327, 4.580e-4
-1.328, 4.708e-4
-1.329, 4.722e-4
-1.330, 4.791e-4
-1.331, 4.894e-4
-1.332, 4.953e-4
-1.333, 5.071e-4
-1.334, 5.119e-4
-1.335, 4.972e-4
-1.336, 5.131e-4
-1.337, 5.267e-4
-1.338, 5.538e-4
-1.339, 5.628e-4
-1.340, 5.580e-4
-1.341, 5.696e-4
-1.342, 5.768e-4
-1.343, 5.822e-4
-1.344, 5.889e-4
-1.345, 5.986e-4
-1.346, 6.086e-4
-1.347, 6.234e-4
-1.348, 6.318e-4
-1.349, 6.430e-4
-1.350, 6.494e-4
-1.351, 6.466e-4
-1.352, 6.689e-4
-1.353, 6.739e-4
-1.354, 6.894e-4
-1.355, 7.011e-4
-1.356, 7.096e-4
-1.357, 7.193e-4
-1.358, 7.352e-4
-1.359, 7.485e-4
-1.360, 7.551e-4
-1.361, 7.735e-4
-1.362, 7.875e-4
-1.363, 8.002e-4
-1.364, 8.119e-4
-1.365, 8.229e-4
-1.366, 8.310e-4
-1.367, 8.306e-4
-1.368, 8.454e-4
-1.369, 8.638e-4
-1.370, 8.850e-4
-1.371, 8.959e-4
-1.372, 8.953e-4
-1.373, 9.100e-4
-1.374, 9.352e-4
-1.375, 9.446e-4
-1.376, 9.446e-4
-1.377, 9.633e-4
-1.378, 9.737e-4
-1.379, 9.849e-4
-1.380, 9.985e-4
-1.381, 1.014e-3
-1.382, 1.029e-3
-1.383, 1.037e-3
-1.384, 1.048e-3
-1.385, 1.062e-3
-1.386, 1.079e-3
-1.387, 1.082e-3
-1.388, 1.097e-3
-1.389, 1.107e-3
-1.390, 1.095e-3
-1.391, 1.113e-3
-1.392, 1.128e-3
-1.393, 1.151e-3
-1.394, 1.170e-3
-1.395, 1.190e-3
-1.396, 1.201e-3
-1.397, 1.214e-3
-1.398, 1.230e-3
-1.399, 1.246e-3
-1.400, 1.268e-3
-1.401, 1.282e-3
-1.402, 1.302e-3
-1.403, 1.307e-3
-1.404, 1.317e-3
-1.405, 1.330e-3
-1.406, 1.346e-3
-1.407, 1.368e-3
-1.408, 1.388e-3
-1.409, 1.402e-3
-1.410, 1.418e-3
-1.411, 1.435e-3
-1.412, 1.457e-3
-1.413, 1.472e-3
-1.414, 1.497e-3
-1.415, 1.523e-3
-1.416, 1.556e-3
-1.417, 1.543e-3
-1.418, 1.567e-3
-1.419, 1.582e-3
-1.420, 1.591e-3
-1.421, 1.607e-3
-1.422, 1.622e-3
-1.423, 1.637e-3
-1.424, 1.669e-3
-1.425, 1.674e-3
-1.426, 1.695e-3
-1.427, 1.721e-3
-1.428, 1.741e-3
-1.429, 1.751e-3
-1.430, 1.759e-3
-1.431, 1.774e-3
-1.432, 1.792e-3
-1.433, 1.816e-3
-1.434, 1.839e-3
-1.435, 1.860e-3
-1.436, 1.875e-3
-1.437, 1.894e-3
-1.438, 1.918e-3
-1.439, 1.938e-3
-1.440, 1.961e-3
-1.441, 1.999e-3
-1.442, 2.028e-3
-1.443, 2.018e-3
-1.444, 1.988e-3
-1.445, 2.022e-3
-1.446, 2.052e-3
-1.447, 2.083e-3
-1.448, 2.112e-3
-1.449, 2.133e-3
-1.450, 2.148e-3
-1.451, 2.165e-3
-1.452, 2.185e-3
-1.453, 2.200e-3
-1.454, 2.213e-3
-1.455, 2.228e-3
-1.456, 2.251e-3
-1.457, 2.271e-3
-1.458, 2.299e-3
-1.459, 2.335e-3
-1.460, 2.363e-3
-1.461, 2.377e-3
-1.462, 2.397e-3
-1.463, 2.415e-3
-1.464, 2.441e-3
-1.465, 2.435e-3
-1.466, 2.470e-3
-1.467, 2.484e-3
-1.468, 2.511e-3
-1.469, 2.551e-3
-1.470, 2.580e-3
-1.471, 2.602e-3
-1.472, 2.632e-3
-1.473, 2.666e-3
-1.474, 2.702e-3
-1.475, 2.677e-3
-1.476, 2.710e-3
-1.477, 2.748e-3
-1.478, 2.776e-3
-1.479, 2.785e-3
-1.480, 2.798e-3
-1.481, 2.826e-3
-1.482, 2.839e-3
-1.483, 2.852e-3
-1.484, 2.902e-3
-1.485, 2.970e-3
-1.486, 3.002e-3
-1.487, 3.010e-3
-1.488, 3.019e-3
-1.489, 3.038e-3
-1.490, 3.066e-3
-1.491, 3.097e-3
-1.492, 3.130e-3
-1.493, 3.153e-3
-1.494, 3.170e-3
-1.495, 3.197e-3
-1.496, 3.226e-3
-1.497, 3.248e-3
-1.498, 3.293e-3
-1.499, 3.315e-3
-1.500, 3.332e-3
-1.501, 3.337e-3
-1.502, 3.341e-3
-1.503, 3.353e-3
-1.504, 3.377e-3
-1.505, 3.387e-3
-1.506, 3.407e-3
-1.507, 3.423e-3
-1.508, 3.445e-3
-1.509, 3.492e-3
-1.510, 3.546e-3
-1.511, 3.593e-3
-1.512, 3.658e-3
-1.513, 3.688e-3
-1.514, 3.694e-3
-1.515, 3.709e-3
-1.516, 3.745e-3
-1.517, 3.763e-3
-1.518, 3.778e-3
-1.519, 3.823e-3
-1.520, 3.893e-3
-1.521, 3.938e-3
-1.522, 3.848e-3
-1.523, 3.844e-3
-1.524, 3.860e-3
-1.525, 3.869e-3
-1.526, 3.904e-3
-1.527, 3.944e-3
-1.528, 3.964e-3
-1.529, 3.982e-3
-1.530, 4.003e-3
-1.531, 3.970e-3
-1.532, 3.937e-3
-1.533, 3.937e-3
-1.534, 3.978e-3
-1.535, 4.040e-3
-1.536, 4.085e-3
-1.537, 4.117e-3
-1.538, 4.153e-3
-1.539, 4.219e-3
-1.540, 4.245e-3
-1.541, 4.178e-3
-1.542, 4.174e-3
-1.543, 4.214e-3
-1.544, 4.289e-3
-1.545, 4.305e-3
-1.546, 4.341e-3
-1.547, 4.318e-3
-1.548, 4.327e-3
-1.549, 4.349e-3
-1.550, 4.365e-3
-1.551, 4.385e-3
-1.552, 4.422e-3
-1.553, 4.402e-3
-1.554, 4.423e-3
-1.555, 4.384e-3
-1.556, 4.370e-3
-1.557, 4.365e-3
-1.558, 4.357e-3
-1.559, 4.382e-3
-1.560, 4.392e-3
-1.561, 4.371e-3
-1.562, 4.354e-3
-1.563, 4.379e-3
-1.564, 4.437e-3
-1.565, 4.536e-3
-1.566, 4.553e-3
-1.567, 4.587e-3
-1.568, 4.576e-3
-1.569, 4.516e-3
-1.570, 4.514e-3
-1.571, 4.356e-3
-1.572, 4.400e-3
-1.573, 4.418e-3
-1.574, 4.475e-3
-1.575, 4.394e-3
-1.576, 4.343e-3
-1.577, 4.318e-3
-1.578, 4.298e-3
-1.579, 4.325e-3
-1.580, 4.348e-3
-1.581, 4.369e-3
-1.582, 4.426e-3
-1.583, 4.362e-3
-1.584, 4.279e-3
-1.585, 4.203e-3
-1.586, 4.258e-3
-1.587, 4.228e-3
-1.588, 4.222e-3
-1.589, 4.196e-3
-1.590, 4.334e-3
-1.591, 4.310e-3
-1.592, 4.315e-3
-1.593, 4.371e-3
-1.594, 4.419e-3
-1.595, 4.465e-3
-1.596, 4.441e-3
-1.597, 4.428e-3
-1.598, 4.473e-3
-1.599, 4.481e-3
-1.600, 4.537e-3
-1.599, 4.535e-3
-1.598, 4.411e-3
-1.597, 4.281e-3
-1.596, 4.227e-3
-1.595, 4.258e-3
-1.594, 4.269e-3
-1.593, 4.196e-3
-1.592, 4.148e-3
-1.591, 4.078e-3
-1.590, 3.957e-3
-1.589, 3.911e-3
-1.588, 3.872e-3
-1.587, 3.789e-3
-1.586, 3.664e-3
-1.585, 3.653e-3
-1.584, 3.751e-3
-1.583, 3.746e-3
-1.582, 3.713e-3
-1.581, 3.661e-3
-1.580, 3.634e-3
-1.579, 3.557e-3
-1.578, 3.565e-3
-1.577, 3.487e-3
-1.576, 3.500e-3
-1.575, 3.409e-3
-1.574, 3.333e-3
-1.573, 3.283e-3
-1.572, 3.234e-3
-1.571, 3.097e-3
-1.570, 3.031e-3
-1.569, 2.945e-3
-1.568, 2.881e-3
-1.567, 2.851e-3
-1.566, 2.807e-3
-1.565, 2.767e-3
-1.564, 2.752e-3
-1.563, 2.747e-3
-1.562, 2.728e-3
-1.561, 2.631e-3
-1.560, 2.650e-3
-1.559, 2.612e-3
-1.558, 2.575e-3
-1.557, 2.529e-3
-1.556, 2.529e-3
-1.555, 2.495e-3
-1.554, 2.453e-3
-1.553, 2.573e-3
-1.552, 2.537e-3
-1.551, 2.449e-3
-1.550, 2.405e-3
-1.549, 2.364e-3
-1.548, 2.356e-3
-1.547, 2.340e-3
-1.546, 2.305e-3
-1.545, 2.295e-3
-1.544, 2.270e-3
-1.543, 2.247e-3
-1.542, 2.181e-3
-1.541, 2.166e-3
-1.540, 2.173e-3
-1.539, 2.125e-3
-1.538, 2.079e-3
-1.537, 2.099e-3
-1.536, 2.063e-3
-1.535, 2.009e-3
-1.534, 1.977e-3
-1.533, 1.977e-3
-1.532, 2.003e-3
-1.531, 1.958e-3
-1.530, 1.915e-3
-1.529, 1.915e-3
-1.528, 1.918e-3
-1.527, 1.854e-3
-1.526, 1.826e-3
-1.525, 1.804e-3
-1.524, 1.774e-3
-1.523, 1.776e-3
-1.522, 1.765e-3
-1.521, 1.739e-3
-1.520, 1.718e-3
-1.519, 1.706e-3
-1.518, 1.662e-3
-1.517, 1.672e-3
-1.516, 1.644e-3
-1.515, 1.630e-3
-1.514, 1.619e-3
-1.513, 1.621e-3
-1.512, 1.561e-3
-1.511, 1.560e-3
-1.510, 1.537e-3
-1.509, 1.544e-3
-1.508, 1.497e-3
-1.507, 1.482e-3
-1.506, 1.454e-3
-1.505, 1.425e-3
-1.504, 1.420e-3
-1.503, 1.399e-3
-1.502, 1.364e-3
-1.501, 1.338e-3
-1.500, 1.321e-3
-1.499, 1.343e-3
-1.498, 1.310e-3
-1.497, 1.284e-3
-1.496, 1.275e-3
-1.495, 1.261e-3
-1.494, 1.243e-3
-1.493, 1.227e-3
-1.492, 1.212e-3
-1.491, 1.209e-3
-1.490, 1.189e-3
-1.489, 1.204e-3
-1.488, 1.174e-3
-1.487, 1.161e-3
-1.486, 1.153e-3
-1.485, 1.136e-3
-1.484, 1.113e-3
-1.483, 1.092e-3
-1.482, 1.080e-3
-1.481, 1.078e-3
-1.480, 1.069e-3
-1.479, 1.065e-3
-1.478, 1.049e-3
-1.477, 1.035e-3
-1.476, 1.019e-3
-1.475, 1.014e-3
-1.474, 1.006e-3
-1.473, 1.003e-3
-1.472, 9.758e-4
-1.471, 9.742e-4
-1.470, 9.597e-4
-1.469, 9.418e-4
-1.468, 9.321e-4
-1.467, 9.215e-4
-1.466, 9.089e-4
-1.465, 9.085e-4
-1.464, 8.914e-4
-1.463, 8.802e-4
-1.462, 8.886e-4
-1.461, 8.706e-4
-1.460, 8.698e-4
-1.459, 8.551e-4
-1.458, 8.236e-4
-1.457, 8.176e-4
-1.456, 8.038e-4
-1.455, 7.949e-4
-1.454, 7.880e-4
-1.453, 7.868e-4
-1.452, 7.791e-4
-1.451, 7.666e-4
-1.450, 7.645e-4
-1.449, 7.595e-4
-1.448, 7.428e-4
-1.447, 7.337e-4
-1.446, 7.392e-4
-1.445, 7.158e-4
-1.444, 7.093e-4
-1.443, 7.002e-4
-1.442, 6.878e-4
-1.441, 6.779e-4
-1.440, 6.799e-4
-1.439, 6.681e-4
-1.438, 6.631e-4
-1.437, 6.555e-4
-1.436, 6.544e-4
-1.435, 6.363e-4
-1.434, 6.295e-4
-1.433, 6.391e-4
-1.432, 6.202e-4
-1.431, 6.026e-4
-1.430, 5.950e-4
-1.429, 5.900e-4
-1.428, 5.894e-4
-1.427, 5.740e-4
-1.426, 5.666e-4
-1.425, 5.554e-4
-1.424, 5.472e-4
-1.423, 5.393e-4
-1.422, 5.324e-4
-1.421, 5.298e-4
-1.420, 5.406e-4
-1.419, 5.269e-4
-1.418, 5.041e-4
-1.417, 4.982e-4
-1.416, 4.921e-4
-1.415, 4.846e-4
-1.414, 4.801e-4
-1.413, 4.838e-4
-1.412, 4.742e-4
-1.411, 4.601e-4
-1.410, 4.585e-4
-1.409, 4.525e-4
-1.408, 4.446e-4
-1.407, 4.509e-4
-1.406, 4.377e-4
-1.405, 4.291e-4
-1.404, 4.241e-4
-1.403, 4.141e-4
-1.402, 4.085e-4
-1.401, 4.024e-4
-1.400, 3.984e-4
-1.399, 3.916e-4
-1.398, 3.859e-4
-1.397, 3.809e-4
-1.396, 3.790e-4
-1.395, 3.758e-4
-1.394, 3.729e-4
-1.393, 3.646e-4
-1.392, 3.544e-4
-1.391, 3.489e-4
-1.390, 3.441e-4
-1.389, 3.422e-4
-1.388, 3.402e-4
-1.387, 3.313e-4
-1.386, 3.245e-4
-1.385, 3.194e-4
-1.384, 3.145e-4
-1.383, 3.094e-4
-1.382, 3.060e-4
-1.381, 3.025e-4
-1.380, 3.045e-4
-1.379, 2.932e-4
-1.378, 2.941e-4
-1.377, 2.910e-4
-1.376, 2.812e-4
-1.375, 2.765e-4
-1.374, 2.717e-4
-1.373, 2.681e-4
-1.372, 2.629e-4
-1.371, 2.625e-4
-1.370, 2.547e-4
-1.369, 2.505e-4
-1.368, 2.458e-4
-1.367, 2.425e-4
-1.366, 2.391e-4
-1.365, 2.352e-4
-1.364, 2.319e-4
-1.363, 2.279e-4
-1.362, 2.262e-4
-1.361, 2.226e-4
-1.360, 2.173e-4
-1.359, 2.131e-4
-1.358, 2.093e-4
-1.357, 2.055e-4
-1.356, 2.018e-4
-1.355, 1.983e-4
-1.354, 1.959e-4
-1.353, 1.972e-4
-1.352, 1.964e-4
-1.351, 1.867e-4
-1.350, 1.831e-4
-1.349, 1.797e-4
-1.348, 1.765e-4
-1.347, 1.758e-4
-1.346, 1.826e-4
-1.345, 1.717e-4
-1.344, 1.673e-4
-1.343, 1.657e-4
-1.342, 1.613e-4
-1.341, 1.616e-4
-1.340, 1.662e-4
-1.339, 1.598e-4
-1.338, 1.516e-4
-1.337, 1.466e-4
-1.336, 1.444e-4
-1.335, 1.413e-4
-1.334, 1.388e-4
-1.333, 1.374e-4
-1.332, 1.350e-4
-1.331, 1.320e-4
-1.330, 1.315e-4
-1.329, 1.272e-4
-1.328, 1.251e-4
-1.327, 1.221e-4
-1.326, 1.195e-4
-1.325, 1.173e-4
-1.324, 1.153e-4
-1.323, 1.137e-4
-1.322, 1.112e-4
-1.321, 1.086e-4
-1.320, 1.067e-4
-1.319, 1.051e-4
-1.318, 1.029e-4
-1.317, 1.008e-4
-1.316, 9.808e-5
-1.315, 9.630e-5
-1.314, 9.440e-5
-1.313, 9.195e-5
-1.312, 8.977e-5
-1.311, 8.797e-5
-1.310, 8.651e-5
-1.309, 8.528e-5
-1.308, 8.488e-5
-1.307, 8.082e-5
-1.306, 7.993e-5
-1.305, 8.085e-5
-1.304, 7.829e-5
-1.303, 7.532e-5
-1.302, 7.275e-5
-1.301, 7.123e-5
-1.300, 6.978e-5
-1.299, 6.849e-5
-1.298, 7.106e-5
-1.297, 6.675e-5
-1.296, 6.479e-5
-1.295, 6.309e-5
-1.294, 6.279e-5
-1.293, 6.048e-5
-1.292, 5.906e-5
-1.291, 5.784e-5
-1.290, 5.684e-5
-1.289, 5.546e-5
-1.288, 5.413e-5
-1.287, 5.274e-5
-1.286, 5.151e-5
-1.285, 5.045e-5
-1.284, 4.904e-5
-1.283, 4.726e-5
-1.282, 4.783e-5
-1.281, 4.626e-5
-1.280, 4.480e-5
-1.279, 4.805e-5
-1.278, 4.260e-5
-1.277, 4.194e-5
-1.276, 4.076e-5
-1.275, 3.981e-5
-1.274, 3.859e-5
-1.273, 3.715e-5
-1.272, 3.613e-5
-1.271, 3.490e-5
-1.270, 3.387e-5
-1.269, 3.289e-5
-1.268, 3.260e-5
-1.267, 3.260e-5
-1.266, 3.113e-5
-1.265, 3.015e-5
-1.264, 2.934e-5
-1.263, 2.840e-5
-1.262, 2.760e-5
-1.261, 2.679e-5
-1.260, 2.600e-5
-1.259, 2.497e-5
-1.258, 2.418e-5
-1.257, 2.328e-5
-1.256, 2.248e-5
-1.255, 2.218e-5
-1.254, 2.105e-5
-1.253, 2.015e-5
-1.252, 1.937e-5
-1.251, 1.876e-5
-1.250, 1.844e-5
-1.249, 1.781e-5
-1.248, 1.703e-5
-1.247, 1.618e-5
-1.246, 1.571e-5
-1.245, 1.512e-5
-1.244, 1.437e-5
-1.243, 1.379e-5
-1.242, 1.360e-5
-1.241, 1.262e-5
-1.240, 1.207e-5
-1.239, 1.146e-5
-1.238, 1.090e-5
-1.237, 1.037e-5
-1.236, 9.772e-6
-1.235, 9.429e-6
-1.234, 9.261e-6
-1.233, 8.910e-6
-1.232, 8.011e-6
-1.231, 7.478e-6
-1.230, 6.942e-6
-1.229, 6.445e-6
-1.228, 6.197e-6
-1.227, 5.722e-6
-1.226, 5.196e-6
-1.225, 4.622e-6
-1.224, 4.362e-6
-1.223, 3.974e-6
-1.222, 3.490e-6
-1.221, 3.207e-6
-1.220, 2.794e-6
-1.219, 2.351e-6
-1.218, 2.033e-6
-1.217, 1.547e-6
-1.216, 1.264e-6
-1.215, 1.011e-6
-1.214, 6.243e-7
-1.213, 2.780e-7
-1.212, -7.025e-8
-1.211, -5.172e-7
-1.210, -7.372e-7
-1.209, -1.055e-6
-1.208, -1.412e-6
-1.207, -1.649e-6
-1.206, -2.011e-6
-1.205, -2.204e-6
-1.204, -2.491e-6
-1.203, -2.936e-6
-1.202, -3.213e-6
-1.201, -3.525e-6
-1.200, -3.566e-6
-1.199, -3.889e-6
-1.198, -4.282e-6
-1.197, -4.528e-6
-1.196, -4.797e-6
-1.195, -5.036e-6
-1.194, -5.232e-6
-1.193, -5.596e-6
-1.192, -5.755e-6
-1.191, -6.053e-6
-1.190, -6.261e-6
-1.189, -6.477e-6
-1.188, -6.532e-6
-1.187, -6.997e-6
-1.186, -7.164e-6
-1.185, -7.371e-6
-1.184, -7.571e-6
-1.183, -7.817e-6
-1.182, -8.132e-6
-1.181, -8.180e-6
-1.180, -8.543e-6
-1.179, -8.659e-6
-1.178, -8.877e-6
-1.177, -9.127e-6
-1.176, -9.184e-6
-1.175, -9.310e-6
-1.174, -9.701e-6
-1.173, -9.868e-6
-1.172, -1.007e-5
-1.171, -1.031e-5
-1.170, -1.035e-5
-1.169, -1.059e-5
-1.168, -1.089e-5
-1.167, -1.104e-5
-1.166, -1.131e-5
-1.165, -1.113e-5
-1.164, -1.170e-5
-1.163, -1.214e-5
-1.162, -1.267e-5
-1.161, -1.291e-5
-1.160, -1.342e-5
-1.159, -1.364e-5
-1.158, -1.367e-5
-1.157, -1.334e-5
-1.156, -1.338e-5
-1.155, -1.346e-5
-1.154, -1.348e-5
-1.153, -1.433e-5
-1.152, -1.381e-5
-1.151, -1.369e-5
-1.150, -1.388e-5
-1.149, -1.390e-5
-1.148, -1.415e-5
-1.147, -1.432e-5
-1.146, -1.465e-5
-1.145, -1.479e-5
-1.144, -1.475e-5
-1.143, -1.532e-5
-1.142, -1.540e-5
-1.141, -1.554e-5
-1.140, -1.556e-5
-1.139, -1.582e-5
-1.138, -1.596e-5
-1.137, -1.627e-5
-1.136, -1.639e-5
-1.135, -1.634e-5
-1.134, -1.658e-5
-1.133, -1.708e-5
-1.132, -1.797e-5
-1.131, -1.782e-5
-1.130, -1.713e-5
-1.129, -1.742e-5
-1.128, -1.756e-5
-1.127, -1.806e-5
-1.126, -1.800e-5
-1.125, -1.817e-5
-1.124, -1.844e-5
-1.123, -1.844e-5
-1.122, -1.860e-5
-1.121, -1.883e-5
-1.120, -1.879e-5
-1.119, -1.906e-5
-1.118, -2.041e-5
-1.117, -1.999e-5
-1.116, -2.005e-5
-1.115, -1.996e-5
-1.114, -2.017e-5
-1.113, -2.060e-5
-1.112, -2.097e-5
-1.111, -2.114e-5
-1.110, -2.137e-5
-1.109, -2.120e-5
-1.108, -2.137e-5
-1.107, -2.163e-5
-1.106, -2.224e-5
-1.105, -2.193e-5
-1.104, -2.202e-5
-1.103, -2.222e-5
-1.102, -2.247e-5
-1.101, -2.266e-5
-1.100, -2.277e-5
-1.099, -2.401e-5
-1.098, -2.349e-5
-1.097, -2.388e-5
-1.096, -2.373e-5
-1.095, -2.396e-5
-1.094, -2.407e-5
-1.093, -2.401e-5
-1.092, -2.440e-5
-1.091, -2.471e-5
-1.090, -2.484e-5
-1.089, -2.513e-5
-1.088, -2.536e-5
-1.087, -2.588e-5
-1.086, -2.587e-5
-1.085, -2.582e-5
-1.084, -2.627e-5
-1.083, -2.688e-5
-1.082, -2.643e-5
-1.081, -2.675e-5
-1.080, -2.722e-5
-1.079, -2.704e-5
-1.078, -2.736e-5
-1.077, -2.760e-5
-1.076, -2.732e-5
-1.075, -2.747e-5
-1.074, -2.754e-5
-1.073, -2.766e-5
-1.072, -2.788e-5
-1.071, -2.801e-5
-1.070, -2.829e-5
-1.069, -2.900e-5
-1.068, -2.926e-5
-1.067, -2.929e-5
-1.066, -2.945e-5
-1.065, -2.957e-5
-1.064, -2.980e-5
-1.063, -2.977e-5
-1.062, -3.042e-5
-1.061, -2.988e-5
-1.060, -2.968e-5
-1.059, -2.975e-5
-1.058, -2.962e-5
-1.057, -2.979e-5
-1.056, -2.967e-5
-1.055, -2.966e-5
-1.054, -2.994e-5
-1.053, -3.023e-5
-1.052, -3.010e-5
-1.051, -3.007e-5
-1.050, -2.993e-5
-1.049, -3.001e-5
-1.048, -2.984e-5
-1.047, -2.992e-5
-1.046, -2.995e-5
-1.045, -2.993e-5
-1.044, -2.980e-5
-1.043, -3.012e-5
-1.042, -2.981e-5
-1.041, -3.039e-5
-1.040, -3.027e-5
-1.039, -3.030e-5
-1.038, -3.040e-5
-1.037, -3.043e-5
-1.036, -3.037e-5
-1.035, -3.061e-5
-1.034, -3.050e-5
-1.033, -3.036e-5
-1.032, -3.036e-5
-1.031, -3.031e-5
-1.030, -3.087e-5
-1.029, -3.046e-5
-1.028, -3.042e-5
-1.027, -3.047e-5
-1.026, -3.036e-5
-1.025, -3.056e-5
-1.024, -3.055e-5
-1.023, -3.052e-5
-1.022, -3.061e-5
-1.021, -3.073e-5
-1.020, -3.094e-5
-1.019, -3.095e-5
-1.018, -3.062e-5
-1.017, -3.077e-5
-1.016, -3.068e-5
-1.015, -3.071e-5
-1.014, -3.068e-5
-1.013, -3.068e-5
-1.012, -3.079e-5
-1.011, -3.093e-5
-1.010, -3.098e-5
-1.009, -3.087e-5
-1.008, -3.111e-5
-1.007, -3.098e-5
-1.006, -3.092e-5
-1.005, -3.091e-5
-1.004, -3.113e-5
-1.003, -3.099e-5
-1.002, -3.111e-5
-1.001, -3.096e-5
-1.000, -2.002e-5
-1.001, -1.388e-5
-1.002, -1.133e-5
-1.003, -9.691e-6
-1.004, -8.216e-6
-1.005, -7.025e-6
-1.006, -5.909e-6
-1.007, -5.049e-6
-1.008, -4.391e-6
-1.009, -3.651e-6
-1.010, -2.997e-6
-1.011, -2.422e-6
-1.012, -1.852e-6
-1.013, -1.472e-6
-1.014, -9.523e-7
-1.015, -4.037e-7
-1.016, -1.697e-8
-1.017, 3.293e-7
-1.018, 7.289e-7
-1.019, 1.004e-6
-1.020, 1.393e-6
-1.021, 1.704e-6
-1.022, 2.033e-6
-1.023, 2.251e-6
-1.024, 2.465e-6
-1.025, 2.821e-6
-1.026, 3.132e-6
-1.027, 3.291e-6
-1.028, 3.594e-6
-1.029, 3.827e-6
-1.030, 4.132e-6
-1.031, 4.383e-6
-1.032, 4.564e-6
-1.033, 4.682e-6
-1.034, 4.932e-6
-1.035, 5.057e-6
-1.036, 5.382e-6
-1.037, 5.474e-6
-1.038, 5.637e-6
-1.039, 5.825e-6
-1.040, 5.948e-6
-1.041, 6.169e-6
-1.042, 6.401e-6
-1.043, 6.425e-6
-1.044, 6.646e-6
-1.045, 6.797e-6
-1.046, 6.926e-6
-1.047, 7.156e-6
-1.048, 7.147e-6
-1.049, 7.262e-6
-1.050, 7.528e-6
-1.051, 7.585e-6
-1.052, 7.754e-6
-1.053, 7.791e-6
-1.054, 7.897e-6
-1.055, 8.129e-6
-1.056, 8.136e-6
-1.057, 8.267e-6
-1.058, 8.377e-6
-1.059, 8.479e-6
-1.060, 8.649e-6
-1.061, 8.740e-6
-1.062, 8.830e-6
-1.063, 8.942e-6
-1.064, 8.933e-6
-1.065, 9.116e-6
-1.066, 9.224e-6
-1.067, 9.304e-6
-1.068, 9.375e-6
-1.069, 9.406e-6
-1.070, 9.578e-6
-1.071, 9.675e-6
-1.072, 9.637e-6
-1.073, 9.775e-6
-1.074, 9.881e-6
-1.075, 1.002e-5
-1.076, 1.011e-5
-1.077, 1.015e-5
-1.078, 1.014e-5
-1.079, 1.029e-5
-1.080, 1.036e-5
-1.081, 1.045e-5
-1.082, 1.055e-5
-1.083, 1.052e-5
-1.084, 1.062e-5
-1.085, 1.076e-5
-1.086, 1.077e-5
-1.087, 1.091e-5
-1.088, 1.085e-5
-1.089, 1.095e-5
-1.090, 1.120e-5
-1.091, 1.115e-5
-1.092, 1.125e-5
-1.093, 1.132e-5
-1.094, 1.137e-5
-1.095, 1.154e-5
-1.096, 1.148e-5
-1.097, 1.155e-5
-1.098, 1.163e-5
-1.099, 1.155e-5
-1.100, 1.190e-5
-1.101, 1.189e-5
-1.102, 1.193e-5
-1.103, 1.201e-5
-1.104, 1.199e-5
-1.105, 1.216e-5
-1.106, 1.217e-5
-1.107, 1.229e-5
-1.108, 1.227e-5
-1.109, 1.234e-5
-1.110, 1.245e-5
-1.111, 1.209e-5
-1.112, 1.220e-5
-1.113, 1.269e-5
-1.114, 1.279e-5
-1.115, 1.282e-5
-1.116, 1.290e-5
-1.117, 1.288e-5
-1.118, 1.296e-5
-1.119, 1.304e-5
-1.120, 1.315e-5
-1.121, 1.316e-5
-1.122, 1.327e-5
-1.123, 1.326e-5
-1.124, 1.333e-5
-1.125, 1.351e-5
-1.126, 1.353e-5
-1.127, 1.356e-5
-1.128, 1.337e-5
-1.129, 1.342e-5
-1.130, 1.373e-5
-1.131, 1.371e-5
-1.132, 1.383e-5
-1.133, 1.385e-5
-1.134, 1.391e-5
-1.135, 1.416e-5
-1.136, 1.415e-5
-1.137, 1.427e-5
-1.138, 1.432e-5
-1.139, 1.426e-5
-1.140, 1.450e-5
-1.141, 1.465e-5
-1.142, 1.461e-5
-1.143, 1.467e-5
-1.144, 1.463e-5
-1.145, 1.480e-5
-1.146, 1.493e-5
-1.147, 1.493e-5
-1.148, 1.498e-5
-1.149, 1.503e-5
-1.150, 1.516e-5
-1.151, 1.527e-5
-1.152, 1.529e-5
-1.153, 1.532e-5
-1.154, 1.544e-5
-1.155, 1.552e-5
-1.156, 1.564e-5
-1.157, 1.568e-5
-1.158, 1.561e-5
-1.159, 1.582e-5
-1.160, 1.588e-5
-1.161, 1.597e-5
-1.162, 1.604e-5
-1.163, 1.603e-5
-1.164, 1.613e-5
-1.165, 1.624e-5
-1.166, 1.636e-5
-1.167, 1.642e-5
-1.168, 1.645e-5
-1.169, 1.652e-5
-1.170, 1.669e-5
-1.171, 1.681e-5
-1.172, 1.685e-5
-1.173, 1.693e-5
-1.174, 1.708e-5
-1.175, 1.723e-5
-1.176, 1.732e-5
-1.177, 1.745e-5
-1.178, 1.750e-5
-1.179, 1.749e-5
-1.180, 1.757e-5
-1.181, 1.768e-5
-1.182, 1.773e-5
-1.183, 1.787e-5
-1.184, 1.795e-5
-1.185, 1.802e-5
-1.186, 1.822e-5
-1.187, 1.836e-5
-1.188, 1.845e-5
-1.189, 1.845e-5
-1.190, 1.846e-5
-1.191, 1.861e-5
-1.192, 1.864e-5
-1.193, 1.884e-5
-1.194, 1.905e-5
-1.195, 1.908e-5
-1.196, 1.931e-5
-1.197, 1.943e-5
-1.198, 1.967e-5
-1.199, 1.991e-5
-1.200, 1.994e-5
-1.201, 2.021e-5
-1.202, 2.043e-5
-1.203, 2.046e-5
-1.204, 2.063e-5
-1.205, 2.091e-5
-1.206, 2.105e-5
-1.207, 2.133e-5
-1.208, 2.149e-5
-1.209, 2.159e-5
-1.210, 2.179e-5
-1.211, 2.193e-5
-1.212, 2.217e-5
-1.213, 2.242e-5
-1.214, 2.274e-5
-1.215, 2.311e-5
-1.216, 2.330e-5
-1.217, 2.356e-5
-1.218, 2.368e-5
-1.219, 2.364e-5
-1.220, 2.399e-5
-1.221, 2.436e-5
-1.222, 2.466e-5
-1.223, 2.495e-5
-1.224, 2.521e-5
-1.225, 2.545e-5
-1.226, 2.640e-5
-1.227, 2.632e-5
-1.228, 2.687e-5
-1.229, 2.702e-5
-1.230, 2.706e-5
-1.231, 2.742e-5
-1.232, 2.785e-5
-1.233, 2.817e-5
-1.234, 2.874e-5
-1.235, 2.901e-5
-1.236, 2.955e-5
-1.237, 3.006e-5
-1.238, 3.043e-5
-1.239, 3.091e-5
-1.240, 3.133e-5
-1.241, 3.185e-5
-1.242, 3.235e-5
-1.243, 3.269e-5
-1.244, 3.323e-5
-1.245, 3.378e-5
-1.246, 3.444e-5
-1.247, 3.511e-5
-1.248, 3.556e-5
-1.249, 3.578e-5
-1.250, 3.635e-5
-1.251, 3.694e-5
-1.252, 3.763e-5
-1.253, 3.822e-5
-1.254, 3.861e-5
-1.255, 3.928e-5
-1.256, 4.017e-5
-1.257, 4.091e-5
-1.258, 4.164e-5
-1.259, 4.212e-5
-1.260, 4.276e-5
-1.261, 4.308e-5
-1.262, 4.473e-5
-1.263, 4.480e-5
-1.264, 4.573e-5
-1.265, 4.681e-5
-1.266, 4.733e-5
-1.267, 4.797e-5
-1.268, 4.890e-5
-1.269, 4.964e-5
-1.270, 5.060e-5
-1.271, 5.230e-5
-1.272, 5.270e-5
-1.273, 5.338e-5
-1.274, 5.437e-5
-1.275, 5.535e-5
-1.276, 5.630e-5
-1.277, 5.776e-5
-1.278, 5.875e-5
-1.279, 5.944e-5
-1.280, 6.044e-5
-1.281, 6.157e-5
-1.282, 6.254e-5
-1.283, 6.370e-5
-1.284, 6.512e-5
-1.285, 6.618e-5
-1.286, 6.828e-5
-1.287, 6.937e-5
-1.288, 7.021e-5
-1.289, 7.150e-5
-1.290, 7.280e-5
-1.291, 7.419e-5
-1.292, 7.578e-5
-1.293, 7.713e-5
-1.294, 7.876e-5
-1.295, 8.004e-5
-1.296, 8.129e-5
-1.297, 8.267e-5
-1.298, 8.447e-5
-1.299, 8.588e-5
-1.300, 8.782e-5
-1.301, 8.880e-5
-1.302, 9.037e-5
-1.303, 9.217e-5
-1.304, 9.402e-5
-1.305, 9.528e-5
-1.306, 9.730e-5
-1.307, 9.910e-5
-1.308, 1.011e-4
-1.309, 1.029e-4
-1.310, 1.050e-4
-1.311, 1.071e-4
-1.312, 1.086e-4
-1.313, 1.102e-4
-1.314, 1.127e-4
-1.315, 1.145e-4
-1.316, 1.177e-4
-1.317, 1.195e-4
-1.318, 1.213e-4
-1.319, 1.237e-4
-1.320, 1.260e-4
-1.321, 1.277e-4
-1.322, 1.310e-4
-1.323, 1.347e-4
-1.324, 1.352e-4
-1.325, 1.376e-4
-1.326, 1.404e-4
-1.327, 1.432e-4
-1.328, 1.456e-4
-1.329, 1.484e-4
-1.330, 1.511e-4
-1.331, 1.535e-4
-1.332, 1.568e-4
-1.333, 1.601e-4
-1.334, 1.630e-4
-1.335, 1.657e-4
-1.336, 1.678e-4
-1.337, 1.693e-4
-1.338, 1.726e-4
-1.339, 1.771e-4
-1.340, 1.799e-4
-1.341, 1.829e-4
-1.342, 1.866e-4
-1.343, 1.889e-4
-1.344, 1.918e-4
-1.345, 1.955e-4
-1.346, 1.993e-4
-1.347, 2.038e-4
-1.348, 2.064e-4
-1.349, 2.092e-4
-1.350, 2.130e-4
-1.351, 2.165e-4
-1.352, 2.203e-4
-1.353, 2.244e-4
-1.354, 2.287e-4
-1.355, 2.325e-4
-1.356, 2.362e-4
-1.357, 2.400e-4
-1.358, 2.447e-4
-1.359, 2.493e-4
-1.360, 2.527e-4
-1.361, 2.565e-4
-1.362, 2.600e-4
-1.363, 2.647e-4
-1.364, 2.693e-4
-1.365, 2.738e-4
-1.366, 2.779e-4
-1.367, 2.816e-4
-1.368, 2.841e-4
-1.369, 2.818e-4
-1.370, 2.889e-4
-1.371, 2.919e-4
-1.372, 2.963e-4
-1.373, 3.000e-4
-1.374, 3.048e-4
-1.375, 3.094e-4
-1.376, 3.131e-4
-1.377, 3.175e-4
-1.378, 3.233e-4
-1.379, 3.291e-4
-1.380, 3.333e-4
-1.381, 3.397e-4
-1.382, 3.439e-4
-1.383, 3.489e-4
-1.384, 3.547e-4
-1.385, 3.603e-4
-1.386, 3.674e-4
-1.387, 3.725e-4
-1.388, 3.778e-4
-1.389, 3.806e-4
-1.390, 3.859e-4
-1.391, 3.907e-4
-1.392, 3.976e-4
-1.393, 4.028e-4
-1.394, 4.090e-4
-1.395, 4.146e-4
-1.396, 4.193e-4
-1.397, 4.249e-4
-1.398, 4.300e-4
-1.399, 4.365e-4
-1.400, 4.421e-4
-1.401, 4.485e-4
-1.402, 4.539e-4
-1.403, 4.610e-4
-1.404, 4.681e-4
-1.405, 4.747e-4
-1.406, 4.806e-4
-1.407, 4.862e-4
-1.408, 4.918e-4
-1.409, 4.990e-4
-1.410, 5.040e-4
-1.411, 5.106e-4
-1.412, 5.208e-4
-1.413, 5.285e-4
-1.414, 5.328e-4
-1.415, 5.376e-4
-1.416, 5.449e-4
-1.417, 5.525e-4
-1.418, 5.563e-4
-1.419, 5.627e-4
-1.420, 5.700e-4
-1.421, 5.776e-4
-1.422, 5.852e-4
-1.423, 5.909e-4
-1.424, 5.986e-4
-1.425, 6.052e-4
-1.426, 6.121e-4
-1.427, 6.200e-4
-1.428, 6.283e-4
-1.429, 6.342e-4
-1.430, 6.390e-4
-1.431, 6.470e-4
-1.432, 6.522e-4
-1.433, 6.607e-4
-1.434, 6.692e-4
-1.435, 6.784e-4
-1.436, 6.867e-4
-1.437, 6.930e-4
-1.438, 6.954e-4
-1.439, 7.028e-4
-1.440, 7.098e-4
-1.441, 7.188e-4
-1.442, 7.294e-4
-1.443, 7.312e-4
-1.444, 7.362e-4
-1.445, 7.462e-4
-1.446, 7.592e-4
-1.447, 7.655e-4
-1.448, 7.738e-4
-1.449, 7.866e-4
-1.450, 7.993e-4
-1.451, 8.076e-4
-1.452, 8.117e-4
-1.453, 8.216e-4
-1.454, 8.318e-4
-1.455, 8.463e-4
-1.456, 8.535e-4
-1.457, 8.620e-4
-1.458, 8.659e-4
-1.459, 8.748e-4
-1.460, 8.847e-4
-1.461, 8.996e-4
-1.462, 9.044e-4
-1.463, 9.201e-4
-1.464, 9.287e-4
-1.465, 9.376e-4
-1.466, 9.413e-4
-1.467, 9.389e-4
-1.468, 9.452e-4
-1.469, 9.544e-4
-1.470, 9.622e-4
-1.471, 9.697e-4
-1.472, 9.725e-4
-1.473, 9.765e-4
-1.474, 9.840e-4
-1.475, 1.008e-3
-1.476, 1.017e-3
-1.477, 1.019e-3
-1.478, 1.036e-3
-1.479, 1.038e-3
-1.480, 1.043e-3
-1.481, 1.047e-3
-1.482, 1.062e-3
-1.483, 1.126e-3
-1.484, 1.073e-3
-1.485, 1.044e-3
-1.486, 1.063e-3
-1.487, 1.054e-3
-1.488, 1.055e-3
-1.489, 1.062e-3
-1.490, 1.072e-3
-1.491, 1.080e-3
-1.492, 1.092e-3
-1.493, 1.141e-3
-1.494, 1.132e-3
-1.495, 1.141e-3
-1.496, 1.154e-3
-1.497, 1.166e-3
-1.498, 1.171e-3
-1.499, 1.171e-3
-1.500, 1.174e-3
-1.501, 1.184e-3
-1.502, 1.198e-3
-1.503, 1.213e-3
-1.504, 1.243e-3
-1.505, 1.240e-3
-1.506, 1.246e-3
-1.507, 1.248e-3
-1.508, 1.262e-3
-1.509, 1.292e-3
-1.510, 1.302e-3
-1.511, 1.336e-3
-1.512, 1.337e-3
-1.513, 1.346e-3
-1.514, 1.352e-3
-1.515, 1.353e-3
-1.516, 1.348e-3
-1.517, 1.361e-3
-1.518, 1.388e-3
-1.519, 1.410e-3
-1.520, 1.414e-3
-1.521, 1.431e-3
-1.522, 1.450e-3
-1.523, 1.462e-3
-1.524, 1.472e-3
-1.525, 1.484e-3
-1.526, 1.499e-3
-1.527, 1.506e-3
-1.528, 1.510e-3
-1.529, 1.524e-3
-1.530, 1.538e-3
-1.531, 1.560e-3
-1.532, 1.573e-3
-1.533, 1.595e-3
-1.534, 1.603e-3
-1.535, 1.615e-3
-1.536, 1.618e-3
-1.537, 1.623e-3
-1.538, 1.626e-3
-1.539, 1.638e-3
-1.540, 1.658e-3
-1.541, 1.681e-3
-1.542, 1.717e-3
-1.543, 1.724e-3
-1.544, 1.746e-3
-1.545, 1.767e-3
-1.546, 1.776e-3
-1.547, 1.794e-3
-1.548, 1.792e-3
-1.549, 1.797e-3
-1.550, 1.790e-3
-1.551, 1.817e-3
-1.552, 1.841e-3
-1.553, 1.867e-3
-1.554, 1.888e-3
-1.555, 1.886e-3
-1.556, 1.882e-3
-1.557, 1.876e-3
-1.558, 1.888e-3
-1.559, 1.908e-3
-1.560, 1.936e-3
-1.561, 1.954e-3
-1.562, 1.971e-3
-1.563, 1.998e-3
-1.564, 2.005e-3
-1.565, 1.974e-3
-1.566, 1.994e-3
-1.567, 2.025e-3
-1.568, 2.049e-3
-1.569, 2.079e-3
-1.570, 2.093e-3
-1.571, 2.114e-3
-1.572, 2.141e-3
-1.573, 2.177e-3
-1.574, 2.187e-3
-1.575, 2.152e-3
-1.576, 2.171e-3
-1.577, 2.217e-3
-1.578, 2.236e-3
-1.579, 2.265e-3
-1.580, 2.266e-3
-1.581, 2.277e-3
-1.582, 2.277e-3
-1.583, 2.291e-3
-1.584, 2.291e-3
-1.585, 2.305e-3
-1.586, 2.299e-3
-1.587, 2.302e-3
-1.588, 2.288e-3
-1.589, 2.288e-3
-1.590, 2.291e-3
-1.591, 2.329e-3
-1.592, 2.397e-3
-1.593, 2.412e-3
-1.594, 2.399e-3
-1.595, 2.413e-3
-1.596, 2.434e-3
-1.597, 2.441e-3
-1.598, 2.468e-3
-1.599, 2.461e-3
-1.600, 2.477e-3
-1.599, 2.509e-3
-1.598, 2.509e-3
-1.597, 2.491e-3
-1.596, 2.501e-3
-1.595, 2.469e-3
-1.594, 2.428e-3
-1.593, 2.407e-3
-1.592, 2.354e-3
-1.591, 2.287e-3
-1.590, 2.258e-3
-1.589, 2.247e-3
-1.588, 2.224e-3
-1.587, 2.234e-3
-1.586, 2.196e-3
-1.585, 2.149e-3
-1.584, 2.117e-3
-1.583, 2.153e-3
-1.582, 2.126e-3
-1.581, 2.119e-3
-1.580, 2.115e-3
-1.579, 2.069e-3
-1.578, 2.034e-3
-1.577, 1.981e-3
-1.576, 1.929e-3
-1.575, 1.896e-3
-1.574, 1.917e-3
-1.573, 1.898e-3
-1.572, 1.874e-3
-1.571, 1.879e-3
-1.570, 1.872e-3
-1.569, 1.857e-3
-1.568, 1.873e-3
-1.567, 1.835e-3
-1.566, 1.780e-3
-1.565, 1.733e-3
-1.564, 1.702e-3
-1.563, 1.685e-3
-1.562, 1.671e-3
-1.561, 1.649e-3
-1.560, 1.634e-3
-1.559, 1.614e-3
-1.558, 1.618e-3
-1.557, 1.583e-3
-1.556, 1.557e-3
-1.555, 1.543e-3
-1.554, 1.524e-3
-1.553, 1.503e-3
-1.552, 1.489e-3
-1.551, 1.467e-3
-1.550, 1.449e-3
-1.549, 1.441e-3
-1.548, 1.419e-3
-1.547, 1.402e-3
-1.546, 1.384e-3
-1.545, 1.372e-3
-1.544, 1.355e-3
-1.543, 1.345e-3
-1.542, 1.330e-3
-1.541, 1.311e-3
-1.540, 1.287e-3
-1.539, 1.266e-3
-1.538, 1.249e-3
-1.537, 1.234e-3
-1.536, 1.221e-3
-1.535, 1.205e-3
-1.534, 1.185e-3
-1.533, 1.176e-3
-1.532, 1.169e-3
-1.531, 1.152e-3
-1.530, 1.143e-3
-1.529, 1.128e-3
-1.528, 1.116e-3
-1.527, 1.105e-3
-1.526, 1.103e-3
-1.525, 1.132e-3
-1.524, 1.083e-3
-1.523, 1.067e-3
-1.522, 1.052e-3
-1.521, 1.042e-3
-1.520, 1.036e-3
-1.519, 1.019e-3
-1.518, 1.010e-3
-1.517, 9.899e-4
-1.516, 9.798e-4
-1.515, 9.663e-4
-1.514, 9.554e-4
-1.513, 9.436e-4
-1.512, 9.330e-4
-1.511, 9.206e-4
-1.510, 9.094e-4
-1.509, 8.965e-4
-1.508, 8.926e-4
-1.507, 8.869e-4
-1.506, 8.934e-4
-1.505, 8.869e-4
-1.504, 8.718e-4
-1.503, 8.562e-4
-1.502, 8.517e-4
-1.501, 8.348e-4
-1.500, 8.260e-4
-1.499, 8.160e-4
-1.498, 8.134e-4
-1.497, 7.964e-4
-1.496, 7.894e-4
-1.495, 7.809e-4
-1.494, 7.692e-4
-1.493, 7.638e-4
-1.492, 7.482e-4
-1.491, 7.402e-4
-1.490, 7.281e-4
-1.489, 7.211e-4
-1.488, 7.184e-4
-1.487, 7.059e-4
-1.486, 7.008e-4
-1.485, 6.891e-4
-1.484, 6.852e-4
-1.483, 6.727e-4
-1.482, 6.724e-4
-1.481, 6.570e-4
-1.480, 6.529e-4
-1.479, 6.379e-4
-1.478, 6.389e-4
-1.477, 6.214e-4
-1.476, 6.156e-4
-1.475, 6.053e-4
-1.474, 6.075e-4
-1.473, 6.037e-4
-1.472, 5.933e-4
-1.471, 5.878e-4
-1.470, 5.774e-4
-1.469, 5.703e-4
-1.468, 5.790e-4
-1.467, 5.612e-4
-1.466, 5.499e-4
-1.465, 5.523e-4
-1.464, 5.368e-4
-1.463, 5.453e-4
-1.462, 5.254e-4
-1.461, 5.167e-4
-1.460, 5.159e-4
-1.459, 5.038e-4
-1.458, 5.090e-4
-1.457, 4.927e-4
-1.456, 4.806e-4
-1.455, 4.789e-4
-1.454, 4.845e-4
-1.453, 4.735e-4
-1.452, 4.711e-4
-1.451, 4.619e-4
-1.450, 4.559e-4
-1.449, 4.440e-4
-1.448, 4.338e-4
-1.447, 4.349e-4
-1.446, 4.309e-4
-1.445, 4.213e-4
-1.444, 4.199e-4
-1.443, 4.047e-4
-1.442, 3.986e-4
-1.441, 3.942e-4
-1.440, 3.967e-4
-1.439, 3.863e-4
-1.438, 3.910e-4
-1.437, 3.848e-4
-1.436, 3.757e-4
-1.435, 3.666e-4
-1.434, 3.624e-4
-1.433, 3.537e-4
-1.432, 3.559e-4
-1.431, 3.468e-4
-1.430, 3.397e-4
-1.429, 3.377e-4
-1.428, 3.323e-4
-1.427, 3.247e-4
-1.426, 3.211e-4
-1.425, 3.177e-4
-1.424, 3.135e-4
-1.423, 3.067e-4
-1.422, 3.028e-4
-1.421, 2.995e-4
-1.420, 2.949e-4
-1.419, 2.866e-4
-1.418, 2.836e-4
-1.417, 2.806e-4
-1.416, 2.790e-4
-1.415, 2.732e-4
-1.414, 2.706e-4
-1.413, 2.693e-4
-1.412, 2.636e-4
-1.411, 2.560e-4
-1.410, 2.536e-4
-1.409, 2.509e-4
-1.408, 2.437e-4
-1.407, 2.405e-4
-1.406, 2.335e-4
-1.405, 2.350e-4
-1.404, 2.265e-4
-1.403, 2.227e-4
-1.402, 2.193e-4
-1.401, 2.165e-4
-1.400, 2.238e-4
-1.399, 2.142e-4
-1.398, 2.149e-4
-1.397, 2.082e-4
-1.396, 2.025e-4
-1.395, 1.990e-4
-1.394, 2.015e-4
-1.393, 1.957e-4
-1.392, 1.928e-4
-1.391, 1.897e-4
-1.390, 1.840e-4
-1.389, 1.827e-4
-1.388, 1.795e-4
-1.387, 1.781e-4
-1.386, 1.741e-4
-1.385, 1.703e-4
-1.384, 1.648e-4
-1.383, 1.617e-4
-1.382, 1.588e-4
-1.381, 1.577e-4
-1.380, 1.546e-4
-1.379, 1.520e-4
-1.378, 1.493e-4
-1.377, 1.468e-4
-1.376, 1.430e-4
-1.375, 1.412e-4
-1.374, 1.381e-4
-1.373, 1.366e-4
-1.372, 1.355e-4
-1.371, 1.323e-4
-1.370, 1.303e-4
-1.369, 1.280e-4
-1.368, 1.259e-4
-1.367, 1.225e-4
-1.366, 1.193e-4
-1.365, 1.206e-4
-1.364, 1.174e-4
-1.363, 1.154e-4
-1.362, 1.135e-4
-1.361, 1.112e-4
-1.360, 1.093e-4
-1.359, 1.064e-4
-1.358, 1.036e-4
-1.357, 1.025e-4
-1.356, 1.032e-4
-1.355, 1.088e-4
-1.354, 1.013e-4
-1.353, 9.825e-5
-1.352, 9.476e-5
-1.351, 9.300e-5
-1.350, 9.133e-5
-1.349, 8.883e-5
-1.348, 8.816e-5
-1.347, 8.621e-5
-1.346, 8.406e-5
-1.345, 8.252e-5
-1.344, 8.380e-5
-1.343, 8.077e-5
-1.342, 8.298e-5
-1.341, 7.721e-5
-1.340, 7.591e-5
-1.339, 7.442e-5
-1.338, 7.296e-5
-1.337, 7.172e-5
-1.336, 7.467e-5
-1.335, 6.940e-5
-1.334, 6.774e-5
-1.333, 6.589e-5
-1.332, 6.674e-5
-1.331, 6.401e-5
-1.330, 6.270e-5
-1.329, 6.372e-5
-1.328, 6.255e-5
-1.327, 6.023e-5
-1.326, 5.853e-5
-1.325, 5.679e-5
-1.324, 5.576e-5
-1.323, 5.380e-5
-1.322, 5.285e-5
-1.321, 5.184e-5
-1.320, 5.090e-5
-1.319, 5.014e-5
-1.318, 4.911e-5
-1.317, 4.997e-5
-1.316, 4.754e-5
-1.315, 4.645e-5
-1.314, 4.548e-5
-1.313, 4.452e-5
-1.312, 4.819e-5
-1.311, 4.351e-5
-1.310, 4.207e-5
-1.309, 4.086e-5
-1.308, 3.995e-5
-1.307, 3.915e-5
-1.306, 3.845e-5
-1.305, 3.751e-5
-1.304, 3.624e-5
-1.303, 3.544e-5
-1.302, 3.486e-5
-1.301, 3.416e-5
-1.300, 3.332e-5
-1.299, 3.263e-5
-1.298, 3.170e-5
-1.297, 3.087e-5
-1.296, 3.017e-5
-1.295, 3.089e-5
-1.294, 3.099e-5
-1.293, 2.913e-5
-1.292, 2.767e-5
-1.291, 2.700e-5
-1.290, 2.634e-5
-1.289, 2.560e-5
-1.288, 2.515e-5
-1.287, 2.683e-5
-1.286, 2.422e-5
-1.285, 2.368e-5
-1.284, 2.312e-5
-1.283, 2.215e-5
-1.282, 2.156e-5
-1.281, 2.095e-5
-1.280, 2.117e-5
-1.279, 2.038e-5
-1.278, 1.955e-5
-1.277, 1.913e-5
-1.276, 1.822e-5
-1.275, 1.764e-5
-1.274, 1.715e-5
-1.273, 1.687e-5
-1.272, 1.729e-5
-1.271, 1.618e-5
-1.270, 1.552e-5
-1.269, 1.495e-5
-1.268, 1.448e-5
-1.267, 1.432e-5
-1.266, 1.357e-5
-1.265, 1.322e-5
-1.264, 1.299e-5
-1.263, 1.241e-5
-1.262, 1.185e-5
-1.261, 1.144e-5
-1.260, 1.095e-5
-1.259, 1.125e-5
-1.258, 1.056e-5
-1.257, 9.902e-6
-1.256, 9.559e-6
-1.255, 9.137e-6
-1.254, 9.082e-6
-1.253, 8.981e-6
-1.252, 8.248e-6
-1.251, 7.890e-6
-1.250, 7.490e-6
-1.249, 7.152e-6
-1.248, 6.953e-6
-1.247, 6.529e-6
-1.246, 6.681e-6
-1.245, 6.062e-6
-1.244, 5.675e-6
-1.243, 5.521e-6
-1.242, 5.176e-6
-1.241, 4.846e-6
-1.240, 4.523e-6
-1.239, 4.224e-6
-1.238, 3.979e-6
-1.237, 3.734e-6
-1.236, 3.765e-6
-1.235, 3.250e-6
-1.234, 3.013e-6
-1.233, 2.792e-6
-1.232, 2.520e-6
-1.231, 2.300e-6
-1.230, 1.944e-6
-1.229, 1.703e-6
-1.228, 1.541e-6
-1.227, 1.239e-6
-1.226, 1.042e-6
-1.225, 6.825e-7
-1.224, 6.125e-7
-1.223, 4.763e-7
-1.222, 3.274e-7
-1.221, 1.113e-7
-1.220, -1.886e-7
-1.219, -3.860e-7
-1.218, -5.527e-7
-1.217, -7.382e-7
-1.216, -9.108e-7
-1.215, -1.172e-6
-1.214, -1.334e-6
-1.213, -1.414e-6
-1.212, -1.646e-6
-1.211, -1.790e-6
-1.210, -2.020e-6
-1.209, -2.181e-6
-1.208, -2.260e-6
-1.207, -2.401e-6
-1.206, -2.639e-6
-1.205, -2.820e-6
-1.204, -2.893e-6
-1.203, -3.044e-6
-1.202, -3.201e-6
-1.201, -3.398e-6
-1.200, -3.505e-6
-1.199, -3.625e-6
-1.198, -3.733e-6
-1.197, -3.851e-6
-1.196, -4.025e-6
-1.195, -4.288e-6
-1.194, -4.282e-6
-1.193, -4.368e-6
-1.192, -4.539e-6
-1.191, -4.581e-6
-1.190, -4.806e-6
-1.189, -4.945e-6
-1.188, -5.027e-6
-1.187, -5.134e-6
-1.186, -5.193e-6
-1.185, -5.450e-6
-1.184, -5.407e-6
-1.183, -5.598e-6
-1.182, -5.729e-6
-1.181, -5.736e-6
-1.180, -5.936e-6
-1.179, -6.079e-6
-1.178, -6.185e-6
-1.177, -6.297e-6
-1.176, -6.313e-6
-1.175, -6.440e-6
-1.174, -6.581e-6
-1.173, -6.600e-6
-1.172, -6.771e-6
-1.171, -6.907e-6
-1.170, -7.020e-6
-1.169, -7.063e-6
-1.168, -7.079e-6
-1.167, -7.180e-6
-1.166, -7.387e-6
-1.165, -7.457e-6
-1.164, -7.505e-6
-1.163, -7.573e-6
-1.162, -7.682e-6
-1.161, -7.762e-6
-1.160, -7.801e-6
-1.159, -7.879e-6
-1.158, -8.216e-6
-1.157, -8.062e-6
-1.156, -8.266e-6
-1.155, -8.338e-6
-1.154, -8.385e-6
-1.153, -8.466e-6
-1.152, -8.583e-6
-1.151, -8.616e-6
-1.150, -8.729e-6
-1.149, -8.941e-6
-1.148, -8.871e-6
-1.147, -9.080e-6
-1.146, -9.086e-6
-1.145, -9.198e-6
-1.144, -9.270e-6
-1.143, -9.270e-6
-1.142, -9.414e-6
-1.141, -9.502e-6
-1.140, -9.602e-6
-1.139, -9.655e-6
-1.138, -9.716e-6
-1.137, -9.858e-6
-1.136, -9.997e-6
-1.135, -1.002e-5
-1.134, -1.017e-5
-1.133, -1.020e-5
-1.132, -1.019e-5
-1.131, -1.049e-5
-1.130, -1.065e-5
-1.129, -1.068e-5
-1.128, -1.063e-5
-1.127, -1.084e-5
-1.126, -1.095e-5
-1.125, -1.091e-5
-1.124, -1.098e-5
-1.123, -1.109e-5
-1.122, -1.117e-5
-1.121, -1.135e-5
-1.120, -1.140e-5
-1.119, -1.140e-5
-1.118, -1.169e-5
-1.117, -1.166e-5
-1.116, -1.178e-5
-1.115, -1.194e-5
-1.114, -1.199e-5
-1.113, -1.206e-5
-1.112, -1.209e-5
-1.111, -1.233e-5
-1.110, -1.249e-5
-1.109, -1.257e-5
-1.108, -1.257e-5
-1.107, -1.269e-5
-1.106, -1.285e-5
-1.105, -1.295e-5
-1.104, -1.291e-5
-1.103, -1.312e-5
-1.102, -1.318e-5
-1.101, -1.344e-5
-1.100, -1.344e-5
-1.099, -1.361e-5
-1.098, -1.361e-5
-1.097, -1.376e-5
-1.096, -1.389e-5
-1.095, -1.399e-5
-1.094, -1.412e-5
-1.093, -1.406e-5
-1.092, -1.414e-5
-1.091, -1.448e-5
-1.090, -1.444e-5
-1.089, -1.460e-5
-1.088, -1.460e-5
-1.087, -1.469e-5
-1.086, -1.490e-5
-1.085, -1.491e-5
-1.084, -1.503e-5
-1.083, -1.516e-5
-1.082, -1.521e-5
-1.081, -1.546e-5
-1.080, -1.546e-5
-1.079, -1.572e-5
-1.078, -1.574e-5
-1.077, -1.592e-5
-1.076, -1.627e-5
-1.075, -1.640e-5
-1.074, -1.647e-5
-1.073, -1.648e-5
-1.072, -1.646e-5
-1.071, -1.670e-5
-1.070, -1.684e-5
-1.069, -1.686e-5
-1.068, -1.694e-5
-1.067, -1.704e-5
-1.066, -1.713e-5
-1.065, -1.734e-5
-1.064, -1.738e-5
-1.063, -1.747e-5
-1.062, -1.758e-5
-1.061, -1.778e-5
-1.060, -1.781e-5
-1.059, -1.796e-5
-1.058, -1.794e-5
-1.057, -1.805e-5
-1.056, -1.833e-5
-1.055, -1.832e-5
-1.054, -1.847e-5
-1.053, -1.850e-5
-1.052, -1.860e-5
-1.051, -1.879e-5
-1.050, -1.887e-5
-1.049, -1.899e-5
-1.048, -1.902e-5
-1.047, -1.923e-5
-1.046, -1.926e-5
-1.045, -1.938e-5
-1.044, -1.948e-5
-1.043, -1.958e-5
-1.042, -1.951e-5
-1.041, -1.954e-5
-1.040, -1.962e-5
-1.039, -1.973e-5
-1.038, -1.967e-5
-1.037, -1.975e-5
-1.036, -2.008e-5
-1.035, -2.039e-5
-1.034, -2.023e-5
-1.033, -2.025e-5
-1.032, -2.032e-5
-1.031, -2.038e-5
-1.030, -2.059e-5
-1.029, -2.057e-5
-1.028, -2.070e-5
-1.027, -2.079e-5
-1.026, -2.090e-5
-1.025, -2.100e-5
-1.024, -2.101e-5
-1.023, -2.106e-5
-1.022, -2.119e-5
-1.021, -2.126e-5
-1.020, -2.133e-5
-1.019, -2.141e-5
-1.018, -2.141e-5
-1.017, -2.147e-5
-1.016, -2.148e-5
-1.015, -2.148e-5
-1.014, -2.172e-5
-1.013, -2.158e-5
-1.012, -2.176e-5
-1.011, -2.185e-5
-1.010, -2.189e-5
-1.009, -2.195e-5
-1.008, -2.190e-5
-1.007, -2.205e-5
-1.006, -2.209e-5
-1.005, -2.212e-5
-1.004, -2.219e-5
-1.003, -2.211e-5
-1.002, -2.238e-5
-1.001, -2.249e-5
-1.000, -1.419e-5
-1.001, -9.728e-6
-1.002, -7.701e-6
-1.003, -6.367e-6
-1.004, -5.233e-6
-1.005, -4.350e-6
-1.006, -3.525e-6
-1.007, -2.694e-6
-1.008, -2.139e-6
-1.009, -1.560e-6
-1.010, -1.067e-6
-1.011, -6.681e-7
-1.012, -2.232e-7
-1.013, 1.596e-7
-1.014, 5.109e-7
-1.015, 8.325e-7
-1.016, 1.118e-6
-1.017, 1.478e-6
-1.018, 1.794e-6
-1.019, 1.981e-6
-1.020, 2.246e-6
-1.021, 2.446e-6
-1.022, 2.718e-6
-1.023, 2.965e-6
-1.024, 3.203e-6
-1.025, 3.279e-6
-1.026, 3.529e-6
-1.027, 3.678e-6
-1.028, 3.865e-6
-1.029, 4.012e-6
-1.030, 4.119e-6
-1.031, 4.390e-6
-1.032, 4.532e-6
-1.033, 4.728e-6
-1.034, 4.950e-6
-1.035, 5.004e-6
-1.036, 5.072e-6
-1.037, 5.201e-6
-1.038, 5.248e-6
-1.039, 5.430e-6
-1.040, 5.413e-6
-1.041, 5.540e-6
-1.042, 5.743e-6
-1.043, 5.785e-6
-1.044, 5.927e-6
-1.045, 5.935e-6
-1.046, 6.057e-6
-1.047, 6.213e-6
-1.048, 6.226e-6
-1.049, 6.341e-6
-1.050, 6.407e-6
-1.051, 6.444e-6
-1.052, 6.639e-6
-1.053, 6.653e-6
-1.054, 6.689e-6
-1.055, 6.790e-6
-1.056, 6.827e-6
-1.057, 6.970e-6
-1.058, 7.014e-6
-1.059, 7.042e-6
-1.060, 7.102e-6
-1.061, 7.196e-6
-1.062, 7.293e-6
-1.063, 7.365e-6
-1.064, 7.393e-6
-1.065, 7.381e-6
-1.066, 7.527e-6
-1.067, 7.571e-6
-1.068, 7.604e-6
-1.069, 7.686e-6
-1.070, 7.616e-6
-1.071, 7.750e-6
-1.072, 7.847e-6
-1.073, 7.892e-6
-1.074, 7.973e-6
-1.075, 8.003e-6
-1.076, 8.017e-6
-1.077, 8.074e-6
-1.078, 8.090e-6
-1.079, 8.137e-6
-1.080, 8.122e-6
-1.081, 8.157e-6
-1.082, 8.228e-6
-1.083, 8.278e-6
-1.084, 8.318e-6
-1.085, 8.326e-6
-1.086, 8.338e-6
-1.087, 8.457e-6
-1.088, 8.427e-6
-1.089, 8.509e-6
-1.090, 8.490e-6
-1.091, 8.458e-6
-1.092, 8.578e-6
-1.093, 8.669e-6
-1.094, 8.668e-6
-1.095, 8.709e-6
-1.096, 8.658e-6
-1.097, 8.749e-6
-1.098, 8.843e-6
-1.099, 8.818e-6
-1.100, 8.848e-6
-1.101, 8.828e-6
-1.102, 8.906e-6
-1.103, 8.980e-6
-1.104, 8.968e-6
-1.105, 8.952e-6
-1.106, 9.019e-6
-1.107, 9.096e-6
-1.108, 9.163e-6
-1.109, 9.191e-6
-1.110, 9.101e-6
-1.111, 9.233e-6
-1.112, 9.213e-6
-1.113, 9.300e-6
-1.114, 9.355e-6
-1.115, 9.309e-6
-1.116, 9.336e-6
-1.117, 9.417e-6
-1.118, 9.434e-6
-1.119, 9.528e-6
-1.120, 9.442e-6
-1.121, 9.508e-6
-1.122, 9.581e-6
-1.123, 9.577e-6
-1.124, 9.659e-6
-1.125, 9.652e-6
-1.126, 9.712e-6
-1.127, 9.765e-6
-1.128, 9.774e-6
-1.129, 9.782e-6
-1.130, 9.828e-6
-1.131, 9.809e-6
-1.132, 9.894e-6
-1.133, 9.958e-6
-1.134, 9.964e-6
-1.135, 9.955e-6
-1.136, 9.973e-6
-1.137, 1.005e-5
-1.138, 1.011e-5
-1.139, 1.013e-5
-1.140, 1.015e-5
-1.141, 1.019e-5
-1.142, 1.022e-5
-1.143, 1.038e-5
-1.144, 1.030e-5
-1.145, 1.026e-5
-1.146, 1.038e-5
-1.147, 1.039e-5
-1.148, 1.043e-5
-1.149, 1.048e-5
-1.150, 1.044e-5
-1.151, 1.055e-5
-1.152, 1.057e-5
-1.153, 1.061e-5
-1.154, 1.066e-5
-1.155, 1.059e-5
-1.156, 1.074e-5
-1.157, 1.073e-5
-1.158, 1.077e-5
-1.159, 1.088e-5
-1.160, 1.077e-5
-1.161, 1.085e-5
-1.162, 1.097e-5
-1.163, 1.098e-5
-1.164, 1.101e-5
-1.165, 1.104e-5
-1.166, 1.106e-5
-1.167, 1.110e-5
-1.168, 1.116e-5
-1.169, 1.115e-5
-1.170, 1.123e-5
-1.171, 1.125e-5
-1.172, 1.139e-5
-1.173, 1.138e-5
-1.174, 1.135e-5
-1.175, 1.142e-5
-1.176, 1.145e-5
-1.177, 1.155e-5
-1.178, 1.165e-5
-1.179, 1.162e-5
-1.180, 1.167e-5
-1.181, 1.174e-5
-1.182, 1.174e-5
-1.183, 1.191e-5
-1.184, 1.188e-5
-1.185, 1.187e-5
-1.186, 1.197e-5
-1.187, 1.204e-5
-1.188, 1.219e-5
-1.189, 1.219e-5
-1.190, 1.218e-5
-1.191, 1.235e-5
-1.192, 1.238e-5
-1.193, 1.248e-5
-1.194, 1.258e-5
-1.195, 1.258e-5
-1.196, 1.263e-5
-1.197, 1.275e-5
-1.198, 1.287e-5
-1.199, 1.296e-5
-1.200, 1.296e-5
-1.201, 1.311e-5
-1.202, 1.318e-5
-1.203, 1.332e-5
-1.204, 1.338e-5
-1.205, 1.342e-5
-1.206, 1.353e-5
-1.207, 1.370e-5
-1.208, 1.383e-5
-1.209, 1.391e-5
-1.210, 1.402e-5
-1.211, 1.413e-5
-1.212, 1.425e-5
-1.213, 1.446e-5
-1.214, 1.448e-5
-1.215, 1.463e-5
-1.216, 1.475e-5
-1.217, 1.491e-5
-1.218, 1.508e-5
-1.219, 1.509e-5
-1.220, 1.530e-5
-1.221, 1.544e-5
-1.222, 1.570e-5
-1.223, 1.594e-5
-1.224, 1.602e-5
-1.225, 1.619e-5
-1.226, 1.633e-5
-1.227, 1.657e-5
-1.228, 1.688e-5
-1.229, 1.712e-5
-1.230, 1.718e-5
-1.231, 1.745e-5
-1.232, 1.761e-5
-1.233, 1.787e-5
-1.234, 1.808e-5
-1.235, 1.828e-5
-1.236, 1.854e-5
-1.237, 1.879e-5
-1.238, 1.904e-5
-1.239, 1.932e-5
-1.240, 1.947e-5
-1.241, 1.979e-5
-1.242, 2.010e-5
-1.243, 2.036e-5
-1.244, 2.065e-5
-1.245, 2.096e-5
-1.246, 2.120e-5
-1.247, 2.153e-5
-1.248, 2.185e-5
-1.249, 2.217e-5
-1.250, 2.255e-5
-1.251, 2.283e-5
-1.252, 2.324e-5
-1.253, 2.363e-5
-1.254, 2.390e-5
-1.255, 2.440e-5
-1.256, 2.463e-5
-1.257, 2.501e-5
-1.258, 2.558e-5
-1.259, 2.589e-5
-1.260, 2.626e-5
-1.261, 2.666e-5
-1.262, 2.710e-5
-1.263, 2.763e-5
-1.264, 2.800e-5
-1.265, 2.846e-5
-1.266, 2.891e-5
-1.267, 2.939e-5
-1.268, 2.994e-5
-1.269, 3.048e-5
-1.270, 3.095e-5
-1.271, 3.148e-5
-1.272, 3.204e-5
-1.273, 3.257e-5
-1.274, 3.315e-5
-1.275, 3.368e-5
-1.276, 3.429e-5
-1.277, 3.491e-5
-1.278, 3.539e-5
-1.279, 3.615e-5
-1.280, 3.677e-5
-1.281, 3.740e-5
-1.282, 3.814e-5
-1.283, 3.873e-5
-1.284, 3.958e-5
-1.285, 4.014e-5
-1.286, 4.085e-5
-1.287, 4.174e-5
-1.288, 4.234e-5
-1.289, 4.282e-5
-1.290, 4.391e-5
-1.291, 4.483e-5
-1.292, 4.542e-5
-1.293, 4.642e-5
-1.294, 4.723e-5
-1.295, 4.805e-5
-1.296, 4.871e-5
-1.297, 4.980e-5
-1.298, 5.074e-5
-1.299, 5.175e-5
-1.300, 5.260e-5
-1.301, 5.354e-5
-1.302, 5.451e-5
-1.303, 5.577e-5
-1.304, 5.663e-5
-1.305, 5.761e-5
-1.306, 5.876e-5
-1.307, 5.984e-5
-1.308, 6.092e-5
-1.309, 6.212e-5
-1.310, 6.316e-5
-1.311, 6.430e-5
-1.312, 6.542e-5
-1.313, 6.674e-5
-1.314, 6.811e-5
-1.315, 6.923e-5
-1.316, 7.056e-5
-1.317, 7.180e-5
-1.318, 7.316e-5
-1.319, 7.459e-5
-1.320, 7.593e-5
-1.321, 7.723e-5
-1.322, 7.873e-5
-1.323, 8.002e-5
-1.324, 8.161e-5
-1.325, 8.342e-5
-1.326, 8.438e-5
-1.327, 8.607e-5
-1.328, 8.762e-5
-1.329, 8.920e-5
-1.330, 9.082e-5
-1.331, 9.238e-5
-1.332, 9.426e-5
-1.333, 9.615e-5
-1.334, 9.810e-5
-1.335, 9.969e-5
-1.336, 1.014e-4
-1.337, 1.039e-4
-1.338, 1.056e-4
-1.339, 1.075e-4
-1.340, 1.095e-4
-1.341, 1.115e-4
-1.342, 1.136e-4
-1.343, 1.155e-4
-1.344, 1.179e-4
-1.345, 1.198e-4
-1.346, 1.219e-4
-1.347, 1.244e-4
-1.348, 1.268e-4
-1.349, 1.288e-4
-1.350, 1.311e-4
-1.351, 1.339e-4
-1.352, 1.359e-4
-1.353, 1.387e-4
-1.354, 1.409e-4
-1.355, 1.432e-4
-1.356, 1.462e-4
-1.357, 1.490e-4
-1.358, 1.517e-4
-1.359, 1.545e-4
-1.360, 1.571e-4
-1.361, 1.599e-4
-1.362, 1.630e-4
-1.363, 1.652e-4
-1.364, 1.684e-4
-1.365, 1.706e-4
-1.366, 1.734e-4
-1.367, 1.768e-4
-1.368, 1.782e-4
-1.369, 1.831e-4
-1.370, 1.872e-4
-1.371, 1.901e-4
-1.372, 1.923e-4
-1.373, 1.955e-4
-1.374, 1.991e-4
-1.375, 2.025e-4
-1.376, 2.062e-4
-1.377, 2.096e-4
-1.378, 2.132e-4
-1.379, 2.172e-4
-1.380, 2.186e-4
-1.381, 2.237e-4
-1.382, 2.264e-4
-1.383, 2.312e-4
-1.384, 2.343e-4
-1.385, 2.376e-4
-1.386, 2.419e-4
-1.387, 2.459e-4
-1.388, 2.497e-4
-1.389, 2.540e-4
-1.390, 2.583e-4
-1.391, 2.626e-4
-1.392, 2.669e-4
-1.393, 2.708e-4
-1.394, 2.748e-4
-1.395, 2.794e-4
-1.396, 2.839e-4
-1.397, 2.885e-4
-1.398, 2.932e-4
-1.399, 2.977e-4
-1.400, 3.021e-4
-1.401, 3.069e-4
-1.402, 3.116e-4
-1.403, 3.169e-4
-1.404, 3.219e-4
-1.405, 3.259e-4
-1.406, 3.297e-4
-1.407, 3.350e-4
-1.408, 3.405e-4
-1.409, 3.462e-4
-1.410, 3.511e-4
-1.411, 3.563e-4
-1.412, 3.614e-4
-1.413, 3.664e-4
-1.414, 3.733e-4
-1.415, 3.815e-4
-1.416, 3.862e-4
-1.417, 3.901e-4
-1.418, 3.975e-4
-1.419, 4.010e-4
-1.420, 4.037e-4
-1.421, 4.125e-4
-1.422, 4.148e-4
-1.423, 4.163e-4
-1.424, 4.227e-4
-1.425, 4.295e-4
-1.426, 4.327e-4
-1.427, 4.395e-4
-1.428, 4.473e-4
-1.429, 4.508e-4
-1.430, 4.598e-4
-1.431, 4.628e-4
-1.432, 4.702e-4
-1.433, 4.784e-4
-1.434, 4.864e-4
-1.435, 4.937e-4
-1.436, 5.000e-4
-1.437, 5.071e-4
-1.438, 5.132e-4
-1.439, 5.187e-4
-1.440, 5.264e-4
-1.441, 5.337e-4
-1.442, 5.403e-4
-1.443, 5.478e-4
-1.444, 5.539e-4
-1.445, 5.556e-4
-1.446, 5.629e-4
-1.447, 5.697e-4
-1.448, 5.776e-4
-1.449, 5.839e-4
-1.450, 5.909e-4
-1.451, 5.983e-4
-1.452, 6.058e-4
-1.453, 6.123e-4
-1.454, 6.188e-4
-1.455, 6.265e-4
-1.456, 6.333e-4
-1.457, 6.413e-4
-1.458, 6.492e-4
-1.459, 6.570e-4
-1.460, 6.633e-4
-1.461, 6.686e-4
-1.462, 6.768e-4
-1.463, 6.837e-4
-1.464, 6.916e-4
-1.465, 7.000e-4
-1.466, 7.074e-4
-1.467, 7.158e-4
-1.468, 7.232e-4
-1.469, 7.311e-4
-1.470, 7.389e-4
-1.471, 7.455e-4
-1.472, 7.516e-4
-1.473, 7.601e-4
-1.474, 7.811e-4
-1.475, 7.915e-4
-1.476, 7.862e-4
-1.477, 7.997e-4
-1.478, 8.024e-4
-1.479, 8.098e-4
-1.480, 8.174e-4
-1.481, 8.260e-4
-1.482, 8.350e-4
-1.483, 8.424e-4
-1.484, 8.521e-4
-1.485, 8.460e-4
-1.486, 8.412e-4
-1.487, 8.605e-4
-1.488, 8.617e-4
-1.489, 8.670e-4
-1.490, 8.806e-4
-1.491, 8.943e-4
-1.492, 8.989e-4
-1.493, 9.027e-4
-1.494, 9.053e-4
-1.495, 9.126e-4
-1.496, 9.228e-4
-1.497, 9.328e-4
-1.498, 9.411e-4
-1.499, 9.462e-4
-1.500, 9.515e-4
-1.501, 9.833e-4
-1.502, 9.908e-4
-1.503, 9.995e-4
-1.504, 1.011e-3
-1.505, 1.016e-3
-1.506, 1.026e-3
-1.507, 1.034e-3
-1.508, 1.047e-3
-1.509, 1.055e-3
-1.510, 1.065e-3
-1.511, 1.078e-3
-1.512, 1.086e-3
-1.513, 1.094e-3
-1.514, 1.102e-3
-1.515, 1.106e-3
-1.516, 1.109e-3
-1.517, 1.119e-3
-1.518, 1.130e-3
-1.519, 1.142e-3
-1.520, 1.152e-3
-1.521, 1.162e-3
-1.522, 1.174e-3
-1.523, 1.185e-3
-1.524, 1.195e-3
-1.525, 1.207e-3
-1.526, 1.216e-3
-1.527, 1.226e-3
-1.528, 1.239e-3
-1.529, 1.252e-3
-1.530, 1.262e-3
-1.531, 1.262e-3
-1.532, 1.265e-3
-1.533, 1.277e-3
-1.534, 1.280e-3
-1.535, 1.290e-3
-1.536, 1.305e-3
-1.537, 1.325e-3
-1.538, 1.332e-3
-1.539, 1.330e-3
-1.540, 1.343e-3
-1.541, 1.354e-3
-1.542, 1.360e-3
-1.543, 1.387e-3
-1.544, 1.408e-3
-1.545, 1.408e-3
-1.546, 1.419e-3
-1.547, 1.427e-3
-1.548, 1.438e-3
-1.549, 1.447e-3
-1.550, 1.460e-3
-1.551, 1.467e-3
-1.552, 1.482e-3
-1.553, 1.520e-3
-1.554, 1.559e-3
-1.555, 1.565e-3
-1.556, 1.582e-3
-1.557, 1.596e-3
-1.558, 1.605e-3
-1.559, 1.618e-3
-1.560, 1.640e-3
-1.561, 1.645e-3
-1.562, 1.648e-3
-1.563, 1.654e-3
-1.564, 1.660e-3
-1.565, 1.671e-3
-1.566, 1.671e-3
-1.567, 1.677e-3
-1.568, 1.691e-3
-1.569, 1.727e-3
-1.570, 1.740e-3
-1.571, 1.777e-3
-1.572, 1.789e-3
-1.573, 1.819e-3
-1.574, 1.842e-3
-1.575, 1.822e-3
-1.576, 1.796e-3
-1.577, 1.852e-3
-1.578, 1.862e-3
-1.579, 1.886e-3
-1.580, 1.912e-3
-1.581, 1.912e-3
-1.582, 1.935e-3
-1.583, 1.943e-3
-1.584, 1.955e-3
-1.585, 2.022e-3
-1.586, 2.048e-3
-1.587, 2.042e-3
-1.588, 2.076e-3
-1.589, 2.089e-3
-1.590, 2.083e-3
-1.591, 2.040e-3
-1.592, 2.077e-3
-1.593, 2.132e-3
-1.594, 2.168e-3
-1.595, 2.181e-3
-1.596, 2.162e-3
-1.597, 2.180e-3
-1.598, 2.211e-3
-1.599, 2.248e-3
-1.600, 2.260e-3
-1.599, 2.240e-3
-1.598, 2.203e-3
-1.597, 2.161e-3
-1.596, 2.128e-3
-1.595, 2.100e-3
-1.594, 2.068e-3
-1.593, 2.032e-3
-1.592, 2.001e-3
-1.591, 1.983e-3
-1.590, 1.949e-3
-1.589, 1.920e-3
-1.588, 1.913e-3
-1.587, 1.903e-3
-1.586, 1.887e-3
-1.585, 1.840e-3
-1.584, 1.808e-3
-1.583, 1.793e-3
-1.582, 1.762e-3
-1.581, 1.747e-3
-1.580, 1.725e-3
-1.579, 1.712e-3
-1.578, 1.708e-3
-1.577, 1.680e-3
-1.576, 1.642e-3
-1.575, 1.611e-3
-1.574, 1.588e-3
-1.573, 1.562e-3
-1.572, 1.568e-3
-1.571, 1.551e-3
-1.570, 1.533e-3
-1.569, 1.509e-3
-1.568, 1.489e-3
-1.567, 1.469e-3
-1.566, 1.451e-3
-1.565, 1.441e-3
-1.564, 1.425e-3
-1.563, 1.405e-3
-1.562, 1.374e-3
-1.561, 1.355e-3
-1.560, 1.342e-3
-1.559, 1.330e-3
-1.558, 1.321e-3
-1.557, 1.313e-3
-1.556, 1.295e-3
-1.555, 1.278e-3
-1.554, 1.270e-3
-1.553, 1.254e-3
-1.552, 1.232e-3
-1.551, 1.221e-3
-1.550, 1.202e-3
-1.549, 1.185e-3
-1.548, 1.162e-3
-1.547, 1.139e-3
-1.546, 1.126e-3
-1.545, 1.110e-3
-1.544, 1.100e-3
-1.543, 1.081e-3
-1.542, 1.074e-3
-1.541, 1.061e-3
-1.540, 1.051e-3
-1.539, 1.047e-3
-1.538, 1.030e-3
-1.537, 1.014e-3
-1.536, 9.970e-4
-1.535, 9.903e-4
-1.534, 9.699e-4
-1.533, 9.514e-4
-1.532, 9.471e-4
-1.531, 9.355e-4
-1.530, 9.302e-4
-1.529, 9.357e-4
-1.528, 9.289e-4
-1.527, 9.078e-4
-1.526, 8.903e-4
-1.525, 8.785e-4
-1.524, 8.678e-4
-1.523, 8.560e-4
-1.522, 8.507e-4
-1.521, 8.402e-4
-1.520, 8.342e-4
-1.519, 8.176e-4
-1.518, 8.059e-4
-1.517, 8.008e-4
-1.516, 7.917e-4
-1.515, 7.877e-4
-1.514, 7.682e-4
-1.513, 7.557e-4
-1.512, 7.483e-4
-1.511, 7.419e-4
-1.510, 7.337e-4
-1.509, 7.272e-4
-1.508, 7.170e-4
-1.507, 7.077e-4
-1.506, 6.985e-4
-1.505, 6.874e-4
-1.504, 6.834e-4
-1.503, 6.736e-4
-1.502, 6.640e-4
-1.501, 6.601e-4
-1.500, 6.480e-4
-1.499, 6.439e-4
-1.498, 6.348e-4
-1.497, 6.223e-4
-1.496, 6.214e-4
-1.495, 6.117e-4
-1.494, 6.010e-4
-1.493, 5.941e-4
-1.492, 5.853e-4
-1.491, 5.760e-4
-1.490, 5.734e-4
-1.489, 5.655e-4
-1.488, 5.557e-4
-1.487, 5.487e-4
-1.486, 5.425e-4
-1.485, 5.364e-4
-1.484, 5.316e-4
-1.483, 5.223e-4
-1.482, 5.152e-4
-1.481, 5.124e-4
-1.480, 5.020e-4
-1.479, 4.946e-4
-1.478, 4.884e-4
-1.477, 4.858e-4
-1.476, 4.765e-4
-1.475, 4.736e-4
-1.474, 4.671e-4
-1.473, 4.643e-4
-1.472, 4.561e-4
-1.471, 4.465e-4
-1.470, 4.382e-4
-1.469, 4.361e-4
-1.468, 4.281e-4
-1.467, 4.210e-4
-1.466, 4.158e-4
-1.465, 4.080e-4
-1.464, 4.055e-4
-1.463, 3.992e-4
-1.462, 3.930e-4
-1.461, 3.875e-4
-1.460, 3.824e-4
-1.459, 3.779e-4
-1.458, 3.719e-4
-1.457, 3.655e-4
-1.456, 3.602e-4
-1.455, 3.552e-4
-1.454, 3.510e-4
-1.453, 3.469e-4
-1.452, 3.417e-4
-1.451, 3.365e-4
-1.450, 3.324e-4
-1.449, 3.274e-4
-1.448, 3.223e-4
-1.447, 3.178e-4
-1.446, 3.135e-4
-1.445, 3.100e-4
-1.444, 3.042e-4
-1.443, 2.994e-4
-1.442, 2.958e-4
-1.441, 2.900e-4
-1.440, 2.867e-4
-1.439, 2.826e-4
-1.438, 2.787e-4
-1.437, 2.746e-4
-1.436, 2.709e-4
-1.435, 2.678e-4
-1.434, 2.633e-4
-1.433, 2.581e-4
-1.432, 2.555e-4
-1.431, 2.515e-4
-1.430, 2.470e-4
-1.429, 2.434e-4
-1.428, 2.405e-4
-1.427, 2.361e-4
-1.426, 2.328e-4
-1.425, 2.297e-4
-1.424, 2.260e-4
-1.423, 2.224e-4
-1.422, 2.194e-4
-1.421, 2.159e-4
-1.420, 2.127e-4
-1.419, 2.094e-4
-1.418, 2.062e-4
-1.417, 2.019e-4
-1.416, 1.995e-4
-1.415, 1.966e-4
-1.414, 1.934e-4
-1.413, 1.906e-4
-1.412, 1.875e-4
-1.411, 1.840e-4
-1.410, 1.816e-4
-1.409, 1.798e-4
-1.408, 1.763e-4
-1.407, 1.735e-4
-1.406, 1.703e-4
-1.405, 1.671e-4
-1.404, 1.654e-4
-1.403, 1.632e-4
-1.402, 1.605e-4
-1.401, 1.580e-4
-1.400, 1.549e-4
-1.399, 1.526e-4
-1.398, 1.499e-4
-1.397, 1.478e-4
-1.396, 1.464e-4
-1.395, 1.447e-4
-1.394, 1.419e-4
-1.393, 1.390e-4
-1.392, 1.359e-4
-1.391, 1.339e-4
-1.390, 1.318e-4
-1.389, 1.302e-4
-1.388, 1.284e-4
-1.387, 1.263e-4
-1.386, 1.244e-4
-1.385, 1.225e-4
-1.384, 1.205e-4
-1.383, 1.184e-4
-1.382, 1.163e-4
-1.381, 1.140e-4
-1.380, 1.119e-4
-1.379, 1.097e-4
-1.378, 1.084e-4
-1.377, 1.066e-4
-1.376, 1.052e-4
-1.375, 1.039e-4
-1.374, 1.017e-4
-1.373, 9.959e-5
-1.372, 9.789e-5
-1.371, 9.649e-5
-1.370, 9.518e-5
-1.369, 9.363e-5
-1.368, 9.193e-5
-1.367, 9.030e-5
-1.366, 8.870e-5
-1.365, 8.773e-5
-1.364, 8.586e-5
-1.363, 8.423e-5
-1.362, 8.312e-5
-1.361, 8.171e-5
-1.360, 8.022e-5
-1.359, 7.882e-5
-1.358, 7.741e-5
-1.357, 7.584e-5
-1.356, 7.473e-5
-1.355, 7.371e-5
-1.354, 7.210e-5
-1.353, 7.089e-5
-1.352, 6.964e-5
-1.351, 6.842e-5
-1.350, 6.715e-5
-1.349, 6.593e-5
-1.348, 6.435e-5
-1.347, 6.322e-5
-1.346, 6.285e-5
-1.345, 6.137e-5
-1.344, 6.051e-5
-1.343, 5.935e-5
-1.342, 5.825e-5
-1.341, 5.723e-5
-1.340, 5.629e-5
-1.339, 5.532e-5
-1.338, 5.416e-5
-1.337, 5.347e-5
-1.336, 5.238e-5
-1.335, 5.132e-5
-1.334, 5.028e-5
-1.333, 4.941e-5
-1.332, 4.863e-5
-1.331, 4.764e-5
-1.330, 4.687e-5
-1.329, 4.583e-5
-1.328, 4.507e-5
-1.327, 4.426e-5
-1.326, 4.329e-5
-1.325, 4.246e-5
-1.324, 4.160e-5
-1.323, 4.081e-5
-1.322, 4.000e-5
-1.321, 3.921e-5
-1.320, 3.843e-5
-1.319, 3.774e-5
-1.318, 3.697e-5
-1.317, 3.624e-5
-1.316, 3.553e-5
-1.315, 3.478e-5
-1.314, 3.407e-5
-1.313, 3.338e-5
-1.312, 3.273e-5
-1.311, 3.210e-5
-1.310, 3.141e-5
-1.309, 3.073e-5
-1.308, 3.000e-5
-1.307, 2.907e-5
-1.306, 2.877e-5
-1.305, 2.819e-5
-1.304, 2.752e-5
-1.303, 2.716e-5
-1.302, 2.647e-5
-1.301, 2.587e-5
-1.300, 2.508e-5
-1.299, 2.487e-5
-1.298, 2.411e-5
-1.297, 2.371e-5
-1.296, 2.325e-5
-1.295, 2.254e-5
-1.294, 2.195e-5
-1.293, 2.149e-5
-1.292, 2.109e-5
-1.291, 2.056e-5
-1.290, 2.005e-5
-1.289, 1.952e-5
-1.288, 1.911e-5
-1.287, 1.866e-5
-1.286, 1.810e-5
-1.285, 1.779e-5
-1.284, 1.736e-5
-1.283, 1.680e-5
-1.282, 1.640e-5
-1.281, 1.586e-5
-1.280, 1.549e-5
-1.279, 1.515e-5
-1.278, 1.462e-5
-1.277, 1.432e-5
-1.276, 1.399e-5
-1.275, 1.358e-5
-1.274, 1.314e-5
-1.273, 1.272e-5
-1.272, 1.236e-5
-1.271, 1.202e-5
-1.270, 1.172e-5
-1.269, 1.131e-5
-1.268, 1.094e-5
-1.267, 1.057e-5
-1.266, 1.035e-5
-1.265, 9.985e-6
-1.264, 9.628e-6
-1.263, 9.303e-6
-1.262, 8.971e-6
-1.261, 8.744e-6
-1.260, 8.417e-6
-1.259, 8.047e-6
-1.258, 7.813e-6
-1.257, 7.455e-6
-1.256, 7.279e-6
-1.255, 6.959e-6
-1.254, 6.632e-6
-1.253, 6.382e-6
-1.252, 6.139e-6
-1.251, 5.819e-6
-1.250, 5.562e-6
-1.249, 5.329e-6
-1.248, 5.031e-6
-1.247, 4.824e-6
-1.246, 4.616e-6
-1.245, 4.370e-6
-1.244, 4.152e-6
-1.243, 3.867e-6
-1.242, 3.696e-6
-1.241, 3.515e-6
-1.240, 3.228e-6
-1.239, 3.011e-6
-1.238, 2.738e-6
-1.237, 2.615e-6
-1.236, 2.429e-6
-1.235, 2.167e-6
-1.234, 1.972e-6
-1.233, 1.737e-6
-1.232, 1.583e-6
-1.231, 1.494e-6
-1.230, 1.222e-6
-1.229, 9.696e-7
-1.228, 7.763e-7
-1.227, 6.283e-7
-1.226, 5.109e-7
-1.225, 3.195e-7
-1.224, 2.080e-7
-1.223, -4.065e-8
-1.222, -2.419e-7
-1.221, -3.070e-7
-1.220, -4.925e-7
-1.219, -6.247e-7
-1.218, -8.398e-7
-1.217, -9.266e-7
-1.216, -1.059e-6
-1.215, -1.249e-6
-1.214, -1.403e-6
-1.213, -1.527e-6
-1.212, -1.628e-6
-1.211, -1.835e-6
-1.210, -1.940e-6
-1.209, -2.121e-6
-1.208, -2.210e-6
-1.207, -2.349e-6
-1.206, -2.463e-6
-1.205, -2.566e-6
-1.204, -2.722e-6
-1.203, -2.867e-6
-1.202, -2.924e-6
-1.201, -3.074e-6
-1.200, -3.180e-6
-1.199, -3.281e-6
-1.198, -3.485e-6
-1.197, -3.571e-6
-1.196, -3.631e-6
-1.195, -3.737e-6
-1.194, -3.792e-6
-1.193, -3.979e-6
-1.192, -4.038e-6
-1.191, -4.121e-6
-1.190, -4.250e-6
-1.189, -4.349e-6
-1.188, -4.432e-6
-1.187, -4.582e-6
-1.186, -4.547e-6
-1.185, -4.720e-6
-1.184, -4.847e-6
-1.183, -4.879e-6
-1.182, -5.027e-6
-1.181, -5.070e-6
-1.180, -5.137e-6
-1.179, -5.273e-6
-1.178, -5.346e-6
-1.177, -5.414e-6
-1.176, -5.475e-6
-1.175, -5.522e-6
-1.174, -5.683e-6
-1.173, -5.732e-6
-1.172, -5.822e-6
-1.171, -5.906e-6
-1.170, -5.915e-6
-1.169, -6.051e-6
-1.168, -6.114e-6
-1.167, -6.187e-6
-1.166, -6.295e-6
-1.165, -6.310e-6
-1.164, -6.418e-6
-1.163, -6.552e-6
-1.162, -6.567e-6
-1.161, -6.615e-6
-1.160, -6.666e-6
-1.159, -6.778e-6
-1.158, -6.913e-6
-1.157, -6.907e-6
-1.156, -6.995e-6
-1.155, -7.083e-6
-1.154, -7.154e-6
-1.153, -7.257e-6
-1.152, -7.287e-6
-1.151, -7.334e-6
-1.150, -7.413e-6
-1.149, -7.507e-6
-1.148, -7.611e-6
-1.147, -7.669e-6
-1.146, -7.715e-6
-1.145, -7.779e-6
-1.144, -7.865e-6
-1.143, -7.985e-6
-1.142, -8.030e-6
-1.141, -8.064e-6
-1.140, -8.115e-6
-1.139, -8.245e-6
-1.138, -8.337e-6
-1.137, -8.410e-6
-1.136, -8.444e-6
-1.135, -8.483e-6
-1.134, -8.619e-6
-1.133, -8.682e-6
-1.132, -8.757e-6
-1.131, -8.817e-6
-1.130, -8.876e-6
-1.129, -8.960e-6
-1.128, -9.048e-6
-1.127, -9.144e-6
-1.126, -9.229e-6
-1.125, -9.254e-6
-1.124, -9.373e-6
-1.123, -9.488e-6
-1.122, -9.526e-6
-1.121, -9.586e-6
-1.120, -9.602e-6
-1.119, -9.708e-6
-1.118, -9.880e-6
-1.117, -9.911e-6
-1.116, -9.970e-6
-1.115, -1.012e-5
-1.114, -1.014e-5
-1.113, -1.027e-5
-1.112, -1.035e-5
-1.111, -1.034e-5
-1.110, -1.051e-5
-1.109, -1.061e-5
-1.108, -1.059e-5
-1.107, -1.076e-5
-1.106, -1.077e-5
-1.105, -1.090e-5
-1.104, -1.100e-5
-1.103, -1.107e-5
-1.102, -1.121e-5
-1.101, -1.120e-5
-1.100, -1.137e-5
-1.099, -1.147e-5
-1.098, -1.159e-5
-1.097, -1.181e-5
-1.096, -1.175e-5
-1.095, -1.178e-5
-1.094, -1.195e-5
-1.093, -1.194e-5
-1.092, -1.203e-5
-1.091, -1.221e-5
-1.090, -1.218e-5
-1.089, -1.231e-5
-1.088, -1.245e-5
-1.087, -1.254e-5
-1.086, -1.266e-5
-1.085, -1.269e-5
-1.084, -1.278e-5
-1.083, -1.300e-5
-1.082, -1.309e-5
-1.081, -1.311e-5
-1.080, -1.317e-5
-1.079, -1.330e-5
-1.078, -1.349e-5
-1.077, -1.357e-5
-1.076, -1.365e-5
-1.075, -1.379e-5
-1.074, -1.384e-5
-1.073, -1.398e-5
-1.072, -1.406e-5
-1.071, -1.418e-5
-1.070, -1.430e-5
-1.069, -1.441e-5
-1.068, -1.457e-5
-1.067, -1.462e-5
-1.066, -1.465e-5
-1.065, -1.482e-5
-1.064, -1.493e-5
-1.063, -1.509e-5
-1.062, -1.517e-5
-1.061, -1.523e-5
-1.060, -1.533e-5
-1.059, -1.548e-5
-1.058, -1.560e-5
-1.057, -1.570e-5
-1.056, -1.583e-5
-1.055, -1.585e-5
-1.054, -1.604e-5
-1.053, -1.608e-5
-1.052, -1.621e-5
-1.051, -1.630e-5
-1.050, -1.636e-5
-1.049, -1.651e-5
-1.048, -1.661e-5
-1.047, -1.667e-5
-1.046, -1.679e-5
-1.045, -1.684e-5
-1.044, -1.696e-5
-1.043, -1.710e-5
-1.042, -1.714e-5
-1.041, -1.728e-5
-1.040, -1.727e-5
-1.039, -1.738e-5
-1.038, -1.757e-5
-1.037, -1.761e-5
-1.036, -1.770e-5
-1.035, -1.776e-5
-1.034, -1.787e-5
-1.033, -1.800e-5
-1.032, -1.805e-5
-1.031, -1.817e-5
-1.030, -1.823e-5
-1.029, -1.823e-5
-1.028, -1.832e-5
-1.027, -1.846e-5
-1.026, -1.852e-5
-1.025, -1.861e-5
-1.024, -1.875e-5
-1.023, -1.879e-5
-1.022, -1.888e-5
-1.021, -1.890e-5
-1.020, -1.900e-5
-1.019, -1.909e-5
-1.018, -1.916e-5
-1.017, -1.924e-5
-1.016, -1.923e-5
-1.015, -1.929e-5
-1.014, -1.942e-5
-1.013, -1.946e-5
-1.012, -1.952e-5
-1.011, -1.964e-5
-1.010, -1.967e-5
-1.009, -1.976e-5
-1.008, -1.979e-5
-1.007, -1.985e-5
-1.006, -1.992e-5
-1.005, -1.990e-5
-1.004, -2.001e-5
-1.003, -2.010e-5
-1.002, -2.016e-5
-1.001, -2.017e-5
