Dec. 17, 2024   23:21:01
Cyclic Voltammetry
File: c:/users/guazh/data/banditlqround7_x0exp667_r5/2024-12-16-exp685\exp685-2024-12-17t23_13_40-arkoh\exp685_cv_sr_400mvs_efin_-1400mv.bin
Data Source:  Experiment
Instrument Model:  CHI760E
Header: CV ran at 400 mVs
Note: 

Init E (V) = -1
High E (V) = -1
Low E (V) = -1.4
Final E (V) = -1
Init P/N = N
Scan Rate (V/s) = 0.4
Segment = 3
Sample Interval (V) = 0.001
Quiet Time (sec) = 2
Sensitivity (A/V) = 0.01
Comp R (ohm) = 1.1

Results:

Channel 1:
Segment 1:

Segment 2:

Segment 3:

Potential/V, Current/A

-1.000, -1.067e-3
-1.001, -9.402e-4
-1.002, -8.138e-4
-1.003, -6.812e-4
-1.004, -5.517e-4
-1.005, -4.315e-4
-1.006, -3.267e-4
-1.007, -2.280e-4
-1.008, -1.263e-4
-1.009, -1.834e-5
-1.010, 9.265e-5
-1.011, 2.036e-4
-1.012, 3.023e-4
-1.013, 3.886e-4
-1.014, 4.750e-4
-1.015, 5.644e-4
-1.016, 6.599e-4
-1.017, 7.617e-4
-1.018, 8.542e-4
-1.019, 9.405e-4
-1.020, 1.014e-3
-1.021, 1.088e-3
-1.022, 1.169e-3
-1.023, 1.258e-3
-1.024, 1.347e-3
-1.025, 1.431e-3
-1.026, 1.502e-3
-1.027, 1.566e-3
-1.028, 1.634e-3
-1.029, 1.711e-3
-1.030, 1.795e-3
-1.031, 1.878e-3
-1.032, 1.949e-3
-1.033, 2.010e-3
-1.034, 2.069e-3
-1.035, 2.134e-3
-1.036, 2.205e-3
-1.037, 2.285e-3
-1.038, 2.359e-3
-1.039, 2.420e-3
-1.040, 2.476e-3
-1.041, 2.531e-3
-1.042, 2.593e-3
-1.043, 2.661e-3
-1.044, 2.735e-3
-1.045, 2.800e-3
-1.046, 2.852e-3
-1.047, 2.901e-3
-1.048, 2.957e-3
-1.049, 3.019e-3
-1.050, 3.086e-3
-1.051, 3.157e-3
-1.052, 3.216e-3
-1.053, 3.268e-3
-1.054, 3.311e-3
-1.055, 3.364e-3
-1.056, 3.425e-3
-1.057, 3.493e-3
-1.058, 3.555e-3
-1.059, 3.607e-3
-1.060, 3.654e-3
-1.061, 3.697e-3
-1.062, 3.752e-3
-1.063, 3.814e-3
-1.064, 3.879e-3
-1.065, 3.937e-3
-1.066, 3.980e-3
-1.067, 4.024e-3
-1.068, 4.070e-3
-1.069, 4.122e-3
-1.070, 4.184e-3
-1.071, 4.243e-3
-1.072, 4.295e-3
-1.073, 4.338e-3
-1.074, 4.381e-3
-1.075, 4.431e-3
-1.076, 4.495e-3
-1.077, 4.557e-3
-1.078, 4.616e-3
-1.079, 4.665e-3
-1.080, 4.702e-3
-1.081, 4.745e-3
-1.082, 4.791e-3
-1.083, 4.847e-3
-1.084, 4.905e-3
-1.085, 4.955e-3
-1.086, 4.995e-3
-1.087, 5.032e-3
-1.088, 5.072e-3
-1.089, 5.121e-3
-1.090, 5.177e-3
-1.091, 5.235e-3
-1.092, 5.282e-3
-1.093, 5.322e-3
-1.094, 5.359e-3
-1.095, 5.405e-3
-1.096, 5.463e-3
-1.097, 5.525e-3
-1.098, 5.581e-3
-1.099, 5.627e-3
-1.100, 5.667e-3
-1.101, 5.707e-3
-1.102, 5.756e-3
-1.103, 5.809e-3
-1.104, 5.864e-3
-1.105, 5.917e-3
-1.106, 5.960e-3
-1.107, 5.997e-3
-1.108, 6.043e-3
-1.109, 6.099e-3
-1.110, 6.163e-3
-1.111, 6.219e-3
-1.112, 6.271e-3
-1.113, 6.314e-3
-1.114, 6.354e-3
-1.115, 6.401e-3
-1.116, 6.456e-3
-1.117, 6.518e-3
-1.118, 6.573e-3
-1.119, 6.620e-3
-1.120, 6.657e-3
-1.121, 6.700e-3
-1.122, 6.746e-3
-1.123, 6.801e-3
-1.124, 6.860e-3
-1.125, 6.912e-3
-1.126, 6.956e-3
-1.127, 6.993e-3
-1.128, 7.036e-3
-1.129, 7.088e-3
-1.130, 7.150e-3
-1.131, 7.212e-3
-1.132, 7.264e-3
-1.133, 7.307e-3
-1.134, 7.347e-3
-1.135, 7.397e-3
-1.136, 7.455e-3
-1.137, 7.517e-3
-1.138, 7.575e-3
-1.139, 7.625e-3
-1.140, 7.668e-3
-1.141, 7.711e-3
-1.142, 7.763e-3
-1.143, 7.822e-3
-1.144, 7.884e-3
-1.145, 7.942e-3
-1.146, 7.988e-3
-1.147, 8.029e-3
-1.148, 8.078e-3
-1.149, 8.130e-3
-1.150, 8.192e-3
-1.151, 8.254e-3
-1.152, 8.303e-3
-1.153, 8.346e-3
-1.154, 8.386e-3
-1.155, 8.432e-3
-1.156, 8.485e-3
-1.157, 8.547e-3
-1.158, 8.602e-3
-1.159, 8.645e-3
-1.160, 8.685e-3
-1.161, 8.725e-3
-1.162, 8.775e-3
-1.163, 8.830e-3
-1.164, 8.895e-3
-1.165, 8.950e-3
-1.166, 8.997e-3
-1.167, 9.037e-3
-1.168, 9.080e-3
-1.169, 9.135e-3
-1.170, 9.194e-3
-1.171, 9.253e-3
-1.172, 9.305e-3
-1.173, 9.345e-3
-1.174, 9.385e-3
-1.175, 9.428e-3
-1.176, 9.487e-3
-1.177, 9.555e-3
-1.178, 9.613e-3
-1.179, 9.663e-3
-1.180, 9.703e-3
-1.181, 9.743e-3
-1.182, 9.792e-3
-1.183, 9.851e-3
-1.184, 9.915e-3
-1.185, 9.971e-3
-1.186, 1.001e-2
-1.187, 1.005e-2
-1.188, 1.010e-2
-1.189, 1.015e-2
-1.190, 1.021e-2
-1.191, 1.027e-2
-1.192, 1.033e-2
-1.193, 1.037e-2
-1.194, 1.041e-2
-1.195, 1.046e-2
-1.196, 1.052e-2
-1.197, 1.058e-2
-1.198, 1.064e-2
-1.199, 1.069e-2
-1.200, 1.073e-2
-1.201, 1.078e-2
-1.202, 1.083e-2
-1.203, 1.088e-2
-1.204, 1.095e-2
-1.205, 1.100e-2
-1.206, 1.105e-2
-1.207, 1.109e-2
-1.208, 1.113e-2
-1.209, 1.118e-2
-1.210, 1.124e-2
-1.211, 1.131e-2
-1.212, 1.136e-2
-1.213, 1.140e-2
-1.214, 1.144e-2
-1.215, 1.149e-2
-1.216, 1.155e-2
-1.217, 1.161e-2
-1.218, 1.167e-2
-1.219, 1.172e-2
-1.220, 1.176e-2
-1.221, 1.180e-2
-1.222, 1.186e-2
-1.223, 1.192e-2
-1.224, 1.197e-2
-1.225, 1.203e-2
-1.226, 1.207e-2
-1.227, 1.211e-2
-1.228, 1.217e-2
-1.229, 1.223e-2
-1.230, 1.229e-2
-1.231, 1.235e-2
-1.232, 1.241e-2
-1.233, 1.245e-2
-1.234, 1.249e-2
-1.235, 1.254e-2
-1.236, 1.259e-2
-1.237, 1.265e-2
-1.238, 1.271e-2
-1.239, 1.276e-2
-1.240, 1.281e-2
-1.241, 1.286e-2
-1.242, 1.291e-2
-1.243, 1.297e-2
-1.244, 1.303e-2
-1.245, 1.309e-2
-1.246, 1.313e-2
-1.247, 1.317e-2
-1.248, 1.321e-2
-1.249, 1.327e-2
-1.250, 1.333e-2
-1.251, 1.339e-2
-1.252, 1.345e-2
-1.253, 1.349e-2
-1.254, 1.354e-2
-1.255, 1.358e-2
-1.256, 1.364e-2
-1.257, 1.370e-2
-1.258, 1.377e-2
-1.259, 1.382e-2
-1.260, 1.386e-2
-1.261, 1.390e-2
-1.262, 1.395e-2
-1.263, 1.400e-2
-1.264, 1.406e-2
-1.265, 1.411e-2
-1.266, 1.415e-2
-1.267, 1.419e-2
-1.268, 1.424e-2
-1.269, 1.429e-2
-1.270, 1.436e-2
-1.271, 1.442e-2
-1.272, 1.447e-2
-1.273, 1.451e-2
-1.274, 1.455e-2
-1.275, 1.459e-2
-1.276, 1.465e-2
-1.277, 1.471e-2
-1.278, 1.477e-2
-1.279, 1.481e-2
-1.280, 1.486e-2
-1.281, 1.490e-2
-1.282, 1.496e-2
-1.283, 1.502e-2
-1.284, 1.508e-2
-1.285, 1.514e-2
-1.286, 1.519e-2
-1.287, 1.523e-2
-1.288, 1.527e-2
-1.289, 1.533e-2
-1.290, 1.539e-2
-1.291, 1.545e-2
-1.292, 1.550e-2
-1.293, 1.555e-2
-1.294, 1.559e-2
-1.295, 1.564e-2
-1.296, 1.570e-2
-1.297, 1.577e-2
-1.298, 1.583e-2
-1.299, 1.588e-2
-1.300, 1.593e-2
-1.301, 1.597e-2
-1.302, 1.603e-2
-1.303, 1.608e-2
-1.304, 1.615e-2
-1.305, 1.621e-2
-1.306, 1.625e-2
-1.307, 1.630e-2
-1.308, 1.634e-2
-1.309, 1.640e-2
-1.310, 1.646e-2
-1.311, 1.653e-2
-1.312, 1.658e-2
-1.313, 1.663e-2
-1.314, 1.668e-2
-1.315, 1.673e-2
-1.316, 1.679e-2
-1.317, 1.686e-2
-1.318, 1.692e-2
-1.319, 1.697e-2
-1.320, 1.702e-2
-1.321, 1.707e-2
-1.322, 1.712e-2
-1.323, 1.718e-2
-1.324, 1.725e-2
-1.325, 1.731e-2
-1.326, 1.736e-2
-1.327, 1.740e-2
-1.328, 1.745e-2
-1.329, 1.751e-2
-1.330, 1.757e-2
-1.331, 1.764e-2
-1.332, 1.769e-2
-1.333, 1.774e-2
-1.334, 1.778e-2
-1.335, 1.782e-2
-1.336, 1.789e-2
-1.337, 1.795e-2
-1.338, 1.801e-2
-1.339, 1.806e-2
-1.340, 1.811e-2
-1.341, 1.816e-2
-1.342, 1.821e-2
-1.343, 1.826e-2
-1.344, 1.833e-2
-1.345, 1.838e-2
-1.346, 1.843e-2
-1.347, 1.847e-2
-1.348, 1.851e-2
-1.349, 1.857e-2
-1.350, 1.863e-2
-1.351, 1.870e-2
-1.352, 1.875e-2
-1.353, 1.880e-2
-1.354, 1.885e-2
-1.355, 1.890e-2
-1.356, 1.897e-2
-1.357, 1.904e-2
-1.358, 1.910e-2
-1.359, 1.916e-2
-1.360, 1.920e-2
-1.361, 1.926e-2
-1.362, 1.933e-2
-1.363, 1.939e-2
-1.364, 1.946e-2
-1.365, 1.953e-2
-1.366, 1.958e-2
-1.367, 1.962e-2
-1.368, 1.967e-2
-1.369, 1.974e-2
-1.370, 1.980e-2
-1.371, 1.987e-2
-1.372, 1.994e-2
-1.373, 1.998e-2
-1.374, 2.003e-2
-1.375, 2.009e-2
-1.376, 2.016e-2
-1.377, 2.023e-2
-1.378, 2.029e-2
-1.379, 2.034e-2
-1.380, 2.039e-2
-1.381, 2.043e-2
-1.382, 2.048e-2
-1.383, 2.055e-2
-1.384, 2.061e-2
-1.385, 2.066e-2
-1.386, 2.071e-2
-1.387, 2.075e-2
-1.388, 2.080e-2
-1.389, 2.085e-2
-1.390, 2.092e-2
-1.391, 2.098e-2
-1.392, 2.104e-2
-1.393, 2.109e-2
-1.394, 2.113e-2
-1.395, 2.118e-2
-1.396, 2.125e-2
-1.397, 2.131e-2
-1.398, 2.137e-2
-1.399, 2.142e-2
-1.400, 2.137e-2
-1.399, 2.114e-2
-1.398, 2.092e-2
-1.397, 2.072e-2
-1.396, 2.052e-2
-1.395, 2.032e-2
-1.394, 2.011e-2
-1.393, 1.990e-2
-1.392, 1.969e-2
-1.391, 1.949e-2
-1.390, 1.931e-2
-1.389, 1.913e-2
-1.388, 1.894e-2
-1.387, 1.874e-2
-1.386, 1.854e-2
-1.385, 1.835e-2
-1.384, 1.817e-2
-1.383, 1.799e-2
-1.382, 1.781e-2
-1.381, 1.762e-2
-1.380, 1.742e-2
-1.379, 1.722e-2
-1.378, 1.704e-2
-1.377, 1.687e-2
-1.376, 1.670e-2
-1.375, 1.653e-2
-1.374, 1.635e-2
-1.373, 1.616e-2
-1.372, 1.598e-2
-1.371, 1.581e-2
-1.370, 1.564e-2
-1.369, 1.547e-2
-1.368, 1.530e-2
-1.367, 1.512e-2
-1.366, 1.493e-2
-1.365, 1.475e-2
-1.364, 1.459e-2
-1.363, 1.442e-2
-1.362, 1.426e-2
-1.361, 1.409e-2
-1.360, 1.391e-2
-1.359, 1.374e-2
-1.358, 1.358e-2
-1.357, 1.342e-2
-1.356, 1.327e-2
-1.355, 1.312e-2
-1.354, 1.295e-2
-1.353, 1.278e-2
-1.352, 1.261e-2
-1.351, 1.245e-2
-1.350, 1.230e-2
-1.349, 1.215e-2
-1.348, 1.199e-2
-1.347, 1.183e-2
-1.346, 1.167e-2
-1.345, 1.151e-2
-1.344, 1.137e-2
-1.343, 1.123e-2
-1.342, 1.107e-2
-1.341, 1.092e-2
-1.340, 1.076e-2
-1.339, 1.060e-2
-1.338, 1.046e-2
-1.337, 1.032e-2
-1.336, 1.018e-2
-1.335, 1.004e-2
-1.334, 9.891e-3
-1.333, 9.734e-3
-1.332, 9.582e-3
-1.331, 9.441e-3
-1.330, 9.302e-3
-1.329, 9.166e-3
-1.328, 9.024e-3
-1.327, 8.873e-3
-1.326, 8.722e-3
-1.325, 8.574e-3
-1.324, 8.439e-3
-1.323, 8.312e-3
-1.322, 8.180e-3
-1.321, 8.035e-3
-1.320, 7.884e-3
-1.319, 7.739e-3
-1.318, 7.600e-3
-1.317, 7.474e-3
-1.316, 7.347e-3
-1.315, 7.221e-3
-1.314, 7.079e-3
-1.313, 6.934e-3
-1.312, 6.795e-3
-1.311, 6.666e-3
-1.310, 6.546e-3
-1.309, 6.422e-3
-1.308, 6.290e-3
-1.307, 6.154e-3
-1.306, 6.018e-3
-1.305, 5.886e-3
-1.304, 5.766e-3
-1.303, 5.651e-3
-1.302, 5.534e-3
-1.301, 5.405e-3
-1.300, 5.269e-3
-1.299, 5.140e-3
-1.298, 5.016e-3
-1.297, 4.899e-3
-1.296, 4.791e-3
-1.295, 4.674e-3
-1.294, 4.551e-3
-1.293, 4.418e-3
-1.292, 4.295e-3
-1.291, 4.181e-3
-1.290, 4.073e-3
-1.289, 3.965e-3
-1.288, 3.848e-3
-1.287, 3.728e-3
-1.286, 3.601e-3
-1.285, 3.484e-3
-1.284, 3.376e-3
-1.283, 3.278e-3
-1.282, 3.170e-3
-1.281, 3.056e-3
-1.280, 2.929e-3
-1.279, 2.812e-3
-1.278, 2.701e-3
-1.277, 2.602e-3
-1.276, 2.501e-3
-1.275, 2.396e-3
-1.274, 2.282e-3
-1.273, 2.161e-3
-1.272, 2.050e-3
-1.271, 1.949e-3
-1.270, 1.853e-3
-1.269, 1.758e-3
-1.268, 1.656e-3
-1.267, 1.542e-3
-1.266, 1.428e-3
-1.265, 1.323e-3
-1.264, 1.227e-3
-1.263, 1.138e-3
-1.262, 1.045e-3
-1.261, 9.405e-4
-1.260, 8.295e-4
-1.259, 7.247e-4
-1.258, 6.260e-4
-1.257, 5.366e-4
-1.256, 4.503e-4
-1.255, 3.578e-4
-1.254, 2.530e-4
-1.253, 1.481e-4
-1.252, 4.640e-5
-1.251, -4.301e-5
-1.250, -1.293e-4
-1.249, -2.126e-4
-1.248, -3.051e-4
-1.247, -4.037e-4
-1.246, -5.086e-4
-1.245, -6.011e-4
-1.244, -6.874e-4
-1.243, -7.675e-4
-1.242, -8.508e-4
-1.241, -9.433e-4
-1.240, -1.042e-3
-1.239, -1.138e-3
-1.238, -1.227e-3
-1.237, -1.304e-3
-1.236, -1.381e-3
-1.235, -1.464e-3
-1.234, -1.554e-3
-1.233, -1.652e-3
-1.232, -1.742e-3
-1.231, -1.822e-3
-1.230, -1.896e-3
-1.229, -1.970e-3
-1.228, -2.056e-3
-1.227, -2.143e-3
-1.226, -2.235e-3
-1.225, -2.321e-3
-1.224, -2.399e-3
-1.223, -2.466e-3
-1.222, -2.540e-3
-1.221, -2.624e-3
-1.220, -2.713e-3
-1.219, -2.796e-3
-1.218, -2.876e-3
-1.217, -2.947e-3
-1.216, -3.012e-3
-1.215, -3.086e-3
-1.214, -3.169e-3
-1.213, -3.256e-3
-1.212, -3.342e-3
-1.211, -3.413e-3
-1.210, -3.478e-3
-1.209, -3.545e-3
-1.208, -3.616e-3
-1.207, -3.700e-3
-1.206, -3.786e-3
-1.205, -3.863e-3
-1.204, -3.931e-3
-1.203, -3.996e-3
-1.202, -4.060e-3
-1.201, -4.134e-3
-1.200, -4.218e-3
-1.199, -4.298e-3
-1.198, -4.369e-3
-1.197, -4.433e-3
-1.196, -4.492e-3
-1.195, -4.557e-3
-1.194, -4.634e-3
-1.193, -4.714e-3
-1.192, -4.791e-3
-1.191, -4.856e-3
-1.190, -4.914e-3
-1.189, -4.973e-3
-1.188, -5.044e-3
-1.187, -5.118e-3
-1.186, -5.195e-3
-1.185, -5.266e-3
-1.184, -5.327e-3
-1.183, -5.380e-3
-1.182, -5.438e-3
-1.181, -5.509e-3
-1.180, -5.586e-3
-1.179, -5.664e-3
-1.178, -5.728e-3
-1.177, -5.787e-3
-1.176, -5.842e-3
-1.175, -5.904e-3
-1.174, -5.975e-3
-1.173, -6.049e-3
-1.172, -6.123e-3
-1.171, -6.181e-3
-1.170, -6.237e-3
-1.169, -6.292e-3
-1.168, -6.357e-3
-1.167, -6.428e-3
-1.166, -6.502e-3
-1.165, -6.570e-3
-1.164, -6.629e-3
-1.163, -6.678e-3
-1.162, -6.736e-3
-1.161, -6.801e-3
-1.160, -6.875e-3
-1.159, -6.943e-3
-1.158, -7.008e-3
-1.157, -7.063e-3
-1.156, -7.116e-3
-1.155, -7.171e-3
-1.154, -7.239e-3
-1.153, -7.310e-3
-1.152, -7.378e-3
-1.151, -7.439e-3
-1.150, -7.492e-3
-1.149, -7.541e-3
-1.148, -7.609e-3
-1.147, -7.677e-3
-1.146, -7.751e-3
-1.145, -7.816e-3
-1.144, -7.871e-3
-1.143, -7.920e-3
-1.142, -7.976e-3
-1.141, -8.044e-3
-1.140, -8.115e-3
-1.139, -8.186e-3
-1.138, -8.244e-3
-1.137, -8.293e-3
-1.136, -8.340e-3
-1.135, -8.392e-3
-1.134, -8.457e-3
-1.133, -8.528e-3
-1.132, -8.596e-3
-1.131, -8.651e-3
-1.130, -8.697e-3
-1.129, -8.737e-3
-1.128, -8.790e-3
-1.127, -8.851e-3
-1.126, -8.919e-3
-1.125, -8.981e-3
-1.124, -9.033e-3
-1.123, -9.080e-3
-1.122, -9.129e-3
-1.121, -9.191e-3
-1.120, -9.258e-3
-1.119, -9.323e-3
-1.118, -9.379e-3
-1.117, -9.428e-3
-1.116, -9.471e-3
-1.115, -9.524e-3
-1.114, -9.588e-3
-1.113, -9.665e-3
-1.112, -9.730e-3
-1.111, -9.789e-3
-1.110, -9.835e-3
-1.109, -9.884e-3
-1.108, -9.940e-3
-1.107, -1.000e-2
-1.106, -1.007e-2
-1.105, -1.012e-2
-1.104, -1.017e-2
-1.103, -1.022e-2
-1.102, -1.027e-2
-1.101, -1.033e-2
-1.100, -1.040e-2
-1.099, -1.046e-2
-1.098, -1.052e-2
-1.097, -1.057e-2
-1.096, -1.061e-2
-1.095, -1.066e-2
-1.094, -1.073e-2
-1.093, -1.079e-2
-1.092, -1.086e-2
-1.091, -1.091e-2
-1.090, -1.095e-2
-1.089, -1.100e-2
-1.088, -1.105e-2
-1.087, -1.111e-2
-1.086, -1.118e-2
-1.085, -1.123e-2
-1.084, -1.128e-2
-1.083, -1.132e-2
-1.082, -1.137e-2
-1.081, -1.143e-2
-1.080, -1.149e-2
-1.079, -1.155e-2
-1.078, -1.160e-2
-1.077, -1.165e-2
-1.076, -1.169e-2
-1.075, -1.175e-2
-1.074, -1.181e-2
-1.073, -1.187e-2
-1.072, -1.193e-2
-1.071, -1.198e-2
-1.070, -1.202e-2
-1.069, -1.206e-2
-1.068, -1.212e-2
-1.067, -1.217e-2
-1.066, -1.223e-2
-1.065, -1.229e-2
-1.064, -1.233e-2
-1.063, -1.237e-2
-1.062, -1.241e-2
-1.061, -1.246e-2
-1.060, -1.253e-2
-1.059, -1.259e-2
-1.058, -1.264e-2
-1.057, -1.268e-2
-1.056, -1.272e-2
-1.055, -1.277e-2
-1.054, -1.283e-2
-1.053, -1.289e-2
-1.052, -1.295e-2
-1.051, -1.299e-2
-1.050, -1.303e-2
-1.049, -1.307e-2
-1.048, -1.312e-2
-1.047, -1.317e-2
-1.046, -1.323e-2
-1.045, -1.328e-2
-1.044, -1.333e-2
-1.043, -1.337e-2
-1.042, -1.341e-2
-1.041, -1.345e-2
-1.040, -1.351e-2
-1.039, -1.356e-2
-1.038, -1.361e-2
-1.037, -1.364e-2
-1.036, -1.368e-2
-1.035, -1.372e-2
-1.034, -1.377e-2
-1.033, -1.382e-2
-1.032, -1.387e-2
-1.031, -1.391e-2
-1.030, -1.394e-2
-1.029, -1.398e-2
-1.028, -1.402e-2
-1.027, -1.408e-2
-1.026, -1.414e-2
-1.025, -1.419e-2
-1.024, -1.422e-2
-1.023, -1.426e-2
-1.022, -1.429e-2
-1.021, -1.434e-2
-1.020, -1.439e-2
-1.019, -1.444e-2
-1.018, -1.448e-2
-1.017, -1.452e-2
-1.016, -1.455e-2
-1.015, -1.459e-2
-1.014, -1.463e-2
-1.013, -1.469e-2
-1.012, -1.474e-2
-1.011, -1.478e-2
-1.010, -1.481e-2
-1.009, -1.485e-2
-1.008, -1.489e-2
-1.007, -1.494e-2
-1.006, -1.499e-2
-1.005, -1.504e-2
-1.004, -1.507e-2
-1.003, -1.510e-2
-1.002, -1.514e-2
-1.001, -1.519e-2
