Potential V vs RHE, Current mA cm-2
0.4132999999999999,-0.019919135102099715
0.4122999999999999,-0.021645082887935062
0.4112999999999999,-0.02208364339089322
0.4102999999999999,-0.022295850085872978
0.4092999999999999,-0.022493909667854084
0.4082999999999999,-0.022621233684841938
0.4072999999999999,-0.02276270481482844
0.4062999999999999,-0.022890028831816296
0.4052999999999999,-0.022974911509808196
0.4042999999999999,-0.0230880884137974
0.4032999999999999,-0.023144676865792004
0.4022999999999999,-0.023257853769781203
0.4012999999999999,-0.023356883560771757
0.4002999999999999,-0.023427619125765006
0.3992999999999999,-0.02355494314275286
0.3982999999999999,-0.023611531594747465
0.3972999999999999,-0.023696414272739365
0.3962999999999999,-0.023767149837732617
0.3952999999999999,-0.023837885402725866
0.3942999999999999,-0.02393691519371642
0.39329999999999987,-0.02400765075870967
0.39229999999999987,-0.024092533436701577
0.39129999999999987,-0.024149121888696175
0.39029999999999987,-0.024219857453689427
0.38929999999999987,-0.02429059301868268
0.38829999999999987,-0.02436132858367593
0.38729999999999987,-0.024403769922671882
0.38629999999999987,-0.024488652600663786
0.38529999999999986,-0.02457353527865569
0.38429999999999986,-0.024644270843648942
0.38329999999999986,-0.024700859295643543
0.38229999999999986,-0.024771594860636792
0.38129999999999986,-0.024842330425630044
0.38029999999999986,-0.024927213103621948
0.37929999999999986,-0.024969654442617898
0.37829999999999986,-0.0249979486686152
0.37729999999999986,-0.02509697845960575
0.37629999999999986,-0.02515356691160035
0.37529999999999986,-0.025238449589592253
0.37429999999999986,-0.025309185154585506
0.37329999999999985,-0.02535162649358146
0.37229999999999985,-0.02543650917157336
0.37129999999999985,-0.02547895051056931
0.37029999999999985,-0.02553553896256391
0.36929999999999985,-0.025606274527557166
0.36829999999999985,-0.025648715866553113
0.36729999999999985,-0.025719451431546365
0.36629999999999985,-0.02577603988354097
0.36529999999999985,-0.02587506967453152
0.36429999999999985,-0.02594580523952477
0.36329999999999985,-0.02600239369151937
0.36229999999999984,-0.026073129256512624
0.36129999999999984,-0.02612971770850723
0.36029999999999984,-0.026172159047503182
0.35929999999999984,-0.02624289461249643
0.35829999999999984,-0.02627118883849373
0.35729999999999984,-0.026341924403486983
0.35629999999999984,-0.026426807081478886
0.35529999999999984,-0.026469248420474833
0.35429999999999984,-0.02656827821146539
0.35329999999999984,-0.02661071955046134
0.35229999999999984,-0.02665316088945729
0.35129999999999983,-0.026709749341451892
0.35029999999999983,-0.026752190680447843
0.34929999999999983,-0.026837073358439746
0.34829999999999983,-0.026893661810434347
0.34729999999999983,-0.0269643973754276
0.34629999999999983,-0.0270209858274222
0.34529999999999983,-0.0270775742794168
0.34429999999999983,-0.027120015618412752
0.3432999999999998,-0.027176604070407354
0.3422999999999998,-0.027219045409403307
0.3412999999999998,-0.02727563386139791
0.3402999999999998,-0.027332222313392506
0.3392999999999998,-0.02738881076538711
0.3382999999999998,-0.027445399217381712
0.3372999999999998,-0.027530281895373616
0.3362999999999998,-0.02755857612137091
0.3352999999999998,-0.02764345879936281
0.3342999999999998,-0.02768590013835877
0.3332999999999998,-0.027714194364356067
0.3322999999999998,-0.027784929929349323
0.3312999999999998,-0.027841518381343924
0.3302999999999998,-0.027912253946337173
0.3292999999999998,-0.027982989511330426
0.3282999999999998,-0.02802543085032638
0.3272999999999998,-0.028082019302320977
0.3262999999999998,-0.02811031352831828
0.3252999999999999,-0.02819519620631018
0.3242999999999999,-0.028251784658304784
0.3232999999999999,-0.028280078884302083
0.3222999999999999,-0.028364961562293983
0.3212999999999999,-0.028421550014288588
0.3202999999999999,-0.028449844240285887
0.3192999999999999,-0.02852057980527914
0.3182999999999999,-0.02854887403127644
0.3172999999999999,-0.028647903822266993
0.3162999999999999,-0.028718639387260245
0.3152999999999999,-0.028761080726256192
0.3142999999999999,-0.028789374952253494
0.3132999999999999,-0.028831816291249444
0.3122999999999999,-0.028874257630245398
0.3112999999999999,-0.02894499319523865
0.3102999999999999,-0.029001581647233248
0.3092999999999999,-0.029086464325225152
0.3082999999999999,-0.02912890566422111
0.3072999999999999,-0.029199641229214358
0.3062999999999999,-0.029242082568210308
0.3052999999999999,-0.029298671020204912
0.3042999999999999,-0.029326965246202208
0.3032999999999999,-0.029383553698196813
0.3022999999999999,-0.029425995037192763
0.3012999999999999,-0.02946843637618871
0.3002999999999999,-0.029567466167179264
0.2992999999999999,-0.029609907506175218
0.2982999999999999,-0.029652348845171168
0.2972999999999999,-0.02970893729716577
0.2962999999999999,-0.029751378636161722
0.2952999999999999,-0.02982211420115497
0.2942999999999999,-0.029850408427152274
0.2932999999999999,-0.029906996879146875
0.2922999999999999,-0.029963585331141473
0.2912999999999999,-0.03000602667013743
0.2902999999999999,-0.03006261512213203
0.2892999999999999,-0.03011920357412663
0.2882999999999999,-0.03014749780012393
0.2872999999999999,-0.030218233365117184
0.2862999999999999,-0.030260674704113137
0.2852999999999999,-0.030317263156107735
0.2842999999999999,-0.030373851608102336
0.2832999999999999,-0.03040214583409964
0.2822999999999999,-0.030458734286094236
0.2812999999999999,-0.03051532273808884
0.2802999999999999,-0.03055776407708479
0.2792999999999999,-0.030628499642078044
0.2782999999999999,-0.030670940981073994
0.2772999999999999,-0.030741676546067253
0.2762999999999999,-0.030812412111060502
0.2752999999999999,-0.03085485345005645
0.2742999999999999,-0.030897294789052406
0.2732999999999999,-0.030939736128048352
0.2722999999999999,-0.03099632458004295
0.2712999999999999,-0.031081207258034853
0.2702999999999999,-0.03110950148403216
0.2692999999999999,-0.031180237049025412
0.26829999999999987,-0.031222678388021355
0.26729999999999987,-0.03123682550102001
0.26629999999999987,-0.03129341395301461
0.26529999999999987,-0.03136414951800787
0.26429999999999987,-0.03140659085700381
0.26329999999999987,-0.03144903219599977
0.26229999999999987,-0.031505620647994365
0.26129999999999987,-0.03156220909998896
0.26029999999999986,-0.03163294466498222
0.25929999999999986,-0.03166123889097952
0.25829999999999986,-0.03171782734297412
0.25729999999999986,-0.03177441579496872
0.25629999999999986,-0.031802710020966025
0.25529999999999986,-0.03185929847296063
0.25429999999999986,-0.03191588692495523
0.25329999999999986,-0.031972475376949826
0.25229999999999986,-0.03204321094194308
0.25129999999999986,-0.032071505167940384
0.25029999999999986,-0.03211394650693633
0.24929999999999986,-0.032156387845932284
0.24829999999999985,-0.032184682071929586
0.24729999999999985,-0.032255417636922835
0.24629999999999985,-0.03229785897591879
0.24529999999999985,-0.03239688876690934
0.24429999999999985,-0.032453477218903945
0.24329999999999985,-0.03248177144490124
0.24229999999999985,-0.032538359896895845
0.24129999999999985,-0.032552507009894496
0.24029999999999985,-0.03259494834889044
0.23929999999999985,-0.0326656839138837
0.23829999999999985,-0.032708125252879645
0.23729999999999984,-0.0327788608178729
0.23629999999999984,-0.03284959638286615
0.23529999999999984,-0.03287789060886345
0.23429999999999984,-0.03294862617385671
0.23329999999999984,-0.032976920399854
0.23229999999999984,-0.03303350885184861
0.23129999999999984,-0.033090097303843206
0.23029999999999984,-0.03313253864283916
0.22929999999999984,-0.03318912709483376
0.22829999999999984,-0.03323156843382971
0.22729999999999984,-0.033288156885824316
0.22629999999999983,-0.033344745337818914
0.22529999999999983,-0.03340133378981351
0.22429999999999983,-0.03344377512880947
0.22329999999999983,-0.03348621646780542
0.22229999999999983,-0.03355695203279867
0.22129999999999983,-0.03358524625879597
0.22029999999999983,-0.03367012893678788
0.21929999999999983,-0.033726717388782475
0.21829999999999983,-0.03376915872777843
0.21729999999999983,-0.033825747179773026
0.21629999999999983,-0.03388233563176763
0.21529999999999982,-0.033967218309759524
0.21429999999999982,-0.03399551253575683
0.21329999999999982,-0.03403795387475279
0.21229999999999982,-0.034108689439746036
0.21129999999999982,-0.03413698366574334
0.21029999999999982,-0.034193572117737936
0.20929999999999982,-0.03425016056973254
0.20829999999999982,-0.03429260190872849
0.20729999999999982,-0.034391631699719045
0.20629999999999982,-0.03441992592571634
0.20529999999999982,-0.034462367264712294
0.20429999999999982,-0.03451895571670689
0.20329999999999981,-0.03453310282970555
0.2022999999999998,-0.034617985507697444
0.2012999999999998,-0.03467457395969205
0.20029999999999992,-0.034717015298688
0.19929999999999992,-0.0347736037506826
0.19829999999999992,-0.03480189797667991
0.19729999999999992,-0.03487263354167316
0.19629999999999992,-0.03494336910666641
0.19529999999999992,-0.0349716633326637
0.19429999999999992,-0.03508484023665291
0.19329999999999992,-0.03514142868864751
0.19229999999999992,-0.03514142868864751
0.19129999999999991,-0.035198017140642114
0.1902999999999999,-0.03524045847963807
0.1892999999999999,-0.035297046931632665
0.1882999999999999,-0.03533948827062862
0.1872999999999999,-0.03539607672262322
0.1862999999999999,-0.03542437094862052
0.1852999999999999,-0.03545266517461782
0.1842999999999999,-0.035509253626612426
0.1832999999999999,-0.035565842078607024
0.1822999999999999,-0.03560828341760297
0.1812999999999999,-0.03569316609559487
0.1802999999999999,-0.035749754547589475
0.1792999999999999,-0.03580634299958408
0.1782999999999999,-0.03584878433858003
0.1772999999999999,-0.03593366701657193
0.1762999999999999,-0.035947814129570585
0.1752999999999999,-0.036018549694563834
0.1742999999999999,-0.03606099103355979
0.1732999999999999,-0.036103432372555734
0.1722999999999999,-0.036188315050547634
0.1712999999999999,-0.036216609276544943
0.1702999999999999,-0.03631563906753549
0.1692999999999999,-0.03635808040653144
0.1682999999999999,-0.03641466885852604
0.1672999999999999,-0.036471257310520644
0.1662999999999999,-0.03652784576251525
0.1652999999999999,-0.036584434214509846
0.1642999999999999,-0.03666931689250175
0.1632999999999999,-0.036768346683492305
0.1622999999999999,-0.0368249351354869
0.1612999999999999,-0.03693811203947611
0.1602999999999999,-0.03700884760446936
0.1592999999999999,-0.03705128894346531
0.15829999999999989,-0.03706543605646396
0.15729999999999988,-0.03709373028246127
0.15629999999999988,-0.037150318734455866
0.15529999999999988,-0.037221054299449115
0.15429999999999988,-0.037305936977441015
0.15329999999999988,-0.037221054299449115
0.15229999999999988,-0.03726349563844507
0.15129999999999988,-0.03733423120343832
0.15029999999999988,-0.03737667254243427
0.14929999999999988,-0.037461555220426164
0.14829999999999988,-0.037518143672420776
0.14729999999999988,-0.03756058501141672
0.14629999999999987,-0.03761717346341132
0.14529999999999987,-0.03765961480240728
0.14429999999999987,-0.03771620325440188
0.14329999999999987,-0.03778693881939513
0.14229999999999987,-0.037871821497387034
0.14129999999999987,-0.03791426283638299
0.14029999999999987,-0.03798499840137624
0.13929999999999987,-0.038041586853370835
0.13829999999999987,-0.03808402819236679
0.13729999999999987,-0.038126469531362735
0.13629999999999987,-0.03816891087035869
0.13529999999999986,-0.03825379354835059
0.13429999999999986,-0.0383103820003452
0.13329999999999986,-0.03835282333934115
0.13229999999999986,-0.03843770601733305
0.13129999999999986,-0.0384518531303317
0.13029999999999986,-0.0385367358083236
0.12929999999999986,-0.03857917714731955
0.12829999999999986,-0.038621618486315505
0.12729999999999986,-0.03872064827730605
0.12629999999999986,-0.03874894250330335
0.12529999999999986,-0.03880553095529796
0.12429999999999986,-0.03886211940729256
0.12329999999999985,-0.03887626652029121
0.12229999999999985,-0.03894700208528446
0.12129999999999985,-0.03901773765027772
0.12029999999999985,-0.039088473215270966
0.11929999999999985,-0.039159208780264215
0.11829999999999985,-0.03921579723225881
0.11729999999999985,-0.03930067991025072
0.11629999999999985,-0.03937141547524397
0.11529999999999985,-0.03938556258824262
0.11429999999999985,-0.039456298153235876
0.11329999999999985,-0.03948459237923317
0.11229999999999984,-0.03954118083122777
0.11129999999999984,-0.03965435773521698
0.11029999999999984,-0.039682651961214274
0.10929999999999984,-0.03975338752620753
0.10829999999999984,-0.039824123091200786
0.10729999999999984,-0.03988071154319539
0.10629999999999984,-0.039894858656194035
0.10529999999999984,-0.03993729999518999
0.10429999999999984,-0.03999388844718459
0.10329999999999984,-0.04003632978618053
0.10229999999999984,-0.04012121246417244
0.10129999999999983,-0.04019194802916569
0.10029999999999983,-0.040276830707157596
0.09929999999999983,-0.040333419159152194
0.09829999999999983,-0.040361713385149496
0.09729999999999983,-0.04040415472414544
0.09629999999999983,-0.0404465960631414
0.09529999999999983,-0.040531478741133296
0.09429999999999983,-0.04058806719312791
0.09329999999999983,-0.040630508532123855
0.09229999999999983,-0.04074368543611305
0.09129999999999983,-0.04078612677510901
0.09029999999999982,-0.04082856811410496
0.08929999999999982,-0.040899303679098206
0.08829999999999982,-0.04097003924409146
0.08729999999999982,-0.04105492192208336
0.08629999999999982,-0.04106906903508201
0.08529999999999982,-0.04112565748707661
0.08429999999999982,-0.04121054016506852
0.08329999999999982,-0.041238834391065814
0.08229999999999982,-0.04133786418205637
0.08129999999999982,-0.04140859974704963
0.08029999999999982,-0.04147933531204288
0.07929999999999982,-0.04156421799003478
0.07829999999999981,-0.04159251221603208
0.07729999999999981,-0.04163495355502803
0.07629999999999981,-0.04171983623301993
0.07529999999999992,-0.04177642468501453
0.07429999999999992,-0.041818866024010484
0.07329999999999992,-0.04190374870200239
0.07229999999999992,-0.041988631379994285
0.07129999999999992,-0.04204521983198889
0.07029999999999992,-0.04207351405798619
0.06929999999999992,-0.04214424962297945
0.06829999999999992,-0.042214985187972696
0.06729999999999992,-0.04225742652696864
0.06629999999999991,-0.04232816209196189
0.06529999999999991,-0.0424130447699538
0.06429999999999991,-0.0424696332219484
0.06329999999999991,-0.042526221673943
0.06229999999999991,-0.042568663012938955
0.06129999999999991,-0.042639398577932204
0.06029999999999991,-0.04271013414292545
0.05929999999999991,-0.042780869707918716
0.05829999999999991,-0.042851605272911965
0.05729999999999991,-0.042936487950903865
0.056299999999999906,-0.04297892928989981
0.055299999999999905,-0.04304966485489307
0.054299999999999904,-0.043120400419886316
0.0532999999999999,-0.04316284175888227
0.0522999999999999,-0.04323357732387552
0.0512999999999999,-0.04327601866287147
0.0502999999999999,-0.04337504845386203
0.0492999999999999,-0.043474078244852575
0.0482999999999999,-0.04351651958384853
0.0472999999999999,-0.04357310803584313
0.0462999999999999,-0.04362969648783773
0.045299999999999896,-0.04367213782683368
0.044299999999999895,-0.043771167617824236
0.043299999999999894,-0.043827756069818834
0.04229999999999989,-0.04392678586080939
0.04129999999999989,-0.04398337431280399
0.04029999999999989,-0.04409655121679319
0.03929999999999989,-0.0441531396687878
0.03829999999999989,-0.04419558100778375
0.03729999999999989,-0.04428046368577565
0.03629999999999989,-0.04433705213777025
0.03529999999999989,-0.0444077877027635
0.034299999999999886,-0.04447852326775675
0.033299999999999885,-0.04453511171975136
0.032299999999999884,-0.04461999439774326
0.031299999999999883,-0.04471902418873381
0.030299999999999883,-0.044775612640728414
0.02929999999999988,-0.04483220109272301
0.02829999999999988,-0.04491708377071492
0.02729999999999988,-0.04500196644870682
0.02629999999999988,-0.045115143352696015
0.025299999999999878,-0.04521417314368657
0.024299999999999877,-0.045242467369683875
0.023299999999999876,-0.04528490870867982
0.022299999999999875,-0.04535564427367308
0.021299999999999875,-0.04542637983866633
0.020299999999999874,-0.04548296829066093
0.019299999999999873,-0.04556785096865284
0.018299999999999872,-0.045624439420647436
0.01729999999999987,-0.04572346921163799
0.01629999999999987,-0.045765910550633934
0.01529999999999987,-0.04585079322862584
0.014299999999999868,-0.04592152879361909
0.013299999999999867,-0.04597811724561369
0.012299999999999978,-0.046062999923605595
0.011299999999999866,-0.04610544126260154
0.010299999999999976,-0.0462044710535921
0.009299999999999864,-0.046303500844582644
0.008299999999999974,-0.046360089296577256
0.007299999999999862,-0.04647326620056645
0.006299999999999972,-0.0465440017655597
0.00529999999999986,-0.046614737330552956
0.0042999999999999705,-0.046713767121543515
0.0032999999999998586,-0.046784502686536764
0.0022999999999999687,-0.046897679590525966
0.0012999999999998568,-0.046883532477527315
0.00029999999999996696,-0.04701085649451517
-0.000700000000000145,-0.04718062185049897
-0.0017000000000000348,-0.04715232762450167
-0.0027000000000001467,-0.047237210302493574
-0.0037000000000000366,-0.04730794586748682
-0.0047000000000001485,-0.04736453431948143
-0.005700000000000038,-0.04746356411047198
-0.00670000000000015,-0.04750600544946793
-0.00770000000000004,-0.04756259390146254
-0.008700000000000152,-0.047633329466455786
-0.009700000000000042,-0.04767577080545173
-0.010700000000000154,-0.04781724193543824
-0.011700000000000044,-0.04787383038743284
-0.012700000000000156,-0.04794456595242609
-0.013700000000000045,-0.048001154404420696
-0.014700000000000157,-0.04804359574341665
-0.015700000000000047,-0.0481143313084099
-0.01670000000000016,-0.048185066873403154
-0.01770000000000005,-0.0482558024383964
-0.01870000000000016,-0.04835483222938696
-0.01970000000000005,-0.04846800913337616
-0.020700000000000163,-0.0485104504723721
-0.021700000000000053,-0.04852459758537076
-0.022700000000000164,-0.048538744698369406
-0.023700000000000054,-0.04862362737636131
-0.024700000000000166,-0.04870851005435321
-0.025700000000000056,-0.048750951393349166
-0.026700000000000168,-0.048821686958342415
-0.027700000000000058,-0.04890656963633432
-0.02870000000000017,-0.04899145231432622
-0.02970000000000006,-0.04907633499231812
-0.03070000000000017,-0.04914707055731138
-0.03170000000000006,-0.049175364783308674
-0.03270000000000017,-0.04921780612230463
-0.03370000000000006,-0.049288541687297883
-0.034700000000000175,-0.04935927725229113
-0.035700000000000065,-0.049472454156280335
-0.03670000000000018,-0.049543189721273584
-0.03770000000000007,-0.04961392528626684
-0.03870000000000018,-0.04965636662526278
-0.03970000000000007,-0.04971295507725739
-0.04070000000000018,-0.04978369064225065
-0.04170000000000007,-0.049826131981246594
-0.04270000000000018,-0.049925161772237145
-0.04370000000000007,-0.050010044450229045
-0.044700000000000184,-0.050052485789225
-0.045700000000000074,-0.0501656626932142
-0.046700000000000186,-0.050208104032210155
-0.047700000000000076,-0.05027883959720341
-0.04870000000000019,-0.05032128093619936
-0.04970000000000008,-0.050392016501192606
-0.05070000000000019,-0.050476899179184506
-0.05170000000000008,-0.05057592897017506
-0.05270000000000019,-0.05063251742216966
-0.05370000000000008,-0.05070325298716292
-0.05470000000000019,-0.050731547213160214
-0.05570000000000008,-0.05081642989115212
-0.056700000000000195,-0.05085887123014807
-0.057700000000000085,-0.05095790102113862
-0.058700000000000196,-0.051028636586131874
-0.059700000000000086,-0.05108522503812647
-0.0607000000000002,-0.051141813490121084
-0.06170000000000009,-0.05124084328111162
-0.0627000000000002,-0.051311578846104884
-0.06370000000000009,-0.05133987307210218
-0.0647000000000002,-0.05143890286309273
-0.06570000000000009,-0.05152378554108464
-0.0667000000000002,-0.051580373993079236
-0.0677000000000001,-0.05167940378406979
