Potential V vs RHE, Current mA cm-2
0.013299999999999867,7.892674341947039
0.012299999999999978,5.798901618146785
0.011299999999999866,3.922994434525747
0.010299999999999976,2.178655401792157
0.009299999999999864,0.4776065348344364
0.008299999999999974,-1.0490084288499246
0.007299999999999862,-2.618630616050183
0.006299999999999972,-3.971094618721158
0.00529999999999986,-5.279702571096316
0.0042999999999999705,-6.458157083883892
0.0032999999999998586,-7.635196885371603
0.0022999999999999687,-8.725939297567548
0.0012999999999998568,-9.772825659467674
0.00029999999999996696,-10.731999920776168
-0.000700000000000145,-11.73503023238048
-0.0017000000000000348,-12.73806054398479
-0.0027000000000001467,-13.698649516593148
-0.0037000000000000366,-14.69885040559773
-0.0047000000000001485,-15.74573676749786
-0.005700000000000038,-16.750181790402035
-0.00670000000000015,-17.71218547431026
-0.00770000000000004,-18.759071836210385
-0.008700000000000152,-19.678634181122664
-0.009700000000000042,-20.541608074040333
-0.010700000000000154,-21.376287740960702
-0.011700000000000044,-22.253408746877028
-0.012700000000000156,-22.989058622806844
-0.013700000000000045,-23.724708498736668
-0.014700000000000157,-24.432064148669184
-0.015700000000000047,-25.210155363594954
-0.01670000000000016,-25.959952352523427
-0.01770000000000005,-26.738043567449193
-0.01870000000000016,-27.530281895373616
-0.01970000000000005,-28.350814449295335
-0.020700000000000163,-29.22793545521166
-0.021700000000000053,-30.00602667013743
-0.022700000000000164,-30.925589015049702
-0.023700000000000054,-31.661238890979522
-0.024700000000000166,-32.53835989689585
-0.025700000000000056,-33.18912709483376
-0.026700000000000168,-33.93892408376223
-0.027700000000000058,-34.58969128170015
-0.02870000000000017,-35.240458479638065
-0.02970000000000006,-35.848784338580025
-0.03070000000000017,-36.55613998851254
-0.03170000000000006,-37.206907186450465
-0.03270000000000017,-37.94255706238028
-0.03370000000000006,-38.6499127123128
-0.034700000000000175,-39.42800392723857
-0.035700000000000065,-40.220242255162994
-0.03670000000000018,-41.04077480908471
-0.03770000000000007,-41.87545447600508
-0.03870000000000018,-42.653545690930855
-0.03970000000000007,-43.40334267985933
-0.04070000000000018,-44.096551216793195
-0.04170000000000007,-44.80390686672572
-0.04270000000000018,-45.45467406466363
-0.04370000000000007,-46.10544126260155
-0.044700000000000184,-46.713767121543505
-0.045700000000000074,-47.40697565847737
-0.046700000000000186,-48.114331308409895
-0.047700000000000076,-48.80753984534376
-0.04870000000000019,-49.557336834272235
-0.04970000000000008,-50.37786938819396
-0.05070000000000019,-51.17010771611838
-0.05170000000000008,-51.990640270040096
-0.05270000000000019,-52.86776127595642
-0.05370000000000008,-53.603411151886235
-0.05470000000000019,-54.480532157802564
-0.05570000000000008,-55.17374069473642
-0.056700000000000195,-55.9235376836649
-0.057700000000000085,-56.61674622059877
-0.058700000000000196,-57.30995475753264
-0.059700000000000086,-57.974869068469204
-0.0607000000000002,-58.71051894439902
-0.06170000000000009,-59.44616882032884
-0.0627000000000002,-60.19596580925731
-0.06370000000000009,-61.01649836317903
-0.0647000000000002,-61.89361936909536
-0.06570000000000009,-62.72829903601572
-0.0667000000000002,-63.633714267929356
-0.0677000000000001,-64.55327661284163
-0.0687000000000002,-65.43039761875795
-0.0697000000000001,-66.25093017267966
-0.07070000000000021,-67.00072716160814
-0.0717000000000001,-67.73637703753796
-0.07270000000000021,-68.48617402646643
-0.0737000000000001,-69.22182390239624
-0.07470000000000021,-69.87259110033416
-0.0757000000000001,-70.66482942825859
-0.07670000000000021,-71.4004793041884
-0.0777000000000001,-72.19271763211282
-0.07870000000000021,-73.0556915250305
-0.0797000000000001,-73.93281253094682
-0.08070000000000022,-74.8523748758591
-0.0817000000000001,-75.77193722077136
-0.08270000000000022,-76.67735245268499
-0.08370000000000011,-77.59691479759726
-0.08470000000000022,-78.47403580351359
-0.08570000000000011,-79.2945683574353
-0.08670000000000022,-80.12924802435568
-0.08770000000000011,-80.9497805782774
-0.08870000000000022,-81.74201890620182
-0.08970000000000011,-82.43522744313569
-0.09070000000000022,-83.26990711005605
-0.09170000000000011,-84.04799832498183
-0.09270000000000023,-84.84023665290624
-0.09370000000000012,-85.70321054582392
-0.09470000000000023,-86.6227728907362
-0.09570000000000012,-87.49989389665252
-0.09670000000000023,-88.4194562415648
-0.09770000000000012,-89.36731281247435
-0.09870000000000023,-90.28687515738663
-0.09970000000000012,-91.24887884129487
-0.10070000000000023,-92.08355850821525
-0.10170000000000012,-92.90409106213696
-0.10270000000000024,-93.73877072905732
-0.10370000000000013,-94.5168619439831
-0.10470000000000024,-95.22421759391563
-0.10570000000000013,-96.04475014783733
-0.10670000000000024,-96.83698847576176
-0.10770000000000013,-97.6575210296835
-0.10870000000000024,-98.5346420355998
-0.10970000000000013,-99.45420438051207
-0.11070000000000024,-100.40206095142165
-0.11170000000000013,-101.32162329633393
-0.11270000000000002,-102.3260683192381
-0.11370000000000013,-103.24563066415038
-0.11470000000000002,-104.2076343480586
-0.11570000000000014,-105.02816690198033
-0.11670000000000003,-105.86284656890071
-0.11770000000000014,-106.68337912282242
-0.11870000000000003,-107.47561745074682
-0.11970000000000014,-108.21126732667666
-0.12070000000000003,-109.08838833259297
-0.12170000000000014,-109.9655093385093
-0.12270000000000003,-110.78604189243102
-0.12370000000000014,-111.7056042373433
-0.12470000000000003,-112.62516658225556
-0.12570000000000014,-113.62961160515974
-0.12670000000000003,-114.63405662806393
-0.12770000000000015,-115.62435453796945
-0.12870000000000004,-116.58635822187767
-0.12970000000000015,-117.63324458377778
-0.13070000000000004,-118.46792425069816
-0.13170000000000015,-119.4299279346064
-0.13270000000000004,-120.25046048852812
-0.13370000000000015,-121.0851401554485
-0.13470000000000004,-121.90567270937021
-0.13570000000000015,-122.78279371528653
-0.13670000000000004,-123.70235606019881
-0.13770000000000016,-124.62191840511109
-0.13870000000000005,-125.56977497602065
-0.13970000000000016,-126.5317786599289
-0.14070000000000005,-127.53622368283307
-0.14170000000000016,-128.54066870573723
-0.14270000000000005,-129.58755506763737
-0.14370000000000016,-130.5495587515456
-0.14470000000000005,-131.55400377444977
-0.14570000000000016,-132.37453632837148
-0.14670000000000005,-133.29409867328377
-0.14770000000000016,-134.17121967920008
-0.14870000000000005,-135.03419357211774
-0.14970000000000017,-135.86887323903812
-0.15070000000000006,-136.7884355839504
-0.15170000000000017,-137.56652679887617
-0.15270000000000006,-138.48608914378846
-0.15370000000000017,-139.44809282769666
-0.15470000000000006,-140.41009651160488
-0.15570000000000017,-141.41454153450906
-0.15670000000000006,-142.31995676642268
-0.15770000000000017,-143.3102546763282
-0.15870000000000006,-144.30055258623375
-0.15970000000000018,-145.14937936615277
-0.16070000000000007,-145.9982061460718
-0.16170000000000018,-146.8470329259908
-0.16270000000000007,-147.6958597059098
-0.16370000000000018,-148.54468648582886
-0.16470000000000007,-149.25204213576137
-0.16570000000000018,-150.1008689156804
-0.16670000000000007,-150.94969569559944
-0.16770000000000018,-151.7985224755184
-0.16870000000000007,-152.64734925543743
-0.16970000000000018,-153.63764716534297
-0.17070000000000007,-154.6279450752485
-0.17170000000000019,-155.61824298515404
-0.17270000000000008,-156.75001202504606
-0.1737000000000002,-157.7403099349516
-0.17470000000000008,-158.73060784485713
-0.1757000000000002,-159.57943462477613
-0.17670000000000008,-160.5697325346817
-0.1777000000000002,-161.5600304445872
-0.17870000000000008,-162.40885722450622
-0.1797000000000002,-163.39915513441173
-0.18070000000000008,-164.24798191433075
-0.1817000000000002,-165.2382798242363
-0.18270000000000008,-166.0871066041553
-0.1837000000000002,-167.07740451406085
-0.1847000000000001,-168.06770242396635
-0.1857000000000002,-169.0580003338719
-0.1867000000000001,-170.18976937376394
-0.1877000000000002,-171.18006728366944
-0.1887000000000001,-172.17036519357498
-0.1897000000000002,-173.16066310348046
-0.1907000000000001,-174.0094898833995
-0.1917000000000001,-174.85831666331853
-0.19269999999999998,-175.70714344323756
-0.1937000000000001,-176.55597022315658
-0.19469999999999998,-177.4047970030756
-0.1957000000000001,-178.25362378299462
-0.19669999999999999,-178.96097943292713
-0.1977000000000001,-179.80980621284618
-0.1987,-180.8001041227517
-0.1997000000000001,-181.79040203265723
-0.2007,-182.78069994256273
-0.2017000000000001,-183.62952672248176
-0.2027,-184.47835350240078
-0.2037000000000001,-185.3271802823198
-0.2047,-186.31747819222534
-0.2057000000000001,-186.88336271217133
-0.2067,-187.73218949209036
-0.2077000000000001,-188.4395451420229
-0.2087,-189.1469007919554
-0.2097000000000001,-189.8542564418879
-0.2107,-190.70308322180696
-0.2117000000000001,-191.551910001726
-0.2127,-192.2592656516585
-0.2137000000000001,-193.249563561564
-0.2147,-194.2398614714695
-0.2157000000000001,-195.23015938137505
-0.2167,-196.2204572912806
-0.21770000000000012,-197.21075520118612
-0.2187,-198.05958198110514
-0.21970000000000012,-198.90840876102413
-0.2207,-199.75723554094319
-0.22170000000000012,-200.6060623208622
-0.2227,-201.4548891007812
-0.22370000000000012,-202.16224475071377
-0.2247,-202.86960040064628
-0.22570000000000012,-203.71842718056527
-0.2267,-204.5672539604843
-0.22770000000000012,-205.41608074040332
-0.22870000000000001,-206.26490752032234
-0.22970000000000013,-207.25520543022787
-0.23070000000000002,-208.24550334013338
-0.23170000000000013,-209.0943301200524
-0.23270000000000002,-210.08462802995794
-0.23370000000000013,-210.93345480987696
-0.23470000000000002,-211.782281589796
-0.23570000000000013,-212.48963723972852
-0.23670000000000002,-213.33846401964755
-0.2376999999999999,-214.04581966958003
-0.23870000000000002,-214.61170418952605
-0.2396999999999999,-215.17758870947208
-0.24070000000000003,-215.88494435940459
-0.24169999999999991,-216.59230000933712
-0.24270000000000003,-217.44112678925615
-0.24369999999999992,-218.14848243918865
-0.24470000000000003,-219.13878034909416
-0.24569999999999992,-219.98760712901318
-0.24670000000000003,-220.83643390893224
-0.24769999999999992,-221.82673181883774
-0.24870000000000003,-222.6755585987568
-0.24969999999999992,-223.52438537867582
-0.25070000000000003,-224.2317410286083
-0.2516999999999999,-224.93909667854084
-0.25270000000000004,-225.64645232847332
-0.2536999999999999,-226.21233684841937
-0.25470000000000004,-226.91969249835188
-0.2556999999999999,-227.62704814828442
-0.25670000000000004,-228.33440379821695
-0.25769999999999993,-229.04175944814943
-0.25870000000000004,-229.89058622806846
-0.25969999999999993,-230.59794187800094
-0.26070000000000004,-231.44676865792
-0.26169999999999993,-232.15412430785253
-0.26270000000000004,-233.1444222177581
-0.26369999999999993,-233.85177786769057
-0.26470000000000005,-234.7006046476096
-0.26569999999999994,-235.26648916755556
-0.26670000000000005,-236.1153159474746
-0.26769999999999994,-236.82267159740715
-0.26870000000000005,-237.53002724733966
-0.26969999999999994,-238.2373828972722
-0.27070000000000005,-239.0862096771912
-0.27169999999999994,-239.7935653271237
-0.27270000000000005,-240.50092097705624
-0.27369999999999994,-241.20827662698875
-0.27470000000000006,-242.05710340690777
-0.27569999999999995,-242.90593018682682
-0.27670000000000006,-243.75475696674582
-0.27769999999999995,-244.46211261667833
-0.27870000000000006,-245.31093939659738
-0.27969999999999995,-246.01829504652986
-0.28070000000000006,-246.7256506964624
-0.28169999999999995,-247.4330063463949
-0.28270000000000006,-248.14036199632744
-0.28369999999999995,-248.84771764625998
-0.28470000000000006,-249.41360216620598
-0.28569999999999995,-250.262428946125
-0.28670000000000007,-251.111255726044
-0.28769999999999996,-251.81861137597656
-0.28870000000000007,-252.52596702590907
-0.28969999999999996,-253.37479380582806
-0.29070000000000007,-254.08214945576057
-0.29169999999999996,-254.78950510569314
-0.29270000000000007,-255.49686075562562
-0.29369999999999996,-256.0627452755717
-0.2947000000000001,-256.77010092550415
-0.29569999999999996,-257.4774565754367
-0.2967000000000001,-258.32628335535566
-0.29769999999999996,-259.0336390052882
-0.2987000000000001,-259.7409946552208
-0.29969999999999997,-260.4483503051532
-0.3007000000000001,-261.2971770850723
-0.30169999999999997,-262.1460038649913
-0.3027000000000001,-262.8533595149238
-0.30369999999999997,-263.56071516485633
-0.3047000000000001,-264.2680708147888
-0.30569999999999997,-264.9754264647214
-0.3067000000000001,-265.5413109846674
-0.3077,-266.1071955046134
-0.3087000000000001,-266.8145511545459
-0.3097,-267.6633779344649
-0.3107000000000001,-268.22926245441096
-0.3117,-268.79514697435695
-0.3127000000000001,-269.361031494303
-0.3137,-269.926916014249
-0.3147000000000001,-270.35132940420846
-0.3157,-271.05868505414105
-0.3167000000000001,-271.7660407040736
-0.3177,-272.3319252240195
-0.3187000000000001,-273.03928087395207
-0.3197,-273.7466365238846
-0.3207000000000001,-274.5954633038036
-0.3217,-275.30281895373616
-0.3227000000000001,-276.15164573365513
-0.3237,-276.8590013835877
-0.3247000000000001,-277.4248859035337
-0.3257,-277.9907704234797
-0.3267000000000001,-278.6981260734122
-0.3277,-279.1225394633717
-0.3287000000000001,-279.5469528533313
-0.3297,-279.97136624329073
-0.3307000000000001,-280.5372507632368
-0.3317,-280.9616641531963
-0.3327000000000001,-281.52754867314235
-0.3337,-282.2349043230748
-0.3347000000000001,-282.9422599730073
-0.3357,-283.64961562293985
-0.3367000000000001,-284.35697127287233
-0.3377,-285.0643269228049
-0.3387000000000001,-285.7716825727374
-0.3397,-286.33756709268346
-0.3407000000000001,-286.76198048264297
-0.3417,-287.04492274261594
-0.3427000000000001,-287.46933613257545
-0.3437,-287.893749522535
-0.3447000000000001,-288.3181629124945
-0.3457,-289.02551856242695
-0.3467000000000001,-289.59140308237295
-0.3477,-290.157287602319
-0.3487000000000001,-290.5817009922785
-0.3497,-291.28905664221105
-0.3507000000000001,-291.85494116215705
-0.3517,-292.4208256821031
-0.3527000000000001,-293.1281813320356
-0.3537,-293.6940658519816
-0.3547000000000001,-294.11847924194115
-0.3557,-294.54289263190066
-0.35670000000000013,-294.96730602186017
-0.3577,-295.3917194118196
-0.35870000000000013,-295.67466167179265
-0.3597,-295.9576039317657
-0.36070000000000013,-296.2405461917387
-0.3617,-296.52348845171167
-0.3626999999999999,-296.80643071168464
-0.3637,-297.23084410164427
-0.3646999999999999,-297.6552574916037
-0.3657,-298.07967088156323
-0.3666999999999999,-298.6455554015092
-0.3677,-299.06996879146874
-0.3686999999999999,-299.6358533114148
-0.36970000000000003,-300.2017378313608
-0.3706999999999999,-300.48468009133376
-0.37170000000000003,-300.9090934812933
-0.3726999999999999,-301.33350687125284
-0.37370000000000003,-301.47497800123926
-0.3746999999999999,-301.6164491312258
-0.37570000000000003,-301.8993913911989
-0.3766999999999999,-302.18233365117186
-0.37770000000000004,-302.4652759111449
-0.3786999999999999,-302.74821817111786
-0.37970000000000004,-303.17263156107737
-0.3806999999999999,-303.5970449510368
-0.38170000000000004,-304.1629294709828
-0.38269999999999993,-304.72881399092887
-0.38370000000000004,-305.1532273808884
-0.38469999999999993,-305.71911190083443
-0.38570000000000004,-306.00205416080746
-0.38669999999999993,-304.5873428609424
-0.38570000000000004,-300.06026670137425
-0.38469999999999993,-295.8161328017792
-0.38370000000000004,-291.85494116215705
-0.38269999999999993,-287.893749522535
-0.38170000000000004,-284.2155001428859
-0.3806999999999999,-280.67872189322327
-0.37970000000000004,-277.2834147735472
-0.3786999999999999,-274.0295787838576
-0.37770000000000004,-270.775742794168
-0.3766999999999999,-267.5219068044785
-0.37570000000000003,-264.40954194477536
-0.3746999999999999,-261.2971770850723
-0.37370000000000003,-258.32628335535566
-0.3726999999999999,-255.21391849565262
-0.37170000000000003,-252.243024765936
-0.3706999999999999,-249.2721310362195
-0.36970000000000003,-246.15976617651637
-0.3686999999999999,-243.04740131681334
-0.3677,-240.21797871708318
-0.3666999999999999,-237.10561385738015
-0.3657,-234.27619125765005
-0.3646999999999999,-231.5882397879065
-0.3637,-228.90028831816295
-0.3626999999999999,-226.35380797840588
-0.3617,-223.6658565086623
-0.36070000000000013,-221.26084729889175
-0.3597,-218.71436695913465
-0.35870000000000013,-216.3093577493641
-0.3577,-213.62140627962054
-0.35670000000000013,-211.07492593986345
-0.3557,-208.52844560010638
-0.3547000000000001,-205.98196526034934
-0.3537,-203.43548492059227
-0.3527000000000001,-200.88900458083523
-0.3517,-198.48399537106465
-0.3507000000000001,-195.93751503130758
-0.3497,-193.532505821537
-0.3487000000000001,-191.268967741753
-0.3477,-189.0054296619689
-0.3467000000000001,-186.74189158218485
-0.3457,-184.6198246323873
-0.3447000000000001,-182.35628655260325
-0.3437,-180.23421960280567
-0.3427000000000001,-177.9706815230216
-0.3417,-175.84861457322407
-0.3407000000000001,-173.44360536345349
-0.3397,-171.32153841365593
-0.3387000000000001,-169.0580003338719
-0.3377,-166.79446225408785
-0.3367000000000001,-164.67239530429026
-0.3357,-162.40885722450622
-0.3347000000000001,-160.28679027470866
-0.3337,-158.3061944548976
-0.3327000000000001,-156.18412750510007
-0.3317,-154.203531685289
-0.3307000000000001,-152.36440699546444
-0.3297,-150.38381117565342
-0.3287000000000001,-148.40321535584232
-0.3277,-146.4226195360313
-0.3267000000000001,-144.44202371622026
-0.3257,-142.4614278964092
-0.3247000000000001,-140.325213833613
-0.3237,-138.23144110981272
-0.3227000000000001,-136.30743374199628
-0.3217,-134.29854369618792
-0.3207000000000001,-132.37453632837148
-0.3197,-130.46467607355368
-0.3187000000000001,-128.5831100447332
-0.3177,-126.84301514589919
-0.3167000000000001,-125.10292024706521
-0.3157,-123.34867823523254
-0.3147000000000001,-121.56614199740261
-0.3137,-119.81189998556997
-0.3127000000000001,-117.94448106974811
-0.3117,-116.14779771891952
-0.3107000000000001,-114.3228201420936
-0.3097,-112.58272524325962
-0.3087000000000001,-110.70115921443913
-0.3077,-109.00350565460108
-0.3067000000000001,-107.20682230377247
-0.30569999999999997,-105.5516100829304
-0.3047000000000001,-103.85395652309235
-0.30369999999999997,-102.28362698024215
-0.3027000000000001,-100.670856098396
-0.30169999999999997,-99.10052655554581
-0.3007000000000001,-97.53019701269562
-0.29969999999999997,-95.95986746984543
-0.2987000000000001,-94.38953792699526
-0.29769999999999996,-92.64944302816124
-0.2967000000000001,-90.99423080731917
-0.29569999999999996,-89.32487147347842
-0.2947000000000001,-87.62721791364037
-0.29369999999999996,-85.92956435380233
-0.29270000000000007,-84.35923481095215
-0.29169999999999996,-82.746463929106
-0.29070000000000007,-81.21857572525175
-0.28969999999999996,-79.69068752139752
-0.28870000000000007,-78.24768199553519
-0.28769999999999996,-76.81882358267148
-0.28670000000000007,-75.37581805680915
-0.28569999999999995,-74.0176952089387
-0.28470000000000006,-72.63127813507097
-0.28369999999999995,-71.2307139482046
-0.28270000000000006,-69.74526708334632
-0.28169999999999995,-68.25982021848802
-0.28070000000000006,-66.73193201463377
-0.27969999999999995,-65.2464851497755
-0.27870000000000006,-63.633714267929356
-0.27769999999999995,-62.20485585506566
-0.27670000000000006,-60.761850329203334
-0.27569999999999995,-59.31884480334099
-0.27470000000000006,-57.974869068469204
-0.27369999999999994,-56.65918755959472
-0.27270000000000005,-55.357653163718886
-0.27169999999999994,-54.08441299384035
-0.27070000000000005,-52.86776127595642
-0.26969999999999994,-51.594521106077885
-0.26870000000000005,-50.335428049198
-0.26769999999999994,-48.93486386233162
