Potential V vs RHE, Current mA cm-2
0.013299999999999867,1.219056727093702
0.012299999999999978,-0.7001406223032067
0.011299999999999866,-2.1828995356917518
0.010299999999999976,-3.403795387475278
0.009299999999999864,-4.450681749375406
0.008299999999999974,-5.323558621392133
0.007299999999999862,-6.021011292225596
0.006299999999999972,-6.6760226240631075
0.00529999999999986,-7.243321855308987
0.0042999999999999705,-7.853062425550818
0.0032999999999998586,-8.376505606500881
0.0022999999999999687,-8.899948787450944
0.0012999999999998568,-9.379535918105192
0.00029999999999996696,-9.728969609171857
-0.000700000000000145,-10.120844639234473
-0.0017000000000000348,-10.42642228000532
-0.0027000000000001467,-10.688143870480351
-0.0037000000000000366,-11.037577561547016
-0.0047000000000001485,-11.385596541313816
-0.005700000000000038,-11.691174182084664
-0.00670000000000015,-11.996751822855511
-0.00770000000000004,-12.258473413330542
-0.008700000000000152,-12.476338953509758
-0.009700000000000042,-12.651763154693022
-0.010700000000000154,-12.825772644576423
-0.011700000000000044,-13.043638184755638
-0.012700000000000156,-13.261503724934855
-0.013700000000000045,-13.523225315409885
-0.014700000000000157,-13.784946905884919
-0.015700000000000047,-14.002812446064135
-0.01670000000000016,-14.13438059695158
-0.01770000000000005,-14.30273124163552
-0.01870000000000016,-14.401761032626075
-0.01970000000000005,-14.529085049613924
-0.020700000000000163,-14.69885040559773
-0.021700000000000053,-14.925204213576137
-0.022700000000000164,-15.137410908555893
-0.023700000000000054,-15.264734925543747
-0.024700000000000166,-15.448647394526201
-0.025700000000000056,-15.533530072518102
-0.026700000000000168,-15.618412750510005
-0.027700000000000058,-15.74573676749786
-0.02870000000000017,-15.830619445489761
-0.02970000000000006,-16.014531914472215
-0.03070000000000017,-16.184297270456018
-0.03170000000000006,-16.354062626439823
-0.03270000000000017,-16.495533756426326
-0.03370000000000006,-16.580416434418233
-0.034700000000000175,-16.665299112410132
-0.035700000000000065,-16.750181790402035
-0.03670000000000018,-16.835064468393938
-0.03770000000000007,-16.962388485381787
-0.03870000000000018,-17.146300954364243
-0.03970000000000007,-17.231183632356142
-0.04070000000000018,-17.358507649344002
-0.04170000000000007,-17.40094898833995
-0.04270000000000018,-17.48583166633185
-0.04370000000000007,-17.584861457322408
-0.044700000000000184,-17.669744135314307
-0.045700000000000074,-17.797068152302163
-0.046700000000000186,-17.966833508285966
-0.047700000000000076,-18.10830463827247
-0.04870000000000019,-18.23562865526032
-0.04970000000000008,-18.362952672248177
-0.05070000000000019,-18.40539401124413
-0.05170000000000008,-18.44783535024008
-0.05270000000000019,-18.49027668923603
-0.05370000000000008,-18.589306480226583
-0.05470000000000019,-18.716630497214435
-0.05570000000000008,-18.843954514202288
-0.056700000000000195,-18.97127853119014
-0.057700000000000085,-19.056161209182044
-0.058700000000000196,-19.112749661176647
-0.059700000000000086,-19.155191000172596
-0.0607000000000002,-19.197632339168546
-0.06170000000000009,-19.28251501716045
-0.0627000000000002,-19.367397695152352
-0.06370000000000009,-19.452280373144255
-0.0647000000000002,-19.579604390132108
-0.06570000000000009,-19.678634181122664
-0.0667000000000002,-19.763516859114564
-0.0677000000000001,-19.763516859114564
-0.0687000000000002,-19.848399537106463
-0.0697000000000001,-19.890840876102416
-0.07070000000000021,-19.97572355409432
-0.0717000000000001,-20.10304757108217
-0.07270000000000021,-20.244518701068674
-0.0737000000000001,-20.371842718056527
-0.07470000000000021,-20.414284057052477
-0.0757000000000001,-20.456725396048434
-0.07670000000000021,-20.456725396048434
-0.0777000000000001,-20.499166735044383
-0.07870000000000021,-20.541608074040333
-0.0797000000000001,-20.626490752032236
-0.08070000000000022,-20.72552054302279
-0.0817000000000001,-20.85284456001064
-0.08270000000000022,-20.89528589900659
-0.08370000000000011,-20.93772723800254
-0.08470000000000022,-20.93772723800254
-0.08570000000000011,-20.93772723800254
-0.08670000000000022,-20.980168576998494
-0.08770000000000011,-21.022609915994444
-0.08870000000000022,-21.107492593986347
-0.08970000000000011,-21.2065223849769
-0.09070000000000022,-21.291405062968803
-0.09170000000000011,-21.291405062968803
-0.09270000000000023,-21.333846401964752
-0.09370000000000012,-21.291405062968803
-0.09470000000000023,-21.333846401964752
-0.09570000000000012,-21.376287740960702
-0.09670000000000023,-21.461170418952605
-0.09770000000000012,-21.54605309694451
-0.09870000000000023,-21.63093577493641
-0.09970000000000012,-21.67337711393236
-0.10070000000000023,-21.67337711393236
-0.10170000000000012,-21.67337711393236
-0.10270000000000024,-21.67337711393236
-0.10370000000000013,-21.729965565926964
-0.10470000000000024,-21.814848243918867
-0.10570000000000013,-21.899730921910766
-0.10670000000000024,-21.94217226090672
-0.10770000000000013,-22.027054938898623
-0.10870000000000024,-21.98461359990267
-0.10970000000000013,-21.98461359990267
-0.11070000000000024,-21.98461359990267
-0.11170000000000013,-21.98461359990267
-0.11270000000000002,-22.069496277894572
-0.11370000000000013,-22.15437895588647
-0.11470000000000002,-22.15437895588647
-0.11570000000000014,-22.196820294882425
-0.11670000000000003,-22.196820294882425
-0.11770000000000014,-22.196820294882425
-0.11870000000000003,-22.15437895588647
-0.11970000000000014,-22.15437895588647
-0.12070000000000003,-22.196820294882425
-0.12170000000000014,-22.295850085872978
-0.12270000000000003,-22.33829142486893
-0.12370000000000014,-22.38073276386488
-0.12470000000000003,-22.42317410286083
-0.12570000000000014,-22.38073276386488
-0.12670000000000003,-22.38073276386488
-0.12770000000000015,-22.33829142486893
-0.12870000000000004,-22.38073276386488
-0.12970000000000015,-22.42317410286083
-0.13070000000000004,-22.42317410286083
-0.13170000000000015,-22.508056780852733
-0.13270000000000004,-22.508056780852733
-0.13370000000000015,-22.508056780852733
-0.13470000000000004,-22.46561544185678
-0.13570000000000015,-22.42317410286083
-0.13670000000000004,-22.42317410286083
-0.13770000000000016,-22.46561544185678
-0.13870000000000005,-22.508056780852733
-0.13970000000000016,-22.592939458844636
-0.14070000000000005,-22.592939458844636
-0.14170000000000016,-22.550498119848687
-0.14270000000000005,-22.550498119848687
-0.14370000000000016,-22.46561544185678
-0.14470000000000005,-22.46561544185678
-0.14570000000000016,-22.508056780852733
-0.14670000000000005,-22.508056780852733
-0.14770000000000016,-22.592939458844636
-0.14870000000000005,-22.592939458844636
-0.14970000000000017,-22.592939458844636
-0.15070000000000006,-22.550498119848687
-0.15170000000000017,-22.508056780852733
-0.15270000000000006,-22.46561544185678
-0.15370000000000017,-22.46561544185678
-0.15470000000000006,-22.508056780852733
-0.15570000000000017,-22.550498119848687
-0.15670000000000006,-22.550498119848687
-0.15770000000000017,-22.550498119848687
-0.15870000000000006,-22.508056780852733
-0.15970000000000018,-22.46561544185678
-0.16070000000000007,-22.42317410286083
-0.16170000000000018,-22.42317410286083
-0.16270000000000007,-22.42317410286083
-0.16370000000000018,-22.46561544185678
-0.16470000000000007,-22.508056780852733
-0.16570000000000018,-22.508056780852733
-0.16670000000000007,-22.46561544185678
-0.16770000000000018,-22.42317410286083
-0.16870000000000007,-22.33829142486893
-0.16970000000000018,-22.33829142486893
-0.17070000000000007,-22.295850085872978
-0.17170000000000019,-22.33829142486893
-0.17270000000000008,-22.38073276386488
-0.1737000000000002,-22.38073276386488
-0.17470000000000008,-22.38073276386488
-0.1757000000000002,-22.295850085872978
-0.17670000000000008,-22.253408746877028
-0.1777000000000002,-22.253408746877028
-0.17870000000000008,-22.196820294882425
-0.1797000000000002,-22.196820294882425
-0.18070000000000008,-22.253408746877028
-0.1817000000000002,-22.295850085872978
-0.18270000000000008,-22.295850085872978
-0.1837000000000002,-22.196820294882425
-0.1847000000000001,-22.15437895588647
-0.1857000000000002,-22.111937616890522
-0.1867000000000001,-22.069496277894572
-0.1877000000000002,-22.111937616890522
-0.1887000000000001,-22.111937616890522
-0.1897000000000002,-22.15437895588647
-0.1907000000000001,-22.15437895588647
-0.1917000000000001,-22.069496277894572
-0.19269999999999998,-22.027054938898623
-0.1937000000000001,-21.98461359990267
-0.19469999999999998,-21.94217226090672
-0.1957000000000001,-21.94217226090672
-0.19669999999999999,-21.98461359990267
-0.1977000000000001,-21.98461359990267
-0.1987,-22.027054938898623
-0.1997000000000001,-22.027054938898623
-0.2007,-21.94217226090672
-0.2017000000000001,-21.94217226090672
-0.2027,-21.899730921910766
-0.2037000000000001,-21.899730921910766
-0.2047,-21.899730921910766
-0.2057000000000001,-21.94217226090672
-0.2067,-21.98461359990267
-0.2077000000000001,-21.94217226090672
-0.2087,-21.94217226090672
-0.2097000000000001,-21.899730921910766
-0.2107,-21.814848243918867
-0.2117000000000001,-21.857289582914817
-0.2127,-21.857289582914817
-0.2137000000000001,-21.899730921910766
-0.2147,-21.94217226090672
-0.2157000000000001,-21.98461359990267
-0.2167,-21.94217226090672
-0.21770000000000012,-21.899730921910766
-0.2187,-21.857289582914817
-0.21970000000000012,-21.857289582914817
-0.2207,-21.857289582914817
-0.22170000000000012,-21.899730921910766
-0.2227,-21.94217226090672
-0.22370000000000012,-21.98461359990267
-0.2247,-21.98461359990267
-0.22570000000000012,-21.94217226090672
-0.2267,-21.94217226090672
-0.22770000000000012,-21.899730921910766
-0.22870000000000001,-21.94217226090672
-0.22970000000000013,-21.98461359990267
-0.23070000000000002,-22.069496277894572
-0.23170000000000013,-22.111937616890522
-0.23270000000000002,-22.15437895588647
-0.23370000000000013,-22.15437895588647
-0.23470000000000002,-22.111937616890522
-0.23570000000000013,-22.111937616890522
-0.23670000000000002,-22.111937616890522
-0.2376999999999999,-22.15437895588647
-0.23870000000000002,-22.196820294882425
-0.2396999999999999,-22.295850085872978
-0.24070000000000003,-22.33829142486893
-0.24169999999999991,-22.295850085872978
-0.24270000000000003,-22.295850085872978
-0.24369999999999992,-22.295850085872978
-0.24470000000000003,-22.295850085872978
-0.24569999999999992,-22.33829142486893
-0.24670000000000003,-22.42317410286083
-0.24769999999999992,-22.46561544185678
-0.24870000000000003,-22.550498119848687
-0.24969999999999992,-22.550498119848687
-0.25070000000000003,-22.550498119848687
-0.2516999999999999,-22.550498119848687
-0.25270000000000004,-22.592939458844636
-0.2536999999999999,-22.592939458844636
-0.25470000000000004,-22.67782213683654
-0.2556999999999999,-22.776851927827092
-0.25670000000000004,-22.861734605818995
-0.25769999999999993,-22.904175944814945
-0.25870000000000004,-22.946617283810895
-0.25969999999999993,-22.946617283810895
-0.26070000000000004,-22.946617283810895
-0.26169999999999993,-22.989058622806844
-0.26270000000000004,-23.073941300798747
-0.26369999999999993,-23.15882397879065
-0.26470000000000005,-23.300295108777156
-0.26569999999999994,-23.342736447773106
-0.26670000000000005,-23.427619125765005
-0.26769999999999994,-23.427619125765005
-0.26870000000000005,-23.427619125765005
-0.26969999999999994,-23.51250180375691
-0.27070000000000005,-23.597384481748815
-0.27169999999999994,-23.682267159740714
-0.27270000000000005,-23.823738289727217
-0.27369999999999994,-23.908620967719123
-0.27470000000000006,-23.993503645711023
-0.27569999999999995,-24.035944984706973
-0.27670000000000006,-24.035944984706973
-0.27769999999999995,-24.078386323702922
-0.27870000000000006,-24.16326900169483
-0.27969999999999995,-24.290593018682678
-0.28070000000000006,-24.432064148669184
-0.28169999999999995,-24.516946826661083
-0.28270000000000006,-24.601829504652986
-0.28369999999999995,-24.64427084364894
-0.28470000000000006,-24.686712182644893
-0.28569999999999995,-24.729153521640843
-0.28670000000000007,-24.771594860636792
-0.28769999999999996,-24.9130659906233
-0.28870000000000007,-25.04039000761115
-0.28969999999999996,-25.210155363594954
-0.29070000000000007,-25.295038041586857
-0.29169999999999996,-25.43650917157336
-0.29270000000000007,-25.521391849565262
-0.29369999999999996,-25.563833188561212
-0.2947000000000001,-25.691157205549064
-0.29569999999999996,-25.77603988354097
-0.2967000000000001,-25.959952352523427
-0.29769999999999996,-26.087276369511276
-0.2987000000000001,-26.257041725495082
-0.29969999999999997,-26.38436574248293
-0.3007000000000001,-26.483395533473487
-0.30169999999999997,-26.525836872469437
-0.3027000000000001,-26.61071955046134
-0.30369999999999997,-26.738043567449193
-0.3047000000000001,-26.907808923433
-0.30569999999999997,-27.091721392415455
-0.3067000000000001,-27.261486748399253
-0.3077,-27.38881076538711
-0.3087000000000001,-27.487840556377662
-0.3097,-27.572723234369565
-0.3107000000000001,-27.700047251357418
-0.3117,-27.827371268345274
-0.3127000000000001,-28.011283737327723
-0.3137,-28.18104909331153
-0.3147000000000001,-28.350814449295335
-0.3157,-28.577168257273744
-0.3167000000000001,-28.704492274261593
-0.3177,-28.831816291249446
-0.3187000000000001,-28.959140308237306
-0.3197,-29.14305277721976
-0.3207000000000001,-29.31281813320356
-0.3217,-29.525024828183312
-0.3227000000000001,-29.751378636161718
-0.3237,-29.96358533114148
-0.3247000000000001,-30.189939139119886
-0.3257,-30.359704495103685
-0.3267000000000001,-30.487028512091538
-0.3277,-30.614352529079397
-0.3287000000000001,-30.8407063370578
-0.3297,-31.052913032037555
-0.3307000000000001,-31.27926684001596
-0.3317,-31.533914873991666
-0.3327000000000001,-31.717827342974125
-0.3337,-31.887592698957924
-0.3347000000000001,-32.09979939393769
-0.3357,-32.283711862920136
-0.3367000000000001,-32.45347721890394
-0.3377,-32.70812525287965
-0.3387000000000001,-32.97692039985401
-0.3397,-33.231568433829715
-0.3407000000000001,-33.54280491980002
-0.3417,-33.712570275783825
-0.3427000000000001,-33.93892408376223
-0.3437,-34.15113077874198
-0.3447000000000001,-34.41992592571634
-0.3457,-34.632132620696105
-0.3467000000000001,-34.90092776767045
-0.3477,-35.240458479638065
-0.3487000000000001,-35.50925362661242
-0.3497,-35.763901660588125
-0.3507000000000001,-36.03269680756248
-0.3517,-36.244903502542236
-0.3527000000000001,-36.5136986495166
-0.3537,-36.725905344496354
-0.3547000000000001,-37.037141830466666
-0.3557,-37.376672542434264
-0.35670000000000013,-37.687909028404576
-0.3577,-37.99914551437489
-0.35870000000000013,-38.29623488734655
-0.3597,-38.522588695324956
-0.36070000000000013,-38.81967806829661
-0.3617,-39.130914554266916
-0.3626999999999999,-39.47044526623452
-0.3637,-39.82412309120078
-0.3646999999999999,-40.177800916167044
-0.3657,-40.51733162813464
-0.3666999999999999,-40.91345079209687
-0.3677,-41.182245939071215
-0.3686999999999999,-41.52177665103883
-0.36970000000000003,-41.87545447600508
-0.3706999999999999,-42.229132300971344
-0.37170000000000003,-42.6111043519349
-0.3726999999999999,-43.007223515897124
-0.37370000000000003,-43.40334267985933
-0.3746999999999999,-43.79946184382153
-0.37570000000000003,-44.138992555789144
-0.3766999999999999,-44.535111719751356
-0.37770000000000004,-44.84634820572166
-0.3786999999999999,-45.22832025668522
-0.37970000000000004,-45.70932209863933
-0.3806999999999999,-46.147882601597495
-0.38170000000000004,-46.586443104555656
-0.38269999999999993,-47.02500360751382
-0.38370000000000004,-47.40697565847737
-0.38469999999999993,-47.80309482243959
-0.38570000000000004,-48.1992139864018
-0.38669999999999993,-48.59533315036401
-0.38770000000000004,-49.076334992318124
-0.38869999999999993,-49.557336834272235
-0.38970000000000005,-50.0807800152223
-0.39069999999999994,-50.547634744177756
-0.39170000000000005,-50.98619524713592
-0.39269999999999994,-51.424755750094086
-0.39370000000000005,-51.86331625305225
-0.39469999999999994,-52.34431809500636
-0.39570000000000005,-52.82531993696047
-0.39669999999999994,-53.30632177891458
-0.39770000000000005,-53.82976495986464
-0.39869999999999994,-54.31076680181876
-0.39970000000000006,-54.791768643772876
-0.40069999999999995,-55.25862337272834
-0.40170000000000006,-55.73962521468245
-0.40269999999999995,-56.22062705663656
-0.40370000000000006,-56.82895291557852
-0.40469999999999995,-57.45142588751914
-0.40570000000000006,-58.05975174646111
-0.40669999999999995,-58.71051894439902
-0.40770000000000006,-59.27640346434504
-0.40869999999999995,-59.884729323287
-0.40970000000000006,-60.40817250423707
-0.41069999999999995,-60.93161568518713
-0.41170000000000007,-61.53994154412909
-0.41269999999999996,-62.16241451606972
-0.41370000000000007,-62.81318171400764
-0.41469999999999996,-63.5063902509415
-0.41570000000000007,-64.15715744887942
-0.41669999999999996,-64.77963042082003
-0.41770000000000007,-65.38795627976201
-0.41869999999999996,-66.03872347769992
-0.4197000000000001,-66.64704933664189
-0.42069999999999996,-67.34025787357575
-0.4217000000000001,-68.04761352350828
-0.42269999999999996,-68.78326339943808
-0.4237000000000001,-69.4906190493706
-0.42469999999999997,-70.14138624730852
-0.4257000000000001,-70.74971210625048
-0.42669999999999997,-71.31559662619651
-0.4277000000000001,-71.92392248513846
-0.42869999999999997,-72.53224834408043
-0.4297000000000001,-73.23960399401295
-0.43069999999999997,-73.93281253094682
-0.4317000000000001,-74.62602106788069
-0.4327,-75.37581805680915
-0.4337000000000001,-76.06902659374302
-0.4347,-76.7622351306769
-0.4357000000000001,-77.42714944161345
-0.4367,-78.12035797854733
-0.4377000000000001,-78.91259630647174
-0.4387,-79.69068752139752
-0.4397000000000001,-80.46877873632329
-0.4407,-81.26101706424771
-0.4417000000000001,-82.03910827917348
-0.4427,-82.746463929106
-0.4437000000000001,-83.52455514403178
-0.4447,-84.31679347195619
-0.4457000000000001,-85.17976736487385
-0.4467,-86.01444703179425
-0.4477000000000001,-86.89156803771054
-0.4487,-87.75454193062824
-0.4497000000000001,-88.54678025855264
-0.4507,-89.36731281247435
-0.4517000000000001,-90.15955114039879
-0.4527,-90.89520101632861
-0.4537000000000001,-91.72988068324898
-0.4547,-92.6070016891653
-0.4557000000000001,-93.46997558208298
-0.4567,-94.34709658799929
-0.4577000000000001,-95.22421759391563
-0.4587,-96.04475014783733
-0.4597000000000001,-96.87942981475771
-0.4607,-97.6575210296835
-0.4617000000000001,-98.4497593576079
-0.4627,-99.41176304151614
-0.4637000000000001,-100.2747369344338
-0.4647,-101.32162329633393
-0.4657000000000001,-102.24118564124619
-0.4667,-103.16074798615847
-0.4677000000000001,-104.02372187907615
-0.4687,-104.90084288499246
-0.4697000000000001,-105.86284656890071
-0.4707,-106.82485025280893
-0.4717000000000001,-107.8292952757131
-0.4727,-108.91862297660917
-0.4737000000000001,-109.9655093385093
-0.4747,-110.96995436141347
-0.4757000000000001,-112.01684072331359
-0.4767,-113.00713863321914
-0.4777000000000001,-114.0115836561233
-0.4787,-114.97358734003153
-0.4797000000000001,-116.02047370193165
-0.4807,-117.02491872483584
-0.48170000000000013,-118.07180508673595
-0.4827,-119.07625010964013
-0.48370000000000013,-120.12313647154028
-0.4847,-121.0851401554485
-0.48570000000000013,-122.0471438393567
-0.4867,-121.38222952842017
-0.48570000000000013,-118.72257228467387
-0.4847,-116.81271202985609
-0.48370000000000013,-115.15749980901398
-0.4827,-113.62961160515974
-0.48170000000000013,-112.14416474030146
-0.4807,-110.70115921443913
-0.4797000000000001,-109.30059502757274
-0.4787,-107.8292952757131
-0.4777000000000001,-106.51361376683862
-0.4767,-105.33940338795064
-0.4757000000000001,-104.12275167006669
-0.4747,-102.89195283918411
-0.4737000000000001,-101.63285978230424
-0.4727,-100.35961961242569
-0.4717000000000001,-99.05808521654988
-0.4707,-97.78484504667132
-0.4697000000000001,-96.61063466778336
-0.4687,-95.43642428889537
-0.4677000000000001,-94.30465524900335
-0.4667,-93.17288620911131
-0.4657000000000001,-91.98452871722468
