Potential V vs RHE, Current mA cm-2
0.4132999999999999,0.0009242308922018285
0.4122999999999999,-0.0009529495315890887
0.4112999999999999,-0.0014331025467632821
0.4102999999999999,-0.0017259477858353447
0.4092999999999999,-0.0019438133260145604
0.4082999999999999,-0.002158849443594046
0.4072999999999999,-0.0023371030673770402
0.4062999999999999,-0.00250545371206098
0.4052999999999999,-0.002675219068044784
0.4042999999999999,-0.0028393255788291285
0.4032999999999999,-0.0029935291105144175
0.4022999999999999,-0.0031321708179011917
0.4012999999999999,-0.0032920331947859406
0.4002999999999999,-0.003415113077874198
0.3992999999999999,-0.0035664871869597573
0.3982999999999999,-0.0037305936977441016
0.3972999999999999,-0.0038536735808323594
0.3962999999999999,-0.0039682651961214285
0.3952999999999999,-0.004082856811410495
0.3942999999999999,-0.004224327941396999
0.39329999999999987,-0.004341748979285798
0.39229999999999987,-0.0044520964606752705
0.39129999999999987,-0.004558199808165148
0.39029999999999987,-0.004675620846053946
0.38929999999999987,-0.004784553616143553
0.38829999999999987,-0.004913292344431272
0.38729999999999987,-0.005037786938819396
0.38629999999999987,-0.0051240843281111625
0.38529999999999986,-0.005258481901598342
0.38429999999999986,-0.005341949868290378
0.38329999999999986,-0.005462200328778906
0.38229999999999986,-0.005549912429370539
0.38129999999999986,-0.005641868663861766
0.38029999999999986,-0.005776266237348945
0.37929999999999986,-0.0058611489153408474
0.37829999999999986,-0.005970081685430455
0.37729999999999986,-0.006073355610320603
0.37629999999999986,-0.006166726556111695
0.37529999999999986,-0.006274244614901438
0.37429999999999986,-0.00635912729289334
0.37329999999999985,-0.006483621887281464
0.37229999999999985,-0.006588310523471475
0.37129999999999985,-0.0066618755110644575
0.37029999999999985,-0.0067778818376533915
0.36929999999999985,-0.006876911628643943
0.36829999999999985,-0.00694057363713787
0.36729999999999985,-0.0070608240976263986
0.36629999999999985,-0.007124486106120325
0.36529999999999985,-0.007232004164910068
0.36429999999999985,-0.00732820453330089
0.36329999999999985,-0.007407428366093332
0.36229999999999984,-0.00751919055878267
0.36129999999999984,-0.007606902659374302
0.36029999999999984,-0.007697444182565665
0.35929999999999984,-0.007785156283157298
0.35829999999999984,-0.007862965404649876
0.35729999999999984,-0.007959165773040696
0.35629999999999984,-0.008035560183233408
0.35529999999999984,-0.008110539882126256
0.35429999999999984,-0.008208154961816943
0.35329999999999984,-0.008315673020606686
0.35229999999999984,-0.008376505606500884
0.35129999999999983,-0.008465632418392379
0.35029999999999983,-0.008544856251184821
0.34929999999999983,-0.008624080083977264
0.34829999999999983,-0.008748574678365387
0.34729999999999983,-0.00883345735635729
0.34629999999999983,-0.008897119364851215
0.34529999999999983,-0.008983416754142982
0.34429999999999983,-0.009065470009535155
0.3432999999999998,-0.009148937976227192
0.3422999999999998,-0.009239479499418555
0.3412999999999998,-0.009298897374012887
0.3402999999999998,-0.009409244855402359
0.3392999999999998,-0.009467248018696825
0.3382999999999998,-0.009564863098387513
0.3372999999999998,-0.009646916353779685
0.3362999999999998,-0.009697845960574828
0.3352999999999998,-0.009791216906365918
0.3342999999999998,-0.009881758429557281
0.3332999999999998,-0.009956738128450129
0.3322999999999998,-0.01004727965164149
0.3312999999999998,-0.010093965124537039
0.3302999999999998,-0.010180262513828803
0.3292999999999998,-0.010255242212721652
0.3282999999999998,-0.010331636622914362
0.3272999999999998,-0.010433495836504644
0.3262999999999998,-0.010499987267598302
0.3252999999999999,-0.010557990430892767
0.3242999999999999,-0.010664093778382646
0.3232999999999999,-0.010730585209476303
0.3222999999999999,-0.010829615000466855
0.3212999999999999,-0.010881959318561863
0.3202999999999999,-0.010942791904456059
0.3192999999999999,-0.011040406984146746
0.3182999999999999,-0.011113971971739729
0.3172999999999999,-0.011194610515832037
0.3162999999999999,-0.011273834348624478
0.3152999999999999,-0.011340325779718134
0.3142999999999999,-0.011428037880309766
0.3132999999999999,-0.011518579403501128
0.3122999999999999,-0.01158365612329492
0.3112999999999999,-0.011651562265688442
0.3102999999999999,-0.011713809562882503
0.3092999999999999,-0.011797277529574539
0.3082999999999999,-0.011896307320565094
0.3072999999999999,-0.01195148106125983
0.3062999999999999,-0.012030704894052273
0.3052999999999999,-0.012109928726844714
0.3042999999999999,-0.012177834869238235
0.3032999999999999,-0.012262717547230139
0.3022999999999999,-0.012326379555724064
0.3012999999999999,-0.012395700409417452
0.3002999999999999,-0.012462191840511108
0.2992999999999999,-0.0125272685603049
0.2982999999999999,-0.012606492393097342
0.2972999999999999,-0.012691375071089243
0.2962999999999999,-0.012753622368283304
0.2952999999999999,-0.012842749180174803
0.2942999999999999,-0.012900752343469268
0.2932999999999999,-0.012965829063263061
0.2922999999999999,-0.013047882318655234
0.2912999999999999,-0.01309739721415051
0.2902999999999999,-0.013196427005141061
0.2892999999999999,-0.01327706554923337
0.2882999999999999,-0.013336483423827702
0.2872999999999999,-0.01342278081311947
0.2862999999999999,-0.013466636863415286
0.2852999999999999,-0.013544445984907859
0.2842999999999999,-0.013643475775898415
0.2832999999999999,-0.013695820093993422
0.2822999999999999,-0.013762311525087077
0.2812999999999999,-0.013834461801380194
0.2802999999999999,-0.01389529438727439
0.2792999999999999,-0.013983006487866021
0.2782999999999999,-0.014024033115562108
0.2772999999999999,-0.014101842237054685
0.2762999999999999,-0.014175407224647668
0.2752999999999999,-0.014231995676642267
0.2742999999999999,-0.014316878354634173
0.2732999999999999,-0.014387613919627423
0.2722999999999999,-0.014458349484620674
0.2712999999999999,-0.014514937936615275
0.2702999999999999,-0.014599820614607179
0.2692999999999999,-0.01465640906660178
0.26829999999999987,-0.014741291744593682
0.26729999999999987,-0.014797880196588285
0.26629999999999987,-0.014854468648582884
0.26529999999999987,-0.014925204213576137
0.26429999999999987,-0.014995939778569388
0.26329999999999987,-0.015080822456561293
0.26229999999999987,-0.015137410908555892
0.26129999999999987,-0.015179852247551842
0.26029999999999986,-0.015264734925543746
0.25929999999999986,-0.015321323377538347
0.25829999999999986,-0.015406206055530251
0.25729999999999986,-0.015491088733522153
0.25629999999999986,-0.015505235846520802
0.25529999999999986,-0.015590118524512706
0.25429999999999986,-0.015646706976507305
0.25329999999999986,-0.01573158965449921
0.25229999999999986,-0.01580232521949246
0.25129999999999986,-0.01583061944548976
0.25029999999999986,-0.01591550212348166
0.24929999999999986,-0.01597209057547626
0.24829999999999985,-0.016028679027470863
0.24729999999999985,-0.016127708818461418
0.24629999999999985,-0.01614185593146007
0.24529999999999985,-0.01624088572245062
0.24429999999999985,-0.016325768400442524
0.24329999999999985,-0.016354062626439823
0.24229999999999985,-0.016453092417430374
0.24129999999999985,-0.016495533756426328
0.24029999999999985,-0.016552122208420932
0.23929999999999985,-0.01665115199941148
0.23829999999999985,-0.016693593338407434
0.23729999999999984,-0.016764328903400686
0.23629999999999984,-0.016820917355395284
0.23529999999999984,-0.016863358694391237
0.23429999999999984,-0.016948241372383138
0.23329999999999984,-0.017004829824377742
0.23229999999999984,-0.017089712502369642
0.23129999999999984,-0.017146300954364244
0.23029999999999984,-0.017202889406358845
0.22929999999999984,-0.017259477858353446
0.22829999999999984,-0.0173302134233467
0.22729999999999984,-0.017400948988339954
0.22629999999999983,-0.017457537440334552
0.22529999999999983,-0.017514125892329157
0.22429999999999983,-0.017570714344323755
0.22329999999999983,-0.017627302796318356
0.22229999999999983,-0.01771218547431026
0.22129999999999983,-0.01776877392630486
0.22029999999999983,-0.017839509491298113
0.21929999999999983,-0.017896097943292714
0.21829999999999983,-0.017980980621284618
0.21729999999999983,-0.018023421960280565
0.21629999999999983,-0.018094157525273817
0.21529999999999982,-0.018150745977268422
0.21429999999999982,-0.01820733442926302
0.21329999999999982,-0.018306364220253574
0.21229999999999982,-0.018362952672248176
0.21129999999999982,-0.018405394011244126
0.21029999999999982,-0.018461982463238727
0.20929999999999982,-0.01853271802823198
0.20829999999999982,-0.01858930648022658
0.20729999999999982,-0.018674189158218484
0.20629999999999982,-0.018730777610213082
0.20529999999999982,-0.018773218949209036
0.20429999999999982,-0.01887224874019959
0.20329999999999981,-0.01891469007919554
0.2022999999999998,-0.018985425644188793
0.2012999999999998,-0.019042014096183394
0.20029999999999992,-0.019084455435179344
0.19929999999999992,-0.019169338113171244
0.19829999999999992,-0.019240073678164497
0.19729999999999992,-0.0192966621301591
0.19629999999999992,-0.019353250582153703
0.19529999999999992,-0.019395691921149656
0.19429999999999992,-0.019551310164134805
0.19329999999999992,-0.01959375150313076
0.19229999999999992,-0.019622045729128058
0.19129999999999991,-0.01967863418112266
0.1902999999999999,-0.01973522263311726
0.1892999999999999,-0.019791811085111865
0.1882999999999999,-0.019862546650105117
0.1872999999999999,-0.019933282215098366
0.1862999999999999,-0.01997572355409432
0.1852999999999999,-0.02003231200608892
0.1842999999999999,-0.02008890045808352
0.1832999999999999,-0.020173783136075422
0.1822999999999999,-0.020230371588070024
0.1812999999999999,-0.020301107153063276
0.1802999999999999,-0.020357695605057877
0.1792999999999999,-0.020400136944053827
0.1782999999999999,-0.020470872509047083
0.1772999999999999,-0.02055575518703898
0.1762999999999999,-0.020584049413036282
0.1752999999999999,-0.020654784978029535
0.1742999999999999,-0.020725520543022787
0.1732999999999999,-0.02079625610801604
0.1722999999999999,-0.02085284456001064
0.1712999999999999,-0.020895285899006594
0.1702999999999999,-0.020966021463999843
0.1692999999999999,-0.021022609915994445
0.1682999999999999,-0.021093345480987697
0.1672999999999999,-0.021164081045980946
0.1662999999999999,-0.0212065223849769
0.1652999999999999,-0.02124896372397285
0.1642999999999999,-0.021347993514963404
0.1632999999999999,-0.021390434853959358
0.1622999999999999,-0.021475317531951258
0.1612999999999999,-0.02150361175794856
0.1602999999999999,-0.021560200209943158
0.1592999999999999,-0.021645082887935062
0.15829999999999989,-0.021687524226931015
0.15729999999999988,-0.021758259791924264
0.15629999999999988,-0.021843142469916164
0.15529999999999988,-0.021885583808912118
0.15429999999999988,-0.02197046648690402
0.15329999999999988,-0.022027054938898623
0.15229999999999988,-0.02208364339089322
0.15129999999999988,-0.022140231842887825
0.15029999999999988,-0.02218267318188378
0.14929999999999988,-0.02226755585987568
0.14829999999999988,-0.02232414431187028
0.14729999999999988,-0.02238073276386488
0.14629999999999987,-0.02245146832885813
0.14529999999999987,-0.022508056780852735
0.14429999999999987,-0.022550498119848682
0.14329999999999987,-0.022635380797840585
0.14229999999999987,-0.02272026347583249
0.14129999999999987,-0.02274855770182979
0.14029999999999987,-0.022819293266823044
0.13929999999999987,-0.022861734605818994
0.13829999999999987,-0.022932470170812246
0.13729999999999987,-0.022989058622806844
0.13629999999999987,-0.0230597941878001
0.13529999999999986,-0.02310223552679605
0.13429999999999986,-0.023158823978790648
0.13329999999999986,-0.0232295595437839
0.13229999999999986,-0.023300295108777156
0.13129999999999986,-0.023328589334774455
0.13029999999999986,-0.02338517778676906
0.12929999999999986,-0.02347006046476096
0.12829999999999986,-0.023512501803756906
0.12729999999999986,-0.02359738448174881
0.12629999999999986,-0.023639825820744764
0.12529999999999986,-0.023696414272739365
0.12429999999999986,-0.023767149837732617
0.12329999999999985,-0.023823738289727222
0.12229999999999985,-0.02390862096771912
0.12129999999999985,-0.023965209419713723
0.12029999999999985,-0.02397935653271237
0.11929999999999985,-0.024064239210704275
0.11829999999999985,-0.024120827662698876
0.11729999999999985,-0.024191563227692125
0.11629999999999985,-0.02426229879268538
0.11529999999999985,-0.02429059301868268
0.11429999999999985,-0.02436132858367593
0.11329999999999985,-0.024417917035670533
0.11229999999999984,-0.02447450548766513
0.11129999999999984,-0.02453109393965974
0.11029999999999984,-0.024587682391654337
0.10929999999999984,-0.02465841795664759
0.10829999999999984,-0.024729153521640842
0.10729999999999984,-0.024785741973635443
0.10629999999999984,-0.024842330425630044
0.10529999999999984,-0.024884771764625994
0.10429999999999984,-0.024969654442617898
0.10329999999999984,-0.025040390007611147
0.10229999999999984,-0.02506868423360845
0.10129999999999983,-0.025139419798601705
0.10029999999999983,-0.025196008250596303
0.09929999999999983,-0.025252596702590904
0.09829999999999983,-0.025323332267584157
0.09729999999999983,-0.02537992071957876
0.09629999999999983,-0.02543650917157336
0.09529999999999983,-0.025493097623567964
0.09429999999999983,-0.02554968607556256
0.09329999999999983,-0.025606274527557166
0.09229999999999983,-0.025677010092550415
0.09129999999999983,-0.02573359854454502
0.09029999999999982,-0.025790186996539618
0.08929999999999982,-0.025846775448534223
0.08829999999999982,-0.02590336390052882
0.08729999999999982,-0.025974099465522073
0.08629999999999982,-0.026030687917516674
0.08529999999999982,-0.026115570595508578
0.08429999999999982,-0.026172159047503182
0.08329999999999982,-0.02621460038649913
0.08229999999999982,-0.02628533595149238
0.08129999999999982,-0.026341924403486983
0.08029999999999982,-0.026398512855481584
0.07929999999999982,-0.026483395533473487
0.07829999999999981,-0.02652583687246944
0.07729999999999981,-0.02659657243746269
0.07629999999999981,-0.026667308002455942
0.07529999999999992,-0.026695602228453245
0.07429999999999992,-0.026780484906445145
0.07329999999999992,-0.026837073358439746
0.07229999999999992,-0.026893661810434347
0.07129999999999992,-0.0269643973754276
0.07029999999999992,-0.026992691601424906
0.06929999999999992,-0.0270775742794168
0.06829999999999992,-0.027148309844410055
0.06729999999999992,-0.027204898296404656
0.06629999999999991,-0.02727563386139791
0.06529999999999991,-0.02731807520039386
0.06429999999999991,-0.02738881076538711
0.06329999999999991,-0.027459546330380363
0.06229999999999991,-0.02750198766937631
0.06129999999999991,-0.02755857612137091
0.06029999999999991,-0.02764345879936281
0.05929999999999991,-0.02768590013835877
0.05829999999999991,-0.027770782816350672
0.05729999999999991,-0.02782737126834527
0.056299999999999906,-0.02788395972033987
0.055299999999999905,-0.027926401059335824
0.054299999999999904,-0.027997136624329073
0.0532999999999999,-0.02806787218932233
0.0522999999999999,-0.02813860775431558
0.0512999999999999,-0.02819519620631018
0.0502999999999999,-0.028237637545306133
0.0492999999999999,-0.028308373110299385
0.0482999999999999,-0.028379108675292634
0.0472999999999999,-0.028463991353284535
0.0462999999999999,-0.02852057980527914
0.045299999999999896,-0.028577168257273744
0.044299999999999895,-0.028662050935265648
0.043299999999999894,-0.028704492274261594
0.04229999999999989,-0.028775227839254847
0.04129999999999989,-0.028845963404248096
0.04029999999999989,-0.02894499319523865
0.03929999999999989,-0.028987434534234607
0.03829999999999989,-0.02902987587323055
0.03729999999999989,-0.029100611438223806
0.03629999999999989,-0.029199641229214358
0.03529999999999989,-0.02922793545521166
0.034299999999999886,-0.029298671020204912
0.033299999999999885,-0.02939770081119546
0.032299999999999884,-0.029425995037192763
0.031299999999999883,-0.029510877715184666
0.030299999999999883,-0.02953917194118197
0.02929999999999988,-0.029638201732172516
0.02829999999999988,-0.02970893729716577
0.02729999999999988,-0.02973723152316307
0.02629999999999988,-0.029836261314153626
0.025299999999999878,-0.029906996879146875
0.024299999999999877,-0.029949438218142825
0.023299999999999876,-0.030034320896134725
0.022299999999999875,-0.030090909348129333
0.021299999999999875,-0.030161644913122586
0.020299999999999874,-0.030232380478115835
0.019299999999999873,-0.030288968930110433
0.018299999999999872,-0.030317263156107735
0.01729999999999987,-0.03040214583409964
0.01629999999999987,-0.030458734286094236
0.01529999999999987,-0.030529469851087492
0.014299999999999868,-0.030600205416080745
0.013299999999999867,-0.03065679386807535
0.012299999999999978,-0.030741676546067253
0.011299999999999866,-0.03079826499806185
0.010299999999999976,-0.03085485345005645
0.009299999999999864,-0.030911441902051046
0.008299999999999974,-0.030982177467044306
0.007299999999999862,-0.031052913032037555
0.006299999999999972,-0.03110950148403216
0.00529999999999986,-0.031151942823028106
0.0042999999999999705,-0.031250972614018664
0.0032999999999998586,-0.03127926684001596
0.0022999999999999687,-0.031350002405009215
0.0012999999999998568,-0.031434885083001116
0.00029999999999996696,-0.03146317930899842
-0.000700000000000145,-0.03156220909998896
-0.0017000000000000348,-0.03160465043898492
-0.0027000000000001467,-0.03166123889097952
-0.0037000000000000366,-0.031731974455972776
-0.0047000000000001485,-0.031788562907967374
-0.005700000000000038,-0.03185929847296063
-0.00670000000000015,-0.03194418115095252
-0.00770000000000004,-0.03198662248994848
-0.008700000000000152,-0.032085652280939035
-0.009700000000000042,-0.03211394650693633
-0.010700000000000154,-0.03221297629792688
-0.011700000000000044,-0.03226956474992148
-0.012700000000000156,-0.03231200608891744
-0.013700000000000045,-0.03239688876690934
-0.014700000000000157,-0.03243933010590529
-0.015700000000000047,-0.03251006567089854
-0.01670000000000016,-0.03256665412289315
-0.01770000000000005,-0.032637389687886396
-0.01870000000000016,-0.032693978139880994
-0.01970000000000005,-0.0327505665918756
-0.020700000000000163,-0.032807155043870204
-0.021700000000000053,-0.0328637434958648
-0.022700000000000164,-0.03293447906085806
-0.023700000000000054,-0.033005214625851306
-0.024700000000000166,-0.03304765596484726
-0.025700000000000056,-0.03313253864283916
-0.026700000000000168,-0.03316083286883646
-0.027700000000000058,-0.03324571554682836
-0.02870000000000017,-0.033288156885824316
-0.02970000000000006,-0.03337303956381622
-0.03070000000000017,-0.03344377512880947
-0.03170000000000006,-0.03348621646780542
-0.03270000000000017,-0.03355695203279867
-0.03370000000000006,-0.03359939337179463
-0.034700000000000175,-0.033655981823789226
-0.035700000000000065,-0.03375501161477978
-0.03670000000000018,-0.03381160006677438
-0.03770000000000007,-0.03386818851876898
-0.03870000000000018,-0.03393892408376223
-0.03970000000000007,-0.033967218309759524
-0.04070000000000018,-0.03405210098775143
-0.04170000000000007,-0.034108689439746036
-0.04270000000000018,-0.03415113077874199
-0.04370000000000007,-0.03423601345673389
-0.044700000000000184,-0.034264307682731185
-0.045700000000000074,-0.034335043247724434
-0.046700000000000186,-0.034391631699719045
-0.047700000000000076,-0.03443407303871499
-0.04870000000000019,-0.03450480860370824
-0.04970000000000008,-0.034547249942704195
-0.05070000000000019,-0.0346038383946988
-0.05170000000000008,-0.0346887210726907
-0.05270000000000019,-0.034717015298688
-0.05370000000000008,-0.03480189797667991
-0.05470000000000019,-0.03484433931567585
-0.05570000000000008,-0.03490092776767045
-0.056700000000000195,-0.03495751621966506
-0.057700000000000085,-0.034999957558661005
-0.058700000000000196,-0.0350565460106556
-0.059700000000000086,-0.03511313446265021
-0.0607000000000002,-0.03516972291464481
-0.06170000000000009,-0.03525460559263671
-0.0627000000000002,-0.03533948827062862
-0.06370000000000009,-0.03536778249662592
