Potential V vs RHE, Current mA cm-2
0.013299999999999867,30.02017378313608
0.012299999999999978,27.65760591236147
0.011299999999999866,25.46480339757066
0.010299999999999976,23.51250180375691
0.009299999999999864,21.659230000933714
0.008299999999999974,19.961576441095666
0.007299999999999862,18.320511333252224
0.006299999999999972,16.750181790402035
0.00529999999999986,15.363764716534297
0.0042999999999999705,13.984421199165887
0.0032999999999998586,12.548489229802875
0.0022999999999999687,11.17056042373433
0.0012999999999998568,9.894490831256066
0.00029999999999996696,8.641056619575643
-0.000700000000000145,7.410257788693063
-0.0017000000000000348,6.2035090499081855
-0.0027000000000001467,5.071740010016156
-0.0037000000000000366,3.965435773521698
-0.0047000000000001485,2.9029875873230555
-0.005700000000000038,1.8688336271217136
-0.00670000000000015,0.8611347682278478
-0.00770000000000004,-0.11539800072999104
-0.008700000000000152,-1.093996248185633
-0.009700000000000042,-2.020207736207272
-0.010700000000000154,-2.9114758551222453
-0.011700000000000044,-3.7730350367400525
-0.012700000000000156,-4.623276527958939
-0.013700000000000045,-5.453712060979717
-0.014700000000000157,-6.240291543704677
-0.015700000000000047,-7.015553336030716
-0.01670000000000016,-7.787985705757026
-0.01770000000000005,-8.549100385084417
-0.01870000000000016,-9.262114880216396
-0.01970000000000005,-9.992105910946753
-0.020700000000000163,-10.658434933183187
-0.021700000000000053,-11.314860976320563
-0.022700000000000164,-12.012313647154027
-0.023700000000000054,-12.684301514589919
-0.024700000000000166,-13.344971691626892
-0.025700000000000056,-13.953297550568857
-0.026700000000000168,-14.514937936615278
-0.027700000000000058,-15.06667534356264
-0.02870000000000017,-15.74573676749786
-0.02970000000000006,-16.354062626439823
-0.03070000000000017,-16.806770242396635
-0.03170000000000006,-17.28777208435075
-0.03270000000000017,-17.881950830294063
-0.03370000000000006,-18.433688237241427
-0.034700000000000175,-18.94298430519284
-0.035700000000000065,-19.480574599141555
-0.03670000000000018,-19.961576441095666
-0.03770000000000007,-20.42843117005113
-0.03870000000000018,-20.93772723800254
-0.03970000000000007,-21.418729079956652
-0.04070000000000018,-21.91387803490942
-0.04170000000000007,-22.39487987686353
-0.04270000000000018,-22.84758749282034
-0.04370000000000007,-23.300295108777156
-0.044700000000000184,-23.753002724733967
-0.045700000000000074,-24.20571034069078
-0.046700000000000186,-24.686712182644893
-0.047700000000000076,-25.1394197986017
-0.04870000000000019,-25.57798030155986
-0.04970000000000008,-26.030687917516673
-0.05070000000000019,-26.469248420474838
-0.05170000000000008,-26.907808923433
-0.05270000000000019,-27.37466365238846
-0.05370000000000008,-27.813224155346617
-0.05470000000000019,-28.265931771303435
-0.05570000000000008,-28.662050935265643
-0.056700000000000195,-29.086464325225155
-0.057700000000000085,-29.59576039317657
-0.058700000000000196,-29.977732444140123
-0.059700000000000086,-30.345557382105042
-0.0607000000000002,-30.727529433068593
-0.06170000000000009,-31.137795710029454
-0.0627000000000002,-31.689533116976815
-0.06370000000000009,-32.14224073293363
-0.0647000000000002,-32.49591855789989
-0.06570000000000009,-32.8637434958648
-0.0667000000000002,-33.245715546828364
-0.0677000000000001,-33.655981823789226
-0.0687000000000002,-34.06624810075008
-0.0697000000000001,-34.4906614907096
-0.07070000000000021,-34.90092776767045
-0.0717000000000001,-35.240458479638065
-0.07270000000000021,-35.650724756598926
-0.0737000000000001,-36.07513814655844
-0.07470000000000021,-36.49955153651795
-0.0757000000000001,-36.90981781347881
-0.07670000000000021,-37.291789864442364
-0.0777000000000001,-37.659614802407276
-0.07870000000000021,-38.04158685337084
-0.0797000000000001,-38.40941179133574
-0.08070000000000022,-38.83382518129526
-0.0817000000000001,-39.244091458256115
-0.08270000000000022,-39.62606350921968
-0.08370000000000011,-39.96559422118728
-0.08470000000000022,-40.701244097117105
-0.08570000000000011,-41.25298150406447
-0.08670000000000022,-41.49348242504152
-0.08770000000000011,-41.719836233019926
-0.08870000000000022,-42.214985187972694
-0.08970000000000011,-42.695987029926805
-0.09070000000000022,-42.99307640289846
-0.09170000000000011,-43.24772443687417
-0.09270000000000023,-43.50237247084988
-0.09370000000000012,-43.88434452181344
-0.09470000000000023,-44.36534636376755
-0.09570000000000012,-44.76146552772976
-0.09670000000000023,-45.10099623969737
-0.09770000000000012,-45.553703855654184
-0.09870000000000023,-45.963970132615046
-0.09970000000000012,-46.37423640957591
-0.10070000000000023,-46.82694402553272
-0.10170000000000012,-47.16647473750032
-0.10270000000000024,-47.449416997473335
-0.10370000000000013,-47.76065348344364
-0.10470000000000024,-48.114331308409895
-0.10570000000000013,-48.538744698369406
-0.10670000000000024,-49.28854168729788
-0.10770000000000013,-49.95345599823444
-0.10870000000000024,-49.75539641625335
-0.10970000000000013,-50.491046292183164
-0.11070000000000024,-50.84472411714942
-0.11170000000000013,-51.085225038126474
-0.11270000000000002,-51.62281533207519
-0.11370000000000013,-52.00478738303875
-0.11470000000000002,-52.64140746797801
-0.11570000000000014,-52.853614162957776
-0.11670000000000003,-53.23558621392132
-0.11770000000000014,-53.447792908901086
-0.11870000000000003,-53.815617846866
-0.11970000000000014,-54.33906102781606
-0.12070000000000003,-54.423943705807964
-0.12170000000000014,-54.76347441777557
-0.12270000000000003,-55.11715224274183
-0.12370000000000014,-55.64059542369189
-0.12470000000000003,-55.9235376836649
-0.12570000000000014,-55.994273248658146
-0.12670000000000003,-56.68748178559202
-0.12770000000000015,-56.871394254574476
-0.12870000000000004,-57.53630856551105
-0.12970000000000015,-57.79095659948675
-0.13070000000000004,-57.93242772947325
-0.13170000000000015,-58.75296028339497
-0.13270000000000004,-58.69637183140037
-0.13370000000000015,-59.17737367335449
-0.13470000000000004,-60.08278890526811
-0.13570000000000015,-59.94131777528161
-0.13670000000000004,-60.19596580925731
-0.13770000000000016,-60.70526187720872
-0.13870000000000005,-61.03064547617768
-0.13970000000000016,-61.66726556111695
-0.14070000000000005,-61.66726556111695
-0.14170000000000016,-62.26144430706027
-0.14270000000000005,-62.51609234103597
-0.14370000000000016,-62.58682790602922
-0.14470000000000005,-63.350772007956344
-0.14570000000000016,-63.71859694592126
-0.14670000000000005,-63.81762673691181
-0.14770000000000016,-64.58157083883891
-0.14870000000000005,-64.72304196882543
-0.14970000000000017,-65.06257268079304
-0.15070000000000006,-65.43039761875795
-0.15170000000000017,-65.74163410472826
-0.15270000000000006,-66.34995996367022
-0.15370000000000017,-66.64704933664189
-0.15470000000000006,-66.83096180562433
-0.15570000000000017,-67.52417034255821
-0.15670000000000006,-67.6090530205501
-0.15770000000000017,-68.20323176649342
-0.15870000000000006,-68.54276247846103
-0.15970000000000018,-68.89644030342728
-0.16070000000000007,-69.26426524139221
-0.16170000000000018,-69.41988348437735
-0.16270000000000007,-70.08479779531392
-0.16370000000000018,-70.21212181230177
-0.16470000000000007,-70.55165252426939
-0.16570000000000018,-71.18827260920865
-0.16670000000000007,-71.47121486918165
-0.16770000000000018,-71.96636382413442
-0.16870000000000007,-72.13612918011822
-0.16970000000000018,-72.81519060405343
-0.17070000000000007,-73.06983863802915
-0.17170000000000019,-73.38107512399945
-0.17270000000000008,-73.45181068899271
-0.1737000000000002,-73.77719428796166
-0.17470000000000008,-74.59772684188339
-0.1757000000000002,-74.8806691018564
-0.17670000000000008,-74.9938460058456
-0.1777000000000002,-75.64461320378352
-0.17870000000000008,-75.85681989876326
-0.1797000000000002,-75.8992612377592
-0.18070000000000008,-76.43685153170793
-0.1817000000000002,-76.62076400069039
-0.18270000000000008,-76.94614759965934
-0.1837000000000002,-77.35641387662021
-0.1847000000000001,-77.65350324959186
-0.1857000000000002,-78.06376952655272
-0.1867000000000001,-78.29012333453113
-0.1877000000000002,-78.7569780634866
-0.1887000000000001,-79.43603948742181
-0.1897000000000002,-79.18139145344611
-0.1907000000000001,-79.4643337134191
-0.1917000000000001,-80.28486626734085
-0.19269999999999998,-80.44048451032599
-0.1937000000000001,-80.53951430131653
-0.19469999999999998,-81.11954593426121
-0.1957000000000001,-81.69957756720586
-0.19669999999999999,-81.88349003618832
-0.1977000000000001,-82.15228518316268
-0.1987,-82.90208217209116
-0.1997000000000001,-82.746463929106
-0.2007,-82.8313466070979
-0.2017000000000001,-83.70846761301424
-0.2027,-84.16117522897105
-0.2037000000000001,-83.75090895201016
-0.2047,-83.73676183901152
-0.2057000000000001,-84.20361656796698
-0.2067,-84.74120686191569
-0.2077000000000001,-84.98170778289276
-0.2087,-85.27879715586442
-0.2097000000000001,-85.34953272085767
-0.2107,-85.68906343282526
-0.2117000000000001,-85.83053456281178
-0.2127,-86.07103548378883
-0.2137000000000001,-86.5661844387416
-0.2147,-86.6793613427308
-0.2157000000000001,-86.94815648970517
-0.2167,-87.45745255765657
-0.21770000000000012,-87.28768720167277
-0.2187,-87.25939297567547
-0.21970000000000012,-87.72624770463094
-0.2207,-88.00918996460392
-0.22170000000000012,-88.12236686859313
-0.2227,-88.07992552959718
-0.22370000000000012,-88.4194562415648
-0.2247,-89.07022343950271
-0.22570000000000012,-88.7306927275351
-0.2267,-88.39116201556749
-0.22770000000000012,-88.68825138853916
-0.22870000000000001,-89.18340034349191
-0.22970000000000013,-89.84831465442848
-0.23070000000000002,-90.04637423640959
-0.23170000000000013,-89.70684352444198
-0.23270000000000002,-89.72099063744062
-0.23370000000000013,-89.52293105545952
-0.23470000000000002,-89.74928486343794
-0.23570000000000013,-89.86246176742712
-0.23670000000000002,-89.80587331543254
-0.2376999999999999,-90.06052134940825
-0.23870000000000002,-90.41419917437449
-0.2396999999999999,-90.28687515738663
-0.24070000000000003,-90.51322896536506
-0.24169999999999991,-91.09326059830971
-0.24270000000000003,-90.9517894683232
-0.24369999999999992,-90.7820241123394
-0.24470000000000003,-90.8669067903313
-0.24569999999999992,-90.96593658132187
-0.24670000000000003,-90.98008369432051
-0.24769999999999992,-91.05081925931376
-0.24870000000000003,-91.22058461529755
-0.24969999999999992,-91.47523264927328
-0.25070000000000003,-91.39034997128137
-0.2516999999999999,-91.29132018029082
-0.25270000000000004,-91.74402779624764
-0.2536999999999999,-91.97038160422603
-0.25470000000000004,-91.92794026523009
-0.2556999999999999,-91.70158645725168
-0.25670000000000004,-91.58840955326248
-0.25769999999999993,-91.98452871722468
-0.25870000000000004,-92.32405942919229
-0.25969999999999993,-92.05526428221793
-0.26070000000000004,-91.97038160422603
-0.26169999999999993,-92.15429407320849
-0.26270000000000004,-92.84750261014237
-0.26369999999999993,-92.7767670451491
-0.26470000000000005,-92.62114880216394
-0.26569999999999994,-92.81920838414506
-0.26670000000000005,-92.8050612711464
-0.26769999999999994,-93.00312085312751
-0.26870000000000005,-93.34265156509512
-0.26969999999999994,-93.28606311310051
-0.27070000000000005,-93.32850445209648
-0.27169999999999994,-93.42753424308701
-0.27270000000000005,-93.62559382506812
-0.27369999999999994,-93.75291784205598
-0.27470000000000006,-93.75291784205598
-0.27569999999999995,-94.26221391000739
-0.27670000000000006,-94.72906863896286
-0.27769999999999995,-94.72906863896286
-0.27870000000000006,-94.70077441296557
-0.27969999999999995,-94.81395131695474
-0.28070000000000006,-95.05445223793181
-0.28169999999999995,-95.12518780292505
-0.28270000000000006,-95.18177625491967
-0.28369999999999995,-95.39398294989942
-0.28470000000000006,-95.64863098387512
-0.28569999999999995,-95.73351366186702
-0.28670000000000007,-96.04475014783733
-0.28769999999999996,-96.3984279728036
-0.28870000000000007,-96.86528270175907
-0.28969999999999996,-96.82284136276311
-0.29070000000000007,-97.20481341372668
-0.29169999999999996,-97.54434412569428
-0.29270000000000007,-97.95461040265513
-0.29369999999999996,-98.08193441964299
-0.2947000000000001,-98.43561224460926
-0.29569999999999996,-98.81758429557281
-0.2967000000000001,-99.22785057253368
-0.29769999999999996,-99.63811684949452
-0.2987000000000001,-99.97764756146215
-0.29969999999999997,-100.48694362941356
-0.3007000000000001,-101.16600505334877
-0.30169999999999997,-101.51968287831504
-0.3027000000000001,-101.95824338127319
-0.30369999999999997,-102.50998078822056
-0.3047000000000001,-102.87780572618546
-0.30569999999999997,-103.25977777714903
-0.3067000000000001,-103.67004405410988
-0.3077,-104.151045896064
-0.3087000000000001,-104.90084288499246
-0.3097,-105.38184472694657
-0.3107000000000001,-106.0326119248845
-0.3117,-106.66923200982377
-0.3127000000000001,-107.00876272179138
-0.3137,-107.51805878974278
-0.3147000000000001,-107.92832506670365
-0.3157,-108.66397494263347
-0.3167000000000001,-109.21571234958083
-0.3177,-109.8523324345201
-0.3187000000000001,-110.48895251945936
-0.3197,-111.4509562033676
-0.3207000000000001,-111.94610515832035
-0.3217,-112.58272524325962
-0.3227000000000001,-113.4739933621746
-0.3237,-114.2096432381044
-0.3247000000000001,-115.05847001802343
-0.3257,-115.79411989395325
-0.3267000000000001,-116.79856491685742
-0.3277,-117.57665613178321
-0.3287000000000001,-118.1991291037238
-0.3297,-118.96307320565093
-0.3307000000000001,-119.64213462958614
-0.3317,-120.36363739251732
-0.3327000000000001,-121.33978818942418
-0.3337,-122.33008609932973
-0.3347000000000001,-123.3628253482312
-0.3357,-124.33897614513808
-0.3367000000000001,-125.20195003805576
-0.3377,-126.10736526996938
-0.3387000000000001,-127.09766317987489
-0.3397,-128.20113799376963
-0.3407000000000001,-129.09240611268459
-0.3417,-129.96952711860092
-0.3427000000000001,-130.8890894635132
-0.3437,-131.87938737341872
-0.3447000000000001,-132.92627373531886
-0.3457,-133.78924762823652
-0.3467000000000001,-134.73710419914607
-0.3477,-135.78399056104624
-0.3487000000000001,-137.0996720699207
-0.3497,-138.07582286682756
-0.3507000000000001,-138.86806119475202
-0.3517,-140.52327341559413
-0.3527000000000001,-142.17848563643616
-0.3537,-143.0273124163552
-0.3547000000000001,-143.5931969363012
-0.3557,-144.58349484620675
-0.35670000000000013,-145.7152638860988
-0.3577,-146.8470329259908
-0.35870000000000013,-148.26174422585584
-0.3597,-149.39351326574788
-0.36070000000000013,-150.24234004566688
-0.3617,-151.37410908555893
-0.3626999999999999,-152.93029151541046
-0.3637,-155.05235846520802
-0.3646999999999999,-156.60854089505958
-0.3657,-157.7403099349516
-0.3666999999999999,-158.02325219492457
-0.3677,-159.15502123481662
-0.3686999999999999,-160.8526747946547
-0.36970000000000003,-162.6917994844792
-0.3706999999999999,-163.96503965435775
-0.37170000000000003,-164.9553375642633
-0.3726999999999999,-166.3700488641283
-0.37370000000000003,-167.92623129397984
-0.3746999999999999,-169.6238848538179
-0.37570000000000003,-171.32153841365593
-0.3766999999999999,-173.302134233467
-0.37770000000000004,-174.99978779330505
-0.3786999999999999,-176.6974413531431
-0.37970000000000004,-178.81950830294062
-0.3806999999999999,-180.5171618627787
-0.38170000000000004,-181.93187316264374
-0.38269999999999993,-184.19541124242778
-0.38370000000000004,-185.89306480226583
-0.38469999999999993,-187.73218949209036
-0.38570000000000004,-189.8542564418879
-0.38669999999999993,-189.99572757187443
-0.38570000000000004,-187.59071836210387
-0.38469999999999993,-185.7515936722793
-0.38370000000000004,-183.77099785246824
-0.38269999999999993,-182.35628655260325
-0.38170000000000004,-180.8001041227517
-0.3806999999999999,-179.24392169290016
-0.37970000000000004,-177.1218547431026
-0.3786999999999999,-175.56567231325104
-0.37770000000000004,-174.0094898833995
-0.3766999999999999,-172.73624971352098
-0.37570000000000003,-171.18006728366944
-0.3746999999999999,-169.3409425938449
-0.37370000000000003,-167.50181790402033
-0.3726999999999999,-165.5212220842093
-0.37170000000000003,-163.82356852437124
-0.3706999999999999,-161.9844438345467
-0.36970000000000003,-160.71120366466818
-0.3686999999999999,-159.43796349478964
-0.3677,-157.59883880496508
-0.3666999999999999,-155.19382959519453
-0.3657,-153.21323377538346
-0.3646999999999999,-151.23263795557244
-0.3637,-149.25204213576137
-0.3626999999999999,-147.27144631595033
-0.3617,-145.57379275611228
-0.36070000000000013,-143.87613919627424
-0.3597,-142.03701450644968
-0.35870000000000013,-140.04227157363997
-0.3577,-138.34461801380195
-0.35670000000000013,-136.37816930698955
-0.3557,-134.56733884316228
-0.3547000000000001,-132.86968528332423
-0.3537,-131.41253264446325
-0.3527000000000001,-129.1489945646792
-0.3517,-127.29572276185603
-0.3507000000000001,-125.3858625070382
-0.3497,-123.87212141618261
-0.3487000000000001,-121.96226116136481
-0.3477,-120.10898935854159
-0.3467000000000001,-118.45377713769953
-0.3457,-117.53421479278724
-0.3447000000000001,-115.56776608597484
-0.3437,-113.51643470117054
-0.3427000000000001,-111.46510331636625
-0.3417,-109.61183151354304
-0.3407000000000001,-107.90003084070635
-0.3397,-106.01846481188585
-0.3387000000000001,-104.10860455706805
-0.3377,-102.72218748320032
-0.3367000000000001,-101.16600505334877
-0.3357,-99.42591015451478
-0.3347000000000001,-97.60093257768887
-0.3337,-95.98816169584275
-0.3327000000000001,-94.30465524900335
-0.3317,-92.8050612711464
-0.3307000000000001,-91.36205574528407
-0.3297,-89.67854929844468
-0.3287000000000001,-87.93845439961068
-0.3277,-86.24080083977263
-0.3267000000000001,-84.769501087913
-0.3257,-83.48211380503581
-0.3247000000000001,-82.10984384416672
-0.3237,-80.9497805782774
-0.3227000000000001,-79.40774526142451
-0.3217,-77.32811965062291
-0.3207000000000001,-75.8709670117619
-0.3197,-74.75334508486853
-0.3187000000000001,-73.26789822001024
-0.3177,-71.69756867716005
-0.3167000000000001,-70.38188716828559
-0.3157,-68.83985185143268
-0.3147000000000001,-67.5807587945528
-0.3137,-65.99628213870396
-0.3127000000000001,-64.56742372584027
-0.3117,-63.3366248949577
-0.3107000000000001,-62.02094338608321
-0.3097,-60.39402539123842
-0.3087000000000001,-59.09249099536258
-0.3077,-57.819250825484055
-0.3067000000000001,-56.475275090612264
-0.30569999999999997,-54.989828225753975
-0.3047000000000001,-53.68829382987814
-0.30369999999999997,-52.41505365999961
-0.3027000000000001,-51.22669616811298
-0.30169999999999997,-50.024191563227696
-0.3007000000000001,-48.59533315036401
-0.29969999999999997,-47.37868143248008
-0.2987000000000001,-46.218618166590744
-0.29769999999999996,-45.044407787702774
-0.2967000000000001,-43.85605029581614
-0.29569999999999996,-42.667692803929505
-0.2947000000000001,-41.56421799003478
-0.29369999999999996,-40.4465960631414
-0.29270000000000007,-39.229944345257465
-0.29169999999999996,-38.02743974037218
-0.29070000000000007,-37.235201412447765
-0.28969999999999996,-36.230756389543586
-0.28870000000000007,-35.05654601065561
-0.28769999999999996,-33.86818851876898
-0.28670000000000007,-32.79300793087155
-0.28569999999999995,-31.76026868197007
-0.28470000000000006,-30.812412111060496
-0.28369999999999995,-29.73723152316307
-0.28270000000000006,-28.676198048264297
-0.28169999999999995,-27.64345879936282
-0.28070000000000006,-26.738043567449193
-0.27969999999999995,-25.761892770542314
-0.27870000000000006,-24.785741973635442
-0.27769999999999995,-23.809591176728567
-0.27670000000000006,-22.80514615382439
-0.27569999999999995,-21.744112678925614
-0.27470000000000006,-20.824550334013338
-0.27369999999999994,-19.961576441095666
-0.27270000000000005,-19.027866983184744
-0.27169999999999994,-18.10830463827247
-0.27070000000000005,-17.188742293360193
-0.26969999999999994,-16.29747417444522
-0.26870000000000005,-15.43450028152755
-0.26769999999999994,-14.57152638860988
-0.26670000000000005,-13.70430836179261
-0.26569999999999994,-12.856896293173453
