Potential V vs RHE, Current mA cm-2
0.013299999999999867,28.294225997300735
0.012299999999999978,26.087276369511276
0.011299999999999866,23.951062306715073
0.010299999999999976,21.97046648690402
0.009299999999999864,20.159636023076775
0.008299999999999974,18.377099785246827
0.007299999999999862,16.764328903400685
0.006299999999999972,15.094969569559943
0.00529999999999986,13.489272244213126
0.0042999999999999705,11.979775287257132
0.0032999999999998586,10.36417498281126
0.0022999999999999687,8.960781373345142
0.0012999999999998568,7.500799311884425
0.00029999999999996696,6.101649836317904
-0.000700000000000145,4.814262553440719
-0.0017000000000000348,3.427845479572984
-0.0027000000000001467,2.215437895588648
-0.0037000000000000366,0.9143279131027732
-0.0047000000000001485,-0.3420771923073659
-0.005700000000000038,-1.498179266557074
-0.00670000000000015,-2.754442900837226
-0.00770000000000004,-3.8282087774347895
-0.008700000000000152,-4.99393088852358
-0.009700000000000042,-6.135602907514665
-0.010700000000000154,-7.183903980714656
-0.011700000000000044,-8.328405422305472
-0.012700000000000156,-9.305970930512213
-0.013700000000000045,-10.340124890713554
-0.014700000000000157,-11.34739933621746
-0.015700000000000047,-12.274035237629057
-0.01670000000000016,-13.315262754329725
-0.01770000000000005,-14.217848563643619
-0.01870000000000016,-15.278882038542395
-0.01970000000000005,-16.382356852437127
-0.020700000000000163,-17.316066310348052
-0.021700000000000053,-18.27806999425627
-0.022700000000000164,-18.985425644188794
-0.023700000000000054,-19.73522263311726
-0.024700000000000166,-20.569902300037633
-0.025700000000000056,-21.376287740960702
-0.026700000000000168,-22.253408746877028
-0.027700000000000058,-23.003205735805498
-0.02870000000000017,-23.809591176728567
-0.02970000000000006,-24.587682391654337
-0.03070000000000017,-25.323332267584156
-0.03170000000000006,-26.14386482150588
-0.03270000000000017,-26.822926245441096
-0.03370000000000006,-27.544429008372262
-0.034700000000000175,-28.308373110299385
-0.035700000000000065,-28.987434534234602
-0.03670000000000018,-29.80796708815632
-0.03770000000000007,-30.45873428609424
-0.03870000000000018,-31.20853127502271
-0.03970000000000007,-31.887592698957924
-0.04070000000000018,-32.5525070098945
-0.04170000000000007,-33.316451111821614
-0.04270000000000018,-33.93892408376223
-0.04370000000000007,-34.632132620696105
-0.044700000000000184,-35.268752705635364
-0.045700000000000074,-35.83463722558138
-0.046700000000000186,-36.584434214509855
-0.047700000000000076,-37.192760073451815
-0.04870000000000019,-37.91426283638298
-0.04970000000000008,-38.57917714731955
-0.05070000000000019,-39.20165011926017
-0.05170000000000008,-39.88071154319538
-0.05270000000000019,-40.43244895014274
-0.05370000000000008,-41.05492192208336
-0.05470000000000019,-41.66324778102533
-0.05570000000000008,-42.214985187972694
-0.056700000000000195,-42.86575238591062
-0.057700000000000085,-43.44578401885527
-0.058700000000000196,-44.08240410379454
-0.059700000000000086,-44.690729962736505
-0.0607000000000002,-45.25661448268253
-0.06170000000000009,-45.92152879361909
-0.0627000000000002,-46.44497197456916
-0.06370000000000009,-47.02500360751382
-0.0647000000000002,-47.56259390146253
-0.06570000000000009,-48.24165532539775
-0.0667000000000002,-49.04804076632082
-0.0677000000000001,-49.543189721273585
-0.0687000000000002,-50.15151558021555
-0.0697000000000001,-50.83057700415076
-0.07070000000000021,-51.31157884610488
-0.0717000000000001,-51.8491691400536
-0.07270000000000021,-52.31602386900906
-0.0737000000000001,-52.896055501953725
-0.07470000000000021,-53.476087134898386
-0.0757000000000001,-54.02782454184575
-0.07670000000000021,-54.73518019177827
-0.0777000000000001,-55.34350605072023
-0.07870000000000021,-55.994273248658146
-0.0797000000000001,-56.800658689581226
-0.08070000000000022,-57.423131661521836
-0.0817000000000001,-57.904133503475954
-0.08270000000000022,-58.15878153745166
-0.08370000000000011,-58.72466605739767
-0.08470000000000022,-59.44616882032884
-0.08570000000000011,-60.08278890526811
-0.08670000000000022,-60.889174346191176
-0.08770000000000011,-61.440911753138536
-0.08870000000000022,-61.936060708091304
-0.08970000000000011,-62.41706255004542
-0.09070000000000022,-62.77074037501168
-0.09170000000000011,-63.251742216965795
-0.09270000000000023,-63.71859694592126
-0.09370000000000012,-64.31277569186457
-0.09470000000000023,-64.9352486638052
-0.09570000000000012,-65.48698607075255
-0.09670000000000023,-66.15190038168912
-0.09770000000000012,-66.76022624063107
-0.09870000000000023,-67.3826992125717
-0.09970000000000012,-68.01931929751096
-0.10070000000000023,-68.62764515645293
-0.10170000000000012,-69.33500080638545
-0.10270000000000024,-69.8301497613382
-0.10370000000000013,-70.33944582928963
-0.10470000000000024,-70.76385921924914
-0.10570000000000013,-71.17412549621
-0.10670000000000024,-71.66927445116276
-0.10770000000000013,-72.22101185811013
-0.10870000000000024,-72.91422039504398
-0.10970000000000013,-73.49425202798865
-0.11070000000000024,-74.15916633892522
-0.11170000000000013,-74.69675663287394
-0.11270000000000002,-75.06458157083884
-0.11370000000000013,-75.61631897778622
-0.11470000000000002,-76.15390927173492
-0.11570000000000014,-76.60661688769173
-0.11670000000000003,-77.18664852063641
-0.11770000000000014,-77.69594458858782
-0.11870000000000003,-78.29012333453113
-0.11970000000000014,-78.94089053246904
-0.12070000000000003,-79.56336350440966
-0.12170000000000014,-80.32730760633679
-0.12270000000000003,-80.62439697930844
-0.12370000000000014,-81.1478401602585
-0.12470000000000003,-81.67128334120858
-0.12570000000000014,-82.40693321713839
-0.12670000000000003,-83.28405422305471
-0.12770000000000015,-83.80749740400476
-0.12870000000000004,-84.27435213296022
-0.12970000000000015,-84.78364820091166
-0.13070000000000004,-84.9392664438968
-0.13170000000000015,-85.37782694685497
-0.13270000000000004,-85.75979899781852
-0.13370000000000015,-86.38227196975915
-0.13470000000000004,-87.03303916769705
-0.13570000000000015,-87.75454193062824
-0.13670000000000004,-88.43360335456343
-0.13770000000000016,-88.815575405527
-0.13870000000000005,-89.28243013448247
-0.13970000000000016,-89.70684352444198
-0.14070000000000005,-90.17369825339743
-0.14170000000000016,-90.7537298863421
-0.14270000000000005,-91.23473172829621
-0.14370000000000016,-91.78646913524358
-0.14470000000000005,-92.32405942919229
-0.14570000000000016,-92.86164972314101
-0.14670000000000005,-93.35679867809377
-0.14770000000000016,-94.12074278002089
-0.14870000000000005,-94.8280984299534
-0.14970000000000017,-95.59204253188052
-0.15070000000000006,-96.61063466778336
-0.15170000000000017,-97.14822496173205
-0.15270000000000006,-97.03504805774287
-0.15370000000000017,-97.40287299570777
-0.15470000000000006,-97.77069793367268
-0.15570000000000017,-98.15266998463625
-0.15670000000000006,-98.647818939589
-0.15770000000000017,-99.28443902452827
-0.15870000000000006,-99.94935333546483
-0.15970000000000018,-100.54353208140815
-0.16070000000000007,-101.09526948835551
-0.16170000000000018,-101.60456555630694
-0.16270000000000007,-101.92994915527588
-0.16370000000000018,-102.48168656222326
-0.16470000000000007,-103.01927685617197
-0.16570000000000018,-103.47198447212878
-0.16670000000000007,-104.16519300906265
-0.16770000000000018,-104.75937175500596
-0.16870000000000007,-105.45258029193982
-0.16970000000000018,-106.10334748987775
-0.17070000000000007,-106.41458397584806
-0.17170000000000019,-106.76826180081432
-0.17270000000000008,-107.13608673877923
-0.1737000000000002,-107.8010010497158
-0.17470000000000008,-108.48006247365102
-0.1757000000000002,-109.18741812358353
-0.17670000000000008,-109.937215112512
-0.1777000000000002,-110.46065829346206
-0.17870000000000008,-111.05483703940537
-0.1797000000000002,-111.5924273333541
-0.18070000000000008,-112.10172340130552
-0.1817000000000002,-112.73834348624479
-0.18270000000000008,-113.21934532819888
-0.1837000000000002,-113.88425963913545
-0.1847000000000001,-114.2945259160963
-0.1857000000000002,-114.83211621004502
-0.1867000000000001,-115.4970305209816
-0.1877000000000002,-116.04876792792896
-0.1887000000000001,-116.62879956087362
-0.1897000000000002,-117.12394851582638
-0.1907000000000001,-117.54836190578591
-0.1917000000000001,-118.14254065172923
-0.19269999999999998,-118.52451270269277
-0.1937000000000001,-118.99136743164823
-0.19469999999999998,-119.52895772559695
-0.1957000000000001,-119.92507688955916
-0.19669999999999999,-120.66072676548897
-0.1977000000000001,-121.38222952842017
-0.1987,-122.17446785634456
-0.1997000000000001,-122.93841195827169
-0.2007,-123.43356091322445
-0.2017000000000001,-123.91456275517855
-0.2027,-124.14091656315696
-0.2037000000000001,-124.62191840511109
-0.2047,-124.989743343076
-0.2057000000000001,-125.42830384603415
-0.2067,-126.02248259197746
-0.2077000000000001,-126.40445464294103
-0.2087,-127.25328142286004
-0.2097000000000001,-127.97478418579122
-0.2107,-128.59725715773186
-0.2117000000000001,-128.89434653070347
-0.2127,-129.2055830166738
-0.2137000000000001,-129.64414351963197
-0.2147,-130.32320494356716
-0.2157000000000001,-131.0022663675024
-0.2167,-131.5115624354538
-0.21770000000000012,-132.1481825203931
-0.2187,-133.3365400122797
-0.21970000000000012,-134.87857532913262
-0.2207,-136.02449148202328
-0.22170000000000012,-136.30743374199628
-0.2227,-135.96790303002868
-0.22370000000000012,-135.98205014302732
-0.2247,-136.57622888897063
-0.22570000000000012,-137.6089681378721
-0.2267,-138.91050253374794
-0.22770000000000012,-138.8397669687547
-0.22870000000000001,-138.3163237878046
-0.22970000000000013,-138.37291223979923
-0.23070000000000002,-138.7548842907628
-0.23170000000000013,-139.63200529667913
-0.23270000000000002,-140.52327341559413
-0.23370000000000013,-140.87695124056035
-0.23470000000000002,-140.86280412756173
-0.23570000000000013,-140.9193925795563
-0.23670000000000002,-141.35795308251446
-0.2376999999999999,-142.03701450644968
-0.23870000000000002,-143.0273124163552
-0.2396999999999999,-144.01761032626072
-0.24070000000000003,-145.14937936615277
-0.24169999999999991,-145.29085049613926
-0.24270000000000003,-144.58349484620675
-0.24369999999999992,-144.58349484620675
-0.24470000000000003,-145.00790823616626
-0.24569999999999992,-145.57379275611228
-0.24670000000000003,-146.4226195360313
-0.24769999999999992,-146.9885040559773
-0.24870000000000003,-147.27144631595033
-0.24969999999999992,-147.83733083589632
-0.25070000000000003,-148.54468648582886
-0.2516999999999999,-149.25204213576137
-0.25270000000000004,-149.1105710057749
-0.2536999999999999,-149.25204213576137
-0.25470000000000004,-149.53498439573437
-0.2556999999999999,-149.39351326574788
-0.25670000000000004,-149.6764555257209
-0.25769999999999993,-149.6764555257209
-0.25870000000000004,-150.24234004566688
-0.25969999999999993,-150.94969569559944
-0.26070000000000004,-151.7985224755184
-0.26169999999999993,-152.78882038542397
-0.26270000000000004,-152.78882038542397
-0.26369999999999993,-152.78882038542397
-0.26470000000000005,-152.36440699546444
-0.26569999999999994,-152.36440699546444
-0.26670000000000005,-152.64734925543743
-0.26769999999999994,-153.49617603535648
-0.26870000000000005,-154.0620605553025
-0.26969999999999994,-154.3450028152755
-0.27070000000000005,-154.486473945262
-0.27169999999999994,-154.6279450752485
-0.27270000000000005,-154.6279450752485
-0.27369999999999994,-155.19382959519453
-0.27470000000000006,-155.75971411514055
-0.27569999999999995,-156.32559863508658
-0.27670000000000006,-157.03295428501906
-0.27769999999999995,-157.03295428501906
-0.27870000000000006,-156.75001202504606
-0.27969999999999995,-156.60854089505958
-0.28070000000000006,-156.75001202504606
-0.28169999999999995,-157.31589654499206
-0.28270000000000006,-157.45736767497857
-0.28369999999999995,-157.59883880496508
-0.28470000000000006,-157.31589654499206
-0.28569999999999995,-157.7403099349516
-0.28670000000000007,-158.5891367148706
-0.28769999999999996,-159.15502123481662
-0.28870000000000007,-159.29649236480313
-0.28969999999999996,-159.29649236480313
-0.29070000000000007,-159.57943462477613
-0.29169999999999996,-159.57943462477613
-0.29270000000000007,-159.43796349478964
-0.29369999999999996,-159.86237688474912
-0.2947000000000001,-160.00384801473567
-0.29569999999999996,-159.86237688474912
-0.2967000000000001,-160.00384801473567
-0.29769999999999996,-160.28679027470866
-0.2987000000000001,-160.8526747946547
-0.29969999999999997,-161.2770881846142
-0.3007000000000001,-161.70150157457368
-0.30169999999999997,-161.41855931460069
-0.3027000000000001,-160.99414592464117
-0.30369999999999997,-161.2770881846142
-0.3047000000000001,-161.1356170546277
-0.30569999999999997,-160.99414592464117
-0.3067000000000001,-161.2770881846142
-0.3077,-161.5600304445872
-0.3087000000000001,-162.2673860945197
-0.3097,-162.5503283544927
-0.3107000000000001,-162.12591496453322
-0.3117,-161.9844438345467
-0.3127000000000001,-161.84297270456022
-0.3137,-162.2673860945197
-0.3147000000000001,-162.97474174445222
-0.3157,-163.54062626439824
-0.3167000000000001,-163.96503965435775
-0.3177,-163.82356852437124
-0.3187000000000001,-163.68209739438475
-0.3197,-163.54062626439824
-0.3207000000000001,-163.68209739438475
-0.3217,-163.96503965435775
-0.3227000000000001,-164.24798191433075
-0.3237,-164.38945304431726
-0.3247000000000001,-164.53092417430375
-0.3257,-165.09680869424977
-0.3267000000000001,-165.2382798242363
-0.3277,-165.2382798242363
-0.3287000000000001,-165.3797509542228
-0.3297,-165.5212220842093
-0.3307000000000001,-165.8041643441823
-0.3317,-166.0871066041553
-0.3327000000000001,-166.51151999411482
-0.3337,-166.93593338407433
-0.3347000000000001,-167.36034677403384
-0.3357,-167.50181790402033
-0.3367000000000001,-167.92623129397984
-0.3377,-168.63358694391238
-0.3387000000000001,-169.6238848538179
-0.3397,-169.9068271137909
-0.3407000000000001,-169.9068271137909
-0.3417,-170.18976937376394
-0.3427000000000001,-170.47271163373694
-0.3437,-170.75565389370993
-0.3447000000000001,-170.89712502369645
-0.3457,-171.03859615368293
-0.3467000000000001,-171.46300954364247
-0.3477,-172.0288940635885
-0.3487000000000001,-173.16066310348046
-0.3497,-174.2924321433725
-0.3507000000000001,-175.56567231325104
-0.3517,-176.27302796318358
-0.3527000000000001,-176.4144990931701
-0.3537,-176.27302796318358
-0.3547000000000001,-176.13155683319707
-0.3557,-176.4144990931701
-0.35670000000000013,-176.8389124831296
-0.3577,-177.1218547431026
-0.35870000000000013,-177.9706815230216
-0.3597,-178.81950830294062
-0.36070000000000013,-179.66833508285964
-0.3617,-180.5171618627787
-0.3626999999999999,-181.08304638272472
-0.3637,-181.64893090267074
-0.3646999999999999,-181.93187316264374
-0.3657,-182.35628655260325
-0.3666999999999999,-183.06364220253573
-0.3677,-183.62952672248176
-0.3686999999999999,-184.47835350240078
-0.36970000000000003,-185.1857091523333
-0.3706999999999999,-185.89306480226583
-0.37170000000000003,-186.88336271217133
-0.3726999999999999,-187.73218949209036
-0.37370000000000003,-188.58101627200938
-0.3746999999999999,-189.42984305192843
-0.37570000000000003,-190.27866983184742
-0.3766999999999999,-191.268967741753
-0.37770000000000004,-192.40073678164498
-0.3786999999999999,-193.3910346915505
-0.37970000000000004,-194.2398614714695
-0.3806999999999999,-194.94721712140205
-0.38170000000000004,-195.79604390132107
-0.38269999999999993,-196.6448706812401
-0.38370000000000004,-197.63516859114563
-0.38469999999999993,-198.62546650105114
-0.38570000000000004,-199.75723554094319
-0.38669999999999993,-198.76693763103765
-0.38570000000000004,-195.23015938137505
-0.38469999999999993,-191.9763233916855
-0.38370000000000004,-188.29807401203638
-0.38269999999999993,-185.3271802823198
-0.38170000000000004,-182.92217107254925
-0.3806999999999999,-180.09274847281918
-0.37970000000000004,-177.6877392630486
-0.3786999999999999,-175.14125892329156
-0.37770000000000004,-172.87772084350746
-0.3766999999999999,-170.89712502369645
-0.37570000000000003,-168.77505807389886
-0.3746999999999999,-166.22857773414182
-0.37370000000000003,-163.68209739438475
-0.3726999999999999,-161.1356170546277
-0.37170000000000003,-159.01355010483013
-0.3706999999999999,-156.75001202504606
-0.36970000000000003,-154.76941620523502
-0.3686999999999999,-152.64734925543743
-0.3677,-150.66675343562642
-0.3666999999999999,-148.54468648582886
-0.3657,-146.5640906660178
-0.3646999999999999,-144.72496597619326
-0.3637,-142.8858412863687
-0.3626999999999999,-141.2306290655266
-0.3617,-139.63200529667913
-0.36070000000000013,-138.00508730183432
-0.3597,-136.46305198498143
-0.35870000000000013,-134.6097801821582
-0.3577,-132.38868344137015
-0.35670000000000013,-130.492970299551
-0.3557,-128.27187355876288
-0.3547000000000001,-126.46104309493563
-0.3537,-124.80583087409354
-0.3527000000000001,-123.09403020125686
-0.3517,-121.41052375441744
-0.3507000000000001,-119.4016337086091
-0.3497,-117.60495035778048
-0.3487000000000001,-115.87900257194515
-0.3477,-114.19549612510575
-0.3467000000000001,-112.72419637324612
-0.3457,-111.21045528239053
-0.3447000000000001,-109.75330264352955
-0.3437,-108.2537086656726
-0.3427000000000001,-106.62679067082782
-0.3417,-105.11304957997223
-0.3407000000000001,-103.585161376118
-0.3397,-102.21289141524889
-0.3387000000000001,-100.81232722838251
-0.3377,-99.02979099055257
-0.3367000000000001,-97.53019701269562
-0.3357,-95.83254345285758
-0.3347000000000001,-94.30465524900335
-0.3337,-92.83335549714371
-0.3327000000000001,-91.41864419727867
-0.3317,-89.94734444541903
-0.3307000000000001,-88.34872067657155
-0.3297,-86.86327381171324
-0.3287000000000001,-85.33538560785901
-0.3277,-83.83579163000208
-0.3267000000000001,-82.54840434712489
-0.3257,-81.19028149925445
-0.3247000000000001,-79.94533555537322
-0.3237,-78.50233002951089
-0.3227000000000001,-77.17250140763775
-0.3217,-75.91340835075786
-0.3207000000000001,-74.39966725990229
-0.3197,-72.98495596003725
-0.3187000000000001,-71.5419504341749
-0.3177,-70.19797469930313
-0.3167000000000001,-68.92473452942457
-0.3157,-67.62320013354876
-0.3147000000000001,-66.42069552866347
-0.3137,-65.09086690679034
-0.3127000000000001,-63.76103828491719
-0.3117,-62.51609234103597
-0.3107000000000001,-61.228705058158795
-0.3097,-59.95546488828025
-0.3087000000000001,-58.65393049240442
-0.3077,-57.380690322525886
-0.3067000000000001,-56.22062705663656
-0.30569999999999997,-54.947386886758025
-0.3047000000000001,-53.7873236208687
-0.30369999999999997,-52.54237767698746
-0.3027000000000001,-51.36816729809948
-0.30169999999999997,-50.448604953187214
-0.3007000000000001,-49.40171859128708
-0.29969999999999997,-48.38312645538425
-0.2987000000000001,-47.10988628550572
-0.29769999999999996,-45.61029230764878
-0.2967000000000001,-44.3229050247716
-0.29569999999999996,-43.007223515897124
-0.2947000000000001,-41.96033715399699
-0.29369999999999996,-40.85686234010226
-0.29270000000000007,-39.85241731719808
-0.29169999999999996,-38.8762665202912
-0.29070000000000007,-37.659614802407276
-0.28969999999999996,-36.5136986495166
-0.28870000000000007,-35.226311366639415
-0.28769999999999996,-34.00965964875548
-0.28670000000000007,-32.97692039985401
-0.28569999999999995,-31.887592698957924
-0.28470000000000006,-30.982177467044306
-0.28369999999999995,-30.161644913122586
-0.28270000000000006,-29.029875873230555
-0.28169999999999995,-27.997136624329073
-0.28070000000000006,-26.879514697435695
-0.27969999999999995,-25.86092256153287
-0.27870000000000006,-24.729153521640843
-0.27769999999999995,-23.696414272739364
-0.27670000000000006,-22.72026347583249
-0.27569999999999995,-21.61678866193776
-0.27470000000000006,-20.683079204026836
-0.27369999999999994,-19.622045729128057
-0.27270000000000005,-18.589306480226583
-0.27169999999999994,-17.655597022315657
-0.27070000000000005,-16.622857773414182
-0.26969999999999994,-15.731589654499205
-0.26870000000000005,-14.741291744593681
-0.26769999999999994,-13.775043926785862
