Apr. 18, 2025   06:56:15
Linear Sweep Voltammetry
File: c:/users/guazh/data/banditlqround7_x0exp590_r20/2025-04-16-exp1115\1acid_1ac-2025-04-18t06_53_05-lsvinphos\1acid_1ac_lsv_50mvs_efin_-2100mv.bin
Data Source:  Experiment
Instrument Model:  CHI760E
Header: LSV ran at 50 mVs with Efin at -2100mV
Note: 

Init E (V) = -0.6
Final E (V) = -2.1
Scan Rate (V/s) = 0.05
Sample Interval (V) = 0.001
Quiet Time (sec) = 2
Sensitivity (A/V) = 1e-4
Comp R (ohm) = 9.0

Results:

Channel 1:
Ep = -1.382V
ip = 1.911e-4A
Ah = 2.789e-4C

Ep = -1.661V
ip = 6.583e-4A
Ah = 9.934e-4C

Potential/V, Current/A

-0.600, 5.382e-5
-0.601, 5.479e-5
-0.602, 5.533e-5
-0.603, 5.566e-5
-0.604, 5.587e-5
-0.605, 5.596e-5
-0.606, 5.600e-5
-0.607, 5.603e-5
-0.608, 5.607e-5
-0.609, 5.606e-5
-0.610, 5.611e-5
-0.611, 5.610e-5
-0.612, 5.602e-5
-0.613, 5.601e-5
-0.614, 5.596e-5
-0.615, 5.598e-5
-0.616, 5.591e-5
-0.617, 5.584e-5
-0.618, 5.579e-5
-0.619, 5.573e-5
-0.620, 5.564e-5
-0.621, 5.569e-5
-0.622, 5.570e-5
-0.623, 5.562e-5
-0.624, 5.554e-5
-0.625, 5.544e-5
-0.626, 5.534e-5
-0.627, 5.529e-5
-0.628, 5.522e-5
-0.629, 5.515e-5
-0.630, 5.505e-5
-0.631, 5.499e-5
-0.632, 5.491e-5
-0.633, 5.484e-5
-0.634, 5.481e-5
-0.635, 5.476e-5
-0.636, 5.468e-5
-0.637, 5.462e-5
-0.638, 5.456e-5
-0.639, 5.443e-5
-0.640, 5.441e-5
-0.641, 5.438e-5
-0.642, 5.432e-5
-0.643, 5.427e-5
-0.644, 5.418e-5
-0.645, 5.413e-5
-0.646, 5.406e-5
-0.647, 5.397e-5
-0.648, 5.390e-5
-0.649, 5.383e-5
-0.650, 5.374e-5
-0.651, 5.370e-5
-0.652, 5.362e-5
-0.653, 5.354e-5
-0.654, 5.346e-5
-0.655, 5.335e-5
-0.656, 5.326e-5
-0.657, 5.321e-5
-0.658, 5.318e-5
-0.659, 5.310e-5
-0.660, 5.300e-5
-0.661, 5.291e-5
-0.662, 5.284e-5
-0.663, 5.277e-5
-0.664, 5.277e-5
-0.665, 5.268e-5
-0.666, 5.260e-5
-0.667, 5.251e-5
-0.668, 5.243e-5
-0.669, 5.236e-5
-0.670, 5.227e-5
-0.671, 5.219e-5
-0.672, 5.211e-5
-0.673, 5.198e-5
-0.674, 5.188e-5
-0.675, 5.183e-5
-0.676, 5.175e-5
-0.677, 5.166e-5
-0.678, 5.161e-5
-0.679, 5.163e-5
-0.680, 5.150e-5
-0.681, 5.139e-5
-0.682, 5.133e-5
-0.683, 5.128e-5
-0.684, 5.124e-5
-0.685, 5.113e-5
-0.686, 5.105e-5
-0.687, 5.096e-5
-0.688, 5.087e-5
-0.689, 5.080e-5
-0.690, 5.073e-5
-0.691, 5.063e-5
-0.692, 5.055e-5
-0.693, 5.049e-5
-0.694, 5.044e-5
-0.695, 5.031e-5
-0.696, 5.022e-5
-0.697, 5.017e-5
-0.698, 5.006e-5
-0.699, 5.002e-5
-0.700, 4.995e-5
-0.701, 4.985e-5
-0.702, 4.976e-5
-0.703, 4.968e-5
-0.704, 4.958e-5
-0.705, 4.954e-5
-0.706, 4.947e-5
-0.707, 4.939e-5
-0.708, 4.930e-5
-0.709, 4.922e-5
-0.710, 4.917e-5
-0.711, 4.913e-5
-0.712, 4.903e-5
-0.713, 4.894e-5
-0.714, 4.890e-5
-0.715, 4.883e-5
-0.716, 4.872e-5
-0.717, 4.867e-5
-0.718, 4.859e-5
-0.719, 4.852e-5
-0.720, 4.843e-5
-0.721, 4.832e-5
-0.722, 4.822e-5
-0.723, 4.814e-5
-0.724, 4.807e-5
-0.725, 4.806e-5
-0.726, 4.799e-5
-0.727, 4.794e-5
-0.728, 4.792e-5
-0.729, 4.777e-5
-0.730, 4.771e-5
-0.731, 4.759e-5
-0.732, 4.754e-5
-0.733, 4.743e-5
-0.734, 4.736e-5
-0.735, 4.731e-5
-0.736, 4.735e-5
-0.737, 4.740e-5
-0.738, 4.728e-5
-0.739, 4.714e-5
-0.740, 4.708e-5
-0.741, 4.702e-5
-0.742, 4.702e-5
-0.743, 4.692e-5
-0.744, 4.678e-5
-0.745, 4.671e-5
-0.746, 4.658e-5
-0.747, 4.646e-5
-0.748, 4.645e-5
-0.749, 4.643e-5
-0.750, 4.638e-5
-0.751, 4.630e-5
-0.752, 4.624e-5
-0.753, 4.617e-5
-0.754, 4.615e-5
-0.755, 4.612e-5
-0.756, 4.603e-5
-0.757, 4.593e-5
-0.758, 4.580e-5
-0.759, 4.581e-5
-0.760, 4.578e-5
-0.761, 4.569e-5
-0.762, 4.560e-5
-0.763, 4.554e-5
-0.764, 4.557e-5
-0.765, 4.551e-5
-0.766, 4.543e-5
-0.767, 4.539e-5
-0.768, 4.536e-5
-0.769, 4.529e-5
-0.770, 4.524e-5
-0.771, 4.523e-5
-0.772, 4.518e-5
-0.773, 4.510e-5
-0.774, 4.509e-5
-0.775, 4.500e-5
-0.776, 4.495e-5
-0.777, 4.485e-5
-0.778, 4.484e-5
-0.779, 4.479e-5
-0.780, 4.475e-5
-0.781, 4.468e-5
-0.782, 4.461e-5
-0.783, 4.457e-5
-0.784, 4.453e-5
-0.785, 4.454e-5
-0.786, 4.451e-5
-0.787, 4.444e-5
-0.788, 4.440e-5
-0.789, 4.440e-5
-0.790, 4.436e-5
-0.791, 4.432e-5
-0.792, 4.431e-5
-0.793, 4.433e-5
-0.794, 4.428e-5
-0.795, 4.425e-5
-0.796, 4.421e-5
-0.797, 4.421e-5
-0.798, 4.418e-5
-0.799, 4.414e-5
-0.800, 4.409e-5
-0.801, 4.410e-5
-0.802, 4.406e-5
-0.803, 4.405e-5
-0.804, 4.404e-5
-0.805, 4.401e-5
-0.806, 4.402e-5
-0.807, 4.404e-5
-0.808, 4.404e-5
-0.809, 4.408e-5
-0.810, 4.404e-5
-0.811, 4.395e-5
-0.812, 4.394e-5
-0.813, 4.392e-5
-0.814, 4.390e-5
-0.815, 4.388e-5
-0.816, 4.382e-5
-0.817, 4.382e-5
-0.818, 4.383e-5
-0.819, 4.383e-5
-0.820, 4.378e-5
-0.821, 4.374e-5
-0.822, 4.376e-5
-0.823, 4.378e-5
-0.824, 4.377e-5
-0.825, 4.376e-5
-0.826, 4.378e-5
-0.827, 4.380e-5
-0.828, 4.378e-5
-0.829, 4.377e-5
-0.830, 4.375e-5
-0.831, 4.374e-5
-0.832, 4.378e-5
-0.833, 4.375e-5
-0.834, 4.378e-5
-0.835, 4.374e-5
-0.836, 4.372e-5
-0.837, 4.371e-5
-0.838, 4.370e-5
-0.839, 4.373e-5
-0.840, 4.372e-5
-0.841, 4.372e-5
-0.842, 4.374e-5
-0.843, 4.377e-5
-0.844, 4.378e-5
-0.845, 4.378e-5
-0.846, 4.381e-5
-0.847, 4.383e-5
-0.848, 4.382e-5
-0.849, 4.377e-5
-0.850, 4.381e-5
-0.851, 4.383e-5
-0.852, 4.382e-5
-0.853, 4.382e-5
-0.854, 4.387e-5
-0.855, 4.388e-5
-0.856, 4.388e-5
-0.857, 4.392e-5
-0.858, 4.391e-5
-0.859, 4.393e-5
-0.860, 4.394e-5
-0.861, 4.393e-5
-0.862, 4.397e-5
-0.863, 4.401e-5
-0.864, 4.400e-5
-0.865, 4.404e-5
-0.866, 4.405e-5
-0.867, 4.407e-5
-0.868, 4.408e-5
-0.869, 4.405e-5
-0.870, 4.408e-5
-0.871, 4.409e-5
-0.872, 4.409e-5
-0.873, 4.410e-5
-0.874, 4.411e-5
-0.875, 4.413e-5
-0.876, 4.413e-5
-0.877, 4.410e-5
-0.878, 4.411e-5
-0.879, 4.413e-5
-0.880, 4.414e-5
-0.881, 4.415e-5
-0.882, 4.414e-5
-0.883, 4.416e-5
-0.884, 4.420e-5
-0.885, 4.421e-5
-0.886, 4.422e-5
-0.887, 4.419e-5
-0.888, 4.424e-5
-0.889, 4.422e-5
-0.890, 4.423e-5
-0.891, 4.425e-5
-0.892, 4.427e-5
-0.893, 4.430e-5
-0.894, 4.437e-5
-0.895, 4.432e-5
-0.896, 4.433e-5
-0.897, 4.431e-5
-0.898, 4.431e-5
-0.899, 4.434e-5
-0.900, 4.435e-5
-0.901, 4.435e-5
-0.902, 4.436e-5
-0.903, 4.436e-5
-0.904, 4.439e-5
-0.905, 4.439e-5
-0.906, 4.438e-5
-0.907, 4.440e-5
-0.908, 4.441e-5
-0.909, 4.442e-5
-0.910, 4.448e-5
-0.911, 4.450e-5
-0.912, 4.450e-5
-0.913, 4.450e-5
-0.914, 4.451e-5
-0.915, 4.454e-5
-0.916, 4.456e-5
-0.917, 4.457e-5
-0.918, 4.462e-5
-0.919, 4.464e-5
-0.920, 4.465e-5
-0.921, 4.467e-5
-0.922, 4.470e-5
-0.923, 4.477e-5
-0.924, 4.476e-5
-0.925, 4.479e-5
-0.926, 4.482e-5
-0.927, 4.485e-5
-0.928, 4.498e-5
-0.929, 4.504e-5
-0.930, 4.505e-5
-0.931, 4.516e-5
-0.932, 4.521e-5
-0.933, 4.528e-5
-0.934, 4.537e-5
-0.935, 4.551e-5
-0.936, 4.559e-5
-0.937, 4.565e-5
-0.938, 4.572e-5
-0.939, 4.587e-5
-0.940, 4.594e-5
-0.941, 4.601e-5
-0.942, 4.614e-5
-0.943, 4.622e-5
-0.944, 4.631e-5
-0.945, 4.644e-5
-0.946, 4.657e-5
-0.947, 4.669e-5
-0.948, 4.685e-5
-0.949, 4.698e-5
-0.950, 4.715e-5
-0.951, 4.730e-5
-0.952, 4.745e-5
-0.953, 4.757e-5
-0.954, 4.773e-5
-0.955, 4.792e-5
-0.956, 4.813e-5
-0.957, 4.831e-5
-0.958, 4.853e-5
-0.959, 4.877e-5
-0.960, 4.899e-5
-0.961, 4.922e-5
-0.962, 4.944e-5
-0.963, 4.970e-5
-0.964, 4.994e-5
-0.965, 5.020e-5
-0.966, 5.049e-5
-0.967, 5.077e-5
-0.968, 5.110e-5
-0.969, 5.143e-5
-0.970, 5.167e-5
-0.971, 5.194e-5
-0.972, 5.225e-5
-0.973, 5.261e-5
-0.974, 5.295e-5
-0.975, 5.332e-5
-0.976, 5.366e-5
-0.977, 5.398e-5
-0.978, 5.429e-5
-0.979, 5.464e-5
-0.980, 5.498e-5
-0.981, 5.534e-5
-0.982, 5.571e-5
-0.983, 5.606e-5
-0.984, 5.643e-5
-0.985, 5.677e-5
-0.986, 5.709e-5
-0.987, 5.747e-5
-0.988, 5.785e-5
-0.989, 5.815e-5
-0.990, 5.854e-5
-0.991, 5.890e-5
-0.992, 5.936e-5
-0.993, 5.969e-5
-0.994, 5.997e-5
-0.995, 6.032e-5
-0.996, 6.064e-5
-0.997, 6.100e-5
-0.998, 6.141e-5
-0.999, 6.169e-5
-1.000, 6.200e-5
-1.001, 6.230e-5
-1.002, 6.261e-5
-1.003, 6.298e-5
-1.004, 6.331e-5
-1.005, 6.357e-5
-1.006, 6.392e-5
-1.007, 6.428e-5
-1.008, 6.457e-5
-1.009, 6.490e-5
-1.010, 6.525e-5
-1.011, 6.558e-5
-1.012, 6.591e-5
-1.013, 6.627e-5
-1.014, 6.663e-5
-1.015, 6.701e-5
-1.016, 6.744e-5
-1.017, 6.775e-5
-1.018, 6.814e-5
-1.019, 6.850e-5
-1.020, 6.893e-5
-1.021, 6.930e-5
-1.022, 6.966e-5
-1.023, 7.010e-5
-1.024, 7.054e-5
-1.025, 7.094e-5
-1.026, 7.138e-5
-1.027, 7.184e-5
-1.028, 7.228e-5
-1.029, 7.272e-5
-1.030, 7.319e-5
-1.031, 7.372e-5
-1.032, 7.423e-5
-1.033, 7.474e-5
-1.034, 7.527e-5
-1.035, 7.582e-5
-1.036, 7.643e-5
-1.037, 7.699e-5
-1.038, 7.758e-5
-1.039, 7.824e-5
-1.040, 7.895e-5
-1.041, 7.963e-5
-1.042, 8.030e-5
-1.043, 8.101e-5
-1.044, 8.167e-5
-1.045, 8.242e-5
-1.046, 8.320e-5
-1.047, 8.391e-5
-1.048, 8.467e-5
-1.049, 8.548e-5
-1.050, 8.633e-5
-1.051, 8.716e-5
-1.052, 8.799e-5
-1.053, 8.886e-5
-1.054, 8.970e-5
-1.055, 9.057e-5
-1.056, 9.147e-5
-1.057, 9.238e-5
-1.058, 9.329e-5
-1.059, 9.423e-5
-1.060, 9.518e-5
-1.061, 9.615e-5
-1.062, 9.714e-5
-1.063, 9.814e-5
-1.064, 9.912e-5
-1.065, 1.001e-4
-1.066, 1.011e-4
-1.067, 1.021e-4
-1.068, 1.032e-4
-1.069, 1.043e-4
-1.070, 1.054e-4
-1.071, 1.065e-4
-1.072, 1.075e-4
-1.073, 1.086e-4
-1.074, 1.097e-4
-1.075, 1.108e-4
-1.076, 1.119e-4
-1.077, 1.130e-4
-1.078, 1.142e-4
-1.079, 1.153e-4
-1.080, 1.164e-4
-1.081, 1.175e-4
-1.082, 1.187e-4
-1.083, 1.198e-4
-1.084, 1.210e-4
-1.085, 1.221e-4
-1.086, 1.232e-4
-1.087, 1.244e-4
-1.088, 1.256e-4
-1.089, 1.267e-4
-1.090, 1.279e-4
-1.091, 1.291e-4
-1.092, 1.302e-4
-1.093, 1.313e-4
-1.094, 1.325e-4
-1.095, 1.336e-4
-1.096, 1.348e-4
-1.097, 1.359e-4
-1.098, 1.370e-4
-1.099, 1.381e-4
-1.100, 1.392e-4
-1.101, 1.404e-4
-1.102, 1.415e-4
-1.103, 1.426e-4
-1.104, 1.437e-4
-1.105, 1.449e-4
-1.106, 1.460e-4
-1.107, 1.471e-4
-1.108, 1.482e-4
-1.109, 1.493e-4
-1.110, 1.503e-4
-1.111, 1.514e-4
-1.112, 1.525e-4
-1.113, 1.535e-4
-1.114, 1.546e-4
-1.115, 1.557e-4
-1.116, 1.568e-4
-1.117, 1.579e-4
-1.118, 1.589e-4
-1.119, 1.600e-4
-1.120, 1.611e-4
-1.121, 1.622e-4
-1.122, 1.631e-4
-1.123, 1.642e-4
-1.124, 1.652e-4
-1.125, 1.663e-4
-1.126, 1.674e-4
-1.127, 1.685e-4
-1.128, 1.695e-4
-1.129, 1.704e-4
-1.130, 1.714e-4
-1.131, 1.725e-4
-1.132, 1.734e-4
-1.133, 1.744e-4
-1.134, 1.754e-4
-1.135, 1.762e-4
-1.136, 1.771e-4
-1.137, 1.780e-4
-1.138, 1.790e-4
-1.139, 1.800e-4
-1.140, 1.809e-4
-1.141, 1.819e-4
-1.142, 1.829e-4
-1.143, 1.838e-4
-1.144, 1.848e-4
-1.145, 1.858e-4
-1.146, 1.867e-4
-1.147, 1.877e-4
-1.148, 1.886e-4
-1.149, 1.896e-4
-1.150, 1.905e-4
-1.151, 1.914e-4
-1.152, 1.923e-4
-1.153, 1.933e-4
-1.154, 1.942e-4
-1.155, 1.952e-4
-1.156, 1.960e-4
-1.157, 1.969e-4
-1.158, 1.978e-4
-1.159, 1.986e-4
-1.160, 1.994e-4
-1.161, 2.003e-4
-1.162, 2.010e-4
-1.163, 2.018e-4
-1.164, 2.026e-4
-1.165, 2.033e-4
-1.166, 2.040e-4
-1.167, 2.048e-4
-1.168, 2.054e-4
-1.169, 2.061e-4
-1.170, 2.067e-4
-1.171, 2.073e-4
-1.172, 2.078e-4
-1.173, 2.084e-4
-1.174, 2.088e-4
-1.175, 2.093e-4
-1.176, 2.099e-4
-1.177, 2.103e-4
-1.178, 2.106e-4
-1.179, 2.110e-4
-1.180, 2.114e-4
-1.181, 2.117e-4
-1.182, 2.120e-4
-1.183, 2.122e-4
-1.184, 2.124e-4
-1.185, 2.126e-4
-1.186, 2.127e-4
-1.187, 2.128e-4
-1.188, 2.129e-4
-1.189, 2.129e-4
-1.190, 2.130e-4
-1.191, 2.130e-4
-1.192, 2.129e-4
-1.193, 2.127e-4
-1.194, 2.126e-4
-1.195, 2.124e-4
-1.196, 2.123e-4
-1.197, 2.122e-4
-1.198, 2.120e-4
-1.199, 2.118e-4
-1.200, 2.116e-4
-1.201, 2.113e-4
-1.202, 2.110e-4
-1.203, 2.107e-4
-1.204, 2.105e-4
-1.205, 2.102e-4
-1.206, 2.099e-4
-1.207, 2.096e-4
-1.208, 2.093e-4
-1.209, 2.091e-4
-1.210, 2.087e-4
-1.211, 2.084e-4
-1.212, 2.081e-4
-1.213, 2.078e-4
-1.214, 2.075e-4
-1.215, 2.072e-4
-1.216, 2.069e-4
-1.217, 2.067e-4
-1.218, 2.064e-4
-1.219, 2.063e-4
-1.220, 2.062e-4
-1.221, 2.060e-4
-1.222, 2.059e-4
-1.223, 2.058e-4
-1.224, 2.057e-4
-1.225, 2.057e-4
-1.226, 2.056e-4
-1.227, 2.056e-4
-1.228, 2.056e-4
-1.229, 2.057e-4
-1.230, 2.059e-4
-1.231, 2.060e-4
-1.232, 2.062e-4
-1.233, 2.064e-4
-1.234, 2.065e-4
-1.235, 2.067e-4
-1.236, 2.068e-4
-1.237, 2.070e-4
-1.238, 2.074e-4
-1.239, 2.077e-4
-1.240, 2.081e-4
-1.241, 2.084e-4
-1.242, 2.089e-4
-1.243, 2.093e-4
-1.244, 2.097e-4
-1.245, 2.103e-4
-1.246, 2.108e-4
-1.247, 2.113e-4
-1.248, 2.118e-4
-1.249, 2.124e-4
-1.250, 2.130e-4
-1.251, 2.137e-4
-1.252, 2.144e-4
-1.253, 2.152e-4
-1.254, 2.160e-4
-1.255, 2.166e-4
-1.256, 2.172e-4
-1.257, 2.179e-4
-1.258, 2.187e-4
-1.259, 2.195e-4
-1.260, 2.203e-4
-1.261, 2.212e-4
-1.262, 2.221e-4
-1.263, 2.232e-4
-1.264, 2.243e-4
-1.265, 2.254e-4
-1.266, 2.265e-4
-1.267, 2.278e-4
-1.268, 2.289e-4
-1.269, 2.301e-4
-1.270, 2.315e-4
-1.271, 2.327e-4
-1.272, 2.339e-4
-1.273, 2.352e-4
-1.274, 2.365e-4
-1.275, 2.378e-4
-1.276, 2.392e-4
-1.277, 2.406e-4
-1.278, 2.419e-4
-1.279, 2.433e-4
-1.280, 2.447e-4
-1.281, 2.464e-4
-1.282, 2.479e-4
-1.283, 2.494e-4
-1.284, 2.510e-4
-1.285, 2.527e-4
-1.286, 2.543e-4
-1.287, 2.559e-4
-1.288, 2.574e-4
-1.289, 2.592e-4
-1.290, 2.609e-4
-1.291, 2.626e-4
-1.292, 2.643e-4
-1.293, 2.660e-4
-1.294, 2.678e-4
-1.295, 2.696e-4
-1.296, 2.714e-4
-1.297, 2.733e-4
-1.298, 2.751e-4
-1.299, 2.769e-4
-1.300, 2.789e-4
-1.301, 2.807e-4
-1.302, 2.826e-4
-1.303, 2.845e-4
-1.304, 2.864e-4
-1.305, 2.884e-4
-1.306, 2.904e-4
-1.307, 2.925e-4
-1.308, 2.945e-4
-1.309, 2.965e-4
-1.310, 2.985e-4
-1.311, 3.006e-4
-1.312, 3.028e-4
-1.313, 3.050e-4
-1.314, 3.071e-4
-1.315, 3.092e-4
-1.316, 3.113e-4
-1.317, 3.133e-4
-1.318, 3.155e-4
-1.319, 3.176e-4
-1.320, 3.197e-4
-1.321, 3.218e-4
-1.322, 3.239e-4
-1.323, 3.260e-4
-1.324, 3.281e-4
-1.325, 3.301e-4
-1.326, 3.321e-4
-1.327, 3.340e-4
-1.328, 3.360e-4
-1.329, 3.381e-4
-1.330, 3.401e-4
-1.331, 3.422e-4
-1.332, 3.442e-4
-1.333, 3.461e-4
-1.334, 3.481e-4
-1.335, 3.501e-4
-1.336, 3.521e-4
-1.337, 3.540e-4
-1.338, 3.558e-4
-1.339, 3.577e-4
-1.340, 3.595e-4
-1.341, 3.614e-4
-1.342, 3.631e-4
-1.343, 3.648e-4
-1.344, 3.666e-4
-1.345, 3.683e-4
-1.346, 3.699e-4
-1.347, 3.714e-4
-1.348, 3.728e-4
-1.349, 3.744e-4
-1.350, 3.759e-4
-1.351, 3.773e-4
-1.352, 3.786e-4
-1.353, 3.798e-4
-1.354, 3.811e-4
-1.355, 3.823e-4
-1.356, 3.835e-4
-1.357, 3.848e-4
-1.358, 3.859e-4
-1.359, 3.869e-4
-1.360, 3.879e-4
-1.361, 3.889e-4
-1.362, 3.898e-4
-1.363, 3.907e-4
-1.364, 3.916e-4
-1.365, 3.923e-4
-1.366, 3.929e-4
-1.367, 3.936e-4
-1.368, 3.942e-4
-1.369, 3.947e-4
-1.370, 3.952e-4
-1.371, 3.956e-4
-1.372, 3.959e-4
-1.373, 3.963e-4
-1.374, 3.966e-4
-1.375, 3.967e-4
-1.376, 3.969e-4
-1.377, 3.972e-4
-1.378, 3.973e-4
-1.379, 3.973e-4
-1.380, 3.973e-4
-1.381, 3.973e-4
-1.382, 3.974e-4
-1.383, 3.974e-4
-1.384, 3.972e-4
-1.385, 3.971e-4
-1.386, 3.968e-4
-1.387, 3.966e-4
-1.388, 3.962e-4
-1.389, 3.959e-4
-1.390, 3.955e-4
-1.391, 3.951e-4
-1.392, 3.947e-4
-1.393, 3.943e-4
-1.394, 3.937e-4
-1.395, 3.932e-4
-1.396, 3.927e-4
-1.397, 3.922e-4
-1.398, 3.917e-4
-1.399, 3.911e-4
-1.400, 3.903e-4
-1.401, 3.895e-4
-1.402, 3.889e-4
-1.403, 3.884e-4
-1.404, 3.876e-4
-1.405, 3.867e-4
-1.406, 3.858e-4
-1.407, 3.851e-4
-1.408, 3.844e-4
-1.409, 3.834e-4
-1.410, 3.825e-4
-1.411, 3.817e-4
-1.412, 3.810e-4
-1.413, 3.802e-4
-1.414, 3.792e-4
-1.415, 3.782e-4
-1.416, 3.771e-4
-1.417, 3.760e-4
-1.418, 3.750e-4
-1.419, 3.741e-4
-1.420, 3.731e-4
-1.421, 3.721e-4
-1.422, 3.712e-4
-1.423, 3.702e-4
-1.424, 3.692e-4
-1.425, 3.682e-4
-1.426, 3.674e-4
-1.427, 3.663e-4
-1.428, 3.653e-4
-1.429, 3.644e-4
-1.430, 3.635e-4
-1.431, 3.624e-4
-1.432, 3.615e-4
-1.433, 3.605e-4
-1.434, 3.598e-4
-1.435, 3.590e-4
-1.436, 3.581e-4
-1.437, 3.575e-4
-1.438, 3.570e-4
-1.439, 3.563e-4
-1.440, 3.557e-4
-1.441, 3.552e-4
-1.442, 3.547e-4
-1.443, 3.542e-4
-1.444, 3.537e-4
-1.445, 3.533e-4
-1.446, 3.528e-4
-1.447, 3.522e-4
-1.448, 3.518e-4
-1.449, 3.515e-4
-1.450, 3.514e-4
-1.451, 3.512e-4
-1.452, 3.511e-4
-1.453, 3.509e-4
-1.454, 3.509e-4
-1.455, 3.507e-4
-1.456, 3.506e-4
-1.457, 3.506e-4
-1.458, 3.506e-4
-1.459, 3.506e-4
-1.460, 3.506e-4
-1.461, 3.507e-4
-1.462, 3.508e-4
-1.463, 3.509e-4
-1.464, 3.511e-4
-1.465, 3.512e-4
-1.466, 3.512e-4
-1.467, 3.513e-4
-1.468, 3.514e-4
-1.469, 3.516e-4
-1.470, 3.517e-4
-1.471, 3.518e-4
-1.472, 3.519e-4
-1.473, 3.520e-4
-1.474, 3.522e-4
-1.475, 3.524e-4
-1.476, 3.528e-4
-1.477, 3.532e-4
-1.478, 3.536e-4
-1.479, 3.540e-4
-1.480, 3.546e-4
-1.481, 3.554e-4
-1.482, 3.563e-4
-1.483, 3.573e-4
-1.484, 3.581e-4
-1.485, 3.590e-4
-1.486, 3.598e-4
-1.487, 3.606e-4
-1.488, 3.619e-4
-1.489, 3.634e-4
-1.490, 3.648e-4
-1.491, 3.663e-4
-1.492, 3.680e-4
-1.493, 3.694e-4
-1.494, 3.707e-4
-1.495, 3.721e-4
-1.496, 3.735e-4
-1.497, 3.748e-4
-1.498, 3.764e-4
-1.499, 3.783e-4
-1.500, 3.806e-4
-1.501, 3.831e-4
-1.502, 3.850e-4
-1.503, 3.864e-4
-1.504, 3.877e-4
-1.505, 3.895e-4
-1.506, 3.915e-4
-1.507, 3.938e-4
-1.508, 3.962e-4
-1.509, 3.986e-4
-1.510, 4.008e-4
-1.511, 4.032e-4
-1.512, 4.054e-4
-1.513, 4.077e-4
-1.514, 4.099e-4
-1.515, 4.123e-4
-1.516, 4.150e-4
-1.517, 4.177e-4
-1.518, 4.204e-4
-1.519, 4.229e-4
-1.520, 4.260e-4
-1.521, 4.291e-4
-1.522, 4.321e-4
-1.523, 4.352e-4
-1.524, 4.381e-4
-1.525, 4.409e-4
-1.526, 4.439e-4
-1.527, 4.470e-4
-1.528, 4.501e-4
-1.529, 4.531e-4
-1.530, 4.559e-4
-1.531, 4.590e-4
-1.532, 4.623e-4
-1.533, 4.656e-4
-1.534, 4.686e-4
-1.535, 4.718e-4
-1.536, 4.750e-4
-1.537, 4.783e-4
-1.538, 4.817e-4
-1.539, 4.850e-4
-1.540, 4.882e-4
-1.541, 4.916e-4
-1.542, 4.952e-4
-1.543, 4.986e-4
-1.544, 5.019e-4
-1.545, 5.054e-4
-1.546, 5.093e-4
-1.547, 5.130e-4
-1.548, 5.163e-4
-1.549, 5.197e-4
-1.550, 5.234e-4
-1.551, 5.269e-4
-1.552, 5.302e-4
-1.553, 5.340e-4
-1.554, 5.382e-4
-1.555, 5.419e-4
-1.556, 5.454e-4
-1.557, 5.491e-4
-1.558, 5.527e-4
-1.559, 5.565e-4
-1.560, 5.603e-4
-1.561, 5.639e-4
-1.562, 5.676e-4
-1.563, 5.716e-4
-1.564, 5.755e-4
-1.565, 5.792e-4
-1.566, 5.829e-4
-1.567, 5.868e-4
-1.568, 5.908e-4
-1.569, 5.945e-4
-1.570, 5.984e-4
-1.571, 6.021e-4
-1.572, 6.058e-4
-1.573, 6.094e-4
-1.574, 6.128e-4
-1.575, 6.165e-4
-1.576, 6.205e-4
-1.577, 6.248e-4
-1.578, 6.291e-4
-1.579, 6.332e-4
-1.580, 6.376e-4
-1.581, 6.417e-4
-1.582, 6.455e-4
-1.583, 6.494e-4
-1.584, 6.531e-4
-1.585, 6.569e-4
-1.586, 6.606e-4
-1.587, 6.642e-4
-1.588, 6.681e-4
-1.589, 6.722e-4
-1.590, 6.765e-4
-1.591, 6.809e-4
-1.592, 6.855e-4
-1.593, 6.903e-4
-1.594, 6.949e-4
-1.595, 6.990e-4
-1.596, 7.030e-4
-1.597, 7.069e-4
-1.598, 7.111e-4
-1.599, 7.152e-4
-1.600, 7.198e-4
-1.601, 7.247e-4
-1.602, 7.292e-4
-1.603, 7.335e-4
-1.604, 7.377e-4
-1.605, 7.421e-4
-1.606, 7.466e-4
-1.607, 7.512e-4
-1.608, 7.556e-4
-1.609, 7.596e-4
-1.610, 7.644e-4
-1.611, 7.709e-4
-1.612, 7.745e-4
-1.613, 7.784e-4
-1.614, 7.830e-4
-1.615, 7.875e-4
-1.616, 7.917e-4
-1.617, 7.957e-4
-1.618, 7.999e-4
-1.619, 8.041e-4
-1.620, 8.086e-4
-1.621, 8.133e-4
-1.622, 8.180e-4
-1.623, 8.224e-4
-1.624, 8.270e-4
-1.625, 8.320e-4
-1.626, 8.365e-4
-1.627, 8.406e-4
-1.628, 8.453e-4
-1.629, 8.502e-4
-1.630, 8.549e-4
-1.631, 8.598e-4
-1.632, 8.648e-4
-1.633, 8.693e-4
-1.634, 8.736e-4
-1.635, 8.785e-4
-1.636, 8.833e-4
-1.637, 8.886e-4
-1.638, 8.936e-4
-1.639, 8.990e-4
-1.640, 9.037e-4
-1.641, 9.084e-4
-1.642, 9.132e-4
-1.643, 9.185e-4
-1.644, 9.236e-4
-1.645, 9.285e-4
-1.646, 9.335e-4
-1.647, 9.384e-4
-1.648, 9.439e-4
-1.649, 9.491e-4
-1.650, 9.541e-4
-1.651, 9.593e-4
-1.652, 9.647e-4
-1.653, 9.699e-4
-1.654, 9.749e-4
-1.655, 9.804e-4
-1.656, 9.863e-4
-1.657, 9.925e-4
-1.658, 9.983e-4
-1.659, 1.004e-3
-1.660, 1.009e-3
-1.661, 1.011e-3
-1.662, 1.011e-3
-1.663, 1.011e-3
-1.664, 1.011e-3
-1.665, 1.011e-3
-1.666, 1.011e-3
-1.667, 1.011e-3
-1.668, 1.011e-3
-1.669, 1.011e-3
-1.670, 1.011e-3
-1.671, 1.011e-3
-1.672, 1.011e-3
-1.673, 1.011e-3
-1.674, 1.011e-3
-1.675, 1.011e-3
-1.676, 1.011e-3
-1.677, 1.011e-3
-1.678, 1.011e-3
-1.679, 1.011e-3
-1.680, 1.011e-3
-1.681, 1.011e-3
-1.682, 1.011e-3
-1.683, 1.011e-3
-1.684, 1.011e-3
-1.685, 1.011e-3
-1.686, 1.011e-3
-1.687, 1.011e-3
-1.688, 1.011e-3
-1.689, 1.011e-3
-1.690, 1.011e-3
-1.691, 1.011e-3
-1.692, 1.011e-3
-1.693, 1.011e-3
-1.694, 1.011e-3
-1.695, 1.011e-3
-1.696, 1.011e-3
-1.697, 1.011e-3
-1.698, 1.011e-3
-1.699, 1.011e-3
-1.700, 1.011e-3
-1.701, 1.011e-3
-1.702, 1.011e-3
-1.703, 1.011e-3
-1.704, 1.011e-3
-1.705, 1.011e-3
-1.706, 1.011e-3
-1.707, 1.011e-3
-1.708, 1.011e-3
-1.709, 1.011e-3
-1.710, 1.011e-3
-1.711, 1.011e-3
-1.712, 1.011e-3
-1.713, 1.011e-3
-1.714, 1.011e-3
-1.715, 1.011e-3
-1.716, 1.011e-3
-1.717, 1.011e-3
-1.718, 1.011e-3
-1.719, 1.011e-3
-1.720, 1.011e-3
-1.721, 1.011e-3
-1.722, 1.011e-3
-1.723, 1.011e-3
-1.724, 1.011e-3
-1.725, 1.011e-3
-1.726, 1.011e-3
-1.727, 1.011e-3
-1.728, 1.011e-3
-1.729, 1.011e-3
-1.730, 1.011e-3
-1.731, 1.011e-3
-1.732, 1.011e-3
-1.733, 1.011e-3
-1.734, 1.011e-3
-1.735, 1.011e-3
-1.736, 1.011e-3
-1.737, 1.011e-3
-1.738, 1.011e-3
-1.739, 1.011e-3
-1.740, 1.011e-3
-1.741, 1.011e-3
-1.742, 1.011e-3
-1.743, 1.011e-3
-1.744, 1.011e-3
-1.745, 1.011e-3
-1.746, 1.011e-3
-1.747, 1.011e-3
-1.748, 1.011e-3
-1.749, 1.011e-3
-1.750, 1.011e-3
-1.751, 1.011e-3
-1.752, 1.011e-3
-1.753, 1.011e-3
-1.754, 1.011e-3
-1.755, 1.011e-3
-1.756, 1.011e-3
-1.757, 1.011e-3
-1.758, 1.011e-3
-1.759, 1.011e-3
-1.760, 1.011e-3
-1.761, 1.011e-3
-1.762, 1.011e-3
-1.763, 1.011e-3
-1.764, 1.011e-3
-1.765, 1.011e-3
-1.766, 1.011e-3
-1.767, 1.011e-3
-1.768, 1.011e-3
-1.769, 1.011e-3
-1.770, 1.011e-3
-1.771, 1.011e-3
-1.772, 1.011e-3
-1.773, 1.011e-3
-1.774, 1.011e-3
-1.775, 1.011e-3
-1.776, 1.011e-3
-1.777, 1.011e-3
-1.778, 1.011e-3
-1.779, 1.011e-3
-1.780, 1.011e-3
-1.781, 1.011e-3
-1.782, 1.011e-3
-1.783, 1.011e-3
-1.784, 1.011e-3
-1.785, 1.011e-3
-1.786, 1.011e-3
-1.787, 1.011e-3
-1.788, 1.011e-3
-1.789, 1.011e-3
-1.790, 1.011e-3
-1.791, 1.011e-3
-1.792, 1.011e-3
-1.793, 1.011e-3
-1.794, 1.011e-3
-1.795, 1.011e-3
-1.796, 1.011e-3
-1.797, 1.011e-3
-1.798, 1.011e-3
-1.799, 1.011e-3
-1.800, 1.011e-3
-1.801, 1.011e-3
-1.802, 1.011e-3
-1.803, 1.011e-3
-1.804, 1.011e-3
-1.805, 1.011e-3
-1.806, 1.011e-3
-1.807, 1.011e-3
-1.808, 1.011e-3
-1.809, 1.011e-3
-1.810, 1.011e-3
-1.811, 1.011e-3
-1.812, 1.011e-3
-1.813, 1.011e-3
-1.814, 1.011e-3
-1.815, 1.011e-3
-1.816, 1.011e-3
-1.817, 1.011e-3
-1.818, 1.011e-3
-1.819, 1.011e-3
-1.820, 1.011e-3
-1.821, 1.011e-3
-1.822, 1.011e-3
-1.823, 1.011e-3
-1.824, 1.011e-3
-1.825, 1.011e-3
-1.826, 1.011e-3
-1.827, 1.011e-3
-1.828, 1.011e-3
-1.829, 1.011e-3
-1.830, 1.011e-3
-1.831, 1.011e-3
-1.832, 1.011e-3
-1.833, 1.011e-3
-1.834, 1.011e-3
-1.835, 1.011e-3
-1.836, 1.011e-3
-1.837, 1.011e-3
-1.838, 1.011e-3
-1.839, 1.011e-3
-1.840, 1.011e-3
-1.841, 1.011e-3
-1.842, 1.011e-3
-1.843, 1.011e-3
-1.844, 1.011e-3
-1.845, 1.011e-3
-1.846, 1.011e-3
-1.847, 1.011e-3
-1.848, 1.011e-3
-1.849, 1.011e-3
-1.850, 1.011e-3
-1.851, 1.011e-3
-1.852, 1.011e-3
-1.853, 1.011e-3
-1.854, 1.011e-3
-1.855, 1.011e-3
-1.856, 1.011e-3
-1.857, 1.011e-3
-1.858, 1.011e-3
-1.859, 1.011e-3
-1.860, 1.011e-3
-1.861, 1.011e-3
-1.862, 1.011e-3
-1.863, 1.011e-3
-1.864, 1.011e-3
-1.865, 1.011e-3
-1.866, 1.011e-3
-1.867, 1.011e-3
-1.868, 1.011e-3
-1.869, 1.011e-3
-1.870, 1.011e-3
-1.871, 1.011e-3
-1.872, 1.011e-3
-1.873, 1.011e-3
-1.874, 1.011e-3
-1.875, 1.011e-3
-1.876, 1.011e-3
-1.877, 1.011e-3
-1.878, 1.011e-3
-1.879, 1.011e-3
-1.880, 1.011e-3
-1.881, 1.011e-3
-1.882, 1.011e-3
-1.883, 1.011e-3
-1.884, 1.011e-3
-1.885, 1.011e-3
-1.886, 1.011e-3
-1.887, 1.011e-3
-1.888, 1.011e-3
-1.889, 1.011e-3
-1.890, 1.011e-3
-1.891, 1.011e-3
-1.892, 1.011e-3
-1.893, 1.011e-3
-1.894, 1.011e-3
-1.895, 1.011e-3
-1.896, 1.011e-3
-1.897, 1.011e-3
-1.898, 1.011e-3
-1.899, 1.011e-3
-1.900, 1.011e-3
-1.901, 1.011e-3
-1.902, 1.011e-3
-1.903, 1.011e-3
-1.904, 1.011e-3
-1.905, 1.011e-3
-1.906, 1.011e-3
-1.907, 1.011e-3
-1.908, 1.011e-3
-1.909, 1.011e-3
-1.910, 1.011e-3
-1.911, 1.011e-3
-1.912, 1.011e-3
-1.913, 1.011e-3
-1.914, 1.011e-3
-1.915, 1.011e-3
-1.916, 1.011e-3
-1.917, 1.011e-3
-1.918, 1.011e-3
-1.919, 1.011e-3
-1.920, 1.011e-3
-1.921, 1.011e-3
-1.922, 1.011e-3
-1.923, 1.011e-3
-1.924, 1.011e-3
-1.925, 1.011e-3
-1.926, 1.011e-3
-1.927, 1.011e-3
-1.928, 1.011e-3
-1.929, 1.011e-3
-1.930, 1.011e-3
-1.931, 1.011e-3
-1.932, 1.011e-3
-1.933, 1.011e-3
-1.934, 1.011e-3
-1.935, 1.011e-3
-1.936, 1.011e-3
-1.937, 1.011e-3
-1.938, 1.011e-3
-1.939, 1.011e-3
-1.940, 1.011e-3
-1.941, 1.011e-3
-1.942, 1.011e-3
-1.943, 1.011e-3
-1.944, 1.011e-3
-1.945, 1.011e-3
-1.946, 1.011e-3
-1.947, 1.011e-3
-1.948, 1.011e-3
-1.949, 1.011e-3
-1.950, 1.011e-3
-1.951, 1.011e-3
-1.952, 1.011e-3
-1.953, 1.011e-3
-1.954, 1.011e-3
-1.955, 1.011e-3
-1.956, 1.011e-3
-1.957, 1.011e-3
-1.958, 1.011e-3
-1.959, 1.011e-3
-1.960, 1.011e-3
-1.961, 1.011e-3
-1.962, 1.011e-3
-1.963, 1.011e-3
-1.964, 1.011e-3
-1.965, 1.011e-3
-1.966, 1.011e-3
-1.967, 1.011e-3
-1.968, 1.011e-3
-1.969, 1.011e-3
-1.970, 1.011e-3
-1.971, 1.011e-3
-1.972, 1.011e-3
-1.973, 1.011e-3
-1.974, 1.011e-3
-1.975, 1.011e-3
-1.976, 1.011e-3
-1.977, 1.011e-3
-1.978, 1.011e-3
-1.979, 1.011e-3
-1.980, 1.011e-3
-1.981, 1.011e-3
-1.982, 1.011e-3
-1.983, 1.011e-3
-1.984, 1.011e-3
-1.985, 1.011e-3
-1.986, 1.011e-3
-1.987, 1.011e-3
-1.988, 1.011e-3
-1.989, 1.011e-3
-1.990, 1.011e-3
-1.991, 1.011e-3
-1.992, 1.011e-3
-1.993, 1.011e-3
-1.994, 1.011e-3
-1.995, 1.011e-3
-1.996, 1.011e-3
-1.997, 1.011e-3
-1.998, 1.011e-3
-1.999, 1.011e-3
-2.000, 1.011e-3
-2.001, 1.011e-3
-2.002, 1.011e-3
-2.003, 1.011e-3
-2.004, 1.011e-3
-2.005, 1.011e-3
-2.006, 1.011e-3
-2.007, 1.011e-3
-2.008, 1.011e-3
-2.009, 1.011e-3
-2.010, 1.011e-3
-2.011, 1.011e-3
-2.012, 1.011e-3
-2.013, 1.011e-3
-2.014, 1.011e-3
-2.015, 1.011e-3
-2.016, 1.011e-3
-2.017, 1.011e-3
-2.018, 1.011e-3
-2.019, 1.011e-3
-2.020, 1.011e-3
-2.021, 1.011e-3
-2.022, 1.011e-3
-2.023, 1.011e-3
-2.024, 1.011e-3
-2.025, 1.011e-3
-2.026, 1.011e-3
-2.027, 1.011e-3
-2.028, 1.011e-3
-2.029, 1.011e-3
-2.030, 1.011e-3
-2.031, 1.011e-3
-2.032, 1.011e-3
-2.033, 1.011e-3
-2.034, 1.011e-3
-2.035, 1.011e-3
-2.036, 1.011e-3
-2.037, 1.011e-3
-2.038, 1.011e-3
-2.039, 1.011e-3
-2.040, 1.011e-3
-2.041, 1.011e-3
-2.042, 1.011e-3
-2.043, 1.011e-3
-2.044, 1.011e-3
-2.045, 1.011e-3
-2.046, 1.011e-3
-2.047, 1.011e-3
-2.048, 1.011e-3
-2.049, 1.011e-3
-2.050, 1.011e-3
-2.051, 1.011e-3
-2.052, 1.011e-3
-2.053, 1.011e-3
-2.054, 1.011e-3
-2.055, 1.011e-3
-2.056, 1.011e-3
-2.057, 1.011e-3
-2.058, 1.011e-3
-2.059, 1.011e-3
-2.060, 1.011e-3
-2.061, 1.011e-3
-2.062, 1.011e-3
-2.063, 1.011e-3
-2.064, 1.011e-3
-2.065, 1.011e-3
-2.066, 1.011e-3
-2.067, 1.011e-3
-2.068, 1.011e-3
-2.069, 1.011e-3
-2.070, 1.011e-3
-2.071, 1.011e-3
-2.072, 1.011e-3
-2.073, 1.011e-3
-2.074, 1.011e-3
-2.075, 1.011e-3
-2.076, 1.011e-3
-2.077, 1.011e-3
-2.078, 1.011e-3
-2.079, 1.011e-3
-2.080, 1.011e-3
-2.081, 1.011e-3
-2.082, 1.011e-3
-2.083, 1.011e-3
-2.084, 1.011e-3
-2.085, 1.011e-3
-2.086, 1.011e-3
-2.087, 1.011e-3
-2.088, 1.011e-3
-2.089, 1.011e-3
-2.090, 1.011e-3
-2.091, 1.011e-3
-2.092, 1.011e-3
-2.093, 1.011e-3
-2.094, 1.011e-3
-2.095, 1.011e-3
-2.096, 1.011e-3
-2.097, 1.011e-3
-2.098, 1.011e-3
-2.099, 1.011e-3
