Sept. 13, 2024   04:44:49
Linear Sweep Voltammetry
File: c:/users/guazh/data/20240903_batch_252_500/2024-09-03-exp339\1acid_2ac-2024-09-13t04_41_39-lsvinphos\1acid_2ac_lsv_50mvs_efin_-2300mv.bin
Data Source:  Experiment
Instrument Model:  CHI760E
Header: LSV ran at 50 mVs with Efin at -2300mV
Note: 

Init E (V) = -0.6
Final E (V) = -2.3
Scan Rate (V/s) = 0.05
Sample Interval (V) = 0.001
Quiet Time (sec) = 2
Sensitivity (A/V) = 1e-4
Comp R (ohm) = 11.4

Results:

Channel 1:
Ep = -1.199V
ip = 2.624e-5A
Ah = 4.000e-5C

Ep = -1.888V
ip = 6.789e-4A
Ah = 8.388e-4C

Potential/V, Current/A

-0.600, 1.697e-5
-0.601, 1.709e-5
-0.602, 1.714e-5
-0.603, 1.719e-5
-0.604, 1.722e-5
-0.605, 1.726e-5
-0.606, 1.728e-5
-0.607, 1.731e-5
-0.608, 1.735e-5
-0.609, 1.736e-5
-0.610, 1.738e-5
-0.611, 1.740e-5
-0.612, 1.741e-5
-0.613, 1.743e-5
-0.614, 1.744e-5
-0.615, 1.745e-5
-0.616, 1.746e-5
-0.617, 1.747e-5
-0.618, 1.749e-5
-0.619, 1.750e-5
-0.620, 1.751e-5
-0.621, 1.754e-5
-0.622, 1.756e-5
-0.623, 1.756e-5
-0.624, 1.757e-5
-0.625, 1.757e-5
-0.626, 1.757e-5
-0.627, 1.757e-5
-0.628, 1.758e-5
-0.629, 1.758e-5
-0.630, 1.758e-5
-0.631, 1.757e-5
-0.632, 1.756e-5
-0.633, 1.756e-5
-0.634, 1.757e-5
-0.635, 1.759e-5
-0.636, 1.759e-5
-0.637, 1.759e-5
-0.638, 1.759e-5
-0.639, 1.758e-5
-0.640, 1.757e-5
-0.641, 1.757e-5
-0.642, 1.758e-5
-0.643, 1.757e-5
-0.644, 1.757e-5
-0.645, 1.757e-5
-0.646, 1.756e-5
-0.647, 1.756e-5
-0.648, 1.755e-5
-0.649, 1.754e-5
-0.650, 1.755e-5
-0.651, 1.756e-5
-0.652, 1.756e-5
-0.653, 1.756e-5
-0.654, 1.756e-5
-0.655, 1.755e-5
-0.656, 1.755e-5
-0.657, 1.754e-5
-0.658, 1.753e-5
-0.659, 1.752e-5
-0.660, 1.751e-5
-0.661, 1.749e-5
-0.662, 1.747e-5
-0.663, 1.746e-5
-0.664, 1.746e-5
-0.665, 1.745e-5
-0.666, 1.743e-5
-0.667, 1.742e-5
-0.668, 1.741e-5
-0.669, 1.740e-5
-0.670, 1.738e-5
-0.671, 1.738e-5
-0.672, 1.737e-5
-0.673, 1.736e-5
-0.674, 1.735e-5
-0.675, 1.735e-5
-0.676, 1.735e-5
-0.677, 1.734e-5
-0.678, 1.734e-5
-0.679, 1.734e-5
-0.680, 1.732e-5
-0.681, 1.731e-5
-0.682, 1.730e-5
-0.683, 1.728e-5
-0.684, 1.727e-5
-0.685, 1.726e-5
-0.686, 1.724e-5
-0.687, 1.725e-5
-0.688, 1.724e-5
-0.689, 1.723e-5
-0.690, 1.721e-5
-0.691, 1.720e-5
-0.692, 1.719e-5
-0.693, 1.718e-5
-0.694, 1.717e-5
-0.695, 1.716e-5
-0.696, 1.715e-5
-0.697, 1.714e-5
-0.698, 1.713e-5
-0.699, 1.712e-5
-0.700, 1.711e-5
-0.701, 1.708e-5
-0.702, 1.707e-5
-0.703, 1.705e-5
-0.704, 1.703e-5
-0.705, 1.702e-5
-0.706, 1.701e-5
-0.707, 1.701e-5
-0.708, 1.699e-5
-0.709, 1.695e-5
-0.710, 1.693e-5
-0.711, 1.692e-5
-0.712, 1.690e-5
-0.713, 1.689e-5
-0.714, 1.687e-5
-0.715, 1.686e-5
-0.716, 1.684e-5
-0.717, 1.684e-5
-0.718, 1.683e-5
-0.719, 1.681e-5
-0.720, 1.680e-5
-0.721, 1.679e-5
-0.722, 1.678e-5
-0.723, 1.677e-5
-0.724, 1.676e-5
-0.725, 1.675e-5
-0.726, 1.675e-5
-0.727, 1.675e-5
-0.728, 1.676e-5
-0.729, 1.676e-5
-0.730, 1.674e-5
-0.731, 1.672e-5
-0.732, 1.671e-5
-0.733, 1.667e-5
-0.734, 1.666e-5
-0.735, 1.664e-5
-0.736, 1.662e-5
-0.737, 1.662e-5
-0.738, 1.660e-5
-0.739, 1.656e-5
-0.740, 1.655e-5
-0.741, 1.655e-5
-0.742, 1.653e-5
-0.743, 1.651e-5
-0.744, 1.650e-5
-0.745, 1.648e-5
-0.746, 1.647e-5
-0.747, 1.647e-5
-0.748, 1.645e-5
-0.749, 1.644e-5
-0.750, 1.645e-5
-0.751, 1.645e-5
-0.752, 1.642e-5
-0.753, 1.641e-5
-0.754, 1.640e-5
-0.755, 1.640e-5
-0.756, 1.638e-5
-0.757, 1.638e-5
-0.758, 1.637e-5
-0.759, 1.636e-5
-0.760, 1.635e-5
-0.761, 1.634e-5
-0.762, 1.632e-5
-0.763, 1.631e-5
-0.764, 1.630e-5
-0.765, 1.630e-5
-0.766, 1.630e-5
-0.767, 1.629e-5
-0.768, 1.628e-5
-0.769, 1.627e-5
-0.770, 1.627e-5
-0.771, 1.626e-5
-0.772, 1.625e-5
-0.773, 1.624e-5
-0.774, 1.625e-5
-0.775, 1.632e-5
-0.776, 1.630e-5
-0.777, 1.628e-5
-0.778, 1.625e-5
-0.779, 1.624e-5
-0.780, 1.623e-5
-0.781, 1.622e-5
-0.782, 1.622e-5
-0.783, 1.623e-5
-0.784, 1.625e-5
-0.785, 1.630e-5
-0.786, 1.627e-5
-0.787, 1.624e-5
-0.788, 1.623e-5
-0.789, 1.622e-5
-0.790, 1.621e-5
-0.791, 1.620e-5
-0.792, 1.620e-5
-0.793, 1.619e-5
-0.794, 1.619e-5
-0.795, 1.618e-5
-0.796, 1.618e-5
-0.797, 1.618e-5
-0.798, 1.617e-5
-0.799, 1.617e-5
-0.800, 1.617e-5
-0.801, 1.617e-5
-0.802, 1.616e-5
-0.803, 1.616e-5
-0.804, 1.616e-5
-0.805, 1.616e-5
-0.806, 1.615e-5
-0.807, 1.615e-5
-0.808, 1.615e-5
-0.809, 1.616e-5
-0.810, 1.617e-5
-0.811, 1.617e-5
-0.812, 1.617e-5
-0.813, 1.616e-5
-0.814, 1.616e-5
-0.815, 1.616e-5
-0.816, 1.616e-5
-0.817, 1.617e-5
-0.818, 1.616e-5
-0.819, 1.617e-5
-0.820, 1.617e-5
-0.821, 1.617e-5
-0.822, 1.617e-5
-0.823, 1.617e-5
-0.824, 1.618e-5
-0.825, 1.618e-5
-0.826, 1.618e-5
-0.827, 1.618e-5
-0.828, 1.619e-5
-0.829, 1.619e-5
-0.830, 1.619e-5
-0.831, 1.619e-5
-0.832, 1.619e-5
-0.833, 1.620e-5
-0.834, 1.620e-5
-0.835, 1.620e-5
-0.836, 1.620e-5
-0.837, 1.621e-5
-0.838, 1.621e-5
-0.839, 1.621e-5
-0.840, 1.621e-5
-0.841, 1.621e-5
-0.842, 1.622e-5
-0.843, 1.622e-5
-0.844, 1.623e-5
-0.845, 1.624e-5
-0.846, 1.624e-5
-0.847, 1.624e-5
-0.848, 1.625e-5
-0.849, 1.625e-5
-0.850, 1.625e-5
-0.851, 1.626e-5
-0.852, 1.626e-5
-0.853, 1.627e-5
-0.854, 1.627e-5
-0.855, 1.627e-5
-0.856, 1.628e-5
-0.857, 1.628e-5
-0.858, 1.629e-5
-0.859, 1.629e-5
-0.860, 1.630e-5
-0.861, 1.630e-5
-0.862, 1.631e-5
-0.863, 1.631e-5
-0.864, 1.631e-5
-0.865, 1.632e-5
-0.866, 1.632e-5
-0.867, 1.633e-5
-0.868, 1.633e-5
-0.869, 1.634e-5
-0.870, 1.634e-5
-0.871, 1.635e-5
-0.872, 1.635e-5
-0.873, 1.636e-5
-0.874, 1.636e-5
-0.875, 1.637e-5
-0.876, 1.637e-5
-0.877, 1.637e-5
-0.878, 1.638e-5
-0.879, 1.638e-5
-0.880, 1.638e-5
-0.881, 1.639e-5
-0.882, 1.639e-5
-0.883, 1.640e-5
-0.884, 1.640e-5
-0.885, 1.641e-5
-0.886, 1.641e-5
-0.887, 1.641e-5
-0.888, 1.642e-5
-0.889, 1.642e-5
-0.890, 1.642e-5
-0.891, 1.643e-5
-0.892, 1.643e-5
-0.893, 1.643e-5
-0.894, 1.644e-5
-0.895, 1.644e-5
-0.896, 1.644e-5
-0.897, 1.645e-5
-0.898, 1.645e-5
-0.899, 1.646e-5
-0.900, 1.645e-5
-0.901, 1.646e-5
-0.902, 1.647e-5
-0.903, 1.647e-5
-0.904, 1.647e-5
-0.905, 1.648e-5
-0.906, 1.648e-5
-0.907, 1.648e-5
-0.908, 1.649e-5
-0.909, 1.649e-5
-0.910, 1.649e-5
-0.911, 1.649e-5
-0.912, 1.649e-5
-0.913, 1.650e-5
-0.914, 1.650e-5
-0.915, 1.650e-5
-0.916, 1.650e-5
-0.917, 1.650e-5
-0.918, 1.651e-5
-0.919, 1.651e-5
-0.920, 1.652e-5
-0.921, 1.652e-5
-0.922, 1.652e-5
-0.923, 1.652e-5
-0.924, 1.653e-5
-0.925, 1.653e-5
-0.926, 1.653e-5
-0.927, 1.653e-5
-0.928, 1.653e-5
-0.929, 1.653e-5
-0.930, 1.653e-5
-0.931, 1.654e-5
-0.932, 1.654e-5
-0.933, 1.654e-5
-0.934, 1.654e-5
-0.935, 1.655e-5
-0.936, 1.654e-5
-0.937, 1.655e-5
-0.938, 1.655e-5
-0.939, 1.655e-5
-0.940, 1.656e-5
-0.941, 1.655e-5
-0.942, 1.655e-5
-0.943, 1.656e-5
-0.944, 1.656e-5
-0.945, 1.657e-5
-0.946, 1.657e-5
-0.947, 1.658e-5
-0.948, 1.658e-5
-0.949, 1.658e-5
-0.950, 1.658e-5
-0.951, 1.658e-5
-0.952, 1.659e-5
-0.953, 1.659e-5
-0.954, 1.659e-5
-0.955, 1.660e-5
-0.956, 1.660e-5
-0.957, 1.660e-5
-0.958, 1.661e-5
-0.959, 1.661e-5
-0.960, 1.661e-5
-0.961, 1.662e-5
-0.962, 1.662e-5
-0.963, 1.662e-5
-0.964, 1.663e-5
-0.965, 1.663e-5
-0.966, 1.664e-5
-0.967, 1.664e-5
-0.968, 1.664e-5
-0.969, 1.665e-5
-0.970, 1.665e-5
-0.971, 1.666e-5
-0.972, 1.667e-5
-0.973, 1.667e-5
-0.974, 1.668e-5
-0.975, 1.669e-5
-0.976, 1.670e-5
-0.977, 1.670e-5
-0.978, 1.671e-5
-0.979, 1.671e-5
-0.980, 1.671e-5
-0.981, 1.671e-5
-0.982, 1.673e-5
-0.983, 1.673e-5
-0.984, 1.674e-5
-0.985, 1.674e-5
-0.986, 1.675e-5
-0.987, 1.676e-5
-0.988, 1.677e-5
-0.989, 1.678e-5
-0.990, 1.678e-5
-0.991, 1.680e-5
-0.992, 1.680e-5
-0.993, 1.681e-5
-0.994, 1.683e-5
-0.995, 1.684e-5
-0.996, 1.685e-5
-0.997, 1.686e-5
-0.998, 1.687e-5
-0.999, 1.688e-5
-1.000, 1.689e-5
-1.001, 1.690e-5
-1.002, 1.691e-5
-1.003, 1.693e-5
-1.004, 1.694e-5
-1.005, 1.696e-5
-1.006, 1.697e-5
-1.007, 1.698e-5
-1.008, 1.700e-5
-1.009, 1.702e-5
-1.010, 1.703e-5
-1.011, 1.705e-5
-1.012, 1.708e-5
-1.013, 1.710e-5
-1.014, 1.712e-5
-1.015, 1.714e-5
-1.016, 1.716e-5
-1.017, 1.718e-5
-1.018, 1.721e-5
-1.019, 1.724e-5
-1.020, 1.727e-5
-1.021, 1.730e-5
-1.022, 1.732e-5
-1.023, 1.734e-5
-1.024, 1.737e-5
-1.025, 1.740e-5
-1.026, 1.743e-5
-1.027, 1.745e-5
-1.028, 1.748e-5
-1.029, 1.752e-5
-1.030, 1.756e-5
-1.031, 1.759e-5
-1.032, 1.762e-5
-1.033, 1.766e-5
-1.034, 1.771e-5
-1.035, 1.774e-5
-1.036, 1.778e-5
-1.037, 1.782e-5
-1.038, 1.786e-5
-1.039, 1.791e-5
-1.040, 1.795e-5
-1.041, 1.800e-5
-1.042, 1.804e-5
-1.043, 1.809e-5
-1.044, 1.813e-5
-1.045, 1.819e-5
-1.046, 1.824e-5
-1.047, 1.830e-5
-1.048, 1.836e-5
-1.049, 1.841e-5
-1.050, 1.848e-5
-1.051, 1.854e-5
-1.052, 1.861e-5
-1.053, 1.868e-5
-1.054, 1.876e-5
-1.055, 1.883e-5
-1.056, 1.891e-5
-1.057, 1.897e-5
-1.058, 1.905e-5
-1.059, 1.912e-5
-1.060, 1.920e-5
-1.061, 1.928e-5
-1.062, 1.936e-5
-1.063, 1.945e-5
-1.064, 1.953e-5
-1.065, 1.961e-5
-1.066, 1.969e-5
-1.067, 1.978e-5
-1.068, 1.987e-5
-1.069, 1.997e-5
-1.070, 2.006e-5
-1.071, 2.015e-5
-1.072, 2.025e-5
-1.073, 2.036e-5
-1.074, 2.047e-5
-1.075, 2.057e-5
-1.076, 2.068e-5
-1.077, 2.078e-5
-1.078, 2.089e-5
-1.079, 2.100e-5
-1.080, 2.112e-5
-1.081, 2.124e-5
-1.082, 2.137e-5
-1.083, 2.150e-5
-1.084, 2.161e-5
-1.085, 2.174e-5
-1.086, 2.187e-5
-1.087, 2.199e-5
-1.088, 2.213e-5
-1.089, 2.226e-5
-1.090, 2.240e-5
-1.091, 2.255e-5
-1.092, 2.268e-5
-1.093, 2.284e-5
-1.094, 2.299e-5
-1.095, 2.313e-5
-1.096, 2.329e-5
-1.097, 2.345e-5
-1.098, 2.362e-5
-1.099, 2.379e-5
-1.100, 2.397e-5
-1.101, 2.416e-5
-1.102, 2.434e-5
-1.103, 2.452e-5
-1.104, 2.470e-5
-1.105, 2.489e-5
-1.106, 2.508e-5
-1.107, 2.528e-5
-1.108, 2.547e-5
-1.109, 2.566e-5
-1.110, 2.585e-5
-1.111, 2.605e-5
-1.112, 2.623e-5
-1.113, 2.644e-5
-1.114, 2.664e-5
-1.115, 2.682e-5
-1.116, 2.704e-5
-1.117, 2.726e-5
-1.118, 2.747e-5
-1.119, 2.768e-5
-1.120, 2.789e-5
-1.121, 2.811e-5
-1.122, 2.834e-5
-1.123, 2.856e-5
-1.124, 2.879e-5
-1.125, 2.902e-5
-1.126, 2.924e-5
-1.127, 2.948e-5
-1.128, 2.972e-5
-1.129, 2.996e-5
-1.130, 3.021e-5
-1.131, 3.047e-5
-1.132, 3.073e-5
-1.133, 3.097e-5
-1.134, 3.124e-5
-1.135, 3.152e-5
-1.136, 3.177e-5
-1.137, 3.204e-5
-1.138, 3.230e-5
-1.139, 3.256e-5
-1.140, 3.285e-5
-1.141, 3.311e-5
-1.142, 3.336e-5
-1.143, 3.366e-5
-1.144, 3.393e-5
-1.145, 3.420e-5
-1.146, 3.445e-5
-1.147, 3.472e-5
-1.148, 3.500e-5
-1.149, 3.528e-5
-1.150, 3.554e-5
-1.151, 3.581e-5
-1.152, 3.606e-5
-1.153, 3.633e-5
-1.154, 3.659e-5
-1.155, 3.687e-5
-1.156, 3.714e-5
-1.157, 3.737e-5
-1.158, 3.759e-5
-1.159, 3.782e-5
-1.160, 3.809e-5
-1.161, 3.833e-5
-1.162, 3.859e-5
-1.163, 3.882e-5
-1.164, 3.905e-5
-1.165, 3.927e-5
-1.166, 3.952e-5
-1.167, 3.977e-5
-1.168, 4.000e-5
-1.169, 4.018e-5
-1.170, 4.039e-5
-1.171, 4.061e-5
-1.172, 4.079e-5
-1.173, 4.100e-5
-1.174, 4.117e-5
-1.175, 4.137e-5
-1.176, 4.154e-5
-1.177, 4.172e-5
-1.178, 4.190e-5
-1.179, 4.204e-5
-1.180, 4.221e-5
-1.181, 4.236e-5
-1.182, 4.249e-5
-1.183, 4.256e-5
-1.184, 4.265e-5
-1.185, 4.279e-5
-1.186, 4.288e-5
-1.187, 4.297e-5
-1.188, 4.309e-5
-1.189, 4.315e-5
-1.190, 4.323e-5
-1.191, 4.329e-5
-1.192, 4.337e-5
-1.193, 4.342e-5
-1.194, 4.343e-5
-1.195, 4.350e-5
-1.196, 4.354e-5
-1.197, 4.355e-5
-1.198, 4.355e-5
-1.199, 4.356e-5
-1.200, 4.353e-5
-1.201, 4.354e-5
-1.202, 4.351e-5
-1.203, 4.349e-5
-1.204, 4.349e-5
-1.205, 4.340e-5
-1.206, 4.338e-5
-1.207, 4.333e-5
-1.208, 4.329e-5
-1.209, 4.328e-5
-1.210, 4.316e-5
-1.211, 4.309e-5
-1.212, 4.302e-5
-1.213, 4.294e-5
-1.214, 4.284e-5
-1.215, 4.278e-5
-1.216, 4.271e-5
-1.217, 4.263e-5
-1.218, 4.254e-5
-1.219, 4.243e-5
-1.220, 4.232e-5
-1.221, 4.222e-5
-1.222, 4.215e-5
-1.223, 4.202e-5
-1.224, 4.189e-5
-1.225, 4.183e-5
-1.226, 4.174e-5
-1.227, 4.162e-5
-1.228, 4.155e-5
-1.229, 4.146e-5
-1.230, 4.135e-5
-1.231, 4.124e-5
-1.232, 4.111e-5
-1.233, 4.101e-5
-1.234, 4.090e-5
-1.235, 4.082e-5
-1.236, 4.068e-5
-1.237, 4.066e-5
-1.238, 4.052e-5
-1.239, 4.039e-5
-1.240, 4.032e-5
-1.241, 4.021e-5
-1.242, 4.016e-5
-1.243, 4.006e-5
-1.244, 3.995e-5
-1.245, 3.984e-5
-1.246, 3.977e-5
-1.247, 3.966e-5
-1.248, 3.956e-5
-1.249, 3.952e-5
-1.250, 3.946e-5
-1.251, 3.943e-5
-1.252, 3.935e-5
-1.253, 3.923e-5
-1.254, 3.916e-5
-1.255, 3.908e-5
-1.256, 3.903e-5
-1.257, 3.891e-5
-1.258, 3.890e-5
-1.259, 3.882e-5
-1.260, 3.877e-5
-1.261, 3.872e-5
-1.262, 3.864e-5
-1.263, 3.854e-5
-1.264, 3.847e-5
-1.265, 3.839e-5
-1.266, 3.835e-5
-1.267, 3.828e-5
-1.268, 3.820e-5
-1.269, 3.814e-5
-1.270, 3.808e-5
-1.271, 3.800e-5
-1.272, 3.792e-5
-1.273, 3.788e-5
-1.274, 3.782e-5
-1.275, 3.780e-5
-1.276, 3.773e-5
-1.277, 3.771e-5
-1.278, 3.765e-5
-1.279, 3.759e-5
-1.280, 3.755e-5
-1.281, 3.754e-5
-1.282, 3.749e-5
-1.283, 3.745e-5
-1.284, 3.743e-5
-1.285, 3.740e-5
-1.286, 3.738e-5
-1.287, 3.732e-5
-1.288, 3.725e-5
-1.289, 3.722e-5
-1.290, 3.717e-5
-1.291, 3.712e-5
-1.292, 3.710e-5
-1.293, 3.708e-5
-1.294, 3.705e-5
-1.295, 3.699e-5
-1.296, 3.700e-5
-1.297, 3.702e-5
-1.298, 3.701e-5
-1.299, 3.697e-5
-1.300, 3.694e-5
-1.301, 3.694e-5
-1.302, 3.696e-5
-1.303, 3.690e-5
-1.304, 3.689e-5
-1.305, 3.688e-5
-1.306, 3.686e-5
-1.307, 3.686e-5
-1.308, 3.685e-5
-1.309, 3.684e-5
-1.310, 3.685e-5
-1.311, 3.686e-5
-1.312, 3.688e-5
-1.313, 3.689e-5
-1.314, 3.688e-5
-1.315, 3.689e-5
-1.316, 3.692e-5
-1.317, 3.699e-5
-1.318, 3.701e-5
-1.319, 3.702e-5
-1.320, 3.702e-5
-1.321, 3.702e-5
-1.322, 3.704e-5
-1.323, 3.707e-5
-1.324, 3.711e-5
-1.325, 3.715e-5
-1.326, 3.718e-5
-1.327, 3.722e-5
-1.328, 3.726e-5
-1.329, 3.730e-5
-1.330, 3.735e-5
-1.331, 3.741e-5
-1.332, 3.744e-5
-1.333, 3.744e-5
-1.334, 3.750e-5
-1.335, 3.756e-5
-1.336, 3.764e-5
-1.337, 3.772e-5
-1.338, 3.778e-5
-1.339, 3.784e-5
-1.340, 3.792e-5
-1.341, 3.792e-5
-1.342, 3.795e-5
-1.343, 3.802e-5
-1.344, 3.809e-5
-1.345, 3.815e-5
-1.346, 3.826e-5
-1.347, 3.835e-5
-1.348, 3.844e-5
-1.349, 3.849e-5
-1.350, 3.855e-5
-1.351, 3.861e-5
-1.352, 3.863e-5
-1.353, 3.865e-5
-1.354, 3.864e-5
-1.355, 3.861e-5
-1.356, 3.861e-5
-1.357, 3.865e-5
-1.358, 3.871e-5
-1.359, 3.872e-5
-1.360, 3.874e-5
-1.361, 3.878e-5
-1.362, 3.882e-5
-1.363, 3.884e-5
-1.364, 3.889e-5
-1.365, 3.892e-5
-1.366, 3.897e-5
-1.367, 3.904e-5
-1.368, 3.914e-5
-1.369, 3.915e-5
-1.370, 3.917e-5
-1.371, 3.922e-5
-1.372, 3.926e-5
-1.373, 3.932e-5
-1.374, 3.938e-5
-1.375, 3.942e-5
-1.376, 3.948e-5
-1.377, 3.953e-5
-1.378, 3.959e-5
-1.379, 3.963e-5
-1.380, 3.973e-5
-1.381, 3.984e-5
-1.382, 3.995e-5
-1.383, 4.004e-5
-1.384, 4.009e-5
-1.385, 4.010e-5
-1.386, 4.018e-5
-1.387, 4.014e-5
-1.388, 4.012e-5
-1.389, 4.016e-5
-1.390, 4.022e-5
-1.391, 4.027e-5
-1.392, 4.034e-5
-1.393, 4.040e-5
-1.394, 4.048e-5
-1.395, 4.057e-5
-1.396, 4.061e-5
-1.397, 4.064e-5
-1.398, 4.071e-5
-1.399, 4.081e-5
-1.400, 4.086e-5
-1.401, 4.091e-5
-1.402, 4.098e-5
-1.403, 4.106e-5
-1.404, 4.111e-5
-1.405, 4.118e-5
-1.406, 4.127e-5
-1.407, 4.136e-5
-1.408, 4.145e-5
-1.409, 4.151e-5
-1.410, 4.157e-5
-1.411, 4.161e-5
-1.412, 4.169e-5
-1.413, 4.178e-5
-1.414, 4.184e-5
-1.415, 4.187e-5
-1.416, 4.194e-5
-1.417, 4.204e-5
-1.418, 4.211e-5
-1.419, 4.220e-5
-1.420, 4.228e-5
-1.421, 4.235e-5
-1.422, 4.239e-5
-1.423, 4.242e-5
-1.424, 4.247e-5
-1.425, 4.252e-5
-1.426, 4.259e-5
-1.427, 4.265e-5
-1.428, 4.275e-5
-1.429, 4.283e-5
-1.430, 4.288e-5
-1.431, 4.297e-5
-1.432, 4.309e-5
-1.433, 4.317e-5
-1.434, 4.324e-5
-1.435, 4.333e-5
-1.436, 4.340e-5
-1.437, 4.354e-5
-1.438, 4.375e-5
-1.439, 4.381e-5
-1.440, 4.391e-5
-1.441, 4.397e-5
-1.442, 4.398e-5
-1.443, 4.409e-5
-1.444, 4.414e-5
-1.445, 4.426e-5
-1.446, 4.440e-5
-1.447, 4.454e-5
-1.448, 4.470e-5
-1.449, 4.489e-5
-1.450, 4.510e-5
-1.451, 4.534e-5
-1.452, 4.560e-5
-1.453, 4.587e-5
-1.454, 4.612e-5
-1.455, 4.629e-5
-1.456, 4.649e-5
-1.457, 4.667e-5
-1.458, 4.688e-5
-1.459, 4.716e-5
-1.460, 4.718e-5
-1.461, 4.722e-5
-1.462, 4.726e-5
-1.463, 4.732e-5
-1.464, 4.739e-5
-1.465, 4.745e-5
-1.466, 4.739e-5
-1.467, 4.734e-5
-1.468, 4.732e-5
-1.469, 4.735e-5
-1.470, 4.740e-5
-1.471, 4.749e-5
-1.472, 4.766e-5
-1.473, 4.789e-5
-1.474, 4.800e-5
-1.475, 4.808e-5
-1.476, 4.809e-5
-1.477, 4.814e-5
-1.478, 4.829e-5
-1.479, 4.865e-5
-1.480, 4.870e-5
-1.481, 4.866e-5
-1.482, 4.877e-5
-1.483, 4.885e-5
-1.484, 4.892e-5
-1.485, 4.902e-5
-1.486, 4.926e-5
-1.487, 4.930e-5
-1.488, 4.933e-5
-1.489, 4.940e-5
-1.490, 4.952e-5
-1.491, 4.955e-5
-1.492, 4.958e-5
-1.493, 4.967e-5
-1.494, 4.977e-5
-1.495, 4.986e-5
-1.496, 4.990e-5
-1.497, 5.013e-5
-1.498, 5.042e-5
-1.499, 5.048e-5
-1.500, 5.055e-5
-1.501, 5.056e-5
-1.502, 5.074e-5
-1.503, 5.118e-5
-1.504, 5.142e-5
-1.505, 5.172e-5
-1.506, 5.210e-5
-1.507, 5.244e-5
-1.508, 5.279e-5
-1.509, 5.295e-5
-1.510, 5.307e-5
-1.511, 5.306e-5
-1.512, 5.296e-5
-1.513, 5.301e-5
-1.514, 5.335e-5
-1.515, 5.370e-5
-1.516, 5.383e-5
-1.517, 5.383e-5
-1.518, 5.401e-5
-1.519, 5.415e-5
-1.520, 5.420e-5
-1.521, 5.420e-5
-1.522, 5.429e-5
-1.523, 5.447e-5
-1.524, 5.469e-5
-1.525, 5.494e-5
-1.526, 5.488e-5
-1.527, 5.500e-5
-1.528, 5.523e-5
-1.529, 5.530e-5
-1.530, 5.542e-5
-1.531, 5.553e-5
-1.532, 5.578e-5
-1.533, 5.589e-5
-1.534, 5.596e-5
-1.535, 5.608e-5
-1.536, 5.624e-5
-1.537, 5.651e-5
-1.538, 5.668e-5
-1.539, 5.706e-5
-1.540, 5.731e-5
-1.541, 5.756e-5
-1.542, 5.795e-5
-1.543, 5.842e-5
-1.544, 5.880e-5
-1.545, 5.909e-5
-1.546, 5.937e-5
-1.547, 5.951e-5
-1.548, 5.974e-5
-1.549, 6.013e-5
-1.550, 6.049e-5
-1.551, 6.091e-5
-1.552, 6.127e-5
-1.553, 6.153e-5
-1.554, 6.190e-5
-1.555, 6.223e-5
-1.556, 6.255e-5
-1.557, 6.291e-5
-1.558, 6.359e-5
-1.559, 6.390e-5
-1.560, 6.402e-5
-1.561, 6.427e-5
-1.562, 6.435e-5
-1.563, 6.437e-5
-1.564, 6.445e-5
-1.565, 6.458e-5
-1.566, 6.482e-5
-1.567, 6.494e-5
-1.568, 6.515e-5
-1.569, 6.534e-5
-1.570, 6.556e-5
-1.571, 6.581e-5
-1.572, 6.606e-5
-1.573, 6.633e-5
-1.574, 6.693e-5
-1.575, 6.720e-5
-1.576, 6.734e-5
-1.577, 6.756e-5
-1.578, 6.783e-5
-1.579, 6.819e-5
-1.580, 6.848e-5
-1.581, 6.849e-5
-1.582, 6.867e-5
-1.583, 6.900e-5
-1.584, 6.943e-5
-1.585, 6.977e-5
-1.586, 7.023e-5
-1.587, 7.061e-5
-1.588, 7.106e-5
-1.589, 7.167e-5
-1.590, 7.246e-5
-1.591, 7.269e-5
-1.592, 7.294e-5
-1.593, 7.336e-5
-1.594, 7.382e-5
-1.595, 7.427e-5
-1.596, 7.473e-5
-1.597, 7.510e-5
-1.598, 7.543e-5
-1.599, 7.573e-5
-1.600, 7.601e-5
-1.601, 7.619e-5
-1.602, 7.634e-5
-1.603, 7.660e-5
-1.604, 7.682e-5
-1.605, 7.699e-5
-1.606, 7.721e-5
-1.607, 7.754e-5
-1.608, 7.797e-5
-1.609, 7.847e-5
-1.610, 7.888e-5
-1.611, 7.936e-5
-1.612, 7.984e-5
-1.613, 8.040e-5
-1.614, 8.087e-5
-1.615, 8.150e-5
-1.616, 8.198e-5
-1.617, 8.249e-5
-1.618, 8.292e-5
-1.619, 8.346e-5
-1.620, 8.404e-5
-1.621, 8.466e-5
-1.622, 8.513e-5
-1.623, 8.566e-5
-1.624, 8.620e-5
-1.625, 8.696e-5
-1.626, 8.773e-5
-1.627, 8.846e-5
-1.628, 8.899e-5
-1.629, 8.947e-5
-1.630, 8.983e-5
-1.631, 9.022e-5
-1.632, 9.060e-5
-1.633, 9.112e-5
-1.634, 9.156e-5
-1.635, 9.194e-5
-1.636, 9.241e-5
-1.637, 9.313e-5
-1.638, 9.384e-5
-1.639, 9.448e-5
-1.640, 9.511e-5
-1.641, 9.587e-5
-1.642, 9.657e-5
-1.643, 9.717e-5
-1.644, 9.774e-5
-1.645, 9.860e-5
-1.646, 9.945e-5
-1.647, 1.001e-4
-1.648, 1.008e-4
-1.649, 1.014e-4
-1.650, 1.022e-4
-1.651, 1.035e-4
-1.652, 1.045e-4
-1.653, 1.054e-4
-1.654, 1.062e-4
-1.655, 1.075e-4
-1.656, 1.087e-4
-1.657, 1.099e-4
-1.658, 1.107e-4
-1.659, 1.115e-4
-1.660, 1.122e-4
-1.661, 1.130e-4
-1.662, 1.140e-4
-1.663, 1.152e-4
-1.664, 1.164e-4
-1.665, 1.174e-4
-1.666, 1.184e-4
-1.667, 1.196e-4
-1.668, 1.207e-4
-1.669, 1.218e-4
-1.670, 1.230e-4
-1.671, 1.240e-4
-1.672, 1.251e-4
-1.673, 1.264e-4
-1.674, 1.278e-4
-1.675, 1.289e-4
-1.676, 1.299e-4
-1.677, 1.310e-4
-1.678, 1.323e-4
-1.679, 1.335e-4
-1.680, 1.348e-4
-1.681, 1.359e-4
-1.682, 1.370e-4
-1.683, 1.381e-4
-1.684, 1.393e-4
-1.685, 1.404e-4
-1.686, 1.414e-4
-1.687, 1.424e-4
-1.688, 1.435e-4
-1.689, 1.449e-4
-1.690, 1.463e-4
-1.691, 1.476e-4
-1.692, 1.492e-4
-1.693, 1.509e-4
-1.694, 1.523e-4
-1.695, 1.533e-4
-1.696, 1.546e-4
-1.697, 1.560e-4
-1.698, 1.575e-4
-1.699, 1.589e-4
-1.700, 1.602e-4
-1.701, 1.616e-4
-1.702, 1.630e-4
-1.703, 1.644e-4
-1.704, 1.658e-4
-1.705, 1.674e-4
-1.706, 1.691e-4
-1.707, 1.706e-4
-1.708, 1.720e-4
-1.709, 1.735e-4
-1.710, 1.750e-4
-1.711, 1.765e-4
-1.712, 1.779e-4
-1.713, 1.791e-4
-1.714, 1.805e-4
-1.715, 1.819e-4
-1.716, 1.835e-4
-1.717, 1.853e-4
-1.718, 1.868e-4
-1.719, 1.886e-4
-1.720, 1.907e-4
-1.721, 1.927e-4
-1.722, 1.946e-4
-1.723, 1.964e-4
-1.724, 1.983e-4
-1.725, 2.002e-4
-1.726, 2.020e-4
-1.727, 2.039e-4
-1.728, 2.059e-4
-1.729, 2.077e-4
-1.730, 2.095e-4
-1.731, 2.113e-4
-1.732, 2.134e-4
-1.733, 2.155e-4
-1.734, 2.175e-4
-1.735, 2.194e-4
-1.736, 2.215e-4
-1.737, 2.236e-4
-1.738, 2.256e-4
-1.739, 2.276e-4
-1.740, 2.297e-4
-1.741, 2.318e-4
-1.742, 2.339e-4
-1.743, 2.361e-4
-1.744, 2.386e-4
-1.745, 2.412e-4
-1.746, 2.436e-4
-1.747, 2.460e-4
-1.748, 2.485e-4
-1.749, 2.509e-4
-1.750, 2.534e-4
-1.751, 2.559e-4
-1.752, 2.585e-4
-1.753, 2.610e-4
-1.754, 2.634e-4
-1.755, 2.659e-4
-1.756, 2.685e-4
-1.757, 2.708e-4
-1.758, 2.733e-4
-1.759, 2.759e-4
-1.760, 2.786e-4
-1.761, 2.812e-4
-1.762, 2.839e-4
-1.763, 2.867e-4
-1.764, 2.894e-4
-1.765, 2.922e-4
-1.766, 2.954e-4
-1.767, 2.985e-4
-1.768, 3.014e-4
-1.769, 3.044e-4
-1.770, 3.079e-4
-1.771, 3.108e-4
-1.772, 3.139e-4
-1.773, 3.169e-4
-1.774, 3.202e-4
-1.775, 3.235e-4
-1.776, 3.268e-4
-1.777, 3.299e-4
-1.778, 3.331e-4
-1.779, 3.364e-4
-1.780, 3.398e-4
-1.781, 3.433e-4
-1.782, 3.469e-4
-1.783, 3.505e-4
-1.784, 3.541e-4
-1.785, 3.579e-4
-1.786, 3.616e-4
-1.787, 3.655e-4
-1.788, 3.693e-4
-1.789, 3.733e-4
-1.790, 3.773e-4
-1.791, 3.812e-4
-1.792, 3.852e-4
-1.793, 3.894e-4
-1.794, 3.936e-4
-1.795, 3.978e-4
-1.796, 4.020e-4
-1.797, 4.062e-4
-1.798, 4.105e-4
-1.799, 4.148e-4
-1.800, 4.193e-4
-1.801, 4.238e-4
-1.802, 4.284e-4
-1.803, 4.331e-4
-1.804, 4.377e-4
-1.805, 4.424e-4
-1.806, 4.472e-4
-1.807, 4.519e-4
-1.808, 4.566e-4
-1.809, 4.614e-4
-1.810, 4.663e-4
-1.811, 4.713e-4
-1.812, 4.765e-4
-1.813, 4.817e-4
-1.814, 4.870e-4
-1.815, 4.923e-4
-1.816, 4.975e-4
-1.817, 5.028e-4
-1.818, 5.082e-4
-1.819, 5.137e-4
-1.820, 5.192e-4
-1.821, 5.251e-4
-1.822, 5.309e-4
-1.823, 5.368e-4
-1.824, 5.428e-4
-1.825, 5.488e-4
-1.826, 5.547e-4
-1.827, 5.607e-4
-1.828, 5.667e-4
-1.829, 5.728e-4
-1.830, 5.789e-4
-1.831, 5.852e-4
-1.832, 5.915e-4
-1.833, 5.978e-4
-1.834, 6.042e-4
-1.835, 6.106e-4
-1.836, 6.171e-4
-1.837, 6.236e-4
-1.838, 6.302e-4
-1.839, 6.367e-4
-1.840, 6.434e-4
-1.841, 6.501e-4
-1.842, 6.568e-4
-1.843, 6.635e-4
-1.844, 6.705e-4
-1.845, 6.773e-4
-1.846, 6.844e-4
-1.847, 6.916e-4
-1.848, 6.987e-4
-1.849, 7.060e-4
-1.850, 7.132e-4
-1.851, 7.203e-4
-1.852, 7.276e-4
-1.853, 7.348e-4
-1.854, 7.421e-4
-1.855, 7.497e-4
-1.856, 7.569e-4
-1.857, 7.644e-4
-1.858, 7.717e-4
-1.859, 7.793e-4
-1.860, 7.870e-4
-1.861, 7.945e-4
-1.862, 8.021e-4
-1.863, 8.096e-4
-1.864, 8.174e-4
-1.865, 8.253e-4
-1.866, 8.331e-4
-1.867, 8.409e-4
-1.868, 8.488e-4
-1.869, 8.569e-4
-1.870, 8.650e-4
-1.871, 8.732e-4
-1.872, 8.814e-4
-1.873, 8.896e-4
-1.874, 8.979e-4
-1.875, 9.062e-4
-1.876, 9.146e-4
-1.877, 9.229e-4
-1.878, 9.316e-4
-1.879, 9.403e-4
-1.880, 9.489e-4
-1.881, 9.577e-4
-1.882, 9.664e-4
-1.883, 9.753e-4
-1.884, 9.841e-4
-1.885, 9.928e-4
-1.886, 1.002e-3
-1.887, 1.009e-3
-1.888, 1.011e-3
-1.889, 1.011e-3
-1.890, 1.011e-3
-1.891, 1.011e-3
-1.892, 1.011e-3
-1.893, 1.011e-3
-1.894, 1.011e-3
-1.895, 1.011e-3
-1.896, 1.011e-3
-1.897, 1.011e-3
-1.898, 1.011e-3
-1.899, 1.011e-3
-1.900, 1.011e-3
-1.901, 1.011e-3
-1.902, 1.011e-3
-1.903, 1.011e-3
-1.904, 1.011e-3
-1.905, 1.011e-3
-1.906, 1.011e-3
-1.907, 1.011e-3
-1.908, 1.011e-3
-1.909, 1.011e-3
-1.910, 1.011e-3
-1.911, 1.011e-3
-1.912, 1.011e-3
-1.913, 1.011e-3
-1.914, 1.011e-3
-1.915, 1.011e-3
-1.916, 1.011e-3
-1.917, 1.011e-3
-1.918, 1.011e-3
-1.919, 1.011e-3
-1.920, 1.011e-3
-1.921, 1.011e-3
-1.922, 1.011e-3
-1.923, 1.011e-3
-1.924, 1.011e-3
-1.925, 1.011e-3
-1.926, 1.011e-3
-1.927, 1.011e-3
-1.928, 1.011e-3
-1.929, 1.011e-3
-1.930, 1.011e-3
-1.931, 1.011e-3
-1.932, 1.011e-3
-1.933, 1.011e-3
-1.934, 1.011e-3
-1.935, 1.011e-3
-1.936, 1.011e-3
-1.937, 1.011e-3
-1.938, 1.011e-3
-1.939, 1.011e-3
-1.940, 1.011e-3
-1.941, 1.011e-3
-1.942, 1.011e-3
-1.943, 1.011e-3
-1.944, 1.011e-3
-1.945, 1.011e-3
-1.946, 1.011e-3
-1.947, 1.011e-3
-1.948, 1.011e-3
-1.949, 1.011e-3
-1.950, 1.011e-3
-1.951, 1.011e-3
-1.952, 1.011e-3
-1.953, 1.011e-3
-1.954, 1.011e-3
-1.955, 1.011e-3
-1.956, 1.011e-3
-1.957, 1.011e-3
-1.958, 1.011e-3
-1.959, 1.011e-3
-1.960, 1.011e-3
-1.961, 1.011e-3
-1.962, 1.011e-3
-1.963, 1.011e-3
-1.964, 1.011e-3
-1.965, 1.011e-3
-1.966, 1.011e-3
-1.967, 1.011e-3
-1.968, 1.011e-3
-1.969, 1.011e-3
-1.970, 1.011e-3
-1.971, 1.011e-3
-1.972, 1.011e-3
-1.973, 1.011e-3
-1.974, 1.011e-3
-1.975, 1.011e-3
-1.976, 1.011e-3
-1.977, 1.011e-3
-1.978, 1.011e-3
-1.979, 1.011e-3
-1.980, 1.011e-3
-1.981, 1.011e-3
-1.982, 1.011e-3
-1.983, 1.011e-3
-1.984, 1.011e-3
-1.985, 1.011e-3
-1.986, 1.011e-3
-1.987, 1.011e-3
-1.988, 1.011e-3
-1.989, 1.011e-3
-1.990, 1.011e-3
-1.991, 1.011e-3
-1.992, 1.011e-3
-1.993, 1.011e-3
-1.994, 1.011e-3
-1.995, 1.011e-3
-1.996, 1.011e-3
-1.997, 1.011e-3
-1.998, 1.011e-3
-1.999, 1.011e-3
-2.000, 1.011e-3
-2.001, 1.011e-3
-2.002, 1.011e-3
-2.003, 1.011e-3
-2.004, 1.011e-3
-2.005, 1.011e-3
-2.006, 1.011e-3
-2.007, 1.011e-3
-2.008, 1.011e-3
-2.009, 1.011e-3
-2.010, 1.011e-3
-2.011, 1.011e-3
-2.012, 1.011e-3
-2.013, 1.011e-3
-2.014, 1.011e-3
-2.015, 1.011e-3
-2.016, 1.011e-3
-2.017, 1.011e-3
-2.018, 1.011e-3
-2.019, 1.011e-3
-2.020, 1.011e-3
-2.021, 1.011e-3
-2.022, 1.011e-3
-2.023, 1.011e-3
-2.024, 1.011e-3
-2.025, 1.011e-3
-2.026, 1.011e-3
-2.027, 1.011e-3
-2.028, 1.011e-3
-2.029, 1.011e-3
-2.030, 1.011e-3
-2.031, 1.011e-3
-2.032, 1.011e-3
-2.033, 1.011e-3
-2.034, 1.011e-3
-2.035, 1.011e-3
-2.036, 1.011e-3
-2.037, 1.011e-3
-2.038, 1.011e-3
-2.039, 1.011e-3
-2.040, 1.011e-3
-2.041, 1.011e-3
-2.042, 1.011e-3
-2.043, 1.011e-3
-2.044, 1.011e-3
-2.045, 1.011e-3
-2.046, 1.011e-3
-2.047, 1.011e-3
-2.048, 1.011e-3
-2.049, 1.011e-3
-2.050, 1.011e-3
-2.051, 1.011e-3
-2.052, 1.011e-3
-2.053, 1.011e-3
-2.054, 1.011e-3
-2.055, 1.011e-3
-2.056, 1.011e-3
-2.057, 1.011e-3
-2.058, 1.011e-3
-2.059, 1.011e-3
-2.060, 1.011e-3
-2.061, 1.011e-3
-2.062, 1.011e-3
-2.063, 1.011e-3
-2.064, 1.011e-3
-2.065, 1.011e-3
-2.066, 1.011e-3
-2.067, 1.011e-3
-2.068, 1.011e-3
-2.069, 1.011e-3
-2.070, 1.011e-3
-2.071, 1.011e-3
-2.072, 1.011e-3
-2.073, 1.011e-3
-2.074, 1.011e-3
-2.075, 1.011e-3
-2.076, 1.011e-3
-2.077, 1.011e-3
-2.078, 1.011e-3
-2.079, 1.011e-3
-2.080, 1.011e-3
-2.081, 1.011e-3
-2.082, 1.011e-3
-2.083, 1.011e-3
-2.084, 1.011e-3
-2.085, 1.011e-3
-2.086, 1.011e-3
-2.087, 1.011e-3
-2.088, 1.011e-3
-2.089, 1.011e-3
-2.090, 1.011e-3
-2.091, 1.011e-3
-2.092, 1.011e-3
-2.093, 1.011e-3
-2.094, 1.011e-3
-2.095, 1.011e-3
-2.096, 1.011e-3
-2.097, 1.011e-3
-2.098, 1.011e-3
-2.099, 1.011e-3
-2.100, 1.011e-3
-2.101, 1.011e-3
-2.102, 1.011e-3
-2.103, 1.011e-3
-2.104, 1.011e-3
-2.105, 1.011e-3
-2.106, 1.011e-3
-2.107, 1.011e-3
-2.108, 1.011e-3
-2.109, 1.011e-3
-2.110, 1.011e-3
-2.111, 1.011e-3
-2.112, 1.011e-3
-2.113, 1.011e-3
-2.114, 1.011e-3
-2.115, 1.011e-3
-2.116, 1.011e-3
-2.117, 1.011e-3
-2.118, 1.011e-3
-2.119, 1.011e-3
-2.120, 1.011e-3
-2.121, 1.011e-3
-2.122, 1.011e-3
-2.123, 1.011e-3
-2.124, 1.011e-3
-2.125, 1.011e-3
-2.126, 1.011e-3
-2.127, 1.011e-3
-2.128, 1.011e-3
-2.129, 1.011e-3
-2.130, 1.011e-3
-2.131, 1.011e-3
-2.132, 1.011e-3
-2.133, 1.011e-3
-2.134, 1.011e-3
-2.135, 1.011e-3
-2.136, 1.011e-3
-2.137, 1.011e-3
-2.138, 1.011e-3
-2.139, 1.011e-3
-2.140, 1.011e-3
-2.141, 1.011e-3
-2.142, 1.011e-3
-2.143, 1.011e-3
-2.144, 1.011e-3
-2.145, 1.011e-3
-2.146, 1.011e-3
-2.147, 1.011e-3
-2.148, 1.011e-3
-2.149, 1.011e-3
-2.150, 1.011e-3
-2.151, 1.011e-3
-2.152, 1.011e-3
-2.153, 1.011e-3
-2.154, 1.011e-3
-2.155, 1.011e-3
-2.156, 1.011e-3
-2.157, 1.011e-3
-2.158, 1.011e-3
-2.159, 1.011e-3
-2.160, 1.011e-3
-2.161, 1.011e-3
-2.162, 1.011e-3
-2.163, 1.011e-3
-2.164, 1.011e-3
-2.165, 1.011e-3
-2.166, 1.011e-3
-2.167, 1.011e-3
-2.168, 1.011e-3
-2.169, 1.011e-3
-2.170, 1.011e-3
-2.171, 1.011e-3
-2.172, 1.011e-3
-2.173, 1.011e-3
-2.174, 1.011e-3
-2.175, 1.011e-3
-2.176, 1.011e-3
-2.177, 1.011e-3
-2.178, 1.011e-3
-2.179, 1.011e-3
-2.180, 1.011e-3
-2.181, 1.011e-3
-2.182, 1.011e-3
-2.183, 1.011e-3
-2.184, 1.011e-3
-2.185, 1.011e-3
-2.186, 1.011e-3
-2.187, 1.011e-3
-2.188, 1.011e-3
-2.189, 1.011e-3
-2.190, 1.011e-3
-2.191, 1.011e-3
-2.192, 1.011e-3
-2.193, 1.011e-3
-2.194, 1.011e-3
-2.195, 1.011e-3
-2.196, 1.011e-3
-2.197, 1.011e-3
-2.198, 1.011e-3
-2.199, 1.011e-3
-2.200, 1.011e-3
-2.201, 1.011e-3
-2.202, 1.011e-3
-2.203, 1.011e-3
-2.204, 1.011e-3
-2.205, 1.011e-3
-2.206, 1.011e-3
-2.207, 1.011e-3
-2.208, 1.011e-3
-2.209, 1.011e-3
-2.210, 1.011e-3
-2.211, 1.011e-3
-2.212, 1.011e-3
-2.213, 1.011e-3
-2.214, 1.011e-3
-2.215, 1.011e-3
-2.216, 1.011e-3
-2.217, 1.011e-3
-2.218, 1.011e-3
-2.219, 1.011e-3
-2.220, 1.011e-3
-2.221, 1.011e-3
-2.222, 1.011e-3
-2.223, 1.011e-3
-2.224, 1.011e-3
-2.225, 1.011e-3
-2.226, 1.011e-3
-2.227, 1.011e-3
-2.228, 1.011e-3
-2.229, 1.011e-3
-2.230, 1.011e-3
-2.231, 1.011e-3
-2.232, 1.011e-3
-2.233, 1.011e-3
-2.234, 1.011e-3
-2.235, 1.011e-3
-2.236, 1.011e-3
-2.237, 1.011e-3
-2.238, 1.011e-3
-2.239, 1.011e-3
-2.240, 1.011e-3
-2.241, 1.011e-3
-2.242, 1.011e-3
-2.243, 1.011e-3
-2.244, 1.011e-3
-2.245, 1.011e-3
-2.246, 1.011e-3
-2.247, 1.011e-3
-2.248, 1.011e-3
-2.249, 1.011e-3
-2.250, 1.011e-3
-2.251, 1.011e-3
-2.252, 1.011e-3
-2.253, 1.011e-3
-2.254, 1.011e-3
-2.255, 1.011e-3
-2.256, 1.011e-3
-2.257, 1.011e-3
-2.258, 1.011e-3
-2.259, 1.011e-3
-2.260, 1.011e-3
-2.261, 1.011e-3
-2.262, 1.011e-3
-2.263, 1.011e-3
-2.264, 1.011e-3
-2.265, 1.011e-3
-2.266, 1.011e-3
-2.267, 1.011e-3
-2.268, 1.011e-3
-2.269, 1.011e-3
-2.270, 1.011e-3
-2.271, 1.011e-3
-2.272, 1.011e-3
-2.273, 1.011e-3
-2.274, 1.011e-3
-2.275, 1.011e-3
-2.276, 1.011e-3
-2.277, 1.011e-3
-2.278, 1.011e-3
-2.279, 1.011e-3
-2.280, 1.011e-3
-2.281, 1.011e-3
-2.282, 1.011e-3
-2.283, 1.011e-3
-2.284, 1.011e-3
-2.285, 1.011e-3
-2.286, 1.011e-3
-2.287, 1.011e-3
-2.288, 1.011e-3
-2.289, 1.011e-3
-2.290, 1.011e-3
-2.291, 1.011e-3
-2.292, 1.011e-3
-2.293, 1.011e-3
-2.294, 1.011e-3
-2.295, 1.011e-3
-2.296, 1.011e-3
-2.297, 1.011e-3
-2.298, 1.011e-3
-2.299, 1.011e-3
