Potential V vs RHE, Current mA cm-2
0.013299999999999867,2.4007650758709675
0.012299999999999978,2.2522203893851382
0.011299999999999866,2.13762877409607
0.010299999999999976,2.045672539604843
0.009299999999999864,1.959375150313076
0.008299999999999974,1.892883719219419
0.007299999999999862,1.8278069994256272
0.006299999999999972,1.7655597022315657
0.00529999999999986,1.701897693737639
0.0042999999999999705,1.6382356852437125
0.0032999999999998586,1.5689148315503256
0.0022999999999999687,1.505252823056399
0.0012999999999998568,1.4458349484620676
0.00029999999999996696,1.3876903140376144
-0.000700000000000145,1.3332239289928105
-0.0017000000000000348,1.2796063707279257
-0.0027000000000001467,1.2329208978323796
-0.0037000000000000366,1.1893477897965363
-0.0047000000000001485,1.135871702661638
-0.005700000000000038,1.0930059502757274
-0.00670000000000015,1.0471693041601002
-0.00770000000000004,1.0055767919440681
-0.008700000000000152,0.9574766077486568
-0.009700000000000042,0.9126302595429352
-0.010700000000000154,0.8704718628069571
-0.011700000000000044,0.8307184752807496
-0.012700000000000156,0.7881356651548119
-0.013700000000000045,0.7520605270082534
-0.014700000000000157,0.711175370442154
-0.015700000000000047,0.6728366942158115
-0.01670000000000016,0.6335077200795635
-0.01770000000000005,0.5903590254336798
-0.01870000000000016,0.5545668295470944
-0.01970000000000005,0.5172184512306574
-0.020700000000000163,0.4842556779438021
-0.021700000000000053,0.45327350047675774
-0.022700000000000164,0.42229132300971345
-0.023700000000000054,0.38338676226342494
-0.024700000000000166,0.35169722914644813
-0.025700000000000056,0.31986622489948474
-0.026700000000000168,0.2894499319523865
-0.027700000000000058,0.2564871586655311
-0.02870000000000017,0.22564645232847336
-0.02970000000000006,0.19834252424107812
-0.03070000000000017,0.1696238848538179
-0.03170000000000006,0.1408628041275617
-0.03270000000000017,0.11295055018122453
-0.03370000000000006,0.08321331865806145
-0.034700000000000175,0.05627721550863116
-0.035700000000000065,0.025563833188561213
-0.03670000000000018,-0.000809497805782774
-0.03770000000000007,-0.025238449589592253
-0.03870000000000018,-0.05133987307210218
-0.03970000000000007,-0.07855891848150548
-0.04070000000000018,-0.10242509811022867
-0.04170000000000007,-0.12921973012967244
-0.04270000000000018,-0.1543450028152755
-0.04370000000000007,-0.17782921039303512
-0.044700000000000184,-0.20258665814067325
-0.045700000000000074,-0.2250805678085273
-0.046700000000000186,-0.2482818331263139
-0.047700000000000076,-0.2726148674839926
-0.04870000000000019,-0.29793819975157676
-0.04970000000000008,-0.3246762433190259
-0.05070000000000019,-0.34405778812717697
-0.05170000000000008,-0.36711758231497704
-0.05270000000000019,-0.3884797229429391
-0.05370000000000008,-0.40955892131092814
-0.05470000000000019,-0.43403342679859325
-0.05570000000000008,-0.45299055821678474
-0.056700000000000195,-0.4736453431948142
-0.057700000000000085,-0.49529042608274926
-0.058700000000000196,-0.5162281533207519
-0.059700000000000086,-0.5367414671687949
-0.0607000000000002,-0.556688896496892
-0.06170000000000009,-0.5798901618146786
-0.0627000000000002,-0.5995546488828025
-0.06370000000000009,-0.6190776648209401
-0.0647000000000002,-0.6386006807590775
-0.06570000000000009,-0.6585481100871745
-0.0667000000000002,-0.6799102507151367
-0.0677000000000001,-0.6998576800432337
-0.0687000000000002,-0.7193806959813712
-0.0697000000000001,-0.7377719428796167
-0.07070000000000021,-0.7534752383081186
-0.0717000000000001,-0.7725738408562965
-0.07270000000000021,-0.790965087754542
-0.0737000000000001,-0.81289311290245
-0.07470000000000021,-0.8329820133605336
-0.0757000000000001,-0.8499585489589141
-0.07670000000000021,-0.865944786647389
-0.0777000000000001,-0.8802333707760258
-0.07870000000000021,-0.8991905021942173
-0.0797000000000001,-0.9178646913524358
-0.08070000000000022,-0.9362559382506813
-0.0817000000000001,-0.9553545407988592
-0.08270000000000022,-0.9750190278669832
-0.08370000000000011,-0.9934102747652287
-0.08470000000000022,-1.0130747618333529
-0.08570000000000011,-1.0273633459619895
-0.08670000000000022,-1.0464619485101676
-0.08770000000000011,-1.0604675903788316
-0.08870000000000022,-1.0784344238871173
-0.08970000000000011,-1.0930059502757274
-0.09070000000000022,-1.1116801394339457
-0.09170000000000011,-1.1319105110220158
-0.09270000000000023,-1.1500188156602882
-0.09370000000000012,-1.1665709378687095
-0.09470000000000023,-1.1838304157270627
-0.09570000000000012,-1.2020801914953216
-0.09670000000000023,-1.2199055538736212
-0.09770000000000012,-1.2380138585118936
-0.09870000000000023,-1.2544245095903281
-0.09970000000000012,-1.2715425163186949
-0.10070000000000023,-1.2872458117471968
-0.10170000000000012,-1.3081835389851995
-0.10270000000000024,-1.3313848043029861
-0.10370000000000013,-1.3472295708614743
-0.10470000000000024,-1.3663281734096524
-0.10570000000000013,-1.377221450418613
-0.10670000000000024,-1.3934906303670611
-0.10770000000000013,-1.411457463875347
-0.10870000000000024,-1.4288584128636872
-0.10970000000000013,-1.4529085049613928
-0.11070000000000024,-1.4684703292599082
-0.11170000000000013,-1.4882762874580184
-0.11270000000000002,-1.5038381117565338
-0.11370000000000013,-1.5179852247551844
-0.11470000000000002,-1.53920589425316
-0.11570000000000014,-1.5590118524512704
-0.11670000000000003,-1.5788178106493809
-0.11770000000000014,-1.5972090575476263
-0.11870000000000003,-1.6170150157457368
-0.11970000000000014,-1.6382356852437125
-0.12070000000000003,-1.653797509542228
-0.12170000000000014,-1.6693593338407433
-0.12270000000000003,-1.6863358694391237
-0.12370000000000014,-1.7118006728366943
-0.12470000000000003,-1.7301919197349398
-0.12570000000000014,-1.7471684553333202
-0.12670000000000003,-1.771218547431026
-0.12770000000000015,-1.7938539282288664
-0.12870000000000004,-1.8122451751271118
-0.12970000000000015,-1.8377099785246829
-0.13070000000000004,-1.8561012254229279
-0.13170000000000015,-1.882980740120364
-0.13270000000000004,-1.9042014096183393
-0.13370000000000015,-1.925422079116315
-0.13470000000000004,-1.9494721712140204
-0.13570000000000015,-1.9650339955125358
-0.13670000000000004,-1.9834252424107812
-0.13770000000000016,-2.0032312006088917
-0.13870000000000005,-2.0301107153063276
-0.13970000000000016,-2.0569902300037635
-0.14070000000000005,-2.076796188201874
-0.14170000000000016,-2.095187435100119
-0.14270000000000005,-2.122066949797555
-0.14370000000000016,-2.1461170418952604
-0.14470000000000005,-2.1673377113932366
-0.14570000000000016,-2.1899730921910767
-0.14670000000000005,-2.208364339089322
-0.14770000000000016,-2.2338291424868926
-0.14870000000000005,-2.2621233684841937
-0.14970000000000017,-2.2904175944814944
-0.15070000000000006,-2.3201265317786604
-0.15170000000000017,-2.347006046476096
-0.15270000000000006,-2.3767149837732613
-0.15370000000000017,-2.4092533436701573
-0.15470000000000006,-2.4403769922671885
-0.15570000000000017,-2.463012373065029
-0.15670000000000006,-2.4913065990623298
-0.15770000000000017,-2.5167714024599
-0.15870000000000006,-2.542236205857471
-0.15970000000000018,-2.5677010092550416
-0.16070000000000007,-2.597409946552207
-0.16170000000000018,-2.627118883849373
-0.16270000000000007,-2.659657243746269
-0.16370000000000018,-2.69643973754276
-0.16470000000000007,-2.7289780974396556
-0.16570000000000018,-2.764345879936282
-0.16670000000000007,-2.788395972033987
-0.16770000000000018,-2.8280078884302084
-0.16870000000000007,-2.8605462483271045
-0.16970000000000018,-2.9044022986229203
-0.17070000000000007,-2.9312818133203558
-0.17170000000000019,-2.9624054619173865
-0.17270000000000008,-2.9921143992145525
-0.1737000000000002,-3.0303116043109086
-0.17470000000000008,-3.0614352529079394
-0.1757000000000002,-3.10104716930416
-0.17670000000000008,-3.1434885083001114
-0.1777000000000002,-3.1802710020966023
-0.17870000000000008,-3.2184682071929585
-0.1797000000000002,-3.265153680088505
-0.18070000000000008,-3.3005214625851305
-0.1817000000000002,-3.3344745337818917
-0.18270000000000008,-3.3726717388782474
-0.1837000000000002,-3.412283655274469
-0.1847000000000001,-3.450480860370824
-0.1857000000000002,-3.4971663332663705
-0.1867000000000001,-3.539607672262322
-0.1877000000000002,-3.580634299958408
-0.1887000000000001,-3.6343933293532795
-0.1897000000000002,-3.681078802248825
-0.1907000000000001,-3.7291789864442366
-0.1917000000000001,-3.780108593239378
-0.19269999999999998,-3.8267940661349247
-0.1937000000000001,-3.87065011643074
-0.19469999999999998,-3.910262032826961
-0.1957000000000001,-3.952703371822913
-0.19669999999999999,-3.9965594221187284
-0.1977000000000001,-4.046074317614004
-0.1987,-4.099833347008876
-0.1997000000000001,-4.1564217990034775
-0.2007,-4.20735140579862
-0.2017000000000001,-4.25828101259376
-0.2027,-4.287989949890926
-0.2037000000000001,-4.3403342679859325
-0.2047,-4.398337431280399
-0.2057000000000001,-4.457755305874731
-0.2067,-4.518587891768927
-0.2077000000000001,-4.572346921163798
-0.2087,-4.61478826015975
-0.2097000000000001,-4.671376712154351
-0.2107,-4.723721030249357
-0.2117000000000001,-4.784553616143554
-0.2127,-4.84821562463748
-0.2137000000000001,-4.903389365332218
-0.2147,-4.964221951226414
-0.2157000000000001,-5.02505453712061
-0.2167,-5.068910587416426
-0.21770000000000012,-5.109937215112512
-0.2187,-5.175013934906304
-0.21970000000000012,-5.23018767560104
-0.2207,-5.286776127595641
-0.22170000000000012,-5.3575116925888935
-0.2227,-5.419758989782956
-0.22370000000000012,-5.469273885278232
-0.2247,-5.525862337272833
-0.22570000000000012,-5.5739625214682444
-0.2267,-5.6263068395632505
-0.22770000000000012,-5.670162889859067
-0.22870000000000001,-5.739483743552454
-0.22970000000000013,-5.80031632944665
-0.23070000000000002,-5.865393049240442
-0.23170000000000013,-5.909249099536258
-0.23270000000000002,-5.957349283731669
-0.23370000000000013,-5.998375911427756
-0.23470000000000002,-6.056379074722222
-0.23570000000000013,-6.108723392817228
-0.23670000000000002,-6.152579443113044
-0.2376999999999999,-6.217656162906836
-0.23870000000000002,-6.272829903601573
-0.2396999999999999,-6.318100665197254
-0.24070000000000003,-6.361956715493069
-0.24169999999999991,-6.400153920589426
-0.24270000000000003,-6.425618723986997
-0.24369999999999992,-6.463815929083352
-0.24470000000000003,-6.516160247178359
-0.24569999999999992,-6.562845720073906
-0.24670000000000003,-6.637825418966753
-0.24769999999999992,-6.673193201463377
-0.24870000000000003,-6.722708096958654
-0.24969999999999992,-6.738269921257169
-0.25070000000000003,-6.77222299245393
-0.2516999999999999,-6.799102507151367
-0.25270000000000004,-6.842958557447183
-0.2536999999999999,-6.876911628643944
-0.25470000000000004,-6.9320853693386795
-0.2556999999999999,-6.974526708334631
-0.25670000000000004,-7.011309202131122
-0.25769999999999993,-7.0763859219249134
-0.25870000000000004,-7.113168415721404
-0.25969999999999993,-7.158439177317086
-0.26070000000000004,-7.181074558114926
-0.26169999999999993,-7.199465805013171
-0.26270000000000004,-7.2334188762099325
-0.26369999999999993,-7.275860215205883
-0.26470000000000005,-7.31688684290197
-0.26569999999999994,-7.366401738397246
-0.26670000000000005,-7.411672499992927
-0.26769999999999994,-7.464016818087933
-0.26870000000000005,-7.50221402318429
-0.26969999999999994,-7.554558341279295
-0.27070000000000005,-7.599829102874978
-0.27169999999999994,-7.642270441870928
-0.27270000000000005,-7.69037062606634
-0.27369999999999994,-7.7059324503648545
-0.27470000000000006,-7.73564138766202
-0.27569999999999995,-7.7851562831572965
-0.27670000000000006,-7.8502330029510885
-0.27769999999999995,-7.879941940248254
-0.27870000000000006,-7.926627413143801
-0.27969999999999995,-7.942189237442316
-0.28070000000000006,-7.961995195640427
-0.28169999999999995,-8.019998358934892
-0.28270000000000006,-8.053951430131654
-0.28369999999999995,-8.096392769127604
-0.28470000000000006,-8.116198727325715
-0.28569999999999995,-8.167128334120857
-0.28670000000000007,-8.215228518316268
-0.28769999999999996,-8.242108033013702
-0.28870000000000007,-8.232205053914647
-0.28969999999999996,-8.240693321713838
-0.29070000000000007,-8.235034476514379
-0.29169999999999996,-8.23786389911411
-0.29270000000000007,-8.263328702511679
-0.29369999999999996,-8.307184752807496
-0.2947000000000001,-8.34538195790385
-0.29569999999999996,-8.349626091803447
-0.2967000000000001,-8.3312348449052
-0.29769999999999996,-8.28030523811006
-0.2987000000000001,-8.181275447119509
-0.29969999999999997,-8.179860735819641
-0.3007000000000001,-8.161469488921396
-0.30169999999999997,-8.175616601920048
-0.3027000000000001,-8.177031313219912
-0.30369999999999997,-8.184104869719237
-0.3047000000000001,-8.161469488921396
-0.30569999999999997,-8.130345840324367
-0.3067000000000001,-8.07800152222936
-0.3077,-8.027071915434218
-0.3087000000000001,-7.977557019938943
-0.3097,-7.945018660042045
-0.3107000000000001,-7.913895011445016
-0.3117,-7.867209538549469
-0.3127000000000001,-7.841744735151897
-0.3137,-7.775253304058242
-0.3147000000000001,-7.715835429463911
-0.3157,-7.638026307971333
-0.3167000000000001,-7.557387763879025
-0.3177,-7.48523748758591
-0.3187000000000001,-7.4244049016917115
-0.3197,-7.36781644969711
-0.3207000000000001,-7.295666173403994
-0.3217,-7.212198206711958
-0.3227000000000001,-7.134389085219379
-0.3237,-7.019797469930312
-0.3247000000000001,-6.900961720741648
-0.3257,-6.797687795851501
-0.3267000000000001,-6.678852046662837
-0.3277,-6.592554657371071
-0.3287000000000001,-6.509086690679034
-0.3297,-6.407227477088751
-0.3307000000000001,-6.296879995699278
-0.3317,-6.187947225609671
-0.3327000000000001,-6.066282053821277
-0.3337,-5.94320217073302
-0.3347000000000001,-5.8229517102444905
-0.3357,-5.728166053153534
-0.3367000000000001,-5.5994273248658155
-0.3377,-5.497568111275533
-0.3387000000000001,-5.4027824541845755
-0.3397,-5.315070353592943
-0.3407000000000001,-5.201893449603739
-0.3417,-5.098619524713592
-0.3427000000000001,-4.995345599823445
-0.3437,-4.901974654032353
-0.3447000000000001,-4.836897934238561
-0.3457,-4.781724193543823
-0.3467000000000001,-4.699670938151652
-0.3477,-4.623276527958939
-0.3487000000000001,-4.5369791386671725
-0.3497,-4.470487707573516
-0.3507000000000001,-4.398337431280399
-0.3517,-4.327601866287147
-0.3527000000000001,-4.265354569093086
-0.3537,-4.24413389959511
-0.3547000000000001,-4.197448426699564
-0.3557,-4.143689397304692
-0.35670000000000013,-4.094174501809416
-0.3577,-4.037586049814815
-0.35870000000000013,-4.0220242255163
-0.3597,-4.003632978618054
-0.36070000000000013,-3.9894858656194034
-0.3617,-4.0050476899179195
-0.3626999999999999,-4.000803556018323
-0.3637,-4.030512493315489
-0.3646999999999999,-4.029097782015624
-0.3657,-3.9965594221187284
-0.3666999999999999,-3.9979741334185936
-0.3677,-4.019194802916569
-0.3686999999999999,-4.060221430612655
-0.36970000000000003,-4.0715391210115754
-0.3706999999999999,-4.08710094531009
-0.37170000000000003,-4.095589213109282
-0.3726999999999999,-4.115395171307392
-0.37370000000000003,-4.160665932903073
-0.3746999999999999,-4.1833013137009125
-0.37570000000000003,-4.220083807497405
-0.3766999999999999,-4.2413044769953805
-0.37770000000000004,-4.279501682091736
-0.3786999999999999,-4.303551774189442
-0.37970000000000004,-4.378531473082289
-0.3806999999999999,-4.419558100778375
-0.38170000000000004,-4.457755305874731
-0.38269999999999993,-4.511514335269602
-0.38370000000000004,-4.565273364664473
-0.38469999999999993,-4.593567590661774
-0.38570000000000004,-4.619032394059345
-0.38669999999999993,-4.6572295991557
-0.38770000000000004,-4.698256226851787
-0.38869999999999993,-4.733624009348413
-0.38970000000000005,-4.801530151741935
-0.39069999999999994,-4.842556779438021
-0.39170000000000005,-4.8849981184339715
-0.39269999999999994,-4.967051373826144
-0.39370000000000005,-5.050519340518181
-0.39469999999999994,-5.118425482911703
-0.39570000000000005,-5.18491691400536
-0.39669999999999994,-5.261311324198071
-0.39770000000000005,-5.332046889191323
-0.39869999999999994,-5.361755826488489
-0.39970000000000006,-5.3504381360895685
-0.40069999999999995,-5.349023424789703
-0.40170000000000006,-5.368829382987815
-0.40269999999999995,-5.3900500524857895
-0.40370000000000006,-5.450882638379986
-0.40469999999999995,-5.517374069473643
-0.40570000000000006,-5.57537723276811
-0.40669999999999995,-5.637624529962172
-0.40770000000000006,-5.6913835593570425
-0.40869999999999995,-5.750801433951374
-0.40970000000000006,-5.830025266743816
-0.41069999999999995,-5.878125450939227
-0.41170000000000007,-5.927640346434504
-0.41269999999999996,-5.984228798429105
-0.41370000000000007,-6.037987827823977
-0.41469999999999996,-6.137017618814529
-0.41570000000000007,-6.195020782108996
-0.41669999999999996,-6.281318171400763
-0.41770000000000007,-6.352053736394015
-0.41869999999999996,-6.431277569186457
-0.4197000000000001,-6.518989669778089
-0.42069999999999996,-6.603872347769991
-0.4217000000000001,-6.660460799764593
-0.42269999999999996,-6.73261107605771
-0.4237000000000001,-6.796273084551637
-0.42469999999999997,-6.898132298141919
-0.4257000000000001,-7.008479779531392
-0.42669999999999997,-7.120241972220731
-0.4277000000000001,-7.229174742310337
-0.42869999999999997,-7.336692801100081
-0.4297000000000001,-7.430063746891172
-0.43069999999999997,-7.5474847847799715
-0.4317000000000001,-7.643685153170793
-0.4327,-7.7908151283567575
-0.4337000000000001,-7.892674341947039
-0.4347,-7.997362978137053
-0.4357000000000001,-8.09780748042747
-0.4367,-8.230790342614783
-0.4377000000000001,-8.35669964830277
-0.4387,-8.467047129692245
-0.4397000000000001,-8.581638744981312
-0.4407,-8.716036318468491
-0.4417000000000001,-8.816480820758908
-0.4427,-8.959366662045278
-0.4437000000000001,-9.102252503331647
-0.4447,-9.256456035016935
-0.4457000000000001,-9.338509290409108
-0.4467,-9.478565709095745
-0.4477000000000001,-9.58042492268603
-0.4487,-9.69643124927496
-0.4497000000000001,-9.870440739158362
-0.4507,-10.003423601345673
-0.4517000000000001,-10.177433091229075
-0.4527,-10.325977777714902
-0.4537000000000001,-10.41793401220613
-0.4547,-10.556575719592905
-0.4557000000000001,-10.62306715068656
-0.4567,-10.78292952757131
-0.4577000000000001,-10.904594699359702
-0.4587,-11.077189477943236
-0.4597000000000001,-11.20451349493109
-0.4607,-11.34739933621746
-0.4617000000000001,-11.481796909704636
-0.4627,-11.536970650399374
-0.4637000000000001,-11.491699888803693
-0.4647,-11.684100625585337
-0.4657000000000001,-11.826986466871707
-0.4667,-11.9486516386601
-0.4677000000000001,-12.18773784833729
-0.4687,-12.305158886226089
-0.4697000000000001,-12.449459438812323
-0.4707,-12.735231121385059
-0.4717000000000001,-12.92055830166738
-0.4727,-13.121447306248216
-0.4737000000000001,-13.14266797574619
-0.4747,-13.295456796131614
-0.4757000000000001,-13.428439658318927
-0.4767,-13.957541684468453
-0.4777000000000001,-14.079206856256844
-0.4787,-14.24614278964092
-0.4797000000000001,-14.430055258623375
-0.4807,-14.642261953603128
-0.48170000000000013,-14.769585970590983
-0.4827,-14.896909987578834
-0.48370000000000013,-15.080822456561293
-0.4847,-14.911057100577487
-0.48570000000000013,-15.222293586547794
-0.4867,-15.462794507524851
-0.4876999999999999,-15.646706976507305
-0.4887,-15.816472332491113
-0.4896999999999999,-16.04282614046952
-0.4907,-16.28332706144657
-0.4916999999999999,-16.410651078434423
-0.4927,-16.53797509542228
-0.4936999999999999,-16.651151999411482
-0.49470000000000003,-16.792623129397985
-0.4956999999999999,-16.97653559838044
-0.49670000000000003,-17.217036519357496
-0.4976999999999999,-17.37265476234265
-0.49870000000000003,-17.542420118326454
-0.4996999999999999,-17.669744135314307
-0.5007,-17.81121526530081
-0.5016999999999999,-17.797068152302163
-0.5027,-18.15074597726842
-0.5036999999999999,-18.44783535024008
-0.5047,-18.53271802823198
-0.5056999999999999,-18.688336271217132
-0.5067,-18.91469007919554
-0.5076999999999999,-18.843954514202288
-0.5087,-19.056161209182044
