Potential V vs RHE, Current mA cm-2
0.013299999999999867,2.6143864821505876
0.012299999999999978,2.4403769922671885
0.011299999999999866,2.2663675023837886
0.010299999999999976,2.0909433012005243
0.009299999999999864,1.9607898616129409
0.008299999999999974,1.7867803717295414
0.007299999999999862,1.655212220842093
0.006299999999999972,1.5675001202504606
0.00529999999999986,1.4373466806628774
0.0042999999999999705,1.349917522331218
0.0032999999999998586,1.219056727093702
0.0022999999999999687,1.0881959318561862
0.0012999999999998568,1.0010497157844997
0.00029999999999996696,0.9137620285828272
-0.000700000000000145,0.8264743413811545
-0.0017000000000000348,0.7393281253094681
-0.0027000000000001467,0.6520404381077953
-0.0037000000000000366,0.5211796428702795
-0.0047000000000001485,0.4776065348344364
-0.005700000000000038,0.3903188476327636
-0.00670000000000015,0.3031726315610774
-0.00770000000000004,0.2594580523952477
-0.008700000000000152,0.17231183632356148
-0.009700000000000042,0.08502414912188871
-0.010700000000000154,-0.002205534916489592
-0.011700000000000044,-0.08943804837746762
-0.012700000000000156,-0.1330535977523067
-0.013700000000000045,-0.2202705493889862
-0.014700000000000157,-0.26384365742482935
-0.015700000000000047,-0.3511313446265021
-0.01670000000000016,-0.4384190318281749
-0.01770000000000005,-0.48199213986401795
-0.01870000000000016,-0.5692798270656908
-0.01970000000000005,-0.6128529351015338
-0.020700000000000163,-0.6564260431373771
-0.021700000000000053,-0.7437137303390498
-0.022700000000000164,-0.7872868383748929
-0.023700000000000054,-0.8745745255765657
-0.024700000000000166,-0.9181476336124089
-0.025700000000000056,-1.0054353208140816
-0.026700000000000168,-1.0490084288499246
-0.027700000000000058,-1.0925815368857679
-0.02870000000000017,-1.1798692240874404
-0.02970000000000006,-1.2234423321232837
-0.03070000000000017,-1.2671569112891135
-0.03170000000000006,-1.3543031273607997
-0.03270000000000017,-1.3980177065266295
-0.03370000000000006,-1.4854468648582886
-0.034700000000000175,-1.5293029151541047
-0.035700000000000065,-1.5717442541500557
-0.03670000000000018,-1.6156003044458718
-0.03770000000000007,-1.7033124050375041
-0.03870000000000018,-1.7471684553333202
-0.03970000000000007,-1.7910245056291363
-0.04070000000000018,-1.8334658446250875
-0.04170000000000007,-1.92117794521672
-0.04270000000000018,-1.9650339955125358
-0.04370000000000007,-2.008890045808352
-0.044700000000000184,-2.052746096104168
-0.045700000000000074,-2.095187435100119
-0.046700000000000186,-2.1828995356917518
-0.047700000000000076,-2.226755585987568
-0.04870000000000019,-2.2706116362833835
-0.04970000000000008,-2.3144676865791998
-0.05070000000000019,-2.3569090255751513
-0.05170000000000008,-2.4007650758709675
-0.05270000000000019,-2.4884771764625997
-0.05370000000000008,-2.532333226758415
-0.05470000000000019,-2.576189277054232
-0.05570000000000008,-2.618630616050183
-0.056700000000000195,-2.662486666345999
-0.057700000000000085,-2.7501987669376318
-0.058700000000000196,-2.794054817233447
-0.059700000000000086,-2.8379108675292635
-0.0607000000000002,-2.8803522065252145
-0.06170000000000009,-2.924208256821031
-0.0627000000000002,-3.0119203574126634
-0.06370000000000009,-3.055776407708479
-0.0647000000000002,-3.0996324580042955
-0.06570000000000009,-3.1420737970002466
-0.0667000000000002,-3.1420737970002466
-0.0677000000000001,-3.2297858975918787
-0.0687000000000002,-3.273641947887695
-0.0697000000000001,-3.317497998183511
-0.07070000000000021,-3.361354048479327
-0.0717000000000001,-3.403795387475278
-0.07270000000000021,-3.4915074880669104
-0.0737000000000001,-3.4915074880669104
-0.07470000000000021,-3.579219588658543
-0.0757000000000001,-3.623075638954359
-0.07670000000000021,-3.6655169779503103
-0.0777000000000001,-3.7532290785419424
-0.07870000000000021,-3.7532290785419424
-0.0797000000000001,-3.7970851288377587
-0.08070000000000022,-3.840941179133574
-0.0817000000000001,-3.927238568425342
-0.08270000000000022,-3.927238568425342
-0.08370000000000011,-4.014950669016974
-0.08470000000000022,-4.014950669016974
-0.08570000000000011,-4.102662769608606
-0.08670000000000022,-4.146518819904423
-0.08770000000000011,-4.1889601589003735
-0.08870000000000022,-4.276672259492005
-0.08970000000000011,-4.3205283097878215
-0.09070000000000022,-4.364384360083638
-0.09170000000000011,-4.406825699079589
-0.09270000000000023,-4.450681749375406
-0.09370000000000012,-4.494537799671222
-0.09470000000000023,-4.538393849967037
-0.09570000000000012,-4.582249900262854
-0.09670000000000023,-4.668547289554621
-0.09770000000000012,-4.712403339850438
-0.09870000000000023,-4.756259390146253
-0.09970000000000012,-4.800115440442069
-0.10070000000000023,-4.887827541033701
-0.10170000000000012,-4.9302688800296535
-0.10270000000000024,-4.974124930325469
-0.10370000000000013,-5.017980980621284
-0.10470000000000024,-5.0618370309171015
-0.10570000000000013,-5.105693081212917
-0.10670000000000024,-5.191990470504685
-0.10770000000000013,-5.235846520800501
-0.10870000000000024,-5.279702571096316
-0.10970000000000013,-5.323558621392133
-0.11070000000000024,-5.367414671687949
-0.11170000000000013,-5.411270721983764
-0.11270000000000002,-5.453712060979717
-0.11370000000000013,-5.5414241615713475
-0.11470000000000002,-5.585280211867165
-0.11570000000000014,-5.629136262162981
-0.11670000000000003,-5.672992312458796
-0.11770000000000014,-5.715433651454749
-0.11870000000000003,-5.80314575204638
-0.11970000000000014,-5.847001802342197
-0.12070000000000003,-5.890857852638012
-0.12170000000000014,-5.9347139029338285
-0.12270000000000003,-5.977155241929781
-0.12370000000000014,-6.021011292225596
-0.12470000000000003,-6.064867342521412
-0.12570000000000014,-6.152579443113044
-0.12670000000000003,-6.196435493408861
-0.12770000000000015,-6.238876832404812
-0.12870000000000004,-6.282732882700628
-0.12970000000000015,-6.37044498329226
-0.13070000000000004,-6.414301033588076
-0.13170000000000015,-6.458157083883892
-0.13270000000000004,-6.54445447317566
-0.13370000000000015,-6.588310523471475
-0.13470000000000004,-6.632166573767292
-0.13570000000000015,-6.6760226240631075
-0.13670000000000004,-6.719878674358924
-0.13770000000000016,-6.806176063650692
-0.13870000000000005,-6.850032113946507
-0.13970000000000016,-6.893888164242324
-0.14070000000000005,-6.93774421453814
-0.14170000000000016,-6.981600264833956
-0.14270000000000005,-7.067897654125724
-0.14370000000000016,-7.155609754717355
-0.14470000000000005,-7.199465805013171
-0.14570000000000016,-7.28576319430494
-0.14670000000000005,-7.329619244600755
-0.14770000000000016,-7.329619244600755
-0.14870000000000005,-7.37347529489657
-0.14970000000000017,-7.461187395488204
-0.15070000000000006,-7.50504344578402
-0.15170000000000017,-7.591340835075788
-0.15270000000000006,-7.635196885371603
-0.15370000000000017,-7.679052935667419
-0.15470000000000006,-7.679052935667419
-0.15570000000000017,-7.7653503249591855
-0.15670000000000006,-7.853062425550818
-0.15770000000000017,-7.896918475846635
-0.15870000000000006,-7.984630576438266
-0.15970000000000018,-8.027071915434218
-0.16070000000000007,-8.070927965730034
-0.16170000000000018,-8.158640066321666
-0.16270000000000007,-8.246352166913299
-0.16370000000000018,-8.288793505909249
-0.16470000000000007,-8.376505606500881
-0.16570000000000018,-8.4203616567967
-0.16670000000000007,-8.508073757388331
-0.16770000000000018,-8.55051509638428
-0.16870000000000007,-8.594371146680096
-0.16970000000000018,-8.638227196975913
-0.17070000000000007,-8.638227196975913
-0.17170000000000019,-8.725939297567548
-0.17270000000000008,-8.769795347863363
-0.1737000000000002,-8.85609273715513
-0.17470000000000008,-8.943804837746763
-0.1757000000000002,-9.031516938338395
-0.17670000000000008,-9.11781432763016
-0.1777000000000002,-9.205526428221793
-0.17870000000000008,-9.24938247851761
-0.1797000000000002,-9.379535918105192
-0.18070000000000008,-9.423391968401008
-0.1817000000000002,-9.511104068992642
-0.18270000000000008,-9.511104068992642
-0.1837000000000002,-9.59740145828441
-0.1847000000000001,-9.59740145828441
-0.1857000000000002,-9.641257508580225
-0.1867000000000001,-9.728969609171857
-0.1877000000000002,-9.772825659467674
-0.1887000000000001,-9.902979099055257
-0.1897000000000002,-9.99069119964689
-0.1907000000000001,-10.078403300238522
-0.1917000000000001,-10.164700689530287
-0.19269999999999998,-10.25241279012192
-0.1937000000000001,-10.382566229709504
-0.19469999999999998,-10.470278330301136
-0.1957000000000001,-10.470278330301136
-0.19669999999999999,-10.514134380596953
-0.1977000000000001,-10.557990430892769
-0.1987,-10.644287820184536
-0.1997000000000001,-10.688143870480351
-0.2007,-10.775855971071984
-0.2017000000000001,-10.775855971071984
-0.2027,-10.906009410659568
-0.2037000000000001,-10.993721511251199
-0.2047,-11.123874950838783
-0.2057000000000001,-11.211587051430415
-0.2067,-11.299299152022046
-0.2077000000000001,-11.42945259160963
-0.2087,-11.56102074249708
-0.2097000000000001,-11.604876792792895
-0.2107,-11.691174182084664
-0.2117000000000001,-11.73503023238048
-0.2127,-11.778886282676295
-0.2137000000000001,-11.82274233297211
-0.2147,-11.86659838326793
-0.2157000000000001,-11.952895772559694
-0.2167,-12.040607873151327
-0.21770000000000012,-12.170761312738911
-0.2187,-12.258473413330542
-0.21970000000000012,-12.390041564217992
-0.2207,-12.476338953509758
-0.22170000000000012,-12.476338953509758
-0.2227,-12.520195003805576
-0.22370000000000012,-12.607907104397206
-0.2247,-12.651763154693022
-0.22570000000000012,-12.694204493688973
-0.2267,-12.73806054398479
-0.22770000000000012,-12.825772644576423
-0.22870000000000001,-12.955926084164007
-0.22970000000000013,-12.99978213445982
-0.23070000000000002,-13.087494235051453
-0.23170000000000013,-13.175206335643086
-0.23270000000000002,-13.261503724934855
-0.23370000000000013,-13.3930718758223
-0.23470000000000002,-13.47936926511407
-0.23570000000000013,-13.567081365705702
-0.23670000000000002,-13.654793466297335
-0.2376999999999999,-13.784946905884919
-0.23870000000000002,-13.872659006476551
-0.2396999999999999,-13.916515056772363
-0.24070000000000003,-14.002812446064135
-0.24169999999999991,-14.046668496359947
-0.24270000000000003,-14.090524546655764
-0.24369999999999992,-14.175407224647667
-0.24470000000000003,-14.26028990263957
-0.24569999999999992,-14.401761032626075
-0.24670000000000003,-14.486643710617974
-0.24769999999999992,-14.61396772760583
-0.24870000000000003,-14.69885040559773
-0.24969999999999992,-14.783733083589633
-0.25070000000000003,-14.868615761581536
-0.2516999999999999,-14.967645552572087
-0.25270000000000004,-15.05252823056399
-0.2536999999999999,-15.094969569559943
-0.25470000000000004,-15.179852247551842
-0.2556999999999999,-15.264734925543747
-0.25670000000000004,-15.3920589425316
-0.25769999999999993,-15.533530072518102
-0.25870000000000004,-15.618412750510005
-0.25969999999999993,-15.70329542850191
-0.26070000000000004,-15.78817810649381
-0.26169999999999993,-15.87306078448571
-0.26270000000000004,-16.014531914472215
-0.26369999999999993,-16.141855931460068
-0.26470000000000005,-16.22673860945197
-0.26569999999999994,-16.311621287443874
-0.26670000000000005,-16.396503965435777
-0.26769999999999994,-16.438945304431726
-0.26870000000000005,-16.53797509542228
-0.26969999999999994,-16.70774045140608
-0.27070000000000005,-16.835064468393938
-0.27169999999999994,-16.877505807389888
-0.27270000000000005,-16.919947146385837
-0.27369999999999994,-17.018976937376394
-0.27470000000000006,-17.146300954364243
-0.27569999999999995,-17.188742293360193
-0.27670000000000006,-17.316066310348052
-0.27769999999999995,-17.40094898833995
-0.27870000000000006,-17.48583166633185
-0.27969999999999995,-17.627302796318357
-0.28070000000000006,-17.71218547431026
-0.28169999999999995,-17.839509491298113
-0.28270000000000006,-17.924392169290012
-0.28369999999999995,-18.009274847281915
-0.28470000000000006,-18.06586329927652
-0.28569999999999995,-18.19318731626437
-0.28670000000000007,-18.320511333252224
-0.28769999999999996,-18.44783535024008
-0.28870000000000007,-18.53271802823198
-0.28969999999999996,-18.674189158218486
-0.29070000000000007,-18.80151317520634
-0.29169999999999996,-18.92883719219419
-0.29270000000000007,-19.01371987018609
-0.29369999999999996,-19.155191000172596
-0.2947000000000001,-19.28251501716045
-0.29569999999999996,-19.367397695152352
-0.2967000000000001,-19.452280373144255
-0.29769999999999996,-19.537163051136158
-0.2987000000000001,-19.636192842126707
-0.29969999999999997,-19.678634181122664
-0.3007000000000001,-19.805958198110513
-0.30169999999999997,-19.93328221509837
-0.3027000000000001,-20.06060623208622
-0.30369999999999997,-20.159636023076775
-0.3047000000000001,-20.371842718056527
-0.30569999999999997,-20.414284057052477
-0.3067000000000001,-20.499166735044383
-0.3077,-20.683079204026836
-0.3087000000000001,-20.89528589900659
-0.3097,-21.065051254990397
-0.3107000000000001,-21.248963723972853
-0.3117,-21.376287740960702
-0.3127000000000001,-21.461170418952605
-0.3137,-21.58849443594046
-0.3147000000000001,-21.67337711393236
-0.3157,-21.814848243918867
-0.3167000000000001,-21.899730921910766
-0.3177,-21.98461359990267
-0.3187000000000001,-22.069496277894572
-0.3197,-22.15437895588647
-0.3207000000000001,-22.253408746877028
-0.3217,-22.295850085872978
-0.3227000000000001,-22.33829142486893
-0.3237,-22.42317410286083
-0.3247000000000001,-22.46561544185678
-0.3257,-22.508056780852733
-0.3267000000000001,-22.550498119848687
-0.3277,-22.592939458844636
-0.3287000000000001,-22.72026347583249
-0.3297,-22.819293266823045
-0.3307000000000001,-22.904175944814945
-0.3317,-23.073941300798747
-0.3327000000000001,-23.1163826397947
-0.3337,-23.24370665678255
-0.3347000000000001,-23.385177786769056
-0.3357,-23.427619125765005
-0.3367000000000001,-23.55494314275286
-0.3377,-23.639825820744765
-0.3387000000000001,-23.724708498736668
-0.3397,-23.823738289727217
-0.3407000000000001,-23.86617962872317
-0.3417,-23.951062306715073
-0.3427000000000001,-24.035944984706973
-0.3437,-24.078386323702922
-0.3447000000000001,-24.120827662698876
-0.3457,-24.24815167968673
-0.3467000000000001,-24.290593018682678
-0.3477,-24.34718147067728
-0.3487000000000001,-24.432064148669184
-0.3497,-24.474505487665134
-0.3507000000000001,-24.64427084364894
-0.3517,-24.771594860636792
-0.3527000000000001,-24.95550732961925
-0.3537,-25.04039000761115
-0.3547000000000001,-25.0828313466071
-0.3557,-25.12527268560305
-0.35670000000000013,-25.252596702590903
-0.3577,-25.337479380582806
-0.35870000000000013,-25.478950510569312
-0.3597,-25.478950510569312
-0.36070000000000013,-25.563833188561212
-0.3617,-25.691157205549064
-0.3626999999999999,-25.77603988354097
-0.3637,-25.959952352523427
-0.3646999999999999,-26.044835030515326
-0.3657,-26.21460038649913
-0.3666999999999999,-26.29948306449103
-0.3677,-26.440954194477534
-0.3686999999999999,-26.61071955046134
-0.36970000000000003,-26.69560222845324
-0.3706999999999999,-26.86536758443705
-0.37170000000000003,-26.9643973754276
-0.3726999999999999,-27.049280053419505
-0.37370000000000003,-27.049280053419505
-0.3746999999999999,-27.091721392415455
-0.37570000000000003,-27.176604070407354
-0.3766999999999999,-27.303928087395207
-0.37770000000000004,-27.38881076538711
-0.3786999999999999,-27.530281895373616
-0.37970000000000004,-27.65760591236147
-0.3806999999999999,-27.742488590353368
-0.38170000000000004,-27.869812607341224
-0.38269999999999993,-28.05372507632368
-0.38370000000000004,-28.265931771303435
-0.38469999999999993,-28.393255788291288
-0.38570000000000004,-28.478138466283188
-0.38669999999999993,-28.478138466283188
-0.38770000000000004,-28.577168257273744
-0.38869999999999993,-28.577168257273744
-0.38970000000000005,-28.746933613257543
-0.39069999999999994,-28.831816291249446
-0.39170000000000005,-28.959140308237306
-0.39269999999999994,-29.058170099227848
-0.39370000000000005,-29.22793545521166
-0.39469999999999994,-29.27037679420761
-0.39570000000000005,-29.39770081119546
-0.39669999999999994,-29.525024828183312
-0.39770000000000005,-29.66649595816982
-0.39869999999999994,-29.708937297165768
-0.39970000000000006,-29.836261314153624
-0.40069999999999995,-29.878702653149578
-0.40170000000000006,-29.921143992145527
-0.40269999999999995,-30.04846800913338
-0.40370000000000006,-30.10505646112798
-0.40469999999999995,-30.189939139119886
-0.40570000000000006,-30.317263156107735
-0.40669999999999995,-30.402145834099635
-0.40770000000000006,-30.571911190083444
-0.40869999999999995,-30.670940981073993
-0.40970000000000006,-30.8407063370578
-0.41069999999999995,-30.968030354045652
-0.41170000000000007,-31.010471693041605
-0.41269999999999996,-31.137795710029454
-0.41370000000000007,-31.23682550102001
-0.41469999999999996,-31.27926684001596
-0.41570000000000007,-31.40659085700382
-0.41669999999999996,-31.40659085700382
-0.41770000000000007,-31.449032195999767
-0.41869999999999996,-31.533914873991666
-0.4197000000000001,-31.661238890979522
-0.42069999999999996,-31.972475376949827
-0.4217000000000001,-32.184682071929586
-0.42269999999999996,-32.32615320191609
-0.4237000000000001,-32.41103587990799
-0.42469999999999997,-32.45347721890394
-0.4257000000000001,-32.41103587990799
-0.42669999999999997,-32.41103587990799
-0.4277000000000001,-32.53835989689585
-0.42869999999999997,-32.66568391388369
-0.4297000000000001,-32.764713704874254
-0.43069999999999997,-32.892037721862096
-0.4317000000000001,-32.93447906085806
-0.4327,-32.97692039985401
-0.4337000000000001,-33.01936173884996
-0.4347,-33.10424441684186
-0.4357000000000001,-33.231568433829715
-0.4367,-33.330598224820264
-0.4377000000000001,-33.50036358080407
-0.4387,-33.58524625879597
-0.4397000000000001,-33.670128936787876
-0.4407,-33.712570275783825
-0.4417000000000001,-33.627687597791926
-0.4427,-33.50036358080407
-0.4437000000000001,-33.45792224180811
-0.4447,-33.50036358080407
-0.4457000000000001,-33.627687597791926
-0.4467,-33.81160006677438
-0.4477000000000001,-33.85404140577033
-0.4487,-33.81160006677438
-0.4497000000000001,-33.755011614779775
-0.4507,-33.712570275783825
-0.4517000000000001,-33.755011614779775
-0.4527,-33.81160006677438
-0.4537000000000001,-33.85404140577033
-0.4547,-33.81160006677438
-0.4557000000000001,-33.81160006677438
-0.4567,-33.81160006677438
-0.4577000000000001,-33.81160006677438
-0.4587,-33.85404140577033
-0.4597000000000001,-33.93892408376223
-0.4607,-34.02380676175414
-0.4617000000000001,-34.06624810075008
-0.4627,-34.06624810075008
-0.4637000000000001,-34.06624810075008
-0.4647,-34.193572117737936
-0.4657000000000001,-34.193572117737936
-0.4667,-34.10868943974604
-0.4677000000000001,-34.10868943974604
-0.4687,-34.236013456733886
-0.4697000000000001,-34.236013456733886
-0.4707,-34.15113077874198
-0.4717000000000001,-34.10868943974604
-0.4727,-34.02380676175414
-0.4737000000000001,-34.10868943974604
-0.4747,-34.193572117737936
-0.4757000000000001,-34.10868943974604
-0.4767,-34.02380676175414
-0.4777000000000001,-34.06624810075008
-0.4787,-34.06624810075008
-0.4797000000000001,-34.15113077874198
-0.4807,-34.278454795729836
-0.48170000000000013,-34.33504324772444
-0.4827,-34.33504324772444
-0.48370000000000013,-34.462367264712285
-0.4847,-34.462367264712285
-0.48570000000000013,-34.33504324772444
-0.4867,-34.33504324772444
-0.4876999999999999,-34.278454795729836
-0.4887,-34.41992592571634
-0.4896999999999999,-34.462367264712285
-0.4907,-34.377484586720385
-0.4916999999999999,-34.278454795729836
-0.4927,-34.33504324772444
-0.4936999999999999,-34.377484586720385
-0.49470000000000003,-34.41992592571634
-0.4956999999999999,-34.462367264712285
-0.49670000000000003,-34.462367264712285
-0.4976999999999999,-34.462367264712285
-0.49870000000000003,-34.41992592571634
-0.4996999999999999,-34.377484586720385
-0.5007,-34.236013456733886
-0.5016999999999999,-34.278454795729836
-0.5027,-34.278454795729836
-0.5036999999999999,-34.278454795729836
-0.5047,-34.377484586720385
-0.5056999999999999,-34.41992592571634
-0.5067,-34.50480860370825
