Potential V vs RHE, Current mA cm-2
0.013299999999999867,0.6084673300719523
0.012299999999999978,-1.4854468648582886
0.011299999999999866,-3.361354048479327
0.010299999999999976,-5.0618370309171015
0.009299999999999864,-6.588310523471475
0.008299999999999974,-8.027071915434218
0.007299999999999862,-9.467248018696827
0.006299999999999972,-10.906009410659568
0.00529999999999986,-12.346185513922174
0.0042999999999999705,-13.741090855589102
0.0032999999999998586,-14.967645552572087
0.0022999999999999687,-16.141855931460068
0.0012999999999998568,-17.146300954364243
0.00029999999999996696,-18.06586329927652
-0.000700000000000145,-19.01371987018609
-0.0017000000000000348,-20.01816489309027
-0.0027000000000001467,-21.022609915994444
-0.0037000000000000366,-22.027054938898623
-0.0047000000000001485,-22.989058622806844
-0.005700000000000038,-23.823738289727217
-0.00670000000000015,-24.559388165657033
-0.00770000000000004,-25.210155363594954
-0.008700000000000152,-25.86092256153287
-0.009700000000000042,-26.568278211465387
-0.010700000000000154,-27.303928087395207
-0.011700000000000044,-28.05372507632368
-0.012700000000000156,-28.746933613257543
-0.013700000000000045,-29.39770081119546
-0.014700000000000157,-29.96358533114148
-0.015700000000000047,-30.402145834099635
-0.01670000000000016,-30.8407063370578
-0.01770000000000005,-31.321708179011907
-0.01870000000000016,-31.84515135996197
-0.01970000000000005,-32.41103587990799
-0.020700000000000163,-33.01936173884996
-0.021700000000000053,-33.54280491980002
-0.022700000000000164,-33.98136542275818
-0.023700000000000054,-34.377484586720385
-0.024700000000000166,-34.632132620696105
-0.025700000000000056,-34.94336910666641
-0.026700000000000168,-35.282899818634014
-0.027700000000000058,-35.763901660588125
-0.02870000000000017,-36.244903502542236
-0.02970000000000006,-36.6834640055004
-0.03070000000000017,-36.99470049147071
-0.03170000000000006,-37.249348525446415
-0.03270000000000017,-37.51814367242077
-0.03370000000000006,-37.73035036740053
-0.034700000000000175,-37.94255706238028
-0.035700000000000065,-38.29623488734655
-0.03670000000000018,-38.692354051308754
-0.03770000000000007,-39.046031876275016
-0.03870000000000018,-39.30067991025072
-0.03970000000000007,-39.47044526623452
-0.04070000000000018,-39.654357735216976
-0.04170000000000007,-39.82412309120078
-0.04270000000000018,-39.99388844718459
-0.04370000000000007,-40.26268359415894
-0.044700000000000184,-40.559772967130606
-0.045700000000000074,-40.91345079209687
-0.046700000000000186,-41.22468727806717
-0.047700000000000076,-41.39445263405098
-0.04870000000000019,-41.52177665103883
-0.04970000000000008,-41.56421799003478
-0.05070000000000019,-41.70568912002128
-0.05170000000000008,-41.91789581500104
-0.05270000000000019,-42.186690961975394
-0.05370000000000008,-42.483780334947056
-0.05470000000000019,-42.752575481921404
-0.05570000000000008,-42.92234083790521
-0.056700000000000195,-43.007223515897124
-0.057700000000000085,-43.04966485489307
-0.058700000000000196,-43.09210619388902
-0.059700000000000086,-43.17698887188092
-0.0607000000000002,-43.40334267985933
-0.06170000000000009,-43.70043205283099
-0.0627000000000002,-43.96922719980534
-0.06370000000000009,-44.181433894785094
-0.0647000000000002,-44.3229050247716
-0.06570000000000009,-44.3229050247716
-0.0667000000000002,-44.36534636376755
-0.0677000000000001,-44.4077877027635
-0.0687000000000002,-44.4926703807554
-0.0697000000000001,-44.66243573673921
-0.07070000000000021,-44.88878954471762
-0.0717000000000001,-45.05855490070142
-0.07270000000000021,-45.143437578693316
-0.0737000000000001,-45.18587891768927
-0.07470000000000021,-45.18587891768927
-0.0757000000000001,-45.18587891768927
-0.07670000000000021,-45.27076159568118
-0.0777000000000001,-45.412232725667685
-0.07870000000000021,-45.581998081651484
-0.0797000000000001,-45.70932209863933
-0.08070000000000022,-45.85079322862584
-0.0817000000000001,-45.85079322862584
-0.08270000000000022,-45.79420477663124
-0.08370000000000011,-45.79420477663124
-0.08470000000000022,-45.79420477663124
-0.08570000000000011,-45.89323456762179
-0.08670000000000022,-46.02055858460964
-0.08770000000000011,-46.147882601597495
-0.08870000000000022,-46.19032394059345
-0.08970000000000011,-46.147882601597495
-0.09070000000000022,-46.062999923605595
-0.09170000000000011,-46.02055858460964
-0.09270000000000023,-45.97811724561369
-0.09370000000000012,-46.10544126260155
-0.09470000000000023,-46.2327652795894
-0.09570000000000012,-46.37423640957591
-0.09670000000000023,-46.41667774857186
-0.09770000000000012,-46.27520661858535
-0.09870000000000023,-46.147882601597495
-0.09970000000000012,-45.93567590661774
-0.10070000000000023,-45.79420477663124
-0.10170000000000012,-45.75176343763528
-0.10270000000000024,-45.85079322862584
-0.10370000000000013,-45.97811724561369
-0.10470000000000024,-46.10544126260155
-0.10570000000000013,-46.147882601597495
-0.10670000000000024,-46.062999923605595
-0.10770000000000013,-45.93567590661774
-0.10870000000000024,-45.79420477663124
-0.10970000000000013,-45.666880759643384
-0.11070000000000024,-45.666880759643384
-0.11170000000000013,-45.666880759643384
-0.11270000000000002,-45.70932209863933
-0.11370000000000013,-45.70932209863933
-0.11470000000000002,-45.581998081651484
-0.11570000000000014,-45.45467406466363
-0.11670000000000003,-45.27076159568118
-0.11770000000000014,-45.143437578693316
-0.11870000000000003,-45.143437578693316
-0.11970000000000014,-45.18587891768927
-0.12070000000000003,-45.27076159568118
-0.12170000000000014,-45.22832025668522
-0.12270000000000003,-45.10099623969737
-0.12370000000000014,-44.93123088371356
-0.12470000000000003,-44.704877075735155
-0.12570000000000014,-44.535111719751356
-0.12670000000000003,-44.45022904175945
-0.12770000000000015,-44.4077877027635
-0.12870000000000004,-44.4926703807554
-0.12970000000000015,-44.4926703807554
-0.13070000000000004,-44.45022904175945
-0.13170000000000015,-44.36534636376755
-0.13270000000000004,-44.138992555789144
-0.13370000000000015,-43.96922719980534
-0.13470000000000004,-43.88434452181344
-0.13570000000000015,-43.79946184382153
-0.13670000000000004,-43.79946184382153
-0.13770000000000016,-43.79946184382153
-0.13870000000000005,-43.75702050482558
-0.13970000000000016,-43.657990713835034
-0.14070000000000005,-43.48822535785123
-0.14170000000000016,-43.27601866287147
-0.14270000000000005,-43.134547532884966
-0.14370000000000016,-43.09210619388902
-0.14470000000000005,-43.04966485489307
-0.14570000000000016,-43.09210619388902
-0.14670000000000005,-43.007223515897124
-0.14770000000000016,-42.92234083790521
-0.14870000000000005,-42.752575481921404
-0.14970000000000017,-42.526221673943
-0.15070000000000006,-42.3564563179592
-0.15170000000000017,-42.229132300971344
-0.15270000000000006,-42.186690961975394
-0.15370000000000017,-42.229132300971344
-0.15470000000000006,-42.186690961975394
-0.15570000000000017,-42.087661170984845
-0.15670000000000006,-41.91789581500104
-0.15770000000000017,-41.74813045901723
-0.15870000000000006,-41.56421799003478
-0.15970000000000018,-41.43689397304693
-0.16070000000000007,-41.43689397304693
-0.16170000000000018,-41.43689397304693
-0.16270000000000007,-41.43689397304693
-0.16370000000000018,-41.39445263405098
-0.16470000000000007,-41.30956995605907
-0.16570000000000018,-41.139804600075266
-0.16670000000000007,-40.95589213109281
-0.16770000000000018,-40.828568114104954
-0.16870000000000007,-40.743685436113054
-0.16970000000000018,-40.743685436113054
-0.17070000000000007,-40.78612677510901
-0.17170000000000019,-40.743685436113054
-0.17270000000000008,-40.559772967130606
-0.1737000000000002,-40.3900076111468
-0.17470000000000008,-40.177800916167044
-0.1757000000000002,-39.95144710818864
-0.17670000000000008,-39.86656443019674
-0.1777000000000002,-39.86656443019674
-0.17870000000000008,-39.90900576919269
-0.1797000000000002,-39.95144710818864
-0.18070000000000008,-39.86656443019674
-0.1817000000000002,-39.739240413208876
-0.18270000000000008,-39.51288660523048
-0.1837000000000002,-39.34312124924667
-0.1847000000000001,-39.21579723225882
-0.1857000000000002,-39.130914554266916
-0.1867000000000001,-39.130914554266916
-0.1877000000000002,-39.173355893262865
-0.1887000000000001,-39.130914554266916
-0.1897000000000002,-39.046031876275016
-0.1907000000000001,-38.86211940729255
-0.1917000000000001,-38.692354051308754
-0.19269999999999998,-38.5650300343209
-0.1937000000000001,-38.522588695324956
-0.19469999999999998,-38.522588695324956
-0.1957000000000001,-38.607471373316855
-0.19669999999999999,-38.607471373316855
-0.1977000000000001,-38.522588695324956
-0.1987,-38.38111756533845
-0.1997000000000001,-38.16891087035869
-0.2007,-37.99914551437489
-0.2017000000000001,-37.94255706238028
-0.2027,-37.94255706238028
-0.2037000000000001,-37.99914551437489
-0.2047,-37.99914551437489
-0.2057000000000001,-37.94255706238028
-0.2067,-37.85767438438838
-0.2077000000000001,-37.687909028404576
-0.2087,-37.56058501141672
-0.2097000000000001,-37.41911388143023
-0.2107,-37.376672542434264
-0.2117000000000001,-37.376672542434264
-0.2127,-37.41911388143023
-0.2137000000000001,-37.376672542434264
-0.2147,-37.249348525446415
-0.2157000000000001,-37.164465847454515
-0.2167,-36.99470049147071
-0.21770000000000012,-36.8532293614842
-0.2187,-36.8532293614842
-0.21970000000000012,-36.89567070048016
-0.2207,-36.89567070048016
-0.22170000000000012,-36.89567070048016
-0.2227,-36.8532293614842
-0.22370000000000012,-36.6834640055004
-0.2247,-36.5136986495166
-0.22570000000000012,-36.37222751953009
-0.2267,-36.28734484153819
-0.22770000000000012,-36.329786180534136
-0.22870000000000001,-36.37222751953009
-0.22970000000000013,-36.4288159715247
-0.23070000000000002,-36.4288159715247
-0.23170000000000013,-36.28734484153819
-0.23270000000000002,-36.16002082455034
-0.23370000000000013,-35.99025546856653
-0.23470000000000002,-35.90537279057463
-0.23570000000000013,-35.94781412957058
-0.23670000000000002,-35.94781412957058
-0.2376999999999999,-35.99025546856653
-0.23870000000000002,-36.03269680756248
-0.2396999999999999,-35.94781412957058
-0.24070000000000003,-35.806342999584075
-0.24169999999999991,-35.636577643600276
-0.24270000000000003,-35.55169496560837
-0.24369999999999992,-35.50925362661242
-0.24470000000000003,-35.55169496560837
-0.24569999999999992,-35.636577643600276
-0.24670000000000003,-35.679018982596226
-0.24769999999999992,-35.636577643600276
-0.24870000000000003,-35.50925362661242
-0.24969999999999992,-35.32534115762997
-0.25070000000000003,-35.240458479638065
-0.2516999999999999,-35.240458479638065
-0.25270000000000004,-35.282899818634014
-0.2536999999999999,-35.42437094862052
-0.25470000000000004,-35.46681228761647
-0.2556999999999999,-35.50925362661242
-0.25670000000000004,-35.46681228761647
-0.25769999999999993,-35.38192960962457
-0.25870000000000004,-35.282899818634014
-0.25969999999999993,-35.198017140642115
-0.26070000000000004,-35.15557580164616
-0.26169999999999993,-35.198017140642115
-0.26270000000000004,-35.282899818634014
-0.26369999999999993,-35.282899818634014
-0.26470000000000005,-35.282899818634014
-0.26569999999999994,-35.198017140642115
-0.26670000000000005,-35.15557580164616
-0.26769999999999994,-35.11313446265021
-0.26870000000000005,-35.11313446265021
-0.26969999999999994,-35.198017140642115
-0.27070000000000005,-35.32534115762997
-0.27169999999999994,-35.38192960962457
-0.27270000000000005,-35.282899818634014
-0.27369999999999994,-35.198017140642115
-0.27470000000000006,-35.02825178465831
-0.27569999999999995,-34.94336910666641
-0.27670000000000006,-34.90092776767045
-0.27769999999999995,-35.02825178465831
-0.27870000000000006,-35.15557580164616
-0.27969999999999995,-35.240458479638065
-0.28070000000000006,-35.32534115762997
-0.28169999999999995,-35.282899818634014
-0.28270000000000006,-35.198017140642115
-0.28369999999999995,-35.07069312365426
-0.28470000000000006,-35.07069312365426
-0.28569999999999995,-35.07069312365426
-0.28670000000000007,-35.198017140642115
-0.28769999999999996,-35.282899818634014
-0.28870000000000007,-35.32534115762997
-0.28969999999999996,-35.240458479638065
-0.29070000000000007,-35.15557580164616
-0.29169999999999996,-35.11313446265021
-0.29270000000000007,-35.07069312365426
-0.29369999999999996,-35.15557580164616
-0.2947000000000001,-35.282899818634014
-0.29569999999999996,-35.42437094862052
-0.2967000000000001,-35.50925362661242
-0.29769999999999996,-35.50925362661242
-0.2987000000000001,-35.42437094862052
-0.29969999999999997,-35.282899818634014
-0.3007000000000001,-35.198017140642115
-0.30169999999999997,-35.198017140642115
-0.3027000000000001,-35.282899818634014
-0.30369999999999997,-35.42437094862052
-0.3047000000000001,-35.594136304604326
-0.30569999999999997,-35.721460321592176
-0.3067000000000001,-35.679018982596226
-0.3077,-35.594136304604326
-0.3087000000000001,-35.55169496560837
-0.3097,-35.594136304604326
-0.3107000000000001,-35.679018982596226
-0.3117,-35.806342999584075
-0.3127000000000001,-36.03269680756248
-0.3137,-36.16002082455034
-0.3147000000000001,-36.20246216354629
-0.3157,-36.16002082455034
-0.3167000000000001,-36.03269680756248
-0.3177,-36.03269680756248
-0.3187000000000001,-36.07513814655844
-0.3197,-36.16002082455034
-0.3207000000000001,-36.329786180534136
-0.3217,-36.5136986495166
-0.3227000000000001,-36.5985813275085
-0.3237,-36.5985813275085
-0.3247000000000001,-36.5985813275085
-0.3257,-36.55613998851254
-0.3267000000000001,-36.5985813275085
-0.3277,-36.725905344496354
-0.3287000000000001,-36.8532293614842
-0.3297,-36.99470049147071
-0.3307000000000001,-37.122024508458566
-0.3317,-37.122024508458566
-0.3327000000000001,-37.164465847454515
-0.3337,-37.206907186450465
-0.3347000000000001,-37.291789864442364
-0.3357,-37.51814367242077
-0.3367000000000001,-37.73035036740053
-0.3377,-37.94255706238028
-0.3387000000000001,-38.12646953136274
-0.3397,-38.211352209354644
-0.3407000000000001,-38.253793548350586
-0.3417,-38.253793548350586
-0.3427000000000001,-38.33867622634249
-0.3437,-38.522588695324956
-0.3447000000000001,-38.734795390304704
-0.3457,-39.046031876275016
-0.3467000000000001,-39.21579723225882
-0.3477,-39.34312124924667
-0.3487000000000001,-39.47044526623452
-0.3497,-39.56947505722508
-0.3507000000000001,-39.696799074212926
-0.3517,-39.86656443019674
-0.3527000000000001,-40.177800916167044
-0.3537,-40.51733162813464
-0.3547000000000001,-40.78612677510901
-0.3557,-41.04077480908471
-0.35670000000000013,-41.22468727806717
-0.3577,-41.352011295055014
-0.35870000000000013,-41.47933531204288
-0.3597,-41.70568912002128
-0.36070000000000013,-42.00277849299294
-0.3617,-42.3564563179592
-0.3626999999999999,-42.79501682091736
-0.3637,-43.09210619388902
-0.3646999999999999,-43.40334267985933
-0.3657,-43.61554937483908
-0.3666999999999999,-43.84190318281749
-0.3677,-44.096551216793195
-0.3686999999999999,-44.4926703807554
-0.36970000000000003,-44.97367222270952
-0.3706999999999999,-45.45467406466363
-0.37170000000000003,-45.89323456762179
-0.3726999999999999,-46.27520661858535
-0.37370000000000003,-46.628884443551605
-0.3746999999999999,-46.94012092952192
-0.37570000000000003,-47.27965164148953
-0.3766999999999999,-47.71821214444768
-0.37770000000000004,-48.24165532539775
-0.3786999999999999,-48.84998118433972
-0.37970000000000004,-49.41586570428573
-0.3806999999999999,-49.98175022423175
-0.38170000000000004,-50.42031072718991
-0.38269999999999993,-50.85887123014807
-0.38370000000000004,-51.33987307210218
-0.38469999999999993,-51.90575759204819
-0.38570000000000004,-52.55652478998611
-0.38669999999999993,-51.82087491405629
-0.38570000000000004,-48.63777448935996
-0.38469999999999993,-45.89323456762179
-0.38370000000000004,-43.36090134086337
-0.38269999999999993,-41.04077480908471
-0.38170000000000004,-38.94700208528445
-0.3806999999999999,-37.07958316946261
-0.37970000000000004,-35.46681228761647
-0.3786999999999999,-34.06624810075008
-0.37770000000000004,-32.807155043870196
-0.3766999999999999,-31.57635621298762
-0.37570000000000003,-30.402145834099635
-0.3746999999999999,-29.27037679420761
-0.37370000000000003,-28.13860775431558
-0.3726999999999999,-27.134162731411404
-0.37170000000000003,-26.257041725495082
-0.3706999999999999,-25.478950510569312
-0.36970000000000003,-24.771594860636792
-0.3686999999999999,-24.078386323702922
-0.3677,-23.385177786769056
-0.3666999999999999,-22.592939458844636
-0.3657,-21.814848243918867
-0.3646999999999999,-21.022609915994444
-0.3637,-20.286960040064624
-0.3626999999999999,-19.721075520118614
-0.3617,-19.155191000172596
-0.36070000000000013,-18.716630497214435
-0.3597,-18.15074597726842
-0.35870000000000013,-17.542420118326454
-0.3577,-16.919947146385837
-0.35670000000000013,-16.269179948447924
-0.3557,-15.660854089505953
-0.3547000000000001,-15.137410908555893
-0.3537,-14.69885040559773
-0.3527000000000001,-14.30273124163552
-0.3517,-13.872659006476551
-0.3507000000000001,-13.349215825526485
-0.3497,-12.73806054398479
-0.3487000000000001,-12.170761312738911
-0.3477,-11.56102074249708
-0.3467000000000001,-11.081433611842833
-0.3457,-10.644287820184536
-0.3447000000000001,-10.296268840417738
-0.3437,-9.902979099055257
-0.3427000000000001,-9.511104068992642
-0.3417,-8.987660888042578
-0.3407000000000001,-8.4203616567967
-0.3397,-7.896918475846635
-0.3387000000000001,-7.4173313451923875
-0.3377,-6.981600264833956
-0.3367000000000001,-6.632166573767292
-0.3357,-6.326588932996443
-0.3347000000000001,-5.9347139029338285
-0.3337,-5.453712060979717
-0.3327000000000001,-4.9302688800296535
-0.3317,-4.406825699079589
-0.3307000000000001,-3.927238568425342
-0.3297,-3.5353635383627267
-0.3287000000000001,-3.1859298472960624
-0.3277,-2.8803522065252145
-0.3267000000000001,-2.576189277054232
-0.3257,-2.1390434853959355
-0.3247000000000001,-1.7033124050375041
-0.3237,-1.1362961160515976
-0.3227000000000001,-0.7001406223032067
-0.3217,-0.26384365742482935
-0.3207000000000001,0.04140859974704963
-0.3197,0.3031726315610774
-0.3187000000000001,0.6084673300719523
-0.3177,0.9573351366186703
-0.3167000000000001,1.3934906303670611
-0.3157,1.8730777610213083
-0.3147000000000001,2.30880884137974
-0.3137,2.745954633038036
-0.3127000000000001,3.0515322738088844
-0.3117,3.313253864283916
-0.3107000000000001,3.5311194044631313
-0.3097,3.8366970452339793
-0.3087000000000001,4.184716025000778
-0.3077,4.6218618166590755
-0.3067000000000001,5.101448947313322
-0.30569999999999997,5.449467927080121
-0.3047000000000001,5.75504556785097
-0.30369999999999997,6.016767158326001
-0.3027000000000001,6.1907766482094
-0.30169999999999997,6.452498238684432
-0.3007000000000001,6.75807587945528
-0.29969999999999997,7.107509570521944
-0.2987000000000001,7.543240650880375
-0.29769999999999996,7.892674341947039
-0.2967000000000001,8.198251982717888
-0.29569999999999996,8.416117522897103
-0.2947000000000001,8.590127012780503
-0.29369999999999996,8.80799255295972
-0.29270000000000007,9.025858093138934
-0.29169999999999996,9.331435733909782
-0.29070000000000007,9.724725475272262
-0.28969999999999996,10.116600505334876
-0.28870000000000007,10.422178146105725
-0.28769999999999996,10.596187635989125
-0.28670000000000007,10.771611837172388
-0.28569999999999995,10.901765276759972
-0.28470000000000006,11.077189477943236
-0.28369999999999995,11.33891106841827
-0.28270000000000006,11.643073997889251
-0.28169999999999995,12.036363739251732
-0.28070000000000006,12.298085329726765
-0.27969999999999995,12.472094819610163
-0.27870000000000006,12.646104309493563
-0.27769999999999995,12.68996035978938
-0.27670000000000006,12.865384560972643
-0.27569999999999995,13.08325010115186
-0.27470000000000006,13.301115641331073
-0.27369999999999994,13.65054933239774
-0.27270000000000005,13.91227092287277
-0.27169999999999994,14.130136463051985
-0.27070000000000005,14.217848563643619
-0.26969999999999994,14.30273124163552
-0.26870000000000005,14.387613919627421
-0.26769999999999994,14.529085049613924
-0.26670000000000005,14.783733083589633
-0.26569999999999994,15.05252823056399
-0.26470000000000005,15.307176264539699
