Potential V vs RHE, Current mA cm-2
0.013299999999999867,0.870188920546984
0.012299999999999978,-1.1798692240874404
0.011299999999999866,-3.055776407708479
0.010299999999999976,-4.582249900262854
0.009299999999999864,-5.890857852638012
0.008299999999999974,-7.111753704421539
0.007299999999999862,-8.508073757388331
0.006299999999999972,-9.81668170976349
0.00529999999999986,-10.863568071663616
0.0042999999999999705,-11.691174182084664
0.0032999999999998586,-12.56405105410139
0.0022999999999999687,-13.610937416001518
0.0012999999999998568,-14.61396772760583
0.00029999999999996696,-15.307176264539699
-0.000700000000000145,-15.87306078448571
-0.0017000000000000348,-16.495533756426326
-0.0027000000000001467,-17.231183632356142
-0.0037000000000000366,-18.009274847281915
-0.0047000000000001485,-18.53271802823198
-0.005700000000000038,-18.92883719219419
-0.00670000000000015,-19.367397695152352
-0.00770000000000004,-19.97572355409432
-0.008700000000000152,-20.584049413036283
-0.009700000000000042,-20.980168576998494
-0.010700000000000154,-21.291405062968803
-0.011700000000000044,-21.58849443594046
-0.012700000000000156,-22.069496277894572
-0.013700000000000045,-22.592939458844636
-0.014700000000000157,-22.904175944814945
-0.015700000000000047,-23.031499961802798
-0.01670000000000016,-23.300295108777156
-0.01770000000000005,-23.724708498736668
-0.01870000000000016,-24.120827662698876
-0.01970000000000005,-24.389622809673234
-0.020700000000000163,-24.432064148669184
-0.021700000000000053,-24.601829504652986
-0.022700000000000164,-24.997948668615198
-0.023700000000000054,-25.39406783257741
-0.024700000000000166,-25.563833188561212
-0.025700000000000056,-25.563833188561212
-0.026700000000000168,-25.691157205549064
-0.027700000000000058,-26.044835030515326
-0.02870000000000017,-26.38436574248293
-0.02970000000000006,-26.525836872469437
-0.03070000000000017,-26.483395533473487
-0.03170000000000006,-26.61071955046134
-0.03270000000000017,-26.907808923433
-0.03370000000000006,-27.219045409403304
-0.034700000000000175,-27.34636942639116
-0.035700000000000065,-27.303928087395207
-0.03670000000000018,-27.38881076538711
-0.03770000000000007,-27.65760591236147
-0.03870000000000018,-27.912253946337174
-0.03970000000000007,-28.011283737327723
-0.04070000000000018,-27.954695285333123
-0.04170000000000007,-28.05372507632368
-0.04270000000000018,-28.308373110299385
-0.04370000000000007,-28.619609596269694
-0.044700000000000184,-28.662050935265643
-0.045700000000000074,-28.577168257273744
-0.046700000000000186,-28.619609596269694
-0.047700000000000076,-28.789374952253496
-0.04870000000000019,-29.058170099227848
-0.04970000000000008,-29.100611438223805
-0.05070000000000019,-29.001581647233255
-0.05170000000000008,-29.001581647233255
-0.05270000000000019,-29.18549411621571
-0.05370000000000008,-29.35525947219951
-0.05470000000000019,-29.39770081119546
-0.05570000000000008,-29.27037679420761
-0.056700000000000195,-29.27037679420761
-0.057700000000000085,-29.440142150191413
-0.058700000000000196,-29.708937297165768
-0.059700000000000086,-29.751378636161718
-0.0607000000000002,-29.581613280177915
-0.06170000000000009,-29.581613280177915
-0.0627000000000002,-29.751378636161718
-0.06370000000000009,-29.921143992145527
-0.0647000000000002,-29.878702653149578
-0.06570000000000009,-29.751378636161718
-0.0667000000000002,-29.708937297165768
-0.0677000000000001,-29.836261314153624
-0.0687000000000002,-30.00602667013743
-0.0697000000000001,-30.00602667013743
-0.07070000000000021,-29.836261314153624
-0.0717000000000001,-29.793819975157668
-0.07270000000000021,-29.921143992145527
-0.0737000000000001,-30.10505646112798
-0.07470000000000021,-30.00602667013743
-0.0757000000000001,-29.836261314153624
-0.07670000000000021,-29.793819975157668
-0.0777000000000001,-29.878702653149578
-0.07870000000000021,-30.10505646112798
-0.0797000000000001,-30.10505646112798
-0.08070000000000022,-29.921143992145527
-0.0817000000000001,-29.836261314153624
-0.08270000000000022,-29.921143992145527
-0.08370000000000011,-30.04846800913338
-0.08470000000000022,-30.00602667013743
-0.08570000000000011,-29.793819975157668
-0.08670000000000022,-29.708937297165768
-0.08770000000000011,-29.793819975157668
-0.08870000000000022,-29.921143992145527
-0.08970000000000011,-29.878702653149578
-0.09070000000000022,-29.66649595816982
-0.09170000000000011,-29.482583489187363
-0.09270000000000023,-29.581613280177915
-0.09370000000000012,-29.62405461917387
-0.09470000000000023,-29.525024828183312
-0.09570000000000012,-29.31281813320356
-0.09670000000000023,-29.18549411621571
-0.09770000000000012,-29.27037679420761
-0.09870000000000023,-29.35525947219951
-0.09970000000000012,-29.22793545521166
-0.10070000000000023,-28.959140308237306
-0.10170000000000012,-28.831816291249446
-0.10270000000000024,-28.91669896924135
-0.10370000000000013,-29.001581647233255
-0.10470000000000024,-28.91669896924135
-0.10570000000000013,-28.619609596269694
-0.10670000000000024,-28.478138466283188
-0.10770000000000013,-28.53472691827779
-0.10870000000000024,-28.619609596269694
-0.10970000000000013,-28.53472691827779
-0.11070000000000024,-28.308373110299385
-0.11170000000000013,-28.18104909331153
-0.11270000000000002,-28.265931771303435
-0.11370000000000013,-28.308373110299385
-0.11470000000000002,-28.22349043230748
-0.11570000000000014,-27.912253946337174
-0.11670000000000003,-27.78492992934932
-0.11770000000000014,-27.827371268345274
-0.11870000000000003,-27.912253946337174
-0.11970000000000014,-27.78492992934932
-0.12070000000000003,-27.487840556377662
-0.12170000000000014,-27.303928087395207
-0.12270000000000003,-27.34636942639116
-0.12370000000000014,-27.43125210438306
-0.12470000000000003,-27.261486748399253
-0.12570000000000014,-27.049280053419505
-0.12670000000000003,-26.907808923433
-0.12770000000000015,-26.9643973754276
-0.12870000000000004,-27.049280053419505
-0.12970000000000015,-26.907808923433
-0.13070000000000004,-26.65316088945729
-0.13170000000000015,-26.483395533473487
-0.13270000000000004,-26.525836872469437
-0.13370000000000015,-26.61071955046134
-0.13470000000000004,-26.568278211465387
-0.13570000000000015,-26.257041725495082
-0.13670000000000004,-26.087276369511276
-0.13770000000000016,-26.17215904750318
-0.13870000000000005,-26.21460038649913
-0.13970000000000016,-26.129717708507226
-0.14070000000000005,-25.86092256153287
-0.14170000000000016,-25.73359854454502
-0.14270000000000005,-25.73359854454502
-0.14370000000000016,-25.77603988354097
-0.14470000000000005,-25.691157205549064
-0.14570000000000016,-25.43650917157336
-0.14670000000000005,-25.252596702590903
-0.14770000000000016,-25.295038041586857
-0.14870000000000005,-25.39406783257741
-0.14970000000000017,-25.252596702590903
-0.15070000000000006,-25.04039000761115
-0.15170000000000017,-24.870624651627345
-0.15270000000000006,-24.95550732961925
-0.15370000000000017,-24.997948668615198
-0.15470000000000006,-24.870624651627345
-0.15570000000000017,-24.601829504652986
-0.15670000000000006,-24.474505487665134
-0.15770000000000017,-24.516946826661083
-0.15870000000000006,-24.64427084364894
-0.15970000000000018,-24.559388165657033
-0.16070000000000007,-24.34718147067728
-0.16170000000000018,-24.120827662698876
-0.16270000000000007,-24.20571034069078
-0.16370000000000018,-24.290593018682678
-0.16470000000000007,-24.20571034069078
-0.16570000000000018,-23.993503645711023
-0.16670000000000007,-23.86617962872317
-0.16770000000000018,-23.951062306715073
-0.16870000000000007,-23.993503645711023
-0.16970000000000018,-23.908620967719123
-0.17070000000000007,-23.639825820744765
-0.17170000000000019,-23.51250180375691
-0.17270000000000008,-23.55494314275286
-0.1737000000000002,-23.639825820744765
-0.17470000000000008,-23.597384481748815
-0.1757000000000002,-23.342736447773106
-0.17670000000000008,-23.2012653177866
-0.1777000000000002,-23.24370665678255
-0.17870000000000008,-23.385177786769056
-0.1797000000000002,-23.24370665678255
-0.18070000000000008,-23.031499961802798
-0.1817000000000002,-22.861734605818995
-0.18270000000000008,-22.904175944814945
-0.1837000000000002,-23.031499961802798
-0.1847000000000001,-22.946617283810895
-0.1857000000000002,-22.776851927827092
-0.1867000000000001,-22.592939458844636
-0.1877000000000002,-22.67782213683654
-0.1887000000000001,-22.776851927827092
-0.1897000000000002,-22.63538079784059
-0.1907000000000001,-22.46561544185678
-0.1917000000000001,-22.38073276386488
-0.19269999999999998,-22.46561544185678
-0.1937000000000001,-22.592939458844636
-0.19469999999999998,-22.508056780852733
-0.1957000000000001,-22.295850085872978
-0.19669999999999999,-22.15437895588647
-0.1977000000000001,-22.253408746877028
-0.1987,-22.33829142486893
-0.1997000000000001,-22.295850085872978
-0.2007,-22.069496277894572
-0.2017000000000001,-21.94217226090672
-0.2027,-22.027054938898623
-0.2037000000000001,-22.15437895588647
-0.2047,-22.111937616890522
-0.2057000000000001,-21.899730921910766
-0.2067,-21.814848243918867
-0.2077000000000001,-21.899730921910766
-0.2087,-21.98461359990267
-0.2097000000000001,-21.899730921910766
-0.2107,-21.67337711393236
-0.2117000000000001,-21.58849443594046
-0.2127,-21.67337711393236
-0.2137000000000001,-21.814848243918867
-0.2147,-21.814848243918867
-0.2157000000000001,-21.63093577493641
-0.2167,-21.503611757948562
-0.21770000000000012,-21.58849443594046
-0.2187,-21.729965565926964
-0.21970000000000012,-21.67337711393236
-0.2207,-21.461170418952605
-0.22170000000000012,-21.418729079956652
-0.2227,-21.503611757948562
-0.22370000000000012,-21.63093577493641
-0.2247,-21.58849443594046
-0.22570000000000012,-21.376287740960702
-0.2267,-21.248963723972853
-0.22770000000000012,-21.418729079956652
-0.22870000000000001,-21.54605309694451
-0.22970000000000013,-21.503611757948562
-0.23070000000000002,-21.333846401964752
-0.23170000000000013,-21.248963723972853
-0.23270000000000002,-21.333846401964752
-0.23370000000000013,-21.461170418952605
-0.23470000000000002,-21.418729079956652
-0.23570000000000013,-21.291405062968803
-0.23670000000000002,-21.149933932982297
-0.2376999999999999,-21.291405062968803
-0.23870000000000002,-21.461170418952605
-0.2396999999999999,-21.418729079956652
-0.24070000000000003,-21.248963723972853
-0.24169999999999991,-21.149933932982297
-0.24270000000000003,-21.291405062968803
-0.24369999999999992,-21.461170418952605
-0.24470000000000003,-21.418729079956652
-0.24569999999999992,-21.248963723972853
-0.24670000000000003,-21.149933932982297
-0.24769999999999992,-21.291405062968803
-0.24870000000000003,-21.461170418952605
-0.24969999999999992,-21.418729079956652
-0.25070000000000003,-21.248963723972853
-0.2516999999999999,-21.2065223849769
-0.25270000000000004,-21.333846401964752
-0.2536999999999999,-21.503611757948562
-0.25470000000000004,-21.461170418952605
-0.2556999999999999,-21.291405062968803
-0.25670000000000004,-21.2065223849769
-0.25769999999999993,-21.333846401964752
-0.25870000000000004,-21.503611757948562
-0.25969999999999993,-21.503611757948562
-0.26070000000000004,-21.333846401964752
-0.26169999999999993,-21.291405062968803
-0.26270000000000004,-21.418729079956652
-0.26369999999999993,-21.54605309694451
-0.26470000000000005,-21.54605309694451
-0.26569999999999994,-21.376287740960702
-0.26670000000000005,-21.333846401964752
-0.26769999999999994,-21.461170418952605
-0.26870000000000005,-21.63093577493641
-0.26969999999999994,-21.63093577493641
-0.27070000000000005,-21.461170418952605
-0.27169999999999994,-21.376287740960702
-0.27270000000000005,-21.54605309694451
-0.27369999999999994,-21.729965565926964
-0.27470000000000006,-21.67337711393236
-0.27569999999999995,-21.54605309694451
-0.27670000000000006,-21.503611757948562
-0.27769999999999995,-21.63093577493641
-0.27870000000000006,-21.814848243918867
-0.27969999999999995,-21.814848243918867
-0.28070000000000006,-21.67337711393236
-0.28169999999999995,-21.63093577493641
-0.28270000000000006,-21.772406904922917
-0.28369999999999995,-21.94217226090672
-0.28470000000000006,-21.94217226090672
-0.28569999999999995,-21.814848243918867
-0.28670000000000007,-21.772406904922917
-0.28769999999999996,-21.899730921910766
-0.28870000000000007,-22.111937616890522
-0.28969999999999996,-22.15437895588647
-0.29070000000000007,-22.027054938898623
-0.29169999999999996,-21.98461359990267
-0.29270000000000007,-22.111937616890522
-0.29369999999999996,-22.33829142486893
-0.2947000000000001,-22.38073276386488
-0.29569999999999996,-22.196820294882425
-0.2967000000000001,-22.15437895588647
-0.29769999999999996,-22.33829142486893
-0.2987000000000001,-22.508056780852733
-0.29969999999999997,-22.592939458844636
-0.3007000000000001,-22.46561544185678
-0.30169999999999997,-22.46561544185678
-0.3027000000000001,-22.63538079784059
-0.30369999999999997,-22.861734605818995
-0.3047000000000001,-22.904175944814945
-0.30569999999999997,-22.819293266823045
-0.3067000000000001,-22.776851927827092
-0.3077,-22.989058622806844
-0.3087000000000001,-23.2012653177866
-0.3097,-23.300295108777156
-0.3107000000000001,-23.2012653177866
-0.3117,-23.2012653177866
-0.3127000000000001,-23.427619125765005
-0.3137,-23.682267159740714
-0.3147000000000001,-23.724708498736668
-0.3157,-23.682267159740714
-0.3167000000000001,-23.682267159740714
-0.3177,-23.908620967719123
-0.3187000000000001,-24.16326900169483
-0.3197,-24.24815167968673
-0.3207000000000001,-24.20571034069078
-0.3217,-24.24815167968673
-0.3227000000000001,-24.474505487665134
-0.3237,-24.771594860636792
-0.3247000000000001,-24.9130659906233
-0.3257,-24.870624651627345
-0.3267000000000001,-24.95550732961925
-0.3277,-25.252596702590903
-0.3287000000000001,-25.521391849565262
-0.3297,-25.648715866553115
-0.3307000000000001,-25.648715866553115
-0.3317,-25.73359854454502
-0.3327000000000001,-26.002393691519377
-0.3337,-26.38436574248293
-0.3347000000000001,-26.568278211465387
-0.3357,-26.61071955046134
-0.3367000000000001,-26.738043567449193
-0.3377,-27.049280053419505
-0.3387000000000001,-27.38881076538711
-0.3397,-27.615164573365515
-0.3407000000000001,-27.700047251357418
-0.3417,-27.827371268345274
-0.3427000000000001,-28.18104909331153
-0.3437,-28.619609596269694
-0.3447000000000001,-28.91669896924135
-0.3457,-29.001581647233255
-0.3467000000000001,-29.14305277721976
-0.3477,-29.581613280177915
-0.3487000000000001,-30.04846800913338
-0.3497,-30.317263156107735
-0.3507000000000001,-30.529469851087494
-0.3517,-30.79826499806185
-0.3527000000000001,-31.27926684001596
-0.3537,-31.84515135996197
-0.3547000000000001,-32.184682071929586
-0.3557,-32.45347721890394
-0.35670000000000013,-32.764713704874254
-0.3577,-33.330598224820264
-0.35870000000000013,-33.93892408376223
-0.3597,-34.41992592571634
-0.36070000000000013,-34.75945663768395
-0.3617,-35.198017140642115
-0.3626999999999999,-35.90537279057463
-0.3637,-36.6834640055004
-0.3646999999999999,-37.249348525446415
-0.3657,-37.687909028404576
-0.3666999999999999,-38.211352209354644
-0.3677,-38.98944342428042
-0.3686999999999999,-39.78168175220483
-0.36970000000000003,-40.51733162813464
-0.3706999999999999,-41.182245939071215
-0.37170000000000003,-41.91789581500104
-0.3726999999999999,-42.96478217690117
-0.37370000000000003,-44.096551216793195
-0.3746999999999999,-45.05855490070142
-0.37570000000000003,-45.89323456762179
-0.3766999999999999,-46.84109113853137
-0.37770000000000004,-48.114331308409895
-0.3786999999999999,-49.557336834272235
-0.37970000000000004,-50.85887123014807
-0.3806999999999999,-52.11796428702795
-0.38170000000000004,-53.476087134898386
-0.38269999999999993,-55.13129935574048
-0.38370000000000004,-56.97042404556503
-0.38469999999999993,-58.66807760540307
-0.38570000000000004,-60.32328982624517
-0.38669999999999993,-60.71940899020737
-0.38570000000000004,-59.14907944735718
-0.38469999999999993,-58.18707576344896
-0.38370000000000004,-57.45142588751914
-0.38269999999999993,-56.74407023758662
-0.38170000000000004,-56.30550973462846
-0.3806999999999999,-56.30550973462846
-0.37970000000000004,-56.404539525619015
-0.3786999999999999,-56.404539525619015
-0.37770000000000004,-56.22062705663656
-0.3766999999999999,-56.22062705663656
-0.37570000000000003,-56.44698086461496
-0.3746999999999999,-56.70162889859067
-0.37370000000000003,-56.82895291557852
-0.3726999999999999,-56.74407023758662
-0.37170000000000003,-56.70162889859067
-0.3706999999999999,-56.786511576582576
-0.36970000000000003,-56.97042404556503
-0.3686999999999999,-56.97042404556503
-0.3677,-56.786511576582576
-0.3666999999999999,-56.61674622059877
-0.3657,-56.61674622059877
-0.3646999999999999,-56.65918755959472
-0.3637,-56.57430488160282
-0.3626999999999999,-56.26306839563251
-0.3617,-56.008420361656796
-0.36070000000000013,-55.9235376836649
-0.3597,-55.838655005673
-0.35870000000000013,-55.56985985869864
-0.3577,-55.13129935574048
-0.35670000000000013,-54.791768643772876
-0.3557,-54.56541483579447
-0.3547000000000001,-54.43809081880661
-0.3537,-54.0419716548444
-0.3527000000000001,-53.518528473894335
-0.3517,-53.03752663194023
-0.3507000000000001,-52.69799591997262
-0.3497,-52.386759434002315
-0.3487000000000001,-51.990640270040096
-0.3477,-51.424755750094086
-0.3467000000000001,-50.90131256914402
-0.3457,-50.547634744177756
-0.3447000000000001,-50.20810403221015
-0.3437,-49.642219512264134
-0.3427000000000001,-48.93486386233162
-0.3417,-48.32653800338966
-0.3407000000000001,-47.93041883942744
-0.3397,-47.590888127459834
-0.3387000000000001,-47.067444946509774
-0.3377,-46.37423640957591
-0.3367000000000001,-45.624439420647434
-0.3357,-45.143437578693316
-0.3347000000000001,-44.66243573673921
-0.3337,-44.096551216793195
-0.3327000000000001,-43.36090134086337
-0.3317,-42.653545690930855
-0.3307000000000001,-42.130102509980794
-0.3297,-41.70568912002128
-0.3287000000000001,-41.04077480908471
-0.3277,-40.26268359415894
-0.3267000000000001,-39.51288660523048
-0.3257,-38.98944342428042
-0.3247000000000001,-38.5650300343209
-0.3237,-37.90011572338433
-0.3227000000000001,-37.122024508458566
-0.3217,-36.329786180534136
-0.3207000000000001,-35.763901660588125
-0.3197,-35.282899818634014
-0.3187000000000001,-34.632132620696105
-0.3177,-33.81160006677438
-0.3167000000000001,-33.06180307784591
-0.3157,-32.45347721890394
-0.3147000000000001,-31.972475376949827
-0.3137,-31.321708179011907
-0.3127000000000001,-30.487028512091538
-0.3117,-29.793819975157668
-0.3107000000000001,-29.22793545521166
-0.3097,-28.746933613257543
-0.3087000000000001,-28.05372507632368
-0.3077,-27.219045409403304
-0.3067000000000001,-26.483395533473487
-0.30569999999999997,-25.86092256153287
-0.3047000000000001,-25.43650917157336
-0.30369999999999997,-24.771594860636792
-0.3027000000000001,-23.993503645711023
-0.30169999999999997,-23.300295108777156
-0.3007000000000001,-22.72026347583249
-0.29969999999999997,-22.295850085872978
-0.2987000000000001,-21.58849443594046
-0.29769999999999996,-20.810403221014692
-0.2967000000000001,-20.10304757108217
-0.29569999999999996,-19.636192842126707
-0.2947000000000001,-19.197632339168546
-0.29369999999999996,-18.589306480226583
-0.29270000000000007,-17.797068152302163
-0.29169999999999996,-17.103859615368293
-0.29070000000000007,-16.622857773414182
-0.28969999999999996,-16.184297270456018
-0.28870000000000007,-15.660854089505953
-0.28769999999999996,-14.925204213576137
-0.28670000000000007,-14.26028990263957
-0.28569999999999995,-13.784946905884919
-0.28470000000000006,-13.3930718758223
-0.28369999999999995,-12.825772644576423
-0.28270000000000006,-12.12831997374296
-0.28169999999999995,-11.473308641905447
-0.28070000000000006,-11.037577561547016
-0.27969999999999995,-10.688143870480351
-0.27870000000000006,-10.164700689530287
-0.27769999999999995,-9.511104068992642
-0.27670000000000006,-8.899948787450944
-0.27569999999999995,-8.508073757388331
-0.27470000000000006,-8.158640066321666
-0.27369999999999994,-7.679052935667419
-0.27270000000000005,-7.024041603829907
-0.27169999999999994,-6.458157083883892
-0.27070000000000005,-6.064867342521412
-0.26969999999999994,-5.80314575204638
-0.26870000000000005,-5.367414671687949
