Potential V vs RHE, Current mA cm-2
0.013299999999999867,2.7360516539389814
0.012299999999999978,1.769803836131161
0.011299999999999866,1.1832645312071168
0.010299999999999976,0.7380548851395896
0.009299999999999864,0.40489037402137346
0.008299999999999974,0.10750391167674413
0.007299999999999862,-0.18787366062207686
0.006299999999999972,-0.44973672222709515
0.00529999999999986,-0.6469474774282812
0.0042999999999999705,-0.8233619765214514
0.0032999999999998586,-1.0142065308732449
0.0022999999999999687,-1.2238667455132433
0.0012999999999998568,-1.4115989350053335
0.00029999999999996696,-1.54769416205235
-0.000700000000000145,-1.6764328903400685
-0.0017000000000000348,-1.8334658446250875
-0.0027000000000001467,-1.9919135102099716
-0.0037000000000000366,-2.158849443594046
-0.0047000000000001485,-2.2621233684841937
-0.005700000000000038,-2.3569090255751513
-0.00670000000000015,-2.4700859295643536
-0.00770000000000004,-2.6143864821505876
-0.008700000000000152,-2.730392808739521
-0.009700000000000042,-2.852057980527914
-0.010700000000000154,-2.994943821814283
-0.011700000000000044,-3.0727529433068597
-0.012700000000000156,-3.1873445585959277
-0.013700000000000045,-3.276471370487425
-0.014700000000000157,-3.3981365422758185
-0.015700000000000047,-3.5311194044631313
-0.01670000000000016,-3.6754199570493657
-0.01770000000000005,-3.7051288943465317
-0.01870000000000016,-3.7603026350412674
-0.01970000000000005,-3.8565030034320897
-0.020700000000000163,-3.9385562588242617
-0.021700000000000053,-4.002218267318188
-0.022700000000000164,-4.119639305206987
-0.023700000000000054,-4.201692560599159
-0.024700000000000166,-4.316284175888227
-0.025700000000000056,-4.358725514884178
-0.026700000000000168,-4.495952510971087
-0.027700000000000058,-4.61195883756002
-0.02870000000000017,-4.654400176555971
-0.02970000000000006,-4.7208916076496275
-0.03070000000000017,-4.785968327443419
-0.03170000000000006,-4.911877633131407
-0.03270000000000017,-5.01090742412196
-0.03370000000000006,-5.095790102113861
-0.034700000000000175,-5.18774633660509
-0.035700000000000065,-5.258481901598341
-0.03670000000000018,-5.305167374493887
-0.03770000000000007,-5.4169295671832245
-0.03870000000000018,-5.537180027671754
-0.03970000000000007,-5.630550973462847
-0.04070000000000018,-5.657430488160282
-0.04170000000000007,-5.745142588751914
-0.04270000000000018,-5.832854689343546
-0.04370000000000007,-5.938958036833425
-0.044700000000000184,-6.00262004532735
-0.045700000000000074,-6.053549652122491
-0.046700000000000186,-6.17945895781048
-0.047700000000000076,-6.257268079303058
-0.04870000000000019,-6.360542004193205
-0.04970000000000008,-6.387421518890641
-0.05070000000000019,-6.476548330782138
-0.05170000000000008,-6.568504565273366
-0.05270000000000019,-6.644898975466076
-0.05370000000000008,-6.751002322955955
-0.05470000000000019,-6.794858373251771
-0.05570000000000008,-6.868423360844753
-0.056700000000000195,-6.94623248233733
-0.057700000000000085,-7.052335829827209
-0.058700000000000196,-7.154195043417491
-0.059700000000000086,-7.200880516313037
-0.0607000000000002,-7.227760031010472
-0.06170000000000009,-7.346595780199135
-0.0627000000000002,-7.454113838988878
-0.06370000000000009,-7.557387763879025
-0.0647000000000002,-7.582852567276596
-0.06570000000000009,-7.616805638473357
-0.0667000000000002,-7.720079563363504
-0.0677000000000001,-7.838915312552168
-0.0687000000000002,-7.953506927841237
-0.0697000000000001,-7.990289421637726
-0.07070000000000021,-8.003021823336512
-0.0717000000000001,-8.056780852731386
-0.07270000000000021,-8.287378794609385
-0.0737000000000001,-8.25484043471249
-0.07470000000000021,-8.324161288405875
-0.0757000000000001,-8.399140987298722
-0.07670000000000021,-8.47412068619157
-0.0777000000000001,-8.561832786783201
-0.07870000000000021,-8.728768720167276
-0.0797000000000001,-8.834872067657153
-0.08070000000000022,-8.834872067657153
-0.0817000000000001,-9.182891047423954
-0.08270000000000022,-9.280506127114641
-0.08370000000000011,-9.048493473936775
-0.08470000000000022,-9.05273760783637
-0.08570000000000011,-9.168743934425303
-0.08670000000000022,-9.267773725415855
-0.08770000000000011,-9.27201785931545
-0.08870000000000022,-9.39509774240371
-0.08970000000000011,-9.45734503959777
-0.09070000000000022,-9.47998042039561
-0.09170000000000011,-9.55496011928846
-0.09270000000000023,-9.709163650973746
-0.09370000000000012,-9.806778730664435
-0.09470000000000023,-9.907223232954852
-0.09570000000000012,-9.901564387755393
-0.09670000000000023,-9.969470530148914
-0.09770000000000012,-10.112356371435283
-0.09870000000000023,-10.236850965823406
-0.09970000000000012,-10.297683551717602
-0.10070000000000023,-10.287780572618546
-0.10170000000000012,-10.409445744406941
-0.10270000000000024,-10.545258029193985
-0.10370000000000013,-10.641458397584804
-0.10470000000000024,-10.709364539978326
-0.10570000000000013,-10.838103268266046
-0.10670000000000024,-10.89044758636105
-0.10770000000000013,-10.913082967158893
-0.10870000000000024,-11.169145712434466
-0.10970000000000013,-11.314860976320563
-0.11070000000000024,-11.262516658225557
-0.11170000000000013,-11.508676424402074
-0.11270000000000002,-11.577997278095461
-0.11370000000000013,-11.565264876396675
-0.11470000000000002,-11.712394851582639
-0.11570000000000014,-11.9203574126628
-0.11670000000000003,-11.887819052765904
-0.11770000000000014,-12.121246417243634
-0.11870000000000003,-12.332038400923524
-0.11970000000000014,-12.392870986817721
-0.12070000000000003,-12.35891791562096
-0.12170000000000014,-12.455118284011784
-0.12270000000000003,-12.680057380690325
-0.12370000000000014,-12.763525347382362
-0.12470000000000003,-12.841334468874939
-0.12570000000000014,-12.95168195026441
-0.12670000000000003,-13.1058854819497
-0.12770000000000015,-13.261503724934855
-0.12870000000000004,-13.407218988820953
-0.12970000000000015,-13.561422520506243
-0.13070000000000004,-13.685917114894366
-0.13170000000000015,-13.728358453890316
-0.13270000000000004,-13.961785818368046
-0.13370000000000015,-14.10608637095428
-0.13470000000000004,-14.30273124163552
-0.13570000000000015,-14.387613919627421
-0.13670000000000004,-14.444202371622024
-0.13770000000000016,-14.755438857592333
-0.13870000000000005,-14.953498439573437
-0.13970000000000016,-14.98179266557074
-0.14070000000000005,-15.123263795557243
-0.14170000000000016,-15.278882038542395
-0.14270000000000005,-15.519382959519453
-0.14370000000000016,-15.604265637511356
-0.14470000000000005,-15.816472332491113
-0.14570000000000016,-15.88720789748436
-0.14670000000000005,-16.014531914472215
-0.14770000000000016,-16.269179948447924
-0.14870000000000005,-16.495533756426326
-0.14970000000000017,-16.651151999411482
-0.15070000000000006,-16.764328903400685
-0.15170000000000017,-16.919947146385837
-0.15270000000000006,-17.174595180361546
-0.15370000000000017,-17.301919197349395
-0.15470000000000006,-17.471684553333205
-0.15570000000000017,-17.528273005327804
-0.15670000000000006,-17.76877392630486
-0.15770000000000017,-18.15074597726842
-0.15870000000000006,-18.08001041227517
-0.15970000000000018,-18.263922881257624
-0.16070000000000007,-18.759071836210385
-0.16170000000000018,-18.88639585319824
-0.16270000000000007,-19.027866983184744
-0.16370000000000018,-18.985425644188794
-0.16470000000000007,-19.423986147146955
-0.16570000000000018,-19.622045729128057
-0.16670000000000007,-19.791811085111863
-0.16770000000000018,-19.947429328097016
-0.16870000000000007,-20.14548891007812
-0.16970000000000018,-20.244518701068674
-0.17070000000000007,-20.69722631702549
-0.17170000000000019,-20.69722631702549
-0.17270000000000008,-20.881138786007945
-0.1737000000000002,-21.13578681998365
-0.17470000000000008,-21.362140627962056
-0.1757000000000002,-21.489464644949905
-0.17670000000000008,-21.758259791924264
-0.1777000000000002,-21.91387803490942
-0.17870000000000008,-22.210967407881075
-0.1797000000000002,-22.40902698986218
-0.18070000000000008,-22.493909667854084
-0.1817000000000002,-22.87588171881764
-0.18270000000000008,-23.031499961802798
-0.1837000000000002,-23.272000882779853
-0.1847000000000001,-23.62567870774611
-0.1857000000000002,-23.724708498736668
-0.1867000000000001,-23.781296950731264
-0.1877000000000002,-24.092533436701576
-0.1887000000000001,-24.65841795664759
-0.1897000000000002,-24.927213103621945
-0.1907000000000001,-24.898918877624645
-0.1917000000000001,-24.856477538628695
-0.19269999999999998,-25.252596702590903
-0.1937000000000001,-25.549686075562565
-0.19469999999999998,-26.29948306449103
-0.1957000000000001,-26.752190680447846
-0.19669999999999999,-26.59657243746269
-0.1977000000000001,-26.28533595149238
-0.1987,-26.511689759470787
-0.1997000000000001,-26.86536758443705
-0.2007,-26.9643973754276
-0.2017000000000001,-27.162456957408708
-0.2027,-27.34636942639116
-0.2037000000000001,-27.601017460366865
-0.2047,-27.756635703352025
-0.2057000000000001,-27.954695285333123
-0.2067,-28.22349043230748
-0.2077000000000001,-28.548874031276437
-0.2087,-28.8742576302454
-0.2097000000000001,-28.8742576302454
-0.2107,-28.9025518562427
-0.2117000000000001,-29.199641229214354
-0.2127,-29.369406585198163
-0.2137000000000001,-29.62405461917387
-0.2147,-29.949438218142824
-0.2157000000000001,-30.58605830308209
-0.2167,-30.925589015049702
-0.21770000000000012,-30.331410269106385
-0.2187,-30.62849964207804
-0.21970000000000012,-30.91144190205105
-0.2207,-31.27926684001596
-0.22170000000000012,-31.23682550102001
-0.2227,-31.434885083001117
-0.22370000000000012,-31.632944664982226
-0.2247,-31.83100424696332
-0.22570000000000012,-32.08565228093904
-0.2267,-32.56665412289314
-0.22770000000000012,-33.203274207832415
-0.22870000000000001,-33.21742132083106
-0.22970000000000013,-32.892037721862096
-0.23070000000000002,-32.99106751285265
-0.23170000000000013,-33.245715546828364
-0.23270000000000002,-33.55695203279867
-0.23370000000000013,-33.57109914579732
-0.23470000000000002,-33.89648274476628
-0.23570000000000013,-34.16527789174064
-0.23670000000000002,-34.47651437771095
-0.2376999999999999,-34.9716633326637
-0.23870000000000002,-35.02825178465831
-0.2396999999999999,-34.98581044566235
-0.24070000000000003,-35.08484023665291
-0.24169999999999991,-34.90092776767045
-0.24270000000000003,-35.15557580164616
-0.24369999999999992,-35.268752705635364
-0.24470000000000003,-35.57998919160567
-0.24569999999999992,-35.679018982596226
-0.24670000000000003,-35.87707856457733
-0.24769999999999992,-36.25905061554089
-0.24870000000000003,-36.08928525955708
-0.24969999999999992,-36.329786180534136
-0.25070000000000003,-36.41466885852605
-0.2516999999999999,-36.4288159715247
-0.25270000000000004,-36.669316892501755
-0.2536999999999999,-36.655169779503105
-0.25470000000000004,-36.725905344496354
-0.2556999999999999,-36.796640909489604
-0.25670000000000004,-37.164465847454515
-0.25769999999999993,-37.41911388143023
-0.25870000000000004,-37.136171621457216
-0.25969999999999993,-37.43326099442887
-0.26070000000000004,-37.78693881939513
-0.26169999999999993,-37.78693881939513
-0.26270000000000004,-37.801085932393775
-0.26369999999999993,-37.716203254401876
-0.26470000000000005,-37.88596861038568
-0.26569999999999994,-38.01329262737354
-0.26670000000000005,-38.06988107936814
-0.26769999999999994,-38.267940661349236
-0.26870000000000005,-38.31038200034519
-0.26969999999999994,-38.11232241836409
-0.27070000000000005,-38.16891087035869
-0.27169999999999994,-38.23964643535194
-0.27270000000000005,-38.42355890433439
-0.27369999999999994,-38.480147356329
-0.27470000000000006,-38.4518531303317
-0.27569999999999995,-38.5650300343209
-0.27670000000000006,-38.253793548350586
-0.27769999999999995,-38.55088292132225
-0.27870000000000006,-38.46600024333035
-0.27969999999999995,-38.40941179133574
-0.28070000000000006,-38.211352209354644
-0.28169999999999995,-38.35282333934114
-0.28270000000000006,-38.12646953136274
-0.28369999999999995,-38.23964643535194
-0.28470000000000006,-38.607471373316855
-0.28569999999999995,-38.23964643535194
-0.28670000000000007,-38.05573396636949
-0.28769999999999996,-37.687909028404576
-0.28870000000000007,-37.98499840137623
-0.28969999999999996,-38.197205096355994
-0.29070000000000007,-37.91426283638298
-0.29169999999999996,-37.43326099442887
-0.29270000000000007,-37.51814367242077
-0.29369999999999996,-37.32008409043967
-0.2947000000000001,-37.15031873445586
-0.29569999999999996,-36.9381120394761
-0.2967000000000001,-36.83908224848555
-0.29769999999999996,-36.5985813275085
-0.2987000000000001,-36.584434214509855
-0.29969999999999997,-36.25905061554089
-0.3007000000000001,-36.08928525955708
-0.30169999999999997,-35.89122567757598
-0.3027000000000001,-35.806342999584075
-0.30369999999999997,-35.693166095594876
-0.3047000000000001,-35.339488270628614
-0.30569999999999997,-35.198017140642115
-0.3067000000000001,-34.8301922026772
-0.3077,-34.44822015171364
-0.3087000000000001,-34.5472499427042
-0.3097,-34.193572117737936
-0.3107000000000001,-33.79745295377573
-0.3117,-33.627687597791926
-0.3127000000000001,-33.50036358080407
-0.3137,-33.07595019084456
-0.3147000000000001,-33.14668575583781
-0.3157,-32.821302156868846
-0.3167000000000001,-32.368594540912035
-0.3177,-32.21297629792688
-0.3187000000000001,-31.85929847296063
-0.3197,-31.84515135996197
-0.3207000000000001,-31.47732642199707
-0.3217,-31.250972614018657
-0.3227000000000001,-31.12364859703081
-0.3237,-30.656793868075347
-0.3247000000000001,-30.614352529079397
-0.3257,-30.43044006009694
-0.3267000000000001,-30.21823336511718
-0.3277,-29.864555540150924
-0.3287000000000001,-29.850408427152274
-0.3297,-29.73723152316307
-0.3307000000000001,-29.567466167179266
-0.3317,-29.157199890218404
-0.3327000000000001,-29.086464325225155
-0.3337,-29.044022986229205
-0.3347000000000001,-28.944993195238652
-0.3357,-28.746933613257543
-0.3367000000000001,-28.633756709268344
-0.3377,-28.619609596269694
-0.3387000000000001,-28.435697127287238
-0.3397,-28.22349043230748
-0.3407000000000001,-28.421550014288584
-0.3417,-28.435697127287238
-0.3427000000000001,-28.265931771303435
-0.3437,-28.09616641531963
-0.3447000000000001,-28.12446064131693
-0.3457,-27.883959720339874
-0.3467000000000001,-28.13860775431558
-0.3477,-28.02543085032638
-0.3487000000000001,-28.209343319308836
-0.3497,-28.06787218932233
-0.3507000000000001,-28.06787218932233
-0.3517,-28.06787218932233
-0.3527000000000001,-28.18104909331153
-0.3537,-28.166901980312883
-0.3547000000000001,-28.22349043230748
-0.3557,-28.19519620631018
-0.35670000000000013,-28.237637545306132
-0.3577,-28.280078884302082
-0.35870000000000013,-28.52057980527914
-0.3597,-28.44984424028589
-0.36070000000000013,-28.506432692280487
-0.3617,-28.506432692280487
-0.3626999999999999,-28.619609596269694
-0.3637,-29.242082568210304
-0.3646999999999999,-29.001581647233255
-0.3657,-29.044022986229205
-0.3666999999999999,-29.22793545521166
-0.3677,-29.34111235920086
-0.3686999999999999,-29.29867102020491
-0.36970000000000003,-29.62405461917387
-0.3706999999999999,-29.510877715184666
-0.37170000000000003,-29.35525947219951
-0.3726999999999999,-29.609907506175215
-0.37370000000000003,-29.793819975157668
-0.3746999999999999,-29.935291105144174
-0.37570000000000003,-29.76552574916037
-0.3766999999999999,-30.06261512213203
-0.37770000000000004,-30.47288139909289
-0.3786999999999999,-30.232380478115836
-0.37970000000000004,-30.303116043109085
-0.3806999999999999,-30.43044006009694
-0.38170000000000004,-30.416292947098288
-0.38269999999999993,-30.58605830308209
-0.38370000000000004,-30.670940981073993
-0.38469999999999993,-30.727529433068593
-0.38570000000000004,-30.741676546067247
-0.38669999999999993,-31.109501484032155
-0.38770000000000004,-31.109501484032155
-0.38869999999999993,-31.20853127502271
-0.38970000000000005,-31.30756106601326
-0.39069999999999994,-31.180237049025404
-0.39170000000000005,-31.22267838802136
-0.39269999999999994,-31.16608993602676
-0.39370000000000005,-31.533914873991666
-0.39469999999999994,-31.434885083001117
-0.39570000000000005,-31.46317930899841
-0.39669999999999994,-31.675386003978172
-0.39770000000000005,-31.604650438984915
-0.39869999999999994,-31.915886924955227
-0.39970000000000006,-31.95832826395118
-0.40069999999999995,-31.816857133964678
-0.40170000000000006,-31.788562907967375
-0.40269999999999995,-31.930034037953877
-0.40370000000000006,-32.01491671594578
-0.40469999999999995,-32.19882918492823
-0.40570000000000006,-32.269564749921486
-0.40669999999999995,-32.354447427913385
-0.40770000000000006,-32.340300314914735
-0.40869999999999995,-32.42518299290664
-0.40970000000000006,-32.65153680088505
-0.41069999999999995,-32.58080123589179
-0.41170000000000007,-32.821302156868846
-0.41269999999999996,-32.97692039985401
-0.41370000000000007,-32.90618483486075
-0.41469999999999996,-33.302303998822964
-0.41570000000000007,-33.40133378981351
-0.41669999999999996,-33.38718667681487
-0.41770000000000007,-33.41548090281216
-0.41869999999999996,-33.712570275783825
-0.4197000000000001,-33.712570275783825
-0.42069999999999996,-33.95307119676088
-0.4217000000000001,-34.6887210726907
-0.42269999999999996,-35.198017140642115
-0.4237000000000001,-35.07069312365426
-0.42469999999999997,-34.81604508967855
-0.4257000000000001,-35.38192960962457
-0.42669999999999997,-35.254605592636715
-0.4277000000000001,-35.99025546856653
-0.42869999999999997,-37.15031873445586
-0.4297000000000001,-37.56058501141672
-0.43069999999999997,-37.46155522042617
-0.4317000000000001,-37.90011572338433
-0.4327,-38.31038200034519
-0.4337000000000001,-38.734795390304704
-0.4347,-39.79582886520348
-0.4357000000000001,-40.460743176140056
-0.4367,-41.02662769608606
-0.4377000000000001,-42.115955396982145
-0.4387,-43.19113598487957
-0.4397000000000001,-44.181433894785094
-0.4407,-45.157584691691966
-0.4417000000000001,-47.053297833511124
-0.4427,-48.4255677943802
-0.4437000000000001,-49.23195323530328
-0.4447,-50.335428049198
-0.4457000000000001,-52.14625851302525
-0.4467,-53.476087134898386
-0.4477000000000001,-55.56985985869864
-0.4487,-57.66363258249889
-0.4497000000000001,-59.53105149832074
-0.4507,-61.29944062315204
-0.4517000000000001,-63.57712581593475
-0.4527,-65.6991927657323
-0.4537000000000001,-68.06176063650692
-0.4547,-70.21212181230177
-0.4557000000000001,-72.63127813507097
-0.4567,-75.29093537881725
-0.4577000000000001,-77.61106191059591
-0.4587,-80.34145471933543
-0.4597000000000001,-82.6615812511141
-0.4607,-85.10903179988061
-0.4617000000000001,-87.71210059163228
-0.4627,-90.6971414343475
-0.4637000000000001,-93.00312085312751
-0.4647,-95.05445223793181
-0.4657000000000001,-97.74240370767538
-0.4667,-100.62841475940007
-0.4677000000000001,-102.87780572618546
-0.4687,-105.21207937096277
-0.4697000000000001,-107.56050012873874
-0.4707,-109.99380356450659
-0.4717000000000001,-112.29978298328662
-0.4727,-114.50673261107607
-0.4737000000000001,-116.89759470784797
-0.4747,-119.20357412662798
-0.4757000000000001,-121.66517178839315
-0.4767,-123.4760022522204
-0.4777000000000001,-125.82442300999638
-0.4787,-127.80501882980741
-0.4797000000000001,-130.13929247458472
-0.4807,-132.07744695539984
-0.48170000000000013,-134.46830905217172
-0.4827,-136.34987508099226
-0.48370000000000013,-138.5568247087817
-0.4847,-140.14130136463055
-0.48570000000000013,-141.89554337646317
-0.4867,-143.16878354634173
-0.48570000000000013,-141.89554337646317
-0.4847,-141.00427525754822
-0.48370000000000013,-140.33936094661163
-0.4827,-139.08026788973174
-0.48170000000000013,-138.44364780479248
-0.4807,-137.08552495692206
-0.4797000000000001,-136.0103443690246
-0.4787,-134.83613399013663
-0.4777000000000001,-134.35513214818255
-0.4767,-132.27550653738092
-0.4757000000000001,-131.4549739834592
-0.4747,-131.0022663675024
-0.4737000000000001,-129.75732042362114
-0.4727,-128.4416389147467
-0.4717000000000001,-127.09766317987489
-0.4707,-125.79612878399907
-0.4697000000000001,-124.49459438812325
-0.4687,-123.17891287924873
-0.4677000000000001,-122.54229279430947
-0.4667,-121.49540643240935
-0.4657000000000001,-118.5386598156914
-0.4647,-117.91618684375081
