Potential V vs RHE, Current mA cm-2
0.013299999999999867,-0.30755823659065895
0.012299999999999978,-1.7910245056291363
0.011299999999999866,-2.7501987669376318
0.010299999999999976,-3.4915074880669104
0.009299999999999864,-4.102662769608606
0.008299999999999974,-4.538393849967037
0.007299999999999862,-4.974124930325469
0.006299999999999972,-5.235846520800501
0.00529999999999986,-5.367414671687949
0.0042999999999999705,-5.497568111275533
0.0032999999999998586,-5.5414241615713475
0.0022999999999999687,-5.629136262162981
0.0012999999999998568,-5.629136262162981
0.00029999999999996696,-5.629136262162981
-0.000700000000000145,-5.715433651454749
-0.0017000000000000348,-5.759289701750564
-0.0027000000000001467,-5.890857852638012
-0.0037000000000000366,-6.021011292225596
-0.0047000000000001485,-6.108723392817228
-0.005700000000000038,-6.196435493408861
-0.00670000000000015,-6.326588932996443
-0.00770000000000004,-6.37044498329226
-0.008700000000000152,-6.414301033588076
-0.009700000000000042,-6.37044498329226
-0.010700000000000154,-6.326588932996443
-0.011700000000000044,-6.282732882700628
-0.012700000000000156,-6.238876832404812
-0.013700000000000045,-6.238876832404812
-0.014700000000000157,-6.282732882700628
-0.015700000000000047,-6.326588932996443
-0.01670000000000016,-6.458157083883892
-0.01770000000000005,-6.54445447317566
-0.01870000000000016,-6.588310523471475
-0.01970000000000005,-6.762320013354876
-0.020700000000000163,-6.762320013354876
-0.021700000000000053,-6.806176063650692
-0.022700000000000164,-6.719878674358924
-0.023700000000000054,-6.6760226240631075
-0.024700000000000166,-6.6760226240631075
-0.025700000000000056,-6.632166573767292
-0.026700000000000168,-6.54445447317566
-0.027700000000000058,-6.588310523471475
-0.02870000000000017,-6.588310523471475
-0.02970000000000006,-6.719878674358924
-0.03070000000000017,-6.806176063650692
-0.03170000000000006,-6.893888164242324
-0.03270000000000017,-6.981600264833956
-0.03370000000000006,-7.024041603829907
-0.034700000000000175,-7.024041603829907
-0.035700000000000065,-7.024041603829907
-0.03670000000000018,-6.981600264833956
-0.03770000000000007,-6.893888164242324
-0.03870000000000018,-6.893888164242324
-0.03970000000000007,-6.762320013354876
-0.04070000000000018,-6.806176063650692
-0.04170000000000007,-6.806176063650692
-0.04270000000000018,-6.893888164242324
-0.04370000000000007,-6.981600264833956
-0.044700000000000184,-7.067897654125724
-0.045700000000000074,-7.155609754717355
-0.046700000000000186,-7.199465805013171
-0.047700000000000076,-7.199465805013171
-0.04870000000000019,-7.243321855308987
-0.04970000000000008,-7.199465805013171
-0.05070000000000019,-7.111753704421539
-0.05170000000000008,-7.067897654125724
-0.05270000000000019,-6.981600264833956
-0.05370000000000008,-7.024041603829907
-0.05470000000000019,-7.024041603829907
-0.05570000000000008,-7.024041603829907
-0.056700000000000195,-7.111753704421539
-0.057700000000000085,-7.199465805013171
-0.058700000000000196,-7.28576319430494
-0.059700000000000086,-7.37347529489657
-0.0607000000000002,-7.37347529489657
-0.06170000000000009,-7.37347529489657
-0.0627000000000002,-7.37347529489657
-0.06370000000000009,-7.28576319430494
-0.0647000000000002,-7.199465805013171
-0.06570000000000009,-7.155609754717355
-0.0667000000000002,-7.111753704421539
-0.0677000000000001,-7.155609754717355
-0.0687000000000002,-7.111753704421539
-0.0697000000000001,-7.199465805013171
-0.07070000000000021,-7.28576319430494
-0.0717000000000001,-7.329619244600755
-0.07270000000000021,-7.461187395488204
-0.0737000000000001,-7.461187395488204
-0.07470000000000021,-7.461187395488204
-0.0757000000000001,-7.4173313451923875
-0.07670000000000021,-7.37347529489657
-0.0777000000000001,-7.329619244600755
-0.07870000000000021,-7.243321855308987
-0.0797000000000001,-7.155609754717355
-0.08070000000000022,-7.155609754717355
-0.0817000000000001,-7.199465805013171
-0.08270000000000022,-7.243321855308987
-0.08370000000000011,-7.329619244600755
-0.08470000000000022,-7.37347529489657
-0.08570000000000011,-7.461187395488204
-0.08670000000000022,-7.5474847847799715
-0.08770000000000011,-7.50504344578402
-0.08870000000000022,-7.50504344578402
-0.08970000000000011,-7.461187395488204
-0.09070000000000022,-7.37347529489657
-0.09170000000000011,-7.329619244600755
-0.09270000000000023,-7.243321855308987
-0.09370000000000012,-7.199465805013171
-0.09470000000000023,-7.243321855308987
-0.09570000000000012,-7.28576319430494
-0.09670000000000023,-7.37347529489657
-0.09770000000000012,-7.4173313451923875
-0.09870000000000023,-7.461187395488204
-0.09970000000000012,-7.591340835075788
-0.10070000000000023,-7.591340835075788
-0.10170000000000012,-7.591340835075788
-0.10270000000000024,-7.5474847847799715
-0.10370000000000013,-7.4173313451923875
-0.10470000000000024,-7.37347529489657
-0.10570000000000013,-7.329619244600755
-0.10670000000000024,-7.28576319430494
-0.10770000000000013,-7.329619244600755
-0.10870000000000024,-7.28576319430494
-0.10970000000000013,-7.37347529489657
-0.11070000000000024,-7.461187395488204
-0.11170000000000013,-7.50504344578402
-0.11270000000000002,-7.635196885371603
-0.11370000000000013,-7.635196885371603
-0.11470000000000002,-7.635196885371603
-0.11570000000000014,-7.635196885371603
-0.11670000000000003,-7.5474847847799715
-0.11770000000000014,-7.461187395488204
-0.11870000000000003,-7.4173313451923875
-0.11970000000000014,-7.329619244600755
-0.12070000000000003,-7.37347529489657
-0.12170000000000014,-7.329619244600755
-0.12270000000000003,-7.4173313451923875
-0.12370000000000014,-7.50504344578402
-0.12470000000000003,-7.5474847847799715
-0.12570000000000014,-7.635196885371603
-0.12670000000000003,-7.679052935667419
-0.12770000000000015,-7.722908985963235
-0.12870000000000004,-7.722908985963235
-0.12970000000000015,-7.635196885371603
-0.13070000000000004,-7.5474847847799715
-0.13170000000000015,-7.50504344578402
-0.13270000000000004,-7.4173313451923875
-0.13370000000000015,-7.4173313451923875
-0.13470000000000004,-7.461187395488204
-0.13570000000000015,-7.461187395488204
-0.13670000000000004,-7.5474847847799715
-0.13770000000000016,-7.635196885371603
-0.13870000000000005,-7.679052935667419
-0.13970000000000016,-7.809206375255003
-0.14070000000000005,-7.809206375255003
-0.14170000000000016,-7.809206375255003
-0.14270000000000005,-7.7653503249591855
-0.14370000000000016,-7.679052935667419
-0.14470000000000005,-7.635196885371603
-0.14570000000000016,-7.591340835075788
-0.14670000000000005,-7.5474847847799715
-0.14770000000000016,-7.591340835075788
-0.14870000000000005,-7.5474847847799715
-0.14970000000000017,-7.635196885371603
-0.15070000000000006,-7.722908985963235
-0.15170000000000017,-7.809206375255003
-0.15270000000000006,-7.896918475846635
-0.15370000000000017,-7.940774526142452
-0.15470000000000006,-7.940774526142452
-0.15570000000000017,-7.940774526142452
-0.15670000000000006,-7.809206375255003
-0.15770000000000017,-7.809206375255003
-0.15870000000000006,-7.7653503249591855
-0.15970000000000018,-7.679052935667419
-0.16070000000000007,-7.679052935667419
-0.16170000000000018,-7.722908985963235
-0.16270000000000007,-7.7653503249591855
-0.16370000000000018,-7.896918475846635
-0.16470000000000007,-7.984630576438266
-0.16570000000000018,-8.070927965730034
-0.16670000000000007,-8.11478401602585
-0.16770000000000018,-8.11478401602585
-0.16870000000000007,-8.11478401602585
-0.16970000000000018,-8.070927965730034
-0.17070000000000007,-8.027071915434218
-0.17170000000000019,-7.984630576438266
-0.17270000000000008,-7.853062425550818
-0.1737000000000002,-7.896918475846635
-0.17470000000000008,-7.940774526142452
-0.1757000000000002,-7.984630576438266
-0.17670000000000008,-8.070927965730034
-0.1777000000000002,-8.158640066321666
-0.17870000000000008,-8.246352166913299
-0.1797000000000002,-8.376505606500881
-0.18070000000000008,-8.332649556205066
-0.1817000000000002,-8.376505606500881
-0.18270000000000008,-8.332649556205066
-0.1837000000000002,-8.246352166913299
-0.1847000000000001,-8.246352166913299
-0.1857000000000002,-8.202496116617484
-0.1867000000000001,-8.158640066321666
-0.1877000000000002,-8.202496116617484
-0.1887000000000001,-8.202496116617484
-0.1897000000000002,-8.332649556205066
-0.1907000000000001,-8.4203616567967
-0.1917000000000001,-8.508073757388331
-0.19269999999999998,-8.594371146680096
-0.1937000000000001,-8.68208324727173
-0.19469999999999998,-8.68208324727173
-0.1957000000000001,-8.68208324727173
-0.19669999999999999,-8.638227196975913
-0.1977000000000001,-8.638227196975913
-0.1987,-8.594371146680096
-0.1997000000000001,-8.508073757388331
-0.2007,-8.55051509638428
-0.2017000000000001,-8.55051509638428
-0.2027,-8.638227196975913
-0.2037000000000001,-8.769795347863363
-0.2047,-8.85609273715513
-0.2057000000000001,-8.987660888042578
-0.2067,-9.031516938338395
-0.2077000000000001,-9.073958277334345
-0.2087,-9.11781432763016
-0.2097000000000001,-9.073958277334345
-0.2107,-9.031516938338395
-0.2117000000000001,-8.987660888042578
-0.2127,-8.943804837746763
-0.2137000000000001,-8.987660888042578
-0.2147,-8.987660888042578
-0.2157000000000001,-9.11781432763016
-0.2167,-9.24938247851761
-0.21770000000000012,-9.335679867809377
-0.2187,-9.423391968401008
-0.21970000000000012,-9.55496011928846
-0.2207,-9.59740145828441
-0.22170000000000012,-9.641257508580225
-0.2227,-9.59740145828441
-0.22370000000000012,-9.55496011928846
-0.2247,-9.55496011928846
-0.22570000000000012,-9.511104068992642
-0.2267,-9.55496011928846
-0.22770000000000012,-9.59740145828441
-0.22870000000000001,-9.59740145828441
-0.22970000000000013,-9.728969609171857
-0.23070000000000002,-9.902979099055257
-0.23170000000000013,-9.99069119964689
-0.23270000000000002,-10.120844639234473
-0.23370000000000013,-10.164700689530287
-0.23470000000000002,-10.25241279012192
-0.23570000000000013,-10.25241279012192
-0.23670000000000002,-10.25241279012192
-0.2376999999999999,-10.25241279012192
-0.23870000000000002,-10.25241279012192
-0.2396999999999999,-10.208556739826104
-0.24070000000000003,-10.296268840417738
-0.24169999999999991,-10.340124890713554
-0.24270000000000003,-10.470278330301136
-0.24369999999999992,-10.601846481188586
-0.24470000000000003,-10.731999920776168
-0.24569999999999992,-10.863568071663616
-0.24670000000000003,-10.993721511251199
-0.24769999999999992,-11.037577561547016
-0.24870000000000003,-11.081433611842833
-0.24969999999999992,-11.123874950838783
-0.25070000000000003,-11.123874950838783
-0.2516999999999999,-11.081433611842833
-0.25270000000000004,-11.081433611842833
-0.2536999999999999,-11.1677310011346
-0.25470000000000004,-11.255443101726232
-0.2556999999999999,-11.343155202317865
-0.25670000000000004,-11.473308641905447
-0.25769999999999993,-11.604876792792895
-0.25870000000000004,-11.73503023238048
-0.25969999999999993,-11.952895772559694
-0.26070000000000004,-11.996751822855511
-0.26169999999999993,-12.084463923447142
-0.26270000000000004,-12.084463923447142
-0.26369999999999993,-12.084463923447142
-0.26470000000000005,-12.12831997374296
-0.26569999999999994,-12.12831997374296
-0.26670000000000005,-12.12831997374296
-0.26769999999999994,-12.258473413330542
-0.26870000000000005,-12.302329463626359
-0.26969999999999994,-12.476338953509758
-0.27070000000000005,-12.607907104397206
-0.27169999999999994,-12.781916594280606
-0.27270000000000005,-12.955926084164007
-0.27369999999999994,-13.087494235051453
-0.27470000000000006,-13.13135028534727
-0.27569999999999995,-13.217647674639037
-0.27670000000000006,-13.217647674639037
-0.27769999999999995,-13.30535977523067
-0.27870000000000006,-13.30535977523067
-0.27969999999999995,-13.349215825526485
-0.28070000000000006,-13.436927926118118
-0.28169999999999995,-13.523225315409885
-0.28270000000000006,-13.698649516593148
-0.28369999999999995,-13.872659006476551
-0.28470000000000006,-14.046668496359947
-0.28569999999999995,-14.217848563643619
-0.28670000000000007,-14.401761032626075
-0.28769999999999996,-14.529085049613924
-0.28870000000000007,-14.57152638860988
-0.28969999999999996,-14.61396772760583
-0.29070000000000007,-14.69885040559773
-0.29169999999999996,-14.741291744593681
-0.29270000000000007,-14.783733083589633
-0.29369999999999996,-14.868615761581536
-0.2947000000000001,-14.967645552572087
-0.29569999999999996,-15.137410908555893
-0.2967000000000001,-15.349617603535648
-0.29769999999999996,-15.491088733522153
-0.2987000000000001,-15.70329542850191
-0.29969999999999997,-15.91550212348166
-0.3007000000000001,-16.056973253468165
-0.30169999999999997,-16.22673860945197
-0.3027000000000001,-16.269179948447924
-0.30369999999999997,-16.311621287443874
-0.3047000000000001,-16.396503965435777
-0.30569999999999997,-16.438945304431726
-0.3067000000000001,-16.53797509542228
-0.3077,-16.665299112410132
-0.3087000000000001,-16.792623129397985
-0.3097,-16.962388485381787
-0.3107000000000001,-17.188742293360193
-0.3117,-17.358507649344002
-0.3127000000000001,-17.584861457322408
-0.3137,-17.75462681330621
-0.3147000000000001,-17.881950830294063
-0.3157,-18.009274847281915
-0.3167000000000001,-18.10830463827247
-0.3177,-18.19318731626437
-0.3187000000000001,-18.23562865526032
-0.3197,-18.320511333252224
-0.3207000000000001,-18.44783535024008
-0.3217,-18.589306480226583
-0.3227000000000001,-18.80151317520634
-0.3237,-19.056161209182044
-0.3247000000000001,-19.2400736781645
-0.3257,-19.49472171214021
-0.3267000000000001,-19.721075520118614
-0.3277,-19.848399537106463
-0.3287000000000001,-20.06060623208622
-0.3297,-20.159636023076775
-0.3307000000000001,-20.286960040064624
-0.3317,-20.371842718056527
-0.3327000000000001,-20.456725396048434
-0.3337,-20.584049413036283
-0.3347000000000001,-20.76796188201874
-0.3357,-20.980168576998494
-0.3367000000000001,-21.248963723972853
-0.3377,-21.503611757948562
-0.3387000000000001,-21.772406904922917
-0.3397,-22.069496277894572
-0.3407000000000001,-22.253408746877028
-0.3417,-22.42317410286083
-0.3427000000000001,-22.550498119848687
-0.3437,-22.67782213683654
-0.3447000000000001,-22.819293266823045
-0.3457,-22.946617283810895
-0.3467000000000001,-23.073941300798747
-0.3477,-23.300295108777156
-0.3487000000000001,-23.47006046476096
-0.3497,-23.724708498736668
-0.3507000000000001,-23.993503645711023
-0.3517,-24.24815167968673
-0.3527000000000001,-24.601829504652986
-0.3537,-24.814036199632742
-0.3547000000000001,-24.997948668615198
-0.3557,-25.167714024599
-0.35670000000000013,-25.337479380582806
-0.3577,-25.478950510569312
-0.35870000000000013,-25.648715866553115
-0.3597,-25.77603988354097
-0.36070000000000013,-26.002393691519377
-0.3617,-26.21460038649913
-0.3626999999999999,-26.525836872469437
-0.3637,-26.780484906445146
-0.3646999999999999,-27.049280053419505
-0.3657,-27.38881076538711
-0.3666999999999999,-27.65760591236147
-0.3677,-27.912253946337174
-0.3686999999999999,-28.13860775431558
-0.36970000000000003,-28.308373110299385
-0.3706999999999999,-28.478138466283188
-0.37170000000000003,-28.662050935265643
-0.3726999999999999,-28.831816291249446
-0.37370000000000003,-29.058170099227848
-0.3746999999999999,-29.27037679420761
-0.37570000000000003,-29.581613280177915
-0.3766999999999999,-29.921143992145527
-0.37770000000000004,-30.274821817111786
-0.3786999999999999,-30.529469851087494
-0.37970000000000004,-30.925589015049702
-0.3806999999999999,-31.19438416202406
-0.38170000000000004,-31.49147353499572
-0.38269999999999993,-31.661238890979522
-0.38370000000000004,-31.84515135996197
-0.38469999999999993,-32.09979939393769
-0.38570000000000004,-32.368594540912035
-0.38669999999999993,-32.58080123589179
-0.38770000000000004,-32.84959638286615
-0.38869999999999993,-33.14668575583781
-0.38970000000000005,-33.50036358080407
-0.39069999999999994,-33.89648274476628
-0.39170000000000005,-34.278454795729836
-0.39269999999999994,-34.67457395969205
-0.39370000000000005,-34.98581044566235
-0.39469999999999994,-35.282899818634014
-0.39570000000000005,-35.594136304604326
-0.39669999999999994,-35.806342999584075
-0.39770000000000005,-36.07513814655844
-0.39869999999999994,-36.329786180534136
-0.39970000000000006,-36.55613998851254
-0.40069999999999995,-36.8532293614842
-0.40170000000000006,-37.164465847454515
-0.40269999999999995,-37.51814367242077
-0.40370000000000006,-37.94255706238028
-0.40469999999999995,-38.33867622634249
-0.40570000000000006,-38.777236729300654
-0.40669999999999995,-39.173355893262865
-0.40770000000000006,-39.47044526623452
-0.40869999999999995,-39.82412309120078
-0.40970000000000006,-40.135359577171094
-0.41069999999999995,-40.3900076111468
-0.41170000000000007,-40.701244097117105
-0.41269999999999996,-40.95589213109281
-0.41370000000000007,-41.267128617063115
-0.41469999999999996,-41.66324778102533
-0.41570000000000007,-42.04521983198889
-0.41669999999999996,-42.483780334947056
-0.41770000000000007,-42.92234083790521
-0.41869999999999996,-43.40334267985933
-0.4197000000000001,-43.88434452181344
-0.42069999999999996,-44.28046368577565
-0.4217000000000001,-44.704877075735155
-0.42269999999999996,-45.05855490070142
-0.4237000000000001,-45.32735004767578
-0.42469999999999997,-45.666880759643384
-0.4257000000000001,-45.97811724561369
-0.42669999999999997,-46.3176479575813
-0.4277000000000001,-46.75620846053947
-0.42869999999999997,-47.10988628550572
-0.4297000000000001,-47.54844678846388
-0.43069999999999997,-47.987007291422046
-0.4317000000000001,-48.45386202037751
-0.4327,-48.97730520132757
-0.4337000000000001,-49.41586570428573
-0.4347,-49.81198486824794
-0.4357000000000001,-50.20810403221015
-0.4367,-50.60422319617236
-0.4377000000000001,-50.943753908139975
-0.4387,-51.29743173310623
-0.4397000000000001,-51.69355089706845
-0.4407,-52.11796428702795
-0.4417000000000001,-52.59896612898206
-0.4427,-53.12240930993213
-0.4437000000000001,-53.68829382987814
-0.4447,-54.2117370108282
-0.4457000000000001,-54.791768643772876
-0.4467,-55.357653163718886
-0.4477000000000001,-55.838655005673
-0.4487,-56.36209818662306
-0.4497000000000001,-56.786511576582576
-0.4507,-57.26751341853669
-0.4517000000000001,-57.70607392149485
-0.4527,-58.14463442445301
-0.4537000000000001,-58.62563626640712
-0.4547,-59.14907944735718
-0.4557000000000001,-59.7149639673032
-0.4567,-60.28084848724921
-0.4577000000000001,-60.889174346191176
-0.4587,-61.49750020513315
-0.4597000000000001,-62.16241451606972
-0.4607,-62.64341635802381
-0.4617000000000001,-63.20930087796983
-0.4627,-63.732744058919906
-0.4637000000000001,-64.15715744887942
-0.4647,-64.72304196882543
-0.4657000000000001,-65.20404381077954
-0.4667,-65.7274869917296
-0.4677000000000001,-66.29337151167562
-0.4687,-66.81681469262568
-0.4697000000000001,-67.48172900356225
-0.4707,-68.13249620150016
-0.4717000000000001,-68.82570473843404
-0.4727,-69.4906190493706
-0.4737000000000001,-70.05650356931662
-0.4747,-70.66482942825859
-0.4757000000000001,-71.2307139482046
-0.4767,-71.7117157901587
-0.4777000000000001,-72.27760031010472
-0.4787,-72.75860215205884
-0.4797000000000001,-73.2820453330089
-0.4807,-73.8479298529549
-0.48170000000000013,-74.41381437290093
-0.4827,-75.1070229098348
-0.48370000000000013,-75.81437855976732
-0.4847,-76.50758709670117
-0.48570000000000013,-77.243236972631
-0.4867,-76.55002843569714
-0.48570000000000013,-74.14501922592657
-0.4847,-72.44736566608852
-0.48370000000000013,-71.0043601402262
-0.4827,-69.74526708334632
-0.48170000000000013,-68.61349804345427
-0.4807,-67.56661168155415
-0.4797000000000001,-66.60460799764593
-0.4787,-65.7274869917296
-0.4777000000000001,-64.90695443780788
-0.4767,-64.15715744887942
-0.4757000000000001,-63.421507572949594
-0.4747,-62.72829903601572
-0.4737000000000001,-62.06338472507916
-0.4727,-61.37017618814529
-0.4717000000000001,-60.63452631221547
-0.4707,-59.884729323287
-0.4697000000000001,-59.10663810836124
-0.4687,-58.35684111943277
-0.4677000000000001,-57.57874990450699
-0.4667,-56.88554136757313
-0.4657000000000001,-56.1781857176406
-0.4647,-55.527418519702685
-0.4637000000000001,-54.919092660760725
-0.4627,-54.31076680181876
-0.4617000000000001,-53.7873236208687
-0.4607,-53.26388043991864
