Potential V vs RHE, Current mA cm-2
0.013299999999999867,0.6084673300719523
0.012299999999999978,-0.7437137303390498
0.011299999999999866,-1.8773218949209036
0.010299999999999976,-2.924208256821031
0.009299999999999864,-3.927238568425342
0.008299999999999974,-4.843971490737885
0.007299999999999862,-5.672992312458796
0.006299999999999972,-6.37044498329226
0.00529999999999986,-6.981600264833956
0.0042999999999999705,-7.591340835075788
0.0032999999999998586,-8.246352166913299
0.0022999999999999687,-8.899948787450944
0.0012999999999998568,-9.467248018696827
0.00029999999999996696,-9.946835149351072
-0.000700000000000145,-10.470278330301136
-0.0017000000000000348,-10.993721511251199
-0.0027000000000001467,-11.42945259160963
-0.0037000000000000366,-11.82274233297211
-0.0047000000000001485,-12.040607873151327
-0.005700000000000038,-12.302329463626359
-0.00670000000000015,-12.56405105410139
-0.00770000000000004,-12.869628694872238
-0.008700000000000152,-13.30535977523067
-0.009700000000000042,-13.654793466297335
-0.010700000000000154,-14.046668496359947
-0.011700000000000044,-14.345172580631472
-0.012700000000000156,-14.61396772760583
-0.013700000000000045,-14.741291744593681
-0.014700000000000157,-14.826174422585586
-0.015700000000000047,-14.925204213576137
-0.01670000000000016,-15.094969569559943
-0.01770000000000005,-15.307176264539699
-0.01870000000000016,-15.491088733522153
-0.01970000000000005,-15.618412750510005
-0.020700000000000163,-15.74573676749786
-0.021700000000000053,-15.972090575476265
-0.022700000000000164,-16.184297270456018
-0.023700000000000054,-16.311621287443874
-0.024700000000000166,-16.438945304431726
-0.025700000000000056,-16.495533756426326
-0.026700000000000168,-16.495533756426326
-0.027700000000000058,-16.53797509542228
-0.02870000000000017,-16.53797509542228
-0.02970000000000006,-16.622857773414182
-0.03070000000000017,-16.877505807389888
-0.03170000000000006,-17.146300954364243
-0.03270000000000017,-17.358507649344002
-0.03370000000000006,-17.4433903273359
-0.034700000000000175,-17.48583166633185
-0.035700000000000065,-17.48583166633185
-0.03670000000000018,-17.542420118326454
-0.03770000000000007,-17.542420118326454
-0.03870000000000018,-17.584861457322408
-0.03970000000000007,-17.627302796318357
-0.04070000000000018,-17.669744135314307
-0.04170000000000007,-17.75462681330621
-0.04270000000000018,-17.839509491298113
-0.04370000000000007,-17.924392169290012
-0.044700000000000184,-17.966833508285966
-0.045700000000000074,-18.06586329927652
-0.046700000000000186,-18.10830463827247
-0.047700000000000076,-18.009274847281915
-0.04870000000000019,-17.924392169290012
-0.04970000000000008,-17.881950830294063
-0.05070000000000019,-17.924392169290012
-0.05170000000000008,-18.10830463827247
-0.05270000000000019,-18.362952672248177
-0.05370000000000008,-18.49027668923603
-0.05470000000000019,-18.589306480226583
-0.05570000000000008,-18.631747819222536
-0.056700000000000195,-18.631747819222536
-0.057700000000000085,-18.589306480226583
-0.058700000000000196,-18.53271802823198
-0.059700000000000086,-18.40539401124413
-0.0607000000000002,-18.40539401124413
-0.06170000000000009,-18.589306480226583
-0.0627000000000002,-18.843954514202288
-0.06370000000000009,-19.056161209182044
-0.0647000000000002,-19.155191000172596
-0.06570000000000009,-19.112749661176647
-0.0667000000000002,-18.97127853119014
-0.0677000000000001,-18.843954514202288
-0.0687000000000002,-18.631747819222536
-0.0697000000000001,-18.49027668923603
-0.07070000000000021,-18.49027668923603
-0.0717000000000001,-18.716630497214435
-0.07270000000000021,-19.056161209182044
-0.0737000000000001,-19.28251501716045
-0.07470000000000021,-19.367397695152352
-0.0757000000000001,-19.3249563561564
-0.07670000000000021,-19.155191000172596
-0.0777000000000001,-19.056161209182044
-0.07870000000000021,-18.92883719219419
-0.0797000000000001,-18.88639585319824
-0.08070000000000022,-19.01371987018609
-0.0817000000000001,-19.155191000172596
-0.08270000000000022,-19.28251501716045
-0.08370000000000011,-19.49472171214021
-0.08470000000000022,-19.579604390132108
-0.08570000000000011,-19.636192842126707
-0.08670000000000022,-19.636192842126707
-0.08770000000000011,-19.537163051136158
-0.08870000000000022,-19.367397695152352
-0.08970000000000011,-19.2400736781645
-0.09070000000000022,-19.155191000172596
-0.09170000000000011,-19.28251501716045
-0.09270000000000023,-19.537163051136158
-0.09370000000000012,-19.763516859114564
-0.09470000000000023,-19.890840876102416
-0.09570000000000012,-19.93328221509837
-0.09670000000000023,-19.93328221509837
-0.09770000000000012,-19.805958198110513
-0.09870000000000023,-19.721075520118614
-0.09970000000000012,-19.579604390132108
-0.10070000000000023,-19.579604390132108
-0.10170000000000012,-19.678634181122664
-0.10270000000000024,-19.721075520118614
-0.10370000000000013,-19.763516859114564
-0.10470000000000024,-19.848399537106463
-0.10570000000000013,-19.97572355409432
-0.10670000000000024,-20.10304757108217
-0.10770000000000013,-20.202077362072725
-0.10870000000000024,-20.06060623208622
-0.10970000000000013,-19.890840876102416
-0.11070000000000024,-19.805958198110513
-0.11170000000000013,-19.805958198110513
-0.11270000000000002,-19.97572355409432
-0.11370000000000013,-20.01816489309027
-0.11470000000000002,-20.01816489309027
-0.11570000000000014,-20.10304757108217
-0.11670000000000003,-20.286960040064624
-0.11770000000000014,-20.456725396048434
-0.11870000000000003,-20.499166735044383
-0.11970000000000014,-20.456725396048434
-0.12070000000000003,-20.371842718056527
-0.12170000000000014,-20.286960040064624
-0.12270000000000003,-20.202077362072725
-0.12370000000000014,-20.10304757108217
-0.12470000000000003,-20.159636023076775
-0.12570000000000014,-20.329401379060574
-0.12670000000000003,-20.626490752032236
-0.12770000000000015,-20.810403221014692
-0.12870000000000004,-20.85284456001064
-0.12970000000000015,-20.72552054302279
-0.13070000000000004,-20.584049413036283
-0.13170000000000015,-20.456725396048434
-0.13270000000000004,-20.414284057052477
-0.13370000000000015,-20.371842718056527
-0.13470000000000004,-20.499166735044383
-0.13570000000000015,-20.584049413036283
-0.13670000000000004,-20.626490752032236
-0.13770000000000016,-20.76796188201874
-0.13870000000000005,-20.89528589900659
-0.13970000000000016,-20.980168576998494
-0.14070000000000005,-21.022609915994444
-0.14170000000000016,-21.022609915994444
-0.14270000000000005,-20.93772723800254
-0.14370000000000016,-20.810403221014692
-0.14470000000000005,-20.72552054302279
-0.14570000000000016,-20.683079204026836
-0.14670000000000005,-20.810403221014692
-0.14770000000000016,-21.107492593986347
-0.14870000000000005,-21.333846401964752
-0.14970000000000017,-21.461170418952605
-0.15070000000000006,-21.503611757948562
-0.15170000000000017,-21.461170418952605
-0.15270000000000006,-21.376287740960702
-0.15370000000000017,-21.248963723972853
-0.15470000000000006,-21.149933932982297
-0.15570000000000017,-21.149933932982297
-0.15670000000000006,-21.248963723972853
-0.15770000000000017,-21.418729079956652
-0.15870000000000006,-21.418729079956652
-0.15970000000000018,-21.418729079956652
-0.16070000000000007,-21.503611757948562
-0.16170000000000018,-21.67337711393236
-0.16270000000000007,-21.814848243918867
-0.16370000000000018,-21.814848243918867
-0.16470000000000007,-21.729965565926964
-0.16570000000000018,-21.54605309694451
-0.16670000000000007,-21.58849443594046
-0.16770000000000018,-21.63093577493641
-0.16870000000000007,-21.67337711393236
-0.16970000000000018,-21.814848243918867
-0.17070000000000007,-22.027054938898623
-0.17170000000000019,-22.295850085872978
-0.17270000000000008,-22.508056780852733
-0.1737000000000002,-22.550498119848687
-0.17470000000000008,-22.508056780852733
-0.1757000000000002,-22.38073276386488
-0.17670000000000008,-22.295850085872978
-0.1777000000000002,-22.253408746877028
-0.17870000000000008,-22.111937616890522
-0.1797000000000002,-22.111937616890522
-0.18070000000000008,-22.295850085872978
-0.1817000000000002,-22.592939458844636
-0.18270000000000008,-22.904175944814945
-0.1837000000000002,-23.073941300798747
-0.1847000000000001,-23.031499961802798
-0.1857000000000002,-22.861734605818995
-0.1867000000000001,-22.72026347583249
-0.1877000000000002,-22.67782213683654
-0.1887000000000001,-22.776851927827092
-0.1897000000000002,-22.904175944814945
-0.1907000000000001,-23.031499961802798
-0.1917000000000001,-23.24370665678255
-0.19269999999999998,-23.55494314275286
-0.1937000000000001,-23.767149837732617
-0.19469999999999998,-23.908620967719123
-0.1957000000000001,-23.951062306715073
-0.19669999999999999,-23.86617962872317
-0.1977000000000001,-23.767149837732617
-0.1987,-23.682267159740714
-0.1997000000000001,-23.597384481748815
-0.2007,-23.823738289727217
-0.2017000000000001,-24.16326900169483
-0.2027,-24.559388165657033
-0.2037000000000001,-24.870624651627345
-0.2047,-24.95550732961925
-0.2057000000000001,-24.95550732961925
-0.2067,-24.870624651627345
-0.2077000000000001,-24.771594860636792
-0.2087,-24.729153521640843
-0.2097000000000001,-24.686712182644893
-0.2107,-24.814036199632742
-0.2117000000000001,-25.252596702590903
-0.2127,-25.691157205549064
-0.2137000000000001,-26.044835030515326
-0.2147,-26.257041725495082
-0.2157000000000001,-26.29948306449103
-0.2167,-26.21460038649913
-0.21770000000000012,-26.129717708507226
-0.2187,-26.087276369511276
-0.21970000000000012,-26.087276369511276
-0.2207,-26.38436574248293
-0.22170000000000012,-26.9643973754276
-0.2227,-27.487840556377662
-0.22370000000000012,-27.869812607341224
-0.2247,-28.09616641531963
-0.22570000000000012,-28.13860775431558
-0.2267,-28.05372507632368
-0.22770000000000012,-28.05372507632368
-0.22870000000000001,-28.09616641531963
-0.22970000000000013,-28.13860775431558
-0.23070000000000002,-28.393255788291288
-0.23170000000000013,-28.91669896924135
-0.23270000000000002,-29.525024828183312
-0.23370000000000013,-30.00602667013743
-0.23470000000000002,-30.317263156107735
-0.23570000000000013,-30.444587173095588
-0.23670000000000002,-30.444587173095588
-0.2376999999999999,-30.359704495103685
-0.23870000000000002,-30.444587173095588
-0.2396999999999999,-30.571911190083444
-0.24070000000000003,-30.968030354045652
-0.24169999999999991,-31.533914873991666
-0.24270000000000003,-32.283711862920136
-0.24369999999999992,-32.84959638286615
-0.24470000000000003,-33.231568433829715
-0.24569999999999992,-33.45792224180811
-0.24670000000000003,-33.627687597791926
-0.24769999999999992,-33.670128936787876
-0.24870000000000003,-33.755011614779775
-0.24969999999999992,-33.89648274476628
-0.25070000000000003,-34.236013456733886
-0.2516999999999999,-34.94336910666641
-0.25270000000000004,-35.721460321592176
-0.2536999999999999,-36.4288159715247
-0.25470000000000004,-37.037141830466666
-0.2556999999999999,-37.376672542434264
-0.25670000000000004,-37.56058501141672
-0.25769999999999993,-37.687909028404576
-0.25870000000000004,-37.85767438438838
-0.25969999999999993,-38.12646953136274
-0.26070000000000004,-38.6499127123128
-0.26169999999999993,-39.34312124924667
-0.26270000000000004,-39.90900576919269
-0.26369999999999993,-40.4748902891387
-0.26470000000000005,-41.182245939071215
-0.26569999999999994,-41.91789581500104
-0.26670000000000005,-42.526221673943
-0.26769999999999994,-43.04966485489307
-0.26870000000000005,-43.27601866287147
-0.26969999999999994,-43.48822535785123
-0.27070000000000005,-43.84190318281749
-0.27169999999999994,-44.28046368577565
-0.27270000000000005,-45.05855490070142
-0.27369999999999994,-46.147882601597495
-0.27470000000000006,-47.067444946509774
-0.27569999999999995,-47.987007291422046
-0.27670000000000006,-48.72265716735186
-0.27769999999999995,-49.24610034830193
-0.27870000000000006,-49.50074838227763
-0.27969999999999995,-49.81198486824794
-0.28070000000000006,-50.12322135421825
-0.28169999999999995,-50.60422319617236
-0.28270000000000006,-51.38231441109813
-0.28369999999999995,-52.471642111994214
-0.28470000000000006,-53.603411151886235
-0.28569999999999995,-54.791768643772876
-0.28670000000000007,-55.7820665536784
-0.28769999999999996,-56.30550973462846
-0.28870000000000007,-56.53186354260687
-0.28969999999999996,-56.786511576582576
-0.29070000000000007,-57.05530672355693
-0.29169999999999996,-57.79095659948675
-0.29270000000000007,-59.06419676936528
-0.29369999999999996,-60.63452631221547
-0.2947000000000001,-61.936060708091304
-0.29569999999999996,-63.02538840898739
-0.2967000000000001,-63.902509414903705
-0.29769999999999996,-64.38351125685783
-0.2987000000000001,-64.68060062982947
-0.29969999999999997,-65.03427845479574
-0.3007000000000001,-65.38795627976201
-0.30169999999999997,-66.29337151167562
-0.3027000000000001,-67.86370105452582
-0.30369999999999997,-69.57550172736251
-0.3047000000000001,-71.2307139482046
-0.30569999999999997,-72.48980700508447
-0.3067000000000001,-73.15472131602105
-0.3077,-73.40936934999675
-0.3087000000000001,-73.53669336698461
-0.3097,-73.89037119195086
-0.3107000000000001,-74.41381437290093
-0.3117,-75.71534876877676
-0.3127000000000001,-77.68179747558916
-0.3137,-79.56336350440966
-0.3147000000000001,-81.1761343862558
-0.3157,-82.43522744313569
-0.3167000000000001,-82.95867062408576
-0.3177,-83.18502443206415
-0.3187000000000001,-83.48211380503581
-0.3197,-83.79335029100612
-0.3207000000000001,-84.7977953139103
-0.3217,-86.80668535971866
-0.3227000000000001,-89.02778210050676
-0.3237,-90.99423080731917
-0.3247000000000001,-92.33820654219093
-0.3257,-93.25776888710321
-0.3267000000000001,-93.65388805106544
-0.3277,-93.82365340704924
-0.3287000000000001,-94.21977257101145
-0.3297,-94.7432157519615
-0.3307000000000001,-95.91742613084948
-0.3317,-97.96875751565379
-0.3327000000000001,-100.2747369344338
-0.3337,-102.45339233622596
-0.3347000000000001,-103.98128054008019
-0.3357,-104.64619485101677
-0.3367000000000001,-104.85840154599651
-0.3377,-105.25452070995874
-0.3387000000000001,-105.46672740493848
-0.3397,-106.51361376683862
-0.3407000000000001,-108.1688259876807
-0.3417,-109.654272852539
-0.3427000000000001,-111.3094850733811
-0.3437,-113.40325779718134
-0.3447000000000001,-115.32726516499778
-0.3457,-116.81271202985609
-0.3467000000000001,-117.81715705276027
-0.3477,-118.3406002337103
-0.3487000000000001,-118.72257228467387
-0.3497,-119.51481061259831
-0.3507000000000001,-120.56169697449842
-0.3517,-122.1320265173486
-0.3527000000000001,-123.65991472120285
-0.3537,-125.10292024706521
-0.3547000000000001,-126.6732497899154
-0.3557,-128.41334468874936
-0.35670000000000013,-130.19588092657932
-0.3577,-131.80865180842545
-0.35870000000000013,-132.89797950932152
-0.3597,-133.29409867328377
-0.36070000000000013,-133.46386402926754
-0.3617,-133.90242453222572
-0.3626999999999999,-134.6097801821582
-0.3637,-136.3923164199882
-0.3646999999999999,-139.05197366373446
-0.3657,-141.75407224647665
-0.3666999999999999,-144.01761032626072
-0.3677,-146.1396772760583
-0.3686999999999999,-147.1299751859638
-0.36970000000000003,-147.27144631595033
-0.3706999999999999,-147.83733083589632
-0.37170000000000003,-147.83733083589632
-0.3726999999999999,-148.54468648582886
-0.37370000000000003,-149.8179266557074
-0.3746999999999999,-151.23263795557244
-0.37570000000000003,-153.07176264539694
-0.3766999999999999,-155.61824298515404
-0.37770000000000004,-158.3061944548976
-0.3786999999999999,-160.28679027470866
-0.37970000000000004,-161.5600304445872
-0.3806999999999999,-162.12591496453322
-0.38170000000000004,-161.84297270456022
-0.38269999999999993,-161.9844438345467
-0.38370000000000004,-162.40885722450622
-0.38469999999999993,-163.68209739438475
-0.38570000000000004,-166.22857773414182
-0.38669999999999993,-168.35064468393938
-0.38570000000000004,-168.35064468393938
-0.38469999999999993,-167.92623129397984
-0.38370000000000004,-166.79446225408785
-0.38269999999999993,-164.9553375642633
-0.38170000000000004,-162.5503283544927
-0.3806999999999999,-160.42826140469515
-0.37970000000000004,-158.3061944548976
-0.3786999999999999,-156.60854089505958
-0.37770000000000004,-156.18412750510007
-0.3766999999999999,-156.46706976507306
-0.37570000000000003,-157.17442541500557
-0.3746999999999999,-157.17442541500557
-0.37370000000000003,-156.18412750510007
-0.3726999999999999,-154.6279450752485
-0.37170000000000003,-152.22293586547795
-0.3706999999999999,-149.6764555257209
-0.36970000000000003,-147.55438857592333
-0.3686999999999999,-146.1396772760583
-0.3677,-145.85673501608528
-0.3666999999999999,-146.28114840604482
-0.3657,-146.7055617960043
-0.3646999999999999,-146.8470329259908
-0.3637,-145.9982061460718
-0.3626999999999999,-144.15908145624724
-0.3617,-142.03701450644968
-0.36070000000000013,-139.70274086167237
-0.3597,-137.65140947686808
-0.35870000000000013,-136.03863859502192
-0.3577,-135.1332233631083
-0.35670000000000013,-134.9068695551299
-0.3557,-135.26054738009617
-0.3547000000000001,-135.43031273607997
-0.3537,-135.1332233631083
-0.3527000000000001,-133.8599831932298
-0.3517,-131.76621046942952
-0.3507000000000001,-129.50267238964545
-0.3497,-127.66354769982091
-0.3487000000000001,-126.00833547897882
-0.3477,-125.10292024706521
-0.3467000000000001,-124.66435974410705
-0.3457,-123.95700409417452
-0.3447000000000001,-123.09403020125686
-0.3437,-122.69791103729463
-0.3427000000000001,-122.34423321232836
-0.3417,-121.69346601439047
-0.3407000000000001,-120.47681429650652
-0.3397,-118.86404341466037
-0.3387000000000001,-116.81271202985609
-0.3377,-115.01602867902749
-0.3367000000000001,-113.79937696114357
-0.3357,-112.62516658225556
-0.3347000000000001,-111.8753695933271
-0.3337,-111.7056042373433
-0.3327000000000001,-111.49339754236355
-0.3317,-111.18216105639323
-0.3307000000000001,-110.57383519745127
-0.3297,-109.30059502757274
-0.3287000000000001,-107.34829343375898
-0.3277,-105.38184472694657
-0.3267000000000001,-103.68419116710854
-0.3257,-102.02897894626645
-0.3247000000000001,-101.02453392336226
-0.3237,-100.79818011538387
-0.3227000000000001,-100.84062145437981
-0.3217,-100.75573877638791
-0.3207000000000001,-100.31717827342976
-0.3197,-99.14296789454177
-0.3187000000000001,-97.21896052672531
-0.3177,-95.26665893291157
-0.3167000000000001,-93.46997558208298
-0.3157,-91.89964603923279
-0.3147000000000001,-91.12155482430701
-0.3137,-91.12155482430701
-0.3127000000000001,-91.12155482430701
-0.3117,-90.93764235532454
-0.3107000000000001,-90.11710980140283
-0.3097,-88.80142829252836
-0.3087000000000001,-87.14621607168625
-0.3077,-85.32123849486035
-0.3067000000000001,-83.79335029100612
-0.30569999999999997,-82.52011012112759
-0.3047000000000001,-81.51566509822342
-0.30369999999999997,-81.04881036926795
-0.3027000000000001,-80.99222191727335
-0.30169999999999997,-80.86489790028548
-0.3007000000000001,-80.21413070234757
-0.29969999999999997,-78.9550376454677
-0.2987000000000001,-77.38470810261751
-0.29769999999999996,-75.6729074297808
-0.2967000000000001,-74.14501922592657
-0.29569999999999996,-73.0556915250305
-0.2947000000000001,-72.36248298809663
-0.29369999999999996,-71.6268331121668
-0.29270000000000007,-70.87703612323833
-0.29169999999999996,-70.43847562028017
-0.29070000000000007,-69.95747377832606
-0.28969999999999996,-69.22182390239624
-0.28870000000000007,-68.21737887949207
-0.28769999999999996,-66.9582858226122
-0.28670000000000007,-65.4728389577539
-0.28569999999999995,-64.25618723986996
-0.28470000000000006,-63.06782974798333
-0.28369999999999995,-62.11997317707376
-0.28270000000000006,-61.6814126741156
-0.28169999999999995,-61.37017618814529
-0.28070000000000006,-60.93161568518713
-0.27969999999999995,-60.28084848724921
-0.27870000000000006,-59.36128614233694
-0.27769999999999995,-58.18707576344896
-0.27670000000000006,-56.88554136757313
-0.27569999999999995,-55.6971838756865
-0.27470000000000006,-54.43809081880661
-0.27369999999999994,-53.30632177891458
-0.27270000000000005,-52.74043725896857
-0.27169999999999994,-52.386759434002315
-0.27070000000000005,-51.990640270040096
-0.26969999999999994,-51.46719708909004
-0.26870000000000005,-50.64666453516831
