Mar. 8, 2025   11:40:56
Cyclic Voltammetry
File: c:/users/guazh/data/banditlqround7_x0exp169_r20_3/2025-03-03-exp908\exp908-2025-03-08t11_34_41-arkoh\exp908_cv_sr_200mvs_efin_-1400mv.bin
Data Source:  Experiment
Instrument Model:  CHI760E
Header: CV ran at 200 mVs
Note: 

Init E (V) = -1
High E (V) = -1
Low E (V) = -1.4
Final E (V) = -1
Init P/N = N
Scan Rate (V/s) = 0.2
Segment = 3
Sample Interval (V) = 0.001
Quiet Time (sec) = 2
Sensitivity (A/V) = 0.01
Comp R (ohm) = 1.3

Results:

Channel 1:
Segment 1:

Segment 2:

Segment 3:

Potential/V, Current/A

-1.000, -5.117e-5
-1.001, 4.064e-5
-1.002, 1.189e-4
-1.003, 1.807e-4
-1.004, 2.376e-4
-1.005, 2.963e-4
-1.006, 3.481e-4
-1.007, 3.899e-4
-1.008, 4.264e-4
-1.009, 4.567e-4
-1.010, 4.820e-4
-1.011, 5.139e-4
-1.012, 5.461e-4
-1.013, 5.703e-4
-1.014, 5.954e-4
-1.015, 6.181e-4
-1.016, 6.306e-4
-1.017, 6.404e-4
-1.018, 6.595e-4
-1.019, 6.763e-4
-1.020, 6.892e-4
-1.021, 7.081e-4
-1.022, 7.278e-4
-1.023, 7.337e-4
-1.024, 7.348e-4
-1.025, 7.401e-4
-1.026, 7.477e-4
-1.027, 7.556e-4
-1.028, 7.695e-4
-1.029, 7.838e-4
-1.030, 7.899e-4
-1.031, 7.930e-4
-1.032, 7.914e-4
-1.033, 7.888e-4
-1.034, 7.957e-4
-1.035, 8.178e-4
-1.036, 8.334e-4
-1.037, 8.351e-4
-1.038, 8.309e-4
-1.039, 8.240e-4
-1.040, 8.210e-4
-1.041, 8.312e-4
-1.042, 8.411e-4
-1.043, 8.442e-4
-1.044, 8.491e-4
-1.045, 8.546e-4
-1.046, 8.512e-4
-1.047, 8.452e-4
-1.048, 8.466e-4
-1.049, 8.608e-4
-1.050, 8.728e-4
-1.051, 8.814e-4
-1.052, 8.814e-4
-1.053, 8.733e-4
-1.054, 8.694e-4
-1.055, 8.766e-4
-1.056, 8.792e-4
-1.057, 8.773e-4
-1.058, 8.820e-4
-1.059, 8.853e-4
-1.060, 8.832e-4
-1.061, 8.796e-4
-1.062, 8.795e-4
-1.063, 8.832e-4
-1.064, 8.942e-4
-1.065, 9.079e-4
-1.066, 9.099e-4
-1.067, 9.050e-4
-1.068, 9.030e-4
-1.069, 8.978e-4
-1.070, 8.992e-4
-1.071, 9.123e-4
-1.072, 9.211e-4
-1.073, 9.134e-4
-1.074, 8.998e-4
-1.075, 8.956e-4
-1.076, 8.980e-4
-1.077, 9.111e-4
-1.078, 9.291e-4
-1.079, 9.332e-4
-1.080, 9.215e-4
-1.081, 9.139e-4
-1.082, 9.174e-4
-1.083, 9.204e-4
-1.084, 9.275e-4
-1.085, 9.379e-4
-1.086, 9.397e-4
-1.087, 9.306e-4
-1.088, 9.225e-4
-1.089, 9.201e-4
-1.090, 9.192e-4
-1.091, 9.316e-4
-1.092, 9.469e-4
-1.093, 9.494e-4
-1.094, 9.446e-4
-1.095, 9.405e-4
-1.096, 9.314e-4
-1.097, 9.294e-4
-1.098, 9.460e-4
-1.099, 9.619e-4
-1.100, 9.621e-4
-1.101, 9.519e-4
-1.102, 9.420e-4
-1.103, 9.370e-4
-1.104, 9.445e-4
-1.105, 9.546e-4
-1.106, 9.576e-4
-1.107, 9.611e-4
-1.108, 9.658e-4
-1.109, 9.622e-4
-1.110, 9.544e-4
-1.111, 9.514e-4
-1.112, 9.586e-4
-1.113, 9.689e-4
-1.114, 9.792e-4
-1.115, 9.817e-4
-1.116, 9.711e-4
-1.117, 9.599e-4
-1.118, 9.626e-4
-1.119, 9.706e-4
-1.120, 9.709e-4
-1.121, 9.764e-4
-1.122, 9.841e-4
-1.123, 9.827e-4
-1.124, 9.764e-4
-1.125, 9.736e-4
-1.126, 9.715e-4
-1.127, 9.814e-4
-1.128, 9.993e-4
-1.129, 1.008e-3
-1.130, 1.000e-3
-1.131, 9.928e-4
-1.132, 9.899e-4
-1.133, 9.889e-4
-1.134, 9.911e-4
-1.135, 9.955e-4
-1.136, 1.001e-3
-1.137, 1.002e-3
-1.138, 1.002e-3
-1.139, 9.931e-4
-1.140, 9.862e-4
-1.141, 9.994e-4
-1.142, 1.019e-3
-1.143, 1.027e-3
-1.144, 1.025e-3
-1.145, 1.023e-3
-1.146, 1.017e-3
-1.147, 1.015e-3
-1.148, 1.020e-3
-1.149, 1.022e-3
-1.150, 1.024e-3
-1.151, 1.030e-3
-1.152, 1.025e-3
-1.153, 1.013e-3
-1.154, 1.011e-3
-1.155, 1.026e-3
-1.156, 1.042e-3
-1.157, 1.047e-3
-1.158, 1.051e-3
-1.159, 1.046e-3
-1.160, 1.034e-3
-1.161, 1.037e-3
-1.162, 1.054e-3
-1.163, 1.068e-3
-1.164, 1.069e-3
-1.165, 1.059e-3
-1.166, 1.043e-3
-1.167, 1.034e-3
-1.168, 1.051e-3
-1.169, 1.076e-3
-1.170, 1.084e-3
-1.171, 1.080e-3
-1.172, 1.070e-3
-1.173, 1.057e-3
-1.174, 1.066e-3
-1.175, 1.094e-3
-1.176, 1.112e-3
-1.177, 1.110e-3
-1.178, 1.099e-3
-1.179, 1.085e-3
-1.180, 1.079e-3
-1.181, 1.097e-3
-1.182, 1.125e-3
-1.183, 1.134e-3
-1.184, 1.123e-3
-1.185, 1.111e-3
-1.186, 1.108e-3
-1.187, 1.121e-3
-1.188, 1.137e-3
-1.189, 1.148e-3
-1.190, 1.153e-3
-1.191, 1.159e-3
-1.192, 1.157e-3
-1.193, 1.151e-3
-1.194, 1.152e-3
-1.195, 1.169e-3
-1.196, 1.188e-3
-1.197, 1.199e-3
-1.198, 1.203e-3
-1.199, 1.199e-3
-1.200, 1.190e-3
-1.201, 1.191e-3
-1.202, 1.208e-3
-1.203, 1.229e-3
-1.204, 1.245e-3
-1.205, 1.246e-3
-1.206, 1.234e-3
-1.207, 1.226e-3
-1.208, 1.245e-3
-1.209, 1.276e-3
-1.210, 1.298e-3
-1.211, 1.305e-3
-1.212, 1.299e-3
-1.213, 1.285e-3
-1.214, 1.291e-3
-1.215, 1.326e-3
-1.216, 1.357e-3
-1.217, 1.366e-3
-1.218, 1.359e-3
-1.219, 1.349e-3
-1.220, 1.356e-3
-1.221, 1.381e-3
-1.222, 1.402e-3
-1.223, 1.421e-3
-1.224, 1.437e-3
-1.225, 1.449e-3
-1.226, 1.447e-3
-1.227, 1.451e-3
-1.228, 1.471e-3
-1.229, 1.509e-3
-1.230, 1.538e-3
-1.231, 1.556e-3
-1.232, 1.564e-3
-1.233, 1.563e-3
-1.234, 1.563e-3
-1.235, 1.581e-3
-1.236, 1.614e-3
-1.237, 1.650e-3
-1.238, 1.674e-3
-1.239, 1.673e-3
-1.240, 1.668e-3
-1.241, 1.688e-3
-1.242, 1.722e-3
-1.243, 1.748e-3
-1.244, 1.786e-3
-1.245, 1.819e-3
-1.246, 1.833e-3
-1.247, 1.836e-3
-1.248, 1.852e-3
-1.249, 1.879e-3
-1.250, 1.923e-3
-1.251, 1.972e-3
-1.252, 2.003e-3
-1.253, 2.010e-3
-1.254, 2.012e-3
-1.255, 2.026e-3
-1.256, 2.055e-3
-1.257, 2.113e-3
-1.258, 2.176e-3
-1.259, 2.208e-3
-1.260, 2.210e-3
-1.261, 2.215e-3
-1.262, 2.238e-3
-1.263, 2.283e-3
-1.264, 2.353e-3
-1.265, 2.424e-3
-1.266, 2.452e-3
-1.267, 2.453e-3
-1.268, 2.463e-3
-1.269, 2.498e-3
-1.270, 2.544e-3
-1.271, 2.611e-3
-1.272, 2.676e-3
-1.273, 2.717e-3
-1.274, 2.726e-3
-1.275, 2.739e-3
-1.276, 2.763e-3
-1.277, 2.831e-3
-1.278, 2.926e-3
-1.279, 2.996e-3
-1.280, 3.025e-3
-1.281, 3.039e-3
-1.282, 3.062e-3
-1.283, 3.094e-3
-1.284, 3.166e-3
-1.285, 3.264e-3
-1.286, 3.343e-3
-1.287, 3.373e-3
-1.288, 3.377e-3
-1.289, 3.395e-3
-1.290, 3.441e-3
-1.291, 3.545e-3
-1.292, 3.657e-3
-1.293, 3.728e-3
-1.294, 3.752e-3
-1.295, 3.764e-3
-1.296, 3.789e-3
-1.297, 3.850e-3
-1.298, 3.963e-3
-1.299, 4.078e-3
-1.300, 4.144e-3
-1.301, 4.159e-3
-1.302, 4.168e-3
-1.303, 4.212e-3
-1.304, 4.291e-3
-1.305, 4.388e-3
-1.306, 4.498e-3
-1.307, 4.589e-3
-1.308, 4.634e-3
-1.309, 4.650e-3
-1.310, 4.685e-3
-1.311, 4.754e-3
-1.312, 4.863e-3
-1.313, 4.986e-3
-1.314, 5.091e-3
-1.315, 5.141e-3
-1.316, 5.150e-3
-1.317, 5.168e-3
-1.318, 5.229e-3
-1.319, 5.357e-3
-1.320, 5.501e-3
-1.321, 5.620e-3
-1.322, 5.656e-3
-1.323, 5.651e-3
-1.324, 5.668e-3
-1.325, 5.758e-3
-1.326, 5.926e-3
-1.327, 6.082e-3
-1.328, 6.171e-3
-1.329, 6.188e-3
-1.330, 6.177e-3
-1.331, 6.212e-3
-1.332, 6.325e-3
-1.333, 6.507e-3
-1.334, 6.661e-3
-1.335, 6.717e-3
-1.336, 6.706e-3
-1.337, 6.718e-3
-1.338, 6.813e-3
-1.339, 6.936e-3
-1.340, 7.047e-3
-1.341, 7.184e-3
-1.342, 7.285e-3
-1.343, 7.340e-3
-1.344, 7.355e-3
-1.345, 7.403e-3
-1.346, 7.493e-3
-1.347, 7.656e-3
-1.348, 7.833e-3
-1.349, 7.940e-3
-1.350, 7.966e-3
-1.351, 7.963e-3
-1.352, 7.976e-3
-1.353, 8.076e-3
-1.354, 8.267e-3
-1.355, 8.463e-3
-1.356, 8.557e-3
-1.357, 8.536e-3
-1.358, 8.516e-3
-1.359, 8.556e-3
-1.360, 8.755e-3
-1.361, 8.991e-3
-1.362, 9.138e-3
-1.363, 9.163e-3
-1.364, 9.128e-3
-1.365, 9.123e-3
-1.366, 9.213e-3
-1.367, 9.420e-3
-1.368, 9.654e-3
-1.369, 9.761e-3
-1.370, 9.735e-3
-1.371, 9.702e-3
-1.372, 9.764e-3
-1.373, 9.920e-3
-1.374, 1.006e-2
-1.375, 1.021e-2
-1.376, 1.033e-2
-1.377, 1.041e-2
-1.378, 1.042e-2
-1.379, 1.043e-2
-1.380, 1.052e-2
-1.381, 1.075e-2
-1.382, 1.096e-2
-1.383, 1.106e-2
-1.384, 1.107e-2
-1.385, 1.108e-2
-1.386, 1.111e-2
-1.387, 1.118e-2
-1.388, 1.131e-2
-1.389, 1.152e-2
-1.390, 1.171e-2
-1.391, 1.176e-2
-1.392, 1.172e-2
-1.393, 1.172e-2
-1.394, 1.184e-2
-1.395, 1.200e-2
-1.396, 1.218e-2
-1.397, 1.236e-2
-1.398, 1.247e-2
-1.399, 1.247e-2
-1.400, 1.235e-2
-1.399, 1.218e-2
-1.398, 1.219e-2
-1.397, 1.226e-2
-1.396, 1.228e-2
-1.395, 1.214e-2
-1.394, 1.193e-2
-1.393, 1.177e-2
-1.392, 1.170e-2
-1.391, 1.167e-2
-1.390, 1.162e-2
-1.389, 1.161e-2
-1.388, 1.159e-2
-1.387, 1.150e-2
-1.386, 1.134e-2
-1.385, 1.118e-2
-1.384, 1.106e-2
-1.383, 1.107e-2
-1.382, 1.112e-2
-1.381, 1.112e-2
-1.380, 1.098e-2
-1.379, 1.079e-2
-1.378, 1.064e-2
-1.377, 1.056e-2
-1.376, 1.053e-2
-1.375, 1.048e-2
-1.374, 1.044e-2
-1.373, 1.039e-2
-1.372, 1.032e-2
-1.371, 1.017e-2
-1.370, 1.001e-2
-1.369, 9.907e-3
-1.368, 9.950e-3
-1.367, 9.986e-3
-1.366, 9.938e-3
-1.365, 9.787e-3
-1.364, 9.621e-3
-1.363, 9.504e-3
-1.362, 9.434e-3
-1.361, 9.378e-3
-1.360, 9.293e-3
-1.359, 9.262e-3
-1.358, 9.224e-3
-1.357, 9.132e-3
-1.356, 8.982e-3
-1.355, 8.859e-3
-1.354, 8.775e-3
-1.353, 8.785e-3
-1.352, 8.804e-3
-1.351, 8.766e-3
-1.350, 8.646e-3
-1.349, 8.485e-3
-1.348, 8.341e-3
-1.347, 8.241e-3
-1.346, 8.233e-3
-1.345, 8.259e-3
-1.344, 8.214e-3
-1.343, 8.066e-3
-1.342, 7.898e-3
-1.341, 7.784e-3
-1.340, 7.730e-3
-1.339, 7.731e-3
-1.338, 7.747e-3
-1.337, 7.692e-3
-1.336, 7.562e-3
-1.335, 7.392e-3
-1.334, 7.263e-3
-1.333, 7.228e-3
-1.332, 7.265e-3
-1.331, 7.259e-3
-1.330, 7.152e-3
-1.329, 6.993e-3
-1.328, 6.857e-3
-1.327, 6.778e-3
-1.326, 6.745e-3
-1.325, 6.697e-3
-1.324, 6.653e-3
-1.323, 6.608e-3
-1.322, 6.532e-3
-1.321, 6.413e-3
-1.320, 6.301e-3
-1.319, 6.207e-3
-1.318, 6.184e-3
-1.317, 6.184e-3
-1.316, 6.158e-3
-1.315, 6.067e-3
-1.314, 5.929e-3
-1.313, 5.807e-3
-1.312, 5.738e-3
-1.311, 5.694e-3
-1.310, 5.637e-3
-1.309, 5.589e-3
-1.308, 5.545e-3
-1.307, 5.472e-3
-1.306, 5.364e-3
-1.305, 5.266e-3
-1.304, 5.180e-3
-1.303, 5.150e-3
-1.302, 5.149e-3
-1.301, 5.118e-3
-1.300, 5.023e-3
-1.299, 4.905e-3
-1.298, 4.801e-3
-1.297, 4.728e-3
-1.296, 4.683e-3
-1.295, 4.626e-3
-1.294, 4.581e-3
-1.293, 4.537e-3
-1.292, 4.468e-3
-1.291, 4.369e-3
-1.290, 4.278e-3
-1.289, 4.212e-3
-1.288, 4.181e-3
-1.287, 4.161e-3
-1.286, 4.132e-3
-1.285, 4.068e-3
-1.284, 3.963e-3
-1.283, 3.865e-3
-1.282, 3.781e-3
-1.281, 3.730e-3
-1.280, 3.701e-3
-1.279, 3.681e-3
-1.278, 3.613e-3
-1.277, 3.504e-3
-1.276, 3.405e-3
-1.275, 3.349e-3
-1.274, 3.335e-3
-1.273, 3.324e-3
-1.272, 3.283e-3
-1.271, 3.201e-3
-1.270, 3.100e-3
-1.269, 3.021e-3
-1.268, 2.968e-3
-1.267, 2.946e-3
-1.266, 2.925e-3
-1.265, 2.875e-3
-1.264, 2.782e-3
-1.263, 2.688e-3
-1.262, 2.627e-3
-1.261, 2.593e-3
-1.260, 2.552e-3
-1.259, 2.521e-3
-1.258, 2.480e-3
-1.257, 2.415e-3
-1.256, 2.340e-3
-1.255, 2.277e-3
-1.254, 2.225e-3
-1.253, 2.200e-3
-1.252, 2.178e-3
-1.251, 2.132e-3
-1.250, 2.062e-3
-1.249, 1.991e-3
-1.248, 1.927e-3
-1.247, 1.876e-3
-1.246, 1.853e-3
-1.245, 1.834e-3
-1.244, 1.785e-3
-1.243, 1.715e-3
-1.242, 1.652e-3
-1.241, 1.605e-3
-1.240, 1.568e-3
-1.239, 1.533e-3
-1.238, 1.502e-3
-1.237, 1.462e-3
-1.236, 1.413e-3
-1.235, 1.359e-3
-1.234, 1.307e-3
-1.233, 1.263e-3
-1.232, 1.239e-3
-1.231, 1.212e-3
-1.230, 1.174e-3
-1.229, 1.123e-3
-1.228, 1.073e-3
-1.227, 1.020e-3
-1.226, 9.850e-4
-1.225, 9.647e-4
-1.224, 9.381e-4
-1.223, 8.977e-4
-1.222, 8.524e-4
-1.221, 8.054e-4
-1.220, 7.615e-4
-1.219, 7.361e-4
-1.218, 7.176e-4
-1.217, 6.865e-4
-1.216, 6.470e-4
-1.215, 6.073e-4
-1.214, 5.673e-4
-1.213, 5.351e-4
-1.212, 5.084e-4
-1.211, 4.808e-4
-1.210, 4.501e-4
-1.209, 4.202e-4
-1.208, 3.882e-4
-1.207, 3.522e-4
-1.206, 3.217e-4
-1.205, 2.993e-4
-1.204, 2.732e-4
-1.203, 2.452e-4
-1.202, 2.200e-4
-1.201, 1.905e-4
-1.200, 1.590e-4
-1.199, 1.333e-4
-1.198, 1.099e-4
-1.197, 8.422e-5
-1.196, 5.921e-5
-1.195, 3.715e-5
-1.194, 9.726e-6
-1.193, -1.601e-5
-1.192, -3.525e-5
-1.191, -5.907e-5
-1.190, -8.594e-5
-1.189, -1.067e-4
-1.188, -1.261e-4
-1.187, -1.491e-4
-1.186, -1.686e-4
-1.185, -1.860e-4
-1.184, -2.086e-4
-1.183, -2.329e-4
-1.182, -2.508e-4
-1.181, -2.708e-4
-1.180, -2.915e-4
-1.179, -3.045e-4
-1.178, -3.190e-4
-1.177, -3.406e-4
-1.176, -3.617e-4
-1.175, -3.808e-4
-1.174, -4.002e-4
-1.173, -4.144e-4
-1.172, -4.216e-4
-1.171, -4.336e-4
-1.170, -4.555e-4
-1.169, -4.782e-4
-1.168, -4.970e-4
-1.167, -5.136e-4
-1.166, -5.198e-4
-1.165, -5.229e-4
-1.164, -5.369e-4
-1.163, -5.600e-4
-1.162, -5.789e-4
-1.161, -5.946e-4
-1.160, -6.024e-4
-1.159, -6.041e-4
-1.158, -6.119e-4
-1.157, -6.358e-4
-1.156, -6.586e-4
-1.155, -6.685e-4
-1.154, -6.749e-4
-1.153, -6.798e-4
-1.152, -6.822e-4
-1.151, -6.971e-4
-1.150, -7.234e-4
-1.149, -7.394e-4
-1.148, -7.438e-4
-1.147, -7.436e-4
-1.146, -7.437e-4
-1.145, -7.503e-4
-1.144, -7.740e-4
-1.143, -7.986e-4
-1.142, -8.051e-4
-1.141, -8.036e-4
-1.140, -8.033e-4
-1.139, -8.053e-4
-1.138, -8.182e-4
-1.137, -8.435e-4
-1.136, -8.595e-4
-1.135, -8.607e-4
-1.134, -8.561e-4
-1.133, -8.519e-4
-1.132, -8.566e-4
-1.131, -8.797e-4
-1.130, -9.036e-4
-1.129, -9.074e-4
-1.128, -8.993e-4
-1.127, -8.978e-4
-1.126, -9.034e-4
-1.125, -9.116e-4
-1.124, -9.251e-4
-1.123, -9.403e-4
-1.122, -9.461e-4
-1.121, -9.479e-4
-1.120, -9.459e-4
-1.119, -9.452e-4
-1.118, -9.498e-4
-1.117, -9.667e-4
-1.116, -9.854e-4
-1.115, -9.922e-4
-1.114, -9.935e-4
-1.113, -9.896e-4
-1.112, -9.809e-4
-1.111, -9.856e-4
-1.110, -1.008e-3
-1.109, -1.025e-3
-1.108, -1.029e-3
-1.107, -1.024e-3
-1.106, -1.014e-3
-1.105, -1.007e-3
-1.104, -1.022e-3
-1.103, -1.047e-3
-1.102, -1.062e-3
-1.101, -1.061e-3
-1.100, -1.053e-3
-1.099, -1.042e-3
-1.098, -1.042e-3
-1.097, -1.065e-3
-1.096, -1.086e-3
-1.095, -1.091e-3
-1.094, -1.084e-3
-1.093, -1.072e-3
-1.092, -1.064e-3
-1.091, -1.075e-3
-1.090, -1.102e-3
-1.089, -1.117e-3
-1.088, -1.113e-3
-1.087, -1.103e-3
-1.086, -1.094e-3
-1.085, -1.092e-3
-1.084, -1.114e-3
-1.083, -1.139e-3
-1.082, -1.145e-3
-1.081, -1.136e-3
-1.080, -1.124e-3
-1.079, -1.115e-3
-1.078, -1.124e-3
-1.077, -1.150e-3
-1.076, -1.168e-3
-1.075, -1.164e-3
-1.074, -1.151e-3
-1.073, -1.142e-3
-1.072, -1.138e-3
-1.071, -1.157e-3
-1.070, -1.183e-3
-1.069, -1.190e-3
-1.068, -1.180e-3
-1.067, -1.169e-3
-1.066, -1.161e-3
-1.065, -1.164e-3
-1.064, -1.188e-3
-1.063, -1.211e-3
-1.062, -1.211e-3
-1.061, -1.197e-3
-1.060, -1.188e-3
-1.059, -1.188e-3
-1.058, -1.200e-3
-1.057, -1.209e-3
-1.056, -1.216e-3
-1.055, -1.221e-3
-1.054, -1.226e-3
-1.053, -1.223e-3
-1.052, -1.215e-3
-1.051, -1.219e-3
-1.050, -1.224e-3
-1.049, -1.231e-3
-1.048, -1.245e-3
-1.047, -1.260e-3
-1.046, -1.256e-3
-1.045, -1.239e-3
-1.044, -1.235e-3
-1.043, -1.243e-3
-1.042, -1.248e-3
-1.041, -1.257e-3
-1.040, -1.272e-3
-1.039, -1.276e-3
-1.038, -1.266e-3
-1.037, -1.258e-3
-1.036, -1.255e-3
-1.035, -1.263e-3
-1.034, -1.288e-3
-1.033, -1.308e-3
-1.032, -1.306e-3
-1.031, -1.292e-3
-1.030, -1.278e-3
-1.029, -1.269e-3
-1.028, -1.287e-3
-1.027, -1.317e-3
-1.026, -1.328e-3
-1.025, -1.315e-3
-1.024, -1.299e-3
-1.023, -1.290e-3
-1.022, -1.293e-3
-1.021, -1.318e-3
-1.020, -1.345e-3
-1.019, -1.348e-3
-1.018, -1.330e-3
-1.017, -1.320e-3
-1.016, -1.316e-3
-1.015, -1.323e-3
-1.014, -1.350e-3
-1.013, -1.370e-3
-1.012, -1.366e-3
-1.011, -1.349e-3
-1.010, -1.338e-3
-1.009, -1.336e-3
-1.008, -1.346e-3
-1.007, -1.374e-3
-1.006, -1.392e-3
-1.005, -1.384e-3
-1.004, -1.371e-3
-1.003, -1.361e-3
-1.002, -1.365e-3
-1.001, -1.375e-3
