Potential V vs RHE, Current mA cm-2
0.013299999999999867,0.3031726315610774
0.012299999999999978,-0.9617207416482519
0.011299999999999866,-2.1828995356917518
0.010299999999999976,-3.361354048479327
0.009299999999999864,-4.494537799671222
0.008299999999999974,-5.585280211867165
0.007299999999999862,-6.632166573767292
0.006299999999999972,-7.679052935667419
0.00529999999999986,-8.68208324727173
0.0042999999999999705,-9.641257508580225
0.0032999999999998586,-10.514134380596953
0.0022999999999999687,-11.385596541313816
0.0012999999999998568,-12.12831997374296
0.00029999999999996696,-12.869628694872238
-0.000700000000000145,-13.567081365705702
-0.0017000000000000348,-14.26028990263957
-0.0027000000000001467,-14.967645552572087
-0.0037000000000000366,-15.618412750510005
-0.0047000000000001485,-16.269179948447924
-0.005700000000000038,-16.919947146385837
-0.00670000000000015,-17.542420118326454
-0.00770000000000004,-18.23562865526032
-0.008700000000000152,-18.88639585319824
-0.009700000000000042,-19.579604390132108
-0.010700000000000154,-20.286960040064624
-0.011700000000000044,-20.980168576998494
-0.012700000000000156,-21.58849443594046
-0.013700000000000045,-22.196820294882425
-0.014700000000000157,-22.776851927827092
-0.015700000000000047,-23.342736447773106
-0.01670000000000016,-23.86617962872317
-0.01770000000000005,-24.34718147067728
-0.01870000000000016,-24.729153521640843
-0.01970000000000005,-25.167714024599
-0.020700000000000163,-25.43650917157336
-0.021700000000000053,-25.691157205549064
-0.022700000000000164,-25.959952352523427
-0.023700000000000054,-26.257041725495082
-0.024700000000000166,-26.568278211465387
-0.025700000000000056,-26.86536758443705
-0.026700000000000168,-27.134162731411404
-0.027700000000000058,-27.43125210438306
-0.02870000000000017,-27.742488590353368
-0.02970000000000006,-28.13860775431558
-0.03070000000000017,-28.53472691827779
-0.03170000000000006,-29.001581647233255
-0.03270000000000017,-29.525024828183312
-0.03370000000000006,-30.00602667013743
-0.034700000000000175,-30.444587173095588
-0.035700000000000065,-30.925589015049702
-0.03670000000000018,-31.27926684001596
-0.03770000000000007,-31.661238890979522
-0.03870000000000018,-32.01491671594578
-0.03970000000000007,-32.283711862920136
-0.04070000000000018,-32.49591855789989
-0.04170000000000007,-32.66568391388369
-0.04270000000000018,-32.807155043870196
-0.04370000000000007,-32.892037721862096
-0.044700000000000184,-32.892037721862096
-0.045700000000000074,-32.93447906085806
-0.046700000000000186,-33.01936173884996
-0.047700000000000076,-33.10424441684186
-0.04870000000000019,-33.231568433829715
-0.04970000000000008,-33.373039563816214
-0.05070000000000019,-33.45792224180811
-0.05170000000000008,-33.627687597791926
-0.05270000000000019,-33.81160006677438
-0.05370000000000008,-34.10868943974604
-0.05470000000000019,-34.41992592571634
-0.05570000000000008,-34.75945663768395
-0.056700000000000195,-35.11313446265021
-0.057700000000000085,-35.46681228761647
-0.058700000000000196,-35.806342999584075
-0.059700000000000086,-36.07513814655844
-0.0607000000000002,-36.37222751953009
-0.06170000000000009,-36.64102266650445
-0.0627000000000002,-36.81078802248826
-0.06370000000000009,-36.95225915247476
-0.0647000000000002,-37.037141830466666
-0.06570000000000009,-37.07958316946261
-0.0667000000000002,-36.99470049147071
-0.0677000000000001,-36.89567070048016
-0.0687000000000002,-36.81078802248826
-0.0697000000000001,-36.768346683492304
-0.07070000000000021,-36.768346683492304
-0.0717000000000001,-36.768346683492304
-0.07270000000000021,-36.768346683492304
-0.0737000000000001,-36.81078802248826
-0.07470000000000021,-36.95225915247476
-0.0757000000000001,-37.122024508458566
-0.07670000000000021,-37.376672542434264
-0.0777000000000001,-37.687909028404576
-0.07870000000000021,-38.04158685337084
-0.0797000000000001,-38.38111756533845
-0.08070000000000022,-38.692354051308754
-0.0817000000000001,-38.90456074628851
-0.08270000000000022,-39.08847321527096
-0.08370000000000011,-39.21579723225882
-0.08470000000000022,-39.34312124924667
-0.08570000000000011,-39.47044526623452
-0.08670000000000022,-39.51288660523048
-0.08770000000000011,-39.51288660523048
-0.08870000000000022,-39.42800392723857
-0.08970000000000011,-39.34312124924667
-0.09070000000000022,-39.258238571254765
-0.09170000000000011,-39.173355893262865
-0.09270000000000023,-39.130914554266916
-0.09370000000000012,-39.046031876275016
-0.09470000000000023,-38.98944342428042
-0.09570000000000012,-38.90456074628851
-0.09670000000000023,-38.94700208528445
-0.09770000000000012,-39.08847321527096
-0.09870000000000023,-39.34312124924667
-0.09970000000000012,-39.654357735216976
-0.10070000000000023,-39.99388844718459
-0.10170000000000012,-40.34756627215084
-0.10270000000000024,-40.701244097117105
-0.10370000000000013,-40.95589213109281
-0.10470000000000024,-41.22468727806717
-0.10570000000000013,-41.39445263405098
-0.10670000000000024,-41.47933531204288
-0.10770000000000013,-41.52177665103883
-0.10870000000000024,-41.47933531204288
-0.10970000000000013,-41.352011295055014
-0.11070000000000024,-41.267128617063115
-0.11170000000000013,-41.139804600075266
-0.11270000000000002,-40.99833347008877
-0.11370000000000013,-40.87100945310091
-0.11470000000000002,-40.78612677510901
-0.11570000000000014,-40.701244097117105
-0.11670000000000003,-40.616361419125205
-0.11770000000000014,-40.616361419125205
-0.11870000000000003,-40.78612677510901
-0.11970000000000014,-40.95589213109281
-0.12070000000000003,-41.182245939071215
-0.12170000000000014,-41.30956995605907
-0.12270000000000003,-41.39445263405098
-0.12370000000000014,-41.47933531204288
-0.12470000000000003,-41.52177665103883
-0.12570000000000014,-41.56421799003478
-0.12670000000000003,-41.70568912002128
-0.12770000000000015,-41.83301313700913
-0.12870000000000004,-42.04521983198889
-0.12970000000000015,-42.229132300971344
-0.13070000000000004,-42.39889765695515
-0.13170000000000015,-42.526221673943
-0.13270000000000004,-42.71013414292546
-0.13370000000000015,-42.837458159913304
-0.13470000000000004,-42.87989949890926
-0.13570000000000015,-42.92234083790521
-0.13670000000000004,-42.92234083790521
-0.13770000000000016,-42.87989949890926
-0.13870000000000005,-42.752575481921404
-0.13970000000000016,-42.6111043519349
-0.14070000000000005,-42.39889765695515
-0.14170000000000016,-42.3564563179592
-0.14270000000000005,-42.39889765695515
-0.14370000000000016,-42.4413389959511
-0.14470000000000005,-42.483780334947056
-0.14570000000000016,-42.526221673943
-0.14670000000000005,-42.568663012938956
-0.14770000000000016,-42.71013414292546
-0.14870000000000005,-42.837458159913304
-0.14970000000000017,-43.007223515897124
-0.15070000000000006,-43.27601866287147
-0.15170000000000017,-43.48822535785123
-0.15270000000000006,-43.70043205283099
-0.15370000000000017,-43.88434452181344
-0.15470000000000006,-44.096551216793195
-0.15570000000000017,-44.28046368577565
-0.15670000000000006,-44.4926703807554
-0.15770000000000017,-44.66243573673921
-0.15870000000000006,-44.74731841473111
-0.15970000000000018,-44.80390686672572
-0.16070000000000007,-44.704877075735155
-0.16170000000000018,-44.619994397743255
-0.16270000000000007,-44.4926703807554
-0.16370000000000018,-44.4077877027635
-0.16470000000000007,-44.3229050247716
-0.16570000000000018,-44.28046368577565
-0.16670000000000007,-44.181433894785094
-0.16770000000000018,-44.138992555789144
-0.16870000000000007,-44.181433894785094
-0.16970000000000018,-44.28046368577565
-0.17070000000000007,-44.36534636376755
-0.17170000000000019,-44.45022904175945
-0.17270000000000008,-44.535111719751356
-0.1737000000000002,-44.535111719751356
-0.17470000000000008,-44.619994397743255
-0.1757000000000002,-44.66243573673921
-0.17670000000000008,-44.80390686672572
-0.1777000000000002,-44.93123088371356
-0.17870000000000008,-45.143437578693316
-0.1797000000000002,-45.412232725667685
-0.18070000000000008,-45.581998081651484
-0.1817000000000002,-45.85079322862584
-0.18270000000000008,-46.02055858460964
-0.1837000000000002,-46.19032394059345
-0.1847000000000001,-46.27520661858535
-0.1857000000000002,-46.3176479575813
-0.1867000000000001,-46.3176479575813
-0.1877000000000002,-46.19032394059345
-0.1887000000000001,-46.062999923605595
-0.1897000000000002,-45.89323456762179
-0.1907000000000001,-45.79420477663124
-0.1917000000000001,-45.70932209863933
-0.19269999999999998,-45.666880759643384
-0.1937000000000001,-45.53955674265553
-0.19469999999999998,-45.497115403659585
-0.1957000000000001,-45.497115403659585
-0.19669999999999999,-45.581998081651484
-0.1977000000000001,-45.85079322862584
-0.1987,-46.10544126260155
-0.1997000000000001,-46.501560426563756
-0.2007,-46.79864979953541
-0.2017000000000001,-47.15232762450167
-0.2027,-47.40697565847737
-0.2037000000000001,-47.67577080545174
-0.2047,-47.84553616143554
-0.2057000000000001,-47.987007291422046
-0.2067,-48.029448630417996
-0.2077000000000001,-48.029448630417996
-0.2087,-48.029448630417996
-0.2097000000000001,-47.987007291422046
-0.2107,-47.8879775004315
-0.2117000000000001,-47.76065348344364
-0.2127,-47.590888127459834
-0.2137000000000001,-47.506005449467935
-0.2147,-47.506005449467935
-0.2157000000000001,-47.506005449467935
-0.2167,-47.506005449467935
-0.21770000000000012,-47.46356411047198
-0.2187,-47.40697565847737
-0.21970000000000012,-47.40697565847737
-0.2207,-47.46356411047198
-0.22170000000000012,-47.633329466455784
-0.2227,-47.8879775004315
-0.22370000000000012,-48.24165532539775
-0.2247,-48.68021582835591
-0.22570000000000012,-49.03389365332217
-0.2267,-49.373424365289786
-0.22770000000000012,-49.72710219025603
-0.22870000000000001,-49.98175022423175
-0.22970000000000013,-50.20810403221015
-0.23070000000000002,-50.335428049198
-0.23170000000000013,-50.335428049198
-0.23270000000000002,-50.29298671020206
-0.23370000000000013,-50.20810403221015
-0.23470000000000002,-50.024191563227696
-0.23570000000000013,-49.89686754623985
-0.23670000000000002,-49.72710219025603
-0.2376999999999999,-49.642219512264134
-0.23870000000000002,-49.557336834272235
-0.2396999999999999,-49.557336834272235
-0.24070000000000003,-49.59977817326819
-0.24169999999999991,-49.68466085126009
-0.24270000000000003,-49.89686754623985
-0.24369999999999992,-50.20810403221015
-0.24470000000000003,-50.50519340518181
-0.24569999999999992,-50.73154721316022
-0.24670000000000003,-50.90131256914402
-0.24769999999999992,-50.98619524713592
-0.24870000000000003,-51.127666377122424
-0.24969999999999992,-51.25499039411028
-0.25070000000000003,-51.46719708909004
-0.2516999999999999,-51.73599223606439
-0.25270000000000004,-52.11796428702795
-0.2536999999999999,-52.471642111994214
-0.25470000000000004,-52.78287859796452
-0.2556999999999999,-53.03752663194023
-0.25670000000000004,-53.26388043991864
-0.25769999999999993,-53.476087134898386
-0.25870000000000004,-53.64585249088219
-0.25969999999999993,-53.82976495986464
-0.26070000000000004,-53.872206298860604
-0.26169999999999993,-53.872206298860604
-0.26270000000000004,-53.82976495986464
-0.26369999999999993,-53.82976495986464
-0.26470000000000005,-53.872206298860604
-0.26569999999999994,-53.872206298860604
-0.26670000000000005,-53.91464763785655
-0.26769999999999994,-53.9570889768525
-0.26870000000000005,-53.999530315848446
-0.26969999999999994,-54.2117370108282
-0.27070000000000005,-54.52297349679851
-0.27169999999999994,-54.961533999756675
-0.27270000000000005,-55.527418519702685
-0.27369999999999994,-56.093303039648696
-0.27470000000000006,-56.65918755959472
-0.27569999999999995,-57.182630740544774
-0.27670000000000006,-57.66363258249889
-0.27769999999999995,-58.10219308545706
-0.27870000000000006,-58.54075358841522
-0.27969999999999995,-58.880284300382826
-0.28070000000000006,-59.14907944735718
-0.28169999999999995,-59.36128614233694
-0.28270000000000006,-59.587639950315335
-0.28369999999999995,-59.7149639673032
-0.28470000000000006,-59.7998466452951
-0.28569999999999995,-59.884729323287
-0.28670000000000007,-59.9696120012789
-0.28769999999999996,-60.15352447026136
-0.28870000000000007,-60.32328982624517
-0.28969999999999996,-60.49305518222897
-0.29070000000000007,-60.63452631221547
-0.29169999999999996,-60.80429166819927
-0.29270000000000007,-60.974057024183075
-0.29369999999999996,-61.242852171157445
-0.2947000000000001,-61.6814126741156
-0.29569999999999996,-62.20485585506566
-0.2967000000000001,-62.855623053003576
-0.29769999999999996,-63.54883158993744
-0.2987000000000001,-64.25618723986996
-0.29969999999999997,-64.94939577680383
-0.3007000000000001,-65.60016297474175
-0.30169999999999997,-66.20848883368372
-0.3027000000000001,-66.77437335362974
-0.30369999999999997,-67.2978165345798
-0.3047000000000001,-67.86370105452582
-0.30569999999999997,-68.25982021848802
-0.3067000000000001,-68.61349804345427
-0.3077,-68.86814607742998
-0.3087000000000001,-69.0944998854084
-0.3097,-69.30670658038814
-0.3107000000000001,-69.57550172736251
-0.3117,-69.91503243933012
-0.3127000000000001,-70.26871026429637
-0.3137,-70.66482942825859
-0.3147000000000001,-71.18827260920865
-0.3157,-71.92392248513846
-0.3167000000000001,-72.75860215205884
-0.3177,-73.49425202798865
-0.3187000000000001,-74.10257788693062
-0.3197,-74.62602106788069
-0.3207000000000001,-75.19190558782671
-0.3217,-75.8992612377592
-0.3227000000000001,-76.67735245268499
-0.3237,-77.55447345860131
-0.3247000000000001,-78.47403580351359
-0.3257,-79.42189237442317
-0.3267000000000001,-80.38389605833139
-0.3277,-81.30345840324367
-0.3287000000000001,-82.18057940915998
-0.3297,-83.08599464107361
-0.3307000000000001,-84.00555698598588
-0.3317,-84.7977953139103
-0.3327000000000001,-85.53344518984011
-0.3337,-86.14177104878208
-0.3347000000000001,-86.7076555687281
-0.3357,-87.14621607168625
-0.3367000000000001,-87.49989389665252
-0.3377,-87.98089573860662
-0.3387000000000001,-88.63166293654454
-0.3397,-89.36731281247435
-0.3407000000000001,-90.11710980140283
-0.3417,-90.81031833833671
-0.3427000000000001,-91.56011532726518
-0.3437,-92.29576520319499
-0.3447000000000001,-93.25776888710321
-0.3457,-94.34709658799929
-0.3467000000000001,-95.64863098387512
-0.3477,-97.04919517074151
-0.3487000000000001,-98.4497593576079
-0.3497,-99.7937350924797
-0.3507000000000001,-101.10941660135417
-0.3517,-102.28362698024215
-0.3527000000000001,-103.59930848911664
-0.3537,-104.90084288499246
-0.3547000000000001,-106.11749460287639
-0.3557,-107.20682230377247
-0.35670000000000013,-108.1688259876807
-0.3577,-109.04594699359701
-0.35870000000000013,-109.69671419153494
-0.3597,-110.17771603348905
-0.36070000000000013,-110.70115921443913
-0.3617,-111.35192641237703
-0.3626999999999999,-112.10172340130552
-0.3637,-112.87981461623129
-0.3646999999999999,-113.62961160515974
-0.3657,-114.40770282008553
-0.3666999999999999,-115.19994114800993
-0.3677,-116.20438617091412
-0.3686999999999999,-117.46347922779398
-0.36970000000000003,-118.94892609265229
-0.3706999999999999,-120.64657965249035
-0.37170000000000003,-122.38667455132433
-0.3726999999999999,-124.22579924114888
-0.37370000000000003,-126.00833547897882
-0.3746999999999999,-127.76257749081147
-0.37570000000000003,-129.3753483726576
-0.3766999999999999,-130.90323657651186
-0.37770000000000004,-132.2896536503796
-0.3786999999999999,-133.52045248126214
-0.37970000000000004,-134.56733884316228
-0.3806999999999999,-135.5576367530678
-0.38170000000000004,-136.43475775898415
-0.38269999999999993,-137.08552495692206
-0.38370000000000004,-137.6089681378721
-0.38469999999999993,-138.17485265781812
-0.38570000000000004,-139.0095323247385
-0.38669999999999993,-138.96709098574257
-0.38570000000000004,-137.31187876490046
-0.38469999999999993,-135.86887323903812
-0.38370000000000004,-134.6097801821582
-0.38269999999999993,-133.5628938202581
-0.38170000000000004,-132.81309683132966
-0.3806999999999999,-132.2896536503796
-0.37970000000000004,-131.95012293841197
-0.3786999999999999,-131.68132779143764
-0.37770000000000004,-131.37009130546733
-0.3766999999999999,-131.03056059349967
-0.37570000000000003,-130.59200009054155
-0.3746999999999999,-130.02611557059552
-0.37370000000000003,-129.41778971165354
-0.3726999999999999,-128.62555138372915
-0.37170000000000003,-127.72013615181551
-0.3706999999999999,-126.71569112891132
-0.36970000000000003,-125.44245095903281
-0.3686999999999999,-123.99944543317046
-0.3677,-122.42911589032028
-0.3666999999999999,-121.04269881645253
-0.3657,-119.769458646574
-0.3646999999999999,-118.46792425069816
-0.3637,-117.19468408081964
-0.3626999999999999,-115.8931496849438
-0.3617,-114.63405662806393
-0.36070000000000013,-113.53058181416918
-0.3597,-112.71004926024747
-0.35870000000000013,-112.22904741829338
-0.3577,-111.91781093232305
-0.35670000000000013,-111.74804557633925
-0.3557,-111.57828022035544
-0.3547000000000001,-111.18216105639323
-0.3537,-110.70115921443913
-0.3527000000000001,-110.1352746944931
-0.3517,-109.4845074965552
-0.3507000000000001,-108.64982782963483
-0.3497,-107.73026548472255
-0.3487000000000001,-106.73996757481702
-0.3477,-105.59405142192634
-0.3467000000000001,-104.25007568705455
-0.3457,-102.76462882219626
-0.3447000000000001,-101.3640646353299
-0.3437,-100.06253023945405
-0.3427000000000001,-98.74684873057957
-0.3417,-97.53019701269562
-0.3407000000000001,-96.31354529481169
-0.3397,-95.18177625491967
-0.3387000000000001,-94.17733123201549
-0.3377,-93.42753424308701
-0.3367000000000001,-92.86164972314101
-0.3357,-92.4655305591788
-0.3347000000000001,-92.08355850821525
-0.3337,-91.68743934425302
-0.3327000000000001,-91.24887884129487
-0.3317,-90.7254356603448
-0.3307000000000001,-90.07466846240689
-0.3297,-89.36731281247435
-0.3287000000000001,-88.5892215975486
-0.3277,-87.62721791364037
-0.3267000000000001,-86.49544887374834
-0.3257,-85.32123849486035
-0.3247000000000001,-84.13288100297372
-0.3237,-82.8313466070979
-0.3227000000000001,-81.51566509822342
-0.3217,-80.25657204134353
-0.3207000000000001,-79.16724434044745
-0.3197,-78.07791663955136
-0.3187000000000001,-76.94614759965934
-0.3177,-75.85681989876326
-0.3167000000000001,-74.80993353686314
-0.3157,-73.89037119195086
-0.3147000000000001,-73.15472131602105
-0.3137,-72.53224834408043
-0.3127000000000001,-72.10783495412092
-0.3117,-71.7117157901587
-0.3107000000000001,-71.2307139482046
-0.3097,-70.62238808926263
-0.3087000000000001,-69.95747377832606
-0.3077,-69.26426524139221
-0.3067000000000001,-68.52861536546239
-0.30569999999999997,-67.693935698542
-0.3047000000000001,-66.81681469262568
-0.30369999999999997,-65.91139946071206
-0.3027000000000001,-64.86451309881193
-0.30169999999999997,-63.633714267929356
-0.3007000000000001,-62.37462121104946
-0.29969999999999997,-61.242852171157445
-0.2987000000000001,-60.15352447026136
-0.29769999999999996,-59.10663810836124
-0.2967000000000001,-58.05975174646111
-0.29569999999999996,-57.05530672355693
-0.2947000000000001,-56.093303039648696
-0.29369999999999996,-55.21618203373238
-0.29270000000000007,-54.43809081880661
-0.29169999999999996,-53.7873236208687
-0.29070000000000007,-53.30632177891458
-0.28969999999999996,-52.78287859796452
-0.28870000000000007,-52.30187675601041
-0.28769999999999996,-51.77843357506035
-0.28670000000000007,-51.21254905511432
-0.28569999999999995,-50.547634744177756
-0.28470000000000006,-49.76954352925199
-0.28369999999999995,-48.89242252333566
-0.28270000000000006,-47.987007291422046
-0.28169999999999995,-47.067444946509774
-0.28070000000000006,-46.062999923605595
-0.27969999999999995,-45.01611356170547
-0.27870000000000006,-44.011668538801295
-0.27769999999999995,-43.007223515897124
-0.27670000000000006,-42.087661170984845
-0.27569999999999995,-41.139804600075266
-0.27470000000000006,-40.220242255162994
-0.27369999999999994,-39.30067991025072
-0.27270000000000005,-38.42355890433439
-0.27169999999999994,-37.645467689408626
-0.27070000000000005,-36.95225915247476
-0.26969999999999994,-36.37222751953009
-0.26870000000000005,-35.848784338580025
-0.26769999999999994,-35.282899818634014
-0.26670000000000005,-34.717015298688004
-0.26569999999999994,-34.10868943974604
