Aug. 3, 2024   00:15:49
Cyclic Voltammetry
File: c:/users/guazh/data/20240802_batch_500/2024-08-02-exp1\exp1-2024-08-03t00_01_46-arkoh\exp1_cv_sr_200mvs_efin_-1600mv.bin
Data Source:  Experiment
Instrument Model:  CHI760E
Header: CV ran at 200 mVs
Note: 

Init E (V) = -1
High E (V) = -1
Low E (V) = -1.6
Final E (V) = -1
Init P/N = N
Scan Rate (V/s) = 0.2
Segment = 3
Sample Interval (V) = 0.001
Quiet Time (sec) = 2
Sensitivity (A/V) = 0.01
Comp R (ohm) = 1.5

Results:

Channel 1:
Segment 1:

Segment 2:

Segment 3:

Potential/V, Current/A

-1.000, 5.760e-6
-1.001, 1.442e-5
-1.002, 2.190e-5
-1.003, 1.677e-5
-1.004, 1.469e-5
-1.005, 2.346e-5
-1.006, 2.142e-5
-1.007, 1.597e-5
-1.008, 2.237e-5
-1.009, 2.530e-5
-1.010, 1.810e-5
-1.011, 2.058e-5
-1.012, 2.739e-5
-1.013, 2.142e-5
-1.014, 1.916e-5
-1.015, 2.749e-5
-1.016, 2.472e-5
-1.017, 1.919e-5
-1.018, 2.555e-5
-1.019, 2.834e-5
-1.020, 2.051e-5
-1.021, 2.327e-5
-1.022, 2.956e-5
-1.023, 2.363e-5
-1.024, 2.140e-5
-1.025, 2.911e-5
-1.026, 2.675e-5
-1.027, 2.097e-5
-1.028, 2.716e-5
-1.029, 2.989e-5
-1.030, 2.207e-5
-1.031, 2.486e-5
-1.032, 3.116e-5
-1.033, 2.479e-5
-1.034, 2.252e-5
-1.035, 3.045e-5
-1.036, 2.804e-5
-1.037, 2.220e-5
-1.038, 2.852e-5
-1.039, 3.066e-5
-1.040, 2.311e-5
-1.041, 2.580e-5
-1.042, 3.221e-5
-1.043, 2.574e-5
-1.044, 2.357e-5
-1.045, 3.128e-5
-1.046, 2.876e-5
-1.047, 2.327e-5
-1.048, 2.898e-5
-1.049, 3.148e-5
-1.050, 2.407e-5
-1.051, 2.634e-5
-1.052, 3.276e-5
-1.053, 2.661e-5
-1.054, 2.416e-5
-1.055, 3.242e-5
-1.056, 2.902e-5
-1.057, 2.361e-5
-1.058, 2.964e-5
-1.059, 3.208e-5
-1.060, 2.442e-5
-1.061, 2.727e-5
-1.062, 3.325e-5
-1.063, 2.704e-5
-1.064, 2.449e-5
-1.065, 3.253e-5
-1.066, 2.983e-5
-1.067, 2.387e-5
-1.068, 3.040e-5
-1.069, 3.283e-5
-1.070, 2.474e-5
-1.071, 2.765e-5
-1.072, 3.375e-5
-1.073, 2.717e-5
-1.074, 2.524e-5
-1.075, 3.326e-5
-1.076, 3.006e-5
-1.077, 2.447e-5
-1.078, 3.067e-5
-1.079, 3.300e-5
-1.080, 2.548e-5
-1.081, 2.795e-5
-1.082, 3.408e-5
-1.083, 2.775e-5
-1.084, 2.538e-5
-1.085, 3.371e-5
-1.086, 3.019e-5
-1.087, 2.503e-5
-1.088, 3.117e-5
-1.089, 3.356e-5
-1.090, 2.568e-5
-1.091, 2.851e-5
-1.092, 3.454e-5
-1.093, 2.818e-5
-1.094, 2.590e-5
-1.095, 3.423e-5
-1.096, 3.085e-5
-1.097, 2.534e-5
-1.098, 3.186e-5
-1.099, 3.383e-5
-1.100, 2.636e-5
-1.101, 2.902e-5
-1.102, 3.492e-5
-1.103, 2.889e-5
-1.104, 2.646e-5
-1.105, 3.457e-5
-1.106, 3.169e-5
-1.107, 2.577e-5
-1.108, 3.236e-5
-1.109, 3.434e-5
-1.110, 2.682e-5
-1.111, 2.966e-5
-1.112, 3.544e-5
-1.113, 2.930e-5
-1.114, 2.726e-5
-1.115, 3.496e-5
-1.116, 3.213e-5
-1.117, 2.661e-5
-1.118, 3.278e-5
-1.119, 3.487e-5
-1.120, 2.751e-5
-1.121, 3.041e-5
-1.122, 3.628e-5
-1.123, 2.974e-5
-1.124, 2.755e-5
-1.125, 3.577e-5
-1.126, 3.265e-5
-1.127, 2.710e-5
-1.128, 3.350e-5
-1.129, 3.554e-5
-1.130, 2.808e-5
-1.131, 3.066e-5
-1.132, 3.668e-5
-1.133, 3.019e-5
-1.134, 2.826e-5
-1.135, 3.617e-5
-1.136, 3.306e-5
-1.137, 2.761e-5
-1.138, 3.417e-5
-1.139, 3.584e-5
-1.140, 2.845e-5
-1.141, 3.153e-5
-1.142, 3.712e-5
-1.143, 3.065e-5
-1.144, 2.872e-5
-1.145, 3.662e-5
-1.146, 3.340e-5
-1.147, 2.790e-5
-1.148, 3.441e-5
-1.149, 3.621e-5
-1.150, 2.863e-5
-1.151, 3.162e-5
-1.152, 3.775e-5
-1.153, 3.097e-5
-1.154, 2.923e-5
-1.155, 3.712e-5
-1.156, 3.376e-5
-1.157, 2.808e-5
-1.158, 3.478e-5
-1.159, 3.668e-5
-1.160, 2.847e-5
-1.161, 3.174e-5
-1.162, 3.778e-5
-1.163, 3.113e-5
-1.164, 2.944e-5
-1.165, 3.738e-5
-1.166, 3.406e-5
-1.167, 2.857e-5
-1.168, 3.475e-5
-1.169, 3.682e-5
-1.170, 2.907e-5
-1.171, 3.228e-5
-1.172, 3.776e-5
-1.173, 3.160e-5
-1.174, 2.925e-5
-1.175, 3.737e-5
-1.176, 3.380e-5
-1.177, 2.860e-5
-1.178, 3.533e-5
-1.179, 3.693e-5
-1.180, 2.906e-5
-1.181, 3.237e-5
-1.182, 3.792e-5
-1.183, 3.132e-5
-1.184, 2.978e-5
-1.185, 3.722e-5
-1.186, 3.409e-5
-1.187, 2.846e-5
-1.188, 3.539e-5
-1.189, 3.668e-5
-1.190, 2.909e-5
-1.191, 3.240e-5
-1.192, 3.785e-5
-1.193, 3.126e-5
-1.194, 2.948e-5
-1.195, 3.747e-5
-1.196, 3.394e-5
-1.197, 2.857e-5
-1.198, 3.510e-5
-1.199, 3.691e-5
-1.200, 2.897e-5
-1.201, 3.253e-5
-1.202, 3.795e-5
-1.203, 3.105e-5
-1.204, 2.988e-5
-1.205, 3.711e-5
-1.206, 3.389e-5
-1.207, 2.863e-5
-1.208, 3.510e-5
-1.209, 3.669e-5
-1.210, 2.925e-5
-1.211, 3.212e-5
-1.212, 3.787e-5
-1.213, 3.109e-5
-1.214, 2.977e-5
-1.215, 3.754e-5
-1.216, 3.382e-5
-1.217, 2.863e-5
-1.218, 3.546e-5
-1.219, 3.650e-5
-1.220, 2.894e-5
-1.221, 3.247e-5
-1.222, 3.802e-5
-1.223, 3.132e-5
-1.224, 2.965e-5
-1.225, 3.748e-5
-1.226, 3.378e-5
-1.227, 2.848e-5
-1.228, 3.554e-5
-1.229, 3.683e-5
-1.230, 2.926e-5
-1.231, 3.283e-5
-1.232, 3.807e-5
-1.233, 3.144e-5
-1.234, 3.006e-5
-1.235, 3.737e-5
-1.236, 3.434e-5
-1.237, 2.881e-5
-1.238, 3.570e-5
-1.239, 3.694e-5
-1.240, 2.935e-5
-1.241, 3.294e-5
-1.242, 3.849e-5
-1.243, 3.152e-5
-1.244, 3.045e-5
-1.245, 3.817e-5
-1.246, 3.430e-5
-1.247, 2.943e-5
-1.248, 3.608e-5
-1.249, 3.716e-5
-1.250, 2.998e-5
-1.251, 3.328e-5
-1.252, 3.893e-5
-1.253, 3.204e-5
-1.254, 3.089e-5
-1.255, 3.865e-5
-1.256, 3.495e-5
-1.257, 2.999e-5
-1.258, 3.687e-5
-1.259, 3.756e-5
-1.260, 3.087e-5
-1.261, 3.414e-5
-1.262, 3.934e-5
-1.263, 3.284e-5
-1.264, 3.174e-5
-1.265, 3.923e-5
-1.266, 3.577e-5
-1.267, 3.067e-5
-1.268, 3.779e-5
-1.269, 3.872e-5
-1.270, 3.165e-5
-1.271, 3.523e-5
-1.272, 4.026e-5
-1.273, 3.396e-5
-1.274, 3.301e-5
-1.275, 4.048e-5
-1.276, 3.689e-5
-1.277, 3.208e-5
-1.278, 3.882e-5
-1.279, 4.025e-5
-1.280, 3.333e-5
-1.281, 3.664e-5
-1.282, 4.194e-5
-1.283, 3.540e-5
-1.284, 3.460e-5
-1.285, 4.215e-5
-1.286, 3.843e-5
-1.287, 3.397e-5
-1.288, 4.082e-5
-1.289, 4.193e-5
-1.290, 3.517e-5
-1.291, 3.857e-5
-1.292, 4.407e-5
-1.293, 3.735e-5
-1.294, 3.693e-5
-1.295, 4.422e-5
-1.296, 4.086e-5
-1.297, 3.637e-5
-1.298, 4.328e-5
-1.299, 4.399e-5
-1.300, 3.751e-5
-1.301, 4.117e-5
-1.302, 4.648e-5
-1.303, 4.017e-5
-1.304, 3.974e-5
-1.305, 4.701e-5
-1.306, 4.397e-5
-1.307, 3.924e-5
-1.308, 4.656e-5
-1.309, 4.751e-5
-1.310, 4.094e-5
-1.311, 4.482e-5
-1.312, 5.002e-5
-1.313, 4.371e-5
-1.314, 4.345e-5
-1.315, 5.113e-5
-1.316, 4.733e-5
-1.317, 4.328e-5
-1.318, 5.068e-5
-1.319, 5.174e-5
-1.320, 4.524e-5
-1.321, 4.904e-5
-1.322, 5.448e-5
-1.323, 4.837e-5
-1.324, 4.821e-5
-1.325, 5.571e-5
-1.326, 5.246e-5
-1.327, 4.878e-5
-1.328, 5.560e-5
-1.329, 5.689e-5
-1.330, 5.108e-5
-1.331, 5.468e-5
-1.332, 6.024e-5
-1.333, 5.451e-5
-1.334, 5.430e-5
-1.335, 6.200e-5
-1.336, 5.881e-5
-1.337, 5.511e-5
-1.338, 6.262e-5
-1.339, 6.375e-5
-1.340, 5.786e-5
-1.341, 6.204e-5
-1.342, 6.769e-5
-1.343, 6.173e-5
-1.344, 6.211e-5
-1.345, 6.964e-5
-1.346, 6.717e-5
-1.347, 6.330e-5
-1.348, 7.098e-5
-1.349, 7.233e-5
-1.350, 6.676e-5
-1.351, 7.117e-5
-1.352, 7.667e-5
-1.353, 7.138e-5
-1.354, 7.185e-5
-1.355, 7.938e-5
-1.356, 7.740e-5
-1.357, 7.390e-5
-1.358, 8.153e-5
-1.359, 8.318e-5
-1.360, 7.782e-5
-1.361, 8.258e-5
-1.362, 8.853e-5
-1.363, 8.339e-5
-1.364, 8.418e-5
-1.365, 9.208e-5
-1.366, 9.008e-5
-1.367, 8.703e-5
-1.368, 9.486e-5
-1.369, 9.679e-5
-1.370, 9.223e-5
-1.371, 9.658e-5
-1.372, 1.031e-4
-1.373, 9.837e-5
-1.374, 9.948e-5
-1.375, 1.076e-4
-1.376, 1.062e-4
-1.377, 1.031e-4
-1.378, 1.116e-4
-1.379, 1.137e-4
-1.380, 1.096e-4
-1.381, 1.144e-4
-1.382, 1.214e-4
-1.383, 1.171e-4
-1.384, 1.183e-4
-1.385, 1.271e-4
-1.386, 1.261e-4
-1.387, 1.236e-4
-1.388, 1.321e-4
-1.389, 1.350e-4
-1.390, 1.312e-4
-1.391, 1.365e-4
-1.392, 1.436e-4
-1.393, 1.399e-4
-1.394, 1.418e-4
-1.395, 1.506e-4
-1.396, 1.502e-4
-1.397, 1.485e-4
-1.398, 1.573e-4
-1.399, 1.609e-4
-1.400, 1.575e-4
-1.401, 1.634e-4
-1.402, 1.711e-4
-1.403, 1.681e-4
-1.404, 1.703e-4
-1.405, 1.797e-4
-1.406, 1.799e-4
-1.407, 1.789e-4
-1.408, 1.882e-4
-1.409, 1.922e-4
-1.410, 1.899e-4
-1.411, 1.958e-4
-1.412, 2.045e-4
-1.413, 2.020e-4
-1.414, 2.048e-4
-1.415, 2.149e-4
-1.416, 2.159e-4
-1.417, 2.150e-4
-1.418, 2.253e-4
-1.419, 2.299e-4
-1.420, 2.283e-4
-1.421, 2.349e-4
-1.422, 2.442e-4
-1.423, 2.425e-4
-1.424, 2.462e-4
-1.425, 2.569e-4
-1.426, 2.592e-4
-1.427, 2.590e-4
-1.428, 2.698e-4
-1.429, 2.757e-4
-1.430, 2.747e-4
-1.431, 2.823e-4
-1.432, 2.925e-4
-1.433, 2.923e-4
-1.434, 2.966e-4
-1.435, 3.086e-4
-1.436, 3.118e-4
-1.437, 3.125e-4
-1.438, 3.244e-4
-1.439, 3.317e-4
-1.440, 3.316e-4
-1.441, 3.403e-4
-1.442, 3.519e-4
-1.443, 3.529e-4
-1.444, 3.582e-4
-1.445, 3.713e-4
-1.446, 3.762e-4
-1.447, 3.785e-4
-1.448, 3.916e-4
-1.449, 4.001e-4
-1.450, 4.021e-4
-1.451, 4.114e-4
-1.452, 4.249e-4
-1.453, 4.276e-4
-1.454, 4.343e-4
-1.455, 4.494e-4
-1.456, 4.562e-4
-1.457, 4.600e-4
-1.458, 4.748e-4
-1.459, 4.862e-4
-1.460, 4.899e-4
-1.461, 5.013e-4
-1.462, 5.169e-4
-1.463, 5.224e-4
-1.464, 5.308e-4
-1.465, 5.482e-4
-1.466, 5.581e-4
-1.467, 5.636e-4
-1.468, 5.809e-4
-1.469, 5.954e-4
-1.470, 6.013e-4
-1.471, 6.150e-4
-1.472, 6.338e-4
-1.473, 6.420e-4
-1.474, 6.532e-4
-1.475, 6.732e-4
-1.476, 6.868e-4
-1.477, 6.953e-4
-1.478, 7.150e-4
-1.479, 7.330e-4
-1.480, 7.423e-4
-1.481, 7.587e-4
-1.482, 7.816e-4
-1.483, 7.931e-4
-1.484, 8.073e-4
-1.485, 8.316e-4
-1.486, 8.490e-4
-1.487, 8.604e-4
-1.488, 8.834e-4
-1.489, 9.052e-4
-1.490, 9.179e-4
-1.491, 9.375e-4
-1.492, 9.640e-4
-1.493, 9.796e-4
-1.494, 9.964e-4
-1.495, 1.023e-3
-1.496, 1.044e-3
-1.497, 1.059e-3
-1.498, 1.085e-3
-1.499, 1.111e-3
-1.500, 1.127e-3
-1.501, 1.149e-3
-1.502, 1.180e-3
-1.503, 1.198e-3
-1.504, 1.216e-3
-1.505, 1.247e-3
-1.506, 1.272e-3
-1.507, 1.289e-3
-1.508, 1.319e-3
-1.509, 1.348e-3
-1.510, 1.367e-3
-1.511, 1.393e-3
-1.512, 1.426e-3
-1.513, 1.449e-3
-1.514, 1.471e-3
-1.515, 1.505e-3
-1.516, 1.534e-3
-1.517, 1.554e-3
-1.518, 1.586e-3
-1.519, 1.620e-3
-1.520, 1.642e-3
-1.521, 1.670e-3
-1.522, 1.708e-3
-1.523, 1.733e-3
-1.524, 1.758e-3
-1.525, 1.795e-3
-1.526, 1.827e-3
-1.527, 1.849e-3
-1.528, 1.885e-3
-1.529, 1.922e-3
-1.530, 1.947e-3
-1.531, 1.977e-3
-1.532, 2.018e-3
-1.533, 2.046e-3
-1.534, 2.073e-3
-1.535, 2.114e-3
-1.536, 2.150e-3
-1.537, 2.175e-3
-1.538, 2.212e-3
-1.539, 2.253e-3
-1.540, 2.281e-3
-1.541, 2.314e-3
-1.542, 2.358e-3
-1.543, 2.391e-3
-1.544, 2.420e-3
-1.545, 2.464e-3
-1.546, 2.503e-3
-1.547, 2.531e-3
-1.548, 2.572e-3
-1.549, 2.616e-3
-1.550, 2.647e-3
-1.551, 2.682e-3
-1.552, 2.730e-3
-1.553, 2.766e-3
-1.554, 2.798e-3
-1.555, 2.843e-3
-1.556, 2.886e-3
-1.557, 2.916e-3
-1.558, 2.961e-3
-1.559, 3.009e-3
-1.560, 3.042e-3
-1.561, 3.080e-3
-1.562, 3.133e-3
-1.563, 3.172e-3
-1.564, 3.206e-3
-1.565, 3.257e-3
-1.566, 3.304e-3
-1.567, 3.338e-3
-1.568, 3.384e-3
-1.569, 3.435e-3
-1.570, 3.473e-3
-1.571, 3.514e-3
-1.572, 3.571e-3
-1.573, 3.612e-3
-1.574, 3.649e-3
-1.575, 3.704e-3
-1.576, 3.755e-3
-1.577, 3.791e-3
-1.578, 3.842e-3
-1.579, 3.897e-3
-1.580, 3.938e-3
-1.581, 3.982e-3
-1.582, 4.043e-3
-1.583, 4.089e-3
-1.584, 4.129e-3
-1.585, 4.186e-3
-1.586, 4.240e-3
-1.587, 4.278e-3
-1.588, 4.334e-3
-1.589, 4.393e-3
-1.590, 4.434e-3
-1.591, 4.478e-3
-1.592, 4.542e-3
-1.593, 4.593e-3
-1.594, 4.635e-3
-1.595, 4.695e-3
-1.596, 4.753e-3
-1.597, 4.793e-3
-1.598, 4.849e-3
-1.599, 4.916e-3
-1.600, 4.914e-3
-1.599, 4.868e-3
-1.598, 4.839e-3
-1.597, 4.797e-3
-1.596, 4.745e-3
-1.595, 4.712e-3
-1.594, 4.674e-3
-1.593, 4.620e-3
-1.592, 4.583e-3
-1.591, 4.550e-3
-1.590, 4.497e-3
-1.589, 4.448e-3
-1.588, 4.417e-3
-1.587, 4.373e-3
-1.586, 4.320e-3
-1.585, 4.284e-3
-1.584, 4.246e-3
-1.583, 4.190e-3
-1.582, 4.150e-3
-1.581, 4.117e-3
-1.580, 4.065e-3
-1.579, 4.018e-3
-1.578, 3.987e-3
-1.577, 3.939e-3
-1.576, 3.899e-3
-1.575, 3.865e-3
-1.574, 3.825e-3
-1.573, 3.772e-3
-1.572, 3.733e-3
-1.571, 3.701e-3
-1.570, 3.651e-3
-1.569, 3.607e-3
-1.568, 3.577e-3
-1.567, 3.533e-3
-1.566, 3.483e-3
-1.565, 3.451e-3
-1.564, 3.414e-3
-1.563, 3.364e-3
-1.562, 3.328e-3
-1.561, 3.295e-3
-1.560, 3.248e-3
-1.559, 3.205e-3
-1.558, 3.177e-3
-1.557, 3.134e-3
-1.556, 3.088e-3
-1.555, 3.057e-3
-1.554, 3.023e-3
-1.553, 2.975e-3
-1.552, 2.942e-3
-1.551, 2.912e-3
-1.550, 2.867e-3
-1.549, 2.827e-3
-1.548, 2.801e-3
-1.547, 2.762e-3
-1.546, 2.719e-3
-1.545, 2.691e-3
-1.544, 2.658e-3
-1.543, 2.614e-3
-1.542, 2.583e-3
-1.541, 2.557e-3
-1.540, 2.515e-3
-1.539, 2.478e-3
-1.538, 2.454e-3
-1.537, 2.416e-3
-1.536, 2.377e-3
-1.535, 2.352e-3
-1.534, 2.321e-3
-1.533, 2.280e-3
-1.532, 2.253e-3
-1.531, 2.226e-3
-1.530, 2.188e-3
-1.529, 2.156e-3
-1.528, 2.135e-3
-1.527, 2.099e-3
-1.526, 2.063e-3
-1.525, 2.041e-3
-1.524, 2.012e-3
-1.523, 1.974e-3
-1.522, 1.949e-3
-1.521, 1.925e-3
-1.520, 1.889e-3
-1.519, 1.860e-3
-1.518, 1.841e-3
-1.517, 1.808e-3
-1.516, 1.776e-3
-1.515, 1.756e-3
-1.514, 1.729e-3
-1.513, 1.695e-3
-1.512, 1.674e-3
-1.511, 1.652e-3
-1.510, 1.618e-3
-1.509, 1.593e-3
-1.508, 1.575e-3
-1.507, 1.546e-3
-1.506, 1.517e-3
-1.505, 1.500e-3
-1.504, 1.476e-3
-1.503, 1.445e-3
-1.502, 1.426e-3
-1.501, 1.406e-3
-1.500, 1.377e-3
-1.499, 1.354e-3
-1.498, 1.339e-3
-1.497, 1.311e-3
-1.496, 1.286e-3
-1.495, 1.271e-3
-1.494, 1.249e-3
-1.493, 1.221e-3
-1.492, 1.206e-3
-1.491, 1.188e-3
-1.490, 1.162e-3
-1.489, 1.142e-3
-1.488, 1.129e-3
-1.487, 1.104e-3
-1.486, 1.081e-3
-1.485, 1.068e-3
-1.484, 1.048e-3
-1.483, 1.023e-3
-1.482, 1.010e-3
-1.481, 9.943e-4
-1.480, 9.699e-4
-1.479, 9.532e-4
-1.478, 9.416e-4
-1.477, 9.191e-4
-1.476, 8.992e-4
-1.475, 8.890e-4
-1.474, 8.712e-4
-1.473, 8.489e-4
-1.472, 8.380e-4
-1.471, 8.238e-4
-1.470, 8.017e-4
-1.469, 7.871e-4
-1.468, 7.781e-4
-1.467, 7.573e-4
-1.466, 7.405e-4
-1.465, 7.320e-4
-1.464, 7.164e-4
-1.463, 6.966e-4
-1.462, 6.883e-4
-1.461, 6.759e-4
-1.460, 6.565e-4
-1.459, 6.444e-4
-1.458, 6.370e-4
-1.457, 6.187e-4
-1.456, 6.049e-4
-1.455, 5.984e-4
-1.454, 5.838e-4
-1.453, 5.670e-4
-1.452, 5.606e-4
-1.451, 5.498e-4
-1.450, 5.326e-4
-1.449, 5.232e-4
-1.448, 5.174e-4
-1.447, 5.006e-4
-1.446, 4.886e-4
-1.445, 4.840e-4
-1.444, 4.714e-4
-1.443, 4.562e-4
-1.442, 4.521e-4
-1.441, 4.427e-4
-1.440, 4.277e-4
-1.439, 4.205e-4
-1.438, 4.160e-4
-1.437, 4.015e-4
-1.436, 3.917e-4
-1.435, 3.885e-4
-1.434, 3.773e-4
-1.433, 3.641e-4
-1.432, 3.619e-4
-1.431, 3.537e-4
-1.430, 3.401e-4
-1.429, 3.351e-4
-1.428, 3.317e-4
-1.427, 3.182e-4
-1.426, 3.107e-4
-1.425, 3.090e-4
-1.424, 2.991e-4
-1.423, 2.879e-4
-1.422, 2.867e-4
-1.421, 2.802e-4
-1.420, 2.680e-4
-1.419, 2.640e-4
-1.418, 2.623e-4
-1.417, 2.499e-4
-1.416, 2.442e-4
-1.415, 2.439e-4
-1.414, 2.349e-4
-1.413, 2.249e-4
-1.412, 2.259e-4
-1.411, 2.199e-4
-1.410, 2.094e-4
-1.409, 2.070e-4
-1.408, 2.059e-4
-1.407, 1.950e-4
-1.406, 1.903e-4
-1.405, 1.911e-4
-1.404, 1.830e-4
-1.403, 1.745e-4
-1.402, 1.764e-4
-1.401, 1.710e-4
-1.400, 1.616e-4
-1.399, 1.608e-4
-1.398, 1.602e-4
-1.397, 1.503e-4
-1.396, 1.466e-4
-1.395, 1.481e-4
-1.394, 1.409e-4
-1.393, 1.335e-4
-1.392, 1.364e-4
-1.391, 1.317e-4
-1.390, 1.234e-4
-1.389, 1.235e-4
-1.388, 1.236e-4
-1.387, 1.141e-4
-1.386, 1.117e-4
-1.385, 1.139e-4
-1.384, 1.075e-4
-1.383, 1.007e-4
-1.382, 1.043e-4
-1.381, 1.002e-4
-1.380, 9.251e-5
-1.379, 9.313e-5
-1.378, 9.419e-5
-1.377, 8.534e-5
-1.376, 8.371e-5
-1.375, 8.665e-5
-1.374, 8.040e-5
-1.373, 7.453e-5
-1.372, 7.894e-5
-1.371, 7.544e-5
-1.370, 6.793e-5
-1.369, 6.941e-5
-1.368, 7.089e-5
-1.367, 6.235e-5
-1.366, 6.125e-5
-1.365, 6.493e-5
-1.364, 5.902e-5
-1.363, 5.352e-5
-1.362, 5.837e-5
-1.361, 5.541e-5
-1.360, 4.843e-5
-1.359, 5.038e-5
-1.358, 5.188e-5
-1.357, 4.411e-5
-1.356, 4.350e-5
-1.355, 4.703e-5
-1.354, 4.192e-5
-1.353, 3.686e-5
-1.352, 4.208e-5
-1.351, 3.922e-5
-1.350, 3.263e-5
-1.349, 3.481e-5
-1.348, 3.728e-5
-1.347, 2.904e-5
-1.346, 2.916e-5
-1.345, 3.307e-5
-1.344, 2.790e-5
-1.343, 2.349e-5
-1.342, 2.856e-5
-1.341, 2.635e-5
-1.340, 2.006e-5
-1.339, 2.266e-5
-1.338, 2.510e-5
-1.337, 1.747e-5
-1.336, 1.766e-5
-1.335, 2.184e-5
-1.334, 1.688e-5
-1.333, 1.290e-5
-1.332, 1.837e-5
-1.331, 1.581e-5
-1.330, 1.011e-5
-1.329, 1.293e-5
-1.328, 1.545e-5
-1.327, 8.108e-6
-1.326, 8.601e-6
-1.325, 1.312e-5
-1.324, 8.137e-6
-1.323, 4.300e-6
-1.322, 1.021e-5
-1.321, 7.782e-6
-1.320, 2.139e-6
-1.319, 5.474e-6
-1.318, 7.624e-6
-1.317, 6.196e-7
-1.316, 1.369e-6
-1.315, 5.927e-6
-1.314, 1.221e-6
-1.313, -2.468e-6
-1.312, 3.698e-6
-1.311, 1.419e-6
-1.310, -4.254e-6
-1.309, -6.827e-7
-1.308, 1.942e-6
-1.307, -5.113e-6
-1.306, -4.323e-6
-1.305, 3.335e-7
-1.304, -4.136e-6
-1.303, -7.786e-6
-1.302, -1.748e-6
-1.301, -3.564e-6
-1.300, -9.237e-6
-1.299, -5.892e-6
-1.298, -2.794e-6
-1.297, -9.661e-6
-1.296, -8.546e-6
-1.295, -3.968e-6
-1.294, -8.339e-6
-1.293, -1.187e-5
-1.292, -5.626e-6
-1.291, -7.658e-6
-1.290, -1.304e-5
-1.289, -9.562e-6
-1.288, -6.375e-6
-1.287, -1.342e-5
-1.286, -1.235e-5
-1.285, -6.977e-6
-1.284, -1.183e-5
-1.283, -1.528e-5
-1.282, -8.941e-6
-1.281, -1.073e-5
-1.280, -1.652e-5
-1.279, -1.243e-5
-1.278, -9.651e-6
-1.277, -1.652e-5
-1.276, -1.527e-5
-1.275, -1.028e-5
-1.274, -1.460e-5
-1.273, -1.805e-5
-1.272, -1.139e-5
-1.271, -1.357e-5
-1.270, -1.888e-5
-1.269, -1.484e-5
-1.268, -1.183e-5
-1.267, -1.878e-5
-1.266, -1.762e-5
-1.265, -1.234e-5
-1.264, -1.687e-5
-1.263, -2.010e-5
-1.262, -1.360e-5
-1.261, -1.532e-5
-1.260, -2.080e-5
-1.259, -1.706e-5
-1.258, -1.379e-5
-1.257, -2.072e-5
-1.256, -1.941e-5
-1.255, -1.417e-5
-1.254, -1.884e-5
-1.253, -2.208e-5
-1.252, -1.538e-5
-1.251, -1.725e-5
-1.250, -2.232e-5
-1.249, -1.854e-5
-1.248, -1.532e-5
-1.247, -2.235e-5
-1.246, -2.118e-5
-1.245, -1.575e-5
-1.244, -2.000e-5
-1.243, -2.332e-5
-1.242, -1.666e-5
-1.241, -1.859e-5
-1.240, -2.378e-5
-1.239, -1.967e-5
-1.238, -1.703e-5
-1.237, -2.339e-5
-1.236, -2.224e-5
-1.235, -1.681e-5
-1.234, -2.134e-5
-1.233, -2.476e-5
-1.232, -1.772e-5
-1.231, -1.940e-5
-1.230, -2.522e-5
-1.229, -2.134e-5
-1.228, -1.808e-5
-1.227, -2.489e-5
-1.226, -2.349e-5
-1.225, -1.824e-5
-1.224, -2.230e-5
-1.223, -2.578e-5
-1.222, -1.907e-5
-1.221, -2.069e-5
-1.220, -2.615e-5
-1.219, -2.202e-5
-1.218, -1.869e-5
-1.217, -2.582e-5
-1.216, -2.456e-5
-1.215, -1.892e-5
-1.214, -2.350e-5
-1.213, -2.667e-5
-1.212, -1.971e-5
-1.211, -2.149e-5
-1.210, -2.722e-5
-1.209, -2.304e-5
-1.208, -1.979e-5
-1.207, -2.651e-5
-1.206, -2.565e-5
-1.205, -1.948e-5
-1.204, -2.405e-5
-1.203, -2.761e-5
-1.202, -2.055e-5
-1.201, -2.234e-5
-1.200, -2.772e-5
-1.199, -2.344e-5
-1.198, -2.034e-5
-1.197, -2.722e-5
-1.196, -2.611e-5
-1.195, -2.031e-5
-1.194, -2.479e-5
-1.193, -2.842e-5
-1.192, -2.120e-5
-1.191, -2.304e-5
-1.190, -2.857e-5
-1.189, -2.437e-5
-1.188, -2.101e-5
-1.187, -2.816e-5
-1.186, -2.672e-5
-1.185, -2.095e-5
-1.184, -2.546e-5
-1.183, -2.882e-5
-1.182, -2.187e-5
-1.181, -2.350e-5
-1.180, -2.908e-5
-1.179, -2.501e-5
-1.178, -2.167e-5
-1.177, -2.865e-5
-1.176, -2.742e-5
-1.175, -2.152e-5
-1.174, -2.629e-5
-1.173, -2.961e-5
-1.172, -2.243e-5
-1.171, -2.448e-5
-1.170, -2.973e-5
-1.169, -2.594e-5
-1.168, -2.201e-5
-1.167, -2.938e-5
-1.166, -2.796e-5
-1.165, -2.206e-5
-1.164, -2.668e-5
-1.163, -3.054e-5
-1.162, -2.305e-5
-1.161, -2.495e-5
-1.160, -3.050e-5
-1.159, -2.628e-5
-1.158, -2.306e-5
-1.157, -2.989e-5
-1.156, -2.849e-5
-1.155, -2.299e-5
-1.154, -2.730e-5
-1.153, -3.093e-5
-1.152, -2.387e-5
-1.151, -2.562e-5
-1.150, -3.134e-5
-1.149, -2.696e-5
-1.148, -2.355e-5
-1.147, -3.072e-5
-1.146, -2.942e-5
-1.145, -2.357e-5
-1.144, -2.823e-5
-1.143, -3.164e-5
-1.142, -2.458e-5
-1.141, -2.632e-5
-1.140, -3.200e-5
-1.139, -2.776e-5
-1.138, -2.418e-5
-1.137, -3.137e-5
-1.136, -2.996e-5
-1.135, -2.402e-5
-1.134, -2.873e-5
-1.133, -3.236e-5
-1.132, -2.527e-5
-1.131, -2.680e-5
-1.130, -3.250e-5
-1.129, -2.825e-5
-1.128, -2.477e-5
-1.127, -3.195e-5
-1.126, -3.121e-5
-1.125, -2.483e-5
-1.124, -2.962e-5
-1.123, -3.320e-5
-1.122, -2.598e-5
-1.121, -2.776e-5
-1.120, -3.348e-5
-1.119, -2.922e-5
-1.118, -2.581e-5
-1.117, -3.290e-5
-1.116, -3.172e-5
-1.115, -2.569e-5
-1.114, -3.020e-5
-1.113, -3.420e-5
-1.112, -2.694e-5
-1.111, -2.837e-5
-1.110, -3.465e-5
-1.109, -2.983e-5
-1.108, -2.635e-5
-1.107, -3.409e-5
-1.106, -3.252e-5
-1.105, -2.647e-5
-1.104, -3.127e-5
-1.103, -3.497e-5
-1.102, -2.765e-5
-1.101, -2.942e-5
-1.100, -3.533e-5
-1.099, -3.121e-5
-1.098, -2.743e-5
-1.097, -3.516e-5
-1.096, -3.380e-5
-1.095, -2.739e-5
-1.094, -3.243e-5
-1.093, -3.592e-5
-1.092, -2.848e-5
-1.091, -3.040e-5
-1.090, -3.647e-5
-1.089, -3.211e-5
-1.088, -2.866e-5
-1.087, -3.586e-5
-1.086, -3.481e-5
-1.085, -2.847e-5
-1.084, -3.339e-5
-1.083, -3.720e-5
-1.082, -2.985e-5
-1.081, -3.178e-5
-1.080, -3.756e-5
-1.079, -3.323e-5
-1.078, -2.980e-5
-1.077, -3.712e-5
-1.076, -3.586e-5
-1.075, -2.981e-5
-1.074, -3.485e-5
-1.073, -3.845e-5
-1.072, -3.093e-5
-1.071, -3.274e-5
-1.070, -3.901e-5
-1.069, -3.428e-5
-1.068, -3.077e-5
-1.067, -3.848e-5
-1.066, -3.726e-5
-1.065, -3.114e-5
-1.064, -3.590e-5
-1.063, -3.977e-5
-1.062, -3.218e-5
-1.061, -3.410e-5
-1.060, -4.026e-5
-1.059, -3.597e-5
-1.058, -3.210e-5
-1.057, -4.006e-5
-1.056, -3.847e-5
-1.055, -3.234e-5
-1.054, -3.750e-5
-1.053, -4.133e-5
-1.052, -3.379e-5
-1.051, -3.596e-5
-1.050, -4.180e-5
-1.049, -3.766e-5
-1.048, -3.367e-5
-1.047, -4.150e-5
-1.046, -4.038e-5
-1.045, -3.417e-5
-1.044, -3.934e-5
-1.043, -4.320e-5
-1.042, -3.573e-5
-1.041, -3.770e-5
-1.040, -4.378e-5
-1.039, -3.934e-5
-1.038, -3.580e-5
-1.037, -4.363e-5
-1.036, -4.259e-5
-1.035, -3.630e-5
-1.034, -4.132e-5
-1.033, -4.556e-5
-1.032, -3.776e-5
-1.031, -3.954e-5
-1.030, -4.610e-5
-1.029, -4.140e-5
-1.028, -3.777e-5
-1.027, -4.580e-5
-1.026, -4.489e-5
-1.025, -3.874e-5
-1.024, -4.376e-5
-1.023, -4.796e-5
-1.022, -4.044e-5
-1.021, -4.228e-5
-1.020, -4.911e-5
-1.019, -4.458e-5
-1.018, -4.067e-5
-1.017, -4.894e-5
-1.016, -4.780e-5
-1.015, -4.129e-5
-1.014, -4.658e-5
-1.013, -5.100e-5
-1.012, -4.340e-5
-1.011, -4.527e-5
-1.010, -5.234e-5
-1.009, -4.778e-5
-1.008, -4.380e-5
-1.007, -5.216e-5
-1.006, -5.166e-5
-1.005, -4.462e-5
-1.004, -5.032e-5
-1.003, -5.480e-5
-1.002, -4.719e-5
-1.001, -4.909e-5
