Potential V vs RHE, Current mA cm-2
0.013299999999999867,-0.4384190318281749
0.012299999999999978,-1.3980177065266295
0.011299999999999866,-2.095187435100119
0.010299999999999976,-2.576189277054232
0.009299999999999864,-2.968064307116847
0.008299999999999974,-3.273641947887695
0.007299999999999862,-3.5353635383627267
0.006299999999999972,-3.7532290785419424
0.00529999999999986,-3.927238568425342
0.0042999999999999705,-4.102662769608606
0.0032999999999998586,-4.1889601589003735
0.0022999999999999687,-4.276672259492005
0.0012999999999998568,-4.364384360083638
0.00029999999999996696,-4.364384360083638
-0.000700000000000145,-4.406825699079589
-0.0017000000000000348,-4.406825699079589
-0.0027000000000001467,-4.364384360083638
-0.0037000000000000366,-4.406825699079589
-0.0047000000000001485,-4.406825699079589
-0.005700000000000038,-4.450681749375406
-0.00670000000000015,-4.494537799671222
-0.00770000000000004,-4.538393849967037
-0.008700000000000152,-4.582249900262854
-0.009700000000000042,-4.626105950558669
-0.010700000000000154,-4.626105950558669
-0.011700000000000044,-4.626105950558669
-0.012700000000000156,-4.582249900262854
-0.013700000000000045,-4.538393849967037
-0.014700000000000157,-4.538393849967037
-0.015700000000000047,-4.494537799671222
-0.01670000000000016,-4.494537799671222
-0.01770000000000005,-4.538393849967037
-0.01870000000000016,-4.538393849967037
-0.01970000000000005,-4.582249900262854
-0.020700000000000163,-4.582249900262854
-0.021700000000000053,-4.626105950558669
-0.022700000000000164,-4.712403339850438
-0.023700000000000054,-4.712403339850438
-0.024700000000000166,-4.712403339850438
-0.025700000000000056,-4.668547289554621
-0.026700000000000168,-4.626105950558669
-0.027700000000000058,-4.582249900262854
-0.02870000000000017,-4.582249900262854
-0.02970000000000006,-4.538393849967037
-0.03070000000000017,-4.538393849967037
-0.03170000000000006,-4.538393849967037
-0.03270000000000017,-4.538393849967037
-0.03370000000000006,-4.626105950558669
-0.034700000000000175,-4.626105950558669
-0.035700000000000065,-4.668547289554621
-0.03670000000000018,-4.712403339850438
-0.03770000000000007,-4.668547289554621
-0.03870000000000018,-4.668547289554621
-0.03970000000000007,-4.668547289554621
-0.04070000000000018,-4.626105950558669
-0.04170000000000007,-4.582249900262854
-0.04270000000000018,-4.538393849967037
-0.04370000000000007,-4.494537799671222
-0.044700000000000184,-4.494537799671222
-0.045700000000000074,-4.494537799671222
-0.046700000000000186,-4.582249900262854
-0.047700000000000076,-4.582249900262854
-0.04870000000000019,-4.668547289554621
-0.04970000000000008,-4.712403339850438
-0.05070000000000019,-4.668547289554621
-0.05170000000000008,-4.712403339850438
-0.05270000000000019,-4.712403339850438
-0.05370000000000008,-4.668547289554621
-0.05470000000000019,-4.626105950558669
-0.05570000000000008,-4.582249900262854
-0.056700000000000195,-4.582249900262854
-0.057700000000000085,-4.538393849967037
-0.058700000000000196,-4.582249900262854
-0.059700000000000086,-4.626105950558669
-0.0607000000000002,-4.626105950558669
-0.06170000000000009,-4.668547289554621
-0.0627000000000002,-4.756259390146253
-0.06370000000000009,-4.756259390146253
-0.0647000000000002,-4.756259390146253
-0.06570000000000009,-4.712403339850438
-0.0667000000000002,-4.668547289554621
-0.0677000000000001,-4.626105950558669
-0.0687000000000002,-4.626105950558669
-0.0697000000000001,-4.538393849967037
-0.07070000000000021,-4.582249900262854
-0.0717000000000001,-4.582249900262854
-0.07270000000000021,-4.582249900262854
-0.0737000000000001,-4.626105950558669
-0.07470000000000021,-4.668547289554621
-0.0757000000000001,-4.712403339850438
-0.07670000000000021,-4.668547289554621
-0.0777000000000001,-4.668547289554621
-0.07870000000000021,-4.668547289554621
-0.0797000000000001,-4.626105950558669
-0.08070000000000022,-4.626105950558669
-0.0817000000000001,-4.626105950558669
-0.08270000000000022,-4.582249900262854
-0.08370000000000011,-4.582249900262854
-0.08470000000000022,-4.582249900262854
-0.08570000000000011,-4.626105950558669
-0.08670000000000022,-4.668547289554621
-0.08770000000000011,-4.668547289554621
-0.08870000000000022,-4.712403339850438
-0.08970000000000011,-4.712403339850438
-0.09070000000000022,-4.712403339850438
-0.09170000000000011,-4.756259390146253
-0.09270000000000023,-4.712403339850438
-0.09370000000000012,-4.668547289554621
-0.09470000000000023,-4.668547289554621
-0.09570000000000012,-4.626105950558669
-0.09670000000000023,-4.582249900262854
-0.09770000000000012,-4.582249900262854
-0.09870000000000023,-4.582249900262854
-0.09970000000000012,-4.626105950558669
-0.10070000000000023,-4.668547289554621
-0.10170000000000012,-4.712403339850438
-0.10270000000000024,-4.756259390146253
-0.10370000000000013,-4.756259390146253
-0.10470000000000024,-4.756259390146253
-0.10570000000000013,-4.712403339850438
-0.10670000000000024,-4.712403339850438
-0.10770000000000013,-4.668547289554621
-0.10870000000000024,-4.626105950558669
-0.10970000000000013,-4.582249900262854
-0.11070000000000024,-4.582249900262854
-0.11170000000000013,-4.582249900262854
-0.11270000000000002,-4.626105950558669
-0.11370000000000013,-4.668547289554621
-0.11470000000000002,-4.668547289554621
-0.11570000000000014,-4.756259390146253
-0.11670000000000003,-4.800115440442069
-0.11770000000000014,-4.756259390146253
-0.11870000000000003,-4.800115440442069
-0.11970000000000014,-4.756259390146253
-0.12070000000000003,-4.712403339850438
-0.12170000000000014,-4.668547289554621
-0.12270000000000003,-4.626105950558669
-0.12370000000000014,-4.626105950558669
-0.12470000000000003,-4.626105950558669
-0.12570000000000014,-4.668547289554621
-0.12670000000000003,-4.712403339850438
-0.12770000000000015,-4.756259390146253
-0.12870000000000004,-4.800115440442069
-0.12970000000000015,-4.843971490737885
-0.13070000000000004,-4.800115440442069
-0.13170000000000015,-4.800115440442069
-0.13270000000000004,-4.800115440442069
-0.13370000000000015,-4.756259390146253
-0.13470000000000004,-4.756259390146253
-0.13570000000000015,-4.668547289554621
-0.13670000000000004,-4.668547289554621
-0.13770000000000016,-4.712403339850438
-0.13870000000000005,-4.668547289554621
-0.13970000000000016,-4.712403339850438
-0.14070000000000005,-4.712403339850438
-0.14170000000000016,-4.756259390146253
-0.14270000000000005,-4.800115440442069
-0.14370000000000016,-4.843971490737885
-0.14470000000000005,-4.843971490737885
-0.14570000000000016,-4.800115440442069
-0.14670000000000005,-4.800115440442069
-0.14770000000000016,-4.800115440442069
-0.14870000000000005,-4.800115440442069
-0.14970000000000017,-4.756259390146253
-0.15070000000000006,-4.756259390146253
-0.15170000000000017,-4.756259390146253
-0.15270000000000006,-4.756259390146253
-0.15370000000000017,-4.800115440442069
-0.15470000000000006,-4.800115440442069
-0.15570000000000017,-4.887827541033701
-0.15670000000000006,-4.9302688800296535
-0.15770000000000017,-4.9302688800296535
-0.15870000000000006,-4.9302688800296535
-0.15970000000000018,-4.887827541033701
-0.16070000000000007,-4.887827541033701
-0.16170000000000018,-4.843971490737885
-0.16270000000000007,-4.800115440442069
-0.16370000000000018,-4.800115440442069
-0.16470000000000007,-4.800115440442069
-0.16570000000000018,-4.843971490737885
-0.16670000000000007,-4.887827541033701
-0.16770000000000018,-4.9302688800296535
-0.16870000000000007,-4.974124930325469
-0.16970000000000018,-5.017980980621284
-0.17070000000000007,-5.017980980621284
-0.17170000000000019,-5.017980980621284
-0.17270000000000008,-4.974124930325469
-0.1737000000000002,-4.9302688800296535
-0.17470000000000008,-4.887827541033701
-0.1757000000000002,-4.887827541033701
-0.17670000000000008,-4.887827541033701
-0.1777000000000002,-4.887827541033701
-0.17870000000000008,-4.887827541033701
-0.1797000000000002,-4.974124930325469
-0.18070000000000008,-5.017980980621284
-0.1817000000000002,-5.0618370309171015
-0.18270000000000008,-5.105693081212917
-0.1837000000000002,-5.105693081212917
-0.1847000000000001,-5.149549131508733
-0.1857000000000002,-5.105693081212917
-0.1867000000000001,-5.105693081212917
-0.1877000000000002,-5.0618370309171015
-0.1887000000000001,-5.0618370309171015
-0.1897000000000002,-5.017980980621284
-0.1907000000000001,-5.0618370309171015
-0.1917000000000001,-5.0618370309171015
-0.19269999999999998,-5.105693081212917
-0.1937000000000001,-5.149549131508733
-0.19469999999999998,-5.191990470504685
-0.1957000000000001,-5.279702571096316
-0.19669999999999999,-5.279702571096316
-0.1977000000000001,-5.279702571096316
-0.1987,-5.323558621392133
-0.1997000000000001,-5.323558621392133
-0.2007,-5.279702571096316
-0.2017000000000001,-5.279702571096316
-0.2027,-5.235846520800501
-0.2037000000000001,-5.235846520800501
-0.2047,-5.235846520800501
-0.2057000000000001,-5.235846520800501
-0.2067,-5.323558621392133
-0.2077000000000001,-5.323558621392133
-0.2087,-5.411270721983764
-0.2097000000000001,-5.497568111275533
-0.2107,-5.497568111275533
-0.2117000000000001,-5.5414241615713475
-0.2127,-5.5414241615713475
-0.2137000000000001,-5.585280211867165
-0.2147,-5.5414241615713475
-0.2157000000000001,-5.5414241615713475
-0.2167,-5.5414241615713475
-0.21770000000000012,-5.585280211867165
-0.2187,-5.585280211867165
-0.21970000000000012,-5.629136262162981
-0.2207,-5.672992312458796
-0.22170000000000012,-5.715433651454749
-0.2227,-5.847001802342197
-0.22370000000000012,-5.890857852638012
-0.2247,-5.890857852638012
-0.22570000000000012,-5.9347139029338285
-0.2267,-5.9347139029338285
-0.22770000000000012,-5.9347139029338285
-0.22870000000000001,-5.9347139029338285
-0.22970000000000013,-5.890857852638012
-0.23070000000000002,-5.9347139029338285
-0.23170000000000013,-5.977155241929781
-0.23270000000000002,-6.064867342521412
-0.23370000000000013,-6.108723392817228
-0.23470000000000002,-6.196435493408861
-0.23570000000000013,-6.282732882700628
-0.23670000000000002,-6.282732882700628
-0.2376999999999999,-6.326588932996443
-0.23870000000000002,-6.326588932996443
-0.2396999999999999,-6.37044498329226
-0.24070000000000003,-6.37044498329226
-0.24169999999999991,-6.414301033588076
-0.24270000000000003,-6.37044498329226
-0.24369999999999992,-6.458157083883892
-0.24470000000000003,-6.500598422879844
-0.24569999999999992,-6.588310523471475
-0.24670000000000003,-6.719878674358924
-0.24769999999999992,-6.806176063650692
-0.24870000000000003,-6.850032113946507
-0.24969999999999992,-6.93774421453814
-0.25070000000000003,-6.981600264833956
-0.2516999999999999,-7.067897654125724
-0.25270000000000004,-7.067897654125724
-0.2536999999999999,-7.111753704421539
-0.25470000000000004,-7.155609754717355
-0.2556999999999999,-7.155609754717355
-0.25670000000000004,-7.243321855308987
-0.25769999999999993,-7.28576319430494
-0.25870000000000004,-7.37347529489657
-0.25969999999999993,-7.461187395488204
-0.26070000000000004,-7.5474847847799715
-0.26169999999999993,-7.635196885371603
-0.26270000000000004,-7.7653503249591855
-0.26369999999999993,-7.853062425550818
-0.26470000000000005,-7.940774526142452
-0.26569999999999994,-8.027071915434218
-0.26670000000000005,-8.070927965730034
-0.26769999999999994,-8.11478401602585
-0.26870000000000005,-8.158640066321666
-0.26969999999999994,-8.158640066321666
-0.27070000000000005,-8.202496116617484
-0.27169999999999994,-8.288793505909249
-0.27270000000000005,-8.4203616567967
-0.27369999999999994,-8.55051509638428
-0.27470000000000006,-8.68208324727173
-0.27569999999999995,-8.85609273715513
-0.27670000000000006,-8.943804837746763
-0.27769999999999995,-9.073958277334345
-0.27870000000000006,-9.24938247851761
-0.27969999999999995,-9.293238528813426
-0.28070000000000006,-9.379535918105192
-0.28169999999999995,-9.467248018696827
-0.28270000000000006,-9.511104068992642
-0.28369999999999995,-9.641257508580225
-0.28470000000000006,-9.728969609171857
-0.28569999999999995,-9.85912304875944
-0.28670000000000007,-9.99069119964689
-0.28769999999999996,-10.120844639234473
-0.28870000000000007,-10.340124890713554
-0.28969999999999996,-10.514134380596953
-0.29070000000000007,-10.644287820184536
-0.29169999999999996,-10.819712021367803
-0.29270000000000007,-10.949865460955383
-0.29369999999999996,-11.037577561547016
-0.2947000000000001,-11.123874950838783
-0.29569999999999996,-11.211587051430415
-0.2967000000000001,-11.343155202317865
-0.29769999999999996,-11.473308641905447
-0.2987000000000001,-11.647318131788847
-0.29969999999999997,-11.86659838326793
-0.3007000000000001,-12.040607873151327
-0.30169999999999997,-12.214617363034726
-0.3027000000000001,-12.390041564217992
-0.30369999999999997,-12.520195003805576
-0.3047000000000001,-12.694204493688973
-0.30569999999999997,-12.825772644576423
-0.3067000000000001,-12.955926084164007
-0.3077,-13.13135028534727
-0.3087000000000001,-13.30535977523067
-0.3097,-13.47936926511407
-0.3107000000000001,-13.698649516593148
-0.3117,-13.872659006476551
-0.3127000000000001,-14.13438059695158
-0.3137,-14.345172580631472
-0.3147000000000001,-14.57152638860988
-0.3157,-14.783733083589633
-0.3167000000000001,-15.01008689156804
-0.3177,-15.179852247551842
-0.3187000000000001,-15.3920589425316
-0.3197,-15.618412750510005
-0.3207000000000001,-15.78817810649381
-0.3217,-16.014531914472215
-0.3227000000000001,-16.184297270456018
-0.3237,-16.438945304431726
-0.3247000000000001,-16.665299112410132
-0.3257,-16.919947146385837
-0.3267000000000001,-17.146300954364243
-0.3277,-17.40094898833995
-0.3287000000000001,-17.669744135314307
-0.3297,-17.966833508285966
-0.3307000000000001,-18.23562865526032
-0.3317,-18.53271802823198
-0.3327000000000001,-18.716630497214435
-0.3337,-18.92883719219419
-0.3347000000000001,-19.112749661176647
-0.3357,-19.28251501716045
-0.3367000000000001,-19.49472171214021
-0.3377,-19.763516859114564
-0.3387000000000001,-20.01816489309027
-0.3397,-20.329401379060574
-0.3407000000000001,-20.683079204026836
-0.3417,-21.065051254990397
-0.3427000000000001,-21.418729079956652
-0.3437,-21.814848243918867
-0.3447000000000001,-22.111937616890522
-0.3457,-22.38073276386488
-0.3467000000000001,-22.63538079784059
-0.3477,-22.904175944814945
-0.3487000000000001,-23.15882397879065
-0.3497,-23.427619125765005
-0.3507000000000001,-23.682267159740714
-0.3517,-23.993503645711023
-0.3527000000000001,-24.389622809673234
-0.3537,-24.771594860636792
-0.3547000000000001,-25.167714024599
-0.3557,-25.563833188561212
-0.35670000000000013,-25.91751101352747
-0.3577,-26.257041725495082
-0.35870000000000013,-26.568278211465387
-0.3597,-26.86536758443705
-0.36070000000000013,-27.176604070407354
-0.3617,-27.530281895373616
-0.3626999999999999,-27.827371268345274
-0.3637,-28.22349043230748
-0.3646999999999999,-28.619609596269694
-0.3657,-29.001581647233255
-0.3666999999999999,-29.31281813320356
-0.3677,-29.66649595816982
-0.3686999999999999,-29.96358533114148
-0.36970000000000003,-30.359704495103685
-0.3706999999999999,-30.71338232006995
-0.37170000000000003,-31.137795710029454
-0.3726999999999999,-31.57635621298762
-0.37370000000000003,-31.972475376949827
-0.3746999999999999,-32.41103587990799
-0.37570000000000003,-32.807155043870196
-0.3766999999999999,-33.231568433829715
-0.37770000000000004,-33.627687597791926
-0.3786999999999999,-34.06624810075008
-0.37970000000000004,-34.462367264712285
-0.3806999999999999,-34.85848642867451
-0.38170000000000004,-35.240458479638065
-0.38269999999999993,-35.679018982596226
-0.38370000000000004,-36.16002082455034
-0.38469999999999993,-36.5985813275085
-0.38570000000000004,-37.037141830466666
-0.38669999999999993,-37.51814367242077
-0.38770000000000004,-37.99914551437489
-0.38869999999999993,-38.42355890433439
-0.38970000000000005,-38.81967806829661
-0.39069999999999994,-39.30067991025072
-0.39170000000000005,-39.654357735216976
-0.39269999999999994,-40.135359577171094
-0.39370000000000005,-40.616361419125205
-0.39469999999999994,-41.139804600075266
-0.39570000000000005,-41.70568912002128
-0.39669999999999994,-42.186690961975394
-0.39770000000000005,-42.653545690930855
-0.39869999999999994,-43.04966485489307
-0.39970000000000006,-43.40334267985933
-0.40069999999999995,-43.75702050482558
-0.40170000000000006,-44.096551216793195
-0.40269999999999995,-44.535111719751356
-0.40370000000000006,-45.01611356170547
-0.40469999999999995,-45.53955674265553
-0.40570000000000006,-46.062999923605595
-0.40669999999999995,-46.67132578254756
-0.40770000000000006,-47.27965164148953
-0.40869999999999995,-47.8879775004315
-0.40970000000000006,-48.51045047237211
-0.41069999999999995,-49.03389365332217
-0.41170000000000007,-49.557336834272235
-0.41269999999999996,-50.024191563227696
-0.41370000000000007,-50.46275206618586
-0.41469999999999996,-50.943753908139975
-0.41570000000000007,-51.424755750094086
-0.41669999999999996,-51.948198931044146
-0.41770000000000007,-52.514083450990164
-0.41869999999999996,-53.079967970936174
-0.4197000000000001,-53.68829382987814
-0.42069999999999996,-54.35320814081471
-0.4217000000000001,-54.919092660760725
-0.42269999999999996,-55.527418519702685
-0.4237000000000001,-56.05086170065276
-0.42469999999999997,-56.61674622059877
-0.4257000000000001,-57.14018940154883
-0.42669999999999997,-57.70607392149485
-0.4277000000000001,-58.27195844144086
-0.42869999999999997,-58.880284300382826
-0.4297000000000001,-59.403727481332886
-0.43069999999999997,-59.92717066228296
-0.4317000000000001,-60.36573116524111
-0.4327,-60.80429166819927
-0.4337000000000001,-61.28529351015339
-0.4347,-61.80873669110345
-0.4357000000000001,-62.41706255004542
-0.4367,-63.15271242597524
-0.4377000000000001,-63.77518539791585
-0.4387,-64.46839393484973
-0.4397000000000001,-65.16160247178358
-0.4407,-65.82651678272015
-0.4417000000000001,-66.47728398065809
-0.4427,-67.08560983960004
-0.4437000000000001,-67.693935698542
-0.4447,-68.21737887949207
-0.4457000000000001,-68.74082206044213
-0.4467,-69.3491479193841
-0.4477000000000001,-70.01406223032066
-0.4487,-70.66482942825859
-0.4497000000000001,-71.31559662619651
-0.4507,-72.00880516313036
-0.4517000000000001,-72.80104349105478
-0.4527,-73.49425202798865
-0.4537000000000001,-74.24404901691713
-0.4547,-74.89481621485504
-0.4557000000000001,-75.50314207379701
-0.4567,-76.15390927173492
-0.4577000000000001,-76.81882358267148
-0.4587,-77.46959078060941
-0.4597000000000001,-78.24768199553519
-0.4607,-79.0399203234596
-0.4617000000000001,-79.7755701993894
-0.4627,-80.46877873632329
-0.4637000000000001,-81.04881036926795
-0.4647,-81.47322375922747
-0.4657000000000001,-81.95422560118158
-0.4667,-82.39278610413973
-0.4677000000000001,-82.9162292850898
-0.4687,-83.60943782202366
-0.4697000000000001,-84.27435213296022
-0.4707,-85.01000200889004
-0.4717000000000001,-85.84468167581042
-0.4727,-86.7076555687281
-0.4737000000000001,-87.58477657464444
-0.4747,-88.4194562415648
-0.4757000000000001,-89.19754745649055
-0.4767,-89.94734444541903
-0.4777000000000001,-90.6405529823529
-0.4787,-91.29132018029082
-0.4797000000000001,-91.89964603923279
-0.4807,-92.6070016891653
-0.48170000000000013,-93.30021022609918
-0.4827,-94.03586010202899
-0.48370000000000013,-94.8280984299534
-0.4847,-95.64863098387512
-0.48570000000000013,-96.52575198979144
-0.4867,-96.44086931179956
-0.48570000000000013,-95.04030512493317
-0.4847,-93.99341876303303
-0.48370000000000013,-92.98897374012887
-0.4827,-92.12599984721119
-0.48170000000000013,-91.29132018029082
-0.4807,-90.59811164335694
-0.4797000000000001,-89.76343197643658
-0.4787,-88.9853407615108
-0.4777000000000001,-88.10821975559449
-0.4767,-87.10377473269031
-0.4757000000000001,-86.05688837079018
-0.4747,-85.052443347886
-0.4737000000000001,-84.13288100297372
-0.4727,-83.31234844905201
-0.4717000000000001,-82.61913991211814
-0.4707,-81.95422560118158
-0.4697000000000001,-81.3458997422396
-0.4687,-80.73757388329766
-0.4677000000000001,-80.12924802435568
-0.4667,-79.47848082641775
-0.4657000000000001,-78.72868383748929
-0.4647,-77.95059262256353
-0.4637000000000001,-77.11591295564315
-0.4627,-76.33782174071737
-0.4617000000000001,-75.50314207379701
-0.4607,-74.72505085887124
