Oct. 19, 2024   01:54:03
Cyclic Voltammetry
File: c:/users/guazh/data/banditlqround2/2024-10-18-exp572\exp572-2024-10-19t01_29_40-h2koh\exp572_cv_sr_300mvs_efin_-2000mv.bin
Data Source:  Experiment
Instrument Model:  CHI760E
Header: CV ran at 300 mVs
Note: 

Init E (V) = -1
High E (V) = -1
Low E (V) = -2
Final E (V) = -1
Init P/N = N
Scan Rate (V/s) = 0.3
Segment = 3
Sample Interval (V) = 0.001
Quiet Time (sec) = 2
Sensitivity (A/V) = 0.01
Comp R (ohm) = 0.9

Results:

Channel 1:
Segment 1:
Ep = -1.294V
ip = 6.166e-6A
Ah = 1.182e-6C

Segment 2:

Segment 3:

Potential/V, Current/A

-1.000, 3.239e-6
-1.001, 3.239e-6
-1.002, 3.239e-6
-1.003, 3.239e-6
-1.004, 3.239e-6
-1.005, 3.239e-6
-1.006, 3.239e-6
-1.007, 3.239e-6
-1.008, 3.239e-6
-1.009, 3.239e-6
-1.010, 3.239e-6
-1.011, 3.239e-6
-1.012, 3.239e-6
-1.013, 3.239e-6
-1.014, 3.239e-6
-1.015, 3.239e-6
-1.016, 3.239e-6
-1.017, 3.239e-6
-1.018, 3.239e-6
-1.019, 3.239e-6
-1.020, 3.239e-6
-1.021, 3.239e-6
-1.022, 3.239e-6
-1.023, 3.239e-6
-1.024, 3.239e-6
-1.025, 3.239e-6
-1.026, 3.239e-6
-1.027, 3.239e-6
-1.028, 3.239e-6
-1.029, 3.239e-6
-1.030, 3.239e-6
-1.031, 3.239e-6
-1.032, 3.239e-6
-1.033, 3.239e-6
-1.034, 3.239e-6
-1.035, 3.239e-6
-1.036, 3.239e-6
-1.037, 6.322e-6
-1.038, 3.239e-6
-1.039, 3.239e-6
-1.040, 3.239e-6
-1.041, 3.239e-6
-1.042, 3.239e-6
-1.043, 3.239e-6
-1.044, 3.239e-6
-1.045, 3.239e-6
-1.046, 3.239e-6
-1.047, 3.239e-6
-1.048, 3.239e-6
-1.049, 3.239e-6
-1.050, 6.322e-6
-1.051, 3.239e-6
-1.052, 3.239e-6
-1.053, 3.239e-6
-1.054, 3.239e-6
-1.055, 6.322e-6
-1.056, 3.239e-6
-1.057, 3.239e-6
-1.058, 3.239e-6
-1.059, 3.239e-6
-1.060, 3.239e-6
-1.061, 3.239e-6
-1.062, 3.239e-6
-1.063, 3.239e-6
-1.064, 3.239e-6
-1.065, 3.239e-6
-1.066, 3.239e-6
-1.067, 3.239e-6
-1.068, 3.239e-6
-1.069, 3.239e-6
-1.070, 3.239e-6
-1.071, 3.239e-6
-1.072, 3.239e-6
-1.073, 3.239e-6
-1.074, 3.239e-6
-1.075, 6.322e-6
-1.076, 3.239e-6
-1.077, 3.239e-6
-1.078, 3.239e-6
-1.079, 6.322e-6
-1.080, 3.239e-6
-1.081, 3.239e-6
-1.082, 3.239e-6
-1.083, 6.322e-6
-1.084, 6.322e-6
-1.085, 6.322e-6
-1.086, 3.239e-6
-1.087, 6.322e-6
-1.088, 3.239e-6
-1.089, 6.322e-6
-1.090, 3.239e-6
-1.091, 3.239e-6
-1.092, 3.239e-6
-1.093, 3.239e-6
-1.094, 6.322e-6
-1.095, 6.322e-6
-1.096, 3.239e-6
-1.097, 6.322e-6
-1.098, 6.322e-6
-1.099, 3.239e-6
-1.100, 6.322e-6
-1.101, 3.239e-6
-1.102, 3.239e-6
-1.103, 3.239e-6
-1.104, 3.239e-6
-1.105, 6.322e-6
-1.106, 3.239e-6
-1.107, 3.239e-6
-1.108, 6.322e-6
-1.109, 3.239e-6
-1.110, 3.239e-6
-1.111, 3.239e-6
-1.112, 6.322e-6
-1.113, 3.239e-6
-1.114, 6.322e-6
-1.115, 3.239e-6
-1.116, 6.322e-6
-1.117, 6.322e-6
-1.118, 6.322e-6
-1.119, 6.322e-6
-1.120, 3.239e-6
-1.121, 6.322e-6
-1.122, 6.322e-6
-1.123, 6.322e-6
-1.124, 3.239e-6
-1.125, 3.239e-6
-1.126, 3.239e-6
-1.127, 6.322e-6
-1.128, 6.322e-6
-1.129, 6.322e-6
-1.130, 6.322e-6
-1.131, 6.322e-6
-1.132, 6.322e-6
-1.133, 6.322e-6
-1.134, 3.239e-6
-1.135, 6.322e-6
-1.136, 3.239e-6
-1.137, 6.322e-6
-1.138, 6.322e-6
-1.139, 6.322e-6
-1.140, 6.322e-6
-1.141, 6.322e-6
-1.142, 6.322e-6
-1.143, 3.239e-6
-1.144, 6.322e-6
-1.145, 6.322e-6
-1.146, 6.322e-6
-1.147, 6.322e-6
-1.148, 6.322e-6
-1.149, 3.239e-6
-1.150, 6.322e-6
-1.151, 6.322e-6
-1.152, 6.322e-6
-1.153, 6.322e-6
-1.154, 6.322e-6
-1.155, 6.322e-6
-1.156, 6.322e-6
-1.157, 6.322e-6
-1.158, 6.322e-6
-1.159, 6.322e-6
-1.160, 6.322e-6
-1.161, 6.322e-6
-1.162, 6.322e-6
-1.163, 6.322e-6
-1.164, 6.322e-6
-1.165, 6.322e-6
-1.166, 6.322e-6
-1.167, 6.322e-6
-1.168, 6.322e-6
-1.169, 6.322e-6
-1.170, 6.322e-6
-1.171, 6.322e-6
-1.172, 6.322e-6
-1.173, 6.322e-6
-1.174, 6.322e-6
-1.175, 6.322e-6
-1.176, 6.322e-6
-1.177, 6.322e-6
-1.178, 6.322e-6
-1.179, 6.322e-6
-1.180, 3.239e-6
-1.181, 6.322e-6
-1.182, 6.322e-6
-1.183, 6.322e-6
-1.184, 6.322e-6
-1.185, 6.322e-6
-1.186, 6.322e-6
-1.187, 6.322e-6
-1.188, 6.322e-6
-1.189, 6.322e-6
-1.190, 6.322e-6
-1.191, 6.322e-6
-1.192, 6.322e-6
-1.193, 6.322e-6
-1.194, 6.322e-6
-1.195, 6.322e-6
-1.196, 6.322e-6
-1.197, 6.322e-6
-1.198, 6.322e-6
-1.199, 6.322e-6
-1.200, 6.322e-6
-1.201, 6.322e-6
-1.202, 6.322e-6
-1.203, 6.322e-6
-1.204, 6.322e-6
-1.205, 6.322e-6
-1.206, 6.322e-6
-1.207, 6.322e-6
-1.208, 6.322e-6
-1.209, 6.322e-6
-1.210, 6.322e-6
-1.211, 6.322e-6
-1.212, 6.322e-6
-1.213, 6.322e-6
-1.214, 6.322e-6
-1.215, 6.322e-6
-1.216, 6.322e-6
-1.217, 6.322e-6
-1.218, 6.322e-6
-1.219, 6.322e-6
-1.220, 6.322e-6
-1.221, 6.322e-6
-1.222, 6.322e-6
-1.223, 6.322e-6
-1.224, 6.322e-6
-1.225, 6.322e-6
-1.226, 6.322e-6
-1.227, 6.322e-6
-1.228, 6.322e-6
-1.229, 6.322e-6
-1.230, 6.322e-6
-1.231, 6.322e-6
-1.232, 6.322e-6
-1.233, 6.322e-6
-1.234, 6.322e-6
-1.235, 6.322e-6
-1.236, 6.322e-6
-1.237, 6.322e-6
-1.238, 6.322e-6
-1.239, 6.322e-6
-1.240, 6.322e-6
-1.241, 6.322e-6
-1.242, 6.322e-6
-1.243, 6.322e-6
-1.244, 6.322e-6
-1.245, 6.322e-6
-1.246, 6.322e-6
-1.247, 6.322e-6
-1.248, 6.322e-6
-1.249, 6.322e-6
-1.250, 6.322e-6
-1.251, 6.322e-6
-1.252, 6.322e-6
-1.253, 6.322e-6
-1.254, 6.322e-6
-1.255, 6.322e-6
-1.256, 6.322e-6
-1.257, 6.322e-6
-1.258, 6.322e-6
-1.259, 6.322e-6
-1.260, 6.322e-6
-1.261, 6.322e-6
-1.262, 6.322e-6
-1.263, 6.322e-6
-1.264, 6.322e-6
-1.265, 6.322e-6
-1.266, 6.322e-6
-1.267, 6.322e-6
-1.268, 6.322e-6
-1.269, 6.322e-6
-1.270, 6.322e-6
-1.271, 6.322e-6
-1.272, 6.322e-6
-1.273, 6.322e-6
-1.274, 6.322e-6
-1.275, 6.322e-6
-1.276, 6.322e-6
-1.277, 6.322e-6
-1.278, 6.322e-6
-1.279, 6.322e-6
-1.280, 6.322e-6
-1.281, 6.322e-6
-1.282, 6.322e-6
-1.283, 6.322e-6
-1.284, 6.322e-6
-1.285, 6.322e-6
-1.286, 6.322e-6
-1.287, 6.322e-6
-1.288, 6.322e-6
-1.289, 6.322e-6
-1.290, 6.322e-6
-1.291, 6.322e-6
-1.292, 6.322e-6
-1.293, 6.322e-6
-1.294, 9.405e-6
-1.295, 6.322e-6
-1.296, 6.322e-6
-1.297, 6.322e-6
-1.298, 6.322e-6
-1.299, 6.322e-6
-1.300, 6.322e-6
-1.301, 6.322e-6
-1.302, 6.322e-6
-1.303, 6.322e-6
-1.304, 6.322e-6
-1.305, 6.322e-6
-1.306, 6.322e-6
-1.307, 6.322e-6
-1.308, 6.322e-6
-1.309, 6.322e-6
-1.310, 6.322e-6
-1.311, 6.322e-6
-1.312, 6.322e-6
-1.313, 6.322e-6
-1.314, 6.322e-6
-1.315, 6.322e-6
-1.316, 6.322e-6
-1.317, 6.322e-6
-1.318, 6.322e-6
-1.319, 6.322e-6
-1.320, 6.322e-6
-1.321, 6.322e-6
-1.322, 6.322e-6
-1.323, 6.322e-6
-1.324, 6.322e-6
-1.325, 6.322e-6
-1.326, 6.322e-6
-1.327, 6.322e-6
-1.328, 6.322e-6
-1.329, 6.322e-6
-1.330, 6.322e-6
-1.331, 6.322e-6
-1.332, 6.322e-6
-1.333, 6.322e-6
-1.334, 6.322e-6
-1.335, 6.322e-6
-1.336, 6.322e-6
-1.337, 9.405e-6
-1.338, 9.405e-6
-1.339, 6.322e-6
-1.340, 6.322e-6
-1.341, 6.322e-6
-1.342, 6.322e-6
-1.343, 6.322e-6
-1.344, 6.322e-6
-1.345, 6.322e-6
-1.346, 6.322e-6
-1.347, 9.405e-6
-1.348, 6.322e-6
-1.349, 6.322e-6
-1.350, 9.405e-6
-1.351, 6.322e-6
-1.352, 6.322e-6
-1.353, 6.322e-6
-1.354, 6.322e-6
-1.355, 6.322e-6
-1.356, 6.322e-6
-1.357, 6.322e-6
-1.358, 9.405e-6
-1.359, 9.405e-6
-1.360, 9.405e-6
-1.361, 9.405e-6
-1.362, 9.405e-6
-1.363, 9.405e-6
-1.364, 9.405e-6
-1.365, 6.322e-6
-1.366, 6.322e-6
-1.367, 6.322e-6
-1.368, 6.322e-6
-1.369, 6.322e-6
-1.370, 6.322e-6
-1.371, 9.405e-6
-1.372, 9.405e-6
-1.373, 9.405e-6
-1.374, 6.322e-6
-1.375, 6.322e-6
-1.376, 9.405e-6
-1.377, 9.405e-6
-1.378, 9.405e-6
-1.379, 6.322e-6
-1.380, 9.405e-6
-1.381, 9.405e-6
-1.382, 9.405e-6
-1.383, 9.405e-6
-1.384, 6.322e-6
-1.385, 9.405e-6
-1.386, 6.322e-6
-1.387, 9.405e-6
-1.388, 9.405e-6
-1.389, 6.322e-6
-1.390, 6.322e-6
-1.391, 6.322e-6
-1.392, 9.405e-6
-1.393, 9.405e-6
-1.394, 9.405e-6
-1.395, 9.405e-6
-1.396, 9.405e-6
-1.397, 9.405e-6
-1.398, 9.405e-6
-1.399, 9.405e-6
-1.400, 9.405e-6
-1.401, 9.405e-6
-1.402, 9.405e-6
-1.403, 9.405e-6
-1.404, 9.405e-6
-1.405, 9.405e-6
-1.406, 9.405e-6
-1.407, 9.405e-6
-1.408, 9.405e-6
-1.409, 9.405e-6
-1.410, 9.405e-6
-1.411, 9.405e-6
-1.412, 9.405e-6
-1.413, 9.405e-6
-1.414, 9.405e-6
-1.415, 9.405e-6
-1.416, 9.405e-6
-1.417, 9.405e-6
-1.418, 9.405e-6
-1.419, 9.405e-6
-1.420, 9.405e-6
-1.421, 9.405e-6
-1.422, 9.405e-6
-1.423, 9.405e-6
-1.424, 9.405e-6
-1.425, 9.405e-6
-1.426, 9.405e-6
-1.427, 9.405e-6
-1.428, 9.405e-6
-1.429, 9.405e-6
-1.430, 9.405e-6
-1.431, 9.405e-6
-1.432, 9.405e-6
-1.433, 9.405e-6
-1.434, 9.405e-6
-1.435, 9.405e-6
-1.436, 9.405e-6
-1.437, 9.405e-6
-1.438, 9.405e-6
-1.439, 9.405e-6
-1.440, 9.405e-6
-1.441, 9.405e-6
-1.442, 9.405e-6
-1.443, 9.405e-6
-1.444, 9.405e-6
-1.445, 9.405e-6
-1.446, 9.405e-6
-1.447, 9.405e-6
-1.448, 9.405e-6
-1.449, 9.405e-6
-1.450, 9.405e-6
-1.451, 9.405e-6
-1.452, 9.405e-6
-1.453, 9.405e-6
-1.454, 9.405e-6
-1.455, 9.405e-6
-1.456, 9.405e-6
-1.457, 1.249e-5
-1.458, 9.405e-6
-1.459, 9.405e-6
-1.460, 9.405e-6
-1.461, 9.405e-6
-1.462, 9.405e-6
-1.463, 9.405e-6
-1.464, 9.405e-6
-1.465, 9.405e-6
-1.466, 9.405e-6
-1.467, 1.249e-5
-1.468, 9.405e-6
-1.469, 1.249e-5
-1.470, 9.405e-6
-1.471, 9.405e-6
-1.472, 9.405e-6
-1.473, 9.405e-6
-1.474, 1.249e-5
-1.475, 9.405e-6
-1.476, 1.249e-5
-1.477, 1.249e-5
-1.478, 1.249e-5
-1.479, 1.249e-5
-1.480, 9.405e-6
-1.481, 1.249e-5
-1.482, 1.249e-5
-1.483, 1.249e-5
-1.484, 9.405e-6
-1.485, 1.249e-5
-1.486, 1.249e-5
-1.487, 1.249e-5
-1.488, 1.249e-5
-1.489, 1.249e-5
-1.490, 1.249e-5
-1.491, 9.405e-6
-1.492, 1.249e-5
-1.493, 1.249e-5
-1.494, 9.405e-6
-1.495, 1.249e-5
-1.496, 9.405e-6
-1.497, 1.249e-5
-1.498, 1.249e-5
-1.499, 1.249e-5
-1.500, 1.249e-5
-1.501, 1.249e-5
-1.502, 1.249e-5
-1.503, 1.249e-5
-1.504, 1.249e-5
-1.505, 1.249e-5
-1.506, 1.249e-5
-1.507, 1.249e-5
-1.508, 1.249e-5
-1.509, 1.249e-5
-1.510, 1.249e-5
-1.511, 1.249e-5
-1.512, 1.249e-5
-1.513, 1.249e-5
-1.514, 1.249e-5
-1.515, 1.249e-5
-1.516, 9.405e-6
-1.517, 1.249e-5
-1.518, 1.249e-5
-1.519, 1.249e-5
-1.520, 1.249e-5
-1.521, 1.249e-5
-1.522, 1.249e-5
-1.523, 1.249e-5
-1.524, 1.249e-5
-1.525, 1.249e-5
-1.526, 1.249e-5
-1.527, 1.249e-5
-1.528, 1.249e-5
-1.529, 1.249e-5
-1.530, 1.249e-5
-1.531, 1.249e-5
-1.532, 1.249e-5
-1.533, 1.249e-5
-1.534, 1.249e-5
-1.535, 1.249e-5
-1.536, 1.249e-5
-1.537, 1.249e-5
-1.538, 1.249e-5
-1.539, 1.249e-5
-1.540, 1.249e-5
-1.541, 1.249e-5
-1.542, 1.249e-5
-1.543, 1.249e-5
-1.544, 1.249e-5
-1.545, 1.249e-5
-1.546, 1.249e-5
-1.547, 1.249e-5
-1.548, 1.249e-5
-1.549, 1.557e-5
-1.550, 1.557e-5
-1.551, 1.249e-5
-1.552, 1.557e-5
-1.553, 1.249e-5
-1.554, 1.557e-5
-1.555, 1.249e-5
-1.556, 1.249e-5
-1.557, 1.557e-5
-1.558, 1.557e-5
-1.559, 1.249e-5
-1.560, 1.249e-5
-1.561, 1.557e-5
-1.562, 1.557e-5
-1.563, 1.557e-5
-1.564, 1.557e-5
-1.565, 1.557e-5
-1.566, 1.557e-5
-1.567, 1.557e-5
-1.568, 1.557e-5
-1.569, 1.557e-5
-1.570, 1.557e-5
-1.571, 1.557e-5
-1.572, 1.557e-5
-1.573, 1.557e-5
-1.574, 1.557e-5
-1.575, 1.557e-5
-1.576, 1.557e-5
-1.577, 1.557e-5
-1.578, 1.557e-5
-1.579, 1.557e-5
-1.580, 1.557e-5
-1.581, 1.557e-5
-1.582, 1.557e-5
-1.583, 1.557e-5
-1.584, 1.865e-5
-1.585, 1.557e-5
-1.586, 1.557e-5
-1.587, 1.865e-5
-1.588, 1.865e-5
-1.589, 1.557e-5
-1.590, 1.865e-5
-1.591, 1.865e-5
-1.592, 1.865e-5
-1.593, 1.865e-5
-1.594, 1.865e-5
-1.595, 1.865e-5
-1.596, 1.865e-5
-1.597, 1.865e-5
-1.598, 1.865e-5
-1.599, 1.865e-5
-1.600, 1.865e-5
-1.601, 1.865e-5
-1.602, 1.865e-5
-1.603, 2.174e-5
-1.604, 2.174e-5
-1.605, 2.174e-5
-1.606, 2.174e-5
-1.607, 2.174e-5
-1.608, 2.174e-5
-1.609, 2.174e-5
-1.610, 2.174e-5
-1.611, 2.174e-5
-1.612, 2.174e-5
-1.613, 2.174e-5
-1.614, 2.174e-5
-1.615, 2.174e-5
-1.616, 2.174e-5
-1.617, 2.482e-5
-1.618, 2.482e-5
-1.619, 2.482e-5
-1.620, 2.482e-5
-1.621, 2.482e-5
-1.622, 2.482e-5
-1.623, 2.482e-5
-1.624, 2.482e-5
-1.625, 2.482e-5
-1.626, 2.482e-5
-1.627, 2.790e-5
-1.628, 2.790e-5
-1.629, 2.790e-5
-1.630, 2.790e-5
-1.631, 2.790e-5
-1.632, 2.790e-5
-1.633, 3.099e-5
-1.634, 3.099e-5
-1.635, 3.099e-5
-1.636, 3.099e-5
-1.637, 3.099e-5
-1.638, 3.099e-5
-1.639, 3.099e-5
-1.640, 3.407e-5
-1.641, 3.407e-5
-1.642, 3.407e-5
-1.643, 3.407e-5
-1.644, 3.407e-5
-1.645, 3.715e-5
-1.646, 3.407e-5
-1.647, 3.715e-5
-1.648, 3.715e-5
-1.649, 3.715e-5
-1.650, 3.715e-5
-1.651, 3.715e-5
-1.652, 4.024e-5
-1.653, 4.024e-5
-1.654, 4.024e-5
-1.655, 4.024e-5
-1.656, 4.332e-5
-1.657, 4.332e-5
-1.658, 4.332e-5
-1.659, 4.332e-5
-1.660, 4.640e-5
-1.661, 4.640e-5
-1.662, 4.640e-5
-1.663, 4.640e-5
-1.664, 4.949e-5
-1.665, 4.949e-5
-1.666, 4.949e-5
-1.667, 4.949e-5
-1.668, 4.949e-5
-1.669, 5.257e-5
-1.670, 5.257e-5
-1.671, 5.257e-5
-1.672, 5.565e-5
-1.673, 5.565e-5
-1.674, 5.565e-5
-1.675, 5.565e-5
-1.676, 5.873e-5
-1.677, 5.873e-5
-1.678, 5.873e-5
-1.679, 6.182e-5
-1.680, 6.182e-5
-1.681, 6.182e-5
-1.682, 6.490e-5
-1.683, 6.490e-5
-1.684, 6.490e-5
-1.685, 6.490e-5
-1.686, 6.798e-5
-1.687, 6.798e-5
-1.688, 6.798e-5
-1.689, 7.107e-5
-1.690, 7.107e-5
-1.691, 7.415e-5
-1.692, 7.415e-5
-1.693, 7.415e-5
-1.694, 7.723e-5
-1.695, 7.723e-5
-1.696, 7.723e-5
-1.697, 8.032e-5
-1.698, 8.032e-5
-1.699, 8.340e-5
-1.700, 8.340e-5
-1.701, 8.340e-5
-1.702, 8.648e-5
-1.703, 8.648e-5
-1.704, 8.957e-5
-1.705, 8.957e-5
-1.706, 8.957e-5
-1.707, 9.265e-5
-1.708, 9.265e-5
-1.709, 9.573e-5
-1.710, 9.573e-5
-1.711, 9.573e-5
-1.712, 9.882e-5
-1.713, 1.019e-4
-1.714, 1.019e-4
-1.715, 1.019e-4
-1.716, 1.050e-4
-1.717, 1.050e-4
-1.718, 1.081e-4
-1.719, 1.081e-4
-1.720, 1.111e-4
-1.721, 1.111e-4
-1.722, 1.142e-4
-1.723, 1.142e-4
-1.724, 1.173e-4
-1.725, 1.173e-4
-1.726, 1.173e-4
-1.727, 1.204e-4
-1.728, 1.204e-4
-1.729, 1.235e-4
-1.730, 1.235e-4
-1.731, 1.266e-4
-1.732, 1.266e-4
-1.733, 1.296e-4
-1.734, 1.296e-4
-1.735, 1.327e-4
-1.736, 1.327e-4
-1.737, 1.358e-4
-1.738, 1.389e-4
-1.739, 1.389e-4
-1.740, 1.420e-4
-1.741, 1.420e-4
-1.742, 1.451e-4
-1.743, 1.481e-4
-1.744, 1.481e-4
-1.745, 1.481e-4
-1.746, 1.512e-4
-1.747, 1.543e-4
-1.748, 1.543e-4
-1.749, 1.543e-4
-1.750, 1.574e-4
-1.751, 1.574e-4
-1.752, 1.636e-4
-1.753, 1.636e-4
-1.754, 1.666e-4
-1.755, 1.666e-4
-1.756, 1.697e-4
-1.757, 1.728e-4
-1.758, 1.759e-4
-1.759, 1.759e-4
-1.760, 1.790e-4
-1.761, 1.790e-4
-1.762, 1.821e-4
-1.763, 1.851e-4
-1.764, 1.882e-4
-1.765, 1.882e-4
-1.766, 1.913e-4
-1.767, 1.944e-4
-1.768, 1.975e-4
-1.769, 2.006e-4
-1.770, 2.006e-4
-1.771, 2.036e-4
-1.772, 2.067e-4
-1.773, 2.098e-4
-1.774, 2.129e-4
-1.775, 2.160e-4
-1.776, 2.160e-4
-1.777, 2.191e-4
-1.778, 2.221e-4
-1.779, 2.252e-4
-1.780, 2.283e-4
-1.781, 2.314e-4
-1.782, 2.345e-4
-1.783, 2.376e-4
-1.784, 2.406e-4
-1.785, 2.437e-4
-1.786, 2.468e-4
-1.787, 2.499e-4
-1.788, 2.530e-4
-1.789, 2.561e-4
-1.790, 2.591e-4
-1.791, 2.622e-4
-1.792, 2.684e-4
-1.793, 2.715e-4
-1.794, 2.746e-4
-1.795, 2.776e-4
-1.796, 2.807e-4
-1.797, 2.838e-4
-1.798, 2.900e-4
-1.799, 2.931e-4
-1.800, 2.961e-4
-1.801, 2.992e-4
-1.802, 3.054e-4
-1.803, 3.085e-4
-1.804, 3.115e-4
-1.805, 3.146e-4
-1.806, 3.208e-4
-1.807, 3.239e-4
-1.808, 3.300e-4
-1.809, 3.331e-4
-1.810, 3.393e-4
-1.811, 3.424e-4
-1.812, 3.485e-4
-1.813, 3.547e-4
-1.814, 3.578e-4
-1.815, 3.640e-4
-1.816, 3.670e-4
-1.817, 3.732e-4
-1.818, 3.794e-4
-1.819, 3.855e-4
-1.820, 3.886e-4
-1.821, 3.917e-4
-1.822, 4.010e-4
-1.823, 4.071e-4
-1.824, 4.133e-4
-1.825, 4.164e-4
-1.826, 4.225e-4
-1.827, 4.287e-4
-1.828, 4.380e-4
-1.829, 4.410e-4
-1.830, 4.472e-4
-1.831, 4.534e-4
-1.832, 4.626e-4
-1.833, 4.688e-4
-1.834, 4.750e-4
-1.835, 4.811e-4
-1.836, 4.873e-4
-1.837, 4.965e-4
-1.838, 5.058e-4
-1.839, 5.120e-4
-1.840, 5.181e-4
-1.841, 5.274e-4
-1.842, 5.366e-4
-1.843, 5.459e-4
-1.844, 5.520e-4
-1.845, 5.582e-4
-1.846, 5.674e-4
-1.847, 5.767e-4
-1.848, 5.859e-4
-1.849, 5.952e-4
-1.850, 6.044e-4
-1.851, 6.137e-4
-1.852, 6.229e-4
-1.853, 6.353e-4
-1.854, 6.445e-4
-1.855, 6.538e-4
-1.856, 6.630e-4
-1.857, 6.754e-4
-1.858, 6.877e-4
-1.859, 6.969e-4
-1.860, 7.093e-4
-1.861, 7.185e-4
-1.862, 7.309e-4
-1.863, 7.463e-4
-1.864, 7.586e-4
-1.865, 7.709e-4
-1.866, 7.802e-4
-1.867, 7.956e-4
-1.868, 8.110e-4
-1.869, 8.264e-4
-1.870, 8.388e-4
-1.871, 8.542e-4
-1.872, 8.696e-4
-1.873, 8.850e-4
-1.874, 9.004e-4
-1.875, 9.128e-4
-1.876, 9.282e-4
-1.877, 9.436e-4
-1.878, 9.621e-4
-1.879, 9.806e-4
-1.880, 9.960e-4
-1.881, 1.011e-3
-1.882, 1.033e-3
-1.883, 1.051e-3
-1.884, 1.073e-3
-1.885, 1.092e-3
-1.886, 1.110e-3
-1.887, 1.132e-3
-1.888, 1.153e-3
-1.889, 1.175e-3
-1.890, 1.196e-3
-1.891, 1.215e-3
-1.892, 1.236e-3
-1.893, 1.261e-3
-1.894, 1.286e-3
-1.895, 1.310e-3
-1.896, 1.335e-3
-1.897, 1.363e-3
-1.898, 1.394e-3
-1.899, 1.421e-3
-1.900, 1.449e-3
-1.901, 1.477e-3
-1.902, 1.505e-3
-1.903, 1.536e-3
-1.904, 1.566e-3
-1.905, 1.594e-3
-1.906, 1.625e-3
-1.907, 1.656e-3
-1.908, 1.693e-3
-1.909, 1.727e-3
-1.910, 1.761e-3
-1.911, 1.798e-3
-1.912, 1.835e-3
-1.913, 1.878e-3
-1.914, 1.921e-3
-1.915, 1.958e-3
-1.916, 1.995e-3
-1.917, 2.035e-3
-1.918, 2.078e-3
-1.919, 2.121e-3
-1.920, 2.161e-3
-1.921, 2.201e-3
-1.922, 2.251e-3
-1.923, 2.303e-3
-1.924, 2.356e-3
-1.925, 2.405e-3
-1.926, 2.457e-3
-1.927, 2.516e-3
-1.928, 2.584e-3
-1.929, 2.649e-3
-1.930, 2.710e-3
-1.931, 2.756e-3
-1.932, 2.800e-3
-1.933, 2.858e-3
-1.934, 2.917e-3
-1.935, 2.966e-3
-1.936, 3.022e-3
-1.937, 3.083e-3
-1.938, 3.154e-3
-1.939, 3.225e-3
-1.940, 3.296e-3
-1.941, 3.364e-3
-1.942, 3.441e-3
-1.943, 3.524e-3
-1.944, 3.614e-3
-1.945, 3.694e-3
-1.946, 3.752e-3
-1.947, 3.814e-3
-1.948, 3.885e-3
-1.949, 3.947e-3
-1.950, 3.999e-3
-1.951, 4.054e-3
-1.952, 4.128e-3
-1.953, 4.212e-3
-1.954, 4.289e-3
-1.955, 4.366e-3
-1.956, 4.443e-3
-1.957, 4.529e-3
-1.958, 4.616e-3
-1.959, 4.702e-3
-1.960, 4.770e-3
-1.961, 4.841e-3
-1.962, 4.918e-3
-1.963, 5.001e-3
-1.964, 5.078e-3
-1.965, 5.149e-3
-1.966, 5.220e-3
-1.967, 5.303e-3
-1.968, 5.393e-3
-1.969, 5.488e-3
-1.970, 5.584e-3
-1.971, 5.676e-3
-1.972, 5.778e-3
-1.973, 5.883e-3
-1.974, 5.954e-3
-1.975, 6.021e-3
-1.976, 6.095e-3
-1.977, 6.176e-3
-1.978, 6.262e-3
-1.979, 6.351e-3
-1.980, 6.447e-3
-1.981, 6.539e-3
-1.982, 6.644e-3
-1.983, 6.761e-3
-1.984, 6.882e-3
-1.985, 6.993e-3
-1.986, 7.104e-3
-1.987, 7.224e-3
-1.988, 7.335e-3
-1.989, 7.418e-3
-1.990, 7.492e-3
-1.991, 7.563e-3
-1.992, 7.634e-3
-1.993, 7.714e-3
-1.994, 7.797e-3
-1.995, 7.884e-3
-1.996, 7.976e-3
-1.997, 8.081e-3
-1.998, 8.201e-3
-1.999, 8.321e-3
-2.000, 8.380e-3
-1.999, 8.346e-3
-1.998, 8.303e-3
-1.997, 8.235e-3
-1.996, 8.167e-3
-1.995, 8.090e-3
-1.994, 8.010e-3
-1.993, 7.936e-3
-1.992, 7.871e-3
-1.991, 7.813e-3
-1.990, 7.751e-3
-1.989, 7.693e-3
-1.988, 7.643e-3
-1.987, 7.606e-3
-1.986, 7.563e-3
-1.985, 7.517e-3
-1.984, 7.474e-3
-1.983, 7.409e-3
-1.982, 7.341e-3
-1.981, 7.273e-3
-1.980, 7.202e-3
-1.979, 7.119e-3
-1.978, 7.048e-3
-1.977, 6.986e-3
-1.976, 6.931e-3
-1.975, 6.879e-3
-1.974, 6.823e-3
-1.973, 6.774e-3
-1.972, 6.724e-3
-1.971, 6.666e-3
-1.970, 6.604e-3
-1.969, 6.539e-3
-1.968, 6.469e-3
-1.967, 6.401e-3
-1.966, 6.333e-3
-1.965, 6.262e-3
-1.964, 6.191e-3
-1.963, 6.132e-3
-1.962, 6.092e-3
-1.961, 6.055e-3
-1.960, 6.009e-3
-1.959, 5.960e-3
-1.958, 5.917e-3
-1.957, 5.877e-3
-1.956, 5.830e-3
-1.955, 5.781e-3
-1.954, 5.722e-3
-1.953, 5.645e-3
-1.952, 5.571e-3
-1.951, 5.504e-3
-1.950, 5.433e-3
-1.949, 5.356e-3
-1.948, 5.291e-3
-1.947, 5.241e-3
-1.946, 5.198e-3
-1.945, 5.149e-3
-1.944, 5.103e-3
-1.943, 5.063e-3
-1.942, 5.029e-3
-1.941, 4.982e-3
-1.940, 4.927e-3
-1.939, 4.856e-3
-1.938, 4.773e-3
-1.937, 4.705e-3
-1.936, 4.637e-3
-1.935, 4.560e-3
-1.934, 4.486e-3
-1.933, 4.424e-3
-1.932, 4.372e-3
-1.931, 4.326e-3
-1.930, 4.276e-3
-1.929, 4.227e-3
-1.928, 4.184e-3
-1.927, 4.147e-3
-1.926, 4.110e-3
-1.925, 4.061e-3
-1.924, 3.993e-3
-1.923, 3.937e-3
-1.922, 3.891e-3
-1.921, 3.839e-3
-1.920, 3.780e-3
-1.919, 3.725e-3
-1.918, 3.678e-3
-1.917, 3.638e-3
-1.916, 3.595e-3
-1.915, 3.549e-3
-1.914, 3.503e-3
-1.913, 3.459e-3
-1.912, 3.422e-3
-1.911, 3.382e-3
-1.910, 3.333e-3
-1.909, 3.278e-3
-1.908, 3.228e-3
-1.907, 3.185e-3
-1.906, 3.136e-3
-1.905, 3.083e-3
-1.904, 3.034e-3
-1.903, 2.991e-3
-1.902, 2.957e-3
-1.901, 2.917e-3
-1.900, 2.874e-3
-1.899, 2.830e-3
-1.898, 2.790e-3
-1.897, 2.753e-3
-1.896, 2.713e-3
-1.895, 2.664e-3
-1.894, 2.618e-3
-1.893, 2.578e-3
-1.892, 2.538e-3
-1.891, 2.497e-3
-1.890, 2.454e-3
-1.889, 2.411e-3
-1.888, 2.374e-3
-1.887, 2.343e-3
-1.886, 2.309e-3
-1.885, 2.275e-3
-1.884, 2.238e-3
-1.883, 2.208e-3
-1.882, 2.177e-3
-1.881, 2.140e-3
-1.880, 2.100e-3
-1.879, 2.063e-3
-1.878, 2.029e-3
-1.877, 1.995e-3
-1.876, 1.964e-3
-1.875, 1.927e-3
-1.874, 1.893e-3
-1.873, 1.862e-3
-1.872, 1.835e-3
-1.871, 1.807e-3
-1.870, 1.776e-3
-1.869, 1.745e-3
-1.868, 1.717e-3
-1.867, 1.693e-3
-1.866, 1.665e-3
-1.865, 1.631e-3
-1.864, 1.600e-3
-1.863, 1.573e-3
-1.862, 1.545e-3
-1.861, 1.517e-3
-1.860, 1.489e-3
-1.859, 1.462e-3
-1.858, 1.437e-3
-1.857, 1.415e-3
-1.856, 1.391e-3
-1.855, 1.366e-3
-1.854, 1.341e-3
-1.853, 1.320e-3
-1.852, 1.298e-3
-1.851, 1.277e-3
-1.850, 1.252e-3
-1.849, 1.227e-3
-1.848, 1.206e-3
-1.847, 1.187e-3
-1.846, 1.166e-3
-1.845, 1.144e-3
-1.844, 1.119e-3
-1.843, 1.101e-3
-1.842, 1.082e-3
-1.841, 1.064e-3
-1.840, 1.045e-3
-1.839, 1.024e-3
-1.838, 1.008e-3
-1.837, 9.898e-4
-1.836, 9.713e-4
-1.835, 9.528e-4
-1.834, 9.343e-4
-1.833, 9.189e-4
-1.832, 9.035e-4
-1.831, 8.850e-4
-1.830, 8.696e-4
-1.829, 8.542e-4
-1.828, 8.388e-4
-1.827, 8.233e-4
-1.826, 8.110e-4
-1.825, 7.925e-4
-1.824, 7.802e-4
-1.823, 7.648e-4
-1.822, 7.524e-4
-1.821, 7.370e-4
-1.820, 7.247e-4
-1.819, 7.093e-4
-1.818, 6.969e-4
-1.817, 6.846e-4
-1.816, 6.723e-4
-1.815, 6.599e-4
-1.814, 6.476e-4
-1.813, 6.353e-4
-1.812, 6.260e-4
-1.811, 6.137e-4
-1.810, 6.014e-4
-1.809, 5.921e-4
-1.808, 5.798e-4
-1.807, 5.705e-4
-1.806, 5.613e-4
-1.805, 5.489e-4
-1.804, 5.397e-4
-1.803, 5.305e-4
-1.802, 5.212e-4
-1.801, 5.120e-4
-1.800, 5.027e-4
-1.799, 4.935e-4
-1.798, 4.842e-4
-1.797, 4.780e-4
-1.796, 4.657e-4
-1.795, 4.595e-4
-1.794, 4.503e-4
-1.793, 4.410e-4
-1.792, 4.349e-4
-1.791, 4.287e-4
-1.790, 4.195e-4
-1.789, 4.102e-4
-1.788, 4.040e-4
-1.787, 3.979e-4
-1.786, 3.917e-4
-1.785, 3.825e-4
-1.784, 3.763e-4
-1.783, 3.701e-4
-1.782, 3.640e-4
-1.781, 3.578e-4
-1.780, 3.516e-4
-1.779, 3.455e-4
-1.778, 3.362e-4
-1.777, 3.331e-4
-1.776, 3.270e-4
-1.775, 3.208e-4
-1.774, 3.146e-4
-1.773, 3.085e-4
-1.772, 3.054e-4
-1.771, 2.992e-4
-1.770, 2.931e-4
-1.769, 2.869e-4
-1.768, 2.838e-4
-1.767, 2.807e-4
-1.766, 2.746e-4
-1.765, 2.684e-4
-1.764, 2.622e-4
-1.763, 2.591e-4
-1.762, 2.561e-4
-1.761, 2.499e-4
-1.760, 2.468e-4
-1.759, 2.406e-4
-1.758, 2.376e-4
-1.757, 2.345e-4
-1.756, 2.314e-4
-1.755, 2.252e-4
-1.754, 2.221e-4
-1.753, 2.191e-4
-1.752, 2.160e-4
-1.751, 2.098e-4
-1.750, 2.067e-4
-1.749, 2.036e-4
-1.748, 2.006e-4
-1.747, 1.975e-4
-1.746, 1.944e-4
-1.745, 1.913e-4
-1.744, 1.851e-4
-1.743, 1.821e-4
-1.742, 1.821e-4
-1.741, 1.759e-4
-1.740, 1.728e-4
-1.739, 1.697e-4
-1.738, 1.697e-4
-1.737, 1.666e-4
-1.736, 1.636e-4
-1.735, 1.605e-4
-1.734, 1.574e-4
-1.733, 1.543e-4
-1.732, 1.512e-4
-1.731, 1.481e-4
-1.730, 1.481e-4
-1.729, 1.451e-4
-1.728, 1.420e-4
-1.727, 1.389e-4
-1.726, 1.358e-4
-1.725, 1.358e-4
-1.724, 1.296e-4
-1.723, 1.296e-4
-1.722, 1.296e-4
-1.721, 1.266e-4
-1.720, 1.235e-4
-1.719, 1.204e-4
-1.718, 1.173e-4
-1.717, 1.173e-4
-1.716, 1.142e-4
-1.715, 1.111e-4
-1.714, 1.111e-4
-1.713, 1.111e-4
-1.712, 1.081e-4
-1.711, 1.050e-4
-1.710, 1.050e-4
-1.709, 1.019e-4
-1.708, 9.882e-5
-1.707, 9.882e-5
-1.706, 9.573e-5
-1.705, 9.573e-5
-1.704, 9.265e-5
-1.703, 9.265e-5
-1.702, 8.957e-5
-1.701, 8.957e-5
-1.700, 8.648e-5
-1.699, 8.648e-5
-1.698, 8.340e-5
-1.697, 8.340e-5
-1.696, 8.032e-5
-1.695, 8.032e-5
-1.694, 7.723e-5
-1.693, 7.723e-5
-1.692, 7.723e-5
-1.691, 7.415e-5
-1.690, 7.415e-5
-1.689, 7.107e-5
-1.688, 7.107e-5
-1.687, 7.107e-5
-1.686, 6.798e-5
-1.685, 6.798e-5
-1.684, 6.490e-5
-1.683, 6.490e-5
-1.682, 6.490e-5
-1.681, 6.182e-5
-1.680, 6.182e-5
-1.679, 5.873e-5
-1.678, 5.873e-5
-1.677, 5.873e-5
-1.676, 5.873e-5
-1.675, 5.565e-5
-1.674, 5.257e-5
-1.673, 5.257e-5
-1.672, 5.565e-5
-1.671, 5.257e-5
-1.670, 5.257e-5
-1.669, 4.949e-5
-1.668, 4.949e-5
-1.667, 4.949e-5
-1.666, 4.949e-5
-1.665, 4.640e-5
-1.664, 4.640e-5
-1.663, 4.640e-5
-1.662, 4.640e-5
-1.661, 4.332e-5
-1.660, 4.332e-5
-1.659, 4.332e-5
-1.658, 4.332e-5
-1.657, 4.024e-5
-1.656, 4.024e-5
-1.655, 4.024e-5
-1.654, 3.715e-5
-1.653, 3.715e-5
-1.652, 3.715e-5
-1.651, 3.715e-5
-1.650, 3.407e-5
-1.649, 3.407e-5
-1.648, 3.407e-5
-1.647, 3.407e-5
-1.646, 3.407e-5
-1.645, 3.099e-5
-1.644, 3.099e-5
-1.643, 3.099e-5
-1.642, 3.099e-5
-1.641, 3.099e-5
-1.640, 2.790e-5
-1.639, 2.790e-5
-1.638, 2.790e-5
-1.637, 2.790e-5
-1.636, 2.790e-5
-1.635, 2.482e-5
-1.634, 2.482e-5
-1.633, 2.482e-5
-1.632, 2.482e-5
-1.631, 2.482e-5
-1.630, 2.482e-5
-1.629, 2.174e-5
-1.628, 2.174e-5
-1.627, 2.174e-5
-1.626, 2.174e-5
-1.625, 2.174e-5
-1.624, 2.174e-5
-1.623, 2.174e-5
-1.622, 2.174e-5
-1.621, 2.174e-5
-1.620, 2.174e-5
-1.619, 1.865e-5
-1.618, 1.865e-5
-1.617, 1.865e-5
-1.616, 1.865e-5
-1.615, 1.865e-5
-1.614, 1.865e-5
-1.613, 1.557e-5
-1.612, 1.865e-5
-1.611, 1.557e-5
-1.610, 1.557e-5
-1.609, 1.557e-5
-1.608, 1.557e-5
-1.607, 1.557e-5
-1.606, 1.557e-5
-1.605, 1.557e-5
-1.604, 1.249e-5
-1.603, 1.249e-5
-1.602, 1.249e-5
-1.601, 1.249e-5
-1.600, 1.249e-5
-1.599, 1.249e-5
-1.598, 1.249e-5
-1.597, 1.249e-5
-1.596, 1.249e-5
-1.595, 9.405e-6
-1.594, 9.405e-6
-1.593, 1.249e-5
-1.592, 1.249e-5
-1.591, 1.249e-5
-1.590, 9.405e-6
-1.589, 9.405e-6
-1.588, 9.405e-6
-1.587, 1.249e-5
-1.586, 9.405e-6
-1.585, 9.405e-6
-1.584, 9.405e-6
-1.583, 9.405e-6
-1.582, 9.405e-6
-1.581, 9.405e-6
-1.580, 6.322e-6
-1.579, 6.322e-6
-1.578, 6.322e-6
-1.577, 9.405e-6
-1.576, 6.322e-6
-1.575, 6.322e-6
-1.574, 6.322e-6
-1.573, 6.322e-6
-1.572, 6.322e-6
-1.571, 6.322e-6
-1.570, 6.322e-6
-1.569, 6.322e-6
-1.568, 6.322e-6
-1.567, 6.322e-6
-1.566, 6.322e-6
-1.565, 6.322e-6
-1.564, 6.322e-6
-1.563, 6.322e-6
-1.562, 6.322e-6
-1.561, 6.322e-6
-1.560, 6.322e-6
-1.559, 6.322e-6
-1.558, 6.322e-6
-1.557, 6.322e-6
-1.556, 3.239e-6
-1.555, 6.322e-6
-1.554, 3.239e-6
-1.553, 3.239e-6
-1.552, 3.239e-6
-1.551, 3.239e-6
-1.550, 3.239e-6
-1.549, 3.239e-6
-1.548, 3.239e-6
-1.547, 3.239e-6
-1.546, 3.239e-6
-1.545, 3.239e-6
-1.544, 3.239e-6
-1.543, 3.239e-6
-1.542, 3.239e-6
-1.541, 3.239e-6
-1.540, 3.239e-6
-1.539, 3.239e-6
-1.538, 3.239e-6
-1.537, 3.239e-6
-1.536, 3.239e-6
-1.535, 3.239e-6
-1.534, 3.239e-6
-1.533, 3.239e-6
-1.532, 3.239e-6
-1.531, 3.239e-6
-1.530, 3.239e-6
-1.529, 3.239e-6
-1.528, 3.239e-6
-1.527, 3.239e-6
-1.526, 3.239e-6
-1.525, 3.239e-6
-1.524, 3.239e-6
-1.523, 3.239e-6
-1.522, 3.239e-6
-1.521, 3.239e-6
-1.520, 3.239e-6
-1.519, 1.559e-7
-1.518, 3.239e-6
-1.517, 3.239e-6
-1.516, 1.559e-7
-1.515, 1.559e-7
-1.514, 1.559e-7
-1.513, 1.559e-7
-1.512, 1.559e-7
-1.511, 1.559e-7
-1.510, 1.559e-7
-1.509, 1.559e-7
-1.508, 1.559e-7
-1.507, 3.239e-6
-1.506, 3.239e-6
-1.505, 1.559e-7
-1.504, 1.559e-7
-1.503, 3.239e-6
-1.502, 1.559e-7
-1.501, 1.559e-7
-1.500, 1.559e-7
-1.499, 1.559e-7
-1.498, 1.559e-7
-1.497, 1.559e-7
-1.496, 1.559e-7
-1.495, 1.559e-7
-1.494, 1.559e-7
-1.493, 1.559e-7
-1.492, 1.559e-7
-1.491, 1.559e-7
-1.490, 1.559e-7
-1.489, 1.559e-7
-1.488, 1.559e-7
-1.487, 1.559e-7
-1.486, 1.559e-7
-1.485, 1.559e-7
-1.484, 1.559e-7
-1.483, 1.559e-7
-1.482, 1.559e-7
-1.481, 1.559e-7
-1.480, 1.559e-7
-1.479, 1.559e-7
-1.478, 1.559e-7
-1.477, 1.559e-7
-1.476, 1.559e-7
-1.475, 1.559e-7
-1.474, 1.559e-7
-1.473, 1.559e-7
-1.472, 1.559e-7
-1.471, 1.559e-7
-1.470, 1.559e-7
-1.469, 1.559e-7
-1.468, 1.559e-7
-1.467, 1.559e-7
-1.466, 1.559e-7
-1.465, 1.559e-7
-1.464, 1.559e-7
-1.463, 1.559e-7
-1.462, 1.559e-7
-1.461, 1.559e-7
-1.460, 1.559e-7
-1.459, 1.559e-7
-1.458, 1.559e-7
-1.457, 1.559e-7
-1.456, 1.559e-7
-1.455, 1.559e-7
-1.454, 1.559e-7
-1.453, 1.559e-7
-1.452, 1.559e-7
-1.451, 1.559e-7
-1.450, 1.559e-7
-1.449, 1.559e-7
-1.448, 1.559e-7
-1.447, 1.559e-7
-1.446, 1.559e-7
-1.445, 1.559e-7
-1.444, 1.559e-7
-1.443, 1.559e-7
-1.442, 1.559e-7
-1.441, 1.559e-7
-1.440, 1.559e-7
-1.439, 1.559e-7
-1.438, 1.559e-7
-1.437, 1.559e-7
-1.436, 1.559e-7
-1.435, 1.559e-7
-1.434, 1.559e-7
-1.433, 1.559e-7
-1.432, 1.559e-7
-1.431, 1.559e-7
-1.430, 1.559e-7
-1.429, 1.559e-7
-1.428, 1.559e-7
-1.427, 1.559e-7
-1.426, 1.559e-7
-1.425, 1.559e-7
-1.424, 1.559e-7
-1.423, 1.559e-7
-1.422, 1.559e-7
-1.421, 1.559e-7
-1.420, 1.559e-7
-1.419, 1.559e-7
-1.418, 1.559e-7
-1.417, 1.559e-7
-1.416, 1.559e-7
-1.415, 1.559e-7
-1.414, 1.559e-7
-1.413, 1.559e-7
-1.412, 1.559e-7
-1.411, -2.927e-6
-1.410, 1.559e-7
-1.409, 1.559e-7
-1.408, 1.559e-7
-1.407, 1.559e-7
-1.406, 1.559e-7
-1.405, 1.559e-7
-1.404, -2.927e-6
-1.403, 1.559e-7
-1.402, 1.559e-7
-1.401, 1.559e-7
-1.400, 1.559e-7
-1.399, 1.559e-7
-1.398, 1.559e-7
-1.397, 1.559e-7
-1.396, 1.559e-7
-1.395, 1.559e-7
-1.394, 1.559e-7
-1.393, 1.559e-7
-1.392, 1.559e-7
-1.391, 1.559e-7
-1.390, -2.927e-6
-1.389, -2.927e-6
-1.388, -2.927e-6
-1.387, 1.559e-7
-1.386, -2.927e-6
-1.385, 1.559e-7
-1.384, 1.559e-7
-1.383, -2.927e-6
-1.382, 1.559e-7
-1.381, 1.559e-7
-1.380, 1.559e-7
-1.379, 1.559e-7
-1.378, 1.559e-7
-1.377, 1.559e-7
-1.376, 1.559e-7
-1.375, 1.559e-7
-1.374, -2.927e-6
-1.373, 1.559e-7
-1.372, 1.559e-7
-1.371, 1.559e-7
-1.370, -2.927e-6
-1.369, -2.927e-6
-1.368, 1.559e-7
-1.367, 1.559e-7
-1.366, 1.559e-7
-1.365, 1.559e-7
-1.364, 1.559e-7
-1.363, 1.559e-7
-1.362, 1.559e-7
-1.361, 1.559e-7
-1.360, 1.559e-7
-1.359, 1.559e-7
-1.358, 1.559e-7
-1.357, 1.559e-7
-1.356, 1.559e-7
-1.355, 1.559e-7
-1.354, -2.927e-6
-1.353, -2.927e-6
-1.352, 1.559e-7
-1.351, 1.559e-7
-1.350, 1.559e-7
-1.349, 1.559e-7
-1.348, 1.559e-7
-1.347, 1.559e-7
-1.346, 1.559e-7
-1.345, 1.559e-7
-1.344, 1.559e-7
-1.343, -2.927e-6
-1.342, 1.559e-7
-1.341, 1.559e-7
-1.340, 1.559e-7
-1.339, -2.927e-6
-1.338, 1.559e-7
-1.337, 1.559e-7
-1.336, -2.927e-6
-1.335, 1.559e-7
-1.334, -2.927e-6
-1.333, -2.927e-6
-1.332, 1.559e-7
-1.331, -2.927e-6
-1.330, 1.559e-7
-1.329, 1.559e-7
-1.328, -2.927e-6
-1.327, 1.559e-7
-1.326, -2.927e-6
-1.325, -2.927e-6
-1.324, -2.927e-6
-1.323, 1.559e-7
-1.322, 1.559e-7
-1.321, -2.927e-6
-1.320, 1.559e-7
-1.319, -2.927e-6
-1.318, -2.927e-6
-1.317, 1.559e-7
-1.316, -2.927e-6
-1.315, -2.927e-6
-1.314, -2.927e-6
-1.313, -2.927e-6
-1.312, 1.559e-7
-1.311, 1.559e-7
-1.310, 1.559e-7
-1.309, -2.927e-6
-1.308, -2.927e-6
-1.307, 1.559e-7
-1.306, -2.927e-6
-1.305, -2.927e-6
-1.304, 1.559e-7
-1.303, -2.927e-6
-1.302, 1.559e-7
-1.301, -2.927e-6
-1.300, -2.927e-6
-1.299, -2.927e-6
-1.298, -2.927e-6
-1.297, 1.559e-7
-1.296, -2.927e-6
-1.295, -2.927e-6
-1.294, -2.927e-6
-1.293, -2.927e-6
-1.292, -2.927e-6
-1.291, -2.927e-6
-1.290, 1.559e-7
-1.289, -2.927e-6
-1.288, -2.927e-6
-1.287, -2.927e-6
-1.286, -2.927e-6
-1.285, 1.559e-7
-1.284, -2.927e-6
-1.283, -2.927e-6
-1.282, -2.927e-6
-1.281, -2.927e-6
-1.280, -2.927e-6
-1.279, -2.927e-6
-1.278, -2.927e-6
-1.277, -2.927e-6
-1.276, -2.927e-6
-1.275, -2.927e-6
-1.274, -2.927e-6
-1.273, -2.927e-6
-1.272, -2.927e-6
-1.271, -2.927e-6
-1.270, -2.927e-6
-1.269, -2.927e-6
-1.268, -2.927e-6
-1.267, -2.927e-6
-1.266, -2.927e-6
-1.265, -2.927e-6
-1.264, -2.927e-6
-1.263, -2.927e-6
-1.262, -2.927e-6
-1.261, -2.927e-6
-1.260, -2.927e-6
-1.259, -2.927e-6
-1.258, -2.927e-6
-1.257, 1.559e-7
-1.256, -2.927e-6
-1.255, -2.927e-6
-1.254, -2.927e-6
-1.253, -2.927e-6
-1.252, -2.927e-6
-1.251, -2.927e-6
-1.250, -2.927e-6
-1.249, -2.927e-6
-1.248, -2.927e-6
-1.247, -2.927e-6
-1.246, -2.927e-6
-1.245, -2.927e-6
-1.244, -2.927e-6
-1.243, -2.927e-6
-1.242, -2.927e-6
-1.241, -2.927e-6
-1.240, -2.927e-6
-1.239, -2.927e-6
-1.238, -2.927e-6
-1.237, -2.927e-6
-1.236, -2.927e-6
-1.235, -2.927e-6
-1.234, -2.927e-6
-1.233, -2.927e-6
-1.232, -2.927e-6
-1.231, -2.927e-6
-1.230, -2.927e-6
-1.229, -2.927e-6
-1.228, -2.927e-6
-1.227, -2.927e-6
-1.226, -2.927e-6
-1.225, -2.927e-6
-1.224, -2.927e-6
-1.223, -2.927e-6
-1.222, -2.927e-6
-1.221, -2.927e-6
-1.220, -2.927e-6
-1.219, -2.927e-6
-1.218, -2.927e-6
-1.217, -2.927e-6
-1.216, -2.927e-6
-1.215, -2.927e-6
-1.214, -2.927e-6
-1.213, -2.927e-6
-1.212, -2.927e-6
-1.211, -2.927e-6
-1.210, -2.927e-6
-1.209, -2.927e-6
-1.208, -2.927e-6
-1.207, -2.927e-6
-1.206, -2.927e-6
-1.205, -2.927e-6
-1.204, -2.927e-6
-1.203, -2.927e-6
-1.202, -2.927e-6
-1.201, -2.927e-6
-1.200, -2.927e-6
-1.199, -2.927e-6
-1.198, -2.927e-6
-1.197, -2.927e-6
-1.196, -2.927e-6
-1.195, -2.927e-6
-1.194, -2.927e-6
-1.193, -2.927e-6
-1.192, -2.927e-6
-1.191, -2.927e-6
-1.190, -2.927e-6
-1.189, -2.927e-6
-1.188, -2.927e-6
-1.187, -2.927e-6
-1.186, -2.927e-6
-1.185, -2.927e-6
-1.184, -2.927e-6
-1.183, -2.927e-6
-1.182, -2.927e-6
-1.181, -2.927e-6
-1.180, -2.927e-6
-1.179, -2.927e-6
-1.178, -2.927e-6
-1.177, -2.927e-6
-1.176, -2.927e-6
-1.175, -2.927e-6
-1.174, -2.927e-6
-1.173, -2.927e-6
-1.172, -2.927e-6
-1.171, -2.927e-6
-1.170, -2.927e-6
-1.169, -2.927e-6
-1.168, -2.927e-6
-1.167, -2.927e-6
-1.166, -2.927e-6
-1.165, -2.927e-6
-1.164, -2.927e-6
-1.163, 1.559e-7
-1.162, -2.927e-6
-1.161, -2.927e-6
-1.160, -2.927e-6
-1.159, -2.927e-6
-1.158, -2.927e-6
-1.157, -2.927e-6
-1.156, -2.927e-6
-1.155, -2.927e-6
-1.154, -2.927e-6
-1.153, -2.927e-6
-1.152, -2.927e-6
-1.151, -2.927e-6
-1.150, -2.927e-6
-1.149, -2.927e-6
-1.148, -2.927e-6
-1.147, -2.927e-6
-1.146, -2.927e-6
-1.145, -2.927e-6
-1.144, -2.927e-6
-1.143, -2.927e-6
-1.142, -2.927e-6
-1.141, -2.927e-6
-1.140, -2.927e-6
-1.139, -2.927e-6
-1.138, -2.927e-6
-1.137, -2.927e-6
-1.136, -2.927e-6
-1.135, -2.927e-6
-1.134, -2.927e-6
-1.133, -2.927e-6
-1.132, -2.927e-6
-1.131, -2.927e-6
-1.130, -2.927e-6
-1.129, -2.927e-6
-1.128, -2.927e-6
-1.127, -2.927e-6
-1.126, -2.927e-6
-1.125, -2.927e-6
-1.124, -2.927e-6
-1.123, -2.927e-6
-1.122, -2.927e-6
-1.121, -2.927e-6
-1.120, -2.927e-6
-1.119, -2.927e-6
-1.118, -2.927e-6
-1.117, -2.927e-6
-1.116, -2.927e-6
-1.115, -2.927e-6
-1.114, -2.927e-6
-1.113, -2.927e-6
-1.112, -2.927e-6
-1.111, -2.927e-6
-1.110, -2.927e-6
-1.109, -2.927e-6
-1.108, -2.927e-6
-1.107, -2.927e-6
-1.106, -2.927e-6
-1.105, -2.927e-6
-1.104, -2.927e-6
-1.103, -2.927e-6
-1.102, -2.927e-6
-1.101, -2.927e-6
-1.100, -2.927e-6
-1.099, -2.927e-6
-1.098, -2.927e-6
-1.097, -2.927e-6
-1.096, -2.927e-6
-1.095, -2.927e-6
-1.094, -2.927e-6
-1.093, -2.927e-6
-1.092, -2.927e-6
-1.091, -2.927e-6
-1.090, -2.927e-6
-1.089, -2.927e-6
-1.088, -2.927e-6
-1.087, -2.927e-6
-1.086, -2.927e-6
-1.085, -2.927e-6
-1.084, -2.927e-6
-1.083, -2.927e-6
-1.082, -2.927e-6
-1.081, -2.927e-6
-1.080, -2.927e-6
-1.079, -2.927e-6
-1.078, -2.927e-6
-1.077, -2.927e-6
-1.076, -2.927e-6
-1.075, -2.927e-6
-1.074, -2.927e-6
-1.073, -2.927e-6
-1.072, -2.927e-6
-1.071, -2.927e-6
-1.070, -2.927e-6
-1.069, -2.927e-6
-1.068, -2.927e-6
-1.067, -2.927e-6
-1.066, -2.927e-6
-1.065, -2.927e-6
-1.064, -2.927e-6
-1.063, -2.927e-6
-1.062, -2.927e-6
-1.061, -2.927e-6
-1.060, -2.927e-6
-1.059, -2.927e-6
-1.058, -2.927e-6
-1.057, -2.927e-6
-1.056, -2.927e-6
-1.055, -2.927e-6
-1.054, -2.927e-6
-1.053, -2.927e-6
-1.052, -2.927e-6
-1.051, -2.927e-6
-1.050, -2.927e-6
-1.049, -2.927e-6
-1.048, -2.927e-6
-1.047, -2.927e-6
-1.046, -2.927e-6
-1.045, -2.927e-6
-1.044, -2.927e-6
-1.043, -2.927e-6
-1.042, -2.927e-6
-1.041, -2.927e-6
-1.040, -2.927e-6
-1.039, -2.927e-6
-1.038, -2.927e-6
-1.037, -2.927e-6
-1.036, -2.927e-6
-1.035, -2.927e-6
-1.034, -2.927e-6
-1.033, -2.927e-6
-1.032, -2.927e-6
-1.031, -2.927e-6
-1.030, -2.927e-6
-1.029, -2.927e-6
-1.028, -2.927e-6
-1.027, -2.927e-6
-1.026, -2.927e-6
-1.025, -2.927e-6
-1.024, -2.927e-6
-1.023, -2.927e-6
-1.022, -2.927e-6
-1.021, -2.927e-6
-1.020, -2.927e-6
-1.019, -2.927e-6
-1.018, -2.927e-6
-1.017, -2.927e-6
-1.016, -2.927e-6
-1.015, -2.927e-6
-1.014, -2.927e-6
-1.013, -2.927e-6
-1.012, -2.927e-6
-1.011, -2.927e-6
-1.010, -2.927e-6
-1.009, -2.927e-6
-1.008, -2.927e-6
-1.007, -2.927e-6
-1.006, -2.927e-6
-1.005, -2.927e-6
-1.004, -2.927e-6
-1.003, -2.927e-6
-1.002, -2.927e-6
-1.001, -2.927e-6
