Apr. 18, 2025   11:20:29
Cyclic Voltammetry
File: c:/users/guazh/data/banditlqround7_x0exp590_r20/2025-04-16-exp1117\exp1117-2025-04-18t11_12_03-arkoh\exp1117_cv_sr_900mvs_efin_-1400mv.bin
Data Source:  Experiment
Instrument Model:  CHI760E
Header: CV ran at 900 mVs
Note: 

Init E (V) = -1
High E (V) = -1
Low E (V) = -1.4
Final E (V) = -1
Init P/N = N
Scan Rate (V/s) = 0.9
Segment = 3
Sample Interval (V) = 0.001
Quiet Time (sec) = 2
Sensitivity (A/V) = 0.01
Comp R (ohm) = 1.6

Results:

Channel 1:
Segment 1:

Segment 2:

Segment 3:

Potential/V, Current/A

-1.000, 2.482e-5
-1.001, 1.759e-4
-1.002, 3.085e-4
-1.003, 4.318e-4
-1.004, 5.397e-4
-1.005, 6.414e-4
-1.006, 7.339e-4
-1.007, 8.203e-4
-1.008, 8.973e-4
-1.009, 9.683e-4
-1.010, 1.033e-3
-1.011, 1.095e-3
-1.012, 1.150e-3
-1.013, 1.203e-3
-1.014, 1.249e-3
-1.015, 1.292e-3
-1.016, 1.335e-3
-1.017, 1.375e-3
-1.018, 1.412e-3
-1.019, 1.446e-3
-1.020, 1.477e-3
-1.021, 1.508e-3
-1.022, 1.532e-3
-1.023, 1.554e-3
-1.024, 1.582e-3
-1.025, 1.600e-3
-1.026, 1.619e-3
-1.027, 1.637e-3
-1.028, 1.656e-3
-1.029, 1.671e-3
-1.030, 1.687e-3
-1.031, 1.705e-3
-1.032, 1.717e-3
-1.033, 1.730e-3
-1.034, 1.745e-3
-1.035, 1.754e-3
-1.036, 1.770e-3
-1.037, 1.779e-3
-1.038, 1.788e-3
-1.039, 1.798e-3
-1.040, 1.804e-3
-1.041, 1.813e-3
-1.042, 1.819e-3
-1.043, 1.825e-3
-1.044, 1.835e-3
-1.045, 1.841e-3
-1.046, 1.847e-3
-1.047, 1.856e-3
-1.048, 1.862e-3
-1.049, 1.869e-3
-1.050, 1.875e-3
-1.051, 1.881e-3
-1.052, 1.887e-3
-1.053, 1.887e-3
-1.054, 1.890e-3
-1.055, 1.896e-3
-1.056, 1.899e-3
-1.057, 1.906e-3
-1.058, 1.909e-3
-1.059, 1.912e-3
-1.060, 1.915e-3
-1.061, 1.921e-3
-1.062, 1.927e-3
-1.063, 1.930e-3
-1.064, 1.936e-3
-1.065, 1.939e-3
-1.066, 1.939e-3
-1.067, 1.943e-3
-1.068, 1.946e-3
-1.069, 1.946e-3
-1.070, 1.946e-3
-1.071, 1.946e-3
-1.072, 1.943e-3
-1.073, 1.943e-3
-1.074, 1.943e-3
-1.075, 1.946e-3
-1.076, 1.946e-3
-1.077, 1.949e-3
-1.078, 1.949e-3
-1.079, 1.952e-3
-1.080, 1.952e-3
-1.081, 1.955e-3
-1.082, 1.958e-3
-1.083, 1.958e-3
-1.084, 1.961e-3
-1.085, 1.961e-3
-1.086, 1.961e-3
-1.087, 1.964e-3
-1.088, 1.964e-3
-1.089, 1.967e-3
-1.090, 1.967e-3
-1.091, 1.970e-3
-1.092, 1.973e-3
-1.093, 1.976e-3
-1.094, 1.980e-3
-1.095, 1.983e-3
-1.096, 1.986e-3
-1.097, 1.989e-3
-1.098, 1.989e-3
-1.099, 1.989e-3
-1.100, 1.989e-3
-1.101, 1.989e-3
-1.102, 1.992e-3
-1.103, 1.992e-3
-1.104, 1.992e-3
-1.105, 1.995e-3
-1.106, 1.995e-3
-1.107, 1.998e-3
-1.108, 2.001e-3
-1.109, 2.001e-3
-1.110, 2.004e-3
-1.111, 2.004e-3
-1.112, 2.004e-3
-1.113, 2.004e-3
-1.114, 2.001e-3
-1.115, 1.998e-3
-1.116, 1.998e-3
-1.117, 1.995e-3
-1.118, 1.992e-3
-1.119, 1.989e-3
-1.120, 1.989e-3
-1.121, 1.989e-3
-1.122, 1.989e-3
-1.123, 1.989e-3
-1.124, 1.989e-3
-1.125, 1.989e-3
-1.126, 1.992e-3
-1.127, 1.992e-3
-1.128, 1.992e-3
-1.129, 1.995e-3
-1.130, 1.995e-3
-1.131, 1.998e-3
-1.132, 1.998e-3
-1.133, 1.998e-3
-1.134, 2.001e-3
-1.135, 2.001e-3
-1.136, 2.004e-3
-1.137, 2.007e-3
-1.138, 2.007e-3
-1.139, 2.007e-3
-1.140, 2.010e-3
-1.141, 2.010e-3
-1.142, 2.010e-3
-1.143, 2.007e-3
-1.144, 2.007e-3
-1.145, 2.007e-3
-1.146, 2.004e-3
-1.147, 2.004e-3
-1.148, 2.001e-3
-1.149, 2.001e-3
-1.150, 2.001e-3
-1.151, 2.001e-3
-1.152, 2.001e-3
-1.153, 2.004e-3
-1.154, 2.004e-3
-1.155, 2.007e-3
-1.156, 2.007e-3
-1.157, 2.007e-3
-1.158, 2.010e-3
-1.159, 2.013e-3
-1.160, 2.010e-3
-1.161, 2.013e-3
-1.162, 2.013e-3
-1.163, 2.013e-3
-1.164, 2.013e-3
-1.165, 2.013e-3
-1.166, 2.017e-3
-1.167, 2.017e-3
-1.168, 2.020e-3
-1.169, 2.023e-3
-1.170, 2.023e-3
-1.171, 2.026e-3
-1.172, 2.026e-3
-1.173, 2.026e-3
-1.174, 2.029e-3
-1.175, 2.029e-3
-1.176, 2.029e-3
-1.177, 2.029e-3
-1.178, 2.032e-3
-1.179, 2.035e-3
-1.180, 2.035e-3
-1.181, 2.038e-3
-1.182, 2.041e-3
-1.183, 2.044e-3
-1.184, 2.044e-3
-1.185, 2.050e-3
-1.186, 2.050e-3
-1.187, 2.054e-3
-1.188, 2.057e-3
-1.189, 2.054e-3
-1.190, 2.057e-3
-1.191, 2.057e-3
-1.192, 2.057e-3
-1.193, 2.057e-3
-1.194, 2.057e-3
-1.195, 2.060e-3
-1.196, 2.066e-3
-1.197, 2.069e-3
-1.198, 2.072e-3
-1.199, 2.075e-3
-1.200, 2.081e-3
-1.201, 2.084e-3
-1.202, 2.087e-3
-1.203, 2.091e-3
-1.204, 2.094e-3
-1.205, 2.097e-3
-1.206, 2.097e-3
-1.207, 2.100e-3
-1.208, 2.103e-3
-1.209, 2.106e-3
-1.210, 2.106e-3
-1.211, 2.109e-3
-1.212, 2.115e-3
-1.213, 2.115e-3
-1.214, 2.121e-3
-1.215, 2.124e-3
-1.216, 2.128e-3
-1.217, 2.131e-3
-1.218, 2.137e-3
-1.219, 2.137e-3
-1.220, 2.140e-3
-1.221, 2.143e-3
-1.222, 2.146e-3
-1.223, 2.149e-3
-1.224, 2.152e-3
-1.225, 2.158e-3
-1.226, 2.161e-3
-1.227, 2.168e-3
-1.228, 2.174e-3
-1.229, 2.183e-3
-1.230, 2.186e-3
-1.231, 2.192e-3
-1.232, 2.198e-3
-1.233, 2.201e-3
-1.234, 2.208e-3
-1.235, 2.211e-3
-1.236, 2.217e-3
-1.237, 2.220e-3
-1.238, 2.226e-3
-1.239, 2.232e-3
-1.240, 2.242e-3
-1.241, 2.248e-3
-1.242, 2.254e-3
-1.243, 2.263e-3
-1.244, 2.272e-3
-1.245, 2.279e-3
-1.246, 2.288e-3
-1.247, 2.294e-3
-1.248, 2.303e-3
-1.249, 2.309e-3
-1.250, 2.316e-3
-1.251, 2.325e-3
-1.252, 2.334e-3
-1.253, 2.340e-3
-1.254, 2.346e-3
-1.255, 2.356e-3
-1.256, 2.368e-3
-1.257, 2.377e-3
-1.258, 2.386e-3
-1.259, 2.396e-3
-1.260, 2.408e-3
-1.261, 2.420e-3
-1.262, 2.433e-3
-1.263, 2.442e-3
-1.264, 2.451e-3
-1.265, 2.464e-3
-1.266, 2.473e-3
-1.267, 2.485e-3
-1.268, 2.497e-3
-1.269, 2.507e-3
-1.270, 2.522e-3
-1.271, 2.534e-3
-1.272, 2.550e-3
-1.273, 2.565e-3
-1.274, 2.581e-3
-1.275, 2.593e-3
-1.276, 2.608e-3
-1.277, 2.621e-3
-1.278, 2.636e-3
-1.279, 2.652e-3
-1.280, 2.667e-3
-1.281, 2.682e-3
-1.282, 2.695e-3
-1.283, 2.713e-3
-1.284, 2.729e-3
-1.285, 2.744e-3
-1.286, 2.763e-3
-1.287, 2.781e-3
-1.288, 2.797e-3
-1.289, 2.815e-3
-1.290, 2.834e-3
-1.291, 2.855e-3
-1.292, 2.874e-3
-1.293, 2.889e-3
-1.294, 2.911e-3
-1.295, 2.932e-3
-1.296, 2.951e-3
-1.297, 2.972e-3
-1.298, 2.991e-3
-1.299, 3.012e-3
-1.300, 3.037e-3
-1.301, 3.059e-3
-1.302, 3.083e-3
-1.303, 3.105e-3
-1.304, 3.130e-3
-1.305, 3.157e-3
-1.306, 3.179e-3
-1.307, 3.207e-3
-1.308, 3.231e-3
-1.309, 3.256e-3
-1.310, 3.281e-3
-1.311, 3.308e-3
-1.312, 3.333e-3
-1.313, 3.364e-3
-1.314, 3.392e-3
-1.315, 3.419e-3
-1.316, 3.453e-3
-1.317, 3.481e-3
-1.318, 3.515e-3
-1.319, 3.549e-3
-1.320, 3.580e-3
-1.321, 3.614e-3
-1.322, 3.644e-3
-1.323, 3.678e-3
-1.324, 3.709e-3
-1.325, 3.740e-3
-1.326, 3.774e-3
-1.327, 3.808e-3
-1.328, 3.842e-3
-1.329, 3.876e-3
-1.330, 3.913e-3
-1.331, 3.950e-3
-1.332, 3.990e-3
-1.333, 4.027e-3
-1.334, 4.064e-3
-1.335, 4.104e-3
-1.336, 4.144e-3
-1.337, 4.184e-3
-1.338, 4.224e-3
-1.339, 4.264e-3
-1.340, 4.304e-3
-1.341, 4.344e-3
-1.342, 4.384e-3
-1.343, 4.428e-3
-1.344, 4.471e-3
-1.345, 4.514e-3
-1.346, 4.560e-3
-1.347, 4.603e-3
-1.348, 4.649e-3
-1.349, 4.696e-3
-1.350, 4.742e-3
-1.351, 4.791e-3
-1.352, 4.838e-3
-1.353, 4.884e-3
-1.354, 4.930e-3
-1.355, 4.979e-3
-1.356, 5.029e-3
-1.357, 5.075e-3
-1.358, 5.127e-3
-1.359, 5.177e-3
-1.360, 5.229e-3
-1.361, 5.285e-3
-1.362, 5.337e-3
-1.363, 5.393e-3
-1.364, 5.448e-3
-1.365, 5.504e-3
-1.366, 5.559e-3
-1.367, 5.618e-3
-1.368, 5.673e-3
-1.369, 5.732e-3
-1.370, 5.784e-3
-1.371, 5.843e-3
-1.372, 5.901e-3
-1.373, 5.957e-3
-1.374, 6.018e-3
-1.375, 6.080e-3
-1.376, 6.139e-3
-1.377, 6.200e-3
-1.378, 6.262e-3
-1.379, 6.324e-3
-1.380, 6.388e-3
-1.381, 6.453e-3
-1.382, 6.515e-3
-1.383, 6.583e-3
-1.384, 6.644e-3
-1.385, 6.712e-3
-1.386, 6.777e-3
-1.387, 6.845e-3
-1.388, 6.912e-3
-1.389, 6.977e-3
-1.390, 7.048e-3
-1.391, 7.119e-3
-1.392, 7.190e-3
-1.393, 7.261e-3
-1.394, 7.335e-3
-1.395, 7.406e-3
-1.396, 7.480e-3
-1.397, 7.554e-3
-1.398, 7.631e-3
-1.399, 7.702e-3
-1.400, 7.665e-3
-1.399, 7.443e-3
-1.398, 7.242e-3
-1.397, 7.064e-3
-1.396, 6.900e-3
-1.395, 6.749e-3
-1.394, 6.610e-3
-1.393, 6.481e-3
-1.392, 6.358e-3
-1.391, 6.240e-3
-1.390, 6.129e-3
-1.389, 6.021e-3
-1.388, 5.917e-3
-1.387, 5.815e-3
-1.386, 5.716e-3
-1.385, 5.618e-3
-1.384, 5.522e-3
-1.383, 5.426e-3
-1.382, 5.334e-3
-1.381, 5.241e-3
-1.380, 5.155e-3
-1.379, 5.069e-3
-1.378, 4.982e-3
-1.377, 4.899e-3
-1.376, 4.819e-3
-1.375, 4.736e-3
-1.374, 4.656e-3
-1.373, 4.575e-3
-1.372, 4.495e-3
-1.371, 4.415e-3
-1.370, 4.338e-3
-1.369, 4.261e-3
-1.368, 4.184e-3
-1.367, 4.110e-3
-1.366, 4.033e-3
-1.365, 3.959e-3
-1.364, 3.885e-3
-1.363, 3.814e-3
-1.362, 3.740e-3
-1.361, 3.669e-3
-1.360, 3.598e-3
-1.359, 3.527e-3
-1.358, 3.456e-3
-1.357, 3.385e-3
-1.356, 3.318e-3
-1.355, 3.247e-3
-1.354, 3.176e-3
-1.353, 3.105e-3
-1.352, 3.040e-3
-1.351, 2.972e-3
-1.350, 2.904e-3
-1.349, 2.840e-3
-1.348, 2.775e-3
-1.347, 2.713e-3
-1.346, 2.652e-3
-1.345, 2.590e-3
-1.344, 2.528e-3
-1.343, 2.467e-3
-1.342, 2.402e-3
-1.341, 2.343e-3
-1.340, 2.282e-3
-1.339, 2.220e-3
-1.338, 2.161e-3
-1.337, 2.100e-3
-1.336, 2.041e-3
-1.335, 1.983e-3
-1.334, 1.927e-3
-1.333, 1.872e-3
-1.332, 1.813e-3
-1.331, 1.758e-3
-1.330, 1.708e-3
-1.329, 1.653e-3
-1.328, 1.597e-3
-1.327, 1.542e-3
-1.326, 1.486e-3
-1.325, 1.434e-3
-1.324, 1.381e-3
-1.323, 1.329e-3
-1.322, 1.277e-3
-1.321, 1.224e-3
-1.320, 1.175e-3
-1.319, 1.125e-3
-1.318, 1.076e-3
-1.317, 1.027e-3
-1.316, 9.806e-4
-1.315, 9.343e-4
-1.314, 8.850e-4
-1.313, 8.357e-4
-1.312, 7.894e-4
-1.311, 7.401e-4
-1.310, 6.939e-4
-1.309, 6.476e-4
-1.308, 6.014e-4
-1.307, 5.582e-4
-1.306, 5.150e-4
-1.305, 4.719e-4
-1.304, 4.318e-4
-1.303, 3.886e-4
-1.302, 3.485e-4
-1.301, 3.085e-4
-1.300, 2.684e-4
-1.299, 2.283e-4
-1.298, 1.882e-4
-1.297, 1.512e-4
-1.296, 1.111e-4
-1.295, 7.107e-5
-1.294, 3.407e-5
-1.293, -2.927e-6
-1.292, -4.301e-5
-1.291, -8.000e-5
-1.290, -1.139e-4
-1.289, -1.509e-4
-1.288, -1.817e-4
-1.287, -2.157e-4
-1.286, -2.496e-4
-1.285, -2.804e-4
-1.284, -3.174e-4
-1.283, -3.482e-4
-1.282, -3.791e-4
-1.281, -4.130e-4
-1.280, -4.469e-4
-1.279, -4.777e-4
-1.278, -5.116e-4
-1.277, -5.425e-4
-1.276, -5.733e-4
-1.275, -6.011e-4
-1.274, -6.288e-4
-1.273, -6.596e-4
-1.272, -6.843e-4
-1.271, -7.120e-4
-1.270, -7.398e-4
-1.269, -7.645e-4
-1.268, -7.953e-4
-1.267, -8.230e-4
-1.266, -8.477e-4
-1.265, -8.754e-4
-1.264, -9.001e-4
-1.263, -9.248e-4
-1.262, -9.494e-4
-1.261, -9.741e-4
-1.260, -9.957e-4
-1.259, -1.017e-3
-1.258, -1.039e-3
-1.257, -1.060e-3
-1.256, -1.079e-3
-1.255, -1.101e-3
-1.254, -1.119e-3
-1.253, -1.141e-3
-1.252, -1.159e-3
-1.251, -1.178e-3
-1.250, -1.199e-3
-1.249, -1.221e-3
-1.248, -1.236e-3
-1.247, -1.258e-3
-1.246, -1.273e-3
-1.245, -1.292e-3
-1.244, -1.310e-3
-1.243, -1.326e-3
-1.242, -1.344e-3
-1.241, -1.359e-3
-1.240, -1.375e-3
-1.239, -1.390e-3
-1.238, -1.409e-3
-1.237, -1.427e-3
-1.236, -1.443e-3
-1.235, -1.461e-3
-1.234, -1.477e-3
-1.233, -1.495e-3
-1.232, -1.511e-3
-1.231, -1.526e-3
-1.230, -1.541e-3
-1.229, -1.557e-3
-1.228, -1.572e-3
-1.227, -1.585e-3
-1.226, -1.597e-3
-1.225, -1.609e-3
-1.224, -1.618e-3
-1.223, -1.631e-3
-1.222, -1.643e-3
-1.221, -1.655e-3
-1.220, -1.671e-3
-1.219, -1.680e-3
-1.218, -1.692e-3
-1.217, -1.705e-3
-1.216, -1.717e-3
-1.215, -1.726e-3
-1.214, -1.739e-3
-1.213, -1.745e-3
-1.212, -1.757e-3
-1.211, -1.763e-3
-1.210, -1.773e-3
-1.209, -1.782e-3
-1.208, -1.791e-3
-1.207, -1.800e-3
-1.206, -1.810e-3
-1.205, -1.819e-3
-1.204, -1.828e-3
-1.203, -1.837e-3
-1.202, -1.844e-3
-1.201, -1.853e-3
-1.200, -1.859e-3
-1.199, -1.868e-3
-1.198, -1.874e-3
-1.197, -1.881e-3
-1.196, -1.890e-3
-1.195, -1.896e-3
-1.194, -1.902e-3
-1.193, -1.911e-3
-1.192, -1.918e-3
-1.191, -1.927e-3
-1.190, -1.936e-3
-1.189, -1.945e-3
-1.188, -1.955e-3
-1.187, -1.961e-3
-1.186, -1.967e-3
-1.185, -1.973e-3
-1.184, -1.979e-3
-1.183, -1.988e-3
-1.182, -1.995e-3
-1.181, -1.998e-3
-1.180, -2.007e-3
-1.179, -2.010e-3
-1.178, -2.019e-3
-1.177, -2.025e-3
-1.176, -2.032e-3
-1.175, -2.038e-3
-1.174, -2.044e-3
-1.173, -2.050e-3
-1.172, -2.056e-3
-1.171, -2.059e-3
-1.170, -2.062e-3
-1.169, -2.066e-3
-1.168, -2.069e-3
-1.167, -2.072e-3
-1.166, -2.075e-3
-1.165, -2.078e-3
-1.164, -2.084e-3
-1.163, -2.087e-3
-1.162, -2.090e-3
-1.161, -2.096e-3
-1.160, -2.099e-3
-1.159, -2.106e-3
-1.158, -2.109e-3
-1.157, -2.112e-3
-1.156, -2.115e-3
-1.155, -2.118e-3
-1.154, -2.121e-3
-1.153, -2.124e-3
-1.152, -2.127e-3
-1.151, -2.127e-3
-1.150, -2.130e-3
-1.149, -2.133e-3
-1.148, -2.136e-3
-1.147, -2.140e-3
-1.146, -2.143e-3
-1.145, -2.146e-3
-1.144, -2.149e-3
-1.143, -2.155e-3
-1.142, -2.155e-3
-1.141, -2.158e-3
-1.140, -2.161e-3
-1.139, -2.161e-3
-1.138, -2.164e-3
-1.137, -2.167e-3
-1.136, -2.167e-3
-1.135, -2.170e-3
-1.134, -2.173e-3
-1.133, -2.177e-3
-1.132, -2.180e-3
-1.131, -2.183e-3
-1.130, -2.186e-3
-1.129, -2.186e-3
-1.128, -2.189e-3
-1.127, -2.192e-3
-1.126, -2.195e-3
-1.125, -2.195e-3
-1.124, -2.198e-3
-1.123, -2.198e-3
-1.122, -2.201e-3
-1.121, -2.201e-3
-1.120, -2.204e-3
-1.119, -2.204e-3
-1.118, -2.207e-3
-1.117, -2.210e-3
-1.116, -2.214e-3
-1.115, -2.214e-3
-1.114, -2.217e-3
-1.113, -2.220e-3
-1.112, -2.220e-3
-1.111, -2.220e-3
-1.110, -2.223e-3
-1.109, -2.223e-3
-1.108, -2.226e-3
-1.107, -2.223e-3
-1.106, -2.223e-3
-1.105, -2.223e-3
-1.104, -2.223e-3
-1.103, -2.226e-3
-1.102, -2.226e-3
-1.101, -2.229e-3
-1.100, -2.229e-3
-1.099, -2.232e-3
-1.098, -2.232e-3
-1.097, -2.232e-3
-1.096, -2.235e-3
-1.095, -2.235e-3
-1.094, -2.235e-3
-1.093, -2.235e-3
-1.092, -2.238e-3
-1.091, -2.235e-3
-1.090, -2.238e-3
-1.089, -2.238e-3
-1.088, -2.238e-3
-1.087, -2.241e-3
-1.086, -2.244e-3
-1.085, -2.244e-3
-1.084, -2.247e-3
-1.083, -2.251e-3
-1.082, -2.251e-3
-1.081, -2.254e-3
-1.080, -2.254e-3
-1.079, -2.254e-3
-1.078, -2.257e-3
-1.077, -2.257e-3
-1.076, -2.257e-3
-1.075, -2.257e-3
-1.074, -2.260e-3
-1.073, -2.260e-3
-1.072, -2.260e-3
-1.071, -2.260e-3
-1.070, -2.263e-3
-1.069, -2.266e-3
-1.068, -2.266e-3
-1.067, -2.266e-3
-1.066, -2.272e-3
-1.065, -2.272e-3
-1.064, -2.275e-3
-1.063, -2.278e-3
-1.062, -2.278e-3
-1.061, -2.278e-3
-1.060, -2.281e-3
-1.059, -2.278e-3
-1.058, -2.281e-3
-1.057, -2.281e-3
-1.056, -2.281e-3
-1.055, -2.281e-3
-1.054, -2.281e-3
-1.053, -2.281e-3
-1.052, -2.281e-3
-1.051, -2.281e-3
-1.050, -2.281e-3
-1.049, -2.281e-3
-1.048, -2.281e-3
-1.047, -2.281e-3
-1.046, -2.278e-3
-1.045, -2.281e-3
-1.044, -2.281e-3
-1.043, -2.284e-3
-1.042, -2.288e-3
-1.041, -2.288e-3
-1.040, -2.291e-3
-1.039, -2.297e-3
-1.038, -2.297e-3
-1.037, -2.300e-3
-1.036, -2.303e-3
-1.035, -2.300e-3
-1.034, -2.303e-3
-1.033, -2.303e-3
-1.032, -2.300e-3
-1.031, -2.303e-3
-1.030, -2.303e-3
-1.029, -2.303e-3
-1.028, -2.306e-3
-1.027, -2.306e-3
-1.026, -2.306e-3
-1.025, -2.309e-3
-1.024, -2.312e-3
-1.023, -2.312e-3
-1.022, -2.315e-3
-1.021, -2.315e-3
-1.020, -2.318e-3
-1.019, -2.321e-3
-1.018, -2.321e-3
-1.017, -2.325e-3
-1.016, -2.325e-3
-1.015, -2.328e-3
-1.014, -2.331e-3
-1.013, -2.331e-3
-1.012, -2.337e-3
-1.011, -2.337e-3
-1.010, -2.343e-3
-1.009, -2.346e-3
-1.008, -2.349e-3
-1.007, -2.352e-3
-1.006, -2.358e-3
-1.005, -2.358e-3
-1.004, -2.362e-3
-1.003, -2.362e-3
-1.002, -2.365e-3
-1.001, -2.365e-3
