Potential V vs RHE, Current mA cm-2
0.013299999999999867,9.942591015451477
0.012299999999999978,8.110539882126256
0.011299999999999866,6.5840663895718805
0.010299999999999976,5.231602386900906
0.009299999999999864,4.01070653511738
0.008299999999999974,2.8322520223298033
0.007299999999999862,1.6113561705462767
0.006299999999999972,0.3903188476327636
0.00529999999999986,-0.8745745255765657
0.0042999999999999705,-2.1828995356917518
0.0032999999999998586,-3.403795387475278
0.0022999999999999687,-4.582249900262854
0.0012999999999998568,-5.585280211867165
0.00029999999999996696,-6.458157083883892
-0.000700000000000145,-7.28576319430494
-0.0017000000000000348,-8.11478401602585
-0.0027000000000001467,-8.943804837746763
-0.0037000000000000366,-9.902979099055257
-0.0047000000000001485,-10.906009410659568
-0.005700000000000038,-11.996751822855511
-0.00670000000000015,-13.043638184755638
-0.00770000000000004,-14.002812446064135
-0.008700000000000152,-14.826174422585586
-0.009700000000000042,-15.533530072518102
-0.010700000000000154,-16.184297270456018
-0.011700000000000044,-16.877505807389888
-0.012700000000000156,-17.542420118326454
-0.013700000000000045,-18.362952672248177
-0.014700000000000157,-19.2400736781645
-0.015700000000000047,-20.159636023076775
-0.01670000000000016,-21.065051254990397
-0.01770000000000005,-21.899730921910766
-0.01870000000000016,-22.592939458844636
-0.01970000000000005,-23.2012653177866
-0.020700000000000163,-23.724708498736668
-0.021700000000000053,-24.290593018682678
-0.022700000000000164,-24.95550732961925
-0.023700000000000054,-25.73359854454502
-0.024700000000000166,-26.525836872469437
-0.025700000000000056,-27.43125210438306
-0.026700000000000168,-28.265931771303435
-0.027700000000000058,-29.058170099227848
-0.02870000000000017,-29.708937297165768
-0.02970000000000006,-30.274821817111786
-0.03070000000000017,-30.79826499806185
-0.03170000000000006,-31.321708179011907
-0.03270000000000017,-31.887592698957924
-0.03370000000000006,-32.62324257488775
-0.034700000000000175,-33.373039563816214
-0.035700000000000065,-34.236013456733886
-0.03670000000000018,-35.07069312365426
-0.03770000000000007,-35.848784338580025
-0.03870000000000018,-36.47125731052064
-0.03970000000000007,-37.037141830466666
-0.04070000000000018,-37.51814367242077
-0.04170000000000007,-38.04158685337084
-0.04270000000000018,-38.607471373316855
-0.04370000000000007,-39.34312124924667
-0.044700000000000184,-40.135359577171094
-0.045700000000000074,-40.95589213109281
-0.046700000000000186,-41.79057179801318
-0.047700000000000076,-42.526221673943
-0.04870000000000019,-43.17698887188092
-0.04970000000000008,-43.75702050482558
-0.05070000000000019,-44.223875233781044
-0.05170000000000008,-44.704877075735155
-0.05270000000000019,-45.27076159568118
-0.05370000000000008,-45.93567590661774
-0.05470000000000019,-46.713767121543505
-0.05570000000000008,-47.54844678846388
-0.056700000000000195,-48.36897934238561
-0.057700000000000085,-49.118776331314066
-0.058700000000000196,-49.76954352925199
-0.059700000000000086,-50.37786938819396
-0.0607000000000002,-50.90131256914402
-0.06170000000000009,-51.46719708909004
-0.0627000000000002,-52.11796428702795
-0.06370000000000009,-52.91020261495237
-0.0647000000000002,-53.68829382987814
-0.06570000000000009,-54.65029751378637
-0.0667000000000002,-55.56985985869864
-0.0677000000000001,-56.44698086461496
-0.0687000000000002,-57.14018940154883
-0.0697000000000001,-57.79095659948675
-0.07070000000000021,-58.31439978043681
-0.0717000000000001,-58.880284300382826
-0.07270000000000021,-59.44616882032884
-0.0737000000000001,-60.23840714825326
-0.07470000000000021,-61.07308681517363
-0.0757000000000001,-61.936060708091304
-0.07670000000000021,-62.77074037501168
-0.0777000000000001,-63.54883158993744
-0.07870000000000021,-64.15715744887942
-0.0797000000000001,-64.68060062982947
-0.08070000000000022,-65.16160247178358
-0.0817000000000001,-65.68504565273366
-0.08270000000000022,-66.20848883368372
-0.08370000000000011,-66.91584448361623
-0.08470000000000022,-67.7788183765339
-0.08570000000000011,-68.74082206044213
-0.08670000000000022,-69.6603844053544
-0.08770000000000011,-70.57994675026669
-0.08870000000000022,-71.4004793041884
-0.08970000000000011,-72.15027629311687
-0.09070000000000022,-72.80104349105478
-0.09170000000000011,-73.53669336698461
-0.09270000000000023,-74.28649035591307
-0.09370000000000012,-75.06458157083884
-0.09470000000000023,-75.85681989876326
-0.09570000000000012,-76.63491111368903
-0.09670000000000023,-77.34226676362155
-0.09770000000000012,-78.03547530055542
-0.09870000000000023,-78.60135982050144
-0.09970000000000012,-79.1248030014515
-0.10070000000000023,-79.56336350440966
-0.10170000000000012,-80.04436534636378
-0.10270000000000024,-80.46877873632329
-0.10370000000000013,-81.04881036926795
-0.10470000000000024,-81.74201890620182
-0.10570000000000013,-82.56255146012353
-0.10670000000000024,-83.48211380503581
-0.10770000000000013,-84.40167614994809
-0.10870000000000024,-85.32123849486035
-0.10970000000000013,-86.14177104878208
-0.11070000000000024,-86.93400937670651
-0.11170000000000013,-87.71210059163228
-0.11270000000000002,-88.5043389195567
-0.11370000000000013,-89.42390126446898
-0.11470000000000002,-90.24443381839069
-0.11570000000000014,-91.12155482430701
-0.11670000000000003,-91.89964603923279
-0.11770000000000014,-92.64944302816124
-0.11870000000000003,-93.21532754810727
-0.11970000000000014,-93.73877072905732
-0.12070000000000003,-94.21977257101145
-0.12170000000000014,-94.78565709095746
-0.12270000000000003,-95.39398294989942
-0.12370000000000014,-96.27110395581576
-0.12470000000000003,-97.17651918772938
-0.12570000000000014,-98.2234055496295
-0.12670000000000003,-99.22785057253368
-0.12770000000000015,-100.14741291744595
-0.12870000000000004,-100.92550413237171
-0.12970000000000015,-101.54797710431234
-0.13070000000000004,-102.11386162425833
-0.13170000000000015,-102.72218748320032
-0.13270000000000004,-103.41539602013418
-0.13370000000000015,-104.2076343480586
-0.13470000000000004,-105.07060824097626
-0.13570000000000015,-106.0326119248845
-0.13670000000000004,-106.90973293080083
-0.13770000000000016,-107.78685393671715
-0.13870000000000005,-108.43762113465506
-0.13970000000000016,-109.08838833259297
-0.14070000000000005,-109.61183151354304
-0.14170000000000016,-110.22015737248502
-0.14270000000000005,-110.87092457042293
-0.14370000000000016,-111.66316289834735
-0.14470000000000005,-112.54028390426367
-0.14570000000000016,-113.48814047517324
-0.14670000000000005,-114.40770282008553
-0.14770000000000016,-115.36970650399375
-0.14870000000000005,-116.10535637992358
-0.14970000000000017,-116.85515336885203
-0.15070000000000006,-117.54836190578591
-0.15170000000000017,-118.24157044271978
-0.15270000000000006,-118.94892609265229
-0.15370000000000017,-119.81189998556997
-0.15470000000000006,-120.73146233048222
-0.15570000000000017,-121.73590735338641
-0.15670000000000006,-122.65546969829869
-0.15770000000000017,-123.57503204321095
-0.15870000000000006,-124.31068191914078
-0.15970000000000018,-124.9614491170787
-0.16070000000000007,-125.5273336370247
-0.16170000000000018,-126.14980660896532
-0.16270000000000007,-126.71569112891132
-0.16370000000000018,-127.45134100484115
-0.16470000000000007,-128.2294322197669
-0.16570000000000018,-129.10655322568326
-0.16670000000000007,-129.9412328926036
-0.16770000000000018,-130.8042067855213
-0.16870000000000007,-131.5115624354538
-0.16970000000000018,-132.16232963339172
-0.17070000000000007,-132.7706554923337
-0.17170000000000019,-133.46386402926754
-0.17270000000000008,-134.17121967920008
-0.1737000000000002,-135.1332233631083
-0.17470000000000008,-136.08107993401788
-0.1757000000000002,-137.04308361792607
-0.17670000000000008,-137.92020462384244
-0.1777000000000002,-138.7548842907628
-0.17870000000000008,-139.36321014970477
-0.1797000000000002,-139.9290946696508
-0.18070000000000008,-140.45253785060083
-0.1817000000000002,-140.9759810315509
-0.18270000000000008,-141.47112998650366
-0.1837000000000002,-142.31995676642268
-0.1847000000000001,-143.16878354634173
-0.1857000000000002,-144.01761032626072
-0.1867000000000001,-144.86643710617977
-0.1877000000000002,-145.57379275611228
-0.1887000000000001,-146.1396772760583
-0.1897000000000002,-146.7055617960043
-0.1907000000000001,-147.1299751859638
-0.1917000000000001,-147.6958597059098
-0.19269999999999998,-148.26174422585584
-0.1937000000000001,-148.96909987578834
-0.19469999999999998,-149.8179266557074
-0.1957000000000001,-150.66675343562642
-0.19669999999999999,-151.5155802155454
-0.1977000000000001,-152.22293586547795
-0.1987,-152.93029151541046
-0.1997000000000001,-153.49617603535648
-0.2007,-154.0620605553025
-0.2017000000000001,-154.76941620523502
-0.2027,-155.33530072518104
-0.2037000000000001,-156.04265637511355
-0.2047,-156.75001202504606
-0.2057000000000001,-157.7403099349516
-0.2067,-158.5891367148706
-0.2077000000000001,-159.43796349478964
-0.2087,-160.00384801473567
-0.2097000000000001,-160.5697325346817
-0.2107,-160.99414592464117
-0.2117000000000001,-161.41855931460069
-0.2127,-161.84297270456022
-0.2137000000000001,-162.5503283544927
-0.2147,-163.25768400442522
-0.2157000000000001,-164.24798191433075
-0.2167,-164.9553375642633
-0.21770000000000012,-165.8041643441823
-0.2187,-166.51151999411482
-0.21970000000000012,-167.07740451406085
-0.2207,-167.50181790402033
-0.22170000000000012,-167.92623129397984
-0.2227,-168.49211581392586
-0.22370000000000012,-169.19947146385837
-0.2247,-169.9068271137909
-0.22570000000000012,-170.75565389370993
-0.2267,-171.46300954364247
-0.22770000000000012,-172.0288940635885
-0.22870000000000001,-172.45330745354798
-0.22970000000000013,-172.73624971352098
-0.23070000000000002,-173.01919197349397
-0.23170000000000013,-173.44360536345349
-0.23270000000000002,-173.86801875341303
-0.23370000000000013,-174.43390327335902
-0.23470000000000002,-175.14125892329156
-0.23570000000000013,-175.84861457322407
-0.23670000000000002,-176.4144990931701
-0.2376999999999999,-177.1218547431026
-0.23870000000000002,-177.6877392630486
-0.2396999999999999,-178.25362378299462
-0.24070000000000003,-178.67803717295413
-0.24169999999999991,-179.24392169290016
-0.24270000000000003,-179.80980621284618
-0.24369999999999992,-180.5171618627787
-0.24470000000000003,-181.36598864269772
-0.24569999999999992,-182.07334429263022
-0.24670000000000003,-182.78069994256273
-0.24769999999999992,-183.48805559249527
-0.24870000000000003,-183.91246898245475
-0.24969999999999992,-184.33688237241427
-0.25070000000000003,-184.47835350240078
-0.2516999999999999,-184.7612957623738
-0.25270000000000004,-185.0442380223468
-0.2536999999999999,-185.6101225422928
-0.25470000000000004,-186.17600706223882
-0.2556999999999999,-186.74189158218485
-0.25670000000000004,-187.44924723211736
-0.25769999999999993,-187.87366062207687
-0.25870000000000004,-188.29807401203638
-0.25969999999999993,-188.58101627200938
-0.26070000000000004,-189.0054296619689
-0.26169999999999993,-189.2883719219419
-0.26270000000000004,-189.71278531190143
-0.26369999999999993,-190.27866983184742
-0.26470000000000005,-190.84455435179345
-0.26569999999999994,-191.551910001726
-0.26670000000000005,-192.11779452167198
-0.26769999999999994,-192.82515017160452
-0.26870000000000005,-193.249563561564
-0.26969999999999994,-193.532505821537
-0.27070000000000005,-193.6739769515235
-0.27169999999999994,-193.81544808151003
-0.27270000000000005,-194.09839034148303
-0.27369999999999994,-194.38133260145605
-0.27470000000000006,-194.80574599141553
-0.27569999999999995,-195.37163051136156
-0.27670000000000006,-195.79604390132107
-0.27769999999999995,-196.2204572912806
-0.27870000000000006,-196.50339955125358
-0.27969999999999995,-196.50339955125358
-0.28070000000000006,-196.6448706812401
-0.28169999999999995,-196.6448706812401
-0.28270000000000006,-196.7863418112266
-0.28369999999999995,-197.21075520118612
-0.28470000000000006,-197.49369746115914
-0.28569999999999995,-197.91811085111863
-0.28670000000000007,-198.3425242410781
-0.28769999999999996,-198.62546650105114
-0.28870000000000007,-198.76693763103765
-0.28969999999999996,-198.90840876102413
-0.29070000000000007,-198.90840876102413
-0.29169999999999996,-198.90840876102413
-0.29270000000000007,-199.04987989101065
-0.29369999999999996,-199.33282215098367
-0.2947000000000001,-199.61576441095667
-0.29569999999999996,-200.04017780091618
-0.2967000000000001,-200.3231200608892
-0.29769999999999996,-200.6060623208622
-0.2987000000000001,-200.7475334508487
-0.29969999999999997,-200.88900458083523
-0.3007000000000001,-200.88900458083523
-0.30169999999999997,-200.88900458083523
-0.3027000000000001,-200.88900458083523
-0.30369999999999997,-201.17194684080823
-0.3047000000000001,-201.4548891007812
-0.30569999999999997,-201.87930249074074
-0.3067000000000001,-202.02077362072723
-0.3077,-202.16224475071377
-0.3087000000000001,-202.16224475071377
-0.3097,-202.02077362072723
-0.3107000000000001,-201.87930249074074
-0.3117,-201.73783136075423
-0.3127000000000001,-201.73783136075423
-0.3137,-201.87930249074074
-0.3147000000000001,-202.02077362072723
-0.3157,-202.16224475071377
-0.3167000000000001,-202.44518701068677
-0.3177,-202.58665814067325
-0.3187000000000001,-202.58665814067325
-0.3197,-202.44518701068677
-0.3207000000000001,-202.02077362072723
-0.3217,-201.87930249074074
-0.3227000000000001,-201.4548891007812
-0.3237,-201.31341797079472
-0.3247000000000001,-201.4548891007812
-0.3257,-201.59636023076774
-0.3267000000000001,-201.87930249074074
-0.3277,-202.02077362072723
-0.3287000000000001,-202.16224475071377
-0.3297,-202.02077362072723
-0.3307000000000001,-202.02077362072723
-0.3317,-201.87930249074074
-0.3327000000000001,-201.87930249074074
-0.3337,-202.02077362072723
-0.3347000000000001,-202.16224475071377
-0.3357,-202.44518701068677
-0.3367000000000001,-202.58665814067325
-0.3377,-202.7281292706598
-0.3387000000000001,-202.7281292706598
-0.3397,-202.58665814067325
-0.3407000000000001,-202.44518701068677
-0.3417,-202.30371588070025
-0.3427000000000001,-202.02077362072723
-0.3437,-202.02077362072723
-0.3447000000000001,-202.02077362072723
-0.3457,-202.02077362072723
-0.3467000000000001,-201.87930249074074
-0.3477,-201.87930249074074
-0.3487000000000001,-201.73783136075423
-0.3497,-201.31341797079472
-0.3507000000000001,-201.03047571082172
-0.3517,-200.7475334508487
-0.3527000000000001,-200.4645911908757
-0.3537,-200.4645911908757
-0.3547000000000001,-200.7475334508487
-0.3557,-201.03047571082172
-0.35670000000000013,-201.17194684080823
-0.3577,-201.4548891007812
-0.35870000000000013,-201.4548891007812
-0.3597,-201.4548891007812
-0.36070000000000013,-201.31341797079472
-0.3617,-201.31341797079472
-0.3626999999999999,-201.17194684080823
-0.3637,-201.17194684080823
-0.3646999999999999,-201.17194684080823
-0.3657,-201.17194684080823
-0.3666999999999999,-201.17194684080823
-0.3677,-201.31341797079472
-0.3686999999999999,-201.31341797079472
-0.36970000000000003,-201.31341797079472
-0.3706999999999999,-201.31341797079472
-0.37170000000000003,-201.17194684080823
-0.3726999999999999,-201.03047571082172
-0.37370000000000003,-201.03047571082172
-0.3746999999999999,-201.03047571082172
-0.37570000000000003,-201.31341797079472
-0.3766999999999999,-201.4548891007812
-0.37770000000000004,-201.59636023076774
-0.3786999999999999,-201.4548891007812
-0.37970000000000004,-201.31341797079472
-0.3806999999999999,-201.17194684080823
-0.38170000000000004,-201.03047571082172
-0.38269999999999993,-201.03047571082172
-0.38370000000000004,-201.17194684080823
-0.38469999999999993,-201.4548891007812
-0.38570000000000004,-201.59636023076774
-0.38669999999999993,-200.3231200608892
-0.38570000000000004,-196.6448706812401
-0.38469999999999993,-192.966621301591
-0.38370000000000004,-189.57131418191491
-0.38269999999999993,-186.17600706223882
-0.38170000000000004,-182.92217107254925
-0.3806999999999999,-179.80980621284618
-0.37970000000000004,-176.6974413531431
-0.3786999999999999,-173.86801875341303
-0.37770000000000004,-171.18006728366944
-0.3766999999999999,-168.49211581392586
-0.37570000000000003,-165.8041643441823
-0.3746999999999999,-163.11621287443873
-0.37370000000000003,-160.5697325346817
-0.3726999999999999,-157.88178106493808
-0.37170000000000003,-155.33530072518104
-0.3706999999999999,-153.07176264539694
-0.36970000000000003,-150.8082245656129
-0.3686999999999999,-148.68615761581535
-0.3677,-146.7055617960043
-0.3666999999999999,-144.72496597619326
-0.3657,-142.6028990263957
-0.3646999999999999,-140.36765517260895
-0.3637,-138.00508730183432
-0.3626999999999999,-135.65666654405837
-0.3617,-133.29409867328377
-0.36070000000000013,-131.07300193249566
-0.3597,-129.02167054769134
-0.35870000000000013,-127.05522184087894
-0.3577,-125.23024426405304
-0.35670000000000013,-123.34867823523254
-0.3557,-121.52370065840667
-0.3547000000000001,-119.64213462958614
-0.3537,-117.67568592277377
-0.3527000000000001,-115.80826700695191
-0.3517,-113.96914231712736
-0.3507000000000001,-112.14416474030146
-0.3497,-110.4465111804634
-0.3487000000000001,-108.77715184662266
-0.3477,-107.20682230377247
-0.3467000000000001,-105.63649276092228
-0.3457,-104.06616321807209
-0.3447000000000001,-102.45339233622596
-0.3437,-100.75573877638791
-0.3427000000000001,-98.83173140857146
-0.3417,-97.00675383174556
-0.3407000000000001,-95.08274646392913
-0.3397,-93.38509290409107
-0.3387000000000001,-91.77232202224494
-0.3377,-90.37175783537855
-0.3367000000000001,-88.9853407615108
-0.3357,-87.62721791364037
-0.3347000000000001,-86.18421238777805
-0.3337,-84.75535397491434
-0.3327000000000001,-83.08599464107361
-0.3317,-81.51566509822342
-0.3307000000000001,-80.00192400736783
-0.3297,-78.60135982050144
-0.3287000000000001,-77.28567831162695
-0.3277,-76.06902659374302
-0.3267000000000001,-74.76749219786718
-0.3257,-73.32448667200485
-0.3247000000000001,-71.75415712915466
-0.3237,-70.26871026429637
-0.3227000000000001,-68.65593938245023
-0.3217,-67.21293385658788
-0.3207000000000001,-65.91139946071206
-0.3197,-64.82207175981598
-0.3187000000000001,-63.81762673691181
-0.3177,-62.94050573099548
-0.3167000000000001,-61.936060708091304
-0.3157,-60.93161568518713
-0.3147000000000001,-59.67252262830725
-0.3137,-58.31439978043681
-0.3127000000000001,-56.88554136757313
-0.3117,-55.442535841710786
-0.3107000000000001,-54.08441299384035
-0.3097,-52.86776127595642
-0.3087000000000001,-51.65110955807249
-0.3077,-50.50519340518181
-0.3067000000000001,-49.41586570428573
-0.30569999999999997,-48.24165532539775
-0.3047000000000001,-46.94012092952192
-0.30369999999999997,-45.53955674265553
-0.3027000000000001,-44.181433894785094
-0.30169999999999997,-43.007223515897124
-0.3007000000000001,-41.87545447600508
-0.29969999999999997,-41.04077480908471
-0.2987000000000001,-40.26268359415894
-0.29769999999999996,-39.61191639622103
-0.2967000000000001,-38.81967806829661
-0.29569999999999996,-37.94255706238028
-0.2947000000000001,-36.8532293614842
-0.29369999999999996,-35.679018982596226
-0.29270000000000007,-34.377484586720385
-0.29169999999999996,-33.10424441684186
-0.29070000000000007,-31.887592698957924
-0.28969999999999996,-30.88314767605375
-0.28870000000000007,-29.96358533114148
-0.28769999999999996,-29.14305277721976
-0.28670000000000007,-28.22349043230748
-0.28569999999999995,-27.34636942639116
-0.28470000000000006,-26.29948306449103
-0.28369999999999995,-25.167714024599
-0.28270000000000006,-24.035944984706973
-0.28169999999999995,-22.904175944814945
-0.28070000000000006,-21.814848243918867
-0.27969999999999995,-20.93772723800254
-0.27870000000000006,-20.159636023076775
-0.27769999999999995,-19.409839034148305
-0.27670000000000006,-18.674189158218486
-0.27569999999999995,-17.924392169290012
-0.27470000000000006,-17.018976937376394
-0.27369999999999994,-16.014531914472215
-0.27270000000000005,-14.925204213576137
-0.27169999999999994,-13.916515056772363
-0.27070000000000005,-12.913484745168056
-0.26969999999999994,-12.084463923447142
-0.26870000000000005,-11.343155202317865
