Potential V vs RHE, Current mA cm-2
0.013299999999999867,0.07826182910853383
0.012299999999999978,-0.911781432763016
0.011299999999999866,-1.4896909987578837
0.010299999999999976,-1.9282515017160449
0.009299999999999864,-2.3427619125765005
0.008299999999999974,-2.69926916014249
0.007299999999999862,-2.972308441016442
0.006299999999999972,-3.153391487399167
0.00529999999999986,-3.3330598224820265
0.0042999999999999705,-3.5848784338580026
0.0032999999999998586,-3.8282087774347895
0.0022999999999999687,-3.992315288219133
0.0012999999999998568,-4.115395171307392
0.00029999999999996696,-4.242719188295245
-0.000700000000000145,-4.443608192876081
-0.0017000000000000348,-4.650156042656376
-0.0027000000000001467,-4.776065348344364
-0.0037000000000000366,-4.872265716735186
-0.0047000000000001485,-4.98827204332412
-0.005700000000000038,-5.170769801006709
-0.00670000000000015,-5.371658805587544
-0.00770000000000004,-5.493323977375938
-0.008700000000000152,-5.5866949231670295
-0.009700000000000042,-5.7111895175551535
-0.010700000000000154,-5.900760831737068
-0.011700000000000044,-6.0917468572188485
-0.012700000000000156,-6.224729719406161
-0.013700000000000045,-6.306782974798334
-0.014700000000000157,-6.431277569186457
-0.015700000000000047,-6.608116481669587
-0.01670000000000016,-6.817493754049612
-0.01770000000000005,-6.9646237292355755
-0.01870000000000016,-7.059409386326533
-0.01970000000000005,-7.195221671113577
-0.020700000000000163,-7.391866541794816
-0.021700000000000053,-7.647929287070388
-0.022700000000000164,-7.809206375255003
-0.023700000000000054,-7.8983331871465
-0.024700000000000166,-8.017168936335162
-0.025700000000000056,-8.236449187814243
-0.026700000000000168,-8.482608953990761
-0.027700000000000058,-8.666521422973215
-0.02870000000000017,-8.802333707760258
-0.02970000000000006,-8.953707816845819
-0.03070000000000017,-9.181476336124089
-0.03170000000000006,-9.4318802362002
-0.03270000000000017,-9.62003683908225
-0.03370000000000006,-9.788387483766188
-0.034700000000000175,-9.966641107549185
-0.035700000000000065,-10.208556739826104
-0.03670000000000018,-10.48018130940019
-0.03770000000000007,-10.685314447880621
-0.03870000000000018,-10.855079803864427
-0.03970000000000007,-11.055968808445261
-0.04070000000000018,-11.341740491018
-0.04170000000000007,-11.654391688288172
-0.04270000000000018,-11.875086651067118
-0.04370000000000007,-12.056169697449842
-0.044700000000000184,-12.268376392429598
-0.045700000000000074,-12.540000962003685
-0.046700000000000186,-12.875287540071698
-0.047700000000000076,-13.127106151447675
-0.04870000000000019,-13.308189197830401
-0.04970000000000008,-13.547275407507591
-0.05070000000000019,-13.874073717776414
-0.05170000000000008,-14.231995676642269
-0.05270000000000019,-14.514937936615278
-0.05370000000000008,-14.783733083589633
-0.05470000000000019,-15.02423400456669
-0.05570000000000008,-15.335470490536997
-0.056700000000000195,-15.70329542850191
-0.057700000000000085,-16.014531914472215
-0.058700000000000196,-16.25503283544927
-0.059700000000000086,-16.52382798242363
-0.0607000000000002,-16.877505807389888
-0.06170000000000009,-17.259477858353446
-0.0627000000000002,-17.599008570321057
-0.06370000000000009,-17.853656604296763
-0.0647000000000002,-18.15074597726842
-0.06570000000000009,-18.518570915233333
-0.0667000000000002,-18.92883719219419
-0.0677000000000001,-19.296662130159103
-0.0687000000000002,-19.60789861612941
-0.0697000000000001,-19.904987989101066
-0.07070000000000021,-20.329401379060574
-0.0717000000000001,-20.72552054302279
-0.07270000000000021,-21.008462802995794
-0.0737000000000001,-21.333846401964752
-0.07470000000000021,-21.701671339929664
-0.0757000000000001,-22.126084729889175
-0.07670000000000021,-22.564645232847337
-0.0777000000000001,-22.960764396809545
-0.07870000000000021,-23.286147995778503
-0.0797000000000001,-23.61153159474746
-0.08070000000000022,-24.021797871708326
-0.0817000000000001,-24.488652600663784
-0.08270000000000022,-24.927213103621945
-0.08370000000000011,-25.295038041586857
-0.08470000000000022,-25.648715866553115
-0.08570000000000011,-26.101423482509926
-0.08670000000000022,-26.568278211465387
-0.08770000000000011,-26.9643973754276
-0.08870000000000022,-27.31807520039386
-0.08970000000000011,-27.714194364356068
-0.09070000000000022,-28.13860775431558
-0.09170000000000011,-28.647903822266994
-0.09270000000000023,-29.086464325225155
-0.09370000000000012,-29.496730602186016
-0.09470000000000023,-29.906996879146874
-0.09570000000000012,-30.37385160810234
-0.09670000000000023,-30.8690005630551
-0.09770000000000012,-31.321708179011907
-0.09870000000000023,-31.703680229975475
-0.09970000000000012,-32.12809361993498
-0.10070000000000023,-32.62324257488775
-0.10170000000000012,-33.160832868836465
-0.10270000000000024,-33.59939337179462
-0.10370000000000013,-34.02380676175414
-0.10470000000000024,-34.43407303871499
-0.10570000000000013,-34.81604508967855
-0.10670000000000024,-35.297046931632664
-0.10770000000000013,-35.707313208593526
-0.10870000000000024,-36.07513814655844
-0.10970000000000013,-36.61272844050715
-0.11070000000000024,-37.249348525446415
-0.11170000000000013,-37.82938015839108
-0.11270000000000002,-38.29623488734655
-0.11370000000000013,-38.692354051308754
-0.11470000000000002,-39.159208780264215
-0.11570000000000014,-39.66850484821563
-0.11670000000000003,-40.220242255162994
-0.11770000000000014,-40.729538323114404
-0.11870000000000003,-41.15395171307392
-0.11970000000000014,-41.606659329030734
-0.12070000000000003,-42.130102509980794
-0.12170000000000014,-42.71013414292546
-0.12270000000000003,-43.17698887188092
-0.12370000000000014,-43.629696487837734
-0.12470000000000003,-44.096551216793195
-0.12570000000000014,-44.73317130173246
-0.12670000000000003,-45.242467369683865
-0.12770000000000015,-45.581998081651484
-0.12870000000000004,-46.062999923605595
-0.12970000000000015,-46.572295991557006
-0.13070000000000004,-47.08159205950842
-0.13170000000000015,-47.633329466455784
-0.13270000000000004,-48.1992139864018
-0.13370000000000015,-48.73680428035051
-0.13470000000000004,-49.21780612230463
-0.13570000000000015,-49.67051373826144
-0.13670000000000004,-50.1656626932142
-0.13770000000000016,-50.63251742216966
-0.13870000000000005,-51.09937215112513
-0.13970000000000016,-51.53793265408329
-0.14070000000000005,-52.075522948032
-0.14170000000000016,-52.79702571096317
-0.14270000000000005,-53.37705734390783
-0.14370000000000016,-53.82976495986464
-0.14470000000000005,-54.31076680181876
-0.14570000000000016,-54.791768643772876
-0.14670000000000005,-55.28691759872564
-0.14770000000000016,-55.7820665536784
-0.14870000000000005,-56.26306839563251
-0.14970000000000017,-56.72992312458797
-0.15070000000000006,-57.23921919253939
-0.15170000000000017,-57.86169216448
-0.15270000000000006,-58.41342957142736
-0.15370000000000017,-58.85199007438552
-0.15470000000000006,-59.26225635134639
-0.15570000000000017,-59.7432581933005
-0.15670000000000006,-60.21011292225596
-0.15770000000000017,-60.70526187720872
-0.15870000000000006,-61.25699928415608
-0.15970000000000018,-61.7380011261102
-0.16070000000000007,-62.21900296806431
-0.16170000000000018,-62.72829903601572
-0.16270000000000007,-63.13856531297658
-0.16370000000000018,-63.59127292893339
-0.16470000000000007,-64.11471610988345
-0.16570000000000018,-64.65230640383218
-0.16670000000000007,-65.26063226277414
-0.16770000000000018,-65.6991927657323
-0.16870000000000007,-66.13775326869046
-0.16970000000000018,-66.59046088464727
-0.17070000000000007,-67.04316850060408
-0.17170000000000019,-67.43928766456631
-0.17270000000000008,-67.82125971552985
-0.1737000000000002,-68.24567310548937
-0.17470000000000008,-68.61349804345427
-0.1757000000000002,-68.91058741642594
-0.17670000000000008,-69.19352967639895
-0.1777000000000002,-69.36329503238275
-0.17870000000000008,-69.50476616236925
-0.1797000000000002,-70.09894490831257
-0.18070000000000008,-70.72141788025318
-0.1817000000000002,-71.15997838321134
-0.18270000000000008,-71.44292064318435
-0.1837000000000002,-71.66927445116276
-0.1847000000000001,-71.93806959813712
-0.1857000000000002,-72.30589453610202
-0.1867000000000001,-72.70201370006424
-0.1877000000000002,-73.0556915250305
-0.1887000000000001,-73.32448667200485
-0.1897000000000002,-73.66401738397246
-0.1907000000000001,-74.03184232193736
-0.1917000000000001,-74.24404901691713
-0.19269999999999998,-74.49869705089283
-0.1937000000000001,-74.65431529387797
-0.19469999999999998,-74.7109037458726
-0.1957000000000001,-74.89481621485504
-0.19669999999999999,-75.220199813824
-0.1977000000000001,-75.50314207379701
-0.1987,-75.78608433377002
-0.1997000000000001,-75.91340835075786
-0.2007,-76.16805638473357
-0.2017000000000001,-76.42270441870929
-0.2027,-76.56417554869579
-0.2037000000000001,-76.74808801767824
-0.2047,-76.7339409046796
-0.2057000000000001,-76.9037062606634
-0.2067,-77.14420718164045
-0.2077000000000001,-77.22908985963235
-0.2087,-77.32811965062291
-0.2097000000000001,-77.35641387662021
-0.2107,-77.39885521561615
-0.2117000000000001,-77.65350324959186
-0.2127,-77.87985705757028
-0.2137000000000001,-77.90815128356756
-0.2147,-77.99303396155948
-0.2157000000000001,-78.21938776953787
-0.2167,-78.33256467352709
-0.21770000000000012,-78.30427044752979
-0.2187,-78.02132818755678
-0.21970000000000012,-77.7525330405824
-0.2207,-77.51203211960537
-0.22170000000000012,-77.59691479759726
-0.2227,-77.66765036259052
-0.22370000000000012,-77.7242388145851
-0.2247,-77.82326860557566
-0.22570000000000012,-77.85156283157298
-0.2267,-77.85156283157298
-0.22770000000000012,-77.76668015358106
-0.22870000000000001,-77.63935613659322
-0.22970000000000013,-77.48373789360807
-0.23070000000000002,-77.31397253762425
-0.23170000000000013,-77.18664852063641
-0.23270000000000002,-77.11591295564315
-0.23370000000000013,-76.97444182565664
-0.23470000000000002,-76.83297069567014
-0.23570000000000013,-76.70564667868229
-0.23670000000000002,-76.70564667868229
-0.2376999999999999,-76.53588132269847
-0.23870000000000002,-76.52173420969983
-0.2396999999999999,-76.36611596671467
-0.24070000000000003,-76.23879194972683
-0.24169999999999991,-76.18220349773222
-0.24270000000000003,-75.99829102874978
-0.24369999999999992,-75.7577901077727
-0.24470000000000003,-75.50314207379701
-0.24569999999999992,-75.2484940398213
-0.24670000000000003,-75.20605270082535
-0.24769999999999992,-74.9938460058456
-0.24870000000000003,-74.72505085887124
-0.24969999999999992,-74.55528550288744
-0.25070000000000003,-74.38552014690363
-0.2516999999999999,-74.25819612991579
-0.25270000000000004,-74.07428366093333
-0.2536999999999999,-73.83378273995626
-0.25470000000000004,-73.4235164629954
-0.2556999999999999,-73.23960399401295
-0.25670000000000004,-72.94251462104128
-0.25769999999999993,-72.81519060405343
-0.25870000000000004,-72.77274926505748
-0.25969999999999993,-72.70201370006424
-0.26070000000000004,-72.58883679607503
-0.26169999999999993,-72.44736566608852
-0.26270000000000004,-72.30589453610202
-0.26369999999999993,-72.03709938912766
-0.26470000000000005,-71.8531869201452
-0.26569999999999994,-71.6834215641614
-0.26670000000000005,-71.64098022516546
-0.26769999999999994,-71.5136562081776
-0.26870000000000005,-71.32974373919515
-0.26969999999999994,-71.1458312702127
-0.27070000000000005,-71.0326543662235
-0.27169999999999994,-70.90533034923564
-0.27270000000000005,-70.91947746223428
-0.27369999999999994,-70.67897654125723
-0.27470000000000006,-70.53750541127073
-0.27569999999999995,-70.49506407227477
-0.27670000000000006,-70.53750541127073
-0.27769999999999995,-70.57994675026669
-0.27870000000000006,-70.46676984627747
-0.27969999999999995,-70.35359294228827
-0.28070000000000006,-70.31115160329232
-0.28169999999999995,-70.39603428128423
-0.28270000000000006,-70.48091695927613
-0.28369999999999995,-70.53750541127073
-0.28470000000000006,-70.59409386326533
-0.28569999999999995,-70.36774005528693
-0.28670000000000007,-70.50921118527343
-0.28769999999999996,-70.70727076725453
-0.28870000000000007,-70.93362457523294
-0.28969999999999996,-71.06094859222078
-0.29070000000000007,-71.15997838321134
-0.29169999999999996,-71.27315528720055
-0.29270000000000007,-71.45706775618301
-0.29369999999999996,-71.58439177317086
-0.2947000000000001,-71.76830424215332
-0.29569999999999996,-72.03709938912766
-0.2967000000000001,-72.34833587509796
-0.29769999999999996,-72.58883679607503
-0.2987000000000001,-72.6878665870656
-0.29969999999999997,-72.84348483005074
-0.3007000000000001,-73.21130976801565
-0.30169999999999997,-73.62157604497652
-0.3027000000000001,-74.0176952089387
-0.30369999999999997,-74.25819612991579
-0.3047000000000001,-74.54113838988879
-0.30569999999999997,-74.83822776286046
-0.3067000000000001,-75.23434692682265
-0.3077,-75.57387763879026
-0.3087000000000001,-75.94170257675518
-0.3097,-76.28123328872279
-0.3107000000000001,-76.67735245268499
-0.3117,-77.14420718164045
-0.3127000000000001,-77.56862057159996
-0.3137,-77.8940041705689
-0.3147000000000001,-78.31841756052843
-0.3157,-78.8984491934731
-0.3167000000000001,-79.42189237442317
-0.3177,-79.94533555537322
-0.3187000000000001,-80.36974894533273
-0.3197,-80.65269120530574
-0.3207000000000001,-81.02051614327065
-0.3217,-80.92148635228011
-0.3227000000000001,-81.30345840324367
-0.3237,-81.78446024519776
-0.3247000000000001,-82.12399095716538
-0.3257,-82.59084568612084
-0.3267000000000001,-83.01525907608035
-0.3277,-83.39723112704392
-0.3287000000000001,-83.86408585599938
-0.3297,-84.21776368096563
-0.3307000000000001,-84.59973573192919
-0.3317,-84.84023665290624
-0.3327000000000001,-85.2222087038698
-0.3337,-85.47685673784551
-0.3347000000000001,-85.50515096384281
-0.3357,-85.73150477182124
-0.3367000000000001,-86.26909506576993
-0.3377,-86.55203732574294
-0.3387000000000001,-86.79253824672
-0.3397,-86.94815648970517
-0.3407000000000001,-87.24524586267681
-0.3417,-87.55648234864712
-0.3427000000000001,-87.85357172161878
-0.3437,-88.16480820758908
-0.3447000000000001,-88.23554377258235
-0.3457,-88.43360335456343
-0.3467000000000001,-88.6741042755405
-0.3477,-88.9853407615108
-0.3487000000000001,-89.22584168248785
-0.3497,-89.38145992547301
-0.3507000000000001,-89.59366662045278
-0.3517,-89.72099063744062
-0.3527000000000001,-90.23028670539205
-0.3537,-90.7537298863421
-0.3547000000000001,-91.14984905030431
-0.3557,-91.07911348531105
-0.35670000000000013,-90.9517894683232
-0.3577,-91.39034997128137
-0.35870000000000013,-91.85720470023682
-0.3597,-92.25332386419905
-0.36070000000000013,-92.5221190111734
-0.3617,-92.96067951413156
-0.3626999999999999,-93.35679867809377
-0.3637,-93.75291784205598
-0.3646999999999999,-94.13488989301955
-0.3657,-94.81395131695474
-0.3666999999999999,-95.67692520987244
-0.3677,-96.7662529107685
-0.3686999999999999,-98.05364019364569
-0.36970000000000003,-99.77958797948104
-0.3706999999999999,-102.02897894626645
-0.37170000000000003,-104.22178146105726
-0.3726999999999999,-106.65508489682512
-0.37370000000000003,-109.44206615755924
-0.3746999999999999,-112.05928206230955
-0.37570000000000003,-115.0726171310221
-0.3766999999999999,-118.02936374774
-0.37770000000000004,-121.12758149444444
-0.3786999999999999,-123.97115120717316
-0.37970000000000004,-126.77227958090594
-0.3806999999999999,-129.70073197162657
-0.38170000000000004,-132.3462421023742
-0.38269999999999993,-135.1332233631083
-0.38370000000000004,-137.9626459628384
-0.38469999999999993,-140.18374270362645
-0.38570000000000004,-142.31995676642268
-0.38669999999999993,-142.6028990263957
-0.38570000000000004,-141.47112998650366
-0.38469999999999993,-140.3818022856076
-0.38370000000000004,-139.13685634172634
-0.38269999999999993,-137.9626459628384
-0.38170000000000004,-136.7884355839504
-0.3806999999999999,-135.82643190004217
-0.37970000000000004,-134.34098503518388
-0.3786999999999999,-132.7423612663364
-0.37770000000000004,-131.44082687046057
-0.3766999999999999,-130.50711741254963
-0.37570000000000003,-129.40364259865493
-0.3746999999999999,-128.32846201075745
-0.37370000000000003,-127.4088996658452
-0.3726999999999999,-126.39030752994238
-0.37170000000000003,-125.4707451850301
-0.3706999999999999,-124.12676945015832
-0.36970000000000003,-122.81108794128383
-0.3686999999999999,-121.43881798041474
-0.3677,-119.99581245455242
-0.3666999999999999,-118.83574918866307
-0.3657,-117.59080324478184
-0.3646999999999999,-116.30341596190465
-0.3637,-115.12920558301667
-0.3626999999999999,-113.94084809113006
-0.3617,-112.71004926024747
-0.36070000000000013,-111.54998599435814
-0.3597,-110.2484515984823
-0.35870000000000013,-108.98935854160243
-0.3577,-107.53220590274144
-0.35670000000000013,-106.27311284586155
-0.3557,-104.98572556298437
-0.3547000000000001,-103.71248539310584
-0.3537,-102.36850965823406
-0.3527000000000001,-101.34991752233122
-0.3517,-100.23229559543785
-0.3507000000000001,-98.97320253855796
-0.3497,-97.44531433470372
-0.3487000000000001,-95.71936654886838
-0.3477,-94.318802362002
-0.3467000000000001,-93.01726796612617
-0.3457,-92.08355850821525
-0.3447000000000001,-90.6688472083502
-0.3437,-89.36731281247435
-0.3427000000000001,-88.13651398159179
-0.3417,-86.75009690772404
-0.3407000000000001,-85.59003364183472
-0.3397,-84.28849924595887
-0.3387000000000001,-83.029406189079
-0.3377,-81.72787179320316
-0.3367000000000001,-80.7800152222936
-0.3357,-79.73312886039348
-0.3347000000000001,-78.41744735151899
-0.3337,-77.1300600686418
-0.3327000000000001,-76.0407323677457
-0.3317,-74.95140466684964
-0.3307000000000001,-73.74890006196436
-0.3297,-72.37663010109527
-0.3287000000000001,-70.9760659142289
-0.3277,-69.84429687433686
-0.3267000000000001,-68.71252783444483
-0.3257,-67.53831745555684
-0.3247000000000001,-66.43484264166212
-0.3237,-65.2181909237782
-0.3227000000000001,-64.18545167487672
-0.3217,-63.01124129598873
-0.3207000000000001,-61.936060708091304
-0.3197,-60.691114764210084
-0.3187000000000001,-59.64422840230995
-0.3177,-58.30025266743816
-0.3167000000000001,-57.08360094955424
-0.3157,-56.008420361656796
-0.3147000000000001,-55.018122451751275
-0.3137,-53.872206298860604
-0.3127000000000001,-52.88190838895507
-0.3117,-51.792580688059
-0.3107000000000001,-50.71740010016157
-0.3097,-49.628072399265484
-0.3087000000000001,-48.524597585370756
-0.3077,-47.421122771476035
-0.3067000000000001,-46.36008929657725
-0.30569999999999997,-45.39808561266902
-0.3047000000000001,-44.3794934767662
-0.30369999999999997,-43.31846000186743
-0.3027000000000001,-42.29986786596459
-0.30169999999999997,-41.36615840805367
-0.3007000000000001,-40.40415472414545
-0.29969999999999997,-39.39970970124127
-0.2987000000000001,-38.3669704523398
-0.29769999999999996,-37.617173463411326
-0.2967000000000001,-36.655169779503105
-0.29569999999999996,-35.87707856457733
-0.2947000000000001,-34.90092776767045
-0.29369999999999996,-33.825747179773025
-0.29270000000000007,-32.90618483486075
-0.29169999999999996,-32.05735805494172
-0.29070000000000007,-31.22267838802136
-0.28969999999999996,-30.303116043109085
-0.28870000000000007,-29.42599503719276
-0.28769999999999996,-28.577168257273744
-0.28670000000000007,-27.799077042347974
-0.28569999999999995,-26.992691601424898
-0.28470000000000006,-26.14386482150588
-0.28369999999999995,-25.295038041586857
-0.28270000000000006,-24.601829504652986
-0.28169999999999995,-23.809591176728567
-0.28070000000000006,-23.059794187800097
-0.27969999999999995,-22.295850085872978
-0.27870000000000006,-21.447023305953955
-0.27769999999999995,-20.654784978029536
-0.27670000000000006,-20.07475334508487
-0.27569999999999995,-19.409839034148305
-0.27470000000000006,-18.688336271217132
-0.27369999999999994,-17.952686395287316
-0.27270000000000005,-17.316066310348052
-0.27169999999999994,-16.70774045140608
-0.27070000000000005,-16.170150157457368
-0.26969999999999994,-15.4203531685289
-0.26870000000000005,-14.741291744593681
-0.26769999999999994,-14.12872175175212
-0.26670000000000005,-13.574154922205025
-0.26569999999999994,-13.029491071756988
-0.26470000000000005,-12.408432811116237
-0.26369999999999993,-11.797277529574542
