Jan. 9, 2025   18:59:01
Cyclic Voltammetry
File: c:/users/guazh/data/banditlqround7_x0exp772_r5/2025-01-08-exp811\exp811-2025-01-09t18_53_33-h2koh\exp811_cv_sr_50mvs_efin_-1400mv.bin
Data Source:  Experiment
Instrument Model:  CHI760E
Header: CV ran at 50 mVs
Note: 

Init E (V) = -1
High E (V) = -1
Low E (V) = -1.4
Final E (V) = -1
Init P/N = N
Scan Rate (V/s) = 0.05
Segment = 3
Sample Interval (V) = 0.001
Quiet Time (sec) = 2
Sensitivity (A/V) = 0.01
Comp R (ohm) = 1.5

Results:

Channel 1:
Segment 1:

Segment 2:

Segment 3:

Potential/V, Current/A

-1.000, -8.753e-4
-1.001, -7.824e-4
-1.002, -7.086e-4
-1.003, -6.504e-4
-1.004, -5.992e-4
-1.005, -5.494e-4
-1.006, -5.011e-4
-1.007, -4.539e-4
-1.008, -4.133e-4
-1.009, -3.823e-4
-1.010, -3.453e-4
-1.011, -3.080e-4
-1.012, -2.715e-4
-1.013, -2.411e-4
-1.014, -2.138e-4
-1.015, -1.843e-4
-1.016, -1.531e-4
-1.017, -1.221e-4
-1.018, -9.695e-5
-1.019, -7.455e-5
-1.020, -4.948e-5
-1.021, -2.202e-5
-1.022, 5.099e-6
-1.023, 2.704e-5
-1.024, 4.674e-5
-1.025, 6.903e-5
-1.026, 9.348e-5
-1.027, 1.176e-4
-1.028, 1.364e-4
-1.029, 1.529e-4
-1.030, 1.732e-4
-1.031, 1.957e-4
-1.032, 2.158e-4
-1.033, 2.322e-4
-1.034, 2.469e-4
-1.035, 2.657e-4
-1.036, 2.898e-4
-1.037, 3.103e-4
-1.038, 3.268e-4
-1.039, 3.398e-4
-1.040, 3.562e-4
-1.041, 3.778e-4
-1.042, 3.965e-4
-1.043, 4.118e-4
-1.044, 4.249e-4
-1.045, 4.448e-4
-1.046, 4.607e-4
-1.047, 4.792e-4
-1.048, 4.949e-4
-1.049, 5.066e-4
-1.050, 5.269e-4
-1.051, 5.436e-4
-1.052, 5.629e-4
-1.053, 5.755e-4
-1.054, 5.875e-4
-1.055, 6.048e-4
-1.056, 6.230e-4
-1.057, 6.433e-4
-1.058, 6.564e-4
-1.059, 6.682e-4
-1.060, 6.857e-4
-1.061, 7.037e-4
-1.062, 7.217e-4
-1.063, 7.371e-4
-1.064, 7.484e-4
-1.065, 7.649e-4
-1.066, 7.835e-4
-1.067, 8.020e-4
-1.068, 8.161e-4
-1.069, 8.287e-4
-1.070, 8.447e-4
-1.071, 8.633e-4
-1.072, 8.821e-4
-1.073, 8.979e-4
-1.074, 9.068e-4
-1.075, 9.239e-4
-1.076, 9.418e-4
-1.077, 9.599e-4
-1.078, 9.720e-4
-1.079, 9.849e-4
-1.080, 9.994e-4
-1.081, 1.021e-3
-1.082, 1.039e-3
-1.083, 1.060e-3
-1.084, 1.068e-3
-1.085, 1.079e-3
-1.086, 1.095e-3
-1.087, 1.118e-3
-1.088, 1.133e-3
-1.089, 1.149e-3
-1.090, 1.163e-3
-1.091, 1.181e-3
-1.092, 1.199e-3
-1.093, 1.209e-3
-1.094, 1.221e-3
-1.095, 1.236e-3
-1.096, 1.257e-3
-1.097, 1.275e-3
-1.098, 1.287e-3
-1.099, 1.298e-3
-1.100, 1.317e-3
-1.101, 1.337e-3
-1.102, 1.351e-3
-1.103, 1.369e-3
-1.104, 1.380e-3
-1.105, 1.396e-3
-1.106, 1.416e-3
-1.107, 1.437e-3
-1.108, 1.451e-3
-1.109, 1.451e-3
-1.110, 1.470e-3
-1.111, 1.485e-3
-1.112, 1.505e-3
-1.113, 1.526e-3
-1.114, 1.535e-3
-1.115, 1.553e-3
-1.116, 1.567e-3
-1.117, 1.580e-3
-1.118, 1.592e-3
-1.119, 1.607e-3
-1.120, 1.624e-3
-1.121, 1.643e-3
-1.122, 1.663e-3
-1.123, 1.674e-3
-1.124, 1.685e-3
-1.125, 1.697e-3
-1.126, 1.719e-3
-1.127, 1.723e-3
-1.128, 1.729e-3
-1.129, 1.730e-3
-1.130, 1.750e-3
-1.131, 1.777e-3
-1.132, 1.801e-3
-1.133, 1.813e-3
-1.134, 1.824e-3
-1.135, 1.837e-3
-1.136, 1.849e-3
-1.137, 1.865e-3
-1.138, 1.879e-3
-1.139, 1.883e-3
-1.140, 1.901e-3
-1.141, 1.922e-3
-1.142, 1.934e-3
-1.143, 1.948e-3
-1.144, 1.960e-3
-1.145, 1.973e-3
-1.146, 1.987e-3
-1.147, 2.003e-3
-1.148, 2.016e-3
-1.149, 2.021e-3
-1.150, 2.032e-3
-1.151, 2.048e-3
-1.152, 2.058e-3
-1.153, 2.073e-3
-1.154, 2.087e-3
-1.155, 2.102e-3
-1.156, 2.113e-3
-1.157, 2.119e-3
-1.158, 2.127e-3
-1.159, 2.136e-3
-1.160, 2.147e-3
-1.161, 2.163e-3
-1.162, 2.175e-3
-1.163, 2.184e-3
-1.164, 2.186e-3
-1.165, 2.199e-3
-1.166, 2.209e-3
-1.167, 2.223e-3
-1.168, 2.228e-3
-1.169, 2.233e-3
-1.170, 2.244e-3
-1.171, 2.258e-3
-1.172, 2.273e-3
-1.173, 2.281e-3
-1.174, 2.276e-3
-1.175, 2.284e-3
-1.176, 2.284e-3
-1.177, 2.297e-3
-1.178, 2.310e-3
-1.179, 2.323e-3
-1.180, 2.342e-3
-1.181, 2.355e-3
-1.182, 2.343e-3
-1.183, 2.345e-3
-1.184, 2.343e-3
-1.185, 2.352e-3
-1.186, 2.356e-3
-1.187, 2.364e-3
-1.188, 2.369e-3
-1.189, 2.363e-3
-1.190, 2.375e-3
-1.191, 2.384e-3
-1.192, 2.387e-3
-1.193, 2.383e-3
-1.194, 2.377e-3
-1.195, 2.386e-3
-1.196, 2.389e-3
-1.197, 2.393e-3
-1.198, 2.387e-3
-1.199, 2.387e-3
-1.200, 2.391e-3
-1.201, 2.397e-3
-1.202, 2.399e-3
-1.203, 2.390e-3
-1.204, 2.386e-3
-1.205, 2.391e-3
-1.206, 2.390e-3
-1.207, 2.393e-3
-1.208, 2.387e-3
-1.209, 2.388e-3
-1.210, 2.394e-3
-1.211, 2.370e-3
-1.212, 2.366e-3
-1.213, 2.370e-3
-1.214, 2.362e-3
-1.215, 2.367e-3
-1.216, 2.372e-3
-1.217, 2.369e-3
-1.218, 2.359e-3
-1.219, 2.357e-3
-1.220, 2.349e-3
-1.221, 2.350e-3
-1.222, 2.351e-3
-1.223, 2.333e-3
-1.224, 2.333e-3
-1.225, 2.331e-3
-1.226, 2.333e-3
-1.227, 2.330e-3
-1.228, 2.329e-3
-1.229, 2.323e-3
-1.230, 2.323e-3
-1.231, 2.325e-3
-1.232, 2.326e-3
-1.233, 2.312e-3
-1.234, 2.314e-3
-1.235, 2.313e-3
-1.236, 2.312e-3
-1.237, 2.307e-3
-1.238, 2.306e-3
-1.239, 2.308e-3
-1.240, 2.313e-3
-1.241, 2.321e-3
-1.242, 2.320e-3
-1.243, 2.309e-3
-1.244, 2.313e-3
-1.245, 2.318e-3
-1.246, 2.318e-3
-1.247, 2.322e-3
-1.248, 2.317e-3
-1.249, 2.316e-3
-1.250, 2.324e-3
-1.251, 2.325e-3
-1.252, 2.336e-3
-1.253, 2.330e-3
-1.254, 2.334e-3
-1.255, 2.347e-3
-1.256, 2.352e-3
-1.257, 2.348e-3
-1.258, 2.325e-3
-1.259, 2.329e-3
-1.260, 2.343e-3
-1.261, 2.363e-3
-1.262, 2.380e-3
-1.263, 2.386e-3
-1.264, 2.388e-3
-1.265, 2.403e-3
-1.266, 2.411e-3
-1.267, 2.411e-3
-1.268, 2.421e-3
-1.269, 2.420e-3
-1.270, 2.436e-3
-1.271, 2.453e-3
-1.272, 2.460e-3
-1.273, 2.466e-3
-1.274, 2.468e-3
-1.275, 2.483e-3
-1.276, 2.494e-3
-1.277, 2.496e-3
-1.278, 2.512e-3
-1.279, 2.519e-3
-1.280, 2.541e-3
-1.281, 2.559e-3
-1.282, 2.563e-3
-1.283, 2.573e-3
-1.284, 2.575e-3
-1.285, 2.595e-3
-1.286, 2.612e-3
-1.287, 2.621e-3
-1.288, 2.626e-3
-1.289, 2.651e-3
-1.290, 2.652e-3
-1.291, 2.653e-3
-1.292, 2.657e-3
-1.293, 2.663e-3
-1.294, 2.690e-3
-1.295, 2.711e-3
-1.296, 2.726e-3
-1.297, 2.735e-3
-1.298, 2.749e-3
-1.299, 2.748e-3
-1.300, 2.769e-3
-1.301, 2.789e-3
-1.302, 2.793e-3
-1.303, 2.795e-3
-1.304, 2.798e-3
-1.305, 2.817e-3
-1.306, 2.835e-3
-1.307, 2.849e-3
-1.308, 2.859e-3
-1.309, 2.863e-3
-1.310, 2.875e-3
-1.311, 2.889e-3
-1.312, 2.904e-3
-1.313, 2.921e-3
-1.314, 2.924e-3
-1.315, 2.931e-3
-1.316, 2.944e-3
-1.317, 2.949e-3
-1.318, 2.953e-3
-1.319, 2.965e-3
-1.320, 2.973e-3
-1.321, 2.997e-3
-1.322, 2.998e-3
-1.323, 2.998e-3
-1.324, 3.008e-3
-1.325, 3.020e-3
-1.326, 3.025e-3
-1.327, 3.036e-3
-1.328, 3.033e-3
-1.329, 3.049e-3
-1.330, 3.064e-3
-1.331, 3.065e-3
-1.332, 3.071e-3
-1.333, 3.082e-3
-1.334, 3.083e-3
-1.335, 3.089e-3
-1.336, 3.097e-3
-1.337, 3.100e-3
-1.338, 3.104e-3
-1.339, 3.113e-3
-1.340, 3.118e-3
-1.341, 3.120e-3
-1.342, 3.129e-3
-1.343, 3.132e-3
-1.344, 3.141e-3
-1.345, 3.155e-3
-1.346, 3.166e-3
-1.347, 3.166e-3
-1.348, 3.186e-3
-1.349, 3.179e-3
-1.350, 3.172e-3
-1.351, 3.168e-3
-1.352, 3.176e-3
-1.353, 3.192e-3
-1.354, 3.218e-3
-1.355, 3.251e-3
-1.356, 3.265e-3
-1.357, 3.274e-3
-1.358, 3.290e-3
-1.359, 3.295e-3
-1.360, 3.330e-3
-1.361, 3.337e-3
-1.362, 3.361e-3
-1.363, 3.379e-3
-1.364, 3.406e-3
-1.365, 3.434e-3
-1.366, 3.495e-3
-1.367, 3.506e-3
-1.368, 3.534e-3
-1.369, 3.577e-3
-1.370, 3.632e-3
-1.371, 3.688e-3
-1.372, 3.746e-3
-1.373, 3.813e-3
-1.374, 3.880e-3
-1.375, 3.968e-3
-1.376, 4.059e-3
-1.377, 4.168e-3
-1.378, 4.289e-3
-1.379, 4.415e-3
-1.380, 4.572e-3
-1.381, 4.742e-3
-1.382, 4.924e-3
-1.383, 5.136e-3
-1.384, 5.349e-3
-1.385, 5.570e-3
-1.386, 5.822e-3
-1.387, 6.083e-3
-1.388, 6.336e-3
-1.389, 6.603e-3
-1.390, 6.850e-3
-1.391, 7.100e-3
-1.392, 7.354e-3
-1.393, 7.568e-3
-1.394, 7.793e-3
-1.395, 8.014e-3
-1.396, 8.216e-3
-1.397, 8.421e-3
-1.398, 8.613e-3
-1.399, 8.800e-3
-1.400, 8.874e-3
-1.399, 8.824e-3
-1.398, 8.793e-3
-1.397, 8.732e-3
-1.396, 8.675e-3
-1.395, 8.603e-3
-1.394, 8.542e-3
-1.393, 8.474e-3
-1.392, 8.412e-3
-1.391, 8.343e-3
-1.390, 8.285e-3
-1.389, 8.196e-3
-1.388, 8.105e-3
-1.387, 8.035e-3
-1.386, 7.960e-3
-1.385, 7.852e-3
-1.384, 7.704e-3
-1.383, 7.609e-3
-1.382, 7.550e-3
-1.381, 7.475e-3
-1.380, 7.380e-3
-1.379, 7.306e-3
-1.378, 7.196e-3
-1.377, 7.135e-3
-1.376, 7.034e-3
-1.375, 6.932e-3
-1.374, 6.809e-3
-1.373, 6.708e-3
-1.372, 6.654e-3
-1.371, 6.560e-3
-1.370, 6.477e-3
-1.369, 6.373e-3
-1.368, 6.270e-3
-1.367, 6.172e-3
-1.366, 6.097e-3
-1.365, 6.015e-3
-1.364, 5.923e-3
-1.363, 5.831e-3
-1.362, 5.749e-3
-1.361, 5.647e-3
-1.360, 5.547e-3
-1.359, 5.452e-3
-1.358, 5.367e-3
-1.357, 5.280e-3
-1.356, 5.183e-3
-1.355, 5.075e-3
-1.354, 4.989e-3
-1.353, 4.898e-3
-1.352, 4.823e-3
-1.351, 4.735e-3
-1.350, 4.659e-3
-1.349, 4.577e-3
-1.348, 4.498e-3
-1.347, 4.411e-3
-1.346, 4.331e-3
-1.345, 4.274e-3
-1.344, 4.209e-3
-1.343, 4.091e-3
-1.342, 3.986e-3
-1.341, 3.909e-3
-1.340, 3.845e-3
-1.339, 3.781e-3
-1.338, 3.711e-3
-1.337, 3.625e-3
-1.336, 3.562e-3
-1.335, 3.477e-3
-1.334, 3.402e-3
-1.333, 3.321e-3
-1.332, 3.254e-3
-1.331, 3.176e-3
-1.330, 3.121e-3
-1.329, 3.048e-3
-1.328, 2.982e-3
-1.327, 2.908e-3
-1.326, 2.838e-3
-1.325, 2.776e-3
-1.324, 2.712e-3
-1.323, 2.641e-3
-1.322, 2.574e-3
-1.321, 2.516e-3
-1.320, 2.460e-3
-1.319, 2.397e-3
-1.318, 2.341e-3
-1.317, 2.275e-3
-1.316, 2.216e-3
-1.315, 2.156e-3
-1.314, 2.093e-3
-1.313, 2.022e-3
-1.312, 1.965e-3
-1.311, 1.920e-3
-1.310, 1.866e-3
-1.309, 1.813e-3
-1.308, 1.761e-3
-1.307, 1.700e-3
-1.306, 1.655e-3
-1.305, 1.606e-3
-1.304, 1.561e-3
-1.303, 1.508e-3
-1.302, 1.456e-3
-1.301, 1.413e-3
-1.300, 1.374e-3
-1.299, 1.329e-3
-1.298, 1.280e-3
-1.297, 1.240e-3
-1.296, 1.203e-3
-1.295, 1.161e-3
-1.294, 1.111e-3
-1.293, 1.072e-3
-1.292, 1.030e-3
-1.291, 9.950e-4
-1.290, 9.671e-4
-1.289, 9.273e-4
-1.288, 8.860e-4
-1.287, 8.467e-4
-1.286, 8.088e-4
-1.285, 7.768e-4
-1.284, 7.431e-4
-1.283, 7.079e-4
-1.282, 6.733e-4
-1.281, 6.414e-4
-1.280, 6.144e-4
-1.279, 5.848e-4
-1.278, 5.519e-4
-1.277, 5.180e-4
-1.276, 4.904e-4
-1.275, 4.653e-4
-1.274, 4.432e-4
-1.273, 4.098e-4
-1.272, 3.805e-4
-1.271, 3.556e-4
-1.270, 3.327e-4
-1.269, 3.084e-4
-1.268, 2.824e-4
-1.267, 2.549e-4
-1.266, 2.328e-4
-1.265, 2.135e-4
-1.264, 1.925e-4
-1.263, 1.672e-4
-1.262, 1.426e-4
-1.261, 1.229e-4
-1.260, 1.053e-4
-1.259, 8.558e-5
-1.258, 6.546e-5
-1.257, 4.107e-5
-1.256, 2.238e-5
-1.255, 5.789e-6
-1.254, -1.465e-5
-1.253, -3.670e-5
-1.252, -5.596e-5
-1.251, -6.751e-5
-1.250, -7.849e-5
-1.249, -9.457e-5
-1.248, -1.151e-4
-1.247, -1.353e-4
-1.246, -1.507e-4
-1.245, -1.623e-4
-1.244, -1.780e-4
-1.243, -1.949e-4
-1.242, -2.106e-4
-1.241, -2.233e-4
-1.240, -2.376e-4
-1.239, -2.480e-4
-1.238, -2.641e-4
-1.237, -2.778e-4
-1.236, -2.889e-4
-1.235, -2.988e-4
-1.234, -3.134e-4
-1.233, -3.307e-4
-1.232, -3.445e-4
-1.231, -3.549e-4
-1.230, -3.636e-4
-1.229, -3.768e-4
-1.228, -3.910e-4
-1.227, -4.051e-4
-1.226, -4.141e-4
-1.225, -4.212e-4
-1.224, -4.324e-4
-1.223, -4.475e-4
-1.222, -4.599e-4
-1.221, -4.670e-4
-1.220, -4.727e-4
-1.219, -4.836e-4
-1.218, -4.981e-4
-1.217, -5.116e-4
-1.216, -5.202e-4
-1.215, -5.264e-4
-1.214, -5.386e-4
-1.213, -5.480e-4
-1.212, -5.615e-4
-1.211, -5.699e-4
-1.210, -5.793e-4
-1.209, -5.906e-4
-1.208, -5.984e-4
-1.207, -6.121e-4
-1.206, -6.167e-4
-1.205, -6.228e-4
-1.204, -6.320e-4
-1.203, -6.446e-4
-1.202, -6.567e-4
-1.201, -6.645e-4
-1.200, -6.698e-4
-1.199, -6.794e-4
-1.198, -6.914e-4
-1.197, -7.014e-4
-1.196, -7.113e-4
-1.195, -7.172e-4
-1.194, -7.249e-4
-1.193, -7.382e-4
-1.192, -7.500e-4
-1.191, -7.580e-4
-1.190, -7.641e-4
-1.189, -7.728e-4
-1.188, -7.851e-4
-1.187, -7.956e-4
-1.186, -8.033e-4
-1.185, -8.150e-4
-1.184, -8.198e-4
-1.183, -8.270e-4
-1.182, -8.318e-4
-1.181, -8.383e-4
-1.180, -8.488e-4
-1.179, -8.608e-4
-1.178, -8.807e-4
-1.177, -8.879e-4
-1.176, -8.978e-4
-1.175, -9.030e-4
-1.174, -9.135e-4
-1.173, -9.250e-4
-1.172, -9.338e-4
-1.171, -9.398e-4
-1.170, -9.456e-4
-1.169, -9.561e-4
-1.168, -9.767e-4
-1.167, -1.013e-3
-1.166, -1.020e-3
-1.165, -1.026e-3
-1.164, -1.031e-3
-1.163, -1.040e-3
-1.162, -1.047e-3
-1.161, -1.051e-3
-1.160, -1.060e-3
-1.159, -1.067e-3
-1.158, -1.083e-3
-1.157, -1.095e-3
-1.156, -1.101e-3
-1.155, -1.109e-3
-1.154, -1.117e-3
-1.153, -1.132e-3
-1.152, -1.142e-3
-1.151, -1.151e-3
-1.150, -1.155e-3
-1.149, -1.167e-3
-1.148, -1.183e-3
-1.147, -1.196e-3
-1.146, -1.201e-3
-1.145, -1.209e-3
-1.144, -1.221e-3
-1.143, -1.238e-3
-1.142, -1.252e-3
-1.141, -1.256e-3
-1.140, -1.267e-3
-1.139, -1.278e-3
-1.138, -1.290e-3
-1.137, -1.309e-3
-1.136, -1.317e-3
-1.135, -1.327e-3
-1.134, -1.340e-3
-1.133, -1.348e-3
-1.132, -1.360e-3
-1.131, -1.368e-3
-1.130, -1.379e-3
-1.129, -1.397e-3
-1.128, -1.415e-3
-1.127, -1.429e-3
-1.126, -1.435e-3
-1.125, -1.443e-3
-1.124, -1.461e-3
-1.123, -1.470e-3
-1.122, -1.493e-3
-1.121, -1.503e-3
-1.120, -1.517e-3
-1.119, -1.504e-3
-1.118, -1.518e-3
-1.117, -1.534e-3
-1.116, -1.564e-3
-1.115, -1.572e-3
-1.114, -1.590e-3
-1.113, -1.615e-3
-1.112, -1.618e-3
-1.111, -1.623e-3
-1.110, -1.629e-3
-1.109, -1.644e-3
-1.108, -1.663e-3
-1.107, -1.680e-3
-1.106, -1.694e-3
-1.105, -1.702e-3
-1.104, -1.720e-3
-1.103, -1.738e-3
-1.102, -1.744e-3
-1.101, -1.760e-3
-1.100, -1.766e-3
-1.099, -1.778e-3
-1.098, -1.796e-3
-1.097, -1.812e-3
-1.096, -1.822e-3
-1.095, -1.836e-3
-1.094, -1.845e-3
-1.093, -1.868e-3
-1.092, -1.881e-3
-1.091, -1.901e-3
-1.090, -1.928e-3
-1.089, -1.924e-3
-1.088, -1.921e-3
-1.087, -1.941e-3
-1.086, -1.951e-3
-1.085, -1.960e-3
-1.084, -1.981e-3
-1.083, -1.999e-3
-1.082, -2.014e-3
-1.081, -2.027e-3
-1.080, -2.029e-3
-1.079, -2.043e-3
-1.078, -2.060e-3
-1.077, -2.074e-3
-1.076, -2.085e-3
-1.075, -2.099e-3
-1.074, -2.112e-3
-1.073, -2.129e-3
-1.072, -2.135e-3
-1.071, -2.148e-3
-1.070, -2.154e-3
-1.069, -2.172e-3
-1.068, -2.190e-3
-1.067, -2.200e-3
-1.066, -2.214e-3
-1.065, -2.223e-3
-1.064, -2.240e-3
-1.063, -2.249e-3
-1.062, -2.272e-3
-1.061, -2.270e-3
-1.060, -2.287e-3
-1.059, -2.301e-3
-1.058, -2.317e-3
-1.057, -2.329e-3
-1.056, -2.339e-3
-1.055, -2.354e-3
-1.054, -2.364e-3
-1.053, -2.380e-3
-1.052, -2.394e-3
-1.051, -2.393e-3
-1.050, -2.404e-3
-1.049, -2.418e-3
-1.048, -2.431e-3
-1.047, -2.455e-3
-1.046, -2.457e-3
-1.045, -2.487e-3
-1.044, -2.489e-3
-1.043, -2.496e-3
-1.042, -2.489e-3
-1.041, -2.493e-3
-1.040, -2.509e-3
-1.039, -2.534e-3
-1.038, -2.550e-3
-1.037, -2.556e-3
-1.036, -2.586e-3
-1.035, -2.558e-3
-1.034, -2.581e-3
-1.033, -2.608e-3
-1.032, -2.608e-3
-1.031, -2.632e-3
-1.030, -2.635e-3
-1.029, -2.647e-3
-1.028, -2.662e-3
-1.027, -2.678e-3
-1.026, -2.682e-3
-1.025, -2.686e-3
-1.024, -2.696e-3
-1.023, -2.709e-3
-1.022, -2.726e-3
-1.021, -2.730e-3
-1.020, -2.739e-3
-1.019, -2.755e-3
-1.018, -2.763e-3
-1.017, -2.778e-3
-1.016, -2.794e-3
-1.015, -2.799e-3
-1.014, -2.808e-3
-1.013, -2.827e-3
-1.012, -2.839e-3
-1.011, -2.838e-3
-1.010, -2.833e-3
-1.009, -2.849e-3
-1.008, -2.862e-3
-1.007, -2.868e-3
-1.006, -2.889e-3
-1.005, -2.897e-3
-1.004, -2.911e-3
-1.003, -2.938e-3
-1.002, -2.944e-3
-1.001, -2.945e-3
