Potential V vs RHE, Current mA cm-2
0.013299999999999867,0.6520404381077953
0.012299999999999978,-0.8308599464107361
0.011299999999999866,-2.1828995356917518
0.010299999999999976,-3.447651437771094
0.009299999999999864,-4.626105950558669
0.008299999999999974,-5.672992312458796
0.007299999999999862,-6.500598422879844
0.006299999999999972,-7.243321855308987
0.00529999999999986,-7.853062425550818
0.0042999999999999705,-8.376505606500881
0.0032999999999998586,-8.943804837746763
0.0022999999999999687,-9.641257508580225
0.0012999999999998568,-10.382566229709504
0.00029999999999996696,-11.081433611842833
-0.000700000000000145,-11.82274233297211
-0.0017000000000000348,-12.432482903213943
-0.0027000000000001467,-12.869628694872238
-0.0037000000000000366,-13.261503724934855
-0.0047000000000001485,-13.567081365705702
-0.005700000000000038,-13.784946905884919
-0.00670000000000015,-14.090524546655764
-0.00770000000000004,-14.486643710617974
-0.008700000000000152,-14.967645552572087
-0.009700000000000042,-15.448647394526201
-0.010700000000000154,-15.91550212348166
-0.011700000000000044,-16.354062626439823
-0.012700000000000156,-16.622857773414182
-0.013700000000000045,-16.792623129397985
-0.014700000000000157,-16.962388485381787
-0.015700000000000047,-17.018976937376394
-0.01670000000000016,-17.231183632356142
-0.01770000000000005,-17.542420118326454
-0.01870000000000016,-17.924392169290012
-0.01970000000000005,-18.40539401124413
-0.020700000000000163,-18.88639585319824
-0.021700000000000053,-19.28251501716045
-0.022700000000000164,-19.537163051136158
-0.023700000000000054,-19.721075520118614
-0.024700000000000166,-19.848399537106463
-0.025700000000000056,-19.97572355409432
-0.026700000000000168,-20.10304757108217
-0.027700000000000058,-20.414284057052477
-0.02870000000000017,-20.72552054302279
-0.02970000000000006,-21.107492593986347
-0.03070000000000017,-21.503611757948562
-0.03170000000000006,-21.857289582914817
-0.03270000000000017,-22.027054938898623
-0.03370000000000006,-22.15437895588647
-0.034700000000000175,-22.196820294882425
-0.035700000000000065,-22.253408746877028
-0.03670000000000018,-22.33829142486893
-0.03770000000000007,-22.550498119848687
-0.03870000000000018,-22.861734605818995
-0.03970000000000007,-23.15882397879065
-0.04070000000000018,-23.55494314275286
-0.04170000000000007,-23.86617962872317
-0.04270000000000018,-24.035944984706973
-0.04370000000000007,-24.120827662698876
-0.044700000000000184,-24.20571034069078
-0.045700000000000074,-24.24815167968673
-0.046700000000000186,-24.34718147067728
-0.047700000000000076,-24.516946826661083
-0.04870000000000019,-24.814036199632742
-0.04970000000000008,-25.167714024599
-0.05070000000000019,-25.563833188561212
-0.05170000000000008,-25.81848122253692
-0.05270000000000019,-25.959952352523427
-0.05370000000000008,-26.044835030515326
-0.05470000000000019,-26.087276369511276
-0.05570000000000008,-26.087276369511276
-0.056700000000000195,-26.21460038649913
-0.057700000000000085,-26.38436574248293
-0.058700000000000196,-26.69560222845324
-0.059700000000000086,-27.049280053419505
-0.0607000000000002,-27.34636942639116
-0.06170000000000009,-27.65760591236147
-0.0627000000000002,-27.869812607341224
-0.06370000000000009,-27.869812607341224
-0.0647000000000002,-27.912253946337174
-0.06570000000000009,-27.869812607341224
-0.0667000000000002,-27.869812607341224
-0.0677000000000001,-28.011283737327723
-0.0687000000000002,-28.18104909331153
-0.0697000000000001,-28.435697127287238
-0.07070000000000021,-28.746933613257543
-0.0717000000000001,-28.91669896924135
-0.07270000000000021,-29.001581647233255
-0.0737000000000001,-29.001581647233255
-0.07470000000000021,-28.959140308237306
-0.0757000000000001,-28.8742576302454
-0.07670000000000021,-28.831816291249446
-0.0777000000000001,-28.91669896924135
-0.07870000000000021,-29.100611438223805
-0.0797000000000001,-29.35525947219951
-0.08070000000000022,-29.62405461917387
-0.0817000000000001,-29.793819975157668
-0.08270000000000022,-29.836261314153624
-0.08370000000000011,-29.793819975157668
-0.08470000000000022,-29.708937297165768
-0.08570000000000011,-29.581613280177915
-0.08670000000000022,-29.525024828183312
-0.08770000000000011,-29.581613280177915
-0.08870000000000022,-29.751378636161718
-0.08970000000000011,-29.96358533114148
-0.09070000000000022,-30.232380478115836
-0.09170000000000011,-30.359704495103685
-0.09270000000000023,-30.402145834099635
-0.09370000000000012,-30.317263156107735
-0.09470000000000023,-30.189939139119886
-0.09570000000000012,-29.921143992145527
-0.09670000000000023,-29.793819975157668
-0.09770000000000012,-29.751378636161718
-0.09870000000000023,-29.793819975157668
-0.09970000000000012,-29.878702653149578
-0.10070000000000023,-30.00602667013743
-0.10170000000000012,-30.04846800913338
-0.10270000000000024,-30.04846800913338
-0.10370000000000013,-29.96358533114148
-0.10470000000000024,-29.836261314153624
-0.10570000000000013,-29.66649595816982
-0.10670000000000024,-29.581613280177915
-0.10770000000000013,-29.525024828183312
-0.10870000000000024,-29.62405461917387
-0.10970000000000013,-29.708937297165768
-0.11070000000000024,-29.836261314153624
-0.11170000000000013,-29.836261314153624
-0.11270000000000002,-29.751378636161718
-0.11370000000000013,-29.525024828183312
-0.11470000000000002,-29.27037679420761
-0.11570000000000014,-28.959140308237306
-0.11670000000000003,-28.746933613257543
-0.11770000000000014,-28.577168257273744
-0.11870000000000003,-28.577168257273744
-0.11970000000000014,-28.53472691827779
-0.12070000000000003,-28.577168257273744
-0.12170000000000014,-28.577168257273744
-0.12270000000000003,-28.393255788291288
-0.12370000000000014,-28.18104909331153
-0.12470000000000003,-27.869812607341224
-0.12570000000000014,-27.572723234369565
-0.12670000000000003,-27.34636942639116
-0.12770000000000015,-27.219045409403304
-0.12870000000000004,-27.219045409403304
-0.12970000000000015,-27.219045409403304
-0.13070000000000004,-27.261486748399253
-0.13170000000000015,-27.261486748399253
-0.13270000000000004,-27.091721392415455
-0.13370000000000015,-26.822926245441096
-0.13470000000000004,-26.525836872469437
-0.13570000000000015,-26.129717708507226
-0.13670000000000004,-25.86092256153287
-0.13770000000000016,-25.691157205549064
-0.13870000000000005,-25.648715866553115
-0.13970000000000016,-25.691157205549064
-0.14070000000000005,-25.73359854454502
-0.14170000000000016,-25.73359854454502
-0.14270000000000005,-25.648715866553115
-0.14370000000000016,-25.43650917157336
-0.14470000000000005,-25.167714024599
-0.14570000000000016,-24.870624651627345
-0.14670000000000005,-24.64427084364894
-0.14770000000000016,-24.516946826661083
-0.14870000000000005,-24.516946826661083
-0.14970000000000017,-24.474505487665134
-0.15070000000000006,-24.516946826661083
-0.15170000000000017,-24.432064148669184
-0.15270000000000006,-24.20571034069078
-0.15370000000000017,-23.908620967719123
-0.15470000000000006,-23.55494314275286
-0.15570000000000017,-23.2012653177866
-0.15670000000000006,-22.904175944814945
-0.15770000000000017,-22.776851927827092
-0.15870000000000006,-22.72026347583249
-0.15970000000000018,-22.72026347583249
-0.16070000000000007,-22.819293266823045
-0.16170000000000018,-22.819293266823045
-0.16270000000000007,-22.72026347583249
-0.16370000000000018,-22.508056780852733
-0.16470000000000007,-22.33829142486893
-0.16570000000000018,-22.069496277894572
-0.16670000000000007,-21.899730921910766
-0.16770000000000018,-21.814848243918867
-0.16870000000000007,-21.814848243918867
-0.16970000000000018,-21.814848243918867
-0.17070000000000007,-21.857289582914817
-0.17170000000000019,-21.857289582914817
-0.17270000000000008,-21.729965565926964
-0.1737000000000002,-21.503611757948562
-0.17470000000000008,-21.291405062968803
-0.1757000000000002,-20.980168576998494
-0.17670000000000008,-20.810403221014692
-0.1777000000000002,-20.72552054302279
-0.17870000000000008,-20.683079204026836
-0.1797000000000002,-20.72552054302279
-0.18070000000000008,-20.76796188201874
-0.1817000000000002,-20.72552054302279
-0.18270000000000008,-20.584049413036283
-0.1837000000000002,-20.329401379060574
-0.1847000000000001,-20.10304757108217
-0.1857000000000002,-19.805958198110513
-0.1867000000000001,-19.579604390132108
-0.1877000000000002,-19.49472171214021
-0.1887000000000001,-19.49472171214021
-0.1897000000000002,-19.537163051136158
-0.1907000000000001,-19.636192842126707
-0.1917000000000001,-19.579604390132108
-0.19269999999999998,-19.537163051136158
-0.1937000000000001,-19.3249563561564
-0.19469999999999998,-19.112749661176647
-0.1957000000000001,-18.88639585319824
-0.19669999999999999,-18.716630497214435
-0.1977000000000001,-18.674189158218486
-0.1987,-18.759071836210385
-0.1997000000000001,-18.759071836210385
-0.2007,-18.92883719219419
-0.2017000000000001,-18.92883719219419
-0.2027,-18.88639585319824
-0.2037000000000001,-18.716630497214435
-0.2047,-18.53271802823198
-0.2057000000000001,-18.320511333252224
-0.2067,-18.19318731626437
-0.2077000000000001,-18.15074597726842
-0.2087,-18.19318731626437
-0.2097000000000001,-18.27806999425627
-0.2107,-18.362952672248177
-0.2117000000000001,-18.362952672248177
-0.2127,-18.23562865526032
-0.2137000000000001,-18.06586329927652
-0.2147,-17.797068152302163
-0.2157000000000001,-17.584861457322408
-0.2167,-17.40094898833995
-0.21770000000000012,-17.316066310348052
-0.2187,-17.358507649344002
-0.21970000000000012,-17.40094898833995
-0.2207,-17.48583166633185
-0.22170000000000012,-17.48583166633185
-0.2227,-17.40094898833995
-0.22370000000000012,-17.231183632356142
-0.2247,-17.061418276372343
-0.22570000000000012,-16.835064468393938
-0.2267,-16.70774045140608
-0.22770000000000012,-16.665299112410132
-0.22870000000000001,-16.750181790402035
-0.22970000000000013,-16.877505807389888
-0.23070000000000002,-16.962388485381787
-0.23170000000000013,-17.018976937376394
-0.23270000000000002,-16.962388485381787
-0.23370000000000013,-16.792623129397985
-0.23470000000000002,-16.580416434418233
-0.23570000000000013,-16.354062626439823
-0.23670000000000002,-16.22673860945197
-0.2376999999999999,-16.22673860945197
-0.23870000000000002,-16.269179948447924
-0.2396999999999999,-16.354062626439823
-0.24070000000000003,-16.495533756426326
-0.24169999999999991,-16.495533756426326
-0.24270000000000003,-16.438945304431726
-0.24369999999999992,-16.269179948447924
-0.24470000000000003,-16.056973253468165
-0.24569999999999992,-15.830619445489761
-0.24670000000000003,-15.74573676749786
-0.24769999999999992,-15.74573676749786
-0.24870000000000003,-15.830619445489761
-0.24969999999999992,-15.91550212348166
-0.25070000000000003,-16.056973253468165
-0.2516999999999999,-16.099414592464115
-0.25270000000000004,-16.056973253468165
-0.2536999999999999,-15.87306078448571
-0.25470000000000004,-15.70329542850191
-0.2556999999999999,-15.533530072518102
-0.25670000000000004,-15.448647394526201
-0.25769999999999993,-15.448647394526201
-0.25870000000000004,-15.533530072518102
-0.25969999999999993,-15.660854089505953
-0.26070000000000004,-15.830619445489761
-0.26169999999999993,-15.91550212348166
-0.26270000000000004,-15.91550212348166
-0.26369999999999993,-15.78817810649381
-0.26470000000000005,-15.660854089505953
-0.26569999999999994,-15.491088733522153
-0.26670000000000005,-15.3920589425316
-0.26769999999999994,-15.3920589425316
-0.26870000000000005,-15.533530072518102
-0.26969999999999994,-15.660854089505953
-0.27070000000000005,-15.830619445489761
-0.27169999999999994,-15.87306078448571
-0.27270000000000005,-15.830619445489761
-0.27369999999999994,-15.70329542850191
-0.27470000000000006,-15.533530072518102
-0.27569999999999995,-15.349617603535648
-0.27670000000000006,-15.264734925543747
-0.27769999999999995,-15.307176264539699
-0.27870000000000006,-15.448647394526201
-0.27969999999999995,-15.618412750510005
-0.28070000000000006,-15.78817810649381
-0.28169999999999995,-15.87306078448571
-0.28270000000000006,-15.830619445489761
-0.28369999999999995,-15.70329542850191
-0.28470000000000006,-15.533530072518102
-0.28569999999999995,-15.349617603535648
-0.28670000000000007,-15.307176264539699
-0.28769999999999996,-15.349617603535648
-0.28870000000000007,-15.491088733522153
-0.28969999999999996,-15.660854089505953
-0.29070000000000007,-15.87306078448571
-0.29169999999999996,-16.014531914472215
-0.29270000000000007,-16.056973253468165
-0.29369999999999996,-16.014531914472215
-0.2947000000000001,-15.972090575476265
-0.29569999999999996,-15.830619445489761
-0.2967000000000001,-15.830619445489761
-0.29769999999999996,-15.91550212348166
-0.2987000000000001,-16.141855931460068
-0.29969999999999997,-16.311621287443874
-0.3007000000000001,-16.53797509542228
-0.30169999999999997,-16.665299112410132
-0.3027000000000001,-16.665299112410132
-0.30369999999999997,-16.580416434418233
-0.3047000000000001,-16.495533756426326
-0.30569999999999997,-16.354062626439823
-0.3067000000000001,-16.311621287443874
-0.3077,-16.396503965435777
-0.3087000000000001,-16.53797509542228
-0.3097,-16.750181790402035
-0.3107000000000001,-16.962388485381787
-0.3117,-17.061418276372343
-0.3127000000000001,-17.103859615368293
-0.3137,-17.061418276372343
-0.3147000000000001,-16.962388485381787
-0.3157,-16.877505807389888
-0.3167000000000001,-16.877505807389888
-0.3177,-17.018976937376394
-0.3187000000000001,-17.2736249713521
-0.3197,-17.48583166633185
-0.3207000000000001,-17.797068152302163
-0.3217,-18.009274847281915
-0.3227000000000001,-18.10830463827247
-0.3237,-18.15074597726842
-0.3247000000000001,-18.15074597726842
-0.3257,-18.10830463827247
-0.3267000000000001,-18.19318731626437
-0.3277,-18.362952672248177
-0.3287000000000001,-18.631747819222536
-0.3297,-18.88639585319824
-0.3307000000000001,-19.197632339168546
-0.3317,-19.409839034148305
-0.3327000000000001,-19.49472171214021
-0.3337,-19.49472171214021
-0.3347000000000001,-19.49472171214021
-0.3357,-19.452280373144255
-0.3367000000000001,-19.49472171214021
-0.3377,-19.721075520118614
-0.3387000000000001,-19.93328221509837
-0.3397,-20.244518701068674
-0.3407000000000001,-20.541608074040333
-0.3417,-20.810403221014692
-0.3427000000000001,-20.93772723800254
-0.3437,-20.980168576998494
-0.3447000000000001,-21.065051254990397
-0.3457,-21.107492593986347
-0.3467000000000001,-21.248963723972853
-0.3477,-21.54605309694451
-0.3487000000000001,-21.899730921910766
-0.3497,-22.33829142486893
-0.3507000000000001,-22.776851927827092
-0.3517,-23.1163826397947
-0.3527000000000001,-23.385177786769056
-0.3537,-23.51250180375691
-0.3547000000000001,-23.639825820744765
-0.3557,-23.724708498736668
-0.35670000000000013,-23.951062306715073
-0.3577,-24.20571034069078
-0.35870000000000013,-24.559388165657033
-0.3597,-24.997948668615198
-0.36070000000000013,-25.43650917157336
-0.3617,-25.77603988354097
-0.3626999999999999,-26.044835030515326
-0.3637,-26.29948306449103
-0.3646999999999999,-26.483395533473487
-0.3657,-26.69560222845324
-0.3666999999999999,-27.00683871442355
-0.3677,-27.43125210438306
-0.3686999999999999,-27.954695285333123
-0.36970000000000003,-28.53472691827779
-0.3706999999999999,-29.14305277721976
-0.37170000000000003,-29.66649595816982
-0.3726999999999999,-30.10505646112798
-0.37370000000000003,-30.487028512091538
-0.3746999999999999,-30.8407063370578
-0.37570000000000003,-31.19438416202406
-0.3766999999999999,-31.618797551983565
-0.37770000000000004,-32.184682071929586
-0.3786999999999999,-32.84959638286615
-0.37970000000000004,-33.54280491980002
-0.3806999999999999,-34.33504324772444
-0.38170000000000004,-35.02825178465831
-0.38269999999999993,-35.636577643600276
-0.38370000000000004,-36.20246216354629
-0.38469999999999993,-36.768346683492304
-0.38570000000000004,-37.376672542434264
-0.38669999999999993,-36.99470049147071
-0.38570000000000004,-35.07069312365426
-0.38469999999999993,-33.755011614779775
-0.38370000000000004,-32.84959638286615
-0.38269999999999993,-32.184682071929586
-0.38170000000000004,-31.533914873991666
-0.3806999999999999,-30.88314767605375
-0.37970000000000004,-30.274821817111786
-0.3786999999999999,-29.751378636161718
-0.37770000000000004,-29.18549411621571
-0.3766999999999999,-28.746933613257543
-0.37570000000000003,-28.435697127287238
-0.3746999999999999,-28.13860775431558
-0.37370000000000003,-27.869812607341224
-0.3726999999999999,-27.572723234369565
-0.37170000000000003,-27.134162731411404
-0.3706999999999999,-26.568278211465387
-0.36970000000000003,-25.91751101352747
-0.3686999999999999,-25.210155363594954
-0.3677,-24.474505487665134
-0.3666999999999999,-23.908620967719123
-0.3657,-23.47006046476096
-0.3646999999999999,-23.1163826397947
-0.3637,-22.819293266823045
-0.3626999999999999,-22.550498119848687
-0.3617,-22.196820294882425
-0.36070000000000013,-21.814848243918867
-0.3597,-21.376287740960702
-0.35870000000000013,-20.93772723800254
-0.3577,-20.499166735044383
-0.35670000000000013,-20.159636023076775
-0.3557,-19.890840876102416
-0.3547000000000001,-19.678634181122664
-0.3537,-19.452280373144255
-0.3527000000000001,-19.28251501716045
-0.3517,-18.97127853119014
-0.3507000000000001,-18.53271802823198
-0.3497,-18.009274847281915
-0.3487000000000001,-17.48583166633185
-0.3477,-16.919947146385837
-0.3467000000000001,-16.438945304431726
-0.3457,-16.056973253468165
-0.3447000000000001,-15.74573676749786
-0.3437,-15.448647394526201
-0.3427000000000001,-15.222293586547794
-0.3417,-14.826174422585586
-0.3407000000000001,-14.401761032626075
-0.3397,-13.872659006476551
-0.3387000000000001,-13.30535977523067
-0.3377,-12.73806054398479
-0.3367000000000001,-12.258473413330542
-0.3357,-11.952895772559694
-0.3347000000000001,-11.647318131788847
-0.3337,-11.42945259160963
-0.3327000000000001,-11.211587051430415
-0.3317,-10.949865460955383
-0.3307000000000001,-10.557990430892769
-0.3297,-10.120844639234473
-0.3287000000000001,-9.641257508580225
-0.3277,-9.161670377925978
-0.3267000000000001,-8.769795347863363
-0.3257,-8.508073757388331
-0.3247000000000001,-8.288793505909249
-0.3237,-8.11478401602585
-0.3227000000000001,-7.940774526142452
-0.3217,-7.722908985963235
-0.3207000000000001,-7.329619244600755
-0.3197,-6.93774421453814
-0.3187000000000001,-6.500598422879844
-0.3177,-6.021011292225596
-0.3167000000000001,-5.672992312458796
-0.3157,-5.411270721983764
-0.3147000000000001,-5.235846520800501
-0.3137,-5.0618370309171015
-0.3127000000000001,-4.974124930325469
-0.3117,-4.712403339850438
-0.3107000000000001,-4.406825699079589
-0.3097,-4.014950669016974
-0.3087000000000001,-3.623075638954359
-0.3077,-3.1859298472960624
-0.3067000000000001,-2.8803522065252145
-0.30569999999999997,-2.618630616050183
-0.3047000000000001,-2.532333226758415
-0.30369999999999997,-2.4007650758709675
-0.3027000000000001,-2.3144676865791998
-0.30169999999999997,-2.1828995356917518
-0.3007000000000001,-1.8773218949209036
-0.29969999999999997,-1.5293029151541047
-0.2987000000000001,-1.1798692240874404
-0.29769999999999996,-0.7872868383748929
-0.2967000000000001,-0.5255652478998613
-0.29569999999999996,-0.3511313446265021
-0.2947000000000001,-0.26384365742482935
-0.29369999999999996,-0.1766974413531431
-0.29270000000000007,-0.1766974413531431
-0.29169999999999996,-0.04582249900262853
-0.29070000000000007,0.17231183632356148
-0.28969999999999996,0.4776065348344364
-0.28870000000000007,0.7829012333453113
-0.28769999999999996,1.1317690398920295
-0.28670000000000007,1.3934906303670611
-0.28569999999999995,1.5250587812545096
-0.28470000000000006,1.5675001202504606
-0.28369999999999995,1.6113561705462767
-0.28270000000000006,1.5675001202504606
-0.28169999999999995,1.655212220842093
-0.28070000000000006,1.8730777610213083
-0.27969999999999995,2.1347993514963406
-0.27870000000000006,2.396520941971372
-0.27769999999999995,2.70209858274222
-0.27670000000000006,2.8761080726256196
-0.27569999999999995,3.0076762235130676
-0.27470000000000006,3.0076762235130676
-0.27369999999999994,3.0076762235130676
-0.27270000000000005,2.963820173217252
-0.27169999999999994,3.0076762235130676
-0.27070000000000005,3.1378296631006513
-0.26969999999999994,3.3995512535756833
