Potential V vs RHE, Current mA cm-2
0.013299999999999867,0.6538795627976199
0.012299999999999978,-0.01658041643441823
0.011299999999999866,-0.3857917714731955
0.010299999999999976,-0.7001406223032067
0.009299999999999864,-0.9985032354447428
0.008299999999999974,-1.2177834869238235
0.007299999999999862,-1.3560007809206376
0.006299999999999972,-1.4571526388609877
0.00529999999999986,-1.6085267479465466
0.0042999999999999705,-1.7952686395287314
0.0032999999999998586,-1.9381544808151003
0.0022999999999999687,-2.007475334508487
0.0012999999999998568,-2.0584049413036287
0.00029999999999996696,-2.1630935774936413
-0.000700000000000145,-2.307394130079875
-0.0017000000000000348,-2.4234004566688077
-0.0027000000000001467,-2.4531093939659736
-0.0037000000000000366,-2.4842330425630044
-0.0047000000000001485,-2.5592127414558514
-0.005700000000000038,-2.709172139241545
-0.00670000000000015,-2.7530281895373614
-0.00770000000000004,-2.795469528533313
-0.008700000000000152,-2.8152754867314234
-0.009700000000000042,-2.8803522065252145
-0.010700000000000154,-3.003432089613473
-0.011700000000000044,-3.0571911190083445
-0.012700000000000156,-3.0656793868075347
-0.013700000000000045,-3.0727529433068597
-0.014700000000000157,-3.1180237049025408
-0.015700000000000047,-3.2212976297926885
-0.01670000000000016,-3.3047655964847262
-0.01770000000000005,-3.2481771444901244
-0.01870000000000016,-3.28071550438702
-0.01970000000000005,-3.323156843382971
-0.020700000000000163,-3.392477697076358
-0.021700000000000053,-3.4646279733694745
-0.022700000000000164,-3.4660426846693397
-0.023700000000000054,-3.4136983665743337
-0.024700000000000166,-3.4717015298688
-0.025700000000000056,-3.539607672262322
-0.026700000000000168,-3.594781412957058
-0.027700000000000058,-3.5749754547589476
-0.02870000000000017,-3.5353635383627267
-0.02970000000000006,-3.5749754547589476
-0.03070000000000017,-3.644296308452334
-0.03170000000000006,-3.6711758231497704
-0.03270000000000017,-3.6541992875513896
-0.03370000000000006,-3.6145873711551686
-0.034700000000000175,-3.630149195453684
-0.035700000000000065,-3.700884760446936
-0.03670000000000018,-3.730593697744102
-0.03770000000000007,-3.6824935135486903
-0.03870000000000018,-3.6343933293532795
-0.03970000000000007,-3.6895670700480157
-0.04070000000000018,-3.700884760446936
-0.04170000000000007,-3.7235201412447765
-0.04270000000000018,-3.7221054299449117
-0.04370000000000007,-3.6457110197521994
-0.044700000000000184,-3.6329786180534143
-0.045700000000000074,-3.702299471746801
-0.046700000000000186,-3.7093730282461257
-0.047700000000000076,-3.695225915247476
-0.04870000000000019,-3.627319772853954
-0.04970000000000008,-3.552340073961107
-0.05070000000000019,-3.6711758231497704
-0.05170000000000008,-3.6400521745527397
-0.05270000000000019,-3.6174167937548987
-0.05370000000000008,-3.552340073961107
-0.05470000000000019,-3.5636577643600273
-0.05570000000000008,-3.6131726598553033
-0.056700000000000195,-3.5778048773586777
-0.057700000000000085,-3.557998919160567
-0.058700000000000196,-3.4603838394698796
-0.059700000000000086,-3.4717015298688
-0.0607000000000002,-3.492922199366775
-0.06170000000000009,-3.5240458479638064
-0.0627000000000002,-3.45472499427042
-0.06370000000000009,-3.3854041405770325
-0.0647000000000002,-3.379745295377573
-0.06570000000000009,-3.3953071196760884
-0.0667000000000002,-3.412283655274469
-0.0677000000000001,-3.3486216467805416
-0.0687000000000002,-3.2609095461889095
-0.0697000000000001,-3.2821302156868852
-0.07070000000000021,-3.287789060886346
-0.0717000000000001,-3.314668575583781
-0.07270000000000021,-3.2396888766909337
-0.0737000000000001,-3.168953311697682
-0.07470000000000021,-3.159050332598627
-0.0757000000000001,-3.201491671594578
-0.07670000000000021,-3.193003403795388
-0.0777000000000001,-3.1307561066013263
-0.07870000000000021,-3.082655922405915
-0.0797000000000001,-3.028896893011044
-0.08070000000000022,-3.0883147676053753
-0.0817000000000001,-3.1038765919038904
-0.08270000000000022,-3.024652759111448
-0.08370000000000011,-2.9525024828183315
-0.08470000000000022,-2.9510877715184667
-0.08570000000000011,-2.973723152316307
-0.08670000000000022,-2.989284976614823
-0.08770000000000011,-2.935525947219951
-0.08870000000000022,-2.8478138466283185
-0.08970000000000011,-2.867619804826429
-0.09070000000000022,-2.8718639387260247
-0.09170000000000011,-2.9058170099227856
-0.09270000000000023,-2.8492285579281837
-0.09370000000000012,-2.7360516539389814
-0.09470000000000023,-2.7487840556377665
-0.09570000000000012,-2.768590013835877
-0.09670000000000023,-2.8096166415319628
-0.09770000000000012,-2.7360516539389814
-0.09870000000000023,-2.6851220471438397
-0.09970000000000012,-2.6879514697435702
-0.10070000000000023,-2.6723896454450546
-0.10170000000000012,-2.737466365238846
-0.10270000000000024,-2.6384365742482934
-0.10370000000000013,-2.584677544853422
-0.10470000000000024,-2.5945805239524775
-0.10570000000000013,-2.610142348250993
-0.10670000000000024,-2.627118883849373
-0.10770000000000013,-2.586092256153287
-0.10870000000000024,-2.5111125572604402
-0.10970000000000013,-2.509697845960575
-0.11070000000000024,-2.549309762356796
-0.11170000000000013,-2.5592127414558514
-0.11270000000000002,-2.5012095781613843
-0.11370000000000013,-2.4432064148669186
-0.11470000000000002,-2.4290593018682682
-0.11570000000000014,-2.472915352164084
-0.11670000000000003,-2.49979486686152
-0.11770000000000014,-2.430474013168133
-0.11870000000000003,-2.3781296950731265
-0.11970000000000014,-2.3753002724733965
-0.12070000000000003,-2.4092533436701573
-0.12170000000000014,-2.433303435767863
-0.12270000000000003,-2.3696414272739363
-0.12370000000000014,-2.3130529752793345
-0.12470000000000003,-2.307394130079875
-0.12570000000000014,-2.3455913351762305
-0.12670000000000003,-2.386617962872317
-0.12770000000000015,-2.30880884137974
-0.12870000000000004,-2.2479762554855434
-0.12970000000000015,-2.263538079784059
-0.13070000000000004,-2.3017352848804147
-0.13170000000000015,-2.3130529752793345
-0.13270000000000004,-2.2677822136836534
-0.13370000000000015,-2.1984613599902674
-0.13470000000000004,-2.199876071290132
-0.13570000000000015,-2.2451468328858133
-0.13670000000000004,-2.263538079784059
-0.13770000000000016,-2.2182673181883774
-0.13870000000000005,-2.1673377113932366
-0.13970000000000016,-2.1602641548939108
-0.14070000000000005,-2.201290782589997
-0.14170000000000016,-2.226755585987568
-0.14270000000000005,-2.1729965565926963
-0.14370000000000016,-2.110749259398635
-0.14470000000000005,-2.1149933932982297
-0.14570000000000016,-2.156020020994316
-0.14670000000000005,-2.194217226090672
-0.14770000000000016,-2.1206522384976902
-0.14870000000000005,-2.079625610801604
-0.14970000000000017,-2.081040322101469
-0.15070000000000006,-2.1121639706984996
-0.15170000000000017,-2.1531905983945863
-0.15270000000000006,-2.102260991599445
-0.15370000000000017,-2.047087250904708
-0.15470000000000006,-2.0371842718056525
-0.15570000000000017,-2.085284456001064
-0.15670000000000006,-2.12914050629688
-0.15770000000000017,-2.0640637865030884
-0.15870000000000006,-2.0159636023076772
-0.15970000000000018,-2.0060606232086218
-0.16070000000000007,-2.0654784978029537
-0.16170000000000018,-2.082455033401334
-0.16270000000000007,-2.0612343639033583
-0.16370000000000018,-1.9876693763103765
-0.16470000000000007,-2.011719468408082
-0.16570000000000018,-2.048501962204573
-0.16670000000000007,-2.054160807404033
-0.16770000000000018,-2.0216224475071374
-0.16870000000000007,-1.9508868825138854
-0.16970000000000018,-1.9848399537106465
-0.17070000000000007,-2.0244518701068674
-0.17170000000000019,-2.0555755187038987
-0.17270000000000008,-2.0258665814067327
-0.1737000000000002,-1.9523015938137507
-0.17470000000000008,-1.9650339955125358
-0.1757000000000002,-2.0103047571082175
-0.17670000000000008,-2.044257828304978
-0.1777000000000002,-1.9975723554094316
-0.17870000000000008,-1.9494721712140204
-0.1797000000000002,-1.9494721712140204
-0.18070000000000008,-1.9919135102099716
-0.1817000000000002,-2.049916673504438
-0.18270000000000008,-1.9904987989101068
-0.1837000000000002,-1.9537163051136157
-0.1847000000000001,-1.959375150313076
-0.1857000000000002,-2.0103047571082175
-0.1867000000000001,-2.0371842718056525
-0.1877000000000002,-2.008890045808352
-0.1887000000000001,-1.9423986147146954
-0.1897000000000002,-1.959375150313076
-0.1907000000000001,-2.0187930249074073
-0.1917000000000001,-2.045672539604843
-0.19269999999999998,-2.013134179707947
-0.1937000000000001,-1.9622045729128061
-0.19469999999999998,-1.9664487068124006
-0.1957000000000001,-2.0301107153063276
-0.19669999999999999,-2.0555755187038987
-0.1977000000000001,-2.0258665814067327
-0.1987,-1.9862546650105113
-0.1997000000000001,-1.980595819811051
-0.2007,-2.051331384804303
-0.2017000000000001,-2.095187435100119
-0.2027,-2.0315254266061924
-0.2037000000000001,-2.007475334508487
-0.2047,-2.023037158807002
-0.2057000000000001,-2.0782108995017388
-0.2067,-2.12348166109742
-0.2077000000000001,-2.072552054302279
-0.2087,-2.044257828304978
-0.2097000000000001,-2.054160807404033
-0.2107,-2.110749259398635
-0.2117000000000001,-2.1546053096944506
-0.2127,-2.116408104598095
-0.2137000000000001,-2.0753814769020087
-0.2147,-2.110749259398635
-0.2157000000000001,-2.158849443594046
-0.2167,-2.1956319373905373
-0.21770000000000012,-2.1758259791924264
-0.2187,-2.1206522384976902
-0.21970000000000012,-2.156020020994316
-0.2207,-2.2210967407881075
-0.22170000000000012,-2.2324144311870278
-0.2227,-2.2592939458844636
-0.22370000000000012,-2.197046648690402
-0.2247,-2.1857289582914814
-0.22570000000000012,-2.2875881718817643
-0.2267,-2.30597941878001
-0.22770000000000012,-2.3116382639794697
-0.22870000000000001,-2.2564645232847336
-0.22970000000000013,-2.280514615382439
-0.23070000000000002,-2.3639825820744766
-0.23170000000000013,-2.4007650758709675
-0.23270000000000002,-2.379544406372992
-0.23370000000000013,-2.355494314275286
-0.23470000000000002,-2.359738448174881
-0.23570000000000013,-2.4417917035670533
-0.23670000000000002,-2.4828183312631396
-0.2376999999999999,-2.472915352164084
-0.23870000000000002,-2.4502799713662435
-0.2396999999999999,-2.4700859295643536
-0.24070000000000003,-2.549309762356796
-0.24169999999999991,-2.6030687917516673
-0.24270000000000003,-2.584677544853422
-0.24369999999999992,-2.557798030155986
-0.24470000000000003,-2.583262833553557
-0.24569999999999992,-2.6653160889457292
-0.24670000000000003,-2.719075118340601
-0.24769999999999992,-2.720489829640466
-0.24870000000000003,-2.6865367584437045
-0.24969999999999992,-2.7233192522401954
-0.25070000000000003,-2.8025430850326374
-0.2516999999999999,-2.866205093526564
-0.25270000000000004,-2.866205093526564
-0.2536999999999999,-2.8294225997300737
-0.25470000000000004,-2.900158164723325
-0.2556999999999999,-2.9539171941181968
-0.25670000000000004,-3.031726315610774
-0.25769999999999993,-3.047288139909289
-0.25870000000000004,-3.009090934812933
-0.25969999999999993,-3.0755823659065897
-0.26070000000000004,-3.1548061986990317
-0.26169999999999993,-3.232615320191609
-0.26270000000000004,-3.2368594540912037
-0.26369999999999993,-3.238274165391069
-0.26470000000000005,-3.2920331947859403
-0.26569999999999994,-3.379745295377573
-0.26670000000000005,-3.4886780654671803
-0.26769999999999994,-3.4773603750682605
-0.26870000000000005,-3.4985810445662353
-0.26969999999999994,-3.557998919160567
-0.27070000000000005,-3.6655169779503103
-0.27169999999999994,-3.768790902840458
-0.27270000000000005,-3.782938015839108
-0.27369999999999994,-3.8466000243330347
-0.27470000000000006,-3.84518531303317
-0.27569999999999995,-3.992315288219133
-0.27670000000000006,-4.1295422843060425
-0.27769999999999995,-4.142274686004828
-0.27870000000000006,-4.231401497896325
-0.27969999999999995,-4.303551774189442
-0.28070000000000006,-4.44643761547581
-0.28169999999999995,-4.607714703660425
-0.28270000000000006,-4.6416677748571855
-0.28369999999999995,-4.730794586748683
-0.28470000000000006,-4.835483222938696
-0.28569999999999995,-5.03637222751953
-0.28670000000000007,-5.1608668219076534
-0.28769999999999996,-5.323558621392133
-0.28870000000000007,-5.39570889768525
-0.28969999999999996,-5.612159726564601
-0.29070000000000007,-5.821536998944626
-0.29169999999999996,-6.053549652122491
-0.29270000000000007,-6.227559142005892
-0.29369999999999996,-6.381762673691181
-0.2947000000000001,-6.6505578206655365
-0.29569999999999996,-6.975941419634496
-0.2967000000000001,-7.297080884703859
-0.29769999999999996,-7.570120165577812
-0.2987000000000001,-7.926627413143801
-0.29969999999999997,-8.281719949409926
-0.3007000000000001,-8.769795347863363
-0.30169999999999997,-9.247967767217744
-0.3027000000000001,-9.737457876971048
-0.30369999999999997,-10.306171819516793
-0.3047000000000001,-10.893277008960782
-0.30569999999999997,-11.698247738583987
-0.3067000000000001,-12.433897614513807
-0.3077,-13.214818252039308
-0.3087000000000001,-14.053742052859274
-0.3097,-14.939351326574789
-0.3107000000000001,-16.099414592464115
-0.3117,-17.146300954364243
-0.3127000000000001,-18.23562865526032
-0.3137,-19.49472171214021
-0.3147000000000001,-20.499166735044383
-0.3157,-21.99876071290132
-0.3167000000000001,-23.272000882779853
-0.3177,-24.601829504652986
-0.3187000000000001,-25.875069674531517
-0.3197,-27.233192522401957
-0.3207000000000001,-28.8176691782508
-0.3217,-30.402145834099635
-0.3227000000000001,-31.77441579496872
-0.3237,-33.344745337818914
-0.3247000000000001,-34.98581044566235
-0.3257,-36.61272844050715
-0.3267000000000001,-38.3669704523398
-0.3277,-39.80997597820213
-0.3287000000000001,-41.352011295055014
-0.3297,-43.148694645883616
-0.3307000000000001,-44.619994397743255
-0.3317,-46.44497197456916
-0.3327000000000001,-48.24165532539775
-0.3337,-49.642219512264134
-0.3347000000000001,-51.38231441109813
-0.3357,-53.079967970936174
-0.3367000000000001,-54.409796592809315
-0.3377,-56.093303039648696
-0.3387000000000001,-57.66363258249889
-0.3397,-58.951019865376075
-0.3407000000000001,-60.775997442201984
-0.3417,-62.20485585506566
-0.3427000000000001,-63.874215188906405
-0.3437,-65.26063226277414
-0.3447000000000001,-66.76022624063107
-0.3457,-68.74082206044213
-0.3467000000000001,-69.87259110033416
-0.3477,-71.78245135515196
-0.3487000000000001,-72.95666173403994
-0.3497,-74.39966725990229
-0.3507000000000001,-76.13976215873627
-0.3517,-76.960294712658
-0.3527000000000001,-79.11065588845284
-0.3537,-81.82690158419373
-0.3547000000000001,-81.72787179320316
-0.3557,-84.17532234196969
-0.35670000000000013,-84.61388284492786
-0.3577,-84.11873388997508
-0.35870000000000013,-87.31598142767007
-0.3597,-88.37701490256885
-0.36070000000000013,-90.56981741735964
-0.3617,-91.94208737822873
-0.3626999999999999,-93.90853608504113
-0.3637,-94.5451561699804
-0.3646999999999999,-96.12963282582925
-0.3657,-96.63892889378066
-0.3666999999999999,-98.12437575863895
-0.3677,-99.5107928325067
-0.3686999999999999,-100.5576791944068
-0.36970000000000003,-102.65145191820707
-0.3706999999999999,-103.78322095809908
-0.37170000000000003,-105.5799043089277
-0.3726999999999999,-107.23511652976977
-0.37370000000000003,-107.73026548472255
-0.3746999999999999,-109.9655093385093
-0.37570000000000003,-110.3050400504769
-0.3766999999999999,-111.4792504293649
-0.37770000000000004,-112.86566750323264
-0.3786999999999999,-113.53058181416918
-0.37970000000000004,-116.02047370193165
-0.3806999999999999,-115.96388524993705
-0.38170000000000004,-117.63324458377778
-0.38269999999999993,-119.5713990645929
-0.38370000000000004,-121.12758149444444
-0.38469999999999993,-120.66072676548897
-0.38570000000000004,-121.62273044939721
-0.38669999999999993,-121.72176024038777
-0.38570000000000004,-120.53340274850112
-0.38469999999999993,-117.53421479278724
-0.38370000000000004,-117.44933211479534
-0.38269999999999993,-115.5253247469789
-0.38170000000000004,-114.05402499511925
-0.3806999999999999,-112.80907905123803
-0.37970000000000004,-111.21045528239053
-0.3786999999999999,-109.4562132705579
-0.37770000000000004,-108.48006247365102
-0.3766999999999999,-107.88588372770771
-0.37570000000000003,-106.4287310888467
-0.3746999999999999,-104.08031033107075
-0.37370000000000003,-103.41539602013418
-0.3726999999999999,-99.77958797948104
-0.37170000000000003,-99.66641107549184
-0.3706999999999999,-97.69996236867944
-0.36970000000000003,-97.16237207473071
-0.3686999999999999,-96.27110395581576
-0.3677,-94.85639265595071
-0.3666999999999999,-93.85194763304654
-0.3657,-92.64944302816124
-0.3646999999999999,-90.5273760783637
-0.3637,-89.16925323049325
-0.3626999999999999,-87.54233523564847
-0.3617,-86.14177104878208
-0.36070000000000013,-85.10903179988061
-0.3597,-84.06214543798048
-0.35870000000000013,-83.07184752807495
-0.3577,-81.54395932422072
-0.35670000000000013,-80.56780852731384
-0.3557,-79.3228625834326
-0.3547000000000001,-77.61106191059591
-0.3537,-76.49343998370253
-0.3527000000000001,-75.48899496079835
-0.3517,-74.45625571189689
-0.3507000000000001,-73.43766357599405
-0.3497,-71.75415712915466
-0.3487000000000001,-70.8345947842424
-0.3477,-69.6037959533598
-0.3467000000000001,-68.16079042749746
-0.3457,-66.94413870961354
-0.3447000000000001,-65.9821350257053
-0.3437,-64.83621887281464
-0.3427000000000001,-63.5063902509415
-0.3417,-62.61512213202652
-0.3407000000000001,-61.10138104117093
-0.3397,-59.828140871292405
-0.3387000000000001,-58.83784296138688
-0.3377,-57.8333979384827
-0.3367000000000001,-56.91383559357042
-0.3357,-55.612301197694585
-0.3347000000000001,-54.834209982768826
-0.3337,-53.77317650787004
-0.3327000000000001,-52.78287859796452
-0.3317,-51.8491691400536
-0.3307000000000001,-50.53348763117911
-0.3297,-49.84027909424525
-0.3287000000000001,-48.48215624637481
-0.3277,-47.73235925744634
-0.3267000000000001,-46.67132578254756
-0.3257,-45.412232725667685
-0.3247000000000001,-45.00196644870681
-0.3237,-43.58725514884178
-0.3227000000000001,-42.82331104691466
-0.3217,-42.05936694498754
-0.3207000000000001,-40.98418635709011
-0.3197,-40.092918238175145
-0.3187000000000001,-39.03188476327636
-0.3177,-38.33867622634249
-0.3167000000000001,-37.60302635041268
-0.3157,-36.78249379649095
-0.3147000000000001,-35.93366701657193
-0.3137,-34.8867806546718
-0.3127000000000001,-34.10868943974604
-0.3117,-33.18912709483376
-0.3107000000000001,-32.39688876690934
-0.3097,-31.57635621298762
-0.3087000000000001,-30.642646755076694
-0.3077,-29.977732444140123
-0.3067000000000001,-29.114758551222454
-0.30569999999999997,-28.393255788291288
-0.3047000000000001,-27.714194364356068
-0.30369999999999997,-26.921956036431645
-0.3027000000000001,-26.11557059550858
-0.30169999999999997,-25.43650917157336
-0.3007000000000001,-24.559388165657033
-0.29969999999999997,-23.696414272739364
-0.2987000000000001,-23.1729710917893
-0.29769999999999996,-22.550498119848687
-0.2967000000000001,-21.885583808912116
-0.29569999999999996,-21.248963723972853
-0.2947000000000001,-20.301107153063278
-0.29369999999999996,-19.791811085111863
-0.29270000000000007,-19.211779452167196
-0.29169999999999996,-18.504423802234676
-0.29070000000000007,-17.910245056291366
-0.28969999999999996,-17.2453307453548
-0.28870000000000007,-16.70774045140608
-0.28769999999999996,-16.481386643427676
-0.28670000000000007,-15.349617603535648
-0.28569999999999995,-15.02423400456669
-0.28470000000000006,-14.387613919627421
-0.28369999999999995,-13.925003324571557
-0.28270000000000006,-13.5387871397084
-0.28169999999999995,-13.093153080250914
-0.28070000000000006,-12.596589413998286
-0.27969999999999995,-12.172176024038777
-0.27870000000000006,-11.652976976988306
-0.27769999999999995,-11.276663771224207
-0.27670000000000006,-10.857909226464155
-0.27569999999999995,-10.477351886800463
-0.27470000000000006,-10.011911869144866
-0.27369999999999994,-9.62003683908225
-0.27270000000000005,-9.294653240113291
-0.27169999999999994,-8.901363498750811
-0.27070000000000005,-8.6226653726774
-0.26969999999999994,-8.130345840324367
-0.26870000000000005,-7.845988869051494
-0.26769999999999994,-7.531922960481456
