Potential V vs RHE, Current mA cm-2
0.013299999999999867,0.3031726315610774
0.012299999999999978,-1.2671569112891135
0.011299999999999866,-2.662486666345999
0.010299999999999976,-3.840941179133574
0.009299999999999864,-4.843971490737885
0.008299999999999974,-5.715433651454749
0.007299999999999862,-6.500598422879844
0.006299999999999972,-7.28576319430494
0.00529999999999986,-7.984630576438266
0.0042999999999999705,-8.769795347863363
0.0032999999999998586,-9.59740145828441
0.0022999999999999687,-10.382566229709504
0.0012999999999998568,-11.211587051430415
0.00029999999999996696,-11.909039722263879
-0.000700000000000145,-12.607907104397206
-0.0017000000000000348,-13.13135028534727
-0.0027000000000001467,-13.567081365705702
-0.0037000000000000366,-13.960371107068182
-0.0047000000000001485,-14.26028990263957
-0.005700000000000038,-14.65640906660178
-0.00670000000000015,-15.01008689156804
-0.00770000000000004,-15.491088733522153
-0.008700000000000152,-16.014531914472215
-0.009700000000000042,-16.53797509542228
-0.010700000000000154,-17.103859615368293
-0.011700000000000044,-17.542420118326454
-0.012700000000000156,-17.924392169290012
-0.013700000000000045,-18.27806999425627
-0.014700000000000157,-18.53271802823198
-0.015700000000000047,-18.716630497214435
-0.01670000000000016,-18.88639585319824
-0.01770000000000005,-19.155191000172596
-0.01870000000000016,-19.452280373144255
-0.01970000000000005,-19.848399537106463
-0.020700000000000163,-20.244518701068674
-0.021700000000000053,-20.683079204026836
-0.022700000000000164,-21.107492593986347
-0.023700000000000054,-21.461170418952605
-0.024700000000000166,-21.729965565926964
-0.025700000000000056,-21.94217226090672
-0.026700000000000168,-22.111937616890522
-0.027700000000000058,-22.196820294882425
-0.02870000000000017,-22.42317410286083
-0.02970000000000006,-22.63538079784059
-0.03070000000000017,-22.989058622806844
-0.03170000000000006,-23.385177786769056
-0.03270000000000017,-23.823738289727217
-0.03370000000000006,-24.24815167968673
-0.034700000000000175,-24.601829504652986
-0.035700000000000065,-24.95550732961925
-0.03670000000000018,-25.167714024599
-0.03770000000000007,-25.295038041586857
-0.03870000000000018,-25.43650917157336
-0.03970000000000007,-25.478950510569312
-0.04070000000000018,-25.648715866553115
-0.04170000000000007,-25.81848122253692
-0.04270000000000018,-26.087276369511276
-0.04370000000000007,-26.38436574248293
-0.044700000000000184,-26.69560222845324
-0.045700000000000074,-27.049280053419505
-0.046700000000000186,-27.303928087395207
-0.047700000000000076,-27.487840556377662
-0.04870000000000019,-27.572723234369565
-0.04970000000000008,-27.615164573365515
-0.05070000000000019,-27.615164573365515
-0.05170000000000008,-27.615164573365515
-0.05270000000000019,-27.742488590353368
-0.05370000000000008,-27.912253946337174
-0.05470000000000019,-28.18104909331153
-0.05570000000000008,-28.435697127287238
-0.056700000000000195,-28.789374952253496
-0.057700000000000085,-29.100611438223805
-0.058700000000000196,-29.39770081119546
-0.059700000000000086,-29.581613280177915
-0.0607000000000002,-29.751378636161718
-0.06170000000000009,-29.921143992145527
-0.0627000000000002,-30.00602667013743
-0.06370000000000009,-30.147497800123933
-0.0647000000000002,-30.274821817111786
-0.06570000000000009,-30.529469851087494
-0.0667000000000002,-30.8407063370578
-0.0677000000000001,-31.19438416202406
-0.0687000000000002,-31.49147353499572
-0.0697000000000001,-31.76026868197007
-0.07070000000000021,-32.01491671594578
-0.0717000000000001,-32.14224073293363
-0.07270000000000021,-32.184682071929586
-0.0737000000000001,-32.184682071929586
-0.07470000000000021,-32.14224073293363
-0.0757000000000001,-32.184682071929586
-0.07670000000000021,-32.24127052392419
-0.0777000000000001,-32.41103587990799
-0.07870000000000021,-32.66568391388369
-0.0797000000000001,-32.97692039985401
-0.08070000000000022,-33.330598224820264
-0.0817000000000001,-33.54280491980002
-0.08270000000000022,-33.712570275783825
-0.08370000000000011,-33.81160006677438
-0.08470000000000022,-33.85404140577033
-0.08570000000000011,-33.81160006677438
-0.08670000000000022,-33.755011614779775
-0.08770000000000011,-33.712570275783825
-0.08870000000000022,-33.712570275783825
-0.08970000000000011,-33.81160006677438
-0.09070000000000022,-33.98136542275818
-0.09170000000000011,-34.15113077874198
-0.09270000000000023,-34.278454795729836
-0.09370000000000012,-34.377484586720385
-0.09470000000000023,-34.377484586720385
-0.09570000000000012,-34.236013456733886
-0.09670000000000023,-34.10868943974604
-0.09770000000000012,-33.93892408376223
-0.09870000000000023,-33.81160006677438
-0.09970000000000012,-33.712570275783825
-0.10070000000000023,-33.81160006677438
-0.10170000000000012,-33.93892408376223
-0.10270000000000024,-34.06624810075008
-0.10370000000000013,-34.33504324772444
-0.10470000000000024,-34.41992592571634
-0.10570000000000013,-34.5472499427042
-0.10670000000000024,-34.50480860370825
-0.10770000000000013,-34.33504324772444
-0.10870000000000024,-34.15113077874198
-0.10970000000000013,-33.85404140577033
-0.11070000000000024,-33.712570275783825
-0.11170000000000013,-33.54280491980002
-0.11270000000000002,-33.45792224180811
-0.11370000000000013,-33.50036358080407
-0.11470000000000002,-33.50036358080407
-0.11570000000000014,-33.54280491980002
-0.11670000000000003,-33.54280491980002
-0.11770000000000014,-33.45792224180811
-0.11870000000000003,-33.330598224820264
-0.11970000000000014,-33.10424441684186
-0.12070000000000003,-32.892037721862096
-0.12170000000000014,-32.62324257488775
-0.12270000000000003,-32.45347721890394
-0.12370000000000014,-32.368594540912035
-0.12470000000000003,-32.368594540912035
-0.12570000000000014,-32.41103587990799
-0.12670000000000003,-32.49591855789989
-0.12770000000000015,-32.53835989689585
-0.12870000000000004,-32.53835989689585
-0.12970000000000015,-32.45347721890394
-0.13070000000000004,-32.283711862920136
-0.13170000000000015,-32.01491671594578
-0.13270000000000004,-31.717827342974125
-0.13370000000000015,-31.449032195999767
-0.13470000000000004,-31.23682550102001
-0.13570000000000015,-31.095354371033505
-0.13670000000000004,-31.052913032037555
-0.13770000000000016,-30.968030354045652
-0.13870000000000005,-30.968030354045652
-0.13970000000000016,-30.88314767605375
-0.14070000000000005,-30.79826499806185
-0.14170000000000016,-30.529469851087494
-0.14270000000000005,-30.274821817111786
-0.14370000000000016,-29.96358533114148
-0.14470000000000005,-29.581613280177915
-0.14570000000000016,-29.31281813320356
-0.14670000000000005,-29.058170099227848
-0.14770000000000016,-28.959140308237306
-0.14870000000000005,-28.8742576302454
-0.14970000000000017,-28.831816291249446
-0.15070000000000006,-28.831816291249446
-0.15170000000000017,-28.789374952253496
-0.15270000000000006,-28.662050935265643
-0.15370000000000017,-28.435697127287238
-0.15470000000000006,-28.18104909331153
-0.15570000000000017,-27.912253946337174
-0.15670000000000006,-27.615164573365515
-0.15770000000000017,-27.34636942639116
-0.15870000000000006,-27.219045409403304
-0.15970000000000018,-27.134162731411404
-0.16070000000000007,-27.049280053419505
-0.16170000000000018,-27.049280053419505
-0.16270000000000007,-27.00683871442355
-0.16370000000000018,-26.907808923433
-0.16470000000000007,-26.738043567449193
-0.16570000000000018,-26.483395533473487
-0.16670000000000007,-26.21460038649913
-0.16770000000000018,-25.86092256153287
-0.16870000000000007,-25.648715866553115
-0.16970000000000018,-25.39406783257741
-0.17070000000000007,-25.252596702590903
-0.17170000000000019,-25.210155363594954
-0.17270000000000008,-25.210155363594954
-0.1737000000000002,-25.295038041586857
-0.17470000000000008,-25.252596702590903
-0.1757000000000002,-25.210155363594954
-0.17670000000000008,-25.0828313466071
-0.1777000000000002,-24.870624651627345
-0.17870000000000008,-24.64427084364894
-0.1797000000000002,-24.34718147067728
-0.18070000000000008,-24.16326900169483
-0.1817000000000002,-23.951062306715073
-0.18270000000000008,-23.908620967719123
-0.1837000000000002,-23.908620967719123
-0.1847000000000001,-23.908620967719123
-0.1857000000000002,-23.951062306715073
-0.1867000000000001,-23.908620967719123
-0.1877000000000002,-23.86617962872317
-0.1887000000000001,-23.682267159740714
-0.1897000000000002,-23.47006046476096
-0.1907000000000001,-23.24370665678255
-0.1917000000000001,-22.989058622806844
-0.19269999999999998,-22.861734605818995
-0.1937000000000001,-22.72026347583249
-0.19469999999999998,-22.67782213683654
-0.1957000000000001,-22.67782213683654
-0.19669999999999999,-22.72026347583249
-0.1977000000000001,-22.67782213683654
-0.1987,-22.63538079784059
-0.1997000000000001,-22.508056780852733
-0.2007,-22.33829142486893
-0.2017000000000001,-22.069496277894572
-0.2027,-21.814848243918867
-0.2037000000000001,-21.58849443594046
-0.2047,-21.376287740960702
-0.2057000000000001,-21.291405062968803
-0.2067,-21.248963723972853
-0.2077000000000001,-21.248963723972853
-0.2087,-21.333846401964752
-0.2097000000000001,-21.291405062968803
-0.2107,-21.291405062968803
-0.2117000000000001,-21.149933932982297
-0.2127,-20.980168576998494
-0.2137000000000001,-20.810403221014692
-0.2147,-20.584049413036283
-0.2157000000000001,-20.499166735044383
-0.2167,-20.414284057052477
-0.21770000000000012,-20.371842718056527
-0.2187,-20.456725396048434
-0.21970000000000012,-20.499166735044383
-0.2207,-20.626490752032236
-0.22170000000000012,-20.683079204026836
-0.2227,-20.683079204026836
-0.22370000000000012,-20.541608074040333
-0.2247,-20.414284057052477
-0.22570000000000012,-20.244518701068674
-0.2267,-20.01816489309027
-0.22770000000000012,-19.848399537106463
-0.22870000000000001,-19.763516859114564
-0.22970000000000013,-19.763516859114564
-0.23070000000000002,-19.763516859114564
-0.23170000000000013,-19.848399537106463
-0.23270000000000002,-19.848399537106463
-0.23370000000000013,-19.805958198110513
-0.23470000000000002,-19.721075520118614
-0.23570000000000013,-19.49472171214021
-0.23670000000000002,-19.28251501716045
-0.2376999999999999,-19.01371987018609
-0.23870000000000002,-18.843954514202288
-0.2396999999999999,-18.674189158218486
-0.24070000000000003,-18.631747819222536
-0.24169999999999991,-18.674189158218486
-0.24270000000000003,-18.716630497214435
-0.24369999999999992,-18.843954514202288
-0.24470000000000003,-18.88639585319824
-0.24569999999999992,-18.88639585319824
-0.24670000000000003,-18.843954514202288
-0.24769999999999992,-18.674189158218486
-0.24870000000000003,-18.53271802823198
-0.24969999999999992,-18.320511333252224
-0.25070000000000003,-18.23562865526032
-0.2516999999999999,-18.19318731626437
-0.25270000000000004,-18.19318731626437
-0.2536999999999999,-18.27806999425627
-0.25470000000000004,-18.362952672248177
-0.2556999999999999,-18.49027668923603
-0.25670000000000004,-18.49027668923603
-0.25769999999999993,-18.44783535024008
-0.25870000000000004,-18.362952672248177
-0.25969999999999993,-18.23562865526032
-0.26070000000000004,-18.06586329927652
-0.26169999999999993,-17.881950830294063
-0.26270000000000004,-17.75462681330621
-0.26369999999999993,-17.71218547431026
-0.26470000000000005,-17.797068152302163
-0.26569999999999994,-17.881950830294063
-0.26670000000000005,-18.009274847281915
-0.26769999999999994,-18.15074597726842
-0.26870000000000005,-18.19318731626437
-0.26969999999999994,-18.15074597726842
-0.27070000000000005,-18.009274847281915
-0.27169999999999994,-17.881950830294063
-0.27270000000000005,-17.75462681330621
-0.27369999999999994,-17.669744135314307
-0.27470000000000006,-17.584861457322408
-0.27569999999999995,-17.584861457322408
-0.27670000000000006,-17.669744135314307
-0.27769999999999995,-17.75462681330621
-0.27870000000000006,-17.924392169290012
-0.27969999999999995,-18.009274847281915
-0.28070000000000006,-18.009274847281915
-0.28169999999999995,-17.966833508285966
-0.28270000000000006,-17.839509491298113
-0.28369999999999995,-17.71218547431026
-0.28470000000000006,-17.542420118326454
-0.28569999999999995,-17.48583166633185
-0.28670000000000007,-17.4433903273359
-0.28769999999999996,-17.48583166633185
-0.28870000000000007,-17.627302796318357
-0.28969999999999996,-17.75462681330621
-0.29070000000000007,-17.924392169290012
-0.29169999999999996,-18.009274847281915
-0.29270000000000007,-18.06586329927652
-0.29369999999999996,-18.06586329927652
-0.2947000000000001,-17.966833508285966
-0.29569999999999996,-17.881950830294063
-0.2967000000000001,-17.797068152302163
-0.29769999999999996,-17.797068152302163
-0.2987000000000001,-17.839509491298113
-0.29969999999999997,-17.966833508285966
-0.3007000000000001,-18.15074597726842
-0.30169999999999997,-18.362952672248177
-0.3027000000000001,-18.53271802823198
-0.30369999999999997,-18.674189158218486
-0.3047000000000001,-18.674189158218486
-0.30569999999999997,-18.674189158218486
-0.3067000000000001,-18.589306480226583
-0.3077,-18.49027668923603
-0.3087000000000001,-18.44783535024008
-0.3097,-18.40539401124413
-0.3107000000000001,-18.49027668923603
-0.3117,-18.631747819222536
-0.3127000000000001,-18.80151317520634
-0.3137,-19.01371987018609
-0.3147000000000001,-19.112749661176647
-0.3157,-19.2400736781645
-0.3167000000000001,-19.2400736781645
-0.3177,-19.197632339168546
-0.3187000000000001,-19.112749661176647
-0.3197,-19.01371987018609
-0.3207000000000001,-19.01371987018609
-0.3217,-19.056161209182044
-0.3227000000000001,-19.28251501716045
-0.3237,-19.49472171214021
-0.3247000000000001,-19.763516859114564
-0.3257,-20.06060623208622
-0.3267000000000001,-20.244518701068674
-0.3277,-20.414284057052477
-0.3287000000000001,-20.499166735044383
-0.3297,-20.499166735044383
-0.3307000000000001,-20.541608074040333
-0.3317,-20.584049413036283
-0.3327000000000001,-20.683079204026836
-0.3337,-20.810403221014692
-0.3347000000000001,-21.022609915994444
-0.3357,-21.291405062968803
-0.3367000000000001,-21.58849443594046
-0.3377,-21.857289582914817
-0.3387000000000001,-22.027054938898623
-0.3397,-22.15437895588647
-0.3407000000000001,-22.196820294882425
-0.3417,-22.253408746877028
-0.3427000000000001,-22.253408746877028
-0.3437,-22.295850085872978
-0.3447000000000001,-22.38073276386488
-0.3457,-22.592939458844636
-0.3467000000000001,-22.861734605818995
-0.3477,-23.1163826397947
-0.3487000000000001,-23.47006046476096
-0.3497,-23.724708498736668
-0.3507000000000001,-23.993503645711023
-0.3517,-24.120827662698876
-0.3527000000000001,-24.24815167968673
-0.3537,-24.34718147067728
-0.3547000000000001,-24.389622809673234
-0.3557,-24.601829504652986
-0.35670000000000013,-24.771594860636792
-0.3577,-25.0828313466071
-0.35870000000000013,-25.43650917157336
-0.3597,-25.81848122253692
-0.36070000000000013,-26.29948306449103
-0.3617,-26.65316088945729
-0.3626999999999999,-26.907808923433
-0.3637,-27.176604070407354
-0.3646999999999999,-27.38881076538711
-0.3657,-27.615164573365515
-0.3666999999999999,-27.78492992934932
-0.3677,-28.09616641531963
-0.3686999999999999,-28.435697127287238
-0.36970000000000003,-28.8742576302454
-0.3706999999999999,-29.35525947219951
-0.37170000000000003,-29.836261314153624
-0.3726999999999999,-30.317263156107735
-0.37370000000000003,-30.7558236590659
-0.3746999999999999,-31.095354371033505
-0.37570000000000003,-31.40659085700382
-0.3766999999999999,-31.717827342974125
-0.37770000000000004,-31.972475376949827
-0.3786999999999999,-32.32615320191609
-0.37970000000000004,-32.70812525287965
-0.3806999999999999,-33.18912709483376
-0.38170000000000004,-33.81160006677438
-0.38269999999999993,-34.462367264712285
-0.38370000000000004,-35.11313446265021
-0.38469999999999993,-35.721460321592176
-0.38570000000000004,-36.37222751953009
-0.38669999999999993,-35.763901660588125
-0.38570000000000004,-33.41548090281216
-0.38469999999999993,-31.618797551983565
-0.38370000000000004,-30.10505646112798
-0.38269999999999993,-28.959140308237306
-0.38170000000000004,-28.011283737327723
-0.3806999999999999,-27.303928087395207
-0.37970000000000004,-26.69560222845324
-0.3786999999999999,-26.21460038649913
-0.37770000000000004,-25.73359854454502
-0.3766999999999999,-25.295038041586857
-0.37570000000000003,-24.814036199632742
-0.3746999999999999,-24.24815167968673
-0.37370000000000003,-23.639825820744765
-0.3726999999999999,-23.031499961802798
-0.37170000000000003,-22.46561544185678
-0.3706999999999999,-21.94217226090672
-0.36970000000000003,-21.503611757948562
-0.3686999999999999,-21.107492593986347
-0.3677,-20.76796188201874
-0.3666999999999999,-20.456725396048434
-0.3657,-20.10304757108217
-0.3646999999999999,-19.721075520118614
-0.3637,-19.197632339168546
-0.3626999999999999,-18.674189158218486
-0.3617,-18.15074597726842
-0.36070000000000013,-17.542420118326454
-0.3597,-17.061418276372343
-0.35870000000000013,-16.580416434418233
-0.3577,-16.22673860945197
-0.35670000000000013,-15.91550212348166
-0.3557,-15.618412750510005
-0.3547000000000001,-15.3920589425316
-0.3537,-15.05252823056399
-0.3527000000000001,-14.741291744593681
-0.3517,-14.345172580631472
-0.3507000000000001,-13.872659006476551
-0.3497,-13.3930718758223
-0.3487000000000001,-12.869628694872238
-0.3477,-12.476338953509758
-0.3467000000000001,-12.084463923447142
-0.3457,-11.82274233297211
-0.3447000000000001,-11.56102074249708
-0.3437,-11.343155202317865
-0.3427000000000001,-11.1677310011346
-0.3417,-10.863568071663616
-0.3407000000000001,-10.514134380596953
-0.3397,-10.078403300238522
-0.3387000000000001,-9.641257508580225
-0.3377,-9.161670377925978
-0.3367000000000001,-8.68208324727173
-0.3357,-8.246352166913299
-0.3347000000000001,-7.896918475846635
-0.3337,-7.635196885371603
-0.3327000000000001,-7.4173313451923875
-0.3317,-7.243321855308987
-0.3307000000000001,-7.024041603829907
-0.3297,-6.762320013354876
-0.3287000000000001,-6.414301033588076
-0.3277,-6.021011292225596
-0.3267000000000001,-5.629136262162981
-0.3257,-5.149549131508733
-0.3247000000000001,-4.756259390146253
-0.3237,-4.406825699079589
-0.3227000000000001,-4.23281620919619
-0.3217,-4.0588067193127895
-0.3207000000000001,-3.884797229429391
-0.3197,-3.7970851288377587
-0.3187000000000001,-3.623075638954359
-0.3177,-3.403795387475278
-0.3167000000000001,-3.1420737970002466
-0.3157,-2.7501987669376318
-0.3147000000000001,-2.4007650758709675
-0.3137,-1.9650339955125358
-0.3127000000000001,-1.7033124050375041
-0.3117,-1.3980177065266295
-0.3107000000000001,-1.2234423321232837
-0.3097,-1.0925815368857679
-0.3087000000000001,-1.0054353208140816
-0.3077,-0.9181476336124089
-0.3067000000000001,-0.7437137303390498
-0.30569999999999997,-0.5255652478998613
-0.3047000000000001,-0.2202705493889862
-0.30369999999999997,0.08502414912188871
-0.3027000000000001,0.43403342679859325
-0.30169999999999997,0.7393281253094681
-0.3007000000000001,1.0010497157844997
-0.29969999999999997,1.175483619057859
-0.2987000000000001,1.2626298351295453
-0.29769999999999996,1.349917522331218
-0.2967000000000001,1.3934906303670611
-0.29569999999999996,1.4373466806628774
-0.2947000000000001,1.5675001202504606
-0.29369999999999996,1.7429243214337253
-0.29270000000000007,2.004645911908757
-0.29169999999999996,2.2663675023837886
-0.29070000000000007,2.6143864821505876
-0.28969999999999996,2.8322520223298033
-0.28870000000000007,3.0515322738088844
-0.28769999999999996,3.1378296631006513
-0.28670000000000007,3.1816857133964676
-0.28569999999999995,3.225541763692284
-0.28470000000000006,3.1816857133964676
-0.28369999999999995,3.2693978139880997
-0.28270000000000006,3.313253864283916
-0.28169999999999995,3.5311194044631313
-0.28070000000000006,3.748984944642347
-0.27969999999999995,4.01070653511738
-0.27870000000000006,4.272428125592412
-0.27769999999999995,4.44643761547581
-0.27670000000000006,4.6218618166590755
-0.27569999999999995,4.664303155655026
-0.27470000000000006,4.664303155655026
-0.27369999999999994,4.6218618166590755
-0.27270000000000005,4.578005766363259
-0.27169999999999994,4.6218618166590755
-0.27070000000000005,4.752015256246658
-0.26969999999999994,4.883583407134107
-0.26870000000000005,5.101448947313322
-0.26769999999999994,5.319314487492538
