Potential V vs RHE, Current mA cm-2
0.4132999999999999,0.004442193481576215
0.4122999999999999,0.0025521391849565264
0.4112999999999999,0.0018377099785246824
0.4102999999999999,0.0014755438857592333
0.4092999999999999,0.0012104269881645256
0.4082999999999999,0.00095775955000863
0.4072999999999999,0.0007107509570521943
0.4062999999999999,0.0005180672780105765
0.4052999999999999,0.0003548095940061512
0.4042999999999999,0.00020683079204026836
0.4032999999999999,6.867008649544888e-05
0.4022999999999999,-0.0001044056939300397
0.4012999999999999,-0.0002523844958959225
0.4002999999999999,-0.00035707313208593525
0.3992999999999999,-0.0004896315808832892
0.3982999999999999,-0.0006236047409805082
0.3972999999999999,-0.0007534752383081186
0.3962999999999999,-0.000869340093767065
0.3952999999999999,-0.0009362559382506812
0.3942999999999999,-0.0010325977777714903
0.39329999999999987,-0.0011413890767311115
0.39229999999999987,-0.001258668643489923
0.39129999999999987,-0.0013578399056104623
0.39029999999999987,-0.0013926418035871422
0.38929999999999987,-0.0014840321535584235
0.38829999999999987,-0.0015986237688474915
0.38729999999999987,-0.0017061418276372343
0.38629999999999987,-0.0017966833508285967
0.38529999999999986,-0.0018575159367227932
0.38429999999999986,-0.0019042014096183394
0.38329999999999986,-0.0019947429328097017
0.38229999999999986,-0.0020951874351001192
0.38129999999999986,-0.0021828995356917517
0.38029999999999986,-0.0022324144311870278
0.37929999999999986,-0.002276270481482844
0.37829999999999986,-0.0023625678707746116
0.37729999999999986,-0.0024658417956647588
0.37629999999999986,-0.0025266743815589555
0.37529999999999986,-0.0025747745657543667
0.37429999999999986,-0.0026228747499497784
0.37329999999999985,-0.00270492800534195
0.37229999999999985,-0.002802543085032638
0.37129999999999985,-0.002859131537027239
0.37029999999999985,-0.0028973287421235954
0.36929999999999985,-0.002959576039317657
0.36829999999999985,-0.0030161644913122582
0.36729999999999985,-0.0031364149518007863
0.36629999999999985,-0.0031845151359961976
0.36529999999999985,-0.0032283711862920133
0.36429999999999985,-0.0032665683913883697
0.36329999999999985,-0.003314668575583781
0.36229999999999984,-0.003400965964875548
0.36129999999999984,-0.0034561397055702845
0.36029999999999984,-0.003508484023665291
0.35929999999999984,-0.003557998919160567
0.35829999999999984,-0.0036131726598553036
0.35729999999999984,-0.0036810788022488255
0.35629999999999984,-0.003736252542943562
0.35529999999999984,-0.003754643789841807
0.35429999999999984,-0.0038055733966369486
0.35329999999999984,-0.003863576559931415
0.35229999999999984,-0.0039385562588242625
0.35129999999999983,-0.003992315288219133
0.35029999999999983,-0.003995144710818863
0.34929999999999983,-0.004057392008012925
0.34829999999999983,-0.004121054016506852
0.34729999999999983,-0.004207351405798619
0.34629999999999983,-0.00424979274479457
0.34529999999999983,-0.004275257548192141
0.34429999999999983,-0.004300722351589711
0.3432999999999998,-0.004350237247084989
0.3422999999999998,-0.004432290502477159
0.3412999999999998,-0.004470487707573516
0.3402999999999998,-0.0044945377996712214
0.3392999999999998,-0.004500196644870682
0.3382999999999998,-0.004568102787264204
0.3372999999999998,-0.00464025306355732
0.3362999999999998,-0.004665717866954891
0.3352999999999998,-0.004703915072051246
0.3342999999999998,-0.004725135741549223
0.3332999999999998,-0.0047817241935438235
0.3322999999999998,-0.004863777448935997
0.3312999999999998,-0.004889242252333567
0.3302999999999998,-0.004916121767031002
0.3292999999999998,-0.004943001281728438
0.3282999999999998,-0.0049698807964258735
0.3272999999999998,-0.005046275206618586
0.3262999999999998,-0.0050731547213160215
0.3252999999999999,-0.005087301834314672
0.3242999999999999,-0.0051155960603119725
0.3232999999999999,-0.005163696244507384
0.3222999999999999,-0.005247164211199421
0.3212999999999999,-0.005274043725896857
0.3202999999999999,-0.005278287859796452
0.3192999999999999,-0.005300923240594293
0.3182999999999999,-0.005353267558689299
0.3172999999999999,-0.005414100144583496
0.3162999999999999,-0.005462200328778906
0.3152999999999999,-0.005445223793180526
0.3142999999999999,-0.005486250420876613
0.3132999999999999,-0.005517374069473643
0.3122999999999999,-0.005588109634466895
0.3112999999999999,-0.005617818571764061
0.3102999999999999,-0.005623477416963521
0.3092999999999999,-0.005651771642960822
0.3082999999999999,-0.005704115961055828
0.3072999999999999,-0.005749386722651509
0.3062999999999999,-0.005777680948648809
0.3052999999999999,-0.005798901618146785
0.3042999999999999,-0.005805975174646111
0.3032999999999999,-0.005868222471840172
0.3022999999999999,-0.005929055057734368
0.3012999999999999,-0.005944616882032884
0.3002999999999999,-0.00596300812893113
0.2992999999999999,-0.00597432581933005
0.2982999999999999,-0.0060365731165241115
0.2972999999999999,-0.006104479258917633
0.2962999999999999,-0.0061356029075146645
0.2952999999999999,-0.006149750020513314
0.2942999999999999,-0.006146920597913584
0.2932999999999999,-0.006200679627308456
0.2922999999999999,-0.006271415192301708
0.2912999999999999,-0.006268585769701978
0.2902999999999999,-0.006289806439199953
0.2892999999999999,-0.0063067829747983336
0.2882999999999999,-0.0063364919120954995
0.2872999999999999,-0.006419959878787536
0.2862999999999999,-0.006419959878787536
0.2852999999999999,-0.006427033435286861
0.2842999999999999,-0.0064482541047848375
0.2832999999999999,-0.006514745535878493
0.2822999999999999,-0.00657557812177269
0.2812999999999999,-0.006588310523471475
0.2802999999999999,-0.006591139946071206
0.2792999999999999,-0.006608116481669587
0.2782999999999999,-0.0066448989754660775
0.2772999999999999,-0.0067043168500604084
0.2762999999999999,-0.00671846396305906
0.2752999999999999,-0.006715634540459329
0.2742999999999999,-0.006738269921257169
0.2732999999999999,-0.006776467126353526
0.2722999999999999,-0.006827396733148668
0.2712999999999999,-0.006865593938245024
0.2702999999999999,-0.006874082206044212
0.2692999999999999,-0.006878326339943808
0.26829999999999987,-0.006922182390239625
0.26729999999999987,-0.006973111997034765
0.26629999999999987,-0.007004235645631797
0.26529999999999987,-0.006990088532633146
0.26429999999999987,-0.007005650356931662
0.26329999999999987,-0.0070608240976263986
0.26229999999999987,-0.007107509570521945
0.26129999999999987,-0.007111753704421539
0.26029999999999986,-0.007131559662619649
0.25929999999999986,-0.00713721850781911
0.25829999999999986,-0.0072022952276129025
0.25729999999999986,-0.007264542524806964
0.25629999999999986,-0.007292836750804264
0.25529999999999986,-0.007298495596003725
0.25429999999999986,-0.0073197162655017
0.25329999999999986,-0.007352254625398595
0.25229999999999986,-0.007418746056492252
0.25129999999999986,-0.007393281253094681
0.25029999999999986,-0.007407428366093332
0.24929999999999986,-0.007425819612991578
0.24829999999999985,-0.007447040282489552
0.24729999999999985,-0.007520605270082535
0.24629999999999985,-0.007527678826581859
0.24529999999999985,-0.007557387763879026
0.24429999999999985,-0.007575779010777272
0.24329999999999985,-0.007594170257675516
0.24229999999999985,-0.007649343998370253
0.24129999999999985,-0.007655002843569713
0.24029999999999985,-0.007673394090467959
0.23929999999999985,-0.0076946147599659355
0.23829999999999985,-0.007734226676362155
0.23729999999999984,-0.007778082726657971
0.23629999999999984,-0.007779497437957837
0.23529999999999984,-0.007785156283157298
0.23429999999999984,-0.007804962241355407
0.23329999999999984,-0.007840330023852033
0.23229999999999984,-0.007894089053246905
0.23129999999999984,-0.007905406743645824
0.23029999999999984,-0.00791248030014515
0.22929999999999984,-0.00791530972274488
0.22829999999999984,-0.007971898174739481
0.22729999999999984,-0.008015754225035298
0.22629999999999983,-0.008022827781534623
0.22529999999999983,-0.00804121902843287
0.22429999999999983,-0.008044048451032598
0.22329999999999983,-0.008093563346527874
0.22229999999999983,-0.00812044286122531
0.22129999999999983,-0.008144492953323016
0.22029999999999983,-0.008162884200221262
0.21929999999999983,-0.008171372468020452
0.21829999999999983,-0.008210984384416673
0.21729999999999983,-0.00827181697031087
0.21629999999999983,-0.008268987547711139
0.21529999999999982,-0.00829162292850898
0.21429999999999982,-0.008290208217209116
0.21329999999999982,-0.008348211380503581
0.21229999999999982,-0.008386408585599936
0.21129999999999982,-0.008379335029100614
0.21029999999999982,-0.008403385121198318
0.20929999999999982,-0.008400555698598587
0.20829999999999982,-0.008435923481095214
0.20729999999999982,-0.008509488468688197
0.20629999999999982,-0.008515147313887656
0.20529999999999982,-0.008520806159087117
0.20429999999999982,-0.008561832786783203
0.20329999999999981,-0.008615591816178074
0.2022999999999998,-0.008673594979472541
0.2012999999999998,-0.008673594979472541
0.20029999999999992,-0.00867076555687281
0.19929999999999992,-0.008673594979472541
0.19829999999999992,-0.00871320689586876
0.19729999999999992,-0.008765551213963767
0.19629999999999992,-0.008768380636563497
0.19529999999999992,-0.008766965925263631
0.19429999999999992,-0.008837701490256884
0.19329999999999992,-0.008882972251852564
0.19229999999999992,-0.008901363498750812
0.19129999999999991,-0.008904192921350541
0.1902999999999999,-0.008912681189149731
0.1892999999999999,-0.008915510611749462
0.1882999999999999,-0.008973513775043927
0.1872999999999999,-0.009023028670539205
0.1862999999999999,-0.009025858093138934
0.1852999999999999,-0.009040005206137586
0.1842999999999999,-0.009041419917437449
0.1832999999999999,-0.00908952010163286
0.1822999999999999,-0.009133376151928677
0.1812999999999999,-0.009146108553627462
0.1802999999999999,-0.009148937976227192
0.1792999999999999,-0.009150352687527057
0.1782999999999999,-0.009195623449122739
0.1772999999999999,-0.009264944302816125
0.1762999999999999,-0.009247967767217743
0.1752999999999999,-0.00929465324011329
0.1742999999999999,-0.00927201785931545
0.1732999999999999,-0.009324362177410455
0.1722999999999999,-0.009369632939006138
0.1712999999999999,-0.009358315248607219
0.1702999999999999,-0.009393683031103843
0.1692999999999999,-0.009399341876303305
0.1682999999999999,-0.00945734503959777
0.1672999999999999,-0.009499786378593722
0.1662999999999999,-0.009499786378593722
0.1652999999999999,-0.009516762914192102
0.1642999999999999,-0.009532324738490618
0.1632999999999999,-0.009553545407988593
0.1622999999999999,-0.009612963282582924
0.1612999999999999,-0.009627110395581574
0.1602999999999999,-0.009635598663380766
0.1592999999999999,-0.00964833106507955
0.15829999999999989,-0.009703504805774286
0.15729999999999988,-0.009747360856070102
0.15629999999999988,-0.009769996236867943
0.15529999999999988,-0.009779899215966998
0.15429999999999988,-0.009799705174165108
0.15329999999999988,-0.009832243534062004
0.15229999999999988,-0.009876099584357822
0.15129999999999988,-0.00987892900695755
0.15029999999999988,-0.009905808521654985
0.14929999999999988,-0.009908637944254716
0.14829999999999988,-0.009956738128450129
0.14729999999999988,-0.009983617643147563
0.14629999999999987,-0.010014741291744594
0.14529999999999987,-0.010014741291744594
0.14429999999999987,-0.010014741291744594
0.14329999999999987,-0.010092550413237172
0.14229999999999987,-0.010142065308732446
0.14129999999999987,-0.010127918195733797
0.14029999999999987,-0.010156212421731097
0.13929999999999987,-0.010156212421731097
0.13829999999999987,-0.0102128008737257
0.13729999999999987,-0.010253827501421786
0.13629999999999987,-0.01028070701611922
0.13529999999999986,-0.010286365861318682
0.13429999999999986,-0.010294854129117872
0.13329999999999986,-0.010338710179413688
0.13229999999999986,-0.010396713342708155
0.13129999999999986,-0.010392469208808559
0.13029999999999986,-0.01042076343480586
0.12929999999999986,-0.01044056939300397
0.12829999999999986,-0.010477351886800462
0.12729999999999986,-0.010538184472694657
0.12629999999999986,-0.010542428606594254
0.12529999999999986,-0.010574966966491151
0.12429999999999986,-0.01060609061508818
0.12329999999999985,-0.010651361376683863
0.12229999999999985,-0.010688143870480352
0.12129999999999985,-0.010685314447880621
0.12029999999999985,-0.010689558581780218
0.11929999999999985,-0.010731999920776168
0.11829999999999985,-0.010758879435473602
0.11729999999999985,-0.010826785577867126
0.11629999999999985,-0.010852250381264698
0.11529999999999985,-0.010857909226464157
0.11429999999999985,-0.010864982782963481
0.11329999999999985,-0.010918741812358352
0.11229999999999984,-0.010956939017454708
0.11129999999999984,-0.010976744975652817
0.11029999999999984,-0.010980989109552414
0.10929999999999984,-0.01101069804684958
0.10829999999999984,-0.011081433611842832
0.10729999999999984,-0.011098410147441212
0.10629999999999984,-0.011119630816939188
0.10529999999999984,-0.011123874950838783
0.10429999999999984,-0.011149339754236355
0.10329999999999984,-0.011235637143528121
0.10229999999999984,-0.011259687235625827
0.10129999999999983,-0.011256857813026096
0.10029999999999983,-0.011276663771224207
0.09929999999999983,-0.011309202131121104
0.09829999999999983,-0.011399743654312466
0.09729999999999983,-0.011442184993308417
0.09629999999999983,-0.011449258549807741
0.09529999999999983,-0.011466235085406123
0.09429999999999983,-0.011466235085406123
0.09329999999999983,-0.01153272651649978
0.09229999999999983,-0.011585070834594785
0.09129999999999983,-0.011589314968494382
0.09029999999999982,-0.011613365060592087
0.08929999999999982,-0.011636000441389925
0.08829999999999982,-0.0116897594707848
0.08729999999999982,-0.011754836190578589
0.08629999999999982,-0.011744933211479534
0.08529999999999982,-0.01176049503577805
0.08429999999999982,-0.01180010695217427
0.08329999999999982,-0.01185669540416887
0.08229999999999982,-0.011897722031864958
0.08129999999999982,-0.011900551454464687
0.08029999999999982,-0.011916113278763203
0.07929999999999982,-0.011950066349959966
0.07829999999999981,-0.012005240090654701
0.07729999999999981,-0.012051925563550248
0.07629999999999981,-0.012078805078247682
0.07529999999999992,-0.012067487387848764
0.07429999999999992,-0.012109928726844714
0.07329999999999992,-0.012166517178839315
0.07229999999999992,-0.012213202651734862
0.07129999999999992,-0.012224520342133782
0.07029999999999992,-0.012240082166432296
0.06929999999999992,-0.012269791103729463
0.06829999999999992,-0.01233345311222339
0.06729999999999992,-0.012385797430318396
0.06629999999999991,-0.012414091656315695
0.06529999999999991,-0.012443800593612862
0.06429999999999991,-0.012456532995311648
0.06329999999999991,-0.012537171539403955
0.06229999999999991,-0.012582442300999636
0.06129999999999991,-0.01259234528009869
0.06029999999999991,-0.012609321815697072
0.05929999999999991,-0.012629127773895183
0.05829999999999991,-0.012719669297086546
0.05729999999999991,-0.01274088996658452
0.056299999999999906,-0.01275503707958317
0.055299999999999905,-0.012779087171680878
0.054299999999999904,-0.012820113799376963
0.0532999999999999,-0.01288943465307035
0.0522999999999999,-0.01293470541466603
0.0512999999999999,-0.012924802435566976
0.0502999999999999,-0.012967243774562928
0.0492999999999999,-0.013012514536158608
0.0482999999999999,-0.013074761833352669
0.0472999999999999,-0.01313135028534727
0.0462999999999999,-0.01315115624354538
0.045299999999999896,-0.013162473933944301
0.044299999999999895,-0.013206329984240118
0.043299999999999894,-0.013261503724934854
0.04229999999999989,-0.013319506888229322
0.04129999999999989,-0.013329409867328374
0.04029999999999989,-0.013401560143621493
0.03929999999999989,-0.013424195524419334
0.03829999999999989,-0.013463807440815555
0.03729999999999989,-0.013528884160609347
0.03629999999999989,-0.013555763675306783
0.03529999999999989,-0.013571325499605297
0.034299999999999886,-0.013623669817700303
0.033299999999999885,-0.013714211340891666
0.032299999999999884,-0.013752408545988021
0.031299999999999883,-0.013793435173684107
0.030299999999999883,-0.01381607055448195
0.02929999999999988,-0.013855682470878171
0.02829999999999988,-0.013915100345472501
0.02729999999999988,-0.013936321014970478
0.02629999999999988,-0.013966029952267643
0.025299999999999878,-0.014014130136463054
0.024299999999999877,-0.01404949791895968
0.023299999999999876,-0.01410325694835455
0.022299999999999875,-0.014147112998650365
0.021299999999999875,-0.014189554337646317
0.020299999999999874,-0.014231995676642267
0.019299999999999873,-0.014231995676642267
0.018299999999999872,-0.014316878354634173
0.01729999999999987,-0.014373466806628774
0.01629999999999987,-0.014373466806628774
0.01529999999999987,-0.014444202371622025
0.014299999999999868,-0.014514937936615275
0.013299999999999867,-0.014571526388609878
0.012299999999999978,-0.014599820614607179
0.011299999999999866,-0.014599820614607179
0.010299999999999976,-0.01465640906660178
0.009299999999999864,-0.014712997518596381
0.008299999999999974,-0.014769585970590984
0.007299999999999862,-0.014826174422585584
0.006299999999999972,-0.014840321535584235
0.00529999999999986,-0.014882762874580187
0.0042999999999999705,-0.014925204213576137
0.0032999999999998586,-0.014981792665570736
0.0022999999999999687,-0.01503838111756534
0.0012999999999998568,-0.01505252823056399
0.00029999999999996696,-0.015066675343562642
-0.000700000000000145,-0.015137410908555892
-0.0017000000000000348,-0.015193999360550494
-0.0027000000000001467,-0.015250587812545097
-0.0037000000000000366,-0.015278882038542396
-0.0047000000000001485,-0.015278882038542396
-0.005700000000000038,-0.015335470490536997
-0.00670000000000015,-0.015406206055530251
-0.00770000000000004,-0.015448647394526203
-0.008700000000000152,-0.015491088733522153
-0.009700000000000042,-0.015505235846520802
-0.010700000000000154,-0.015575971411514053
-0.011700000000000044,-0.015660854089505957
-0.012700000000000156,-0.015675001202504608
-0.013700000000000045,-0.015703295428501907
-0.014700000000000157,-0.01573158965449921
-0.015700000000000047,-0.015774030993495156
-0.01670000000000016,-0.01585891367148706
-0.01770000000000005,-0.015873060784485714
-0.01870000000000016,-0.015929649236480315
-0.01970000000000005,-0.015943796349478963
-0.020700000000000163,-0.016000384801473564
-0.021700000000000053,-0.016099414592464115
-0.022700000000000164,-0.01614185593146007
-0.023700000000000054,-0.01618429727045602
-0.024700000000000166,-0.016212591496453318
-0.025700000000000056,-0.01624088572245062
-0.026700000000000168,-0.016311621287443873
-0.027700000000000058,-0.016339915513441175
-0.02870000000000017,-0.016354062626439823
-0.02970000000000006,-0.016410651078434424
-0.03070000000000017,-0.016453092417430374
-0.03170000000000006,-0.01652382798242363
-0.03270000000000017,-0.01656626932141958
-0.03370000000000006,-0.01658041643441823
-0.034700000000000175,-0.01662285777341418
-0.035700000000000065,-0.016679446225408782
-0.03670000000000018,-0.01673603467740338
-0.03770000000000007,-0.016806770242396636
-0.03870000000000018,-0.016820917355395284
-0.03970000000000007,-0.01683506446839394
-0.04070000000000018,-0.01690580003338719
-0.04170000000000007,-0.016962388485381792
-0.04270000000000018,-0.017004829824377742
-0.04370000000000007,-0.017047271163373692
-0.044700000000000184,-0.01706141827637234
-0.045700000000000074,-0.017118006728366945
-0.046700000000000186,-0.017188742293360197
-0.047700000000000076,-0.017217036519357496
-0.04870000000000019,-0.017259477858353446
-0.04970000000000008,-0.01728777208435075
-0.05070000000000019,-0.0173302134233467
-0.05170000000000008,-0.017400948988339954
-0.05270000000000019,-0.017429243214337253
-0.05370000000000008,-0.017471684553333203
-0.05470000000000019,-0.017499978779330502
-0.05570000000000008,-0.017556567231325104
-0.056700000000000195,-0.017627302796318356
-0.057700000000000085,-0.01765559702231566
-0.058700000000000196,-0.01766974413531431
-0.059700000000000086,-0.01772633258730891
-0.0607000000000002,-0.017754626813306213
