Potential V vs RHE, Current mA cm-2
0.013299999999999867,-0.26384365742482935
0.012299999999999978,-1.0490084288499246
0.011299999999999866,-1.5293029151541047
0.010299999999999976,-1.8773218949209036
0.009299999999999864,-2.1390434853959355
0.008299999999999974,-2.3144676865791998
0.007299999999999862,-2.4884771764625997
0.006299999999999972,-2.618630616050183
0.00529999999999986,-2.706342716641815
0.0042999999999999705,-2.794054817233447
0.0032999999999998586,-2.8803522065252145
0.0022999999999999687,-2.924208256821031
0.0012999999999998568,-3.0119203574126634
0.00029999999999996696,-3.055776407708479
-0.000700000000000145,-3.1420737970002466
-0.0017000000000000348,-3.1420737970002466
-0.0027000000000001467,-3.1859298472960624
-0.0037000000000000366,-3.2297858975918787
-0.0047000000000001485,-3.273641947887695
-0.005700000000000038,-3.317497998183511
-0.00670000000000015,-3.361354048479327
-0.00770000000000004,-3.361354048479327
-0.008700000000000152,-3.403795387475278
-0.009700000000000042,-3.447651437771094
-0.010700000000000154,-3.4915074880669104
-0.011700000000000044,-3.4915074880669104
-0.012700000000000156,-3.4915074880669104
-0.013700000000000045,-3.5353635383627267
-0.014700000000000157,-3.579219588658543
-0.015700000000000047,-3.579219588658543
-0.01670000000000016,-3.579219588658543
-0.01770000000000005,-3.623075638954359
-0.01870000000000016,-3.623075638954359
-0.01970000000000005,-3.6655169779503103
-0.020700000000000163,-3.6655169779503103
-0.021700000000000053,-3.6655169779503103
-0.022700000000000164,-3.7093730282461257
-0.023700000000000054,-3.7093730282461257
-0.024700000000000166,-3.7093730282461257
-0.025700000000000056,-3.7532290785419424
-0.026700000000000168,-3.7532290785419424
-0.027700000000000058,-3.7532290785419424
-0.02870000000000017,-3.7970851288377587
-0.02970000000000006,-3.7970851288377587
-0.03070000000000017,-3.7970851288377587
-0.03170000000000006,-3.840941179133574
-0.03270000000000017,-3.840941179133574
-0.03370000000000006,-3.840941179133574
-0.034700000000000175,-3.884797229429391
-0.035700000000000065,-3.884797229429391
-0.03670000000000018,-3.884797229429391
-0.03770000000000007,-3.884797229429391
-0.03870000000000018,-3.884797229429391
-0.03970000000000007,-3.884797229429391
-0.04070000000000018,-3.927238568425342
-0.04170000000000007,-3.927238568425342
-0.04270000000000018,-3.927238568425342
-0.04370000000000007,-3.971094618721158
-0.044700000000000184,-3.971094618721158
-0.045700000000000074,-3.971094618721158
-0.046700000000000186,-3.971094618721158
-0.047700000000000076,-3.971094618721158
-0.04870000000000019,-3.971094618721158
-0.04970000000000008,-3.971094618721158
-0.05070000000000019,-3.971094618721158
-0.05170000000000008,-4.014950669016974
-0.05270000000000019,-4.014950669016974
-0.05370000000000008,-4.014950669016974
-0.05470000000000019,-4.014950669016974
-0.05570000000000008,-4.014950669016974
-0.056700000000000195,-4.0588067193127895
-0.057700000000000085,-4.0588067193127895
-0.058700000000000196,-4.0588067193127895
-0.059700000000000086,-4.0588067193127895
-0.0607000000000002,-4.0588067193127895
-0.06170000000000009,-4.102662769608606
-0.0627000000000002,-4.102662769608606
-0.06370000000000009,-4.102662769608606
-0.0647000000000002,-4.102662769608606
-0.06570000000000009,-4.102662769608606
-0.0667000000000002,-4.146518819904423
-0.0677000000000001,-4.146518819904423
-0.0687000000000002,-4.146518819904423
-0.0697000000000001,-4.146518819904423
-0.07070000000000021,-4.146518819904423
-0.0717000000000001,-4.146518819904423
-0.07270000000000021,-4.146518819904423
-0.0737000000000001,-4.146518819904423
-0.07470000000000021,-4.146518819904423
-0.0757000000000001,-4.1889601589003735
-0.07670000000000021,-4.146518819904423
-0.0777000000000001,-4.146518819904423
-0.07870000000000021,-4.1889601589003735
-0.0797000000000001,-4.1889601589003735
-0.08070000000000022,-4.1889601589003735
-0.0817000000000001,-4.1889601589003735
-0.08270000000000022,-4.1889601589003735
-0.08370000000000011,-4.1889601589003735
-0.08470000000000022,-4.1889601589003735
-0.08570000000000011,-4.1889601589003735
-0.08670000000000022,-4.1889601589003735
-0.08770000000000011,-4.1889601589003735
-0.08870000000000022,-4.1889601589003735
-0.08970000000000011,-4.1889601589003735
-0.09070000000000022,-4.23281620919619
-0.09170000000000011,-4.23281620919619
-0.09270000000000023,-4.23281620919619
-0.09370000000000012,-4.23281620919619
-0.09470000000000023,-4.23281620919619
-0.09570000000000012,-4.23281620919619
-0.09670000000000023,-4.23281620919619
-0.09770000000000012,-4.23281620919619
-0.09870000000000023,-4.276672259492005
-0.09970000000000012,-4.23281620919619
-0.10070000000000023,-4.276672259492005
-0.10170000000000012,-4.276672259492005
-0.10270000000000024,-4.276672259492005
-0.10370000000000013,-4.276672259492005
-0.10470000000000024,-4.276672259492005
-0.10570000000000013,-4.276672259492005
-0.10670000000000024,-4.276672259492005
-0.10770000000000013,-4.3205283097878215
-0.10870000000000024,-4.3205283097878215
-0.10970000000000013,-4.3205283097878215
-0.11070000000000024,-4.276672259492005
-0.11170000000000013,-4.3205283097878215
-0.11270000000000002,-4.3205283097878215
-0.11370000000000013,-4.3205283097878215
-0.11470000000000002,-4.3205283097878215
-0.11570000000000014,-4.3205283097878215
-0.11670000000000003,-4.364384360083638
-0.11770000000000014,-4.3205283097878215
-0.11870000000000003,-4.364384360083638
-0.11970000000000014,-4.3205283097878215
-0.12070000000000003,-4.3205283097878215
-0.12170000000000014,-4.3205283097878215
-0.12270000000000003,-4.3205283097878215
-0.12370000000000014,-4.3205283097878215
-0.12470000000000003,-4.364384360083638
-0.12570000000000014,-4.364384360083638
-0.12670000000000003,-4.406825699079589
-0.12770000000000015,-4.406825699079589
-0.12870000000000004,-4.364384360083638
-0.12970000000000015,-4.406825699079589
-0.13070000000000004,-4.406825699079589
-0.13170000000000015,-4.406825699079589
-0.13270000000000004,-4.406825699079589
-0.13370000000000015,-4.406825699079589
-0.13470000000000004,-4.406825699079589
-0.13570000000000015,-4.406825699079589
-0.13670000000000004,-4.450681749375406
-0.13770000000000016,-4.450681749375406
-0.13870000000000005,-4.406825699079589
-0.13970000000000016,-4.450681749375406
-0.14070000000000005,-4.450681749375406
-0.14170000000000016,-4.450681749375406
-0.14270000000000005,-4.450681749375406
-0.14370000000000016,-4.450681749375406
-0.14470000000000005,-4.450681749375406
-0.14570000000000016,-4.450681749375406
-0.14670000000000005,-4.450681749375406
-0.14770000000000016,-4.494537799671222
-0.14870000000000005,-4.494537799671222
-0.14970000000000017,-4.494537799671222
-0.15070000000000006,-4.494537799671222
-0.15170000000000017,-4.494537799671222
-0.15270000000000006,-4.494537799671222
-0.15370000000000017,-4.494537799671222
-0.15470000000000006,-4.494537799671222
-0.15570000000000017,-4.494537799671222
-0.15670000000000006,-4.494537799671222
-0.15770000000000017,-4.494537799671222
-0.15870000000000006,-4.538393849967037
-0.15970000000000018,-4.538393849967037
-0.16070000000000007,-4.538393849967037
-0.16170000000000018,-4.538393849967037
-0.16270000000000007,-4.582249900262854
-0.16370000000000018,-4.582249900262854
-0.16470000000000007,-4.582249900262854
-0.16570000000000018,-4.582249900262854
-0.16670000000000007,-4.626105950558669
-0.16770000000000018,-4.626105950558669
-0.16870000000000007,-4.626105950558669
-0.16970000000000018,-4.626105950558669
-0.17070000000000007,-4.626105950558669
-0.17170000000000019,-4.626105950558669
-0.17270000000000008,-4.668547289554621
-0.1737000000000002,-4.668547289554621
-0.17470000000000008,-4.668547289554621
-0.1757000000000002,-4.668547289554621
-0.17670000000000008,-4.668547289554621
-0.1777000000000002,-4.712403339850438
-0.17870000000000008,-4.668547289554621
-0.1797000000000002,-4.712403339850438
-0.18070000000000008,-4.712403339850438
-0.1817000000000002,-4.712403339850438
-0.18270000000000008,-4.712403339850438
-0.1837000000000002,-4.756259390146253
-0.1847000000000001,-4.756259390146253
-0.1857000000000002,-4.756259390146253
-0.1867000000000001,-4.756259390146253
-0.1877000000000002,-4.800115440442069
-0.1887000000000001,-4.800115440442069
-0.1897000000000002,-4.843971490737885
-0.1907000000000001,-4.800115440442069
-0.1917000000000001,-4.843971490737885
-0.19269999999999998,-4.843971490737885
-0.1937000000000001,-4.843971490737885
-0.19469999999999998,-4.887827541033701
-0.1957000000000001,-4.887827541033701
-0.19669999999999999,-4.887827541033701
-0.1977000000000001,-4.9302688800296535
-0.1987,-4.9302688800296535
-0.1997000000000001,-4.9302688800296535
-0.2007,-4.9302688800296535
-0.2017000000000001,-4.974124930325469
-0.2027,-4.974124930325469
-0.2037000000000001,-4.974124930325469
-0.2047,-4.974124930325469
-0.2057000000000001,-5.017980980621284
-0.2067,-5.0618370309171015
-0.2077000000000001,-5.0618370309171015
-0.2087,-5.105693081212917
-0.2097000000000001,-5.105693081212917
-0.2107,-5.105693081212917
-0.2117000000000001,-5.149549131508733
-0.2127,-5.149549131508733
-0.2137000000000001,-5.149549131508733
-0.2147,-5.191990470504685
-0.2157000000000001,-5.235846520800501
-0.2167,-5.235846520800501
-0.21770000000000012,-5.279702571096316
-0.2187,-5.279702571096316
-0.21970000000000012,-5.323558621392133
-0.2207,-5.323558621392133
-0.22170000000000012,-5.367414671687949
-0.2227,-5.367414671687949
-0.22370000000000012,-5.367414671687949
-0.2247,-5.411270721983764
-0.22570000000000012,-5.453712060979717
-0.2267,-5.453712060979717
-0.22770000000000012,-5.453712060979717
-0.22870000000000001,-5.497568111275533
-0.22970000000000013,-5.5414241615713475
-0.23070000000000002,-5.5414241615713475
-0.23170000000000013,-5.585280211867165
-0.23270000000000002,-5.629136262162981
-0.23370000000000013,-5.672992312458796
-0.23470000000000002,-5.672992312458796
-0.23570000000000013,-5.672992312458796
-0.23670000000000002,-5.715433651454749
-0.2376999999999999,-5.715433651454749
-0.23870000000000002,-5.759289701750564
-0.2396999999999999,-5.759289701750564
-0.24070000000000003,-5.847001802342197
-0.24169999999999991,-5.847001802342197
-0.24270000000000003,-5.890857852638012
-0.24369999999999992,-5.9347139029338285
-0.24470000000000003,-5.9347139029338285
-0.24569999999999992,-5.977155241929781
-0.24670000000000003,-6.021011292225596
-0.24769999999999992,-6.021011292225596
-0.24870000000000003,-6.064867342521412
-0.24969999999999992,-6.108723392817228
-0.25070000000000003,-6.152579443113044
-0.2516999999999999,-6.196435493408861
-0.25270000000000004,-6.238876832404812
-0.2536999999999999,-6.282732882700628
-0.25470000000000004,-6.326588932996443
-0.2556999999999999,-6.37044498329226
-0.25670000000000004,-6.414301033588076
-0.25769999999999993,-6.458157083883892
-0.25870000000000004,-6.500598422879844
-0.25969999999999993,-6.54445447317566
-0.26070000000000004,-6.588310523471475
-0.26169999999999993,-6.632166573767292
-0.26270000000000004,-6.632166573767292
-0.26369999999999993,-6.6760226240631075
-0.26470000000000005,-6.762320013354876
-0.26569999999999994,-6.806176063650692
-0.26670000000000005,-6.850032113946507
-0.26769999999999994,-6.893888164242324
-0.26870000000000005,-6.981600264833956
-0.26969999999999994,-6.981600264833956
-0.27070000000000005,-7.067897654125724
-0.27169999999999994,-7.111753704421539
-0.27270000000000005,-7.155609754717355
-0.27369999999999994,-7.199465805013171
-0.27470000000000006,-7.243321855308987
-0.27569999999999995,-7.28576319430494
-0.27670000000000006,-7.37347529489657
-0.27769999999999995,-7.4173313451923875
-0.27870000000000006,-7.461187395488204
-0.27969999999999995,-7.50504344578402
-0.28070000000000006,-7.591340835075788
-0.28169999999999995,-7.635196885371603
-0.28270000000000006,-7.679052935667419
-0.28369999999999995,-7.7653503249591855
-0.28470000000000006,-7.809206375255003
-0.28569999999999995,-7.896918475846635
-0.28670000000000007,-7.984630576438266
-0.28769999999999996,-8.070927965730034
-0.28870000000000007,-8.158640066321666
-0.28969999999999996,-8.202496116617484
-0.29070000000000007,-8.288793505909249
-0.29169999999999996,-8.376505606500881
-0.29270000000000007,-8.4203616567967
-0.29369999999999996,-8.55051509638428
-0.2947000000000001,-8.594371146680096
-0.29569999999999996,-8.638227196975913
-0.2967000000000001,-8.725939297567548
-0.29769999999999996,-8.812236686859313
-0.2987000000000001,-8.85609273715513
-0.29969999999999997,-8.943804837746763
-0.3007000000000001,-9.031516938338395
-0.30169999999999997,-9.11781432763016
-0.3027000000000001,-9.205526428221793
-0.30369999999999997,-9.24938247851761
-0.3047000000000001,-9.335679867809377
-0.30569999999999997,-9.423391968401008
-0.3067000000000001,-9.511104068992642
-0.3077,-9.59740145828441
-0.3087000000000001,-9.685113558876042
-0.3097,-9.772825659467674
-0.3107000000000001,-9.85912304875944
-0.3117,-9.946835149351072
-0.3127000000000001,-10.078403300238522
-0.3137,-10.164700689530287
-0.3147000000000001,-10.25241279012192
-0.3157,-10.382566229709504
-0.3167000000000001,-10.470278330301136
-0.3177,-10.557990430892769
-0.3187000000000001,-10.688143870480351
-0.3197,-10.775855971071984
-0.3207000000000001,-10.906009410659568
-0.3217,-11.037577561547016
-0.3227000000000001,-11.123874950838783
-0.3237,-11.255443101726232
-0.3247000000000001,-11.343155202317865
-0.3257,-11.473308641905447
-0.3267000000000001,-11.56102074249708
-0.3277,-11.691174182084664
-0.3287000000000001,-11.778886282676295
-0.3297,-11.86659838326793
-0.3307000000000001,-11.996751822855511
-0.3317,-12.084463923447142
-0.3327000000000001,-12.214617363034726
-0.3337,-12.346185513922174
-0.3347000000000001,-12.476338953509758
-0.3357,-12.56405105410139
-0.3367000000000001,-12.694204493688973
-0.3377,-12.825772644576423
-0.3387000000000001,-12.955926084164007
-0.3397,-13.087494235051453
-0.3407000000000001,-13.217647674639037
-0.3417,-13.30535977523067
-0.3427000000000001,-13.436927926118118
-0.3437,-13.567081365705702
-0.3447000000000001,-13.741090855589102
-0.3457,-13.872659006476551
-0.3467000000000001,-14.002812446064135
-0.3477,-14.175407224647667
-0.3487000000000001,-14.30273124163552
-0.3497,-14.444202371622024
-0.3507000000000001,-14.57152638860988
-0.3517,-14.69885040559773
-0.3527000000000001,-14.826174422585586
-0.3537,-14.967645552572087
-0.3547000000000001,-15.137410908555893
-0.3557,-15.264734925543747
-0.35670000000000013,-15.448647394526201
-0.3577,-15.618412750510005
-0.35870000000000013,-15.74573676749786
-0.3597,-15.87306078448571
-0.36070000000000013,-16.056973253468165
-0.3617,-16.22673860945197
-0.3626999999999999,-16.354062626439823
-0.3637,-16.53797509542228
-0.3646999999999999,-16.665299112410132
-0.3657,-16.792623129397985
-0.3666999999999999,-16.962388485381787
-0.3677,-17.103859615368293
-0.3686999999999999,-17.2736249713521
-0.36970000000000003,-17.40094898833995
-0.3706999999999999,-17.584861457322408
-0.37170000000000003,-17.75462681330621
-0.3726999999999999,-17.924392169290012
-0.37370000000000003,-18.15074597726842
-0.3746999999999999,-18.27806999425627
-0.37570000000000003,-18.44783535024008
-0.3766999999999999,-18.589306480226583
-0.37770000000000004,-18.759071836210385
-0.3786999999999999,-18.92883719219419
-0.37970000000000004,-19.112749661176647
-0.3806999999999999,-19.28251501716045
-0.38170000000000004,-19.452280373144255
-0.38269999999999993,-19.678634181122664
-0.38370000000000004,-19.848399537106463
-0.38469999999999993,-20.01816489309027
-0.38570000000000004,-20.202077362072725
-0.38669999999999993,-20.371842718056527
-0.38770000000000004,-20.541608074040333
-0.38869999999999993,-20.76796188201874
-0.38970000000000005,-20.89528589900659
-0.39069999999999994,-21.065051254990397
-0.39170000000000005,-21.291405062968803
-0.39269999999999994,-21.461170418952605
-0.39370000000000005,-21.58849443594046
-0.39469999999999994,-21.814848243918867
-0.39570000000000005,-21.98461359990267
-0.39669999999999994,-22.15437895588647
-0.39770000000000005,-22.38073276386488
-0.39869999999999994,-22.592939458844636
-0.39970000000000006,-22.776851927827092
-0.40069999999999995,-22.989058622806844
-0.40170000000000006,-23.15882397879065
-0.40269999999999995,-23.342736447773106
-0.40370000000000006,-23.51250180375691
-0.40469999999999995,-23.682267159740714
-0.40570000000000006,-23.86617962872317
-0.40669999999999995,-24.078386323702922
-0.40770000000000006,-24.24815167968673
-0.40869999999999995,-24.432064148669184
-0.40970000000000006,-24.64427084364894
-0.41069999999999995,-24.870624651627345
-0.41170000000000007,-25.0828313466071
-0.41269999999999996,-25.295038041586857
-0.41370000000000007,-25.521391849565262
-0.41469999999999996,-25.73359854454502
-0.41570000000000007,-25.959952352523427
-0.41669999999999996,-26.17215904750318
-0.41770000000000007,-26.34192440348698
-0.41869999999999996,-26.525836872469437
-0.4197000000000001,-26.738043567449193
-0.42069999999999996,-26.9643973754276
-0.4217000000000001,-27.176604070407354
-0.42269999999999996,-27.34636942639116
-0.4237000000000001,-27.572723234369565
-0.42469999999999997,-27.78492992934932
-0.4257000000000001,-27.954695285333123
-0.42669999999999997,-28.18104909331153
-0.4277000000000001,-28.393255788291288
-0.42869999999999997,-28.577168257273744
-0.4297000000000001,-28.789374952253496
-0.43069999999999997,-28.959140308237306
-0.4317000000000001,-29.18549411621571
-0.4327,-29.39770081119546
-0.4337000000000001,-29.581613280177915
-0.4347,-29.751378636161718
-0.4357000000000001,-29.96358533114148
-0.4367,-30.147497800123933
-0.4377000000000001,-30.359704495103685
-0.4387,-30.529469851087494
-0.4397000000000001,-30.71338232006995
-0.4407,-30.925589015049702
-0.4417000000000001,-31.137795710029454
-0.4427,-31.36414951800786
-0.4437000000000001,-31.57635621298762
-0.4447,-31.84515135996197
-0.4457000000000001,-32.01491671594578
-0.4467,-32.283711862920136
-0.4477000000000001,-32.49591855789989
-0.4487,-32.70812525287965
-0.4497000000000001,-32.892037721862096
-0.4507,-33.14668575583781
-0.4517000000000001,-33.330598224820264
-0.4527,-33.50036358080407
-0.4537000000000001,-33.755011614779775
-0.4547,-33.98136542275818
-0.4557000000000001,-34.236013456733886
-0.4567,-34.462367264712285
-0.4577000000000001,-34.717015298688004
-0.4587,-34.94336910666641
-0.4597000000000001,-35.15557580164616
-0.4607,-35.38192960962457
-0.4617000000000001,-35.594136304604326
-0.4627,-35.806342999584075
-0.4637000000000001,-36.03269680756248
-0.4647,-36.244903502542236
-0.4657000000000001,-36.47125731052064
-0.4667,-36.64102266650445
-0.4677000000000001,-36.8532293614842
-0.4687,-37.037141830466666
-0.4697000000000001,-37.249348525446415
-0.4707,-37.47570233342482
-0.4717000000000001,-37.73035036740053
-0.4727,-37.94255706238028
-0.4737000000000001,-38.16891087035869
-0.4747,-38.38111756533845
-0.4757000000000001,-38.607471373316855
-0.4767,-38.777236729300654
-0.4777000000000001,-38.98944342428042
-0.4787,-39.21579723225882
-0.4797000000000001,-39.38556258824262
-0.4807,-39.654357735216976
-0.48170000000000013,-39.86656443019674
-0.4827,-40.135359577171094
-0.48370000000000013,-40.3900076111468
-0.4847,-40.616361419125205
-0.48570000000000013,-40.87100945310091
-0.4867,-41.083216148080666
-0.4876999999999999,-41.352011295055014
-0.4887,-41.606659329030734
-0.4896999999999999,-41.87545447600508
-0.4907,-42.130102509980794
-0.4916999999999999,-42.4413389959511
-0.4927,-42.71013414292546
-0.4936999999999999,-42.96478217690117
-0.49470000000000003,-43.23357732387552
-0.4956999999999999,-43.44578401885527
-0.49670000000000003,-43.657990713835034
-0.4976999999999999,-43.88434452181344
-0.49870000000000003,-44.138992555789144
-0.4996999999999999,-44.36534636376755
-0.5007,-44.577553058747306
-0.5016999999999999,-44.80390686672572
-0.5027,-45.05855490070142
-0.5036999999999999,-45.27076159568118
-0.5047,-45.53955674265553
-0.5056999999999999,-45.79420477663124
-0.5067,-46.062999923605595
-0.5076999999999999,-46.3176479575813
-0.5087,-46.544001765559706
