Apr. 9, 2025   21:54:32
Cyclic Voltammetry
File: c:/users/guazh/data/banditlqround7_x0exp994_r5/2025-03-28-exp1032\exp1032-2025-04-09t21_44_03-arkoh\exp1032_cv_sr_300mvs_efin_-1500mv.bin
Data Source:  Experiment
Instrument Model:  CHI760E
Header: CV ran at 300 mVs
Note: 

Init E (V) = -1
High E (V) = -1
Low E (V) = -1.5
Final E (V) = -1
Init P/N = N
Scan Rate (V/s) = 0.3
Segment = 3
Sample Interval (V) = 0.001
Quiet Time (sec) = 2
Sensitivity (A/V) = 0.01
Comp R (ohm) = 1.6

Results:

Channel 1:
Segment 1:
Ep = -1.219V
ip = 7.773e-4A
Ah = 2.082e-4C

Segment 2:

Segment 3:

Potential/V, Current/A

-1.000, 3.239e-6
-1.001, 6.182e-5
-1.002, 9.573e-5
-1.003, 1.173e-4
-1.004, 1.296e-4
-1.005, 1.389e-4
-1.006, 1.451e-4
-1.007, 1.574e-4
-1.008, 1.666e-4
-1.009, 1.728e-4
-1.010, 1.728e-4
-1.011, 1.790e-4
-1.012, 1.882e-4
-1.013, 1.944e-4
-1.014, 1.975e-4
-1.015, 1.975e-4
-1.016, 2.036e-4
-1.017, 2.098e-4
-1.018, 2.160e-4
-1.019, 2.221e-4
-1.020, 2.221e-4
-1.021, 2.252e-4
-1.022, 2.314e-4
-1.023, 2.406e-4
-1.024, 2.437e-4
-1.025, 2.468e-4
-1.026, 2.499e-4
-1.027, 2.591e-4
-1.028, 2.653e-4
-1.029, 2.715e-4
-1.030, 2.715e-4
-1.031, 2.746e-4
-1.032, 2.838e-4
-1.033, 2.931e-4
-1.034, 2.961e-4
-1.035, 2.992e-4
-1.036, 3.054e-4
-1.037, 3.115e-4
-1.038, 3.208e-4
-1.039, 3.239e-4
-1.040, 3.270e-4
-1.041, 3.331e-4
-1.042, 3.393e-4
-1.043, 3.485e-4
-1.044, 3.547e-4
-1.045, 3.578e-4
-1.046, 3.640e-4
-1.047, 3.732e-4
-1.048, 3.825e-4
-1.049, 3.886e-4
-1.050, 3.917e-4
-1.051, 3.948e-4
-1.052, 4.040e-4
-1.053, 4.133e-4
-1.054, 4.225e-4
-1.055, 4.256e-4
-1.056, 4.287e-4
-1.057, 4.410e-4
-1.058, 4.503e-4
-1.059, 4.565e-4
-1.060, 4.595e-4
-1.061, 4.657e-4
-1.062, 4.780e-4
-1.063, 4.842e-4
-1.064, 4.935e-4
-1.065, 4.965e-4
-1.066, 5.027e-4
-1.067, 5.120e-4
-1.068, 5.243e-4
-1.069, 5.305e-4
-1.070, 5.335e-4
-1.071, 5.366e-4
-1.072, 5.489e-4
-1.073, 5.582e-4
-1.074, 5.644e-4
-1.075, 5.705e-4
-1.076, 5.767e-4
-1.077, 5.859e-4
-1.078, 5.983e-4
-1.079, 6.044e-4
-1.080, 6.075e-4
-1.081, 6.137e-4
-1.082, 6.260e-4
-1.083, 6.353e-4
-1.084, 6.414e-4
-1.085, 6.476e-4
-1.086, 6.538e-4
-1.087, 6.630e-4
-1.088, 6.754e-4
-1.089, 6.846e-4
-1.090, 6.877e-4
-1.091, 6.939e-4
-1.092, 7.031e-4
-1.093, 7.154e-4
-1.094, 7.216e-4
-1.095, 7.247e-4
-1.096, 7.309e-4
-1.097, 7.432e-4
-1.098, 7.555e-4
-1.099, 7.617e-4
-1.100, 7.679e-4
-1.101, 7.740e-4
-1.102, 7.833e-4
-1.103, 7.956e-4
-1.104, 8.018e-4
-1.105, 8.079e-4
-1.106, 8.141e-4
-1.107, 8.264e-4
-1.108, 8.388e-4
-1.109, 8.480e-4
-1.110, 8.542e-4
-1.111, 8.603e-4
-1.112, 8.727e-4
-1.113, 8.850e-4
-1.114, 8.912e-4
-1.115, 8.973e-4
-1.116, 9.066e-4
-1.117, 9.158e-4
-1.118, 9.313e-4
-1.119, 9.405e-4
-1.120, 9.436e-4
-1.121, 9.528e-4
-1.122, 9.683e-4
-1.123, 9.806e-4
-1.124, 9.898e-4
-1.125, 9.960e-4
-1.126, 1.005e-3
-1.127, 1.018e-3
-1.128, 1.033e-3
-1.129, 1.042e-3
-1.130, 1.048e-3
-1.131, 1.058e-3
-1.132, 1.073e-3
-1.133, 1.088e-3
-1.134, 1.101e-3
-1.135, 1.107e-3
-1.136, 1.116e-3
-1.137, 1.132e-3
-1.138, 1.147e-3
-1.139, 1.156e-3
-1.140, 1.166e-3
-1.141, 1.175e-3
-1.142, 1.190e-3
-1.143, 1.206e-3
-1.144, 1.218e-3
-1.145, 1.227e-3
-1.146, 1.240e-3
-1.147, 1.255e-3
-1.148, 1.270e-3
-1.149, 1.283e-3
-1.150, 1.292e-3
-1.151, 1.304e-3
-1.152, 1.320e-3
-1.153, 1.338e-3
-1.154, 1.354e-3
-1.155, 1.363e-3
-1.156, 1.372e-3
-1.157, 1.391e-3
-1.158, 1.406e-3
-1.159, 1.421e-3
-1.160, 1.428e-3
-1.161, 1.440e-3
-1.162, 1.458e-3
-1.163, 1.474e-3
-1.164, 1.489e-3
-1.165, 1.499e-3
-1.166, 1.511e-3
-1.167, 1.526e-3
-1.168, 1.542e-3
-1.169, 1.557e-3
-1.170, 1.569e-3
-1.171, 1.579e-3
-1.172, 1.597e-3
-1.173, 1.616e-3
-1.174, 1.628e-3
-1.175, 1.637e-3
-1.176, 1.647e-3
-1.177, 1.665e-3
-1.178, 1.684e-3
-1.179, 1.696e-3
-1.180, 1.705e-3
-1.181, 1.714e-3
-1.182, 1.733e-3
-1.183, 1.748e-3
-1.184, 1.761e-3
-1.185, 1.770e-3
-1.186, 1.779e-3
-1.187, 1.795e-3
-1.188, 1.810e-3
-1.189, 1.819e-3
-1.190, 1.825e-3
-1.191, 1.838e-3
-1.192, 1.850e-3
-1.193, 1.862e-3
-1.194, 1.875e-3
-1.195, 1.881e-3
-1.196, 1.887e-3
-1.197, 1.899e-3
-1.198, 1.915e-3
-1.199, 1.921e-3
-1.200, 1.927e-3
-1.201, 1.933e-3
-1.202, 1.943e-3
-1.203, 1.955e-3
-1.204, 1.961e-3
-1.205, 1.964e-3
-1.206, 1.967e-3
-1.207, 1.976e-3
-1.208, 1.986e-3
-1.209, 1.992e-3
-1.210, 1.992e-3
-1.211, 1.995e-3
-1.212, 2.001e-3
-1.213, 2.007e-3
-1.214, 2.010e-3
-1.215, 2.010e-3
-1.216, 2.010e-3
-1.217, 2.013e-3
-1.218, 2.017e-3
-1.219, 2.020e-3
-1.220, 2.017e-3
-1.221, 2.010e-3
-1.222, 2.013e-3
-1.223, 2.013e-3
-1.224, 2.010e-3
-1.225, 2.007e-3
-1.226, 1.998e-3
-1.227, 1.998e-3
-1.228, 1.995e-3
-1.229, 1.995e-3
-1.230, 1.983e-3
-1.231, 1.970e-3
-1.232, 1.964e-3
-1.233, 1.961e-3
-1.234, 1.952e-3
-1.235, 1.936e-3
-1.236, 1.921e-3
-1.237, 1.912e-3
-1.238, 1.902e-3
-1.239, 1.890e-3
-1.240, 1.872e-3
-1.241, 1.853e-3
-1.242, 1.841e-3
-1.243, 1.832e-3
-1.244, 1.816e-3
-1.245, 1.795e-3
-1.246, 1.776e-3
-1.247, 1.758e-3
-1.248, 1.742e-3
-1.249, 1.724e-3
-1.250, 1.702e-3
-1.251, 1.680e-3
-1.252, 1.656e-3
-1.253, 1.637e-3
-1.254, 1.619e-3
-1.255, 1.597e-3
-1.256, 1.573e-3
-1.257, 1.554e-3
-1.258, 1.539e-3
-1.259, 1.514e-3
-1.260, 1.486e-3
-1.261, 1.462e-3
-1.262, 1.440e-3
-1.263, 1.418e-3
-1.264, 1.397e-3
-1.265, 1.369e-3
-1.266, 1.344e-3
-1.267, 1.323e-3
-1.268, 1.304e-3
-1.269, 1.283e-3
-1.270, 1.258e-3
-1.271, 1.233e-3
-1.272, 1.215e-3
-1.273, 1.199e-3
-1.274, 1.178e-3
-1.275, 1.156e-3
-1.276, 1.135e-3
-1.277, 1.116e-3
-1.278, 1.104e-3
-1.279, 1.082e-3
-1.280, 1.064e-3
-1.281, 1.045e-3
-1.282, 1.030e-3
-1.283, 1.018e-3
-1.284, 1.005e-3
-1.285, 9.837e-4
-1.286, 9.683e-4
-1.287, 9.559e-4
-1.288, 9.467e-4
-1.289, 9.343e-4
-1.290, 9.189e-4
-1.291, 9.035e-4
-1.292, 8.943e-4
-1.293, 8.881e-4
-1.294, 8.788e-4
-1.295, 8.665e-4
-1.296, 8.542e-4
-1.297, 8.511e-4
-1.298, 8.449e-4
-1.299, 8.388e-4
-1.300, 8.295e-4
-1.301, 8.172e-4
-1.302, 8.141e-4
-1.303, 8.141e-4
-1.304, 8.079e-4
-1.305, 7.987e-4
-1.306, 7.925e-4
-1.307, 7.894e-4
-1.308, 7.925e-4
-1.309, 7.894e-4
-1.310, 7.802e-4
-1.311, 7.771e-4
-1.312, 7.771e-4
-1.313, 7.802e-4
-1.314, 7.771e-4
-1.315, 7.709e-4
-1.316, 7.679e-4
-1.317, 7.679e-4
-1.318, 7.740e-4
-1.319, 7.740e-4
-1.320, 7.679e-4
-1.321, 7.679e-4
-1.322, 7.709e-4
-1.323, 7.740e-4
-1.324, 7.771e-4
-1.325, 7.709e-4
-1.326, 7.709e-4
-1.327, 7.771e-4
-1.328, 7.802e-4
-1.329, 7.802e-4
-1.330, 7.802e-4
-1.331, 7.802e-4
-1.332, 7.863e-4
-1.333, 7.894e-4
-1.334, 7.925e-4
-1.335, 7.925e-4
-1.336, 7.925e-4
-1.337, 7.987e-4
-1.338, 8.079e-4
-1.339, 8.110e-4
-1.340, 8.079e-4
-1.341, 8.110e-4
-1.342, 8.172e-4
-1.343, 8.264e-4
-1.344, 8.295e-4
-1.345, 8.295e-4
-1.346, 8.295e-4
-1.347, 8.388e-4
-1.348, 8.480e-4
-1.349, 8.511e-4
-1.350, 8.511e-4
-1.351, 8.542e-4
-1.352, 8.603e-4
-1.353, 8.696e-4
-1.354, 8.727e-4
-1.355, 8.758e-4
-1.356, 8.788e-4
-1.357, 8.881e-4
-1.358, 9.004e-4
-1.359, 9.035e-4
-1.360, 9.035e-4
-1.361, 9.097e-4
-1.362, 9.189e-4
-1.363, 9.282e-4
-1.364, 9.374e-4
-1.365, 9.374e-4
-1.366, 9.405e-4
-1.367, 9.498e-4
-1.368, 9.590e-4
-1.369, 9.652e-4
-1.370, 9.683e-4
-1.371, 9.713e-4
-1.372, 9.806e-4
-1.373, 9.898e-4
-1.374, 9.991e-4
-1.375, 9.991e-4
-1.376, 1.005e-3
-1.377, 1.014e-3
-1.378, 1.024e-3
-1.379, 1.033e-3
-1.380, 1.036e-3
-1.381, 1.039e-3
-1.382, 1.048e-3
-1.383, 1.061e-3
-1.384, 1.067e-3
-1.385, 1.070e-3
-1.386, 1.076e-3
-1.387, 1.085e-3
-1.388, 1.095e-3
-1.389, 1.101e-3
-1.390, 1.101e-3
-1.391, 1.107e-3
-1.392, 1.113e-3
-1.393, 1.125e-3
-1.394, 1.132e-3
-1.395, 1.135e-3
-1.396, 1.138e-3
-1.397, 1.147e-3
-1.398, 1.156e-3
-1.399, 1.162e-3
-1.400, 1.162e-3
-1.401, 1.169e-3
-1.402, 1.178e-3
-1.403, 1.187e-3
-1.404, 1.193e-3
-1.405, 1.196e-3
-1.406, 1.196e-3
-1.407, 1.206e-3
-1.408, 1.212e-3
-1.409, 1.218e-3
-1.410, 1.218e-3
-1.411, 1.221e-3
-1.412, 1.230e-3
-1.413, 1.240e-3
-1.414, 1.246e-3
-1.415, 1.246e-3
-1.416, 1.249e-3
-1.417, 1.255e-3
-1.418, 1.264e-3
-1.419, 1.267e-3
-1.420, 1.267e-3
-1.421, 1.270e-3
-1.422, 1.277e-3
-1.423, 1.286e-3
-1.424, 1.289e-3
-1.425, 1.289e-3
-1.426, 1.289e-3
-1.427, 1.295e-3
-1.428, 1.304e-3
-1.429, 1.307e-3
-1.430, 1.307e-3
-1.431, 1.307e-3
-1.432, 1.314e-3
-1.433, 1.320e-3
-1.434, 1.323e-3
-1.435, 1.320e-3
-1.436, 1.320e-3
-1.437, 1.326e-3
-1.438, 1.332e-3
-1.439, 1.335e-3
-1.440, 1.332e-3
-1.441, 1.332e-3
-1.442, 1.338e-3
-1.443, 1.341e-3
-1.444, 1.344e-3
-1.445, 1.341e-3
-1.446, 1.341e-3
-1.447, 1.347e-3
-1.448, 1.354e-3
-1.449, 1.354e-3
-1.450, 1.351e-3
-1.451, 1.354e-3
-1.452, 1.360e-3
-1.453, 1.363e-3
-1.454, 1.363e-3
-1.455, 1.363e-3
-1.456, 1.360e-3
-1.457, 1.366e-3
-1.458, 1.372e-3
-1.459, 1.372e-3
-1.460, 1.372e-3
-1.461, 1.372e-3
-1.462, 1.378e-3
-1.463, 1.384e-3
-1.464, 1.391e-3
-1.465, 1.391e-3
-1.466, 1.394e-3
-1.467, 1.403e-3
-1.468, 1.415e-3
-1.469, 1.421e-3
-1.470, 1.425e-3
-1.471, 1.431e-3
-1.472, 1.437e-3
-1.473, 1.455e-3
-1.474, 1.471e-3
-1.475, 1.483e-3
-1.476, 1.499e-3
-1.477, 1.517e-3
-1.478, 1.542e-3
-1.479, 1.566e-3
-1.480, 1.591e-3
-1.481, 1.625e-3
-1.482, 1.665e-3
-1.483, 1.711e-3
-1.484, 1.764e-3
-1.485, 1.816e-3
-1.486, 1.878e-3
-1.487, 1.952e-3
-1.488, 2.032e-3
-1.489, 2.118e-3
-1.490, 2.214e-3
-1.491, 2.319e-3
-1.492, 2.442e-3
-1.493, 2.581e-3
-1.494, 2.732e-3
-1.495, 2.892e-3
-1.496, 3.071e-3
-1.497, 3.278e-3
-1.498, 3.496e-3
-1.499, 3.728e-3
-1.500, 3.900e-3
-1.499, 4.005e-3
-1.498, 4.135e-3
-1.497, 4.264e-3
-1.496, 4.381e-3
-1.495, 4.489e-3
-1.494, 4.585e-3
-1.493, 4.677e-3
-1.492, 4.760e-3
-1.491, 4.834e-3
-1.490, 4.899e-3
-1.489, 4.952e-3
-1.488, 5.004e-3
-1.487, 5.053e-3
-1.486, 5.093e-3
-1.485, 5.127e-3
-1.484, 5.158e-3
-1.483, 5.186e-3
-1.482, 5.214e-3
-1.481, 5.235e-3
-1.480, 5.251e-3
-1.479, 5.263e-3
-1.478, 5.272e-3
-1.477, 5.282e-3
-1.476, 5.288e-3
-1.475, 5.285e-3
-1.474, 5.272e-3
-1.473, 5.266e-3
-1.472, 5.260e-3
-1.471, 5.251e-3
-1.470, 5.235e-3
-1.469, 5.211e-3
-1.468, 5.195e-3
-1.467, 5.180e-3
-1.466, 5.146e-3
-1.465, 5.124e-3
-1.464, 5.093e-3
-1.463, 5.063e-3
-1.462, 5.029e-3
-1.461, 4.989e-3
-1.460, 4.961e-3
-1.459, 4.924e-3
-1.458, 4.890e-3
-1.457, 4.850e-3
-1.456, 4.810e-3
-1.455, 4.760e-3
-1.454, 4.727e-3
-1.453, 4.680e-3
-1.452, 4.634e-3
-1.451, 4.591e-3
-1.450, 4.545e-3
-1.449, 4.498e-3
-1.448, 4.449e-3
-1.447, 4.403e-3
-1.446, 4.360e-3
-1.445, 4.304e-3
-1.444, 4.246e-3
-1.443, 4.187e-3
-1.442, 4.144e-3
-1.441, 4.085e-3
-1.440, 4.030e-3
-1.439, 3.984e-3
-1.438, 3.931e-3
-1.437, 3.882e-3
-1.436, 3.826e-3
-1.435, 3.768e-3
-1.434, 3.709e-3
-1.433, 3.651e-3
-1.432, 3.592e-3
-1.431, 3.536e-3
-1.430, 3.475e-3
-1.429, 3.413e-3
-1.428, 3.355e-3
-1.427, 3.296e-3
-1.426, 3.237e-3
-1.425, 3.179e-3
-1.424, 3.117e-3
-1.423, 3.065e-3
-1.422, 3.012e-3
-1.421, 2.957e-3
-1.420, 2.895e-3
-1.419, 2.843e-3
-1.418, 2.787e-3
-1.417, 2.735e-3
-1.416, 2.679e-3
-1.415, 2.624e-3
-1.414, 2.571e-3
-1.413, 2.519e-3
-1.412, 2.467e-3
-1.411, 2.408e-3
-1.410, 2.353e-3
-1.409, 2.300e-3
-1.408, 2.251e-3
-1.407, 2.201e-3
-1.406, 2.152e-3
-1.405, 2.097e-3
-1.404, 2.047e-3
-1.403, 1.998e-3
-1.402, 1.952e-3
-1.401, 1.906e-3
-1.400, 1.853e-3
-1.399, 1.804e-3
-1.398, 1.754e-3
-1.397, 1.711e-3
-1.396, 1.665e-3
-1.395, 1.616e-3
-1.394, 1.569e-3
-1.393, 1.526e-3
-1.392, 1.483e-3
-1.391, 1.440e-3
-1.390, 1.397e-3
-1.389, 1.351e-3
-1.388, 1.310e-3
-1.387, 1.273e-3
-1.386, 1.233e-3
-1.385, 1.190e-3
-1.384, 1.150e-3
-1.383, 1.113e-3
-1.382, 1.079e-3
-1.381, 1.039e-3
-1.380, 1.002e-3
-1.379, 9.621e-4
-1.378, 9.282e-4
-1.377, 8.973e-4
-1.376, 8.634e-4
-1.375, 8.264e-4
-1.374, 7.925e-4
-1.373, 7.617e-4
-1.372, 7.339e-4
-1.371, 7.000e-4
-1.370, 6.661e-4
-1.369, 6.353e-4
-1.368, 6.075e-4
-1.367, 5.829e-4
-1.366, 5.520e-4
-1.365, 5.212e-4
-1.364, 4.935e-4
-1.363, 4.688e-4
-1.362, 4.472e-4
-1.361, 4.225e-4
-1.360, 3.979e-4
-1.359, 3.701e-4
-1.358, 3.485e-4
-1.357, 3.300e-4
-1.356, 3.054e-4
-1.355, 2.807e-4
-1.354, 2.622e-4
-1.353, 2.437e-4
-1.352, 2.283e-4
-1.351, 2.067e-4
-1.350, 1.851e-4
-1.349, 1.666e-4
-1.348, 1.481e-4
-1.347, 1.358e-4
-1.346, 1.173e-4
-1.345, 9.882e-5
-1.344, 8.032e-5
-1.343, 6.798e-5
-1.342, 5.565e-5
-1.341, 4.024e-5
-1.340, 2.174e-5
-1.339, 6.322e-6
-1.338, -6.010e-6
-1.337, -1.526e-5
-1.336, -2.759e-5
-1.335, -4.301e-5
-1.334, -5.842e-5
-1.333, -6.767e-5
-1.332, -7.384e-5
-1.331, -8.617e-5
-1.330, -1.016e-4
-1.329, -1.139e-4
-1.328, -1.201e-4
-1.327, -1.293e-4
-1.326, -1.386e-4
-1.325, -1.509e-4
-1.324, -1.602e-4
-1.323, -1.663e-4
-1.322, -1.694e-4
-1.321, -1.787e-4
-1.320, -1.879e-4
-1.319, -2.002e-4
-1.318, -2.064e-4
-1.317, -2.095e-4
-1.316, -2.157e-4
-1.315, -2.280e-4
-1.314, -2.372e-4
-1.313, -2.403e-4
-1.312, -2.434e-4
-1.311, -2.496e-4
-1.310, -2.588e-4
-1.309, -2.650e-4
-1.308, -2.712e-4
-1.307, -2.712e-4
-1.306, -2.773e-4
-1.305, -2.835e-4
-1.304, -2.897e-4
-1.303, -2.927e-4
-1.302, -2.958e-4
-1.301, -2.989e-4
-1.300, -3.112e-4
-1.299, -3.143e-4
-1.298, -3.174e-4
-1.297, -3.174e-4
-1.296, -3.236e-4
-1.295, -3.297e-4
-1.294, -3.390e-4
-1.293, -3.390e-4
-1.292, -3.390e-4
-1.291, -3.452e-4
-1.290, -3.513e-4
-1.289, -3.575e-4
-1.288, -3.575e-4
-1.287, -3.637e-4
-1.286, -3.667e-4
-1.285, -3.729e-4
-1.284, -3.791e-4
-1.283, -3.791e-4
-1.282, -3.791e-4
-1.281, -3.852e-4
-1.280, -3.914e-4
-1.279, -3.976e-4
-1.278, -4.006e-4
-1.277, -4.006e-4
-1.276, -4.037e-4
-1.275, -4.099e-4
-1.274, -4.161e-4
-1.273, -4.161e-4
-1.272, -4.161e-4
-1.271, -4.191e-4
-1.270, -4.253e-4
-1.269, -4.315e-4
-1.268, -4.346e-4
-1.267, -4.346e-4
-1.266, -4.376e-4
-1.265, -4.469e-4
-1.264, -4.500e-4
-1.263, -4.500e-4
-1.262, -4.500e-4
-1.261, -4.531e-4
-1.260, -4.623e-4
-1.259, -4.685e-4
-1.258, -4.716e-4
-1.257, -4.685e-4
-1.256, -4.746e-4
-1.255, -4.808e-4
-1.254, -4.870e-4
-1.253, -4.901e-4
-1.252, -4.901e-4
-1.251, -4.931e-4
-1.250, -4.993e-4
-1.249, -5.055e-4
-1.248, -5.086e-4
-1.247, -5.086e-4
-1.246, -5.116e-4
-1.245, -5.209e-4
-1.244, -5.271e-4
-1.243, -5.271e-4
-1.242, -5.271e-4
-1.241, -5.301e-4
-1.240, -5.394e-4
-1.239, -5.456e-4
-1.238, -5.486e-4
-1.237, -5.456e-4
-1.236, -5.517e-4
-1.235, -5.579e-4
-1.234, -5.641e-4
-1.233, -5.671e-4
-1.232, -5.671e-4
-1.231, -5.733e-4
-1.230, -5.795e-4
-1.229, -5.887e-4
-1.228, -5.918e-4
-1.227, -5.918e-4
-1.226, -5.949e-4
-1.225, -6.041e-4
-1.224, -6.103e-4
-1.223, -6.103e-4
-1.222, -6.103e-4
-1.221, -6.165e-4
-1.220, -6.257e-4
-1.219, -6.288e-4
-1.218, -6.319e-4
-1.217, -6.350e-4
-1.216, -6.380e-4
-1.215, -6.473e-4
-1.214, -6.565e-4
-1.213, -6.565e-4
-1.212, -6.596e-4
-1.211, -6.658e-4
-1.210, -6.720e-4
-1.209, -6.812e-4
-1.208, -6.843e-4
-1.207, -6.843e-4
-1.206, -6.905e-4
-1.205, -6.997e-4
-1.204, -7.059e-4
-1.203, -7.090e-4
-1.202, -7.120e-4
-1.201, -7.182e-4
-1.200, -7.275e-4
-1.199, -7.336e-4
-1.198, -7.367e-4
-1.197, -7.398e-4
-1.196, -7.460e-4
-1.195, -7.521e-4
-1.194, -7.645e-4
-1.193, -7.675e-4
-1.192, -7.706e-4
-1.191, -7.737e-4
-1.190, -7.860e-4
-1.189, -7.922e-4
-1.188, -7.984e-4
-1.187, -8.015e-4
-1.186, -8.076e-4
-1.185, -8.169e-4
-1.184, -8.261e-4
-1.183, -8.323e-4
-1.182, -8.354e-4
-1.181, -8.415e-4
-1.180, -8.508e-4
-1.179, -8.600e-4
-1.178, -8.631e-4
-1.177, -8.693e-4
-1.176, -8.724e-4
-1.175, -8.847e-4
-1.174, -8.909e-4
-1.173, -8.970e-4
-1.172, -9.001e-4
-1.171, -9.124e-4
-1.170, -9.217e-4
-1.169, -9.309e-4
-1.168, -9.371e-4
-1.167, -9.402e-4
-1.166, -9.494e-4
-1.165, -9.587e-4
-1.164, -9.710e-4
-1.163, -9.772e-4
-1.162, -9.803e-4
-1.161, -9.895e-4
-1.160, -1.002e-3
-1.159, -1.014e-3
-1.158, -1.017e-3
-1.157, -1.020e-3
-1.156, -1.030e-3
-1.155, -1.042e-3
-1.154, -1.051e-3
-1.153, -1.060e-3
-1.152, -1.064e-3
-1.151, -1.070e-3
-1.150, -1.082e-3
-1.149, -1.094e-3
-1.148, -1.116e-3
-1.147, -1.110e-3
-1.146, -1.116e-3
-1.145, -1.125e-3
-1.144, -1.134e-3
-1.143, -1.141e-3
-1.142, -1.144e-3
-1.141, -1.150e-3
-1.140, -1.162e-3
-1.139, -1.171e-3
-1.138, -1.178e-3
-1.137, -1.187e-3
-1.136, -1.196e-3
-1.135, -1.208e-3
-1.134, -1.221e-3
-1.133, -1.224e-3
-1.132, -1.230e-3
-1.131, -1.236e-3
-1.130, -1.249e-3
-1.129, -1.261e-3
-1.128, -1.267e-3
-1.127, -1.270e-3
-1.126, -1.276e-3
-1.125, -1.289e-3
-1.124, -1.298e-3
-1.123, -1.304e-3
-1.122, -1.307e-3
-1.121, -1.316e-3
-1.120, -1.326e-3
-1.119, -1.338e-3
-1.118, -1.341e-3
-1.117, -1.344e-3
-1.116, -1.350e-3
-1.115, -1.359e-3
-1.114, -1.369e-3
-1.113, -1.375e-3
-1.112, -1.378e-3
-1.111, -1.384e-3
-1.110, -1.393e-3
-1.109, -1.403e-3
-1.108, -1.409e-3
-1.107, -1.412e-3
-1.106, -1.418e-3
-1.105, -1.430e-3
-1.104, -1.437e-3
-1.103, -1.443e-3
-1.102, -1.449e-3
-1.101, -1.455e-3
-1.100, -1.464e-3
-1.099, -1.474e-3
-1.098, -1.480e-3
-1.097, -1.480e-3
-1.096, -1.486e-3
-1.095, -1.495e-3
-1.094, -1.507e-3
-1.093, -1.507e-3
-1.092, -1.507e-3
-1.091, -1.511e-3
-1.090, -1.523e-3
-1.089, -1.532e-3
-1.088, -1.535e-3
-1.087, -1.538e-3
-1.086, -1.544e-3
-1.085, -1.554e-3
-1.084, -1.566e-3
-1.083, -1.575e-3
-1.082, -1.575e-3
-1.081, -1.575e-3
-1.080, -1.588e-3
-1.079, -1.594e-3
-1.078, -1.606e-3
-1.077, -1.609e-3
-1.076, -1.609e-3
-1.075, -1.612e-3
-1.074, -1.618e-3
-1.073, -1.615e-3
-1.072, -1.618e-3
-1.071, -1.625e-3
-1.070, -1.637e-3
-1.069, -1.643e-3
-1.068, -1.643e-3
-1.067, -1.631e-3
-1.066, -1.625e-3
-1.065, -1.631e-3
-1.064, -1.637e-3
-1.063, -1.637e-3
-1.062, -1.640e-3
-1.061, -1.643e-3
-1.060, -1.655e-3
-1.059, -1.662e-3
-1.058, -1.665e-3
-1.057, -1.665e-3
-1.056, -1.671e-3
-1.055, -1.674e-3
-1.054, -1.677e-3
-1.053, -1.677e-3
-1.052, -1.677e-3
-1.051, -1.677e-3
-1.050, -1.683e-3
-1.049, -1.689e-3
-1.048, -1.689e-3
-1.047, -1.671e-3
-1.046, -1.677e-3
-1.045, -1.692e-3
-1.044, -1.696e-3
-1.043, -1.692e-3
-1.042, -1.689e-3
-1.041, -1.686e-3
-1.040, -1.686e-3
-1.039, -1.686e-3
-1.038, -1.692e-3
-1.037, -1.692e-3
-1.036, -1.692e-3
-1.035, -1.692e-3
-1.034, -1.696e-3
-1.033, -1.692e-3
-1.032, -1.699e-3
-1.031, -1.714e-3
-1.030, -1.714e-3
-1.029, -1.717e-3
-1.028, -1.717e-3
-1.027, -1.714e-3
-1.026, -1.714e-3
-1.025, -1.720e-3
-1.024, -1.705e-3
-1.023, -1.705e-3
-1.022, -1.699e-3
-1.021, -1.692e-3
-1.020, -1.674e-3
-1.019, -1.671e-3
-1.018, -1.665e-3
-1.017, -1.659e-3
-1.016, -1.659e-3
-1.015, -1.659e-3
-1.014, -1.659e-3
-1.013, -1.655e-3
-1.012, -1.649e-3
-1.011, -1.649e-3
-1.010, -1.668e-3
-1.009, -1.683e-3
-1.008, -1.652e-3
-1.007, -1.646e-3
-1.006, -1.643e-3
-1.005, -1.668e-3
-1.004, -1.708e-3
-1.003, -1.705e-3
-1.002, -1.699e-3
-1.001, -1.699e-3
