Potential V vs RHE, Current mA cm-2
0.013299999999999867,-0.08943804837746762
0.012299999999999978,-1.1798692240874404
0.011299999999999866,-1.92117794521672
0.010299999999999976,-2.4884771764625997
0.009299999999999864,-2.924208256821031
0.008299999999999974,-3.273641947887695
0.007299999999999862,-3.5353635383627267
0.006299999999999972,-3.7532290785419424
0.00529999999999986,-3.927238568425342
0.0042999999999999705,-4.102662769608606
0.0032999999999998586,-4.23281620919619
0.0022999999999999687,-4.364384360083638
0.0012999999999998568,-4.494537799671222
0.00029999999999996696,-4.668547289554621
-0.000700000000000145,-4.800115440442069
-0.0017000000000000348,-4.9302688800296535
-0.0027000000000001467,-5.0618370309171015
-0.0037000000000000366,-5.149549131508733
-0.0047000000000001485,-5.235846520800501
-0.005700000000000038,-5.323558621392133
-0.00670000000000015,-5.411270721983764
-0.00770000000000004,-5.497568111275533
-0.008700000000000152,-5.629136262162981
-0.009700000000000042,-5.759289701750564
-0.010700000000000154,-5.890857852638012
-0.011700000000000044,-6.021011292225596
-0.012700000000000156,-6.108723392817228
-0.013700000000000045,-6.238876832404812
-0.014700000000000157,-6.326588932996443
-0.015700000000000047,-6.414301033588076
-0.01670000000000016,-6.500598422879844
-0.01770000000000005,-6.632166573767292
-0.01870000000000016,-6.719878674358924
-0.01970000000000005,-6.893888164242324
-0.020700000000000163,-7.024041603829907
-0.021700000000000053,-7.155609754717355
-0.022700000000000164,-7.329619244600755
-0.023700000000000054,-7.4173313451923875
-0.024700000000000166,-7.5474847847799715
-0.025700000000000056,-7.635196885371603
-0.026700000000000168,-7.7653503249591855
-0.027700000000000058,-7.896918475846635
-0.02870000000000017,-8.027071915434218
-0.02970000000000006,-8.202496116617484
-0.03070000000000017,-8.332649556205066
-0.03170000000000006,-8.508073757388331
-0.03270000000000017,-8.68208324727173
-0.03370000000000006,-8.812236686859313
-0.034700000000000175,-8.943804837746763
-0.035700000000000065,-9.11781432763016
-0.03670000000000018,-9.205526428221793
-0.03770000000000007,-9.379535918105192
-0.03870000000000018,-9.55496011928846
-0.03970000000000007,-9.728969609171857
-0.04070000000000018,-9.902979099055257
-0.04170000000000007,-10.120844639234473
-0.04270000000000018,-10.296268840417738
-0.04370000000000007,-10.470278330301136
-0.044700000000000184,-10.601846481188586
-0.045700000000000074,-10.775855971071984
-0.046700000000000186,-10.949865460955383
-0.047700000000000076,-11.081433611842833
-0.04870000000000019,-11.255443101726232
-0.04970000000000008,-11.473308641905447
-0.05070000000000019,-11.691174182084664
-0.05170000000000008,-11.909039722263879
-0.05270000000000019,-12.12831997374296
-0.05370000000000008,-12.302329463626359
-0.05470000000000019,-12.476338953509758
-0.05570000000000008,-12.651763154693022
-0.056700000000000195,-12.781916594280606
-0.057700000000000085,-12.955926084164007
-0.058700000000000196,-13.175206335643086
-0.059700000000000086,-13.3930718758223
-0.0607000000000002,-13.610937416001518
-0.06170000000000009,-13.828802956180734
-0.0627000000000002,-14.046668496359947
-0.06370000000000009,-14.217848563643619
-0.0647000000000002,-14.444202371622024
-0.06570000000000009,-14.57152638860988
-0.0667000000000002,-14.741291744593681
-0.0677000000000001,-14.925204213576137
-0.0687000000000002,-15.137410908555893
-0.0697000000000001,-15.349617603535648
-0.07070000000000021,-15.575971411514052
-0.0717000000000001,-15.78817810649381
-0.07270000000000021,-16.056973253468165
-0.0737000000000001,-16.22673860945197
-0.07470000000000021,-16.396503965435777
-0.0757000000000001,-16.622857773414182
-0.07670000000000021,-16.750181790402035
-0.0777000000000001,-16.962388485381787
-0.07870000000000021,-17.146300954364243
-0.0797000000000001,-17.358507649344002
-0.08070000000000022,-17.584861457322408
-0.0817000000000001,-17.839509491298113
-0.08270000000000022,-18.06586329927652
-0.08370000000000011,-18.23562865526032
-0.08470000000000022,-18.44783535024008
-0.08570000000000011,-18.631747819222536
-0.08670000000000022,-18.80151317520634
-0.08770000000000011,-18.97127853119014
-0.08870000000000022,-19.155191000172596
-0.08970000000000011,-19.409839034148305
-0.09070000000000022,-19.579604390132108
-0.09170000000000011,-19.848399537106463
-0.09270000000000023,-20.06060623208622
-0.09370000000000012,-20.244518701068674
-0.09470000000000023,-20.456725396048434
-0.09570000000000012,-20.626490752032236
-0.09670000000000023,-20.810403221014692
-0.09770000000000012,-20.980168576998494
-0.09870000000000023,-21.2065223849769
-0.09970000000000012,-21.418729079956652
-0.10070000000000023,-21.63093577493641
-0.10170000000000012,-21.899730921910766
-0.10270000000000024,-22.111937616890522
-0.10370000000000013,-22.33829142486893
-0.10470000000000024,-22.508056780852733
-0.10570000000000013,-22.67782213683654
-0.10670000000000024,-22.861734605818995
-0.10770000000000013,-23.031499961802798
-0.10870000000000024,-23.24370665678255
-0.10970000000000013,-23.47006046476096
-0.11070000000000024,-23.682267159740714
-0.11170000000000013,-23.951062306715073
-0.11270000000000002,-24.16326900169483
-0.11370000000000013,-24.389622809673234
-0.11470000000000002,-24.559388165657033
-0.11570000000000014,-24.771594860636792
-0.11670000000000003,-24.95550732961925
-0.11770000000000014,-25.12527268560305
-0.11870000000000003,-25.337479380582806
-0.11970000000000014,-25.563833188561212
-0.12070000000000003,-25.81848122253692
-0.12170000000000014,-26.087276369511276
-0.12270000000000003,-26.29948306449103
-0.12370000000000014,-26.568278211465387
-0.12470000000000003,-26.738043567449193
-0.12570000000000014,-26.9643973754276
-0.12670000000000003,-27.134162731411404
-0.12770000000000015,-27.34636942639116
-0.12870000000000004,-27.572723234369565
-0.12970000000000015,-27.827371268345274
-0.13070000000000004,-28.09616641531963
-0.13170000000000015,-28.350814449295335
-0.13270000000000004,-28.619609596269694
-0.13370000000000015,-28.8742576302454
-0.13470000000000004,-29.100611438223805
-0.13570000000000015,-29.31281813320356
-0.13670000000000004,-29.482583489187363
-0.13770000000000016,-29.751378636161718
-0.13870000000000005,-29.96358533114148
-0.13970000000000016,-30.232380478115836
-0.14070000000000005,-30.487028512091538
-0.14170000000000016,-30.79826499806185
-0.14270000000000005,-31.010471693041605
-0.14370000000000016,-31.27926684001596
-0.14470000000000005,-31.533914873991666
-0.14570000000000016,-31.76026868197007
-0.14670000000000005,-31.972475376949827
-0.14770000000000016,-32.24127052392419
-0.14870000000000005,-32.49591855789989
-0.14970000000000017,-32.764713704874254
-0.15070000000000006,-33.01936173884996
-0.15170000000000017,-33.330598224820264
-0.15270000000000006,-33.58524625879597
-0.15370000000000017,-33.85404140577033
-0.15470000000000006,-34.10868943974604
-0.15570000000000017,-34.377484586720385
-0.15670000000000006,-34.58969128170015
-0.15770000000000017,-34.85848642867451
-0.15870000000000006,-35.11313446265021
-0.15970000000000018,-35.38192960962457
-0.16070000000000007,-35.679018982596226
-0.16170000000000018,-35.99025546856653
-0.16270000000000007,-36.28734484153819
-0.16370000000000018,-36.5985813275085
-0.16470000000000007,-36.8532293614842
-0.16570000000000018,-37.122024508458566
-0.16670000000000007,-37.334231203438314
-0.16770000000000018,-37.60302635041268
-0.16870000000000007,-37.85767438438838
-0.16970000000000018,-38.16891087035869
-0.17070000000000007,-38.46600024333035
-0.17170000000000019,-38.777236729300654
-0.17270000000000008,-39.046031876275016
-0.1737000000000002,-39.30067991025072
-0.17470000000000008,-39.56947505722508
-0.1757000000000002,-39.78168175220483
-0.17670000000000008,-39.99388844718459
-0.1777000000000002,-40.30512493315489
-0.17870000000000008,-40.616361419125205
-0.1797000000000002,-40.91345079209687
-0.18070000000000008,-41.22468727806717
-0.1817000000000002,-41.52177665103883
-0.18270000000000008,-41.87545447600508
-0.1837000000000002,-42.130102509980794
-0.1847000000000001,-42.4413389959511
-0.1857000000000002,-42.653545690930855
-0.1867000000000001,-42.87989949890926
-0.1877000000000002,-43.134547532884966
-0.1887000000000001,-43.31846000186743
-0.1897000000000002,-43.53066669684718
-0.1907000000000001,-43.84190318281749
-0.1917000000000001,-44.138992555789144
-0.19269999999999998,-44.45022904175945
-0.1937000000000001,-44.66243573673921
-0.19469999999999998,-44.93123088371356
-0.1957000000000001,-45.143437578693316
-0.19669999999999999,-45.412232725667685
-0.1977000000000001,-45.624439420647434
-0.1987,-45.85079322862584
-0.1997000000000001,-46.10544126260155
-0.2007,-46.3176479575813
-0.2017000000000001,-46.586443104555656
-0.2027,-46.84109113853137
-0.2037000000000001,-47.067444946509774
-0.2047,-47.27965164148953
-0.2057000000000001,-47.506005449467935
-0.2067,-47.67577080545174
-0.2077000000000001,-47.8879775004315
-0.2087,-48.071889969413945
-0.2097000000000001,-48.2840966643937
-0.2107,-48.45386202037751
-0.2117000000000001,-48.72265716735186
-0.2127,-48.89242252333566
-0.2137000000000001,-49.076334992318124
-0.2147,-49.20365900930597
-0.2157000000000001,-49.41586570428573
-0.2167,-49.50074838227763
-0.21770000000000012,-49.642219512264134
-0.2187,-49.72710219025603
-0.21970000000000012,-49.89686754623985
-0.2207,-50.024191563227696
-0.22170000000000012,-50.20810403221015
-0.2227,-50.29298671020206
-0.22370000000000012,-50.37786938819396
-0.2247,-50.50519340518181
-0.22570000000000012,-50.60422319617236
-0.2267,-50.64666453516831
-0.22770000000000012,-50.64666453516831
-0.22870000000000001,-50.73154721316022
-0.22970000000000013,-50.90131256914402
-0.23070000000000002,-51.028636586131874
-0.23170000000000013,-51.127666377122424
-0.23270000000000002,-51.071077925127824
-0.23370000000000013,-50.98619524713592
-0.23470000000000002,-50.943753908139975
-0.23570000000000013,-50.90131256914402
-0.23670000000000002,-50.85887123014807
-0.2376999999999999,-50.81642989115212
-0.23870000000000002,-50.73154721316022
-0.2396999999999999,-50.68910587416426
-0.24070000000000003,-50.60422319617236
-0.24169999999999991,-50.547634744177756
-0.24270000000000003,-50.50519340518181
-0.24369999999999992,-50.42031072718991
-0.24470000000000003,-50.29298671020206
-0.24569999999999992,-50.12322135421825
-0.24670000000000003,-49.939308885235796
-0.24769999999999992,-49.72710219025603
-0.24870000000000003,-49.557336834272235
-0.24969999999999992,-49.373424365289786
-0.25070000000000003,-49.16121767031002
-0.2516999999999999,-48.97730520132757
-0.25270000000000004,-48.72265716735186
-0.2536999999999999,-48.45386202037751
-0.25470000000000004,-48.156772647405845
-0.2556999999999999,-47.80309482243959
-0.25670000000000004,-47.506005449467935
-0.25769999999999993,-47.15232762450167
-0.25870000000000004,-46.79864979953541
-0.25969999999999993,-46.501560426563756
-0.26070000000000004,-46.19032394059345
-0.26169999999999993,-45.85079322862584
-0.26270000000000004,-45.497115403659585
-0.26369999999999993,-45.10099623969737
-0.26470000000000005,-44.66243573673921
-0.26569999999999994,-44.223875233781044
-0.26670000000000005,-43.79946184382153
-0.26769999999999994,-43.31846000186743
-0.26870000000000005,-42.837458159913304
-0.26969999999999994,-42.4413389959511
-0.27070000000000005,-42.00277849299294
-0.27169999999999994,-41.56421799003478
-0.27270000000000005,-41.139804600075266
-0.27369999999999994,-40.65880275812115
-0.27470000000000006,-40.135359577171094
-0.27569999999999995,-39.654357735216976
-0.27670000000000006,-39.130914554266916
-0.27769999999999995,-38.607471373316855
-0.27870000000000006,-38.12646953136274
-0.27969999999999995,-37.60302635041268
-0.28070000000000006,-37.164465847454515
-0.28169999999999995,-36.6834640055004
-0.28270000000000006,-36.20246216354629
-0.28369999999999995,-35.679018982596226
-0.28470000000000006,-35.15557580164616
-0.28569999999999995,-34.632132620696105
-0.28670000000000007,-34.06624810075008
-0.28769999999999996,-33.50036358080407
-0.28870000000000007,-32.97692039985401
-0.28969999999999996,-32.53835989689585
-0.29070000000000007,-32.05735805494172
-0.29169999999999996,-31.618797551983565
-0.29270000000000007,-31.19438416202406
-0.29369999999999996,-30.71338232006995
-0.2947000000000001,-30.232380478115836
-0.29569999999999996,-29.751378636161718
-0.2967000000000001,-29.22793545521166
-0.29769999999999996,-28.789374952253496
-0.2987000000000001,-28.308373110299385
-0.29969999999999997,-27.912253946337174
-0.3007000000000001,-27.530281895373616
-0.30169999999999997,-27.176604070407354
-0.3027000000000001,-26.780484906445146
-0.30369999999999997,-26.440954194477534
-0.3047000000000001,-26.044835030515326
-0.30569999999999997,-25.691157205549064
-0.3067000000000001,-25.295038041586857
-0.3077,-24.997948668615198
-0.3087000000000001,-24.64427084364894
-0.3097,-24.34718147067728
-0.3107000000000001,-24.078386323702922
-0.3117,-23.823738289727217
-0.3127000000000001,-23.55494314275286
-0.3137,-23.300295108777156
-0.3147000000000001,-23.031499961802798
-0.3157,-22.776851927827092
-0.3167000000000001,-22.550498119848687
-0.3177,-22.33829142486893
-0.3187000000000001,-22.069496277894572
-0.3197,-21.899730921910766
-0.3207000000000001,-21.772406904922917
-0.3217,-21.63093577493641
-0.3227000000000001,-21.503611757948562
-0.3237,-21.376287740960702
-0.3247000000000001,-21.2065223849769
-0.3257,-21.065051254990397
-0.3267000000000001,-20.93772723800254
-0.3277,-20.810403221014692
-0.3287000000000001,-20.72552054302279
-0.3297,-20.683079204026836
-0.3307000000000001,-20.626490752032236
-0.3317,-20.584049413036283
-0.3327000000000001,-20.541608074040333
-0.3337,-20.499166735044383
-0.3347000000000001,-20.456725396048434
-0.3357,-20.371842718056527
-0.3367000000000001,-20.329401379060574
-0.3377,-20.286960040064624
-0.3387000000000001,-20.286960040064624
-0.3397,-20.286960040064624
-0.3407000000000001,-20.329401379060574
-0.3417,-20.371842718056527
-0.3427000000000001,-20.371842718056527
-0.3437,-20.414284057052477
-0.3447000000000001,-20.414284057052477
-0.3457,-20.456725396048434
-0.3467000000000001,-20.456725396048434
-0.3477,-20.499166735044383
-0.3487000000000001,-20.499166735044383
-0.3497,-20.584049413036283
-0.3507000000000001,-20.683079204026836
-0.3517,-20.76796188201874
-0.3527000000000001,-20.85284456001064
-0.3537,-20.93772723800254
-0.3547000000000001,-20.980168576998494
-0.3557,-21.065051254990397
-0.35670000000000013,-21.065051254990397
-0.3577,-21.149933932982297
-0.35870000000000013,-21.2065223849769
-0.3597,-21.333846401964752
-0.36070000000000013,-21.461170418952605
-0.3617,-21.58849443594046
-0.3626999999999999,-21.67337711393236
-0.3637,-21.814848243918867
-0.3646999999999999,-21.899730921910766
-0.3657,-21.98461359990267
-0.3666999999999999,-22.069496277894572
-0.3677,-22.15437895588647
-0.3686999999999999,-22.295850085872978
-0.36970000000000003,-22.42317410286083
-0.3706999999999999,-22.592939458844636
-0.37170000000000003,-22.72026347583249
-0.3726999999999999,-22.904175944814945
-0.37370000000000003,-23.031499961802798
-0.3746999999999999,-23.15882397879065
-0.37570000000000003,-23.24370665678255
-0.3766999999999999,-23.342736447773106
-0.37770000000000004,-23.47006046476096
-0.3786999999999999,-23.55494314275286
-0.37970000000000004,-23.724708498736668
-0.3806999999999999,-23.908620967719123
-0.38170000000000004,-24.078386323702922
-0.38269999999999993,-24.20571034069078
-0.38370000000000004,-24.389622809673234
-0.38469999999999993,-24.516946826661083
-0.38570000000000004,-24.64427084364894
-0.38669999999999993,-24.729153521640843
-0.38770000000000004,-24.9130659906233
-0.38869999999999993,-25.04039000761115
-0.38970000000000005,-25.210155363594954
-0.39069999999999994,-25.39406783257741
-0.39170000000000005,-25.563833188561212
-0.39269999999999994,-25.73359854454502
-0.39370000000000005,-25.91751101352747
-0.39469999999999994,-26.044835030515326
-0.39570000000000005,-26.21460038649913
-0.39669999999999994,-26.29948306449103
-0.39770000000000005,-26.440954194477534
-0.39869999999999994,-26.61071955046134
-0.39970000000000006,-26.780484906445146
-0.40069999999999995,-26.9643973754276
-0.40170000000000006,-27.176604070407354
-0.40269999999999995,-27.303928087395207
-0.40370000000000006,-27.487840556377662
-0.40469999999999995,-27.65760591236147
-0.40570000000000006,-27.78492992934932
-0.40669999999999995,-27.912253946337174
-0.40770000000000006,-28.011283737327723
-0.40869999999999995,-28.18104909331153
-0.40970000000000006,-28.350814449295335
-0.41069999999999995,-28.53472691827779
-0.41170000000000007,-28.746933613257543
-0.41269999999999996,-28.8742576302454
-0.41370000000000007,-29.058170099227848
-0.41469999999999996,-29.18549411621571
-0.41570000000000007,-29.31281813320356
-0.41669999999999996,-29.39770081119546
-0.41770000000000007,-29.525024828183312
-0.41869999999999996,-29.66649595816982
-0.4197000000000001,-29.836261314153624
-0.42069999999999996,-30.00602667013743
-0.4217000000000001,-30.189939139119886
-0.42269999999999996,-30.317263156107735
-0.4237000000000001,-30.444587173095588
-0.42469999999999997,-30.571911190083444
-0.4257000000000001,-30.670940981073993
-0.42669999999999997,-30.7558236590659
-0.4277000000000001,-30.88314767605375
-0.42869999999999997,-30.968030354045652
-0.4297000000000001,-31.095354371033505
-0.43069999999999997,-31.23682550102001
-0.4317000000000001,-31.40659085700382
-0.4327,-31.533914873991666
-0.4337000000000001,-31.661238890979522
-0.4347,-31.802710020966025
-0.4357000000000001,-31.887592698957924
-0.4367,-31.972475376949827
-0.4377000000000001,-32.09979939393769
-0.4387,-32.184682071929586
-0.4397000000000001,-32.283711862920136
-0.4407,-32.41103587990799
-0.4417000000000001,-32.49591855789989
-0.4427,-32.62324257488775
-0.4437000000000001,-32.70812525287965
-0.4447,-32.807155043870196
-0.4457000000000001,-32.892037721862096
-0.4467,-32.97692039985401
-0.4477000000000001,-33.06180307784591
-0.4487,-33.10424441684186
-0.4497000000000001,-33.18912709483376
-0.4507,-33.288156885824314
-0.4517000000000001,-33.373039563816214
-0.4527,-33.45792224180811
-0.4537000000000001,-33.50036358080407
-0.4547,-33.54280491980002
-0.4557000000000001,-33.58524625879597
-0.4567,-33.58524625879597
-0.4577000000000001,-33.627687597791926
-0.4587,-33.670128936787876
-0.4597000000000001,-33.755011614779775
-0.4607,-33.81160006677438
-0.4617000000000001,-33.89648274476628
-0.4627,-33.98136542275818
-0.4637000000000001,-34.02380676175414
-0.4647,-34.06624810075008
-0.4657000000000001,-34.06624810075008
-0.4667,-34.06624810075008
-0.4677000000000001,-34.10868943974604
-0.4687,-34.15113077874198
-0.4697000000000001,-34.236013456733886
-0.4707,-34.278454795729836
-0.4717000000000001,-34.41992592571634
-0.4727,-34.462367264712285
-0.4737000000000001,-34.50480860370825
-0.4747,-34.5472499427042
-0.4757000000000001,-34.58969128170015
-0.4767,-34.58969128170015
-0.4777000000000001,-34.632132620696105
-0.4787,-34.67457395969205
-0.4797000000000001,-34.75945663768395
-0.4807,-34.85848642867451
-0.48170000000000013,-34.94336910666641
-0.4827,-35.02825178465831
-0.48370000000000013,-35.15557580164616
-0.4847,-35.240458479638065
-0.48570000000000013,-35.32534115762997
-0.4867,-34.33504324772444
-0.48570000000000013,-31.972475376949827
-0.4847,-30.232380478115836
-0.48370000000000013,-28.831816291249446
-0.4827,-27.742488590353368
-0.48170000000000013,-26.738043567449193
-0.4807,-25.86092256153287
-0.4797000000000001,-25.04039000761115
-0.4787,-24.24815167968673
-0.4777000000000001,-23.51250180375691
-0.4767,-22.776851927827092
-0.4757000000000001,-22.111937616890522
-0.4747,-21.503611757948562
-0.4737000000000001,-20.93772723800254
-0.4727,-20.371842718056527
-0.4717000000000001,-19.848399537106463
-0.4707,-19.3249563561564
-0.4697000000000001,-18.843954514202288
-0.4687,-18.320511333252224
-0.4677000000000001,-17.839509491298113
-0.4667,-17.358507649344002
-0.4657000000000001,-16.919947146385837
-0.4647,-16.495533756426326
