Potential V vs RHE, Current mA cm-2
0.013299999999999867,-0.04582249900262853
0.012299999999999978,-0.8745745255765657
0.011299999999999866,-1.3543031273607997
0.010299999999999976,-1.6594563547416883
0.009299999999999864,-1.8334658446250875
0.008299999999999974,-1.9650339955125358
0.007299999999999862,-2.052746096104168
0.006299999999999972,-2.226755585987568
0.00529999999999986,-2.3569090255751513
0.0042999999999999705,-2.4446211261667834
0.0032999999999998586,-2.4446211261667834
0.0022999999999999687,-2.532333226758415
0.0012999999999998568,-2.662486666345999
0.00029999999999996696,-2.7501987669376318
-0.000700000000000145,-2.794054817233447
-0.0017000000000000348,-2.794054817233447
-0.0027000000000001467,-2.8803522065252145
-0.0037000000000000366,-2.968064307116847
-0.0047000000000001485,-3.055776407708479
-0.005700000000000038,-3.1420737970002466
-0.00670000000000015,-3.1420737970002466
-0.00770000000000004,-3.1859298472960624
-0.008700000000000152,-3.273641947887695
-0.009700000000000042,-3.403795387475278
-0.010700000000000154,-3.447651437771094
-0.011700000000000044,-3.4915074880669104
-0.012700000000000156,-3.5353635383627267
-0.013700000000000045,-3.6655169779503103
-0.014700000000000157,-3.7532290785419424
-0.015700000000000047,-3.840941179133574
-0.01670000000000016,-3.840941179133574
-0.01770000000000005,-3.884797229429391
-0.01870000000000016,-4.014950669016974
-0.01970000000000005,-4.146518819904423
-0.020700000000000163,-4.1889601589003735
-0.021700000000000053,-4.23281620919619
-0.022700000000000164,-4.3205283097878215
-0.023700000000000054,-4.406825699079589
-0.024700000000000166,-4.538393849967037
-0.025700000000000056,-4.582249900262854
-0.026700000000000168,-4.626105950558669
-0.027700000000000058,-4.712403339850438
-0.02870000000000017,-4.800115440442069
-0.02970000000000006,-4.9302688800296535
-0.03070000000000017,-5.017980980621284
-0.03170000000000006,-5.0618370309171015
-0.03270000000000017,-5.149549131508733
-0.03370000000000006,-5.279702571096316
-0.034700000000000175,-5.411270721983764
-0.035700000000000065,-5.497568111275533
-0.03670000000000018,-5.5414241615713475
-0.03770000000000007,-5.585280211867165
-0.03870000000000018,-5.715433651454749
-0.03970000000000007,-5.847001802342197
-0.04070000000000018,-5.977155241929781
-0.04170000000000007,-6.021011292225596
-0.04270000000000018,-6.064867342521412
-0.04370000000000007,-6.238876832404812
-0.044700000000000184,-6.37044498329226
-0.045700000000000074,-6.458157083883892
-0.046700000000000186,-6.500598422879844
-0.047700000000000076,-6.588310523471475
-0.04870000000000019,-6.762320013354876
-0.04970000000000008,-6.850032113946507
-0.05070000000000019,-6.981600264833956
-0.05170000000000008,-7.024041603829907
-0.05270000000000019,-7.111753704421539
-0.05370000000000008,-7.243321855308987
-0.05470000000000019,-7.4173313451923875
-0.05570000000000008,-7.50504344578402
-0.056700000000000195,-7.5474847847799715
-0.057700000000000085,-7.591340835075788
-0.058700000000000196,-7.7653503249591855
-0.059700000000000086,-7.896918475846635
-0.0607000000000002,-7.984630576438266
-0.06170000000000009,-8.070927965730034
-0.0627000000000002,-8.158640066321666
-0.06370000000000009,-8.288793505909249
-0.0647000000000002,-8.464217707092514
-0.06570000000000009,-8.55051509638428
-0.0667000000000002,-8.594371146680096
-0.0677000000000001,-8.68208324727173
-0.0687000000000002,-8.85609273715513
-0.0697000000000001,-8.987660888042578
-0.07070000000000021,-9.073958277334345
-0.0717000000000001,-9.161670377925978
-0.07270000000000021,-9.24938247851761
-0.0737000000000001,-9.379535918105192
-0.07470000000000021,-9.55496011928846
-0.0757000000000001,-9.685113558876042
-0.07670000000000021,-9.728969609171857
-0.0777000000000001,-9.81668170976349
-0.07870000000000021,-9.946835149351072
-0.0797000000000001,-10.120844639234473
-0.08070000000000022,-10.208556739826104
-0.0817000000000001,-10.25241279012192
-0.08270000000000022,-10.340124890713554
-0.08370000000000011,-10.514134380596953
-0.08470000000000022,-10.688143870480351
-0.08570000000000011,-10.775855971071984
-0.08670000000000022,-10.863568071663616
-0.08770000000000011,-10.949865460955383
-0.08870000000000022,-11.081433611842833
-0.08970000000000011,-11.255443101726232
-0.09070000000000022,-11.343155202317865
-0.09170000000000011,-11.42945259160963
-0.09270000000000023,-11.517164692201263
-0.09370000000000012,-11.691174182084664
-0.09470000000000023,-11.86659838326793
-0.09570000000000012,-11.996751822855511
-0.09670000000000023,-12.084463923447142
-0.09770000000000012,-12.170761312738911
-0.09870000000000023,-12.346185513922174
-0.09970000000000012,-12.520195003805576
-0.10070000000000023,-12.607907104397206
-0.10170000000000012,-12.694204493688973
-0.10270000000000024,-12.825772644576423
-0.10370000000000013,-12.955926084164007
-0.10470000000000024,-13.175206335643086
-0.10570000000000013,-13.30535977523067
-0.10670000000000024,-13.349215825526485
-0.10770000000000013,-13.47936926511407
-0.10870000000000024,-13.698649516593148
-0.10970000000000013,-13.872659006476551
-0.11070000000000024,-14.002812446064135
-0.11170000000000013,-14.090524546655764
-0.11270000000000002,-14.217848563643619
-0.11370000000000013,-14.401761032626075
-0.11470000000000002,-14.61396772760583
-0.11570000000000014,-14.741291744593681
-0.11670000000000003,-14.826174422585586
-0.11770000000000014,-14.967645552572087
-0.11870000000000003,-15.179852247551842
-0.11970000000000014,-15.3920589425316
-0.12070000000000003,-15.575971411514052
-0.12170000000000014,-15.660854089505953
-0.12270000000000003,-15.78817810649381
-0.12370000000000014,-16.014531914472215
-0.12470000000000003,-16.22673860945197
-0.12570000000000014,-16.354062626439823
-0.12670000000000003,-16.495533756426326
-0.12770000000000015,-16.622857773414182
-0.12870000000000004,-16.835064468393938
-0.12970000000000015,-17.061418276372343
-0.13070000000000004,-17.231183632356142
-0.13170000000000015,-17.358507649344002
-0.13270000000000004,-17.542420118326454
-0.13370000000000015,-17.75462681330621
-0.13470000000000004,-17.966833508285966
-0.13570000000000015,-18.15074597726842
-0.13670000000000004,-18.27806999425627
-0.13770000000000016,-18.44783535024008
-0.13870000000000005,-18.674189158218486
-0.13970000000000016,-18.92883719219419
-0.14070000000000005,-19.155191000172596
-0.14170000000000016,-19.28251501716045
-0.14270000000000005,-19.409839034148305
-0.14370000000000016,-19.678634181122664
-0.14470000000000005,-19.890840876102416
-0.14570000000000016,-20.10304757108217
-0.14670000000000005,-20.202077362072725
-0.14770000000000016,-20.371842718056527
-0.14870000000000005,-20.626490752032236
-0.14970000000000017,-20.85284456001064
-0.15070000000000006,-21.065051254990397
-0.15170000000000017,-21.2065223849769
-0.15270000000000006,-21.376287740960702
-0.15370000000000017,-21.58849443594046
-0.15470000000000006,-21.814848243918867
-0.15570000000000017,-22.027054938898623
-0.15670000000000006,-22.196820294882425
-0.15770000000000017,-22.33829142486893
-0.15870000000000006,-22.592939458844636
-0.15970000000000018,-22.861734605818995
-0.16070000000000007,-23.031499961802798
-0.16170000000000018,-23.15882397879065
-0.16270000000000007,-23.300295108777156
-0.16370000000000018,-23.55494314275286
-0.16470000000000007,-23.823738289727217
-0.16570000000000018,-23.993503645711023
-0.16670000000000007,-24.120827662698876
-0.16770000000000018,-24.24815167968673
-0.16870000000000007,-24.516946826661083
-0.16970000000000018,-24.729153521640843
-0.17070000000000007,-24.9130659906233
-0.17170000000000019,-25.04039000761115
-0.17270000000000008,-25.167714024599
-0.1737000000000002,-25.39406783257741
-0.17470000000000008,-25.60627452755716
-0.1757000000000002,-25.73359854454502
-0.17670000000000008,-25.81848122253692
-0.1777000000000002,-26.002393691519377
-0.17870000000000008,-26.17215904750318
-0.1797000000000002,-26.34192440348698
-0.18070000000000008,-26.525836872469437
-0.1817000000000002,-26.61071955046134
-0.18270000000000008,-26.69560222845324
-0.1837000000000002,-26.86536758443705
-0.1847000000000001,-27.091721392415455
-0.1857000000000002,-27.176604070407354
-0.1867000000000001,-27.261486748399253
-0.1877000000000002,-27.34636942639116
-0.1887000000000001,-27.487840556377662
-0.1897000000000002,-27.65760591236147
-0.1907000000000001,-27.742488590353368
-0.1917000000000001,-27.78492992934932
-0.19269999999999998,-27.827371268345274
-0.1937000000000001,-27.954695285333123
-0.19469999999999998,-28.09616641531963
-0.1957000000000001,-28.18104909331153
-0.19669999999999999,-28.18104909331153
-0.1977000000000001,-28.22349043230748
-0.1987,-28.308373110299385
-0.1997000000000001,-28.393255788291288
-0.2007,-28.435697127287238
-0.2017000000000001,-28.435697127287238
-0.2027,-28.435697127287238
-0.2037000000000001,-28.478138466283188
-0.2047,-28.53472691827779
-0.2057000000000001,-28.577168257273744
-0.2067,-28.53472691827779
-0.2077000000000001,-28.435697127287238
-0.2087,-28.478138466283188
-0.2097000000000001,-28.478138466283188
-0.2107,-28.435697127287238
-0.2117000000000001,-28.393255788291288
-0.2127,-28.265931771303435
-0.2137000000000001,-28.265931771303435
-0.2147,-28.22349043230748
-0.2157000000000001,-28.22349043230748
-0.2167,-28.05372507632368
-0.21770000000000012,-27.869812607341224
-0.2187,-27.78492992934932
-0.21970000000000012,-27.742488590353368
-0.2207,-27.615164573365515
-0.22170000000000012,-27.38881076538711
-0.2227,-27.176604070407354
-0.22370000000000012,-27.049280053419505
-0.2247,-26.907808923433
-0.22570000000000012,-26.738043567449193
-0.2267,-26.483395533473487
-0.22770000000000012,-26.21460038649913
-0.22870000000000001,-26.044835030515326
-0.22970000000000013,-25.91751101352747
-0.23070000000000002,-25.691157205549064
-0.23170000000000013,-25.39406783257741
-0.23270000000000002,-25.12527268560305
-0.23370000000000013,-24.870624651627345
-0.23470000000000002,-24.64427084364894
-0.23570000000000013,-24.389622809673234
-0.23670000000000002,-24.078386323702922
-0.2376999999999999,-23.767149837732617
-0.23870000000000002,-23.427619125765005
-0.2396999999999999,-23.15882397879065
-0.24070000000000003,-22.904175944814945
-0.24169999999999991,-22.592939458844636
-0.24270000000000003,-22.253408746877028
-0.24369999999999992,-21.98461359990267
-0.24470000000000003,-21.772406904922917
-0.24569999999999992,-21.418729079956652
-0.24670000000000003,-21.022609915994444
-0.24769999999999992,-20.683079204026836
-0.24870000000000003,-20.371842718056527
-0.24969999999999992,-20.06060623208622
-0.25070000000000003,-19.763516859114564
-0.2516999999999999,-19.367397695152352
-0.25270000000000004,-19.01371987018609
-0.2536999999999999,-18.716630497214435
-0.25470000000000004,-18.44783535024008
-0.2556999999999999,-18.15074597726842
-0.25670000000000004,-17.797068152302163
-0.25769999999999993,-17.4433903273359
-0.25870000000000004,-17.188742293360193
-0.25969999999999993,-16.962388485381787
-0.26070000000000004,-16.665299112410132
-0.26169999999999993,-16.354062626439823
-0.26270000000000004,-16.056973253468165
-0.26369999999999993,-15.78817810649381
-0.26470000000000005,-15.618412750510005
-0.26569999999999994,-15.307176264539699
-0.26670000000000005,-15.05252823056399
-0.26769999999999994,-14.783733083589633
-0.26870000000000005,-14.57152638860988
-0.26969999999999994,-14.401761032626075
-0.27070000000000005,-14.217848563643619
-0.27169999999999994,-13.916515056772363
-0.27270000000000005,-13.698649516593148
-0.27369999999999994,-13.523225315409885
-0.27470000000000006,-13.3930718758223
-0.27569999999999995,-13.217647674639037
-0.27670000000000006,-12.99978213445982
-0.27769999999999995,-12.781916594280606
-0.27870000000000006,-12.651763154693022
-0.27969999999999995,-12.56405105410139
-0.28070000000000006,-12.432482903213943
-0.28169999999999995,-12.258473413330542
-0.28270000000000006,-12.084463923447142
-0.28369999999999995,-12.040607873151327
-0.28470000000000006,-11.952895772559694
-0.28569999999999995,-11.86659838326793
-0.28670000000000007,-11.73503023238048
-0.28769999999999996,-11.56102074249708
-0.28870000000000007,-11.517164692201263
-0.28969999999999996,-11.517164692201263
-0.29070000000000007,-11.42945259160963
-0.29169999999999996,-11.299299152022046
-0.29270000000000007,-11.211587051430415
-0.29369999999999996,-11.1677310011346
-0.2947000000000001,-11.211587051430415
-0.29569999999999996,-11.1677310011346
-0.2967000000000001,-11.037577561547016
-0.29769999999999996,-10.993721511251199
-0.2987000000000001,-10.993721511251199
-0.29969999999999997,-11.037577561547016
-0.3007000000000001,-10.993721511251199
-0.30169999999999997,-10.906009410659568
-0.3027000000000001,-10.863568071663616
-0.30369999999999997,-10.863568071663616
-0.3047000000000001,-10.949865460955383
-0.30569999999999997,-10.949865460955383
-0.3067000000000001,-10.863568071663616
-0.3077,-10.863568071663616
-0.3087000000000001,-10.906009410659568
-0.3097,-10.949865460955383
-0.3107000000000001,-10.993721511251199
-0.3117,-10.906009410659568
-0.3127000000000001,-10.906009410659568
-0.3137,-10.993721511251199
-0.3147000000000001,-11.037577561547016
-0.3157,-11.037577561547016
-0.3167000000000001,-11.037577561547016
-0.3177,-11.037577561547016
-0.3187000000000001,-11.123874950838783
-0.3197,-11.1677310011346
-0.3207000000000001,-11.211587051430415
-0.3217,-11.211587051430415
-0.3227000000000001,-11.211587051430415
-0.3237,-11.299299152022046
-0.3247000000000001,-11.42945259160963
-0.3257,-11.473308641905447
-0.3267000000000001,-11.42945259160963
-0.3277,-11.473308641905447
-0.3287000000000001,-11.56102074249708
-0.3297,-11.691174182084664
-0.3307000000000001,-11.73503023238048
-0.3317,-11.73503023238048
-0.3327000000000001,-11.73503023238048
-0.3337,-11.86659838326793
-0.3347000000000001,-11.996751822855511
-0.3357,-12.040607873151327
-0.3367000000000001,-12.040607873151327
-0.3377,-12.084463923447142
-0.3387000000000001,-12.170761312738911
-0.3397,-12.302329463626359
-0.3407000000000001,-12.346185513922174
-0.3417,-12.390041564217992
-0.3427000000000001,-12.432482903213943
-0.3437,-12.56405105410139
-0.3447000000000001,-12.73806054398479
-0.3457,-12.781916594280606
-0.3467000000000001,-12.781916594280606
-0.3477,-12.869628694872238
-0.3487000000000001,-12.99978213445982
-0.3497,-13.13135028534727
-0.3507000000000001,-13.261503724934855
-0.3517,-13.261503724934855
-0.3527000000000001,-13.30535977523067
-0.3537,-13.436927926118118
-0.3547000000000001,-13.567081365705702
-0.3557,-13.654793466297335
-0.35670000000000013,-13.698649516593148
-0.3577,-13.741090855589102
-0.35870000000000013,-13.872659006476551
-0.3597,-14.002812446064135
-0.36070000000000013,-14.13438059695158
-0.3617,-14.13438059695158
-0.3626999999999999,-14.217848563643619
-0.3637,-14.345172580631472
-0.3646999999999999,-14.486643710617974
-0.3657,-14.61396772760583
-0.3666999999999999,-14.65640906660178
-0.3677,-14.69885040559773
-0.3686999999999999,-14.826174422585586
-0.36970000000000003,-15.01008689156804
-0.3706999999999999,-15.094969569559943
-0.37170000000000003,-15.137410908555893
-0.3726999999999999,-15.222293586547794
-0.37370000000000003,-15.349617603535648
-0.3746999999999999,-15.491088733522153
-0.37570000000000003,-15.575971411514052
-0.3766999999999999,-15.575971411514052
-0.37770000000000004,-15.660854089505953
-0.3786999999999999,-15.74573676749786
-0.37970000000000004,-15.91550212348166
-0.3806999999999999,-16.014531914472215
-0.38170000000000004,-16.056973253468165
-0.38269999999999993,-16.099414592464115
-0.38370000000000004,-16.22673860945197
-0.38469999999999993,-16.354062626439823
-0.38570000000000004,-16.438945304431726
-0.38669999999999993,-16.438945304431726
-0.38770000000000004,-16.53797509542228
-0.38869999999999993,-16.665299112410132
-0.38970000000000005,-16.792623129397985
-0.39069999999999994,-16.877505807389888
-0.39170000000000005,-16.919947146385837
-0.39269999999999994,-16.919947146385837
-0.39370000000000005,-17.061418276372343
-0.39469999999999994,-17.146300954364243
-0.39570000000000005,-17.231183632356142
-0.39669999999999994,-17.231183632356142
-0.39770000000000005,-17.2736249713521
-0.39869999999999994,-17.40094898833995
-0.39970000000000006,-17.542420118326454
-0.40069999999999995,-17.627302796318357
-0.40170000000000006,-17.627302796318357
-0.40269999999999995,-17.669744135314307
-0.40370000000000006,-17.75462681330621
-0.40469999999999995,-17.881950830294063
-0.40570000000000006,-17.924392169290012
-0.40669999999999995,-17.924392169290012
-0.40770000000000006,-17.966833508285966
-0.40869999999999995,-18.06586329927652
-0.40970000000000006,-18.19318731626437
-0.41069999999999995,-18.23562865526032
-0.41170000000000007,-18.23562865526032
-0.41269999999999996,-18.23562865526032
-0.41370000000000007,-18.320511333252224
-0.41469999999999996,-18.44783535024008
-0.41570000000000007,-18.49027668923603
-0.41669999999999996,-18.49027668923603
-0.41770000000000007,-18.49027668923603
-0.41869999999999996,-18.589306480226583
-0.4197000000000001,-18.674189158218486
-0.42069999999999996,-18.716630497214435
-0.4217000000000001,-18.674189158218486
-0.42269999999999996,-18.674189158218486
-0.4237000000000001,-18.759071836210385
-0.42469999999999997,-18.843954514202288
-0.4257000000000001,-18.88639585319824
-0.42669999999999997,-18.843954514202288
-0.4277000000000001,-18.843954514202288
-0.42869999999999997,-18.92883719219419
-0.4297000000000001,-18.97127853119014
-0.43069999999999997,-19.01371987018609
-0.4317000000000001,-18.97127853119014
-0.4327,-18.97127853119014
-0.4337000000000001,-19.056161209182044
-0.4347,-19.155191000172596
-0.4357000000000001,-19.155191000172596
-0.4367,-19.112749661176647
-0.4377000000000001,-19.155191000172596
-0.4387,-19.2400736781645
-0.4397000000000001,-19.28251501716045
-0.4407,-19.28251501716045
-0.4417000000000001,-19.28251501716045
-0.4427,-19.2400736781645
-0.4437000000000001,-19.3249563561564
-0.4447,-19.409839034148305
-0.4457000000000001,-19.409839034148305
-0.4467,-19.409839034148305
-0.4477000000000001,-19.409839034148305
-0.4487,-19.49472171214021
-0.4497000000000001,-19.579604390132108
-0.4507,-19.678634181122664
-0.4517000000000001,-19.678634181122664
-0.4527,-19.721075520118614
-0.4537000000000001,-19.848399537106463
-0.4547,-20.01816489309027
-0.4557000000000001,-20.10304757108217
-0.4567,-20.159636023076775
-0.4577000000000001,-20.244518701068674
-0.4587,-20.329401379060574
-0.4597000000000001,-20.584049413036283
-0.4607,-20.810403221014692
-0.4617000000000001,-20.980168576998494
-0.4627,-21.2065223849769
-0.4637000000000001,-21.461170418952605
-0.4647,-21.814848243918867
-0.4657000000000001,-22.15437895588647
-0.4667,-22.508056780852733
-0.4677000000000001,-22.989058622806844
-0.4687,-23.55494314275286
-0.4697000000000001,-24.20571034069078
-0.4707,-24.95550732961925
-0.4717000000000001,-25.691157205549064
-0.4727,-26.568278211465387
-0.4737000000000001,-27.615164573365515
-0.4747,-28.746933613257543
-0.4757000000000001,-29.96358533114148
-0.4767,-31.321708179011907
-0.4777000000000001,-32.807155043870196
-0.4787,-34.5472499427042
-0.4797000000000001,-36.5136986495166
-0.4807,-38.6499127123128
-0.48170000000000013,-40.91345079209687
-0.4827,-43.44578401885527
-0.48370000000000013,-46.37423640957591
-0.4847,-49.458307043281685
-0.48570000000000013,-52.74043725896857
-0.4867,-55.17374069473642
-0.48570000000000013,-56.65918755959472
-0.4847,-58.498312249419264
-0.48370000000000013,-60.32328982624517
-0.4827,-61.97850204708726
-0.48170000000000013,-63.5063902509415
-0.4807,-64.86451309881193
-0.4797000000000001,-66.16604749468777
-0.4787,-67.34025787357575
-0.4777000000000001,-68.38714423547587
-0.4767,-69.30670658038814
-0.4757000000000001,-70.05650356931662
-0.4747,-70.79215344524643
-0.4737000000000001,-71.48536198218031
-0.4727,-72.05124650212633
-0.4717000000000001,-72.53224834408043
-0.4707,-72.97080884703858
-0.4697000000000001,-73.3669280110008
-0.4687,-73.76304717496302
-0.4677000000000001,-74.06013654793468
-0.4667,-74.28649035591307
