Potential V vs RHE, Current mA cm-2
0.013299999999999867,-0.1766974413531431
0.012299999999999978,-1.3543031273607997
0.011299999999999866,-2.226755585987568
0.010299999999999976,-2.924208256821031
0.009299999999999864,-3.447651437771094
0.008299999999999974,-3.884797229429391
0.007299999999999862,-4.23281620919619
0.006299999999999972,-4.494537799671222
0.00529999999999986,-4.756259390146253
0.0042999999999999705,-4.974124930325469
0.0032999999999998586,-5.191990470504685
0.0022999999999999687,-5.367414671687949
0.0012999999999998568,-5.585280211867165
0.00029999999999996696,-5.759289701750564
-0.000700000000000145,-5.9347139029338285
-0.0017000000000000348,-6.108723392817228
-0.0027000000000001467,-6.238876832404812
-0.0037000000000000366,-6.37044498329226
-0.0047000000000001485,-6.500598422879844
-0.005700000000000038,-6.632166573767292
-0.00670000000000015,-6.762320013354876
-0.00770000000000004,-6.850032113946507
-0.008700000000000152,-6.93774421453814
-0.009700000000000042,-7.067897654125724
-0.010700000000000154,-7.199465805013171
-0.011700000000000044,-7.329619244600755
-0.012700000000000156,-7.50504344578402
-0.013700000000000045,-7.635196885371603
-0.014700000000000157,-7.7653503249591855
-0.015700000000000047,-7.896918475846635
-0.01670000000000016,-8.070927965730034
-0.01770000000000005,-8.202496116617484
-0.01870000000000016,-8.332649556205066
-0.01970000000000005,-8.464217707092514
-0.020700000000000163,-8.594371146680096
-0.021700000000000053,-8.725939297567548
-0.022700000000000164,-8.85609273715513
-0.023700000000000054,-8.987660888042578
-0.024700000000000166,-9.161670377925978
-0.025700000000000056,-9.335679867809377
-0.026700000000000168,-9.511104068992642
-0.027700000000000058,-9.685113558876042
-0.02870000000000017,-9.85912304875944
-0.02970000000000006,-10.078403300238522
-0.03070000000000017,-10.25241279012192
-0.03170000000000006,-10.42642228000532
-0.03270000000000017,-10.557990430892769
-0.03370000000000006,-10.731999920776168
-0.034700000000000175,-10.906009410659568
-0.035700000000000065,-11.081433611842833
-0.03670000000000018,-11.255443101726232
-0.03770000000000007,-11.42945259160963
-0.03870000000000018,-11.647318131788847
-0.03970000000000007,-11.82274233297211
-0.04070000000000018,-12.040607873151327
-0.04170000000000007,-12.302329463626359
-0.04270000000000018,-12.476338953509758
-0.04370000000000007,-12.73806054398479
-0.044700000000000184,-12.913484745168056
-0.045700000000000074,-13.13135028534727
-0.046700000000000186,-13.30535977523067
-0.047700000000000076,-13.523225315409885
-0.04870000000000019,-13.698649516593148
-0.04970000000000008,-13.916515056772363
-0.05070000000000019,-14.13438059695158
-0.05170000000000008,-14.345172580631472
-0.05270000000000019,-14.57152638860988
-0.05370000000000008,-14.826174422585586
-0.05470000000000019,-15.094969569559943
-0.05570000000000008,-15.349617603535648
-0.056700000000000195,-15.618412750510005
-0.057700000000000085,-15.87306078448571
-0.058700000000000196,-16.099414592464115
-0.059700000000000086,-16.311621287443874
-0.0607000000000002,-16.53797509542228
-0.06170000000000009,-16.750181790402035
-0.0627000000000002,-17.018976937376394
-0.06370000000000009,-17.231183632356142
-0.0647000000000002,-17.4433903273359
-0.06570000000000009,-17.71218547431026
-0.0667000000000002,-17.966833508285966
-0.0677000000000001,-18.27806999425627
-0.0687000000000002,-18.53271802823198
-0.0697000000000001,-18.80151317520634
-0.07070000000000021,-19.056161209182044
-0.0717000000000001,-19.3249563561564
-0.07270000000000021,-19.537163051136158
-0.0737000000000001,-19.805958198110513
-0.07470000000000021,-20.01816489309027
-0.0757000000000001,-20.286960040064624
-0.07670000000000021,-20.541608074040333
-0.0777000000000001,-20.76796188201874
-0.07870000000000021,-21.065051254990397
-0.0797000000000001,-21.376287740960702
-0.08070000000000022,-21.63093577493641
-0.0817000000000001,-21.94217226090672
-0.08270000000000022,-22.196820294882425
-0.08370000000000011,-22.508056780852733
-0.08470000000000022,-22.776851927827092
-0.08570000000000011,-23.031499961802798
-0.08670000000000022,-23.300295108777156
-0.08770000000000011,-23.51250180375691
-0.08870000000000022,-23.767149837732617
-0.08970000000000011,-23.993503645711023
-0.09070000000000022,-24.24815167968673
-0.09170000000000011,-24.516946826661083
-0.09270000000000023,-24.771594860636792
-0.09370000000000012,-25.0828313466071
-0.09470000000000023,-25.337479380582806
-0.09570000000000012,-25.648715866553115
-0.09670000000000023,-25.91751101352747
-0.09770000000000012,-26.21460038649913
-0.09870000000000023,-26.483395533473487
-0.09970000000000012,-26.738043567449193
-0.10070000000000023,-27.00683871442355
-0.10170000000000012,-27.219045409403304
-0.10270000000000024,-27.487840556377662
-0.10370000000000013,-27.700047251357418
-0.10470000000000024,-27.954695285333123
-0.10570000000000013,-28.22349043230748
-0.10670000000000024,-28.478138466283188
-0.10770000000000013,-28.746933613257543
-0.10870000000000024,-29.058170099227848
-0.10970000000000013,-29.31281813320356
-0.11070000000000024,-29.581613280177915
-0.11170000000000013,-29.793819975157668
-0.11270000000000002,-30.04846800913338
-0.11370000000000013,-30.274821817111786
-0.11470000000000002,-30.487028512091538
-0.11570000000000014,-30.71338232006995
-0.11670000000000003,-30.968030354045652
-0.11770000000000014,-31.19438416202406
-0.11870000000000003,-31.449032195999767
-0.11970000000000014,-31.717827342974125
-0.12070000000000003,-32.01491671594578
-0.12170000000000014,-32.283711862920136
-0.12270000000000003,-32.53835989689585
-0.12370000000000014,-32.807155043870196
-0.12470000000000003,-33.06180307784591
-0.12570000000000014,-33.330598224820264
-0.12670000000000003,-33.54280491980002
-0.12770000000000015,-33.81160006677438
-0.12870000000000004,-34.06624810075008
-0.12970000000000015,-34.278454795729836
-0.13070000000000004,-34.462367264712285
-0.13170000000000015,-34.75945663768395
-0.13270000000000004,-35.07069312365426
-0.13370000000000015,-35.32534115762997
-0.13470000000000004,-35.636577643600276
-0.13570000000000015,-35.90537279057463
-0.13670000000000004,-36.20246216354629
-0.13770000000000016,-36.4288159715247
-0.13870000000000005,-36.725905344496354
-0.13970000000000016,-36.95225915247476
-0.14070000000000005,-37.206907186450465
-0.14170000000000016,-37.41911388143023
-0.14270000000000005,-37.687909028404576
-0.14370000000000016,-37.94255706238028
-0.14470000000000005,-38.211352209354644
-0.14570000000000016,-38.522588695324956
-0.14670000000000005,-38.81967806829661
-0.14770000000000016,-39.130914554266916
-0.14870000000000005,-39.38556258824262
-0.14970000000000017,-39.696799074212926
-0.15070000000000006,-39.95144710818864
-0.15170000000000017,-40.26268359415894
-0.15270000000000006,-40.51733162813464
-0.15370000000000017,-40.78612677510901
-0.15470000000000006,-41.04077480908471
-0.15570000000000017,-41.30956995605907
-0.15670000000000006,-41.56421799003478
-0.15770000000000017,-41.83301313700913
-0.15870000000000006,-42.130102509980794
-0.15970000000000018,-42.4413389959511
-0.16070000000000007,-42.752575481921404
-0.16170000000000018,-43.04966485489307
-0.16270000000000007,-43.36090134086337
-0.16370000000000018,-43.70043205283099
-0.16470000000000007,-44.011668538801295
-0.16570000000000018,-44.28046368577565
-0.16670000000000007,-44.577553058747306
-0.16770000000000018,-44.84634820572166
-0.16870000000000007,-45.10099623969737
-0.16970000000000018,-45.412232725667685
-0.17070000000000007,-45.666880759643384
-0.17170000000000019,-46.02055858460964
-0.17270000000000008,-46.3176479575813
-0.1737000000000002,-46.67132578254756
-0.17470000000000008,-47.02500360751382
-0.1757000000000002,-47.32209298048547
-0.17670000000000008,-47.633329466455784
-0.1777000000000002,-47.93041883942744
-0.17870000000000008,-48.1992139864018
-0.1797000000000002,-48.51045047237211
-0.18070000000000008,-48.76509850634781
-0.1817000000000002,-49.03389365332217
-0.18270000000000008,-49.33098302629383
-0.1837000000000002,-49.642219512264134
-0.1847000000000001,-49.939308885235796
-0.1857000000000002,-50.2505453712061
-0.1867000000000001,-50.547634744177756
-0.1877000000000002,-50.90131256914402
-0.1887000000000001,-51.25499039411028
-0.1897000000000002,-51.55207976708194
-0.1907000000000001,-51.90575759204819
-0.1917000000000001,-52.17455273902255
-0.19269999999999998,-52.471642111994214
-0.1937000000000001,-52.78287859796452
-0.19469999999999998,-53.03752663194023
-0.1957000000000001,-53.30632177891458
-0.19669999999999999,-53.64585249088219
-0.1977000000000001,-53.91464763785655
-0.1987,-54.26832546282281
-0.1997000000000001,-54.52297349679851
-0.2007,-54.876651321764776
-0.2017000000000001,-55.17374069473642
-0.2027,-55.527418519702685
-0.2037000000000001,-55.7820665536784
-0.2047,-56.13574437864466
-0.2057000000000001,-56.404539525619015
-0.2067,-56.70162889859067
-0.2077000000000001,-56.97042404556503
-0.2087,-57.22507207954074
-0.2097000000000001,-57.493867226515086
-0.2107,-57.79095659948675
-0.2117000000000001,-58.05975174646111
-0.2127,-58.35684111943277
-0.2137000000000001,-58.62563626640712
-0.2147,-58.92272563937878
-0.2157000000000001,-59.23396212534908
-0.2167,-59.54519861131939
-0.21770000000000012,-59.7998466452951
-0.2187,-60.02620045327351
-0.21970000000000012,-60.28084848724921
-0.2207,-60.49305518222897
-0.22170000000000012,-60.71940899020737
-0.2227,-60.93161568518713
-0.22370000000000012,-61.11552815416958
-0.2247,-61.327734849149344
-0.22570000000000012,-61.53994154412909
-0.2267,-61.7662953521075
-0.22770000000000012,-61.97850204708726
-0.22870000000000001,-62.16241451606972
-0.22970000000000013,-62.33217987205352
-0.23070000000000002,-62.501945228037314
-0.23170000000000013,-62.64341635802381
-0.23270000000000002,-62.77074037501168
-0.23370000000000013,-62.89806439199953
-0.23470000000000002,-62.98294706999144
-0.23570000000000013,-63.11027108697928
-0.23670000000000002,-63.20930087796983
-0.2376999999999999,-63.29418355596174
-0.23870000000000002,-63.3366248949577
-0.2396999999999999,-63.46394891194555
-0.24070000000000003,-63.54883158993744
-0.24169999999999991,-63.6761556069253
-0.24270000000000003,-63.732744058919906
-0.24369999999999992,-63.77518539791585
-0.24470000000000003,-63.77518539791585
-0.24569999999999992,-63.77518539791585
-0.24670000000000003,-63.81762673691181
-0.24769999999999992,-63.77518539791585
-0.24870000000000003,-63.77518539791585
-0.24969999999999992,-63.732744058919906
-0.25070000000000003,-63.6761556069253
-0.2516999999999999,-63.633714267929356
-0.25270000000000004,-63.59127292893339
-0.2536999999999999,-63.54883158993744
-0.25470000000000004,-63.5063902509415
-0.2556999999999999,-63.421507572949594
-0.25670000000000004,-63.37906623395363
-0.25769999999999993,-63.251742216965795
-0.25870000000000004,-63.11027108697928
-0.25969999999999993,-62.98294706999144
-0.26070000000000004,-62.81318171400764
-0.26169999999999993,-62.58682790602922
-0.26270000000000004,-62.37462121104946
-0.26369999999999993,-62.20485585506566
-0.26470000000000005,-61.936060708091304
-0.26569999999999994,-61.72385401311155
-0.26670000000000005,-61.53994154412909
-0.26769999999999994,-61.28529351015339
-0.26870000000000005,-61.01649836317903
-0.26969999999999994,-60.71940899020737
-0.27070000000000005,-60.45061384323302
-0.27169999999999994,-60.11108313126541
-0.27270000000000005,-59.757405306299155
-0.27369999999999994,-59.403727481332886
-0.27470000000000006,-59.02175543036933
-0.27569999999999995,-58.62563626640712
-0.27670000000000006,-58.18707576344896
-0.27769999999999995,-57.7485152604908
-0.27870000000000006,-57.352396096528594
-0.27969999999999995,-56.927982706569075
-0.28070000000000006,-56.44698086461496
-0.28169999999999995,-55.96597902266086
-0.28270000000000006,-55.484977180706736
-0.28369999999999995,-55.003975338752625
-0.28470000000000006,-54.52297349679851
-0.28569999999999995,-53.999530315848446
-0.28670000000000007,-53.476087134898386
-0.28769999999999996,-52.86776127595642
-0.28870000000000007,-52.25943541701445
-0.28969999999999996,-51.69355089706845
-0.29070000000000007,-51.071077925127824
-0.29169999999999996,-50.46275206618586
-0.29270000000000007,-49.89686754623985
-0.29369999999999996,-49.33098302629383
-0.2947000000000001,-48.76509850634781
-0.29569999999999996,-48.1992139864018
-0.2967000000000001,-47.633329466455784
-0.29769999999999996,-47.067444946509774
-0.2987000000000001,-46.45911908756781
-0.29969999999999997,-45.85079322862584
-0.3007000000000001,-45.18587891768927
-0.30169999999999997,-44.577553058747306
-0.3027000000000001,-43.92678586080939
-0.30369999999999997,-43.27601866287147
-0.3047000000000001,-42.71013414292546
-0.30569999999999997,-42.130102509980794
-0.3067000000000001,-41.52177665103883
-0.3077,-40.95589213109281
-0.3087000000000001,-40.34756627215084
-0.3097,-39.78168175220483
-0.3107000000000001,-39.258238571254765
-0.3117,-38.692354051308754
-0.3127000000000001,-38.12646953136274
-0.3137,-37.60302635041268
-0.3147000000000001,-37.037141830466666
-0.3157,-36.5136986495166
-0.3167000000000001,-35.99025546856653
-0.3177,-35.46681228761647
-0.3187000000000001,-35.02825178465831
-0.3197,-34.5472499427042
-0.3207000000000001,-34.15113077874198
-0.3217,-33.712570275783825
-0.3227000000000001,-33.330598224820264
-0.3237,-32.93447906085806
-0.3247000000000001,-32.53835989689585
-0.3257,-32.14224073293363
-0.3267000000000001,-31.76026868197007
-0.3277,-31.40659085700382
-0.3287000000000001,-31.052913032037555
-0.3297,-30.71338232006995
-0.3307000000000001,-30.359704495103685
-0.3317,-30.10505646112798
-0.3327000000000001,-29.793819975157668
-0.3337,-29.525024828183312
-0.3347000000000001,-29.35525947219951
-0.3357,-29.14305277721976
-0.3367000000000001,-28.91669896924135
-0.3377,-28.704492274261593
-0.3387000000000001,-28.478138466283188
-0.3397,-28.265931771303435
-0.3407000000000001,-28.09616641531963
-0.3417,-27.869812607341224
-0.3427000000000001,-27.742488590353368
-0.3437,-27.572723234369565
-0.3447000000000001,-27.43125210438306
-0.3457,-27.303928087395207
-0.3467000000000001,-27.219045409403304
-0.3477,-27.134162731411404
-0.3487000000000001,-27.091721392415455
-0.3497,-27.00683871442355
-0.3507000000000001,-26.9643973754276
-0.3517,-26.86536758443705
-0.3527000000000001,-26.822926245441096
-0.3537,-26.780484906445146
-0.3547000000000001,-26.69560222845324
-0.3557,-26.69560222845324
-0.35670000000000013,-26.65316088945729
-0.3577,-26.65316088945729
-0.35870000000000013,-26.65316088945729
-0.3597,-26.65316088945729
-0.36070000000000013,-26.69560222845324
-0.3617,-26.780484906445146
-0.3626999999999999,-26.822926245441096
-0.3637,-26.86536758443705
-0.3646999999999999,-26.907808923433
-0.3657,-26.9643973754276
-0.3666999999999999,-27.00683871442355
-0.3677,-27.091721392415455
-0.3686999999999999,-27.091721392415455
-0.36970000000000003,-27.176604070407354
-0.3706999999999999,-27.219045409403304
-0.37170000000000003,-27.34636942639116
-0.3726999999999999,-27.43125210438306
-0.37370000000000003,-27.530281895373616
-0.3746999999999999,-27.700047251357418
-0.37570000000000003,-27.78492992934932
-0.3766999999999999,-27.912253946337174
-0.37770000000000004,-28.05372507632368
-0.3786999999999999,-28.13860775431558
-0.37970000000000004,-28.265931771303435
-0.3806999999999999,-28.350814449295335
-0.38170000000000004,-28.478138466283188
-0.38269999999999993,-28.577168257273744
-0.38370000000000004,-28.704492274261593
-0.38469999999999993,-28.831816291249446
-0.38570000000000004,-28.959140308237306
-0.38669999999999993,-29.14305277721976
-0.38770000000000004,-29.31281813320356
-0.38869999999999993,-29.482583489187363
-0.38970000000000005,-29.66649595816982
-0.39069999999999994,-29.878702653149578
-0.39170000000000005,-29.96358533114148
-0.39269999999999994,-30.147497800123933
-0.39370000000000005,-30.317263156107735
-0.39469999999999994,-30.444587173095588
-0.39570000000000005,-30.614352529079397
-0.39669999999999994,-30.7558236590659
-0.39770000000000005,-30.925589015049702
-0.39869999999999994,-31.095354371033505
-0.39970000000000006,-31.27926684001596
-0.40069999999999995,-31.49147353499572
-0.40170000000000006,-31.717827342974125
-0.40269999999999995,-31.887592698957924
-0.40370000000000006,-32.09979939393769
-0.40469999999999995,-32.283711862920136
-0.40570000000000006,-32.49591855789989
-0.40669999999999995,-32.62324257488775
-0.40770000000000006,-32.807155043870196
-0.40869999999999995,-32.97692039985401
-0.40970000000000006,-33.14668575583781
-0.41069999999999995,-33.330598224820264
-0.41170000000000007,-33.50036358080407
-0.41269999999999996,-33.712570275783825
-0.41370000000000007,-33.93892408376223
-0.41469999999999996,-34.15113077874198
-0.41570000000000007,-34.377484586720385
-0.41669999999999996,-34.5472499427042
-0.41770000000000007,-34.75945663768395
-0.41869999999999996,-34.94336910666641
-0.4197000000000001,-35.11313446265021
-0.42069999999999996,-35.240458479638065
-0.4217000000000001,-35.42437094862052
-0.42269999999999996,-35.594136304604326
-0.4237000000000001,-35.763901660588125
-0.42469999999999997,-35.90537279057463
-0.4257000000000001,-36.11757948555439
-0.42669999999999997,-36.28734484153819
-0.4277000000000001,-36.5136986495166
-0.42869999999999997,-36.725905344496354
-0.4297000000000001,-36.89567070048016
-0.43069999999999997,-37.122024508458566
-0.4317000000000001,-37.249348525446415
-0.4327,-37.41911388143023
-0.4337000000000001,-37.56058501141672
-0.4347,-37.73035036740053
-0.4357000000000001,-37.85767438438838
-0.4367,-37.99914551437489
-0.4377000000000001,-38.12646953136274
-0.4387,-38.29623488734655
-0.4397000000000001,-38.46600024333035
-0.4407,-38.692354051308754
-0.4417000000000001,-38.86211940729255
-0.4427,-39.046031876275016
-0.4437000000000001,-39.173355893262865
-0.4447,-39.34312124924667
-0.4457000000000001,-39.47044526623452
-0.4467,-39.61191639622103
-0.4477000000000001,-39.696799074212926
-0.4487,-39.82412309120078
-0.4497000000000001,-39.95144710818864
-0.4507,-40.092918238175145
-0.4517000000000001,-40.220242255162994
-0.4527,-40.34756627215084
-0.4537000000000001,-40.51733162813464
-0.4547,-40.65880275812115
-0.4557000000000001,-40.78612677510901
-0.4567,-40.91345079209687
-0.4577000000000001,-41.04077480908471
-0.4587,-41.182245939071215
-0.4597000000000001,-41.267128617063115
-0.4607,-41.352011295055014
-0.4617000000000001,-41.43689397304693
-0.4627,-41.56421799003478
-0.4637000000000001,-41.606659329030734
-0.4647,-41.74813045901723
-0.4657000000000001,-41.83301313700913
-0.4667,-41.96033715399699
-0.4677000000000001,-42.04521983198889
-0.4687,-42.186690961975394
-0.4697000000000001,-42.2715736399673
-0.4707,-42.3564563179592
-0.4717000000000001,-42.4413389959511
-0.4727,-42.483780334947056
-0.4737000000000001,-42.568663012938956
-0.4747,-42.6111043519349
-0.4757000000000001,-42.653545690930855
-0.4767,-42.71013414292546
-0.4777000000000001,-42.752575481921404
-0.4787,-42.837458159913304
-0.4797000000000001,-42.87989949890926
-0.4807,-42.96478217690117
-0.48170000000000013,-43.04966485489307
-0.4827,-43.134547532884966
-0.48370000000000013,-43.23357732387552
-0.4847,-43.27601866287147
-0.48570000000000013,-43.31846000186743
-0.4867,-42.2715736399673
-0.48570000000000013,-39.654357735216976
-0.4847,-37.51814367242077
-0.48370000000000013,-35.679018982596226
-0.4827,-34.10868943974604
-0.48170000000000013,-32.70812525287965
-0.4807,-31.449032195999767
-0.4797000000000001,-30.359704495103685
-0.4787,-29.27037679420761
-0.4777000000000001,-28.265931771303435
-0.4767,-27.34636942639116
-0.4757000000000001,-26.440954194477534
-0.4747,-25.60627452755716
-0.4737000000000001,-24.729153521640843
-0.4727,-23.908620967719123
-0.4717000000000001,-23.073941300798747
-0.4707,-22.33829142486893
-0.4697000000000001,-21.58849443594046
-0.4687,-20.89528589900659
-0.4677000000000001,-20.244518701068674
-0.4667,-19.636192842126707
-0.4657000000000001,-19.01371987018609
-0.4647,-18.40539401124413
-0.4637000000000001,-17.839509491298113
-0.4627,-17.231183632356142
