Aug. 26, 2024   17:15:39
Cyclic Voltammetry
File: c:/users/guazh/data/20240813_batch_181_500/2024-08-25-exp189\exp189-2024-08-26t16_55_46-arkoh\exp189_cv_sr_300mvs_efin_-1900mv.bin
Data Source:  Experiment
Instrument Model:  CHI760E
Header: CV ran at 300 mVs
Note: 

Init E (V) = -1
High E (V) = -1
Low E (V) = -1.9
Final E (V) = -1
Init P/N = N
Scan Rate (V/s) = 0.3
Segment = 3
Sample Interval (V) = 0.001
Quiet Time (sec) = 2
Sensitivity (A/V) = 0.01
Comp R (ohm) = 1.4

Results:

Channel 1:
Segment 1:

Segment 2:

Segment 3:

Potential/V, Current/A

-1.000, 3.239e-6
-1.001, 3.239e-6
-1.002, 3.239e-6
-1.003, 3.239e-6
-1.004, 3.239e-6
-1.005, 3.239e-6
-1.006, 3.239e-6
-1.007, 3.239e-6
-1.008, 3.239e-6
-1.009, 3.239e-6
-1.010, 3.239e-6
-1.011, 3.239e-6
-1.012, 3.239e-6
-1.013, 3.239e-6
-1.014, 3.239e-6
-1.015, 3.239e-6
-1.016, 3.239e-6
-1.017, 3.239e-6
-1.018, 3.239e-6
-1.019, 3.239e-6
-1.020, 3.239e-6
-1.021, 3.239e-6
-1.022, 3.239e-6
-1.023, 3.239e-6
-1.024, 3.239e-6
-1.025, 3.239e-6
-1.026, 3.239e-6
-1.027, 3.239e-6
-1.028, 3.239e-6
-1.029, 3.239e-6
-1.030, 3.239e-6
-1.031, 3.239e-6
-1.032, 3.239e-6
-1.033, 3.239e-6
-1.034, 3.239e-6
-1.035, 3.239e-6
-1.036, 3.239e-6
-1.037, 3.239e-6
-1.038, 3.239e-6
-1.039, 3.239e-6
-1.040, 3.239e-6
-1.041, 3.239e-6
-1.042, 6.322e-6
-1.043, 3.239e-6
-1.044, 3.239e-6
-1.045, 3.239e-6
-1.046, 3.239e-6
-1.047, 3.239e-6
-1.048, 3.239e-6
-1.049, 3.239e-6
-1.050, 3.239e-6
-1.051, 3.239e-6
-1.052, 3.239e-6
-1.053, 3.239e-6
-1.054, 3.239e-6
-1.055, 3.239e-6
-1.056, 3.239e-6
-1.057, 6.322e-6
-1.058, 3.239e-6
-1.059, 6.322e-6
-1.060, 3.239e-6
-1.061, 3.239e-6
-1.062, 3.239e-6
-1.063, 3.239e-6
-1.064, 3.239e-6
-1.065, 3.239e-6
-1.066, 3.239e-6
-1.067, 6.322e-6
-1.068, 3.239e-6
-1.069, 3.239e-6
-1.070, 6.322e-6
-1.071, 3.239e-6
-1.072, 3.239e-6
-1.073, 3.239e-6
-1.074, 6.322e-6
-1.075, 3.239e-6
-1.076, 6.322e-6
-1.077, 3.239e-6
-1.078, 3.239e-6
-1.079, 3.239e-6
-1.080, 3.239e-6
-1.081, 3.239e-6
-1.082, 6.322e-6
-1.083, 3.239e-6
-1.084, 6.322e-6
-1.085, 6.322e-6
-1.086, 6.322e-6
-1.087, 6.322e-6
-1.088, 6.322e-6
-1.089, 6.322e-6
-1.090, 6.322e-6
-1.091, 3.239e-6
-1.092, 3.239e-6
-1.093, 6.322e-6
-1.094, 3.239e-6
-1.095, 6.322e-6
-1.096, 3.239e-6
-1.097, 6.322e-6
-1.098, 3.239e-6
-1.099, 6.322e-6
-1.100, 6.322e-6
-1.101, 6.322e-6
-1.102, 6.322e-6
-1.103, 6.322e-6
-1.104, 6.322e-6
-1.105, 6.322e-6
-1.106, 6.322e-6
-1.107, 6.322e-6
-1.108, 3.239e-6
-1.109, 6.322e-6
-1.110, 6.322e-6
-1.111, 3.239e-6
-1.112, 6.322e-6
-1.113, 3.239e-6
-1.114, 6.322e-6
-1.115, 6.322e-6
-1.116, 6.322e-6
-1.117, 6.322e-6
-1.118, 6.322e-6
-1.119, 6.322e-6
-1.120, 6.322e-6
-1.121, 6.322e-6
-1.122, 6.322e-6
-1.123, 6.322e-6
-1.124, 6.322e-6
-1.125, 6.322e-6
-1.126, 3.239e-6
-1.127, 6.322e-6
-1.128, 6.322e-6
-1.129, 3.239e-6
-1.130, 3.239e-6
-1.131, 6.322e-6
-1.132, 3.239e-6
-1.133, 6.322e-6
-1.134, 6.322e-6
-1.135, 6.322e-6
-1.136, 6.322e-6
-1.137, 6.322e-6
-1.138, 6.322e-6
-1.139, 6.322e-6
-1.140, 6.322e-6
-1.141, 6.322e-6
-1.142, 6.322e-6
-1.143, 6.322e-6
-1.144, 6.322e-6
-1.145, 6.322e-6
-1.146, 6.322e-6
-1.147, 6.322e-6
-1.148, 6.322e-6
-1.149, 6.322e-6
-1.150, 6.322e-6
-1.151, 6.322e-6
-1.152, 6.322e-6
-1.153, 6.322e-6
-1.154, 6.322e-6
-1.155, 6.322e-6
-1.156, 6.322e-6
-1.157, 6.322e-6
-1.158, 6.322e-6
-1.159, 6.322e-6
-1.160, 6.322e-6
-1.161, 6.322e-6
-1.162, 3.239e-6
-1.163, 6.322e-6
-1.164, 6.322e-6
-1.165, 6.322e-6
-1.166, 6.322e-6
-1.167, 6.322e-6
-1.168, 6.322e-6
-1.169, 6.322e-6
-1.170, 6.322e-6
-1.171, 6.322e-6
-1.172, 6.322e-6
-1.173, 6.322e-6
-1.174, 6.322e-6
-1.175, 6.322e-6
-1.176, 6.322e-6
-1.177, 6.322e-6
-1.178, 6.322e-6
-1.179, 6.322e-6
-1.180, 6.322e-6
-1.181, 6.322e-6
-1.182, 6.322e-6
-1.183, 6.322e-6
-1.184, 6.322e-6
-1.185, 6.322e-6
-1.186, 6.322e-6
-1.187, 6.322e-6
-1.188, 6.322e-6
-1.189, 6.322e-6
-1.190, 6.322e-6
-1.191, 6.322e-6
-1.192, 6.322e-6
-1.193, 6.322e-6
-1.194, 6.322e-6
-1.195, 6.322e-6
-1.196, 6.322e-6
-1.197, 6.322e-6
-1.198, 6.322e-6
-1.199, 6.322e-6
-1.200, 6.322e-6
-1.201, 6.322e-6
-1.202, 6.322e-6
-1.203, 6.322e-6
-1.204, 6.322e-6
-1.205, 6.322e-6
-1.206, 6.322e-6
-1.207, 6.322e-6
-1.208, 6.322e-6
-1.209, 6.322e-6
-1.210, 6.322e-6
-1.211, 6.322e-6
-1.212, 6.322e-6
-1.213, 6.322e-6
-1.214, 6.322e-6
-1.215, 6.322e-6
-1.216, 6.322e-6
-1.217, 6.322e-6
-1.218, 6.322e-6
-1.219, 6.322e-6
-1.220, 6.322e-6
-1.221, 6.322e-6
-1.222, 6.322e-6
-1.223, 6.322e-6
-1.224, 6.322e-6
-1.225, 6.322e-6
-1.226, 6.322e-6
-1.227, 6.322e-6
-1.228, 6.322e-6
-1.229, 6.322e-6
-1.230, 6.322e-6
-1.231, 6.322e-6
-1.232, 6.322e-6
-1.233, 6.322e-6
-1.234, 6.322e-6
-1.235, 6.322e-6
-1.236, 6.322e-6
-1.237, 6.322e-6
-1.238, 6.322e-6
-1.239, 6.322e-6
-1.240, 6.322e-6
-1.241, 6.322e-6
-1.242, 6.322e-6
-1.243, 6.322e-6
-1.244, 6.322e-6
-1.245, 6.322e-6
-1.246, 6.322e-6
-1.247, 6.322e-6
-1.248, 6.322e-6
-1.249, 6.322e-6
-1.250, 6.322e-6
-1.251, 6.322e-6
-1.252, 6.322e-6
-1.253, 6.322e-6
-1.254, 6.322e-6
-1.255, 6.322e-6
-1.256, 6.322e-6
-1.257, 6.322e-6
-1.258, 6.322e-6
-1.259, 6.322e-6
-1.260, 6.322e-6
-1.261, 6.322e-6
-1.262, 6.322e-6
-1.263, 6.322e-6
-1.264, 6.322e-6
-1.265, 6.322e-6
-1.266, 6.322e-6
-1.267, 6.322e-6
-1.268, 6.322e-6
-1.269, 6.322e-6
-1.270, 6.322e-6
-1.271, 6.322e-6
-1.272, 6.322e-6
-1.273, 6.322e-6
-1.274, 6.322e-6
-1.275, 6.322e-6
-1.276, 6.322e-6
-1.277, 9.405e-6
-1.278, 6.322e-6
-1.279, 6.322e-6
-1.280, 6.322e-6
-1.281, 6.322e-6
-1.282, 6.322e-6
-1.283, 6.322e-6
-1.284, 6.322e-6
-1.285, 6.322e-6
-1.286, 6.322e-6
-1.287, 6.322e-6
-1.288, 6.322e-6
-1.289, 6.322e-6
-1.290, 6.322e-6
-1.291, 6.322e-6
-1.292, 6.322e-6
-1.293, 6.322e-6
-1.294, 6.322e-6
-1.295, 6.322e-6
-1.296, 6.322e-6
-1.297, 6.322e-6
-1.298, 6.322e-6
-1.299, 6.322e-6
-1.300, 6.322e-6
-1.301, 9.405e-6
-1.302, 6.322e-6
-1.303, 6.322e-6
-1.304, 6.322e-6
-1.305, 6.322e-6
-1.306, 6.322e-6
-1.307, 6.322e-6
-1.308, 6.322e-6
-1.309, 6.322e-6
-1.310, 9.405e-6
-1.311, 6.322e-6
-1.312, 6.322e-6
-1.313, 6.322e-6
-1.314, 6.322e-6
-1.315, 6.322e-6
-1.316, 6.322e-6
-1.317, 6.322e-6
-1.318, 6.322e-6
-1.319, 6.322e-6
-1.320, 9.405e-6
-1.321, 6.322e-6
-1.322, 9.405e-6
-1.323, 6.322e-6
-1.324, 6.322e-6
-1.325, 6.322e-6
-1.326, 6.322e-6
-1.327, 9.405e-6
-1.328, 6.322e-6
-1.329, 6.322e-6
-1.330, 9.405e-6
-1.331, 6.322e-6
-1.332, 6.322e-6
-1.333, 6.322e-6
-1.334, 6.322e-6
-1.335, 6.322e-6
-1.336, 6.322e-6
-1.337, 6.322e-6
-1.338, 6.322e-6
-1.339, 9.405e-6
-1.340, 9.405e-6
-1.341, 6.322e-6
-1.342, 6.322e-6
-1.343, 9.405e-6
-1.344, 6.322e-6
-1.345, 6.322e-6
-1.346, 9.405e-6
-1.347, 6.322e-6
-1.348, 6.322e-6
-1.349, 9.405e-6
-1.350, 9.405e-6
-1.351, 9.405e-6
-1.352, 6.322e-6
-1.353, 6.322e-6
-1.354, 6.322e-6
-1.355, 9.405e-6
-1.356, 9.405e-6
-1.357, 6.322e-6
-1.358, 9.405e-6
-1.359, 9.405e-6
-1.360, 9.405e-6
-1.361, 6.322e-6
-1.362, 9.405e-6
-1.363, 9.405e-6
-1.364, 9.405e-6
-1.365, 9.405e-6
-1.366, 9.405e-6
-1.367, 9.405e-6
-1.368, 6.322e-6
-1.369, 9.405e-6
-1.370, 9.405e-6
-1.371, 9.405e-6
-1.372, 9.405e-6
-1.373, 9.405e-6
-1.374, 9.405e-6
-1.375, 9.405e-6
-1.376, 9.405e-6
-1.377, 9.405e-6
-1.378, 9.405e-6
-1.379, 9.405e-6
-1.380, 9.405e-6
-1.381, 6.322e-6
-1.382, 9.405e-6
-1.383, 9.405e-6
-1.384, 9.405e-6
-1.385, 6.322e-6
-1.386, 9.405e-6
-1.387, 9.405e-6
-1.388, 9.405e-6
-1.389, 9.405e-6
-1.390, 9.405e-6
-1.391, 9.405e-6
-1.392, 9.405e-6
-1.393, 9.405e-6
-1.394, 9.405e-6
-1.395, 9.405e-6
-1.396, 9.405e-6
-1.397, 9.405e-6
-1.398, 9.405e-6
-1.399, 9.405e-6
-1.400, 9.405e-6
-1.401, 6.322e-6
-1.402, 9.405e-6
-1.403, 9.405e-6
-1.404, 9.405e-6
-1.405, 9.405e-6
-1.406, 9.405e-6
-1.407, 9.405e-6
-1.408, 9.405e-6
-1.409, 9.405e-6
-1.410, 9.405e-6
-1.411, 9.405e-6
-1.412, 9.405e-6
-1.413, 9.405e-6
-1.414, 9.405e-6
-1.415, 9.405e-6
-1.416, 9.405e-6
-1.417, 9.405e-6
-1.418, 9.405e-6
-1.419, 9.405e-6
-1.420, 9.405e-6
-1.421, 9.405e-6
-1.422, 9.405e-6
-1.423, 9.405e-6
-1.424, 9.405e-6
-1.425, 9.405e-6
-1.426, 9.405e-6
-1.427, 9.405e-6
-1.428, 9.405e-6
-1.429, 9.405e-6
-1.430, 9.405e-6
-1.431, 9.405e-6
-1.432, 9.405e-6
-1.433, 9.405e-6
-1.434, 9.405e-6
-1.435, 9.405e-6
-1.436, 9.405e-6
-1.437, 9.405e-6
-1.438, 9.405e-6
-1.439, 9.405e-6
-1.440, 9.405e-6
-1.441, 9.405e-6
-1.442, 9.405e-6
-1.443, 9.405e-6
-1.444, 9.405e-6
-1.445, 9.405e-6
-1.446, 9.405e-6
-1.447, 9.405e-6
-1.448, 9.405e-6
-1.449, 9.405e-6
-1.450, 9.405e-6
-1.451, 9.405e-6
-1.452, 9.405e-6
-1.453, 9.405e-6
-1.454, 9.405e-6
-1.455, 9.405e-6
-1.456, 9.405e-6
-1.457, 9.405e-6
-1.458, 9.405e-6
-1.459, 9.405e-6
-1.460, 9.405e-6
-1.461, 9.405e-6
-1.462, 9.405e-6
-1.463, 9.405e-6
-1.464, 9.405e-6
-1.465, 9.405e-6
-1.466, 9.405e-6
-1.467, 9.405e-6
-1.468, 9.405e-6
-1.469, 9.405e-6
-1.470, 9.405e-6
-1.471, 9.405e-6
-1.472, 9.405e-6
-1.473, 9.405e-6
-1.474, 9.405e-6
-1.475, 9.405e-6
-1.476, 9.405e-6
-1.477, 9.405e-6
-1.478, 9.405e-6
-1.479, 9.405e-6
-1.480, 9.405e-6
-1.481, 9.405e-6
-1.482, 1.249e-5
-1.483, 9.405e-6
-1.484, 9.405e-6
-1.485, 9.405e-6
-1.486, 9.405e-6
-1.487, 1.249e-5
-1.488, 9.405e-6
-1.489, 9.405e-6
-1.490, 9.405e-6
-1.491, 9.405e-6
-1.492, 1.249e-5
-1.493, 9.405e-6
-1.494, 1.249e-5
-1.495, 9.405e-6
-1.496, 9.405e-6
-1.497, 1.249e-5
-1.498, 9.405e-6
-1.499, 1.249e-5
-1.500, 1.249e-5
-1.501, 1.249e-5
-1.502, 9.405e-6
-1.503, 9.405e-6
-1.504, 9.405e-6
-1.505, 1.249e-5
-1.506, 9.405e-6
-1.507, 1.249e-5
-1.508, 1.249e-5
-1.509, 1.249e-5
-1.510, 1.249e-5
-1.511, 1.249e-5
-1.512, 1.249e-5
-1.513, 1.249e-5
-1.514, 1.249e-5
-1.515, 1.249e-5
-1.516, 1.249e-5
-1.517, 1.249e-5
-1.518, 1.249e-5
-1.519, 1.249e-5
-1.520, 1.249e-5
-1.521, 1.249e-5
-1.522, 1.249e-5
-1.523, 1.249e-5
-1.524, 1.249e-5
-1.525, 1.249e-5
-1.526, 1.249e-5
-1.527, 1.249e-5
-1.528, 1.249e-5
-1.529, 1.249e-5
-1.530, 1.249e-5
-1.531, 1.249e-5
-1.532, 1.249e-5
-1.533, 1.249e-5
-1.534, 1.249e-5
-1.535, 1.249e-5
-1.536, 1.249e-5
-1.537, 1.249e-5
-1.538, 1.249e-5
-1.539, 1.249e-5
-1.540, 1.249e-5
-1.541, 1.249e-5
-1.542, 1.557e-5
-1.543, 1.249e-5
-1.544, 1.249e-5
-1.545, 1.557e-5
-1.546, 1.557e-5
-1.547, 1.557e-5
-1.548, 1.557e-5
-1.549, 1.557e-5
-1.550, 1.557e-5
-1.551, 1.557e-5
-1.552, 1.557e-5
-1.553, 1.557e-5
-1.554, 1.557e-5
-1.555, 1.557e-5
-1.556, 1.557e-5
-1.557, 1.557e-5
-1.558, 1.557e-5
-1.559, 1.557e-5
-1.560, 1.557e-5
-1.561, 1.557e-5
-1.562, 1.557e-5
-1.563, 1.557e-5
-1.564, 1.557e-5
-1.565, 1.557e-5
-1.566, 1.865e-5
-1.567, 1.865e-5
-1.568, 1.557e-5
-1.569, 1.557e-5
-1.570, 1.865e-5
-1.571, 1.865e-5
-1.572, 1.865e-5
-1.573, 1.865e-5
-1.574, 1.865e-5
-1.575, 1.865e-5
-1.576, 1.865e-5
-1.577, 1.865e-5
-1.578, 1.865e-5
-1.579, 1.865e-5
-1.580, 1.865e-5
-1.581, 1.865e-5
-1.582, 2.174e-5
-1.583, 2.174e-5
-1.584, 2.174e-5
-1.585, 2.174e-5
-1.586, 2.174e-5
-1.587, 2.174e-5
-1.588, 2.174e-5
-1.589, 2.174e-5
-1.590, 2.174e-5
-1.591, 2.174e-5
-1.592, 2.174e-5
-1.593, 2.174e-5
-1.594, 2.174e-5
-1.595, 2.482e-5
-1.596, 2.482e-5
-1.597, 2.482e-5
-1.598, 2.482e-5
-1.599, 2.482e-5
-1.600, 2.482e-5
-1.601, 2.482e-5
-1.602, 2.790e-5
-1.603, 2.482e-5
-1.604, 2.790e-5
-1.605, 2.790e-5
-1.606, 2.790e-5
-1.607, 2.790e-5
-1.608, 2.790e-5
-1.609, 3.099e-5
-1.610, 3.099e-5
-1.611, 3.099e-5
-1.612, 3.099e-5
-1.613, 3.099e-5
-1.614, 3.407e-5
-1.615, 3.099e-5
-1.616, 3.407e-5
-1.617, 3.407e-5
-1.618, 3.407e-5
-1.619, 3.407e-5
-1.620, 3.715e-5
-1.621, 3.715e-5
-1.622, 3.715e-5
-1.623, 3.715e-5
-1.624, 4.024e-5
-1.625, 4.024e-5
-1.626, 4.024e-5
-1.627, 4.332e-5
-1.628, 4.332e-5
-1.629, 4.332e-5
-1.630, 4.332e-5
-1.631, 4.332e-5
-1.632, 4.640e-5
-1.633, 4.640e-5
-1.634, 4.949e-5
-1.635, 4.949e-5
-1.636, 4.949e-5
-1.637, 5.257e-5
-1.638, 5.257e-5
-1.639, 5.565e-5
-1.640, 5.565e-5
-1.641, 5.565e-5
-1.642, 5.873e-5
-1.643, 5.873e-5
-1.644, 6.182e-5
-1.645, 6.182e-5
-1.646, 6.490e-5
-1.647, 6.490e-5
-1.648, 6.798e-5
-1.649, 6.798e-5
-1.650, 7.107e-5
-1.651, 7.107e-5
-1.652, 7.415e-5
-1.653, 7.415e-5
-1.654, 7.723e-5
-1.655, 8.032e-5
-1.656, 8.032e-5
-1.657, 8.340e-5
-1.658, 8.648e-5
-1.659, 8.648e-5
-1.660, 8.957e-5
-1.661, 9.265e-5
-1.662, 9.573e-5
-1.663, 9.573e-5
-1.664, 9.882e-5
-1.665, 1.019e-4
-1.666, 1.050e-4
-1.667, 1.081e-4
-1.668, 1.111e-4
-1.669, 1.142e-4
-1.670, 1.173e-4
-1.671, 1.204e-4
-1.672, 1.235e-4
-1.673, 1.266e-4
-1.674, 1.296e-4
-1.675, 1.327e-4
-1.676, 1.358e-4
-1.677, 1.420e-4
-1.678, 1.451e-4
-1.679, 1.481e-4
-1.680, 1.543e-4
-1.681, 1.574e-4
-1.682, 1.636e-4
-1.683, 1.666e-4
-1.684, 1.728e-4
-1.685, 1.759e-4
-1.686, 1.790e-4
-1.687, 1.851e-4
-1.688, 1.913e-4
-1.689, 1.975e-4
-1.690, 2.006e-4
-1.691, 2.067e-4
-1.692, 2.129e-4
-1.693, 2.191e-4
-1.694, 2.252e-4
-1.695, 2.314e-4
-1.696, 2.376e-4
-1.697, 2.437e-4
-1.698, 2.499e-4
-1.699, 2.561e-4
-1.700, 2.653e-4
-1.701, 2.715e-4
-1.702, 2.776e-4
-1.703, 2.869e-4
-1.704, 2.931e-4
-1.705, 3.023e-4
-1.706, 3.085e-4
-1.707, 3.177e-4
-1.708, 3.270e-4
-1.709, 3.362e-4
-1.710, 3.455e-4
-1.711, 3.516e-4
-1.712, 3.609e-4
-1.713, 3.701e-4
-1.714, 3.825e-4
-1.715, 3.917e-4
-1.716, 4.010e-4
-1.717, 4.102e-4
-1.718, 4.225e-4
-1.719, 4.318e-4
-1.720, 4.441e-4
-1.721, 4.534e-4
-1.722, 4.657e-4
-1.723, 4.780e-4
-1.724, 4.873e-4
-1.725, 4.996e-4
-1.726, 5.120e-4
-1.727, 5.243e-4
-1.728, 5.397e-4
-1.729, 5.489e-4
-1.730, 5.644e-4
-1.731, 5.767e-4
-1.732, 5.921e-4
-1.733, 6.044e-4
-1.734, 6.168e-4
-1.735, 6.322e-4
-1.736, 6.476e-4
-1.737, 6.630e-4
-1.738, 6.784e-4
-1.739, 6.939e-4
-1.740, 7.093e-4
-1.741, 7.247e-4
-1.742, 7.401e-4
-1.743, 7.586e-4
-1.744, 7.740e-4
-1.745, 7.894e-4
-1.746, 8.079e-4
-1.747, 8.264e-4
-1.748, 8.449e-4
-1.749, 8.634e-4
-1.750, 8.819e-4
-1.751, 9.004e-4
-1.752, 9.189e-4
-1.753, 9.374e-4
-1.754, 9.590e-4
-1.755, 9.775e-4
-1.756, 9.960e-4
-1.757, 1.018e-3
-1.758, 1.039e-3
-1.759, 1.058e-3
-1.760, 1.079e-3
-1.761, 1.101e-3
-1.762, 1.122e-3
-1.763, 1.147e-3
-1.764, 1.169e-3
-1.765, 1.190e-3
-1.766, 1.215e-3
-1.767, 1.236e-3
-1.768, 1.261e-3
-1.769, 1.286e-3
-1.770, 1.310e-3
-1.771, 1.332e-3
-1.772, 1.360e-3
-1.773, 1.384e-3
-1.774, 1.409e-3
-1.775, 1.434e-3
-1.776, 1.462e-3
-1.777, 1.489e-3
-1.778, 1.514e-3
-1.779, 1.542e-3
-1.780, 1.566e-3
-1.781, 1.597e-3
-1.782, 1.625e-3
-1.783, 1.656e-3
-1.784, 1.680e-3
-1.785, 1.711e-3
-1.786, 1.742e-3
-1.787, 1.773e-3
-1.788, 1.801e-3
-1.789, 1.832e-3
-1.790, 1.862e-3
-1.791, 1.893e-3
-1.792, 1.924e-3
-1.793, 1.955e-3
-1.794, 1.986e-3
-1.795, 2.020e-3
-1.796, 2.050e-3
-1.797, 2.084e-3
-1.798, 2.118e-3
-1.799, 2.149e-3
-1.800, 2.183e-3
-1.801, 2.220e-3
-1.802, 2.254e-3
-1.803, 2.288e-3
-1.804, 2.322e-3
-1.805, 2.359e-3
-1.806, 2.393e-3
-1.807, 2.430e-3
-1.808, 2.467e-3
-1.809, 2.501e-3
-1.810, 2.541e-3
-1.811, 2.578e-3
-1.812, 2.615e-3
-1.813, 2.652e-3
-1.814, 2.689e-3
-1.815, 2.729e-3
-1.816, 2.769e-3
-1.817, 2.806e-3
-1.818, 2.843e-3
-1.819, 2.883e-3
-1.820, 2.923e-3
-1.821, 2.963e-3
-1.822, 3.006e-3
-1.823, 3.046e-3
-1.824, 3.086e-3
-1.825, 3.126e-3
-1.826, 3.170e-3
-1.827, 3.213e-3
-1.828, 3.253e-3
-1.829, 3.299e-3
-1.830, 3.339e-3
-1.831, 3.385e-3
-1.832, 3.429e-3
-1.833, 3.472e-3
-1.834, 3.518e-3
-1.835, 3.558e-3
-1.836, 3.604e-3
-1.837, 3.651e-3
-1.838, 3.697e-3
-1.839, 3.743e-3
-1.840, 3.786e-3
-1.841, 3.832e-3
-1.842, 3.882e-3
-1.843, 3.928e-3
-1.844, 3.974e-3
-1.845, 4.024e-3
-1.846, 4.073e-3
-1.847, 4.119e-3
-1.848, 4.169e-3
-1.849, 4.215e-3
-1.850, 4.264e-3
-1.851, 4.317e-3
-1.852, 4.366e-3
-1.853, 4.415e-3
-1.854, 4.461e-3
-1.855, 4.514e-3
-1.856, 4.566e-3
-1.857, 4.616e-3
-1.858, 4.668e-3
-1.859, 4.720e-3
-1.860, 4.773e-3
-1.861, 4.825e-3
-1.862, 4.878e-3
-1.863, 4.930e-3
-1.864, 4.982e-3
-1.865, 5.035e-3
-1.866, 5.090e-3
-1.867, 5.146e-3
-1.868, 5.198e-3
-1.869, 5.251e-3
-1.870, 5.306e-3
-1.871, 5.362e-3
-1.872, 5.420e-3
-1.873, 5.473e-3
-1.874, 5.528e-3
-1.875, 5.587e-3
-1.876, 5.642e-3
-1.877, 5.701e-3
-1.878, 5.753e-3
-1.879, 5.812e-3
-1.880, 5.870e-3
-1.881, 5.929e-3
-1.882, 5.984e-3
-1.883, 6.043e-3
-1.884, 6.102e-3
-1.885, 6.160e-3
-1.886, 6.219e-3
-1.887, 6.280e-3
-1.888, 6.339e-3
-1.889, 6.398e-3
-1.890, 6.456e-3
-1.891, 6.515e-3
-1.892, 6.576e-3
-1.893, 6.635e-3
-1.894, 6.697e-3
-1.895, 6.758e-3
-1.896, 6.820e-3
-1.897, 6.882e-3
-1.898, 6.940e-3
-1.899, 7.005e-3
-1.900, 7.033e-3
-1.899, 7.008e-3
-1.898, 6.977e-3
-1.897, 6.943e-3
-1.896, 6.909e-3
-1.895, 6.875e-3
-1.894, 6.842e-3
-1.893, 6.805e-3
-1.892, 6.768e-3
-1.891, 6.731e-3
-1.890, 6.694e-3
-1.889, 6.660e-3
-1.888, 6.623e-3
-1.887, 6.583e-3
-1.886, 6.546e-3
-1.885, 6.506e-3
-1.884, 6.469e-3
-1.883, 6.432e-3
-1.882, 6.395e-3
-1.881, 6.351e-3
-1.880, 6.311e-3
-1.879, 6.274e-3
-1.878, 6.237e-3
-1.877, 6.197e-3
-1.876, 6.157e-3
-1.875, 6.117e-3
-1.874, 6.077e-3
-1.873, 6.040e-3
-1.872, 6.003e-3
-1.871, 5.960e-3
-1.870, 5.923e-3
-1.869, 5.883e-3
-1.868, 5.846e-3
-1.867, 5.803e-3
-1.866, 5.762e-3
-1.865, 5.725e-3
-1.864, 5.685e-3
-1.863, 5.645e-3
-1.862, 5.608e-3
-1.861, 5.565e-3
-1.860, 5.525e-3
-1.859, 5.485e-3
-1.858, 5.448e-3
-1.857, 5.408e-3
-1.856, 5.368e-3
-1.855, 5.331e-3
-1.854, 5.291e-3
-1.853, 5.251e-3
-1.852, 5.214e-3
-1.851, 5.174e-3
-1.850, 5.134e-3
-1.849, 5.097e-3
-1.848, 5.060e-3
-1.847, 5.019e-3
-1.846, 4.982e-3
-1.845, 4.942e-3
-1.844, 4.902e-3
-1.843, 4.868e-3
-1.842, 4.828e-3
-1.841, 4.788e-3
-1.840, 4.751e-3
-1.839, 4.714e-3
-1.838, 4.677e-3
-1.837, 4.640e-3
-1.836, 4.603e-3
-1.835, 4.563e-3
-1.834, 4.529e-3
-1.833, 4.492e-3
-1.832, 4.455e-3
-1.831, 4.418e-3
-1.830, 4.381e-3
-1.829, 4.347e-3
-1.828, 4.310e-3
-1.827, 4.273e-3
-1.826, 4.236e-3
-1.825, 4.199e-3
-1.824, 4.165e-3
-1.823, 4.132e-3
-1.822, 4.095e-3
-1.821, 4.061e-3
-1.820, 4.027e-3
-1.819, 3.990e-3
-1.818, 3.956e-3
-1.817, 3.919e-3
-1.816, 3.888e-3
-1.815, 3.851e-3
-1.814, 3.814e-3
-1.813, 3.783e-3
-1.812, 3.749e-3
-1.811, 3.715e-3
-1.810, 3.681e-3
-1.809, 3.647e-3
-1.808, 3.614e-3
-1.807, 3.583e-3
-1.806, 3.549e-3
-1.805, 3.518e-3
-1.804, 3.484e-3
-1.803, 3.453e-3
-1.802, 3.419e-3
-1.801, 3.385e-3
-1.800, 3.355e-3
-1.799, 3.324e-3
-1.798, 3.290e-3
-1.797, 3.262e-3
-1.796, 3.228e-3
-1.795, 3.197e-3
-1.794, 3.163e-3
-1.793, 3.136e-3
-1.792, 3.105e-3
-1.791, 3.074e-3
-1.790, 3.043e-3
-1.789, 3.012e-3
-1.788, 2.982e-3
-1.787, 2.954e-3
-1.786, 2.923e-3
-1.785, 2.892e-3
-1.784, 2.864e-3
-1.783, 2.837e-3
-1.782, 2.806e-3
-1.781, 2.778e-3
-1.780, 2.750e-3
-1.779, 2.723e-3
-1.778, 2.695e-3
-1.777, 2.667e-3
-1.776, 2.636e-3
-1.775, 2.608e-3
-1.774, 2.581e-3
-1.773, 2.556e-3
-1.772, 2.525e-3
-1.771, 2.501e-3
-1.770, 2.473e-3
-1.769, 2.445e-3
-1.768, 2.420e-3
-1.767, 2.393e-3
-1.766, 2.368e-3
-1.765, 2.340e-3
-1.764, 2.316e-3
-1.763, 2.291e-3
-1.762, 2.263e-3
-1.761, 2.235e-3
-1.760, 2.214e-3
-1.759, 2.189e-3
-1.758, 2.161e-3
-1.757, 2.137e-3
-1.756, 2.115e-3
-1.755, 2.091e-3
-1.754, 2.066e-3
-1.753, 2.041e-3
-1.752, 2.017e-3
-1.751, 1.995e-3
-1.750, 1.970e-3
-1.749, 1.949e-3
-1.748, 1.924e-3
-1.747, 1.902e-3
-1.746, 1.878e-3
-1.745, 1.856e-3
-1.744, 1.832e-3
-1.743, 1.813e-3
-1.742, 1.788e-3
-1.741, 1.767e-3
-1.740, 1.745e-3
-1.739, 1.724e-3
-1.738, 1.702e-3
-1.737, 1.680e-3
-1.736, 1.659e-3
-1.735, 1.637e-3
-1.734, 1.616e-3
-1.733, 1.597e-3
-1.732, 1.576e-3
-1.731, 1.554e-3
-1.730, 1.536e-3
-1.729, 1.514e-3
-1.728, 1.495e-3
-1.727, 1.477e-3
-1.726, 1.455e-3
-1.725, 1.437e-3
-1.724, 1.418e-3
-1.723, 1.400e-3
-1.722, 1.381e-3
-1.721, 1.363e-3
-1.720, 1.344e-3
-1.719, 1.326e-3
-1.718, 1.307e-3
-1.717, 1.289e-3
-1.716, 1.270e-3
-1.715, 1.252e-3
-1.714, 1.236e-3
-1.713, 1.218e-3
-1.712, 1.203e-3
-1.711, 1.187e-3
-1.710, 1.169e-3
-1.709, 1.153e-3
-1.708, 1.138e-3
-1.707, 1.119e-3
-1.706, 1.104e-3
-1.705, 1.088e-3
-1.704, 1.073e-3
-1.703, 1.058e-3
-1.702, 1.042e-3
-1.701, 1.024e-3
-1.700, 1.011e-3
-1.699, 9.960e-4
-1.698, 9.806e-4
-1.697, 9.652e-4
-1.696, 9.498e-4
-1.695, 9.374e-4
-1.694, 9.220e-4
-1.693, 9.097e-4
-1.692, 8.943e-4
-1.691, 8.788e-4
-1.690, 8.665e-4
-1.689, 8.542e-4
-1.688, 8.418e-4
-1.687, 8.264e-4
-1.686, 8.110e-4
-1.685, 7.987e-4
-1.684, 7.863e-4
-1.683, 7.740e-4
-1.682, 7.617e-4
-1.681, 7.494e-4
-1.680, 7.370e-4
-1.679, 7.247e-4
-1.678, 7.124e-4
-1.677, 7.000e-4
-1.676, 6.908e-4
-1.675, 6.784e-4
-1.674, 6.661e-4
-1.673, 6.569e-4
-1.672, 6.445e-4
-1.671, 6.322e-4
-1.670, 6.229e-4
-1.669, 6.137e-4
-1.668, 6.014e-4
-1.667, 5.921e-4
-1.666, 5.829e-4
-1.665, 5.705e-4
-1.664, 5.613e-4
-1.663, 5.520e-4
-1.662, 5.397e-4
-1.661, 5.305e-4
-1.660, 5.212e-4
-1.659, 5.120e-4
-1.658, 5.027e-4
-1.657, 4.935e-4
-1.656, 4.842e-4
-1.655, 4.780e-4
-1.654, 4.688e-4
-1.653, 4.595e-4
-1.652, 4.503e-4
-1.651, 4.410e-4
-1.650, 4.318e-4
-1.649, 4.256e-4
-1.648, 4.195e-4
-1.647, 4.102e-4
-1.646, 4.010e-4
-1.645, 3.948e-4
-1.644, 3.855e-4
-1.643, 3.794e-4
-1.642, 3.732e-4
-1.641, 3.640e-4
-1.640, 3.578e-4
-1.639, 3.516e-4
-1.638, 3.455e-4
-1.637, 3.362e-4
-1.636, 3.300e-4
-1.635, 3.239e-4
-1.634, 3.177e-4
-1.633, 3.115e-4
-1.632, 3.054e-4
-1.631, 2.961e-4
-1.630, 2.931e-4
-1.629, 2.869e-4
-1.628, 2.807e-4
-1.627, 2.746e-4
-1.626, 2.684e-4
-1.625, 2.622e-4
-1.624, 2.591e-4
-1.623, 2.530e-4
-1.622, 2.468e-4
-1.621, 2.406e-4
-1.620, 2.376e-4
-1.619, 2.314e-4
-1.618, 2.283e-4
-1.617, 2.221e-4
-1.616, 2.160e-4
-1.615, 2.129e-4
-1.614, 2.067e-4
-1.613, 2.036e-4
-1.612, 1.975e-4
-1.611, 1.944e-4
-1.610, 1.882e-4
-1.609, 1.851e-4
-1.608, 1.821e-4
-1.607, 1.759e-4
-1.606, 1.728e-4
-1.605, 1.697e-4
-1.604, 1.666e-4
-1.603, 1.636e-4
-1.602, 1.574e-4
-1.601, 1.543e-4
-1.600, 1.512e-4
-1.599, 1.481e-4
-1.598, 1.451e-4
-1.597, 1.389e-4
-1.596, 1.358e-4
-1.595, 1.327e-4
-1.594, 1.296e-4
-1.593, 1.296e-4
-1.592, 1.235e-4
-1.591, 1.235e-4
-1.590, 1.204e-4
-1.589, 1.173e-4
-1.588, 1.142e-4
-1.587, 1.111e-4
-1.586, 1.081e-4
-1.585, 1.050e-4
-1.584, 1.019e-4
-1.583, 1.019e-4
-1.582, 9.882e-5
-1.581, 9.573e-5
-1.580, 9.265e-5
-1.579, 8.957e-5
-1.578, 8.957e-5
-1.577, 8.648e-5
-1.576, 8.340e-5
-1.575, 8.340e-5
-1.574, 8.032e-5
-1.573, 8.032e-5
-1.572, 7.723e-5
-1.571, 7.415e-5
-1.570, 7.415e-5
-1.569, 7.107e-5
-1.568, 6.798e-5
-1.567, 6.798e-5
-1.566, 6.490e-5
-1.565, 6.490e-5
-1.564, 6.182e-5
-1.563, 6.182e-5
-1.562, 5.873e-5
-1.561, 5.873e-5
-1.560, 5.565e-5
-1.559, 5.565e-5
-1.558, 5.257e-5
-1.557, 5.257e-5
-1.556, 4.949e-5
-1.555, 4.949e-5
-1.554, 4.640e-5
-1.553, 4.640e-5
-1.552, 4.640e-5
-1.551, 4.332e-5
-1.550, 4.332e-5
-1.549, 4.024e-5
-1.548, 4.332e-5
-1.547, 4.024e-5
-1.546, 4.024e-5
-1.545, 3.715e-5
-1.544, 3.715e-5
-1.543, 3.715e-5
-1.542, 3.407e-5
-1.541, 3.407e-5
-1.540, 3.407e-5
-1.539, 3.099e-5
-1.538, 3.099e-5
-1.537, 2.790e-5
-1.536, 2.790e-5
-1.535, 2.790e-5
-1.534, 2.790e-5
-1.533, 2.790e-5
-1.532, 2.482e-5
-1.531, 2.482e-5
-1.530, 2.482e-5
-1.529, 2.482e-5
-1.528, 2.482e-5
-1.527, 2.174e-5
-1.526, 2.174e-5
-1.525, 2.174e-5
-1.524, 2.174e-5
-1.523, 2.174e-5
-1.522, 1.865e-5
-1.521, 1.865e-5
-1.520, 1.865e-5
-1.519, 1.865e-5
-1.518, 1.865e-5
-1.517, 1.865e-5
-1.516, 1.865e-5
-1.515, 1.557e-5
-1.514, 1.557e-5
-1.513, 1.557e-5
-1.512, 1.249e-5
-1.511, 1.249e-5
-1.510, 1.249e-5
-1.509, 1.249e-5
-1.508, 1.249e-5
-1.507, 1.249e-5
-1.506, 1.249e-5
-1.505, 9.405e-6
-1.504, 1.249e-5
-1.503, 1.249e-5
-1.502, 9.405e-6
-1.501, 9.405e-6
-1.500, 9.405e-6
-1.499, 9.405e-6
-1.498, 9.405e-6
-1.497, 9.405e-6
-1.496, 9.405e-6
-1.495, 9.405e-6
-1.494, 6.322e-6
-1.493, 9.405e-6
-1.492, 6.322e-6
-1.491, 6.322e-6
-1.490, 6.322e-6
-1.489, 6.322e-6
-1.488, 6.322e-6
-1.487, 6.322e-6
-1.486, 6.322e-6
-1.485, 6.322e-6
-1.484, 6.322e-6
-1.483, 6.322e-6
-1.482, 6.322e-6
-1.481, 6.322e-6
-1.480, 6.322e-6
-1.479, 3.239e-6
-1.478, 6.322e-6
-1.477, 3.239e-6
-1.476, 6.322e-6
-1.475, 3.239e-6
-1.474, 3.239e-6
-1.473, 3.239e-6
-1.472, 3.239e-6
-1.471, 3.239e-6
-1.470, 3.239e-6
-1.469, 3.239e-6
-1.468, 3.239e-6
-1.467, 3.239e-6
-1.466, 3.239e-6
-1.465, 3.239e-6
-1.464, 3.239e-6
-1.463, 3.239e-6
-1.462, 3.239e-6
-1.461, 3.239e-6
-1.460, 3.239e-6
-1.459, 1.559e-7
-1.458, 3.239e-6
-1.457, 3.239e-6
-1.456, 1.559e-7
-1.455, 3.239e-6
-1.454, 1.559e-7
-1.453, 1.559e-7
-1.452, 1.559e-7
-1.451, 1.559e-7
-1.450, 3.239e-6
-1.449, 1.559e-7
-1.448, 1.559e-7
-1.447, 3.239e-6
-1.446, 1.559e-7
-1.445, 1.559e-7
-1.444, 1.559e-7
-1.443, 3.239e-6
-1.442, 1.559e-7
-1.441, 1.559e-7
-1.440, 1.559e-7
-1.439, 1.559e-7
-1.438, 1.559e-7
-1.437, 1.559e-7
-1.436, 1.559e-7
-1.435, 1.559e-7
-1.434, 1.559e-7
-1.433, 1.559e-7
-1.432, 1.559e-7
-1.431, 1.559e-7
-1.430, 1.559e-7
-1.429, 1.559e-7
-1.428, 1.559e-7
-1.427, 1.559e-7
-1.426, 1.559e-7
-1.425, 1.559e-7
-1.424, 1.559e-7
-1.423, 1.559e-7
-1.422, 1.559e-7
-1.421, 1.559e-7
-1.420, 1.559e-7
-1.419, 1.559e-7
-1.418, 1.559e-7
-1.417, 1.559e-7
-1.416, 1.559e-7
-1.415, 1.559e-7
-1.414, 1.559e-7
-1.413, 1.559e-7
-1.412, 1.559e-7
-1.411, 1.559e-7
-1.410, 1.559e-7
-1.409, 1.559e-7
-1.408, 1.559e-7
-1.407, 1.559e-7
-1.406, -2.927e-6
-1.405, 1.559e-7
-1.404, -2.927e-6
-1.403, 1.559e-7
-1.402, 1.559e-7
-1.401, 1.559e-7
-1.400, -2.927e-6
-1.399, 1.559e-7
-1.398, 1.559e-7
-1.397, 1.559e-7
-1.396, 1.559e-7
-1.395, 1.559e-7
-1.394, -2.927e-6
-1.393, 1.559e-7
-1.392, -2.927e-6
-1.391, 1.559e-7
-1.390, 1.559e-7
-1.389, -2.927e-6
-1.388, -2.927e-6
-1.387, -2.927e-6
-1.386, -2.927e-6
-1.385, 1.559e-7
-1.384, -2.927e-6
-1.383, 1.559e-7
-1.382, -2.927e-6
-1.381, -2.927e-6
-1.380, 1.559e-7
-1.379, 1.559e-7
-1.378, 1.559e-7
-1.377, 1.559e-7
-1.376, 1.559e-7
-1.375, -2.927e-6
-1.374, -2.927e-6
-1.373, 1.559e-7
-1.372, -2.927e-6
-1.371, -2.927e-6
-1.370, -2.927e-6
-1.369, -2.927e-6
-1.368, 1.559e-7
-1.367, 1.559e-7
-1.366, 1.559e-7
-1.365, 1.559e-7
-1.364, 1.559e-7
-1.363, 1.559e-7
-1.362, -2.927e-6
-1.361, -2.927e-6
-1.360, -2.927e-6
-1.359, -2.927e-6
-1.358, 1.559e-7
-1.357, -2.927e-6
-1.356, -2.927e-6
-1.355, 1.559e-7
-1.354, -2.927e-6
-1.353, -2.927e-6
-1.352, -2.927e-6
-1.351, -2.927e-6
-1.350, -2.927e-6
-1.349, 1.559e-7
-1.348, -2.927e-6
-1.347, -2.927e-6
-1.346, -2.927e-6
-1.345, 1.559e-7
-1.344, -2.927e-6
-1.343, 1.559e-7
-1.342, -2.927e-6
-1.341, -2.927e-6
-1.340, -2.927e-6
-1.339, 1.559e-7
-1.338, -2.927e-6
-1.337, 1.559e-7
-1.336, -2.927e-6
-1.335, -2.927e-6
-1.334, -2.927e-6
-1.333, -2.927e-6
-1.332, -2.927e-6
-1.331, -2.927e-6
-1.330, 1.559e-7
-1.329, -2.927e-6
-1.328, 1.559e-7
-1.327, -2.927e-6
-1.326, -2.927e-6
-1.325, -2.927e-6
-1.324, -2.927e-6
-1.323, 1.559e-7
-1.322, -2.927e-6
-1.321, -2.927e-6
-1.320, -2.927e-6
-1.319, -2.927e-6
-1.318, -2.927e-6
-1.317, -2.927e-6
-1.316, -2.927e-6
-1.315, -2.927e-6
-1.314, -2.927e-6
-1.313, 1.559e-7
-1.312, -2.927e-6
-1.311, -2.927e-6
-1.310, -2.927e-6
-1.309, -2.927e-6
-1.308, 1.559e-7
-1.307, -2.927e-6
-1.306, -2.927e-6
-1.305, -2.927e-6
-1.304, -2.927e-6
-1.303, 1.559e-7
-1.302, -2.927e-6
-1.301, -2.927e-6
-1.300, -2.927e-6
-1.299, -2.927e-6
-1.298, -2.927e-6
-1.297, -2.927e-6
-1.296, -2.927e-6
-1.295, -2.927e-6
-1.294, 1.559e-7
-1.293, 1.559e-7
-1.292, -2.927e-6
-1.291, -2.927e-6
-1.290, -2.927e-6
-1.289, -2.927e-6
-1.288, -2.927e-6
-1.287, -2.927e-6
-1.286, -2.927e-6
-1.285, -2.927e-6
-1.284, -2.927e-6
-1.283, 1.559e-7
-1.282, -2.927e-6
-1.281, 1.559e-7
-1.280, -2.927e-6
-1.279, -2.927e-6
-1.278, -2.927e-6
-1.277, -2.927e-6
-1.276, -2.927e-6
-1.275, -2.927e-6
-1.274, -2.927e-6
-1.273, 1.559e-7
-1.272, -2.927e-6
-1.271, -2.927e-6
-1.270, 1.559e-7
-1.269, -2.927e-6
-1.268, -2.927e-6
-1.267, -2.927e-6
-1.266, -2.927e-6
-1.265, -2.927e-6
-1.264, -2.927e-6
-1.263, -2.927e-6
-1.262, -2.927e-6
-1.261, -2.927e-6
-1.260, -2.927e-6
-1.259, -2.927e-6
-1.258, -2.927e-6
-1.257, -2.927e-6
-1.256, -2.927e-6
-1.255, 1.559e-7
-1.254, -2.927e-6
-1.253, -2.927e-6
-1.252, -2.927e-6
-1.251, -2.927e-6
-1.250, -2.927e-6
-1.249, -2.927e-6
-1.248, -2.927e-6
-1.247, -2.927e-6
-1.246, -2.927e-6
-1.245, -2.927e-6
-1.244, -2.927e-6
-1.243, 1.559e-7
-1.242, -2.927e-6
-1.241, -2.927e-6
-1.240, -2.927e-6
-1.239, -2.927e-6
-1.238, -2.927e-6
-1.237, -2.927e-6
-1.236, -2.927e-6
-1.235, -2.927e-6
-1.234, -2.927e-6
-1.233, -2.927e-6
-1.232, -2.927e-6
-1.231, -2.927e-6
-1.230, -2.927e-6
-1.229, -2.927e-6
-1.228, 1.559e-7
-1.227, -2.927e-6
-1.226, 1.559e-7
-1.225, -2.927e-6
-1.224, 1.559e-7
-1.223, -2.927e-6
-1.222, -2.927e-6
-1.221, -2.927e-6
-1.220, -2.927e-6
-1.219, -2.927e-6
-1.218, 1.559e-7
-1.217, -2.927e-6
-1.216, -2.927e-6
-1.215, -2.927e-6
-1.214, -2.927e-6
-1.213, -2.927e-6
-1.212, -2.927e-6
-1.211, -2.927e-6
-1.210, -2.927e-6
-1.209, -2.927e-6
-1.208, -2.927e-6
-1.207, -2.927e-6
-1.206, -2.927e-6
-1.205, -2.927e-6
-1.204, -2.927e-6
-1.203, -2.927e-6
-1.202, -2.927e-6
-1.201, -2.927e-6
-1.200, -2.927e-6
-1.199, -2.927e-6
-1.198, -2.927e-6
-1.197, -2.927e-6
-1.196, -2.927e-6
-1.195, -2.927e-6
-1.194, -2.927e-6
-1.193, -2.927e-6
-1.192, -2.927e-6
-1.191, -2.927e-6
-1.190, -2.927e-6
-1.189, -2.927e-6
-1.188, -2.927e-6
-1.187, -2.927e-6
-1.186, -2.927e-6
-1.185, -2.927e-6
-1.184, -2.927e-6
-1.183, -2.927e-6
-1.182, -2.927e-6
-1.181, -2.927e-6
-1.180, -2.927e-6
-1.179, -2.927e-6
-1.178, -2.927e-6
-1.177, -2.927e-6
-1.176, -2.927e-6
-1.175, -2.927e-6
-1.174, -2.927e-6
-1.173, 1.559e-7
-1.172, -2.927e-6
-1.171, -2.927e-6
-1.170, -2.927e-6
-1.169, -2.927e-6
-1.168, -2.927e-6
-1.167, -2.927e-6
-1.166, -2.927e-6
-1.165, -2.927e-6
-1.164, -2.927e-6
-1.163, -2.927e-6
-1.162, -2.927e-6
-1.161, -2.927e-6
-1.160, -2.927e-6
-1.159, -2.927e-6
-1.158, -2.927e-6
-1.157, -2.927e-6
-1.156, -2.927e-6
-1.155, -2.927e-6
-1.154, -2.927e-6
-1.153, -2.927e-6
-1.152, -2.927e-6
-1.151, -2.927e-6
-1.150, -2.927e-6
-1.149, -2.927e-6
-1.148, -2.927e-6
-1.147, -2.927e-6
-1.146, -2.927e-6
-1.145, -2.927e-6
-1.144, -2.927e-6
-1.143, -2.927e-6
-1.142, -2.927e-6
-1.141, -2.927e-6
-1.140, -2.927e-6
-1.139, -2.927e-6
-1.138, -2.927e-6
-1.137, -2.927e-6
-1.136, -2.927e-6
-1.135, -2.927e-6
-1.134, -2.927e-6
-1.133, -2.927e-6
-1.132, -2.927e-6
-1.131, -2.927e-6
-1.130, -2.927e-6
-1.129, -2.927e-6
-1.128, -2.927e-6
-1.127, -2.927e-6
-1.126, -2.927e-6
-1.125, -2.927e-6
-1.124, -2.927e-6
-1.123, -2.927e-6
-1.122, -2.927e-6
-1.121, -2.927e-6
-1.120, -2.927e-6
-1.119, -2.927e-6
-1.118, -2.927e-6
-1.117, -2.927e-6
-1.116, -2.927e-6
-1.115, -2.927e-6
-1.114, -2.927e-6
-1.113, -2.927e-6
-1.112, -2.927e-6
-1.111, -2.927e-6
-1.110, -2.927e-6
-1.109, -2.927e-6
-1.108, -2.927e-6
-1.107, -2.927e-6
-1.106, -2.927e-6
-1.105, -2.927e-6
-1.104, -2.927e-6
-1.103, -2.927e-6
-1.102, -2.927e-6
-1.101, -2.927e-6
-1.100, -2.927e-6
-1.099, -2.927e-6
-1.098, -2.927e-6
-1.097, -2.927e-6
-1.096, -2.927e-6
-1.095, -2.927e-6
-1.094, -2.927e-6
-1.093, -2.927e-6
-1.092, -2.927e-6
-1.091, -2.927e-6
-1.090, -2.927e-6
-1.089, -2.927e-6
-1.088, -2.927e-6
-1.087, -2.927e-6
-1.086, -2.927e-6
-1.085, -2.927e-6
-1.084, -2.927e-6
-1.083, -2.927e-6
-1.082, -2.927e-6
-1.081, -2.927e-6
-1.080, -2.927e-6
-1.079, -2.927e-6
-1.078, -2.927e-6
-1.077, -2.927e-6
-1.076, -2.927e-6
-1.075, -2.927e-6
-1.074, -2.927e-6
-1.073, -2.927e-6
-1.072, -2.927e-6
-1.071, -2.927e-6
-1.070, -2.927e-6
-1.069, -2.927e-6
-1.068, -2.927e-6
-1.067, -2.927e-6
-1.066, -2.927e-6
-1.065, -2.927e-6
-1.064, -2.927e-6
-1.063, -2.927e-6
-1.062, -2.927e-6
-1.061, -2.927e-6
-1.060, -2.927e-6
-1.059, -2.927e-6
-1.058, -2.927e-6
-1.057, -2.927e-6
-1.056, -2.927e-6
-1.055, -2.927e-6
-1.054, -2.927e-6
-1.053, -2.927e-6
-1.052, -2.927e-6
-1.051, -2.927e-6
-1.050, -2.927e-6
-1.049, -2.927e-6
-1.048, -2.927e-6
-1.047, -2.927e-6
-1.046, -2.927e-6
-1.045, -2.927e-6
-1.044, -2.927e-6
-1.043, 1.559e-7
-1.042, -2.927e-6
-1.041, -2.927e-6
-1.040, -2.927e-6
-1.039, -2.927e-6
-1.038, -2.927e-6
-1.037, -2.927e-6
-1.036, -2.927e-6
-1.035, -2.927e-6
-1.034, -2.927e-6
-1.033, -2.927e-6
-1.032, -2.927e-6
-1.031, -2.927e-6
-1.030, -2.927e-6
-1.029, -2.927e-6
-1.028, -2.927e-6
-1.027, -2.927e-6
-1.026, -2.927e-6
-1.025, -2.927e-6
-1.024, -2.927e-6
-1.023, -2.927e-6
-1.022, -2.927e-6
-1.021, -2.927e-6
-1.020, -2.927e-6
-1.019, -2.927e-6
-1.018, -2.927e-6
-1.017, -2.927e-6
-1.016, -2.927e-6
-1.015, -2.927e-6
-1.014, -2.927e-6
-1.013, -2.927e-6
-1.012, -2.927e-6
-1.011, -2.927e-6
-1.010, -2.927e-6
-1.009, -2.927e-6
-1.008, -2.927e-6
-1.007, -2.927e-6
-1.006, -2.927e-6
-1.005, -2.927e-6
-1.004, -2.927e-6
-1.003, -2.927e-6
-1.002, -2.927e-6
-1.001, -2.927e-6
