Dec. 28, 2024   16:52:49
Cyclic Voltammetry
File: c:/users/guazh/data/banditlqround7_x0exp136_r20/2024-12-24-exp769\exp769-2024-12-28t16_41_13-arkoh\exp769_cv_sr_600mvs_efin_-1500mv.bin
Data Source:  Experiment
Instrument Model:  CHI760E
Header: CV ran at 600 mVs
Note: 

Init E (V) = -1
High E (V) = -1
Low E (V) = -1.5
Final E (V) = -1
Init P/N = N
Scan Rate (V/s) = 0.6
Segment = 3
Sample Interval (V) = 0.001
Quiet Time (sec) = 2
Sensitivity (A/V) = 0.01
Comp R (ohm) = 1.2

Results:

Channel 1:
Segment 1:

Segment 2:

Segment 3:

Potential/V, Current/A

-1.000, -3.684e-5
-1.001, 5.257e-5
-1.002, 1.296e-4
-1.003, 1.975e-4
-1.004, 2.499e-4
-1.005, 2.961e-4
-1.006, 3.362e-4
-1.007, 3.701e-4
-1.008, 4.040e-4
-1.009, 4.410e-4
-1.010, 4.780e-4
-1.011, 5.150e-4
-1.012, 5.551e-4
-1.013, 5.859e-4
-1.014, 6.168e-4
-1.015, 6.414e-4
-1.016, 6.599e-4
-1.017, 6.784e-4
-1.018, 7.000e-4
-1.019, 7.216e-4
-1.020, 7.524e-4
-1.021, 7.802e-4
-1.022, 8.110e-4
-1.023, 8.388e-4
-1.024, 8.634e-4
-1.025, 8.788e-4
-1.026, 8.943e-4
-1.027, 9.066e-4
-1.028, 9.220e-4
-1.029, 9.405e-4
-1.030, 9.621e-4
-1.031, 9.868e-4
-1.032, 1.014e-3
-1.033, 1.039e-3
-1.034, 1.058e-3
-1.035, 1.070e-3
-1.036, 1.085e-3
-1.037, 1.095e-3
-1.038, 1.110e-3
-1.039, 1.122e-3
-1.040, 1.144e-3
-1.041, 1.169e-3
-1.042, 1.196e-3
-1.043, 1.218e-3
-1.044, 1.236e-3
-1.045, 1.252e-3
-1.046, 1.261e-3
-1.047, 1.270e-3
-1.048, 1.286e-3
-1.049, 1.307e-3
-1.050, 1.332e-3
-1.051, 1.360e-3
-1.052, 1.388e-3
-1.053, 1.412e-3
-1.054, 1.437e-3
-1.055, 1.455e-3
-1.056, 1.471e-3
-1.057, 1.486e-3
-1.058, 1.502e-3
-1.059, 1.520e-3
-1.060, 1.542e-3
-1.061, 1.569e-3
-1.062, 1.597e-3
-1.063, 1.619e-3
-1.064, 1.637e-3
-1.065, 1.650e-3
-1.066, 1.659e-3
-1.067, 1.662e-3
-1.068, 1.677e-3
-1.069, 1.690e-3
-1.070, 1.708e-3
-1.071, 1.733e-3
-1.072, 1.758e-3
-1.073, 1.779e-3
-1.074, 1.798e-3
-1.075, 1.813e-3
-1.076, 1.828e-3
-1.077, 1.838e-3
-1.078, 1.853e-3
-1.079, 1.872e-3
-1.080, 1.890e-3
-1.081, 1.912e-3
-1.082, 1.939e-3
-1.083, 1.958e-3
-1.084, 1.976e-3
-1.085, 1.989e-3
-1.086, 1.998e-3
-1.087, 2.001e-3
-1.088, 2.010e-3
-1.089, 2.023e-3
-1.090, 2.041e-3
-1.091, 2.060e-3
-1.092, 2.081e-3
-1.093, 2.097e-3
-1.094, 2.106e-3
-1.095, 2.112e-3
-1.096, 2.115e-3
-1.097, 2.112e-3
-1.098, 2.118e-3
-1.099, 2.128e-3
-1.100, 2.140e-3
-1.101, 2.155e-3
-1.102, 2.171e-3
-1.103, 2.180e-3
-1.104, 2.189e-3
-1.105, 2.192e-3
-1.106, 2.189e-3
-1.107, 2.189e-3
-1.108, 2.189e-3
-1.109, 2.195e-3
-1.110, 2.205e-3
-1.111, 2.217e-3
-1.112, 2.232e-3
-1.113, 2.238e-3
-1.114, 2.242e-3
-1.115, 2.232e-3
-1.116, 2.220e-3
-1.117, 2.205e-3
-1.118, 2.201e-3
-1.119, 2.201e-3
-1.120, 2.205e-3
-1.121, 2.211e-3
-1.122, 2.220e-3
-1.123, 2.220e-3
-1.124, 2.214e-3
-1.125, 2.205e-3
-1.126, 2.192e-3
-1.127, 2.177e-3
-1.128, 2.164e-3
-1.129, 2.158e-3
-1.130, 2.152e-3
-1.131, 2.149e-3
-1.132, 2.146e-3
-1.133, 2.140e-3
-1.134, 2.134e-3
-1.135, 2.121e-3
-1.136, 2.109e-3
-1.137, 2.094e-3
-1.138, 2.075e-3
-1.139, 2.060e-3
-1.140, 2.050e-3
-1.141, 2.044e-3
-1.142, 2.041e-3
-1.143, 2.029e-3
-1.144, 2.010e-3
-1.145, 1.983e-3
-1.146, 1.955e-3
-1.147, 1.921e-3
-1.148, 1.896e-3
-1.149, 1.872e-3
-1.150, 1.853e-3
-1.151, 1.838e-3
-1.152, 1.828e-3
-1.153, 1.813e-3
-1.154, 1.795e-3
-1.155, 1.773e-3
-1.156, 1.748e-3
-1.157, 1.721e-3
-1.158, 1.699e-3
-1.159, 1.677e-3
-1.160, 1.662e-3
-1.161, 1.650e-3
-1.162, 1.637e-3
-1.163, 1.619e-3
-1.164, 1.597e-3
-1.165, 1.569e-3
-1.166, 1.542e-3
-1.167, 1.511e-3
-1.168, 1.483e-3
-1.169, 1.458e-3
-1.170, 1.440e-3
-1.171, 1.421e-3
-1.172, 1.409e-3
-1.173, 1.388e-3
-1.174, 1.366e-3
-1.175, 1.341e-3
-1.176, 1.314e-3
-1.177, 1.286e-3
-1.178, 1.264e-3
-1.179, 1.246e-3
-1.180, 1.233e-3
-1.181, 1.218e-3
-1.182, 1.212e-3
-1.183, 1.196e-3
-1.184, 1.178e-3
-1.185, 1.159e-3
-1.186, 1.135e-3
-1.187, 1.107e-3
-1.188, 1.085e-3
-1.189, 1.067e-3
-1.190, 1.055e-3
-1.191, 1.042e-3
-1.192, 1.036e-3
-1.193, 1.021e-3
-1.194, 1.005e-3
-1.195, 9.868e-4
-1.196, 9.652e-4
-1.197, 9.405e-4
-1.198, 9.251e-4
-1.199, 9.128e-4
-1.200, 9.035e-4
-1.201, 8.973e-4
-1.202, 8.912e-4
-1.203, 8.850e-4
-1.204, 8.758e-4
-1.205, 8.603e-4
-1.206, 8.480e-4
-1.207, 8.295e-4
-1.208, 8.172e-4
-1.209, 8.079e-4
-1.210, 8.018e-4
-1.211, 7.987e-4
-1.212, 7.956e-4
-1.213, 7.894e-4
-1.214, 7.802e-4
-1.215, 7.679e-4
-1.216, 7.555e-4
-1.217, 7.401e-4
-1.218, 7.309e-4
-1.219, 7.216e-4
-1.220, 7.216e-4
-1.221, 7.216e-4
-1.222, 7.247e-4
-1.223, 7.216e-4
-1.224, 7.124e-4
-1.225, 7.031e-4
-1.226, 6.908e-4
-1.227, 6.754e-4
-1.228, 6.692e-4
-1.229, 6.661e-4
-1.230, 6.661e-4
-1.231, 6.661e-4
-1.232, 6.692e-4
-1.233, 6.692e-4
-1.234, 6.630e-4
-1.235, 6.538e-4
-1.236, 6.445e-4
-1.237, 6.291e-4
-1.238, 6.260e-4
-1.239, 6.229e-4
-1.240, 6.229e-4
-1.241, 6.260e-4
-1.242, 6.291e-4
-1.243, 6.291e-4
-1.244, 6.260e-4
-1.245, 6.168e-4
-1.246, 6.075e-4
-1.247, 5.983e-4
-1.248, 5.921e-4
-1.249, 5.921e-4
-1.250, 5.921e-4
-1.251, 5.952e-4
-1.252, 5.983e-4
-1.253, 5.952e-4
-1.254, 5.890e-4
-1.255, 5.798e-4
-1.256, 5.705e-4
-1.257, 5.613e-4
-1.258, 5.551e-4
-1.259, 5.551e-4
-1.260, 5.582e-4
-1.261, 5.644e-4
-1.262, 5.736e-4
-1.263, 5.736e-4
-1.264, 5.736e-4
-1.265, 5.674e-4
-1.266, 5.582e-4
-1.267, 5.459e-4
-1.268, 5.428e-4
-1.269, 5.397e-4
-1.270, 5.397e-4
-1.271, 5.428e-4
-1.272, 5.459e-4
-1.273, 5.459e-4
-1.274, 5.428e-4
-1.275, 5.366e-4
-1.276, 5.305e-4
-1.277, 5.243e-4
-1.278, 5.212e-4
-1.279, 5.212e-4
-1.280, 5.274e-4
-1.281, 5.335e-4
-1.282, 5.397e-4
-1.283, 5.397e-4
-1.284, 5.397e-4
-1.285, 5.305e-4
-1.286, 5.243e-4
-1.287, 5.120e-4
-1.288, 5.089e-4
-1.289, 5.089e-4
-1.290, 5.120e-4
-1.291, 5.181e-4
-1.292, 5.243e-4
-1.293, 5.274e-4
-1.294, 5.243e-4
-1.295, 5.212e-4
-1.296, 5.120e-4
-1.297, 5.058e-4
-1.298, 5.027e-4
-1.299, 5.027e-4
-1.300, 5.089e-4
-1.301, 5.120e-4
-1.302, 5.181e-4
-1.303, 5.212e-4
-1.304, 5.181e-4
-1.305, 5.150e-4
-1.306, 5.089e-4
-1.307, 4.996e-4
-1.308, 4.965e-4
-1.309, 4.965e-4
-1.310, 5.027e-4
-1.311, 5.089e-4
-1.312, 5.181e-4
-1.313, 5.212e-4
-1.314, 5.181e-4
-1.315, 5.120e-4
-1.316, 5.089e-4
-1.317, 4.996e-4
-1.318, 4.996e-4
-1.319, 4.996e-4
-1.320, 5.027e-4
-1.321, 5.120e-4
-1.322, 5.181e-4
-1.323, 5.181e-4
-1.324, 5.212e-4
-1.325, 5.150e-4
-1.326, 5.120e-4
-1.327, 5.027e-4
-1.328, 5.027e-4
-1.329, 5.027e-4
-1.330, 5.089e-4
-1.331, 5.150e-4
-1.332, 5.274e-4
-1.333, 5.274e-4
-1.334, 5.274e-4
-1.335, 5.243e-4
-1.336, 5.212e-4
-1.337, 5.150e-4
-1.338, 5.120e-4
-1.339, 5.150e-4
-1.340, 5.212e-4
-1.341, 5.274e-4
-1.342, 5.366e-4
-1.343, 5.366e-4
-1.344, 5.397e-4
-1.345, 5.366e-4
-1.346, 5.305e-4
-1.347, 5.274e-4
-1.348, 5.243e-4
-1.349, 5.274e-4
-1.350, 5.335e-4
-1.351, 5.428e-4
-1.352, 5.489e-4
-1.353, 5.551e-4
-1.354, 5.551e-4
-1.355, 5.551e-4
-1.356, 5.520e-4
-1.357, 5.428e-4
-1.358, 5.428e-4
-1.359, 5.459e-4
-1.360, 5.551e-4
-1.361, 5.644e-4
-1.362, 5.736e-4
-1.363, 5.767e-4
-1.364, 5.798e-4
-1.365, 5.767e-4
-1.366, 5.767e-4
-1.367, 5.705e-4
-1.368, 5.705e-4
-1.369, 5.767e-4
-1.370, 5.859e-4
-1.371, 5.952e-4
-1.372, 6.044e-4
-1.373, 6.106e-4
-1.374, 6.137e-4
-1.375, 6.106e-4
-1.376, 6.106e-4
-1.377, 6.044e-4
-1.378, 6.075e-4
-1.379, 6.106e-4
-1.380, 6.199e-4
-1.381, 6.291e-4
-1.382, 6.414e-4
-1.383, 6.507e-4
-1.384, 6.538e-4
-1.385, 6.538e-4
-1.386, 6.569e-4
-1.387, 6.538e-4
-1.388, 6.599e-4
-1.389, 6.661e-4
-1.390, 6.784e-4
-1.391, 6.908e-4
-1.392, 7.062e-4
-1.393, 7.154e-4
-1.394, 7.216e-4
-1.395, 7.216e-4
-1.396, 7.216e-4
-1.397, 7.185e-4
-1.398, 7.247e-4
-1.399, 7.309e-4
-1.400, 7.432e-4
-1.401, 7.586e-4
-1.402, 7.740e-4
-1.403, 7.833e-4
-1.404, 7.925e-4
-1.405, 7.956e-4
-1.406, 8.018e-4
-1.407, 8.048e-4
-1.408, 8.141e-4
-1.409, 8.264e-4
-1.410, 8.418e-4
-1.411, 8.603e-4
-1.412, 8.819e-4
-1.413, 8.943e-4
-1.414, 9.097e-4
-1.415, 9.189e-4
-1.416, 9.282e-4
-1.417, 9.343e-4
-1.418, 9.498e-4
-1.419, 9.652e-4
-1.420, 9.868e-4
-1.421, 1.005e-3
-1.422, 1.030e-3
-1.423, 1.051e-3
-1.424, 1.067e-3
-1.425, 1.079e-3
-1.426, 1.092e-3
-1.427, 1.101e-3
-1.428, 1.116e-3
-1.429, 1.135e-3
-1.430, 1.159e-3
-1.431, 1.184e-3
-1.432, 1.209e-3
-1.433, 1.233e-3
-1.434, 1.258e-3
-1.435, 1.277e-3
-1.436, 1.295e-3
-1.437, 1.314e-3
-1.438, 1.338e-3
-1.439, 1.363e-3
-1.440, 1.397e-3
-1.441, 1.428e-3
-1.442, 1.465e-3
-1.443, 1.495e-3
-1.444, 1.529e-3
-1.445, 1.557e-3
-1.446, 1.588e-3
-1.447, 1.616e-3
-1.448, 1.647e-3
-1.449, 1.680e-3
-1.450, 1.717e-3
-1.451, 1.761e-3
-1.452, 1.801e-3
-1.453, 1.841e-3
-1.454, 1.881e-3
-1.455, 1.915e-3
-1.456, 1.952e-3
-1.457, 1.986e-3
-1.458, 2.026e-3
-1.459, 2.075e-3
-1.460, 2.128e-3
-1.461, 2.183e-3
-1.462, 2.242e-3
-1.463, 2.294e-3
-1.464, 2.349e-3
-1.465, 2.399e-3
-1.466, 2.448e-3
-1.467, 2.497e-3
-1.468, 2.553e-3
-1.469, 2.608e-3
-1.470, 2.673e-3
-1.471, 2.738e-3
-1.472, 2.806e-3
-1.473, 2.874e-3
-1.474, 2.938e-3
-1.475, 3.003e-3
-1.476, 3.068e-3
-1.477, 3.133e-3
-1.478, 3.207e-3
-1.479, 3.281e-3
-1.480, 3.361e-3
-1.481, 3.441e-3
-1.482, 3.527e-3
-1.483, 3.607e-3
-1.484, 3.688e-3
-1.485, 3.765e-3
-1.486, 3.839e-3
-1.487, 3.913e-3
-1.488, 3.999e-3
-1.489, 4.088e-3
-1.490, 4.181e-3
-1.491, 4.273e-3
-1.492, 4.372e-3
-1.493, 4.468e-3
-1.494, 4.563e-3
-1.495, 4.659e-3
-1.496, 4.751e-3
-1.497, 4.841e-3
-1.498, 4.939e-3
-1.499, 5.038e-3
-1.500, 5.075e-3
-1.499, 5.019e-3
-1.498, 4.989e-3
-1.497, 4.958e-3
-1.496, 4.927e-3
-1.495, 4.893e-3
-1.494, 4.856e-3
-1.493, 4.813e-3
-1.492, 4.776e-3
-1.491, 4.742e-3
-1.490, 4.711e-3
-1.489, 4.683e-3
-1.488, 4.659e-3
-1.487, 4.628e-3
-1.486, 4.597e-3
-1.485, 4.557e-3
-1.484, 4.517e-3
-1.483, 4.474e-3
-1.482, 4.434e-3
-1.481, 4.397e-3
-1.480, 4.360e-3
-1.479, 4.326e-3
-1.478, 4.292e-3
-1.477, 4.258e-3
-1.476, 4.221e-3
-1.475, 4.178e-3
-1.474, 4.138e-3
-1.473, 4.085e-3
-1.472, 4.042e-3
-1.471, 4.002e-3
-1.470, 3.968e-3
-1.469, 3.931e-3
-1.468, 3.897e-3
-1.467, 3.860e-3
-1.466, 3.817e-3
-1.465, 3.768e-3
-1.464, 3.721e-3
-1.463, 3.669e-3
-1.462, 3.626e-3
-1.461, 3.586e-3
-1.460, 3.549e-3
-1.459, 3.512e-3
-1.458, 3.478e-3
-1.457, 3.438e-3
-1.456, 3.398e-3
-1.455, 3.355e-3
-1.454, 3.308e-3
-1.453, 3.259e-3
-1.452, 3.216e-3
-1.451, 3.173e-3
-1.450, 3.136e-3
-1.449, 3.102e-3
-1.448, 3.074e-3
-1.447, 3.034e-3
-1.446, 2.994e-3
-1.445, 2.948e-3
-1.444, 2.901e-3
-1.443, 2.849e-3
-1.442, 2.806e-3
-1.441, 2.766e-3
-1.440, 2.729e-3
-1.439, 2.689e-3
-1.438, 2.658e-3
-1.437, 2.618e-3
-1.436, 2.578e-3
-1.435, 2.534e-3
-1.434, 2.488e-3
-1.433, 2.442e-3
-1.432, 2.399e-3
-1.431, 2.362e-3
-1.430, 2.328e-3
-1.429, 2.297e-3
-1.428, 2.263e-3
-1.427, 2.229e-3
-1.426, 2.192e-3
-1.425, 2.152e-3
-1.424, 2.112e-3
-1.423, 2.066e-3
-1.422, 2.029e-3
-1.421, 1.989e-3
-1.420, 1.958e-3
-1.419, 1.924e-3
-1.418, 1.893e-3
-1.417, 1.859e-3
-1.416, 1.822e-3
-1.415, 1.779e-3
-1.414, 1.739e-3
-1.413, 1.696e-3
-1.412, 1.659e-3
-1.411, 1.628e-3
-1.410, 1.597e-3
-1.409, 1.569e-3
-1.408, 1.545e-3
-1.407, 1.514e-3
-1.406, 1.480e-3
-1.405, 1.443e-3
-1.404, 1.406e-3
-1.403, 1.366e-3
-1.402, 1.332e-3
-1.401, 1.301e-3
-1.400, 1.277e-3
-1.399, 1.252e-3
-1.398, 1.227e-3
-1.397, 1.203e-3
-1.396, 1.172e-3
-1.395, 1.138e-3
-1.394, 1.104e-3
-1.393, 1.067e-3
-1.392, 1.039e-3
-1.391, 1.008e-3
-1.390, 9.868e-4
-1.389, 9.652e-4
-1.388, 9.436e-4
-1.387, 9.220e-4
-1.386, 8.943e-4
-1.385, 8.634e-4
-1.384, 8.326e-4
-1.383, 7.987e-4
-1.382, 7.679e-4
-1.381, 7.463e-4
-1.380, 7.247e-4
-1.379, 7.062e-4
-1.378, 6.908e-4
-1.377, 6.692e-4
-1.376, 6.476e-4
-1.375, 6.199e-4
-1.374, 5.952e-4
-1.373, 5.644e-4
-1.372, 5.428e-4
-1.371, 5.212e-4
-1.370, 5.089e-4
-1.369, 4.935e-4
-1.368, 4.811e-4
-1.367, 4.626e-4
-1.366, 4.410e-4
-1.365, 4.164e-4
-1.364, 3.917e-4
-1.363, 3.670e-4
-1.362, 3.455e-4
-1.361, 3.270e-4
-1.360, 3.146e-4
-1.359, 3.023e-4
-1.358, 2.931e-4
-1.357, 2.807e-4
-1.356, 2.622e-4
-1.355, 2.406e-4
-1.354, 2.221e-4
-1.353, 1.975e-4
-1.352, 1.821e-4
-1.351, 1.666e-4
-1.350, 1.574e-4
-1.349, 1.512e-4
-1.348, 1.451e-4
-1.347, 1.327e-4
-1.346, 1.204e-4
-1.345, 1.019e-4
-1.344, 8.340e-5
-1.343, 6.182e-5
-1.342, 4.640e-5
-1.341, 3.715e-5
-1.340, 3.099e-5
-1.339, 2.482e-5
-1.338, 2.174e-5
-1.337, 1.249e-5
-1.336, 1.559e-7
-1.335, -1.526e-5
-1.334, -3.068e-5
-1.333, -4.917e-5
-1.332, -6.151e-5
-1.331, -7.076e-5
-1.330, -7.384e-5
-1.329, -7.692e-5
-1.328, -8.000e-5
-1.327, -8.617e-5
-1.326, -9.234e-5
-1.325, -1.078e-4
-1.324, -1.201e-4
-1.323, -1.355e-4
-1.322, -1.478e-4
-1.321, -1.540e-4
-1.320, -1.540e-4
-1.319, -1.571e-4
-1.318, -1.571e-4
-1.317, -1.602e-4
-1.316, -1.694e-4
-1.315, -1.817e-4
-1.314, -1.910e-4
-1.313, -2.064e-4
-1.312, -2.157e-4
-1.311, -2.187e-4
-1.310, -2.187e-4
-1.309, -2.187e-4
-1.308, -2.157e-4
-1.307, -2.187e-4
-1.306, -2.249e-4
-1.305, -2.342e-4
-1.304, -2.434e-4
-1.303, -2.557e-4
-1.302, -2.619e-4
-1.301, -2.650e-4
-1.300, -2.681e-4
-1.299, -2.681e-4
-1.298, -2.650e-4
-1.297, -2.681e-4
-1.296, -2.712e-4
-1.295, -2.835e-4
-1.294, -2.897e-4
-1.293, -3.020e-4
-1.292, -3.082e-4
-1.291, -3.082e-4
-1.290, -3.051e-4
-1.289, -3.051e-4
-1.288, -2.989e-4
-1.287, -2.989e-4
-1.286, -3.020e-4
-1.285, -3.112e-4
-1.284, -3.174e-4
-1.283, -3.297e-4
-1.282, -3.359e-4
-1.281, -3.359e-4
-1.280, -3.359e-4
-1.279, -3.328e-4
-1.278, -3.297e-4
-1.277, -3.297e-4
-1.276, -3.328e-4
-1.275, -3.390e-4
-1.274, -3.452e-4
-1.273, -3.575e-4
-1.272, -3.606e-4
-1.271, -3.606e-4
-1.270, -3.575e-4
-1.269, -3.513e-4
-1.268, -3.482e-4
-1.267, -3.452e-4
-1.266, -3.482e-4
-1.265, -3.544e-4
-1.264, -3.637e-4
-1.263, -3.729e-4
-1.262, -3.760e-4
-1.261, -3.760e-4
-1.260, -3.729e-4
-1.259, -3.667e-4
-1.258, -3.606e-4
-1.257, -3.637e-4
-1.256, -3.637e-4
-1.255, -3.698e-4
-1.254, -3.760e-4
-1.253, -3.852e-4
-1.252, -3.883e-4
-1.251, -3.883e-4
-1.250, -3.852e-4
-1.249, -3.821e-4
-1.248, -3.760e-4
-1.247, -3.760e-4
-1.246, -3.760e-4
-1.245, -3.821e-4
-1.244, -3.883e-4
-1.243, -3.976e-4
-1.242, -4.006e-4
-1.241, -4.006e-4
-1.240, -3.976e-4
-1.239, -3.914e-4
-1.238, -3.852e-4
-1.237, -3.821e-4
-1.236, -3.852e-4
-1.235, -3.914e-4
-1.234, -3.976e-4
-1.233, -4.037e-4
-1.232, -4.068e-4
-1.231, -4.068e-4
-1.230, -4.037e-4
-1.229, -4.006e-4
-1.228, -3.945e-4
-1.227, -3.914e-4
-1.226, -3.945e-4
-1.225, -4.006e-4
-1.224, -4.068e-4
-1.223, -4.130e-4
-1.222, -4.161e-4
-1.221, -4.161e-4
-1.220, -4.099e-4
-1.219, -4.037e-4
-1.218, -4.006e-4
-1.217, -3.976e-4
-1.216, -4.006e-4
-1.215, -4.068e-4
-1.214, -4.130e-4
-1.213, -4.222e-4
-1.212, -4.253e-4
-1.211, -4.253e-4
-1.210, -4.191e-4
-1.209, -4.161e-4
-1.208, -4.099e-4
-1.207, -4.068e-4
-1.206, -4.099e-4
-1.205, -4.130e-4
-1.204, -4.191e-4
-1.203, -4.284e-4
-1.202, -4.315e-4
-1.201, -4.315e-4
-1.200, -4.253e-4
-1.199, -4.191e-4
-1.198, -4.161e-4
-1.197, -4.130e-4
-1.196, -4.161e-4
-1.195, -4.222e-4
-1.194, -4.284e-4
-1.193, -4.376e-4
-1.192, -4.407e-4
-1.191, -4.407e-4
-1.190, -4.346e-4
-1.189, -4.315e-4
-1.188, -4.253e-4
-1.187, -4.222e-4
-1.186, -4.253e-4
-1.185, -4.315e-4
-1.184, -4.376e-4
-1.183, -4.469e-4
-1.182, -4.500e-4
-1.181, -4.469e-4
-1.180, -4.438e-4
-1.179, -4.407e-4
-1.178, -4.346e-4
-1.177, -4.346e-4
-1.176, -4.346e-4
-1.175, -4.407e-4
-1.174, -4.500e-4
-1.173, -4.561e-4
-1.172, -4.623e-4
-1.171, -4.623e-4
-1.170, -4.561e-4
-1.169, -4.531e-4
-1.168, -4.469e-4
-1.167, -4.438e-4
-1.166, -4.469e-4
-1.165, -4.561e-4
-1.164, -4.623e-4
-1.163, -4.716e-4
-1.162, -4.746e-4
-1.161, -4.746e-4
-1.160, -4.716e-4
-1.159, -4.685e-4
-1.158, -4.623e-4
-1.157, -4.592e-4
-1.156, -4.623e-4
-1.155, -4.685e-4
-1.154, -4.746e-4
-1.153, -4.839e-4
-1.152, -4.870e-4
-1.151, -4.870e-4
-1.150, -4.839e-4
-1.149, -4.808e-4
-1.148, -4.777e-4
-1.147, -4.746e-4
-1.146, -4.808e-4
-1.145, -4.870e-4
-1.144, -4.931e-4
-1.143, -5.024e-4
-1.142, -5.086e-4
-1.141, -5.086e-4
-1.140, -5.086e-4
-1.139, -5.055e-4
-1.138, -4.993e-4
-1.137, -4.993e-4
-1.136, -5.024e-4
-1.135, -5.086e-4
-1.134, -5.178e-4
-1.133, -5.271e-4
-1.132, -5.332e-4
-1.131, -5.363e-4
-1.130, -5.332e-4
-1.129, -5.301e-4
-1.128, -5.240e-4
-1.127, -5.240e-4
-1.126, -5.271e-4
-1.125, -5.363e-4
-1.124, -5.456e-4
-1.123, -5.548e-4
-1.122, -5.610e-4
-1.121, -5.610e-4
-1.120, -5.610e-4
-1.119, -5.579e-4
-1.118, -5.548e-4
-1.117, -5.548e-4
-1.116, -5.610e-4
-1.115, -5.702e-4
-1.114, -5.795e-4
-1.113, -5.918e-4
-1.112, -5.980e-4
-1.111, -6.011e-4
-1.110, -6.011e-4
-1.109, -5.949e-4
-1.108, -5.918e-4
-1.107, -5.949e-4
-1.106, -5.980e-4
-1.105, -6.072e-4
-1.104, -6.165e-4
-1.103, -6.288e-4
-1.102, -6.350e-4
-1.101, -6.380e-4
-1.100, -6.380e-4
-1.099, -6.380e-4
-1.098, -6.319e-4
-1.097, -6.350e-4
-1.096, -6.411e-4
-1.095, -6.535e-4
-1.094, -6.658e-4
-1.093, -6.781e-4
-1.092, -6.874e-4
-1.091, -6.905e-4
-1.090, -6.935e-4
-1.089, -6.935e-4
-1.088, -6.905e-4
-1.087, -6.935e-4
-1.086, -6.997e-4
-1.085, -7.120e-4
-1.084, -7.244e-4
-1.083, -7.367e-4
-1.082, -7.460e-4
-1.081, -7.521e-4
-1.080, -7.521e-4
-1.079, -7.521e-4
-1.078, -7.490e-4
-1.077, -7.521e-4
-1.076, -7.614e-4
-1.075, -7.737e-4
-1.074, -7.860e-4
-1.073, -8.015e-4
-1.072, -8.107e-4
-1.071, -8.200e-4
-1.070, -8.230e-4
-1.069, -8.230e-4
-1.068, -8.261e-4
-1.067, -8.292e-4
-1.066, -8.385e-4
-1.065, -8.508e-4
-1.064, -8.631e-4
-1.063, -8.785e-4
-1.062, -8.939e-4
-1.061, -9.001e-4
-1.060, -9.032e-4
-1.059, -9.063e-4
-1.058, -9.094e-4
-1.057, -9.124e-4
-1.056, -9.217e-4
-1.055, -9.371e-4
-1.054, -9.494e-4
-1.053, -9.679e-4
-1.052, -9.803e-4
-1.051, -9.895e-4
-1.050, -9.957e-4
-1.049, -9.988e-4
-1.048, -1.002e-3
-1.047, -1.008e-3
-1.046, -1.017e-3
-1.045, -1.033e-3
-1.044, -1.051e-3
-1.043, -1.073e-3
-1.042, -1.085e-3
-1.041, -1.097e-3
-1.040, -1.104e-3
-1.039, -1.110e-3
-1.038, -1.110e-3
-1.037, -1.119e-3
-1.036, -1.131e-3
-1.035, -1.147e-3
-1.034, -1.165e-3
-1.033, -1.190e-3
-1.032, -1.205e-3
-1.031, -1.221e-3
-1.030, -1.230e-3
-1.029, -1.239e-3
-1.028, -1.245e-3
-1.027, -1.255e-3
-1.026, -1.270e-3
-1.025, -1.286e-3
-1.024, -1.304e-3
-1.023, -1.326e-3
-1.022, -1.344e-3
-1.021, -1.353e-3
-1.020, -1.366e-3
-1.019, -1.372e-3
-1.018, -1.378e-3
-1.017, -1.393e-3
-1.016, -1.412e-3
-1.015, -1.433e-3
-1.014, -1.458e-3
-1.013, -1.486e-3
-1.012, -1.511e-3
-1.011, -1.529e-3
-1.010, -1.541e-3
-1.009, -1.557e-3
-1.008, -1.566e-3
-1.007, -1.581e-3
-1.006, -1.600e-3
-1.005, -1.622e-3
-1.004, -1.646e-3
-1.003, -1.671e-3
-1.002, -1.696e-3
-1.001, -1.720e-3
