Potential V vs RHE, Current mA cm-2
0.013299999999999867,0.618794722560967
0.012299999999999978,0.03338718667681487
0.011299999999999866,-0.2962405461917387
0.010299999999999976,-0.5354682269989164
0.009299999999999864,-0.7677638224367553
0.008299999999999974,-0.9886002563456876
0.007299999999999862,-1.1747762634079266
0.006299999999999972,-1.3088908946351319
0.00529999999999986,-1.411174521615374
0.0042999999999999705,-1.546279450752485
0.0032999999999998586,-1.6990682711379093
0.0022999999999999687,-1.8292217107254924
0.0012999999999998568,-1.9141043887173947
0.00029999999999996696,-1.972107552011861
-0.000700000000000145,-2.0753814769020087
-0.0017000000000000348,-2.1984613599902674
-0.0027000000000001467,-2.3003205735805494
-0.0037000000000000366,-2.3639825820744766
-0.0047000000000001485,-2.4134974775697526
-0.005700000000000038,-2.49979486686152
-0.00670000000000015,-2.6073129256512626
-0.00770000000000004,-2.69926916014249
-0.008700000000000152,-2.7516134782374966
-0.009700000000000042,-2.795469528533313
-0.010700000000000154,-2.877522783925485
-0.011700000000000044,-2.977967286215902
-0.012700000000000156,-3.0600205416080746
-0.013700000000000045,-3.1038765919038904
-0.014700000000000157,-3.1420737970002466
-0.015700000000000047,-3.202906382894443
-0.01670000000000016,-3.303350885184861
-0.01770000000000005,-3.379745295377573
-0.01870000000000016,-3.4236013456733887
-0.01970000000000005,-3.4462367264712297
-0.020700000000000163,-3.512728157564886
-0.021700000000000053,-3.5990255468566534
-0.022700000000000164,-3.674005245749501
-0.023700000000000054,-3.707958316946261
-0.024700000000000166,-3.7221054299449117
-0.025700000000000056,-3.7758644593397825
-0.026700000000000168,-3.852258869532495
-0.027700000000000058,-3.914506166726557
-0.02870000000000017,-3.9428003927238575
-0.02970000000000006,-3.9470445266234524
-0.03070000000000017,-3.9909005769192687
-0.03170000000000006,-4.057392008012925
-0.03270000000000017,-4.108321614808066
-0.03370000000000006,-4.121054016506851
-0.034700000000000175,-4.109736326107932
-0.035700000000000065,-4.140859974704963
-0.03670000000000018,-4.194619004099834
-0.03770000000000007,-4.239889765695515
-0.03870000000000018,-4.23564563179592
-0.03970000000000007,-4.211595539698214
-0.04070000000000018,-4.22715736399673
-0.04170000000000007,-4.27525754819214
-0.04270000000000018,-4.292234083790521
-0.04370000000000007,-4.279501682091736
-0.044700000000000184,-4.25545158999403
-0.045700000000000074,-4.251207456094435
-0.046700000000000186,-4.282331104691466
-0.047700000000000076,-4.292234083790521
-0.04870000000000019,-4.265354569093086
-0.04970000000000008,-4.222913230097134
-0.05070000000000019,-4.211595539698214
-0.05170000000000008,-4.234230920496055
-0.05270000000000019,-4.239889765695515
-0.05370000000000008,-4.193204292799969
-0.05470000000000019,-4.138030552105232
-0.05570000000000008,-4.111151037407797
-0.056700000000000195,-4.112565748707662
-0.057700000000000085,-4.111151037407797
-0.058700000000000196,-4.051733162813465
-0.059700000000000086,-3.9937299995189983
-0.0607000000000002,-3.9640210622218324
-0.06170000000000009,-3.956947505722508
-0.0627000000000002,-3.9470445266234524
-0.06370000000000009,-3.8805530955297955
-0.0647000000000002,-3.8055733966369485
-0.06570000000000009,-3.7631320576409975
-0.0667000000000002,-3.7560585011416725
-0.0677000000000001,-3.7291789864442366
-0.0687000000000002,-3.6655169779503103
-0.0697000000000001,-3.5820490112582726
-0.07070000000000021,-3.543851806161917
-0.0717000000000001,-3.5240458479638064
-0.07270000000000021,-3.4999957558661006
-0.0737000000000001,-3.430674902172714
-0.07470000000000021,-3.347206935480677
-0.0757000000000001,-3.2976920399854004
-0.07670000000000021,-3.28354492698675
-0.0777000000000001,-3.253835989689584
-0.07870000000000021,-3.1831004246963324
-0.0797000000000001,-3.0953883241047
-0.08070000000000022,-3.0529469851087487
-0.0817000000000001,-3.0359704495103688
-0.08270000000000022,-3.000602667013743
-0.08370000000000011,-2.9341112359200863
-0.08470000000000022,-2.8492285579281837
-0.08570000000000011,-2.798298951133043
-0.08670000000000022,-2.7869812607341222
-0.08770000000000011,-2.7516134782374966
-0.08870000000000022,-2.6808779132442444
-0.08970000000000011,-2.6016540804518025
-0.09070000000000022,-2.550724473656661
-0.09170000000000011,-2.5408214945576058
-0.09270000000000023,-2.5139419798601703
-0.09370000000000012,-2.4432064148669186
-0.09470000000000023,-2.3668120046742067
-0.09570000000000012,-2.321541243078525
-0.09670000000000023,-2.3172971091789303
-0.09770000000000012,-2.2932470170812245
-0.09870000000000023,-2.225340874687703
-0.09970000000000012,-2.150361175794856
-0.10070000000000023,-2.11782281589796
-0.10170000000000012,-2.1121639706984996
-0.10270000000000024,-2.0966021463999844
-0.10370000000000013,-2.038598983105518
-0.10470000000000024,-1.967863418112266
-0.10570000000000013,-1.9409839034148304
-0.10670000000000024,-1.933910346915505
-0.10770000000000013,-1.925422079116315
-0.10870000000000024,-1.8744924723211736
-0.10970000000000013,-1.8080010412275167
-0.11070000000000024,-1.7839509491298113
-0.11170000000000013,-1.7896097943292715
-0.11270000000000002,-1.778292103930351
-0.11370000000000013,-1.7358507649344
-0.11470000000000002,-1.6721887564404734
-0.11570000000000014,-1.658041643441823
-0.11670000000000003,-1.6665299112410132
-0.11770000000000014,-1.6651151999411482
-0.11870000000000003,-1.6184297270456018
-0.11970000000000014,-1.5618412750510005
-0.12070000000000003,-1.54203531685289
-0.12170000000000014,-1.5575971411514054
-0.12270000000000003,-1.5533530072518102
-0.12370000000000014,-1.5165705134553193
-0.12470000000000003,-1.462811484060448
-0.12570000000000014,-1.4500790823616625
-0.12670000000000003,-1.471299751859638
-0.12770000000000015,-1.4684703292599082
-0.12870000000000004,-1.427443701563822
-0.12970000000000015,-1.383587651268006
-0.13070000000000004,-1.3661867022796659
-0.13170000000000015,-1.3845779491779113
-0.13270000000000004,-1.3899538521173986
-0.13370000000000015,-1.3530298871909212
-0.13470000000000004,-1.3084664812451725
-0.13570000000000015,-1.2958755506763735
-0.13670000000000004,-1.3178035758242816
-0.13770000000000016,-1.3227550653738094
-0.13870000000000005,-1.2875287540071698
-0.13970000000000016,-1.2422579924114887
-0.14070000000000005,-1.2358917915620962
-0.14170000000000016,-1.256405105410139
-0.14270000000000005,-1.2653177865992886
-0.14370000000000016,-1.228535292802798
-0.14470000000000005,-1.1884989630166172
-0.14570000000000016,-1.1843963002470088
-0.14670000000000005,-1.2058999120049574
-0.14770000000000016,-1.2109928726844712
-0.14870000000000005,-1.1817083487772653
-0.14970000000000017,-1.1384181830013949
-0.15070000000000006,-1.1354472892716785
-0.15170000000000017,-1.158082670069519
-0.15270000000000006,-1.1672782935186419
-0.15370000000000017,-1.1402573076912195
-0.15470000000000006,-1.0956939017454708
-0.15570000000000017,-1.0954109594854977
-0.15670000000000006,-1.118753695933271
-0.15770000000000017,-1.1263931369525422
-0.15870000000000006,-1.1023430448548366
-0.15970000000000018,-1.0582040522990475
-0.16070000000000007,-1.055516100829304
-0.16170000000000018,-1.0850835669964831
-0.16270000000000007,-1.0904594699359704
-0.16370000000000018,-1.0696632138279543
-0.16470000000000007,-1.0338710179413688
-0.16570000000000018,-1.0236850965823405
-0.16670000000000007,-1.0531110916195334
-0.16770000000000018,-1.059477292468926
-0.16870000000000007,-1.036417498281126
-0.16970000000000018,-0.9986447065747294
-0.17070000000000007,-0.9927029191152963
-0.17170000000000019,-1.025241279012192
-0.17270000000000008,-1.0347198447212878
-0.1737000000000002,-1.0043035517741894
-0.17470000000000008,-0.9717651918772936
-0.1757000000000002,-0.9668137023277661
-0.17670000000000008,-0.9945420438051207
-0.1777000000000002,-1.011235637143528
-0.17870000000000008,-0.9812437575863894
-0.1797000000000002,-0.9475736286496015
-0.18070000000000008,-0.9475736286496015
-0.1817000000000002,-0.9753019701269563
-0.18270000000000008,-0.9883173140857145
-0.1837000000000002,-0.9571936654886839
-0.1847000000000001,-0.9228161809019634
-0.1857000000000002,-0.9266359014115991
-0.1867000000000001,-0.9513933491592371
-0.1877000000000002,-0.967662529107685
-0.1887000000000001,-0.9402171298903033
-0.1897000000000002,-0.9068299432134885
-0.1907000000000001,-0.9099423080731914
-0.1917000000000001,-0.9355485826007488
-0.19269999999999998,-0.9470077441296556
-0.1937000000000001,-0.9249382478517609
-0.19469999999999998,-0.8854678025855264
-0.1957000000000001,-0.8907022343950269
-0.19669999999999999,-0.9208355850821524
-0.1977000000000001,-0.9337094579109243
-0.1987,-0.9106496637231241
-0.1997000000000001,-0.8740086410566196
-0.2007,-0.8762721791364039
-0.2017000000000001,-0.9088105390332994
-0.2027,-0.9189964603923279
-0.2037000000000001,-0.8952293105545953
-0.2047,-0.8619835950077669
-0.2057000000000001,-0.8607103548378884
-0.2067,-0.8972099063744062
-0.2077000000000001,-0.9085275967733266
-0.2087,-0.8837701490256885
-0.2097000000000001,-0.8539197405985361
-0.2107,-0.8534953272085767
-0.2117000000000001,-0.8860336871054725
-0.2127,-0.8990490310642308
-0.2137000000000001,-0.8745745255765657
-0.2147,-0.8488267799190221
-0.2157000000000001,-0.8561832786783202
-0.2167,-0.8785357172161878
-0.21770000000000012,-0.8959366662045278
-0.2187,-0.8704718628069571
-0.21970000000000012,-0.8396311564698993
-0.2207,-0.846280299579265
-0.22170000000000012,-0.8730183431467142
-0.2227,-0.8897119364851216
-0.22370000000000012,-0.8680668535971865
-0.2247,-0.8373676183901153
-0.22570000000000012,-0.8414702811597239
-0.2267,-0.870188920546984
-0.22770000000000012,-0.888438696315243
-0.22870000000000001,-0.865661844387416
-0.22970000000000013,-0.8358114359602636
-0.23070000000000002,-0.8403385121198318
-0.23170000000000013,-0.8708962761969166
-0.23270000000000002,-0.8878728117952971
-0.23370000000000013,-0.869905978287011
-0.23470000000000002,-0.8356699648302772
-0.23570000000000013,-0.8437338192395079
-0.23670000000000002,-0.8745745255765657
-0.2376999999999999,-0.888721638575216
-0.23870000000000002,-0.8711792184568896
-0.2396999999999999,-0.8416117522897104
-0.24070000000000003,-0.8472705974891704
-0.24169999999999991,-0.8810821975559447
-0.24270000000000003,-0.8960781373345142
-0.24369999999999992,-0.8758477657464442
-0.24470000000000003,-0.8519391447787251
-0.24569999999999992,-0.8513732602587791
-0.24670000000000003,-0.8881557540552701
-0.24769999999999992,-0.9031516938338394
-0.24870000000000003,-0.8868825138853914
-0.24969999999999992,-0.8594371146680098
-0.25070000000000003,-0.8625494795277129
-0.2516999999999999,-0.8976343197643657
-0.25270000000000004,-0.9165914511825571
-0.2536999999999999,-0.8976343197643657
-0.25470000000000004,-0.8725939297567548
-0.2556999999999999,-0.8796674862560799
-0.25670000000000004,-0.9123473172829621
-0.25769999999999993,-0.9327191600010186
-0.25870000000000004,-0.9123473172829621
-0.25969999999999993,-0.8881557540552701
-0.26070000000000004,-0.8976343197643657
-0.26169999999999993,-0.9284750261014234
-0.26270000000000004,-0.9504030512493317
-0.26369999999999993,-0.932860631131005
-0.26470000000000005,-0.9071128854734616
-0.26569999999999994,-0.9168743934425302
-0.26670000000000005,-0.9562033675787782
-0.26769999999999994,-0.9724725475272262
-0.26870000000000005,-0.9567692520987243
-0.26969999999999994,-0.931728862091113
-0.27070000000000005,-0.9421977257101145
-0.27169999999999994,-0.9757263835169159
-0.27270000000000005,-0.9985032354447428
-0.27369999999999994,-0.9847805358360522
-0.27470000000000006,-0.9576180788786434
-0.27569999999999995,-0.9686528270175907
-0.27670000000000006,-1.0085476856737847
-0.27769999999999995,-1.0279292304819356
-0.27870000000000006,-1.0173188957329478
-0.27969999999999995,-0.9927029191152963
-0.28070000000000006,-1.0027473693443378
-0.28169999999999995,-1.0449057660803163
-0.28270000000000006,-1.0641458397584806
-0.28369999999999995,-1.0525452070995875
-0.28470000000000006,-1.0331636622914362
-0.28569999999999995,-1.0443398815603702
-0.28670000000000007,-1.0840932690865777
-0.28769999999999996,-1.1089921879642022
-0.28870000000000007,-1.0966841996553764
-0.28969999999999996,-1.0795661929270095
-0.29070000000000007,-1.0920156523658218
-0.29169999999999996,-1.1341740491017998
-0.29270000000000007,-1.1630341596190465
-0.29369999999999996,-1.1460576240206661
-0.2947000000000001,-1.1360131737916246
-0.29569999999999996,-1.1449258549807741
-0.2967000000000001,-1.1901966165764555
-0.29769999999999996,-1.2208958517835267
-0.2987000000000001,-1.208870805734674
-0.29969999999999997,-1.1995337111555648
-0.3007000000000001,-1.2124075839843365
-0.30169999999999997,-1.2562636342801525
-0.3027000000000001,-1.289509349826981
-0.30369999999999997,-1.283284620107575
-0.3047000000000001,-1.2711181029287355
-0.30569999999999997,-1.2890849364370212
-0.3067000000000001,-1.3359118804625543
-0.3077,-1.3688746537494096
-0.3087000000000001,-1.3685917114894366
-0.3097,-1.3592546169103275
-0.3107000000000001,-1.3820314688381543
-0.3117,-1.431687835463417
-0.3127000000000001,-1.4670556179600431
-0.3137,-1.471299751859638
-0.3147000000000001,-1.462811484060448
-0.3157,-1.4911057100577487
-0.3167000000000001,-1.543450028152755
-0.3177,-1.585891367148706
-0.3187000000000001,-1.5929649236480312
-0.3197,-1.5901355010483011
-0.3207000000000001,-1.6198444383454669
-0.3217,-1.6820917355395286
-0.3227000000000001,-1.7231183632356148
-0.3237,-1.734436053634535
-0.3247000000000001,-1.7400948988339953
-0.3257,-1.769803836131161
-0.3267000000000001,-1.8362952672248178
-0.3277,-1.890054296619689
-0.3287000000000001,-1.9042014096183393
-0.3297,-1.9169338113171246
-0.3307000000000001,-1.959375150313076
-0.3317,-2.0286960040064623
-0.3327000000000001,-2.0895285899006595
-0.3337,-2.110749259398635
-0.3347000000000001,-2.127725794997015
-0.3357,-2.178655401792157
-0.3367000000000001,-2.260708657184329
-0.3377,-2.3328589334774454
-0.3387000000000001,-2.3682267159740715
-0.3397,-2.3936915193716417
-0.3407000000000001,-2.4531093939659736
-0.3417,-2.545065628457201
-0.3427000000000001,-2.629948306449103
-0.3437,-2.6738043567449195
-0.3447000000000001,-2.7162456957408705
-0.3457,-2.7968842398331777
-0.3467000000000001,-2.900158164723325
-0.3477,-3.003432089613473
-0.3487000000000001,-3.0685088094072643
-0.3497,-3.126511972701731
-0.3507000000000001,-3.2269564749921487
-0.3517,-3.352865780680137
-0.3527000000000001,-3.475945663768395
-0.3537,-3.573560743459083
-0.3547000000000001,-3.6527845762515243
-0.3557,-3.781523304539243
-0.35670000000000013,-3.9484592379233177
-0.3577,-4.106906903508202
-0.35870000000000013,-4.238475054395651
-0.3597,-4.358725514884178
-0.36070000000000013,-4.525661448268252
-0.3617,-4.732209298048548
-0.3626999999999999,-4.940171859128707
-0.3637,-5.131157884610488
-0.3646999999999999,-5.313655642293078
-0.3657,-5.542838872871213
-0.3666999999999999,-5.818707576344896
-0.3677,-6.095990991118443
-0.3686999999999999,-6.37044498329226
-0.36970000000000003,-6.646313686765942
-0.3706999999999999,-6.970282574435036
-0.37170000000000003,-7.366401738397246
-0.3726999999999999,-7.782326860557566
-0.37370000000000003,-8.205325539217212
-0.3746999999999999,-8.650959598674698
-0.37570000000000003,-9.158840955326248
-0.3766999999999999,-9.740287299570777
-0.37770000000000004,-10.344369024613147
-0.3786999999999999,-10.958353728754572
-0.37970000000000004,-11.599217947593436
-0.3806999999999999,-12.317891287924875
-0.38170000000000004,-13.087494235051453
-0.38269999999999993,-13.885391408175334
-0.38370000000000004,-14.684703292599082
-0.38469999999999993,-15.462794507524851
-0.38570000000000004,-16.339915513441174
-0.38669999999999993,-17.217036519357496
-0.38770000000000004,-18.15074597726842
-0.38869999999999993,-19.112749661176647
-0.38970000000000005,-20.088900458083522
-0.39069999999999994,-21.079198367989047
-0.39170000000000005,-22.140231842887825
-0.39269999999999994,-23.328589334774456
-0.39370000000000005,-24.488652600663784
-0.39469999999999994,-25.648715866553115
-0.39570000000000005,-26.851220471438396
-0.39669999999999994,-28.12446064131693
-0.39770000000000005,-29.411847924194117
-0.39869999999999994,-30.7558236590659
-0.39970000000000006,-32.08565228093904
-0.40069999999999995,-33.55695203279867
-0.40170000000000006,-35.02825178465831
-0.40269999999999995,-36.584434214509855
-0.40370000000000006,-38.01329262737354
-0.40469999999999995,-39.48459237923317
-0.40570000000000006,-40.97003924409146
-0.40669999999999995,-42.526221673943
-0.40770000000000006,-44.124845442790495
-0.40869999999999995,-45.76591055063393
-0.40970000000000006,-47.36453431948143
-0.41069999999999995,-48.93486386233162
-0.41170000000000007,-50.57592897017506
-0.41269999999999996,-52.132111400026595
-0.41370000000000007,-53.70244094287679
-0.41469999999999996,-55.25862337272834
-0.41570000000000007,-56.857247141575826
-0.41669999999999996,-58.41342957142736
-0.41770000000000007,-60.054494679270796
-0.41869999999999996,-61.53994154412909
-0.4197000000000001,-62.92635861799682
-0.42069999999999996,-64.48254104784839
-0.4217000000000001,-65.9821350257053
-0.42269999999999996,-67.43928766456631
-0.4237000000000001,-68.86814607742998
-0.42469999999999997,-70.19797469930313
-0.4257000000000001,-71.41462641718705
-0.42669999999999997,-72.53224834408043
-0.4277000000000001,-73.76304717496302
-0.42869999999999997,-75.0787286838375
-0.4297000000000001,-76.09732081974033
-0.43069999999999997,-77.32811965062291
-0.4317000000000001,-78.62965404649873
-0.4327,-79.56336350440966
-0.4337000000000001,-80.53951430131653
-0.4347,-81.68543045420722
-0.4357000000000001,-82.63328702511679
-0.4367,-83.80749740400476
-0.4377000000000001,-84.8260895399076
-0.4387,-85.66076920682796
-0.4397000000000001,-86.46715464775104
-0.4407,-87.35842276666601
-0.4417000000000001,-88.20724954658505
-0.4427,-88.95704653551351
-0.4437000000000001,-89.94734444541903
-0.4447,-90.7254356603448
-0.4457000000000001,-91.40449708428001
-0.4467,-92.06941139521659
-0.4477000000000001,-92.81920838414506
-0.4487,-94.00756587603168
-0.4497000000000001,-94.4319792659912
-0.4507,-95.13933491592371
-0.4517000000000001,-96.11548571283059
-0.4527,-97.30384320471723
-0.4537000000000001,-97.96875751565379
-0.4547,-98.83173140857146
-0.4557000000000001,-99.45420438051207
-0.4567,-99.93520622246619
-0.4577000000000001,-100.84062145437981
-0.4587,-101.87336070328129
-0.4597000000000001,-102.72218748320032
-0.4607,-103.14660087315983
-0.4617000000000001,-103.48613158512744
-0.4627,-104.3773997040424
-0.4637000000000001,-104.88669577199381
-0.4647,-105.53746296993172
-0.4657000000000001,-106.21652439386696
-0.4667,-106.85314447880621
-0.4677000000000001,-108.14053176168339
-0.4687,-108.76300473362402
-0.4697000000000001,-109.06009410659567
-0.4707,-109.6825670785363
-0.4717000000000001,-110.72945344043643
-0.4727,-111.23874950838784
-0.4737000000000001,-112.41295988727582
-0.4747,-113.65790583115704
-0.4757000000000001,-114.02573076912195
-0.4767,-114.74723353205313
-0.4777000000000001,-115.63850165096811
-0.4787,-116.00632658893302
-0.4797000000000001,-116.92588893384529
-0.4807,-117.98692240874406
-0.48170000000000013,-119.1186914486361
-0.4827,-119.44407504760505
-0.48370000000000013,-120.42022584451192
-0.4847,-121.52370065840667
-0.48570000000000013,-122.4432630033189
-0.4867,-121.77834869238235
-0.48570000000000013,-120.75975655647954
-0.4847,-119.9109297765605
-0.48370000000000013,-118.59524826768603
-0.4827,-118.0859521997346
-0.48170000000000013,-116.68538801286822
-0.4807,-115.53947185997755
-0.4797000000000001,-114.60576240206663
-0.4787,-113.82767118714084
-0.4777000000000001,-112.05928206230955
-0.4767,-111.63486867235005
-0.4757000000000001,-110.41821695446612
-0.4747,-109.32888925357003
-0.4737000000000001,-107.8010010497158
-0.4727,-106.61264355782916
-0.4717000000000001,-105.79211100390745
-0.4707,-104.16519300906265
-0.4697000000000001,-102.76462882219626
-0.4687,-102.1563029632543
-0.4677000000000001,-100.92550413237171
