Potential V vs RHE, Current mA cm-2
0.013299999999999867,-0.3947044526623452
0.012299999999999978,-1.2671569112891135
0.011299999999999866,-1.6594563547416883
0.010299999999999976,-1.92117794521672
0.009299999999999864,-2.1390434853959355
0.008299999999999974,-2.3569090255751513
0.007299999999999862,-2.4884771764625997
0.006299999999999972,-2.618630616050183
0.00529999999999986,-2.662486666345999
0.0042999999999999705,-2.706342716641815
0.0032999999999998586,-2.662486666345999
0.0022999999999999687,-2.662486666345999
0.0012999999999998568,-2.662486666345999
0.00029999999999996696,-2.662486666345999
-0.000700000000000145,-2.662486666345999
-0.0017000000000000348,-2.706342716641815
-0.0027000000000001467,-2.794054817233447
-0.0037000000000000366,-2.8803522065252145
-0.0047000000000001485,-3.0119203574126634
-0.005700000000000038,-3.1420737970002466
-0.00670000000000015,-3.2297858975918787
-0.00770000000000004,-3.317497998183511
-0.008700000000000152,-3.361354048479327
-0.009700000000000042,-3.403795387475278
-0.010700000000000154,-3.361354048479327
-0.011700000000000044,-3.361354048479327
-0.012700000000000156,-3.317497998183511
-0.013700000000000045,-3.2297858975918787
-0.014700000000000157,-3.2297858975918787
-0.015700000000000047,-3.1859298472960624
-0.01670000000000016,-3.2297858975918787
-0.01770000000000005,-3.317497998183511
-0.01870000000000016,-3.361354048479327
-0.01970000000000005,-3.447651437771094
-0.020700000000000163,-3.579219588658543
-0.021700000000000053,-3.6655169779503103
-0.022700000000000164,-3.7532290785419424
-0.023700000000000054,-3.7970851288377587
-0.024700000000000166,-3.7970851288377587
-0.025700000000000056,-3.7532290785419424
-0.026700000000000168,-3.7093730282461257
-0.027700000000000058,-3.6655169779503103
-0.02870000000000017,-3.579219588658543
-0.02970000000000006,-3.5353635383627267
-0.03070000000000017,-3.5353635383627267
-0.03170000000000006,-3.5353635383627267
-0.03270000000000017,-3.579219588658543
-0.03370000000000006,-3.7093730282461257
-0.034700000000000175,-3.7532290785419424
-0.035700000000000065,-3.884797229429391
-0.03670000000000018,-3.971094618721158
-0.03770000000000007,-4.0588067193127895
-0.03870000000000018,-4.0588067193127895
-0.03970000000000007,-4.014950669016974
-0.04070000000000018,-4.014950669016974
-0.04170000000000007,-3.971094618721158
-0.04270000000000018,-3.927238568425342
-0.04370000000000007,-3.840941179133574
-0.044700000000000184,-3.7970851288377587
-0.045700000000000074,-3.7532290785419424
-0.046700000000000186,-3.7970851288377587
-0.047700000000000076,-3.840941179133574
-0.04870000000000019,-3.927238568425342
-0.04970000000000008,-4.014950669016974
-0.05070000000000019,-4.0588067193127895
-0.05170000000000008,-4.1889601589003735
-0.05270000000000019,-4.23281620919619
-0.05370000000000008,-4.276672259492005
-0.05470000000000019,-4.276672259492005
-0.05570000000000008,-4.23281620919619
-0.056700000000000195,-4.1889601589003735
-0.057700000000000085,-4.102662769608606
-0.058700000000000196,-4.014950669016974
-0.059700000000000086,-3.971094618721158
-0.0607000000000002,-3.971094618721158
-0.06170000000000009,-3.971094618721158
-0.0627000000000002,-4.014950669016974
-0.06370000000000009,-4.102662769608606
-0.0647000000000002,-4.1889601589003735
-0.06570000000000009,-4.276672259492005
-0.0667000000000002,-4.364384360083638
-0.0677000000000001,-4.406825699079589
-0.0687000000000002,-4.450681749375406
-0.0697000000000001,-4.450681749375406
-0.07070000000000021,-4.406825699079589
-0.0717000000000001,-4.3205283097878215
-0.07270000000000021,-4.276672259492005
-0.0737000000000001,-4.1889601589003735
-0.07470000000000021,-4.146518819904423
-0.0757000000000001,-4.102662769608606
-0.07670000000000021,-4.102662769608606
-0.0777000000000001,-4.146518819904423
-0.07870000000000021,-4.23281620919619
-0.0797000000000001,-4.364384360083638
-0.08070000000000022,-4.406825699079589
-0.0817000000000001,-4.494537799671222
-0.08270000000000022,-4.582249900262854
-0.08370000000000011,-4.626105950558669
-0.08470000000000022,-4.582249900262854
-0.08570000000000011,-4.538393849967037
-0.08670000000000022,-4.494537799671222
-0.08770000000000011,-4.406825699079589
-0.08870000000000022,-4.364384360083638
-0.08970000000000011,-4.276672259492005
-0.09070000000000022,-4.276672259492005
-0.09170000000000011,-4.276672259492005
-0.09270000000000023,-4.3205283097878215
-0.09370000000000012,-4.364384360083638
-0.09470000000000023,-4.494537799671222
-0.09570000000000012,-4.538393849967037
-0.09670000000000023,-4.668547289554621
-0.09770000000000012,-4.712403339850438
-0.09870000000000023,-4.712403339850438
-0.09970000000000012,-4.712403339850438
-0.10070000000000023,-4.668547289554621
-0.10170000000000012,-4.626105950558669
-0.10270000000000024,-4.582249900262854
-0.10370000000000013,-4.450681749375406
-0.10470000000000024,-4.406825699079589
-0.10570000000000013,-4.364384360083638
-0.10670000000000024,-4.406825699079589
-0.10770000000000013,-4.450681749375406
-0.10870000000000024,-4.494537799671222
-0.10970000000000013,-4.582249900262854
-0.11070000000000024,-4.668547289554621
-0.11170000000000013,-4.756259390146253
-0.11270000000000002,-4.800115440442069
-0.11370000000000013,-4.843971490737885
-0.11470000000000002,-4.800115440442069
-0.11570000000000014,-4.800115440442069
-0.11670000000000003,-4.712403339850438
-0.11770000000000014,-4.668547289554621
-0.11870000000000003,-4.582249900262854
-0.11970000000000014,-4.538393849967037
-0.12070000000000003,-4.494537799671222
-0.12170000000000014,-4.494537799671222
-0.12270000000000003,-4.538393849967037
-0.12370000000000014,-4.582249900262854
-0.12470000000000003,-4.712403339850438
-0.12570000000000014,-4.756259390146253
-0.12670000000000003,-4.887827541033701
-0.12770000000000015,-4.9302688800296535
-0.12870000000000004,-4.9302688800296535
-0.12970000000000015,-4.9302688800296535
-0.13070000000000004,-4.887827541033701
-0.13170000000000015,-4.800115440442069
-0.13270000000000004,-4.756259390146253
-0.13370000000000015,-4.668547289554621
-0.13470000000000004,-4.626105950558669
-0.13570000000000015,-4.582249900262854
-0.13670000000000004,-4.582249900262854
-0.13770000000000016,-4.626105950558669
-0.13870000000000005,-4.712403339850438
-0.13970000000000016,-4.800115440442069
-0.14070000000000005,-4.887827541033701
-0.14170000000000016,-4.974124930325469
-0.14270000000000005,-5.017980980621284
-0.14370000000000016,-5.017980980621284
-0.14470000000000005,-5.017980980621284
-0.14570000000000016,-4.974124930325469
-0.14670000000000005,-4.887827541033701
-0.14770000000000016,-4.843971490737885
-0.14870000000000005,-4.756259390146253
-0.14970000000000017,-4.668547289554621
-0.15070000000000006,-4.668547289554621
-0.15170000000000017,-4.668547289554621
-0.15270000000000006,-4.712403339850438
-0.15370000000000017,-4.800115440442069
-0.15470000000000006,-4.843971490737885
-0.15570000000000017,-4.9302688800296535
-0.15670000000000006,-5.017980980621284
-0.15770000000000017,-5.0618370309171015
-0.15870000000000006,-5.105693081212917
-0.15970000000000018,-5.105693081212917
-0.16070000000000007,-5.017980980621284
-0.16170000000000018,-4.974124930325469
-0.16270000000000007,-4.887827541033701
-0.16370000000000018,-4.843971490737885
-0.16470000000000007,-4.756259390146253
-0.16570000000000018,-4.756259390146253
-0.16670000000000007,-4.756259390146253
-0.16770000000000018,-4.756259390146253
-0.16870000000000007,-4.843971490737885
-0.16970000000000018,-4.9302688800296535
-0.17070000000000007,-5.017980980621284
-0.17170000000000019,-5.105693081212917
-0.17270000000000008,-5.149549131508733
-0.1737000000000002,-5.149549131508733
-0.17470000000000008,-5.149549131508733
-0.1757000000000002,-5.105693081212917
-0.17670000000000008,-5.0618370309171015
-0.1777000000000002,-4.974124930325469
-0.17870000000000008,-4.887827541033701
-0.1797000000000002,-4.800115440442069
-0.18070000000000008,-4.843971490737885
-0.1817000000000002,-4.800115440442069
-0.18270000000000008,-4.843971490737885
-0.1837000000000002,-4.887827541033701
-0.1847000000000001,-4.974124930325469
-0.1857000000000002,-5.0618370309171015
-0.1867000000000001,-5.149549131508733
-0.1877000000000002,-5.191990470504685
-0.1887000000000001,-5.235846520800501
-0.1897000000000002,-5.191990470504685
-0.1907000000000001,-5.149549131508733
-0.1917000000000001,-5.105693081212917
-0.19269999999999998,-5.017980980621284
-0.1937000000000001,-4.9302688800296535
-0.19469999999999998,-4.843971490737885
-0.1957000000000001,-4.843971490737885
-0.19669999999999999,-4.843971490737885
-0.1977000000000001,-4.887827541033701
-0.1987,-4.974124930325469
-0.1997000000000001,-5.017980980621284
-0.2007,-5.105693081212917
-0.2017000000000001,-5.191990470504685
-0.2027,-5.235846520800501
-0.2037000000000001,-5.279702571096316
-0.2047,-5.235846520800501
-0.2057000000000001,-5.191990470504685
-0.2067,-5.149549131508733
-0.2077000000000001,-5.0618370309171015
-0.2087,-4.974124930325469
-0.2097000000000001,-4.9302688800296535
-0.2107,-4.9302688800296535
-0.2117000000000001,-4.887827541033701
-0.2127,-4.9302688800296535
-0.2137000000000001,-5.017980980621284
-0.2147,-5.0618370309171015
-0.2157000000000001,-5.191990470504685
-0.2167,-5.279702571096316
-0.21770000000000012,-5.323558621392133
-0.2187,-5.323558621392133
-0.21970000000000012,-5.279702571096316
-0.2207,-5.235846520800501
-0.22170000000000012,-5.191990470504685
-0.2227,-5.105693081212917
-0.22370000000000012,-5.017980980621284
-0.2247,-4.974124930325469
-0.22570000000000012,-4.974124930325469
-0.2267,-4.9302688800296535
-0.22770000000000012,-4.974124930325469
-0.22870000000000001,-5.0618370309171015
-0.22970000000000013,-5.149549131508733
-0.23070000000000002,-5.191990470504685
-0.23170000000000013,-5.279702571096316
-0.23270000000000002,-5.367414671687949
-0.23370000000000013,-5.367414671687949
-0.23470000000000002,-5.367414671687949
-0.23570000000000013,-5.323558621392133
-0.23670000000000002,-5.235846520800501
-0.2376999999999999,-5.191990470504685
-0.23870000000000002,-5.105693081212917
-0.2396999999999999,-5.017980980621284
-0.24070000000000003,-5.017980980621284
-0.24169999999999991,-5.017980980621284
-0.24270000000000003,-5.0618370309171015
-0.24369999999999992,-5.105693081212917
-0.24470000000000003,-5.191990470504685
-0.24569999999999992,-5.279702571096316
-0.24670000000000003,-5.367414671687949
-0.24769999999999992,-5.411270721983764
-0.24870000000000003,-5.453712060979717
-0.24969999999999992,-5.411270721983764
-0.25070000000000003,-5.367414671687949
-0.2516999999999999,-5.323558621392133
-0.25270000000000004,-5.235846520800501
-0.2536999999999999,-5.149549131508733
-0.25470000000000004,-5.105693081212917
-0.2556999999999999,-5.0618370309171015
-0.25670000000000004,-5.105693081212917
-0.25769999999999993,-5.105693081212917
-0.25870000000000004,-5.191990470504685
-0.25969999999999993,-5.279702571096316
-0.26070000000000004,-5.367414671687949
-0.26169999999999993,-5.453712060979717
-0.26270000000000004,-5.497568111275533
-0.26369999999999993,-5.5414241615713475
-0.26470000000000005,-5.497568111275533
-0.26569999999999994,-5.453712060979717
-0.26670000000000005,-5.411270721983764
-0.26769999999999994,-5.323558621392133
-0.26870000000000005,-5.235846520800501
-0.26969999999999994,-5.191990470504685
-0.27070000000000005,-5.191990470504685
-0.27169999999999994,-5.149549131508733
-0.27270000000000005,-5.235846520800501
-0.27369999999999994,-5.279702571096316
-0.27470000000000006,-5.367414671687949
-0.27569999999999995,-5.453712060979717
-0.27670000000000006,-5.5414241615713475
-0.27769999999999995,-5.585280211867165
-0.27870000000000006,-5.629136262162981
-0.27969999999999995,-5.629136262162981
-0.28070000000000006,-5.585280211867165
-0.28169999999999995,-5.5414241615713475
-0.28270000000000006,-5.453712060979717
-0.28369999999999995,-5.411270721983764
-0.28470000000000006,-5.323558621392133
-0.28569999999999995,-5.323558621392133
-0.28670000000000007,-5.323558621392133
-0.28769999999999996,-5.367414671687949
-0.28870000000000007,-5.453712060979717
-0.28969999999999996,-5.5414241615713475
-0.29070000000000007,-5.629136262162981
-0.29169999999999996,-5.715433651454749
-0.29270000000000007,-5.759289701750564
-0.29369999999999996,-5.80314575204638
-0.2947000000000001,-5.759289701750564
-0.29569999999999996,-5.759289701750564
-0.2967000000000001,-5.715433651454749
-0.29769999999999996,-5.629136262162981
-0.2987000000000001,-5.585280211867165
-0.29969999999999997,-5.5414241615713475
-0.3007000000000001,-5.497568111275533
-0.30169999999999997,-5.497568111275533
-0.3027000000000001,-5.585280211867165
-0.30369999999999997,-5.672992312458796
-0.3047000000000001,-5.759289701750564
-0.30569999999999997,-5.847001802342197
-0.3067000000000001,-5.9347139029338285
-0.3077,-5.977155241929781
-0.3087000000000001,-6.064867342521412
-0.3097,-6.064867342521412
-0.3107000000000001,-6.021011292225596
-0.3117,-5.977155241929781
-0.3127000000000001,-5.9347139029338285
-0.3137,-5.847001802342197
-0.3147000000000001,-5.847001802342197
-0.3157,-5.847001802342197
-0.3167000000000001,-5.847001802342197
-0.3177,-5.890857852638012
-0.3187000000000001,-5.977155241929781
-0.3197,-6.064867342521412
-0.3207000000000001,-6.152579443113044
-0.3217,-6.282732882700628
-0.3227000000000001,-6.37044498329226
-0.3237,-6.414301033588076
-0.3247000000000001,-6.458157083883892
-0.3257,-6.414301033588076
-0.3267000000000001,-6.37044498329226
-0.3277,-6.326588932996443
-0.3287000000000001,-6.282732882700628
-0.3297,-6.282732882700628
-0.3307000000000001,-6.238876832404812
-0.3317,-6.282732882700628
-0.3327000000000001,-6.37044498329226
-0.3337,-6.458157083883892
-0.3347000000000001,-6.588310523471475
-0.3357,-6.6760226240631075
-0.3367000000000001,-6.806176063650692
-0.3377,-6.893888164242324
-0.3387000000000001,-6.981600264833956
-0.3397,-6.981600264833956
-0.3407000000000001,-6.981600264833956
-0.3417,-6.981600264833956
-0.3427000000000001,-6.981600264833956
-0.3437,-6.893888164242324
-0.3447000000000001,-6.93774421453814
-0.3457,-6.93774421453814
-0.3467000000000001,-6.981600264833956
-0.3477,-7.024041603829907
-0.3487000000000001,-7.199465805013171
-0.3497,-7.28576319430494
-0.3507000000000001,-7.461187395488204
-0.3517,-7.591340835075788
-0.3527000000000001,-7.679052935667419
-0.3537,-7.809206375255003
-0.3547000000000001,-7.809206375255003
-0.3557,-7.853062425550818
-0.35670000000000013,-7.853062425550818
-0.3577,-7.853062425550818
-0.35870000000000013,-7.853062425550818
-0.3597,-7.853062425550818
-0.36070000000000013,-7.896918475846635
-0.3617,-7.940774526142452
-0.3626999999999999,-8.070927965730034
-0.3637,-8.202496116617484
-0.3646999999999999,-8.332649556205066
-0.3657,-8.508073757388331
-0.3666999999999999,-8.68208324727173
-0.3677,-8.812236686859313
-0.3686999999999999,-8.943804837746763
-0.36970000000000003,-9.031516938338395
-0.3706999999999999,-9.031516938338395
-0.37170000000000003,-9.11781432763016
-0.3726999999999999,-9.11781432763016
-0.37370000000000003,-9.11781432763016
-0.3746999999999999,-9.161670377925978
-0.37570000000000003,-9.205526428221793
-0.3766999999999999,-9.293238528813426
-0.37770000000000004,-9.467248018696827
-0.3786999999999999,-9.59740145828441
-0.37970000000000004,-9.81668170976349
-0.3806999999999999,-9.99069119964689
-0.38170000000000004,-10.208556739826104
-0.38269999999999993,-10.340124890713554
-0.38370000000000004,-10.514134380596953
-0.38469999999999993,-10.644287820184536
-0.38570000000000004,-10.731999920776168
-0.38669999999999993,-10.775855971071984
-0.38770000000000004,-10.863568071663616
-0.38869999999999993,-10.906009410659568
-0.38970000000000005,-10.949865460955383
-0.39069999999999994,-11.081433611842833
-0.39170000000000005,-11.211587051430415
-0.39269999999999994,-11.385596541313816
-0.39370000000000005,-11.604876792792895
-0.39469999999999994,-11.82274233297211
-0.39570000000000005,-12.040607873151327
-0.39669999999999994,-12.302329463626359
-0.39770000000000005,-12.520195003805576
-0.39869999999999994,-12.694204493688973
-0.39970000000000006,-12.869628694872238
-0.40069999999999995,-12.99978213445982
-0.40170000000000006,-13.13135028534727
-0.40269999999999995,-13.217647674639037
-0.40370000000000006,-13.349215825526485
-0.40469999999999995,-13.47936926511407
-0.40570000000000006,-13.654793466297335
-0.40669999999999995,-13.784946905884919
-0.40770000000000006,-14.002812446064135
-0.40869999999999995,-14.26028990263957
-0.40970000000000006,-14.529085049613924
-0.41069999999999995,-14.783733083589633
-0.41170000000000007,-15.137410908555893
-0.41269999999999996,-15.3920589425316
-0.41370000000000007,-15.660854089505953
-0.41469999999999996,-15.91550212348166
-0.41570000000000007,-16.099414592464115
-0.41669999999999996,-16.269179948447924
-0.41770000000000007,-16.438945304431726
-0.41869999999999996,-16.622857773414182
-0.4197000000000001,-16.792623129397985
-0.42069999999999996,-17.018976937376394
-0.4217000000000001,-17.231183632356142
-0.42269999999999996,-17.48583166633185
-0.4237000000000001,-17.797068152302163
-0.42469999999999997,-18.19318731626437
-0.4257000000000001,-18.49027668923603
-0.42669999999999997,-18.88639585319824
-0.4277000000000001,-19.2400736781645
-0.42869999999999997,-19.579604390132108
-0.4297000000000001,-19.890840876102416
-0.43069999999999997,-20.159636023076775
-0.4317000000000001,-20.414284057052477
-0.4327,-20.683079204026836
-0.4337000000000001,-20.93772723800254
-0.4347,-21.149933932982297
-0.4357000000000001,-21.461170418952605
-0.4367,-21.772406904922917
-0.4377000000000001,-22.111937616890522
-0.4387,-22.550498119848687
-0.4397000000000001,-22.946617283810895
-0.4407,-23.385177786769056
-0.4417000000000001,-23.86617962872317
-0.4427,-24.290593018682678
-0.4437000000000001,-24.729153521640843
-0.4447,-25.167714024599
-0.4457000000000001,-25.521391849565262
-0.4467,-25.91751101352747
-0.4477000000000001,-26.257041725495082
-0.4487,-26.61071955046134
-0.4497000000000001,-26.9643973754276
-0.4507,-27.303928087395207
-0.4517000000000001,-27.742488590353368
-0.4527,-28.22349043230748
-0.4537000000000001,-28.704492274261593
-0.4547,-29.22793545521166
-0.4557000000000001,-29.793819975157668
-0.4567,-30.402145834099635
-0.4577000000000001,-30.925589015049702
-0.4587,-31.533914873991666
-0.4597000000000001,-32.05735805494172
-0.4607,-32.58080123589179
-0.4617000000000001,-33.06180307784591
-0.4627,-33.58524625879597
-0.4637000000000001,-34.06624810075008
-0.4647,-34.5472499427042
-0.4657000000000001,-35.07069312365426
-0.4667,-35.594136304604326
-0.4677000000000001,-36.20246216354629
-0.4687,-36.8532293614842
-0.4697000000000001,-37.51814367242077
-0.4707,-38.253793548350586
-0.4717000000000001,-39.046031876275016
-0.4727,-39.739240413208876
-0.4737000000000001,-40.51733162813464
-0.4747,-41.22468727806717
-0.4757000000000001,-41.91789581500104
-0.4767,-42.6111043519349
-0.4777000000000001,-43.27601866287147
-0.4787,-43.96922719980534
-0.4797000000000001,-44.577553058747306
-0.4807,-45.27076159568118
-0.48170000000000013,-46.02055858460964
-0.4827,-46.75620846053947
-0.48370000000000013,-47.590888127459834
-0.4847,-48.45386202037751
-0.48570000000000013,-49.373424365289786
-0.4867,-50.335428049198
-0.4876999999999999,-51.29743173310623
-0.4887,-52.25943541701445
-0.4896999999999999,-53.16485064892808
-0.4907,-54.08441299384035
-0.4916999999999999,-54.961533999756675
-0.4927,-55.7820665536784
-0.4936999999999999,-56.65918755959472
-0.49470000000000003,-57.45142588751914
-0.4956999999999999,-58.31439978043681
-0.49670000000000003,-59.19152078635314
-0.4976999999999999,-60.06864179226946
-0.49870000000000003,-61.07308681517363
-0.4996999999999999,-62.06338472507916
-0.5007,-63.11027108697928
-0.5016999999999999,-64.25618723986996
-0.5027,-65.34551494076604
-0.5036999999999999,-66.47728398065809
-0.5047,-67.56661168155415
-0.5056999999999999,-68.61349804345427
-0.5067,-69.61794306635846
-0.5076999999999999,-70.57994675026669
-0.5087,-71.52780332117625
-0.5096999999999999,-72.44736566608852
-0.5107,-73.3669280110008
