Potential V vs RHE, Current mA cm-2
0.4132999999999999,0.4764747657945444
0.4122999999999999,0.2666730800245595
0.4112999999999999,0.0929182381751356
0.4102999999999999,-0.023427619125765006
0.4092999999999999,-0.11125289662138649
0.4082999999999999,-0.18320511333252223
0.4072999999999999,-0.24516946826661082
0.4062999999999999,-0.29793819975157676
0.4052999999999999,-0.3456139705570285
0.4042999999999999,-0.3884797229429391
0.4032999999999999,-0.42752575481921407
0.4022999999999999,-0.465157075395624
0.4012999999999999,-0.49769543529251986
0.4002999999999999,-0.5281117282396182
0.3992999999999999,-0.5576791944067975
0.3982999999999999,-0.5852660647541656
0.3972999999999999,-0.6110138104117093
0.3962999999999999,-0.6344980179894689
0.3952999999999999,-0.6560016297474174
0.3942999999999999,-0.6772222992453931
0.39329999999999987,-0.6974526708334631
0.39229999999999987,-0.717117157901587
0.39129999999999987,-0.7362157604497651
0.39029999999999987,-0.7519190558782669
0.38929999999999987,-0.7686126492166745
0.38829999999999987,-0.7857306559450413
0.38729999999999987,-0.8012924802435567
0.38629999999999987,-0.8164298911521127
0.38529999999999986,-0.8295867062408576
0.38429999999999986,-0.8424605790696293
0.38329999999999986,-0.8568906343282527
0.38229999999999986,-0.868491266987146
0.38129999999999986,-0.8812236686859314
0.38029999999999986,-0.8919754745649057
0.37929999999999986,-0.903010222703853
0.37829999999999986,-0.9144693842327598
0.37729999999999986,-0.9256456035016934
0.37629999999999986,-0.9354071114707622
0.37529999999999986,-0.9448856771798579
0.37429999999999986,-0.9535154161090347
0.37329999999999985,-0.9639842797280359
0.37229999999999985,-0.9741702010870643
0.37129999999999985,-0.9818096421063355
0.37029999999999985,-0.9902979099055255
0.36929999999999985,-0.9977958797948104
0.36829999999999985,-1.006425618723987
0.36729999999999985,-1.015904184433083
0.36629999999999985,-1.022411856412462
0.36529999999999985,-1.0297683551717602
0.36429999999999985,-1.036417498281126
0.36329999999999985,-1.0440569393003971
0.36229999999999984,-1.0522622648396145
0.36129999999999984,-1.0582040522990475
0.36029999999999984,-1.064287310888467
0.35929999999999984,-1.0712193962578058
0.35829999999999984,-1.076878241457266
0.35729999999999984,-1.0850835669964831
0.35629999999999984,-1.0907424121959435
0.35529999999999984,-1.0951280172255249
0.35429999999999984,-1.1024845159848229
0.35329999999999984,-1.1081433611842832
0.35229999999999984,-1.1149339754236354
0.35129999999999983,-1.1203098783631227
0.35029999999999983,-1.1251198967826637
0.34929999999999983,-1.1303543285921644
0.34829999999999983,-1.1362961160515976
0.34729999999999983,-1.1442184993308417
0.34629999999999983,-1.1490285177503827
0.34529999999999983,-1.1525652960000454
0.34429999999999983,-1.1565264876396673
0.3432999999999998,-1.1626097462290872
0.3422999999999998,-1.1674197646486284
0.3412999999999998,-1.1729371387181018
0.3402999999999998,-1.1770398014877106
0.3392999999999998,-1.1807180508673596
0.3382999999999998,-1.1873671939767252
0.3372999999999998,-1.1913283856163475
0.3362999999999998,-1.1957139906459289
0.3352999999999998,-1.2003825379354838
0.3342999999999998,-1.2040607873151328
0.3332999999999998,-1.209719632514593
0.3322999999999998,-1.214246708674161
0.3312999999999998,-1.2180664291837966
0.3302999999999998,-1.2220276208234186
0.3292999999999998,-1.2261302835930272
0.3282999999999998,-1.2315061865325145
0.3272999999999998,-1.2373065028619612
0.3262999999999998,-1.240135925461691
0.3252999999999999,-1.244521530491273
0.3242999999999999,-1.2490486066508408
0.3232999999999999,-1.2534342116804225
0.3222999999999999,-1.2588101146199098
0.3212999999999999,-1.2623468928695722
0.3202999999999999,-1.2654592577292754
0.3192999999999999,-1.2709766317987488
0.3182999999999999,-1.274937823438371
0.3172999999999999,-1.2798893129878988
0.3162999999999999,-1.284416389147467
0.3152999999999999,-1.2872458117471968
0.3142999999999999,-1.292338772426711
0.3132999999999999,-1.296865848586279
0.3122999999999999,-1.3018173381358067
0.3112999999999999,-1.3073347122052805
0.3102999999999999,-1.3104470770649834
0.3092999999999999,-1.3152570954845246
0.3082999999999999,-1.3210574118139713
0.3072999999999999,-1.325443016843553
0.3062999999999999,-1.330535977523067
0.3052999999999999,-1.3340727557727297
0.3042999999999999,-1.3391657164522437
0.3032999999999999,-1.3452489750416634
0.3022999999999999,-1.350200464591191
0.3012999999999999,-1.3552934252707052
0.3002999999999999,-1.3593960880403138
0.2992999999999999,-1.3640646353298684
0.2982999999999999,-1.3705723073092475
0.2972999999999999,-1.3753823257287887
0.2962999999999999,-1.380899699798262
0.2952999999999999,-1.3865585449977225
0.2942999999999999,-1.3905197366373445
0.2932999999999999,-1.3966029952267642
0.2922999999999999,-1.4018374270362648
0.2912999999999999,-1.4070718588457656
0.2902999999999999,-1.4121648195252796
0.2892999999999999,-1.4175407224647667
0.2882999999999999,-1.423199567664227
0.2872999999999999,-1.4288584128636872
0.2862999999999999,-1.433102546763282
0.2852999999999999,-1.4387613919627424
0.2842999999999999,-1.4444202371622026
0.2832999999999999,-1.4500790823616625
0.2822999999999999,-1.4557379275611226
0.2812999999999999,-1.461396772760583
0.2802999999999999,-1.4670556179600431
0.2792999999999999,-1.4741291744593683
0.2782999999999999,-1.4797880196588282
0.2772999999999999,-1.4868615761581534
0.2762999999999999,-1.4911057100577487
0.2752999999999999,-1.4967645552572086
0.2742999999999999,-1.502423400456669
0.2732999999999999,-1.5094969569559942
0.2722999999999999,-1.5165705134553193
0.2712999999999999,-1.5222293586547795
0.2702999999999999,-1.5278882038542394
0.2692999999999999,-1.5349617603535646
0.26829999999999987,-1.54203531685289
0.26729999999999987,-1.5491088733522151
0.26629999999999987,-1.5561824298515403
0.26529999999999987,-1.5618412750510005
0.26429999999999987,-1.5675001202504606
0.26329999999999987,-1.5759883880496508
0.26229999999999987,-1.583061944548976
0.26129999999999987,-1.5901355010483011
0.26029999999999986,-1.5957943462477613
0.25929999999999986,-1.6028679027470865
0.25829999999999986,-1.6099414592464116
0.25729999999999986,-1.6170150157457368
0.25629999999999986,-1.6240885722450622
0.25529999999999986,-1.6311621287443874
0.25429999999999986,-1.6396503965435776
0.25329999999999986,-1.6481386643427678
0.25229999999999986,-1.656626932141958
0.25129999999999986,-1.6622857773414181
0.25029999999999986,-1.6721887564404734
0.24929999999999986,-1.6792623129397986
0.24829999999999985,-1.6877505807389888
0.24729999999999985,-1.696238848538179
0.24629999999999985,-1.7047271163373692
0.24529999999999985,-1.7146300954364246
0.24429999999999985,-1.7231183632356148
0.24329999999999985,-1.7301919197349398
0.24229999999999985,-1.7386801875341302
0.24129999999999985,-1.7457537440334552
0.24029999999999985,-1.7556567231325106
0.23929999999999985,-1.7641449909317006
0.23829999999999985,-1.772633258730891
0.23729999999999984,-1.7825362378299463
0.23629999999999984,-1.7910245056291363
0.23529999999999984,-1.7995127734283267
0.23429999999999984,-1.8080010412275167
0.23329999999999984,-1.8164893090267071
0.23229999999999984,-1.8263922881257622
0.23129999999999984,-1.8362952672248178
0.23029999999999984,-1.8447835350240078
0.22929999999999984,-1.8561012254229279
0.22829999999999984,-1.8674189158218486
0.22729999999999984,-1.8759071836210386
0.22629999999999983,-1.884395451420229
0.22529999999999983,-1.894298430519284
0.22429999999999983,-1.9042014096183393
0.22329999999999983,-1.9141043887173947
0.22229999999999983,-1.92400736781645
0.22129999999999983,-1.933910346915505
0.22029999999999983,-1.9423986147146954
0.21929999999999983,-1.9523015938137507
0.21829999999999983,-1.963619284212671
0.21729999999999983,-1.972107552011861
0.21629999999999983,-1.9820105311109162
0.21529999999999982,-1.9904987989101068
0.21429999999999982,-2.0004017780091616
0.21329999999999982,-2.011719468408082
0.21229999999999982,-2.0216224475071374
0.21129999999999982,-2.0301107153063276
0.21029999999999982,-2.040013694405383
0.20929999999999982,-2.049916673504438
0.20829999999999982,-2.0598196526034935
0.20729999999999982,-2.0697226317025486
0.20629999999999982,-2.0782108995017388
0.20529999999999982,-2.0881138786007942
0.20429999999999982,-2.0994315689997145
0.20329999999999981,-2.1079198367989047
0.2022999999999998,-2.1192375271978254
0.2012999999999998,-2.12914050629688
0.20029999999999992,-2.1390434853959355
0.19929999999999992,-2.150361175794856
0.19829999999999992,-2.1602641548939108
0.19729999999999992,-2.171581845292831
0.19629999999999992,-2.184314246991617
0.19529999999999992,-2.194217226090672
0.19429999999999992,-2.2097790503891876
0.19329999999999992,-2.226755585987568
0.19229999999999992,-2.2394879876863527
0.19129999999999991,-2.2522203893851382
0.1902999999999999,-2.2550498119848683
0.1892999999999999,-2.263538079784059
0.1882999999999999,-2.2663675023837886
0.1872999999999999,-2.2691969249835187
0.1862999999999999,-2.2776851927827093
0.1852999999999999,-2.286173460581899
0.1842999999999999,-2.296076439680954
0.1832999999999999,-2.30597941878001
0.1822999999999999,-2.3158823978790646
0.1812999999999999,-2.3257853769781205
0.1802999999999999,-2.33144422217758
0.1792999999999999,-2.339932489976771
0.1782999999999999,-2.351250180375691
0.1772999999999999,-2.359738448174881
0.1762999999999999,-2.3682267159740715
0.1752999999999999,-2.3767149837732613
0.1742999999999999,-2.385203251572452
0.1732999999999999,-2.3951062306715074
0.1722999999999999,-2.4050092097705624
0.1712999999999999,-2.4134974775697526
0.1702999999999999,-2.426229879268538
0.1692999999999999,-2.438962280967323
0.1682999999999999,-2.4502799713662435
0.1672999999999999,-2.4587682391654337
0.1662999999999999,-2.472915352164084
0.1652999999999999,-2.4898918877624645
0.1642999999999999,-2.49979486686152
0.1632999999999999,-2.49413602166206
0.1622999999999999,-2.4927213103621946
0.1612999999999999,-2.49696544426179
0.1602999999999999,-2.504039000761115
0.1592999999999999,-2.5139419798601703
0.15829999999999989,-2.5224302476593605
0.15729999999999988,-2.5309185154585507
0.15629999999999988,-2.5379920719578757
0.15529999999999988,-2.545065628457201
0.15429999999999988,-2.554968607556256
0.15329999999999988,-2.5634568753554463
0.15229999999999988,-2.5705304318547717
0.15129999999999988,-2.5776039883540967
0.15029999999999988,-2.584677544853422
0.14929999999999988,-2.5931658126526123
0.14829999999999988,-2.6016540804518025
0.14729999999999988,-2.6087276369511274
0.14629999999999987,-2.615801193450453
0.14529999999999987,-2.6257041725495083
0.14429999999999987,-2.6327777290488332
0.14329999999999987,-2.641265996848024
0.14229999999999987,-2.6497542646472136
0.14129999999999987,-2.656827821146539
0.14029999999999987,-2.662486666345999
0.13929999999999987,-2.669560222845324
0.13829999999999987,-2.6794632019443796
0.13729999999999987,-2.689366181043435
0.13629999999999987,-2.7035132940420854
0.13529999999999986,-2.7134162731411404
0.13429999999999986,-2.7148309844410052
0.13329999999999986,-2.7176604070407357
0.13229999999999986,-2.7247339635400607
0.13129999999999986,-2.7318075200393857
0.13029999999999986,-2.740295787838576
0.12929999999999986,-2.7473693443379013
0.12829999999999986,-2.7572723234369563
0.12729999999999986,-2.765760591236147
0.12629999999999986,-2.7714194364356066
0.12529999999999986,-2.778492992934932
0.12429999999999986,-2.7869812607341222
0.12329999999999985,-2.794054817233447
0.12229999999999985,-2.8025430850326374
0.12129999999999985,-2.8082019302320975
0.12029999999999985,-2.8166901980312877
0.11929999999999985,-2.823763754530613
0.11829999999999985,-2.8308373110299385
0.11729999999999985,-2.8379108675292635
0.11629999999999985,-2.844984424028589
0.11529999999999985,-2.8506432692280486
0.11429999999999985,-2.8605462483271045
0.11329999999999985,-2.866205093526564
0.11229999999999984,-2.8732786500258896
0.11129999999999984,-2.8817669178250793
0.11029999999999984,-2.888840474324405
0.10929999999999984,-2.897328742123595
0.10829999999999984,-2.9044022986229203
0.10729999999999984,-2.9114758551222453
0.10629999999999984,-2.9185494116215707
0.10529999999999984,-2.927037679420761
0.10429999999999984,-2.932696524620221
0.10329999999999984,-2.9397700811195464
0.10229999999999984,-2.945428926319006
0.10129999999999983,-2.9525024828183315
0.10029999999999983,-2.9595760393176564
0.09929999999999983,-2.9666495958169823
0.09829999999999983,-2.973723152316307
0.09729999999999983,-2.9793819975157674
0.09629999999999983,-2.9864555540150928
0.09529999999999983,-2.9935291105144173
0.09429999999999983,-3.000602667013743
0.09329999999999983,-3.0076762235130676
0.09229999999999983,-3.0147497800123935
0.09129999999999983,-3.021823336511718
0.09029999999999982,-3.0274821817111786
0.08929999999999982,-3.034555738210504
0.08829999999999982,-3.041629294709829
0.08729999999999982,-3.047288139909289
0.08629999999999982,-3.055776407708479
0.08529999999999982,-3.0628499642078046
0.08429999999999982,-3.0685088094072643
0.08329999999999982,-3.0755823659065897
0.08229999999999982,-3.08407063370578
0.08129999999999982,-3.08690005630551
0.08029999999999982,-3.09255890150497
0.07929999999999982,-3.0968030354045655
0.07829999999999981,-3.1038765919038904
0.07729999999999981,-3.110950148403216
0.07629999999999981,-3.1166089936026755
0.07529999999999992,-3.120853127502271
0.07429999999999992,-3.1279266840015962
0.07329999999999992,-3.1335855292010564
0.07229999999999992,-3.1378296631006513
0.07129999999999992,-3.1434885083001114
0.07029999999999992,-3.1491473534995715
0.06929999999999992,-3.1548061986990317
0.06829999999999992,-3.161879755198357
0.06729999999999992,-3.167538600397817
0.06629999999999991,-3.171782734297412
0.06529999999999991,-3.1774415794968722
0.06429999999999991,-3.1845151359961976
0.06329999999999991,-3.1901739811956578
0.06229999999999991,-3.1944181150952526
0.06129999999999991,-3.201491671594578
0.06029999999999991,-3.205735805494173
0.05929999999999991,-3.211394650693633
0.05829999999999991,-3.2184682071929585
0.05729999999999991,-3.2212976297926885
0.056299999999999906,-3.2241270523924186
0.055299999999999905,-3.2297858975918787
0.054299999999999904,-3.235444742791339
0.0532999999999999,-3.2396888766909337
0.0522999999999999,-3.2453477218903943
0.0512999999999999,-3.2481771444901244
0.0502999999999999,-3.2552507009894494
0.0492999999999999,-3.2594948348890447
0.0482999999999999,-3.265153680088505
0.0472999999999999,-3.2693978139880997
0.0462999999999999,-3.27222723658783
0.045299999999999896,-3.276471370487425
0.044299999999999895,-3.3118391529840507
0.043299999999999894,-3.3316451111821612
0.04229999999999989,-3.316083286883646
0.04129999999999989,-3.3061803077845906
0.04029999999999989,-3.307595019084456
0.03929999999999989,-3.310424441684186
0.03829999999999989,-3.3118391529840507
0.03729999999999989,-3.316083286883646
0.03629999999999989,-3.3203274207832414
0.03529999999999989,-3.325986265982701
0.034299999999999886,-3.3316451111821612
0.033299999999999885,-3.335889245081757
0.032299999999999884,-3.3415480902812167
0.031299999999999883,-3.3457922241808116
0.030299999999999883,-3.3486216467805416
0.02929999999999988,-3.355695203279867
0.02829999999999988,-3.361354048479327
0.02729999999999988,-3.3670128936787878
0.02629999999999988,-3.3726717388782474
0.025299999999999878,-3.3783305840777076
0.024299999999999877,-3.3839894292771677
0.023299999999999876,-3.3910629857764927
0.022299999999999875,-3.3953071196760884
0.021299999999999875,-3.402380676175413
0.020299999999999874,-3.408039521374873
0.019299999999999873,-3.4179425004739286
0.018299999999999872,-3.430674902172714
0.01729999999999987,-3.4448220151713644
0.01629999999999987,-3.453310282970554
0.01529999999999987,-3.4632132620696097
0.014299999999999868,-3.4717015298688
0.013299999999999867,-3.4787750863681253
0.012299999999999978,-3.4858486428674507
0.011299999999999866,-3.492922199366775
0.010299999999999976,-3.502825178465831
0.009299999999999864,-3.512728157564886
0.008299999999999974,-3.522631136663941
0.007299999999999862,-3.532534115762996
0.006299999999999972,-3.542437094862052
0.00529999999999986,-3.552340073961107
0.0042999999999999705,-3.5650724756598926
0.0032999999999998586,-3.576390166058813
0.0022999999999999687,-3.5877078564577327
0.0012999999999998568,-3.5961961242569234
0.00029999999999996696,-3.6075138146558436
-0.000700000000000145,-3.6202462163546287
-0.0017000000000000348,-3.6315639067535495
-0.0027000000000001467,-3.64288159715247
-0.0037000000000000366,-3.6556139988512544
-0.0047000000000001485,-3.669761111849905
-0.005700000000000038,-3.681078802248825
-0.00670000000000015,-3.693811203947611
-0.00770000000000004,-3.707958316946261
-0.008700000000000152,-3.7235201412447765
-0.009700000000000042,-3.7376672542434273
-0.010700000000000154,-3.7532290785419424
-0.011700000000000044,-3.7673761915405932
-0.012700000000000156,-3.780108593239378
-0.013700000000000045,-3.7928409949381634
-0.014700000000000157,-3.8069881079368133
-0.015700000000000047,-3.822549932235329
-0.01670000000000016,-3.838111756533844
-0.01770000000000005,-3.85367358083236
-0.01870000000000016,-3.86782069383101
-0.01970000000000005,-3.8833825181295256
-0.020700000000000163,-3.8989443424280408
-0.021700000000000053,-3.927238568425342
-0.022700000000000164,-3.9385562588242617
-0.023700000000000054,-3.9484592379233177
-0.024700000000000166,-3.9640210622218324
-0.025700000000000056,-3.979582886520348
-0.026700000000000168,-3.9979741334185936
-0.027700000000000058,-4.013535957717109
-0.02870000000000017,-4.029097782015624
-0.02970000000000006,-4.046074317614004
-0.03070000000000017,-4.063050853212385
-0.03170000000000006,-4.080027388810766
-0.03270000000000017,-4.095589213109282
-0.03370000000000006,-4.109736326107932
-0.034700000000000175,-4.128127573006177
-0.035700000000000065,-4.146518819904423
-0.03670000000000018,-4.162080644202938
-0.03770000000000007,-4.180471891101184
-0.03870000000000018,-4.197448426699564
-0.03970000000000007,-4.214424962297944
-0.04070000000000018,-4.234230920496055
-0.04170000000000007,-4.2526221673943
-0.04270000000000018,-4.272428125592412
-0.04370000000000007,-4.2936487950903865
-0.044700000000000184,-4.309210619388901
-0.045700000000000074,-4.324772443687417
-0.046700000000000186,-4.341748979285797
-0.047700000000000076,-4.358725514884178
-0.04870000000000019,-4.377116761782423
-0.04970000000000008,-4.394093297380804
-0.05070000000000019,-4.415313966878779
-0.05170000000000008,-4.43511992507689
-0.05270000000000019,-4.457755305874731
-0.05370000000000008,-4.476146552772976
-0.05470000000000019,-4.491708377071491
-0.05570000000000008,-4.515758469169198
-0.056700000000000195,-4.534149716067443
-0.057700000000000085,-4.552540962965688
-0.058700000000000196,-4.573761632463664
-0.059700000000000086,-4.592152879361908
-0.0607000000000002,-4.61195883756002
-0.06170000000000009,-4.633179507057995
-0.0627000000000002,-4.654400176555971
-0.06370000000000009,-4.671376712154351
-0.0647000000000002,-4.692597381652327
-0.06570000000000009,-4.7138180511503025
-0.0667000000000002,-4.736453431948143
-0.0677000000000001,-4.757674101446118
-0.0687000000000002,-4.778894770944094
-0.0697000000000001,-4.800115440442069
-0.07070000000000021,-4.819921398640179
-0.0717000000000001,-4.841142068138156
-0.07270000000000021,-4.863777448935997
-0.0737000000000001,-4.8849981184339715
-0.07470000000000021,-4.909048210531677
-0.0757000000000001,-4.931683591329518
-0.07670000000000021,-4.952904260827493
-0.0777000000000001,-4.974124930325469
-0.07870000000000021,-4.996760311123309
-0.0797000000000001,-5.01939569192115
-0.08070000000000022,-5.043445784018855
-0.0817000000000001,-5.063251742216966
-0.08270000000000022,-5.087301834314672
-0.08370000000000011,-5.111351926412377
-0.08470000000000022,-5.133987307210218
-0.08570000000000011,-5.158037399307924
-0.08670000000000022,-5.18208749140563
-0.08770000000000011,-5.2061375835033346
-0.08870000000000022,-5.231602386900906
-0.08970000000000011,-5.257067190298477
