Sept. 8, 2024   16:55:36
Cyclic Voltammetry
File: c:/users/guazh/data/20240903_batch_252_500/2024-09-03-exp299\exp299-2024-09-08t16_47_10-h2koh\exp299_cv_sr_700mvs_efin_-1400mv.bin
Data Source:  Experiment
Instrument Model:  CHI760E
Header: CV ran at 700 mVs
Note: 

Init E (V) = -1
High E (V) = -1
Low E (V) = -1.4
Final E (V) = -1
Init P/N = N
Scan Rate (V/s) = 0.7
Segment = 3
Sample Interval (V) = 0.001
Quiet Time (sec) = 2
Sensitivity (A/V) = 0.01
Comp R (ohm) = 2.0

Results:

Channel 1:
Segment 1:

Segment 2:

Segment 3:

Potential/V, Current/A

-1.000, 4.640e-5
-1.001, 1.821e-4
-1.002, 2.931e-4
-1.003, 3.855e-4
-1.004, 4.626e-4
-1.005, 5.274e-4
-1.006, 5.798e-4
-1.007, 6.260e-4
-1.008, 6.630e-4
-1.009, 6.969e-4
-1.010, 7.185e-4
-1.011, 7.432e-4
-1.012, 7.617e-4
-1.013, 7.771e-4
-1.014, 7.956e-4
-1.015, 8.048e-4
-1.016, 8.172e-4
-1.017, 8.295e-4
-1.018, 8.388e-4
-1.019, 8.480e-4
-1.020, 8.511e-4
-1.021, 8.542e-4
-1.022, 8.603e-4
-1.023, 8.634e-4
-1.024, 8.665e-4
-1.025, 8.665e-4
-1.026, 8.696e-4
-1.027, 8.727e-4
-1.028, 8.758e-4
-1.029, 8.788e-4
-1.030, 8.819e-4
-1.031, 8.819e-4
-1.032, 8.788e-4
-1.033, 8.788e-4
-1.034, 8.758e-4
-1.035, 8.727e-4
-1.036, 8.696e-4
-1.037, 8.665e-4
-1.038, 8.634e-4
-1.039, 8.634e-4
-1.040, 8.603e-4
-1.041, 8.573e-4
-1.042, 8.573e-4
-1.043, 8.511e-4
-1.044, 8.542e-4
-1.045, 8.573e-4
-1.046, 8.603e-4
-1.047, 8.634e-4
-1.048, 8.696e-4
-1.049, 8.727e-4
-1.050, 8.758e-4
-1.051, 8.819e-4
-1.052, 8.881e-4
-1.053, 8.881e-4
-1.054, 8.912e-4
-1.055, 8.881e-4
-1.056, 8.881e-4
-1.057, 8.881e-4
-1.058, 8.881e-4
-1.059, 8.881e-4
-1.060, 8.850e-4
-1.061, 8.881e-4
-1.062, 8.881e-4
-1.063, 8.881e-4
-1.064, 8.881e-4
-1.065, 8.943e-4
-1.066, 8.943e-4
-1.067, 8.943e-4
-1.068, 8.973e-4
-1.069, 8.973e-4
-1.070, 8.973e-4
-1.071, 8.973e-4
-1.072, 8.973e-4
-1.073, 8.973e-4
-1.074, 9.004e-4
-1.075, 9.004e-4
-1.076, 9.035e-4
-1.077, 9.035e-4
-1.078, 9.066e-4
-1.079, 9.066e-4
-1.080, 9.035e-4
-1.081, 9.035e-4
-1.082, 9.035e-4
-1.083, 9.035e-4
-1.084, 9.066e-4
-1.085, 9.097e-4
-1.086, 9.128e-4
-1.087, 9.097e-4
-1.088, 9.097e-4
-1.089, 9.128e-4
-1.090, 9.097e-4
-1.091, 9.097e-4
-1.092, 9.097e-4
-1.093, 9.097e-4
-1.094, 9.128e-4
-1.095, 9.158e-4
-1.096, 9.158e-4
-1.097, 9.189e-4
-1.098, 9.220e-4
-1.099, 9.220e-4
-1.100, 9.220e-4
-1.101, 9.189e-4
-1.102, 9.158e-4
-1.103, 9.128e-4
-1.104, 9.158e-4
-1.105, 9.220e-4
-1.106, 9.251e-4
-1.107, 9.282e-4
-1.108, 9.313e-4
-1.109, 9.282e-4
-1.110, 9.282e-4
-1.111, 9.282e-4
-1.112, 9.282e-4
-1.113, 9.282e-4
-1.114, 9.313e-4
-1.115, 9.282e-4
-1.116, 9.251e-4
-1.117, 9.251e-4
-1.118, 9.282e-4
-1.119, 9.282e-4
-1.120, 9.282e-4
-1.121, 9.282e-4
-1.122, 9.313e-4
-1.123, 9.282e-4
-1.124, 9.282e-4
-1.125, 9.282e-4
-1.126, 9.251e-4
-1.127, 9.251e-4
-1.128, 9.220e-4
-1.129, 9.251e-4
-1.130, 9.251e-4
-1.131, 9.282e-4
-1.132, 9.313e-4
-1.133, 9.343e-4
-1.134, 9.374e-4
-1.135, 9.405e-4
-1.136, 9.436e-4
-1.137, 9.467e-4
-1.138, 9.436e-4
-1.139, 9.436e-4
-1.140, 9.436e-4
-1.141, 9.436e-4
-1.142, 9.467e-4
-1.143, 9.498e-4
-1.144, 9.528e-4
-1.145, 9.528e-4
-1.146, 9.498e-4
-1.147, 9.467e-4
-1.148, 9.436e-4
-1.149, 9.405e-4
-1.150, 9.436e-4
-1.151, 9.467e-4
-1.152, 9.528e-4
-1.153, 9.528e-4
-1.154, 9.528e-4
-1.155, 9.498e-4
-1.156, 9.498e-4
-1.157, 9.559e-4
-1.158, 9.621e-4
-1.159, 9.683e-4
-1.160, 9.652e-4
-1.161, 9.652e-4
-1.162, 9.621e-4
-1.163, 9.652e-4
-1.164, 9.806e-4
-1.165, 9.898e-4
-1.166, 1.002e-3
-1.167, 1.008e-3
-1.168, 1.008e-3
-1.169, 1.011e-3
-1.170, 1.014e-3
-1.171, 1.018e-3
-1.172, 1.021e-3
-1.173, 1.024e-3
-1.174, 1.027e-3
-1.175, 1.027e-3
-1.176, 1.027e-3
-1.177, 1.027e-3
-1.178, 1.027e-3
-1.179, 1.030e-3
-1.180, 1.036e-3
-1.181, 1.039e-3
-1.182, 1.045e-3
-1.183, 1.039e-3
-1.184, 1.039e-3
-1.185, 1.036e-3
-1.186, 1.036e-3
-1.187, 1.036e-3
-1.188, 1.033e-3
-1.189, 1.033e-3
-1.190, 1.036e-3
-1.191, 1.039e-3
-1.192, 1.045e-3
-1.193, 1.051e-3
-1.194, 1.055e-3
-1.195, 1.064e-3
-1.196, 1.070e-3
-1.197, 1.082e-3
-1.198, 1.088e-3
-1.199, 1.098e-3
-1.200, 1.101e-3
-1.201, 1.107e-3
-1.202, 1.113e-3
-1.203, 1.122e-3
-1.204, 1.132e-3
-1.205, 1.135e-3
-1.206, 1.141e-3
-1.207, 1.150e-3
-1.208, 1.162e-3
-1.209, 1.172e-3
-1.210, 1.178e-3
-1.211, 1.181e-3
-1.212, 1.187e-3
-1.213, 1.193e-3
-1.214, 1.196e-3
-1.215, 1.196e-3
-1.216, 1.193e-3
-1.217, 1.193e-3
-1.218, 1.190e-3
-1.219, 1.196e-3
-1.220, 1.199e-3
-1.221, 1.203e-3
-1.222, 1.209e-3
-1.223, 1.212e-3
-1.224, 1.218e-3
-1.225, 1.221e-3
-1.226, 1.224e-3
-1.227, 1.233e-3
-1.228, 1.240e-3
-1.229, 1.255e-3
-1.230, 1.261e-3
-1.231, 1.270e-3
-1.232, 1.273e-3
-1.233, 1.277e-3
-1.234, 1.283e-3
-1.235, 1.289e-3
-1.236, 1.298e-3
-1.237, 1.307e-3
-1.238, 1.320e-3
-1.239, 1.329e-3
-1.240, 1.338e-3
-1.241, 1.344e-3
-1.242, 1.351e-3
-1.243, 1.357e-3
-1.244, 1.366e-3
-1.245, 1.375e-3
-1.246, 1.384e-3
-1.247, 1.391e-3
-1.248, 1.403e-3
-1.249, 1.418e-3
-1.250, 1.431e-3
-1.251, 1.443e-3
-1.252, 1.458e-3
-1.253, 1.471e-3
-1.254, 1.489e-3
-1.255, 1.505e-3
-1.256, 1.520e-3
-1.257, 1.536e-3
-1.258, 1.551e-3
-1.259, 1.569e-3
-1.260, 1.588e-3
-1.261, 1.603e-3
-1.262, 1.622e-3
-1.263, 1.637e-3
-1.264, 1.653e-3
-1.265, 1.671e-3
-1.266, 1.684e-3
-1.267, 1.699e-3
-1.268, 1.714e-3
-1.269, 1.730e-3
-1.270, 1.745e-3
-1.271, 1.767e-3
-1.272, 1.785e-3
-1.273, 1.804e-3
-1.274, 1.819e-3
-1.275, 1.838e-3
-1.276, 1.853e-3
-1.277, 1.869e-3
-1.278, 1.881e-3
-1.279, 1.896e-3
-1.280, 1.912e-3
-1.281, 1.921e-3
-1.282, 1.933e-3
-1.283, 1.955e-3
-1.284, 1.983e-3
-1.285, 2.010e-3
-1.286, 2.032e-3
-1.287, 2.054e-3
-1.288, 2.069e-3
-1.289, 2.084e-3
-1.290, 2.100e-3
-1.291, 2.118e-3
-1.292, 2.143e-3
-1.293, 2.164e-3
-1.294, 2.192e-3
-1.295, 2.217e-3
-1.296, 2.242e-3
-1.297, 2.269e-3
-1.298, 2.303e-3
-1.299, 2.340e-3
-1.300, 2.371e-3
-1.301, 2.402e-3
-1.302, 2.430e-3
-1.303, 2.454e-3
-1.304, 2.482e-3
-1.305, 2.513e-3
-1.306, 2.547e-3
-1.307, 2.584e-3
-1.308, 2.621e-3
-1.309, 2.652e-3
-1.310, 2.676e-3
-1.311, 2.698e-3
-1.312, 2.726e-3
-1.313, 2.756e-3
-1.314, 2.790e-3
-1.315, 2.824e-3
-1.316, 2.855e-3
-1.317, 2.880e-3
-1.318, 2.908e-3
-1.319, 2.945e-3
-1.320, 2.982e-3
-1.321, 3.019e-3
-1.322, 3.049e-3
-1.323, 3.080e-3
-1.324, 3.117e-3
-1.325, 3.157e-3
-1.326, 3.197e-3
-1.327, 3.241e-3
-1.328, 3.274e-3
-1.329, 3.311e-3
-1.330, 3.345e-3
-1.331, 3.376e-3
-1.332, 3.407e-3
-1.333, 3.438e-3
-1.334, 3.475e-3
-1.335, 3.509e-3
-1.336, 3.540e-3
-1.337, 3.586e-3
-1.338, 3.635e-3
-1.339, 3.684e-3
-1.340, 3.740e-3
-1.341, 3.802e-3
-1.342, 3.860e-3
-1.343, 3.913e-3
-1.344, 3.956e-3
-1.345, 4.005e-3
-1.346, 4.061e-3
-1.347, 4.110e-3
-1.348, 4.159e-3
-1.349, 4.218e-3
-1.350, 4.286e-3
-1.351, 4.326e-3
-1.352, 4.372e-3
-1.353, 4.428e-3
-1.354, 4.489e-3
-1.355, 4.554e-3
-1.356, 4.616e-3
-1.357, 4.656e-3
-1.358, 4.699e-3
-1.359, 4.742e-3
-1.360, 4.791e-3
-1.361, 4.841e-3
-1.362, 4.890e-3
-1.363, 4.945e-3
-1.364, 5.001e-3
-1.365, 5.050e-3
-1.366, 5.100e-3
-1.367, 5.146e-3
-1.368, 5.189e-3
-1.369, 5.238e-3
-1.370, 5.297e-3
-1.371, 5.359e-3
-1.372, 5.417e-3
-1.373, 5.467e-3
-1.374, 5.522e-3
-1.375, 5.574e-3
-1.376, 5.630e-3
-1.377, 5.688e-3
-1.378, 5.747e-3
-1.379, 5.809e-3
-1.380, 5.867e-3
-1.381, 5.920e-3
-1.382, 5.969e-3
-1.383, 6.025e-3
-1.384, 6.071e-3
-1.385, 6.126e-3
-1.386, 6.191e-3
-1.387, 6.250e-3
-1.388, 6.308e-3
-1.389, 6.379e-3
-1.390, 6.441e-3
-1.391, 6.499e-3
-1.392, 6.564e-3
-1.393, 6.623e-3
-1.394, 6.691e-3
-1.395, 6.761e-3
-1.396, 6.832e-3
-1.397, 6.900e-3
-1.398, 6.965e-3
-1.399, 7.030e-3
-1.400, 6.999e-3
-1.399, 6.808e-3
-1.398, 6.654e-3
-1.397, 6.521e-3
-1.396, 6.398e-3
-1.395, 6.280e-3
-1.394, 6.176e-3
-1.393, 6.074e-3
-1.392, 5.975e-3
-1.391, 5.886e-3
-1.390, 5.799e-3
-1.389, 5.719e-3
-1.388, 5.639e-3
-1.387, 5.565e-3
-1.386, 5.485e-3
-1.385, 5.402e-3
-1.384, 5.309e-3
-1.383, 5.208e-3
-1.382, 5.109e-3
-1.381, 5.010e-3
-1.380, 4.918e-3
-1.379, 4.834e-3
-1.378, 4.757e-3
-1.377, 4.690e-3
-1.376, 4.625e-3
-1.375, 4.557e-3
-1.374, 4.489e-3
-1.373, 4.418e-3
-1.372, 4.344e-3
-1.371, 4.273e-3
-1.370, 4.202e-3
-1.369, 4.132e-3
-1.368, 4.067e-3
-1.367, 3.996e-3
-1.366, 3.925e-3
-1.365, 3.857e-3
-1.364, 3.789e-3
-1.363, 3.725e-3
-1.362, 3.660e-3
-1.361, 3.592e-3
-1.360, 3.527e-3
-1.359, 3.466e-3
-1.358, 3.398e-3
-1.357, 3.333e-3
-1.356, 3.271e-3
-1.355, 3.210e-3
-1.354, 3.145e-3
-1.353, 3.077e-3
-1.352, 3.019e-3
-1.351, 2.960e-3
-1.350, 2.895e-3
-1.349, 2.830e-3
-1.348, 2.766e-3
-1.347, 2.701e-3
-1.346, 2.633e-3
-1.345, 2.571e-3
-1.344, 2.516e-3
-1.343, 2.460e-3
-1.342, 2.402e-3
-1.341, 2.346e-3
-1.340, 2.291e-3
-1.339, 2.238e-3
-1.338, 2.189e-3
-1.337, 2.143e-3
-1.336, 2.100e-3
-1.335, 2.047e-3
-1.334, 1.998e-3
-1.333, 1.952e-3
-1.332, 1.909e-3
-1.331, 1.865e-3
-1.330, 1.825e-3
-1.329, 1.791e-3
-1.328, 1.751e-3
-1.327, 1.714e-3
-1.326, 1.674e-3
-1.325, 1.637e-3
-1.324, 1.606e-3
-1.323, 1.573e-3
-1.322, 1.542e-3
-1.321, 1.505e-3
-1.320, 1.471e-3
-1.319, 1.431e-3
-1.318, 1.394e-3
-1.317, 1.354e-3
-1.316, 1.310e-3
-1.315, 1.261e-3
-1.314, 1.212e-3
-1.313, 1.162e-3
-1.312, 1.113e-3
-1.311, 1.064e-3
-1.310, 1.024e-3
-1.309, 9.806e-4
-1.308, 9.436e-4
-1.307, 9.035e-4
-1.306, 8.665e-4
-1.305, 8.295e-4
-1.304, 7.925e-4
-1.303, 7.555e-4
-1.302, 7.185e-4
-1.301, 6.846e-4
-1.300, 6.445e-4
-1.299, 6.106e-4
-1.298, 5.767e-4
-1.297, 5.397e-4
-1.296, 5.089e-4
-1.295, 4.780e-4
-1.294, 4.503e-4
-1.293, 4.195e-4
-1.292, 3.917e-4
-1.291, 3.640e-4
-1.290, 3.331e-4
-1.289, 3.023e-4
-1.288, 2.715e-4
-1.287, 2.437e-4
-1.286, 2.129e-4
-1.285, 1.882e-4
-1.284, 1.605e-4
-1.283, 1.358e-4
-1.282, 1.111e-4
-1.281, 8.340e-5
-1.280, 5.873e-5
-1.279, 3.099e-5
-1.278, 6.322e-6
-1.277, -1.834e-5
-1.276, -4.609e-5
-1.275, -6.767e-5
-1.274, -8.925e-5
-1.273, -1.108e-4
-1.272, -1.324e-4
-1.271, -1.571e-4
-1.270, -1.756e-4
-1.269, -1.972e-4
-1.268, -2.187e-4
-1.267, -2.403e-4
-1.266, -2.588e-4
-1.265, -2.804e-4
-1.264, -3.020e-4
-1.263, -3.205e-4
-1.262, -3.421e-4
-1.261, -3.606e-4
-1.260, -3.760e-4
-1.259, -3.914e-4
-1.258, -4.068e-4
-1.257, -4.284e-4
-1.256, -4.438e-4
-1.255, -4.623e-4
-1.254, -4.777e-4
-1.253, -4.962e-4
-1.252, -5.116e-4
-1.251, -5.271e-4
-1.250, -5.425e-4
-1.249, -5.579e-4
-1.248, -5.702e-4
-1.247, -5.826e-4
-1.246, -5.980e-4
-1.245, -6.103e-4
-1.244, -6.257e-4
-1.243, -6.380e-4
-1.242, -6.504e-4
-1.241, -6.627e-4
-1.240, -6.750e-4
-1.239, -6.905e-4
-1.238, -6.997e-4
-1.237, -7.090e-4
-1.236, -7.182e-4
-1.235, -7.244e-4
-1.234, -7.336e-4
-1.233, -7.429e-4
-1.232, -7.552e-4
-1.231, -7.645e-4
-1.230, -7.768e-4
-1.229, -7.860e-4
-1.228, -7.953e-4
-1.227, -8.015e-4
-1.226, -8.076e-4
-1.225, -8.169e-4
-1.224, -8.230e-4
-1.223, -8.292e-4
-1.222, -8.323e-4
-1.221, -8.354e-4
-1.220, -8.415e-4
-1.219, -8.539e-4
-1.218, -8.662e-4
-1.217, -8.785e-4
-1.216, -8.909e-4
-1.215, -9.032e-4
-1.214, -9.094e-4
-1.213, -9.186e-4
-1.212, -9.279e-4
-1.211, -9.371e-4
-1.210, -9.464e-4
-1.209, -9.587e-4
-1.208, -9.649e-4
-1.207, -9.741e-4
-1.206, -9.803e-4
-1.205, -9.864e-4
-1.204, -9.926e-4
-1.203, -9.957e-4
-1.202, -1.002e-3
-1.201, -1.011e-3
-1.200, -1.011e-3
-1.199, -1.014e-3
-1.198, -1.014e-3
-1.197, -1.017e-3
-1.196, -1.020e-3
-1.195, -1.027e-3
-1.194, -1.033e-3
-1.193, -1.039e-3
-1.192, -1.042e-3
-1.191, -1.045e-3
-1.190, -1.045e-3
-1.189, -1.048e-3
-1.188, -1.051e-3
-1.187, -1.057e-3
-1.186, -1.060e-3
-1.185, -1.067e-3
-1.184, -1.070e-3
-1.183, -1.073e-3
-1.182, -1.076e-3
-1.181, -1.082e-3
-1.180, -1.088e-3
-1.179, -1.091e-3
-1.178, -1.097e-3
-1.177, -1.101e-3
-1.176, -1.104e-3
-1.175, -1.107e-3
-1.174, -1.104e-3
-1.173, -1.104e-3
-1.172, -1.110e-3
-1.171, -1.116e-3
-1.170, -1.119e-3
-1.169, -1.125e-3
-1.168, -1.128e-3
-1.167, -1.131e-3
-1.166, -1.131e-3
-1.165, -1.131e-3
-1.164, -1.134e-3
-1.163, -1.134e-3
-1.162, -1.138e-3
-1.161, -1.141e-3
-1.160, -1.144e-3
-1.159, -1.144e-3
-1.158, -1.144e-3
-1.157, -1.147e-3
-1.156, -1.147e-3
-1.155, -1.147e-3
-1.154, -1.147e-3
-1.153, -1.150e-3
-1.152, -1.150e-3
-1.151, -1.150e-3
-1.150, -1.153e-3
-1.149, -1.153e-3
-1.148, -1.156e-3
-1.147, -1.156e-3
-1.146, -1.159e-3
-1.145, -1.156e-3
-1.144, -1.156e-3
-1.143, -1.159e-3
-1.142, -1.162e-3
-1.141, -1.165e-3
-1.140, -1.165e-3
-1.139, -1.159e-3
-1.138, -1.156e-3
-1.137, -1.156e-3
-1.136, -1.156e-3
-1.135, -1.153e-3
-1.134, -1.156e-3
-1.133, -1.156e-3
-1.132, -1.153e-3
-1.131, -1.153e-3
-1.130, -1.153e-3
-1.129, -1.156e-3
-1.128, -1.156e-3
-1.127, -1.159e-3
-1.126, -1.159e-3
-1.125, -1.159e-3
-1.124, -1.159e-3
-1.123, -1.159e-3
-1.122, -1.162e-3
-1.121, -1.162e-3
-1.120, -1.162e-3
-1.119, -1.162e-3
-1.118, -1.159e-3
-1.117, -1.156e-3
-1.116, -1.159e-3
-1.115, -1.162e-3
-1.114, -1.162e-3
-1.113, -1.165e-3
-1.112, -1.165e-3
-1.111, -1.165e-3
-1.110, -1.165e-3
-1.109, -1.162e-3
-1.108, -1.165e-3
-1.107, -1.165e-3
-1.106, -1.165e-3
-1.105, -1.162e-3
-1.104, -1.162e-3
-1.103, -1.159e-3
-1.102, -1.162e-3
-1.101, -1.162e-3
-1.100, -1.165e-3
-1.099, -1.168e-3
-1.098, -1.168e-3
-1.097, -1.168e-3
-1.096, -1.168e-3
-1.095, -1.168e-3
-1.094, -1.165e-3
-1.093, -1.162e-3
-1.092, -1.159e-3
-1.091, -1.159e-3
-1.090, -1.162e-3
-1.089, -1.162e-3
-1.088, -1.162e-3
-1.087, -1.156e-3
-1.086, -1.156e-3
-1.085, -1.150e-3
-1.084, -1.147e-3
-1.083, -1.150e-3
-1.082, -1.153e-3
-1.081, -1.153e-3
-1.080, -1.159e-3
-1.079, -1.159e-3
-1.078, -1.156e-3
-1.077, -1.153e-3
-1.076, -1.153e-3
-1.075, -1.153e-3
-1.074, -1.153e-3
-1.073, -1.153e-3
-1.072, -1.156e-3
-1.071, -1.159e-3
-1.070, -1.153e-3
-1.069, -1.153e-3
-1.068, -1.153e-3
-1.067, -1.153e-3
-1.066, -1.156e-3
-1.065, -1.156e-3
-1.064, -1.153e-3
-1.063, -1.153e-3
-1.062, -1.150e-3
-1.061, -1.141e-3
-1.060, -1.138e-3
-1.059, -1.134e-3
-1.058, -1.138e-3
-1.057, -1.144e-3
-1.056, -1.147e-3
-1.055, -1.150e-3
-1.054, -1.156e-3
-1.053, -1.156e-3
-1.052, -1.159e-3
-1.051, -1.159e-3
-1.050, -1.156e-3
-1.049, -1.153e-3
-1.048, -1.150e-3
-1.047, -1.147e-3
-1.046, -1.144e-3
-1.045, -1.144e-3
-1.044, -1.147e-3
-1.043, -1.144e-3
-1.042, -1.144e-3
-1.041, -1.144e-3
-1.040, -1.147e-3
-1.039, -1.147e-3
-1.038, -1.144e-3
-1.037, -1.144e-3
-1.036, -1.141e-3
-1.035, -1.131e-3
-1.034, -1.125e-3
-1.033, -1.119e-3
-1.032, -1.119e-3
-1.031, -1.122e-3
-1.030, -1.125e-3
-1.029, -1.128e-3
-1.028, -1.138e-3
-1.027, -1.144e-3
-1.026, -1.147e-3
-1.025, -1.147e-3
-1.024, -1.150e-3
-1.023, -1.150e-3
-1.022, -1.156e-3
-1.021, -1.162e-3
-1.020, -1.165e-3
-1.019, -1.168e-3
-1.018, -1.175e-3
-1.017, -1.184e-3
-1.016, -1.190e-3
-1.015, -1.199e-3
-1.014, -1.205e-3
-1.013, -1.208e-3
-1.012, -1.215e-3
-1.011, -1.221e-3
-1.010, -1.227e-3
-1.009, -1.233e-3
-1.008, -1.239e-3
-1.007, -1.239e-3
-1.006, -1.242e-3
-1.005, -1.242e-3
-1.004, -1.245e-3
-1.003, -1.245e-3
-1.002, -1.242e-3
-1.001, -1.233e-3
