Potential V vs RHE, Current mA cm-2
0.013299999999999867,2.040013694405383
0.012299999999999978,1.0134991752233122
0.011299999999999866,0.10470278330301136
0.010299999999999976,-0.7970483463439616
0.009299999999999864,-1.4045253785060083
0.008299999999999974,-1.9112749661176645
0.007299999999999862,-2.5662862979551764
0.006299999999999972,-3.0628499642078046
0.00529999999999986,-3.3641834710790572
0.0042999999999999705,-3.825379354835059
0.0032999999999998586,-4.254036878694166
0.0022999999999999687,-4.478975975372705
0.0012999999999998568,-4.794456595242609
0.00029999999999996696,-5.2259435417014455
-0.000700000000000145,-5.460785617479042
-0.0017000000000000348,-5.658845199460147
-0.0027000000000001467,-6.025255426125191
-0.0037000000000000366,-6.268585769701978
-0.0047000000000001485,-6.37327440589199
-0.005700000000000038,-6.664704933664188
-0.00670000000000015,-6.9434030597376
-0.00770000000000004,-7.042432850728153
-0.008700000000000152,-7.241907144009123
-0.009700000000000042,-7.582852567276596
-0.010700000000000154,-7.729982542462561
-0.011700000000000044,-7.838915312552168
-0.012700000000000156,-8.133175262924096
-0.013700000000000045,-8.317087731906552
-0.014700000000000157,-8.368017338701693
-0.015700000000000047,-8.591541724080368
-0.01670000000000016,-8.832042645057424
-0.01770000000000005,-8.89570465355135
-0.01870000000000016,-9.0555670304361
-0.01970000000000005,-9.348412269508163
-0.020700000000000163,-9.444612637898985
-0.021700000000000053,-9.502615801193452
-0.022700000000000164,-9.771410948167809
-0.023700000000000054,-9.939761592851747
-0.024700000000000166,-9.982202931847699
-0.025700000000000056,-10.234021543223676
-0.026700000000000168,-10.48018130940019
-0.027700000000000058,-10.511304957997222
-0.02870000000000017,-10.652776087983725
-0.02970000000000006,-10.894691720260647
-0.03070000000000017,-10.961183151354303
-0.03170000000000006,-11.023430448548366
-0.03270000000000017,-11.287981461623128
-0.03370000000000006,-11.467649796705988
-0.034700000000000175,-11.514335269601535
-0.035700000000000065,-11.77747157137643
-0.03670000000000018,-12.039193161851461
-0.03770000000000007,-12.053340274850113
-0.03870000000000018,-12.186323137037425
-0.03970000000000007,-12.426824058014482
-0.04070000000000018,-12.503218468207196
-0.04170000000000007,-12.582442300999638
-0.04270000000000018,-12.848408025374262
-0.04370000000000007,-13.032320494356718
-0.044700000000000184,-13.053541163854694
-0.045700000000000074,-13.279894971833098
-0.046700000000000186,-13.524640026709752
-0.047700000000000076,-13.537372428408537
-0.04870000000000019,-13.67035529059585
-0.04970000000000008,-13.937735726270342
-0.05070000000000019,-13.977347642666562
-0.05170000000000008,-14.050912630259544
-0.05270000000000019,-14.288584128636872
-0.05370000000000008,-14.430055258623375
-0.05470000000000019,-14.458349484620674
-0.05570000000000008,-14.65640906660178
-0.056700000000000195,-14.868615761581536
-0.057700000000000085,-14.882762874580186
-0.058700000000000196,-15.01008689156804
-0.059700000000000086,-15.335470490536997
-0.0607000000000002,-15.4203531685289
-0.06170000000000009,-15.4769416205235
-0.0627000000000002,-15.689148315503255
-0.06370000000000009,-15.78817810649381
-0.0647000000000002,-15.830619445489761
-0.06570000000000009,-16.085267479465468
-0.0667000000000002,-16.311621287443874
-0.0677000000000001,-16.325768400442524
-0.0687000000000002,-16.410651078434423
-0.0697000000000001,-16.651151999411482
-0.07070000000000021,-16.70774045140608
-0.0717000000000001,-16.736034677403385
-0.07270000000000021,-16.962388485381787
-0.0737000000000001,-17.07556538937099
-0.07470000000000021,-17.103859615368293
-0.0757000000000001,-17.301919197349395
-0.07670000000000021,-17.48583166633185
-0.0777000000000001,-17.471684553333205
-0.07870000000000021,-17.584861457322408
-0.0797000000000001,-17.881950830294063
-0.08070000000000022,-17.995127734283265
-0.0817000000000001,-18.05171618627787
-0.08270000000000022,-18.249775768258974
-0.08370000000000011,-18.292217107254928
-0.08470000000000022,-18.249775768258974
-0.08570000000000011,-18.433688237241427
-0.08670000000000022,-18.674189158218486
-0.08770000000000011,-18.716630497214435
-0.08870000000000022,-18.78736606220769
-0.08970000000000011,-19.01371987018609
-0.09070000000000022,-19.027866983184744
-0.09170000000000011,-19.056161209182044
-0.09270000000000023,-19.28251501716045
-0.09370000000000012,-19.367397695152352
-0.09470000000000023,-19.353250582153702
-0.09570000000000012,-19.523015938137508
-0.09670000000000023,-19.69278129412131
-0.09770000000000012,-19.69278129412131
-0.09870000000000023,-19.749369746115914
-0.09970000000000012,-19.98987066709297
-0.10070000000000023,-20.046459119087572
-0.10170000000000012,-20.01816489309027
-0.10270000000000024,-20.21622447507137
-0.10370000000000013,-20.25866581406732
-0.10470000000000024,-20.14548891007812
-0.10570000000000013,-20.272812927065978
-0.10670000000000024,-20.42843117005113
-0.10770000000000013,-20.47087250904708
-0.10870000000000024,-20.668932091028186
-0.10970000000000013,-20.980168576998494
-0.11070000000000024,-20.980168576998494
-0.11170000000000013,-20.89528589900659
-0.11270000000000002,-20.966021463999844
-0.11370000000000013,-20.966021463999844
-0.11470000000000002,-20.994315689997144
-0.11570000000000014,-21.22066949797555
-0.11670000000000003,-21.489464644949905
-0.11770000000000014,-21.51775887094721
-0.11870000000000003,-21.531905983945855
-0.11970000000000014,-21.729965565926964
-0.12070000000000003,-21.701671339929664
-0.12170000000000014,-21.67337711393236
-0.12270000000000003,-21.92802514790807
-0.12370000000000014,-22.04120205189727
-0.12470000000000003,-22.055349164895922
-0.12570000000000014,-22.239261633878378
-0.12670000000000003,-22.40902698986218
-0.12770000000000015,-22.33829142486893
-0.12870000000000004,-22.36658565086623
-0.12970000000000015,-22.578792345845983
-0.13070000000000004,-22.592939458844636
-0.13170000000000015,-22.63538079784059
-0.13270000000000004,-22.861734605818995
-0.13370000000000015,-22.904175944814945
-0.13470000000000004,-22.819293266823045
-0.13570000000000015,-22.932470170812245
-0.13670000000000004,-23.1163826397947
-0.13770000000000016,-23.187118204787954
-0.13870000000000005,-23.328589334774456
-0.13970000000000016,-23.526648916755562
-0.14070000000000005,-23.51250180375691
-0.14170000000000016,-23.48420757775961
-0.14270000000000005,-23.682267159740714
-0.14370000000000016,-23.795444063729917
-0.14470000000000005,-23.795444063729917
-0.14570000000000016,-23.993503645711023
-0.14670000000000005,-24.16326900169483
-0.14770000000000016,-24.106680549700226
-0.14870000000000005,-24.191563227692125
-0.14970000000000017,-24.40376992267188
-0.15070000000000006,-24.460358374666487
-0.15170000000000017,-24.531093939659737
-0.15270000000000006,-24.757447747638142
-0.15370000000000017,-24.9130659906233
-0.15470000000000006,-24.898918877624645
-0.15570000000000017,-25.04039000761115
-0.15670000000000006,-25.210155363594954
-0.15770000000000017,-25.167714024599
-0.15870000000000006,-25.295038041586857
-0.15970000000000018,-25.592127414558515
-0.16070000000000007,-25.662862979551768
-0.16170000000000018,-25.719451431546364
-0.16270000000000007,-25.959952352523427
-0.16370000000000018,-26.073129256512626
-0.16470000000000007,-26.129717708507226
-0.16570000000000018,-26.32777729048833
-0.16670000000000007,-26.525836872469437
-0.16770000000000018,-26.55413109846674
-0.16870000000000007,-26.667308002455943
-0.16970000000000018,-26.936103149430302
-0.17070000000000007,-27.00683871442355
-0.17170000000000019,-27.049280053419505
-0.17270000000000008,-27.247339635400607
-0.1737000000000002,-27.40295787838576
-0.17470000000000008,-27.445399217381713
-0.1757000000000002,-27.64345879936282
-0.17670000000000008,-27.912253946337174
-0.1777000000000002,-27.98298951133043
-0.17870000000000008,-28.18104909331153
-0.1797000000000002,-28.53472691827779
-0.18070000000000008,-28.591315370272387
-0.1817000000000002,-28.53472691827779
-0.18270000000000008,-28.690345161262943
-0.1837000000000002,-28.831816291249446
-0.1847000000000001,-29.001581647233255
-0.1857000000000002,-29.35525947219951
-0.1867000000000001,-29.68064307116847
-0.1877000000000002,-29.779672862159025
-0.1887000000000001,-29.906996879146874
-0.1897000000000002,-30.10505646112798
-0.1907000000000001,-30.161644913122586
-0.1917000000000001,-30.303116043109085
-0.19269999999999998,-30.727529433068593
-0.1937000000000001,-31.052913032037555
-0.19469999999999998,-31.08120725803486
-0.1957000000000001,-31.265119727017314
-0.19669999999999999,-31.57635621298762
-0.1977000000000001,-31.731974455972775
-0.1987,-31.972475376949827
-0.1997000000000001,-32.297858975918786
-0.2007,-32.39688876690934
-0.2017000000000001,-32.4676243319026
-0.2027,-32.73641947887695
-0.2037000000000001,-32.96277328685535
-0.2047,-33.09009730384321
-0.2057000000000001,-33.41548090281216
-0.2067,-33.76915872777842
-0.2077000000000001,-33.86818851876898
-0.2087,-34.09454232674739
-0.2097000000000001,-34.41992592571634
-0.2107,-34.51895571670689
-0.2117000000000001,-34.67457395969205
-0.2127,-34.9716633326637
-0.2137000000000001,-35.098987349651566
-0.2147,-35.198017140642115
-0.2157000000000001,-35.42437094862052
-0.2167,-35.763901660588125
-0.21770000000000012,-35.94781412957058
-0.2187,-36.14587371155169
-0.21970000000000012,-36.5985813275085
-0.2207,-36.8249351354869
-0.22170000000000012,-37.037141830466666
-0.2227,-37.47570233342482
-0.22370000000000012,-37.716203254401876
-0.2247,-37.87182149738703
-0.22570000000000012,-38.18305798335734
-0.2267,-38.46600024333035
-0.22770000000000012,-38.6216184863155
-0.22870000000000001,-38.94700208528445
-0.22970000000000013,-39.51288660523048
-0.23070000000000002,-39.88071154319538
-0.23170000000000013,-40.07877112517649
-0.23270000000000002,-40.30512493315489
-0.23370000000000013,-40.37586049814815
-0.23470000000000002,-40.31927204615355
-0.23570000000000013,-40.559772967130606
-0.23670000000000002,-41.12565748707661
-0.2376999999999999,-41.52177665103883
-0.23870000000000002,-42.01692560599159
-0.2396999999999999,-42.497927447945706
-0.24070000000000003,-42.63939857793221
-0.24169999999999991,-42.681839916928155
-0.24270000000000003,-42.89404661190791
-0.24369999999999992,-43.148694645883616
-0.24470000000000003,-43.44578401885527
-0.24569999999999992,-43.91263874781074
-0.24670000000000003,-44.43608192876081
-0.24769999999999992,-44.634141510741905
-0.24870000000000003,-44.83220109272301
-0.24969999999999992,-45.242467369683865
-0.25070000000000003,-45.42637983866633
-0.2516999999999999,-45.652733646644734
-0.25270000000000004,-46.162029714596144
-0.2536999999999999,-46.544001765559706
-0.25470000000000004,-46.77035557353811
-0.2556999999999999,-47.13818051150302
-0.25670000000000004,-47.506005449467935
-0.25769999999999993,-47.647476579454434
-0.25870000000000004,-47.987007291422046
-0.25969999999999993,-48.49630335937346
-0.26070000000000004,-48.80753984534376
-0.26169999999999993,-49.17536478330867
-0.26270000000000004,-49.656366625262784
-0.26369999999999993,-49.95345599823444
-0.26470000000000005,-50.15151558021555
-0.26569999999999994,-50.491046292183164
-0.26670000000000005,-50.90131256914402
-0.26769999999999994,-51.113519264123774
-0.26870000000000005,-51.33987307210218
-0.26969999999999994,-51.80672780105764
-0.27070000000000005,-52.2735825300131
-0.27169999999999994,-52.62726035497937
-0.27270000000000005,-53.094115083934824
-0.27369999999999994,-53.447792908901086
-0.27470000000000006,-53.65999960388084
-0.27569999999999995,-54.324913914817415
-0.27670000000000006,-55.14544646873913
-0.27769999999999995,-55.21618203373238
-0.27870000000000006,-55.032269564749924
-0.27969999999999995,-55.003975338752625
-0.28070000000000006,-55.07471090374588
-0.28169999999999995,-55.82450789267435
-0.28270000000000006,-56.81480580257987
-0.28369999999999995,-57.352396096528594
-0.28470000000000006,-57.66363258249889
-0.28569999999999995,-57.96072195547055
-0.28670000000000007,-58.22951710244491
-0.28769999999999996,-58.37098823243142
-0.28870000000000007,-58.66807760540307
-0.28969999999999996,-59.26225635134639
-0.29070000000000007,-59.67252262830725
-0.29169999999999996,-60.02620045327351
-0.29270000000000007,-60.47890806923032
-0.29369999999999996,-60.87502723319253
-0.2947000000000001,-61.17211660616418
-0.29569999999999996,-61.53994154412909
-0.2967000000000001,-61.936060708091304
-0.29769999999999996,-62.16241451606972
-0.2987000000000001,-62.629269245025185
-0.29969999999999997,-63.251742216965795
-0.3007000000000001,-63.52053736394014
-0.30169999999999997,-63.71859694592126
-0.3027000000000001,-64.213745900874
-0.30369999999999997,-64.68060062982947
-0.3047000000000001,-64.99183711579978
-0.30569999999999997,-65.40210339276065
-0.3067000000000001,-65.82651678272015
-0.3077,-66.16604749468777
-0.3087000000000001,-66.57631377164863
-0.3097,-67.0997569525987
-0.3107000000000001,-67.42514055156765
-0.3117,-67.86370105452582
-0.3127000000000001,-68.47202691346777
-0.3137,-68.88229319042864
-0.3147000000000001,-69.13694122440434
-0.3157,-69.4906190493706
-0.3167000000000001,-69.78770842234226
-0.3177,-69.9433266653274
-0.3187000000000001,-70.15553336030716
-0.3197,-70.69312365425588
-0.3207000000000001,-71.15997838321134
-0.3217,-71.44292064318435
-0.3227000000000001,-71.90977537213982
-0.3237,-72.24930608410743
-0.3247000000000001,-72.40492432709259
-0.3257,-72.8576319430494
-0.3267000000000001,-73.33863378500351
-0.3277,-73.6498702709738
-0.3287000000000001,-73.98940098294142
-0.3297,-74.44210859889823
-0.3307000000000001,-74.75334508486853
-0.3317,-74.92311044085234
-0.3327000000000001,-75.30508249181591
-0.3337,-75.6729074297808
-0.3347000000000001,-75.71534876877676
-0.3357,-75.99829102874978
-0.3367000000000001,-76.32367462771872
-0.3377,-76.52173420969983
-0.3387000000000001,-76.81882358267148
-0.3397,-77.243236972631
-0.3407000000000001,-77.52617923260401
-0.3417,-77.56862057159996
-0.3427000000000001,-77.82326860557566
-0.3437,-78.29012333453113
-0.3447000000000001,-78.55891848150549
-0.3457,-78.96918475846634
-0.3467000000000001,-79.35115680942992
-0.3477,-79.36530392242857
-0.3487000000000001,-79.50677505241507
-0.3497,-79.95948266837188
-0.3507000000000001,-80.31316049333813
-0.3517,-80.62439697930844
-0.3527000000000001,-80.92148635228011
-0.3537,-81.07710459526525
-0.3547000000000001,-81.006369030272
-0.3557,-81.07710459526525
-0.35670000000000013,-81.21857572525175
-0.3577,-81.16198727325715
-0.35870000000000013,-81.36004685523827
-0.3597,-81.52981221122207
-0.36070000000000013,-81.45907664622881
-0.3617,-81.55810643721937
-0.3626999999999999,-81.77031313219912
-0.3637,-81.86934292318966
-0.3646999999999999,-81.95422560118158
-0.3657,-82.18057940915998
-0.3666999999999999,-82.23716786115457
-0.3677,-81.68543045420722
-0.3686999999999999,-81.21857572525175
-0.36970000000000003,-81.30345840324367
-0.3706999999999999,-81.43078242023151
-0.37170000000000003,-81.69957756720586
-0.3726999999999999,-81.91178426218562
-0.37370000000000003,-81.7986073581964
-0.3746999999999999,-81.57225355021802
-0.37570000000000003,-81.43078242023151
-0.3766999999999999,-81.44492953323017
-0.37770000000000004,-81.13369304725985
-0.3786999999999999,-80.9497805782774
-0.37970000000000004,-81.1761343862558
-0.3806999999999999,-80.9780748042747
-0.38170000000000004,-80.82245656128954
-0.38269999999999993,-80.92148635228011
-0.38370000000000004,-80.70927965730034
-0.38469999999999993,-80.41219028432867
-0.38570000000000004,-80.36974894533273
-0.38669999999999993,-80.31316049333813
-0.38770000000000004,-79.86045287738132
-0.38869999999999993,-79.49262793941642
-0.38970000000000005,-79.3228625834326
-0.39069999999999994,-79.0965087754542
-0.39170000000000005,-78.983331871465
-0.39269999999999994,-79.20968567944341
-0.39370000000000005,-79.4643337134191
-0.39469999999999994,-79.19553856644475
-0.39570000000000005,-78.9267434194704
-0.39669999999999994,-78.64380115949739
-0.39770000000000005,-78.10621086554868
-0.39869999999999994,-78.03547530055542
-0.39970000000000006,-78.09206375255003
-0.40069999999999995,-77.96473973556218
-0.40170000000000006,-77.92229839656622
-0.40269999999999995,-77.93644550956488
-0.40370000000000006,-77.85156283157298
-0.40469999999999995,-77.55447345860131
-0.40570000000000006,-77.32811965062291
-0.40669999999999995,-77.25738408562965
-0.40770000000000006,-77.03103027765125
-0.40869999999999995,-76.98858893865528
-0.40970000000000006,-77.1017658426445
-0.41069999999999995,-76.97444182565664
-0.41170000000000007,-76.79052935667418
-0.41269999999999996,-76.83297069567014
-0.41370000000000007,-76.7622351306769
-0.41469999999999996,-76.53588132269847
-0.41570000000000007,-76.60661688769173
-0.41669999999999996,-76.81882358267148
-0.41770000000000007,-76.86126492166746
-0.41869999999999996,-76.9320004866607
-0.4197000000000001,-77.08761872964584
-0.42069999999999996,-77.17250140763775
-0.4217000000000001,-77.1017658426445
-0.42269999999999996,-77.2998254246256
-0.4237000000000001,-77.46959078060941
-0.42469999999999997,-77.45544366761075
-0.4257000000000001,-77.85156283157298
-0.42669999999999997,-78.12035797854733
-0.4277000000000001,-78.14865220454463
-0.42869999999999997,-78.36085889952437
-0.4297000000000001,-78.45988869051493
-0.43069999999999997,-78.60135982050144
-0.4317000000000001,-78.68624249849334
-0.4327,-78.96918475846634
-0.4337000000000001,-79.39359814842585
-0.4347,-79.45018660042047
-0.4357000000000001,-79.71898174739482
-0.4367,-80.17168936335163
-0.4377000000000001,-80.34145471933543
-0.4387,-80.69513254430169
-0.4397000000000001,-81.06295748226661
-0.4407,-80.99222191727335
-0.4417000000000001,-80.9497805782774
-0.4427,-81.20442861225311
-0.4437000000000001,-81.47322375922747
-0.4447,-81.71372468020452
-0.4457000000000001,-82.19472652215863
-0.4467,-82.64743413811544
-0.4477000000000001,-82.84549372009654
-0.4487,-83.08599464107361
-0.4497000000000001,-83.35478978804795
-0.4507,-83.39723112704392
-0.4517000000000001,-83.48211380503581
-0.4527,-83.8216445170034
-0.4537000000000001,-84.21776368096563
-0.4547,-84.50070594093864
-0.4557000000000001,-84.8543837659049
-0.4567,-85.17976736487385
-0.4577000000000001,-85.30709138186171
-0.4587,-85.46270962484687
-0.4597000000000001,-85.80224033681448
-0.4607,-85.91541724080368
-0.4617000000000001,-85.95785857979962
-0.4627,-86.38227196975915
-0.4637000000000001,-86.7359497947254
-0.4647,-86.9057151507092
-0.4657000000000001,-87.24524586267681
-0.4667,-87.51404100965117
-0.4677000000000001,-87.59892368764307
-0.4687,-87.83942460862012
-0.4697000000000001,-88.12236686859313
-0.4707,-88.17895532058775
-0.4717000000000001,-88.23554377258235
-0.4727,-88.57507448454994
-0.4737000000000001,-88.87216385752161
-0.4747,-88.99948787450946
-0.4757000000000001,-89.32487147347842
-0.4767,-89.60781373345144
-0.4777000000000001,-89.74928486343794
-0.4787,-90.15955114039879
-0.4797000000000001,-90.71128854734616
-0.4807,-91.06496637231241
-0.48170000000000013,-91.44693842327598
-0.4827,-92.04111716921928
-0.48370000000000013,-92.56456035016936
-0.4847,-93.03141507912481
-0.48570000000000013,-93.69632939006138
-0.4867,-93.13044487011537
-0.48570000000000013,-91.24887884129487
-0.4847,-89.76343197643658
-0.48370000000000013,-88.61751582354589
-0.4827,-87.52818812264981
-0.48170000000000013,-86.43886042175373
-0.4807,-85.67491631982661
-0.4797000000000001,-84.86853087890354
-0.4787,-83.73676183901152
-0.4777000000000001,-82.84549372009654
-0.4767,-82.09569673116808
-0.4757000000000001,-81.10539882126255
-0.4747,-80.36974894533273
-0.4737000000000001,-79.7472759733921
-0.4727,-78.8701549674758
-0.4717000000000001,-78.07791663955136
-0.4707,-77.37056098961885
-0.4697000000000001,-76.46514575770523
-0.4687,-75.54558341279296
-0.4677000000000001,-74.8523748758591
-0.4667,-74.21575479091983
-0.4657000000000001,-73.40936934999675
-0.4647,-72.56054257007773
-0.4637000000000001,-71.89562825914116
-0.4627,-71.13168415721405
-0.4617000000000001,-70.26871026429637
