Sept. 14, 2024   01:18:33
Cyclic Voltammetry
File: c:/users/guazh/data/20240903_batch_252_500/2024-09-03-exp347\exp347-2024-09-14t01_13_38-arkoh\exp347_cv_50mvs_efin_-1400mv.bin
Data Source:  Experiment
Instrument Model:  CHI760E
Header: CV ran at 50 mVs
Note: 

Init E (V) = -1
High E (V) = -1
Low E (V) = -1.4
Final E (V) = -1
Init P/N = N
Scan Rate (V/s) = 0.05
Segment = 7
Sample Interval (V) = 0.001
Quiet Time (sec) = 60
Sensitivity (A/V) = 0.001
Comp R (ohm) = 2.0

Results:

Channel 1:
Segment 1:

Segment 2:

Segment 3:

Segment 4:

Segment 5:

Segment 6:

Segment 7:

Potential/V, Current/A

-1.000, 4.092e-7
-1.001, 4.576e-7
-1.002, 4.625e-7
-1.003, 4.665e-7
-1.004, 4.803e-7
-1.005, 4.901e-7
-1.006, 4.970e-7
-1.007, 5.257e-7
-1.008, 5.296e-7
-1.009, 5.345e-7
-1.010, 5.375e-7
-1.011, 5.336e-7
-1.012, 5.553e-7
-1.013, 5.562e-7
-1.014, 5.789e-7
-1.015, 6.006e-7
-1.016, 5.858e-7
-1.017, 6.036e-7
-1.018, 5.918e-7
-1.019, 6.105e-7
-1.020, 6.421e-7
-1.021, 6.362e-7
-1.022, 6.450e-7
-1.023, 6.421e-7
-1.024, 6.677e-7
-1.025, 6.539e-7
-1.026, 6.667e-7
-1.027, 6.766e-7
-1.028, 6.983e-7
-1.029, 6.904e-7
-1.030, 7.220e-7
-1.031, 7.121e-7
-1.032, 6.993e-7
-1.033, 7.092e-7
-1.034, 7.348e-7
-1.035, 7.338e-7
-1.036, 7.348e-7
-1.037, 7.309e-7
-1.038, 7.615e-7
-1.039, 7.585e-7
-1.040, 7.911e-7
-1.041, 7.802e-7
-1.042, 7.733e-7
-1.043, 7.782e-7
-1.044, 7.930e-7
-1.045, 7.871e-7
-1.046, 8.068e-7
-1.047, 7.940e-7
-1.048, 8.197e-7
-1.049, 8.137e-7
-1.050, 8.305e-7
-1.051, 8.463e-7
-1.052, 8.443e-7
-1.053, 8.512e-7
-1.054, 8.621e-7
-1.055, 8.522e-7
-1.056, 8.690e-7
-1.057, 8.522e-7
-1.058, 8.808e-7
-1.059, 8.789e-7
-1.060, 8.848e-7
-1.061, 8.641e-7
-1.062, 8.907e-7
-1.063, 9.055e-7
-1.064, 9.321e-7
-1.065, 9.045e-7
-1.066, 9.213e-7
-1.067, 9.499e-7
-1.068, 9.450e-7
-1.069, 9.588e-7
-1.070, 9.459e-7
-1.071, 9.499e-7
-1.072, 9.854e-7
-1.073, 9.598e-7
-1.074, 9.489e-7
-1.075, 9.785e-7
-1.076, 1.003e-6
-1.077, 9.973e-7
-1.078, 9.933e-7
-1.079, 1.001e-6
-1.080, 1.009e-6
-1.081, 1.026e-6
-1.082, 1.044e-6
-1.083, 1.017e-6
-1.084, 1.035e-6
-1.085, 1.053e-6
-1.086, 1.026e-6
-1.087, 1.058e-6
-1.088, 1.057e-6
-1.089, 1.073e-6
-1.090, 1.049e-6
-1.091, 1.065e-6
-1.092, 1.091e-6
-1.093, 1.093e-6
-1.094, 1.067e-6
-1.095, 1.092e-6
-1.096, 1.104e-6
-1.097, 1.111e-6
-1.098, 1.107e-6
-1.099, 1.126e-6
-1.100, 1.145e-6
-1.101, 1.148e-6
-1.102, 1.141e-6
-1.103, 1.130e-6
-1.104, 1.151e-6
-1.105, 1.197e-6
-1.106, 1.149e-6
-1.107, 1.159e-6
-1.108, 1.175e-6
-1.109, 1.175e-6
-1.110, 1.188e-6
-1.111, 1.188e-6
-1.112, 1.192e-6
-1.113, 1.215e-6
-1.114, 1.221e-6
-1.115, 1.218e-6
-1.116, 1.206e-6
-1.117, 1.223e-6
-1.118, 1.270e-6
-1.119, 1.226e-6
-1.120, 1.249e-6
-1.121, 1.254e-6
-1.122, 1.284e-6
-1.123, 1.249e-6
-1.124, 1.282e-6
-1.125, 1.273e-6
-1.126, 1.296e-6
-1.127, 1.296e-6
-1.128, 1.299e-6
-1.129, 1.312e-6
-1.130, 1.318e-6
-1.131, 1.320e-6
-1.132, 1.346e-6
-1.133, 1.315e-6
-1.134, 1.356e-6
-1.135, 1.359e-6
-1.136, 1.375e-6
-1.137, 1.347e-6
-1.138, 1.357e-6
-1.139, 1.366e-6
-1.140, 1.387e-6
-1.141, 1.390e-6
-1.142, 1.380e-6
-1.143, 1.401e-6
-1.144, 1.412e-6
-1.145, 1.421e-6
-1.146, 1.400e-6
-1.147, 1.420e-6
-1.148, 1.444e-6
-1.149, 1.441e-6
-1.150, 1.433e-6
-1.151, 1.437e-6
-1.152, 1.456e-6
-1.153, 1.466e-6
-1.154, 1.454e-6
-1.155, 1.471e-6
-1.156, 1.479e-6
-1.157, 1.483e-6
-1.158, 1.517e-6
-1.159, 1.515e-6
-1.160, 1.475e-6
-1.161, 1.521e-6
-1.162, 1.504e-6
-1.163, 1.535e-6
-1.164, 1.514e-6
-1.165, 1.523e-6
-1.166, 1.546e-6
-1.167, 1.565e-6
-1.168, 1.547e-6
-1.169, 1.563e-6
-1.170, 1.557e-6
-1.171, 1.586e-6
-1.172, 1.596e-6
-1.173, 1.585e-6
-1.174, 1.574e-6
-1.175, 1.609e-6
-1.176, 1.599e-6
-1.177, 1.606e-6
-1.178, 1.626e-6
-1.179, 1.611e-6
-1.180, 1.628e-6
-1.181, 1.649e-6
-1.182, 1.641e-6
-1.183, 1.630e-6
-1.184, 1.648e-6
-1.185, 1.649e-6
-1.186, 1.662e-6
-1.187, 1.693e-6
-1.188, 1.675e-6
-1.189, 1.666e-6
-1.190, 1.686e-6
-1.191, 1.726e-6
-1.192, 1.682e-6
-1.193, 1.707e-6
-1.194, 1.728e-6
-1.195, 1.744e-6
-1.196, 1.729e-6
-1.197, 1.728e-6
-1.198, 1.771e-6
-1.199, 1.742e-6
-1.200, 1.755e-6
-1.201, 1.770e-6
-1.202, 1.746e-6
-1.203, 1.792e-6
-1.204, 1.804e-6
-1.205, 1.817e-6
-1.206, 1.796e-6
-1.207, 1.827e-6
-1.208, 1.807e-6
-1.209, 1.833e-6
-1.210, 1.822e-6
-1.211, 1.842e-6
-1.212, 1.856e-6
-1.213, 1.851e-6
-1.214, 1.828e-6
-1.215, 1.850e-6
-1.216, 1.885e-6
-1.217, 1.883e-6
-1.218, 1.880e-6
-1.219, 1.877e-6
-1.220, 1.895e-6
-1.221, 1.907e-6
-1.222, 1.922e-6
-1.223, 1.915e-6
-1.224, 1.923e-6
-1.225, 1.928e-6
-1.226, 1.948e-6
-1.227, 1.973e-6
-1.228, 1.939e-6
-1.229, 1.981e-6
-1.230, 2.007e-6
-1.231, 1.976e-6
-1.232, 1.977e-6
-1.233, 1.997e-6
-1.234, 1.986e-6
-1.235, 2.017e-6
-1.236, 2.019e-6
-1.237, 2.028e-6
-1.238, 2.028e-6
-1.239, 2.038e-6
-1.240, 2.034e-6
-1.241, 2.045e-6
-1.242, 2.059e-6
-1.243, 2.080e-6
-1.244, 2.090e-6
-1.245, 2.102e-6
-1.246, 2.085e-6
-1.247, 2.107e-6
-1.248, 2.122e-6
-1.249, 2.130e-6
-1.250, 2.081e-6
-1.251, 2.147e-6
-1.252, 2.151e-6
-1.253, 2.151e-6
-1.254, 2.151e-6
-1.255, 2.161e-6
-1.256, 2.152e-6
-1.257, 2.187e-6
-1.258, 2.172e-6
-1.259, 2.193e-6
-1.260, 2.202e-6
-1.261, 2.242e-6
-1.262, 2.223e-6
-1.263, 2.201e-6
-1.264, 2.240e-6
-1.265, 2.240e-6
-1.266, 2.254e-6
-1.267, 2.275e-6
-1.268, 2.274e-6
-1.269, 2.288e-6
-1.270, 2.279e-6
-1.271, 2.299e-6
-1.272, 2.320e-6
-1.273, 2.297e-6
-1.274, 2.352e-6
-1.275, 2.326e-6
-1.276, 2.325e-6
-1.277, 2.345e-6
-1.278, 2.334e-6
-1.279, 2.382e-6
-1.280, 2.357e-6
-1.281, 2.382e-6
-1.282, 2.393e-6
-1.283, 2.406e-6
-1.284, 2.423e-6
-1.285, 2.385e-6
-1.286, 2.426e-6
-1.287, 2.428e-6
-1.288, 2.425e-6
-1.289, 2.459e-6
-1.290, 2.432e-6
-1.291, 2.457e-6
-1.292, 2.437e-6
-1.293, 2.466e-6
-1.294, 2.463e-6
-1.295, 2.451e-6
-1.296, 2.475e-6
-1.297, 2.475e-6
-1.298, 2.466e-6
-1.299, 2.488e-6
-1.300, 2.491e-6
-1.301, 2.505e-6
-1.302, 2.487e-6
-1.303, 2.510e-6
-1.304, 2.503e-6
-1.305, 2.526e-6
-1.306, 2.524e-6
-1.307, 2.536e-6
-1.308, 2.516e-6
-1.309, 2.551e-6
-1.310, 2.524e-6
-1.311, 2.559e-6
-1.312, 2.555e-6
-1.313, 2.552e-6
-1.314, 2.566e-6
-1.315, 2.542e-6
-1.316, 2.566e-6
-1.317, 2.564e-6
-1.318, 2.567e-6
-1.319, 2.565e-6
-1.320, 2.570e-6
-1.321, 2.586e-6
-1.322, 2.584e-6
-1.323, 2.566e-6
-1.324, 2.573e-6
-1.325, 2.598e-6
-1.326, 2.594e-6
-1.327, 2.594e-6
-1.328, 2.577e-6
-1.329, 2.616e-6
-1.330, 2.622e-6
-1.331, 2.615e-6
-1.332, 2.615e-6
-1.333, 2.628e-6
-1.334, 2.629e-6
-1.335, 2.638e-6
-1.336, 2.649e-6
-1.337, 2.639e-6
-1.338, 2.654e-6
-1.339, 2.639e-6
-1.340, 2.640e-6
-1.341, 2.666e-6
-1.342, 2.644e-6
-1.343, 2.658e-6
-1.344, 2.632e-6
-1.345, 2.690e-6
-1.346, 2.692e-6
-1.347, 2.669e-6
-1.348, 2.645e-6
-1.349, 2.687e-6
-1.350, 2.694e-6
-1.351, 2.710e-6
-1.352, 2.686e-6
-1.353, 2.701e-6
-1.354, 2.728e-6
-1.355, 2.719e-6
-1.356, 2.715e-6
-1.357, 2.713e-6
-1.358, 2.746e-6
-1.359, 2.738e-6
-1.360, 2.732e-6
-1.361, 2.732e-6
-1.362, 2.748e-6
-1.363, 2.750e-6
-1.364, 2.760e-6
-1.365, 2.779e-6
-1.366, 2.754e-6
-1.367, 2.767e-6
-1.368, 2.770e-6
-1.369, 2.790e-6
-1.370, 2.794e-6
-1.371, 2.796e-6
-1.372, 2.796e-6
-1.373, 2.784e-6
-1.374, 2.793e-6
-1.375, 2.837e-6
-1.376, 2.831e-6
-1.377, 2.812e-6
-1.378, 2.800e-6
-1.379, 2.842e-6
-1.380, 2.851e-6
-1.381, 2.840e-6
-1.382, 2.840e-6
-1.383, 2.877e-6
-1.384, 2.887e-6
-1.385, 2.861e-6
-1.386, 2.884e-6
-1.387, 2.867e-6
-1.388, 2.903e-6
-1.389, 2.870e-6
-1.390, 2.899e-6
-1.391, 2.916e-6
-1.392, 2.916e-6
-1.393, 2.894e-6
-1.394, 2.891e-6
-1.395, 2.925e-6
-1.396, 2.921e-6
-1.397, 2.934e-6
-1.398, 2.911e-6
-1.399, 2.924e-6
-1.400, 2.727e-6
-1.399, 2.570e-6
-1.398, 2.477e-6
-1.397, 2.418e-6
-1.396, 2.353e-6
-1.395, 2.289e-6
-1.394, 2.233e-6
-1.393, 2.211e-6
-1.392, 2.147e-6
-1.391, 2.124e-6
-1.390, 2.066e-6
-1.389, 2.046e-6
-1.388, 1.991e-6
-1.387, 1.993e-6
-1.386, 1.934e-6
-1.385, 1.931e-6
-1.384, 1.880e-6
-1.383, 1.858e-6
-1.382, 1.827e-6
-1.381, 1.801e-6
-1.380, 1.810e-6
-1.379, 1.785e-6
-1.378, 1.725e-6
-1.377, 1.723e-6
-1.376, 1.730e-6
-1.375, 1.666e-6
-1.374, 1.631e-6
-1.373, 1.627e-6
-1.372, 1.613e-6
-1.371, 1.632e-6
-1.370, 1.569e-6
-1.369, 1.588e-6
-1.368, 1.574e-6
-1.367, 1.531e-6
-1.366, 1.523e-6
-1.365, 1.510e-6
-1.364, 1.488e-6
-1.363, 1.493e-6
-1.362, 1.461e-6
-1.361, 1.426e-6
-1.360, 1.450e-6
-1.359, 1.432e-6
-1.358, 1.389e-6
-1.357, 1.391e-6
-1.356, 1.391e-6
-1.355, 1.373e-6
-1.354, 1.357e-6
-1.353, 1.351e-6
-1.352, 1.332e-6
-1.351, 1.353e-6
-1.350, 1.316e-6
-1.349, 1.314e-6
-1.348, 1.295e-6
-1.347, 1.289e-6
-1.346, 1.254e-6
-1.345, 1.263e-6
-1.344, 1.252e-6
-1.343, 1.230e-6
-1.342, 1.221e-6
-1.341, 1.265e-6
-1.340, 1.206e-6
-1.339, 1.199e-6
-1.338, 1.198e-6
-1.337, 1.195e-6
-1.336, 1.171e-6
-1.335, 1.153e-6
-1.334, 1.171e-6
-1.333, 1.145e-6
-1.332, 1.168e-6
-1.331, 1.113e-6
-1.330, 1.111e-6
-1.329, 1.127e-6
-1.328, 1.120e-6
-1.327, 1.086e-6
-1.326, 1.088e-6
-1.325, 1.069e-6
-1.324, 1.082e-6
-1.323, 1.082e-6
-1.322, 1.048e-6
-1.321, 1.034e-6
-1.320, 1.039e-6
-1.319, 1.044e-6
-1.318, 9.953e-7
-1.317, 9.973e-7
-1.316, 1.008e-6
-1.315, 9.578e-7
-1.314, 1.003e-6
-1.313, 9.933e-7
-1.312, 9.894e-7
-1.311, 9.637e-7
-1.310, 9.627e-7
-1.309, 9.568e-7
-1.308, 9.440e-7
-1.307, 9.361e-7
-1.306, 9.242e-7
-1.305, 9.262e-7
-1.304, 9.292e-7
-1.303, 9.045e-7
-1.302, 9.094e-7
-1.301, 9.114e-7
-1.300, 8.966e-7
-1.299, 8.759e-7
-1.298, 8.749e-7
-1.297, 8.808e-7
-1.296, 8.660e-7
-1.295, 8.305e-7
-1.294, 8.611e-7
-1.293, 8.463e-7
-1.292, 8.236e-7
-1.291, 8.187e-7
-1.290, 8.315e-7
-1.289, 8.256e-7
-1.288, 8.098e-7
-1.287, 8.147e-7
-1.286, 8.305e-7
-1.285, 7.989e-7
-1.284, 8.256e-7
-1.283, 7.940e-7
-1.282, 7.920e-7
-1.281, 7.822e-7
-1.280, 7.851e-7
-1.279, 7.634e-7
-1.278, 7.516e-7
-1.277, 7.595e-7
-1.276, 7.634e-7
-1.275, 7.467e-7
-1.274, 7.151e-7
-1.273, 7.338e-7
-1.272, 7.447e-7
-1.271, 7.151e-7
-1.270, 7.289e-7
-1.269, 7.230e-7
-1.268, 7.121e-7
-1.267, 6.756e-7
-1.266, 6.983e-7
-1.265, 6.855e-7
-1.264, 6.796e-7
-1.263, 6.579e-7
-1.262, 6.707e-7
-1.261, 6.648e-7
-1.260, 6.588e-7
-1.259, 6.746e-7
-1.258, 6.470e-7
-1.257, 6.352e-7
-1.256, 6.401e-7
-1.255, 6.411e-7
-1.254, 6.371e-7
-1.253, 6.411e-7
-1.252, 6.095e-7
-1.251, 6.283e-7
-1.250, 6.283e-7
-1.249, 6.243e-7
-1.248, 5.849e-7
-1.247, 5.987e-7
-1.246, 6.115e-7
-1.245, 5.878e-7
-1.244, 5.829e-7
-1.243, 5.898e-7
-1.242, 5.720e-7
-1.241, 5.730e-7
-1.240, 5.355e-7
-1.239, 5.543e-7
-1.238, 5.543e-7
-1.237, 5.671e-7
-1.236, 5.493e-7
-1.235, 5.395e-7
-1.234, 5.336e-7
-1.233, 5.375e-7
-1.232, 5.326e-7
-1.231, 5.089e-7
-1.230, 5.474e-7
-1.229, 5.109e-7
-1.228, 4.862e-7
-1.227, 4.941e-7
-1.226, 5.000e-7
-1.225, 4.951e-7
-1.224, 4.941e-7
-1.223, 4.822e-7
-1.222, 4.921e-7
-1.221, 4.596e-7
-1.220, 4.635e-7
-1.219, 4.507e-7
-1.218, 4.546e-7
-1.217, 4.655e-7
-1.216, 4.132e-7
-1.215, 4.309e-7
-1.214, 4.625e-7
-1.213, 4.171e-7
-1.212, 4.221e-7
-1.211, 4.280e-7
-1.210, 4.122e-7
-1.209, 4.181e-7
-1.208, 4.043e-7
-1.207, 4.221e-7
-1.206, 3.895e-7
-1.205, 4.033e-7
-1.204, 3.935e-7
-1.203, 3.737e-7
-1.202, 3.787e-7
-1.201, 3.846e-7
-1.200, 3.629e-7
-1.199, 3.708e-7
-1.198, 3.579e-7
-1.197, 3.500e-7
-1.196, 3.658e-7
-1.195, 3.619e-7
-1.194, 3.787e-7
-1.193, 3.204e-7
-1.192, 3.451e-7
-1.191, 3.639e-7
-1.190, 3.135e-7
-1.189, 3.185e-7
-1.188, 3.333e-7
-1.187, 3.323e-7
-1.186, 3.185e-7
-1.185, 3.076e-7
-1.184, 3.145e-7
-1.183, 3.096e-7
-1.182, 3.076e-7
-1.181, 2.978e-7
-1.180, 3.126e-7
-1.179, 3.195e-7
-1.178, 2.770e-7
-1.177, 2.869e-7
-1.176, 2.810e-7
-1.175, 2.839e-7
-1.174, 2.672e-7
-1.173, 2.780e-7
-1.172, 2.810e-7
-1.171, 2.839e-7
-1.170, 2.543e-7
-1.169, 2.741e-7
-1.168, 2.869e-7
-1.167, 2.415e-7
-1.166, 2.336e-7
-1.165, 2.484e-7
-1.164, 2.573e-7
-1.163, 2.366e-7
-1.162, 2.386e-7
-1.161, 2.159e-7
-1.160, 2.395e-7
-1.159, 2.336e-7
-1.158, 2.060e-7
-1.157, 2.208e-7
-1.156, 2.504e-7
-1.155, 2.386e-7
-1.154, 1.942e-7
-1.153, 2.159e-7
-1.152, 2.129e-7
-1.151, 2.011e-7
-1.150, 1.882e-7
-1.149, 1.961e-7
-1.148, 1.971e-7
-1.147, 1.636e-7
-1.146, 1.942e-7
-1.145, 1.715e-7
-1.144, 1.951e-7
-1.143, 1.734e-7
-1.142, 1.695e-7
-1.141, 1.794e-7
-1.140, 1.823e-7
-1.139, 1.290e-7
-1.138, 1.468e-7
-1.137, 1.498e-7
-1.136, 1.340e-7
-1.135, 1.478e-7
-1.134, 1.281e-7
-1.133, 1.606e-7
-1.132, 1.527e-7
-1.131, 1.212e-7
-1.130, 1.547e-7
-1.129, 1.350e-7
-1.128, 1.369e-7
-1.127, 1.261e-7
-1.126, 1.192e-7
-1.125, 1.093e-7
-1.124, 1.221e-7
-1.123, 8.465e-8
-1.122, 1.172e-7
-1.121, 1.014e-7
-1.120, 8.564e-8
-1.119, 7.380e-8
-1.118, 9.649e-8
-1.117, 9.550e-8
-1.116, 7.281e-8
-1.115, 9.846e-8
-1.114, 5.801e-8
-1.113, 5.111e-8
-1.112, 6.393e-8
-1.111, 6.985e-8
-1.110, 4.617e-8
-1.109, 4.815e-8
-1.108, 6.788e-8
-1.107, 3.927e-8
-1.106, 4.519e-8
-1.105, 6.788e-8
-1.104, 2.644e-8
-1.103, 4.223e-8
-1.102, 4.617e-8
-1.101, 2.249e-8
-1.100, 3.039e-8
-1.099, 2.644e-8
-1.098, 3.631e-8
-1.097, 8.682e-9
-1.096, 1.460e-8
-1.095, 1.362e-8
-1.094, 3.749e-9
-1.093, 1.460e-8
-1.092, 1.164e-8
-1.091, 1.776e-9
-1.090, 7.695e-9
-1.089, -2.486e-8
-1.088, -3.374e-8
-1.087, -3.157e-9
-1.086, -4.065e-8
-1.085, -9.077e-9
-1.084, -2.782e-8
-1.083, -3.374e-8
-1.082, -3.571e-8
-1.081, -1.993e-8
-1.080, -6.038e-8
-1.079, -3.571e-8
-1.078, -7.025e-8
-1.077, -4.361e-8
-1.076, -3.769e-8
-1.075, -6.827e-8
-1.074, -9.096e-8
-1.073, -6.926e-8
-1.072, -7.025e-8
-1.071, -8.702e-8
-1.070, -6.630e-8
-1.069, -8.406e-8
-1.068, -9.096e-8
-1.067, -9.096e-8
-1.066, -9.491e-8
-1.065, -8.110e-8
-1.064, -7.617e-8
-1.063, -1.048e-7
-1.062, -9.886e-8
-1.061, -1.196e-7
-1.060, -1.058e-7
-1.059, -1.087e-7
-1.058, -9.787e-8
-1.057, -1.028e-7
-1.056, -1.206e-7
-1.055, -1.176e-7
-1.054, -1.215e-7
-1.053, -1.314e-7
-1.052, -1.285e-7
-1.051, -1.186e-7
-1.050, -1.373e-7
-1.049, -1.245e-7
-1.048, -1.492e-7
-1.047, -1.413e-7
-1.046, -1.541e-7
-1.045, -1.620e-7
-1.044, -1.650e-7
-1.043, -1.571e-7
-1.042, -1.610e-7
-1.041, -1.462e-7
-1.040, -1.788e-7
-1.039, -1.600e-7
-1.038, -1.531e-7
-1.037, -1.620e-7
-1.036, -1.857e-7
-1.035, -1.778e-7
-1.034, -1.837e-7
-1.033, -1.926e-7
-1.032, -1.896e-7
-1.031, -1.877e-7
-1.030, -1.985e-7
-1.029, -1.985e-7
-1.028, -2.202e-7
-1.027, -1.926e-7
-1.026, -2.084e-7
-1.025, -2.113e-7
-1.024, -2.429e-7
-1.023, -2.251e-7
-1.022, -1.965e-7
-1.021, -2.380e-7
-1.020, -2.301e-7
-1.019, -2.399e-7
-1.018, -2.311e-7
-1.017, -2.468e-7
-1.016, -2.488e-7
-1.015, -2.360e-7
-1.014, -2.577e-7
-1.013, -2.508e-7
-1.012, -2.626e-7
-1.011, -2.834e-7
-1.010, -2.666e-7
-1.009, -2.912e-7
-1.008, -2.587e-7
-1.007, -2.666e-7
-1.006, -2.991e-7
-1.005, -2.873e-7
-1.004, -2.912e-7
-1.003, -2.745e-7
-1.002, -2.932e-7
-1.001, -3.001e-7
-1.000, -2.301e-7
-1.001, -1.620e-7
-1.002, -1.472e-7
-1.003, -1.137e-7
-1.004, -1.008e-7
-1.005, -5.742e-8
-1.006, -7.912e-8
-1.007, -6.038e-8
-1.008, -2.289e-8
-1.009, -1.598e-8
-1.010, 7.695e-9
-1.011, 1.066e-8
-1.012, 4.321e-8
-1.013, 4.815e-8
-1.014, 6.393e-8
-1.015, 8.662e-8
-1.016, 9.353e-8
-1.017, 1.014e-7
-1.018, 9.550e-8
-1.019, 1.290e-7
-1.020, 1.369e-7
-1.021, 1.379e-7
-1.022, 1.429e-7
-1.023, 1.527e-7
-1.024, 1.902e-7
-1.025, 1.971e-7
-1.026, 1.685e-7
-1.027, 2.109e-7
-1.028, 2.455e-7
-1.029, 2.267e-7
-1.030, 2.484e-7
-1.031, 2.563e-7
-1.032, 2.632e-7
-1.033, 2.820e-7
-1.034, 2.711e-7
-1.035, 2.948e-7
-1.036, 2.701e-7
-1.037, 2.918e-7
-1.038, 3.086e-7
-1.039, 3.303e-7
-1.040, 3.392e-7
-1.041, 3.343e-7
-1.042, 3.224e-7
-1.043, 3.619e-7
-1.044, 3.599e-7
-1.045, 3.639e-7
-1.046, 3.619e-7
-1.047, 3.935e-7
-1.048, 4.023e-7
-1.049, 3.944e-7
-1.050, 4.033e-7
-1.051, 4.033e-7
-1.052, 4.369e-7
-1.053, 4.290e-7
-1.054, 4.457e-7
-1.055, 4.517e-7
-1.056, 4.408e-7
-1.057, 4.645e-7
-1.058, 4.872e-7
-1.059, 4.566e-7
-1.060, 4.862e-7
-1.061, 4.980e-7
-1.062, 5.069e-7
-1.063, 5.049e-7
-1.064, 5.020e-7
-1.065, 5.444e-7
-1.066, 5.207e-7
-1.067, 5.395e-7
-1.068, 5.405e-7
-1.069, 5.424e-7
-1.070, 5.592e-7
-1.071, 5.730e-7
-1.072, 5.671e-7
-1.073, 5.602e-7
-1.074, 5.701e-7
-1.075, 5.898e-7
-1.076, 6.016e-7
-1.077, 5.858e-7
-1.078, 6.371e-7
-1.079, 6.026e-7
-1.080, 6.154e-7
-1.081, 6.273e-7
-1.082, 6.283e-7
-1.083, 6.233e-7
-1.084, 6.381e-7
-1.085, 6.796e-7
-1.086, 6.539e-7
-1.087, 6.421e-7
-1.088, 6.865e-7
-1.089, 6.963e-7
-1.090, 6.736e-7
-1.091, 6.746e-7
-1.092, 6.904e-7
-1.093, 6.865e-7
-1.094, 6.796e-7
-1.095, 7.082e-7
-1.096, 7.023e-7
-1.097, 7.161e-7
-1.098, 7.319e-7
-1.099, 7.457e-7
-1.100, 7.378e-7
-1.101, 7.565e-7
-1.102, 7.447e-7
-1.103, 7.723e-7
-1.104, 7.841e-7
-1.105, 7.644e-7
-1.106, 7.822e-7
-1.107, 7.802e-7
-1.108, 8.147e-7
-1.109, 7.901e-7
-1.110, 7.812e-7
-1.111, 8.197e-7
-1.112, 8.157e-7
-1.113, 8.059e-7
-1.114, 8.177e-7
-1.115, 8.187e-7
-1.116, 8.364e-7
-1.117, 8.305e-7
-1.118, 8.374e-7
-1.119, 8.581e-7
-1.120, 8.414e-7
-1.121, 8.325e-7
-1.122, 8.769e-7
-1.123, 8.729e-7
-1.124, 8.838e-7
-1.125, 8.779e-7
-1.126, 8.838e-7
-1.127, 9.025e-7
-1.128, 9.045e-7
-1.129, 8.986e-7
-1.130, 9.311e-7
-1.131, 9.104e-7
-1.132, 9.183e-7
-1.133, 9.233e-7
-1.134, 9.381e-7
-1.135, 9.617e-7
-1.136, 9.400e-7
-1.137, 9.361e-7
-1.138, 9.558e-7
-1.139, 9.785e-7
-1.140, 9.854e-7
-1.141, 9.677e-7
-1.142, 9.864e-7
-1.143, 1.014e-6
-1.144, 9.815e-7
-1.145, 9.795e-7
-1.146, 9.992e-7
-1.147, 1.012e-6
-1.148, 9.923e-7
-1.149, 1.021e-6
-1.150, 1.021e-6
-1.151, 1.012e-6
-1.152, 1.061e-6
-1.153, 1.006e-6
-1.154, 1.056e-6
-1.155, 1.046e-6
-1.156, 1.043e-6
-1.157, 1.061e-6
-1.158, 1.071e-6
-1.159, 1.075e-6
-1.160, 1.085e-6
-1.161, 1.085e-6
-1.162, 1.070e-6
-1.163, 1.077e-6
-1.164, 1.089e-6
-1.165, 1.102e-6
-1.166, 1.076e-6
-1.167, 1.087e-6
-1.168, 1.116e-6
-1.169, 1.121e-6
-1.170, 1.116e-6
-1.171, 1.107e-6
-1.172, 1.131e-6
-1.173, 1.172e-6
-1.174, 1.117e-6
-1.175, 1.123e-6
-1.176, 1.126e-6
-1.177, 1.158e-6
-1.178, 1.162e-6
-1.179, 1.173e-6
-1.180, 1.181e-6
-1.181, 1.169e-6
-1.182, 1.163e-6
-1.183, 1.157e-6
-1.184, 1.184e-6
-1.185, 1.180e-6
-1.186, 1.195e-6
-1.187, 1.193e-6
-1.188, 1.207e-6
-1.189, 1.192e-6
-1.190, 1.200e-6
-1.191, 1.203e-6
-1.192, 1.229e-6
-1.193, 1.215e-6
-1.194, 1.223e-6
-1.195, 1.207e-6
-1.196, 1.226e-6
-1.197, 1.242e-6
-1.198, 1.252e-6
-1.199, 1.232e-6
-1.200, 1.256e-6
-1.201, 1.244e-6
-1.202, 1.264e-6
-1.203, 1.240e-6
-1.204, 1.303e-6
-1.205, 1.305e-6
-1.206, 1.284e-6
-1.207, 1.274e-6
-1.208, 1.295e-6
-1.209, 1.299e-6
-1.210, 1.288e-6
-1.211, 1.310e-6
-1.212, 1.302e-6
-1.213, 1.327e-6
-1.214, 1.321e-6
-1.215, 1.310e-6
-1.216, 1.350e-6
-1.217, 1.325e-6
-1.218, 1.340e-6
-1.219, 1.317e-6
-1.220, 1.354e-6
-1.221, 1.360e-6
-1.222, 1.375e-6
-1.223, 1.360e-6
-1.224, 1.364e-6
-1.225, 1.382e-6
-1.226, 1.391e-6
-1.227, 1.371e-6
-1.228, 1.400e-6
-1.229, 1.401e-6
-1.230, 1.388e-6
-1.231, 1.407e-6
-1.232, 1.418e-6
-1.233, 1.405e-6
-1.234, 1.413e-6
-1.235, 1.438e-6
-1.236, 1.422e-6
-1.237, 1.471e-6
-1.238, 1.444e-6
-1.239, 1.441e-6
-1.240, 1.459e-6
-1.241, 1.463e-6
-1.242, 1.461e-6
-1.243, 1.472e-6
-1.244, 1.494e-6
-1.245, 1.486e-6
-1.246, 1.468e-6
-1.247, 1.488e-6
-1.248, 1.485e-6
-1.249, 1.495e-6
-1.250, 1.492e-6
-1.251, 1.492e-6
-1.252, 1.519e-6
-1.253, 1.511e-6
-1.254, 1.506e-6
-1.255, 1.508e-6
-1.256, 1.524e-6
-1.257, 1.525e-6
-1.258, 1.530e-6
-1.259, 1.519e-6
-1.260, 1.539e-6
-1.261, 1.553e-6
-1.262, 1.558e-6
-1.263, 1.542e-6
-1.264, 1.549e-6
-1.265, 1.537e-6
-1.266, 1.565e-6
-1.267, 1.548e-6
-1.268, 1.591e-6
-1.269, 1.577e-6
-1.270, 1.611e-6
-1.271, 1.573e-6
-1.272, 1.610e-6
-1.273, 1.600e-6
-1.274, 1.608e-6
-1.275, 1.596e-6
-1.276, 1.622e-6
-1.277, 1.627e-6
-1.278, 1.632e-6
-1.279, 1.633e-6
-1.280, 1.607e-6
-1.281, 1.637e-6
-1.282, 1.657e-6
-1.283, 1.648e-6
-1.284, 1.636e-6
-1.285, 1.659e-6
-1.286, 1.641e-6
-1.287, 1.659e-6
-1.288, 1.675e-6
-1.289, 1.669e-6
-1.290, 1.699e-6
-1.291, 1.674e-6
-1.292, 1.681e-6
-1.293, 1.702e-6
-1.294, 1.709e-6
-1.295, 1.714e-6
-1.296, 1.685e-6
-1.297, 1.725e-6
-1.298, 1.718e-6
-1.299, 1.703e-6
-1.300, 1.738e-6
-1.301, 1.727e-6
-1.302, 1.751e-6
-1.303, 1.725e-6
-1.304, 1.734e-6
-1.305, 1.751e-6
-1.306, 1.794e-6
-1.307, 1.769e-6
-1.308, 1.760e-6
-1.309, 1.767e-6
-1.310, 1.799e-6
-1.311, 1.790e-6
-1.312, 1.803e-6
-1.313, 1.812e-6
-1.314, 1.808e-6
-1.315, 1.829e-6
-1.316, 1.793e-6
-1.317, 1.803e-6
-1.318, 1.826e-6
-1.319, 1.860e-6
-1.320, 1.841e-6
-1.321, 1.830e-6
-1.322, 1.839e-6
-1.323, 1.848e-6
-1.324, 1.831e-6
-1.325, 1.862e-6
-1.326, 1.859e-6
-1.327, 1.858e-6
-1.328, 1.879e-6
-1.329, 1.880e-6
-1.330, 1.897e-6
-1.331, 1.882e-6
-1.332, 1.890e-6
-1.333, 1.893e-6
-1.334, 1.928e-6
-1.335, 1.941e-6
-1.336, 1.916e-6
-1.337, 1.915e-6
-1.338, 1.938e-6
-1.339, 1.926e-6
-1.340, 1.941e-6
-1.341, 1.944e-6
-1.342, 1.961e-6
-1.343, 1.956e-6
-1.344, 1.954e-6
-1.345, 1.971e-6
-1.346, 1.985e-6
-1.347, 1.981e-6
-1.348, 1.987e-6
-1.349, 1.967e-6
-1.350, 1.987e-6
-1.351, 2.008e-6
-1.352, 2.001e-6
-1.353, 2.012e-6
-1.354, 2.022e-6
-1.355, 2.030e-6
-1.356, 2.003e-6
-1.357, 2.051e-6
-1.358, 2.033e-6
-1.359, 2.046e-6
-1.360, 2.062e-6
-1.361, 2.051e-6
-1.362, 2.057e-6
-1.363, 2.075e-6
-1.364, 2.079e-6
-1.365, 2.057e-6
-1.366, 2.081e-6
-1.367, 2.081e-6
-1.368, 2.115e-6
-1.369, 2.097e-6
-1.370, 2.110e-6
-1.371, 2.113e-6
-1.372, 2.143e-6
-1.373, 2.133e-6
-1.374, 2.141e-6
-1.375, 2.153e-6
-1.376, 2.183e-6
-1.377, 2.153e-6
-1.378, 2.140e-6
-1.379, 2.168e-6
-1.380, 2.187e-6
-1.381, 2.160e-6
-1.382, 2.195e-6
-1.383, 2.200e-6
-1.384, 2.204e-6
-1.385, 2.224e-6
-1.386, 2.207e-6
-1.387, 2.219e-6
-1.388, 2.250e-6
-1.389, 2.239e-6
-1.390, 2.238e-6
-1.391, 2.248e-6
-1.392, 2.252e-6
-1.393, 2.275e-6
-1.394, 2.274e-6
-1.395, 2.269e-6
-1.396, 2.304e-6
-1.397, 2.320e-6
-1.398, 2.309e-6
-1.399, 2.292e-6
-1.400, 2.142e-6
-1.399, 1.998e-6
-1.398, 1.915e-6
-1.397, 1.862e-6
-1.396, 1.816e-6
-1.395, 1.755e-6
-1.394, 1.698e-6
-1.393, 1.688e-6
-1.392, 1.654e-6
-1.391, 1.631e-6
-1.390, 1.605e-6
-1.389, 1.540e-6
-1.388, 1.554e-6
-1.387, 1.524e-6
-1.386, 1.493e-6
-1.385, 1.487e-6
-1.384, 1.461e-6
-1.383, 1.439e-6
-1.382, 1.416e-6
-1.381, 1.401e-6
-1.380, 1.366e-6
-1.379, 1.379e-6
-1.378, 1.353e-6
-1.377, 1.327e-6
-1.376, 1.318e-6
-1.375, 1.315e-6
-1.374, 1.281e-6
-1.373, 1.272e-6
-1.372, 1.252e-6
-1.371, 1.236e-6
-1.370, 1.242e-6
-1.369, 1.206e-6
-1.368, 1.178e-6
-1.367, 1.187e-6
-1.366, 1.173e-6
-1.365, 1.174e-6
-1.364, 1.161e-6
-1.363, 1.143e-6
-1.362, 1.129e-6
-1.361, 1.131e-6
-1.360, 1.118e-6
-1.359, 1.104e-6
-1.358, 1.097e-6
-1.357, 1.069e-6
-1.356, 1.071e-6
-1.355, 1.053e-6
-1.354, 1.059e-6
-1.353, 1.073e-6
-1.352, 1.015e-6
-1.351, 1.035e-6
-1.350, 1.032e-6
-1.349, 1.001e-6
-1.348, 9.736e-7
-1.347, 9.943e-7
-1.346, 1.000e-6
-1.345, 9.844e-7
-1.344, 9.499e-7
-1.343, 9.657e-7
-1.342, 9.499e-7
-1.341, 9.538e-7
-1.340, 9.302e-7
-1.339, 9.242e-7
-1.338, 9.144e-7
-1.337, 9.183e-7
-1.336, 8.848e-7
-1.335, 8.858e-7
-1.334, 9.006e-7
-1.333, 8.749e-7
-1.332, 8.729e-7
-1.331, 8.384e-7
-1.330, 8.621e-7
-1.329, 8.601e-7
-1.328, 8.443e-7
-1.327, 8.463e-7
-1.326, 8.295e-7
-1.325, 8.512e-7
-1.324, 8.246e-7
-1.323, 8.128e-7
-1.322, 7.989e-7
-1.321, 8.068e-7
-1.320, 8.118e-7
-1.319, 7.763e-7
-1.318, 7.753e-7
-1.317, 7.447e-7
-1.316, 7.782e-7
-1.315, 7.585e-7
-1.314, 7.319e-7
-1.313, 7.634e-7
-1.312, 7.427e-7
-1.311, 7.269e-7
-1.310, 6.973e-7
-1.309, 7.289e-7
-1.308, 7.220e-7
-1.307, 7.220e-7
-1.306, 7.092e-7
-1.305, 6.855e-7
-1.304, 7.062e-7
-1.303, 6.796e-7
-1.302, 6.717e-7
-1.301, 6.746e-7
-1.300, 6.677e-7
-1.299, 6.707e-7
-1.298, 6.658e-7
-1.297, 6.500e-7
-1.296, 6.569e-7
-1.295, 6.549e-7
-1.294, 6.243e-7
-1.293, 6.440e-7
-1.292, 6.440e-7
-1.291, 6.154e-7
-1.290, 6.362e-7
-1.289, 6.085e-7
-1.288, 6.223e-7
-1.287, 6.184e-7
-1.286, 5.997e-7
-1.285, 5.868e-7
-1.284, 5.839e-7
-1.283, 5.888e-7
-1.282, 6.026e-7
-1.281, 5.710e-7
-1.280, 5.671e-7
-1.279, 5.937e-7
-1.278, 5.710e-7
-1.277, 5.533e-7
-1.276, 5.474e-7
-1.275, 5.612e-7
-1.274, 5.513e-7
-1.273, 5.483e-7
-1.272, 5.168e-7
-1.271, 5.286e-7
-1.270, 5.316e-7
-1.269, 5.079e-7
-1.268, 5.148e-7
-1.267, 5.148e-7
-1.266, 5.079e-7
-1.265, 4.892e-7
-1.264, 5.000e-7
-1.263, 5.000e-7
-1.262, 4.980e-7
-1.261, 5.128e-7
-1.260, 4.842e-7
-1.259, 4.822e-7
-1.258, 4.793e-7
-1.257, 4.783e-7
-1.256, 4.753e-7
-1.255, 4.359e-7
-1.254, 4.566e-7
-1.253, 4.497e-7
-1.252, 4.280e-7
-1.251, 4.290e-7
-1.250, 4.487e-7
-1.249, 4.369e-7
-1.248, 4.063e-7
-1.247, 4.250e-7
-1.246, 4.043e-7
-1.245, 4.329e-7
-1.244, 4.211e-7
-1.243, 4.260e-7
-1.242, 4.043e-7
-1.241, 3.856e-7
-1.240, 3.984e-7
-1.239, 3.619e-7
-1.238, 3.925e-7
-1.237, 3.688e-7
-1.236, 3.787e-7
-1.235, 3.668e-7
-1.234, 3.737e-7
-1.233, 3.540e-7
-1.232, 3.885e-7
-1.231, 3.678e-7
-1.230, 3.382e-7
-1.229, 3.116e-7
-1.228, 3.441e-7
-1.227, 3.264e-7
-1.226, 3.333e-7
-1.225, 3.412e-7
-1.224, 3.303e-7
-1.223, 3.274e-7
-1.222, 3.017e-7
-1.221, 3.195e-7
-1.220, 3.224e-7
-1.219, 3.076e-7
-1.218, 3.214e-7
-1.217, 2.958e-7
-1.216, 2.830e-7
-1.215, 2.830e-7
-1.214, 2.849e-7
-1.213, 2.790e-7
-1.212, 2.691e-7
-1.211, 2.879e-7
-1.210, 2.820e-7
-1.209, 2.543e-7
-1.208, 2.543e-7
-1.207, 2.731e-7
-1.206, 2.760e-7
-1.205, 2.524e-7
-1.204, 2.534e-7
-1.203, 2.751e-7
-1.202, 2.632e-7
-1.201, 2.267e-7
-1.200, 2.060e-7
-1.199, 2.336e-7
-1.198, 2.218e-7
-1.197, 2.208e-7
-1.196, 2.238e-7
-1.195, 2.099e-7
-1.194, 2.011e-7
-1.193, 2.070e-7
-1.192, 2.070e-7
-1.191, 2.109e-7
-1.190, 1.942e-7
-1.189, 1.833e-7
-1.188, 1.774e-7
-1.187, 1.863e-7
-1.186, 1.843e-7
-1.185, 1.774e-7
-1.184, 1.774e-7
-1.183, 1.675e-7
-1.182, 1.784e-7
-1.181, 1.843e-7
-1.180, 1.616e-7
-1.179, 1.586e-7
-1.178, 1.636e-7
-1.177, 1.537e-7
-1.176, 1.478e-7
-1.175, 1.340e-7
-1.174, 1.547e-7
-1.173, 1.636e-7
-1.172, 1.083e-7
-1.171, 1.360e-7
-1.170, 1.142e-7
-1.169, 1.300e-7
-1.168, 1.044e-7
-1.167, 1.212e-7
-1.166, 1.133e-7
-1.165, 1.162e-7
-1.164, 8.465e-8
-1.163, 9.846e-8
-1.162, 1.034e-7
-1.161, 1.172e-7
-1.160, 1.004e-7
-1.159, 8.662e-8
-1.158, 8.860e-8
-1.157, 7.676e-8
-1.156, 9.550e-8
-1.155, 7.972e-8
-1.154, 7.182e-8
-1.153, 8.268e-8
-1.152, 8.268e-8
-1.151, 5.703e-8
-1.150, 7.182e-8
-1.149, 5.111e-8
-1.148, 5.308e-8
-1.147, 5.012e-8
-1.146, 4.025e-8
-1.145, 3.236e-8
-1.144, 5.900e-8
-1.143, 4.420e-8
-1.142, 3.729e-8
-1.141, 6.097e-8
-1.140, 3.335e-8
-1.139, 2.249e-8
-1.138, 7.695e-9
-1.137, 7.695e-9
-1.136, 2.841e-8
-1.135, 2.348e-8
-1.134, 1.164e-8
-1.133, 1.855e-8
-1.132, 7.695e-9
-1.131, 2.052e-8
-1.130, -2.171e-9
-1.129, -2.486e-8
-1.128, 1.460e-8
-1.127, -9.077e-9
-1.126, -1.500e-8
-1.125, -4.065e-8
-1.124, -2.092e-8
-1.123, -2.289e-8
-1.122, -1.302e-8
-1.121, -2.388e-8
-1.120, -3.867e-8
-1.119, -1.500e-8
-1.118, -3.867e-8
-1.117, -5.841e-8
-1.116, -4.459e-8
-1.115, -6.926e-8
-1.114, -5.742e-8
-1.113, -7.617e-8
-1.112, -8.110e-8
-1.111, -6.137e-8
-1.110, -6.433e-8
-1.109, -8.406e-8
-1.108, -1.008e-7
-1.107, -7.419e-8
-1.106, -6.926e-8
-1.105, -7.814e-8
-1.104, -6.531e-8
-1.103, -8.307e-8
-1.102, -9.984e-8
-1.101, -8.603e-8
-1.100, -9.787e-8
-1.099, -9.787e-8
-1.098, -1.048e-7
-1.097, -1.028e-7
-1.096, -9.688e-8
-1.095, -1.146e-7
-1.094, -1.166e-7
-1.093, -9.195e-8
-1.092, -1.127e-7
-1.091, -1.166e-7
-1.090, -1.314e-7
-1.089, -1.294e-7
-1.088, -1.235e-7
-1.087, -1.285e-7
-1.086, -1.433e-7
-1.085, -1.176e-7
-1.084, -1.403e-7
-1.083, -1.235e-7
-1.082, -1.561e-7
-1.081, -1.689e-7
-1.080, -1.423e-7
-1.079, -1.492e-7
-1.078, -1.334e-7
-1.077, -1.630e-7
-1.076, -1.709e-7
-1.075, -1.551e-7
-1.074, -1.729e-7
-1.073, -1.748e-7
-1.072, -1.768e-7
-1.071, -1.462e-7
-1.070, -1.788e-7
-1.069, -1.788e-7
-1.068, -2.064e-7
-1.067, -1.758e-7
-1.066, -1.689e-7
-1.065, -1.807e-7
-1.064, -2.084e-7
-1.063, -2.044e-7
-1.062, -1.837e-7
-1.061, -1.837e-7
-1.060, -2.172e-7
-1.059, -2.261e-7
-1.058, -2.044e-7
-1.057, -2.074e-7
-1.056, -2.182e-7
-1.055, -2.301e-7
-1.054, -2.242e-7
-1.053, -2.172e-7
-1.052, -2.439e-7
-1.051, -2.459e-7
-1.050, -2.271e-7
-1.049, -2.350e-7
-1.048, -2.478e-7
-1.047, -2.508e-7
-1.046, -2.666e-7
-1.045, -2.439e-7
-1.044, -2.587e-7
-1.043, -2.666e-7
-1.042, -2.587e-7
-1.041, -2.567e-7
-1.040, -2.557e-7
-1.039, -2.745e-7
-1.038, -2.873e-7
-1.037, -2.478e-7
-1.036, -2.735e-7
-1.035, -2.824e-7
-1.034, -2.843e-7
-1.033, -2.705e-7
-1.032, -3.011e-7
-1.031, -2.834e-7
-1.030, -2.962e-7
-1.029, -2.834e-7
-1.028, -2.972e-7
-1.027, -3.021e-7
-1.026, -3.070e-7
-1.025, -3.149e-7
-1.024, -3.189e-7
-1.023, -3.100e-7
-1.022, -3.455e-7
-1.021, -3.248e-7
-1.020, -3.258e-7
-1.019, -3.287e-7
-1.018, -3.623e-7
-1.017, -3.149e-7
-1.016, -3.218e-7
-1.015, -3.554e-7
-1.014, -3.504e-7
-1.013, -3.406e-7
-1.012, -3.475e-7
-1.011, -3.416e-7
-1.010, -3.425e-7
-1.009, -3.702e-7
-1.008, -3.495e-7
-1.007, -3.583e-7
-1.006, -3.406e-7
-1.005, -3.761e-7
-1.004, -3.869e-7
-1.003, -3.554e-7
-1.002, -3.899e-7
-1.001, -3.869e-7
-1.000, -3.139e-7
-1.001, -2.616e-7
-1.002, -2.222e-7
-1.003, -2.005e-7
-1.004, -1.955e-7
-1.005, -1.482e-7
-1.006, -1.462e-7
-1.007, -1.008e-7
-1.008, -1.127e-7
-1.009, -8.800e-8
-1.010, -7.814e-8
-1.011, -5.643e-8
-1.012, -5.347e-8
-1.013, -4.459e-8
-1.014, -3.473e-8
-1.015, 6.709e-9
-1.016, -6.117e-9
-1.017, 1.953e-8
-1.018, 3.433e-8
-1.019, 2.644e-8
-1.020, 5.703e-8
-1.021, 4.124e-8
-1.022, 4.617e-8
-1.023, 8.070e-8
-1.024, 9.846e-8
-1.025, 8.465e-8
-1.026, 1.182e-7
-1.027, 1.320e-7
-1.028, 1.320e-7
-1.029, 1.734e-7
-1.030, 1.448e-7
-1.031, 1.636e-7
-1.032, 1.882e-7
-1.033, 1.873e-7
-1.034, 2.001e-7
-1.035, 1.873e-7
-1.036, 2.021e-7
-1.037, 2.317e-7
-1.038, 2.317e-7
-1.039, 2.247e-7
-1.040, 2.317e-7
-1.041, 2.613e-7
-1.042, 2.691e-7
-1.043, 2.622e-7
-1.044, 2.672e-7
-1.045, 2.830e-7
-1.046, 2.948e-7
-1.047, 2.760e-7
-1.048, 3.155e-7
-1.049, 3.244e-7
-1.050, 3.283e-7
-1.051, 3.579e-7
-1.052, 3.461e-7
-1.053, 3.540e-7
-1.054, 3.431e-7
-1.055, 3.422e-7
-1.056, 3.826e-7
-1.057, 3.639e-7
-1.058, 3.717e-7
-1.059, 3.570e-7
-1.060, 3.885e-7
-1.061, 3.984e-7
-1.062, 4.142e-7
-1.063, 4.063e-7
-1.064, 4.231e-7
-1.065, 4.280e-7
-1.066, 4.467e-7
-1.067, 4.231e-7
-1.068, 4.457e-7
-1.069, 4.714e-7
-1.070, 4.901e-7
-1.071, 4.359e-7
-1.072, 4.714e-7
-1.073, 4.704e-7
-1.074, 5.059e-7
-1.075, 5.040e-7
-1.076, 4.852e-7
-1.077, 5.000e-7
-1.078, 5.138e-7
-1.079, 5.237e-7
-1.080, 5.138e-7
-1.081, 5.405e-7
-1.082, 5.424e-7
-1.083, 5.434e-7
-1.084, 5.553e-7
-1.085, 5.395e-7
-1.086, 5.434e-7
-1.087, 5.829e-7
-1.088, 5.691e-7
-1.089, 5.799e-7
-1.090, 5.661e-7
-1.091, 5.997e-7
-1.092, 5.927e-7
-1.093, 5.730e-7
-1.094, 6.026e-7
-1.095, 5.947e-7
-1.096, 6.006e-7
-1.097, 6.312e-7
-1.098, 6.105e-7
-1.099, 6.460e-7
-1.100, 6.312e-7
-1.101, 6.490e-7
-1.102, 6.579e-7
-1.103, 6.411e-7
-1.104, 6.618e-7
-1.105, 6.687e-7
-1.106, 6.806e-7
-1.107, 6.658e-7
-1.108, 6.796e-7
-1.109, 6.608e-7
-1.110, 6.924e-7
-1.111, 6.924e-7
-1.112, 6.884e-7
-1.113, 7.220e-7
-1.114, 7.151e-7
-1.115, 7.319e-7
-1.116, 7.309e-7
-1.117, 7.368e-7
-1.118, 7.486e-7
-1.119, 7.615e-7
-1.120, 7.467e-7
-1.121, 7.634e-7
-1.122, 7.575e-7
-1.123, 7.753e-7
-1.124, 7.763e-7
-1.125, 7.822e-7
-1.126, 7.733e-7
-1.127, 8.039e-7
-1.128, 7.920e-7
-1.129, 8.137e-7
-1.130, 8.019e-7
-1.131, 8.068e-7
-1.132, 8.276e-7
-1.133, 8.236e-7
-1.134, 8.325e-7
-1.135, 8.305e-7
-1.136, 8.266e-7
-1.137, 8.384e-7
-1.138, 8.394e-7
-1.139, 8.424e-7
-1.140, 8.660e-7
-1.141, 8.641e-7
-1.142, 8.749e-7
-1.143, 8.779e-7
-1.144, 8.443e-7
-1.145, 8.779e-7
-1.146, 8.956e-7
-1.147, 8.927e-7
-1.148, 8.887e-7
-1.149, 8.848e-7
-1.150, 9.016e-7
-1.151, 9.390e-7
-1.152, 8.966e-7
-1.153, 9.450e-7
-1.154, 9.173e-7
-1.155, 9.430e-7
-1.156, 9.469e-7
-1.157, 9.193e-7
-1.158, 9.519e-7
-1.159, 9.637e-7
-1.160, 9.588e-7
-1.161, 9.607e-7
-1.162, 9.529e-7
-1.163, 9.677e-7
-1.164, 1.004e-6
-1.165, 9.973e-7
-1.166, 9.854e-7
-1.167, 9.765e-7
-1.168, 1.016e-6
-1.169, 9.953e-7
-1.170, 9.775e-7
-1.171, 1.003e-6
-1.172, 1.006e-6
-1.173, 1.055e-6
-1.174, 1.012e-6
-1.175, 1.028e-6
-1.176, 1.021e-6
-1.177, 1.025e-6
-1.178, 1.047e-6
-1.179, 1.033e-6
-1.180, 1.033e-6
-1.181, 1.082e-6
-1.182, 1.047e-6
-1.183, 1.064e-6
-1.184, 1.080e-6
-1.185, 1.075e-6
-1.186, 1.077e-6
-1.187, 1.097e-6
-1.188, 1.092e-6
-1.189, 1.091e-6
-1.190, 1.096e-6
-1.191, 1.110e-6
-1.192, 1.101e-6
-1.193, 1.124e-6
-1.194, 1.148e-6
-1.195, 1.111e-6
-1.196, 1.125e-6
-1.197, 1.129e-6
-1.198, 1.139e-6
-1.199, 1.141e-6
-1.200, 1.139e-6
-1.201, 1.165e-6
-1.202, 1.151e-6
-1.203, 1.168e-6
-1.204, 1.196e-6
-1.205, 1.181e-6
-1.206, 1.171e-6
-1.207, 1.187e-6
-1.208, 1.186e-6
-1.209, 1.195e-6
-1.210, 1.181e-6
-1.211, 1.196e-6
-1.212, 1.185e-6
-1.213, 1.219e-6
-1.214, 1.213e-6
-1.215, 1.213e-6
-1.216, 1.224e-6
-1.217, 1.230e-6
-1.218, 1.254e-6
-1.219, 1.235e-6
-1.220, 1.244e-6
-1.221, 1.244e-6
-1.222, 1.263e-6
-1.223, 1.257e-6
-1.224, 1.250e-6
-1.225, 1.268e-6
-1.226, 1.281e-6
-1.227, 1.270e-6
-1.228, 1.265e-6
-1.229, 1.295e-6
-1.230, 1.303e-6
-1.231, 1.300e-6
-1.232, 1.294e-6
-1.233, 1.308e-6
-1.234, 1.316e-6
-1.235, 1.328e-6
-1.236, 1.304e-6
-1.237, 1.331e-6
-1.238, 1.326e-6
-1.239, 1.311e-6
-1.240, 1.345e-6
-1.241, 1.349e-6
-1.242, 1.338e-6
-1.243, 1.382e-6
-1.244, 1.340e-6
-1.245, 1.377e-6
-1.246, 1.382e-6
-1.247, 1.347e-6
-1.248, 1.392e-6
-1.249, 1.360e-6
-1.250, 1.357e-6
-1.251, 1.407e-6
-1.252, 1.361e-6
-1.253, 1.409e-6
-1.254, 1.398e-6
-1.255, 1.412e-6
-1.256, 1.410e-6
-1.257, 1.408e-6
-1.258, 1.417e-6
-1.259, 1.418e-6
-1.260, 1.414e-6
-1.261, 1.445e-6
-1.262, 1.434e-6
-1.263, 1.459e-6
-1.264, 1.452e-6
-1.265, 1.436e-6
-1.266, 1.472e-6
-1.267, 1.452e-6
-1.268, 1.444e-6
-1.269, 1.462e-6
-1.270, 1.460e-6
-1.271, 1.461e-6
-1.272, 1.461e-6
-1.273, 1.473e-6
-1.274, 1.483e-6
-1.275, 1.478e-6
-1.276, 1.488e-6
-1.277, 1.498e-6
-1.278, 1.477e-6
-1.279, 1.490e-6
-1.280, 1.505e-6
-1.281, 1.544e-6
-1.282, 1.492e-6
-1.283, 1.536e-6
-1.284, 1.511e-6
-1.285, 1.528e-6
-1.286, 1.537e-6
-1.287, 1.560e-6
-1.288, 1.540e-6
-1.289, 1.563e-6
-1.290, 1.545e-6
-1.291, 1.566e-6
-1.292, 1.544e-6
-1.293, 1.568e-6
-1.294, 1.577e-6
-1.295, 1.594e-6
-1.296, 1.587e-6
-1.297, 1.573e-6
-1.298, 1.575e-6
-1.299, 1.593e-6
-1.300, 1.615e-6
-1.301, 1.613e-6
-1.302, 1.598e-6
-1.303, 1.617e-6
-1.304, 1.606e-6
-1.305, 1.629e-6
-1.306, 1.652e-6
-1.307, 1.640e-6
-1.308, 1.622e-6
-1.309, 1.622e-6
-1.310, 1.625e-6
-1.311, 1.661e-6
-1.312, 1.652e-6
-1.313, 1.630e-6
-1.314, 1.658e-6
-1.315, 1.669e-6
-1.316, 1.680e-6
-1.317, 1.653e-6
-1.318, 1.688e-6
-1.319, 1.694e-6
-1.320, 1.699e-6
-1.321, 1.694e-6
-1.322, 1.697e-6
-1.323, 1.692e-6
-1.324, 1.694e-6
-1.325, 1.725e-6
-1.326, 1.737e-6
-1.327, 1.710e-6
-1.328, 1.728e-6
-1.329, 1.721e-6
-1.330, 1.735e-6
-1.331, 1.746e-6
-1.332, 1.754e-6
-1.333, 1.740e-6
-1.334, 1.737e-6
-1.335, 1.745e-6
-1.336, 1.777e-6
-1.337, 1.763e-6
-1.338, 1.779e-6
-1.339, 1.757e-6
-1.340, 1.776e-6
-1.341, 1.805e-6
-1.342, 1.787e-6
-1.343, 1.790e-6
-1.344, 1.790e-6
-1.345, 1.818e-6
-1.346, 1.831e-6
-1.347, 1.801e-6
-1.348, 1.806e-6
-1.349, 1.826e-6
-1.350, 1.834e-6
-1.351, 1.856e-6
-1.352, 1.828e-6
-1.353, 1.852e-6
-1.354, 1.841e-6
-1.355, 1.853e-6
-1.356, 1.843e-6
-1.357, 1.871e-6
-1.358, 1.836e-6
-1.359, 1.875e-6
-1.360, 1.881e-6
-1.361, 1.884e-6
-1.362, 1.901e-6
-1.363, 1.907e-6
-1.364, 1.897e-6
-1.365, 1.912e-6
-1.366, 1.953e-6
-1.367, 1.932e-6
-1.368, 1.913e-6
-1.369, 1.933e-6
-1.370, 1.954e-6
-1.371, 1.954e-6
-1.372, 1.955e-6
-1.373, 1.966e-6
-1.374, 1.926e-6
-1.375, 1.980e-6
-1.376, 1.988e-6
-1.377, 1.978e-6
-1.378, 1.971e-6
-1.379, 1.962e-6
-1.380, 1.977e-6
-1.381, 2.027e-6
-1.382, 1.997e-6
-1.383, 2.016e-6
-1.384, 2.008e-6
-1.385, 2.007e-6
-1.386, 2.050e-6
-1.387, 2.031e-6
-1.388, 2.040e-6
-1.389, 2.051e-6
-1.390, 2.039e-6
-1.391, 2.066e-6
-1.392, 2.058e-6
-1.393, 2.086e-6
-1.394, 2.071e-6
-1.395, 2.094e-6
-1.396, 2.102e-6
-1.397, 2.089e-6
-1.398, 2.123e-6
-1.399, 2.104e-6
-1.400, 1.927e-6
-1.399, 1.821e-6
-1.398, 1.708e-6
-1.397, 1.682e-6
-1.396, 1.622e-6
-1.395, 1.589e-6
-1.394, 1.587e-6
-1.393, 1.529e-6
-1.392, 1.489e-6
-1.391, 1.439e-6
-1.390, 1.449e-6
-1.389, 1.406e-6
-1.388, 1.376e-6
-1.387, 1.369e-6
-1.386, 1.344e-6
-1.385, 1.325e-6
-1.384, 1.296e-6
-1.383, 1.288e-6
-1.382, 1.285e-6
-1.381, 1.233e-6
-1.380, 1.215e-6
-1.379, 1.197e-6
-1.378, 1.217e-6
-1.377, 1.200e-6
-1.376, 1.166e-6
-1.375, 1.169e-6
-1.374, 1.129e-6
-1.373, 1.163e-6
-1.372, 1.102e-6
-1.371, 1.104e-6
-1.370, 1.095e-6
-1.369, 1.080e-6
-1.368, 1.078e-6
-1.367, 1.084e-6
-1.366, 1.041e-6
-1.365, 1.034e-6
-1.364, 1.020e-6
-1.363, 1.019e-6
-1.362, 1.012e-6
-1.361, 1.000e-6
-1.360, 9.686e-7
-1.359, 9.755e-7
-1.358, 9.746e-7
-1.357, 9.351e-7
-1.356, 9.321e-7
-1.355, 9.223e-7
-1.354, 9.479e-7
-1.353, 9.193e-7
-1.352, 9.400e-7
-1.351, 9.065e-7
-1.350, 8.887e-7
-1.349, 8.729e-7
-1.348, 8.808e-7
-1.347, 8.572e-7
-1.346, 8.522e-7
-1.345, 8.374e-7
-1.344, 8.345e-7
-1.343, 8.384e-7
-1.342, 8.078e-7
-1.341, 8.068e-7
-1.340, 8.295e-7
-1.339, 7.940e-7
-1.338, 7.812e-7
-1.337, 7.782e-7
-1.336, 7.782e-7
-1.335, 7.782e-7
-1.334, 7.644e-7
-1.333, 7.526e-7
-1.332, 7.624e-7
-1.331, 7.467e-7
-1.330, 7.299e-7
-1.329, 7.230e-7
-1.328, 7.200e-7
-1.327, 7.220e-7
-1.326, 7.141e-7
-1.325, 7.279e-7
-1.324, 7.023e-7
-1.323, 6.904e-7
-1.322, 6.993e-7
-1.321, 7.013e-7
-1.320, 6.884e-7
-1.319, 6.924e-7
-1.318, 6.569e-7
-1.317, 6.450e-7
-1.316, 6.736e-7
-1.315, 6.352e-7
-1.314, 6.559e-7
-1.313, 6.510e-7
-1.312, 6.273e-7
-1.311, 6.115e-7
-1.310, 6.145e-7
-1.309, 6.194e-7
-1.308, 6.184e-7
-1.307, 5.918e-7
-1.306, 6.184e-7
-1.305, 5.760e-7
-1.304, 5.947e-7
-1.303, 5.720e-7
-1.302, 5.750e-7
-1.301, 5.839e-7
-1.300, 5.720e-7
-1.299, 5.730e-7
-1.298, 5.434e-7
-1.297, 5.414e-7
-1.296, 5.553e-7
-1.295, 5.493e-7
-1.294, 5.306e-7
-1.293, 5.237e-7
-1.292, 5.217e-7
-1.291, 5.197e-7
-1.290, 5.217e-7
-1.289, 5.207e-7
-1.288, 5.099e-7
-1.287, 5.049e-7
-1.286, 4.970e-7
-1.285, 4.832e-7
-1.284, 4.832e-7
-1.283, 4.911e-7
-1.282, 4.842e-7
-1.281, 4.605e-7
-1.280, 4.625e-7
-1.279, 4.734e-7
-1.278, 4.674e-7
-1.277, 4.309e-7
-1.276, 4.290e-7
-1.275, 4.586e-7
-1.274, 4.181e-7
-1.273, 4.300e-7
-1.272, 4.280e-7
-1.271, 4.270e-7
-1.270, 4.270e-7
-1.269, 4.339e-7
-1.268, 4.250e-7
-1.267, 3.846e-7
-1.266, 4.033e-7
-1.265, 4.142e-7
-1.264, 3.984e-7
-1.263, 4.112e-7
-1.262, 3.865e-7
-1.261, 3.895e-7
-1.260, 3.540e-7
-1.259, 3.796e-7
-1.258, 3.836e-7
-1.257, 3.431e-7
-1.256, 3.639e-7
-1.255, 3.777e-7
-1.254, 3.382e-7
-1.253, 3.510e-7
-1.252, 3.431e-7
-1.251, 3.471e-7
-1.250, 3.352e-7
-1.249, 3.481e-7
-1.248, 3.204e-7
-1.247, 3.323e-7
-1.246, 3.096e-7
-1.245, 3.224e-7
-1.244, 3.313e-7
-1.243, 3.234e-7
-1.242, 3.175e-7
-1.241, 2.790e-7
-1.240, 3.195e-7
-1.239, 3.017e-7
-1.238, 2.948e-7
-1.237, 2.978e-7
-1.236, 2.553e-7
-1.235, 2.751e-7
-1.234, 3.037e-7
-1.233, 2.987e-7
-1.232, 2.780e-7
-1.231, 2.573e-7
-1.230, 2.760e-7
-1.229, 2.652e-7
-1.228, 2.405e-7
-1.227, 2.307e-7
-1.226, 2.484e-7
-1.225, 2.415e-7
-1.224, 2.563e-7
-1.223, 2.415e-7
-1.222, 2.277e-7
-1.221, 2.080e-7
-1.220, 2.238e-7
-1.219, 1.961e-7
-1.218, 2.208e-7
-1.217, 2.060e-7
-1.216, 1.892e-7
-1.215, 1.882e-7
-1.214, 1.912e-7
-1.213, 2.090e-7
-1.212, 1.882e-7
-1.211, 1.744e-7
-1.210, 1.734e-7
-1.209, 1.626e-7
-1.208, 1.961e-7
-1.207, 1.734e-7
-1.206, 1.902e-7
-1.205, 1.616e-7
-1.204, 1.764e-7
-1.203, 1.537e-7
-1.202, 1.606e-7
-1.201, 1.675e-7
-1.200, 1.429e-7
-1.199, 1.508e-7
-1.198, 1.547e-7
-1.197, 1.429e-7
-1.196, 1.399e-7
-1.195, 1.399e-7
-1.194, 1.478e-7
-1.193, 1.192e-7
-1.192, 1.300e-7
-1.191, 1.182e-7
-1.190, 1.064e-7
-1.189, 1.221e-7
-1.188, 1.034e-7
-1.187, 1.064e-7
-1.186, 1.123e-7
-1.185, 8.169e-8
-1.184, 1.083e-7
-1.183, 1.064e-7
-1.182, 8.268e-8
-1.181, 1.014e-7
-1.180, 1.123e-7
-1.179, 8.070e-8
-1.178, 8.169e-8
-1.177, 7.182e-8
-1.176, 7.380e-8
-1.175, 6.196e-8
-1.174, 6.393e-8
-1.173, 8.564e-8
-1.172, 6.689e-8
-1.171, 4.617e-8
-1.170, 5.308e-8
-1.169, 5.900e-8
-1.168, 1.263e-8
-1.167, 6.097e-8
-1.166, 6.097e-8
-1.165, 2.348e-8
-1.164, 1.756e-8
-1.163, 3.927e-8
-1.162, 1.559e-8
-1.161, 1.460e-8
-1.160, 9.669e-9
-1.159, 2.348e-8
-1.158, 3.631e-8
-1.157, 8.682e-9
-1.156, 2.249e-8
-1.155, 6.709e-9
-1.154, 6.709e-9
-1.153, 7.695e-9
-1.152, -9.077e-9
-1.151, -6.117e-9
-1.150, -1.204e-8
-1.149, 1.776e-9
-1.148, -1.204e-8
-1.147, -1.184e-9
-1.146, -4.144e-9
-1.145, -1.598e-8
-1.144, -4.657e-8
-1.143, -3.769e-8
-1.142, -2.289e-8
-1.141, -3.078e-8
-1.140, -4.558e-8
-1.139, -6.729e-8
-1.138, -5.347e-8
-1.137, -3.571e-8
-1.136, -6.038e-8
-1.135, -2.585e-8
-1.134, -6.235e-8
-1.133, -5.150e-8
-1.132, -6.334e-8
-1.131, -5.446e-8
-1.130, -3.177e-8
-1.129, -6.433e-8
-1.128, -8.110e-8
-1.127, -7.123e-8
-1.126, -8.208e-8
-1.125, -9.984e-8
-1.124, -1.058e-7
-1.123, -7.222e-8
-1.122, -8.800e-8
-1.121, -1.127e-7
-1.120, -1.067e-7
-1.119, -1.166e-7
-1.118, -8.307e-8
-1.117, -1.117e-7
-1.116, -1.156e-7
-1.115, -1.245e-7
-1.114, -1.255e-7
-1.113, -1.285e-7
-1.112, -1.245e-7
-1.111, -1.166e-7
-1.110, -1.156e-7
-1.109, -1.521e-7
-1.108, -1.314e-7
-1.107, -1.423e-7
-1.106, -1.383e-7
-1.105, -1.215e-7
-1.104, -1.630e-7
-1.103, -1.492e-7
-1.102, -1.502e-7
-1.101, -1.472e-7
-1.100, -1.689e-7
-1.099, -1.571e-7
-1.098, -1.748e-7
-1.097, -1.610e-7
-1.096, -1.610e-7
-1.095, -1.926e-7
-1.094, -1.640e-7
-1.093, -2.005e-7
-1.092, -1.906e-7
-1.091, -1.689e-7
-1.090, -1.827e-7
-1.089, -2.024e-7
-1.088, -1.946e-7
-1.087, -2.074e-7
-1.086, -2.054e-7
-1.085, -2.064e-7
-1.084, -2.143e-7
-1.083, -2.123e-7
-1.082, -2.212e-7
-1.081, -2.113e-7
-1.080, -2.271e-7
-1.079, -2.143e-7
-1.078, -2.163e-7
-1.077, -2.123e-7
-1.076, -2.429e-7
-1.075, -2.439e-7
-1.074, -2.370e-7
-1.073, -2.350e-7
-1.072, -2.508e-7
-1.071, -2.449e-7
-1.070, -2.498e-7
-1.069, -2.459e-7
-1.068, -2.478e-7
-1.067, -2.577e-7
-1.066, -2.616e-7
-1.065, -2.735e-7
-1.064, -2.557e-7
-1.063, -2.567e-7
-1.062, -2.814e-7
-1.061, -2.804e-7
-1.060, -2.715e-7
-1.059, -2.972e-7
-1.058, -2.686e-7
-1.057, -3.070e-7
-1.056, -2.873e-7
-1.055, -2.942e-7
-1.054, -3.021e-7
-1.053, -2.893e-7
-1.052, -3.287e-7
-1.051, -2.972e-7
-1.050, -2.962e-7
-1.049, -3.129e-7
-1.048, -3.060e-7
-1.047, -3.356e-7
-1.046, -2.952e-7
-1.045, -3.248e-7
-1.044, -3.199e-7
-1.043, -3.425e-7
-1.042, -3.337e-7
-1.041, -3.199e-7
-1.040, -3.504e-7
-1.039, -3.495e-7
-1.038, -3.475e-7
-1.037, -3.643e-7
-1.036, -3.268e-7
-1.035, -3.593e-7
-1.034, -3.435e-7
-1.033, -3.564e-7
-1.032, -3.564e-7
-1.031, -3.751e-7
-1.030, -3.603e-7
-1.029, -3.652e-7
-1.028, -3.682e-7
-1.027, -3.790e-7
-1.026, -3.869e-7
-1.025, -3.623e-7
-1.024, -4.096e-7
-1.023, -4.086e-7
-1.022, -4.096e-7
-1.021, -3.968e-7
-1.020, -3.909e-7
-1.019, -4.373e-7
-1.018, -4.165e-7
-1.017, -4.057e-7
-1.016, -4.047e-7
-1.015, -3.899e-7
-1.014, -4.244e-7
-1.013, -4.264e-7
-1.012, -4.086e-7
-1.011, -4.353e-7
-1.010, -4.264e-7
-1.009, -4.461e-7
-1.008, -4.363e-7
-1.007, -4.156e-7
-1.006, -4.432e-7
-1.005, -4.422e-7
-1.004, -4.836e-7
-1.003, -4.639e-7
-1.002, -4.481e-7
-1.001, -4.550e-7
