Potential V vs RHE, Current mA cm-2
0.013299999999999867,-0.48199213986401795
0.012299999999999978,-1.9650339955125358
0.011299999999999866,-3.0996324580042955
0.010299999999999976,-4.102662769608606
0.009299999999999864,-4.9302688800296535
0.008299999999999974,-5.672992312458796
0.007299999999999862,-6.238876832404812
0.006299999999999972,-6.762320013354876
0.00529999999999986,-7.199465805013171
0.0042999999999999705,-7.591340835075788
0.0032999999999998586,-7.940774526142452
0.0022999999999999687,-8.246352166913299
0.0012999999999998568,-8.464217707092514
0.00029999999999996696,-8.68208324727173
-0.000700000000000145,-8.899948787450944
-0.0017000000000000348,-9.073958277334345
-0.0027000000000001467,-9.205526428221793
-0.0037000000000000366,-9.379535918105192
-0.0047000000000001485,-9.511104068992642
-0.005700000000000038,-9.641257508580225
-0.00670000000000015,-9.772825659467674
-0.00770000000000004,-9.85912304875944
-0.008700000000000152,-9.946835149351072
-0.009700000000000042,-10.034547249942705
-0.010700000000000154,-10.078403300238522
-0.011700000000000044,-10.164700689530287
-0.012700000000000156,-10.208556739826104
-0.013700000000000045,-10.208556739826104
-0.014700000000000157,-10.25241279012192
-0.015700000000000047,-10.25241279012192
-0.01670000000000016,-10.296268840417738
-0.01770000000000005,-10.340124890713554
-0.01870000000000016,-10.340124890713554
-0.01970000000000005,-10.382566229709504
-0.020700000000000163,-10.42642228000532
-0.021700000000000053,-10.42642228000532
-0.022700000000000164,-10.470278330301136
-0.023700000000000054,-10.470278330301136
-0.024700000000000166,-10.514134380596953
-0.025700000000000056,-10.514134380596953
-0.026700000000000168,-10.514134380596953
-0.027700000000000058,-10.514134380596953
-0.02870000000000017,-10.514134380596953
-0.02970000000000006,-10.470278330301136
-0.03070000000000017,-10.514134380596953
-0.03170000000000006,-10.470278330301136
-0.03270000000000017,-10.514134380596953
-0.03370000000000006,-10.514134380596953
-0.034700000000000175,-10.514134380596953
-0.035700000000000065,-10.557990430892769
-0.03670000000000018,-10.557990430892769
-0.03770000000000007,-10.601846481188586
-0.03870000000000018,-10.601846481188586
-0.03970000000000007,-10.601846481188586
-0.04070000000000018,-10.601846481188586
-0.04170000000000007,-10.601846481188586
-0.04270000000000018,-10.557990430892769
-0.04370000000000007,-10.557990430892769
-0.044700000000000184,-10.557990430892769
-0.045700000000000074,-10.557990430892769
-0.046700000000000186,-10.557990430892769
-0.047700000000000076,-10.601846481188586
-0.04870000000000019,-10.601846481188586
-0.04970000000000008,-10.644287820184536
-0.05070000000000019,-10.644287820184536
-0.05170000000000008,-10.688143870480351
-0.05270000000000019,-10.731999920776168
-0.05370000000000008,-10.731999920776168
-0.05470000000000019,-10.731999920776168
-0.05570000000000008,-10.731999920776168
-0.056700000000000195,-10.731999920776168
-0.057700000000000085,-10.731999920776168
-0.058700000000000196,-10.688143870480351
-0.059700000000000086,-10.688143870480351
-0.0607000000000002,-10.688143870480351
-0.06170000000000009,-10.688143870480351
-0.0627000000000002,-10.688143870480351
-0.06370000000000009,-10.644287820184536
-0.0647000000000002,-10.688143870480351
-0.06570000000000009,-10.688143870480351
-0.0667000000000002,-10.688143870480351
-0.0677000000000001,-10.731999920776168
-0.0687000000000002,-10.731999920776168
-0.0697000000000001,-10.731999920776168
-0.07070000000000021,-10.688143870480351
-0.0717000000000001,-10.688143870480351
-0.07270000000000021,-10.644287820184536
-0.0737000000000001,-10.601846481188586
-0.07470000000000021,-10.557990430892769
-0.0757000000000001,-10.557990430892769
-0.07670000000000021,-10.557990430892769
-0.0777000000000001,-10.514134380596953
-0.07870000000000021,-10.557990430892769
-0.0797000000000001,-10.557990430892769
-0.08070000000000022,-10.557990430892769
-0.0817000000000001,-10.601846481188586
-0.08270000000000022,-10.601846481188586
-0.08370000000000011,-10.644287820184536
-0.08470000000000022,-10.644287820184536
-0.08570000000000011,-10.644287820184536
-0.08670000000000022,-10.688143870480351
-0.08770000000000011,-10.688143870480351
-0.08870000000000022,-10.688143870480351
-0.08970000000000011,-10.688143870480351
-0.09070000000000022,-10.688143870480351
-0.09170000000000011,-10.731999920776168
-0.09270000000000023,-10.731999920776168
-0.09370000000000012,-10.731999920776168
-0.09470000000000023,-10.775855971071984
-0.09570000000000012,-10.819712021367803
-0.09670000000000023,-10.819712021367803
-0.09770000000000012,-10.863568071663616
-0.09870000000000023,-10.906009410659568
-0.09970000000000012,-10.906009410659568
-0.10070000000000023,-10.863568071663616
-0.10170000000000012,-10.906009410659568
-0.10270000000000024,-10.906009410659568
-0.10370000000000013,-10.863568071663616
-0.10470000000000024,-10.863568071663616
-0.10570000000000013,-10.863568071663616
-0.10670000000000024,-10.863568071663616
-0.10770000000000013,-10.863568071663616
-0.10870000000000024,-10.863568071663616
-0.10970000000000013,-10.863568071663616
-0.11070000000000024,-10.906009410659568
-0.11170000000000013,-10.906009410659568
-0.11270000000000002,-10.906009410659568
-0.11370000000000013,-10.906009410659568
-0.11470000000000002,-10.906009410659568
-0.11570000000000014,-10.906009410659568
-0.11670000000000003,-10.906009410659568
-0.11770000000000014,-10.863568071663616
-0.11870000000000003,-10.863568071663616
-0.11970000000000014,-10.863568071663616
-0.12070000000000003,-10.863568071663616
-0.12170000000000014,-10.863568071663616
-0.12270000000000003,-10.819712021367803
-0.12370000000000014,-10.863568071663616
-0.12470000000000003,-10.863568071663616
-0.12570000000000014,-10.906009410659568
-0.12670000000000003,-10.906009410659568
-0.12770000000000015,-10.906009410659568
-0.12870000000000004,-10.949865460955383
-0.12970000000000015,-10.949865460955383
-0.13070000000000004,-10.949865460955383
-0.13170000000000015,-10.949865460955383
-0.13270000000000004,-10.949865460955383
-0.13370000000000015,-10.949865460955383
-0.13470000000000004,-10.993721511251199
-0.13570000000000015,-10.993721511251199
-0.13670000000000004,-10.993721511251199
-0.13770000000000016,-11.037577561547016
-0.13870000000000005,-11.037577561547016
-0.13970000000000016,-11.081433611842833
-0.14070000000000005,-11.123874950838783
-0.14170000000000016,-11.1677310011346
-0.14270000000000005,-11.1677310011346
-0.14370000000000016,-11.211587051430415
-0.14470000000000005,-11.211587051430415
-0.14570000000000016,-11.211587051430415
-0.14670000000000005,-11.255443101726232
-0.14770000000000016,-11.255443101726232
-0.14870000000000005,-11.255443101726232
-0.14970000000000017,-11.255443101726232
-0.15070000000000006,-11.255443101726232
-0.15170000000000017,-11.255443101726232
-0.15270000000000006,-11.299299152022046
-0.15370000000000017,-11.299299152022046
-0.15470000000000006,-11.299299152022046
-0.15570000000000017,-11.343155202317865
-0.15670000000000006,-11.343155202317865
-0.15770000000000017,-11.385596541313816
-0.15870000000000006,-11.385596541313816
-0.15970000000000018,-11.42945259160963
-0.16070000000000007,-11.42945259160963
-0.16170000000000018,-11.42945259160963
-0.16270000000000007,-11.42945259160963
-0.16370000000000018,-11.42945259160963
-0.16470000000000007,-11.42945259160963
-0.16570000000000018,-11.42945259160963
-0.16670000000000007,-11.42945259160963
-0.16770000000000018,-11.42945259160963
-0.16870000000000007,-11.473308641905447
-0.16970000000000018,-11.473308641905447
-0.17070000000000007,-11.517164692201263
-0.17170000000000019,-11.56102074249708
-0.17270000000000008,-11.604876792792895
-0.1737000000000002,-11.604876792792895
-0.17470000000000008,-11.647318131788847
-0.1757000000000002,-11.647318131788847
-0.17670000000000008,-11.691174182084664
-0.1777000000000002,-11.691174182084664
-0.17870000000000008,-11.73503023238048
-0.1797000000000002,-11.73503023238048
-0.18070000000000008,-11.778886282676295
-0.1817000000000002,-11.82274233297211
-0.18270000000000008,-11.82274233297211
-0.1837000000000002,-11.86659838326793
-0.1847000000000001,-11.909039722263879
-0.1857000000000002,-11.952895772559694
-0.1867000000000001,-11.996751822855511
-0.1877000000000002,-12.084463923447142
-0.1887000000000001,-12.084463923447142
-0.1897000000000002,-12.12831997374296
-0.1907000000000001,-12.170761312738911
-0.1917000000000001,-12.12831997374296
-0.19269999999999998,-12.170761312738911
-0.1937000000000001,-12.170761312738911
-0.19469999999999998,-12.170761312738911
-0.1957000000000001,-12.170761312738911
-0.19669999999999999,-12.170761312738911
-0.1977000000000001,-12.214617363034726
-0.1987,-12.214617363034726
-0.1997000000000001,-12.258473413330542
-0.2007,-12.258473413330542
-0.2017000000000001,-12.302329463626359
-0.2027,-12.302329463626359
-0.2037000000000001,-12.302329463626359
-0.2047,-12.302329463626359
-0.2057000000000001,-12.302329463626359
-0.2067,-12.346185513922174
-0.2077000000000001,-12.302329463626359
-0.2087,-12.302329463626359
-0.2097000000000001,-12.346185513922174
-0.2107,-12.346185513922174
-0.2117000000000001,-12.390041564217992
-0.2127,-12.390041564217992
-0.2137000000000001,-12.432482903213943
-0.2147,-12.476338953509758
-0.2157000000000001,-12.56405105410139
-0.2167,-12.607907104397206
-0.21770000000000012,-12.694204493688973
-0.2187,-12.694204493688973
-0.21970000000000012,-12.73806054398479
-0.2207,-12.781916594280606
-0.22170000000000012,-12.825772644576423
-0.2227,-12.869628694872238
-0.22370000000000012,-12.869628694872238
-0.2247,-12.913484745168056
-0.22570000000000012,-12.955926084164007
-0.2267,-12.955926084164007
-0.22770000000000012,-12.99978213445982
-0.22870000000000001,-13.087494235051453
-0.22970000000000013,-13.175206335643086
-0.23070000000000002,-13.217647674639037
-0.23170000000000013,-13.261503724934855
-0.23270000000000002,-13.30535977523067
-0.23370000000000013,-13.349215825526485
-0.23470000000000002,-13.349215825526485
-0.23570000000000013,-13.3930718758223
-0.23670000000000002,-13.3930718758223
-0.2376999999999999,-13.3930718758223
-0.23870000000000002,-13.3930718758223
-0.2396999999999999,-13.3930718758223
-0.24070000000000003,-13.3930718758223
-0.24169999999999991,-13.436927926118118
-0.24270000000000003,-13.3930718758223
-0.24369999999999992,-13.436927926118118
-0.24470000000000003,-13.47936926511407
-0.24569999999999992,-13.523225315409885
-0.24670000000000003,-13.567081365705702
-0.24769999999999992,-13.567081365705702
-0.24870000000000003,-13.610937416001518
-0.24969999999999992,-13.654793466297335
-0.25070000000000003,-13.654793466297335
-0.2516999999999999,-13.654793466297335
-0.25270000000000004,-13.698649516593148
-0.2536999999999999,-13.698649516593148
-0.25470000000000004,-13.698649516593148
-0.2556999999999999,-13.741090855589102
-0.25670000000000004,-13.784946905884919
-0.25769999999999993,-13.784946905884919
-0.25870000000000004,-13.828802956180734
-0.25969999999999993,-13.916515056772363
-0.26070000000000004,-13.960371107068182
-0.26169999999999993,-14.002812446064135
-0.26270000000000004,-14.090524546655764
-0.26369999999999993,-14.175407224647667
-0.26470000000000005,-14.217848563643619
-0.26569999999999994,-14.26028990263957
-0.26670000000000005,-14.345172580631472
-0.26769999999999994,-14.401761032626075
-0.26870000000000005,-14.401761032626075
-0.26969999999999994,-14.486643710617974
-0.27070000000000005,-14.529085049613924
-0.27169999999999994,-14.57152638860988
-0.27270000000000005,-14.61396772760583
-0.27369999999999994,-14.69885040559773
-0.27470000000000006,-14.741291744593681
-0.27569999999999995,-14.826174422585586
-0.27670000000000006,-14.868615761581536
-0.27769999999999995,-14.967645552572087
-0.27870000000000006,-15.05252823056399
-0.27969999999999995,-15.094969569559943
-0.28070000000000006,-15.179852247551842
-0.28169999999999995,-15.222293586547794
-0.28270000000000006,-15.264734925543747
-0.28369999999999995,-15.307176264539699
-0.28470000000000006,-15.349617603535648
-0.28569999999999995,-15.3920589425316
-0.28670000000000007,-15.491088733522153
-0.28769999999999996,-15.533530072518102
-0.28870000000000007,-15.618412750510005
-0.28969999999999996,-15.70329542850191
-0.29070000000000007,-15.78817810649381
-0.29169999999999996,-15.87306078448571
-0.29270000000000007,-16.014531914472215
-0.29369999999999996,-16.099414592464115
-0.2947000000000001,-16.22673860945197
-0.29569999999999996,-16.311621287443874
-0.2967000000000001,-16.396503965435777
-0.29769999999999996,-16.53797509542228
-0.2987000000000001,-16.622857773414182
-0.29969999999999997,-16.750181790402035
-0.3007000000000001,-16.835064468393938
-0.30169999999999997,-17.018976937376394
-0.3027000000000001,-17.146300954364243
-0.30369999999999997,-17.2736249713521
-0.3047000000000001,-17.4433903273359
-0.30569999999999997,-17.627302796318357
-0.3067000000000001,-17.797068152302163
-0.3077,-17.966833508285966
-0.3087000000000001,-18.19318731626437
-0.3097,-18.362952672248177
-0.3107000000000001,-18.53271802823198
-0.3117,-18.716630497214435
-0.3127000000000001,-18.92883719219419
-0.3137,-19.112749661176647
-0.3147000000000001,-19.3249563561564
-0.3157,-19.537163051136158
-0.3167000000000001,-19.763516859114564
-0.3177,-19.97572355409432
-0.3187000000000001,-20.202077362072725
-0.3197,-20.456725396048434
-0.3207000000000001,-20.72552054302279
-0.3217,-20.980168576998494
-0.3227000000000001,-21.291405062968803
-0.3237,-21.58849443594046
-0.3247000000000001,-21.899730921910766
-0.3257,-22.15437895588647
-0.3267000000000001,-22.46561544185678
-0.3277,-22.819293266823045
-0.3287000000000001,-23.1163826397947
-0.3297,-23.47006046476096
-0.3307000000000001,-23.86617962872317
-0.3317,-24.24815167968673
-0.3327000000000001,-24.64427084364894
-0.3337,-25.0828313466071
-0.3347000000000001,-25.521391849565262
-0.3357,-26.002393691519377
-0.3367000000000001,-26.483395533473487
-0.3377,-27.00683871442355
-0.3387000000000001,-27.530281895373616
-0.3397,-28.05372507632368
-0.3407000000000001,-28.619609596269694
-0.3417,-29.22793545521166
-0.3427000000000001,-29.836261314153624
-0.3437,-30.487028512091538
-0.3447000000000001,-31.137795710029454
-0.3457,-31.887592698957924
-0.3467000000000001,-32.66568391388369
-0.3477,-33.45792224180811
-0.3487000000000001,-34.278454795729836
-0.3497,-35.15557580164616
-0.3507000000000001,-36.07513814655844
-0.3517,-37.037141830466666
-0.3527000000000001,-38.08402819236679
-0.3537,-39.130914554266916
-0.3547000000000001,-40.177800916167044
-0.3557,-41.267128617063115
-0.35670000000000013,-42.4413389959511
-0.3577,-43.657990713835034
-0.35870000000000013,-44.97367222270952
-0.3597,-46.2327652795894
-0.36070000000000013,-47.633329466455784
-0.3617,-49.03389365332217
-0.3626999999999999,-50.50519340518181
-0.3637,-52.033081609036046
-0.3646999999999999,-53.64585249088219
-0.3657,-55.25862337272834
-0.3666999999999999,-57.012865384560975
-0.3677,-58.75296028339497
-0.3686999999999999,-60.54964363422357
-0.36970000000000003,-62.33217987205352
-0.3706999999999999,-64.11471610988345
-0.37170000000000003,-66.03872347769992
-0.3726999999999999,-67.9202895065204
-0.37370000000000003,-69.8301497613382
-0.3746999999999999,-71.83903980714656
-0.37570000000000003,-73.80548851395896
-0.3766999999999999,-75.81437855976732
-0.37770000000000004,-77.86570994457162
-0.3786999999999999,-80.00192400736783
-0.37970000000000004,-82.13813807016405
-0.3806999999999999,-84.31679347195619
-0.38170000000000004,-86.49544887374834
-0.38269999999999993,-88.7589869535324
-0.38370000000000004,-91.03667214631511
-0.38469999999999993,-93.34265156509512
-0.38570000000000004,-95.60618964487918
-0.38669999999999993,-96.69551734577524
-0.38570000000000004,-95.95986746984543
-0.38469999999999993,-95.60618964487918
-0.38370000000000004,-95.35154161090348
-0.38269999999999993,-95.18177625491967
-0.38170000000000004,-94.95542244694126
-0.3806999999999999,-94.7432157519615
-0.37970000000000004,-94.5168619439831
-0.3786999999999999,-94.26221391000739
-0.37770000000000004,-93.86609474604518
-0.3766999999999999,-93.55485826007487
-0.37570000000000003,-93.17288620911131
-0.3746999999999999,-92.7767670451491
-0.37370000000000003,-92.33820654219093
-0.3726999999999999,-91.81476336124088
-0.37170000000000003,-91.29132018029082
-0.3706999999999999,-90.7254356603448
-0.36970000000000003,-90.11710980140283
-0.3686999999999999,-89.46634260346492
-0.3677,-88.80142829252836
-0.3666999999999999,-88.15066109459043
-0.3657,-87.41501121866061
-0.3646999999999999,-86.75009690772404
-0.3637,-85.97200569279828
-0.3626999999999999,-85.27879715586442
-0.3617,-84.48655882793999
-0.36070000000000013,-83.75090895201016
-0.3597,-83.0011119630817
-0.35870000000000013,-82.18057940915998
-0.3577,-81.38834108123557
-0.35670000000000013,-80.65269120530574
-0.3557,-79.86045287738132
-0.3547000000000001,-79.1248030014515
-0.3537,-78.38915312552167
-0.3527000000000001,-77.63935613659322
-0.3517,-76.9037062606634
-0.3507000000000001,-76.15390927173492
-0.3497,-75.46070073480107
-0.3487000000000001,-74.80993353686314
-0.3477,-74.10257788693062
-0.3467000000000001,-73.45181068899271
-0.3457,-72.75860215205884
-0.3447000000000001,-72.05124650212633
-0.3437,-71.31559662619651
-0.3427000000000001,-70.62238808926263
-0.3417,-69.87259110033416
-0.3407000000000001,-69.13694122440434
-0.3397,-68.34470289647993
-0.3387000000000001,-67.6090530205501
-0.3377,-66.81681469262568
-0.3367000000000001,-66.08116481669586
-0.3357,-65.2464851497755
-0.3347000000000001,-64.42595259585376
-0.3337,-63.633714267929356
-0.3327000000000001,-62.855623053003576
-0.3317,-62.02094338608321
-0.3307000000000001,-61.20041083216149
-0.3297,-60.36573116524111
-0.3287000000000001,-59.54519861131939
-0.3277,-58.71051894439902
-0.3267000000000001,-57.8333979384827
-0.3257,-56.97042404556503
-0.3247000000000001,-56.093303039648696
-0.3237,-55.17374069473642
-0.3227000000000001,-54.31076680181876
-0.3217,-53.433645795902436
-0.3207000000000001,-52.55652478998611
-0.3197,-51.69355089706845
-0.3187000000000001,-50.81642989115212
-0.3177,-49.98175022423175
-0.3167000000000001,-49.16121767031002
-0.3157,-48.32653800338966
-0.3147000000000001,-47.506005449467935
-0.3137,-46.628884443551605
-0.3127000000000001,-45.75176343763528
-0.3117,-45.01611356170547
-0.3107000000000001,-44.181433894785094
-0.3097,-43.36090134086337
-0.3087000000000001,-42.526221673943
-0.3077,-41.70568912002128
-0.3067000000000001,-40.91345079209687
-0.30569999999999997,-40.092918238175145
-0.3047000000000001,-39.30067991025072
-0.30369999999999997,-38.607471373316855
-0.3027000000000001,-37.81523304539243
-0.30169999999999997,-37.07958316946261
-0.3007000000000001,-36.37222751953009
-0.29969999999999997,-35.636577643600276
-0.2987000000000001,-34.90092776767045
-0.29769999999999996,-34.15113077874198
-0.2967000000000001,-33.41548090281216
-0.29569999999999996,-32.70812525287965
-0.2947000000000001,-31.972475376949827
-0.29369999999999996,-31.27926684001596
-0.29270000000000007,-30.571911190083444
-0.29169999999999996,-29.878702653149578
-0.29070000000000007,-29.18549411621571
-0.28969999999999996,-28.53472691827779
-0.28870000000000007,-27.912253946337174
-0.28769999999999996,-27.303928087395207
-0.28670000000000007,-26.69560222845324
-0.28569999999999995,-26.044835030515326
-0.28470000000000006,-25.39406783257741
-0.28369999999999995,-24.729153521640843
-0.28270000000000006,-24.078386323702922
-0.28169999999999995,-23.427619125765005
-0.28070000000000006,-22.819293266823045
-0.27969999999999995,-22.15437895588647
-0.27870000000000006,-21.503611757948562
-0.27769999999999995,-20.89528589900659
-0.27670000000000006,-20.286960040064624
-0.27569999999999995,-19.721075520118614
-0.27470000000000006,-19.155191000172596
-0.27369999999999994,-18.589306480226583
-0.27270000000000005,-18.009274847281915
-0.27169999999999994,-17.542420118326454
-0.27070000000000005,-16.962388485381787
-0.26969999999999994,-16.438945304431726
-0.26870000000000005,-15.87306078448571
