Potential V vs RHE, Current mA cm-2
0.013299999999999867,-0.4384190318281749
0.012299999999999978,-1.7910245056291363
0.011299999999999866,-2.794054817233447
0.010299999999999976,-3.579219588658543
0.009299999999999864,-4.23281620919619
0.008299999999999974,-4.712403339850438
0.007299999999999862,-5.105693081212917
0.006299999999999972,-5.411270721983764
0.00529999999999986,-5.672992312458796
0.0042999999999999705,-5.890857852638012
0.0032999999999998586,-6.064867342521412
0.0022999999999999687,-6.238876832404812
0.0012999999999998568,-6.414301033588076
0.00029999999999996696,-6.54445447317566
-0.000700000000000145,-6.6760226240631075
-0.0017000000000000348,-6.762320013354876
-0.0027000000000001467,-6.850032113946507
-0.0037000000000000366,-6.893888164242324
-0.0047000000000001485,-6.93774421453814
-0.005700000000000038,-6.981600264833956
-0.00670000000000015,-7.024041603829907
-0.00770000000000004,-7.067897654125724
-0.008700000000000152,-7.111753704421539
-0.009700000000000042,-7.199465805013171
-0.010700000000000154,-7.243321855308987
-0.011700000000000044,-7.28576319430494
-0.012700000000000156,-7.28576319430494
-0.013700000000000045,-7.28576319430494
-0.014700000000000157,-7.28576319430494
-0.015700000000000047,-7.243321855308987
-0.01670000000000016,-7.28576319430494
-0.01770000000000005,-7.28576319430494
-0.01870000000000016,-7.329619244600755
-0.01970000000000005,-7.329619244600755
-0.020700000000000163,-7.37347529489657
-0.021700000000000053,-7.37347529489657
-0.022700000000000164,-7.37347529489657
-0.023700000000000054,-7.37347529489657
-0.024700000000000166,-7.329619244600755
-0.025700000000000056,-7.329619244600755
-0.026700000000000168,-7.329619244600755
-0.027700000000000058,-7.37347529489657
-0.02870000000000017,-7.37347529489657
-0.02970000000000006,-7.37347529489657
-0.03070000000000017,-7.4173313451923875
-0.03170000000000006,-7.4173313451923875
-0.03270000000000017,-7.4173313451923875
-0.03370000000000006,-7.37347529489657
-0.034700000000000175,-7.37347529489657
-0.035700000000000065,-7.37347529489657
-0.03670000000000018,-7.37347529489657
-0.03770000000000007,-7.4173313451923875
-0.03870000000000018,-7.4173313451923875
-0.03970000000000007,-7.461187395488204
-0.04070000000000018,-7.50504344578402
-0.04170000000000007,-7.50504344578402
-0.04270000000000018,-7.50504344578402
-0.04370000000000007,-7.50504344578402
-0.044700000000000184,-7.50504344578402
-0.045700000000000074,-7.461187395488204
-0.046700000000000186,-7.461187395488204
-0.047700000000000076,-7.461187395488204
-0.04870000000000019,-7.461187395488204
-0.04970000000000008,-7.50504344578402
-0.05070000000000019,-7.50504344578402
-0.05170000000000008,-7.50504344578402
-0.05270000000000019,-7.50504344578402
-0.05370000000000008,-7.50504344578402
-0.05470000000000019,-7.461187395488204
-0.05570000000000008,-7.461187395488204
-0.056700000000000195,-7.461187395488204
-0.057700000000000085,-7.461187395488204
-0.058700000000000196,-7.461187395488204
-0.059700000000000086,-7.461187395488204
-0.0607000000000002,-7.50504344578402
-0.06170000000000009,-7.50504344578402
-0.0627000000000002,-7.50504344578402
-0.06370000000000009,-7.461187395488204
-0.0647000000000002,-7.461187395488204
-0.06570000000000009,-7.461187395488204
-0.0667000000000002,-7.461187395488204
-0.0677000000000001,-7.50504344578402
-0.0687000000000002,-7.50504344578402
-0.0697000000000001,-7.50504344578402
-0.07070000000000021,-7.50504344578402
-0.0717000000000001,-7.5474847847799715
-0.07270000000000021,-7.5474847847799715
-0.0737000000000001,-7.50504344578402
-0.07470000000000021,-7.50504344578402
-0.0757000000000001,-7.50504344578402
-0.07670000000000021,-7.50504344578402
-0.0777000000000001,-7.461187395488204
-0.07870000000000021,-7.50504344578402
-0.0797000000000001,-7.50504344578402
-0.08070000000000022,-7.50504344578402
-0.0817000000000001,-7.50504344578402
-0.08270000000000022,-7.50504344578402
-0.08370000000000011,-7.50504344578402
-0.08470000000000022,-7.461187395488204
-0.08570000000000011,-7.4173313451923875
-0.08670000000000022,-7.461187395488204
-0.08770000000000011,-7.4173313451923875
-0.08870000000000022,-7.461187395488204
-0.08970000000000011,-7.50504344578402
-0.09070000000000022,-7.50504344578402
-0.09170000000000011,-7.50504344578402
-0.09270000000000023,-7.50504344578402
-0.09370000000000012,-7.50504344578402
-0.09470000000000023,-7.50504344578402
-0.09570000000000012,-7.461187395488204
-0.09670000000000023,-7.461187395488204
-0.09770000000000012,-7.50504344578402
-0.09870000000000023,-7.50504344578402
-0.09970000000000012,-7.5474847847799715
-0.10070000000000023,-7.591340835075788
-0.10170000000000012,-7.591340835075788
-0.10270000000000024,-7.591340835075788
-0.10370000000000013,-7.591340835075788
-0.10470000000000024,-7.5474847847799715
-0.10570000000000013,-7.5474847847799715
-0.10670000000000024,-7.5474847847799715
-0.10770000000000013,-7.5474847847799715
-0.10870000000000024,-7.5474847847799715
-0.10970000000000013,-7.5474847847799715
-0.11070000000000024,-7.591340835075788
-0.11170000000000013,-7.591340835075788
-0.11270000000000002,-7.591340835075788
-0.11370000000000013,-7.591340835075788
-0.11470000000000002,-7.5474847847799715
-0.11570000000000014,-7.5474847847799715
-0.11670000000000003,-7.5474847847799715
-0.11770000000000014,-7.5474847847799715
-0.11870000000000003,-7.591340835075788
-0.11970000000000014,-7.635196885371603
-0.12070000000000003,-7.635196885371603
-0.12170000000000014,-7.679052935667419
-0.12270000000000003,-7.679052935667419
-0.12370000000000014,-7.722908985963235
-0.12470000000000003,-7.679052935667419
-0.12570000000000014,-7.679052935667419
-0.12670000000000003,-7.679052935667419
-0.12770000000000015,-7.722908985963235
-0.12870000000000004,-7.722908985963235
-0.12970000000000015,-7.7653503249591855
-0.13070000000000004,-7.7653503249591855
-0.13170000000000015,-7.809206375255003
-0.13270000000000004,-7.809206375255003
-0.13370000000000015,-7.7653503249591855
-0.13470000000000004,-7.7653503249591855
-0.13570000000000015,-7.722908985963235
-0.13670000000000004,-7.722908985963235
-0.13770000000000016,-7.722908985963235
-0.13870000000000005,-7.7653503249591855
-0.13970000000000016,-7.7653503249591855
-0.14070000000000005,-7.722908985963235
-0.14170000000000016,-7.7653503249591855
-0.14270000000000005,-7.7653503249591855
-0.14370000000000016,-7.722908985963235
-0.14470000000000005,-7.722908985963235
-0.14570000000000016,-7.722908985963235
-0.14670000000000005,-7.722908985963235
-0.14770000000000016,-7.7653503249591855
-0.14870000000000005,-7.7653503249591855
-0.14970000000000017,-7.809206375255003
-0.15070000000000006,-7.853062425550818
-0.15170000000000017,-7.896918475846635
-0.15270000000000006,-7.896918475846635
-0.15370000000000017,-7.940774526142452
-0.15470000000000006,-7.940774526142452
-0.15570000000000017,-7.940774526142452
-0.15670000000000006,-7.940774526142452
-0.15770000000000017,-7.940774526142452
-0.15870000000000006,-7.984630576438266
-0.15970000000000018,-7.984630576438266
-0.16070000000000007,-8.027071915434218
-0.16170000000000018,-8.027071915434218
-0.16270000000000007,-8.027071915434218
-0.16370000000000018,-8.027071915434218
-0.16470000000000007,-8.027071915434218
-0.16570000000000018,-8.027071915434218
-0.16670000000000007,-8.027071915434218
-0.16770000000000018,-8.027071915434218
-0.16870000000000007,-8.070927965730034
-0.16970000000000018,-8.11478401602585
-0.17070000000000007,-8.11478401602585
-0.17170000000000019,-8.158640066321666
-0.17270000000000008,-8.158640066321666
-0.1737000000000002,-8.158640066321666
-0.17470000000000008,-8.202496116617484
-0.1757000000000002,-8.158640066321666
-0.17670000000000008,-8.202496116617484
-0.1777000000000002,-8.246352166913299
-0.17870000000000008,-8.288793505909249
-0.1797000000000002,-8.332649556205066
-0.18070000000000008,-8.332649556205066
-0.1817000000000002,-8.332649556205066
-0.18270000000000008,-8.376505606500881
-0.1837000000000002,-8.376505606500881
-0.1847000000000001,-8.376505606500881
-0.1857000000000002,-8.376505606500881
-0.1867000000000001,-8.376505606500881
-0.1877000000000002,-8.4203616567967
-0.1887000000000001,-8.4203616567967
-0.1897000000000002,-8.464217707092514
-0.1907000000000001,-8.464217707092514
-0.1917000000000001,-8.508073757388331
-0.19269999999999998,-8.508073757388331
-0.1937000000000001,-8.508073757388331
-0.19469999999999998,-8.508073757388331
-0.1957000000000001,-8.508073757388331
-0.19669999999999999,-8.508073757388331
-0.1977000000000001,-8.55051509638428
-0.1987,-8.594371146680096
-0.1997000000000001,-8.594371146680096
-0.2007,-8.638227196975913
-0.2017000000000001,-8.68208324727173
-0.2027,-8.68208324727173
-0.2037000000000001,-8.725939297567548
-0.2047,-8.725939297567548
-0.2057000000000001,-8.725939297567548
-0.2067,-8.725939297567548
-0.2077000000000001,-8.769795347863363
-0.2087,-8.812236686859313
-0.2097000000000001,-8.85609273715513
-0.2107,-8.899948787450944
-0.2117000000000001,-8.899948787450944
-0.2127,-8.943804837746763
-0.2137000000000001,-8.943804837746763
-0.2147,-8.943804837746763
-0.2157000000000001,-8.987660888042578
-0.2167,-8.987660888042578
-0.21770000000000012,-9.031516938338395
-0.2187,-9.031516938338395
-0.21970000000000012,-9.073958277334345
-0.2207,-9.073958277334345
-0.22170000000000012,-9.11781432763016
-0.2227,-9.11781432763016
-0.22370000000000012,-9.11781432763016
-0.2247,-9.11781432763016
-0.22570000000000012,-9.161670377925978
-0.2267,-9.161670377925978
-0.22770000000000012,-9.205526428221793
-0.22870000000000001,-9.24938247851761
-0.22970000000000013,-9.293238528813426
-0.23070000000000002,-9.335679867809377
-0.23170000000000013,-9.335679867809377
-0.23270000000000002,-9.379535918105192
-0.23370000000000013,-9.379535918105192
-0.23470000000000002,-9.379535918105192
-0.23570000000000013,-9.423391968401008
-0.23670000000000002,-9.467248018696827
-0.2376999999999999,-9.511104068992642
-0.23870000000000002,-9.511104068992642
-0.2396999999999999,-9.55496011928846
-0.24070000000000003,-9.59740145828441
-0.24169999999999991,-9.641257508580225
-0.24270000000000003,-9.641257508580225
-0.24369999999999992,-9.641257508580225
-0.24470000000000003,-9.641257508580225
-0.24569999999999992,-9.685113558876042
-0.24670000000000003,-9.728969609171857
-0.24769999999999992,-9.728969609171857
-0.24870000000000003,-9.81668170976349
-0.24969999999999992,-9.85912304875944
-0.25070000000000003,-9.902979099055257
-0.2516999999999999,-9.946835149351072
-0.25270000000000004,-9.99069119964689
-0.2536999999999999,-10.034547249942705
-0.25470000000000004,-10.034547249942705
-0.2556999999999999,-10.078403300238522
-0.25670000000000004,-10.120844639234473
-0.25769999999999993,-10.164700689530287
-0.25870000000000004,-10.25241279012192
-0.25969999999999993,-10.296268840417738
-0.26070000000000004,-10.340124890713554
-0.26169999999999993,-10.382566229709504
-0.26270000000000004,-10.42642228000532
-0.26369999999999993,-10.470278330301136
-0.26470000000000005,-10.470278330301136
-0.26569999999999994,-10.514134380596953
-0.26670000000000005,-10.557990430892769
-0.26769999999999994,-10.644287820184536
-0.26870000000000005,-10.688143870480351
-0.26969999999999994,-10.731999920776168
-0.27070000000000005,-10.819712021367803
-0.27169999999999994,-10.863568071663616
-0.27270000000000005,-10.906009410659568
-0.27369999999999994,-10.949865460955383
-0.27470000000000006,-10.993721511251199
-0.27569999999999995,-11.037577561547016
-0.27670000000000006,-11.123874950838783
-0.27769999999999995,-11.211587051430415
-0.27870000000000006,-11.343155202317865
-0.27969999999999995,-11.42945259160963
-0.28070000000000006,-11.56102074249708
-0.28169999999999995,-11.647318131788847
-0.28270000000000006,-11.73503023238048
-0.28369999999999995,-11.778886282676295
-0.28470000000000006,-11.909039722263879
-0.28569999999999995,-11.996751822855511
-0.28670000000000007,-12.12831997374296
-0.28769999999999996,-12.258473413330542
-0.28870000000000007,-12.346185513922174
-0.28969999999999996,-12.520195003805576
-0.29070000000000007,-12.651763154693022
-0.29169999999999996,-12.781916594280606
-0.29270000000000007,-12.913484745168056
-0.29369999999999996,-13.043638184755638
-0.2947000000000001,-13.13135028534727
-0.29569999999999996,-13.261503724934855
-0.2967000000000001,-13.3930718758223
-0.29769999999999996,-13.523225315409885
-0.2987000000000001,-13.698649516593148
-0.29969999999999997,-13.916515056772363
-0.3007000000000001,-14.090524546655764
-0.30169999999999997,-14.26028990263957
-0.3027000000000001,-14.401761032626075
-0.30369999999999997,-14.57152638860988
-0.3047000000000001,-14.741291744593681
-0.30569999999999997,-14.868615761581536
-0.3067000000000001,-15.01008689156804
-0.3077,-15.222293586547794
-0.3087000000000001,-15.3920589425316
-0.3097,-15.660854089505953
-0.3107000000000001,-15.87306078448571
-0.3117,-16.141855931460068
-0.3127000000000001,-16.396503965435777
-0.3137,-16.70774045140608
-0.3147000000000001,-17.018976937376394
-0.3157,-17.40094898833995
-0.3167000000000001,-17.75462681330621
-0.3177,-18.19318731626437
-0.3187000000000001,-18.674189158218486
-0.3197,-19.155191000172596
-0.3207000000000001,-19.636192842126707
-0.3217,-20.06060623208622
-0.3227000000000001,-20.541608074040333
-0.3237,-20.980168576998494
-0.3247000000000001,-21.461170418952605
-0.3257,-21.98461359990267
-0.3267000000000001,-22.508056780852733
-0.3277,-23.031499961802798
-0.3287000000000001,-23.639825820744765
-0.3297,-24.20571034069078
-0.3307000000000001,-24.870624651627345
-0.3317,-25.478950510569312
-0.3327000000000001,-26.087276369511276
-0.3337,-26.780484906445146
-0.3347000000000001,-27.487840556377662
-0.3357,-28.18104909331153
-0.3367000000000001,-29.001581647233255
-0.3377,-29.878702653149578
-0.3387000000000001,-30.79826499806185
-0.3397,-31.802710020966025
-0.3407000000000001,-32.84959638286615
-0.3417,-33.98136542275818
-0.3427000000000001,-35.198017140642115
-0.3437,-36.4288159715247
-0.3447000000000001,-37.687909028404576
-0.3457,-39.08847321527096
-0.3467000000000001,-40.4748902891387
-0.3477,-42.00277849299294
-0.3487000000000001,-43.57310803584313
-0.3497,-45.22832025668522
-0.3507000000000001,-46.88353247752732
-0.3517,-48.59533315036401
-0.3527000000000001,-50.335428049198
-0.3537,-52.11796428702795
-0.3547000000000001,-53.91464763785655
-0.3557,-55.7820665536784
-0.35670000000000013,-57.70607392149485
-0.3577,-59.6300812893113
-0.35870000000000013,-61.63897133511965
-0.3597,-63.633714267929356
-0.36070000000000013,-65.60016297474175
-0.3617,-67.65149435954605
-0.3626999999999999,-69.61794306635846
-0.3637,-71.66927445116276
-0.3646999999999999,-73.76304717496302
-0.3657,-75.81437855976732
-0.3666999999999999,-77.95059262256353
-0.3677,-80.12924802435568
-0.3686999999999999,-82.26546208715187
-0.36970000000000003,-84.48655882793999
-0.3706999999999999,-86.66521422973216
-0.37170000000000003,-88.8438696315243
-0.3726999999999999,-90.99423080731917
-0.37370000000000003,-93.13044487011537
-0.3746999999999999,-95.30910027190752
-0.37570000000000003,-97.53019701269562
-0.3766999999999999,-99.75129375348374
-0.37770000000000004,-101.97239049427183
-0.3786999999999999,-104.12275167006669
-0.37970000000000004,-106.30140707185885
-0.3806999999999999,-108.43762113465506
-0.38170000000000004,-110.48895251945936
-0.38269999999999993,-112.54028390426367
-0.38370000000000004,-114.53502683707337
-0.38469999999999993,-116.58635822187767
-0.38570000000000004,-118.63768960668197
-0.38669999999999993,-119.51481061259831
-0.38570000000000004,-118.63768960668197
-0.38469999999999993,-117.98692240874406
-0.38370000000000004,-117.42103788879804
-0.38269999999999993,-116.81271202985609
-0.38170000000000004,-116.24682750991008
-0.3806999999999999,-115.62435453796945
-0.37970000000000004,-114.93114600103557
-0.3786999999999999,-114.3228201420936
-0.37770000000000004,-113.67205294415571
-0.3766999999999999,-113.10616842420968
-0.37570000000000003,-112.58272524325962
-0.3746999999999999,-111.96025227131899
-0.37370000000000003,-111.35192641237703
-0.3726999999999999,-110.65871787544317
-0.37170000000000003,-110.05039201650122
-0.3706999999999999,-109.39962481856328
-0.36970000000000003,-108.77715184662266
-0.3686999999999999,-108.0839433096888
-0.3677,-107.30585209476303
-0.3666999999999999,-106.51361376683862
-0.3657,-105.7779638909088
-0.3646999999999999,-104.94328422398843
-0.3637,-104.02372187907615
-0.3626999999999999,-103.01927685617197
-0.3617,-101.97239049427183
-0.36070000000000013,-100.88306279337576
-0.3597,-99.7937350924797
-0.35870000000000013,-98.66196605258766
-0.3577,-97.53019701269562
-0.35670000000000013,-96.3984279728036
-0.3557,-95.35154161090348
-0.3547000000000001,-94.26221391000739
-0.3537,-93.25776888710321
-0.3527000000000001,-92.2108825252031
-0.3517,-91.12155482430701
-0.3507000000000001,-89.94734444541903
-0.3497,-88.9004580835189
-0.3487000000000001,-87.79698326962418
-0.3477,-86.80668535971866
-0.3467000000000001,-85.80224033681448
-0.3457,-84.84023665290624
-0.3447000000000001,-83.92067430799398
-0.3437,-83.0011119630817
-0.3427000000000001,-82.13813807016405
-0.3417,-81.1761343862558
-0.3407000000000001,-80.34145471933543
-0.3397,-79.37945103542721
-0.3387000000000001,-78.38915312552167
-0.3377,-77.34226676362155
-0.3367000000000001,-76.33782174071737
-0.3357,-75.37581805680915
-0.3347000000000001,-74.37137303390499
-0.3337,-73.32448667200485
-0.3327000000000001,-72.32004164910067
-0.3317,-71.27315528720055
-0.3307000000000001,-70.18382758630447
-0.3297,-69.05205854641244
-0.3287000000000001,-67.86370105452582
-0.3277,-66.77437335362974
-0.3267000000000001,-65.68504565273366
-0.3257,-64.68060062982947
-0.3247000000000001,-63.633714267929356
-0.3237,-62.68585769701977
-0.3227000000000001,-61.80873669110345
-0.3217,-60.80429166819927
-0.3207000000000001,-59.7998466452951
-0.3197,-58.880284300382826
-0.3187000000000001,-57.93242772947325
-0.3177,-56.97042404556503
-0.3167000000000001,-56.05086170065276
-0.3157,-55.13129935574048
-0.3147000000000001,-54.31076680181876
-0.3137,-53.433645795902436
-0.3127000000000001,-52.55652478998611
-0.3117,-51.69355089706845
-0.3107000000000001,-50.77398855215617
-0.3097,-49.85442620724389
-0.3087000000000001,-48.97730520132757
-0.3077,-48.071889969413945
-0.3067000000000001,-47.19476896349763
-0.30569999999999997,-46.3176479575813
-0.3047000000000001,-45.45467406466363
-0.30369999999999997,-44.577553058747306
-0.3027000000000001,-43.70043205283099
-0.30169999999999997,-42.837458159913304
-0.3007000000000001,-41.91789581500104
-0.29969999999999997,-41.04077480908471
-0.2987000000000001,-40.177800916167044
-0.29769999999999996,-39.30067991025072
-0.2967000000000001,-38.46600024333035
-0.29569999999999996,-37.687909028404576
-0.2947000000000001,-36.89567070048016
-0.29369999999999996,-36.16002082455034
-0.29270000000000007,-35.38192960962457
-0.29169999999999996,-34.632132620696105
-0.29070000000000007,-33.85404140577033
-0.28969999999999996,-33.01936173884996
-0.28870000000000007,-32.283711862920136
-0.28769999999999996,-31.533914873991666
-0.28670000000000007,-30.79826499806185
-0.28569999999999995,-30.147497800123933
-0.28470000000000006,-29.440142150191413
-0.28369999999999995,-28.789374952253496
-0.28270000000000006,-28.09616641531963
-0.28169999999999995,-27.38881076538711
-0.28070000000000006,-26.69560222845324
-0.27969999999999995,-25.959952352523427
-0.27870000000000006,-25.252596702590903
-0.27769999999999995,-24.601829504652986
-0.27670000000000006,-23.908620967719123
-0.27569999999999995,-23.24370665678255
-0.27470000000000006,-22.592939458844636
-0.27369999999999994,-21.98461359990267
-0.27270000000000005,-21.418729079956652
-0.27169999999999994,-20.85284456001064
-0.27070000000000005,-20.244518701068674
-0.26969999999999994,-19.678634181122664
-0.26870000000000005,-19.056161209182044
-0.26769999999999994,-18.49027668923603
-0.26670000000000005,-17.966833508285966
-0.26569999999999994,-17.4433903273359
-0.26470000000000005,-16.962388485381787
-0.26369999999999993,-16.495533756426326
