Sept. 7, 2024   03:53:51
Cyclic Voltammetry
File: c:/users/guazh/data/20240903_batch_252_500/2024-09-03-exp285\exp285-2024-09-07t03_47_53-h2koh\exp285_cv_sr_100mvs_efin_-1400mv.bin
Data Source:  Experiment
Instrument Model:  CHI760E
Header: CV ran at 100 mVs
Note: 

Init E (V) = -1
High E (V) = -1
Low E (V) = -1.4
Final E (V) = -1
Init P/N = N
Scan Rate (V/s) = 0.1
Segment = 3
Sample Interval (V) = 0.001
Quiet Time (sec) = 2
Sensitivity (A/V) = 0.01
Comp R (ohm) = 1.6

Results:

Channel 1:
Segment 1:

Segment 2:

Segment 3:

Potential/V, Current/A

-1.000, -3.064e-5
-1.001, 4.950e-5
-1.002, 1.028e-4
-1.003, 1.403e-4
-1.004, 1.711e-4
-1.005, 1.936e-4
-1.006, 2.135e-4
-1.007, 2.298e-4
-1.008, 2.426e-4
-1.009, 2.559e-4
-1.010, 2.590e-4
-1.011, 2.623e-4
-1.012, 2.766e-4
-1.013, 2.834e-4
-1.014, 2.923e-4
-1.015, 3.012e-4
-1.016, 3.090e-4
-1.017, 3.150e-4
-1.018, 3.213e-4
-1.019, 3.280e-4
-1.020, 3.327e-4
-1.021, 3.361e-4
-1.022, 3.388e-4
-1.023, 3.420e-4
-1.024, 3.478e-4
-1.025, 3.542e-4
-1.026, 3.611e-4
-1.027, 3.658e-4
-1.028, 3.665e-4
-1.029, 3.489e-4
-1.030, 3.487e-4
-1.031, 3.629e-4
-1.032, 3.783e-4
-1.033, 3.770e-4
-1.034, 3.801e-4
-1.035, 3.855e-4
-1.036, 3.943e-4
-1.037, 3.941e-4
-1.038, 3.965e-4
-1.039, 3.988e-4
-1.040, 3.959e-4
-1.041, 4.007e-4
-1.042, 4.023e-4
-1.043, 4.030e-4
-1.044, 4.082e-4
-1.045, 4.121e-4
-1.046, 4.202e-4
-1.047, 4.238e-4
-1.048, 4.140e-4
-1.049, 3.955e-4
-1.050, 4.047e-4
-1.051, 4.130e-4
-1.052, 4.176e-4
-1.053, 4.242e-4
-1.054, 4.273e-4
-1.055, 4.297e-4
-1.056, 4.313e-4
-1.057, 4.328e-4
-1.058, 4.325e-4
-1.059, 4.319e-4
-1.060, 4.324e-4
-1.061, 4.340e-4
-1.062, 4.371e-4
-1.063, 4.420e-4
-1.064, 4.461e-4
-1.065, 4.462e-4
-1.066, 4.374e-4
-1.067, 4.164e-4
-1.068, 4.293e-4
-1.069, 4.378e-4
-1.070, 4.402e-4
-1.071, 4.469e-4
-1.072, 4.490e-4
-1.073, 4.505e-4
-1.074, 4.509e-4
-1.075, 4.489e-4
-1.076, 4.486e-4
-1.077, 4.483e-4
-1.078, 4.495e-4
-1.079, 4.529e-4
-1.080, 4.535e-4
-1.081, 4.570e-4
-1.082, 4.613e-4
-1.083, 4.602e-4
-1.084, 4.414e-4
-1.085, 4.296e-4
-1.086, 4.492e-4
-1.087, 4.499e-4
-1.088, 4.528e-4
-1.089, 4.593e-4
-1.090, 4.586e-4
-1.091, 4.603e-4
-1.092, 4.611e-4
-1.093, 4.583e-4
-1.094, 4.579e-4
-1.095, 4.564e-4
-1.096, 4.576e-4
-1.097, 4.590e-4
-1.098, 4.615e-4
-1.099, 4.658e-4
-1.100, 4.684e-4
-1.101, 4.694e-4
-1.102, 4.578e-4
-1.103, 4.366e-4
-1.104, 4.510e-4
-1.105, 4.587e-4
-1.106, 4.600e-4
-1.107, 4.664e-4
-1.108, 4.672e-4
-1.109, 4.677e-4
-1.110, 4.671e-4
-1.111, 4.675e-4
-1.112, 4.657e-4
-1.113, 4.648e-4
-1.114, 4.655e-4
-1.115, 4.652e-4
-1.116, 4.683e-4
-1.117, 4.716e-4
-1.118, 4.744e-4
-1.119, 4.753e-4
-1.120, 4.710e-4
-1.121, 4.496e-4
-1.122, 4.481e-4
-1.123, 4.631e-4
-1.124, 4.713e-4
-1.125, 4.664e-4
-1.126, 4.724e-4
-1.127, 4.778e-4
-1.128, 4.779e-4
-1.129, 4.801e-4
-1.130, 4.798e-4
-1.131, 4.805e-4
-1.132, 4.788e-4
-1.133, 4.768e-4
-1.134, 4.787e-4
-1.135, 4.784e-4
-1.136, 4.812e-4
-1.137, 4.850e-4
-1.138, 4.875e-4
-1.139, 4.886e-4
-1.140, 4.902e-4
-1.141, 4.764e-4
-1.142, 4.599e-4
-1.143, 4.756e-4
-1.144, 4.862e-4
-1.145, 4.836e-4
-1.146, 4.816e-4
-1.147, 4.885e-4
-1.148, 4.961e-4
-1.149, 4.985e-4
-1.150, 4.999e-4
-1.151, 5.009e-4
-1.152, 4.991e-4
-1.153, 4.996e-4
-1.154, 5.000e-4
-1.155, 4.996e-4
-1.156, 5.026e-4
-1.157, 5.063e-4
-1.158, 5.080e-4
-1.159, 5.133e-4
-1.160, 5.088e-4
-1.161, 4.853e-4
-1.162, 4.930e-4
-1.163, 5.145e-4
-1.164, 5.119e-4
-1.165, 5.114e-4
-1.166, 5.217e-4
-1.167, 5.237e-4
-1.168, 5.230e-4
-1.169, 5.270e-4
-1.170, 5.253e-4
-1.171, 5.235e-4
-1.172, 5.267e-4
-1.173, 5.277e-4
-1.174, 5.316e-4
-1.175, 5.365e-4
-1.176, 5.408e-4
-1.177, 5.454e-4
-1.178, 5.476e-4
-1.179, 5.484e-4
-1.180, 5.314e-4
-1.181, 5.197e-4
-1.182, 5.399e-4
-1.183, 5.445e-4
-1.184, 5.443e-4
-1.185, 5.530e-4
-1.186, 5.608e-4
-1.187, 5.618e-4
-1.188, 5.656e-4
-1.189, 5.690e-4
-1.190, 5.667e-4
-1.191, 5.690e-4
-1.192, 5.701e-4
-1.193, 5.711e-4
-1.194, 5.740e-4
-1.195, 5.784e-4
-1.196, 5.850e-4
-1.197, 5.901e-4
-1.198, 5.921e-4
-1.199, 5.726e-4
-1.200, 5.549e-4
-1.201, 5.804e-4
-1.202, 5.877e-4
-1.203, 5.866e-4
-1.204, 5.959e-4
-1.205, 6.021e-4
-1.206, 6.071e-4
-1.207, 6.078e-4
-1.208, 6.044e-4
-1.209, 6.066e-4
-1.210, 6.056e-4
-1.211, 6.093e-4
-1.212, 6.147e-4
-1.213, 6.209e-4
-1.214, 6.297e-4
-1.215, 6.313e-4
-1.216, 6.289e-4
-1.217, 6.022e-4
-1.218, 6.007e-4
-1.219, 6.261e-4
-1.220, 6.245e-4
-1.221, 6.346e-4
-1.222, 6.405e-4
-1.223, 6.403e-4
-1.224, 6.437e-4
-1.225, 6.448e-4
-1.226, 6.475e-4
-1.227, 6.488e-4
-1.228, 6.491e-4
-1.229, 6.524e-4
-1.230, 6.519e-4
-1.231, 6.567e-4
-1.232, 6.640e-4
-1.233, 6.697e-4
-1.234, 6.717e-4
-1.235, 6.610e-4
-1.236, 6.328e-4
-1.237, 6.380e-4
-1.238, 6.590e-4
-1.239, 6.703e-4
-1.240, 6.631e-4
-1.241, 6.749e-4
-1.242, 6.815e-4
-1.243, 6.832e-4
-1.244, 6.871e-4
-1.245, 6.872e-4
-1.246, 6.887e-4
-1.247, 6.880e-4
-1.248, 6.864e-4
-1.249, 6.888e-4
-1.250, 6.873e-4
-1.251, 6.950e-4
-1.252, 7.012e-4
-1.253, 7.026e-4
-1.254, 7.039e-4
-1.255, 6.734e-4
-1.256, 6.677e-4
-1.257, 6.872e-4
-1.258, 7.027e-4
-1.259, 6.991e-4
-1.260, 7.021e-4
-1.261, 7.103e-4
-1.262, 7.158e-4
-1.263, 7.199e-4
-1.264, 7.217e-4
-1.265, 7.231e-4
-1.266, 7.251e-4
-1.267, 7.236e-4
-1.268, 7.257e-4
-1.269, 7.285e-4
-1.270, 7.295e-4
-1.271, 7.374e-4
-1.272, 7.438e-4
-1.273, 7.489e-4
-1.274, 7.291e-4
-1.275, 7.086e-4
-1.276, 7.332e-4
-1.277, 7.550e-4
-1.278, 7.513e-4
-1.279, 7.552e-4
-1.280, 7.642e-4
-1.281, 7.700e-4
-1.282, 7.760e-4
-1.283, 7.864e-4
-1.284, 7.945e-4
-1.285, 7.996e-4
-1.286, 8.055e-4
-1.287, 8.071e-4
-1.288, 8.111e-4
-1.289, 8.194e-4
-1.290, 8.275e-4
-1.291, 8.406e-4
-1.292, 8.523e-4
-1.293, 8.626e-4
-1.294, 8.701e-4
-1.295, 8.528e-4
-1.296, 8.634e-4
-1.297, 8.804e-4
-1.298, 8.921e-4
-1.299, 9.179e-4
-1.300, 9.281e-4
-1.301, 9.387e-4
-1.302, 9.627e-4
-1.303, 9.696e-4
-1.304, 9.774e-4
-1.305, 1.000e-3
-1.306, 1.010e-3
-1.307, 1.029e-3
-1.308, 1.057e-3
-1.309, 1.075e-3
-1.310, 1.099e-3
-1.311, 1.124e-3
-1.312, 1.138e-3
-1.313, 1.116e-3
-1.314, 1.136e-3
-1.315, 1.192e-3
-1.316, 1.214e-3
-1.317, 1.230e-3
-1.318, 1.273e-3
-1.319, 1.314e-3
-1.320, 1.345e-3
-1.321, 1.383e-3
-1.322, 1.417e-3
-1.323, 1.450e-3
-1.324, 1.486e-3
-1.325, 1.523e-3
-1.326, 1.566e-3
-1.327, 1.609e-3
-1.328, 1.663e-3
-1.329, 1.730e-3
-1.330, 1.789e-3
-1.331, 1.842e-3
-1.332, 1.914e-3
-1.333, 1.911e-3
-1.334, 1.909e-3
-1.335, 2.028e-3
-1.336, 2.121e-3
-1.337, 2.165e-3
-1.338, 2.253e-3
-1.339, 2.358e-3
-1.340, 2.452e-3
-1.341, 2.552e-3
-1.342, 2.647e-3
-1.343, 2.740e-3
-1.344, 2.835e-3
-1.345, 2.926e-3
-1.346, 3.021e-3
-1.347, 3.120e-3
-1.348, 3.239e-3
-1.349, 3.362e-3
-1.350, 3.488e-3
-1.351, 3.612e-3
-1.352, 3.729e-3
-1.353, 3.731e-3
-1.354, 3.655e-3
-1.355, 3.818e-3
-1.356, 3.993e-3
-1.357, 4.057e-3
-1.358, 4.123e-3
-1.359, 4.272e-3
-1.360, 4.402e-3
-1.361, 4.500e-3
-1.362, 4.611e-3
-1.363, 4.746e-3
-1.364, 4.849e-3
-1.365, 4.935e-3
-1.366, 5.029e-3
-1.367, 5.104e-3
-1.368, 5.206e-3
-1.369, 5.355e-3
-1.370, 5.486e-3
-1.371, 5.623e-3
-1.372, 5.730e-3
-1.373, 5.535e-3
-1.374, 5.466e-3
-1.375, 5.632e-3
-1.376, 5.837e-3
-1.377, 5.906e-3
-1.378, 6.008e-3
-1.379, 6.134e-3
-1.380, 6.233e-3
-1.381, 6.409e-3
-1.382, 6.519e-3
-1.383, 6.574e-3
-1.384, 6.680e-3
-1.385, 6.762e-3
-1.386, 6.830e-3
-1.387, 6.945e-3
-1.388, 7.066e-3
-1.389, 7.181e-3
-1.390, 7.308e-3
-1.391, 7.439e-3
-1.392, 7.580e-3
-1.393, 7.721e-3
-1.394, 7.565e-3
-1.395, 7.284e-3
-1.396, 7.398e-3
-1.397, 7.536e-3
-1.398, 7.604e-3
-1.399, 7.685e-3
-1.400, 7.772e-3
-1.399, 7.769e-3
-1.398, 7.810e-3
-1.397, 7.788e-3
-1.396, 7.719e-3
-1.395, 7.626e-3
-1.394, 7.547e-3
-1.393, 7.444e-3
-1.392, 7.330e-3
-1.391, 7.268e-3
-1.390, 7.241e-3
-1.389, 7.200e-3
-1.388, 7.169e-3
-1.387, 7.077e-3
-1.386, 6.642e-3
-1.385, 6.437e-3
-1.384, 6.484e-3
-1.383, 6.412e-3
-1.382, 6.257e-3
-1.381, 6.229e-3
-1.380, 6.231e-3
-1.379, 6.175e-3
-1.378, 6.117e-3
-1.377, 6.038e-3
-1.376, 5.956e-3
-1.375, 5.878e-3
-1.374, 5.771e-3
-1.373, 5.668e-3
-1.372, 5.591e-3
-1.371, 5.551e-3
-1.370, 5.533e-3
-1.369, 5.502e-3
-1.368, 5.348e-3
-1.367, 5.007e-3
-1.366, 4.917e-3
-1.365, 4.924e-3
-1.364, 4.886e-3
-1.363, 4.774e-3
-1.362, 4.732e-3
-1.361, 4.695e-3
-1.360, 4.646e-3
-1.359, 4.597e-3
-1.358, 4.533e-3
-1.357, 4.478e-3
-1.356, 4.401e-3
-1.355, 4.317e-3
-1.354, 4.237e-3
-1.353, 4.156e-3
-1.352, 4.109e-3
-1.351, 4.076e-3
-1.350, 4.028e-3
-1.349, 3.987e-3
-1.348, 3.785e-3
-1.347, 3.685e-3
-1.346, 3.638e-3
-1.345, 3.561e-3
-1.344, 3.538e-3
-1.343, 3.472e-3
-1.342, 3.434e-3
-1.341, 3.388e-3
-1.340, 3.295e-3
-1.339, 3.240e-3
-1.338, 3.174e-3
-1.337, 3.087e-3
-1.336, 3.044e-3
-1.335, 2.990e-3
-1.334, 2.942e-3
-1.333, 2.907e-3
-1.332, 2.852e-3
-1.331, 2.797e-3
-1.330, 2.687e-3
-1.329, 2.530e-3
-1.328, 2.517e-3
-1.327, 2.509e-3
-1.326, 2.432e-3
-1.325, 2.382e-3
-1.324, 2.350e-3
-1.323, 2.303e-3
-1.322, 2.262e-3
-1.321, 2.214e-3
-1.320, 2.165e-3
-1.319, 2.114e-3
-1.318, 2.060e-3
-1.317, 2.013e-3
-1.316, 1.962e-3
-1.315, 1.918e-3
-1.314, 1.886e-3
-1.313, 1.847e-3
-1.312, 1.800e-3
-1.311, 1.756e-3
-1.310, 1.723e-3
-1.309, 1.617e-3
-1.308, 1.532e-3
-1.307, 1.537e-3
-1.306, 1.497e-3
-1.305, 1.438e-3
-1.304, 1.406e-3
-1.303, 1.379e-3
-1.302, 1.345e-3
-1.301, 1.315e-3
-1.300, 1.269e-3
-1.299, 1.228e-3
-1.298, 1.195e-3
-1.297, 1.159e-3
-1.296, 1.125e-3
-1.295, 1.097e-3
-1.294, 1.065e-3
-1.293, 1.034e-3
-1.292, 1.001e-3
-1.291, 9.703e-4
-1.290, 9.223e-4
-1.289, 8.686e-4
-1.288, 8.549e-4
-1.287, 8.293e-4
-1.286, 7.984e-4
-1.285, 7.768e-4
-1.284, 7.496e-4
-1.283, 7.200e-4
-1.282, 6.952e-4
-1.281, 6.695e-4
-1.280, 6.410e-4
-1.279, 6.152e-4
-1.278, 5.900e-4
-1.277, 5.685e-4
-1.276, 5.440e-4
-1.275, 5.185e-4
-1.274, 4.986e-4
-1.273, 4.730e-4
-1.272, 4.505e-4
-1.271, 4.372e-4
-1.270, 4.177e-4
-1.269, 3.973e-4
-1.268, 3.778e-4
-1.267, 3.561e-4
-1.266, 3.400e-4
-1.265, 3.225e-4
-1.264, 3.021e-4
-1.263, 2.842e-4
-1.262, 2.668e-4
-1.261, 2.508e-4
-1.260, 2.353e-4
-1.259, 2.215e-4
-1.258, 2.067e-4
-1.257, 1.901e-4
-1.256, 1.694e-4
-1.255, 1.539e-4
-1.254, 1.446e-4
-1.253, 1.294e-4
-1.252, 1.151e-4
-1.251, 1.040e-4
-1.250, 8.992e-5
-1.249, 7.721e-5
-1.248, 6.396e-5
-1.247, 5.091e-5
-1.246, 4.088e-5
-1.245, 3.043e-5
-1.244, 2.081e-5
-1.243, 1.094e-5
-1.242, 1.873e-6
-1.241, -6.819e-6
-1.240, -1.591e-5
-1.239, -2.531e-5
-1.238, -3.592e-5
-1.237, -4.455e-5
-1.236, -5.543e-5
-1.235, -6.686e-5
-1.234, -7.529e-5
-1.233, -8.509e-5
-1.232, -9.366e-5
-1.231, -1.011e-4
-1.230, -1.099e-4
-1.229, -1.176e-4
-1.228, -1.242e-4
-1.227, -1.295e-4
-1.226, -1.342e-4
-1.225, -1.417e-4
-1.224, -1.468e-4
-1.223, -1.544e-4
-1.222, -1.612e-4
-1.221, -1.670e-4
-1.220, -1.743e-4
-1.219, -1.777e-4
-1.218, -1.781e-4
-1.217, -1.871e-4
-1.216, -1.977e-4
-1.215, -2.026e-4
-1.214, -2.081e-4
-1.213, -2.154e-4
-1.212, -2.222e-4
-1.211, -2.257e-4
-1.210, -2.285e-4
-1.209, -2.312e-4
-1.208, -2.362e-4
-1.207, -2.402e-4
-1.206, -2.444e-4
-1.205, -2.511e-4
-1.204, -2.561e-4
-1.203, -2.630e-4
-1.202, -2.674e-4
-1.201, -2.671e-4
-1.200, -2.608e-4
-1.199, -2.682e-4
-1.198, -2.816e-4
-1.197, -2.830e-4
-1.196, -2.856e-4
-1.195, -2.927e-4
-1.194, -2.955e-4
-1.193, -3.000e-4
-1.192, -3.033e-4
-1.191, -3.050e-4
-1.190, -3.081e-4
-1.189, -3.091e-4
-1.188, -3.121e-4
-1.187, -3.148e-4
-1.186, -3.181e-4
-1.185, -3.216e-4
-1.184, -3.225e-4
-1.183, -3.286e-4
-1.182, -3.335e-4
-1.181, -3.352e-4
-1.180, -3.396e-4
-1.179, -3.416e-4
-1.178, -3.440e-4
-1.177, -3.552e-4
-1.176, -3.554e-4
-1.175, -3.564e-4
-1.174, -3.594e-4
-1.173, -3.615e-4
-1.172, -3.631e-4
-1.171, -3.657e-4
-1.170, -3.679e-4
-1.169, -3.704e-4
-1.168, -3.738e-4
-1.167, -3.779e-4
-1.166, -3.820e-4
-1.165, -3.883e-4
-1.164, -4.029e-4
-1.163, -4.034e-4
-1.162, -3.963e-4
-1.161, -4.014e-4
-1.160, -4.017e-4
-1.159, -4.003e-4
-1.158, -4.083e-4
-1.157, -4.108e-4
-1.156, -4.109e-4
-1.155, -4.160e-4
-1.154, -4.006e-4
-1.153, -4.014e-4
-1.152, -4.140e-4
-1.151, -4.236e-4
-1.150, -4.230e-4
-1.149, -4.316e-4
-1.148, -4.388e-4
-1.147, -4.397e-4
-1.146, -4.434e-4
-1.145, -4.459e-4
-1.144, -4.475e-4
-1.143, -4.497e-4
-1.142, -4.501e-4
-1.141, -4.509e-4
-1.140, -4.552e-4
-1.139, -4.580e-4
-1.138, -4.614e-4
-1.137, -4.629e-4
-1.136, -4.634e-4
-1.135, -4.664e-4
-1.134, -4.703e-4
-1.133, -4.770e-4
-1.132, -4.852e-4
-1.131, -4.852e-4
-1.130, -4.877e-4
-1.129, -4.928e-4
-1.128, -4.960e-4
-1.127, -4.958e-4
-1.126, -4.963e-4
-1.125, -5.075e-4
-1.124, -5.050e-4
-1.123, -5.054e-4
-1.122, -5.110e-4
-1.121, -5.146e-4
-1.120, -5.167e-4
-1.119, -5.240e-4
-1.118, -5.314e-4
-1.117, -5.333e-4
-1.116, -5.378e-4
-1.115, -5.449e-4
-1.114, -5.435e-4
-1.113, -5.258e-4
-1.112, -5.292e-4
-1.111, -5.418e-4
-1.110, -5.436e-4
-1.109, -5.522e-4
-1.108, -5.604e-4
-1.107, -5.646e-4
-1.106, -5.693e-4
-1.105, -5.733e-4
-1.104, -5.720e-4
-1.103, -5.742e-4
-1.102, -5.754e-4
-1.101, -5.782e-4
-1.100, -5.859e-4
-1.099, -5.903e-4
-1.098, -5.957e-4
-1.097, -6.015e-4
-1.096, -6.041e-4
-1.095, -6.111e-4
-1.094, -6.138e-4
-1.093, -5.814e-4
-1.092, -5.804e-4
-1.091, -6.069e-4
-1.090, -6.092e-4
-1.089, -6.115e-4
-1.088, -6.237e-4
-1.087, -6.320e-4
-1.086, -6.346e-4
-1.085, -6.395e-4
-1.084, -6.406e-4
-1.083, -6.390e-4
-1.082, -6.406e-4
-1.081, -6.420e-4
-1.080, -6.449e-4
-1.079, -6.517e-4
-1.078, -6.616e-4
-1.077, -6.693e-4
-1.076, -6.753e-4
-1.075, -6.525e-4
-1.074, -6.341e-4
-1.073, -6.593e-4
-1.072, -6.662e-4
-1.071, -6.706e-4
-1.070, -6.833e-4
-1.069, -6.868e-4
-1.068, -6.923e-4
-1.067, -6.962e-4
-1.066, -6.966e-4
-1.065, -6.988e-4
-1.064, -6.966e-4
-1.063, -6.981e-4
-1.062, -7.019e-4
-1.061, -7.068e-4
-1.060, -7.166e-4
-1.059, -7.238e-4
-1.058, -7.292e-4
-1.057, -7.305e-4
-1.056, -7.223e-4
-1.055, -6.909e-4
-1.054, -6.985e-4
-1.053, -7.275e-4
-1.052, -7.309e-4
-1.051, -7.283e-4
-1.050, -7.416e-4
-1.049, -7.508e-4
-1.048, -7.546e-4
-1.047, -7.617e-4
-1.046, -7.647e-4
-1.045, -7.649e-4
-1.044, -7.644e-4
-1.043, -7.656e-4
-1.042, -7.674e-4
-1.041, -7.728e-4
-1.040, -7.796e-4
-1.039, -7.874e-4
-1.038, -7.941e-4
-1.037, -7.969e-4
-1.036, -8.030e-4
-1.035, -7.759e-4
-1.034, -7.531e-4
-1.033, -7.942e-4
-1.032, -7.951e-4
-1.031, -7.965e-4
-1.030, -8.122e-4
-1.029, -8.274e-4
-1.028, -8.286e-4
-1.027, -8.304e-4
-1.026, -8.270e-4
-1.025, -8.200e-4
-1.024, -8.235e-4
-1.023, -8.307e-4
-1.022, -8.349e-4
-1.021, -8.469e-4
-1.020, -8.569e-4
-1.019, -8.613e-4
-1.018, -8.714e-4
-1.017, -8.710e-4
-1.016, -8.380e-4
-1.015, -8.264e-4
-1.014, -8.559e-4
-1.013, -8.599e-4
-1.012, -8.644e-4
-1.011, -8.829e-4
-1.010, -8.926e-4
-1.009, -8.985e-4
-1.008, -9.068e-4
-1.007, -9.104e-4
-1.006, -9.082e-4
-1.005, -9.088e-4
-1.004, -9.100e-4
-1.003, -9.147e-4
-1.002, -9.226e-4
-1.001, -9.330e-4
