Potential V vs RHE, Current mA cm-2
0.013299999999999867,0.3467457395969205
0.012299999999999978,-1.2671569112891135
0.011299999999999866,-2.706342716641815
0.010299999999999976,-4.102662769608606
0.009299999999999864,-5.411270721983764
0.008299999999999974,-6.588310523471475
0.007299999999999862,-7.7653503249591855
0.006299999999999972,-8.85609273715513
0.00529999999999986,-9.85912304875944
0.0042999999999999705,-10.819712021367803
0.0032999999999998586,-11.778886282676295
0.0022999999999999687,-12.651763154693022
0.0012999999999998568,-13.47936926511407
0.00029999999999996696,-14.30273124163552
-0.000700000000000145,-15.094969569559943
-0.0017000000000000348,-15.78817810649381
-0.0027000000000001467,-16.53797509542228
-0.0037000000000000366,-17.188742293360193
-0.0047000000000001485,-17.839509491298113
-0.005700000000000038,-18.44783535024008
-0.00670000000000015,-19.01371987018609
-0.00770000000000004,-19.636192842126707
-0.008700000000000152,-20.159636023076775
-0.009700000000000042,-20.683079204026836
-0.010700000000000154,-21.149933932982297
-0.011700000000000044,-21.67337711393236
-0.012700000000000156,-22.111937616890522
-0.013700000000000045,-22.592939458844636
-0.014700000000000157,-23.073941300798747
-0.015700000000000047,-23.51250180375691
-0.01670000000000016,-23.951062306715073
-0.01770000000000005,-24.34718147067728
-0.01870000000000016,-24.729153521640843
-0.01970000000000005,-25.12527268560305
-0.020700000000000163,-25.478950510569312
-0.021700000000000053,-25.77603988354097
-0.022700000000000164,-26.129717708507226
-0.023700000000000054,-26.483395533473487
-0.024700000000000166,-26.780484906445146
-0.025700000000000056,-27.134162731411404
-0.026700000000000168,-27.38881076538711
-0.027700000000000058,-27.700047251357418
-0.02870000000000017,-28.011283737327723
-0.02970000000000006,-28.265931771303435
-0.03070000000000017,-28.53472691827779
-0.03170000000000006,-28.704492274261593
-0.03270000000000017,-28.91669896924135
-0.03370000000000006,-29.18549411621571
-0.034700000000000175,-29.440142150191413
-0.035700000000000065,-29.708937297165768
-0.03670000000000018,-29.96358533114148
-0.03770000000000007,-30.232380478115836
-0.03870000000000018,-30.487028512091538
-0.03970000000000007,-30.71338232006995
-0.04070000000000018,-30.925589015049702
-0.04170000000000007,-31.19438416202406
-0.04270000000000018,-31.36414951800786
-0.04370000000000007,-31.618797551983565
-0.044700000000000184,-31.84515135996197
-0.045700000000000074,-32.05735805494172
-0.046700000000000186,-32.32615320191609
-0.047700000000000076,-32.49591855789989
-0.04870000000000019,-32.70812525287965
-0.04970000000000008,-32.93447906085806
-0.05070000000000019,-33.10424441684186
-0.05170000000000008,-33.288156885824314
-0.05270000000000019,-33.50036358080407
-0.05370000000000008,-33.670128936787876
-0.05470000000000019,-33.89648274476628
-0.05570000000000008,-34.06624810075008
-0.056700000000000195,-34.193572117737936
-0.057700000000000085,-34.33504324772444
-0.058700000000000196,-34.41992592571634
-0.059700000000000086,-34.58969128170015
-0.0607000000000002,-34.717015298688004
-0.06170000000000009,-34.85848642867451
-0.0627000000000002,-34.98581044566235
-0.06370000000000009,-35.07069312365426
-0.0647000000000002,-35.240458479638065
-0.06570000000000009,-35.38192960962457
-0.0667000000000002,-35.46681228761647
-0.0677000000000001,-35.594136304604326
-0.0687000000000002,-35.679018982596226
-0.0697000000000001,-35.721460321592176
-0.07070000000000021,-35.806342999584075
-0.0717000000000001,-35.94781412957058
-0.07270000000000021,-36.11757948555439
-0.0737000000000001,-36.244903502542236
-0.07470000000000021,-36.4288159715247
-0.0757000000000001,-36.64102266650445
-0.07670000000000021,-36.768346683492304
-0.0777000000000001,-36.89567070048016
-0.07870000000000021,-36.99470049147071
-0.0797000000000001,-36.99470049147071
-0.08070000000000022,-36.95225915247476
-0.0817000000000001,-36.99470049147071
-0.08270000000000022,-37.037141830466666
-0.08370000000000011,-36.81078802248826
-0.08470000000000022,-36.47125731052064
-0.08570000000000011,-36.07513814655844
-0.08670000000000022,-35.763901660588125
-0.08770000000000011,-35.42437094862052
-0.08870000000000022,-35.02825178465831
-0.08970000000000011,-34.67457395969205
-0.09070000000000022,-34.193572117737936
-0.09170000000000011,-33.89648274476628
-0.09270000000000023,-33.755011614779775
-0.09370000000000012,-33.712570275783825
-0.09470000000000023,-33.85404140577033
-0.09570000000000012,-33.85404140577033
-0.09670000000000023,-33.98136542275818
-0.09770000000000012,-34.15113077874198
-0.09870000000000023,-34.462367264712285
-0.09970000000000012,-34.717015298688004
-0.10070000000000023,-34.94336910666641
-0.10170000000000012,-35.198017140642115
-0.10270000000000024,-35.50925362661242
-0.10370000000000013,-35.763901660588125
-0.10470000000000024,-36.03269680756248
-0.10570000000000013,-36.28734484153819
-0.10670000000000024,-36.47125731052064
-0.10770000000000013,-36.6834640055004
-0.10870000000000024,-36.89567070048016
-0.10970000000000013,-37.164465847454515
-0.11070000000000024,-37.376672542434264
-0.11170000000000013,-37.56058501141672
-0.11270000000000002,-37.645467689408626
-0.11370000000000013,-37.56058501141672
-0.11470000000000002,-37.56058501141672
-0.11570000000000014,-37.56058501141672
-0.11670000000000003,-37.56058501141672
-0.11770000000000014,-37.60302635041268
-0.11870000000000003,-37.645467689408626
-0.11970000000000014,-37.60302635041268
-0.12070000000000003,-37.56058501141672
-0.12170000000000014,-37.47570233342482
-0.12270000000000003,-37.334231203438314
-0.12370000000000014,-37.249348525446415
-0.12470000000000003,-37.249348525446415
-0.12570000000000014,-37.291789864442364
-0.12670000000000003,-37.376672542434264
-0.12770000000000015,-37.47570233342482
-0.12870000000000004,-37.60302635041268
-0.12970000000000015,-37.687909028404576
-0.13070000000000004,-37.77279170639648
-0.13170000000000015,-37.85767438438838
-0.13270000000000004,-37.94255706238028
-0.13370000000000015,-37.99914551437489
-0.13470000000000004,-38.08402819236679
-0.13570000000000015,-38.12646953136274
-0.13670000000000004,-38.253793548350586
-0.13770000000000016,-38.38111756533845
-0.13870000000000005,-38.46600024333035
-0.13970000000000016,-38.6499127123128
-0.14070000000000005,-38.692354051308754
-0.14170000000000016,-38.777236729300654
-0.14270000000000005,-38.86211940729255
-0.14370000000000016,-38.86211940729255
-0.14470000000000005,-38.90456074628851
-0.14570000000000016,-38.94700208528445
-0.14670000000000005,-39.046031876275016
-0.14770000000000016,-39.046031876275016
-0.14870000000000005,-39.08847321527096
-0.14970000000000017,-39.173355893262865
-0.15070000000000006,-39.21579723225882
-0.15170000000000017,-39.258238571254765
-0.15270000000000006,-39.258238571254765
-0.15370000000000017,-39.30067991025072
-0.15470000000000006,-39.38556258824262
-0.15570000000000017,-39.47044526623452
-0.15670000000000006,-39.51288660523048
-0.15770000000000017,-39.61191639622103
-0.15870000000000006,-39.654357735216976
-0.15970000000000018,-39.739240413208876
-0.16070000000000007,-39.82412309120078
-0.16170000000000018,-39.86656443019674
-0.16270000000000007,-39.95144710818864
-0.16370000000000018,-39.99388844718459
-0.16470000000000007,-40.092918238175145
-0.16570000000000018,-40.135359577171094
-0.16670000000000007,-40.220242255162994
-0.16770000000000018,-40.26268359415894
-0.16870000000000007,-40.30512493315489
-0.16970000000000018,-40.3900076111468
-0.17070000000000007,-40.4748902891387
-0.17170000000000019,-40.559772967130606
-0.17270000000000008,-40.65880275812115
-0.1737000000000002,-40.743685436113054
-0.17470000000000008,-40.78612677510901
-0.1757000000000002,-40.87100945310091
-0.17670000000000008,-40.95589213109281
-0.1777000000000002,-40.99833347008877
-0.17870000000000008,-41.083216148080666
-0.1797000000000002,-41.22468727806717
-0.18070000000000008,-41.352011295055014
-0.1817000000000002,-41.39445263405098
-0.18270000000000008,-41.47933531204288
-0.1837000000000002,-41.56421799003478
-0.1847000000000001,-41.70568912002128
-0.1857000000000002,-41.74813045901723
-0.1867000000000001,-41.79057179801318
-0.1877000000000002,-41.87545447600508
-0.1887000000000001,-41.96033715399699
-0.1897000000000002,-42.04521983198889
-0.1907000000000001,-42.130102509980794
-0.1917000000000001,-42.2715736399673
-0.19269999999999998,-42.3564563179592
-0.1937000000000001,-42.4413389959511
-0.19469999999999998,-42.483780334947056
-0.1957000000000001,-42.568663012938956
-0.19669999999999999,-42.653545690930855
-0.1977000000000001,-42.752575481921404
-0.1987,-42.92234083790521
-0.1997000000000001,-43.04966485489307
-0.2007,-43.17698887188092
-0.2017000000000001,-43.31846000186743
-0.2027,-43.44578401885527
-0.2037000000000001,-43.61554937483908
-0.2047,-43.657990713835034
-0.2057000000000001,-43.75702050482558
-0.2067,-43.79946184382153
-0.2077000000000001,-43.88434452181344
-0.2087,-43.96922719980534
-0.2097000000000001,-44.138992555789144
-0.2107,-44.28046368577565
-0.2117000000000001,-44.45022904175945
-0.2127,-44.577553058747306
-0.2137000000000001,-44.74731841473111
-0.2147,-44.93123088371356
-0.2157000000000001,-45.10099623969737
-0.2167,-45.18587891768927
-0.21770000000000012,-45.27076159568118
-0.2187,-45.32735004767578
-0.21970000000000012,-45.45467406466363
-0.2207,-45.581998081651484
-0.22170000000000012,-45.79420477663124
-0.2227,-46.062999923605595
-0.22370000000000012,-46.3176479575813
-0.2247,-46.586443104555656
-0.22570000000000012,-46.79864979953541
-0.2267,-47.02500360751382
-0.22770000000000012,-47.19476896349763
-0.22870000000000001,-47.36453431948143
-0.22970000000000013,-47.633329466455784
-0.23070000000000002,-47.84553616143554
-0.23170000000000013,-48.029448630417996
-0.23270000000000002,-48.24165532539775
-0.23370000000000013,-48.41142068138156
-0.23470000000000002,-48.63777448935996
-0.23570000000000013,-48.80753984534376
-0.23670000000000002,-49.03389365332217
-0.2376999999999999,-49.24610034830193
-0.23870000000000002,-49.458307043281685
-0.2396999999999999,-49.68466085126009
-0.24070000000000003,-49.85442620724389
-0.24169999999999991,-50.024191563227696
-0.24270000000000003,-50.20810403221015
-0.24369999999999992,-50.46275206618586
-0.24470000000000003,-50.64666453516831
-0.24569999999999992,-50.81642989115212
-0.24670000000000003,-50.98619524713592
-0.24769999999999992,-51.21254905511432
-0.24870000000000003,-51.424755750094086
-0.24969999999999992,-51.65110955807249
-0.25070000000000003,-51.82087491405629
-0.2516999999999999,-52.033081609036046
-0.25270000000000004,-52.25943541701445
-0.2536999999999999,-52.471642111994214
-0.25470000000000004,-52.59896612898206
-0.2556999999999999,-52.64140746797801
-0.25670000000000004,-52.64140746797801
-0.25769999999999993,-52.64140746797801
-0.25870000000000004,-52.59896612898206
-0.25969999999999993,-52.42920077299826
-0.26070000000000004,-52.17455273902255
-0.26169999999999993,-51.77843357506035
-0.26270000000000004,-51.46719708909004
-0.26369999999999993,-50.98619524713592
-0.26470000000000005,-50.46275206618586
-0.26569999999999994,-50.0807800152223
-0.26670000000000005,-49.98175022423175
-0.26769999999999994,-50.0807800152223
-0.26870000000000005,-50.1656626932142
-0.26969999999999994,-50.335428049198
-0.27070000000000005,-50.46275206618586
-0.27169999999999994,-50.60422319617236
-0.27270000000000005,-50.68910587416426
-0.27369999999999994,-50.85887123014807
-0.27470000000000006,-51.29743173310623
-0.27569999999999995,-51.69355089706845
-0.27670000000000006,-51.990640270040096
-0.27769999999999995,-52.34431809500636
-0.27870000000000006,-52.64140746797801
-0.27969999999999995,-52.82531993696047
-0.28070000000000006,-53.12240930993213
-0.28169999999999995,-53.476087134898386
-0.28270000000000006,-53.64585249088219
-0.28369999999999995,-53.9570889768525
-0.28470000000000006,-54.2117370108282
-0.28569999999999995,-54.52297349679851
-0.28670000000000007,-54.919092660760725
-0.28769999999999996,-55.400094502714836
-0.28870000000000007,-55.881096344668954
-0.28969999999999996,-56.26306839563251
-0.29070000000000007,-56.44698086461496
-0.29169999999999996,-56.61674622059877
-0.29270000000000007,-56.82895291557852
-0.29369999999999996,-56.97042404556503
-0.2947000000000001,-57.05530672355693
-0.29569999999999996,-57.05530672355693
-0.2967000000000001,-57.012865384560975
-0.29769999999999996,-56.82895291557852
-0.2987000000000001,-56.74407023758662
-0.29969999999999997,-56.70162889859067
-0.3007000000000001,-56.70162889859067
-0.30169999999999997,-56.786511576582576
-0.3027000000000001,-56.82895291557852
-0.30369999999999997,-56.97042404556503
-0.3047000000000001,-57.05530672355693
-0.30569999999999997,-57.182630740544774
-0.3067000000000001,-57.22507207954074
-0.3077,-57.30995475753264
-0.3087000000000001,-57.352396096528594
-0.3097,-57.30995475753264
-0.3107000000000001,-57.30995475753264
-0.3117,-57.30995475753264
-0.3127000000000001,-57.352396096528594
-0.3137,-57.408984548523186
-0.3147000000000001,-57.45142588751914
-0.3157,-57.493867226515086
-0.3167000000000001,-57.57874990450699
-0.3177,-57.57874990450699
-0.3187000000000001,-57.57874990450699
-0.3197,-57.53630856551105
-0.3207000000000001,-57.53630856551105
-0.3217,-57.45142588751914
-0.3227000000000001,-57.408984548523186
-0.3237,-57.408984548523186
-0.3247000000000001,-57.30995475753264
-0.3257,-57.22507207954074
-0.3267000000000001,-57.22507207954074
-0.3277,-57.182630740544774
-0.3287000000000001,-57.097748062552874
-0.3297,-57.012865384560975
-0.3307000000000001,-56.97042404556503
-0.3317,-56.88554136757313
-0.3327000000000001,-56.82895291557852
-0.3337,-56.786511576582576
-0.3347000000000001,-56.786511576582576
-0.3357,-56.74407023758662
-0.3367000000000001,-56.74407023758662
-0.3377,-56.786511576582576
-0.3387000000000001,-56.82895291557852
-0.3397,-56.88554136757313
-0.3407000000000001,-56.927982706569075
-0.3417,-57.012865384560975
-0.3427000000000001,-57.05530672355693
-0.3437,-57.097748062552874
-0.3447000000000001,-57.14018940154883
-0.3457,-57.22507207954074
-0.3467000000000001,-57.26751341853669
-0.3477,-57.26751341853669
-0.3487000000000001,-57.30995475753264
-0.3497,-57.352396096528594
-0.3507000000000001,-57.408984548523186
-0.3517,-57.408984548523186
-0.3527000000000001,-57.45142588751914
-0.3537,-57.53630856551105
-0.3547000000000001,-57.493867226515086
-0.3557,-57.53630856551105
-0.35670000000000013,-57.62119124350295
-0.3577,-57.7485152604908
-0.35870000000000013,-57.974869068469204
-0.3597,-58.18707576344896
-0.36070000000000013,-58.45587091042332
-0.3617,-58.66807760540307
-0.3626999999999999,-58.92272563937878
-0.3637,-59.14907944735718
-0.3646999999999999,-59.31884480334099
-0.3657,-59.54519861131939
-0.3666999999999999,-59.7998466452951
-0.3677,-60.11108313126541
-0.3686999999999999,-60.45061384323302
-0.36970000000000003,-60.80429166819927
-0.3706999999999999,-61.11552815416958
-0.37170000000000003,-61.412617527141244
-0.3726999999999999,-61.7662953521075
-0.37370000000000003,-62.02094338608321
-0.3746999999999999,-62.28973853305756
-0.37570000000000003,-62.58682790602922
-0.3766999999999999,-62.94050573099548
-0.37770000000000004,-63.29418355596174
-0.3786999999999999,-63.732744058919906
-0.37970000000000004,-64.15715744887942
-0.3806999999999999,-64.55327661284163
-0.38170000000000004,-64.99183711579978
-0.38269999999999993,-65.38795627976201
-0.38370000000000004,-65.76992833072556
-0.38469999999999993,-66.20848883368372
-0.38570000000000004,-66.73193201463377
-0.38669999999999993,-66.12360615569182
-0.38570000000000004,-63.633714267929356
-0.38469999999999993,-61.49750020513315
-0.38370000000000004,-59.587639950315335
-0.38269999999999993,-57.8333979384827
-0.38170000000000004,-56.26306839563251
-0.3806999999999999,-54.69273885278232
-0.37970000000000004,-53.22143910092268
-0.3786999999999999,-51.82087491405629
-0.37770000000000004,-50.46275206618586
-0.3766999999999999,-49.24610034830193
-0.37570000000000003,-48.156772647405845
-0.3746999999999999,-47.067444946509774
-0.37370000000000003,-46.02055858460964
-0.3726999999999999,-44.93123088371356
-0.37170000000000003,-43.92678586080939
-0.3706999999999999,-42.92234083790521
-0.36970000000000003,-41.87545447600508
-0.3686999999999999,-40.87100945310091
-0.3677,-39.86656443019674
-0.3666999999999999,-38.94700208528445
-0.3657,-38.08402819236679
-0.3646999999999999,-37.206907186450465
-0.3637,-36.37222751953009
-0.3626999999999999,-35.594136304604326
-0.3617,-34.8018979766799
-0.36070000000000013,-34.02380676175414
-0.3597,-33.231568433829715
-0.35870000000000013,-32.45347721890394
-0.3577,-31.661238890979522
-0.35670000000000013,-30.968030354045652
-0.3557,-30.232380478115836
-0.3547000000000001,-29.482583489187363
-0.3537,-28.831816291249446
-0.3527000000000001,-28.13860775431558
-0.3517,-27.487840556377662
-0.3507000000000001,-26.780484906445146
-0.3497,-26.087276369511276
-0.3487000000000001,-25.39406783257741
-0.3477,-24.686712182644893
-0.3467000000000001,-23.993503645711023
-0.3457,-23.300295108777156
-0.3447000000000001,-22.63538079784059
-0.3437,-21.94217226090672
-0.3427000000000001,-21.248963723972853
-0.3417,-20.626490752032236
-0.3407000000000001,-19.97572355409432
-0.3397,-19.3249563561564
-0.3387000000000001,-18.716630497214435
-0.3377,-18.10830463827247
-0.3367000000000001,-17.48583166633185
-0.3357,-16.919947146385837
-0.3347000000000001,-16.311621287443874
-0.3337,-15.70329542850191
-0.3327000000000001,-15.094969569559943
-0.3317,-14.529085049613924
-0.3307000000000001,-14.002812446064135
-0.3297,-13.436927926118118
-0.3287000000000001,-12.869628694872238
-0.3277,-12.346185513922174
-0.3267000000000001,-11.82274233297211
-0.3257,-11.255443101726232
-0.3247000000000001,-10.731999920776168
-0.3237,-10.120844639234473
-0.3227000000000001,-9.59740145828441
-0.3217,-9.073958277334345
-0.3207000000000001,-8.508073757388331
-0.3197,-7.940774526142452
-0.3187000000000001,-7.4173313451923875
-0.3177,-6.893888164242324
-0.3167000000000001,-6.37044498329226
-0.3157,-5.890857852638012
-0.3147000000000001,-5.411270721983764
-0.3137,-4.9302688800296535
-0.3127000000000001,-4.450681749375406
-0.3117,-4.014950669016974
-0.3107000000000001,-3.623075638954359
-0.3097,-3.2297858975918787
-0.3087000000000001,-2.8379108675292635
-0.3077,-2.4446211261667834
-0.3067000000000001,-2.095187435100119
-0.30569999999999997,-1.7471684553333202
-0.3047000000000001,-1.3543031273607997
-0.30369999999999997,-1.0054353208140816
-0.3027000000000001,-0.6564260431373771
-0.30169999999999997,-0.30755823659065895
-0.3007000000000001,0.08502414912188871
-0.29969999999999997,0.43403342679859325
-0.2987000000000001,0.7829012333453113
-0.29769999999999996,1.175483619057859
-0.2967000000000001,1.5250587812545096
-0.29569999999999996,1.8292217107254924
-0.2947000000000001,2.2225114520879723
-0.29369999999999996,2.5705304318547717
-0.29270000000000007,2.919964122921436
-0.29169999999999996,3.2693978139880997
-0.29070000000000007,3.5749754547589476
-0.28969999999999996,3.8791383842299307
-0.28870000000000007,4.2285720752965945
-0.28769999999999996,4.534149716067443
-0.28670000000000007,4.839727356838291
-0.28569999999999995,5.145304997609139
-0.28470000000000006,5.449467927080121
-0.28369999999999995,5.7111895175551535
-0.28270000000000006,6.016767158326001
-0.28169999999999995,6.278488748801033
-0.28070000000000006,6.540210339276065
-0.27969999999999995,6.801931929751096
-0.27870000000000006,7.063653520226129
-0.27769999999999995,7.369231160996977
-0.27670000000000006,7.630952751472008
-0.27569999999999995,7.892674341947039
-0.27470000000000006,8.154395932422071
-0.27369999999999994,8.416117522897103
-0.27270000000000005,8.677839113372134
-0.27169999999999994,8.939560703847167
-0.27070000000000005,9.157426244026382
-0.26969999999999994,9.419147834501414
-0.26870000000000005,9.680869424976446
-0.26769999999999994,9.942591015451477
-0.26670000000000005,10.20431260592651
-0.26569999999999994,10.422178146105725
-0.26470000000000005,10.683899736580756
