Sept. 7, 2024   03:55:01
Cyclic Voltammetry
File: c:/users/guazh/data/20240903_batch_252_500/2024-09-03-exp285\exp285-2024-09-07t03_47_53-h2koh\exp285_cv_sr_400mvs_efin_-1400mv.bin
Data Source:  Experiment
Instrument Model:  CHI760E
Header: CV ran at 400 mVs
Note: 

Init E (V) = -1
High E (V) = -1
Low E (V) = -1.4
Final E (V) = -1
Init P/N = N
Scan Rate (V/s) = 0.4
Segment = 3
Sample Interval (V) = 0.001
Quiet Time (sec) = 2
Sensitivity (A/V) = 0.01
Comp R (ohm) = 1.6

Results:

Channel 1:
Segment 1:
Ep = -1.355V
ip = 1.285e-3A
Ah = 3.002e-4C

Segment 2:

Segment 3:

Potential/V, Current/A

-1.000, -3.376e-5
-1.001, 7.107e-5
-1.002, 1.666e-4
-1.003, 2.499e-4
-1.004, 3.239e-4
-1.005, 3.917e-4
-1.006, 4.534e-4
-1.007, 5.089e-4
-1.008, 5.613e-4
-1.009, 6.075e-4
-1.010, 6.538e-4
-1.011, 6.877e-4
-1.012, 7.247e-4
-1.013, 7.524e-4
-1.014, 7.833e-4
-1.015, 8.141e-4
-1.016, 8.449e-4
-1.017, 8.696e-4
-1.018, 8.881e-4
-1.019, 9.004e-4
-1.020, 9.128e-4
-1.021, 9.313e-4
-1.022, 9.467e-4
-1.023, 9.621e-4
-1.024, 9.806e-4
-1.025, 9.960e-4
-1.026, 1.008e-3
-1.027, 1.027e-3
-1.028, 1.045e-3
-1.029, 1.055e-3
-1.030, 1.067e-3
-1.031, 1.079e-3
-1.032, 1.095e-3
-1.033, 1.113e-3
-1.034, 1.135e-3
-1.035, 1.147e-3
-1.036, 1.159e-3
-1.037, 1.172e-3
-1.038, 1.178e-3
-1.039, 1.187e-3
-1.040, 1.193e-3
-1.041, 1.196e-3
-1.042, 1.206e-3
-1.043, 1.218e-3
-1.044, 1.227e-3
-1.045, 1.236e-3
-1.046, 1.246e-3
-1.047, 1.258e-3
-1.048, 1.267e-3
-1.049, 1.277e-3
-1.050, 1.280e-3
-1.051, 1.286e-3
-1.052, 1.289e-3
-1.053, 1.292e-3
-1.054, 1.298e-3
-1.055, 1.304e-3
-1.056, 1.314e-3
-1.057, 1.317e-3
-1.058, 1.323e-3
-1.059, 1.332e-3
-1.060, 1.335e-3
-1.061, 1.338e-3
-1.062, 1.344e-3
-1.063, 1.347e-3
-1.064, 1.351e-3
-1.065, 1.354e-3
-1.066, 1.360e-3
-1.067, 1.366e-3
-1.068, 1.369e-3
-1.069, 1.372e-3
-1.070, 1.378e-3
-1.071, 1.384e-3
-1.072, 1.388e-3
-1.073, 1.388e-3
-1.074, 1.394e-3
-1.075, 1.400e-3
-1.076, 1.406e-3
-1.077, 1.409e-3
-1.078, 1.415e-3
-1.079, 1.418e-3
-1.080, 1.425e-3
-1.081, 1.425e-3
-1.082, 1.428e-3
-1.083, 1.431e-3
-1.084, 1.428e-3
-1.085, 1.431e-3
-1.086, 1.431e-3
-1.087, 1.437e-3
-1.088, 1.446e-3
-1.089, 1.449e-3
-1.090, 1.443e-3
-1.091, 1.431e-3
-1.092, 1.409e-3
-1.093, 1.384e-3
-1.094, 1.354e-3
-1.095, 1.335e-3
-1.096, 1.338e-3
-1.097, 1.335e-3
-1.098, 1.344e-3
-1.099, 1.363e-3
-1.100, 1.384e-3
-1.101, 1.403e-3
-1.102, 1.421e-3
-1.103, 1.437e-3
-1.104, 1.434e-3
-1.105, 1.431e-3
-1.106, 1.434e-3
-1.107, 1.431e-3
-1.108, 1.425e-3
-1.109, 1.421e-3
-1.110, 1.428e-3
-1.111, 1.431e-3
-1.112, 1.437e-3
-1.113, 1.437e-3
-1.114, 1.440e-3
-1.115, 1.446e-3
-1.116, 1.452e-3
-1.117, 1.455e-3
-1.118, 1.455e-3
-1.119, 1.455e-3
-1.120, 1.455e-3
-1.121, 1.458e-3
-1.122, 1.458e-3
-1.123, 1.462e-3
-1.124, 1.462e-3
-1.125, 1.465e-3
-1.126, 1.465e-3
-1.127, 1.468e-3
-1.128, 1.468e-3
-1.129, 1.468e-3
-1.130, 1.468e-3
-1.131, 1.471e-3
-1.132, 1.468e-3
-1.133, 1.468e-3
-1.134, 1.468e-3
-1.135, 1.471e-3
-1.136, 1.471e-3
-1.137, 1.468e-3
-1.138, 1.468e-3
-1.139, 1.468e-3
-1.140, 1.468e-3
-1.141, 1.468e-3
-1.142, 1.468e-3
-1.143, 1.474e-3
-1.144, 1.477e-3
-1.145, 1.474e-3
-1.146, 1.468e-3
-1.147, 1.474e-3
-1.148, 1.477e-3
-1.149, 1.480e-3
-1.150, 1.477e-3
-1.151, 1.477e-3
-1.152, 1.480e-3
-1.153, 1.489e-3
-1.154, 1.495e-3
-1.155, 1.499e-3
-1.156, 1.505e-3
-1.157, 1.508e-3
-1.158, 1.514e-3
-1.159, 1.520e-3
-1.160, 1.529e-3
-1.161, 1.532e-3
-1.162, 1.529e-3
-1.163, 1.517e-3
-1.164, 1.499e-3
-1.165, 1.483e-3
-1.166, 1.474e-3
-1.167, 1.471e-3
-1.168, 1.477e-3
-1.169, 1.483e-3
-1.170, 1.492e-3
-1.171, 1.502e-3
-1.172, 1.514e-3
-1.173, 1.523e-3
-1.174, 1.532e-3
-1.175, 1.536e-3
-1.176, 1.526e-3
-1.177, 1.536e-3
-1.178, 1.545e-3
-1.179, 1.554e-3
-1.180, 1.560e-3
-1.181, 1.566e-3
-1.182, 1.579e-3
-1.183, 1.588e-3
-1.184, 1.594e-3
-1.185, 1.594e-3
-1.186, 1.597e-3
-1.187, 1.603e-3
-1.188, 1.610e-3
-1.189, 1.616e-3
-1.190, 1.619e-3
-1.191, 1.622e-3
-1.192, 1.631e-3
-1.193, 1.637e-3
-1.194, 1.640e-3
-1.195, 1.640e-3
-1.196, 1.640e-3
-1.197, 1.643e-3
-1.198, 1.647e-3
-1.199, 1.653e-3
-1.200, 1.653e-3
-1.201, 1.659e-3
-1.202, 1.668e-3
-1.203, 1.677e-3
-1.204, 1.684e-3
-1.205, 1.690e-3
-1.206, 1.699e-3
-1.207, 1.705e-3
-1.208, 1.708e-3
-1.209, 1.711e-3
-1.210, 1.717e-3
-1.211, 1.727e-3
-1.212, 1.736e-3
-1.213, 1.742e-3
-1.214, 1.754e-3
-1.215, 1.767e-3
-1.216, 1.773e-3
-1.217, 1.779e-3
-1.218, 1.785e-3
-1.219, 1.795e-3
-1.220, 1.807e-3
-1.221, 1.816e-3
-1.222, 1.828e-3
-1.223, 1.841e-3
-1.224, 1.850e-3
-1.225, 1.865e-3
-1.226, 1.878e-3
-1.227, 1.887e-3
-1.228, 1.893e-3
-1.229, 1.899e-3
-1.230, 1.896e-3
-1.231, 1.875e-3
-1.232, 1.847e-3
-1.233, 1.819e-3
-1.234, 1.801e-3
-1.235, 1.798e-3
-1.236, 1.804e-3
-1.237, 1.822e-3
-1.238, 1.844e-3
-1.239, 1.865e-3
-1.240, 1.884e-3
-1.241, 1.909e-3
-1.242, 1.927e-3
-1.243, 1.921e-3
-1.244, 1.930e-3
-1.245, 1.943e-3
-1.246, 1.946e-3
-1.247, 1.955e-3
-1.248, 1.967e-3
-1.249, 1.983e-3
-1.250, 1.998e-3
-1.251, 2.007e-3
-1.252, 2.020e-3
-1.253, 2.032e-3
-1.254, 2.044e-3
-1.255, 2.054e-3
-1.256, 2.057e-3
-1.257, 2.063e-3
-1.258, 2.066e-3
-1.259, 2.072e-3
-1.260, 2.075e-3
-1.261, 2.081e-3
-1.262, 2.091e-3
-1.263, 2.100e-3
-1.264, 2.103e-3
-1.265, 2.112e-3
-1.266, 2.118e-3
-1.267, 2.124e-3
-1.268, 2.128e-3
-1.269, 2.128e-3
-1.270, 2.131e-3
-1.271, 2.131e-3
-1.272, 2.131e-3
-1.273, 2.134e-3
-1.274, 2.137e-3
-1.275, 2.140e-3
-1.276, 2.140e-3
-1.277, 2.143e-3
-1.278, 2.146e-3
-1.279, 2.149e-3
-1.280, 2.152e-3
-1.281, 2.152e-3
-1.282, 2.155e-3
-1.283, 2.158e-3
-1.284, 2.158e-3
-1.285, 2.158e-3
-1.286, 2.161e-3
-1.287, 2.164e-3
-1.288, 2.171e-3
-1.289, 2.174e-3
-1.290, 2.177e-3
-1.291, 2.180e-3
-1.292, 2.186e-3
-1.293, 2.192e-3
-1.294, 2.198e-3
-1.295, 2.198e-3
-1.296, 2.195e-3
-1.297, 2.198e-3
-1.298, 2.198e-3
-1.299, 2.192e-3
-1.300, 2.186e-3
-1.301, 2.183e-3
-1.302, 2.183e-3
-1.303, 2.177e-3
-1.304, 2.174e-3
-1.305, 2.177e-3
-1.306, 2.189e-3
-1.307, 2.186e-3
-1.308, 2.168e-3
-1.309, 2.131e-3
-1.310, 2.100e-3
-1.311, 2.084e-3
-1.312, 2.078e-3
-1.313, 2.087e-3
-1.314, 2.097e-3
-1.315, 2.109e-3
-1.316, 2.124e-3
-1.317, 2.143e-3
-1.318, 2.149e-3
-1.319, 2.152e-3
-1.320, 2.155e-3
-1.321, 2.143e-3
-1.322, 2.146e-3
-1.323, 2.155e-3
-1.324, 2.161e-3
-1.325, 2.168e-3
-1.326, 2.177e-3
-1.327, 2.186e-3
-1.328, 2.198e-3
-1.329, 2.211e-3
-1.330, 2.220e-3
-1.331, 2.232e-3
-1.332, 2.245e-3
-1.333, 2.251e-3
-1.334, 2.263e-3
-1.335, 2.275e-3
-1.336, 2.288e-3
-1.337, 2.300e-3
-1.338, 2.312e-3
-1.339, 2.328e-3
-1.340, 2.346e-3
-1.341, 2.365e-3
-1.342, 2.383e-3
-1.343, 2.405e-3
-1.344, 2.423e-3
-1.345, 2.436e-3
-1.346, 2.454e-3
-1.347, 2.479e-3
-1.348, 2.501e-3
-1.349, 2.516e-3
-1.350, 2.538e-3
-1.351, 2.565e-3
-1.352, 2.593e-3
-1.353, 2.618e-3
-1.354, 2.639e-3
-1.355, 2.670e-3
-1.356, 2.704e-3
-1.357, 2.735e-3
-1.358, 2.760e-3
-1.359, 2.793e-3
-1.360, 2.834e-3
-1.361, 2.874e-3
-1.362, 2.904e-3
-1.363, 2.938e-3
-1.364, 2.985e-3
-1.365, 3.031e-3
-1.366, 3.077e-3
-1.367, 3.123e-3
-1.368, 3.173e-3
-1.369, 3.228e-3
-1.370, 3.281e-3
-1.371, 3.327e-3
-1.372, 3.379e-3
-1.373, 3.429e-3
-1.374, 3.484e-3
-1.375, 3.536e-3
-1.376, 3.595e-3
-1.377, 3.660e-3
-1.378, 3.728e-3
-1.379, 3.786e-3
-1.380, 3.851e-3
-1.381, 3.928e-3
-1.382, 4.014e-3
-1.383, 4.098e-3
-1.384, 4.172e-3
-1.385, 4.218e-3
-1.386, 4.258e-3
-1.387, 4.243e-3
-1.388, 4.239e-3
-1.389, 4.196e-3
-1.390, 4.224e-3
-1.391, 4.304e-3
-1.392, 4.397e-3
-1.393, 4.511e-3
-1.394, 4.643e-3
-1.395, 4.782e-3
-1.396, 4.924e-3
-1.397, 5.050e-3
-1.398, 5.143e-3
-1.399, 5.208e-3
-1.400, 5.226e-3
-1.399, 5.124e-3
-1.398, 5.032e-3
-1.397, 4.964e-3
-1.396, 4.918e-3
-1.395, 4.893e-3
-1.394, 4.871e-3
-1.393, 4.841e-3
-1.392, 4.816e-3
-1.391, 4.797e-3
-1.390, 4.779e-3
-1.389, 4.757e-3
-1.388, 4.727e-3
-1.387, 4.690e-3
-1.386, 4.659e-3
-1.385, 4.628e-3
-1.384, 4.591e-3
-1.383, 4.560e-3
-1.382, 4.523e-3
-1.381, 4.492e-3
-1.380, 4.455e-3
-1.379, 4.424e-3
-1.378, 4.387e-3
-1.377, 4.344e-3
-1.376, 4.304e-3
-1.375, 4.267e-3
-1.374, 4.224e-3
-1.373, 4.172e-3
-1.372, 4.122e-3
-1.371, 4.082e-3
-1.370, 4.036e-3
-1.369, 3.984e-3
-1.368, 3.928e-3
-1.367, 3.879e-3
-1.366, 3.836e-3
-1.365, 3.786e-3
-1.364, 3.731e-3
-1.363, 3.678e-3
-1.362, 3.635e-3
-1.361, 3.583e-3
-1.360, 3.524e-3
-1.359, 3.459e-3
-1.358, 3.407e-3
-1.357, 3.364e-3
-1.356, 3.311e-3
-1.355, 3.250e-3
-1.354, 3.194e-3
-1.353, 3.154e-3
-1.352, 3.114e-3
-1.351, 3.062e-3
-1.350, 3.012e-3
-1.349, 2.969e-3
-1.348, 2.923e-3
-1.347, 2.874e-3
-1.346, 2.818e-3
-1.345, 2.772e-3
-1.344, 2.723e-3
-1.343, 2.670e-3
-1.342, 2.621e-3
-1.341, 2.575e-3
-1.340, 2.528e-3
-1.339, 2.479e-3
-1.338, 2.427e-3
-1.337, 2.380e-3
-1.336, 2.337e-3
-1.335, 2.288e-3
-1.334, 2.235e-3
-1.333, 2.174e-3
-1.332, 2.097e-3
-1.331, 2.013e-3
-1.330, 1.936e-3
-1.329, 1.862e-3
-1.328, 1.807e-3
-1.327, 1.767e-3
-1.326, 1.730e-3
-1.325, 1.708e-3
-1.324, 1.687e-3
-1.323, 1.662e-3
-1.322, 1.622e-3
-1.321, 1.573e-3
-1.320, 1.514e-3
-1.319, 1.468e-3
-1.318, 1.428e-3
-1.317, 1.391e-3
-1.316, 1.351e-3
-1.315, 1.314e-3
-1.314, 1.277e-3
-1.313, 1.240e-3
-1.312, 1.206e-3
-1.311, 1.169e-3
-1.310, 1.132e-3
-1.309, 1.092e-3
-1.308, 1.051e-3
-1.307, 1.014e-3
-1.306, 9.806e-4
-1.305, 9.436e-4
-1.304, 9.097e-4
-1.303, 8.758e-4
-1.302, 8.418e-4
-1.301, 8.079e-4
-1.300, 7.740e-4
-1.299, 7.432e-4
-1.298, 7.062e-4
-1.297, 6.754e-4
-1.296, 6.414e-4
-1.295, 6.106e-4
-1.294, 5.767e-4
-1.293, 5.489e-4
-1.292, 5.181e-4
-1.291, 4.904e-4
-1.290, 4.626e-4
-1.289, 4.318e-4
-1.288, 4.040e-4
-1.287, 3.763e-4
-1.286, 3.485e-4
-1.285, 3.239e-4
-1.284, 2.992e-4
-1.283, 2.746e-4
-1.282, 2.468e-4
-1.281, 2.221e-4
-1.280, 1.975e-4
-1.279, 1.728e-4
-1.278, 1.512e-4
-1.277, 1.296e-4
-1.276, 1.050e-4
-1.275, 8.340e-5
-1.274, 6.182e-5
-1.273, 4.024e-5
-1.272, 1.865e-5
-1.271, -2.927e-6
-1.270, -2.451e-5
-1.269, -4.301e-5
-1.268, -6.459e-5
-1.267, -8.309e-5
-1.266, -1.047e-4
-1.265, -1.232e-4
-1.264, -1.417e-4
-1.263, -1.571e-4
-1.262, -1.756e-4
-1.261, -1.910e-4
-1.260, -2.064e-4
-1.259, -2.187e-4
-1.258, -2.311e-4
-1.257, -2.434e-4
-1.256, -2.588e-4
-1.255, -2.742e-4
-1.254, -2.897e-4
-1.253, -3.082e-4
-1.252, -3.236e-4
-1.251, -3.390e-4
-1.250, -3.575e-4
-1.249, -3.760e-4
-1.248, -3.883e-4
-1.247, -4.006e-4
-1.246, -4.130e-4
-1.245, -4.253e-4
-1.244, -4.346e-4
-1.243, -4.438e-4
-1.242, -4.592e-4
-1.241, -4.716e-4
-1.240, -4.839e-4
-1.239, -4.962e-4
-1.238, -5.086e-4
-1.237, -5.209e-4
-1.236, -5.363e-4
-1.235, -5.486e-4
-1.234, -5.579e-4
-1.233, -5.702e-4
-1.232, -5.764e-4
-1.231, -5.856e-4
-1.230, -5.980e-4
-1.229, -6.103e-4
-1.228, -6.226e-4
-1.227, -6.319e-4
-1.226, -6.442e-4
-1.225, -6.535e-4
-1.224, -6.596e-4
-1.223, -6.720e-4
-1.222, -6.812e-4
-1.221, -6.905e-4
-1.220, -6.966e-4
-1.219, -7.059e-4
-1.218, -7.151e-4
-1.217, -7.244e-4
-1.216, -7.336e-4
-1.215, -7.429e-4
-1.214, -7.521e-4
-1.213, -7.614e-4
-1.212, -7.675e-4
-1.211, -7.706e-4
-1.210, -7.799e-4
-1.209, -7.891e-4
-1.208, -7.953e-4
-1.207, -8.045e-4
-1.206, -8.138e-4
-1.205, -8.230e-4
-1.204, -8.323e-4
-1.203, -8.415e-4
-1.202, -8.477e-4
-1.201, -8.569e-4
-1.200, -8.693e-4
-1.199, -8.754e-4
-1.198, -8.847e-4
-1.197, -8.939e-4
-1.196, -9.032e-4
-1.195, -9.155e-4
-1.194, -9.248e-4
-1.193, -9.340e-4
-1.192, -9.371e-4
-1.191, -9.464e-4
-1.190, -9.556e-4
-1.189, -9.618e-4
-1.188, -9.679e-4
-1.187, -9.772e-4
-1.186, -9.864e-4
-1.185, -9.957e-4
-1.184, -1.002e-3
-1.183, -1.011e-3
-1.182, -1.017e-3
-1.181, -1.020e-3
-1.180, -1.008e-3
-1.179, -9.957e-4
-1.178, -9.803e-4
-1.177, -9.741e-4
-1.176, -9.803e-4
-1.175, -9.895e-4
-1.174, -1.014e-3
-1.173, -1.030e-3
-1.172, -1.048e-3
-1.171, -1.067e-3
-1.170, -1.091e-3
-1.169, -1.113e-3
-1.168, -1.119e-3
-1.167, -1.125e-3
-1.166, -1.134e-3
-1.165, -1.128e-3
-1.164, -1.128e-3
-1.163, -1.138e-3
-1.162, -1.147e-3
-1.161, -1.159e-3
-1.160, -1.168e-3
-1.159, -1.178e-3
-1.158, -1.190e-3
-1.157, -1.199e-3
-1.156, -1.212e-3
-1.155, -1.218e-3
-1.154, -1.227e-3
-1.153, -1.236e-3
-1.152, -1.239e-3
-1.151, -1.249e-3
-1.150, -1.258e-3
-1.149, -1.270e-3
-1.148, -1.276e-3
-1.147, -1.286e-3
-1.146, -1.295e-3
-1.145, -1.304e-3
-1.144, -1.313e-3
-1.143, -1.319e-3
-1.142, -1.329e-3
-1.141, -1.338e-3
-1.140, -1.347e-3
-1.139, -1.350e-3
-1.138, -1.359e-3
-1.137, -1.366e-3
-1.136, -1.375e-3
-1.135, -1.381e-3
-1.134, -1.390e-3
-1.133, -1.400e-3
-1.132, -1.406e-3
-1.131, -1.412e-3
-1.130, -1.421e-3
-1.129, -1.430e-3
-1.128, -1.440e-3
-1.127, -1.449e-3
-1.126, -1.455e-3
-1.125, -1.461e-3
-1.124, -1.470e-3
-1.123, -1.483e-3
-1.122, -1.489e-3
-1.121, -1.495e-3
-1.120, -1.504e-3
-1.119, -1.517e-3
-1.118, -1.529e-3
-1.117, -1.541e-3
-1.116, -1.554e-3
-1.115, -1.566e-3
-1.114, -1.575e-3
-1.113, -1.585e-3
-1.112, -1.591e-3
-1.111, -1.600e-3
-1.110, -1.612e-3
-1.109, -1.615e-3
-1.108, -1.612e-3
-1.107, -1.600e-3
-1.106, -1.600e-3
-1.105, -1.600e-3
-1.104, -1.606e-3
-1.103, -1.618e-3
-1.102, -1.628e-3
-1.101, -1.637e-3
-1.100, -1.649e-3
-1.099, -1.662e-3
-1.098, -1.671e-3
-1.097, -1.677e-3
-1.096, -1.677e-3
-1.095, -1.689e-3
-1.094, -1.708e-3
-1.093, -1.726e-3
-1.092, -1.742e-3
-1.091, -1.754e-3
-1.090, -1.773e-3
-1.089, -1.785e-3
-1.088, -1.791e-3
-1.087, -1.797e-3
-1.086, -1.794e-3
-1.085, -1.794e-3
-1.084, -1.797e-3
-1.083, -1.807e-3
-1.082, -1.822e-3
-1.081, -1.844e-3
-1.080, -1.865e-3
-1.079, -1.884e-3
-1.078, -1.899e-3
-1.077, -1.905e-3
-1.076, -1.911e-3
-1.075, -1.908e-3
-1.074, -1.905e-3
-1.073, -1.902e-3
-1.072, -1.902e-3
-1.071, -1.905e-3
-1.070, -1.918e-3
-1.069, -1.936e-3
-1.068, -1.955e-3
-1.067, -1.967e-3
-1.066, -1.976e-3
-1.065, -1.988e-3
-1.064, -1.992e-3
-1.063, -1.992e-3
-1.062, -1.992e-3
-1.061, -1.998e-3
-1.060, -2.010e-3
-1.059, -2.019e-3
-1.058, -2.029e-3
-1.057, -2.047e-3
-1.056, -2.066e-3
-1.055, -2.084e-3
-1.054, -2.093e-3
-1.053, -2.099e-3
-1.052, -2.106e-3
-1.051, -2.109e-3
-1.050, -2.115e-3
-1.049, -2.130e-3
-1.048, -2.140e-3
-1.047, -2.155e-3
-1.046, -2.173e-3
-1.045, -2.186e-3
-1.044, -2.201e-3
-1.043, -2.207e-3
-1.042, -2.214e-3
-1.041, -2.220e-3
-1.040, -2.229e-3
-1.039, -2.241e-3
-1.038, -2.251e-3
-1.037, -2.251e-3
-1.036, -2.244e-3
-1.035, -2.217e-3
-1.034, -2.192e-3
-1.033, -2.152e-3
-1.032, -2.109e-3
-1.031, -2.103e-3
-1.030, -2.103e-3
-1.029, -2.121e-3
-1.028, -2.149e-3
-1.027, -2.180e-3
-1.026, -2.217e-3
-1.025, -2.254e-3
-1.024, -2.284e-3
-1.023, -2.303e-3
-1.022, -2.300e-3
-1.021, -2.309e-3
-1.020, -2.318e-3
-1.019, -2.321e-3
-1.018, -2.318e-3
-1.017, -2.318e-3
-1.016, -2.331e-3
-1.015, -2.346e-3
-1.014, -2.362e-3
-1.013, -2.371e-3
-1.012, -2.380e-3
-1.011, -2.392e-3
-1.010, -2.408e-3
-1.009, -2.417e-3
-1.008, -2.426e-3
-1.007, -2.436e-3
-1.006, -2.445e-3
-1.005, -2.454e-3
-1.004, -2.466e-3
-1.003, -2.476e-3
-1.002, -2.485e-3
-1.001, -2.497e-3
