Potential V vs RHE, Current mA cm-2
0.013299999999999867,0.4776065348344364
0.012299999999999978,-0.9181476336124089
0.011299999999999866,-2.052746096104168
0.010299999999999976,-3.0996324580042955
0.009299999999999864,-4.0588067193127895
0.008299999999999974,-4.9302688800296535
0.007299999999999862,-5.672992312458796
0.006299999999999972,-6.282732882700628
0.00529999999999986,-6.806176063650692
0.0042999999999999705,-7.329619244600755
0.0032999999999998586,-7.7653503249591855
0.0022999999999999687,-8.158640066321666
0.0012999999999998568,-8.594371146680096
0.00029999999999996696,-8.943804837746763
-0.000700000000000145,-9.379535918105192
-0.0017000000000000348,-9.772825659467674
-0.0027000000000001467,-10.120844639234473
-0.0037000000000000366,-10.382566229709504
-0.0047000000000001485,-10.644287820184536
-0.005700000000000038,-10.819712021367803
-0.00670000000000015,-10.993721511251199
-0.00770000000000004,-11.123874950838783
-0.008700000000000152,-11.343155202317865
-0.009700000000000042,-11.56102074249708
-0.010700000000000154,-11.86659838326793
-0.011700000000000044,-12.040607873151327
-0.012700000000000156,-12.214617363034726
-0.013700000000000045,-12.258473413330542
-0.014700000000000157,-12.302329463626359
-0.015700000000000047,-12.390041564217992
-0.01670000000000016,-12.520195003805576
-0.01770000000000005,-12.694204493688973
-0.01870000000000016,-12.869628694872238
-0.01970000000000005,-13.043638184755638
-0.020700000000000163,-13.175206335643086
-0.021700000000000053,-13.261503724934855
-0.022700000000000164,-13.3930718758223
-0.023700000000000054,-13.47936926511407
-0.024700000000000166,-13.523225315409885
-0.025700000000000056,-13.654793466297335
-0.026700000000000168,-13.828802956180734
-0.027700000000000058,-13.960371107068182
-0.02870000000000017,-14.046668496359947
-0.02970000000000006,-14.175407224647667
-0.03070000000000017,-14.30273124163552
-0.03170000000000006,-14.401761032626075
-0.03270000000000017,-14.486643710617974
-0.03370000000000006,-14.529085049613924
-0.034700000000000175,-14.57152638860988
-0.035700000000000065,-14.741291744593681
-0.03670000000000018,-14.826174422585586
-0.03770000000000007,-14.69885040559773
-0.03870000000000018,-14.486643710617974
-0.03970000000000007,-14.444202371622024
-0.04070000000000018,-14.444202371622024
-0.04170000000000007,-14.529085049613924
-0.04270000000000018,-14.61396772760583
-0.04370000000000007,-14.69885040559773
-0.044700000000000184,-14.826174422585586
-0.045700000000000074,-14.967645552572087
-0.046700000000000186,-14.925204213576137
-0.047700000000000076,-14.967645552572087
-0.04870000000000019,-15.05252823056399
-0.04970000000000008,-15.094969569559943
-0.05070000000000019,-15.179852247551842
-0.05170000000000008,-15.307176264539699
-0.05270000000000019,-15.448647394526201
-0.05370000000000008,-15.491088733522153
-0.05470000000000019,-15.575971411514052
-0.05570000000000008,-15.660854089505953
-0.056700000000000195,-15.70329542850191
-0.057700000000000085,-15.74573676749786
-0.058700000000000196,-15.74573676749786
-0.059700000000000086,-15.74573676749786
-0.0607000000000002,-15.78817810649381
-0.06170000000000009,-15.78817810649381
-0.0627000000000002,-15.830619445489761
-0.06370000000000009,-15.830619445489761
-0.0647000000000002,-15.87306078448571
-0.06570000000000009,-15.87306078448571
-0.0667000000000002,-15.91550212348166
-0.0677000000000001,-15.972090575476265
-0.0687000000000002,-15.972090575476265
-0.0697000000000001,-15.972090575476265
-0.07070000000000021,-16.014531914472215
-0.0717000000000001,-15.972090575476265
-0.07270000000000021,-16.014531914472215
-0.0737000000000001,-15.972090575476265
-0.07470000000000021,-16.014531914472215
-0.0757000000000001,-16.056973253468165
-0.07670000000000021,-16.099414592464115
-0.0777000000000001,-16.099414592464115
-0.07870000000000021,-16.099414592464115
-0.0797000000000001,-16.141855931460068
-0.08070000000000022,-16.184297270456018
-0.0817000000000001,-16.269179948447924
-0.08270000000000022,-16.269179948447924
-0.08370000000000011,-16.354062626439823
-0.08470000000000022,-16.438945304431726
-0.08570000000000011,-16.495533756426326
-0.08670000000000022,-16.580416434418233
-0.08770000000000011,-16.580416434418233
-0.08870000000000022,-16.53797509542228
-0.08970000000000011,-16.354062626439823
-0.09070000000000022,-16.014531914472215
-0.09170000000000011,-15.660854089505953
-0.09270000000000023,-15.349617603535648
-0.09370000000000012,-15.094969569559943
-0.09470000000000023,-15.264734925543747
-0.09570000000000012,-15.491088733522153
-0.09670000000000023,-15.74573676749786
-0.09770000000000012,-15.91550212348166
-0.09870000000000023,-16.099414592464115
-0.09970000000000012,-16.141855931460068
-0.10070000000000023,-16.099414592464115
-0.10170000000000012,-16.014531914472215
-0.10270000000000024,-16.099414592464115
-0.10370000000000013,-16.184297270456018
-0.10470000000000024,-16.269179948447924
-0.10570000000000013,-16.396503965435777
-0.10670000000000024,-16.438945304431726
-0.10770000000000013,-16.495533756426326
-0.10870000000000024,-16.438945304431726
-0.10970000000000013,-16.438945304431726
-0.11070000000000024,-16.495533756426326
-0.11170000000000013,-16.495533756426326
-0.11270000000000002,-16.495533756426326
-0.11370000000000013,-16.53797509542228
-0.11470000000000002,-16.53797509542228
-0.11570000000000014,-16.53797509542228
-0.11670000000000003,-16.53797509542228
-0.11770000000000014,-16.580416434418233
-0.11870000000000003,-16.53797509542228
-0.11970000000000014,-16.53797509542228
-0.12070000000000003,-16.580416434418233
-0.12170000000000014,-16.53797509542228
-0.12270000000000003,-16.495533756426326
-0.12370000000000014,-16.495533756426326
-0.12470000000000003,-16.495533756426326
-0.12570000000000014,-16.495533756426326
-0.12670000000000003,-16.53797509542228
-0.12770000000000015,-16.580416434418233
-0.12870000000000004,-16.580416434418233
-0.12970000000000015,-16.622857773414182
-0.13070000000000004,-16.665299112410132
-0.13170000000000015,-16.665299112410132
-0.13270000000000004,-16.665299112410132
-0.13370000000000015,-16.750181790402035
-0.13470000000000004,-16.835064468393938
-0.13570000000000015,-16.877505807389888
-0.13670000000000004,-16.962388485381787
-0.13770000000000016,-17.061418276372343
-0.13870000000000005,-17.018976937376394
-0.13970000000000016,-17.018976937376394
-0.14070000000000005,-17.018976937376394
-0.14170000000000016,-17.018976937376394
-0.14270000000000005,-17.018976937376394
-0.14370000000000016,-17.061418276372343
-0.14470000000000005,-17.103859615368293
-0.14570000000000016,-17.146300954364243
-0.14670000000000005,-16.962388485381787
-0.14770000000000016,-16.70774045140608
-0.14870000000000005,-16.53797509542228
-0.14970000000000017,-16.495533756426326
-0.15070000000000006,-16.622857773414182
-0.15170000000000017,-16.792623129397985
-0.15270000000000006,-16.962388485381787
-0.15370000000000017,-17.103859615368293
-0.15470000000000006,-17.146300954364243
-0.15570000000000017,-17.2736249713521
-0.15670000000000006,-17.146300954364243
-0.15770000000000017,-17.188742293360193
-0.15870000000000006,-17.316066310348052
-0.15970000000000018,-17.40094898833995
-0.16070000000000007,-17.542420118326454
-0.16170000000000018,-17.627302796318357
-0.16270000000000007,-17.71218547431026
-0.16370000000000018,-17.75462681330621
-0.16470000000000007,-17.797068152302163
-0.16570000000000018,-17.881950830294063
-0.16670000000000007,-18.009274847281915
-0.16770000000000018,-18.06586329927652
-0.16870000000000007,-18.15074597726842
-0.16970000000000018,-18.19318731626437
-0.17070000000000007,-18.23562865526032
-0.17170000000000019,-18.320511333252224
-0.17270000000000008,-18.362952672248177
-0.1737000000000002,-18.362952672248177
-0.17470000000000008,-18.44783535024008
-0.1757000000000002,-18.49027668923603
-0.17670000000000008,-18.589306480226583
-0.1777000000000002,-18.631747819222536
-0.17870000000000008,-18.674189158218486
-0.1797000000000002,-18.674189158218486
-0.18070000000000008,-18.759071836210385
-0.1817000000000002,-18.843954514202288
-0.18270000000000008,-18.843954514202288
-0.1837000000000002,-18.92883719219419
-0.1847000000000001,-19.01371987018609
-0.1857000000000002,-19.112749661176647
-0.1867000000000001,-19.197632339168546
-0.1877000000000002,-19.28251501716045
-0.1887000000000001,-19.367397695152352
-0.1897000000000002,-19.409839034148305
-0.1907000000000001,-19.537163051136158
-0.1917000000000001,-19.636192842126707
-0.19269999999999998,-19.805958198110513
-0.1937000000000001,-19.890840876102416
-0.19469999999999998,-19.93328221509837
-0.1957000000000001,-20.06060623208622
-0.19669999999999999,-20.159636023076775
-0.1977000000000001,-20.159636023076775
-0.1987,-20.159636023076775
-0.1997000000000001,-20.286960040064624
-0.2007,-20.456725396048434
-0.2017000000000001,-20.584049413036283
-0.2027,-20.499166735044383
-0.2037000000000001,-20.202077362072725
-0.2047,-19.805958198110513
-0.2057000000000001,-19.409839034148305
-0.2067,-19.452280373144255
-0.2077000000000001,-19.678634181122664
-0.2087,-19.93328221509837
-0.2097000000000001,-20.371842718056527
-0.2107,-20.76796188201874
-0.2117000000000001,-21.107492593986347
-0.2127,-21.2065223849769
-0.2137000000000001,-21.107492593986347
-0.2147,-21.2065223849769
-0.2157000000000001,-21.248963723972853
-0.2167,-21.2065223849769
-0.21770000000000012,-21.333846401964752
-0.2187,-21.461170418952605
-0.21970000000000012,-21.58849443594046
-0.2207,-21.729965565926964
-0.22170000000000012,-21.94217226090672
-0.2227,-22.069496277894572
-0.22370000000000012,-22.111937616890522
-0.2247,-22.253408746877028
-0.22570000000000012,-22.33829142486893
-0.2267,-22.46561544185678
-0.22770000000000012,-22.550498119848687
-0.22870000000000001,-22.67782213683654
-0.22970000000000013,-22.72026347583249
-0.23070000000000002,-22.819293266823045
-0.23170000000000013,-22.904175944814945
-0.23270000000000002,-22.989058622806844
-0.23370000000000013,-23.073941300798747
-0.23470000000000002,-23.1163826397947
-0.23570000000000013,-23.2012653177866
-0.23670000000000002,-23.300295108777156
-0.2376999999999999,-23.24370665678255
-0.23870000000000002,-23.300295108777156
-0.2396999999999999,-23.385177786769056
-0.24070000000000003,-23.385177786769056
-0.24169999999999991,-23.47006046476096
-0.24270000000000003,-23.597384481748815
-0.24369999999999992,-23.639825820744765
-0.24470000000000003,-23.597384481748815
-0.24569999999999992,-23.682267159740714
-0.24670000000000003,-23.767149837732617
-0.24769999999999992,-23.724708498736668
-0.24870000000000003,-23.724708498736668
-0.24969999999999992,-23.908620967719123
-0.25070000000000003,-24.035944984706973
-0.2516999999999999,-24.16326900169483
-0.25270000000000004,-24.20571034069078
-0.2536999999999999,-24.20571034069078
-0.25470000000000004,-24.24815167968673
-0.2556999999999999,-24.34718147067728
-0.25670000000000004,-24.432064148669184
-0.25769999999999993,-24.474505487665134
-0.25870000000000004,-24.516946826661083
-0.25969999999999993,-24.516946826661083
-0.26070000000000004,-24.559388165657033
-0.26169999999999993,-24.686712182644893
-0.26270000000000004,-24.686712182644893
-0.26369999999999993,-24.559388165657033
-0.26470000000000005,-24.24815167968673
-0.26569999999999994,-23.767149837732617
-0.26670000000000005,-23.385177786769056
-0.26769999999999994,-23.073941300798747
-0.26870000000000005,-23.1163826397947
-0.26969999999999994,-23.24370665678255
-0.27070000000000005,-23.51250180375691
-0.27169999999999994,-23.767149837732617
-0.27270000000000005,-24.035944984706973
-0.27369999999999994,-24.16326900169483
-0.27470000000000006,-24.120827662698876
-0.27569999999999995,-24.24815167968673
-0.27670000000000006,-24.290593018682678
-0.27769999999999995,-24.078386323702922
-0.27870000000000006,-23.908620967719123
-0.27969999999999995,-23.951062306715073
-0.28070000000000006,-24.035944984706973
-0.28169999999999995,-24.078386323702922
-0.28270000000000006,-24.20571034069078
-0.28369999999999995,-24.432064148669184
-0.28470000000000006,-24.516946826661083
-0.28569999999999995,-24.601829504652986
-0.28670000000000007,-24.64427084364894
-0.28769999999999996,-24.601829504652986
-0.28870000000000007,-24.601829504652986
-0.28969999999999996,-24.601829504652986
-0.29070000000000007,-24.686712182644893
-0.29169999999999996,-24.814036199632742
-0.29270000000000007,-24.814036199632742
-0.29369999999999996,-24.9130659906233
-0.2947000000000001,-24.997948668615198
-0.29569999999999996,-24.997948668615198
-0.2967000000000001,-24.997948668615198
-0.29769999999999996,-24.997948668615198
-0.2987000000000001,-25.04039000761115
-0.29969999999999997,-25.04039000761115
-0.3007000000000001,-25.167714024599
-0.30169999999999997,-25.252596702590903
-0.3027000000000001,-25.295038041586857
-0.30369999999999997,-25.43650917157336
-0.3047000000000001,-25.521391849565262
-0.30569999999999997,-25.521391849565262
-0.3067000000000001,-25.648715866553115
-0.3077,-25.77603988354097
-0.3087000000000001,-25.86092256153287
-0.3097,-25.91751101352747
-0.3107000000000001,-26.21460038649913
-0.3117,-26.525836872469437
-0.3127000000000001,-26.738043567449193
-0.3137,-26.907808923433
-0.3147000000000001,-27.091721392415455
-0.3157,-27.303928087395207
-0.3167000000000001,-27.572723234369565
-0.3177,-27.827371268345274
-0.3187000000000001,-28.05372507632368
-0.3197,-28.308373110299385
-0.3207000000000001,-28.619609596269694
-0.3217,-28.789374952253496
-0.3227000000000001,-28.831816291249446
-0.3237,-28.577168257273744
-0.3247000000000001,-28.13860775431558
-0.3257,-27.827371268345274
-0.3267000000000001,-28.265931771303435
-0.3277,-28.704492274261593
-0.3287000000000001,-29.35525947219951
-0.3297,-30.10505646112798
-0.3307000000000001,-30.670940981073993
-0.3317,-31.27926684001596
-0.3327000000000001,-31.972475376949827
-0.3337,-32.41103587990799
-0.3347000000000001,-32.84959638286615
-0.3357,-33.18912709483376
-0.3367000000000001,-33.45792224180811
-0.3377,-33.98136542275818
-0.3387000000000001,-34.5472499427042
-0.3397,-35.15557580164616
-0.3407000000000001,-35.90537279057463
-0.3417,-36.5985813275085
-0.3427000000000001,-37.164465847454515
-0.3437,-37.687909028404576
-0.3447000000000001,-38.211352209354644
-0.3457,-38.777236729300654
-0.3467000000000001,-39.56947505722508
-0.3477,-40.4748902891387
-0.3487000000000001,-41.267128617063115
-0.3497,-41.96033715399699
-0.3507000000000001,-42.752575481921404
-0.3517,-43.31846000186743
-0.3527000000000001,-43.92678586080939
-0.3537,-44.66243573673921
-0.3547000000000001,-45.36979138667173
-0.3557,-46.3176479575813
-0.35670000000000013,-47.46356411047198
-0.3577,-48.45386202037751
-0.35870000000000013,-49.373424365289786
-0.3597,-50.37786938819396
-0.36070000000000013,-51.29743173310623
-0.3617,-52.17455273902255
-0.3626999999999999,-53.12240930993213
-0.3637,-54.16929567183226
-0.3646999999999999,-55.17374069473642
-0.3657,-56.44698086461496
-0.3666999999999999,-57.87583927747865
-0.3677,-59.23396212534908
-0.3686999999999999,-60.67696765121143
-0.36970000000000003,-62.24729719406162
-0.3706999999999999,-63.81762673691181
-0.37170000000000003,-65.60016297474175
-0.3726999999999999,-67.34025787357575
-0.37370000000000003,-69.0944998854084
-0.3746999999999999,-70.96191880123024
-0.37570000000000003,-72.80104349105478
-0.3766999999999999,-74.41381437290093
-0.37770000000000004,-76.29538040172143
-0.3786999999999999,-78.33256467352709
-0.37970000000000004,-80.21413070234757
-0.3806999999999999,-80.9497805782774
-0.38170000000000004,-80.69513254430169
-0.38269999999999993,-80.65269120530574
-0.38370000000000004,-80.08680668535972
-0.38469999999999993,-81.91178426218562
-0.38570000000000004,-84.13288100297372
-0.38669999999999993,-85.57588652883607
-0.38570000000000004,-86.09932970978613
-0.38469999999999993,-86.22665372677399
-0.38370000000000004,-85.61832786783202
-0.38269999999999993,-84.52900016693594
-0.38170000000000004,-83.92067430799398
-0.3806999999999999,-83.75090895201016
-0.37970000000000004,-83.56699648302772
-0.3786999999999999,-83.22746577106011
-0.37770000000000004,-82.9162292850898
-0.3766999999999999,-82.8313466070979
-0.37570000000000003,-82.56255146012353
-0.3746999999999999,-81.99666694017753
-0.37370000000000003,-81.3458997422396
-0.3726999999999999,-80.46877873632329
-0.37170000000000003,-79.47848082641775
-0.3706999999999999,-78.43159446451764
-0.36970000000000003,-77.51203211960537
-0.3686999999999999,-76.67735245268499
-0.3677,-75.8992612377592
-0.3666999999999999,-75.19190558782671
-0.3657,-74.54113838988879
-0.3646999999999999,-73.62157604497652
-0.3637,-72.71616081306288
-0.3626999999999999,-71.83903980714656
-0.3617,-70.8345947842424
-0.36070000000000013,-69.91503243933012
-0.3597,-69.26426524139221
-0.35870000000000013,-68.48617402646643
-0.3577,-67.65149435954605
-0.35670000000000013,-66.9582858226122
-0.3557,-66.03872347769992
-0.3547000000000001,-64.94939577680383
-0.3537,-63.860068075907755
-0.3527000000000001,-62.89806439199953
-0.3517,-61.80873669110345
-0.3507000000000001,-60.71940899020737
-0.3497,-59.842287984291055
-0.3487000000000001,-59.06419676936528
-0.3477,-58.10219308545706
-0.3467000000000001,-57.352396096528594
-0.3457,-56.53186354260687
-0.3447000000000001,-55.65474253669055
-0.3437,-54.876651321764776
-0.3427000000000001,-54.1268543328363
-0.3417,-53.30632177891458
-0.3407000000000001,-52.471642111994214
-0.3397,-51.55207976708194
-0.3387000000000001,-50.60422319617236
-0.3377,-49.72710219025603
-0.3367000000000001,-49.03389365332217
-0.3357,-48.24165532539775
-0.3347000000000001,-47.506005449467935
-0.3337,-46.88353247752732
-0.3327000000000001,-46.10544126260155
-0.3317,-45.18587891768927
-0.3307000000000001,-44.3229050247716
-0.3297,-43.44578401885527
-0.3287000000000001,-42.6111043519349
-0.3277,-41.87545447600508
-0.3267000000000001,-41.267128617063115
-0.3257,-40.51733162813464
-0.3247000000000001,-39.78168175220483
-0.3237,-39.046031876275016
-0.3227000000000001,-38.29623488734655
-0.3217,-37.41911388143023
-0.3207000000000001,-36.64102266650445
-0.3197,-35.90537279057463
-0.3187000000000001,-35.11313446265021
-0.3177,-34.462367264712285
-0.3167000000000001,-33.712570275783825
-0.3157,-32.93447906085806
-0.3147000000000001,-32.14224073293363
-0.3137,-31.36414951800786
-0.3127000000000001,-30.614352529079397
-0.3117,-29.836261314153624
-0.3107000000000001,-29.001581647233255
-0.3097,-28.308373110299385
-0.3087000000000001,-27.615164573365515
-0.3077,-26.9643973754276
-0.3067000000000001,-26.34192440348698
-0.30569999999999997,-25.648715866553115
-0.3047000000000001,-25.04039000761115
-0.30369999999999997,-24.432064148669184
-0.3027000000000001,-23.86617962872317
-0.30169999999999997,-23.342736447773106
-0.3007000000000001,-22.819293266823045
-0.29969999999999997,-22.196820294882425
-0.2987000000000001,-21.63093577493641
-0.29769999999999996,-21.065051254990397
-0.2967000000000001,-20.584049413036283
-0.29569999999999996,-19.890840876102416
-0.2947000000000001,-18.92883719219419
-0.29369999999999996,-17.881950830294063
-0.29270000000000007,-16.962388485381787
-0.29169999999999996,-16.141855931460068
-0.29070000000000007,-15.618412750510005
-0.28969999999999996,-15.179852247551842
-0.28870000000000007,-14.826174422585586
-0.28769999999999996,-14.486643710617974
-0.28670000000000007,-14.13438059695158
-0.28569999999999995,-13.741090855589102
-0.28470000000000006,-13.3930718758223
-0.28369999999999995,-13.043638184755638
-0.28270000000000006,-12.56405105410139
-0.28169999999999995,-12.040607873151327
-0.28070000000000006,-11.517164692201263
-0.27969999999999995,-10.949865460955383
-0.27870000000000006,-10.514134380596953
-0.27769999999999995,-10.120844639234473
-0.27670000000000006,-9.728969609171857
-0.27569999999999995,-9.335679867809377
-0.27470000000000006,-8.899948787450944
-0.27369999999999994,-8.508073757388331
-0.27270000000000005,-8.070927965730034
-0.27169999999999994,-7.679052935667419
-0.27070000000000005,-7.243321855308987
-0.26969999999999994,-6.850032113946507
-0.26870000000000005,-6.500598422879844
