Potential V vs RHE, Current mA cm-2
0.013299999999999867,0.4776065348344364
0.012299999999999978,-1.0054353208140816
0.011299999999999866,-2.3569090255751513
0.010299999999999976,-3.5353635383627267
0.009299999999999864,-4.582249900262854
0.008299999999999974,-5.5414241615713475
0.007299999999999862,-6.414301033588076
0.006299999999999972,-7.199465805013171
0.00529999999999986,-7.940774526142452
0.0042999999999999705,-8.594371146680096
0.0032999999999998586,-9.24938247851761
0.0022999999999999687,-9.728969609171857
0.0012999999999998568,-10.25241279012192
0.00029999999999996696,-10.644287820184536
-0.000700000000000145,-11.081433611842833
-0.0017000000000000348,-11.517164692201263
-0.0027000000000001467,-11.952895772559694
-0.0037000000000000366,-12.302329463626359
-0.0047000000000001485,-12.56405105410139
-0.005700000000000038,-12.73806054398479
-0.00670000000000015,-12.913484745168056
-0.00770000000000004,-13.175206335643086
-0.008700000000000152,-13.3930718758223
-0.009700000000000042,-13.610937416001518
-0.010700000000000154,-13.872659006476551
-0.011700000000000044,-14.090524546655764
-0.012700000000000156,-14.26028990263957
-0.013700000000000045,-14.529085049613924
-0.014700000000000157,-14.783733083589633
-0.015700000000000047,-14.925204213576137
-0.01670000000000016,-15.094969569559943
-0.01770000000000005,-15.264734925543747
-0.01870000000000016,-15.491088733522153
-0.01970000000000005,-15.74573676749786
-0.020700000000000163,-16.056973253468165
-0.021700000000000053,-16.22673860945197
-0.022700000000000164,-16.396503965435777
-0.023700000000000054,-16.580416434418233
-0.024700000000000166,-16.665299112410132
-0.025700000000000056,-16.792623129397985
-0.026700000000000168,-16.877505807389888
-0.027700000000000058,-16.919947146385837
-0.02870000000000017,-17.061418276372343
-0.02970000000000006,-17.231183632356142
-0.03070000000000017,-17.358507649344002
-0.03170000000000006,-17.48583166633185
-0.03270000000000017,-17.627302796318357
-0.03370000000000006,-17.797068152302163
-0.034700000000000175,-17.924392169290012
-0.035700000000000065,-18.06586329927652
-0.03670000000000018,-18.10830463827247
-0.03770000000000007,-18.19318731626437
-0.03870000000000018,-18.23562865526032
-0.03970000000000007,-18.27806999425627
-0.04070000000000018,-18.362952672248177
-0.04170000000000007,-18.44783535024008
-0.04270000000000018,-18.589306480226583
-0.04370000000000007,-18.631747819222536
-0.044700000000000184,-18.716630497214435
-0.045700000000000074,-18.843954514202288
-0.046700000000000186,-18.88639585319824
-0.047700000000000076,-18.92883719219419
-0.04870000000000019,-19.01371987018609
-0.04970000000000008,-19.056161209182044
-0.05070000000000019,-19.112749661176647
-0.05170000000000008,-19.155191000172596
-0.05270000000000019,-19.2400736781645
-0.05370000000000008,-19.3249563561564
-0.05470000000000019,-19.367397695152352
-0.05570000000000008,-19.409839034148305
-0.056700000000000195,-19.49472171214021
-0.057700000000000085,-19.579604390132108
-0.058700000000000196,-19.636192842126707
-0.059700000000000086,-19.636192842126707
-0.0607000000000002,-19.721075520118614
-0.06170000000000009,-19.805958198110513
-0.0627000000000002,-19.890840876102416
-0.06370000000000009,-19.93328221509837
-0.0647000000000002,-20.01816489309027
-0.06570000000000009,-20.06060623208622
-0.0667000000000002,-20.159636023076775
-0.0677000000000001,-20.159636023076775
-0.0687000000000002,-20.202077362072725
-0.0697000000000001,-20.244518701068674
-0.07070000000000021,-20.202077362072725
-0.0717000000000001,-20.244518701068674
-0.07270000000000021,-20.244518701068674
-0.0737000000000001,-20.329401379060574
-0.07470000000000021,-20.456725396048434
-0.0757000000000001,-20.499166735044383
-0.07670000000000021,-20.414284057052477
-0.0777000000000001,-20.244518701068674
-0.07870000000000021,-19.93328221509837
-0.0797000000000001,-19.579604390132108
-0.08070000000000022,-19.155191000172596
-0.0817000000000001,-18.88639585319824
-0.08270000000000022,-18.92883719219419
-0.08370000000000011,-18.88639585319824
-0.08470000000000022,-19.01371987018609
-0.08570000000000011,-19.28251501716045
-0.08670000000000022,-19.579604390132108
-0.08770000000000011,-19.848399537106463
-0.08870000000000022,-20.10304757108217
-0.08970000000000011,-20.329401379060574
-0.09070000000000022,-20.286960040064624
-0.09170000000000011,-20.244518701068674
-0.09270000000000023,-20.286960040064624
-0.09370000000000012,-20.244518701068674
-0.09470000000000023,-20.159636023076775
-0.09570000000000012,-20.10304757108217
-0.09670000000000023,-20.202077362072725
-0.09770000000000012,-20.244518701068674
-0.09870000000000023,-20.329401379060574
-0.09970000000000012,-20.329401379060574
-0.10070000000000023,-20.371842718056527
-0.10170000000000012,-20.456725396048434
-0.10270000000000024,-20.541608074040333
-0.10370000000000013,-20.584049413036283
-0.10470000000000024,-20.584049413036283
-0.10570000000000013,-20.584049413036283
-0.10670000000000024,-20.584049413036283
-0.10770000000000013,-20.626490752032236
-0.10870000000000024,-20.626490752032236
-0.10970000000000013,-20.683079204026836
-0.11070000000000024,-20.683079204026836
-0.11170000000000013,-20.72552054302279
-0.11270000000000002,-20.72552054302279
-0.11370000000000013,-20.76796188201874
-0.11470000000000002,-20.76796188201874
-0.11570000000000014,-20.76796188201874
-0.11670000000000003,-20.76796188201874
-0.11770000000000014,-20.810403221014692
-0.11870000000000003,-20.76796188201874
-0.11970000000000014,-20.76796188201874
-0.12070000000000003,-20.76796188201874
-0.12170000000000014,-20.810403221014692
-0.12270000000000003,-20.810403221014692
-0.12370000000000014,-20.76796188201874
-0.12470000000000003,-20.76796188201874
-0.12570000000000014,-20.76796188201874
-0.12670000000000003,-20.76796188201874
-0.12770000000000015,-20.76796188201874
-0.12870000000000004,-20.76796188201874
-0.12970000000000015,-20.85284456001064
-0.13070000000000004,-20.89528589900659
-0.13170000000000015,-20.85284456001064
-0.13270000000000004,-20.76796188201874
-0.13370000000000015,-20.85284456001064
-0.13470000000000004,-20.89528589900659
-0.13570000000000015,-20.93772723800254
-0.13670000000000004,-20.89528589900659
-0.13770000000000016,-20.89528589900659
-0.13870000000000005,-20.93772723800254
-0.13970000000000016,-21.065051254990397
-0.14070000000000005,-21.149933932982297
-0.14170000000000016,-21.2065223849769
-0.14270000000000005,-21.291405062968803
-0.14370000000000016,-21.333846401964752
-0.14470000000000005,-21.418729079956652
-0.14570000000000016,-21.503611757948562
-0.14670000000000005,-21.63093577493641
-0.14770000000000016,-21.67337711393236
-0.14870000000000005,-21.63093577493641
-0.14970000000000017,-21.461170418952605
-0.15070000000000006,-21.2065223849769
-0.15170000000000017,-20.980168576998494
-0.15270000000000006,-20.85284456001064
-0.15370000000000017,-20.810403221014692
-0.15470000000000006,-20.89528589900659
-0.15570000000000017,-20.980168576998494
-0.15670000000000006,-21.107492593986347
-0.15770000000000017,-21.248963723972853
-0.15870000000000006,-21.418729079956652
-0.15970000000000018,-21.54605309694451
-0.16070000000000007,-21.67337711393236
-0.16170000000000018,-21.729965565926964
-0.16270000000000007,-21.58849443594046
-0.16370000000000018,-21.729965565926964
-0.16470000000000007,-21.857289582914817
-0.16570000000000018,-21.98461359990267
-0.16670000000000007,-22.069496277894572
-0.16770000000000018,-22.15437895588647
-0.16870000000000007,-22.33829142486893
-0.16970000000000018,-22.46561544185678
-0.17070000000000007,-22.550498119848687
-0.17170000000000019,-22.550498119848687
-0.17270000000000008,-22.592939458844636
-0.1737000000000002,-22.67782213683654
-0.17470000000000008,-22.776851927827092
-0.1757000000000002,-22.861734605818995
-0.17670000000000008,-22.904175944814945
-0.1777000000000002,-22.946617283810895
-0.17870000000000008,-23.073941300798747
-0.1797000000000002,-23.15882397879065
-0.18070000000000008,-23.2012653177866
-0.1817000000000002,-23.2012653177866
-0.18270000000000008,-23.2012653177866
-0.1837000000000002,-23.24370665678255
-0.1847000000000001,-23.300295108777156
-0.1857000000000002,-23.385177786769056
-0.1867000000000001,-23.385177786769056
-0.1877000000000002,-23.47006046476096
-0.1887000000000001,-23.597384481748815
-0.1897000000000002,-23.724708498736668
-0.1907000000000001,-23.823738289727217
-0.1917000000000001,-23.908620967719123
-0.19269999999999998,-24.035944984706973
-0.1937000000000001,-24.120827662698876
-0.19469999999999998,-24.16326900169483
-0.1957000000000001,-24.20571034069078
-0.19669999999999999,-24.290593018682678
-0.1977000000000001,-24.432064148669184
-0.1987,-24.559388165657033
-0.1997000000000001,-24.64427084364894
-0.2007,-24.814036199632742
-0.2017000000000001,-24.997948668615198
-0.2027,-25.0828313466071
-0.2037000000000001,-25.167714024599
-0.2047,-25.252596702590903
-0.2057000000000001,-25.39406783257741
-0.2067,-25.563833188561212
-0.2077000000000001,-25.691157205549064
-0.2087,-25.86092256153287
-0.2097000000000001,-26.044835030515326
-0.2107,-26.17215904750318
-0.2117000000000001,-26.38436574248293
-0.2127,-26.568278211465387
-0.2137000000000001,-26.69560222845324
-0.2147,-26.780484906445146
-0.2157000000000001,-26.86536758443705
-0.2167,-26.822926245441096
-0.21770000000000012,-26.525836872469437
-0.2187,-26.129717708507226
-0.21970000000000012,-25.73359854454502
-0.2207,-25.478950510569312
-0.22170000000000012,-25.43650917157336
-0.2227,-25.521391849565262
-0.22370000000000012,-25.77603988354097
-0.2247,-26.087276369511276
-0.22570000000000012,-26.38436574248293
-0.2267,-26.65316088945729
-0.22770000000000012,-27.00683871442355
-0.22870000000000001,-27.261486748399253
-0.22970000000000013,-27.176604070407354
-0.23070000000000002,-27.303928087395207
-0.23170000000000013,-27.487840556377662
-0.23270000000000002,-27.530281895373616
-0.23370000000000013,-27.65760591236147
-0.23470000000000002,-27.827371268345274
-0.23570000000000013,-28.05372507632368
-0.23670000000000002,-28.265931771303435
-0.2376999999999999,-28.393255788291288
-0.23870000000000002,-28.577168257273744
-0.2396999999999999,-28.746933613257543
-0.24070000000000003,-28.91669896924135
-0.24169999999999991,-29.058170099227848
-0.24270000000000003,-29.100611438223805
-0.24369999999999992,-29.18549411621571
-0.24470000000000003,-29.22793545521166
-0.24569999999999992,-29.31281813320356
-0.24670000000000003,-29.35525947219951
-0.24769999999999992,-29.440142150191413
-0.24870000000000003,-29.581613280177915
-0.24969999999999992,-29.708937297165768
-0.25070000000000003,-29.751378636161718
-0.2516999999999999,-29.878702653149578
-0.25270000000000004,-29.96358533114148
-0.2536999999999999,-30.04846800913338
-0.25470000000000004,-30.10505646112798
-0.2556999999999999,-30.10505646112798
-0.25670000000000004,-30.147497800123933
-0.25769999999999993,-30.147497800123933
-0.25870000000000004,-30.147497800123933
-0.25969999999999993,-30.189939139119886
-0.26070000000000004,-30.232380478115836
-0.26169999999999993,-30.274821817111786
-0.26270000000000004,-30.274821817111786
-0.26369999999999993,-30.317263156107735
-0.26470000000000005,-30.359704495103685
-0.26569999999999994,-30.402145834099635
-0.26670000000000005,-30.444587173095588
-0.26769999999999994,-30.444587173095588
-0.26870000000000005,-30.487028512091538
-0.26969999999999994,-30.529469851087494
-0.27070000000000005,-30.529469851087494
-0.27169999999999994,-30.529469851087494
-0.27270000000000005,-30.571911190083444
-0.27369999999999994,-30.614352529079397
-0.27470000000000006,-30.71338232006995
-0.27569999999999995,-30.7558236590659
-0.27670000000000006,-30.79826499806185
-0.27769999999999995,-30.8407063370578
-0.27870000000000006,-30.925589015049702
-0.27969999999999995,-31.010471693041605
-0.28070000000000006,-31.095354371033505
-0.28169999999999995,-31.095354371033505
-0.28270000000000006,-31.052913032037555
-0.28369999999999995,-31.095354371033505
-0.28470000000000006,-31.095354371033505
-0.28569999999999995,-31.010471693041605
-0.28670000000000007,-30.925589015049702
-0.28769999999999996,-30.88314767605375
-0.28870000000000007,-30.88314767605375
-0.28969999999999996,-30.79826499806185
-0.29070000000000007,-30.7558236590659
-0.29169999999999996,-30.79826499806185
-0.29270000000000007,-30.968030354045652
-0.29369999999999996,-30.925589015049702
-0.2947000000000001,-30.670940981073993
-0.29569999999999996,-30.147497800123933
-0.2967000000000001,-29.708937297165768
-0.29769999999999996,-29.482583489187363
-0.2987000000000001,-29.39770081119546
-0.29969999999999997,-29.525024828183312
-0.3007000000000001,-29.66649595816982
-0.30169999999999997,-29.836261314153624
-0.3027000000000001,-30.04846800913338
-0.30369999999999997,-30.317263156107735
-0.3047000000000001,-30.402145834099635
-0.30569999999999997,-30.444587173095588
-0.3067000000000001,-30.487028512091538
-0.3077,-30.317263156107735
-0.3087000000000001,-30.359704495103685
-0.3097,-30.487028512091538
-0.3107000000000001,-30.571911190083444
-0.3117,-30.670940981073993
-0.3127000000000001,-30.79826499806185
-0.3137,-30.925589015049702
-0.3147000000000001,-31.095354371033505
-0.3157,-31.27926684001596
-0.3167000000000001,-31.40659085700382
-0.3177,-31.57635621298762
-0.3187000000000001,-31.76026868197007
-0.3197,-31.84515135996197
-0.3207000000000001,-32.01491671594578
-0.3217,-32.184682071929586
-0.3227000000000001,-32.368594540912035
-0.3237,-32.53835989689585
-0.3247000000000001,-32.70812525287965
-0.3257,-32.93447906085806
-0.3267000000000001,-33.18912709483376
-0.3277,-33.45792224180811
-0.3287000000000001,-33.712570275783825
-0.3297,-34.02380676175414
-0.3307000000000001,-34.278454795729836
-0.3317,-34.462367264712285
-0.3327000000000001,-34.717015298688004
-0.3337,-35.07069312365426
-0.3347000000000001,-35.38192960962457
-0.3357,-35.594136304604326
-0.3367000000000001,-35.90537279057463
-0.3377,-36.28734484153819
-0.3387000000000001,-36.6834640055004
-0.3397,-37.037141830466666
-0.3407000000000001,-37.334231203438314
-0.3417,-37.77279170639648
-0.3427000000000001,-38.253793548350586
-0.3437,-38.692354051308754
-0.3447000000000001,-39.046031876275016
-0.3457,-39.51288660523048
-0.3467000000000001,-40.092918238175145
-0.3477,-40.65880275812115
-0.3487000000000001,-41.083216148080666
-0.3497,-41.56421799003478
-0.3507000000000001,-42.229132300971344
-0.3517,-42.87989949890926
-0.3527000000000001,-43.53066669684718
-0.3537,-44.181433894785094
-0.3547000000000001,-44.88878954471762
-0.3557,-45.666880759643384
-0.35670000000000013,-46.41667774857186
-0.3577,-47.067444946509774
-0.35870000000000013,-47.80309482243959
-0.3597,-48.51045047237211
-0.36070000000000013,-49.28854168729788
-0.3617,-50.024191563227696
-0.3626999999999999,-50.85887123014807
-0.3637,-51.77843357506035
-0.3646999999999999,-52.74043725896857
-0.3657,-53.56096981289029
-0.3666999999999999,-54.480532157802564
-0.3677,-55.56985985869864
-0.3686999999999999,-56.786511576582576
-0.36970000000000003,-57.974869068469204
-0.3706999999999999,-59.02175543036933
-0.37170000000000003,-59.67252262830725
-0.3726999999999999,-60.23840714825326
-0.37370000000000003,-60.02620045327351
-0.3746999999999999,-59.9696120012789
-0.37570000000000003,-59.36128614233694
-0.3766999999999999,-59.757405306299155
-0.37770000000000004,-60.889174346191176
-0.3786999999999999,-62.20485585506566
-0.37970000000000004,-63.81762673691181
-0.3806999999999999,-65.68504565273366
-0.38170000000000004,-67.65149435954605
-0.38269999999999993,-69.6603844053544
-0.38370000000000004,-71.44292064318435
-0.38469999999999993,-72.75860215205884
-0.38570000000000004,-73.6781644969711
-0.38669999999999993,-73.93281253094682
-0.38570000000000004,-72.48980700508447
-0.38469999999999993,-71.18827260920865
-0.38370000000000004,-70.22626892530042
-0.38269999999999993,-69.57550172736251
-0.38170000000000004,-69.22182390239624
-0.3806999999999999,-68.91058741642594
-0.37970000000000004,-68.48617402646643
-0.3786999999999999,-68.13249620150016
-0.37770000000000004,-67.86370105452582
-0.3766999999999999,-67.6090530205501
-0.37570000000000003,-67.2978165345798
-0.3746999999999999,-66.87340314462028
-0.37370000000000003,-66.34995996367022
-0.3726999999999999,-65.91139946071206
-0.37170000000000003,-65.4728389577539
-0.3706999999999999,-64.94939577680383
-0.36970000000000003,-64.51083527384567
-0.3686999999999999,-63.98739209289561
-0.3677,-63.54883158993744
-0.3666999999999999,-63.02538840898739
-0.3657,-62.58682790602922
-0.3646999999999999,-62.06338472507916
-0.3637,-61.455058866137186
-0.3626999999999999,-60.889174346191176
-0.3617,-60.36573116524111
-0.36070000000000013,-59.757405306299155
-0.3597,-59.02175543036933
-0.35870000000000013,-58.31439978043681
-0.3577,-57.7485152604908
-0.35670000000000013,-57.097748062552874
-0.3557,-56.36209818662306
-0.3547000000000001,-55.56985985869864
-0.3537,-54.876651321764776
-0.3527000000000001,-54.26832546282281
-0.3517,-53.56096981289029
-0.3507000000000001,-52.78287859796452
-0.3497,-52.033081609036046
-0.3487000000000001,-51.424755750094086
-0.3477,-50.68910587416426
-0.3467000000000001,-49.85442620724389
-0.3457,-48.93486386233162
-0.3447000000000001,-48.1992139864018
-0.3437,-47.590888127459834
-0.3427000000000001,-46.84109113853137
-0.3417,-45.97811724561369
-0.3407000000000001,-45.18587891768927
-0.3397,-44.619994397743255
-0.3387000000000001,-44.054109877797245
-0.3377,-43.31846000186743
-0.3367000000000001,-42.6111043519349
-0.3357,-42.00277849299294
-0.3347000000000001,-41.352011295055014
-0.3337,-40.65880275812115
-0.3327000000000001,-39.86656443019674
-0.3317,-39.21579723225882
-0.3307000000000001,-38.522588695324956
-0.3297,-37.77279170639648
-0.3287000000000001,-37.07958316946261
-0.3277,-36.4288159715247
-0.3267000000000001,-35.763901660588125
-0.3257,-35.07069312365426
-0.3247000000000001,-34.33504324772444
-0.3237,-33.670128936787876
-0.3227000000000001,-33.06180307784591
-0.3217,-32.368594540912035
-0.3207000000000001,-31.618797551983565
-0.3197,-30.7558236590659
-0.3187000000000001,-29.66649595816982
-0.3177,-28.478138466283188
-0.3167000000000001,-27.38881076538711
-0.3157,-26.34192440348698
-0.3147000000000001,-25.563833188561212
-0.3137,-24.997948668615198
-0.3127000000000001,-24.474505487665134
-0.3117,-24.16326900169483
-0.3107000000000001,-23.86617962872317
-0.3097,-23.51250180375691
-0.3087000000000001,-22.946617283810895
-0.3077,-22.253408746877028
-0.3067000000000001,-21.418729079956652
-0.30569999999999997,-20.76796188201874
-0.3047000000000001,-20.202077362072725
-0.30369999999999997,-19.678634181122664
-0.3027000000000001,-19.112749661176647
-0.30169999999999997,-18.589306480226583
-0.3007000000000001,-18.06586329927652
-0.29969999999999997,-17.542420118326454
-0.2987000000000001,-17.061418276372343
-0.29769999999999996,-16.53797509542228
-0.2967000000000001,-16.014531914472215
-0.29569999999999996,-15.448647394526201
-0.2947000000000001,-14.868615761581536
-0.29369999999999996,-14.345172580631472
-0.29270000000000007,-13.872659006476551
-0.29169999999999996,-13.349215825526485
-0.29070000000000007,-12.869628694872238
-0.28969999999999996,-12.390041564217992
-0.28870000000000007,-11.909039722263879
-0.28769999999999996,-11.42945259160963
-0.28670000000000007,-10.949865460955383
-0.28569999999999995,-10.514134380596953
-0.28470000000000006,-9.99069119964689
-0.28369999999999995,-9.55496011928846
-0.28270000000000006,-9.073958277334345
-0.28169999999999995,-8.638227196975913
-0.28070000000000006,-8.158640066321666
-0.27969999999999995,-7.7653503249591855
-0.27870000000000006,-7.329619244600755
-0.27769999999999995,-6.93774421453814
-0.27670000000000006,-6.54445447317566
-0.27569999999999995,-6.108723392817228
-0.27470000000000006,-5.715433651454749
-0.27369999999999994,-5.323558621392133
-0.27270000000000005,-4.9302688800296535
-0.27169999999999994,-4.582249900262854
-0.27070000000000005,-4.23281620919619
-0.26969999999999994,-3.884797229429391
-0.26870000000000005,-3.4915074880669104
-0.26769999999999994,-3.1420737970002466
