Potential V vs RHE, Current mA cm-2
0.05339999999999995,-0.025238449589592253
0.05239999999999995,-0.026313630177489684
0.051399999999999946,-0.027006838714423546
0.050399999999999945,-0.027516134782374965
0.049399999999999944,-0.027912253946337173
0.04839999999999994,-0.028336667336296688
0.04739999999999994,-0.028704492274261594
0.04639999999999994,-0.0290723172122265
0.04539999999999994,-0.02945428926319007
0.04439999999999994,-0.02979381997515767
0.04339999999999994,-0.03014749780012393
0.04239999999999994,-0.03051532273808884
0.04139999999999994,-0.03085485345005645
0.040399999999999936,-0.031180237049025412
0.039399999999999935,-0.031505620647994365
0.038399999999999934,-0.031802710020966025
0.03739999999999993,-0.03211394650693633
0.03639999999999993,-0.032467624331902596
0.03539999999999993,-0.0328354492698675
0.03439999999999993,-0.033146685755837804
0.03339999999999993,-0.03347206935480676
0.03239999999999993,-0.033825747179773026
0.03139999999999993,-0.03420771923073659
0.030399999999999927,-0.03453310282970555
0.029399999999999926,-0.0348301922026772
0.028399999999999925,-0.03516972291464481
0.027399999999999924,-0.03548095940061512
0.026399999999999924,-0.03587707856457733
0.025399999999999923,-0.036216609276544943
0.024399999999999922,-0.0365136986495166
0.02339999999999992,-0.036867376474482856
0.02239999999999992,-0.037206907186450464
0.02139999999999992,-0.037603026350412676
0.020399999999999918,-0.037970851288377586
0.019399999999999917,-0.03826794066134924
0.018399999999999916,-0.03866405982531145
0.017399999999999916,-0.03903188476327636
0.016399999999999915,-0.03937141547524397
0.015399999999999914,-0.039725093300210235
0.014399999999999913,-0.04009291823817514
0.013399999999999912,-0.0404465960631414
0.012399999999999911,-0.04084271522710361
0.01139999999999991,-0.041238834391065814
0.01039999999999991,-0.041606659329030724
0.009399999999999908,-0.04196033715399699
0.008399999999999908,-0.0423564563179592
0.007399999999999907,-0.04276672259492006
0.006399999999999906,-0.043205283097878217
0.005399999999999905,-0.04360140226184043
0.004399999999999904,-0.04394093297380804
0.003399999999999903,-0.04428046368577565
0.002399999999999902,-0.044676582849737856
0.0013999999999999013,-0.045115143352696015
0.00039999999999990044,-0.04552540962965688
-0.0006000000000001005,-0.045893234567621795
-0.0016000000000001013,-0.0462610595055867
-0.0026000000000001022,-0.04665717866954891
-0.003600000000000103,-0.04706744494650977
-0.004600000000000104,-0.04750600544946793
-0.005600000000000105,-0.04790212461343014
-0.006600000000000106,-0.04835483222938696
-0.007600000000000107,-0.04893486386233162
-0.008600000000000108,-0.049571483947270886
-0.009600000000000108,-0.04998175022423174
-0.01060000000000011,-0.05061837030917101
-0.01160000000000011,-0.05085887123014807
-0.012600000000000111,-0.05109937215112512
-0.013600000000000112,-0.05142475575009409
-0.014600000000000113,-0.05191990470504685
-0.015600000000000114,-0.05225943541701446
-0.016600000000000115,-0.05266970169397532
-0.017600000000000116,-0.05305167374493888
-0.018600000000000116,-0.053504381360895685
-0.019600000000000117,-0.053971236089851146
-0.020600000000000118,-0.05440979659280931
-0.02160000000000012,-0.054876651321764766
-0.02260000000000012,-0.05528691759872562
-0.02360000000000012,-0.05576791944067974
-0.024600000000000122,-0.056248921282633854
-0.025600000000000123,-0.05668748178559202
-0.026600000000000124,-0.057394837435524544
-0.027600000000000124,-0.057904133503475945
-0.028600000000000125,-0.05842757668442602
-0.029600000000000126,-0.05889443141338147
-0.030600000000000127,-0.059403727481332894
-0.03160000000000013,-0.05972911108030186
-0.03260000000000013,-0.06006864179226945
-0.03360000000000013,-0.06053549652122492
-0.03460000000000002,-0.060974057024183084
-0.03560000000000002,-0.06129944062315204
-0.03660000000000002,-0.061780442465106146
-0.03760000000000002,-0.062190708742067016
-0.03860000000000002,-0.06265756347102248
-0.039600000000000024,-0.0631385653129766
-0.040600000000000025,-0.06360542004193205
-0.041600000000000026,-0.06407227477088752
-0.04260000000000003,-0.06460986506483622
-0.04360000000000003,-0.06509086690679033
-0.04460000000000003,-0.0657557812177269
-0.04560000000000003,-0.06613775326869047
-0.04660000000000003,-0.06653387243265267
-0.04760000000000003,-0.06694413870961352
-0.04860000000000003,-0.0673826992125717
-0.04960000000000003,-0.06789199528052312
-0.050600000000000034,-0.06834470289647993
-0.051600000000000035,-0.06883985185143268
-0.052600000000000036,-0.0692925594673895
-0.053600000000000037,-0.06975941419634496
-0.05460000000000004,-0.07029700449029368
-0.05560000000000004,-0.07076385921924913
-0.05660000000000004,-0.07130144951319785
-0.05760000000000004,-0.07172586290315736
-0.05860000000000004,-0.07219271763211282
-0.05960000000000004,-0.07268786658706558
-0.06060000000000004,-0.07312642709002375
-0.061600000000000044,-0.07363572315797516
-0.06260000000000004,-0.07413087211292792
-0.06360000000000005,-0.07464016818087933
-0.06460000000000005,-0.0751919055878267
-0.06560000000000005,-0.07571534876877677
-0.06660000000000005,-0.07612561504573763
-0.06760000000000005,-0.07657832266169443
-0.06860000000000005,-0.07708761872964585
-0.06960000000000005,-0.07761106191059591
-0.07060000000000005,-0.07797888684856082
-0.07160000000000005,-0.0783891531255217
-0.07260000000000005,-0.07882771362847985
-0.07360000000000005,-0.0793511568094299
-0.07460000000000006,-0.07983215865138403
-0.07560000000000006,-0.08027071915434218
-0.07660000000000006,-0.08073757388329764
-0.07760000000000006,-0.08113369304725986
-0.07860000000000006,-0.08157225355021802
-0.07960000000000006,-0.08206740250517078
-0.08060000000000006,-0.08253425723412625
-0.08160000000000006,-0.08298696485008306
-0.08260000000000006,-0.08335478978804794
-0.08360000000000006,-0.08377920317800747
-0.08460000000000006,-0.08417532234196969
-0.08560000000000006,-0.08462802995792648
-0.08660000000000007,-0.08502414912188871
-0.08760000000000007,-0.08534953272085766
-0.08860000000000007,-0.08581638744981313
-0.08960000000000007,-0.08622665372677399
-0.09060000000000007,-0.08660862577773754
-0.09160000000000007,-0.08700474494169977
-0.09260000000000007,-0.08738671699266332
-0.09360000000000007,-0.08778283615662552
-0.09460000000000007,-0.08816480820758908
-0.09560000000000007,-0.08851848603255535
-0.09660000000000007,-0.0889004580835189
-0.09760000000000008,-0.08928243013448246
-0.09860000000000008,-0.08966440218544602
-0.09960000000000008,-0.09008881557540553
-0.10060000000000008,-0.09042834628737315
-0.10160000000000008,-0.09075372988634212
-0.10260000000000008,-0.09107911348531106
-0.10360000000000008,-0.09146108553627462
-0.10460000000000008,-0.09185720470023684
-0.10560000000000008,-0.09215429407320849
-0.10660000000000008,-0.09247967767217745
-0.10760000000000008,-0.09281920838414506
-0.10860000000000009,-0.09313044487011536
-0.10960000000000009,-0.09348412269508162
-0.11060000000000009,-0.09376706495505463
-0.11160000000000009,-0.0940641543280263
-0.11260000000000009,-0.09436124370099794
-0.11360000000000009,-0.09468662729996691
-0.11460000000000009,-0.09502615801193452
-0.11560000000000009,-0.09530910027190752
-0.11660000000000009,-0.09557789541888188
-0.1176000000000001,-0.09590327901785084
-0.1186000000000001,-0.09617207416482519
-0.1196000000000001,-0.09644086931179956
-0.1206000000000001,-0.0966813702327766
-0.1216000000000001,-0.09693601826675231
-0.1226000000000001,-0.09714822496173206
-0.1236000000000001,-0.09740287299570777
-0.1246000000000001,-0.09760093257768888
-0.1256000000000001,-0.09778484504667133
-0.1266000000000001,-0.09798290462865245
-0.1276000000000001,-0.09820925843663084
-0.1286000000000001,-0.0984214651316106
-0.1296000000000001,-0.09861952471359171
-0.1306000000000001,-0.09880343718257417
-0.1316000000000001,-0.09898734965155662
-0.1326000000000001,-0.09914296789454177
-0.1336000000000001,-0.09932688036352423
-0.1346000000000001,-0.09951079283250668
-0.1356000000000001,-0.09965226396249319
-0.1366000000000001,-0.09980788220547833
-0.1376000000000001,-0.09996350044846349
-0.1386000000000001,-0.10009082446545134
-0.1396000000000001,-0.1002747369344338
-0.1406000000000001,-0.10040206095142165
-0.14160000000000011,-0.1005010907424122
-0.14260000000000012,-0.1005859734204041
-0.14360000000000012,-0.10067085609839602
-0.14460000000000012,-0.10081232722838251
-0.14560000000000012,-0.10089720990637441
-0.14660000000000012,-0.10101038681036362
-0.14760000000000012,-0.10109526948835552
-0.14860000000000012,-0.10115185794035012
-0.14960000000000012,-0.10125088773134068
-0.15060000000000012,-0.10132162329633393
-0.15160000000000012,-0.10140650597432584
-0.15260000000000012,-0.10146309442632043
-0.15360000000000013,-0.1015904184433083
-0.15460000000000013,-0.10170359534729749
-0.15560000000000013,-0.10184506647728399
-0.15660000000000013,-0.10181677225128669
-0.15760000000000013,-0.10177433091229074
-0.15860000000000013,-0.1017884780252894
-0.15960000000000002,-0.10183091936428534
-0.16060000000000002,-0.1017884780252894
-0.16160000000000002,-0.10171774246029613
-0.16260000000000002,-0.10168944823429883
-0.16360000000000002,-0.10170359534729749
-0.16460000000000002,-0.10171774246029613
-0.16560000000000002,-0.10183091936428534
-0.16660000000000003,-0.10183091936428534
-0.16760000000000003,-0.10177433091229074
-0.16860000000000003,-0.10173188957329479
-0.16960000000000003,-0.10171774246029613
-0.17060000000000003,-0.10168944823429883
-0.17160000000000003,-0.10160456555630692
-0.17260000000000003,-0.10173188957329479
-0.17360000000000003,-0.10164700689530289
-0.17460000000000003,-0.10149138865231773
-0.17560000000000003,-0.10136406463532988
-0.17660000000000003,-0.10129332907033663
-0.17760000000000004,-0.10119429927934608
-0.17860000000000004,-0.10112356371435283
-0.17960000000000004,-0.10113771082735147
-0.18060000000000004,-0.10112356371435283
-0.18160000000000004,-0.10103868103636092
-0.18260000000000004,-0.10095379835836901
-0.18360000000000004,-0.10099623969736496
-0.18460000000000004,-0.10082647434138116
-0.18560000000000004,-0.10065670898539736
-0.18660000000000004,-0.10054353208140815
-0.18760000000000004,-0.10041620806442031
-0.18860000000000005,-0.10028888404743246
-0.18960000000000005,-0.10018985425644189
-0.19060000000000005,-0.1000766773524527
-0.19160000000000005,-0.09992105910946754
-0.19260000000000005,-0.09980788220547833
-0.19360000000000005,-0.09968055818849049
-0.19460000000000005,-0.09955323417150262
-0.19560000000000005,-0.09942591015451478
-0.19660000000000005,-0.09931273325052556
-0.19760000000000005,-0.09922785057253368
-0.19860000000000005,-0.09907223232954852
-0.19960000000000006,-0.09898734965155662
-0.20060000000000006,-0.09884587852157012
-0.20160000000000006,-0.0987044073915836
-0.20260000000000006,-0.09860537760059306
-0.20360000000000006,-0.0984497593576079
-0.20460000000000006,-0.098364876679616
-0.20560000000000006,-0.09823755266262815
-0.20660000000000006,-0.09806778730664434
-0.20760000000000006,-0.09789802195066052
-0.20860000000000006,-0.0977424037076754
-0.20960000000000006,-0.09758678546469024
-0.21060000000000006,-0.09747360856070103
-0.21160000000000007,-0.09733213743071452
-0.21260000000000007,-0.09717651918772936
-0.21360000000000007,-0.09703504805774286
-0.21460000000000007,-0.09689357692775637
-0.21560000000000007,-0.09675210579776986
-0.21660000000000007,-0.0966530760067793
-0.21760000000000007,-0.09652575198979144
-0.21860000000000007,-0.09637013374680631
-0.21960000000000007,-0.09618622127782384
-0.22060000000000007,-0.096058897260836
-0.22160000000000007,-0.09588913190485218
-0.22260000000000008,-0.09576180788786433
-0.22360000000000008,-0.09556374830588323
-0.22460000000000008,-0.09547886562789133
-0.22560000000000008,-0.09530910027190752
-0.22660000000000008,-0.09515348202892236
-0.22760000000000008,-0.09504030512493315
-0.22860000000000008,-0.09489883399494665
-0.22960000000000008,-0.09475736286496016
-0.23060000000000008,-0.09457345039597771
-0.23160000000000008,-0.0943753908139966
-0.23260000000000008,-0.09424806679700874
-0.23360000000000009,-0.09407830144102494
-0.2346000000000001,-0.09395097742403709
-0.2356000000000001,-0.09378121206805329
-0.2366000000000001,-0.09361144671206949
-0.2376000000000001,-0.09348412269508162
-0.2386000000000001,-0.09330021022609918
-0.2396000000000001,-0.09313044487011536
-0.2406000000000001,-0.09298897374012885
-0.2416000000000001,-0.09287579683613965
-0.2426000000000001,-0.09273432570615316
-0.2436000000000001,-0.09259285457616664
-0.2446000000000001,-0.09245138344618015
-0.2456000000000001,-0.09232405942919229
-0.2466000000000001,-0.09219673541220444
-0.2476000000000001,-0.09199867583022334
-0.2486000000000001,-0.09181476336124088
-0.2496000000000001,-0.09171573357025031
-0.2506000000000001,-0.09157426244026382
-0.2516000000000001,-0.09140449708428001
-0.2526000000000001,-0.09124887884129487
-0.2536000000000001,-0.09114984905030431
-0.2546000000000001,-0.09100837792031781
-0.2556000000000001,-0.09088105390332996
-0.2566000000000001,-0.09071128854734616
-0.2576000000000001,-0.09059811164335696
-0.2586000000000001,-0.09045664051337043
-0.2596000000000001,-0.0903293164963826
-0.2606000000000001,-0.0902161395923934
-0.2616000000000001,-0.09008881557540553
-0.2626000000000001,-0.08987660888042578
-0.2636000000000001,-0.08974928486343793
-0.2646000000000001,-0.08966440218544602
-0.2656000000000001,-0.08953707816845817
-0.2666000000000001,-0.08938145992547303
-0.2676000000000001,-0.08926828302148382
-0.2686000000000001,-0.08918340034349191
-0.2696000000000001,-0.08905607632650406
-0.2706000000000001,-0.08892875230951619
-0.2716000000000001,-0.08878728117952969
-0.2726000000000001,-0.0887023985015378
-0.2736000000000001,-0.08854678025855263
-0.2746000000000001,-0.08844775046756209
-0.2756000000000001,-0.08834872067657155
-0.2766000000000001,-0.08823554377258234
-0.2776000000000001,-0.08810821975559449
-0.2786000000000001,-0.08796674862560798
-0.2796000000000001,-0.08786771883461743
-0.2806000000000001,-0.08778283615662552
-0.28160000000000013,-0.08761307080064172
-0.28260000000000013,-0.08748574678365387
-0.28360000000000013,-0.0874150112186606
-0.2846,-0.08733012854066871
-0.2856,-0.08721695163667952
-0.2866,-0.0871037747326903
-0.2876,-0.08697645071570247
-0.2886,-0.0868491266987146
-0.2896,-0.0867359497947254
-0.2906,-0.08663692000373484
-0.2916,-0.08655203732574294
-0.2926,-0.08641056619575643
-0.2936,-0.08631153640476588
-0.29460000000000003,-0.08624080083977263
-0.29560000000000003,-0.08615591816178074
-0.29660000000000003,-0.08605688837079019
-0.29760000000000003,-0.08592956435380232
-0.29860000000000003,-0.08580224033681448
-0.29960000000000003,-0.08574565188481988
-0.30060000000000003,-0.08563247498083068
-0.30160000000000003,-0.08546270962484687
-0.30260000000000004,-0.08536367983385632
-0.30360000000000004,-0.08529294426886307
-0.30460000000000004,-0.08523635581686846
-0.30560000000000004,-0.08513732602587791
-0.30660000000000004,-0.0849958548958914
-0.30760000000000004,-0.0849109722178995
-0.30860000000000004,-0.08481194242690895
-0.30960000000000004,-0.08475535397491435
-0.31060000000000004,-0.0846846184099211
-0.31160000000000004,-0.08455729439293323
-0.31260000000000004,-0.08441582326294673
-0.31360000000000005,-0.08433094058495484
-0.31460000000000005,-0.08424605790696293
-0.31560000000000005,-0.08421776368096563
-0.31660000000000005,-0.08410458677697644
-0.31760000000000005,-0.08400555698598587
-0.31860000000000005,-0.08390652719499532
-0.31960000000000005,-0.08389238008199668
-0.32060000000000005,-0.08383579163000207
-0.32160000000000005,-0.08372261472601288
-0.32260000000000005,-0.08362358493502231
-0.32360000000000005,-0.08353870225703043
-0.32460000000000006,-0.08348211380503581
-0.32560000000000006,-0.08342552535304121
-0.32660000000000006,-0.08332649556205066
-0.32760000000000006,-0.0832840542230547
-0.32860000000000006,-0.08318502443206416
-0.32960000000000006,-0.08310014175407225
-0.33060000000000006,-0.0830577004150763
-0.33160000000000006,-0.08293037639808845
-0.33260000000000006,-0.08284549372009656
-0.33360000000000006,-0.08276061104210465
-0.33460000000000006,-0.08270402259011005
-0.33560000000000006,-0.08263328702511678
-0.33660000000000007,-0.08253425723412625
-0.33760000000000007,-0.08247766878213163
-0.33860000000000007,-0.08239278610413973
-0.33960000000000007,-0.08236449187814243
-0.34060000000000007,-0.08232205053914649
-0.34160000000000007,-0.08225131497415322
-0.34260000000000007,-0.08212399095716538
-0.34360000000000007,-0.08201081405317617
-0.3446000000000001,-0.08195422560118158
-0.3456000000000001,-0.08189763714918698
-0.3466000000000001,-0.08188349003618833
-0.34759999999999996,-0.08178446024519778
-0.3486000000000001,-0.08165713622820991
-0.34959999999999997,-0.08161469488921397
-0.3506000000000001,-0.08157225355021802
-0.35159999999999997,-0.0814873708722261
-0.3526000000000001,-0.08141663530723285
-0.35359999999999997,-0.08133175262924096
-0.3546000000000001,-0.08130345840324366
-0.35559999999999997,-0.08124686995124906
-0.3566000000000001,-0.08116198727325716
-0.3576,-0.08109125170826391
-0.3586000000000001,-0.08102051614327066
-0.3596,-0.08096392769127606
-0.3606000000000001,-0.08093563346527875
-0.3616,-0.0808648979002855
-0.3626000000000001,-0.08080830944829089
-0.3636,-0.08076586810929494
-0.3646000000000001,-0.08069513254430169
-0.3656,-0.08062439697930844
-0.3666000000000001,-0.08053951430131655
-0.3676,-0.08046877873632328
-0.3686000000000001,-0.0804121902843287
-0.3696,-0.08035560183233408
-0.3706000000000001,-0.08036974894533275
-0.3716,-0.08032730760633679
-0.3726000000000001,-0.08025657204134354
-0.3736,-0.08018583647635028
-0.3746000000000001,-0.08012924802435568
-0.3756,-0.08011510091135703
-0.3766000000000001,-0.08007265957236107
-0.3776,-0.07995948266837187
-0.3786000000000001,-0.07990289421637728
-0.3796,-0.07987459999037998
-0.3806000000000001,-0.07984630576438266
-0.3816,-0.07978971731238807
-0.3826000000000001,-0.07971898174739482
-0.3836,-0.07969068752139752
-0.3846000000000001,-0.07967654040839886
-0.3856,-0.07964824618240157
-0.3866000000000001,-0.07959165773040697
-0.3876,-0.07957751061740831
-0.3886000000000001,-0.07949262793941642
-0.3896,-0.0794643337134191
-0.3906000000000001,-0.07942189237442315
-0.3916,-0.0793511568094299
-0.3926000000000001,-0.07930871547043396
-0.3936,-0.07925212701843935
-0.3946000000000001,-0.07922383279244205
-0.3956,-0.0791813914534461
-0.3966000000000001,-0.07913895011445016
-0.3976,-0.0791248030014515
-0.3986000000000001,-0.07906821454945691
-0.3996,-0.07902577321046096
-0.4006000000000001,-0.07901162609746229
-0.4016,-0.07899747898446366
-0.4026000000000001,-0.0789267434194704
-0.4036,-0.07887015496747579
-0.4046000000000001,-0.07887015496747579
-0.4056,-0.07887015496747579
-0.40660000000000013,-0.07879941940248254
-0.4076,-0.0787569780634866
-0.40860000000000013,-0.07868624249849335
-0.4096,-0.07865794827249603
-0.41060000000000013,-0.07862965404649873
-0.4116,-0.07857306559450414
-0.41260000000000013,-0.07854477136850684
-0.4136,-0.07850233002951089
-0.41460000000000014,-0.07850233002951089
-0.4156,-0.07848818291651223
-0.41660000000000014,-0.07844574157751628
-0.4176,-0.07841744735151898
-0.41860000000000014,-0.0783891531255217
-0.41960000000000003,-0.07836085889952438
-0.42060000000000014,-0.07831841756052843
-0.42160000000000003,-0.07830427044752979
-0.42260000000000014,-0.07831841756052843
-0.42360000000000003,-0.07827597622153248
-0.42460000000000014,-0.07826182910853383
-0.42560000000000003,-0.07827597622153248
-0.42660000000000015,-0.07823353488253654
-0.42760000000000004,-0.07817694643054193
-0.42860000000000015,-0.07817694643054193
-0.42960000000000004,-0.07816279931754326
-0.43060000000000015,-0.07816279931754326
-0.43160000000000004,-0.07814865220454463
-0.43260000000000015,-0.07813450509154597
-0.43360000000000004,-0.07810621086554868
-0.43460000000000015,-0.07814865220454463
-0.43560000000000004,-0.07816279931754326
