Potential V vs RHE, Current mA cm-2
0.05339999999999995,-0.02242317410286083
0.05239999999999995,-0.02354079602975421
0.051399999999999946,-0.024021797871708325
0.050399999999999945,-0.024403769922671882
0.049399999999999944,-0.02474330063463949
0.04839999999999994,-0.02506868423360845
0.04739999999999994,-0.02543650917157336
0.04639999999999994,-0.02573359854454502
0.04539999999999994,-0.026058982143513973
0.04439999999999994,-0.026370218629484285
0.04339999999999994,-0.026695602228453245
0.04239999999999994,-0.0270209858274222
0.04139999999999994,-0.02731807520039386
0.040399999999999936,-0.027615164573365516
0.039399999999999935,-0.027954695285333123
0.038399999999999934,-0.02829422599730073
0.03739999999999993,-0.02861960959626969
0.03639999999999993,-0.02893084608224
0.03539999999999993,-0.029242082568210308
0.03439999999999993,-0.029581613280177915
0.03339999999999993,-0.029906996879146875
0.03239999999999993,-0.030218233365117184
0.03139999999999993,-0.030543616964086147
0.030399999999999927,-0.03085485345005645
0.029399999999999926,-0.031166089936026757
0.028399999999999925,-0.03151976776099302
0.027399999999999924,-0.03181685713396468
0.026399999999999924,-0.03214224073293363
0.025399999999999923,-0.03248177144490124
0.024399999999999922,-0.03282130215686885
0.02339999999999992,-0.03316083286883646
0.02239999999999992,-0.03351451069380272
0.02139999999999992,-0.03386818851876898
0.020399999999999918,-0.03420771923073659
0.019399999999999917,-0.03453310282970555
0.018399999999999916,-0.03490092776767045
0.017399999999999916,-0.03525460559263671
0.016399999999999915,-0.035594136304604326
0.015399999999999914,-0.035961961242569236
0.014399999999999913,-0.03631563906753549
0.013399999999999912,-0.036740052457495
0.012399999999999911,-0.03710787739545991
0.01139999999999991,-0.03744740810742752
0.01039999999999991,-0.03782938015839108
0.009399999999999908,-0.03819720509635599
0.008399999999999908,-0.0385650300343209
0.007399999999999907,-0.038961149198283106
0.006399999999999906,-0.039343121249246674
0.005399999999999905,-0.039725093300210235
0.004399999999999904,-0.04009291823817514
0.003399999999999903,-0.040503184515136
0.002399999999999902,-0.040899303679098206
0.0013999999999999013,-0.04130956995605907
0.00039999999999990044,-0.04171983623301993
-0.0006000000000001005,-0.04210180828398349
-0.0016000000000001013,-0.0424979274479457
-0.0026000000000001022,-0.042922340837905214
-0.003600000000000103,-0.04331846000186742
-0.004600000000000104,-0.043742873391826934
-0.005600000000000105,-0.04416728678178644
-0.006600000000000106,-0.044591700171745956
-0.007600000000000107,-0.04501611356170547
-0.008600000000000108,-0.04542637983866633
-0.009600000000000108,-0.04585079322862584
-0.01060000000000011,-0.04624691239258805
-0.01160000000000011,-0.046699620008544857
-0.012600000000000111,-0.04715232762450167
-0.013600000000000112,-0.04760503524045848
-0.014600000000000113,-0.04805774285641529
-0.015600000000000114,-0.04849630335937346
-0.016600000000000115,-0.04894901097533026
-0.017600000000000116,-0.04938757147828843
-0.018600000000000116,-0.049826131981246594
-0.019600000000000117,-0.05027883959720341
-0.020600000000000118,-0.05071740010016157
-0.02160000000000012,-0.05119840194211568
-0.02260000000000012,-0.051651109558072485
-0.02360000000000012,-0.052117964287027946
-0.024600000000000122,-0.05259896612898206
-0.025600000000000123,-0.05305167374493888
-0.026600000000000124,-0.053518528473894336
-0.027600000000000124,-0.05399953031584845
-0.028600000000000125,-0.05449467927080121
-0.029600000000000126,-0.054975681112755324
-0.030600000000000127,-0.055428388728712134
-0.03160000000000013,-0.05590939057066625
-0.03260000000000013,-0.05640453952561902
-0.03360000000000013,-0.05688554136757313
-0.03460000000000002,-0.057366543209527235
-0.03560000000000002,-0.057833397938482696
-0.03660000000000002,-0.058328546893435466
-0.03760000000000002,-0.05882369584838822
-0.03860000000000002,-0.05931884480334099
-0.039600000000000024,-0.059771552419297796
-0.040600000000000025,-0.06023840714825326
-0.041600000000000026,-0.06076185032920333
-0.04260000000000003,-0.06127114639715474
-0.04360000000000003,-0.061752148239108844
-0.04460000000000003,-0.062247297194061614
-0.04560000000000003,-0.06275659326201304
-0.04660000000000003,-0.06326588932996444
-0.04760000000000003,-0.06378933251091451
-0.04860000000000003,-0.06431277569186457
-0.04960000000000003,-0.06480792464681732
-0.050600000000000034,-0.06531722071476874
-0.051600000000000035,-0.06585481100871747
-0.052600000000000036,-0.06634995996367023
-0.053600000000000037,-0.06684510891862298
-0.05460000000000004,-0.06736855209957304
-0.05560000000000004,-0.06787784816752446
-0.05660000000000004,-0.06841543846147317
-0.05760000000000004,-0.06892473452942459
-0.05860000000000004,-0.0694057363713787
-0.05960000000000004,-0.06991503243933012
-0.06060000000000004,-0.07043847562028017
-0.061600000000000044,-0.07096191880123023
-0.06260000000000004,-0.07148536198218029
-0.06360000000000005,-0.07200880516313038
-0.06460000000000005,-0.07251810123108177
-0.06560000000000005,-0.07301325018603454
-0.06660000000000005,-0.07352254625398597
-0.06760000000000005,-0.07403184232193737
-0.06860000000000005,-0.07451284416389148
-0.06960000000000005,-0.0750504344578402
-0.07060000000000005,-0.07555973052579161
-0.07160000000000005,-0.07608317370674167
-0.07260000000000005,-0.07655002843569715
-0.07360000000000005,-0.07703103027765125
-0.07460000000000006,-0.07754032634560266
-0.07560000000000006,-0.07804962241355407
-0.07660000000000006,-0.07854477136850684
-0.07760000000000006,-0.07906821454945691
-0.07860000000000006,-0.079549216391411
-0.07960000000000006,-0.08001607112036647
-0.08060000000000006,-0.08049707296232057
-0.08160000000000006,-0.0809780748042747
-0.08260000000000006,-0.08147322375922747
-0.08360000000000006,-0.08195422560118158
-0.08460000000000006,-0.08244937455613434
-0.08560000000000006,-0.08290208217209115
-0.08660000000000007,-0.08335478978804794
-0.08760000000000007,-0.08376505606500882
-0.08860000000000007,-0.08420361656796697
-0.08960000000000007,-0.0846846184099211
-0.09060000000000007,-0.08513732602587791
-0.09160000000000007,-0.08559003364183472
-0.09260000000000007,-0.08604274125779153
-0.09360000000000007,-0.08646715464775104
-0.09460000000000007,-0.0869057151507092
-0.09560000000000007,-0.08730183431467141
-0.09660000000000007,-0.08772624770463092
-0.09760000000000008,-0.08810821975559449
-0.09860000000000008,-0.08849019180655805
-0.09960000000000008,-0.08892875230951619
-0.10060000000000008,-0.08931072436047977
-0.10160000000000008,-0.08974928486343793
-0.10260000000000008,-0.09013125691440148
-0.10360000000000008,-0.09048493473936775
-0.10460000000000008,-0.09086690679033131
-0.10560000000000008,-0.09123473172829621
-0.10660000000000008,-0.09161670377925978
-0.10760000000000008,-0.09197038160422603
-0.10860000000000009,-0.09232405942919229
-0.10960000000000009,-0.09266359014115991
-0.11060000000000009,-0.09301726796612615
-0.11160000000000009,-0.09337094579109242
-0.11260000000000009,-0.09369632939006138
-0.11360000000000009,-0.09400756587603168
-0.11460000000000009,-0.0943470965879993
-0.11560000000000009,-0.0946583330739696
-0.11660000000000009,-0.0949695695599399
-0.1176000000000001,-0.09526665893291157
-0.1186000000000001,-0.09553545407988592
-0.1196000000000001,-0.09580424922686027
-0.1206000000000001,-0.09611548571283059
-0.1216000000000001,-0.09638428085980494
-0.1226000000000001,-0.096624781780782
-0.1236000000000001,-0.09689357692775637
-0.1246000000000001,-0.09710578362273611
-0.1256000000000001,-0.09733213743071452
-0.1266000000000001,-0.09755849123869292
-0.1276000000000001,-0.09779899215966999
-0.1286000000000001,-0.09799705174165109
-0.1296000000000001,-0.0981951113236322
-0.1306000000000001,-0.09839317090561331
-0.1316000000000001,-0.09860537760059306
-0.1326000000000001,-0.09877514295657686
-0.1336000000000001,-0.09894490831256067
-0.1346000000000001,-0.09911467366854448
-0.1356000000000001,-0.09927029191152963
-0.1366000000000001,-0.09944005726751343
-0.1376000000000001,-0.0995673812845013
-0.1386000000000001,-0.09969470530148912
-0.1396000000000001,-0.09983617643147565
-0.1406000000000001,-0.09996350044846349
-0.14160000000000011,-0.10009082446545134
-0.14260000000000012,-0.10020400136944055
-0.14360000000000012,-0.10028888404743246
-0.14460000000000012,-0.10040206095142165
-0.14560000000000012,-0.1004727965164149
-0.14660000000000012,-0.1005859734204041
-0.14760000000000012,-0.10064256187239871
-0.14860000000000012,-0.10068500321139465
-0.14960000000000012,-0.10074159166338927
-0.15060000000000012,-0.10079818011538387
-0.15160000000000012,-0.10086891568037712
-0.15260000000000012,-0.10092550413237171
-0.15360000000000013,-0.10092550413237171
-0.15460000000000013,-0.10096794547136766
-0.15560000000000013,-0.10098209258436633
-0.15660000000000013,-0.10099623969736496
-0.15760000000000013,-0.10102453392336228
-0.15860000000000013,-0.10101038681036362
-0.15960000000000002,-0.10099623969736496
-0.16060000000000002,-0.10099623969736496
-0.16160000000000002,-0.10098209258436633
-0.16260000000000002,-0.10096794547136766
-0.16360000000000002,-0.10093965124537037
-0.16460000000000002,-0.10089720990637441
-0.16560000000000002,-0.10089720990637441
-0.16660000000000003,-0.10091135701937308
-0.16760000000000003,-0.10082647434138116
-0.16860000000000003,-0.10075573877638791
-0.16960000000000003,-0.10069915032439332
-0.17060000000000003,-0.10062841475940007
-0.17160000000000003,-0.10060012053340277
-0.17260000000000003,-0.10048694362941356
-0.17360000000000003,-0.10040206095142165
-0.17460000000000003,-0.1003313253864284
-0.17560000000000003,-0.10026058982143515
-0.17660000000000003,-0.10017570714344325
-0.17760000000000004,-0.10004838312645539
-0.17860000000000004,-0.09996350044846349
-0.17960000000000004,-0.09986447065747293
-0.18060000000000004,-0.09975129375348374
-0.18160000000000004,-0.09966641107549183
-0.18260000000000004,-0.09955323417150262
-0.18360000000000004,-0.09942591015451478
-0.18460000000000004,-0.09932688036352423
-0.18560000000000004,-0.09919955634653636
-0.18660000000000004,-0.09910052655554581
-0.18760000000000004,-0.09897320253855796
-0.18860000000000005,-0.09884587852157012
-0.18960000000000005,-0.09873270161758091
-0.19060000000000005,-0.0985912304875944
-0.19160000000000005,-0.0984780535836052
-0.19260000000000005,-0.09835072956661735
-0.19360000000000005,-0.0981951113236322
-0.19460000000000005,-0.09803949308064704
-0.19560000000000005,-0.0979121690636592
-0.19660000000000005,-0.09778484504667133
-0.19760000000000005,-0.09764337391668483
-0.19860000000000005,-0.09748775567369967
-0.19960000000000006,-0.09734628454371318
-0.20060000000000006,-0.09721896052672531
-0.20160000000000006,-0.09707748939673881
-0.20260000000000006,-0.096907724040755
-0.20360000000000006,-0.0967662529107685
-0.20460000000000006,-0.09661063466778336
-0.20560000000000006,-0.09646916353779686
-0.20660000000000006,-0.09632769240781036
-0.20760000000000006,-0.09612963282582924
-0.20860000000000006,-0.09598816169584275
-0.20960000000000006,-0.09581839633985893
-0.21060000000000006,-0.09564863098387513
-0.21160000000000007,-0.09552130696688728
-0.21260000000000007,-0.09533739449790483
-0.21360000000000007,-0.09519592336791832
-0.21460000000000007,-0.09502615801193452
-0.21560000000000007,-0.09488468688194801
-0.21660000000000007,-0.09475736286496016
-0.21760000000000007,-0.09461589173497365
-0.21860000000000007,-0.09444612637898986
-0.21960000000000007,-0.09429050813600469
-0.22060000000000007,-0.09413488989301955
-0.22160000000000007,-0.09397927165003438
-0.22260000000000008,-0.09380950629405059
-0.22360000000000008,-0.09365388805106543
-0.22460000000000008,-0.09349826980808028
-0.22560000000000008,-0.09334265156509512
-0.22660000000000008,-0.09318703332210997
-0.22760000000000008,-0.09303141507912481
-0.22860000000000008,-0.09287579683613965
-0.22960000000000008,-0.09272017859315451
-0.23060000000000008,-0.09256456035016934
-0.23160000000000008,-0.0924089421071842
-0.23260000000000008,-0.0922674709771977
-0.23360000000000009,-0.09211185273421253
-0.2346000000000001,-0.09194208737822873
-0.2356000000000001,-0.09180061624824223
-0.2366000000000001,-0.09167329223125438
-0.2376000000000001,-0.09151767398826924
-0.2386000000000001,-0.09137620285828273
-0.2396000000000001,-0.09122058461529756
-0.2406000000000001,-0.09107911348531106
-0.2416000000000001,-0.09093764235532456
-0.2426000000000001,-0.0908103183383367
-0.2436000000000001,-0.09066884720835021
-0.2446000000000001,-0.0904990818523664
-0.2456000000000001,-0.09037175783537854
-0.2466000000000001,-0.09024443381839069
-0.2476000000000001,-0.09007466846240689
-0.2486000000000001,-0.08996149155841768
-0.2496000000000001,-0.08982002042843118
-0.2506000000000001,-0.08969269641144333
-0.2516000000000001,-0.08957951950745412
-0.2526000000000001,-0.08942390126446896
-0.2536000000000001,-0.08928243013448246
-0.2546000000000001,-0.08915510611749461
-0.2556000000000001,-0.08902778210050676
-0.2566000000000001,-0.08891460519651756
-0.2576000000000001,-0.08877313406653106
-0.2586000000000001,-0.08865995716254185
-0.2596000000000001,-0.08851848603255535
-0.2606000000000001,-0.0883911620155675
-0.2616000000000001,-0.08827798511157829
-0.2626000000000001,-0.08817895532058774
-0.2636000000000001,-0.08803748419060124
-0.2646000000000001,-0.08793845439961068
-0.2656000000000001,-0.08782527749562147
-0.2666000000000001,-0.08771210059163227
-0.2676000000000001,-0.08762721791364038
-0.2686000000000001,-0.08749989389665253
-0.2696000000000001,-0.0874150112186606
-0.2706000000000001,-0.08730183431467141
-0.2716000000000001,-0.08721695163667952
-0.2726000000000001,-0.08708962761969166
-0.2736000000000001,-0.0869905978287011
-0.2746000000000001,-0.0868774209247119
-0.2756000000000001,-0.08679253824672
-0.2766000000000001,-0.08669350845572944
-0.2776000000000001,-0.0865944786647389
-0.2786000000000001,-0.0864813017607497
-0.2796000000000001,-0.0863681248567605
-0.2806000000000001,-0.0862832421787686
-0.28160000000000013,-0.08621250661377533
-0.28260000000000013,-0.08609932970978613
-0.28360000000000013,-0.08598615280579694
-0.2846,-0.08588712301480637
-0.2856,-0.08581638744981313
-0.2866,-0.08573150477182122
-0.2876,-0.08561832786783201
-0.2886,-0.08553344518984012
-0.2896,-0.08544856251184822
-0.2906,-0.08536367983385632
-0.2916,-0.08527879715586441
-0.2926,-0.08517976736487386
-0.2936,-0.08509488468688196
-0.29460000000000003,-0.08503829623488735
-0.29560000000000003,-0.08495341355689547
-0.29660000000000003,-0.0848826779919022
-0.29760000000000003,-0.08478364820091165
-0.29860000000000003,-0.08469876552291973
-0.29960000000000003,-0.08462802995792648
-0.30060000000000003,-0.08455729439293323
-0.30160000000000003,-0.08448655882793998
-0.30260000000000004,-0.08440167614994809
-0.30360000000000004,-0.08433094058495484
-0.30460000000000004,-0.08426020501996159
-0.30560000000000004,-0.08420361656796697
-0.30660000000000004,-0.08414702811597238
-0.30760000000000004,-0.08406214543798048
-0.30860000000000004,-0.08399140987298723
-0.30960000000000004,-0.08393482142099262
-0.31060000000000004,-0.08387823296899803
-0.31160000000000004,-0.08383579163000207
-0.31260000000000004,-0.08377920317800747
-0.31360000000000005,-0.08370846761301422
-0.31460000000000005,-0.08363773204802097
-0.31560000000000005,-0.08360943782202368
-0.31660000000000005,-0.08355284937002906
-0.31760000000000005,-0.08349626091803447
-0.31860000000000005,-0.08343967246603987
-0.31960000000000005,-0.08341137824004256
-0.32060000000000005,-0.08336893690104662
-0.32160000000000005,-0.08331234844905201
-0.32260000000000005,-0.08325575999705741
-0.32360000000000005,-0.08321331865806145
-0.32460000000000006,-0.08315673020606687
-0.32560000000000006,-0.08311428886707091
-0.32660000000000006,-0.08308599464107361
-0.32760000000000006,-0.083029406189079
-0.32860000000000006,-0.08298696485008306
-0.32960000000000006,-0.08293037639808845
-0.33060000000000006,-0.0828879350590925
-0.33160000000000006,-0.0828879350590925
-0.33260000000000006,-0.08281719949409926
-0.33360000000000006,-0.08277475815510331
-0.33460000000000006,-0.08271816970310869
-0.33560000000000006,-0.08270402259011005
-0.33660000000000007,-0.08268987547711139
-0.33760000000000007,-0.08261913991211814
-0.33860000000000007,-0.08259084568612084
-0.33960000000000007,-0.08254840434712489
-0.34060000000000007,-0.08252011012112759
-0.34160000000000007,-0.08249181589513029
-0.34260000000000007,-0.08246352166913298
-0.34360000000000007,-0.0824352274431357
-0.3446000000000001,-0.08240693321713838
-0.3456000000000001,-0.08239278610413973
-0.3466000000000001,-0.08237863899114109
-0.34759999999999996,-0.08233619765214513
-0.3486000000000001,-0.08229375631314918
-0.34959999999999997,-0.08226546208715188
-0.3506000000000001,-0.08226546208715188
-0.35159999999999997,-0.08226546208715188
-0.3526000000000001,-0.08220887363515728
-0.35359999999999997,-0.08218057940915997
-0.3546000000000001,-0.08213813807016403
-0.35559999999999997,-0.08215228518316267
-0.3566000000000001,-0.08213813807016403
-0.3576,-0.08212399095716538
-0.3586000000000001,-0.08212399095716538
-0.3596,-0.08209569673116808
-0.3606000000000001,-0.08210984384416672
-0.3616,-0.08209569673116808
-0.3626000000000001,-0.08206740250517078
-0.3636,-0.08206740250517078
-0.3646000000000001,-0.08205325539217213
-0.3656,-0.08206740250517078
-0.3666000000000001,-0.08206740250517078
-0.3676,-0.08203910827917348
-0.3686000000000001,-0.08203910827917348
-0.3696,-0.08202496116617483
-0.3706000000000001,-0.08206740250517078
-0.3716,-0.08209569673116808
-0.3726000000000001,-0.08206740250517078
-0.3736,-0.08208154961816942
-0.3746000000000001,-0.08208154961816942
-0.3756,-0.08208154961816942
-0.3766000000000001,-0.08213813807016403
-0.3776,-0.08210984384416672
-0.3786000000000001,-0.08212399095716538
-0.3796,-0.08213813807016403
-0.3806000000000001,-0.08215228518316267
-0.3816,-0.08219472652215863
-0.3826000000000001,-0.08219472652215863
-0.3836,-0.08220887363515728
-0.3846000000000001,-0.08225131497415322
-0.3856,-0.08226546208715188
-0.3866000000000001,-0.08229375631314918
-0.3876,-0.08230790342614784
-0.3886000000000001,-0.08233619765214513
-0.3896,-0.08236449187814243
-0.3906000000000001,-0.08240693321713838
-0.3916,-0.08244937455613434
-0.3926000000000001,-0.08247766878213163
-0.3936,-0.08250596300812894
-0.3946000000000001,-0.08254840434712489
-0.3956,-0.0826049927991195
-0.3966000000000001,-0.08264743413811544
-0.3976,-0.08268987547711139
-0.3986000000000001,-0.08274646392910599
-0.3996,-0.08278890526810194
-0.4006000000000001,-0.08284549372009656
-0.4016,-0.08290208217209115
-0.4026000000000001,-0.0829445235110871
-0.4036,-0.08301525907608036
-0.4046000000000001,-0.08307184752807495
-0.4056,-0.0831425830930682
-0.40660000000000013,-0.08321331865806145
-0.4076,-0.08325575999705741
-0.40860000000000013,-0.08332649556205066
-0.4096,-0.08338308401404526
-0.41060000000000013,-0.08348211380503581
-0.4116,-0.08355284937002906
-0.41260000000000013,-0.08360943782202368
-0.4136,-0.08370846761301422
-0.41460000000000014,-0.08376505606500882
-0.4156,-0.08386408585599937
-0.41660000000000014,-0.08394896853399128
-0.4176,-0.08403385121198319
-0.41860000000000014,-0.08413288100297373
-0.41960000000000003,-0.08421776368096563
-0.42060000000000014,-0.08433094058495484
-0.42160000000000003,-0.08447241171494134
-0.42260000000000014,-0.0845714415059319
-0.42360000000000003,-0.08467047129692246
-0.42460000000000014,-0.084769501087913
-0.42560000000000003,-0.08489682510490085
-0.42660000000000015,-0.08503829623488735
-0.42760000000000004,-0.08517976736487386
-0.42860000000000015,-0.08529294426886307
-0.42960000000000004,-0.0854202682858509
-0.43060000000000015,-0.08557588652883606
-0.43160000000000004,-0.08570321054582393
-0.43260000000000015,-0.08583053456281178
-0.43360000000000004,-0.08598615280579694
-0.43460000000000015,-0.08614177104878207
-0.43560000000000004,-0.08629738929176724
