May 2, 2025   17:06:36
Cyclic Voltammetry
File: c:/users/guazh/data/banditlqround7_x0exp1108_r5/2025-04-30-exp1219\exp1219-2025-05-02t17_01_42-h2koh\exp1219_cv_50mvs_efin_-1400mv.bin
Data Source:  Experiment
Instrument Model:  CHI760E
Header: CV ran at 50 mVs
Note: 

Init E (V) = -1
High E (V) = -1
Low E (V) = -1.4
Final E (V) = -1
Init P/N = N
Scan Rate (V/s) = 0.05
Segment = 7
Sample Interval (V) = 0.001
Quiet Time (sec) = 60
Sensitivity (A/V) = 0.001
Comp R (ohm) = 1.1

Results:

Channel 1:
Segment 1:

Segment 2:

Segment 3:

Segment 4:

Segment 5:

Segment 6:

Segment 7:

Potential/V, Current/A

-1.000, 4.785e-5
-1.001, 1.044e-4
-1.002, 1.352e-4
-1.003, 1.549e-4
-1.004, 1.681e-4
-1.005, 1.768e-4
-1.006, 1.857e-4
-1.007, 1.933e-4
-1.008, 1.992e-4
-1.009, 2.031e-4
-1.010, 2.066e-4
-1.011, 2.109e-4
-1.012, 2.159e-4
-1.013, 2.193e-4
-1.014, 2.214e-4
-1.015, 2.231e-4
-1.016, 2.254e-4
-1.017, 2.292e-4
-1.018, 2.322e-4
-1.019, 2.338e-4
-1.020, 2.354e-4
-1.021, 2.378e-4
-1.022, 2.413e-4
-1.023, 2.447e-4
-1.024, 2.459e-4
-1.025, 2.467e-4
-1.026, 2.488e-4
-1.027, 2.516e-4
-1.028, 2.546e-4
-1.029, 2.556e-4
-1.030, 2.569e-4
-1.031, 2.595e-4
-1.032, 2.625e-4
-1.033, 2.652e-4
-1.034, 2.660e-4
-1.035, 2.667e-4
-1.036, 2.695e-4
-1.037, 2.725e-4
-1.038, 2.751e-4
-1.039, 2.767e-4
-1.040, 2.774e-4
-1.041, 2.802e-4
-1.042, 2.839e-4
-1.043, 2.865e-4
-1.044, 2.882e-4
-1.045, 2.890e-4
-1.046, 2.916e-4
-1.047, 2.957e-4
-1.048, 2.989e-4
-1.049, 3.007e-4
-1.050, 3.024e-4
-1.051, 3.048e-4
-1.052, 3.085e-4
-1.053, 3.112e-4
-1.054, 3.130e-4
-1.055, 3.149e-4
-1.056, 3.179e-4
-1.057, 3.225e-4
-1.058, 3.267e-4
-1.059, 3.287e-4
-1.060, 3.306e-4
-1.061, 3.335e-4
-1.062, 3.371e-4
-1.063, 3.410e-4
-1.064, 3.430e-4
-1.065, 3.464e-4
-1.066, 3.505e-4
-1.067, 3.554e-4
-1.068, 3.595e-4
-1.069, 3.617e-4
-1.070, 3.637e-4
-1.071, 3.671e-4
-1.072, 3.717e-4
-1.073, 3.762e-4
-1.074, 3.791e-4
-1.075, 3.826e-4
-1.076, 3.870e-4
-1.077, 3.914e-4
-1.078, 3.968e-4
-1.079, 3.998e-4
-1.080, 4.026e-4
-1.081, 4.066e-4
-1.082, 4.121e-4
-1.083, 4.173e-4
-1.084, 4.206e-4
-1.085, 4.232e-4
-1.086, 4.279e-4
-1.087, 4.338e-4
-1.088, 4.391e-4
-1.089, 4.433e-4
-1.090, 4.467e-4
-1.091, 4.513e-4
-1.092, 4.581e-4
-1.093, 4.627e-4
-1.094, 4.665e-4
-1.095, 4.699e-4
-1.096, 4.749e-4
-1.097, 4.818e-4
-1.098, 4.880e-4
-1.099, 4.922e-4
-1.100, 4.969e-4
-1.101, 5.024e-4
-1.102, 5.085e-4
-1.103, 5.143e-4
-1.104, 5.182e-4
-1.105, 5.229e-4
-1.106, 5.290e-4
-1.107, 5.355e-4
-1.108, 5.421e-4
-1.109, 5.466e-4
-1.110, 5.521e-4
-1.111, 5.575e-4
-1.112, 5.633e-4
-1.113, 5.696e-4
-1.114, 5.742e-4
-1.115, 5.795e-4
-1.116, 5.869e-4
-1.117, 5.935e-4
-1.118, 6.003e-4
-1.119, 6.066e-4
-1.120, 6.110e-4
-1.121, 6.169e-4
-1.122, 6.237e-4
-1.123, 6.303e-4
-1.124, 6.371e-4
-1.125, 6.427e-4
-1.126, 6.500e-4
-1.127, 6.584e-4
-1.128, 6.651e-4
-1.129, 6.712e-4
-1.130, 6.756e-4
-1.131, 6.816e-4
-1.132, 6.901e-4
-1.133, 6.976e-4
-1.134, 7.040e-4
-1.135, 7.108e-4
-1.136, 7.185e-4
-1.137, 7.270e-4
-1.138, 7.352e-4
-1.139, 7.408e-4
-1.140, 7.466e-4
-1.141, 7.526e-4
-1.142, 7.616e-4
-1.143, 7.702e-4
-1.144, 7.774e-4
-1.145, 7.845e-4
-1.146, 7.938e-4
-1.147, 8.030e-4
-1.148, 8.114e-4
-1.149, 8.186e-4
-1.150, 8.243e-4
-1.151, 8.321e-4
-1.152, 8.404e-4
-1.153, 8.499e-4
-1.154, 8.591e-4
-1.155, 8.686e-4
-1.156, 8.783e-4
-1.157, 8.885e-4
-1.158, 8.995e-4
-1.159, 9.052e-4
-1.160, 9.113e-4
-1.161, 9.198e-4
-1.162, 9.293e-4
-1.163, 9.398e-4
-1.164, 9.498e-4
-1.165, 9.600e-4
-1.166, 9.710e-4
-1.167, 9.827e-4
-1.168, 9.931e-4
-1.169, 1.001e-3
-1.170, 1.008e-3
-1.171, 1.017e-3
-1.172, 1.028e-3
-1.173, 1.039e-3
-1.174, 1.050e-3
-1.175, 1.061e-3
-1.176, 1.072e-3
-1.177, 1.085e-3
-1.178, 1.098e-3
-1.179, 1.106e-3
-1.180, 1.116e-3
-1.181, 1.125e-3
-1.182, 1.137e-3
-1.183, 1.150e-3
-1.184, 1.161e-3
-1.185, 1.173e-3
-1.186, 1.186e-3
-1.187, 1.201e-3
-1.188, 1.214e-3
-1.189, 1.225e-3
-1.190, 1.236e-3
-1.191, 1.247e-3
-1.192, 1.260e-3
-1.193, 1.275e-3
-1.194, 1.290e-3
-1.195, 1.306e-3
-1.196, 1.319e-3
-1.197, 1.334e-3
-1.198, 1.350e-3
-1.199, 1.362e-3
-1.200, 1.373e-3
-1.201, 1.386e-3
-1.202, 1.401e-3
-1.203, 1.416e-3
-1.204, 1.429e-3
-1.205, 1.444e-3
-1.206, 1.462e-3
-1.207, 1.481e-3
-1.208, 1.495e-3
-1.209, 1.512e-3
-1.210, 1.523e-3
-1.211, 1.539e-3
-1.212, 1.559e-3
-1.213, 1.576e-3
-1.214, 1.592e-3
-1.215, 1.607e-3
-1.216, 1.622e-3
-1.217, 1.641e-3
-1.218, 1.662e-3
-1.219, 1.678e-3
-1.220, 1.694e-3
-1.221, 1.710e-3
-1.222, 1.729e-3
-1.223, 1.749e-3
-1.224, 1.763e-3
-1.225, 1.781e-3
-1.226, 1.796e-3
-1.227, 1.818e-3
-1.228, 1.840e-3
-1.229, 1.860e-3
-1.230, 1.877e-3
-1.231, 1.898e-3
-1.232, 1.916e-3
-1.233, 1.937e-3
-1.234, 1.956e-3
-1.235, 1.974e-3
-1.236, 1.995e-3
-1.237, 2.015e-3
-1.238, 2.038e-3
-1.239, 2.057e-3
-1.240, 2.075e-3
-1.241, 2.095e-3
-1.242, 2.117e-3
-1.243, 2.138e-3
-1.244, 2.156e-3
-1.245, 2.177e-3
-1.246, 2.198e-3
-1.247, 2.223e-3
-1.248, 2.246e-3
-1.249, 2.266e-3
-1.250, 2.288e-3
-1.251, 2.308e-3
-1.252, 2.330e-3
-1.253, 2.349e-3
-1.254, 2.369e-3
-1.255, 2.393e-3
-1.256, 2.417e-3
-1.257, 2.443e-3
-1.258, 2.469e-3
-1.259, 2.493e-3
-1.260, 2.516e-3
-1.261, 2.538e-3
-1.262, 2.559e-3
-1.263, 2.579e-3
-1.264, 2.599e-3
-1.265, 2.622e-3
-1.266, 2.648e-3
-1.267, 2.676e-3
-1.268, 2.706e-3
-1.269, 2.730e-3
-1.270, 2.755e-3
-1.271, 2.781e-3
-1.272, 2.803e-3
-1.273, 2.822e-3
-1.274, 2.843e-3
-1.275, 2.870e-3
-1.276, 2.896e-3
-1.277, 2.928e-3
-1.278, 2.958e-3
-1.279, 2.986e-3
-1.280, 3.013e-3
-1.281, 3.037e-3
-1.282, 3.063e-3
-1.283, 3.083e-3
-1.284, 3.107e-3
-1.285, 3.131e-3
-1.286, 3.164e-3
-1.287, 3.195e-3
-1.288, 3.228e-3
-1.289, 3.259e-3
-1.290, 3.286e-3
-1.291, 3.316e-3
-1.292, 3.342e-3
-1.293, 3.367e-3
-1.294, 3.395e-3
-1.295, 3.426e-3
-1.296, 3.456e-3
-1.297, 3.492e-3
-1.298, 3.530e-3
-1.299, 3.565e-3
-1.300, 3.596e-3
-1.301, 3.623e-3
-1.302, 3.652e-3
-1.303, 3.685e-3
-1.304, 3.714e-3
-1.305, 3.749e-3
-1.306, 3.789e-3
-1.307, 3.826e-3
-1.308, 3.867e-3
-1.309, 3.907e-3
-1.310, 3.935e-3
-1.311, 3.969e-3
-1.312, 4.002e-3
-1.313, 4.037e-3
-1.314, 4.072e-3
-1.315, 4.111e-3
-1.316, 4.153e-3
-1.317, 4.198e-3
-1.318, 4.251e-3
-1.319, 4.299e-3
-1.320, 4.339e-3
-1.321, 4.382e-3
-1.322, 4.422e-3
-1.323, 4.455e-3
-1.324, 4.487e-3
-1.325, 4.519e-3
-1.326, 4.564e-3
-1.327, 4.618e-3
-1.328, 4.674e-3
-1.329, 4.729e-3
-1.330, 4.779e-3
-1.331, 4.826e-3
-1.332, 4.869e-3
-1.333, 4.912e-3
-1.334, 4.957e-3
-1.335, 4.996e-3
-1.336, 5.040e-3
-1.337, 5.089e-3
-1.338, 5.149e-3
-1.339, 5.208e-3
-1.340, 5.265e-3
-1.341, 5.314e-3
-1.342, 5.363e-3
-1.343, 5.415e-3
-1.344, 5.455e-3
-1.345, 5.502e-3
-1.346, 5.553e-3
-1.347, 5.614e-3
-1.348, 5.676e-3
-1.349, 5.745e-3
-1.350, 5.806e-3
-1.351, 5.868e-3
-1.352, 5.932e-3
-1.353, 5.988e-3
-1.354, 6.043e-3
-1.355, 6.093e-3
-1.356, 6.142e-3
-1.357, 6.199e-3
-1.358, 6.267e-3
-1.359, 6.331e-3
-1.360, 6.404e-3
-1.361, 6.463e-3
-1.362, 6.528e-3
-1.363, 6.594e-3
-1.364, 6.643e-3
-1.365, 6.698e-3
-1.366, 6.756e-3
-1.367, 6.825e-3
-1.368, 6.901e-3
-1.369, 6.990e-3
-1.370, 7.067e-3
-1.371, 7.137e-3
-1.372, 7.208e-3
-1.373, 7.275e-3
-1.374, 7.334e-3
-1.375, 7.387e-3
-1.376, 7.456e-3
-1.377, 7.528e-3
-1.378, 7.621e-3
-1.379, 7.713e-3
-1.380, 7.787e-3
-1.381, 7.869e-3
-1.382, 7.956e-3
-1.383, 8.023e-3
-1.384, 8.089e-3
-1.385, 8.149e-3
-1.386, 8.225e-3
-1.387, 8.298e-3
-1.388, 8.382e-3
-1.389, 8.468e-3
-1.390, 8.569e-3
-1.391, 8.660e-3
-1.392, 8.748e-3
-1.393, 8.848e-3
-1.394, 8.912e-3
-1.395, 8.981e-3
-1.396, 9.056e-3
-1.397, 9.135e-3
-1.398, 9.224e-3
-1.399, 9.321e-3
-1.400, 9.302e-3
-1.399, 9.167e-3
-1.398, 9.049e-3
-1.397, 8.932e-3
-1.396, 8.804e-3
-1.395, 8.692e-3
-1.394, 8.596e-3
-1.393, 8.488e-3
-1.392, 8.340e-3
-1.391, 8.242e-3
-1.390, 8.127e-3
-1.389, 7.944e-3
-1.388, 7.801e-3
-1.387, 7.700e-3
-1.386, 7.605e-3
-1.385, 7.518e-3
-1.384, 7.434e-3
-1.383, 7.354e-3
-1.382, 7.277e-3
-1.381, 7.204e-3
-1.380, 7.100e-3
-1.379, 6.993e-3
-1.378, 6.881e-3
-1.377, 6.780e-3
-1.376, 6.686e-3
-1.375, 6.592e-3
-1.374, 6.504e-3
-1.373, 6.440e-3
-1.372, 6.367e-3
-1.371, 6.278e-3
-1.370, 6.196e-3
-1.369, 6.112e-3
-1.368, 6.020e-3
-1.367, 5.924e-3
-1.366, 5.838e-3
-1.365, 5.758e-3
-1.364, 5.681e-3
-1.363, 5.596e-3
-1.362, 5.520e-3
-1.361, 5.441e-3
-1.360, 5.360e-3
-1.359, 5.287e-3
-1.358, 5.199e-3
-1.357, 5.115e-3
-1.356, 5.025e-3
-1.355, 4.939e-3
-1.354, 4.866e-3
-1.353, 4.795e-3
-1.352, 4.725e-3
-1.351, 4.654e-3
-1.350, 4.585e-3
-1.349, 4.498e-3
-1.348, 4.420e-3
-1.347, 4.354e-3
-1.346, 4.289e-3
-1.345, 4.214e-3
-1.344, 4.140e-3
-1.343, 4.071e-3
-1.342, 4.000e-3
-1.341, 3.939e-3
-1.340, 3.891e-3
-1.339, 3.817e-3
-1.338, 3.747e-3
-1.337, 3.686e-3
-1.336, 3.618e-3
-1.335, 3.539e-3
-1.334, 3.460e-3
-1.333, 3.400e-3
-1.332, 3.341e-3
-1.331, 3.273e-3
-1.330, 3.213e-3
-1.329, 3.157e-3
-1.328, 3.095e-3
-1.327, 3.032e-3
-1.326, 2.969e-3
-1.325, 2.907e-3
-1.324, 2.870e-3
-1.323, 2.798e-3
-1.322, 2.748e-3
-1.321, 2.697e-3
-1.320, 2.643e-3
-1.319, 2.589e-3
-1.318, 2.531e-3
-1.317, 2.475e-3
-1.316, 2.416e-3
-1.315, 2.362e-3
-1.314, 2.307e-3
-1.313, 2.252e-3
-1.312, 2.207e-3
-1.311, 2.161e-3
-1.310, 2.114e-3
-1.309, 2.067e-3
-1.308, 2.017e-3
-1.307, 1.969e-3
-1.306, 1.919e-3
-1.305, 1.869e-3
-1.304, 1.825e-3
-1.303, 1.780e-3
-1.302, 1.741e-3
-1.301, 1.700e-3
-1.300, 1.656e-3
-1.299, 1.612e-3
-1.298, 1.569e-3
-1.297, 1.525e-3
-1.296, 1.481e-3
-1.295, 1.444e-3
-1.294, 1.412e-3
-1.293, 1.373e-3
-1.292, 1.334e-3
-1.291, 1.299e-3
-1.290, 1.261e-3
-1.289, 1.222e-3
-1.288, 1.187e-3
-1.287, 1.147e-3
-1.286, 1.109e-3
-1.285, 1.062e-3
-1.284, 1.024e-3
-1.283, 1.008e-3
-1.282, 9.595e-4
-1.281, 9.271e-4
-1.280, 8.945e-4
-1.279, 8.626e-4
-1.278, 8.309e-4
-1.277, 8.022e-4
-1.276, 7.707e-4
-1.275, 7.395e-4
-1.274, 7.088e-4
-1.273, 6.796e-4
-1.272, 6.527e-4
-1.271, 6.249e-4
-1.270, 5.985e-4
-1.269, 5.689e-4
-1.268, 5.411e-4
-1.267, 5.161e-4
-1.266, 4.897e-4
-1.265, 4.616e-4
-1.264, 4.352e-4
-1.263, 4.101e-4
-1.262, 3.872e-4
-1.261, 3.629e-4
-1.260, 3.376e-4
-1.259, 3.138e-4
-1.258, 2.919e-4
-1.257, 2.697e-4
-1.256, 2.478e-4
-1.255, 2.238e-4
-1.254, 2.004e-4
-1.253, 1.795e-4
-1.252, 1.591e-4
-1.251, 1.384e-4
-1.250, 1.164e-4
-1.249, 9.486e-5
-1.248, 7.618e-5
-1.247, 5.721e-5
-1.246, 3.764e-5
-1.245, 1.777e-5
-1.244, -2.547e-6
-1.243, -2.074e-5
-1.242, -3.782e-5
-1.241, -5.655e-5
-1.240, -7.539e-5
-1.239, -9.453e-5
-1.238, -1.118e-4
-1.237, -1.276e-4
-1.236, -1.450e-4
-1.235, -1.632e-4
-1.234, -1.800e-4
-1.233, -1.960e-4
-1.232, -2.095e-4
-1.231, -2.244e-4
-1.230, -2.413e-4
-1.229, -2.601e-4
-1.228, -2.757e-4
-1.227, -2.901e-4
-1.226, -3.046e-4
-1.225, -3.217e-4
-1.224, -3.375e-4
-1.223, -3.517e-4
-1.222, -3.644e-4
-1.221, -3.780e-4
-1.220, -3.937e-4
-1.219, -4.091e-4
-1.218, -4.236e-4
-1.217, -4.372e-4
-1.216, -4.510e-4
-1.215, -4.661e-4
-1.214, -4.812e-4
-1.213, -4.939e-4
-1.212, -5.059e-4
-1.211, -5.182e-4
-1.210, -5.321e-4
-1.209, -5.473e-4
-1.208, -5.603e-4
-1.207, -5.726e-4
-1.206, -5.858e-4
-1.205, -5.992e-4
-1.204, -6.142e-4
-1.203, -6.253e-4
-1.202, -6.354e-4
-1.201, -6.464e-4
-1.200, -6.592e-4
-1.199, -6.747e-4
-1.198, -6.880e-4
-1.197, -7.005e-4
-1.196, -7.126e-4
-1.195, -7.275e-4
-1.194, -7.401e-4
-1.193, -7.508e-4
-1.192, -7.611e-4
-1.191, -7.743e-4
-1.190, -7.870e-4
-1.189, -7.987e-4
-1.188, -8.106e-4
-1.187, -8.223e-4
-1.186, -8.341e-4
-1.185, -8.456e-4
-1.184, -8.573e-4
-1.183, -8.688e-4
-1.182, -8.780e-4
-1.181, -8.880e-4
-1.180, -9.021e-4
-1.179, -9.141e-4
-1.178, -9.254e-4
-1.177, -9.370e-4
-1.176, -9.486e-4
-1.175, -9.603e-4
-1.174, -9.733e-4
-1.173, -9.828e-4
-1.172, -9.926e-4
-1.171, -1.004e-3
-1.170, -1.015e-3
-1.169, -1.028e-3
-1.168, -1.038e-3
-1.167, -1.047e-3
-1.166, -1.057e-3
-1.165, -1.070e-3
-1.164, -1.079e-3
-1.163, -1.090e-3
-1.162, -1.102e-3
-1.161, -1.110e-3
-1.160, -1.121e-3
-1.159, -1.133e-3
-1.158, -1.143e-3
-1.157, -1.152e-3
-1.156, -1.162e-3
-1.155, -1.171e-3
-1.154, -1.183e-3
-1.153, -1.193e-3
-1.152, -1.201e-3
-1.151, -1.209e-3
-1.150, -1.219e-3
-1.149, -1.228e-3
-1.148, -1.237e-3
-1.147, -1.246e-3
-1.146, -1.255e-3
-1.145, -1.267e-3
-1.144, -1.276e-3
-1.143, -1.285e-3
-1.142, -1.292e-3
-1.141, -1.298e-3
-1.140, -1.307e-3
-1.139, -1.316e-3
-1.138, -1.327e-3
-1.137, -1.335e-3
-1.136, -1.342e-3
-1.135, -1.353e-3
-1.134, -1.363e-3
-1.133, -1.370e-3
-1.132, -1.375e-3
-1.131, -1.381e-3
-1.130, -1.391e-3
-1.129, -1.398e-3
-1.128, -1.408e-3
-1.127, -1.418e-3
-1.126, -1.427e-3
-1.125, -1.435e-3
-1.124, -1.444e-3
-1.123, -1.450e-3
-1.122, -1.454e-3
-1.121, -1.459e-3
-1.120, -1.465e-3
-1.119, -1.473e-3
-1.118, -1.481e-3
-1.117, -1.488e-3
-1.116, -1.498e-3
-1.115, -1.507e-3
-1.114, -1.514e-3
-1.113, -1.520e-3
-1.112, -1.523e-3
-1.111, -1.529e-3
-1.110, -1.537e-3
-1.109, -1.544e-3
-1.108, -1.550e-3
-1.107, -1.554e-3
-1.106, -1.559e-3
-1.105, -1.565e-3
-1.104, -1.570e-3
-1.103, -1.574e-3
-1.102, -1.580e-3
-1.101, -1.586e-3
-1.100, -1.592e-3
-1.099, -1.597e-3
-1.098, -1.599e-3
-1.097, -1.600e-3
-1.096, -1.600e-3
-1.095, -1.602e-3
-1.094, -1.606e-3
-1.093, -1.611e-3
-1.092, -1.618e-3
-1.091, -1.623e-3
-1.090, -1.632e-3
-1.089, -1.639e-3
-1.088, -1.642e-3
-1.087, -1.640e-3
-1.086, -1.636e-3
-1.085, -1.634e-3
-1.084, -1.638e-3
-1.083, -1.638e-3
-1.082, -1.639e-3
-1.081, -1.644e-3
-1.080, -1.649e-3
-1.079, -1.651e-3
-1.078, -1.648e-3
-1.077, -1.642e-3
-1.076, -1.638e-3
-1.075, -1.637e-3
-1.074, -1.633e-3
-1.073, -1.631e-3
-1.072, -1.627e-3
-1.071, -1.625e-3
-1.070, -1.623e-3
-1.069, -1.620e-3
-1.068, -1.616e-3
-1.067, -1.608e-3
-1.066, -1.602e-3
-1.065, -1.595e-3
-1.064, -1.588e-3
-1.063, -1.578e-3
-1.062, -1.568e-3
-1.061, -1.561e-3
-1.060, -1.554e-3
-1.059, -1.549e-3
-1.058, -1.537e-3
-1.057, -1.525e-3
-1.056, -1.513e-3
-1.055, -1.499e-3
-1.054, -1.489e-3
-1.053, -1.481e-3
-1.052, -1.471e-3
-1.051, -1.457e-3
-1.050, -1.446e-3
-1.049, -1.437e-3
-1.048, -1.422e-3
-1.047, -1.404e-3
-1.046, -1.390e-3
-1.045, -1.375e-3
-1.044, -1.361e-3
-1.043, -1.348e-3
-1.042, -1.332e-3
-1.041, -1.318e-3
-1.040, -1.304e-3
-1.039, -1.292e-3
-1.038, -1.277e-3
-1.037, -1.261e-3
-1.036, -1.247e-3
-1.035, -1.233e-3
-1.034, -1.219e-3
-1.033, -1.204e-3
-1.032, -1.186e-3
-1.031, -1.171e-3
-1.030, -1.158e-3
-1.029, -1.147e-3
-1.028, -1.133e-3
-1.027, -1.118e-3
-1.026, -1.105e-3
-1.025, -1.094e-3
-1.024, -1.082e-3
-1.023, -1.067e-3
-1.022, -1.056e-3
-1.021, -1.044e-3
-1.020, -1.034e-3
-1.019, -1.023e-3
-1.018, -1.013e-3
-1.017, -1.000e-3
-1.016, -9.886e-4
-1.015, -9.802e-4
-1.014, -9.717e-4
-1.013, -9.605e-4
-1.012, -9.503e-4
-1.011, -9.418e-4
-1.010, -9.335e-4
-1.009, -9.257e-4
-1.008, -9.165e-4
-1.007, -9.075e-4
-1.006, -9.001e-4
-1.005, -8.962e-4
-1.004, -8.912e-4
-1.003, -8.862e-4
-1.002, -8.773e-4
-1.001, -8.650e-4
-1.000, -7.656e-4
-1.001, -6.290e-4
-1.002, -5.427e-4
-1.003, -4.792e-4
-1.004, -4.293e-4
-1.005, -3.925e-4
-1.006, -3.661e-4
-1.007, -3.356e-4
-1.008, -3.069e-4
-1.009, -2.808e-4
-1.010, -2.587e-4
-1.011, -2.405e-4
-1.012, -2.211e-4
-1.013, -2.027e-4
-1.014, -1.858e-4
-1.015, -1.710e-4
-1.016, -1.581e-4
-1.017, -1.431e-4
-1.018, -1.281e-4
-1.019, -1.148e-4
-1.020, -1.031e-4
-1.021, -9.349e-5
-1.022, -8.200e-5
-1.023, -7.058e-5
-1.024, -5.939e-5
-1.025, -5.025e-5
-1.026, -4.218e-5
-1.027, -3.332e-5
-1.028, -2.286e-5
-1.029, -1.418e-5
-1.030, -6.635e-6
-1.031, 4.457e-7
-1.032, 7.369e-6
-1.033, 1.637e-5
-1.034, 2.405e-5
-1.035, 2.941e-5
-1.036, 3.569e-5
-1.037, 4.186e-5
-1.038, 4.935e-5
-1.039, 5.706e-5
-1.040, 6.147e-5
-1.041, 6.603e-5
-1.042, 7.149e-5
-1.043, 7.787e-5
-1.044, 8.301e-5
-1.045, 8.707e-5
-1.046, 9.076e-5
-1.047, 9.564e-5
-1.048, 1.016e-4
-1.049, 1.073e-4
-1.050, 1.118e-4
-1.051, 1.153e-4
-1.052, 1.199e-4
-1.053, 1.257e-4
-1.054, 1.310e-4
-1.055, 1.350e-4
-1.056, 1.377e-4
-1.057, 1.421e-4
-1.058, 1.477e-4
-1.059, 1.528e-4
-1.060, 1.567e-4
-1.061, 1.594e-4
-1.062, 1.639e-4
-1.063, 1.692e-4
-1.064, 1.736e-4
-1.065, 1.768e-4
-1.066, 1.794e-4
-1.067, 1.825e-4
-1.068, 1.876e-4
-1.069, 1.917e-4
-1.070, 1.953e-4
-1.071, 1.982e-4
-1.072, 2.017e-4
-1.073, 2.070e-4
-1.074, 2.113e-4
-1.075, 2.147e-4
-1.076, 2.177e-4
-1.077, 2.208e-4
-1.078, 2.256e-4
-1.079, 2.302e-4
-1.080, 2.324e-4
-1.081, 2.352e-4
-1.082, 2.384e-4
-1.083, 2.433e-4
-1.084, 2.480e-4
-1.085, 2.506e-4
-1.086, 2.534e-4
-1.087, 2.571e-4
-1.088, 2.619e-4
-1.089, 2.663e-4
-1.090, 2.687e-4
-1.091, 2.713e-4
-1.092, 2.749e-4
-1.093, 2.794e-4
-1.094, 2.841e-4
-1.095, 2.876e-4
-1.096, 2.901e-4
-1.097, 2.939e-4
-1.098, 2.985e-4
-1.099, 3.032e-4
-1.100, 3.062e-4
-1.101, 3.084e-4
-1.102, 3.118e-4
-1.103, 3.174e-4
-1.104, 3.220e-4
-1.105, 3.261e-4
-1.106, 3.289e-4
-1.107, 3.324e-4
-1.108, 3.382e-4
-1.109, 3.425e-4
-1.110, 3.457e-4
-1.111, 3.482e-4
-1.112, 3.516e-4
-1.113, 3.573e-4
-1.114, 3.628e-4
-1.115, 3.663e-4
-1.116, 3.704e-4
-1.117, 3.743e-4
-1.118, 3.796e-4
-1.119, 3.831e-4
-1.120, 3.827e-4
-1.121, 3.863e-4
-1.122, 3.914e-4
-1.123, 3.976e-4
-1.124, 4.044e-4
-1.125, 4.086e-4
-1.126, 4.131e-4
-1.127, 4.185e-4
-1.128, 4.246e-4
-1.129, 4.295e-4
-1.130, 4.337e-4
-1.131, 4.366e-4
-1.132, 4.413e-4
-1.133, 4.478e-4
-1.134, 4.552e-4
-1.135, 4.601e-4
-1.136, 4.642e-4
-1.137, 4.703e-4
-1.138, 4.764e-4
-1.139, 4.826e-4
-1.140, 4.873e-4
-1.141, 4.904e-4
-1.142, 4.959e-4
-1.143, 5.034e-4
-1.144, 5.106e-4
-1.145, 5.169e-4
-1.146, 5.219e-4
-1.147, 5.275e-4
-1.148, 5.353e-4
-1.149, 5.416e-4
-1.150, 5.467e-4
-1.151, 5.511e-4
-1.152, 5.568e-4
-1.153, 5.654e-4
-1.154, 5.730e-4
-1.155, 5.816e-4
-1.156, 5.885e-4
-1.157, 5.952e-4
-1.158, 6.037e-4
-1.159, 6.103e-4
-1.160, 6.144e-4
-1.161, 6.194e-4
-1.162, 6.252e-4
-1.163, 6.335e-4
-1.164, 6.430e-4
-1.165, 6.510e-4
-1.166, 6.579e-4
-1.167, 6.661e-4
-1.168, 6.746e-4
-1.169, 6.821e-4
-1.170, 6.886e-4
-1.171, 6.940e-4
-1.172, 7.010e-4
-1.173, 7.098e-4
-1.174, 7.193e-4
-1.175, 7.281e-4
-1.176, 7.362e-4
-1.177, 7.461e-4
-1.178, 7.549e-4
-1.179, 7.641e-4
-1.180, 7.716e-4
-1.181, 7.772e-4
-1.182, 7.847e-4
-1.183, 7.947e-4
-1.184, 8.048e-4
-1.185, 8.146e-4
-1.186, 8.240e-4
-1.187, 8.348e-4
-1.188, 8.457e-4
-1.189, 8.557e-4
-1.190, 8.646e-4
-1.191, 8.711e-4
-1.192, 8.782e-4
-1.193, 8.877e-4
-1.194, 8.989e-4
-1.195, 9.094e-4
-1.196, 9.194e-4
-1.197, 9.309e-4
-1.198, 9.438e-4
-1.199, 9.561e-4
-1.200, 9.658e-4
-1.201, 9.762e-4
-1.202, 9.850e-4
-1.203, 9.956e-4
-1.204, 1.006e-3
-1.205, 1.014e-3
-1.206, 1.025e-3
-1.207, 1.038e-3
-1.208, 1.048e-3
-1.209, 1.062e-3
-1.210, 1.074e-3
-1.211, 1.085e-3
-1.212, 1.094e-3
-1.213, 1.105e-3
-1.214, 1.116e-3
-1.215, 1.127e-3
-1.216, 1.137e-3
-1.217, 1.150e-3
-1.218, 1.165e-3
-1.219, 1.179e-3
-1.220, 1.191e-3
-1.221, 1.203e-3
-1.222, 1.213e-3
-1.223, 1.226e-3
-1.224, 1.237e-3
-1.225, 1.248e-3
-1.226, 1.259e-3
-1.227, 1.272e-3
-1.228, 1.287e-3
-1.229, 1.305e-3
-1.230, 1.318e-3
-1.231, 1.332e-3
-1.232, 1.345e-3
-1.233, 1.356e-3
-1.234, 1.372e-3
-1.235, 1.383e-3
-1.236, 1.393e-3
-1.237, 1.407e-3
-1.238, 1.422e-3
-1.239, 1.439e-3
-1.240, 1.455e-3
-1.241, 1.468e-3
-1.242, 1.480e-3
-1.243, 1.497e-3
-1.244, 1.516e-3
-1.245, 1.529e-3
-1.246, 1.541e-3
-1.247, 1.558e-3
-1.248, 1.575e-3
-1.249, 1.595e-3
-1.250, 1.608e-3
-1.251, 1.612e-3
-1.252, 1.635e-3
-1.253, 1.656e-3
-1.254, 1.671e-3
-1.255, 1.682e-3
-1.256, 1.695e-3
-1.257, 1.710e-3
-1.258, 1.728e-3
-1.259, 1.746e-3
-1.260, 1.765e-3
-1.261, 1.781e-3
-1.262, 1.798e-3
-1.263, 1.818e-3
-1.264, 1.834e-3
-1.265, 1.849e-3
-1.266, 1.867e-3
-1.267, 1.889e-3
-1.268, 1.909e-3
-1.269, 1.930e-3
-1.270, 1.949e-3
-1.271, 1.969e-3
-1.272, 1.994e-3
-1.273, 2.004e-3
-1.274, 2.010e-3
-1.275, 2.033e-3
-1.276, 2.051e-3
-1.277, 2.072e-3
-1.278, 2.101e-3
-1.279, 2.123e-3
-1.280, 2.146e-3
-1.281, 2.169e-3
-1.282, 2.191e-3
-1.283, 2.213e-3
-1.284, 2.236e-3
-1.285, 2.261e-3
-1.286, 2.285e-3
-1.287, 2.309e-3
-1.288, 2.337e-3
-1.289, 2.365e-3
-1.290, 2.409e-3
-1.291, 2.433e-3
-1.292, 2.455e-3
-1.293, 2.479e-3
-1.294, 2.509e-3
-1.295, 2.539e-3
-1.296, 2.566e-3
-1.297, 2.587e-3
-1.298, 2.618e-3
-1.299, 2.642e-3
-1.300, 2.668e-3
-1.301, 2.693e-3
-1.302, 2.734e-3
-1.303, 2.772e-3
-1.304, 2.805e-3
-1.305, 2.842e-3
-1.306, 2.875e-3
-1.307, 2.922e-3
-1.308, 2.957e-3
-1.309, 2.987e-3
-1.310, 3.015e-3
-1.311, 3.046e-3
-1.312, 3.074e-3
-1.313, 3.111e-3
-1.314, 3.136e-3
-1.315, 3.167e-3
-1.316, 3.214e-3
-1.317, 3.257e-3
-1.318, 3.300e-3
-1.319, 3.343e-3
-1.320, 3.381e-3
-1.321, 3.422e-3
-1.322, 3.469e-3
-1.323, 3.503e-3
-1.324, 3.555e-3
-1.325, 3.581e-3
-1.326, 3.614e-3
-1.327, 3.670e-3
-1.328, 3.717e-3
-1.329, 3.771e-3
-1.330, 3.826e-3
-1.331, 3.872e-3
-1.332, 3.916e-3
-1.333, 3.958e-3
-1.334, 4.006e-3
-1.335, 4.052e-3
-1.336, 4.098e-3
-1.337, 4.147e-3
-1.338, 4.198e-3
-1.339, 4.252e-3
-1.340, 4.303e-3
-1.341, 4.355e-3
-1.342, 4.408e-3
-1.343, 4.464e-3
-1.344, 4.527e-3
-1.345, 4.597e-3
-1.346, 4.660e-3
-1.347, 4.736e-3
-1.348, 4.788e-3
-1.349, 4.839e-3
-1.350, 4.899e-3
-1.351, 4.955e-3
-1.352, 5.013e-3
-1.353, 5.071e-3
-1.354, 5.135e-3
-1.355, 5.197e-3
-1.356, 5.257e-3
-1.357, 5.322e-3
-1.358, 5.388e-3
-1.359, 5.453e-3
-1.360, 5.511e-3
-1.361, 5.574e-3
-1.362, 5.639e-3
-1.363, 5.707e-3
-1.364, 5.778e-3
-1.365, 5.849e-3
-1.366, 5.925e-3
-1.367, 5.996e-3
-1.368, 6.058e-3
-1.369, 6.075e-3
-1.370, 6.111e-3
-1.371, 6.179e-3
-1.372, 6.258e-3
-1.373, 6.359e-3
-1.374, 6.477e-3
-1.375, 6.572e-3
-1.376, 6.619e-3
-1.377, 6.728e-3
-1.378, 6.791e-3
-1.379, 6.898e-3
-1.380, 6.936e-3
-1.381, 7.008e-3
-1.382, 7.124e-3
-1.383, 7.194e-3
-1.384, 7.297e-3
-1.385, 7.331e-3
-1.386, 7.407e-3
-1.387, 7.505e-3
-1.388, 7.591e-3
-1.389, 7.668e-3
-1.390, 7.741e-3
-1.391, 7.817e-3
-1.392, 7.904e-3
-1.393, 7.965e-3
-1.394, 8.067e-3
-1.395, 8.166e-3
-1.396, 8.270e-3
-1.397, 8.351e-3
-1.398, 8.407e-3
-1.399, 8.526e-3
-1.400, 8.484e-3
-1.399, 8.322e-3
-1.398, 8.200e-3
-1.397, 8.096e-3
-1.396, 8.006e-3
-1.395, 7.907e-3
-1.394, 7.832e-3
-1.393, 7.750e-3
-1.392, 7.676e-3
-1.391, 7.562e-3
-1.390, 7.457e-3
-1.389, 7.363e-3
-1.388, 7.256e-3
-1.387, 7.163e-3
-1.386, 7.053e-3
-1.385, 6.972e-3
-1.384, 6.911e-3
-1.383, 6.825e-3
-1.382, 6.737e-3
-1.381, 6.656e-3
-1.380, 6.555e-3
-1.379, 6.471e-3
-1.378, 6.387e-3
-1.377, 6.297e-3
-1.376, 6.216e-3
-1.375, 6.139e-3
-1.374, 6.059e-3
-1.373, 5.990e-3
-1.372, 5.908e-3
-1.371, 5.827e-3
-1.370, 5.740e-3
-1.369, 5.648e-3
-1.368, 5.557e-3
-1.367, 5.466e-3
-1.366, 5.391e-3
-1.365, 5.316e-3
-1.364, 5.244e-3
-1.363, 5.159e-3
-1.362, 5.087e-3
-1.361, 5.016e-3
-1.360, 4.938e-3
-1.359, 4.856e-3
-1.358, 4.775e-3
-1.357, 4.702e-3
-1.356, 4.629e-3
-1.355, 4.562e-3
-1.354, 4.488e-3
-1.353, 4.416e-3
-1.352, 4.349e-3
-1.351, 4.284e-3
-1.350, 4.213e-3
-1.349, 4.141e-3
-1.348, 4.069e-3
-1.347, 4.004e-3
-1.346, 3.934e-3
-1.345, 3.862e-3
-1.344, 3.794e-3
-1.343, 3.724e-3
-1.342, 3.663e-3
-1.341, 3.606e-3
-1.340, 3.548e-3
-1.339, 3.488e-3
-1.338, 3.422e-3
-1.337, 3.362e-3
-1.336, 3.301e-3
-1.335, 3.236e-3
-1.334, 3.170e-3
-1.333, 3.110e-3
-1.332, 3.053e-3
-1.331, 3.000e-3
-1.330, 2.939e-3
-1.329, 2.879e-3
-1.328, 2.824e-3
-1.327, 2.766e-3
-1.326, 2.708e-3
-1.325, 2.648e-3
-1.324, 2.591e-3
-1.323, 2.540e-3
-1.322, 2.488e-3
-1.321, 2.433e-3
-1.320, 2.382e-3
-1.319, 2.330e-3
-1.318, 2.278e-3
-1.317, 2.224e-3
-1.316, 2.174e-3
-1.315, 2.126e-3
-1.314, 2.077e-3
-1.313, 2.033e-3
-1.312, 1.987e-3
-1.311, 1.941e-3
-1.310, 1.895e-3
-1.309, 1.846e-3
-1.308, 1.797e-3
-1.307, 1.749e-3
-1.306, 1.708e-3
-1.305, 1.666e-3
-1.304, 1.623e-3
-1.303, 1.582e-3
-1.302, 1.542e-3
-1.301, 1.503e-3
-1.300, 1.460e-3
-1.299, 1.416e-3
-1.298, 1.373e-3
-1.297, 1.334e-3
-1.296, 1.297e-3
-1.295, 1.258e-3
-1.294, 1.220e-3
-1.293, 1.183e-3
-1.292, 1.149e-3
-1.291, 1.115e-3
-1.290, 1.082e-3
-1.289, 1.045e-3
-1.288, 1.010e-3
-1.287, 9.759e-4
-1.286, 9.428e-4
-1.285, 9.098e-4
-1.284, 8.752e-4
-1.283, 8.428e-4
-1.282, 8.128e-4
-1.281, 7.855e-4
-1.280, 7.558e-4
-1.279, 7.257e-4
-1.278, 6.961e-4
-1.277, 6.683e-4
-1.276, 6.392e-4
-1.275, 6.101e-4
-1.274, 5.817e-4
-1.273, 5.526e-4
-1.272, 5.279e-4
-1.271, 5.041e-4
-1.270, 4.797e-4
-1.269, 4.537e-4
-1.268, 4.267e-4
-1.267, 4.026e-4
-1.266, 3.799e-4
-1.265, 3.551e-4
-1.264, 3.307e-4
-1.263, 3.068e-4
-1.262, 2.850e-4
-1.261, 2.644e-4
-1.260, 2.420e-4
-1.259, 2.191e-4
-1.258, 1.972e-4
-1.257, 1.765e-4
-1.256, 1.579e-4
-1.255, 1.373e-4
-1.254, 1.154e-4
-1.253, 9.517e-5
-1.252, 7.627e-5
-1.251, 5.994e-5
-1.250, 4.213e-5
-1.249, 2.144e-5
-1.248, 2.450e-6
-1.247, -1.483e-5
-1.246, -3.179e-5
-1.245, -4.857e-5
-1.244, -6.752e-5
-1.243, -8.540e-5
-1.242, -1.013e-4
-1.241, -1.170e-4
-1.240, -1.322e-4
-1.239, -1.499e-4
-1.238, -1.668e-4
-1.237, -1.821e-4
-1.236, -1.959e-4
-1.235, -2.113e-4
-1.234, -2.275e-4
-1.233, -2.436e-4
-1.232, -2.570e-4
-1.231, -2.703e-4
-1.230, -2.841e-4
-1.229, -3.017e-4
-1.228, -3.169e-4
-1.227, -3.298e-4
-1.226, -3.420e-4
-1.225, -3.554e-4
-1.224, -3.699e-4
-1.223, -3.845e-4
-1.222, -3.980e-4
-1.221, -4.090e-4
-1.220, -4.221e-4
-1.219, -4.360e-4
-1.218, -4.491e-4
-1.217, -4.612e-4
-1.216, -4.717e-4
-1.215, -4.848e-4
-1.214, -4.990e-4
-1.213, -5.126e-4
-1.212, -5.250e-4
-1.211, -5.355e-4
-1.210, -5.474e-4
-1.209, -5.603e-4
-1.208, -5.724e-4
-1.207, -5.820e-4
-1.206, -5.923e-4
-1.205, -6.039e-4
-1.204, -6.182e-4
-1.203, -6.313e-4
-1.202, -6.434e-4
-1.201, -6.541e-4
-1.200, -6.644e-4
-1.199, -6.766e-4
-1.198, -6.884e-4
-1.197, -6.973e-4
-1.196, -7.066e-4
-1.195, -7.168e-4
-1.194, -7.289e-4
-1.193, -7.417e-4
-1.192, -7.524e-4
-1.191, -7.626e-4
-1.190, -7.738e-4
-1.189, -7.849e-4
-1.188, -7.965e-4
-1.187, -8.057e-4
-1.186, -8.131e-4
-1.185, -8.191e-4
-1.184, -8.297e-4
-1.183, -8.424e-4
-1.182, -8.530e-4
-1.181, -8.640e-4
-1.180, -8.769e-4
-1.179, -8.884e-4
-1.178, -8.990e-4
-1.177, -9.079e-4
-1.176, -9.152e-4
-1.175, -9.261e-4
-1.174, -9.369e-4
-1.173, -9.480e-4
-1.172, -9.598e-4
-1.171, -9.677e-4
-1.170, -9.763e-4
-1.169, -9.877e-4
-1.168, -9.967e-4
-1.167, -1.004e-3
-1.166, -1.011e-3
-1.165, -1.019e-3
-1.164, -1.031e-3
-1.163, -1.042e-3
-1.162, -1.053e-3
-1.161, -1.063e-3
-1.160, -1.070e-3
-1.159, -1.080e-3
-1.158, -1.091e-3
-1.157, -1.098e-3
-1.156, -1.104e-3
-1.155, -1.112e-3
-1.154, -1.123e-3
-1.153, -1.135e-3
-1.152, -1.145e-3
-1.151, -1.155e-3
-1.150, -1.165e-3
-1.149, -1.174e-3
-1.148, -1.184e-3
-1.147, -1.191e-3
-1.146, -1.196e-3
-1.145, -1.203e-3
-1.144, -1.213e-3
-1.143, -1.222e-3
-1.142, -1.232e-3
-1.141, -1.239e-3
-1.140, -1.249e-3
-1.139, -1.260e-3
-1.138, -1.269e-3
-1.137, -1.278e-3
-1.136, -1.282e-3
-1.135, -1.289e-3
-1.134, -1.296e-3
-1.133, -1.304e-3
-1.132, -1.313e-3
-1.131, -1.319e-3
-1.130, -1.331e-3
-1.129, -1.349e-3
-1.128, -1.357e-3
-1.127, -1.364e-3
-1.126, -1.370e-3
-1.125, -1.373e-3
-1.124, -1.378e-3
-1.123, -1.388e-3
-1.122, -1.393e-3
-1.121, -1.399e-3
-1.120, -1.409e-3
-1.119, -1.422e-3
-1.118, -1.433e-3
-1.117, -1.437e-3
-1.116, -1.441e-3
-1.115, -1.446e-3
-1.114, -1.451e-3
-1.113, -1.459e-3
-1.112, -1.463e-3
-1.111, -1.469e-3
-1.110, -1.477e-3
-1.109, -1.486e-3
-1.108, -1.494e-3
-1.107, -1.501e-3
-1.106, -1.505e-3
-1.105, -1.507e-3
-1.104, -1.510e-3
-1.103, -1.516e-3
-1.102, -1.524e-3
-1.101, -1.530e-3
-1.100, -1.536e-3
-1.099, -1.544e-3
-1.098, -1.558e-3
-1.097, -1.561e-3
-1.096, -1.557e-3
-1.095, -1.562e-3
-1.094, -1.560e-3
-1.093, -1.567e-3
-1.092, -1.575e-3
-1.091, -1.574e-3
-1.090, -1.577e-3
-1.089, -1.585e-3
-1.088, -1.584e-3
-1.087, -1.586e-3
-1.086, -1.591e-3
-1.085, -1.589e-3
-1.084, -1.590e-3
-1.083, -1.595e-3
-1.082, -1.593e-3
-1.081, -1.590e-3
-1.080, -1.596e-3
-1.079, -1.589e-3
-1.078, -1.587e-3
-1.077, -1.592e-3
-1.076, -1.592e-3
-1.075, -1.591e-3
-1.074, -1.592e-3
-1.073, -1.592e-3
-1.072, -1.585e-3
-1.071, -1.578e-3
-1.070, -1.572e-3
-1.069, -1.566e-3
-1.068, -1.560e-3
-1.067, -1.555e-3
-1.066, -1.553e-3
-1.065, -1.549e-3
-1.064, -1.542e-3
-1.063, -1.534e-3
-1.062, -1.524e-3
-1.061, -1.509e-3
-1.060, -1.497e-3
-1.059, -1.485e-3
-1.058, -1.477e-3
-1.057, -1.468e-3
-1.056, -1.452e-3
-1.055, -1.441e-3
-1.054, -1.430e-3
-1.053, -1.419e-3
-1.052, -1.405e-3
-1.051, -1.387e-3
-1.050, -1.376e-3
-1.049, -1.361e-3
-1.048, -1.347e-3
-1.047, -1.332e-3
-1.046, -1.316e-3
-1.045, -1.296e-3
-1.044, -1.280e-3
-1.043, -1.265e-3
-1.042, -1.247e-3
-1.041, -1.231e-3
-1.040, -1.215e-3
-1.039, -1.201e-3
-1.038, -1.188e-3
-1.037, -1.175e-3
-1.036, -1.157e-3
-1.035, -1.140e-3
-1.034, -1.124e-3
-1.033, -1.110e-3
-1.032, -1.095e-3
-1.031, -1.078e-3
-1.030, -1.058e-3
-1.029, -1.043e-3
-1.028, -1.038e-3
-1.027, -1.027e-3
-1.026, -1.012e-3
-1.025, -9.997e-4
-1.024, -9.906e-4
-1.023, -9.829e-4
-1.022, -9.726e-4
-1.021, -9.608e-4
-1.020, -9.483e-4
-1.019, -9.372e-4
-1.018, -9.272e-4
-1.017, -9.184e-4
-1.016, -9.086e-4
-1.015, -9.010e-4
-1.014, -8.958e-4
-1.013, -8.897e-4
-1.012, -8.820e-4
-1.011, -8.741e-4
-1.010, -8.654e-4
-1.009, -8.607e-4
-1.008, -8.548e-4
-1.007, -8.487e-4
-1.006, -8.409e-4
-1.005, -8.302e-4
-1.004, -8.267e-4
-1.003, -8.239e-4
-1.002, -8.202e-4
-1.001, -8.158e-4
-1.000, -7.098e-4
-1.001, -5.657e-4
-1.002, -4.787e-4
-1.003, -4.163e-4
-1.004, -3.673e-4
-1.005, -3.295e-4
-1.006, -2.976e-4
-1.007, -2.711e-4
-1.008, -2.472e-4
-1.009, -2.240e-4
-1.010, -2.038e-4
-1.011, -1.870e-4
-1.012, -1.723e-4
-1.013, -1.572e-4
-1.014, -1.413e-4
-1.015, -1.266e-4
-1.016, -1.152e-4
-1.017, -1.045e-4
-1.018, -9.344e-5
-1.019, -8.162e-5
-1.020, -7.085e-5
-1.021, -6.276e-5
-1.022, -5.534e-5
-1.023, -4.606e-5
-1.024, -3.635e-5
-1.025, -2.811e-5
-1.026, -2.158e-5
-1.027, -1.544e-5
-1.028, -7.739e-6
-1.029, 2.553e-7
-1.030, 7.618e-6
-1.031, 1.362e-5
-1.032, 1.844e-5
-1.033, 2.551e-5
-1.034, 3.269e-5
-1.035, 3.917e-5
-1.036, 4.436e-5
-1.037, 4.812e-5
-1.038, 5.422e-5
-1.039, 6.092e-5
-1.040, 6.631e-5
-1.041, 7.100e-5
-1.042, 7.438e-5
-1.043, 7.934e-5
-1.044, 8.551e-5
-1.045, 9.037e-5
-1.046, 9.395e-5
-1.047, 9.735e-5
-1.048, 1.019e-4
-1.049, 1.078e-4
-1.050, 1.129e-4
-1.051, 1.154e-4
-1.052, 1.186e-4
-1.053, 1.224e-4
-1.054, 1.276e-4
-1.055, 1.320e-4
-1.056, 1.345e-4
-1.057, 1.371e-4
-1.058, 1.412e-4
-1.059, 1.465e-4
-1.060, 1.513e-4
-1.061, 1.537e-4
-1.062, 1.561e-4
-1.063, 1.600e-4
-1.064, 1.643e-4
-1.065, 1.689e-4
-1.066, 1.711e-4
-1.067, 1.728e-4
-1.068, 1.769e-4
-1.069, 1.814e-4
-1.070, 1.858e-4
-1.071, 1.889e-4
-1.072, 1.904e-4
-1.073, 1.942e-4
-1.074, 1.994e-4
-1.075, 2.043e-4
-1.076, 2.065e-4
-1.077, 2.081e-4
-1.078, 2.117e-4
-1.079, 2.168e-4
-1.080, 2.204e-4
-1.081, 2.237e-4
-1.082, 2.257e-4
-1.083, 2.289e-4
-1.084, 2.343e-4
-1.085, 2.373e-4
-1.086, 2.400e-4
-1.087, 2.423e-4
-1.088, 2.457e-4
-1.089, 2.512e-4
-1.090, 2.551e-4
-1.091, 2.587e-4
-1.092, 2.620e-4
-1.093, 2.649e-4
-1.094, 2.691e-4
-1.095, 2.733e-4
-1.096, 2.749e-4
-1.097, 2.775e-4
-1.098, 2.811e-4
-1.099, 2.867e-4
-1.100, 2.924e-4
-1.101, 2.945e-4
-1.102, 2.968e-4
-1.103, 3.003e-4
-1.104, 3.045e-4
-1.105, 3.088e-4
-1.106, 3.115e-4
-1.107, 3.139e-4
-1.108, 3.186e-4
-1.109, 3.234e-4
-1.110, 3.285e-4
-1.111, 3.320e-4
-1.112, 3.334e-4
-1.113, 3.376e-4
-1.114, 3.434e-4
-1.115, 3.479e-4
-1.116, 3.515e-4
-1.117, 3.542e-4
-1.118, 3.582e-4
-1.119, 3.640e-4
-1.120, 3.686e-4
-1.121, 3.722e-4
-1.122, 3.762e-4
-1.123, 3.821e-4
-1.124, 3.888e-4
-1.125, 3.944e-4
-1.126, 3.981e-4
-1.127, 4.000e-4
-1.128, 4.039e-4
-1.129, 4.095e-4
-1.130, 4.143e-4
-1.131, 4.213e-4
-1.132, 4.251e-4
-1.133, 4.302e-4
-1.134, 4.381e-4
-1.135, 4.441e-4
-1.136, 4.474e-4
-1.137, 4.507e-4
-1.138, 4.552e-4
-1.139, 4.605e-4
-1.140, 4.670e-4
-1.141, 4.707e-4
-1.142, 4.757e-4
-1.143, 4.820e-4
-1.144, 4.895e-4
-1.145, 4.969e-4
-1.146, 5.017e-4
-1.147, 5.056e-4
-1.148, 5.108e-4
-1.149, 5.171e-4
-1.150, 5.240e-4
-1.151, 5.297e-4
-1.152, 5.344e-4
-1.153, 5.419e-4
-1.154, 5.496e-4
-1.155, 5.576e-4
-1.156, 5.643e-4
-1.157, 5.686e-4
-1.158, 5.746e-4
-1.159, 5.818e-4
-1.160, 5.890e-4
-1.161, 5.961e-4
-1.162, 6.013e-4
-1.163, 6.088e-4
-1.164, 6.194e-4
-1.165, 6.274e-4
-1.166, 6.343e-4
-1.167, 6.402e-4
-1.168, 6.460e-4
-1.169, 6.527e-4
-1.170, 6.613e-4
-1.171, 6.687e-4
-1.172, 6.758e-4
-1.173, 6.841e-4
-1.174, 6.944e-4
-1.175, 7.040e-4
-1.176, 7.108e-4
-1.177, 7.171e-4
-1.178, 7.249e-4
-1.179, 7.318e-4
-1.180, 7.408e-4
-1.181, 7.476e-4
-1.182, 7.556e-4
-1.183, 7.653e-4
-1.184, 7.767e-4
-1.185, 7.864e-4
-1.186, 7.952e-4
-1.187, 8.027e-4
-1.188, 8.101e-4
-1.189, 8.194e-4
-1.190, 8.276e-4
-1.191, 8.352e-4
-1.192, 8.426e-4
-1.193, 8.531e-4
-1.194, 8.649e-4
-1.195, 8.763e-4
-1.196, 8.856e-4
-1.197, 8.934e-4
-1.198, 9.022e-4
-1.199, 9.124e-4
-1.200, 9.210e-4
-1.201, 9.283e-4
-1.202, 9.366e-4
-1.203, 9.470e-4
-1.204, 9.597e-4
-1.205, 9.711e-4
-1.206, 9.827e-4
-1.207, 9.931e-4
-1.208, 1.003e-3
-1.209, 1.016e-3
-1.210, 1.030e-3
-1.211, 1.039e-3
-1.212, 1.045e-3
-1.213, 1.054e-3
-1.214, 1.064e-3
-1.215, 1.077e-3
-1.216, 1.088e-3
-1.217, 1.098e-3
-1.218, 1.109e-3
-1.219, 1.122e-3
-1.220, 1.135e-3
-1.221, 1.145e-3
-1.222, 1.154e-3
-1.223, 1.164e-3
-1.224, 1.173e-3
-1.225, 1.186e-3
-1.226, 1.198e-3
-1.227, 1.210e-3
-1.228, 1.222e-3
-1.229, 1.238e-3
-1.230, 1.251e-3
-1.231, 1.262e-3
-1.232, 1.272e-3
-1.233, 1.282e-3
-1.234, 1.294e-3
-1.235, 1.306e-3
-1.236, 1.319e-3
-1.237, 1.333e-3
-1.238, 1.347e-3
-1.239, 1.362e-3
-1.240, 1.377e-3
-1.241, 1.388e-3
-1.242, 1.399e-3
-1.243, 1.409e-3
-1.244, 1.423e-3
-1.245, 1.437e-3
-1.246, 1.452e-3
-1.247, 1.464e-3
-1.248, 1.479e-3
-1.249, 1.496e-3
-1.250, 1.512e-3
-1.251, 1.523e-3
-1.252, 1.536e-3
-1.253, 1.550e-3
-1.254, 1.564e-3
-1.255, 1.582e-3
-1.256, 1.597e-3
-1.257, 1.609e-3
-1.258, 1.623e-3
-1.259, 1.640e-3
-1.260, 1.658e-3
-1.261, 1.672e-3
-1.262, 1.688e-3
-1.263, 1.704e-3
-1.264, 1.723e-3
-1.265, 1.740e-3
-1.266, 1.755e-3
-1.267, 1.770e-3
-1.268, 1.785e-3
-1.269, 1.805e-3
-1.270, 1.826e-3
-1.271, 1.847e-3
-1.272, 1.861e-3
-1.273, 1.880e-3
-1.274, 1.901e-3
-1.275, 1.922e-3
-1.276, 1.940e-3
-1.277, 1.957e-3
-1.278, 1.976e-3
-1.279, 2.000e-3
-1.280, 2.023e-3
-1.281, 2.047e-3
-1.282, 2.067e-3
-1.283, 2.089e-3
-1.284, 2.118e-3
-1.285, 2.143e-3
-1.286, 2.169e-3
-1.287, 2.188e-3
-1.288, 2.209e-3
-1.289, 2.233e-3
-1.290, 2.256e-3
-1.291, 2.282e-3
-1.292, 2.310e-3
-1.293, 2.336e-3
-1.294, 2.372e-3
-1.295, 2.402e-3
-1.296, 2.426e-3
-1.297, 2.455e-3
-1.298, 2.481e-3
-1.299, 2.505e-3
-1.300, 2.534e-3
-1.301, 2.564e-3
-1.302, 2.594e-3
-1.303, 2.624e-3
-1.304, 2.657e-3
-1.305, 2.691e-3
-1.306, 2.723e-3
-1.307, 2.755e-3
-1.308, 2.790e-3
-1.309, 2.823e-3
-1.310, 2.859e-3
-1.311, 2.892e-3
-1.312, 2.924e-3
-1.313, 2.955e-3
-1.314, 2.989e-3
-1.315, 3.029e-3
-1.316, 3.068e-3
-1.317, 3.107e-3
-1.318, 3.150e-3
-1.319, 3.192e-3
-1.320, 3.234e-3
-1.321, 3.274e-3
-1.322, 3.306e-3
-1.323, 3.340e-3
-1.324, 3.385e-3
-1.325, 3.428e-3
-1.326, 3.466e-3
-1.327, 3.514e-3
-1.328, 3.567e-3
-1.329, 3.613e-3
-1.330, 3.664e-3
-1.331, 3.713e-3
-1.332, 3.752e-3
-1.333, 3.795e-3
-1.334, 3.842e-3
-1.335, 3.885e-3
-1.336, 3.933e-3
-1.337, 3.985e-3
-1.338, 4.038e-3
-1.339, 4.097e-3
-1.340, 4.150e-3
-1.341, 4.202e-3
-1.342, 4.250e-3
-1.343, 4.296e-3
-1.344, 4.346e-3
-1.345, 4.390e-3
-1.346, 4.448e-3
-1.347, 4.513e-3
-1.348, 4.566e-3
-1.349, 4.623e-3
-1.350, 4.684e-3
-1.351, 4.741e-3
-1.352, 4.795e-3
-1.353, 4.847e-3
-1.354, 4.909e-3
-1.355, 4.972e-3
-1.356, 5.041e-3
-1.357, 5.106e-3
-1.358, 5.169e-3
-1.359, 5.231e-3
-1.360, 5.294e-3
-1.361, 5.363e-3
-1.362, 5.423e-3
-1.363, 5.489e-3
-1.364, 5.559e-3
-1.365, 5.624e-3
-1.366, 5.698e-3
-1.367, 5.760e-3
-1.368, 5.832e-3
-1.369, 5.910e-3
-1.370, 5.988e-3
-1.371, 6.052e-3
-1.372, 6.123e-3
-1.373, 6.195e-3
-1.374, 6.260e-3
-1.375, 6.330e-3
-1.376, 6.395e-3
-1.377, 6.466e-3
-1.378, 6.545e-3
-1.379, 6.626e-3
-1.380, 6.702e-3
-1.381, 6.777e-3
-1.382, 6.860e-3
-1.383, 6.933e-3
-1.384, 6.994e-3
-1.385, 7.069e-3
-1.386, 7.178e-3
-1.387, 7.255e-3
-1.388, 7.345e-3
-1.389, 7.434e-3
-1.390, 7.501e-3
-1.391, 7.582e-3
-1.392, 7.674e-3
-1.393, 7.769e-3
-1.394, 7.857e-3
-1.395, 7.912e-3
-1.396, 7.959e-3
-1.397, 8.051e-3
-1.398, 8.138e-3
-1.399, 8.216e-3
-1.400, 8.211e-3
-1.399, 8.097e-3
-1.398, 7.943e-3
-1.397, 7.833e-3
-1.396, 7.742e-3
-1.395, 7.651e-3
-1.394, 7.602e-3
-1.393, 7.534e-3
-1.392, 7.461e-3
-1.391, 7.392e-3
-1.390, 7.274e-3
-1.389, 7.160e-3
-1.388, 7.051e-3
-1.387, 6.959e-3
-1.386, 6.877e-3
-1.385, 6.797e-3
-1.384, 6.702e-3
-1.383, 6.610e-3
-1.382, 6.515e-3
-1.381, 6.424e-3
-1.380, 6.332e-3
-1.379, 6.259e-3
-1.378, 6.178e-3
-1.377, 6.095e-3
-1.376, 6.023e-3
-1.375, 5.949e-3
-1.374, 5.863e-3
-1.373, 5.767e-3
-1.372, 5.676e-3
-1.371, 5.583e-3
-1.370, 5.503e-3
-1.369, 5.421e-3
-1.368, 5.336e-3
-1.367, 5.261e-3
-1.366, 5.193e-3
-1.365, 5.123e-3
-1.364, 5.043e-3
-1.363, 4.961e-3
-1.362, 4.883e-3
-1.361, 4.816e-3
-1.360, 4.748e-3
-1.359, 4.676e-3
-1.358, 4.594e-3
-1.357, 4.521e-3
-1.356, 4.443e-3
-1.355, 4.368e-3
-1.354, 4.293e-3
-1.353, 4.221e-3
-1.352, 4.154e-3
-1.351, 4.092e-3
-1.350, 4.031e-3
-1.349, 3.964e-3
-1.348, 3.895e-3
-1.347, 3.826e-3
-1.346, 3.757e-3
-1.345, 3.688e-3
-1.344, 3.625e-3
-1.343, 3.562e-3
-1.342, 3.551e-3
-1.341, 3.484e-3
-1.340, 3.421e-3
-1.339, 3.364e-3
-1.338, 3.295e-3
-1.337, 3.225e-3
-1.336, 3.164e-3
-1.335, 3.105e-3
-1.334, 3.042e-3
-1.333, 2.989e-3
-1.332, 2.935e-3
-1.331, 2.884e-3
-1.330, 2.824e-3
-1.329, 2.766e-3
-1.328, 2.712e-3
-1.327, 2.649e-3
-1.326, 2.593e-3
-1.325, 2.538e-3
-1.324, 2.475e-3
-1.323, 2.424e-3
-1.322, 2.371e-3
-1.321, 2.318e-3
-1.320, 2.280e-3
-1.319, 2.222e-3
-1.318, 2.164e-3
-1.317, 2.118e-3
-1.316, 2.069e-3
-1.315, 2.026e-3
-1.314, 1.981e-3
-1.313, 1.932e-3
-1.312, 1.884e-3
-1.311, 1.836e-3
-1.310, 1.791e-3
-1.309, 1.747e-3
-1.308, 1.700e-3
-1.307, 1.658e-3
-1.306, 1.617e-3
-1.305, 1.577e-3
-1.304, 1.535e-3
-1.303, 1.486e-3
-1.302, 1.440e-3
-1.301, 1.398e-3
-1.300, 1.360e-3
-1.299, 1.322e-3
-1.298, 1.284e-3
-1.297, 1.246e-3
-1.296, 1.212e-3
-1.295, 1.178e-3
-1.294, 1.141e-3
-1.293, 1.105e-3
-1.292, 1.066e-3
-1.291, 1.031e-3
-1.290, 9.992e-4
-1.289, 9.663e-4
-1.288, 9.315e-4
-1.287, 8.998e-4
-1.286, 8.702e-4
-1.285, 8.381e-4
-1.284, 8.059e-4
-1.283, 7.738e-4
-1.282, 7.438e-4
-1.281, 7.159e-4
-1.280, 6.879e-4
-1.279, 6.602e-4
-1.278, 6.314e-4
-1.277, 6.036e-4
-1.276, 5.752e-4
-1.275, 5.489e-4
-1.274, 5.219e-4
-1.273, 4.938e-4
-1.272, 4.681e-4
-1.271, 4.441e-4
-1.270, 4.209e-4
-1.269, 3.975e-4
-1.268, 3.759e-4
-1.267, 3.525e-4
-1.266, 3.302e-4
-1.265, 3.075e-4
-1.264, 2.843e-4
-1.263, 2.601e-4
-1.262, 2.375e-4
-1.261, 2.173e-4
-1.260, 1.976e-4
-1.259, 1.774e-4
-1.258, 1.562e-4
-1.257, 1.370e-4
-1.256, 1.193e-4
-1.255, 1.005e-4
-1.254, 8.065e-5
-1.253, 6.036e-5
-1.252, 4.160e-5
-1.251, 2.482e-5
-1.250, 8.003e-6
-1.249, -1.094e-5
-1.248, -2.898e-5
-1.247, -4.657e-5
-1.246, -6.235e-5
-1.245, -7.657e-5
-1.244, -9.291e-5
-1.243, -1.090e-4
-1.242, -1.242e-4
-1.241, -1.399e-4
-1.240, -1.540e-4
-1.239, -1.708e-4
-1.238, -1.891e-4
-1.237, -2.039e-4
-1.236, -2.169e-4
-1.235, -2.300e-4
-1.234, -2.442e-4
-1.233, -2.595e-4
-1.232, -2.728e-4
-1.231, -2.851e-4
-1.230, -2.980e-4
-1.229, -3.145e-4
-1.228, -3.296e-4
-1.227, -3.438e-4
-1.226, -3.552e-4
-1.225, -3.664e-4
-1.224, -3.779e-4
-1.223, -3.915e-4
-1.222, -4.045e-4
-1.221, -4.152e-4
-1.220, -4.265e-4
-1.219, -4.395e-4
-1.218, -4.537e-4
-1.217, -4.665e-4
-1.216, -4.772e-4
-1.215, -4.879e-4
-1.214, -4.998e-4
-1.213, -5.116e-4
-1.212, -5.229e-4
-1.211, -5.332e-4
-1.210, -5.432e-4
-1.209, -5.553e-4
-1.208, -5.680e-4
-1.207, -5.804e-4
-1.206, -5.901e-4
-1.205, -5.993e-4
-1.204, -6.110e-4
-1.203, -6.229e-4
-1.202, -6.314e-4
-1.201, -6.377e-4
-1.200, -6.471e-4
-1.199, -6.596e-4
-1.198, -6.719e-4
-1.197, -6.826e-4
-1.196, -6.928e-4
-1.195, -7.021e-4
-1.194, -7.125e-4
-1.193, -7.234e-4
-1.192, -7.326e-4
-1.191, -7.412e-4
-1.190, -7.498e-4
-1.189, -7.607e-4
-1.188, -7.745e-4
-1.187, -7.865e-4
-1.186, -7.952e-4
-1.185, -8.036e-4
-1.184, -8.117e-4
-1.183, -8.217e-4
-1.182, -8.304e-4
-1.181, -8.382e-4
-1.180, -8.485e-4
-1.179, -8.602e-4
-1.178, -8.722e-4
-1.177, -8.844e-4
-1.176, -8.913e-4
-1.175, -8.981e-4
-1.174, -9.061e-4
-1.173, -9.175e-4
-1.172, -9.274e-4
-1.171, -9.369e-4
-1.170, -9.465e-4
-1.169, -9.563e-4
-1.168, -9.640e-4
-1.167, -9.733e-4
-1.166, -9.812e-4
-1.165, -9.867e-4
-1.164, -9.966e-4
-1.163, -1.008e-3
-1.162, -1.018e-3
-1.161, -1.025e-3
-1.160, -1.033e-3
-1.159, -1.042e-3
-1.158, -1.052e-3
-1.157, -1.062e-3
-1.156, -1.070e-3
-1.155, -1.077e-3
-1.154, -1.087e-3
-1.153, -1.097e-3
-1.152, -1.105e-3
-1.151, -1.111e-3
-1.150, -1.117e-3
-1.149, -1.128e-3
-1.148, -1.139e-3
-1.147, -1.150e-3
-1.146, -1.158e-3
-1.145, -1.168e-3
-1.144, -1.175e-3
-1.143, -1.180e-3
-1.142, -1.188e-3
-1.141, -1.194e-3
-1.140, -1.201e-3
-1.139, -1.212e-3
-1.138, -1.224e-3
-1.137, -1.237e-3
-1.136, -1.241e-3
-1.135, -1.249e-3
-1.134, -1.255e-3
-1.133, -1.262e-3
-1.132, -1.268e-3
-1.131, -1.274e-3
-1.130, -1.281e-3
-1.129, -1.292e-3
-1.128, -1.301e-3
-1.127, -1.312e-3
-1.126, -1.322e-3
-1.125, -1.327e-3
-1.124, -1.334e-3
-1.123, -1.342e-3
-1.122, -1.347e-3
-1.121, -1.351e-3
-1.120, -1.354e-3
-1.119, -1.362e-3
-1.118, -1.373e-3
-1.117, -1.379e-3
-1.116, -1.388e-3
-1.115, -1.395e-3
-1.114, -1.404e-3
-1.113, -1.413e-3
-1.112, -1.417e-3
-1.111, -1.421e-3
-1.110, -1.426e-3
-1.109, -1.429e-3
-1.108, -1.435e-3
-1.107, -1.442e-3
-1.106, -1.450e-3
-1.105, -1.462e-3
-1.104, -1.469e-3
-1.103, -1.480e-3
-1.102, -1.489e-3
-1.101, -1.486e-3
-1.100, -1.483e-3
-1.099, -1.487e-3
-1.098, -1.490e-3
-1.097, -1.496e-3
-1.096, -1.504e-3
-1.095, -1.511e-3
-1.094, -1.518e-3
-1.093, -1.526e-3
-1.092, -1.530e-3
-1.091, -1.528e-3
-1.090, -1.526e-3
-1.089, -1.526e-3
-1.088, -1.528e-3
-1.087, -1.532e-3
-1.086, -1.534e-3
-1.085, -1.537e-3
-1.084, -1.543e-3
-1.083, -1.547e-3
-1.082, -1.549e-3
-1.081, -1.546e-3
-1.080, -1.541e-3
-1.079, -1.540e-3
-1.078, -1.538e-3
-1.077, -1.536e-3
-1.076, -1.536e-3
-1.075, -1.536e-3
-1.074, -1.539e-3
-1.073, -1.535e-3
-1.072, -1.531e-3
-1.071, -1.518e-3
-1.070, -1.503e-3
-1.069, -1.503e-3
-1.068, -1.502e-3
-1.067, -1.495e-3
-1.066, -1.491e-3
-1.065, -1.482e-3
-1.064, -1.469e-3
-1.063, -1.460e-3
-1.062, -1.451e-3
-1.061, -1.441e-3
-1.060, -1.427e-3
-1.059, -1.417e-3
-1.058, -1.408e-3
-1.057, -1.396e-3
-1.056, -1.382e-3
-1.055, -1.363e-3
-1.054, -1.349e-3
-1.053, -1.335e-3
-1.052, -1.320e-3
-1.051, -1.305e-3
-1.050, -1.290e-3
-1.049, -1.275e-3
-1.048, -1.260e-3
-1.047, -1.247e-3
-1.046, -1.229e-3
-1.045, -1.210e-3
-1.044, -1.194e-3
-1.043, -1.175e-3
-1.042, -1.158e-3
-1.041, -1.143e-3
-1.040, -1.126e-3
-1.039, -1.112e-3
-1.038, -1.097e-3
-1.037, -1.084e-3
-1.036, -1.068e-3
-1.035, -1.049e-3
-1.034, -1.032e-3
-1.033, -1.017e-3
-1.032, -1.004e-3
-1.031, -9.910e-4
-1.030, -9.786e-4
-1.029, -9.659e-4
-1.028, -9.564e-4
-1.027, -9.445e-4
-1.026, -9.315e-4
-1.025, -9.179e-4
-1.024, -9.066e-4
-1.023, -8.985e-4
-1.022, -8.901e-4
-1.021, -8.798e-4
-1.020, -8.713e-4
-1.019, -8.632e-4
-1.018, -8.568e-4
-1.017, -8.488e-4
-1.016, -8.389e-4
-1.015, -8.292e-4
-1.014, -8.228e-4
-1.013, -8.181e-4
-1.012, -8.142e-4
-1.011, -8.039e-4
-1.010, -7.979e-4
-1.009, -7.947e-4
-1.008, -7.928e-4
-1.007, -7.887e-4
-1.006, -7.831e-4
-1.005, -7.788e-4
-1.004, -7.747e-4
-1.003, -7.720e-4
-1.002, -7.704e-4
-1.001, -7.674e-4
