Potential V vs RHE, Current mA cm-2
0.05339999999999995,14.288584128636872
0.05239999999999995,14.288584128636872
0.051399999999999946,14.288584128636872
0.050399999999999945,14.288584128636872
0.049399999999999944,14.288584128636872
0.04839999999999994,14.288584128636872
0.04739999999999994,14.288584128636872
0.04639999999999994,14.288584128636872
0.04539999999999994,14.217848563643619
0.04439999999999994,13.990080044365348
0.04339999999999994,13.753823257287888
0.04239999999999994,13.520395892810155
0.04139999999999994,13.29121266223202
0.040399999999999936,13.064858854253613
0.039399999999999935,12.842749180174803
0.038399999999999934,12.623468928695722
0.03739999999999993,12.40418867721664
0.03639999999999993,12.18773784833729
0.03539999999999993,11.975531153357537
0.03439999999999993,11.766153880977509
0.03339999999999993,11.55819131989735
0.03239999999999993,11.351643470117054
0.03139999999999993,11.145095620336757
0.030399999999999927,10.942791904456058
0.029399999999999926,10.741902899875223
0.028399999999999925,10.542428606594253
0.027399999999999924,10.342954313313284
0.026399999999999924,10.144894731332178
0.025399999999999923,9.949664571950803
0.024399999999999922,9.757263835169159
0.02339999999999992,9.564863098387514
0.02239999999999992,9.372462361605868
0.02139999999999992,9.181476336124089
0.020399999999999918,8.993319733242037
0.019399999999999917,8.806577841659854
0.018399999999999916,8.621250661377534
0.017399999999999916,8.435923481095214
0.016399999999999915,8.250596300812894
0.015399999999999914,8.068098543130306
0.014399999999999913,7.88701549674758
0.013399999999999912,7.70734716166472
0.012399999999999911,7.52767882658186
0.01139999999999991,7.349425202798865
0.01039999999999991,7.171171579015871
0.009399999999999908,6.997162089132471
0.008399999999999908,6.821737887949207
0.007399999999999907,6.647728398065807
0.006399999999999906,6.475133619482273
0.005399999999999905,6.302538840898738
0.004399999999999904,6.132773484914934
0.003399999999999903,5.964422840230995
0.002399999999999902,5.7960721955470555
0.0013999999999999013,5.627721550863116
0.00039999999999990044,5.460785617479042
-0.0006000000000001005,5.295264395394832
-0.0016000000000001013,5.131157884610488
-0.0026000000000001022,4.967051373826144
-0.003600000000000103,4.804359574341665
-0.004600000000000104,4.64308248615705
-0.005600000000000105,4.483220109272302
-0.006600000000000106,4.323357732387552
-0.007600000000000107,4.164910066802668
-0.008600000000000108,4.006462401217783
-0.009600000000000108,3.849429446932765
-0.01060000000000011,3.693811203947611
-0.01160000000000011,3.539607672262322
-0.012600000000000111,3.382574717977303
-0.013600000000000112,3.228371186292014
-0.014600000000000113,3.0755823659065897
-0.015600000000000114,2.925622968120896
-0.016600000000000115,2.775663570335202
-0.017600000000000116,2.6257041725495083
-0.018600000000000116,2.4771594860636794
-0.019600000000000117,2.330029510877715
-0.020600000000000118,2.184314246991617
-0.02160000000000012,2.0371842718056525
-0.02260000000000012,1.892883719219419
-0.02360000000000012,1.7485831666331852
-0.024600000000000122,1.6056973253468165
-0.025600000000000123,1.4642261953603128
-0.026600000000000124,1.3230380076337822
-0.027600000000000124,1.1818498199072518
-0.028600000000000125,1.0419348723505995
-0.029600000000000126,0.9037175783537855
-0.030600000000000127,0.7671979379168093
-0.03160000000000013,0.6305368263498469
-0.03260000000000013,0.49387571478288433
-0.03360000000000013,0.35792195886585426
-0.03460000000000002,0.22309997198871628
-0.03560000000000002,0.09076787699934075
-0.03660000000000002,-0.04122468727806717
-0.03760000000000002,-0.1737265476234265
-0.03860000000000002,-0.3055776407708479
-0.039600000000000024,-0.4355896092284448
-0.040600000000000025,-0.5640453952561902
-0.041600000000000026,-0.691227941114057
-0.04260000000000003,-0.8192593137518428
-0.04360000000000003,-0.94601744621975
-0.04460000000000003,-1.0709364539978328
-0.04560000000000003,-1.1941578082160775
-0.04660000000000003,-1.316813277914376
-0.04760000000000003,-1.4401761032626073
-0.04860000000000003,-1.5618412750510005
-0.04960000000000003,-1.6835064468393939
-0.050600000000000034,-1.8023421960280568
-0.051600000000000035,-1.92117794521672
-0.052600000000000036,-2.040013694405383
-0.053600000000000037,-2.158849443594046
-0.05460000000000004,-2.2748557701829792
-0.05560000000000004,-2.389447385472047
-0.05660000000000004,-2.504039000761115
-0.05760000000000004,-2.618630616050183
-0.05860000000000004,-2.7332222313392514
-0.05960000000000004,-2.844984424028589
-0.06060000000000004,-2.956746616717927
-0.061600000000000044,-3.0670940981073995
-0.06260000000000004,-3.1774415794968722
-0.06360000000000005,-3.2892037721862106
-0.06460000000000005,-3.3981365422758185
-0.06560000000000005,-3.504239889765696
-0.06660000000000005,-3.6117579485554394
-0.06760000000000005,-3.7178612960453163
-0.06860000000000005,-3.823964643535194
-0.06960000000000005,-3.9286532797252063
-0.07060000000000005,-4.0319272046153545
-0.07160000000000005,-4.135201129505503
-0.07260000000000005,-4.237060343095785
-0.07360000000000005,-4.3403342679859325
-0.07460000000000006,-4.44077877027635
-0.07560000000000006,-4.539808561266903
-0.07660000000000006,-4.638838352257455
-0.07760000000000006,-4.737868143248008
-0.07860000000000006,-4.836897934238561
-0.07960000000000006,-4.934513013929248
-0.08060000000000006,-5.0292986710202054
-0.08160000000000006,-5.124084328111163
-0.08260000000000006,-5.221699407801851
-0.08360000000000006,-5.316485064892808
-0.08460000000000006,-5.409856010683901
-0.08560000000000006,-5.5018122451751275
-0.08660000000000007,-5.593768479666355
-0.08760000000000007,-5.685724714157582
-0.08860000000000007,-5.77768094864881
-0.08960000000000007,-5.8682224718401725
-0.09060000000000007,-5.957349283731669
-0.09160000000000007,-6.045061384323302
-0.09260000000000007,-6.132773484914934
-0.09360000000000007,-6.221900296806432
-0.09460000000000007,-6.3081976860981985
-0.09560000000000007,-6.393080364090101
-0.09660000000000007,-6.477963042082004
-0.09760000000000008,-6.562845720073906
-0.09860000000000008,-6.6491431093656725
-0.09960000000000008,-6.73261107605771
-0.10060000000000008,-6.813249620150017
-0.10160000000000008,-6.895302875542188
-0.10260000000000008,-6.977356130934361
-0.10360000000000008,-7.059409386326533
-0.10460000000000008,-7.140047930418839
-0.10560000000000008,-7.217857051911418
-0.10660000000000008,-7.297080884703859
-0.10760000000000008,-7.376304717496302
-0.10860000000000009,-7.454113838988878
-0.10960000000000009,-7.531922960481456
-0.11060000000000009,-7.6069026593743025
-0.11160000000000009,-7.683297069567015
-0.11260000000000009,-7.7582767684598615
-0.11360000000000009,-7.834671178652573
-0.11460000000000009,-7.909650877545419
-0.11560000000000009,-7.983215865138402
-0.11660000000000009,-8.056780852731386
-0.1176000000000001,-8.130345840324367
-0.1186000000000001,-8.202496116617484
-0.1196000000000001,-8.273231681610733
-0.1206000000000001,-8.34255253530412
-0.1216000000000001,-8.413288100297372
-0.1226000000000001,-8.484023665290625
-0.1236000000000001,-8.55334451898401
-0.1246000000000001,-8.621250661377534
-0.1256000000000001,-8.689156803771056
-0.1266000000000001,-8.755648234864712
-0.1276000000000001,-8.823554377258235
-0.1286000000000001,-8.891460519651757
-0.1296000000000001,-8.956537239445547
-0.1306000000000001,-9.02161395923934
-0.1316000000000001,-9.085275967733265
-0.1326000000000001,-9.150352687527057
-0.1336000000000001,-9.21542940732085
-0.1346000000000001,-9.279091415814774
-0.1356000000000001,-9.341338713008836
-0.1366000000000001,-9.402171298903033
-0.1376000000000001,-9.46583330739696
-0.1386000000000001,-9.529495315890887
-0.1396000000000001,-9.590327901785084
-0.1406000000000001,-9.649745776379415
-0.14160000000000011,-9.710578362273612
-0.14260000000000012,-9.769996236867943
-0.14360000000000012,-9.830828822762141
-0.14460000000000012,-9.89024669735647
-0.14560000000000012,-9.946835149351072
-0.14660000000000012,-10.004838312645537
-0.14760000000000012,-10.062841475940006
-0.14860000000000012,-10.120844639234473
-0.14960000000000012,-10.177433091229075
-0.15060000000000012,-10.232606831923809
-0.15160000000000012,-10.28919528391841
-0.15260000000000012,-10.344369024613147
-0.15360000000000013,-10.400957476607749
-0.15460000000000013,-10.456131217302488
-0.15560000000000013,-10.508475535397492
-0.15660000000000013,-10.560819853492498
-0.15760000000000013,-10.615993594187234
-0.15860000000000013,-10.669752623582108
-0.15960000000000002,-10.722096941677114
-0.16060000000000002,-10.773026548472256
-0.16160000000000002,-10.823956155267396
-0.16260000000000002,-10.876300473362404
-0.16360000000000002,-10.928644791457408
-0.16460000000000002,-10.97957439825255
-0.16560000000000002,-11.029089293747825
-0.16660000000000003,-11.082848323142695
-0.16760000000000003,-11.135192641237705
-0.16860000000000003,-11.18470753673298
-0.16960000000000003,-11.231393009628526
-0.17060000000000003,-11.279493193823937
-0.17160000000000003,-11.326178666719484
-0.17260000000000003,-11.372864139615029
-0.17360000000000003,-11.420964323810443
-0.17460000000000003,-11.467649796705988
-0.17560000000000003,-11.51292055830167
-0.17660000000000003,-11.55819131989735
-0.17760000000000004,-11.602047370193167
-0.17860000000000004,-11.648732843088712
-0.17960000000000004,-11.692588893384528
-0.18060000000000004,-11.736444943680345
-0.18160000000000004,-11.778886282676295
-0.18260000000000004,-11.82274233297211
-0.18360000000000004,-11.86659838326793
-0.18460000000000004,-11.909039722263879
-0.18560000000000004,-11.950066349959965
-0.18660000000000004,-11.991092977656052
-0.18760000000000004,-12.032119605352138
-0.18860000000000005,-12.074560944348088
-0.18960000000000005,-12.115587572044175
-0.19060000000000005,-12.15378477714053
-0.19160000000000005,-12.193396693536751
-0.19260000000000005,-12.233008609932972
-0.19360000000000005,-12.272620526329193
-0.19460000000000005,-12.310817731425548
-0.19560000000000005,-12.346185513922174
-0.19660000000000005,-12.382968007718665
-0.19760000000000005,-12.421165212815023
-0.19860000000000005,-12.457947706611513
-0.19960000000000006,-12.49331548910814
-0.20060000000000006,-12.528683271604763
-0.20160000000000006,-12.562636342801525
-0.20260000000000006,-12.598004125298152
-0.20360000000000006,-12.631957196494911
-0.20460000000000006,-12.665910267691673
-0.20560000000000006,-12.698448627588569
-0.20660000000000006,-12.7295722761856
-0.20760000000000006,-12.762110636082495
-0.20860000000000006,-12.794648995979392
-0.20960000000000006,-12.825772644576423
-0.21060000000000006,-12.855481581873589
-0.21160000000000007,-12.885190519170754
-0.21260000000000007,-12.91489945646792
-0.21360000000000007,-12.944608393765087
-0.21460000000000007,-12.972902619762385
-0.21560000000000007,-12.99978213445982
-0.21660000000000007,-13.026661649157258
-0.21760000000000007,-13.054955875154558
-0.21860000000000007,-13.08325010115186
-0.21960000000000007,-13.108714904549428
-0.22060000000000007,-13.132764996647134
-0.22160000000000007,-13.155400377444975
-0.22260000000000008,-13.179450469542681
-0.22360000000000008,-13.203500561640388
-0.22460000000000008,-13.226135942438228
-0.22560000000000008,-13.247356611936203
-0.22660000000000008,-13.267162570134314
-0.22760000000000008,-13.289797950932153
-0.22860000000000008,-13.31101862043013
-0.22960000000000008,-13.33082457862824
-0.23060000000000008,-13.34780111422662
-0.23160000000000008,-13.364777649825003
-0.23260000000000008,-13.383168896723246
-0.23360000000000009,-13.40014543232163
-0.2346000000000001,-13.415707256620143
-0.2356000000000001,-13.431269080918659
-0.2366000000000001,-13.445416193917309
-0.2376000000000001,-13.459563306915959
-0.2386000000000001,-13.473710419914608
-0.2396000000000001,-13.486442821613394
-0.2406000000000001,-13.497760512012315
-0.2416000000000001,-13.50766349111137
-0.2426000000000001,-13.518981181510291
-0.2436000000000001,-13.530298871909212
-0.2446000000000001,-13.540201851008266
-0.2456000000000001,-13.547275407507591
-0.2466000000000001,-13.55293425270705
-0.2476000000000001,-13.561422520506243
-0.2486000000000001,-13.568496077005566
-0.2496000000000001,-13.574154922205025
-0.2506000000000001,-13.576984344804757
-0.2516000000000001,-13.581228478704354
-0.2526000000000001,-13.584057901304082
-0.2536000000000001,-13.588302035203677
-0.2546000000000001,-13.589716746503543
-0.2556000000000001,-13.591131457803407
-0.2566000000000001,-13.589716746503543
-0.2576000000000001,-13.588302035203677
-0.2586000000000001,-13.589716746503543
-0.2596000000000001,-13.588302035203677
-0.2606000000000001,-13.584057901304082
-0.2616000000000001,-13.579813767404486
-0.2626000000000001,-13.574154922205025
-0.2636000000000001,-13.571325499605297
-0.2646000000000001,-13.567081365705702
-0.2656000000000001,-13.558593097906511
-0.2666000000000001,-13.550104830107323
-0.2676000000000001,-13.543031273607996
-0.2686000000000001,-13.535957717108671
-0.2696000000000001,-13.52746944930948
-0.2706000000000001,-13.51615175891056
-0.2716000000000001,-13.503419357211776
-0.2726000000000001,-13.492101666812855
-0.2736000000000001,-13.480783976413935
-0.2746000000000001,-13.469466286015015
-0.2756000000000001,-13.455319173016363
-0.2766000000000001,-13.439757348717848
-0.2776000000000001,-13.425610235719198
-0.2786000000000001,-13.410048411420682
-0.2796000000000001,-13.394486587122167
-0.2806000000000001,-13.377510051523787
-0.28160000000000013,-13.359118804625542
-0.28260000000000013,-13.340727557727297
-0.28360000000000013,-13.323751022128915
-0.2846,-13.303945063930804
-0.2856,-13.284139105732693
-0.2866,-13.262918436234719
-0.2876,-13.241697766736744
-0.2886,-13.221891808538631
-0.2896,-13.199256427740792
-0.2906,-13.175206335643086
-0.2916,-13.151156243545383
-0.2926,-13.128520862747541
-0.2936,-13.1058854819497
-0.29460000000000003,-13.081835389851994
-0.29560000000000003,-13.054955875154558
-0.29660000000000003,-13.028076360457122
-0.29760000000000003,-13.002611557059552
-0.29860000000000003,-12.977146753661982
-0.29960000000000003,-12.950267238964546
-0.30060000000000003,-12.921973012967245
-0.30160000000000003,-12.893678786969945
-0.30260000000000004,-12.865384560972643
-0.30360000000000004,-12.837090334975343
-0.30460000000000004,-12.808796108978042
-0.30560000000000004,-12.77767246038101
-0.30660000000000004,-12.747963523083845
-0.30760000000000004,-12.719669297086545
-0.30860000000000004,-12.68996035978938
-0.30960000000000004,-12.660251422492214
-0.31060000000000004,-12.62771306259532
-0.31160000000000004,-12.596589413998286
-0.31260000000000004,-12.565465765401257
-0.31360000000000005,-12.534342116804225
-0.31460000000000005,-12.504633179507058
-0.31560000000000005,-12.470680108310297
-0.31660000000000005,-12.438141748413402
-0.31760000000000005,-12.405603388516507
-0.31860000000000005,-12.374479739919476
-0.31960000000000005,-12.343356091322446
-0.32060000000000005,-12.310817731425548
-0.32160000000000005,-12.276864660228789
-0.32260000000000005,-12.244326300331892
-0.32360000000000005,-12.213202651734862
-0.32460000000000006,-12.1792495805381
-0.32560000000000006,-12.145296509341339
-0.32660000000000006,-12.109928726844714
-0.32760000000000006,-12.077390366947817
-0.32860000000000006,-12.044852007050922
-0.32960000000000006,-12.010898935854163
-0.33060000000000006,-11.978360575957266
-0.33160000000000006,-11.94299279346064
-0.33260000000000006,-11.909039722263879
-0.33360000000000006,-11.87791607366685
-0.33460000000000006,-11.843963002470087
-0.33560000000000006,-11.810009931273326
-0.33660000000000007,-11.776056860076565
-0.33760000000000007,-11.743518500179668
-0.33860000000000007,-11.710980140282773
-0.33960000000000007,-11.678441780385876
-0.34060000000000007,-11.644488709189117
-0.34160000000000007,-11.610535637992356
-0.34260000000000007,-11.577997278095461
-0.34360000000000007,-11.54687362949843
-0.3446000000000001,-11.514335269601535
-0.3456000000000001,-11.480382198404772
-0.3466000000000001,-11.447843838507877
-0.34759999999999996,-11.415305478610982
-0.3486000000000001,-11.38418183001395
-0.34959999999999997,-11.353058181416921
-0.3506000000000001,-11.320519821520024
-0.35159999999999997,-11.289396172922991
-0.3526000000000001,-11.258272524325962
-0.35359999999999997,-11.22714887572893
-0.3546000000000001,-11.197439938431765
-0.35559999999999997,-11.166316289834736
-0.3566000000000001,-11.133777929937839
-0.3576,-11.104068992640675
-0.3586000000000001,-11.075774766643372
-0.3596,-11.047480540646072
-0.3606000000000001,-11.016356892049041
-0.3616,-10.98523324345201
-0.3626000000000001,-10.95693901745471
-0.3636,-10.928644791457408
-0.3646000000000001,-10.900350565460107
-0.3656,-10.872056339462807
-0.3666000000000001,-10.842347402165641
-0.3676,-10.815467887468206
-0.3686000000000001,-10.78858837277077
-0.3696,-10.7631235693732
-0.3706000000000001,-10.736244054675764
-0.3716,-10.707949828678462
-0.3726000000000001,-10.682485025280892
-0.3736,-10.658434933183187
-0.3746000000000001,-10.632970129785615
-0.3756,-10.606090615088178
-0.3766000000000001,-10.580625811690611
-0.3776,-10.55516100829304
-0.3786000000000001,-10.532525627495199
-0.3796,-10.508475535397492
-0.3806000000000001,-10.483010731999922
-0.3816,-10.458960639902216
-0.3826000000000001,-10.436325259104375
-0.3836,-10.413689878306533
-0.3846000000000001,-10.391054497508694
-0.3856,-10.367004405410988
-0.3866000000000001,-10.344369024613147
-0.3876,-10.323148355115173
-0.3886000000000001,-10.301927685617198
-0.3896,-10.282121727419087
-0.3906000000000001,-10.259486346621246
-0.3916,-10.23826567712327
-0.3926000000000001,-10.21845971892516
-0.3936,-10.200068472026913
-0.3946000000000001,-10.18167722512867
-0.3956,-10.160456555630693
-0.3966000000000001,-10.142065308732448
-0.3976,-10.123674061834203
-0.3986000000000001,-10.106697526235822
-0.3996,-10.089720990637442
-0.4006000000000001,-10.071329743739195
-0.4016,-10.052938496840952
-0.4026000000000001,-10.035961961242569
-0.4036,-10.020400136944055
-0.4046000000000001,-10.004838312645537
-0.4056,-9.989276488347024
-0.40660000000000013,-9.972299952748642
-0.4076,-9.956738128450127
-0.40860000000000013,-9.944005726751344
-0.4096,-9.928443902452829
-0.41060000000000013,-9.914296789454177
-0.4116,-9.900149676455525
-0.41260000000000013,-9.886002563456877
-0.4136,-9.874684873057957
-0.41460000000000014,-9.86195247135917
-0.4156,-9.849220069660385
-0.41660000000000014,-9.8364876679616
-0.4176,-9.823755266262815
-0.41860000000000014,-9.815266998463624
-0.41960000000000003,-9.803949308064706
-0.42060000000000014,-9.792631617665785
-0.42160000000000003,-9.781313927266863
-0.42260000000000014,-9.772825659467674
-0.42360000000000003,-9.764337391668482
-0.42460000000000014,-9.755849123869291
-0.42560000000000003,-9.745946144770238
-0.42660000000000015,-9.736043165671184
-0.42760000000000004,-9.728969609171857
-0.42860000000000015,-9.721896052672532
-0.42960000000000004,-9.714822496173207
-0.43060000000000015,-9.706334228374017
-0.43160000000000004,-9.699260671874692
-0.43260000000000015,-9.69360182667523
-0.43360000000000004,-9.68794298147577
-0.43460000000000015,-9.682284136276312
-0.43560000000000004,-9.676625291076851
-0.43660000000000015,-9.670966445877392
-0.43760000000000004,-9.66530760067793
-0.43860000000000016,-9.6624781780782
-0.43960000000000005,-9.659648755478472
-0.44060000000000016,-9.655404621578874
-0.44160000000000005,-9.65116048767928
-0.44260000000000016,-9.648331065079551
-0.44360000000000005,-9.646916353779686
-0.44460000000000016,-9.64550164247982
-0.44560000000000005,-9.644086931179956
-0.44660000000000016,-9.641257508580225
-0.44760000000000005,-9.639842797280359
-0.44860000000000017,-9.641257508580225
-0.44960000000000006,-9.641257508580225
-0.45060000000000017,-9.641257508580225
-0.45160000000000006,-9.641257508580225
-0.45260000000000017,-9.641257508580225
-0.45360000000000006,-9.64550164247982
-0.45460000000000017,-9.646916353779686
-0.45560000000000006,-9.648331065079551
