Sept. 7, 2024   10:42:06
Linear Sweep Voltammetry
File: c:/users/guazh/data/20240903_batch_252_500/2024-09-03-exp287\regeneratedgce-2024-09-07t10_37_25-lsvinkoh\regeneratedgce_lsv_50mvs_efin_-1900mv.bin
Data Source:  Experiment
Instrument Model:  CHI760E
Header: LSV ran at 50 mVs with Efin at -1900mV
Note: 

Init E (V) = -0.6
Final E (V) = -1.9
Scan Rate (V/s) = 0.05
Sample Interval (V) = 0.001
Quiet Time (sec) = 2
Sensitivity (A/V) = 1e-4
Comp R (ohm) = 4.2

Results:

Channel 1:

Potential/V, Current/A

-0.600, -1.893e-7
-0.601, 1.527e-8
-0.602, 8.631e-8
-0.603, 1.226e-7
-0.604, 1.495e-7
-0.605, 1.705e-7
-0.606, 1.076e-7
-0.607, 1.833e-8
-0.608, 6.492e-9
-0.609, 6.689e-9
-0.610, 7.281e-9
-0.611, 7.182e-9
-0.612, 8.696e-7
-0.613, 5.261e-7
-0.614, 3.574e-7
-0.615, 3.388e-7
-0.616, 3.343e-7
-0.617, 3.380e-7
-0.618, 3.395e-7
-0.619, 3.462e-7
-0.620, 3.507e-7
-0.621, 3.565e-7
-0.622, 3.274e-7
-0.623, 7.467e-8
-0.624, 1.073e-8
-0.625, 8.662e-9
-0.626, 8.070e-9
-0.627, 8.169e-9
-0.628, 7.972e-9
-0.629, 8.564e-9
-0.630, 7.380e-9
-0.631, 1.109e-6
-0.632, 8.993e-7
-0.633, 5.805e-7
-0.634, 5.148e-7
-0.635, 4.906e-7
-0.636, 4.780e-7
-0.637, 4.722e-7
-0.638, 4.710e-7
-0.639, 4.695e-7
-0.640, 4.722e-7
-0.641, 4.734e-7
-0.642, 3.929e-7
-0.643, 6.579e-8
-0.644, 1.083e-8
-0.645, 9.057e-9
-0.646, 7.380e-9
-0.647, 8.268e-9
-0.648, 7.873e-9
-0.649, 1.403e-6
-0.650, 1.486e-6
-0.651, 7.055e-7
-0.652, 6.067e-7
-0.653, 5.739e-7
-0.654, 5.582e-7
-0.655, 5.490e-7
-0.656, 5.429e-7
-0.657, 5.423e-7
-0.658, 5.400e-7
-0.659, 5.439e-7
-0.660, 5.020e-7
-0.661, 1.180e-7
-0.662, 1.241e-8
-0.663, 8.860e-9
-0.664, 7.873e-9
-0.665, 9.057e-9
-0.666, 7.182e-9
-0.667, 7.774e-9
-0.668, 8.070e-9
-0.669, 2.684e-6
-0.670, 1.501e-6
-0.671, 8.046e-7
-0.672, 7.004e-7
-0.673, 6.594e-7
-0.674, 6.352e-7
-0.675, 6.253e-7
-0.676, 6.159e-7
-0.677, 6.113e-7
-0.678, 6.095e-7
-0.679, 6.093e-7
-0.680, 5.672e-7
-0.681, 1.380e-7
-0.682, 1.310e-8
-0.683, 8.169e-9
-0.684, 9.156e-9
-0.685, 9.254e-9
-0.686, 8.366e-9
-0.687, 1.283e-6
-0.688, 2.309e-6
-0.689, 9.425e-7
-0.690, 7.575e-7
-0.691, 7.078e-7
-0.692, 6.845e-7
-0.693, 6.676e-7
-0.694, 6.597e-7
-0.695, 6.545e-7
-0.696, 6.516e-7
-0.697, 6.521e-7
-0.698, 6.375e-7
-0.699, 2.243e-7
-0.700, 1.823e-8
-0.701, 9.024e-7
-0.702, 1.130e-6
-0.703, 7.160e-7
-0.704, 6.817e-7
-0.705, 6.720e-7
-0.706, 6.656e-7
-0.707, 6.652e-7
-0.708, 6.633e-7
-0.709, 6.634e-7
-0.710, 6.681e-7
-0.711, 5.909e-7
-0.712, 1.140e-7
-0.713, 1.182e-8
-0.714, 8.662e-9
-0.715, 9.649e-9
-0.716, 7.676e-9
-0.717, 8.958e-9
-0.718, 8.169e-9
-0.719, 1.113e-6
-0.720, 3.210e-6
-0.721, 1.211e-6
-0.722, 8.985e-7
-0.723, 8.189e-7
-0.724, 7.797e-7
-0.725, 7.569e-7
-0.726, 7.440e-7
-0.727, 7.349e-7
-0.728, 7.294e-7
-0.729, 7.260e-7
-0.730, 3.433e-7
-0.731, 2.553e-8
-0.732, 1.014e-8
-0.733, 8.564e-9
-0.734, 9.452e-9
-0.735, 8.070e-9
-0.736, 7.873e-9
-0.737, 7.577e-9
-0.738, 7.281e-9
-0.739, 3.213e-6
-0.740, 2.513e-6
-0.741, 1.148e-6
-0.742, 9.505e-7
-0.743, 8.758e-7
-0.744, 8.383e-7
-0.745, 8.149e-7
-0.746, 7.970e-7
-0.747, 7.881e-7
-0.748, 7.805e-7
-0.749, 4.892e-7
-0.750, 4.457e-8
-0.751, 9.846e-9
-0.752, 9.550e-9
-0.753, 7.084e-9
-0.754, 8.169e-9
-0.755, 8.958e-9
-0.756, 7.577e-9
-0.757, 3.443e-6
-0.758, 2.151e-6
-0.759, 1.119e-6
-0.760, 9.596e-7
-0.761, 8.947e-7
-0.762, 8.625e-7
-0.763, 8.415e-7
-0.764, 8.296e-7
-0.765, 8.207e-7
-0.766, 7.846e-7
-0.767, 2.293e-7
-0.768, 1.626e-8
-0.769, 9.945e-9
-0.770, 1.014e-8
-0.771, 8.169e-9
-0.772, 7.084e-9
-0.773, 6.886e-9
-0.774, 7.380e-9
-0.775, 2.144e-6
-0.776, 3.536e-6
-0.777, 1.381e-6
-0.778, 1.068e-6
-0.779, 9.746e-7
-0.780, 9.261e-7
-0.781, 8.975e-7
-0.782, 8.806e-7
-0.783, 8.670e-7
-0.784, 8.543e-7
-0.785, 3.523e-7
-0.786, 2.257e-8
-0.787, 9.254e-9
-0.788, 7.380e-9
-0.789, 8.268e-9
-0.790, 8.465e-9
-0.791, 7.972e-9
-0.792, 7.972e-9
-0.793, 7.774e-9
-0.794, 3.561e-6
-0.795, 3.067e-6
-0.796, 1.369e-6
-0.797, 1.116e-6
-0.798, 1.025e-6
-0.799, 9.753e-7
-0.800, 9.445e-7
-0.801, 9.266e-7
-0.802, 9.120e-7
-0.803, 9.031e-7
-0.804, 8.980e-7
-0.805, 8.931e-7
-0.806, 8.891e-7
-0.807, 8.856e-7
-0.808, 8.853e-7
-0.809, 8.835e-7
-0.810, 8.816e-7
-0.811, 8.834e-7
-0.812, 8.834e-7
-0.813, 8.810e-7
-0.814, 8.833e-7
-0.815, 8.831e-7
-0.816, 8.833e-7
-0.817, 8.841e-7
-0.818, 5.911e-7
-0.819, 5.513e-8
-0.820, 1.142e-8
-0.821, 8.761e-9
-0.822, 8.860e-9
-0.823, 7.972e-9
-0.824, 8.366e-9
-0.825, 9.942e-7
-0.826, 4.152e-6
-0.827, 1.623e-6
-0.828, 1.178e-6
-0.829, 1.070e-6
-0.830, 1.020e-6
-0.831, 9.888e-7
-0.832, 9.728e-7
-0.833, 9.601e-7
-0.834, 9.528e-7
-0.835, 9.475e-7
-0.836, 9.432e-7
-0.837, 9.403e-7
-0.838, 9.402e-7
-0.839, 9.376e-7
-0.840, 9.380e-7
-0.841, 9.367e-7
-0.842, 9.373e-7
-0.843, 9.391e-7
-0.844, 9.384e-7
-0.845, 9.406e-7
-0.846, 9.414e-7
-0.847, 9.412e-7
-0.848, 9.425e-7
-0.849, 9.443e-7
-0.850, 5.801e-7
-0.851, 4.744e-8
-0.852, 1.064e-8
-0.853, 8.860e-9
-0.854, 8.662e-9
-0.855, 8.662e-9
-0.856, 7.972e-9
-0.857, 6.788e-9
-0.858, 2.505e-6
-0.859, 3.915e-6
-0.860, 1.611e-6
-0.861, 1.263e-6
-0.862, 1.155e-6
-0.863, 1.100e-6
-0.864, 1.070e-6
-0.865, 1.050e-6
-0.866, 1.035e-6
-0.867, 1.027e-6
-0.868, 8.275e-7
-0.869, 1.148e-7
-0.870, 1.182e-8
-0.871, 9.748e-9
-0.872, 9.748e-9
-0.873, 8.070e-9
-0.874, 8.761e-9
-0.875, 8.366e-9
-0.876, 8.169e-9
-0.877, 7.676e-9
-0.878, 4.340e-6
-0.879, 3.771e-6
-0.880, 1.699e-6
-0.881, 1.370e-6
-0.882, 1.249e-6
-0.883, 1.187e-6
-0.884, 1.148e-6
-0.885, 1.122e-6
-0.886, 1.106e-6
-0.887, 1.095e-6
-0.888, 1.086e-6
-0.889, 1.016e-6
-0.890, 2.511e-7
-0.891, 1.508e-8
-0.892, 1.024e-8
-0.893, 8.070e-9
-0.894, 8.662e-9
-0.895, 8.958e-9
-0.896, 8.366e-9
-0.897, 1.350e-8
-0.898, 5.187e-6
-0.899, 2.822e-6
-0.900, 1.578e-6
-0.901, 1.352e-6
-0.902, 1.262e-6
-0.903, 1.211e-6
-0.904, 1.179e-6
-0.905, 1.161e-6
-0.906, 1.144e-6
-0.907, 1.136e-6
-0.908, 1.130e-6
-0.909, 7.391e-7
-0.910, 6.480e-8
-0.911, 1.064e-8
-0.912, 8.761e-9
-0.913, 8.761e-9
-0.914, 8.564e-9
-0.915, 8.761e-9
-0.916, 1.000e-6
-0.917, 5.220e-6
-0.918, 2.105e-6
-0.919, 1.499e-6
-0.920, 1.351e-6
-0.921, 1.281e-6
-0.922, 1.241e-6
-0.923, 1.216e-6
-0.924, 1.199e-6
-0.925, 1.189e-6
-0.926, 1.182e-6
-0.927, 1.132e-6
-0.928, 3.245e-7
-0.929, 1.873e-8
-0.930, 8.860e-9
-0.931, 8.374e-8
-0.932, 3.671e-6
-0.933, 1.969e-6
-0.934, 1.401e-6
-0.935, 1.297e-6
-0.936, 1.252e-6
-0.937, 1.231e-6
-0.938, 1.217e-6
-0.939, 1.210e-6
-0.940, 1.206e-6
-0.941, 1.055e-6
-0.942, 1.862e-7
-0.943, 1.271e-8
-0.944, 9.452e-9
-0.945, 8.662e-9
-0.946, 7.281e-9
-0.947, 7.873e-9
-0.948, 7.084e-9
-0.949, 7.676e-9
-0.950, 3.020e-6
-0.951, 5.274e-6
-0.952, 2.156e-6
-0.953, 1.657e-6
-0.954, 1.498e-6
-0.955, 1.420e-6
-0.956, 1.376e-6
-0.957, 1.346e-6
-0.958, 1.326e-6
-0.959, 1.313e-6
-0.960, 1.305e-6
-0.961, 7.530e-7
-0.962, 5.474e-8
-0.963, 1.093e-8
-0.964, 9.254e-9
-0.965, 8.958e-9
-0.966, 7.676e-9
-0.967, 7.676e-9
-0.968, 2.656e-6
-0.969, 4.996e-6
-0.970, 2.134e-6
-0.971, 1.677e-6
-0.972, 1.536e-6
-0.973, 1.468e-6
-0.974, 1.427e-6
-0.975, 1.402e-6
-0.976, 1.385e-6
-0.977, 1.375e-6
-0.978, 1.367e-6
-0.979, 1.362e-6
-0.980, 1.360e-6
-0.981, 1.356e-6
-0.982, 1.355e-6
-0.983, 1.356e-6
-0.984, 1.357e-6
-0.985, 1.358e-6
-0.986, 1.359e-6
-0.987, 1.360e-6
-0.988, 1.360e-6
-0.989, 1.362e-6
-0.990, 1.364e-6
-0.991, 1.367e-6
-0.992, 1.369e-6
-0.993, 1.192e-6
-0.994, 2.037e-7
-0.995, 1.527e-8
-0.996, 9.156e-9
-0.997, 7.182e-9
-0.998, 8.662e-9
-0.999, 7.577e-9
-1.000, 4.153e-6
-1.001, 4.103e-6
-1.002, 2.049e-6
-1.003, 1.733e-6
-1.004, 1.621e-6
-1.005, 1.565e-6
-1.006, 1.529e-6
-1.007, 1.505e-6
-1.008, 1.490e-6
-1.009, 1.482e-6
-1.010, 1.145e-6
-1.011, 1.367e-7
-1.012, 1.310e-8
-1.013, 9.846e-9
-1.014, 7.774e-9
-1.015, 3.938e-6
-1.016, 3.254e-6
-1.017, 1.909e-6
-1.018, 1.693e-6
-1.019, 1.616e-6
-1.020, 1.577e-6
-1.021, 1.551e-6
-1.022, 1.539e-6
-1.023, 1.527e-6
-1.024, 1.526e-6
-1.025, 8.182e-7
-1.026, 5.237e-8
-1.027, 1.133e-8
-1.028, 1.044e-8
-1.029, 9.156e-9
-1.030, 8.958e-9
-1.031, 8.564e-9
-1.032, 7.478e-9
-1.033, 2.741e-8
-1.034, 7.559e-6
-1.035, 4.072e-6
-1.036, 2.320e-6
-1.037, 1.985e-6
-1.038, 1.842e-6
-1.039, 1.762e-6
-1.040, 1.712e-6
-1.041, 1.679e-6
-1.042, 1.657e-6
-1.043, 1.644e-6
-1.044, 1.631e-6
-1.045, 1.625e-6
-1.046, 1.620e-6
-1.047, 1.614e-6
-1.048, 1.612e-6
-1.049, 1.609e-6
-1.050, 1.609e-6
-1.051, 1.610e-6
-1.052, 1.608e-6
-1.053, 1.607e-6
-1.054, 1.608e-6
-1.055, 1.608e-6
-1.056, 1.608e-6
-1.057, 1.610e-6
-1.058, 1.609e-6
-1.059, 1.364e-6
-1.060, 2.104e-7
-1.061, 1.350e-8
-1.062, 1.083e-8
-1.063, 9.550e-9
-1.064, 8.268e-9
-1.065, 8.662e-9
-1.066, 8.662e-9
-1.067, 6.217e-6
-1.068, 4.597e-6
-1.069, 2.443e-6
-1.070, 2.075e-6
-1.071, 1.925e-6
-1.072, 1.847e-6
-1.073, 1.801e-6
-1.074, 1.770e-6
-1.075, 1.754e-6
-1.076, 1.739e-6
-1.077, 1.563e-6
-1.078, 3.103e-7
-1.079, 1.715e-8
-1.080, 1.064e-8
-1.081, 9.254e-9
-1.082, 8.662e-9
-1.083, 7.380e-9
-1.084, 3.292e-6
-1.085, 6.246e-6
-1.086, 2.770e-6
-1.087, 2.189e-6
-1.088, 2.010e-6
-1.089, 1.920e-6
-1.090, 1.867e-6
-1.091, 1.833e-6
-1.092, 1.812e-6
-1.093, 1.795e-6
-1.094, 1.329e-6
-1.095, 1.420e-7
-1.096, 1.221e-8
-1.097, 9.649e-9
-1.098, 8.860e-9
-1.099, 8.268e-9
-1.100, 8.958e-9
-1.101, 5.426e-6
-1.102, 5.241e-6
-1.103, 2.641e-6
-1.104, 2.211e-6
-1.105, 2.056e-6
-1.106, 1.971e-6
-1.107, 1.922e-6
-1.108, 1.891e-6
-1.109, 1.869e-6
-1.110, 1.855e-6
-1.111, 1.838e-6
-1.112, 8.263e-7
-1.113, 4.398e-8
-1.114, 1.083e-8
-1.115, 1.103e-8
-1.116, 8.958e-9
-1.117, 8.070e-9
-1.118, 8.070e-9
-1.119, 7.577e-9
-1.120, 5.733e-6
-1.121, 6.534e-6
-1.122, 2.991e-6
-1.123, 2.408e-6
-1.124, 2.204e-6
-1.125, 2.098e-6
-1.126, 2.034e-6
-1.127, 1.992e-6
-1.128, 1.961e-6
-1.129, 1.943e-6
-1.130, 1.928e-6
-1.131, 1.917e-6
-1.132, 1.006e-6
-1.133, 6.253e-8
-1.134, 1.271e-8
-1.135, 1.073e-8
-1.136, 9.452e-9
-1.137, 7.774e-9
-1.138, 5.493e-8
-1.139, 7.997e-6
-1.140, 4.316e-6
-1.141, 2.627e-6
-1.142, 2.304e-6
-1.143, 2.169e-6
-1.144, 2.096e-6
-1.145, 2.051e-6
-1.146, 2.018e-6
-1.147, 1.999e-6
-1.148, 1.986e-6
-1.149, 1.972e-6
-1.150, 1.891e-6
-1.151, 5.261e-7
-1.152, 2.504e-8
-1.153, 1.172e-8
-1.154, 1.024e-8
-1.155, 1.024e-8
-1.156, 4.875e-6
-1.157, 5.283e-6
-1.158, 2.725e-6
-1.159, 2.327e-6
-1.160, 2.192e-6
-1.161, 2.126e-6
-1.162, 2.082e-6
-1.163, 2.059e-6
-1.164, 2.041e-6
-1.165, 2.028e-6
-1.166, 2.020e-6
-1.167, 2.012e-6
-1.168, 1.444e-6
-1.169, 1.411e-7
-1.170, 1.409e-8
-1.171, 1.034e-8
-1.172, 9.649e-9
-1.173, 8.169e-9
-1.174, 8.564e-9
-1.175, 1.390e-6
-1.176, 9.109e-6
-1.177, 3.942e-6
-1.178, 2.751e-6
-1.179, 2.455e-6
-1.180, 2.317e-6
-1.181, 2.239e-6
-1.182, 2.193e-6
-1.183, 2.162e-6
-1.184, 2.141e-6
-1.185, 2.128e-6
-1.186, 1.917e-6
-1.187, 3.792e-7
-1.188, 1.882e-8
-1.189, 1.093e-8
-1.190, 1.014e-8
-1.191, 1.247e-7
-1.192, 7.481e-6
-1.193, 4.070e-6
-1.194, 2.692e-6
-1.195, 2.425e-6
-1.196, 2.310e-6
-1.197, 2.248e-6
-1.198, 2.214e-6
-1.199, 2.190e-6
-1.200, 2.177e-6
-1.201, 1.461e-6
-1.202, 1.256e-7
-1.203, 1.399e-8
-1.204, 1.054e-8
-1.205, 9.649e-9
-1.206, 8.465e-9
-1.207, 8.268e-9
-1.208, 8.662e-9
-1.209, 1.437e-6
-1.210, 1.078e-5
-1.211, 4.588e-6
-1.212, 3.076e-6
-1.213, 2.706e-6
-1.214, 2.535e-6
-1.215, 2.439e-6
-1.216, 2.381e-6
-1.217, 2.340e-6
-1.218, 2.311e-6
-1.219, 2.293e-6
-1.220, 1.949e-6
-1.221, 3.053e-7
-1.222, 1.695e-8
-1.223, 1.162e-8
-1.224, 9.452e-9
-1.225, 9.353e-9
-1.226, 8.662e-9
-1.227, 8.169e-9
-1.228, 7.281e-9
-1.229, 8.860e-9
-1.230, 8.510e-6
-1.231, 8.583e-6
-1.232, 3.931e-6
-1.233, 3.118e-6
-1.234, 2.823e-6
-1.235, 2.672e-6
-1.236, 2.580e-6
-1.237, 2.518e-6
-1.238, 2.479e-6
-1.239, 2.451e-6
-1.240, 1.650e-6
-1.241, 1.435e-7
-1.242, 1.547e-8
-1.243, 1.320e-8
-1.244, 1.083e-8
-1.245, 1.182e-8
-1.246, 9.649e-9
-1.247, 8.268e-9
-1.248, 8.761e-9
-1.249, 4.011e-6
-1.250, 1.176e-5
-1.251, 4.748e-6
-1.252, 3.402e-6
-1.253, 3.023e-6
-1.254, 2.841e-6
-1.255, 2.737e-6
-1.256, 2.670e-6
-1.257, 2.627e-6
-1.258, 2.596e-6
-1.259, 2.576e-6
-1.260, 2.558e-6
-1.261, 1.231e-6
-1.262, 6.934e-8
-1.263, 1.448e-8
-1.264, 1.123e-8
-1.265, 1.133e-8
-1.266, 9.452e-9
-1.267, 1.477e-6
-1.268, 1.083e-5
-1.269, 4.765e-6
-1.270, 3.351e-6
-1.271, 3.020e-6
-1.272, 2.872e-6
-1.273, 2.795e-6
-1.274, 2.743e-6
-1.275, 2.717e-6
-1.276, 2.696e-6
-1.277, 2.675e-6
-1.278, 1.226e-6
-1.279, 6.519e-8
-1.280, 1.547e-8
-1.281, 1.251e-8
-1.282, 1.004e-8
-1.283, 1.044e-8
-1.284, 9.550e-9
-1.285, 5.786e-6
-1.286, 1.009e-5
-1.287, 4.427e-6
-1.288, 3.479e-6
-1.289, 3.188e-6
-1.290, 3.046e-6
-1.291, 2.965e-6
-1.292, 2.915e-6
-1.293, 2.886e-6
-1.294, 2.867e-6
-1.295, 2.851e-6
-1.296, 2.844e-6
-1.297, 1.668e-6
-1.298, 1.155e-7
-1.299, 1.577e-8
-1.300, 1.231e-8
-1.301, 1.192e-8
-1.302, 1.004e-8
-1.303, 9.846e-9
-1.304, 7.471e-6
-1.305, 9.516e-6
-1.306, 4.453e-6
-1.307, 3.618e-6
-1.308, 3.346e-6
-1.309, 3.211e-6
-1.310, 3.138e-6
-1.311, 3.090e-6
-1.312, 3.060e-6
-1.313, 3.043e-6
-1.314, 2.881e-6
-1.315, 7.420e-7
-1.316, 3.303e-8
-1.317, 1.310e-8
-1.318, 1.212e-8
-1.319, 1.054e-8
-1.320, 1.093e-8
-1.321, 9.649e-9
-1.322, 8.564e-9
-1.323, 3.538e-7
-1.324, 1.573e-5
-1.325, 7.693e-6
-1.326, 4.532e-6
-1.327, 3.903e-6
-1.328, 3.638e-6
-1.329, 3.498e-6
-1.330, 3.413e-6
-1.331, 3.361e-6
-1.332, 3.323e-6
-1.333, 3.298e-6
-1.334, 2.007e-6
-1.335, 1.463e-7
-1.336, 1.754e-8
-1.337, 1.330e-8
-1.338, 1.192e-8
-1.339, 9.846e-9
-1.340, 9.846e-9
-1.341, 9.748e-9
-1.342, 1.317e-5
-1.343, 9.122e-6
-1.344, 4.846e-6
-1.345, 4.115e-6
-1.346, 3.842e-6
-1.347, 3.704e-6
-1.348, 3.624e-6
-1.349, 3.573e-6
-1.350, 3.545e-6
-1.351, 3.506e-6
-1.352, 1.447e-6
-1.353, 7.161e-8
-1.354, 1.577e-8
-1.355, 1.320e-8
-1.356, 1.093e-8
-1.357, 1.034e-8
-1.358, 9.945e-9
-1.359, 2.456e-6
-1.360, 1.635e-5
-1.361, 6.911e-6
-1.362, 4.745e-6
-1.363, 4.265e-6
-1.364, 4.059e-6
-1.365, 3.949e-6
-1.366, 3.888e-6
-1.367, 3.848e-6
-1.368, 3.827e-6
-1.369, 3.516e-6
-1.370, 7.541e-7
-1.371, 3.402e-8
-1.372, 1.517e-8
-1.373, 1.300e-8
-1.374, 1.044e-8
-1.375, 1.024e-8
-1.376, 1.014e-8
-1.377, 8.860e-9
-1.378, 8.564e-9
-1.379, 1.504e-5
-1.380, 1.337e-5
-1.381, 6.253e-6
-1.382, 5.101e-6
-1.383, 4.712e-6
-1.384, 4.520e-6
-1.385, 4.412e-6
-1.386, 4.347e-6
-1.387, 4.312e-6
-1.388, 4.290e-6
-1.389, 3.432e-6
-1.390, 4.405e-7
-1.391, 2.682e-8
-1.392, 1.665e-8
-1.393, 1.369e-8
-1.394, 1.172e-8
-1.395, 1.123e-8
-1.396, 1.113e-8
-1.397, 9.550e-9
-1.398, 1.863e-5
-1.399, 1.203e-5
-1.400, 6.399e-6
-1.401, 5.477e-6
-1.402, 5.140e-6
-1.403, 4.979e-6
-1.404, 4.889e-6
-1.405, 4.843e-6
-1.406, 4.822e-6
-1.407, 4.809e-6
-1.408, 4.813e-6
-1.409, 3.619e-6
-1.410, 3.966e-7
-1.411, 2.760e-8
-1.412, 1.774e-8
-1.413, 1.458e-8
-1.414, 1.271e-8
-1.415, 1.212e-8
-1.416, 1.212e-8
-1.417, 6.011e-6
-1.418, 2.200e-5
-1.419, 8.949e-6
-1.420, 6.504e-6
-1.421, 5.951e-6
-1.422, 5.716e-6
-1.423, 5.597e-6
-1.424, 5.543e-6
-1.425, 5.520e-6
-1.426, 5.514e-6
-1.427, 5.518e-6
-1.428, 4.118e-6
-1.429, 4.436e-7
-1.430, 3.027e-8
-1.431, 1.971e-8
-1.432, 1.488e-8
-1.433, 1.340e-8
-1.434, 1.142e-8
-1.435, 1.364e-5
-1.436, 1.804e-5
-1.437, 8.343e-6
-1.438, 6.922e-6
-1.439, 6.529e-6
-1.440, 6.362e-6
-1.441, 6.284e-6
-1.442, 6.248e-6
-1.443, 6.242e-6
-1.444, 6.247e-6
-1.445, 6.260e-6
-1.446, 5.406e-6
-1.447, 8.809e-7
-1.448, 4.408e-8
-1.449, 2.228e-8
-1.450, 1.774e-8
-1.451, 1.517e-8
-1.452, 1.300e-8
-1.453, 1.231e-8
-1.454, 1.568e-5
-1.455, 2.223e-5
-1.456, 9.905e-6
-1.457, 8.084e-6
-1.458, 7.598e-6
-1.459, 7.399e-6
-1.460, 7.305e-6
-1.461, 7.267e-6
-1.462, 7.260e-6
-1.463, 7.267e-6
-1.464, 7.236e-6
-1.465, 2.934e-6
-1.466, 1.523e-7
-1.467, 2.869e-8
-1.468, 2.070e-8
-1.469, 1.646e-8
-1.470, 1.596e-8
-1.471, 1.747e-5
-1.472, 2.143e-5
-1.473, 1.040e-5
-1.474, 8.878e-6
-1.475, 8.485e-6
-1.476, 8.323e-6
-1.477, 8.253e-6
-1.478, 8.236e-6
-1.479, 8.243e-6
-1.480, 8.265e-6
-1.481, 7.405e-6
-1.482, 1.402e-6
-1.483, 6.480e-8
-1.484, 2.652e-8
-1.485, 2.021e-8
-1.486, 1.833e-8
-1.487, 1.586e-8
-1.488, 1.429e-8
-1.489, 1.261e-8
-1.490, 1.664e-5
-1.491, 3.336e-5
-1.492, 1.390e-5
-1.493, 1.091e-5
-1.494, 1.021e-5
-1.495, 9.924e-6
-1.496, 9.790e-6
-1.497, 9.732e-6
-1.498, 9.712e-6
-1.499, 9.721e-6
-1.500, 9.750e-6
-1.501, 9.751e-6
-1.502, 4.301e-6
-1.503, 2.476e-7
-1.504, 4.033e-8
-1.505, 2.751e-8
-1.506, 2.247e-8
-1.507, 6.619e-6
-1.508, 3.435e-5
-1.509, 1.538e-5
-1.510, 1.188e-5
-1.511, 1.127e-5
-1.512, 1.106e-5
-1.513, 1.099e-5
-1.514, 1.097e-5
-1.515, 1.099e-5
-1.516, 1.103e-5
-1.517, 1.093e-5
-1.518, 3.982e-6
-1.519, 2.021e-7
-1.520, 4.112e-8
-1.521, 2.859e-8
-1.522, 2.159e-8
-1.523, 1.873e-8
-1.524, 1.616e-8
-1.525, 1.478e-8
-1.526, 2.203e-5
-1.527, 4.126e-5
-1.528, 1.762e-5
-1.529, 1.418e-5
-1.530, 1.340e-5
-1.531, 1.310e-5
-1.532, 1.297e-5
-1.533, 1.292e-5
-1.534, 1.293e-5
-1.535, 1.295e-5
-1.536, 1.300e-5
-1.537, 1.306e-5
-1.538, 7.326e-6
-1.539, 5.375e-7
-1.540, 5.987e-8
-1.541, 3.658e-8
-1.542, 7.449e-7
-1.543, 4.016e-5
-1.544, 2.220e-5
-1.545, 1.562e-5
-1.546, 1.477e-5
-1.547, 1.454e-5
-1.548, 1.447e-5
-1.549, 1.448e-5
-1.550, 1.452e-5
-1.551, 1.459e-5
-1.552, 1.467e-5
-1.553, 9.728e-6
-1.554, 8.831e-7
-1.555, 7.042e-8
-1.556, 4.004e-8
-1.557, 2.918e-8
-1.558, 2.317e-8
-1.559, 2.001e-8
-1.560, 1.744e-8
-1.561, 2.412e-5
-1.562, 5.287e-5
-1.563, 2.283e-5
-1.564, 1.845e-5
-1.565, 1.757e-5
-1.566, 1.724e-5
-1.567, 1.711e-5
-1.568, 1.708e-5
-1.569, 1.711e-5
-1.570, 1.717e-5
-1.571, 1.725e-5
-1.572, 1.734e-5
-1.573, 1.401e-5
-1.574, 1.988e-6
-1.575, 1.257e-7
-1.576, 5.503e-8
-1.577, 3.035e-5
-1.578, 3.499e-5
-1.579, 2.087e-5
-1.580, 1.932e-5
-1.581, 1.904e-5
-1.582, 1.899e-5
-1.583, 1.903e-5
-1.584, 1.912e-5
-1.585, 1.924e-5
-1.586, 1.936e-5
-1.587, 1.949e-5
-1.588, 1.063e-5
-1.589, 7.659e-7
-1.590, 8.177e-8
-1.591, 4.901e-8
-1.592, 3.520e-8
-1.593, 2.810e-8
-1.594, 2.736e-6
-1.595, 6.719e-5
-1.596, 3.579e-5
-1.597, 2.429e-5
-1.598, 2.281e-5
-1.599, 2.239e-5
-1.600, 2.228e-5
-1.601, 2.229e-5
-1.602, 2.236e-5
-1.603, 2.247e-5
-1.604, 2.260e-5
-1.605, 1.421e-5
-1.606, 1.268e-6
-1.607, 1.147e-7
-1.608, 5.898e-8
-1.609, 4.181e-8
-1.610, 3.362e-8
-1.611, 2.859e-8
-1.612, 2.415e-8
-1.613, 4.870e-5
-1.614, 6.444e-5
-1.615, 3.149e-5
-1.616, 2.737e-5
-1.617, 2.652e-5
-1.618, 2.624e-5
-1.619, 2.619e-5
-1.620, 2.625e-5
-1.621, 2.636e-5
-1.622, 2.647e-5
-1.623, 1.283e-5
-1.624, 9.249e-7
-1.625, 1.224e-7
-1.626, 6.904e-8
-1.627, 4.852e-8
-1.628, 3.777e-8
-1.629, 3.264e-8
-1.630, 2.721e-8
-1.631, 2.553e-8
-1.632, 1.118e-6
-1.633, 1.001e-4
-1.634, 5.363e-5
-1.635, 3.458e-5
-1.636, 3.218e-5
-1.637, 3.152e-5
-1.638, 3.133e-5
-1.639, 3.136e-5
-1.640, 3.146e-5
-1.641, 3.163e-5
-1.642, 3.184e-5
-1.643, 3.209e-5
-1.644, 2.051e-5
-1.645, 2.015e-6
-1.646, 1.955e-7
-1.647, 9.381e-8
-1.648, 6.322e-8
-1.649, 3.395e-7
-1.650, 8.754e-5
-1.651, 5.466e-5
-1.652, 3.809e-5
-1.653, 3.641e-5
-1.654, 3.615e-5
-1.655, 3.621e-5
-1.656, 3.643e-5
-1.657, 3.671e-5
-1.658, 3.703e-5
-1.659, 3.701e-5
-1.660, 1.495e-5
-1.661, 9.744e-7
-1.662, 1.463e-7
-1.663, 8.187e-8
-1.664, 5.937e-8
-1.665, 4.655e-8
-1.666, 4.053e-8
-1.667, 3.402e-8
-1.668, 5.528e-6
-1.669, 1.236e-4
-1.670, 6.355e-5
-1.671, 4.625e-5
-1.672, 4.433e-5
-1.673, 4.400e-5
-1.674, 4.411e-5
-1.675, 4.441e-5
-1.676, 4.480e-5
-1.677, 4.525e-5
-1.678, 4.573e-5
-1.679, 3.492e-5
-1.680, 4.698e-6
-1.681, 3.429e-7
-1.682, 1.302e-7
-1.683, 8.374e-8
-1.684, 6.332e-8
-1.685, 5.138e-8
-1.686, 4.418e-8
-1.687, 3.816e-8
-1.688, 7.775e-5
-1.689, 1.108e-4
-1.690, 6.025e-5
-1.691, 5.470e-5
-1.692, 5.411e-5
-1.693, 5.432e-5
-1.694, 5.481e-5
-1.695, 5.544e-5
-1.696, 5.616e-5
-1.697, 5.692e-5
-1.698, 5.768e-5
-1.699, 4.051e-5
-1.700, 4.727e-6
-1.701, 3.681e-7
-1.702, 1.476e-7
-1.703, 9.499e-8
-1.704, 7.171e-8
-1.705, 5.701e-8
-1.706, 2.720e-5
-1.707, 1.454e-4
-1.708, 7.812e-5
-1.709, 6.727e-5
-1.710, 6.684e-5
-1.711, 6.750e-5
-1.712, 6.840e-5
-1.713, 6.950e-5
-1.714, 7.070e-5
-1.715, 7.188e-5
-1.716, 7.234e-5
-1.717, 3.247e-5
-1.718, 2.391e-6
-1.719, 2.792e-7
-1.720, 1.389e-7
-1.721, 9.568e-8
-1.722, 7.279e-8
-1.723, 5.829e-8
-1.724, 5.000e-8
-1.725, 5.041e-5
-1.726, 1.622e-4
-1.727, 9.242e-5
-1.728, 8.400e-5
-1.729, 8.465e-5
-1.730, 8.626e-5
-1.731, 8.816e-5
-1.732, 9.016e-5
-1.733, 9.218e-5
-1.734, 9.421e-5
-1.735, 8.374e-5
-1.736, 1.706e-5
-1.737, 1.011e-6
-1.738, 2.393e-7
-1.739, 1.389e-7
-1.740, 9.765e-8
-1.741, 7.763e-8
-1.742, 6.352e-8
-1.743, 5.474e-8
-1.744, 7.651e-5
-1.745, 1.795e-4
-1.746, 1.148e-4
-1.747, 1.101e-4
-1.748, 1.126e-4
-1.749, 1.158e-4
-1.750, 1.192e-4
-1.751, 1.225e-4
-1.752, 1.258e-4
-1.753, 1.290e-4
-1.754, 1.320e-4
-1.755, 1.351e-4
-1.756, 1.086e-4
-1.757, 1.701e-5
-1.758, 9.964e-7
-1.759, 2.714e-7
-1.760, 1.097e-5
-1.761, 1.897e-4
-1.762, 1.533e-4
-1.763, 1.466e-4
-1.764, 1.516e-4
-1.765, 1.568e-4
-1.766, 1.620e-4
-1.767, 1.672e-4
-1.768, 1.722e-4
-1.769, 1.772e-4
-1.770, 1.817e-4
-1.771, 9.256e-5
-1.772, 7.369e-6
-1.773, 5.526e-7
-1.774, 2.357e-7
-1.775, 1.523e-7
-1.776, 1.147e-7
-1.777, 9.154e-8
-1.778, 7.565e-8
-1.779, 1.630e-4
-1.780, 2.309e-4
-1.781, 2.014e-4
-1.782, 2.082e-4
-1.783, 2.171e-4
-1.784, 2.257e-4
-1.785, 2.343e-4
-1.786, 2.424e-4
-1.787, 2.504e-4
-1.788, 2.580e-4
-1.789, 2.092e-4
-1.790, 3.380e-5
-1.791, 1.797e-6
-1.792, 4.035e-7
-1.793, 2.303e-7
-1.794, 1.610e-7
-1.795, 1.240e-7
-1.796, 1.011e-7
-1.797, 8.463e-8
-1.798, 9.542e-5
-1.799, 3.177e-4
-1.800, 2.862e-4
-1.801, 2.971e-4
-1.802, 3.120e-4
-1.803, 3.255e-4
-1.804, 3.384e-4
-1.805, 3.506e-4
-1.806, 3.619e-4
-1.807, 3.735e-4
-1.808, 3.845e-4
-1.809, 2.180e-4
-1.810, 2.143e-5
-1.811, 1.325e-6
-1.812, 4.353e-7
-1.813, 2.650e-7
-1.814, 1.885e-7
-1.815, 1.017e-4
-1.816, 3.942e-4
-1.817, 4.010e-4
-1.818, 4.206e-4
-1.819, 4.418e-4
-1.820, 4.622e-4
-1.821, 4.808e-4
-1.822, 4.988e-4
-1.823, 5.162e-4
-1.824, 5.327e-4
-1.825, 5.481e-4
-1.826, 3.228e-4
-1.827, 3.510e-5
-1.828, 2.069e-6
-1.829, 5.802e-7
-1.830, 3.455e-7
-1.831, 2.449e-7
-1.832, 1.889e-7
-1.833, 1.550e-7
-1.834, 1.314e-7
-1.835, 2.762e-4
-1.836, 5.558e-4
-1.837, 5.924e-4
-1.838, 6.312e-4
-1.839, 6.663e-4
-1.840, 6.977e-4
-1.841, 7.277e-4
-1.842, 7.572e-4
-1.843, 7.853e-4
-1.844, 8.119e-4
-1.845, 8.373e-4
-1.846, 7.979e-4
-1.847, 2.346e-4
-1.848, 1.826e-5
-1.849, 1.596e-6
-1.850, 6.573e-7
-1.851, 4.236e-7
-1.852, 3.127e-7
-1.853, 1.089e-4
-1.854, 7.157e-4
-1.855, 8.739e-4
-1.856, 9.363e-4
-1.857, 9.889e-4
-1.858, 1.011e-3
-1.859, 1.011e-3
-1.860, 1.011e-3
-1.861, 1.011e-3
-1.862, 1.011e-3
-1.863, 1.011e-3
-1.864, 8.132e-4
-1.865, 1.509e-4
-1.866, 1.090e-5
-1.867, 1.529e-6
-1.868, 7.641e-7
-1.869, 5.209e-7
-1.870, 3.955e-7
-1.871, 3.206e-7
-1.872, 8.084e-5
-1.873, 8.749e-4
-1.874, 1.011e-3
-1.875, 1.011e-3
-1.876, 1.011e-3
-1.877, 1.011e-3
-1.878, 1.011e-3
-1.879, 1.011e-3
-1.880, 1.011e-3
-1.881, 1.011e-3
-1.882, 7.648e-4
-1.883, 1.268e-4
-1.884, 9.066e-6
-1.885, 1.476e-6
-1.886, 7.745e-7
-1.887, 5.364e-7
-1.888, 4.115e-7
-1.889, 3.369e-7
-1.890, 2.817e-7
-1.891, 2.440e-7
-1.892, 3.524e-6
-1.893, 6.802e-4
-1.894, 1.011e-3
-1.895, 1.011e-3
-1.896, 1.011e-3
-1.897, 1.011e-3
-1.898, 1.011e-3
-1.899, 1.011e-3
