Potential V vs RHE, Current mA cm-2
0.013299999999999867,-0.3511313446265021
0.012299999999999978,-2.095187435100119
0.011299999999999866,-3.273641947887695
0.010299999999999976,-4.1889601589003735
0.009299999999999864,-4.756259390146253
0.008299999999999974,-5.105693081212917
0.007299999999999862,-5.279702571096316
0.006299999999999972,-5.367414671687949
0.00529999999999986,-5.367414671687949
0.0042999999999999705,-5.367414671687949
0.0032999999999998586,-5.411270721983764
0.0022999999999999687,-5.453712060979717
0.0012999999999998568,-5.629136262162981
0.00029999999999996696,-5.847001802342197
-0.000700000000000145,-6.021011292225596
-0.0017000000000000348,-6.238876832404812
-0.0027000000000001467,-6.282732882700628
-0.0037000000000000366,-6.326588932996443
-0.0047000000000001485,-6.238876832404812
-0.005700000000000038,-6.108723392817228
-0.00670000000000015,-6.021011292225596
-0.00770000000000004,-5.890857852638012
-0.008700000000000152,-5.9347139029338285
-0.009700000000000042,-5.977155241929781
-0.010700000000000154,-6.064867342521412
-0.011700000000000044,-6.238876832404812
-0.012700000000000156,-6.37044498329226
-0.013700000000000045,-6.500598422879844
-0.014700000000000157,-6.588310523471475
-0.015700000000000047,-6.458157083883892
-0.01670000000000016,-6.37044498329226
-0.01770000000000005,-6.282732882700628
-0.01870000000000016,-6.108723392817228
-0.01970000000000005,-6.064867342521412
-0.020700000000000163,-6.021011292225596
-0.021700000000000053,-6.108723392817228
-0.022700000000000164,-6.238876832404812
-0.023700000000000054,-6.37044498329226
-0.024700000000000166,-6.588310523471475
-0.025700000000000056,-6.588310523471475
-0.026700000000000168,-6.632166573767292
-0.027700000000000058,-6.54445447317566
-0.02870000000000017,-6.414301033588076
-0.02970000000000006,-6.282732882700628
-0.03070000000000017,-6.108723392817228
-0.03170000000000006,-6.108723392817228
-0.03270000000000017,-6.064867342521412
-0.03370000000000006,-6.196435493408861
-0.034700000000000175,-6.326588932996443
-0.035700000000000065,-6.458157083883892
-0.03670000000000018,-6.632166573767292
-0.03770000000000007,-6.632166573767292
-0.03870000000000018,-6.632166573767292
-0.03970000000000007,-6.500598422879844
-0.04070000000000018,-6.37044498329226
-0.04170000000000007,-6.238876832404812
-0.04270000000000018,-6.108723392817228
-0.04370000000000007,-6.108723392817228
-0.044700000000000184,-6.152579443113044
-0.045700000000000074,-6.238876832404812
-0.046700000000000186,-6.37044498329226
-0.047700000000000076,-6.500598422879844
-0.04870000000000019,-6.588310523471475
-0.04970000000000008,-6.6760226240631075
-0.05070000000000019,-6.588310523471475
-0.05170000000000008,-6.458157083883892
-0.05270000000000019,-6.326588932996443
-0.05370000000000008,-6.196435493408861
-0.05470000000000019,-6.108723392817228
-0.05570000000000008,-6.064867342521412
-0.056700000000000195,-6.196435493408861
-0.057700000000000085,-6.326588932996443
-0.058700000000000196,-6.414301033588076
-0.059700000000000086,-6.632166573767292
-0.0607000000000002,-6.632166573767292
-0.06170000000000009,-6.6760226240631075
-0.0627000000000002,-6.588310523471475
-0.06370000000000009,-6.414301033588076
-0.0647000000000002,-6.282732882700628
-0.06570000000000009,-6.152579443113044
-0.0667000000000002,-6.108723392817228
-0.0677000000000001,-6.108723392817228
-0.0687000000000002,-6.196435493408861
-0.0697000000000001,-6.326588932996443
-0.07070000000000021,-6.500598422879844
-0.0717000000000001,-6.6760226240631075
-0.07270000000000021,-6.632166573767292
-0.0737000000000001,-6.632166573767292
-0.07470000000000021,-6.54445447317566
-0.0757000000000001,-6.414301033588076
-0.07670000000000021,-6.282732882700628
-0.0777000000000001,-6.152579443113044
-0.07870000000000021,-6.108723392817228
-0.0797000000000001,-6.152579443113044
-0.08070000000000022,-6.282732882700628
-0.0817000000000001,-6.414301033588076
-0.08270000000000022,-6.54445447317566
-0.08370000000000011,-6.632166573767292
-0.08470000000000022,-6.6760226240631075
-0.08570000000000011,-6.588310523471475
-0.08670000000000022,-6.500598422879844
-0.08770000000000011,-6.37044498329226
-0.08870000000000022,-6.196435493408861
-0.08970000000000011,-6.152579443113044
-0.09070000000000022,-6.108723392817228
-0.09170000000000011,-6.238876832404812
-0.09270000000000023,-6.326588932996443
-0.09370000000000012,-6.458157083883892
-0.09470000000000023,-6.632166573767292
-0.09570000000000012,-6.6760226240631075
-0.09670000000000023,-6.719878674358924
-0.09770000000000012,-6.632166573767292
-0.09870000000000023,-6.458157083883892
-0.09970000000000012,-6.326588932996443
-0.10070000000000023,-6.152579443113044
-0.10170000000000012,-6.152579443113044
-0.10270000000000024,-6.152579443113044
-0.10370000000000013,-6.282732882700628
-0.10470000000000024,-6.414301033588076
-0.10570000000000013,-6.54445447317566
-0.10670000000000024,-6.719878674358924
-0.10770000000000013,-6.719878674358924
-0.10870000000000024,-6.719878674358924
-0.10970000000000013,-6.588310523471475
-0.11070000000000024,-6.500598422879844
-0.11170000000000013,-6.326588932996443
-0.11270000000000002,-6.238876832404812
-0.11370000000000013,-6.196435493408861
-0.11470000000000002,-6.238876832404812
-0.11570000000000014,-6.37044498329226
-0.11670000000000003,-6.500598422879844
-0.11770000000000014,-6.632166573767292
-0.11870000000000003,-6.719878674358924
-0.11970000000000014,-6.762320013354876
-0.12070000000000003,-6.719878674358924
-0.12170000000000014,-6.588310523471475
-0.12270000000000003,-6.458157083883892
-0.12370000000000014,-6.326588932996443
-0.12470000000000003,-6.238876832404812
-0.12570000000000014,-6.238876832404812
-0.12670000000000003,-6.326588932996443
-0.12770000000000015,-6.458157083883892
-0.12870000000000004,-6.588310523471475
-0.12970000000000015,-6.762320013354876
-0.13070000000000004,-6.806176063650692
-0.13170000000000015,-6.850032113946507
-0.13270000000000004,-6.762320013354876
-0.13370000000000015,-6.632166573767292
-0.13470000000000004,-6.500598422879844
-0.13570000000000015,-6.326588932996443
-0.13670000000000004,-6.282732882700628
-0.13770000000000016,-6.282732882700628
-0.13870000000000005,-6.414301033588076
-0.13970000000000016,-6.588310523471475
-0.14070000000000005,-6.6760226240631075
-0.14170000000000016,-6.850032113946507
-0.14270000000000005,-6.893888164242324
-0.14370000000000016,-6.893888164242324
-0.14470000000000005,-6.806176063650692
-0.14570000000000016,-6.6760226240631075
-0.14670000000000005,-6.500598422879844
-0.14770000000000016,-6.414301033588076
-0.14870000000000005,-6.37044498329226
-0.14970000000000017,-6.414301033588076
-0.15070000000000006,-6.54445447317566
-0.15170000000000017,-6.6760226240631075
-0.15270000000000006,-6.850032113946507
-0.15370000000000017,-6.981600264833956
-0.15470000000000006,-6.981600264833956
-0.15570000000000017,-6.93774421453814
-0.15670000000000006,-6.806176063650692
-0.15770000000000017,-6.6760226240631075
-0.15870000000000006,-6.54445447317566
-0.15970000000000018,-6.500598422879844
-0.16070000000000007,-6.458157083883892
-0.16170000000000018,-6.588310523471475
-0.16270000000000007,-6.719878674358924
-0.16370000000000018,-6.850032113946507
-0.16470000000000007,-7.024041603829907
-0.16570000000000018,-7.111753704421539
-0.16670000000000007,-7.111753704421539
-0.16770000000000018,-7.024041603829907
-0.16870000000000007,-6.893888164242324
-0.16970000000000018,-6.762320013354876
-0.17070000000000007,-6.588310523471475
-0.17170000000000019,-6.588310523471475
-0.17270000000000008,-6.588310523471475
-0.1737000000000002,-6.719878674358924
-0.17470000000000008,-6.850032113946507
-0.1757000000000002,-7.024041603829907
-0.17670000000000008,-7.199465805013171
-0.1777000000000002,-7.199465805013171
-0.17870000000000008,-7.199465805013171
-0.1797000000000002,-7.111753704421539
-0.18070000000000008,-6.981600264833956
-0.1817000000000002,-6.850032113946507
-0.18270000000000008,-6.719878674358924
-0.1837000000000002,-6.719878674358924
-0.1847000000000001,-6.806176063650692
-0.1857000000000002,-6.893888164242324
-0.1867000000000001,-7.067897654125724
-0.1877000000000002,-7.199465805013171
-0.1887000000000001,-7.329619244600755
-0.1897000000000002,-7.37347529489657
-0.1907000000000001,-7.329619244600755
-0.1917000000000001,-7.199465805013171
-0.19269999999999998,-7.111753704421539
-0.1937000000000001,-6.93774421453814
-0.19469999999999998,-6.893888164242324
-0.1957000000000001,-6.893888164242324
-0.19669999999999999,-6.981600264833956
-0.1977000000000001,-7.155609754717355
-0.1987,-7.28576319430494
-0.1997000000000001,-7.461187395488204
-0.2007,-7.50504344578402
-0.2017000000000001,-7.591340835075788
-0.2027,-7.50504344578402
-0.2037000000000001,-7.37347529489657
-0.2047,-7.243321855308987
-0.2057000000000001,-7.111753704421539
-0.2067,-7.111753704421539
-0.2077000000000001,-7.067897654125724
-0.2087,-7.199465805013171
-0.2097000000000001,-7.37347529489657
-0.2107,-7.50504344578402
-0.2117000000000001,-7.722908985963235
-0.2127,-7.722908985963235
-0.2137000000000001,-7.7653503249591855
-0.2147,-7.679052935667419
-0.2157000000000001,-7.591340835075788
-0.2167,-7.50504344578402
-0.21770000000000012,-7.37347529489657
-0.2187,-7.329619244600755
-0.21970000000000012,-7.37347529489657
-0.2207,-7.5474847847799715
-0.22170000000000012,-7.679052935667419
-0.2227,-7.853062425550818
-0.22370000000000012,-7.940774526142452
-0.2247,-8.027071915434218
-0.22570000000000012,-7.984630576438266
-0.2267,-7.896918475846635
-0.22770000000000012,-7.809206375255003
-0.22870000000000001,-7.679052935667419
-0.22970000000000013,-7.591340835075788
-0.23070000000000002,-7.635196885371603
-0.23170000000000013,-7.722908985963235
-0.23270000000000002,-7.896918475846635
-0.23370000000000013,-8.027071915434218
-0.23470000000000002,-8.202496116617484
-0.23570000000000013,-8.288793505909249
-0.23670000000000002,-8.332649556205066
-0.2376999999999999,-8.288793505909249
-0.23870000000000002,-8.158640066321666
-0.2396999999999999,-8.070927965730034
-0.24070000000000003,-7.896918475846635
-0.24169999999999991,-7.940774526142452
-0.24270000000000003,-7.940774526142452
-0.24369999999999992,-8.070927965730034
-0.24470000000000003,-8.246352166913299
-0.24569999999999992,-8.464217707092514
-0.24670000000000003,-8.638227196975913
-0.24769999999999992,-8.68208324727173
-0.24870000000000003,-8.68208324727173
-0.24969999999999992,-8.594371146680096
-0.25070000000000003,-8.508073757388331
-0.2516999999999999,-8.4203616567967
-0.25270000000000004,-8.332649556205066
-0.2536999999999999,-8.332649556205066
-0.25470000000000004,-8.4203616567967
-0.2556999999999999,-8.55051509638428
-0.25670000000000004,-8.725939297567548
-0.25769999999999993,-8.899948787450944
-0.25870000000000004,-9.031516938338395
-0.25969999999999993,-9.11781432763016
-0.26070000000000004,-9.073958277334345
-0.26169999999999993,-9.031516938338395
-0.26270000000000004,-8.943804837746763
-0.26369999999999993,-8.812236686859313
-0.26470000000000005,-8.812236686859313
-0.26569999999999994,-8.812236686859313
-0.26670000000000005,-8.943804837746763
-0.26769999999999994,-9.11781432763016
-0.26870000000000005,-9.293238528813426
-0.26969999999999994,-9.511104068992642
-0.27070000000000005,-9.59740145828441
-0.27169999999999994,-9.641257508580225
-0.27270000000000005,-9.641257508580225
-0.27369999999999994,-9.511104068992642
-0.27470000000000006,-9.423391968401008
-0.27569999999999995,-9.335679867809377
-0.27670000000000006,-9.335679867809377
-0.27769999999999995,-9.379535918105192
-0.27870000000000006,-9.55496011928846
-0.27969999999999995,-9.728969609171857
-0.28070000000000006,-9.946835149351072
-0.28169999999999995,-10.164700689530287
-0.28270000000000006,-10.208556739826104
-0.28369999999999995,-10.296268840417738
-0.28470000000000006,-10.208556739826104
-0.28569999999999995,-10.120844639234473
-0.28670000000000007,-10.078403300238522
-0.28769999999999996,-9.99069119964689
-0.28870000000000007,-10.034547249942705
-0.28969999999999996,-10.120844639234473
-0.29070000000000007,-10.296268840417738
-0.29169999999999996,-10.514134380596953
-0.29270000000000007,-10.731999920776168
-0.29369999999999996,-10.863568071663616
-0.2947000000000001,-10.993721511251199
-0.29569999999999996,-10.949865460955383
-0.2967000000000001,-10.949865460955383
-0.29769999999999996,-10.863568071663616
-0.2987000000000001,-10.775855971071984
-0.29969999999999997,-10.819712021367803
-0.3007000000000001,-10.863568071663616
-0.30169999999999997,-10.993721511251199
-0.3027000000000001,-11.211587051430415
-0.30369999999999997,-11.385596541313816
-0.3047000000000001,-11.647318131788847
-0.30569999999999997,-11.778886282676295
-0.3067000000000001,-11.909039722263879
-0.3077,-11.952895772559694
-0.3087000000000001,-11.86659838326793
-0.3097,-11.82274233297211
-0.3107000000000001,-11.73503023238048
-0.3117,-11.778886282676295
-0.3127000000000001,-11.86659838326793
-0.3137,-12.084463923447142
-0.3147000000000001,-12.302329463626359
-0.3157,-12.520195003805576
-0.3167000000000001,-12.825772644576423
-0.3177,-12.913484745168056
-0.3187000000000001,-12.99978213445982
-0.3197,-13.043638184755638
-0.3207000000000001,-12.99978213445982
-0.3217,-12.955926084164007
-0.3227000000000001,-12.955926084164007
-0.3237,-13.043638184755638
-0.3247000000000001,-13.175206335643086
-0.3257,-13.436927926118118
-0.3267000000000001,-13.654793466297335
-0.3277,-13.916515056772363
-0.3287000000000001,-14.13438059695158
-0.3297,-14.30273124163552
-0.3307000000000001,-14.345172580631472
-0.3317,-14.401761032626075
-0.3327000000000001,-14.401761032626075
-0.3337,-14.345172580631472
-0.3347000000000001,-14.444202371622024
-0.3357,-14.529085049613924
-0.3367000000000001,-14.783733083589633
-0.3377,-15.01008689156804
-0.3387000000000001,-15.264734925543747
-0.3397,-15.618412750510005
-0.3407000000000001,-15.78817810649381
-0.3417,-16.014531914472215
-0.3427000000000001,-16.099414592464115
-0.3437,-16.099414592464115
-0.3447000000000001,-16.099414592464115
-0.3457,-16.099414592464115
-0.3467000000000001,-16.22673860945197
-0.3477,-16.354062626439823
-0.3487000000000001,-16.622857773414182
-0.3497,-16.919947146385837
-0.3507000000000001,-17.2736249713521
-0.3517,-17.584861457322408
-0.3527000000000001,-17.797068152302163
-0.3537,-17.924392169290012
-0.3547000000000001,-18.009274847281915
-0.3557,-18.10830463827247
-0.35670000000000013,-18.15074597726842
-0.3577,-18.23562865526032
-0.35870000000000013,-18.362952672248177
-0.3597,-18.589306480226583
-0.36070000000000013,-18.92883719219419
-0.3617,-19.28251501716045
-0.3626999999999999,-19.636192842126707
-0.3637,-19.93328221509837
-0.3646999999999999,-20.159636023076775
-0.3657,-20.329401379060574
-0.3666999999999999,-20.456725396048434
-0.3677,-20.541608074040333
-0.3686999999999999,-20.626490752032236
-0.36970000000000003,-20.76796188201874
-0.3706999999999999,-20.980168576998494
-0.37170000000000003,-21.291405062968803
-0.3726999999999999,-21.63093577493641
-0.37370000000000003,-21.98461359990267
-0.3746999999999999,-22.42317410286083
-0.37570000000000003,-22.67782213683654
-0.3766999999999999,-22.989058622806844
-0.37770000000000004,-23.15882397879065
-0.3786999999999999,-23.300295108777156
-0.37970000000000004,-23.427619125765005
-0.3806999999999999,-23.51250180375691
-0.38170000000000004,-23.767149837732617
-0.38269999999999993,-23.993503645711023
-0.38370000000000004,-24.389622809673234
-0.38469999999999993,-24.771594860636792
-0.38570000000000004,-25.167714024599
-0.38669999999999993,-25.60627452755716
-0.38770000000000004,-25.959952352523427
-0.38869999999999993,-26.21460038649913
-0.38970000000000005,-26.440954194477534
-0.39069999999999994,-26.568278211465387
-0.39170000000000005,-26.780484906445146
-0.39269999999999994,-26.907808923433
-0.39370000000000005,-27.176604070407354
-0.39469999999999994,-27.530281895373616
-0.39570000000000005,-27.912253946337174
-0.39669999999999994,-28.350814449295335
-0.39770000000000005,-28.831816291249446
-0.39869999999999994,-29.27037679420761
-0.39970000000000006,-29.62405461917387
-0.40069999999999995,-29.878702653149578
-0.40170000000000006,-30.147497800123933
-0.40269999999999995,-30.317263156107735
-0.40370000000000006,-30.529469851087494
-0.40469999999999995,-30.79826499806185
-0.40570000000000006,-31.052913032037555
-0.40669999999999995,-31.49147353499572
-0.40770000000000006,-31.972475376949827
-0.40869999999999995,-32.41103587990799
-0.40970000000000006,-32.97692039985401
-0.41069999999999995,-33.330598224820264
-0.41170000000000007,-33.81160006677438
-0.41269999999999996,-34.06624810075008
-0.41370000000000007,-34.33504324772444
-0.41469999999999996,-34.58969128170015
-0.41570000000000007,-34.8018979766799
-0.41669999999999996,-35.15557580164616
-0.41770000000000007,-35.50925362661242
-0.41869999999999996,-35.99025546856653
-0.4197000000000001,-36.5136986495166
-0.42069999999999996,-37.037141830466666
-0.4217000000000001,-37.60302635041268
-0.42269999999999996,-38.04158685337084
-0.4237000000000001,-38.42355890433439
-0.42469999999999997,-38.777236729300654
-0.4257000000000001,-39.08847321527096
-0.42669999999999997,-39.34312124924667
-0.4277000000000001,-39.61191639622103
-0.42869999999999997,-39.99388844718459
-0.4297000000000001,-40.4748902891387
-0.43069999999999997,-40.99833347008877
-0.4317000000000001,-41.52177665103883
-0.4327,-42.130102509980794
-0.4337000000000001,-42.71013414292546
-0.4347,-43.17698887188092
-0.4357000000000001,-43.61554937483908
-0.4367,-43.96922719980534
-0.4377000000000001,-44.28046368577565
-0.4387,-44.577553058747306
-0.4397000000000001,-45.01611356170547
-0.4407,-45.412232725667685
-0.4417000000000001,-45.97811724561369
-0.4427,-46.501560426563756
-0.4437000000000001,-47.10988628550572
-0.4447,-47.76065348344364
-0.4457000000000001,-48.32653800338966
-0.4467,-48.84998118433972
-0.4477000000000001,-49.24610034830193
-0.4487,-49.68466085126009
-0.4497000000000001,-50.024191563227696
-0.4507,-50.37786938819396
-0.4517000000000001,-50.85887123014807
-0.4527,-51.33987307210218
-0.4537000000000001,-51.90575759204819
-0.4547,-52.55652478998611
-0.4557000000000001,-53.22143910092268
-0.4567,-53.91464763785655
-0.4577000000000001,-54.480532157802564
-0.4587,-55.003975338752625
-0.4597000000000001,-55.484977180706736
-0.4607,-55.9235376836649
-0.4617000000000001,-56.36209818662306
-0.4627,-56.786511576582576
-0.4637000000000001,-57.26751341853669
-0.4647,-57.8333979384827
-0.4657000000000001,-58.498312249419264
-0.4667,-59.19152078635314
-0.4677000000000001,-59.884729323287
-0.4687,-60.54964363422357
-0.4697000000000001,-61.20041083216149
-0.4707,-61.72385401311155
-0.4717000000000001,-62.20485585506566
-0.4727,-62.68585769701977
-0.4737000000000001,-63.06782974798333
-0.4747,-63.59127292893339
-0.4757000000000001,-64.11471610988345
-0.4767,-64.77963042082003
-0.4777000000000001,-65.51528029674984
-0.4787,-66.25093017267966
-0.4797000000000001,-67.00072716160814
-0.4807,-67.693935698542
-0.48170000000000013,-68.38714423547587
-0.4827,-68.91058741642594
-0.48370000000000013,-69.43403059737601
-0.4847,-69.91503243933012
-0.48570000000000013,-70.39603428128423
-0.4867,-71.0043601402262
-0.4876999999999999,-71.58439177317086
-0.4887,-72.32004164910067
-0.4896999999999999,-73.0556915250305
-0.4907,-73.8479298529549
-0.4916999999999999,-74.66846240687663
-0.4927,-75.37581805680915
-0.4936999999999999,-76.02658525474708
-0.49470000000000003,-76.63491111368903
-0.4956999999999999,-77.20079563363505
-0.49670000000000003,-77.76668015358106
-0.4976999999999999,-78.29012333453113
-0.49870000000000003,-78.91259630647174
-0.4996999999999999,-79.60580484340561
-0.5007,-80.34145471933543
-0.5016999999999999,-81.1761343862558
-0.5027,-82.03910827917348
-0.5036999999999999,-82.8313466070979
-0.5047,-83.66602627401826
-0.5056999999999999,-84.31679347195619
-0.5067,-84.8826779919022
-0.5076999999999999,-85.49100385084417
-0.5087,-86.01444703179425
-0.5096999999999999,-86.66521422973216
-0.5107,-87.33012854066871
-0.5116999999999999,-88.10821975559449
-0.5127,-88.94289942251486
