Dec. 29, 2024   17:07:03
Cyclic Voltammetry
File: c:/users/guazh/data/banditlqround7_x0exp136_r20/2024-12-24-exp779\exp779-2024-12-29t16_51_09-h2koh\exp779_cv_sr_700mvs_efin_-1600mv.bin
Data Source:  Experiment
Instrument Model:  CHI760E
Header: CV ran at 700 mVs
Note: 

Init E (V) = -1
High E (V) = -1
Low E (V) = -1.6
Final E (V) = -1
Init P/N = N
Scan Rate (V/s) = 0.7
Segment = 3
Sample Interval (V) = 0.001
Quiet Time (sec) = 2
Sensitivity (A/V) = 0.01
Comp R (ohm) = 1.2

Results:

Channel 1:
Segment 1:

Segment 2:

Segment 3:

Potential/V, Current/A

-1.000, 2.482e-5
-1.001, 1.481e-4
-1.002, 2.314e-4
-1.003, 2.961e-4
-1.004, 3.362e-4
-1.005, 3.609e-4
-1.006, 3.732e-4
-1.007, 3.794e-4
-1.008, 3.794e-4
-1.009, 3.794e-4
-1.010, 3.825e-4
-1.011, 3.855e-4
-1.012, 3.979e-4
-1.013, 4.133e-4
-1.014, 4.256e-4
-1.015, 4.410e-4
-1.016, 4.441e-4
-1.017, 4.472e-4
-1.018, 4.410e-4
-1.019, 4.318e-4
-1.020, 4.256e-4
-1.021, 4.164e-4
-1.022, 4.195e-4
-1.023, 4.225e-4
-1.024, 4.287e-4
-1.025, 4.410e-4
-1.026, 4.503e-4
-1.027, 4.595e-4
-1.028, 4.657e-4
-1.029, 4.565e-4
-1.030, 4.503e-4
-1.031, 4.441e-4
-1.032, 4.318e-4
-1.033, 4.287e-4
-1.034, 4.256e-4
-1.035, 4.318e-4
-1.036, 4.410e-4
-1.037, 4.503e-4
-1.038, 4.657e-4
-1.039, 4.657e-4
-1.040, 4.688e-4
-1.041, 4.626e-4
-1.042, 4.534e-4
-1.043, 4.441e-4
-1.044, 4.318e-4
-1.045, 4.318e-4
-1.046, 4.287e-4
-1.047, 4.380e-4
-1.048, 4.472e-4
-1.049, 4.565e-4
-1.050, 4.688e-4
-1.051, 4.688e-4
-1.052, 4.688e-4
-1.053, 4.595e-4
-1.054, 4.503e-4
-1.055, 4.410e-4
-1.056, 4.318e-4
-1.057, 4.318e-4
-1.058, 4.349e-4
-1.059, 4.410e-4
-1.060, 4.503e-4
-1.061, 4.595e-4
-1.062, 4.657e-4
-1.063, 4.719e-4
-1.064, 4.657e-4
-1.065, 4.565e-4
-1.066, 4.472e-4
-1.067, 4.380e-4
-1.068, 4.318e-4
-1.069, 4.287e-4
-1.070, 4.380e-4
-1.071, 4.472e-4
-1.072, 4.534e-4
-1.073, 4.688e-4
-1.074, 4.688e-4
-1.075, 4.719e-4
-1.076, 4.657e-4
-1.077, 4.534e-4
-1.078, 4.441e-4
-1.079, 4.349e-4
-1.080, 4.318e-4
-1.081, 4.318e-4
-1.082, 4.380e-4
-1.083, 4.472e-4
-1.084, 4.595e-4
-1.085, 4.719e-4
-1.086, 4.688e-4
-1.087, 4.688e-4
-1.088, 4.626e-4
-1.089, 4.534e-4
-1.090, 4.441e-4
-1.091, 4.349e-4
-1.092, 4.318e-4
-1.093, 4.349e-4
-1.094, 4.441e-4
-1.095, 4.534e-4
-1.096, 4.626e-4
-1.097, 4.688e-4
-1.098, 4.719e-4
-1.099, 4.657e-4
-1.100, 4.595e-4
-1.101, 4.503e-4
-1.102, 4.380e-4
-1.103, 4.349e-4
-1.104, 4.318e-4
-1.105, 4.410e-4
-1.106, 4.472e-4
-1.107, 4.565e-4
-1.108, 4.688e-4
-1.109, 4.719e-4
-1.110, 4.750e-4
-1.111, 4.688e-4
-1.112, 4.565e-4
-1.113, 4.472e-4
-1.114, 4.349e-4
-1.115, 4.349e-4
-1.116, 4.349e-4
-1.117, 4.441e-4
-1.118, 4.534e-4
-1.119, 4.626e-4
-1.120, 4.750e-4
-1.121, 4.750e-4
-1.122, 4.750e-4
-1.123, 4.657e-4
-1.124, 4.595e-4
-1.125, 4.472e-4
-1.126, 4.410e-4
-1.127, 4.380e-4
-1.128, 4.410e-4
-1.129, 4.503e-4
-1.130, 4.595e-4
-1.131, 4.688e-4
-1.132, 4.750e-4
-1.133, 4.780e-4
-1.134, 4.750e-4
-1.135, 4.657e-4
-1.136, 4.565e-4
-1.137, 4.472e-4
-1.138, 4.410e-4
-1.139, 4.410e-4
-1.140, 4.472e-4
-1.141, 4.565e-4
-1.142, 4.657e-4
-1.143, 4.780e-4
-1.144, 4.811e-4
-1.145, 4.842e-4
-1.146, 4.780e-4
-1.147, 4.688e-4
-1.148, 4.595e-4
-1.149, 4.472e-4
-1.150, 4.441e-4
-1.151, 4.441e-4
-1.152, 4.534e-4
-1.153, 4.657e-4
-1.154, 4.719e-4
-1.155, 4.842e-4
-1.156, 4.873e-4
-1.157, 4.873e-4
-1.158, 4.811e-4
-1.159, 4.719e-4
-1.160, 4.595e-4
-1.161, 4.534e-4
-1.162, 4.503e-4
-1.163, 4.534e-4
-1.164, 4.626e-4
-1.165, 4.719e-4
-1.166, 4.842e-4
-1.167, 4.935e-4
-1.168, 4.935e-4
-1.169, 4.904e-4
-1.170, 4.811e-4
-1.171, 4.719e-4
-1.172, 4.626e-4
-1.173, 4.595e-4
-1.174, 4.565e-4
-1.175, 4.657e-4
-1.176, 4.750e-4
-1.177, 4.842e-4
-1.178, 4.965e-4
-1.179, 5.027e-4
-1.180, 5.027e-4
-1.181, 4.965e-4
-1.182, 4.873e-4
-1.183, 4.780e-4
-1.184, 4.657e-4
-1.185, 4.657e-4
-1.186, 4.657e-4
-1.187, 4.750e-4
-1.188, 4.842e-4
-1.189, 4.965e-4
-1.190, 5.089e-4
-1.191, 5.089e-4
-1.192, 5.089e-4
-1.193, 5.027e-4
-1.194, 4.935e-4
-1.195, 4.842e-4
-1.196, 4.750e-4
-1.197, 4.750e-4
-1.198, 4.811e-4
-1.199, 4.873e-4
-1.200, 4.996e-4
-1.201, 5.089e-4
-1.202, 5.181e-4
-1.203, 5.212e-4
-1.204, 5.181e-4
-1.205, 5.089e-4
-1.206, 5.027e-4
-1.207, 4.904e-4
-1.208, 4.873e-4
-1.209, 4.873e-4
-1.210, 4.935e-4
-1.211, 5.058e-4
-1.212, 5.150e-4
-1.213, 5.274e-4
-1.214, 5.305e-4
-1.215, 5.366e-4
-1.216, 5.305e-4
-1.217, 5.212e-4
-1.218, 5.120e-4
-1.219, 5.027e-4
-1.220, 5.027e-4
-1.221, 4.996e-4
-1.222, 5.089e-4
-1.223, 5.212e-4
-1.224, 5.305e-4
-1.225, 5.459e-4
-1.226, 5.459e-4
-1.227, 5.489e-4
-1.228, 5.428e-4
-1.229, 5.366e-4
-1.230, 5.305e-4
-1.231, 5.212e-4
-1.232, 5.181e-4
-1.233, 5.212e-4
-1.234, 5.335e-4
-1.235, 5.428e-4
-1.236, 5.551e-4
-1.237, 5.613e-4
-1.238, 5.674e-4
-1.239, 5.644e-4
-1.240, 5.582e-4
-1.241, 5.520e-4
-1.242, 5.428e-4
-1.243, 5.366e-4
-1.244, 5.397e-4
-1.245, 5.459e-4
-1.246, 5.582e-4
-1.247, 5.674e-4
-1.248, 5.798e-4
-1.249, 5.859e-4
-1.250, 5.890e-4
-1.251, 5.859e-4
-1.252, 5.767e-4
-1.253, 5.705e-4
-1.254, 5.582e-4
-1.255, 5.613e-4
-1.256, 5.613e-4
-1.257, 5.705e-4
-1.258, 5.829e-4
-1.259, 5.983e-4
-1.260, 6.106e-4
-1.261, 6.137e-4
-1.262, 6.137e-4
-1.263, 6.075e-4
-1.264, 6.014e-4
-1.265, 5.952e-4
-1.266, 5.890e-4
-1.267, 5.890e-4
-1.268, 5.952e-4
-1.269, 6.044e-4
-1.270, 6.168e-4
-1.271, 6.291e-4
-1.272, 6.384e-4
-1.273, 6.445e-4
-1.274, 6.414e-4
-1.275, 6.384e-4
-1.276, 6.322e-4
-1.277, 6.229e-4
-1.278, 6.229e-4
-1.279, 6.229e-4
-1.280, 6.322e-4
-1.281, 6.445e-4
-1.282, 6.569e-4
-1.283, 6.723e-4
-1.284, 6.784e-4
-1.285, 6.815e-4
-1.286, 6.815e-4
-1.287, 6.723e-4
-1.288, 6.661e-4
-1.289, 6.599e-4
-1.290, 6.599e-4
-1.291, 6.630e-4
-1.292, 6.754e-4
-1.293, 6.877e-4
-1.294, 7.031e-4
-1.295, 7.185e-4
-1.296, 7.216e-4
-1.297, 7.278e-4
-1.298, 7.216e-4
-1.299, 7.154e-4
-1.300, 7.124e-4
-1.301, 7.062e-4
-1.302, 7.093e-4
-1.303, 7.154e-4
-1.304, 7.278e-4
-1.305, 7.432e-4
-1.306, 7.586e-4
-1.307, 7.679e-4
-1.308, 7.771e-4
-1.309, 7.740e-4
-1.310, 7.740e-4
-1.311, 7.679e-4
-1.312, 7.617e-4
-1.313, 7.648e-4
-1.314, 7.679e-4
-1.315, 7.771e-4
-1.316, 7.925e-4
-1.317, 8.048e-4
-1.318, 8.233e-4
-1.319, 8.326e-4
-1.320, 8.418e-4
-1.321, 8.449e-4
-1.322, 8.388e-4
-1.323, 8.357e-4
-1.324, 8.295e-4
-1.325, 8.326e-4
-1.326, 8.388e-4
-1.327, 8.542e-4
-1.328, 8.696e-4
-1.329, 8.850e-4
-1.330, 9.066e-4
-1.331, 9.128e-4
-1.332, 9.189e-4
-1.333, 9.220e-4
-1.334, 9.189e-4
-1.335, 9.158e-4
-1.336, 9.158e-4
-1.337, 9.220e-4
-1.338, 9.313e-4
-1.339, 9.498e-4
-1.340, 9.652e-4
-1.341, 9.837e-4
-1.342, 9.991e-4
-1.343, 1.011e-3
-1.344, 1.014e-3
-1.345, 1.018e-3
-1.346, 1.018e-3
-1.347, 1.014e-3
-1.348, 1.021e-3
-1.349, 1.027e-3
-1.350, 1.045e-3
-1.351, 1.061e-3
-1.352, 1.079e-3
-1.353, 1.104e-3
-1.354, 1.116e-3
-1.355, 1.132e-3
-1.356, 1.138e-3
-1.357, 1.138e-3
-1.358, 1.138e-3
-1.359, 1.138e-3
-1.360, 1.147e-3
-1.361, 1.156e-3
-1.362, 1.175e-3
-1.363, 1.196e-3
-1.364, 1.221e-3
-1.365, 1.243e-3
-1.366, 1.258e-3
-1.367, 1.267e-3
-1.368, 1.273e-3
-1.369, 1.280e-3
-1.370, 1.283e-3
-1.371, 1.289e-3
-1.372, 1.298e-3
-1.373, 1.314e-3
-1.374, 1.338e-3
-1.375, 1.363e-3
-1.376, 1.388e-3
-1.377, 1.409e-3
-1.378, 1.425e-3
-1.379, 1.437e-3
-1.380, 1.446e-3
-1.381, 1.452e-3
-1.382, 1.458e-3
-1.383, 1.468e-3
-1.384, 1.483e-3
-1.385, 1.505e-3
-1.386, 1.529e-3
-1.387, 1.554e-3
-1.388, 1.585e-3
-1.389, 1.603e-3
-1.390, 1.625e-3
-1.391, 1.637e-3
-1.392, 1.647e-3
-1.393, 1.656e-3
-1.394, 1.662e-3
-1.395, 1.680e-3
-1.396, 1.696e-3
-1.397, 1.724e-3
-1.398, 1.751e-3
-1.399, 1.779e-3
-1.400, 1.810e-3
-1.401, 1.835e-3
-1.402, 1.853e-3
-1.403, 1.869e-3
-1.404, 1.878e-3
-1.405, 1.893e-3
-1.406, 1.902e-3
-1.407, 1.921e-3
-1.408, 1.946e-3
-1.409, 1.973e-3
-1.410, 2.004e-3
-1.411, 2.038e-3
-1.412, 2.069e-3
-1.413, 2.094e-3
-1.414, 2.112e-3
-1.415, 2.131e-3
-1.416, 2.143e-3
-1.417, 2.158e-3
-1.418, 2.177e-3
-1.419, 2.195e-3
-1.420, 2.226e-3
-1.421, 2.260e-3
-1.422, 2.291e-3
-1.423, 2.331e-3
-1.424, 2.356e-3
-1.425, 2.390e-3
-1.426, 2.408e-3
-1.427, 2.427e-3
-1.428, 2.445e-3
-1.429, 2.460e-3
-1.430, 2.485e-3
-1.431, 2.510e-3
-1.432, 2.544e-3
-1.433, 2.581e-3
-1.434, 2.618e-3
-1.435, 2.658e-3
-1.436, 2.689e-3
-1.437, 2.716e-3
-1.438, 2.741e-3
-1.439, 2.763e-3
-1.440, 2.781e-3
-1.441, 2.800e-3
-1.442, 2.827e-3
-1.443, 2.861e-3
-1.444, 2.898e-3
-1.445, 2.935e-3
-1.446, 2.978e-3
-1.447, 3.019e-3
-1.448, 3.052e-3
-1.449, 3.083e-3
-1.450, 3.108e-3
-1.451, 3.130e-3
-1.452, 3.151e-3
-1.453, 3.182e-3
-1.454, 3.210e-3
-1.455, 3.250e-3
-1.456, 3.287e-3
-1.457, 3.330e-3
-1.458, 3.376e-3
-1.459, 3.416e-3
-1.460, 3.453e-3
-1.461, 3.481e-3
-1.462, 3.512e-3
-1.463, 3.536e-3
-1.464, 3.561e-3
-1.465, 3.595e-3
-1.466, 3.629e-3
-1.467, 3.669e-3
-1.468, 3.715e-3
-1.469, 3.762e-3
-1.470, 3.811e-3
-1.471, 3.851e-3
-1.472, 3.888e-3
-1.473, 3.922e-3
-1.474, 3.953e-3
-1.475, 3.984e-3
-1.476, 4.014e-3
-1.477, 4.048e-3
-1.478, 4.088e-3
-1.479, 4.135e-3
-1.480, 4.184e-3
-1.481, 4.233e-3
-1.482, 4.280e-3
-1.483, 4.326e-3
-1.484, 4.363e-3
-1.485, 4.397e-3
-1.486, 4.431e-3
-1.487, 4.458e-3
-1.488, 4.495e-3
-1.489, 4.532e-3
-1.490, 4.579e-3
-1.491, 4.631e-3
-1.492, 4.683e-3
-1.493, 4.736e-3
-1.494, 4.785e-3
-1.495, 4.834e-3
-1.496, 4.871e-3
-1.497, 4.908e-3
-1.498, 4.942e-3
-1.499, 4.976e-3
-1.500, 5.019e-3
-1.501, 5.060e-3
-1.502, 5.112e-3
-1.503, 5.164e-3
-1.504, 5.220e-3
-1.505, 5.278e-3
-1.506, 5.328e-3
-1.507, 5.374e-3
-1.508, 5.417e-3
-1.509, 5.457e-3
-1.510, 5.497e-3
-1.511, 5.534e-3
-1.512, 5.578e-3
-1.513, 5.627e-3
-1.514, 5.679e-3
-1.515, 5.738e-3
-1.516, 5.799e-3
-1.517, 5.855e-3
-1.518, 5.914e-3
-1.519, 5.960e-3
-1.520, 6.000e-3
-1.521, 6.043e-3
-1.522, 6.080e-3
-1.523, 6.126e-3
-1.524, 6.173e-3
-1.525, 6.228e-3
-1.526, 6.287e-3
-1.527, 6.348e-3
-1.528, 6.410e-3
-1.529, 6.465e-3
-1.530, 6.527e-3
-1.531, 6.576e-3
-1.532, 6.623e-3
-1.533, 6.669e-3
-1.534, 6.709e-3
-1.535, 6.758e-3
-1.536, 6.811e-3
-1.537, 6.872e-3
-1.538, 6.931e-3
-1.539, 6.996e-3
-1.540, 7.064e-3
-1.541, 7.122e-3
-1.542, 7.184e-3
-1.543, 7.236e-3
-1.544, 7.286e-3
-1.545, 7.332e-3
-1.546, 7.381e-3
-1.547, 7.434e-3
-1.548, 7.489e-3
-1.549, 7.545e-3
-1.550, 7.609e-3
-1.551, 7.680e-3
-1.552, 7.748e-3
-1.553, 7.813e-3
-1.554, 7.874e-3
-1.555, 7.930e-3
-1.556, 7.982e-3
-1.557, 8.032e-3
-1.558, 8.087e-3
-1.559, 8.143e-3
-1.560, 8.198e-3
-1.561, 8.269e-3
-1.562, 8.337e-3
-1.563, 8.411e-3
-1.564, 8.479e-3
-1.565, 8.547e-3
-1.566, 8.605e-3
-1.567, 8.658e-3
-1.568, 8.713e-3
-1.569, 8.762e-3
-1.570, 8.818e-3
-1.571, 8.873e-3
-1.572, 8.941e-3
-1.573, 9.015e-3
-1.574, 9.086e-3
-1.575, 9.166e-3
-1.576, 9.234e-3
-1.577, 9.302e-3
-1.578, 9.364e-3
-1.579, 9.422e-3
-1.580, 9.478e-3
-1.581, 9.533e-3
-1.582, 9.595e-3
-1.583, 9.660e-3
-1.584, 9.730e-3
-1.585, 9.804e-3
-1.586, 9.878e-3
-1.587, 9.959e-3
-1.588, 1.003e-2
-1.589, 1.010e-2
-1.590, 1.017e-2
-1.591, 1.023e-2
-1.592, 1.029e-2
-1.593, 1.035e-2
-1.594, 1.041e-2
-1.595, 1.049e-2
-1.596, 1.056e-2
-1.597, 1.064e-2
-1.598, 1.072e-2
-1.599, 1.080e-2
-1.600, 1.077e-2
-1.599, 1.059e-2
-1.598, 1.044e-2
-1.597, 1.031e-2
-1.596, 1.018e-2
-1.595, 1.006e-2
-1.594, 9.946e-3
-1.593, 9.845e-3
-1.592, 9.743e-3
-1.591, 9.644e-3
-1.590, 9.552e-3
-1.589, 9.453e-3
-1.588, 9.348e-3
-1.587, 9.240e-3
-1.586, 9.132e-3
-1.585, 9.024e-3
-1.584, 8.920e-3
-1.583, 8.815e-3
-1.582, 8.716e-3
-1.581, 8.624e-3
-1.580, 8.537e-3
-1.579, 8.451e-3
-1.578, 8.365e-3
-1.577, 8.278e-3
-1.576, 8.183e-3
-1.575, 8.087e-3
-1.574, 7.988e-3
-1.573, 7.887e-3
-1.572, 7.791e-3
-1.571, 7.699e-3
-1.570, 7.615e-3
-1.569, 7.532e-3
-1.568, 7.455e-3
-1.567, 7.381e-3
-1.566, 7.301e-3
-1.565, 7.224e-3
-1.564, 7.134e-3
-1.563, 7.042e-3
-1.562, 6.953e-3
-1.561, 6.860e-3
-1.560, 6.777e-3
-1.559, 6.694e-3
-1.558, 6.617e-3
-1.557, 6.549e-3
-1.556, 6.478e-3
-1.555, 6.413e-3
-1.554, 6.339e-3
-1.553, 6.262e-3
-1.552, 6.185e-3
-1.551, 6.102e-3
-1.550, 6.021e-3
-1.549, 5.938e-3
-1.548, 5.861e-3
-1.547, 5.790e-3
-1.546, 5.725e-3
-1.545, 5.664e-3
-1.544, 5.605e-3
-1.543, 5.544e-3
-1.542, 5.479e-3
-1.541, 5.408e-3
-1.540, 5.334e-3
-1.539, 5.260e-3
-1.538, 5.180e-3
-1.537, 5.109e-3
-1.536, 5.041e-3
-1.535, 4.979e-3
-1.534, 4.924e-3
-1.533, 4.868e-3
-1.532, 4.819e-3
-1.531, 4.760e-3
-1.530, 4.702e-3
-1.529, 4.637e-3
-1.528, 4.569e-3
-1.527, 4.498e-3
-1.526, 4.428e-3
-1.525, 4.369e-3
-1.524, 4.307e-3
-1.523, 4.255e-3
-1.522, 4.206e-3
-1.521, 4.156e-3
-1.520, 4.113e-3
-1.519, 4.061e-3
-1.518, 4.008e-3
-1.517, 3.947e-3
-1.516, 3.882e-3
-1.515, 3.820e-3
-1.514, 3.758e-3
-1.513, 3.703e-3
-1.512, 3.654e-3
-1.511, 3.604e-3
-1.510, 3.564e-3
-1.509, 3.524e-3
-1.508, 3.481e-3
-1.507, 3.438e-3
-1.506, 3.385e-3
-1.505, 3.330e-3
-1.504, 3.274e-3
-1.503, 3.216e-3
-1.502, 3.163e-3
-1.501, 3.114e-3
-1.500, 3.068e-3
-1.499, 3.034e-3
-1.498, 2.997e-3
-1.497, 2.963e-3
-1.496, 2.923e-3
-1.495, 2.883e-3
-1.494, 2.837e-3
-1.493, 2.787e-3
-1.492, 2.735e-3
-1.491, 2.679e-3
-1.490, 2.636e-3
-1.489, 2.593e-3
-1.488, 2.559e-3
-1.487, 2.528e-3
-1.486, 2.497e-3
-1.485, 2.470e-3
-1.484, 2.430e-3
-1.483, 2.393e-3
-1.482, 2.349e-3
-1.481, 2.300e-3
-1.480, 2.254e-3
-1.479, 2.208e-3
-1.478, 2.168e-3
-1.477, 2.137e-3
-1.476, 2.106e-3
-1.475, 2.081e-3
-1.474, 2.054e-3
-1.473, 2.026e-3
-1.472, 1.998e-3
-1.471, 1.958e-3
-1.470, 1.918e-3
-1.469, 1.878e-3
-1.468, 1.832e-3
-1.467, 1.798e-3
-1.466, 1.761e-3
-1.465, 1.730e-3
-1.464, 1.711e-3
-1.463, 1.687e-3
-1.462, 1.668e-3
-1.461, 1.643e-3
-1.460, 1.616e-3
-1.459, 1.579e-3
-1.458, 1.539e-3
-1.457, 1.502e-3
-1.456, 1.462e-3
-1.455, 1.431e-3
-1.454, 1.400e-3
-1.453, 1.378e-3
-1.452, 1.360e-3
-1.451, 1.344e-3
-1.450, 1.329e-3
-1.449, 1.304e-3
-1.448, 1.277e-3
-1.447, 1.243e-3
-1.446, 1.209e-3
-1.445, 1.178e-3
-1.444, 1.141e-3
-1.443, 1.113e-3
-1.442, 1.092e-3
-1.441, 1.073e-3
-1.440, 1.058e-3
-1.439, 1.045e-3
-1.438, 1.030e-3
-1.437, 1.011e-3
-1.436, 9.806e-4
-1.435, 9.528e-4
-1.434, 9.189e-4
-1.433, 8.850e-4
-1.432, 8.603e-4
-1.431, 8.357e-4
-1.430, 8.172e-4
-1.429, 8.079e-4
-1.428, 7.925e-4
-1.427, 7.863e-4
-1.426, 7.679e-4
-1.425, 7.494e-4
-1.424, 7.247e-4
-1.423, 6.939e-4
-1.422, 6.661e-4
-1.421, 6.353e-4
-1.420, 6.137e-4
-1.419, 5.952e-4
-1.418, 5.829e-4
-1.417, 5.705e-4
-1.416, 5.644e-4
-1.415, 5.582e-4
-1.414, 5.397e-4
-1.413, 5.212e-4
-1.412, 4.965e-4
-1.411, 4.719e-4
-1.410, 4.441e-4
-1.409, 4.195e-4
-1.408, 3.979e-4
-1.407, 3.855e-4
-1.406, 3.763e-4
-1.405, 3.701e-4
-1.404, 3.640e-4
-1.403, 3.547e-4
-1.402, 3.424e-4
-1.401, 3.239e-4
-1.400, 2.992e-4
-1.399, 2.746e-4
-1.398, 2.499e-4
-1.397, 2.314e-4
-1.396, 2.129e-4
-1.395, 2.036e-4
-1.394, 2.006e-4
-1.393, 1.944e-4
-1.392, 1.913e-4
-1.391, 1.790e-4
-1.390, 1.697e-4
-1.389, 1.512e-4
-1.388, 1.266e-4
-1.387, 1.050e-4
-1.386, 8.032e-5
-1.385, 6.490e-5
-1.384, 5.257e-5
-1.383, 4.640e-5
-1.382, 4.024e-5
-1.381, 4.024e-5
-1.380, 3.715e-5
-1.379, 3.099e-5
-1.378, 1.557e-5
-1.377, -2.927e-6
-1.376, -2.451e-5
-1.375, -4.301e-5
-1.374, -6.459e-5
-1.373, -7.692e-5
-1.372, -8.617e-5
-1.371, -8.925e-5
-1.370, -8.925e-5
-1.369, -9.234e-5
-1.368, -9.542e-5
-1.367, -1.016e-4
-1.366, -1.170e-4
-1.365, -1.355e-4
-1.364, -1.540e-4
-1.363, -1.756e-4
-1.362, -1.879e-4
-1.361, -2.002e-4
-1.360, -2.033e-4
-1.359, -2.033e-4
-1.358, -2.064e-4
-1.357, -2.033e-4
-1.356, -2.095e-4
-1.355, -2.157e-4
-1.354, -2.311e-4
-1.353, -2.465e-4
-1.352, -2.650e-4
-1.351, -2.866e-4
-1.350, -2.958e-4
-1.349, -3.051e-4
-1.348, -3.051e-4
-1.347, -3.051e-4
-1.346, -3.020e-4
-1.345, -3.020e-4
-1.344, -3.082e-4
-1.343, -3.143e-4
-1.342, -3.297e-4
-1.341, -3.482e-4
-1.340, -3.637e-4
-1.339, -3.791e-4
-1.338, -3.883e-4
-1.337, -3.914e-4
-1.336, -3.883e-4
-1.335, -3.883e-4
-1.334, -3.852e-4
-1.333, -3.852e-4
-1.332, -3.883e-4
-1.331, -3.976e-4
-1.330, -4.130e-4
-1.329, -4.284e-4
-1.328, -4.469e-4
-1.327, -4.561e-4
-1.326, -4.654e-4
-1.325, -4.654e-4
-1.324, -4.623e-4
-1.323, -4.592e-4
-1.322, -4.500e-4
-1.321, -4.531e-4
-1.320, -4.561e-4
-1.319, -4.716e-4
-1.318, -4.839e-4
-1.317, -4.993e-4
-1.316, -5.178e-4
-1.315, -5.209e-4
-1.314, -5.271e-4
-1.313, -5.271e-4
-1.312, -5.209e-4
-1.311, -5.178e-4
-1.310, -5.086e-4
-1.309, -5.147e-4
-1.308, -5.209e-4
-1.307, -5.332e-4
-1.306, -5.456e-4
-1.305, -5.579e-4
-1.304, -5.702e-4
-1.303, -5.795e-4
-1.302, -5.795e-4
-1.301, -5.764e-4
-1.300, -5.702e-4
-1.299, -5.610e-4
-1.298, -5.610e-4
-1.297, -5.610e-4
-1.296, -5.702e-4
-1.295, -5.826e-4
-1.294, -5.949e-4
-1.293, -6.103e-4
-1.292, -6.195e-4
-1.291, -6.226e-4
-1.290, -6.195e-4
-1.289, -6.165e-4
-1.288, -6.103e-4
-1.287, -6.011e-4
-1.286, -6.011e-4
-1.285, -6.011e-4
-1.284, -6.134e-4
-1.283, -6.257e-4
-1.282, -6.380e-4
-1.281, -6.504e-4
-1.280, -6.565e-4
-1.279, -6.627e-4
-1.278, -6.565e-4
-1.277, -6.504e-4
-1.276, -6.442e-4
-1.275, -6.350e-4
-1.274, -6.350e-4
-1.273, -6.380e-4
-1.272, -6.473e-4
-1.271, -6.627e-4
-1.270, -6.720e-4
-1.269, -6.843e-4
-1.268, -6.874e-4
-1.267, -6.874e-4
-1.266, -6.812e-4
-1.265, -6.750e-4
-1.264, -6.658e-4
-1.263, -6.627e-4
-1.262, -6.596e-4
-1.261, -6.689e-4
-1.260, -6.781e-4
-1.259, -6.905e-4
-1.258, -7.028e-4
-1.257, -7.090e-4
-1.256, -7.120e-4
-1.255, -7.090e-4
-1.254, -6.997e-4
-1.253, -6.935e-4
-1.252, -6.843e-4
-1.251, -6.843e-4
-1.250, -6.812e-4
-1.249, -6.905e-4
-1.248, -7.028e-4
-1.247, -7.120e-4
-1.246, -7.275e-4
-1.245, -7.275e-4
-1.244, -7.305e-4
-1.243, -7.244e-4
-1.242, -7.182e-4
-1.241, -7.090e-4
-1.240, -6.997e-4
-1.239, -6.997e-4
-1.238, -7.028e-4
-1.237, -7.120e-4
-1.236, -7.244e-4
-1.235, -7.336e-4
-1.234, -7.429e-4
-1.233, -7.460e-4
-1.232, -7.429e-4
-1.231, -7.367e-4
-1.230, -7.275e-4
-1.229, -7.213e-4
-1.228, -7.182e-4
-1.227, -7.151e-4
-1.226, -7.182e-4
-1.225, -7.305e-4
-1.224, -7.398e-4
-1.223, -7.490e-4
-1.222, -7.552e-4
-1.221, -7.583e-4
-1.220, -7.552e-4
-1.219, -7.460e-4
-1.218, -7.367e-4
-1.217, -7.244e-4
-1.216, -7.213e-4
-1.215, -7.213e-4
-1.214, -7.305e-4
-1.213, -7.398e-4
-1.212, -7.521e-4
-1.211, -7.645e-4
-1.210, -7.645e-4
-1.209, -7.675e-4
-1.208, -7.583e-4
-1.207, -7.490e-4
-1.206, -7.429e-4
-1.205, -7.336e-4
-1.204, -7.305e-4
-1.203, -7.336e-4
-1.202, -7.398e-4
-1.201, -7.521e-4
-1.200, -7.614e-4
-1.199, -7.706e-4
-1.198, -7.737e-4
-1.197, -7.706e-4
-1.196, -7.645e-4
-1.195, -7.552e-4
-1.194, -7.429e-4
-1.193, -7.398e-4
-1.192, -7.367e-4
-1.191, -7.429e-4
-1.190, -7.521e-4
-1.189, -7.614e-4
-1.188, -7.737e-4
-1.187, -7.768e-4
-1.186, -7.799e-4
-1.185, -7.737e-4
-1.184, -7.645e-4
-1.183, -7.552e-4
-1.182, -7.460e-4
-1.181, -7.429e-4
-1.180, -7.398e-4
-1.179, -7.460e-4
-1.178, -7.583e-4
-1.177, -7.706e-4
-1.176, -7.799e-4
-1.175, -7.830e-4
-1.174, -7.830e-4
-1.173, -7.768e-4
-1.172, -7.675e-4
-1.171, -7.583e-4
-1.170, -7.460e-4
-1.169, -7.460e-4
-1.168, -7.490e-4
-1.167, -7.552e-4
-1.166, -7.645e-4
-1.165, -7.768e-4
-1.164, -7.860e-4
-1.163, -7.860e-4
-1.162, -7.830e-4
-1.161, -7.768e-4
-1.160, -7.675e-4
-1.159, -7.552e-4
-1.158, -7.490e-4
-1.157, -7.490e-4
-1.156, -7.552e-4
-1.155, -7.645e-4
-1.154, -7.706e-4
-1.153, -7.860e-4
-1.152, -7.891e-4
-1.151, -7.922e-4
-1.150, -7.860e-4
-1.149, -7.768e-4
-1.148, -7.675e-4
-1.147, -7.552e-4
-1.146, -7.552e-4
-1.145, -7.521e-4
-1.144, -7.583e-4
-1.143, -7.675e-4
-1.142, -7.799e-4
-1.141, -7.922e-4
-1.140, -7.922e-4
-1.139, -7.953e-4
-1.138, -7.860e-4
-1.137, -7.768e-4
-1.136, -7.675e-4
-1.135, -7.583e-4
-1.134, -7.583e-4
-1.133, -7.583e-4
-1.132, -7.675e-4
-1.131, -7.768e-4
-1.130, -7.860e-4
-1.129, -7.953e-4
-1.128, -7.984e-4
-1.127, -7.953e-4
-1.126, -7.891e-4
-1.125, -7.799e-4
-1.124, -7.706e-4
-1.123, -7.614e-4
-1.122, -7.583e-4
-1.121, -7.675e-4
-1.120, -7.768e-4
-1.119, -7.860e-4
-1.118, -7.984e-4
-1.117, -8.015e-4
-1.116, -8.045e-4
-1.115, -7.984e-4
-1.114, -7.891e-4
-1.113, -7.799e-4
-1.112, -7.675e-4
-1.111, -7.675e-4
-1.110, -7.675e-4
-1.109, -7.706e-4
-1.108, -7.860e-4
-1.107, -7.922e-4
-1.106, -8.045e-4
-1.105, -8.076e-4
-1.104, -8.076e-4
-1.103, -8.015e-4
-1.102, -7.922e-4
-1.101, -7.830e-4
-1.100, -7.737e-4
-1.099, -7.737e-4
-1.098, -7.737e-4
-1.097, -7.830e-4
-1.096, -7.922e-4
-1.095, -8.015e-4
-1.094, -8.107e-4
-1.093, -8.138e-4
-1.092, -8.107e-4
-1.091, -8.015e-4
-1.090, -7.953e-4
-1.089, -7.830e-4
-1.088, -7.768e-4
-1.087, -7.737e-4
-1.086, -7.830e-4
-1.085, -7.891e-4
-1.084, -8.015e-4
-1.083, -8.107e-4
-1.082, -8.138e-4
-1.081, -8.169e-4
-1.080, -8.107e-4
-1.079, -8.045e-4
-1.078, -7.953e-4
-1.077, -7.830e-4
-1.076, -7.799e-4
-1.075, -7.799e-4
-1.074, -7.860e-4
-1.073, -7.984e-4
-1.072, -8.045e-4
-1.071, -8.169e-4
-1.070, -8.200e-4
-1.069, -8.200e-4
-1.068, -8.107e-4
-1.067, -8.015e-4
-1.066, -7.922e-4
-1.065, -7.830e-4
-1.064, -7.830e-4
-1.063, -7.830e-4
-1.062, -7.891e-4
-1.061, -8.015e-4
-1.060, -8.107e-4
-1.059, -8.169e-4
-1.058, -8.230e-4
-1.057, -8.169e-4
-1.056, -8.076e-4
-1.055, -8.015e-4
-1.054, -7.891e-4
-1.053, -7.830e-4
-1.052, -7.799e-4
-1.051, -7.860e-4
-1.050, -7.953e-4
-1.049, -8.045e-4
-1.048, -8.169e-4
-1.047, -8.200e-4
-1.046, -8.230e-4
-1.045, -8.169e-4
-1.044, -8.107e-4
-1.043, -8.015e-4
-1.042, -7.891e-4
-1.041, -7.860e-4
-1.040, -7.830e-4
-1.039, -7.922e-4
-1.038, -8.015e-4
-1.037, -8.138e-4
-1.036, -8.261e-4
-1.035, -8.261e-4
-1.034, -8.261e-4
-1.033, -8.200e-4
-1.032, -8.107e-4
-1.031, -8.045e-4
-1.030, -7.922e-4
-1.029, -7.922e-4
-1.028, -7.953e-4
-1.027, -8.045e-4
-1.026, -8.138e-4
-1.025, -8.230e-4
-1.024, -8.323e-4
-1.023, -8.385e-4
-1.022, -8.354e-4
-1.021, -8.292e-4
-1.020, -8.200e-4
-1.019, -8.107e-4
-1.018, -8.045e-4
-1.017, -8.045e-4
-1.016, -8.107e-4
-1.015, -8.230e-4
-1.014, -8.292e-4
-1.013, -8.446e-4
-1.012, -8.508e-4
-1.011, -8.539e-4
-1.010, -8.508e-4
-1.009, -8.415e-4
-1.008, -8.354e-4
-1.007, -8.230e-4
-1.006, -8.261e-4
-1.005, -8.230e-4
-1.004, -8.323e-4
-1.003, -8.446e-4
-1.002, -8.569e-4
-1.001, -8.724e-4
