Potential V vs RHE, Current mA cm-2
0.05339999999999995,-0.053815617846866
0.05239999999999995,-0.055541565632701344
0.051399999999999946,-0.05660259910760012
0.050399999999999945,-0.05740898454852319
0.049399999999999944,-0.05815878153745166
0.04839999999999994,-0.058851990074385525
0.04739999999999994,-0.059502757272323445
0.04639999999999994,-0.06012523024426406
0.04539999999999994,-0.06079014455520062
0.04439999999999994,-0.061426764640139894
0.04339999999999994,-0.06203509049908186
0.04239999999999994,-0.06265756347102248
0.04139999999999994,-0.06325174221696579
0.040399999999999936,-0.06386006807590776
0.039399999999999935,-0.06451083527384567
0.038399999999999934,-0.06509086690679033
0.03739999999999993,-0.065670898539735
0.03639999999999993,-0.06626507728567832
0.03539999999999993,-0.06680266757962702
0.03439999999999993,-0.0673826992125717
0.03339999999999993,-0.06796273084551636
0.03239999999999993,-0.06852861536546237
0.03139999999999993,-0.06909449988540839
0.030399999999999927,-0.0696320901793571
0.029399999999999926,-0.07019797469930313
0.028399999999999925,-0.07080630055824509
0.027399999999999924,-0.07135803796519245
0.026399999999999924,-0.07190977537213981
0.025399999999999923,-0.07244736566608852
0.024399999999999922,-0.07298495596003725
0.02339999999999992,-0.07355084047998325
0.02239999999999992,-0.07410257788693062
0.02139999999999992,-0.07464016818087933
0.020399999999999918,-0.07516361136182939
0.019399999999999917,-0.07571534876877677
0.018399999999999916,-0.07626708617572413
0.017399999999999916,-0.07679052935667419
0.016399999999999915,-0.0772998254246256
0.015399999999999914,-0.07786570994457162
0.014399999999999913,-0.0783891531255217
0.013399999999999912,-0.0789267434194704
0.012399999999999911,-0.0794643337134191
0.01139999999999991,-0.07995948266837187
0.01039999999999991,-0.08048292584932194
0.009399999999999908,-0.0810346632562693
0.008399999999999908,-0.08151566509822342
0.007399999999999907,-0.08203910827917348
0.006399999999999906,-0.08253425723412625
0.005399999999999905,-0.083029406189079
0.004399999999999904,-0.08352455514403176
0.003399999999999903,-0.08397726275998857
0.002399999999999902,-0.08447241171494134
0.0013999999999999013,-0.0849392664438968
0.00039999999999990044,-0.0854202682858509
-0.0006000000000001005,-0.08592956435380232
-0.0016000000000001013,-0.08641056619575643
-0.0026000000000001022,-0.08689156803771056
-0.003600000000000103,-0.08734427565366736
-0.004600000000000104,-0.08775454193062822
-0.005600000000000105,-0.08820724954658503
-0.006600000000000106,-0.0886741042755405
-0.007600000000000107,-0.0891268118914973
-0.008600000000000108,-0.08957951950745412
-0.009600000000000108,-0.09001808001041228
-0.01060000000000011,-0.09045664051337043
-0.01160000000000011,-0.09090934812932726
-0.012600000000000111,-0.09137620285828273
-0.013600000000000112,-0.09175817490924627
-0.014600000000000113,-0.09216844118620715
-0.015600000000000114,-0.09260700168916529
-0.016600000000000115,-0.09303141507912481
-0.017600000000000116,-0.09346997558208296
-0.018600000000000116,-0.09383780052004788
-0.019600000000000117,-0.0942056254580128
-0.020600000000000118,-0.094601744621975
-0.02160000000000012,-0.0949695695599399
-0.02260000000000012,-0.09536568872390214
-0.02360000000000012,-0.09573351366186703
-0.024600000000000122,-0.09611548571283059
-0.025600000000000123,-0.09652575198979144
-0.026600000000000124,-0.09686528270175906
-0.027600000000000124,-0.09719066630072802
-0.028600000000000125,-0.09750190278669833
-0.029600000000000126,-0.09781313927266864
-0.030600000000000127,-0.09816681709763489
-0.03160000000000013,-0.09849220069660385
-0.03260000000000013,-0.09884587852157012
-0.03360000000000013,-0.09912882078154311
-0.03460000000000002,-0.09944005726751343
-0.03560000000000002,-0.09972299952748644
-0.03660000000000002,-0.10000594178745945
-0.03760000000000002,-0.10031717827342976
-0.03860000000000002,-0.10057182630740545
-0.039600000000000024,-0.10085476856737846
-0.040600000000000025,-0.10113771082735147
-0.041600000000000026,-0.10140650597432584
-0.04260000000000003,-0.10164700689530289
-0.04360000000000003,-0.10188750781627993
-0.04460000000000003,-0.10211386162425835
-0.04560000000000003,-0.10235436254523542
-0.04660000000000003,-0.10255242212721652
-0.04760000000000003,-0.10280707016119221
-0.04860000000000003,-0.10300512974317333
-0.04960000000000003,-0.10324563066415038
-0.050600000000000034,-0.10348613158512744
-0.051600000000000035,-0.10364174982811258
-0.052600000000000036,-0.10379736807109774
-0.053600000000000037,-0.10400957476607749
-0.05460000000000004,-0.104151045896064
-0.05560000000000004,-0.10430666413904917
-0.05660000000000004,-0.10446228238203431
-0.05760000000000004,-0.10460375351202081
-0.05860000000000004,-0.1047452246420073
-0.05960000000000004,-0.1048866957719938
-0.06060000000000004,-0.10499987267598301
-0.061600000000000044,-0.10511304957997222
-0.06260000000000004,-0.10524037359696008
-0.06360000000000005,-0.10533940338795064
-0.06460000000000005,-0.10543843317894118
-0.06560000000000005,-0.10555161008293039
-0.06660000000000005,-0.1056364927609223
-0.06760000000000005,-0.10570722832591554
-0.06860000000000005,-0.10574966966491149
-0.06960000000000005,-0.10579211100390745
-0.07060000000000005,-0.10587699368189933
-0.07160000000000005,-0.10591943502089529
-0.07260000000000005,-0.10599017058588855
-0.07360000000000005,-0.10601846481188584
-0.07460000000000006,-0.10606090615088182
-0.07560000000000006,-0.10610334748987776
-0.07660000000000006,-0.1061174946028764
-0.07760000000000006,-0.10613164171587507
-0.07860000000000006,-0.10615993594187234
-0.07960000000000006,-0.1061457888288737
-0.08060000000000006,-0.10618823016786964
-0.08160000000000006,-0.1061457888288737
-0.08260000000000006,-0.10617408305487101
-0.08360000000000006,-0.10615993594187234
-0.08460000000000006,-0.1061174946028764
-0.08560000000000006,-0.1061174946028764
-0.08660000000000007,-0.10606090615088182
-0.08760000000000007,-0.10601846481188584
-0.08860000000000007,-0.10596187635989125
-0.08960000000000007,-0.10591943502089529
-0.09060000000000007,-0.10587699368189933
-0.09160000000000007,-0.10582040522990475
-0.09260000000000007,-0.10576381677791014
-0.09360000000000007,-0.10567893409991824
-0.09460000000000007,-0.105608198534925
-0.09560000000000007,-0.10555161008293039
-0.09660000000000007,-0.10545258029193984
-0.09760000000000008,-0.10538184472694657
-0.09860000000000008,-0.10531110916195333
-0.09960000000000008,-0.10521207937096277
-0.10060000000000008,-0.10509890246697358
-0.10160000000000008,-0.10499987267598301
-0.10260000000000008,-0.10491498999799112
-0.10360000000000008,-0.10481596020700056
-0.10460000000000008,-0.10473107752900866
-0.10560000000000008,-0.10460375351202081
-0.10660000000000008,-0.10450472372103026
-0.10760000000000008,-0.1044056939300397
-0.10860000000000009,-0.1042925170260505
-0.10960000000000009,-0.104151045896064
-0.11060000000000009,-0.1040378689920748
-0.11160000000000009,-0.10389639786208829
-0.11260000000000009,-0.10379736807109774
-0.11360000000000009,-0.10367004405410989
-0.11460000000000009,-0.10355686715012069
-0.11560000000000009,-0.10344369024613147
-0.11660000000000009,-0.10328807200314633
-0.1176000000000001,-0.10316074798615847
-0.1186000000000001,-0.10300512974317333
-0.1196000000000001,-0.10286365861318682
-0.1206000000000001,-0.10275048170919761
-0.1216000000000001,-0.10259486346621245
-0.1226000000000001,-0.10248168656222324
-0.1236000000000001,-0.10234021543223674
-0.1246000000000001,-0.10217045007625294
-0.1256000000000001,-0.10205727317226375
-0.1266000000000001,-0.10185921359028265
-0.1276000000000001,-0.10170359534729749
-0.1286000000000001,-0.10156212421731098
-0.1296000000000001,-0.10137821174832852
-0.1306000000000001,-0.10126503484433932
-0.1316000000000001,-0.10109526948835552
-0.1326000000000001,-0.10095379835836901
-0.1336000000000001,-0.10085476856737846
-0.1346000000000001,-0.10065670898539736
-0.1356000000000001,-0.10052938496840952
-0.1366000000000001,-0.1003596196124257
-0.1376000000000001,-0.10018985425644189
-0.1386000000000001,-0.10006253023945405
-0.1396000000000001,-0.0999069119964689
-0.1406000000000001,-0.09977958797948104
-0.14160000000000011,-0.09959567551049858
-0.14260000000000012,-0.09944005726751343
-0.14360000000000012,-0.09927029191152963
-0.14460000000000012,-0.09917126212053906
-0.14560000000000012,-0.09897320253855796
-0.14660000000000012,-0.09883173140857146
-0.14760000000000012,-0.09874684873057955
-0.14860000000000012,-0.09861952471359171
-0.14960000000000012,-0.09843561224460926
-0.15060000000000012,-0.09827999400162409
-0.15160000000000012,-0.09811022864564029
-0.15260000000000012,-0.09796875751565379
-0.15360000000000013,-0.09785558061166459
-0.15460000000000013,-0.09771410948167808
-0.15560000000000013,-0.09751604989969698
-0.15660000000000013,-0.09737457876971047
-0.15760000000000013,-0.09726140186572127
-0.15860000000000013,-0.09710578362273611
-0.15960000000000002,-0.09697845960574826
-0.16060000000000002,-0.09685113558876042
-0.16160000000000002,-0.0966813702327766
-0.16260000000000002,-0.09653989910279011
-0.16360000000000002,-0.09638428085980494
-0.16460000000000002,-0.09624280972981844
-0.16560000000000002,-0.09618622127782384
-0.16660000000000003,-0.09607304437383464
-0.16760000000000003,-0.0958608376788549
-0.16860000000000003,-0.09576180788786433
-0.16960000000000003,-0.09564863098387513
-0.17060000000000003,-0.09550715985388863
-0.17160000000000003,-0.09535154161090346
-0.17260000000000003,-0.09516762914192102
-0.17360000000000003,-0.09505445223793182
-0.17460000000000003,-0.09492712822094396
-0.17560000000000003,-0.09481395131695476
-0.17660000000000003,-0.09468662729996691
-0.17760000000000004,-0.0945451561699804
-0.17860000000000004,-0.09443197926599119
-0.17960000000000004,-0.0942622139100074
-0.18060000000000004,-0.09412074278002087
-0.18160000000000004,-0.09400756587603168
-0.18260000000000004,-0.09389438897204248
-0.18360000000000004,-0.09375291784205599
-0.18460000000000004,-0.09361144671206949
-0.18560000000000004,-0.09345582846908432
-0.18660000000000004,-0.09334265156509512
-0.18760000000000004,-0.09327191600010187
-0.18860000000000005,-0.09320118043510862
-0.18960000000000005,-0.09314459198311402
-0.19060000000000005,-0.09296067951413156
-0.19160000000000005,-0.09284750261014235
-0.19260000000000005,-0.0927767670451491
-0.19360000000000005,-0.09264944302816126
-0.19460000000000005,-0.09253626612417204
-0.19560000000000005,-0.09247967767217745
-0.19660000000000005,-0.0923523536551896
-0.19760000000000005,-0.09221088252520308
-0.19860000000000005,-0.09206941139521659
-0.19960000000000006,-0.09198452871722468
-0.20060000000000006,-0.09188549892623413
-0.20160000000000006,-0.09180061624824223
-0.20260000000000006,-0.09167329223125438
-0.20360000000000006,-0.09156011532726518
-0.20460000000000006,-0.09144693842327598
-0.20560000000000006,-0.09131961440628812
-0.20660000000000006,-0.09119229038930025
-0.20760000000000006,-0.09110740771130836
-0.20860000000000006,-0.09099423080731917
-0.20960000000000006,-0.0909517894683232
-0.21060000000000006,-0.09082446545133536
-0.21160000000000007,-0.09076787699934075
-0.21260000000000007,-0.09066884720835021
-0.21360000000000007,-0.0905839645303583
-0.21460000000000007,-0.09048493473936775
-0.21560000000000007,-0.09040005206137584
-0.21660000000000007,-0.09031516938338394
-0.21760000000000007,-0.09020199247939473
-0.21860000000000007,-0.09008881557540553
-0.21960000000000007,-0.09004637423640958
-0.22060000000000007,-0.08990490310642309
-0.22160000000000007,-0.08983416754142984
-0.22260000000000008,-0.08984831465442847
-0.22360000000000008,-0.08974928486343793
-0.22460000000000008,-0.08963610795944872
-0.22560000000000008,-0.08949463682946222
-0.22660000000000008,-0.08939560703847166
-0.22760000000000008,-0.08929657724748112
-0.22860000000000008,-0.08919754745649056
-0.22960000000000008,-0.08916925323049325
-0.23060000000000008,-0.08914095900449596
-0.23160000000000008,-0.08898534076151081
-0.23260000000000008,-0.08894289942251486
-0.23360000000000009,-0.0889004580835189
-0.2346000000000001,-0.08880142829252836
-0.2356000000000001,-0.0887589869535324
-0.2366000000000001,-0.08863166293654455
-0.2376000000000001,-0.08854678025855263
-0.2386000000000001,-0.08847604469355938
-0.2396000000000001,-0.08840530912856613
-0.2406000000000001,-0.08833457356357288
-0.2416000000000001,-0.08822139665958369
-0.2426000000000001,-0.08816480820758908
-0.2436000000000001,-0.08812236686859314
-0.2446000000000001,-0.08799504285160528
-0.2456000000000001,-0.08793845439961068
-0.2466000000000001,-0.08788186594761609
-0.2476000000000001,-0.08788186594761609
-0.2486000000000001,-0.08785357172161878
-0.2496000000000001,-0.08778283615662552
-0.2506000000000001,-0.08778283615662552
-0.2516000000000001,-0.08775454193062822
-0.2526000000000001,-0.08768380636563497
-0.2536000000000001,-0.08759892368764308
-0.2546000000000001,-0.08755648234864712
-0.2556000000000001,-0.08748574678365387
-0.2566000000000001,-0.08749989389665253
-0.2576000000000001,-0.08747159967065522
-0.2586000000000001,-0.0874433054446579
-0.2596000000000001,-0.08734427565366736
-0.2606000000000001,-0.08737256987966466
-0.2616000000000001,-0.08731598142767007
-0.2626000000000001,-0.08723109874967816
-0.2636000000000001,-0.08723109874967816
-0.2646000000000001,-0.08717451029768356
-0.2656000000000001,-0.08704718628069572
-0.2666000000000001,-0.08700474494169977
-0.2676000000000001,-0.08697645071570247
-0.2686000000000001,-0.08696230360270381
-0.2696000000000001,-0.0869340093767065
-0.2706000000000001,-0.08689156803771056
-0.2716000000000001,-0.08689156803771056
-0.2726000000000001,-0.0868774209247119
-0.2736000000000001,-0.08686327381171326
-0.2746000000000001,-0.08682083247271731
-0.2756000000000001,-0.08677839113372135
-0.2766000000000001,-0.0867076555687281
-0.2776000000000001,-0.0867642440207227
-0.2786000000000001,-0.08683497958571595
-0.2796000000000001,-0.0868774209247119
-0.2806000000000001,-0.0868491266987146
-0.28160000000000013,-0.0869340093767065
-0.28260000000000013,-0.08683497958571595
-0.28360000000000013,-0.0868491266987146
-0.2846,-0.08682083247271731
-0.2856,-0.08680668535971865
-0.2866,-0.08675009690772406
-0.2876,-0.0867642440207227
-0.2886,-0.0867359497947254
-0.2896,-0.08660862577773754
-0.2906,-0.08656618443874159
-0.2916,-0.08652374309974564
-0.2926,-0.086509595986747
-0.2936,-0.08649544887374834
-0.29460000000000003,-0.08649544887374834
-0.29560000000000003,-0.08645300753475238
-0.29660000000000003,-0.08635397774376184
-0.29760000000000003,-0.08632568351776454
-0.29860000000000003,-0.08629738929176724
-0.29960000000000003,-0.08632568351776454
-0.30060000000000003,-0.08631153640476588
-0.30160000000000003,-0.08622665372677399
-0.30260000000000004,-0.08624080083977263
-0.30360000000000004,-0.08621250661377533
-0.30460000000000004,-0.08619835950077669
-0.30560000000000004,-0.08626909506576994
-0.30660000000000004,-0.08635397774376184
-0.30760000000000004,-0.08622665372677399
-0.30860000000000004,-0.08618421238777803
-0.30960000000000004,-0.08621250661377533
-0.31060000000000004,-0.08624080083977263
-0.31160000000000004,-0.0862832421787686
-0.31260000000000004,-0.08638227196975913
-0.31360000000000005,-0.08633983063076318
-0.31460000000000005,-0.08625494795277128
-0.31560000000000005,-0.08631153640476588
-0.31660000000000005,-0.08635397774376184
-0.31760000000000005,-0.08629738929176724
-0.31860000000000005,-0.08629738929176724
-0.31960000000000005,-0.08632568351776454
-0.32060000000000005,-0.08633983063076318
-0.32160000000000005,-0.08631153640476588
-0.32260000000000005,-0.08633983063076318
-0.32360000000000005,-0.0863681248567605
-0.32460000000000006,-0.0863681248567605
-0.32560000000000006,-0.0863681248567605
-0.32660000000000006,-0.08633983063076318
-0.32760000000000006,-0.08635397774376184
-0.32860000000000006,-0.08646715464775104
-0.32960000000000006,-0.086509595986747
-0.33060000000000006,-0.086509595986747
-0.33160000000000006,-0.08655203732574294
-0.33260000000000006,-0.08655203732574294
-0.33360000000000006,-0.08656618443874159
-0.33460000000000006,-0.08653789021274429
-0.33560000000000006,-0.0865944786647389
-0.33660000000000007,-0.08656618443874159
-0.33760000000000007,-0.08655203732574294
-0.33860000000000007,-0.0865944786647389
-0.33960000000000007,-0.0865944786647389
-0.34060000000000007,-0.08660862577773754
-0.34160000000000007,-0.0866793613427308
-0.34260000000000007,-0.08663692000373484
-0.34360000000000007,-0.0866227728907362
-0.3446000000000001,-0.08660862577773754
-0.3456000000000001,-0.08666521422973215
-0.3466000000000001,-0.0867642440207227
-0.34759999999999996,-0.08672180268172675
-0.3486000000000001,-0.08666521422973215
-0.34959999999999997,-0.08672180268172675
-0.3506000000000001,-0.0867642440207227
-0.35159999999999997,-0.08677839113372135
-0.3526000000000001,-0.08686327381171326
-0.35359999999999997,-0.0869057151507092
-0.3546000000000001,-0.08694815648970515
-0.35559999999999997,-0.08716036318468491
-0.3566000000000001,-0.08724524586267682
-0.3576,-0.08730183431467141
-0.3586000000000001,-0.08733012854066871
-0.3596,-0.08733012854066871
-0.3606000000000001,-0.08734427565366736
-0.3616,-0.08745745255765658
-0.3626000000000001,-0.08740086410566196
-0.3636,-0.08742915833165928
-0.3646000000000001,-0.08747159967065522
-0.3656,-0.08745745255765658
-0.3666000000000001,-0.08752818812264983
-0.3676,-0.08771210059163227
-0.3686000000000001,-0.08768380636563497
-0.3696,-0.08776868904362688
-0.3706000000000001,-0.08779698326962418
-0.3716,-0.08772624770463092
-0.3726000000000001,-0.08764136502663902
-0.3736,-0.08764136502663902
-0.3746000000000001,-0.08769795347863363
-0.3756,-0.08795260151260934
-0.3766000000000001,-0.08795260151260934
-0.3776,-0.08796674862560798
-0.3786000000000001,-0.08793845439961068
-0.3796,-0.08792430728661203
-0.3806000000000001,-0.08788186594761609
-0.3816,-0.08791016017361337
-0.3826000000000001,-0.08789601306061473
-0.3836,-0.08792430728661203
-0.3846000000000001,-0.08793845439961068
-0.3856,-0.08796674862560798
-0.3866000000000001,-0.08806577841659853
-0.3876,-0.08819310243358638
-0.3886000000000001,-0.08819310243358638
-0.3896,-0.08829213222457694
-0.3906000000000001,-0.08836286778957018
-0.3916,-0.08833457356357288
-0.3926000000000001,-0.08844775046756209
-0.3936,-0.0885043389195567
-0.3946000000000001,-0.08849019180655805
-0.3956,-0.0885043389195567
-0.3966000000000001,-0.08847604469355938
-0.3976,-0.08844775046756209
-0.3986000000000001,-0.0885043389195567
-0.3996,-0.0885609273715513
-0.4006000000000001,-0.08860336871054725
-0.4016,-0.0886741042755405
-0.4026000000000001,-0.0887589869535324
-0.4036,-0.08887216385752161
-0.4046000000000001,-0.08888631097052026
-0.4056,-0.08901363498750811
-0.40660000000000013,-0.08907022343950272
-0.4076,-0.08921169456948921
-0.40860000000000013,-0.08952293105545953
-0.4096,-0.08963610795944872
-0.41060000000000013,-0.08982002042843118
-0.4116,-0.08973513775043927
-0.41260000000000013,-0.08974928486343793
-0.4136,-0.08973513775043927
-0.41460000000000014,-0.08966440218544602
-0.4156,-0.08973513775043927
-0.41660000000000014,-0.08974928486343793
-0.4176,-0.08983416754142984
-0.41860000000000014,-0.08991905021942173
-0.41960000000000003,-0.09004637423640958
-0.42060000000000014,-0.09001808001041228
-0.42160000000000003,-0.09006052134940823
-0.42260000000000014,-0.09008881557540553
-0.42360000000000003,-0.09004637423640958
-0.42460000000000014,-0.09017369825339744
-0.42560000000000003,-0.09034346360938124
-0.42660000000000015,-0.09054152319136234
-0.42760000000000004,-0.09065470009535155
-0.42860000000000015,-0.09096593658132186
-0.42960000000000004,-0.09089520101632861
-0.43060000000000015,-0.09099423080731917
-0.43160000000000004,-0.09107911348531106
-0.43260000000000015,-0.09136205574528407
-0.43360000000000004,-0.0909234952423259
-0.43460000000000015,-0.0907820241123394
-0.43560000000000004,-0.09090934812932726
-0.43660000000000015,-0.09103667214631511
-0.43760000000000004,-0.09105081925931376
