Potential V vs RHE, Current mA cm-2
0.013299999999999867,0.870188920546984
0.012299999999999978,0.04140859974704963
0.011299999999999866,-0.6128529351015338
0.010299999999999976,-1.1362961160515976
0.009299999999999864,-1.6594563547416883
0.008299999999999974,-2.1390434853959355
0.007299999999999862,-2.576189277054232
0.006299999999999972,-2.968064307116847
0.00529999999999986,-3.2297858975918787
0.0042999999999999705,-3.4915074880669104
0.0032999999999998586,-3.7532290785419424
0.0022999999999999687,-4.0588067193127895
0.0012999999999998568,-4.364384360083638
0.00029999999999996696,-4.626105950558669
-0.000700000000000145,-4.843971490737885
-0.0017000000000000348,-5.017980980621284
-0.0027000000000001467,-5.149549131508733
-0.0037000000000000366,-5.323558621392133
-0.0047000000000001485,-5.585280211867165
-0.005700000000000038,-5.80314575204638
-0.00670000000000015,-5.977155241929781
-0.00770000000000004,-6.108723392817228
-0.008700000000000152,-6.238876832404812
-0.009700000000000042,-6.326588932996443
-0.010700000000000154,-6.458157083883892
-0.011700000000000044,-6.6760226240631075
-0.012700000000000156,-6.850032113946507
-0.013700000000000045,-6.981600264833956
-0.014700000000000157,-7.067897654125724
-0.015700000000000047,-7.111753704421539
-0.01670000000000016,-7.199465805013171
-0.01770000000000005,-7.37347529489657
-0.01870000000000016,-7.5474847847799715
-0.01970000000000005,-7.679052935667419
-0.020700000000000163,-7.7653503249591855
-0.021700000000000053,-7.853062425550818
-0.022700000000000164,-7.896918475846635
-0.023700000000000054,-7.940774526142452
-0.024700000000000166,-8.11478401602585
-0.025700000000000056,-8.246352166913299
-0.026700000000000168,-8.376505606500881
-0.027700000000000058,-8.4203616567967
-0.02870000000000017,-8.4203616567967
-0.02970000000000006,-8.464217707092514
-0.03070000000000017,-8.55051509638428
-0.03170000000000006,-8.68208324727173
-0.03270000000000017,-8.812236686859313
-0.03370000000000006,-8.943804837746763
-0.034700000000000175,-8.943804837746763
-0.035700000000000065,-8.943804837746763
-0.03670000000000018,-8.987660888042578
-0.03770000000000007,-9.11781432763016
-0.03870000000000018,-9.24938247851761
-0.03970000000000007,-9.335679867809377
-0.04070000000000018,-9.379535918105192
-0.04170000000000007,-9.423391968401008
-0.04270000000000018,-9.423391968401008
-0.04370000000000007,-9.467248018696827
-0.044700000000000184,-9.55496011928846
-0.045700000000000074,-9.685113558876042
-0.046700000000000186,-9.772825659467674
-0.047700000000000076,-9.772825659467674
-0.04870000000000019,-9.772825659467674
-0.04970000000000008,-9.81668170976349
-0.05070000000000019,-9.85912304875944
-0.05170000000000008,-9.946835149351072
-0.05270000000000019,-10.078403300238522
-0.05370000000000008,-10.120844639234473
-0.05470000000000019,-10.164700689530287
-0.05570000000000008,-10.120844639234473
-0.056700000000000195,-10.120844639234473
-0.057700000000000085,-10.208556739826104
-0.058700000000000196,-10.340124890713554
-0.059700000000000086,-10.42642228000532
-0.0607000000000002,-10.470278330301136
-0.06170000000000009,-10.42642228000532
-0.0627000000000002,-10.42642228000532
-0.06370000000000009,-10.42642228000532
-0.0647000000000002,-10.557990430892769
-0.06570000000000009,-10.644287820184536
-0.0667000000000002,-10.688143870480351
-0.0677000000000001,-10.688143870480351
-0.0687000000000002,-10.688143870480351
-0.0697000000000001,-10.688143870480351
-0.07070000000000021,-10.731999920776168
-0.0717000000000001,-10.819712021367803
-0.07270000000000021,-10.906009410659568
-0.0737000000000001,-10.949865460955383
-0.07470000000000021,-10.906009410659568
-0.0757000000000001,-10.863568071663616
-0.07670000000000021,-10.863568071663616
-0.0777000000000001,-10.949865460955383
-0.07870000000000021,-11.081433611842833
-0.0797000000000001,-11.123874950838783
-0.08070000000000022,-11.1677310011346
-0.0817000000000001,-11.123874950838783
-0.08270000000000022,-11.081433611842833
-0.08370000000000011,-11.081433611842833
-0.08470000000000022,-11.1677310011346
-0.08570000000000011,-11.255443101726232
-0.08670000000000022,-11.299299152022046
-0.08770000000000011,-11.299299152022046
-0.08870000000000022,-11.255443101726232
-0.08970000000000011,-11.255443101726232
-0.09070000000000022,-11.255443101726232
-0.09170000000000011,-11.343155202317865
-0.09270000000000023,-11.42945259160963
-0.09370000000000012,-11.473308641905447
-0.09470000000000023,-11.42945259160963
-0.09570000000000012,-11.385596541313816
-0.09670000000000023,-11.343155202317865
-0.09770000000000012,-11.42945259160963
-0.09870000000000023,-11.517164692201263
-0.09970000000000012,-11.56102074249708
-0.10070000000000023,-11.56102074249708
-0.10170000000000012,-11.517164692201263
-0.10270000000000024,-11.473308641905447
-0.10370000000000013,-11.473308641905447
-0.10470000000000024,-11.56102074249708
-0.10570000000000013,-11.647318131788847
-0.10670000000000024,-11.647318131788847
-0.10770000000000013,-11.647318131788847
-0.10870000000000024,-11.604876792792895
-0.10970000000000013,-11.56102074249708
-0.11070000000000024,-11.604876792792895
-0.11170000000000013,-11.691174182084664
-0.11270000000000002,-11.73503023238048
-0.11370000000000013,-11.73503023238048
-0.11470000000000002,-11.73503023238048
-0.11570000000000014,-11.647318131788847
-0.11670000000000003,-11.647318131788847
-0.11770000000000014,-11.691174182084664
-0.11870000000000003,-11.778886282676295
-0.11970000000000014,-11.82274233297211
-0.12070000000000003,-11.82274233297211
-0.12170000000000014,-11.778886282676295
-0.12270000000000003,-11.73503023238048
-0.12370000000000014,-11.73503023238048
-0.12470000000000003,-11.82274233297211
-0.12570000000000014,-11.909039722263879
-0.12670000000000003,-11.909039722263879
-0.12770000000000015,-11.86659838326793
-0.12870000000000004,-11.82274233297211
-0.12970000000000015,-11.778886282676295
-0.13070000000000004,-11.82274233297211
-0.13170000000000015,-11.86659838326793
-0.13270000000000004,-11.952895772559694
-0.13370000000000015,-11.952895772559694
-0.13470000000000004,-11.909039722263879
-0.13570000000000015,-11.86659838326793
-0.13670000000000004,-11.86659838326793
-0.13770000000000016,-11.909039722263879
-0.13870000000000005,-11.909039722263879
-0.13970000000000016,-11.996751822855511
-0.14070000000000005,-11.952895772559694
-0.14170000000000016,-11.952895772559694
-0.14270000000000005,-11.909039722263879
-0.14370000000000016,-11.86659838326793
-0.14470000000000005,-11.952895772559694
-0.14570000000000016,-11.996751822855511
-0.14670000000000005,-12.040607873151327
-0.14770000000000016,-12.040607873151327
-0.14870000000000005,-11.952895772559694
-0.14970000000000017,-11.909039722263879
-0.15070000000000006,-11.952895772559694
-0.15170000000000017,-11.996751822855511
-0.15270000000000006,-12.084463923447142
-0.15370000000000017,-12.084463923447142
-0.15470000000000006,-12.040607873151327
-0.15570000000000017,-11.996751822855511
-0.15670000000000006,-11.952895772559694
-0.15770000000000017,-11.996751822855511
-0.15870000000000006,-12.084463923447142
-0.15970000000000018,-12.12831997374296
-0.16070000000000007,-12.12831997374296
-0.16170000000000018,-12.084463923447142
-0.16270000000000007,-12.040607873151327
-0.16370000000000018,-12.040607873151327
-0.16470000000000007,-12.084463923447142
-0.16570000000000018,-12.170761312738911
-0.16670000000000007,-12.214617363034726
-0.16770000000000018,-12.170761312738911
-0.16870000000000007,-12.12831997374296
-0.16970000000000018,-12.084463923447142
-0.17070000000000007,-12.12831997374296
-0.17170000000000019,-12.170761312738911
-0.17270000000000008,-12.258473413330542
-0.1737000000000002,-12.258473413330542
-0.17470000000000008,-12.214617363034726
-0.1757000000000002,-12.170761312738911
-0.17670000000000008,-12.170761312738911
-0.1777000000000002,-12.214617363034726
-0.17870000000000008,-12.258473413330542
-0.1797000000000002,-12.302329463626359
-0.18070000000000008,-12.302329463626359
-0.1817000000000002,-12.258473413330542
-0.18270000000000008,-12.214617363034726
-0.1837000000000002,-12.258473413330542
-0.1847000000000001,-12.302329463626359
-0.1857000000000002,-12.390041564217992
-0.1867000000000001,-12.390041564217992
-0.1877000000000002,-12.390041564217992
-0.1887000000000001,-12.346185513922174
-0.1897000000000002,-12.302329463626359
-0.1907000000000001,-12.346185513922174
-0.1917000000000001,-12.390041564217992
-0.19269999999999998,-12.476338953509758
-0.1937000000000001,-12.476338953509758
-0.19469999999999998,-12.476338953509758
-0.1957000000000001,-12.432482903213943
-0.19669999999999999,-12.432482903213943
-0.1977000000000001,-12.476338953509758
-0.1987,-12.520195003805576
-0.1997000000000001,-12.56405105410139
-0.2007,-12.56405105410139
-0.2017000000000001,-12.56405105410139
-0.2027,-12.520195003805576
-0.2037000000000001,-12.520195003805576
-0.2047,-12.607907104397206
-0.2057000000000001,-12.651763154693022
-0.2067,-12.694204493688973
-0.2077000000000001,-12.694204493688973
-0.2087,-12.651763154693022
-0.2097000000000001,-12.607907104397206
-0.2107,-12.651763154693022
-0.2117000000000001,-12.73806054398479
-0.2127,-12.781916594280606
-0.2137000000000001,-12.825772644576423
-0.2147,-12.781916594280606
-0.2157000000000001,-12.73806054398479
-0.2167,-12.781916594280606
-0.21770000000000012,-12.825772644576423
-0.2187,-12.913484745168056
-0.21970000000000012,-12.955926084164007
-0.2207,-12.955926084164007
-0.22170000000000012,-12.913484745168056
-0.2227,-12.913484745168056
-0.22370000000000012,-12.913484745168056
-0.2247,-12.955926084164007
-0.22570000000000012,-13.043638184755638
-0.2267,-13.087494235051453
-0.22770000000000012,-13.087494235051453
-0.22870000000000001,-13.043638184755638
-0.22970000000000013,-13.043638184755638
-0.23070000000000002,-13.087494235051453
-0.23170000000000013,-13.13135028534727
-0.23270000000000002,-13.175206335643086
-0.23370000000000013,-13.261503724934855
-0.23470000000000002,-13.261503724934855
-0.23570000000000013,-13.217647674639037
-0.23670000000000002,-13.175206335643086
-0.2376999999999999,-13.217647674639037
-0.23870000000000002,-13.349215825526485
-0.2396999999999999,-13.436927926118118
-0.24070000000000003,-13.436927926118118
-0.24169999999999991,-13.3930718758223
-0.24270000000000003,-13.30535977523067
-0.24369999999999992,-13.349215825526485
-0.24470000000000003,-13.436927926118118
-0.24569999999999992,-13.523225315409885
-0.24670000000000003,-13.567081365705702
-0.24769999999999992,-13.567081365705702
-0.24870000000000003,-13.567081365705702
-0.24969999999999992,-13.567081365705702
-0.25070000000000003,-13.567081365705702
-0.2516999999999999,-13.654793466297335
-0.25270000000000004,-13.741090855589102
-0.2536999999999999,-13.784946905884919
-0.25470000000000004,-13.784946905884919
-0.2556999999999999,-13.741090855589102
-0.25670000000000004,-13.784946905884919
-0.25769999999999993,-13.828802956180734
-0.25870000000000004,-13.960371107068182
-0.25969999999999993,-14.002812446064135
-0.26070000000000004,-14.002812446064135
-0.26169999999999993,-14.002812446064135
-0.26270000000000004,-14.002812446064135
-0.26369999999999993,-14.046668496359947
-0.26470000000000005,-14.13438059695158
-0.26569999999999994,-14.217848563643619
-0.26670000000000005,-14.26028990263957
-0.26769999999999994,-14.26028990263957
-0.26870000000000005,-14.26028990263957
-0.26969999999999994,-14.26028990263957
-0.27070000000000005,-14.345172580631472
-0.27169999999999994,-14.444202371622024
-0.27270000000000005,-14.529085049613924
-0.27369999999999994,-14.57152638860988
-0.27470000000000006,-14.57152638860988
-0.27569999999999995,-14.57152638860988
-0.27670000000000006,-14.61396772760583
-0.27769999999999995,-14.69885040559773
-0.27870000000000006,-14.783733083589633
-0.27969999999999995,-14.868615761581536
-0.28070000000000006,-14.925204213576137
-0.28169999999999995,-14.925204213576137
-0.28270000000000006,-14.925204213576137
-0.28369999999999995,-15.01008689156804
-0.28470000000000006,-15.094969569559943
-0.28569999999999995,-15.222293586547794
-0.28670000000000007,-15.307176264539699
-0.28769999999999996,-15.349617603535648
-0.28870000000000007,-15.349617603535648
-0.28969999999999996,-15.3920589425316
-0.29070000000000007,-15.491088733522153
-0.29169999999999996,-15.618412750510005
-0.29270000000000007,-15.74573676749786
-0.29369999999999996,-15.78817810649381
-0.2947000000000001,-15.830619445489761
-0.29569999999999996,-15.87306078448571
-0.2967000000000001,-15.972090575476265
-0.29769999999999996,-16.099414592464115
-0.2987000000000001,-16.269179948447924
-0.29969999999999997,-16.396503965435777
-0.3007000000000001,-16.396503965435777
-0.30169999999999997,-16.495533756426326
-0.3027000000000001,-16.53797509542228
-0.30369999999999997,-16.622857773414182
-0.3047000000000001,-16.792623129397985
-0.30569999999999997,-16.962388485381787
-0.3067000000000001,-17.103859615368293
-0.3077,-17.231183632356142
-0.3087000000000001,-17.316066310348052
-0.3097,-17.40094898833995
-0.3107000000000001,-17.542420118326454
-0.3117,-17.75462681330621
-0.3127000000000001,-17.924392169290012
-0.3137,-18.06586329927652
-0.3147000000000001,-18.19318731626437
-0.3157,-18.320511333252224
-0.3167000000000001,-18.44783535024008
-0.3177,-18.674189158218486
-0.3187000000000001,-18.92883719219419
-0.3197,-19.155191000172596
-0.3207000000000001,-19.3249563561564
-0.3217,-19.49472171214021
-0.3227000000000001,-19.636192842126707
-0.3237,-19.848399537106463
-0.3247000000000001,-20.10304757108217
-0.3257,-20.414284057052477
-0.3267000000000001,-20.72552054302279
-0.3277,-20.980168576998494
-0.3287000000000001,-21.149933932982297
-0.3297,-21.418729079956652
-0.3307000000000001,-21.772406904922917
-0.3317,-22.15437895588647
-0.3327000000000001,-22.508056780852733
-0.3337,-22.861734605818995
-0.3347000000000001,-23.2012653177866
-0.3357,-23.51250180375691
-0.3367000000000001,-23.908620967719123
-0.3377,-24.34718147067728
-0.3387000000000001,-24.814036199632742
-0.3397,-25.337479380582806
-0.3407000000000001,-25.81848122253692
-0.3417,-26.29948306449103
-0.3427000000000001,-26.780484906445146
-0.3437,-27.34636942639116
-0.3447000000000001,-28.011283737327723
-0.3457,-28.704492274261593
-0.3467000000000001,-29.35525947219951
-0.3477,-30.04846800913338
-0.3487000000000001,-30.7558236590659
-0.3497,-31.533914873991666
-0.3507000000000001,-32.368594540912035
-0.3517,-33.330598224820264
-0.3527000000000001,-34.33504324772444
-0.3537,-35.38192960962457
-0.3547000000000001,-36.4288159715247
-0.3557,-37.51814367242077
-0.35670000000000013,-38.692354051308754
-0.3577,-39.99388844718459
-0.35870000000000013,-41.39445263405098
-0.3597,-42.837458159913304
-0.36070000000000013,-44.28046368577565
-0.3617,-45.75176343763528
-0.3626999999999999,-47.27965164148953
-0.3637,-48.89242252333566
-0.3646999999999999,-50.64666453516831
-0.3657,-52.471642111994214
-0.3666999999999999,-54.31076680181876
-0.3677,-56.13574437864466
-0.3686999999999999,-58.017310407465146
-0.36970000000000003,-59.842287984291055
-0.3706999999999999,-61.80873669110345
-0.37170000000000003,-63.81762673691181
-0.3726999999999999,-65.86895812171612
-0.37370000000000003,-67.82125971552985
-0.3746999999999999,-69.78770842234226
-0.37570000000000003,-71.7117157901587
-0.3766999999999999,-73.6781644969711
-0.37770000000000004,-75.71534876877676
-0.3786999999999999,-77.80912149257702
-0.37970000000000004,-79.81801153838538
-0.3806999999999999,-81.74201890620182
-0.38170000000000004,-83.52455514403178
-0.38269999999999993,-85.27879715586442
-0.38370000000000004,-87.06133339369435
-0.38469999999999993,-88.8438696315243
-0.38570000000000004,-90.6405529823529
-0.38669999999999993,-91.51767398826922
-0.38570000000000004,-91.03667214631511
-0.38469999999999993,-90.51322896536506
-0.38370000000000004,-89.98978578441499
-0.38269999999999993,-89.42390126446898
-0.38170000000000004,-88.8438696315243
-0.3806999999999999,-88.27798511157829
-0.37970000000000004,-87.66965925263632
-0.3786999999999999,-87.01889205469841
-0.37770000000000004,-86.18421238777805
-0.3766999999999999,-85.44856251184822
-0.37570000000000003,-84.7129126359184
-0.3746999999999999,-84.04799832498183
-0.37370000000000003,-83.48211380503581
-0.3726999999999999,-82.8313466070979
-0.37170000000000003,-82.03910827917348
-0.3706999999999999,-81.26101706424771
-0.36970000000000003,-80.42633739732734
-0.3686999999999999,-79.64824618240156
-0.3677,-78.9550376454677
-0.3666999999999999,-78.16279931754329
-0.3657,-77.28567831162695
-0.3646999999999999,-76.50758709670117
-0.3637,-75.6729074297808
-0.3626999999999999,-74.8523748758591
-0.3617,-74.06013654793468
-0.36070000000000013,-73.32448667200485
-0.3597,-72.57468968307639
-0.35870000000000013,-71.83903980714656
-0.3577,-70.87703612323833
-0.35670000000000013,-70.01406223032066
-0.3557,-69.30670658038814
-0.3547000000000001,-68.57105670445833
-0.3537,-67.693935698542
-0.3527000000000001,-66.87340314462028
-0.3517,-65.95384079970802
-0.3507000000000001,-65.16160247178358
-0.3497,-64.38351125685783
-0.3487000000000001,-63.54883158993744
-0.3477,-62.855623053003576
-0.3467000000000001,-62.24729719406162
-0.3457,-61.412617527141244
-0.3447000000000001,-60.45061384323302
-0.3437,-59.6300812893113
-0.3427000000000001,-58.880284300382826
-0.3417,-58.05975174646111
-0.3407000000000001,-57.26751341853669
-0.3397,-56.53186354260687
-0.3387000000000001,-55.56985985869864
-0.3377,-54.60785617479041
-0.3367000000000001,-53.872206298860604
-0.3357,-53.348763117910536
-0.3347000000000001,-52.78287859796452
-0.3337,-52.11796428702795
-0.3327000000000001,-51.21254905511432
-0.3317,-50.29298671020206
-0.3307000000000001,-49.41586570428573
-0.3297,-48.68021582835591
-0.3287000000000001,-47.987007291422046
-0.3277,-47.36453431948143
-0.3267000000000001,-46.628884443551605
-0.3257,-45.93567590661774
-0.3247000000000001,-45.143437578693316
-0.3237,-44.45022904175945
-0.3227000000000001,-43.79946184382153
-0.3217,-43.134547532884966
-0.3207000000000001,-42.483780334947056
-0.3197,-41.79057179801318
-0.3187000000000001,-40.99833347008877
-0.3177,-40.30512493315489
-0.3167000000000001,-39.56947505722508
-0.3157,-38.86211940729255
-0.3147000000000001,-38.29623488734655
-0.3137,-37.645467689408626
-0.3127000000000001,-36.89567070048016
-0.3117,-36.16002082455034
-0.3107000000000001,-35.42437094862052
-0.3097,-34.75945663768395
-0.3087000000000001,-34.236013456733886
-0.3077,-33.670128936787876
-0.3067000000000001,-33.01936173884996
-0.30569999999999997,-32.32615320191609
-0.3047000000000001,-31.618797551983565
-0.30369999999999997,-31.010471693041605
-0.3027000000000001,-30.444587173095588
-0.30169999999999997,-29.921143992145527
-0.3007000000000001,-29.31281813320356
-0.29969999999999997,-28.704492274261593
-0.2987000000000001,-28.09616641531963
-0.29769999999999996,-27.38881076538711
-0.2967000000000001,-26.780484906445146
-0.29569999999999996,-26.29948306449103
-0.2947000000000001,-25.77603988354097
-0.29369999999999996,-25.252596702590903
-0.29270000000000007,-24.686712182644893
-0.29169999999999996,-24.078386323702922
-0.29070000000000007,-23.47006046476096
-0.28969999999999996,-22.989058622806844
-0.28870000000000007,-22.508056780852733
-0.28769999999999996,-22.027054938898623
-0.28670000000000007,-21.461170418952605
-0.28569999999999995,-20.93772723800254
-0.28470000000000006,-20.329401379060574
-0.28369999999999995,-19.848399537106463
-0.28270000000000006,-19.367397695152352
-0.28169999999999995,-18.92883719219419
-0.28070000000000006,-18.44783535024008
-0.27969999999999995,-17.966833508285966
-0.27870000000000006,-17.4433903273359
-0.27769999999999995,-16.919947146385837
-0.27670000000000006,-16.438945304431726
-0.27569999999999995,-16.056973253468165
-0.27470000000000006,-15.660854089505953
-0.27369999999999994,-15.264734925543747
-0.27270000000000005,-14.783733083589633
-0.27169999999999994,-14.30273124163552
-0.27070000000000005,-13.784946905884919
-0.26969999999999994,-13.3930718758223
-0.26870000000000005,-12.99978213445982
-0.26769999999999994,-12.651763154693022
