Potential V vs RHE, Current mA cm-2
0.013299999999999867,0.7829012333453113
0.012299999999999978,-0.2202705493889862
0.011299999999999866,-1.0490084288499246
0.010299999999999976,-1.7471684553333202
0.009299999999999864,-2.4007650758709675
0.008299999999999974,-2.968064307116847
0.007299999999999862,-3.4915074880669104
0.006299999999999972,-4.014950669016974
0.00529999999999986,-4.494537799671222
0.0042999999999999705,-4.974124930325469
0.0032999999999998586,-5.497568111275533
0.0022999999999999687,-5.9347139029338285
0.0012999999999998568,-6.37044498329226
0.00029999999999996696,-6.762320013354876
-0.000700000000000145,-7.155609754717355
-0.0017000000000000348,-7.5474847847799715
-0.0027000000000001467,-7.853062425550818
-0.0037000000000000366,-8.158640066321666
-0.0047000000000001485,-8.464217707092514
-0.005700000000000038,-8.725939297567548
-0.00670000000000015,-8.987660888042578
-0.00770000000000004,-9.293238528813426
-0.008700000000000152,-9.59740145828441
-0.009700000000000042,-9.902979099055257
-0.010700000000000154,-10.164700689530287
-0.011700000000000044,-10.470278330301136
-0.012700000000000156,-10.731999920776168
-0.013700000000000045,-10.993721511251199
-0.014700000000000157,-11.211587051430415
-0.015700000000000047,-11.42945259160963
-0.01670000000000016,-11.647318131788847
-0.01770000000000005,-11.82274233297211
-0.01870000000000016,-11.996751822855511
-0.01970000000000005,-12.214617363034726
-0.020700000000000163,-12.390041564217992
-0.021700000000000053,-12.607907104397206
-0.022700000000000164,-12.781916594280606
-0.023700000000000054,-12.99978213445982
-0.024700000000000166,-13.217647674639037
-0.025700000000000056,-13.436927926118118
-0.026700000000000168,-13.610937416001518
-0.027700000000000058,-13.784946905884919
-0.02870000000000017,-13.960371107068182
-0.02970000000000006,-14.090524546655764
-0.03070000000000017,-14.26028990263957
-0.03170000000000006,-14.401761032626075
-0.03270000000000017,-14.486643710617974
-0.03370000000000006,-14.65640906660178
-0.034700000000000175,-14.783733083589633
-0.035700000000000065,-14.925204213576137
-0.03670000000000018,-15.05252823056399
-0.03770000000000007,-15.222293586547794
-0.03870000000000018,-15.448647394526201
-0.03970000000000007,-15.575971411514052
-0.04070000000000018,-15.74573676749786
-0.04170000000000007,-15.830619445489761
-0.04270000000000018,-15.972090575476265
-0.04370000000000007,-16.056973253468165
-0.044700000000000184,-16.184297270456018
-0.045700000000000074,-16.22673860945197
-0.046700000000000186,-16.354062626439823
-0.047700000000000076,-16.438945304431726
-0.04870000000000019,-16.580416434418233
-0.04970000000000008,-16.70774045140608
-0.05070000000000019,-16.877505807389888
-0.05170000000000008,-17.018976937376394
-0.05270000000000019,-17.146300954364243
-0.05370000000000008,-17.2736249713521
-0.05470000000000019,-17.40094898833995
-0.05570000000000008,-17.4433903273359
-0.056700000000000195,-17.542420118326454
-0.057700000000000085,-17.627302796318357
-0.058700000000000196,-17.669744135314307
-0.059700000000000086,-17.71218547431026
-0.0607000000000002,-17.797068152302163
-0.06170000000000009,-17.881950830294063
-0.0627000000000002,-17.966833508285966
-0.06370000000000009,-18.10830463827247
-0.0647000000000002,-18.19318731626437
-0.06570000000000009,-18.320511333252224
-0.0667000000000002,-18.44783535024008
-0.0677000000000001,-18.589306480226583
-0.0687000000000002,-18.631747819222536
-0.0697000000000001,-18.716630497214435
-0.07070000000000021,-18.80151317520634
-0.0717000000000001,-18.843954514202288
-0.07270000000000021,-18.88639585319824
-0.0737000000000001,-18.97127853119014
-0.07470000000000021,-19.01371987018609
-0.0757000000000001,-19.155191000172596
-0.07670000000000021,-19.28251501716045
-0.0777000000000001,-19.3249563561564
-0.07870000000000021,-19.452280373144255
-0.0797000000000001,-19.537163051136158
-0.08070000000000022,-19.636192842126707
-0.0817000000000001,-19.721075520118614
-0.08270000000000022,-19.763516859114564
-0.08370000000000011,-19.805958198110513
-0.08470000000000022,-19.848399537106463
-0.08570000000000011,-19.848399537106463
-0.08670000000000022,-19.890840876102416
-0.08770000000000011,-19.93328221509837
-0.08870000000000022,-20.01816489309027
-0.08970000000000011,-20.06060623208622
-0.09070000000000022,-20.159636023076775
-0.09170000000000011,-20.244518701068674
-0.09270000000000023,-20.371842718056527
-0.09370000000000012,-20.414284057052477
-0.09470000000000023,-20.499166735044383
-0.09570000000000012,-20.541608074040333
-0.09670000000000023,-20.584049413036283
-0.09770000000000012,-20.584049413036283
-0.09870000000000023,-20.584049413036283
-0.09970000000000012,-20.626490752032236
-0.10070000000000023,-20.683079204026836
-0.10170000000000012,-20.72552054302279
-0.10270000000000024,-20.76796188201874
-0.10370000000000013,-20.85284456001064
-0.10470000000000024,-20.89528589900659
-0.10570000000000013,-20.980168576998494
-0.10670000000000024,-21.065051254990397
-0.10770000000000013,-21.149933932982297
-0.10870000000000024,-21.149933932982297
-0.10970000000000013,-21.2065223849769
-0.11070000000000024,-21.2065223849769
-0.11170000000000013,-21.248963723972853
-0.11270000000000002,-21.248963723972853
-0.11370000000000013,-21.291405062968803
-0.11470000000000002,-21.291405062968803
-0.11570000000000014,-21.333846401964752
-0.11670000000000003,-21.376287740960702
-0.11770000000000014,-21.461170418952605
-0.11870000000000003,-21.54605309694451
-0.11970000000000014,-21.58849443594046
-0.12070000000000003,-21.67337711393236
-0.12170000000000014,-21.67337711393236
-0.12270000000000003,-21.67337711393236
-0.12370000000000014,-21.729965565926964
-0.12470000000000003,-21.729965565926964
-0.12570000000000014,-21.729965565926964
-0.12670000000000003,-21.729965565926964
-0.12770000000000015,-21.772406904922917
-0.12870000000000004,-21.814848243918867
-0.12970000000000015,-21.899730921910766
-0.13070000000000004,-21.94217226090672
-0.13170000000000015,-22.027054938898623
-0.13270000000000004,-22.069496277894572
-0.13370000000000015,-22.069496277894572
-0.13470000000000004,-22.15437895588647
-0.13570000000000015,-22.15437895588647
-0.13670000000000004,-22.111937616890522
-0.13770000000000016,-22.111937616890522
-0.13870000000000005,-22.111937616890522
-0.13970000000000016,-22.111937616890522
-0.14070000000000005,-22.111937616890522
-0.14170000000000016,-22.15437895588647
-0.14270000000000005,-22.253408746877028
-0.14370000000000016,-22.253408746877028
-0.14470000000000005,-22.33829142486893
-0.14570000000000016,-22.38073276386488
-0.14670000000000005,-22.42317410286083
-0.14770000000000016,-22.46561544185678
-0.14870000000000005,-22.46561544185678
-0.14970000000000017,-22.46561544185678
-0.15070000000000006,-22.46561544185678
-0.15170000000000017,-22.42317410286083
-0.15270000000000006,-22.42317410286083
-0.15370000000000017,-22.42317410286083
-0.15470000000000006,-22.42317410286083
-0.15570000000000017,-22.46561544185678
-0.15670000000000006,-22.550498119848687
-0.15770000000000017,-22.592939458844636
-0.15870000000000006,-22.63538079784059
-0.15970000000000018,-22.67782213683654
-0.16070000000000007,-22.776851927827092
-0.16170000000000018,-22.776851927827092
-0.16270000000000007,-22.776851927827092
-0.16370000000000018,-22.776851927827092
-0.16470000000000007,-22.776851927827092
-0.16570000000000018,-22.776851927827092
-0.16670000000000007,-22.776851927827092
-0.16770000000000018,-22.776851927827092
-0.16870000000000007,-22.776851927827092
-0.16970000000000018,-22.861734605818995
-0.17070000000000007,-22.904175944814945
-0.17170000000000019,-22.946617283810895
-0.17270000000000008,-22.989058622806844
-0.1737000000000002,-23.031499961802798
-0.17470000000000008,-22.989058622806844
-0.1757000000000002,-23.031499961802798
-0.17670000000000008,-22.989058622806844
-0.1777000000000002,-22.989058622806844
-0.17870000000000008,-22.946617283810895
-0.1797000000000002,-22.989058622806844
-0.18070000000000008,-23.031499961802798
-0.1817000000000002,-23.073941300798747
-0.18270000000000008,-23.073941300798747
-0.1837000000000002,-23.15882397879065
-0.1847000000000001,-23.15882397879065
-0.1857000000000002,-23.24370665678255
-0.1867000000000001,-23.24370665678255
-0.1877000000000002,-23.342736447773106
-0.1887000000000001,-23.342736447773106
-0.1897000000000002,-23.342736447773106
-0.1907000000000001,-23.342736447773106
-0.1917000000000001,-23.300295108777156
-0.19269999999999998,-23.300295108777156
-0.1937000000000001,-23.300295108777156
-0.19469999999999998,-23.300295108777156
-0.1957000000000001,-23.300295108777156
-0.19669999999999999,-23.342736447773106
-0.1977000000000001,-23.427619125765005
-0.1987,-23.51250180375691
-0.1997000000000001,-23.55494314275286
-0.2007,-23.639825820744765
-0.2017000000000001,-23.639825820744765
-0.2027,-23.639825820744765
-0.2037000000000001,-23.639825820744765
-0.2047,-23.682267159740714
-0.2057000000000001,-23.639825820744765
-0.2067,-23.639825820744765
-0.2077000000000001,-23.597384481748815
-0.2087,-23.682267159740714
-0.2097000000000001,-23.682267159740714
-0.2107,-23.767149837732617
-0.2117000000000001,-23.767149837732617
-0.2127,-23.86617962872317
-0.2137000000000001,-23.908620967719123
-0.2147,-23.951062306715073
-0.2157000000000001,-23.993503645711023
-0.2167,-24.035944984706973
-0.21770000000000012,-23.993503645711023
-0.2187,-23.993503645711023
-0.21970000000000012,-23.993503645711023
-0.2207,-23.993503645711023
-0.22170000000000012,-24.035944984706973
-0.2227,-24.078386323702922
-0.22370000000000012,-24.120827662698876
-0.2247,-24.20571034069078
-0.22570000000000012,-24.24815167968673
-0.2267,-24.290593018682678
-0.22770000000000012,-24.34718147067728
-0.22870000000000001,-24.389622809673234
-0.22970000000000013,-24.389622809673234
-0.23070000000000002,-24.432064148669184
-0.23170000000000013,-24.389622809673234
-0.23270000000000002,-24.432064148669184
-0.23370000000000013,-24.432064148669184
-0.23470000000000002,-24.432064148669184
-0.23570000000000013,-24.516946826661083
-0.23670000000000002,-24.559388165657033
-0.2376999999999999,-24.64427084364894
-0.23870000000000002,-24.729153521640843
-0.2396999999999999,-24.771594860636792
-0.24070000000000003,-24.870624651627345
-0.24169999999999991,-24.870624651627345
-0.24270000000000003,-24.9130659906233
-0.24369999999999992,-24.9130659906233
-0.24470000000000003,-24.9130659906233
-0.24569999999999992,-24.870624651627345
-0.24670000000000003,-24.870624651627345
-0.24769999999999992,-24.870624651627345
-0.24870000000000003,-24.9130659906233
-0.24969999999999992,-24.95550732961925
-0.25070000000000003,-24.997948668615198
-0.2516999999999999,-25.04039000761115
-0.25270000000000004,-25.0828313466071
-0.2536999999999999,-25.12527268560305
-0.25470000000000004,-25.210155363594954
-0.2556999999999999,-25.252596702590903
-0.25670000000000004,-25.295038041586857
-0.25769999999999993,-25.295038041586857
-0.25870000000000004,-25.295038041586857
-0.25969999999999993,-25.39406783257741
-0.26070000000000004,-25.43650917157336
-0.26169999999999993,-25.478950510569312
-0.26270000000000004,-25.521391849565262
-0.26369999999999993,-25.60627452755716
-0.26470000000000005,-25.648715866553115
-0.26569999999999994,-25.73359854454502
-0.26670000000000005,-25.77603988354097
-0.26769999999999994,-25.81848122253692
-0.26870000000000005,-25.81848122253692
-0.26969999999999994,-25.77603988354097
-0.27070000000000005,-25.81848122253692
-0.27169999999999994,-25.81848122253692
-0.27270000000000005,-25.86092256153287
-0.27369999999999994,-25.91751101352747
-0.27470000000000006,-26.002393691519377
-0.27569999999999995,-26.044835030515326
-0.27670000000000006,-26.17215904750318
-0.27769999999999995,-26.21460038649913
-0.27870000000000006,-26.29948306449103
-0.27969999999999995,-26.34192440348698
-0.28070000000000006,-26.38436574248293
-0.28169999999999995,-26.38436574248293
-0.28270000000000006,-26.38436574248293
-0.28369999999999995,-26.38436574248293
-0.28470000000000006,-26.440954194477534
-0.28569999999999995,-26.440954194477534
-0.28670000000000007,-26.483395533473487
-0.28769999999999996,-26.483395533473487
-0.28870000000000007,-26.61071955046134
-0.28969999999999996,-26.738043567449193
-0.29070000000000007,-26.86536758443705
-0.29169999999999996,-26.9643973754276
-0.29270000000000007,-27.091721392415455
-0.29369999999999996,-27.176604070407354
-0.2947000000000001,-27.261486748399253
-0.29569999999999996,-27.261486748399253
-0.2967000000000001,-27.303928087395207
-0.29769999999999996,-27.261486748399253
-0.2987000000000001,-27.261486748399253
-0.29969999999999997,-27.219045409403304
-0.3007000000000001,-27.219045409403304
-0.30169999999999997,-27.261486748399253
-0.3027000000000001,-27.303928087395207
-0.30369999999999997,-27.38881076538711
-0.3047000000000001,-27.530281895373616
-0.30569999999999997,-27.65760591236147
-0.3067000000000001,-27.742488590353368
-0.3077,-27.827371268345274
-0.3087000000000001,-27.912253946337174
-0.3097,-27.954695285333123
-0.3107000000000001,-28.011283737327723
-0.3117,-28.05372507632368
-0.3127000000000001,-28.09616641531963
-0.3137,-28.18104909331153
-0.3147000000000001,-28.22349043230748
-0.3157,-28.308373110299385
-0.3167000000000001,-28.393255788291288
-0.3177,-28.53472691827779
-0.3187000000000001,-28.704492274261593
-0.3197,-28.789374952253496
-0.3207000000000001,-28.8742576302454
-0.3217,-28.959140308237306
-0.3227000000000001,-29.001581647233255
-0.3237,-29.100611438223805
-0.3247000000000001,-29.14305277721976
-0.3257,-29.18549411621571
-0.3267000000000001,-29.31281813320356
-0.3277,-29.39770081119546
-0.3287000000000001,-29.581613280177915
-0.3297,-29.708937297165768
-0.3307000000000001,-29.878702653149578
-0.3317,-30.04846800913338
-0.3327000000000001,-30.189939139119886
-0.3337,-30.359704495103685
-0.3347000000000001,-30.487028512091538
-0.3357,-30.614352529079397
-0.3367000000000001,-30.7558236590659
-0.3377,-30.8407063370578
-0.3387000000000001,-30.968030354045652
-0.3397,-31.095354371033505
-0.3407000000000001,-31.23682550102001
-0.3417,-31.40659085700382
-0.3427000000000001,-31.618797551983565
-0.3437,-31.84515135996197
-0.3447000000000001,-32.05735805494172
-0.3457,-32.283711862920136
-0.3467000000000001,-32.49591855789989
-0.3477,-32.66568391388369
-0.3487000000000001,-32.84959638286615
-0.3497,-33.06180307784591
-0.3507000000000001,-33.288156885824314
-0.3517,-33.50036358080407
-0.3527000000000001,-33.712570275783825
-0.3537,-33.98136542275818
-0.3547000000000001,-34.236013456733886
-0.3557,-34.50480860370825
-0.35670000000000013,-34.8018979766799
-0.3577,-35.15557580164616
-0.35870000000000013,-35.50925362661242
-0.3597,-35.806342999584075
-0.36070000000000013,-36.16002082455034
-0.3617,-36.47125731052064
-0.3626999999999999,-36.81078802248826
-0.3637,-37.164465847454515
-0.3646999999999999,-37.51814367242077
-0.3657,-37.85767438438838
-0.3666999999999999,-38.211352209354644
-0.3677,-38.607471373316855
-0.3686999999999999,-39.08847321527096
-0.36970000000000003,-39.56947505722508
-0.3706999999999999,-40.03632978618054
-0.37170000000000003,-40.616361419125205
-0.3726999999999999,-41.139804600075266
-0.37370000000000003,-41.74813045901723
-0.3746999999999999,-42.31401497896325
-0.37570000000000003,-42.87989949890926
-0.3766999999999999,-43.48822535785123
-0.37770000000000004,-44.138992555789144
-0.3786999999999999,-44.84634820572166
-0.37970000000000004,-45.624439420647434
-0.3806999999999999,-46.41667774857186
-0.38170000000000004,-47.27965164148953
-0.38269999999999993,-48.1992139864018
-0.38370000000000004,-49.118776331314066
-0.38469999999999993,-50.12322135421825
-0.38570000000000004,-51.21254905511432
-0.38669999999999993,-51.46719708909004
-0.38570000000000004,-50.64666453516831
-0.38469999999999993,-50.1656626932142
-0.38370000000000004,-49.81198486824794
-0.38269999999999993,-49.59977817326819
-0.38170000000000004,-49.41586570428573
-0.3806999999999999,-49.28854168729788
-0.37970000000000004,-49.16121767031002
-0.3786999999999999,-49.076334992318124
-0.37770000000000004,-49.03389365332217
-0.3766999999999999,-48.97730520132757
-0.37570000000000003,-48.93486386233162
-0.3746999999999999,-48.89242252333566
-0.37370000000000003,-48.89242252333566
-0.3726999999999999,-48.80753984534376
-0.37170000000000003,-48.72265716735186
-0.3706999999999999,-48.63777448935996
-0.36970000000000003,-48.45386202037751
-0.3686999999999999,-48.32653800338966
-0.3677,-48.114331308409895
-0.3666999999999999,-47.93041883942744
-0.3657,-47.71821214444768
-0.3646999999999999,-47.54844678846388
-0.3637,-47.36453431948143
-0.3626999999999999,-47.19476896349763
-0.3617,-46.982562268517874
-0.36070000000000013,-46.713767121543505
-0.3597,-46.45911908756781
-0.35870000000000013,-46.147882601597495
-0.3577,-45.85079322862584
-0.35670000000000013,-45.53955674265553
-0.3557,-45.143437578693316
-0.3547000000000001,-44.80390686672572
-0.3537,-44.45022904175945
-0.3527000000000001,-44.096551216793195
-0.3517,-43.79946184382153
-0.3507000000000001,-43.44578401885527
-0.3497,-43.09210619388902
-0.3487000000000001,-42.752575481921404
-0.3477,-42.39889765695515
-0.3467000000000001,-42.00277849299294
-0.3457,-41.606659329030734
-0.3447000000000001,-41.139804600075266
-0.3437,-40.701244097117105
-0.3427000000000001,-40.220242255162994
-0.3417,-39.739240413208876
-0.3407000000000001,-39.258238571254765
-0.3397,-38.777236729300654
-0.3387000000000001,-38.29623488734655
-0.3377,-37.85767438438838
-0.3367000000000001,-37.41911388143023
-0.3357,-36.99470049147071
-0.3347000000000001,-36.55613998851254
-0.3337,-36.11757948555439
-0.3327000000000001,-35.679018982596226
-0.3317,-35.198017140642115
-0.3307000000000001,-34.717015298688004
-0.3297,-34.193572117737936
-0.3287000000000001,-33.670128936787876
-0.3277,-33.10424441684186
-0.3267000000000001,-32.58080123589179
-0.3257,-32.05735805494172
-0.3247000000000001,-31.57635621298762
-0.3237,-31.095354371033505
-0.3227000000000001,-30.614352529079397
-0.3217,-30.10505646112798
-0.3207000000000001,-29.62405461917387
-0.3197,-29.14305277721976
-0.3187000000000001,-28.662050935265643
-0.3177,-28.13860775431558
-0.3167000000000001,-27.615164573365515
-0.3157,-27.049280053419505
-0.3147000000000001,-26.525836872469437
-0.3137,-26.002393691519377
-0.3127000000000001,-25.478950510569312
-0.3117,-24.997948668615198
-0.3107000000000001,-24.516946826661083
-0.3097,-24.035944984706973
-0.3087000000000001,-23.55494314275286
-0.3077,-23.1163826397947
-0.3067000000000001,-22.63538079784059
-0.30569999999999997,-22.111937616890522
-0.3047000000000001,-21.58849443594046
-0.30369999999999997,-21.107492593986347
-0.3027000000000001,-20.584049413036283
-0.30169999999999997,-20.10304757108217
-0.3007000000000001,-19.579604390132108
-0.29969999999999997,-19.112749661176647
-0.2987000000000001,-18.631747819222536
-0.29769999999999996,-18.15074597726842
-0.2967000000000001,-17.71218547431026
-0.29569999999999996,-17.2736249713521
-0.2947000000000001,-16.877505807389888
-0.29369999999999996,-16.438945304431726
-0.29270000000000007,-15.972090575476265
-0.29169999999999996,-15.533530072518102
-0.29070000000000007,-15.094969569559943
-0.28969999999999996,-14.61396772760583
-0.28870000000000007,-14.13438059695158
-0.28769999999999996,-13.654793466297335
-0.28670000000000007,-13.217647674639037
-0.28569999999999995,-12.781916594280606
-0.28470000000000006,-12.390041564217992
-0.28369999999999995,-11.996751822855511
-0.28270000000000006,-11.604876792792895
-0.28169999999999995,-11.211587051430415
-0.28070000000000006,-10.819712021367803
-0.27969999999999995,-10.42642228000532
-0.27870000000000006,-10.034547249942705
-0.27769999999999995,-9.641257508580225
-0.27670000000000006,-9.24938247851761
-0.27569999999999995,-8.812236686859313
-0.27470000000000006,-8.4203616567967
-0.27369999999999994,-8.027071915434218
-0.27270000000000005,-7.635196885371603
-0.27169999999999994,-7.28576319430494
-0.27070000000000005,-6.93774421453814
-0.26969999999999994,-6.588310523471475
-0.26870000000000005,-6.282732882700628
