Potential V vs RHE, Current mA cm-2
0.05339999999999995,-0.03758887923741403
0.05239999999999995,-0.039060178989273664
0.051399999999999946,-0.03965435773521698
0.050399999999999945,-0.04012121246417244
0.049399999999999944,-0.040545625854131954
0.04839999999999994,-0.04098418635709011
0.04739999999999994,-0.04139445263405097
0.04639999999999994,-0.04176227757201588
0.04539999999999994,-0.04217254384897674
0.04439999999999994,-0.042568663012938955
0.04339999999999994,-0.04297892928989981
0.04239999999999994,-0.04336090134086337
0.04139999999999994,-0.04372872627882829
0.040399999999999936,-0.04411069832979184
0.039399999999999935,-0.0445209646067527
0.038399999999999934,-0.04498781933570817
0.03739999999999993,-0.04535564427367308
0.03639999999999993,-0.04573761632463663
0.03539999999999993,-0.04610544126260154
0.03439999999999993,-0.04650156042656376
0.03339999999999993,-0.04692597381652327
0.03239999999999993,-0.04732209298048548
0.03139999999999993,-0.04773235925744633
0.030399999999999927,-0.04810018419541125
0.029399999999999926,-0.04852459758537076
0.028399999999999925,-0.04896315808832892
0.027399999999999924,-0.04934513013929248
0.026399999999999924,-0.049741249303254687
0.025399999999999923,-0.0501373684672169
0.024399999999999922,-0.05054763474417776
0.02339999999999992,-0.05100034236013457
0.02239999999999992,-0.051410608637095435
0.02139999999999992,-0.05182087491405629
0.020399999999999918,-0.052231141191017155
0.019399999999999917,-0.05265555458097666
0.018399999999999916,-0.05310826219693348
0.017399999999999916,-0.05353267558689299
0.016399999999999915,-0.05391464763785655
0.015399999999999914,-0.054367355253813365
0.014399999999999913,-0.05480591575677152
0.013399999999999912,-0.05528691759872562
0.012399999999999911,-0.05569718387568649
0.01139999999999991,-0.05610745015264735
0.01039999999999991,-0.056546010655605515
0.009399999999999908,-0.056998718271562325
0.008399999999999908,-0.057451425887519135
0.007399999999999907,-0.057904133503475945
0.006399999999999906,-0.058328546893435466
0.005399999999999905,-0.058752960283394974
0.004399999999999904,-0.05919152078635314
0.003399999999999903,-0.0596300812893113
0.002399999999999902,-0.06006864179226945
0.0013999999999999013,-0.06049305518222897
0.00039999999999990044,-0.060959909911184426
-0.0006000000000001005,-0.061426764640139894
-0.0016000000000001013,-0.061879472256096704
-0.0026000000000001022,-0.06234632698505217
-0.003600000000000103,-0.06279903460100898
-0.004600000000000104,-0.06325174221696579
-0.005600000000000105,-0.06373274405891989
-0.006600000000000106,-0.06424204012687132
-0.007600000000000107,-0.06469474774282813
-0.008600000000000108,-0.06516160247178358
-0.009600000000000108,-0.06560016297474175
-0.01060000000000011,-0.06608116481669586
-0.01160000000000011,-0.06656216665864997
-0.012600000000000111,-0.06704316850060409
-0.013600000000000112,-0.06748172900356225
-0.014600000000000113,-0.06796273084551636
-0.015600000000000114,-0.06844373268747048
-0.016600000000000115,-0.06893888164242323
-0.017600000000000116,-0.06939158925838004
-0.018600000000000116,-0.06985844398733551
-0.019600000000000117,-0.07033944582928962
-0.020600000000000118,-0.07080630055824509
-0.02160000000000012,-0.07131559662619649
-0.02260000000000012,-0.0717965984681506
-0.02360000000000012,-0.07226345319710607
-0.024600000000000122,-0.07273030792606154
-0.025600000000000123,-0.07319716265501701
-0.026600000000000124,-0.07372060583596705
-0.027600000000000124,-0.07417331345192386
-0.028600000000000125,-0.07462602106788069
-0.029600000000000126,-0.0751070229098348
-0.030600000000000127,-0.07558802475178891
-0.03160000000000013,-0.07609732081974033
-0.03260000000000013,-0.07656417554869578
-0.03360000000000013,-0.07701688316465259
-0.03460000000000002,-0.07748373789360806
-0.03560000000000002,-0.07799303396155947
-0.03660000000000002,-0.07850233002951089
-0.03760000000000002,-0.0789550376454677
-0.03860000000000002,-0.07940774526142451
-0.039600000000000024,-0.07987459999037998
-0.040600000000000025,-0.08034145471933543
-0.041600000000000026,-0.08083660367428819
-0.04260000000000003,-0.08130345840324366
-0.04360000000000003,-0.08177031313219911
-0.04460000000000003,-0.08220887363515728
-0.04560000000000003,-0.08271816970310869
-0.04660000000000003,-0.08318502443206416
-0.04760000000000003,-0.08359529070902501
-0.04860000000000003,-0.08401970409898453
-0.04960000000000003,-0.0844582646019427
-0.050600000000000034,-0.0849109722178995
-0.051600000000000035,-0.0854202682858509
-0.052600000000000036,-0.08584468167581043
-0.053600000000000037,-0.08626909506576994
-0.05460000000000004,-0.08672180268172675
-0.05560000000000004,-0.08714621607168627
-0.05660000000000004,-0.08759892368764308
-0.05760000000000004,-0.08799504285160528
-0.05860000000000004,-0.08840530912856613
-0.05960000000000004,-0.088815575405527
-0.06060000000000004,-0.08923998879548652
-0.061600000000000044,-0.08970684352444197
-0.06260000000000004,-0.09011710980140283
-0.06360000000000005,-0.09052737607836371
-0.06460000000000005,-0.09093764235532456
-0.06560000000000005,-0.09136205574528407
-0.06660000000000005,-0.09178646913524359
-0.06760000000000005,-0.09218258829920578
-0.06860000000000005,-0.09255041323717071
-0.06960000000000005,-0.0929465324011329
-0.07060000000000005,-0.09332850445209646
-0.07160000000000005,-0.09373877072905733
-0.07260000000000005,-0.09413488989301955
-0.07360000000000005,-0.09450271483098445
-0.07460000000000006,-0.09485639265595071
-0.07560000000000006,-0.09522421759391562
-0.07660000000000006,-0.09560618964487919
-0.07760000000000006,-0.09595986746984543
-0.07860000000000006,-0.0962852510688144
-0.07960000000000006,-0.09663892889378066
-0.08060000000000006,-0.09699260671874692
-0.08160000000000006,-0.09733213743071452
-0.08260000000000006,-0.09764337391668483
-0.08360000000000006,-0.09796875751565379
-0.08460000000000006,-0.09826584688862545
-0.08560000000000006,-0.0985912304875944
-0.08660000000000007,-0.09893076119956201
-0.08760000000000007,-0.09921370345953502
-0.08860000000000007,-0.09949664571950805
-0.08960000000000007,-0.09980788220547833
-0.09060000000000007,-0.10009082446545134
-0.09160000000000007,-0.10040206095142165
-0.09260000000000007,-0.10064256187239871
-0.09360000000000007,-0.10092550413237171
-0.09460000000000007,-0.10116600505334877
-0.09560000000000007,-0.10142065308732448
-0.09660000000000007,-0.10170359534729749
-0.09760000000000008,-0.1019299491552759
-0.09860000000000008,-0.1021563029632543
-0.09960000000000008,-0.1023826567712327
-0.10060000000000008,-0.10259486346621245
-0.10160000000000008,-0.10284951150018817
-0.10260000000000008,-0.10306171819516792
-0.10360000000000008,-0.10324563066415038
-0.10460000000000008,-0.10344369024613147
-0.10560000000000008,-0.10362760271511394
-0.10660000000000008,-0.1038398094100937
-0.10760000000000008,-0.1040378689920748
-0.10860000000000009,-0.1041793401220613
-0.10960000000000009,-0.10433495836504646
-0.11060000000000009,-0.10450472372103026
-0.11160000000000009,-0.10466034196401541
-0.11260000000000009,-0.10483010731999923
-0.11360000000000009,-0.10495743133698707
-0.11460000000000009,-0.10512719669297087
-0.11560000000000009,-0.10525452070995873
-0.11660000000000009,-0.10539599183994523
-0.1176000000000001,-0.10552331585693309
-0.1186000000000001,-0.105608198534925
-0.1196000000000001,-0.1057213754389142
-0.1206000000000001,-0.10582040522990475
-0.1216000000000001,-0.1059477292468926
-0.1226000000000001,-0.1060326119248845
-0.1236000000000001,-0.10610334748987776
-0.1246000000000001,-0.10617408305487101
-0.1256000000000001,-0.10627311284586156
-0.1266000000000001,-0.10635799552385346
-0.1276000000000001,-0.10641458397584806
-0.1286000000000001,-0.10647117242784265
-0.1296000000000001,-0.10648531954084133
-0.1306000000000001,-0.10655605510583457
-0.1316000000000001,-0.10661264355782916
-0.1326000000000001,-0.10664093778382645
-0.1336000000000001,-0.10664093778382645
-0.1346000000000001,-0.10668337912282241
-0.1356000000000001,-0.10669752623582107
-0.1366000000000001,-0.10675411468781566
-0.1376000000000001,-0.10675411468781566
-0.1386000000000001,-0.10673996757481702
-0.1396000000000001,-0.10675411468781566
-0.1406000000000001,-0.10675411468781566
-0.14160000000000011,-0.10676826180081432
-0.14260000000000012,-0.10675411468781566
-0.14360000000000012,-0.10672582046181836
-0.14460000000000012,-0.10672582046181836
-0.14560000000000012,-0.10668337912282241
-0.14660000000000012,-0.10666923200982377
-0.14760000000000012,-0.10665508489682511
-0.14860000000000012,-0.10658434933183186
-0.14960000000000012,-0.1065702022188332
-0.15060000000000012,-0.10651361376683861
-0.15160000000000012,-0.10649946665383996
-0.15260000000000012,-0.10645702531484401
-0.15360000000000013,-0.10638628974985076
-0.15460000000000013,-0.10632970129785616
-0.15560000000000013,-0.10628725995886021
-0.15660000000000013,-0.10623067150686559
-0.15760000000000013,-0.10617408305487101
-0.15860000000000013,-0.10610334748987776
-0.15960000000000002,-0.10601846481188584
-0.16060000000000002,-0.1059477292468926
-0.16160000000000002,-0.105891140794898
-0.16260000000000002,-0.1058345523429034
-0.16360000000000002,-0.10573552255191283
-0.16460000000000002,-0.1056364927609223
-0.16560000000000002,-0.10559405142192634
-0.16660000000000003,-0.10557990430892769
-0.16760000000000003,-0.10543843317894118
-0.16860000000000003,-0.10533940338795064
-0.16960000000000003,-0.10524037359696008
-0.17060000000000003,-0.10514134380596953
-0.17160000000000003,-0.10507060824097628
-0.17260000000000003,-0.10497157844998573
-0.17360000000000003,-0.10485840154599652
-0.17460000000000003,-0.10477351886800461
-0.17560000000000003,-0.10464619485101677
-0.17660000000000003,-0.10458960639902216
-0.17760000000000004,-0.10447642949503295
-0.17860000000000004,-0.10436325259104375
-0.17960000000000004,-0.10425007568705455
-0.18060000000000004,-0.10413689878306535
-0.18160000000000004,-0.10408031033107075
-0.18260000000000004,-0.10396713342708154
-0.18360000000000004,-0.10382566229709504
-0.18460000000000004,-0.10372663250610449
-0.18560000000000004,-0.10362760271511394
-0.18660000000000004,-0.10352857292412339
-0.18760000000000004,-0.10342954313313284
-0.18860000000000005,-0.10328807200314633
-0.18960000000000005,-0.10318904221215577
-0.19060000000000005,-0.10306171819516792
-0.19160000000000005,-0.10299098263017467
-0.19260000000000005,-0.10290609995218276
-0.19360000000000005,-0.10276462882219627
-0.19460000000000005,-0.10265145191820706
-0.19560000000000005,-0.10255242212721652
-0.19660000000000005,-0.10245339233622595
-0.19760000000000005,-0.10236850965823405
-0.19860000000000005,-0.1022411856412462
-0.19960000000000006,-0.10211386162425835
-0.20060000000000006,-0.1020148318332678
-0.20160000000000006,-0.1019299491552759
-0.20260000000000006,-0.10181677225128669
-0.20360000000000006,-0.10170359534729749
-0.20460000000000006,-0.10157627133030964
-0.20560000000000006,-0.10149138865231773
-0.20660000000000006,-0.10139235886132718
-0.20760000000000006,-0.10129332907033663
-0.20860000000000006,-0.10119429927934608
-0.20960000000000006,-0.10112356371435283
-0.21060000000000006,-0.10102453392336228
-0.21160000000000007,-0.10091135701937308
-0.21260000000000007,-0.10078403300238521
-0.21360000000000007,-0.10064256187239871
-0.21460000000000007,-0.10052938496840952
-0.21560000000000007,-0.1004727965164149
-0.21660000000000007,-0.10048694362941356
-0.21760000000000007,-0.1004445022904176
-0.21860000000000007,-0.1002464427084365
-0.21960000000000007,-0.10010497157845
-0.22060000000000007,-0.09996350044846349
-0.22160000000000007,-0.09986447065747293
-0.22260000000000008,-0.09980788220547833
-0.22360000000000008,-0.09973714664048508
-0.22460000000000008,-0.09968055818849049
-0.22560000000000008,-0.0995673812845013
-0.22660000000000008,-0.09946835149351073
-0.22760000000000008,-0.09935517458952153
-0.22860000000000008,-0.09919955634653636
-0.22960000000000008,-0.09912882078154311
-0.23060000000000008,-0.09904393810355122
-0.23160000000000008,-0.09900149676455527
-0.23260000000000008,-0.09895905542555931
-0.23360000000000009,-0.09884587852157012
-0.2346000000000001,-0.09876099584357821
-0.2356000000000001,-0.09864781893958902
-0.2366000000000001,-0.09854878914859845
-0.2376000000000001,-0.0984780535836052
-0.2386000000000001,-0.09837902379261465
-0.2396000000000001,-0.0983082882276214
-0.2406000000000001,-0.0982516997756268
-0.2416000000000001,-0.0981951113236322
-0.2426000000000001,-0.09815266998463625
-0.2436000000000001,-0.09802534596764839
-0.2446000000000001,-0.09792631617665784
-0.2456000000000001,-0.09785558061166459
-0.2466000000000001,-0.09781313927266864
-0.2476000000000001,-0.0977424037076754
-0.2486000000000001,-0.09768581525568078
-0.2496000000000001,-0.09762922680368619
-0.2506000000000001,-0.09754434412569428
-0.2516000000000001,-0.09748775567369967
-0.2526000000000001,-0.09743116722170508
-0.2536000000000001,-0.09733213743071452
-0.2546000000000001,-0.09728969609171857
-0.2556000000000001,-0.09721896052672531
-0.2566000000000001,-0.09719066630072802
-0.2576000000000001,-0.09714822496173206
-0.2586000000000001,-0.09706334228374017
-0.2596000000000001,-0.09699260671874692
-0.2606000000000001,-0.09692187115375367
-0.2616000000000001,-0.09687942981475771
-0.2626000000000001,-0.09682284136276312
-0.2636000000000001,-0.09675210579776986
-0.2646000000000001,-0.09669551734577525
-0.2656000000000001,-0.09663892889378066
-0.2666000000000001,-0.0965964875547847
-0.2676000000000001,-0.09655404621578875
-0.2686000000000001,-0.09646916353779686
-0.2696000000000001,-0.09641257508580224
-0.2706000000000001,-0.09635598663380765
-0.2716000000000001,-0.09631354529481169
-0.2726000000000001,-0.0962852510688144
-0.2736000000000001,-0.09621451550382115
-0.2746000000000001,-0.09617207416482519
-0.2756000000000001,-0.09610133859983194
-0.2766000000000001,-0.096058897260836
-0.2776000000000001,-0.09601645592184005
-0.2786000000000001,-0.09594572035684679
-0.2796000000000001,-0.09588913190485218
-0.2806000000000001,-0.09583254345285759
-0.28160000000000013,-0.09583254345285759
-0.28260000000000013,-0.09577595500086299
-0.28360000000000013,-0.0957193665488684
-0.2846,-0.09563448387087647
-0.2856,-0.09556374830588323
-0.2866,-0.09556374830588323
-0.2876,-0.09553545407988592
-0.2886,-0.09546471851489266
-0.2896,-0.09542227717589671
-0.2906,-0.09536568872390214
-0.2916,-0.09532324738490616
-0.2926,-0.09529495315890889
-0.2936,-0.09522421759391562
-0.29460000000000003,-0.09518177625491966
-0.29560000000000003,-0.0951110406899264
-0.29660000000000003,-0.09509689357692777
-0.29760000000000003,-0.09505445223793182
-0.29860000000000003,-0.0949978637859372
-0.29960000000000003,-0.09492712822094396
-0.30060000000000003,-0.09487053976894937
-0.30160000000000003,-0.09484224554295206
-0.30260000000000004,-0.09481395131695476
-0.30360000000000004,-0.09472906863896285
-0.30460000000000004,-0.09470077441296555
-0.30560000000000004,-0.09461589173497365
-0.30660000000000004,-0.0946300388479723
-0.30760000000000004,-0.09457345039597771
-0.30860000000000004,-0.09447442060498715
-0.30960000000000004,-0.09441783215299256
-0.31060000000000004,-0.09436124370099794
-0.31160000000000004,-0.09433294947500065
-0.31260000000000004,-0.09431880236200199
-0.31360000000000005,-0.09423391968401008
-0.31460000000000005,-0.0941773312320155
-0.31560000000000005,-0.09412074278002087
-0.31660000000000005,-0.09407830144102494
-0.31760000000000005,-0.094035860102029
-0.31860000000000005,-0.09396512453703573
-0.31960000000000005,-0.0939226831980398
-0.32060000000000005,-0.09388024185904384
-0.32160000000000005,-0.09382365340704923
-0.32260000000000005,-0.09379535918105193
-0.32360000000000005,-0.09371047650306003
-0.32460000000000006,-0.09362559382506812
-0.32560000000000006,-0.09358315248607219
-0.32660000000000006,-0.09352656403407757
-0.32760000000000006,-0.09348412269508162
-0.32860000000000006,-0.09341338713008837
-0.32960000000000006,-0.09334265156509512
-0.33060000000000006,-0.09327191600010187
-0.33160000000000006,-0.09325776888710322
-0.33260000000000006,-0.09320118043510862
-0.33360000000000006,-0.09311629775711672
-0.33460000000000006,-0.09305970930512211
-0.33560000000000006,-0.09298897374012885
-0.33660000000000007,-0.0929748266271302
-0.33760000000000007,-0.09290409106213696
-0.33860000000000007,-0.09283335549714371
-0.33960000000000007,-0.0928050612711464
-0.34060000000000007,-0.09270603148015585
-0.34160000000000007,-0.09269188436715721
-0.34260000000000007,-0.09264944302816126
-0.34360000000000007,-0.09256456035016934
-0.3446000000000001,-0.09250797189817477
-0.3456000000000001,-0.09245138344618015
-0.3466000000000001,-0.09242308922018284
-0.34759999999999996,-0.09239479499418554
-0.3486000000000001,-0.09229576520319499
-0.34959999999999997,-0.09225332386419903
-0.3506000000000001,-0.09218258829920578
-0.35159999999999997,-0.09216844118620715
-0.3526000000000001,-0.09214014696020983
-0.35359999999999997,-0.09206941139521659
-0.3546000000000001,-0.09202697005622064
-0.35559999999999997,-0.09197038160422603
-0.3566000000000001,-0.09192794026523009
-0.3576,-0.09191379315223143
-0.3586000000000001,-0.09187135181323548
-0.3596,-0.09181476336124088
-0.3606000000000001,-0.09177232202224493
-0.3616,-0.09174402779624763
-0.3626000000000001,-0.09171573357025031
-0.3636,-0.09167329223125438
-0.3646000000000001,-0.09164499800525706
-0.3656,-0.09158840955326249
-0.3666000000000001,-0.09158840955326249
-0.3676,-0.09156011532726518
-0.3686000000000001,-0.09153182110126787
-0.3696,-0.09150352687527057
-0.3706000000000001,-0.09148937976227192
-0.3716,-0.09150352687527057
-0.3726000000000001,-0.09144693842327598
-0.3736,-0.09143279131027732
-0.3746000000000001,-0.09139034997128137
-0.3756,-0.09136205574528407
-0.3766000000000001,-0.09139034997128137
-0.3776,-0.09139034997128137
-0.3786000000000001,-0.09134790863228542
-0.3796,-0.09136205574528407
-0.3806000000000001,-0.09131961440628812
-0.3816,-0.09133376151928675
-0.3826000000000001,-0.09134790863228542
-0.3836,-0.09133376151928675
-0.3846000000000001,-0.09133376151928675
-0.3856,-0.09131961440628812
-0.3866000000000001,-0.09134790863228542
-0.3876,-0.09137620285828273
-0.3886000000000001,-0.09134790863228542
-0.3896,-0.09136205574528407
-0.3906000000000001,-0.09139034997128137
-0.3916,-0.09141864419727867
-0.3926000000000001,-0.09144693842327598
-0.3936,-0.09144693842327598
-0.3946000000000001,-0.09148937976227192
-0.3956,-0.09150352687527057
-0.3966000000000001,-0.09154596821426653
-0.3976,-0.09158840955326249
-0.3986000000000001,-0.09160255666626112
-0.3996,-0.09163085089225843
-0.4006000000000001,-0.09164499800525706
-0.4016,-0.09171573357025031
-0.4026000000000001,-0.09178646913524359
-0.4036,-0.09182891047423952
-0.4046000000000001,-0.09184305758723818
-0.4056,-0.09189964603923279
-0.40660000000000013,-0.09197038160422603
-0.4076,-0.09202697005622064
-0.40860000000000013,-0.09208355850821524
-0.4096,-0.09212599984721119
-0.41060000000000013,-0.09218258829920578
-0.4116,-0.09228161809019635
-0.41260000000000013,-0.09233820654219095
-0.4136,-0.0923806478811869
-0.41460000000000014,-0.09245138344618015
-0.4156,-0.0925221190111734
-0.41660000000000014,-0.09262114880216396
-0.4176,-0.09269188436715721
-0.41860000000000014,-0.09276261993215046
-0.41960000000000003,-0.09283335549714371
-0.42060000000000014,-0.09290409106213696
-0.42160000000000003,-0.09301726796612615
-0.42260000000000014,-0.09311629775711672
-0.42360000000000003,-0.09317288620911131
-0.42460000000000014,-0.09325776888710322
-0.42560000000000003,-0.09331435733909782
-0.42660000000000015,-0.09339924001708971
-0.42760000000000004,-0.09351241692107892
-0.42860000000000015,-0.09358315248607219
-0.42960000000000004,-0.09363974093806678
-0.43060000000000015,-0.09373877072905733
-0.43160000000000004,-0.09385194763304654
-0.43260000000000015,-0.09395097742403709
-0.43360000000000004,-0.09400756587603168
-0.43460000000000015,-0.09410659566702224
-0.43560000000000004,-0.0941773312320155
-0.43660000000000015,-0.09427636102300604
