Potential V vs RHE, Current mA cm-2
0.013299999999999867,29.878702653149578
0.012299999999999978,28.039577963325023
0.011299999999999866,26.257041725495082
0.010299999999999976,24.37547569667458
0.009299999999999864,22.508056780852733
0.008299999999999974,20.711373430024135
0.007299999999999862,18.843954514202288
0.006299999999999972,17.089712502369647
0.00529999999999986,15.307176264539699
0.0042999999999999705,13.562837231806107
0.0032999999999998586,11.992507688955916
0.0022999999999999687,10.422178146105725
0.0012999999999998568,8.89570465355135
0.00029999999999996696,7.413087211292793
-0.000700000000000145,5.9729111080301855
-0.0017000000000000348,4.534149716067443
-0.0027000000000001467,3.0515322738088844
-0.0037000000000000366,1.5250587812545096
-0.0047000000000001485,0.04140859974704963
-0.005700000000000038,-1.5293029151541047
-0.00670000000000015,-3.1420737970002466
-0.00770000000000004,-4.668547289554621
-0.008700000000000152,-6.282732882700628
-0.009700000000000042,-7.7653503249591855
-0.010700000000000154,-9.293238528813426
-0.011700000000000044,-10.731999920776168
-0.012700000000000156,-12.040607873151327
-0.013700000000000045,-13.3930718758223
-0.014700000000000157,-14.741291744593681
-0.015700000000000047,-15.91550212348166
-0.01670000000000016,-17.2736249713521
-0.01770000000000005,-18.589306480226583
-0.01870000000000016,-19.890840876102416
-0.01970000000000005,-21.291405062968803
-0.020700000000000163,-22.67782213683654
-0.021700000000000053,-24.16326900169483
-0.022700000000000164,-25.60627452755716
-0.023700000000000054,-26.9643973754276
-0.024700000000000166,-28.350814449295335
-0.025700000000000056,-29.751378636161718
-0.026700000000000168,-31.010471693041605
-0.027700000000000058,-32.24127052392419
-0.02870000000000017,-33.45792224180811
-0.02970000000000006,-34.632132620696105
-0.03070000000000017,-35.806342999584075
-0.03170000000000006,-36.99470049147071
-0.03270000000000017,-38.211352209354644
-0.03370000000000006,-39.42800392723857
-0.034700000000000175,-40.701244097117105
-0.035700000000000065,-42.00277849299294
-0.03670000000000018,-43.31846000186743
-0.03770000000000007,-44.66243573673921
-0.03870000000000018,-45.97811724561369
-0.03970000000000007,-47.27965164148953
-0.04070000000000018,-48.55289181136806
-0.04170000000000007,-49.76954352925199
-0.04270000000000018,-50.85887123014807
-0.04370000000000007,-52.033081609036046
-0.044700000000000184,-53.12240930993213
-0.045700000000000074,-54.1268543328363
-0.046700000000000186,-55.25862337272834
-0.047700000000000076,-56.404539525619015
-0.04870000000000019,-57.53630856551105
-0.04970000000000008,-58.75296028339497
-0.05070000000000019,-59.9696120012789
-0.05170000000000008,-61.242852171157445
-0.05270000000000019,-62.501945228037314
-0.05370000000000008,-63.732744058919906
-0.05470000000000019,-64.94939577680383
-0.05570000000000008,-66.20848883368372
-0.056700000000000195,-67.2978165345798
-0.057700000000000085,-68.38714423547587
-0.058700000000000196,-69.4906190493706
-0.059700000000000086,-70.53750541127073
-0.0607000000000002,-71.48536198218031
-0.06170000000000009,-72.57468968307639
-0.0627000000000002,-73.6781644969711
-0.06370000000000009,-74.76749219786718
-0.0647000000000002,-75.8992612377592
-0.06570000000000009,-77.11591295564315
-0.0667000000000002,-78.33256467352709
-0.0677000000000001,-79.56336350440966
-0.0687000000000002,-80.73757388329766
-0.0697000000000001,-81.95422560118158
-0.07070000000000021,-83.14258309306821
-0.0717000000000001,-84.18946945496833
-0.07270000000000021,-85.23635581686847
-0.0737000000000001,-86.22665372677399
-0.07470000000000021,-87.23109874967815
-0.0757000000000001,-88.15066109459043
-0.07670000000000021,-89.19754745649055
-0.0777000000000001,-90.28687515738663
-0.07870000000000021,-91.33376151928677
-0.0797000000000001,-92.42308922018285
-0.08070000000000022,-93.55485826007487
-0.0817000000000001,-94.7432157519615
-0.08270000000000022,-95.91742613084948
-0.08370000000000011,-97.13407784873341
-0.08470000000000022,-98.2234055496295
-0.08570000000000011,-99.41176304151614
-0.08670000000000022,-100.45864940341626
-0.08770000000000011,-101.44894731332178
-0.08870000000000022,-102.4958336752219
-0.08970000000000011,-103.45783735913014
-0.09070000000000022,-104.3773997040424
-0.09170000000000011,-105.46672740493848
-0.09270000000000023,-106.4287310888467
-0.09370000000000012,-107.47561745074682
-0.09470000000000023,-108.60738649063886
-0.09570000000000012,-109.73915553053091
-0.09670000000000023,-110.92751302241753
-0.09770000000000012,-112.14416474030146
-0.09870000000000023,-113.31837511918944
-0.09970000000000012,-114.45014415908147
-0.10070000000000023,-115.53947185997755
-0.10170000000000012,-116.58635822187767
-0.10270000000000024,-117.59080324478184
-0.10370000000000013,-118.55280692869007
-0.10470000000000024,-119.55725195159425
-0.10570000000000013,-120.43437295751058
-0.10670000000000024,-121.48125931941068
-0.10770000000000013,-122.48570434231489
-0.10870000000000024,-123.4760022522204
-0.10970000000000013,-124.62191840511109
-0.11070000000000024,-125.7536874450031
-0.11170000000000013,-126.88545648489513
-0.11270000000000002,-128.05966686378312
-0.11370000000000013,-129.19143590367514
-0.11470000000000002,-130.23832226557528
-0.11570000000000014,-131.37009130546733
-0.11670000000000003,-132.37453632837148
-0.11770000000000014,-133.37898135127566
-0.11870000000000003,-134.42586771317576
-0.11970000000000014,-135.387871397084
-0.12070000000000003,-136.30743374199628
-0.12170000000000014,-137.39676144289237
-0.12270000000000003,-138.3587651268006
-0.12370000000000014,-139.4056514887007
-0.12470000000000003,-140.45253785060083
-0.12570000000000014,-141.47112998650366
-0.12670000000000003,-142.6028990263957
-0.12770000000000015,-143.73466806628772
-0.12870000000000004,-144.86643710617977
-0.12970000000000015,-145.9982061460718
-0.13070000000000004,-147.1299751859638
-0.13170000000000015,-148.12027309586935
-0.13270000000000004,-149.1105710057749
-0.13370000000000015,-150.1008689156804
-0.13470000000000004,-151.09116682558593
-0.13570000000000015,-151.93999360550492
-0.13670000000000004,-152.93029151541046
-0.13770000000000016,-153.920589425316
-0.13870000000000005,-154.9108873352215
-0.13970000000000016,-156.04265637511355
-0.14070000000000005,-157.17442541500557
-0.14170000000000016,-158.3061944548976
-0.14270000000000005,-159.43796349478964
-0.14370000000000016,-160.5697325346817
-0.14470000000000005,-161.70150157457368
-0.14570000000000016,-162.8332706144657
-0.14670000000000005,-163.82356852437124
-0.14770000000000016,-164.81386643427678
-0.14870000000000005,-165.6626932141958
-0.14970000000000017,-166.65299112410133
-0.15070000000000006,-167.50181790402033
-0.15170000000000017,-168.49211581392586
-0.15270000000000006,-169.48241372383137
-0.15370000000000017,-170.47271163373694
-0.15470000000000006,-171.60448067362896
-0.15570000000000017,-172.73624971352098
-0.15670000000000006,-173.86801875341303
-0.15770000000000017,-174.99978779330505
-0.15870000000000006,-176.13155683319707
-0.15970000000000018,-177.2633258730891
-0.16070000000000007,-178.3950949129811
-0.16170000000000018,-179.38539282288664
-0.16270000000000007,-180.37569073279218
-0.16370000000000018,-181.36598864269772
-0.16470000000000007,-182.35628655260325
-0.16570000000000018,-183.20511333252225
-0.16670000000000007,-184.19541124242778
-0.16770000000000018,-185.0442380223468
-0.16870000000000007,-186.17600706223882
-0.16970000000000018,-187.30777610213087
-0.17070000000000007,-188.4395451420229
-0.17170000000000019,-189.71278531190143
-0.17270000000000008,-190.84455435179345
-0.1737000000000002,-192.11779452167198
-0.17470000000000008,-193.249563561564
-0.1757000000000002,-194.38133260145605
-0.17670000000000008,-195.37163051136156
-0.1777000000000002,-196.3619284212671
-0.17870000000000008,-197.35222633117263
-0.1797000000000002,-198.20105311109162
-0.18070000000000008,-199.04987989101065
-0.1817000000000002,-200.04017780091618
-0.18270000000000008,-201.03047571082172
-0.1837000000000002,-201.87930249074074
-0.1847000000000001,-203.01107153063276
-0.1857000000000002,-204.14284057052478
-0.1867000000000001,-205.13313848043032
-0.1877000000000002,-206.40637865030885
-0.1887000000000001,-207.5381476902009
-0.1897000000000002,-208.6699167300929
-0.1907000000000001,-209.8016857699849
-0.1917000000000001,-210.65051254990397
-0.19269999999999998,-211.782281589796
-0.1937000000000001,-212.77257949970152
-0.19469999999999998,-213.76287740960703
-0.1957000000000001,-214.61170418952605
-0.19669999999999999,-215.7434732294181
-0.1977000000000001,-216.73377113932364
-0.1987,-217.86554017921566
-0.1997000000000001,-218.85583808912116
-0.2007,-219.98760712901318
-0.2017000000000001,-221.11937616890526
-0.2027,-222.25114520879725
-0.2037000000000001,-223.38291424868927
-0.2047,-224.65615441856778
-0.2057000000000001,-225.64645232847332
-0.2067,-226.77822136836537
-0.2077000000000001,-227.7685192782709
-0.2087,-228.75881718817644
-0.2097000000000001,-229.74911509808197
-0.2107,-230.7394130079875
-0.2117000000000001,-231.729710917893
-0.2127,-232.72000882779852
-0.2137000000000001,-233.71030673770406
-0.2147,-234.84207577759608
-0.2157000000000001,-235.97384481748813
-0.2167,-236.96414272739366
-0.21770000000000012,-238.0959117672857
-0.2187,-239.2276808071777
-0.21970000000000012,-240.35944984706975
-0.2207,-241.49121888696175
-0.22170000000000012,-242.48151679686728
-0.2227,-243.47181470677282
-0.22370000000000012,-244.46211261667833
-0.2247,-245.45241052658386
-0.22570000000000012,-246.30123730650286
-0.2267,-247.2915352164084
-0.22770000000000012,-248.28183312631393
-0.22870000000000001,-249.2721310362195
-0.22970000000000013,-250.4039000761115
-0.23070000000000002,-251.53566911600356
-0.23170000000000013,-252.66743815589555
-0.23270000000000002,-253.94067832577412
-0.23370000000000013,-255.07244736566614
-0.23470000000000002,-256.20421640555816
-0.23570000000000013,-257.33598544545015
-0.23670000000000002,-258.32628335535566
-0.2376999999999999,-259.3165812652612
-0.23870000000000002,-260.16540804518024
-0.2396999999999999,-261.1557059550858
-0.24070000000000003,-262.0045327350048
-0.24169999999999991,-262.9948306449103
-0.24270000000000003,-264.12659968480233
-0.24369999999999992,-265.2583687246944
-0.24470000000000003,-266.3901377645864
-0.24569999999999992,-267.5219068044785
-0.24670000000000003,-268.65367584437047
-0.24769999999999992,-269.926916014249
-0.24870000000000003,-271.05868505414105
-0.24969999999999992,-272.1904540940331
-0.25070000000000003,-273.3222231339251
-0.2516999999999999,-274.31252104383066
-0.25270000000000004,-275.1613478237496
-0.2536999999999999,-276.15164573365513
-0.25470000000000004,-277.1419436435607
-0.2556999999999999,-277.9907704234797
-0.25670000000000004,-278.9810683333853
-0.25769999999999993,-279.97136624329073
-0.25870000000000004,-280.9616641531963
-0.25969999999999993,-282.09343319308834
-0.26070000000000004,-283.22520223298034
-0.26169999999999993,-284.35697127287233
-0.26270000000000004,-285.6302114427509
-0.26369999999999993,-286.76198048264297
-0.26470000000000005,-287.7522783925485
-0.26569999999999994,-288.8840474324405
-0.26670000000000005,-290.0158164723325
-0.26769999999999994,-290.86464325225154
-0.26870000000000005,-291.9964122921436
-0.26969999999999994,-292.8452390720626
-0.27070000000000005,-293.6940658519816
-0.27169999999999994,-294.8258348918736
-0.27270000000000005,-295.8161328017792
-0.27369999999999994,-296.80643071168464
-0.27470000000000006,-297.9381997515767
-0.27569999999999995,-299.06996879146874
-0.27670000000000006,-300.3432089613473
-0.27769999999999995,-301.6164491312258
-0.27870000000000006,-302.88968930110434
-0.27969999999999995,-304.0214583409964
-0.28070000000000006,-305.1532273808884
-0.28169999999999995,-306.28499642078043
-0.28270000000000006,-307.27529433068594
-0.28369999999999995,-308.2655922405915
-0.28470000000000006,-309.255890150497
-0.28569999999999995,-310.10471693041603
-0.28670000000000007,-311.09501484032154
-0.28769999999999996,-312.0853127502271
-0.28870000000000007,-313.0756106601326
-0.28969999999999996,-314.0659085700381
-0.29070000000000007,-315.3391487399167
-0.29169999999999996,-316.47091777980876
-0.29270000000000007,-317.60268681970075
-0.29369999999999996,-318.73445585959274
-0.2947000000000001,-319.8662248994848
-0.29569999999999996,-320.9979939393768
-0.2967000000000001,-321.98829184928235
-0.29769999999999996,-322.97858975918786
-0.2987000000000001,-324.1103587990799
-0.29969999999999997,-325.1006567089854
-0.3007000000000001,-325.94948348890443
-0.30169999999999997,-326.93978139880994
-0.3027000000000001,-328.071550438702
-0.30369999999999997,-329.20331947859404
-0.3047000000000001,-330.19361738849955
-0.30569999999999997,-331.3253864283916
-0.3067000000000001,-332.45715546828364
-0.3077,-333.7303956381621
-0.3087000000000001,-334.86216467805417
-0.3097,-335.9939337179462
-0.3107000000000001,-337.12570275783827
-0.3117,-338.1160006677438
-0.3127000000000001,-339.1062985776493
-0.3137,-340.2380676175413
-0.3147000000000001,-341.22836552744684
-0.3157,-341.9357211773794
-0.3167000000000001,-342.92601908728494
-0.3177,-344.057788127177
-0.3187000000000001,-345.1895571670689
-0.3197,-346.3213262069609
-0.3207000000000001,-347.59456637683957
-0.3217,-348.86780654671804
-0.3227000000000001,-350.1410467165966
-0.3237,-351.4142868864751
-0.3247000000000001,-352.54605592636716
-0.3257,-353.6778249662592
-0.3267000000000001,-354.8095940061512
-0.3277,-355.65842078607017
-0.3287000000000001,-356.64871869597573
-0.3297,-357.7804877358678
-0.3307000000000001,-358.7707856457733
-0.3317,-359.90255468566534
-0.3327000000000001,-360.89285259557084
-0.3337,-361.88315050547635
-0.3347000000000001,-362.87344841538186
-0.3357,-364.0052174552739
-0.3367000000000001,-365.2784576251525
-0.3377,-366.4102266650445
-0.3387000000000001,-367.683466834923
-0.3397,-368.8152358748151
-0.3407000000000001,-370.0884760446936
-0.3417,-371.0787739545991
-0.3427000000000001,-372.2105429944911
-0.3437,-373.2008409043967
-0.3447000000000001,-374.19113881430224
-0.3457,-375.0399655942212
-0.3467000000000001,-376.17173463411325
-0.3477,-377.3035036740053
-0.3487000000000001,-378.43527271389735
-0.3497,-379.7085128837758
-0.3507000000000001,-380.8402819236679
-0.3517,-382.11352209354635
-0.3527000000000001,-383.38676226342494
-0.3537,-384.6600024333035
-0.3547000000000001,-385.79177147319547
-0.3557,-386.9235405130875
-0.35670000000000013,-387.913838422993
-0.3577,-388.9041363328986
-0.35870000000000013,-389.8944342428041
-0.3597,-390.88473215270966
-0.36070000000000013,-391.87503006261517
-0.3617,-393.00679910250716
-0.3626999999999999,-394.1385681423992
-0.3637,-395.27033718229126
-0.3646999999999999,-396.5435773521698
-0.3657,-397.81681752204827
-0.3666999999999999,-398.9485865619403
-0.3677,-400.2218267318189
-0.3686999999999999,-401.6365380316839
-0.36970000000000003,-403.05124933154895
-0.3706999999999999,-404.46596063141396
-0.37170000000000003,-405.88067193127904
-0.3726999999999999,-407.0124409711711
-0.37370000000000003,-408.28568114104957
-0.3746999999999999,-409.4174501809416
-0.37570000000000003,-410.54921922083366
-0.3766999999999999,-411.6809882607257
-0.37770000000000004,-412.8127573006177
-0.3786999999999999,-413.94452634050975
-0.37970000000000004,-414.9348242504152
-0.3806999999999999,-416.06659329030725
-0.38170000000000004,-417.3398334601858
-0.38269999999999993,-418.47160250007784
-0.38370000000000004,-419.74484266995637
-0.38469999999999993,-421.15955396982145
-0.38570000000000004,-422.57426526968646
-0.38669999999999993,-422.4327941397
-0.38570000000000004,-419.74484266995637
-0.38469999999999993,-417.1983623301993
-0.38370000000000004,-414.65188199044223
-0.38269999999999993,-411.9639305206987
-0.38170000000000004,-409.4174501809416
-0.3806999999999999,-406.87096984118455
-0.37970000000000004,-404.46596063141396
-0.3786999999999999,-402.06095142164344
-0.37770000000000004,-399.79741334185934
-0.3766999999999999,-397.5338752620753
-0.37570000000000003,-395.27033718229126
-0.3746999999999999,-393.00679910250716
-0.37370000000000003,-390.60178989273663
-0.3726999999999999,-388.33825181295254
-0.37170000000000003,-385.933242603182
-0.3706999999999999,-383.38676226342494
-0.36970000000000003,-380.98175305365436
-0.3686999999999999,-378.5767438438838
-0.3677,-376.17173463411325
-0.3666999999999999,-373.76672542434267
-0.3657,-371.3617162145721
-0.3646999999999999,-369.09817813478804
-0.3637,-366.69316892501746
-0.3626999999999999,-364.28815971524693
-0.3617,-362.0246216354629
-0.36070000000000013,-359.61961242569237
-0.3597,-357.35607434590827
-0.35870000000000013,-354.95106513613774
-0.3577,-352.68752705635364
-0.35670000000000013,-350.2825178465831
-0.3557,-347.87750863681254
-0.3547000000000001,-345.6139705570285
-0.3537,-343.3504324772444
-0.3527000000000001,-340.94542326747387
-0.3517,-338.6818851876898
-0.3507000000000001,-336.4183471079057
-0.3497,-334.1548090281217
-0.3487000000000001,-332.03274207832413
-0.3477,-329.76920399854004
-0.3467000000000001,-327.6471370487425
-0.3457,-325.6665412289314
-0.3447000000000001,-323.5444742791339
-0.3437,-321.42240732933635
-0.3427000000000001,-319.4418115095253
-0.3417,-317.46121568971427
-0.3407000000000001,-315.19767760993017
-0.3397,-313.21708179011915
-0.3387000000000001,-310.95354371033505
-0.3377,-308.8314767605375
-0.3367000000000001,-306.56793868075346
-0.3357,-304.4458717309559
-0.3347000000000001,-302.4652759111449
-0.3337,-300.48468009133376
-0.3327000000000001,-298.50408427152274
-0.3317,-296.52348845171167
-0.3307000000000001,-294.68436376188714
-0.3297,-292.70376794207607
-0.3287000000000001,-290.86464325225154
-0.3277,-288.8840474324405
-0.3267000000000001,-286.76198048264297
-0.3257,-284.63991353284536
-0.3247000000000001,-282.51784658304786
-0.3237,-280.3957796332503
-0.3227000000000001,-278.1322415534662
-0.3217,-276.01017460366864
-0.3207000000000001,-274.0295787838576
-0.3197,-271.9075118340601
-0.3187000000000001,-269.926916014249
-0.3177,-267.94632019443793
-0.3167000000000001,-265.9657243746269
-0.3157,-264.12659968480233
-0.3147000000000001,-262.1460038649913
-0.3137,-260.16540804518024
-0.3127000000000001,-258.18481222536917
-0.3117,-256.20421640555816
-0.3107000000000001,-254.08214945576057
-0.3097,-252.10155363594956
-0.3087000000000001,-250.1209578161385
-0.3077,-247.85741973635444
-0.3067000000000001,-246.01829504652986
-0.30569999999999997,-243.8962280967323
-0.3047000000000001,-242.05710340690777
-0.30369999999999997,-240.21797871708318
-0.3027000000000001,-238.37885402725868
-0.30169999999999997,-236.53972933743412
-0.3007000000000001,-234.7006046476096
-0.29969999999999997,-232.86147995778504
-0.2987000000000001,-231.0223552679605
-0.29769999999999996,-229.18323057813595
-0.2967000000000001,-227.2026347583249
-0.29569999999999996,-225.22203893851383
-0.2947000000000001,-223.2414431187028
-0.29369999999999996,-221.26084729889175
-0.29270000000000007,-219.13878034909416
-0.29169999999999996,-217.15818452928315
-0.29070000000000007,-215.31905983945856
-0.28969999999999996,-213.33846401964755
-0.28870000000000007,-211.499339329823
-0.28769999999999996,-209.66021463999843
-0.28670000000000007,-207.96256108016038
-0.28569999999999995,-206.12343639033585
-0.28470000000000006,-204.42578283049778
-0.28369999999999995,-202.58665814067325
-0.28270000000000006,-200.7475334508487
-0.28169999999999995,-198.90840876102413
-0.28070000000000006,-196.92781294121312
-0.27969999999999995,-195.08868825138856
-0.27870000000000006,-193.249563561564
-0.27769999999999995,-191.12749661176645
-0.27670000000000006,-189.2883719219419
-0.27569999999999995,-187.44924723211736
-0.27470000000000006,-185.6101225422928
-0.27369999999999994,-183.77099785246824
-0.27270000000000005,-182.07334429263022
-0.27169999999999994,-180.37569073279218
-0.27070000000000005,-178.67803717295413
-0.26969999999999994,-176.8389124831296
-0.26870000000000005,-175.14125892329156
-0.26769999999999994,-173.44360536345349
