Dec. 17, 2024   03:58:23
Cyclic Voltammetry
File: c:/users/guazh/data/banditlqround7_x0exp667_r5/2024-12-16-exp677\exp677-2024-12-17t03_51_39-h2koh\exp677_cv_sr_300mvs_efin_-1400mv.bin
Data Source:  Experiment
Instrument Model:  CHI760E
Header: CV ran at 300 mVs
Note: 

Init E (V) = -1
High E (V) = -1
Low E (V) = -1.4
Final E (V) = -1
Init P/N = N
Scan Rate (V/s) = 0.3
Segment = 3
Sample Interval (V) = 0.001
Quiet Time (sec) = 2
Sensitivity (A/V) = 0.01
Comp R (ohm) = 1.1

Results:

Channel 1:
Segment 1:

Segment 2:

Segment 3:

Potential/V, Current/A

-1.000, -4.091e-3
-1.001, -3.934e-3
-1.002, -3.801e-3
-1.003, -3.693e-3
-1.004, -3.592e-3
-1.005, -3.475e-3
-1.006, -3.342e-3
-1.007, -3.225e-3
-1.008, -3.138e-3
-1.009, -3.052e-3
-1.010, -2.944e-3
-1.011, -2.821e-3
-1.012, -2.707e-3
-1.013, -2.627e-3
-1.014, -2.550e-3
-1.015, -2.448e-3
-1.016, -2.328e-3
-1.017, -2.220e-3
-1.018, -2.143e-3
-1.019, -2.069e-3
-1.020, -1.970e-3
-1.021, -1.862e-3
-1.022, -1.760e-3
-1.023, -1.686e-3
-1.024, -1.618e-3
-1.025, -1.526e-3
-1.026, -1.418e-3
-1.027, -1.322e-3
-1.028, -1.255e-3
-1.029, -1.193e-3
-1.030, -1.104e-3
-1.031, -1.002e-3
-1.032, -9.094e-4
-1.033, -8.446e-4
-1.034, -7.830e-4
-1.035, -6.997e-4
-1.036, -5.980e-4
-1.037, -5.116e-4
-1.038, -4.469e-4
-1.039, -3.883e-4
-1.040, -3.112e-4
-1.041, -2.095e-4
-1.042, -1.263e-4
-1.043, -6.459e-5
-1.044, -9.093e-6
-1.045, 6.798e-5
-1.046, 1.636e-4
-1.047, 2.468e-4
-1.048, 3.023e-4
-1.049, 3.547e-4
-1.050, 4.318e-4
-1.051, 5.243e-4
-1.052, 6.075e-4
-1.053, 6.599e-4
-1.054, 7.124e-4
-1.055, 7.833e-4
-1.056, 8.758e-4
-1.057, 9.559e-4
-1.058, 1.008e-3
-1.059, 1.058e-3
-1.060, 1.129e-3
-1.061, 1.218e-3
-1.062, 1.295e-3
-1.063, 1.347e-3
-1.064, 1.397e-3
-1.065, 1.465e-3
-1.066, 1.554e-3
-1.067, 1.631e-3
-1.068, 1.684e-3
-1.069, 1.727e-3
-1.070, 1.798e-3
-1.071, 1.884e-3
-1.072, 1.961e-3
-1.073, 2.013e-3
-1.074, 2.060e-3
-1.075, 2.128e-3
-1.076, 2.214e-3
-1.077, 2.288e-3
-1.078, 2.337e-3
-1.079, 2.383e-3
-1.080, 2.451e-3
-1.081, 2.538e-3
-1.082, 2.608e-3
-1.083, 2.658e-3
-1.084, 2.701e-3
-1.085, 2.769e-3
-1.086, 2.852e-3
-1.087, 2.926e-3
-1.088, 2.972e-3
-1.089, 3.015e-3
-1.090, 3.083e-3
-1.091, 3.170e-3
-1.092, 3.244e-3
-1.093, 3.293e-3
-1.094, 3.336e-3
-1.095, 3.404e-3
-1.096, 3.484e-3
-1.097, 3.558e-3
-1.098, 3.601e-3
-1.099, 3.644e-3
-1.100, 3.712e-3
-1.101, 3.795e-3
-1.102, 3.866e-3
-1.103, 3.916e-3
-1.104, 3.962e-3
-1.105, 4.030e-3
-1.106, 4.113e-3
-1.107, 4.184e-3
-1.108, 4.230e-3
-1.109, 4.267e-3
-1.110, 4.332e-3
-1.111, 4.412e-3
-1.112, 4.486e-3
-1.113, 4.535e-3
-1.114, 4.579e-3
-1.115, 4.646e-3
-1.116, 4.730e-3
-1.117, 4.801e-3
-1.118, 4.850e-3
-1.119, 4.893e-3
-1.120, 4.958e-3
-1.121, 5.041e-3
-1.122, 5.115e-3
-1.123, 5.161e-3
-1.124, 5.201e-3
-1.125, 5.269e-3
-1.126, 5.352e-3
-1.127, 5.426e-3
-1.128, 5.470e-3
-1.129, 5.510e-3
-1.130, 5.571e-3
-1.131, 5.658e-3
-1.132, 5.732e-3
-1.133, 5.775e-3
-1.134, 5.818e-3
-1.135, 5.883e-3
-1.136, 5.966e-3
-1.137, 6.040e-3
-1.138, 6.086e-3
-1.139, 6.129e-3
-1.140, 6.191e-3
-1.141, 6.274e-3
-1.142, 6.345e-3
-1.143, 6.391e-3
-1.144, 6.435e-3
-1.145, 6.499e-3
-1.146, 6.583e-3
-1.147, 6.654e-3
-1.148, 6.703e-3
-1.149, 6.746e-3
-1.150, 6.811e-3
-1.151, 6.894e-3
-1.152, 6.968e-3
-1.153, 7.014e-3
-1.154, 7.057e-3
-1.155, 7.122e-3
-1.156, 7.208e-3
-1.157, 7.282e-3
-1.158, 7.332e-3
-1.159, 7.375e-3
-1.160, 7.443e-3
-1.161, 7.526e-3
-1.162, 7.597e-3
-1.163, 7.646e-3
-1.164, 7.689e-3
-1.165, 7.754e-3
-1.166, 7.837e-3
-1.167, 7.911e-3
-1.168, 7.958e-3
-1.169, 8.004e-3
-1.170, 8.072e-3
-1.171, 8.155e-3
-1.172, 8.223e-3
-1.173, 8.269e-3
-1.174, 8.312e-3
-1.175, 8.380e-3
-1.176, 8.466e-3
-1.177, 8.540e-3
-1.178, 8.593e-3
-1.179, 8.636e-3
-1.180, 8.707e-3
-1.181, 8.790e-3
-1.182, 8.864e-3
-1.183, 8.913e-3
-1.184, 8.960e-3
-1.185, 9.028e-3
-1.186, 9.111e-3
-1.187, 9.185e-3
-1.188, 9.231e-3
-1.189, 9.274e-3
-1.190, 9.336e-3
-1.191, 9.422e-3
-1.192, 9.499e-3
-1.193, 9.545e-3
-1.194, 9.592e-3
-1.195, 9.660e-3
-1.196, 9.746e-3
-1.197, 9.820e-3
-1.198, 9.872e-3
-1.199, 9.922e-3
-1.200, 9.993e-3
-1.201, 1.008e-2
-1.202, 1.015e-2
-1.203, 1.019e-2
-1.204, 1.024e-2
-1.205, 1.030e-2
-1.206, 1.039e-2
-1.207, 1.047e-2
-1.208, 1.052e-2
-1.209, 1.057e-2
-1.210, 1.064e-2
-1.211, 1.073e-2
-1.212, 1.081e-2
-1.213, 1.086e-2
-1.214, 1.090e-2
-1.215, 1.097e-2
-1.216, 1.106e-2
-1.217, 1.113e-2
-1.218, 1.118e-2
-1.219, 1.123e-2
-1.220, 1.130e-2
-1.221, 1.139e-2
-1.222, 1.147e-2
-1.223, 1.152e-2
-1.224, 1.156e-2
-1.225, 1.163e-2
-1.226, 1.172e-2
-1.227, 1.180e-2
-1.228, 1.185e-2
-1.229, 1.190e-2
-1.230, 1.197e-2
-1.231, 1.206e-2
-1.232, 1.214e-2
-1.233, 1.220e-2
-1.234, 1.225e-2
-1.235, 1.232e-2
-1.236, 1.241e-2
-1.237, 1.249e-2
-1.238, 1.254e-2
-1.239, 1.259e-2
-1.240, 1.265e-2
-1.241, 1.274e-2
-1.242, 1.282e-2
-1.243, 1.287e-2
-1.244, 1.292e-2
-1.245, 1.300e-2
-1.246, 1.308e-2
-1.247, 1.316e-2
-1.248, 1.321e-2
-1.249, 1.326e-2
-1.250, 1.333e-2
-1.251, 1.341e-2
-1.252, 1.349e-2
-1.253, 1.355e-2
-1.254, 1.360e-2
-1.255, 1.367e-2
-1.256, 1.376e-2
-1.257, 1.384e-2
-1.258, 1.389e-2
-1.259, 1.395e-2
-1.260, 1.402e-2
-1.261, 1.411e-2
-1.262, 1.419e-2
-1.263, 1.424e-2
-1.264, 1.429e-2
-1.265, 1.436e-2
-1.266, 1.445e-2
-1.267, 1.452e-2
-1.268, 1.457e-2
-1.269, 1.462e-2
-1.270, 1.470e-2
-1.271, 1.479e-2
-1.272, 1.488e-2
-1.273, 1.493e-2
-1.274, 1.499e-2
-1.275, 1.507e-2
-1.276, 1.516e-2
-1.277, 1.524e-2
-1.278, 1.530e-2
-1.279, 1.535e-2
-1.280, 1.542e-2
-1.281, 1.553e-2
-1.282, 1.562e-2
-1.283, 1.568e-2
-1.284, 1.573e-2
-1.285, 1.580e-2
-1.286, 1.590e-2
-1.287, 1.598e-2
-1.288, 1.605e-2
-1.289, 1.612e-2
-1.290, 1.619e-2
-1.291, 1.629e-2
-1.292, 1.637e-2
-1.293, 1.642e-2
-1.294, 1.647e-2
-1.295, 1.654e-2
-1.296, 1.663e-2
-1.297, 1.672e-2
-1.298, 1.678e-2
-1.299, 1.684e-2
-1.300, 1.692e-2
-1.301, 1.702e-2
-1.302, 1.711e-2
-1.303, 1.718e-2
-1.304, 1.724e-2
-1.305, 1.732e-2
-1.306, 1.742e-2
-1.307, 1.749e-2
-1.308, 1.753e-2
-1.309, 1.757e-2
-1.310, 1.765e-2
-1.311, 1.775e-2
-1.312, 1.784e-2
-1.313, 1.789e-2
-1.314, 1.793e-2
-1.315, 1.800e-2
-1.316, 1.808e-2
-1.317, 1.815e-2
-1.318, 1.820e-2
-1.319, 1.824e-2
-1.320, 1.832e-2
-1.321, 1.842e-2
-1.322, 1.851e-2
-1.323, 1.856e-2
-1.324, 1.860e-2
-1.325, 1.868e-2
-1.326, 1.879e-2
-1.327, 1.885e-2
-1.328, 1.891e-2
-1.329, 1.898e-2
-1.330, 1.908e-2
-1.331, 1.918e-2
-1.332, 1.928e-2
-1.333, 1.934e-2
-1.334, 1.940e-2
-1.335, 1.949e-2
-1.336, 1.959e-2
-1.337, 1.968e-2
-1.338, 1.974e-2
-1.339, 1.980e-2
-1.340, 1.987e-2
-1.341, 1.996e-2
-1.342, 2.005e-2
-1.343, 2.011e-2
-1.344, 2.015e-2
-1.345, 2.023e-2
-1.346, 2.034e-2
-1.347, 2.043e-2
-1.348, 2.049e-2
-1.349, 2.055e-2
-1.350, 2.063e-2
-1.351, 2.073e-2
-1.352, 2.083e-2
-1.353, 2.090e-2
-1.354, 2.095e-2
-1.355, 2.102e-2
-1.356, 2.112e-2
-1.357, 2.121e-2
-1.358, 2.127e-2
-1.359, 2.131e-2
-1.360, 2.139e-2
-1.361, 2.150e-2
-1.362, 2.158e-2
-1.363, 2.164e-2
-1.364, 2.169e-2
-1.365, 2.177e-2
-1.366, 2.186e-2
-1.367, 2.195e-2
-1.368, 2.200e-2
-1.369, 2.207e-2
-1.370, 2.215e-2
-1.371, 2.225e-2
-1.372, 2.233e-2
-1.373, 2.239e-2
-1.374, 2.245e-2
-1.375, 2.253e-2
-1.376, 2.263e-2
-1.377, 2.272e-2
-1.378, 2.278e-2
-1.379, 2.283e-2
-1.380, 2.291e-2
-1.381, 2.301e-2
-1.382, 2.310e-2
-1.383, 2.316e-2
-1.384, 2.323e-2
-1.385, 2.331e-2
-1.386, 2.341e-2
-1.387, 2.349e-2
-1.388, 2.356e-2
-1.389, 2.361e-2
-1.390, 2.370e-2
-1.391, 2.380e-2
-1.392, 2.389e-2
-1.393, 2.396e-2
-1.394, 2.401e-2
-1.395, 2.410e-2
-1.396, 2.422e-2
-1.397, 2.430e-2
-1.398, 2.435e-2
-1.399, 2.441e-2
-1.400, 2.441e-2
-1.399, 2.424e-2
-1.398, 2.407e-2
-1.397, 2.387e-2
-1.396, 2.367e-2
-1.395, 2.350e-2
-1.394, 2.334e-2
-1.393, 2.317e-2
-1.392, 2.298e-2
-1.391, 2.279e-2
-1.390, 2.261e-2
-1.389, 2.246e-2
-1.388, 2.229e-2
-1.387, 2.210e-2
-1.386, 2.191e-2
-1.385, 2.175e-2
-1.384, 2.160e-2
-1.383, 2.144e-2
-1.382, 2.126e-2
-1.381, 2.107e-2
-1.380, 2.092e-2
-1.379, 2.078e-2
-1.378, 2.064e-2
-1.377, 2.045e-2
-1.376, 2.026e-2
-1.375, 2.011e-2
-1.374, 1.997e-2
-1.373, 1.982e-2
-1.372, 1.964e-2
-1.371, 1.946e-2
-1.370, 1.931e-2
-1.369, 1.918e-2
-1.368, 1.904e-2
-1.367, 1.886e-2
-1.366, 1.868e-2
-1.365, 1.852e-2
-1.364, 1.839e-2
-1.363, 1.825e-2
-1.362, 1.808e-2
-1.361, 1.792e-2
-1.360, 1.778e-2
-1.359, 1.765e-2
-1.358, 1.751e-2
-1.357, 1.734e-2
-1.356, 1.716e-2
-1.355, 1.702e-2
-1.354, 1.690e-2
-1.353, 1.677e-2
-1.352, 1.661e-2
-1.351, 1.644e-2
-1.350, 1.629e-2
-1.349, 1.617e-2
-1.348, 1.604e-2
-1.347, 1.588e-2
-1.346, 1.571e-2
-1.345, 1.558e-2
-1.344, 1.546e-2
-1.343, 1.534e-2
-1.342, 1.518e-2
-1.341, 1.502e-2
-1.340, 1.488e-2
-1.339, 1.476e-2
-1.338, 1.463e-2
-1.337, 1.447e-2
-1.336, 1.431e-2
-1.335, 1.417e-2
-1.334, 1.405e-2
-1.333, 1.392e-2
-1.332, 1.375e-2
-1.331, 1.359e-2
-1.330, 1.345e-2
-1.329, 1.333e-2
-1.328, 1.321e-2
-1.327, 1.305e-2
-1.326, 1.289e-2
-1.325, 1.276e-2
-1.324, 1.264e-2
-1.323, 1.253e-2
-1.322, 1.237e-2
-1.321, 1.222e-2
-1.320, 1.208e-2
-1.319, 1.197e-2
-1.318, 1.185e-2
-1.317, 1.170e-2
-1.316, 1.155e-2
-1.315, 1.142e-2
-1.314, 1.132e-2
-1.313, 1.120e-2
-1.312, 1.105e-2
-1.311, 1.091e-2
-1.310, 1.078e-2
-1.309, 1.067e-2
-1.308, 1.055e-2
-1.307, 1.040e-2
-1.306, 1.025e-2
-1.305, 1.012e-2
-1.304, 1.002e-2
-1.303, 9.906e-3
-1.302, 9.767e-3
-1.301, 9.619e-3
-1.300, 9.496e-3
-1.299, 9.394e-3
-1.298, 9.283e-3
-1.297, 9.142e-3
-1.296, 8.991e-3
-1.295, 8.867e-3
-1.294, 8.769e-3
-1.293, 8.658e-3
-1.292, 8.522e-3
-1.291, 8.377e-3
-1.290, 8.257e-3
-1.289, 8.158e-3
-1.288, 8.053e-3
-1.287, 7.921e-3
-1.286, 7.776e-3
-1.285, 7.659e-3
-1.284, 7.557e-3
-1.283, 7.449e-3
-1.282, 7.310e-3
-1.281, 7.171e-3
-1.280, 7.051e-3
-1.279, 6.962e-3
-1.278, 6.860e-3
-1.277, 6.728e-3
-1.276, 6.586e-3
-1.275, 6.469e-3
-1.274, 6.376e-3
-1.273, 6.274e-3
-1.272, 6.145e-3
-1.271, 6.003e-3
-1.270, 5.892e-3
-1.269, 5.799e-3
-1.268, 5.695e-3
-1.267, 5.562e-3
-1.266, 5.426e-3
-1.265, 5.315e-3
-1.264, 5.226e-3
-1.263, 5.127e-3
-1.262, 5.001e-3
-1.261, 4.868e-3
-1.260, 4.757e-3
-1.259, 4.668e-3
-1.258, 4.572e-3
-1.257, 4.449e-3
-1.256, 4.323e-3
-1.255, 4.215e-3
-1.254, 4.122e-3
-1.253, 4.021e-3
-1.252, 3.897e-3
-1.251, 3.777e-3
-1.250, 3.672e-3
-1.249, 3.586e-3
-1.248, 3.493e-3
-1.247, 3.370e-3
-1.246, 3.244e-3
-1.245, 3.139e-3
-1.244, 3.056e-3
-1.243, 2.963e-3
-1.242, 2.843e-3
-1.241, 2.713e-3
-1.240, 2.612e-3
-1.239, 2.531e-3
-1.238, 2.439e-3
-1.237, 2.316e-3
-1.236, 2.192e-3
-1.235, 2.091e-3
-1.234, 2.007e-3
-1.233, 1.915e-3
-1.232, 1.798e-3
-1.231, 1.671e-3
-1.230, 1.569e-3
-1.229, 1.489e-3
-1.228, 1.400e-3
-1.227, 1.283e-3
-1.226, 1.162e-3
-1.225, 1.067e-3
-1.224, 9.898e-4
-1.223, 9.035e-4
-1.222, 7.894e-4
-1.221, 6.692e-4
-1.220, 5.736e-4
-1.219, 4.965e-4
-1.218, 4.133e-4
-1.217, 2.992e-4
-1.216, 1.790e-4
-1.215, 8.340e-5
-1.214, 9.405e-6
-1.213, -7.384e-5
-1.212, -1.848e-4
-1.211, -2.989e-4
-1.210, -3.945e-4
-1.209, -4.685e-4
-1.208, -5.486e-4
-1.207, -6.627e-4
-1.206, -7.768e-4
-1.205, -8.724e-4
-1.204, -9.433e-4
-1.203, -1.020e-3
-1.202, -1.131e-3
-1.201, -1.245e-3
-1.200, -1.338e-3
-1.199, -1.409e-3
-1.198, -1.486e-3
-1.197, -1.594e-3
-1.196, -1.708e-3
-1.195, -1.797e-3
-1.194, -1.865e-3
-1.193, -1.942e-3
-1.192, -2.047e-3
-1.191, -2.161e-3
-1.190, -2.251e-3
-1.189, -2.318e-3
-1.188, -2.395e-3
-1.187, -2.500e-3
-1.186, -2.611e-3
-1.185, -2.701e-3
-1.184, -2.765e-3
-1.183, -2.839e-3
-1.182, -2.941e-3
-1.181, -3.052e-3
-1.180, -3.138e-3
-1.179, -3.200e-3
-1.178, -3.277e-3
-1.177, -3.379e-3
-1.176, -3.493e-3
-1.175, -3.579e-3
-1.174, -3.641e-3
-1.173, -3.712e-3
-1.172, -3.811e-3
-1.171, -3.922e-3
-1.170, -4.005e-3
-1.169, -4.070e-3
-1.168, -4.140e-3
-1.167, -4.236e-3
-1.166, -4.341e-3
-1.165, -4.421e-3
-1.164, -4.483e-3
-1.163, -4.557e-3
-1.162, -4.658e-3
-1.161, -4.766e-3
-1.160, -4.846e-3
-1.159, -4.908e-3
-1.158, -4.979e-3
-1.157, -5.078e-3
-1.156, -5.183e-3
-1.155, -5.260e-3
-1.154, -5.318e-3
-1.153, -5.389e-3
-1.152, -5.488e-3
-1.151, -5.596e-3
-1.150, -5.676e-3
-1.149, -5.734e-3
-1.148, -5.802e-3
-1.147, -5.895e-3
-1.146, -6.000e-3
-1.145, -6.077e-3
-1.144, -6.132e-3
-1.143, -6.203e-3
-1.142, -6.296e-3
-1.141, -6.394e-3
-1.140, -6.477e-3
-1.139, -6.539e-3
-1.138, -6.604e-3
-1.137, -6.696e-3
-1.136, -6.795e-3
-1.135, -6.875e-3
-1.134, -6.928e-3
-1.133, -6.989e-3
-1.132, -7.082e-3
-1.131, -7.177e-3
-1.130, -7.257e-3
-1.129, -7.307e-3
-1.128, -7.368e-3
-1.127, -7.464e-3
-1.126, -7.566e-3
-1.125, -7.646e-3
-1.124, -7.708e-3
-1.123, -7.775e-3
-1.122, -7.868e-3
-1.121, -7.967e-3
-1.120, -8.044e-3
-1.119, -8.096e-3
-1.118, -8.158e-3
-1.117, -8.244e-3
-1.116, -8.340e-3
-1.115, -8.411e-3
-1.114, -8.460e-3
-1.113, -8.518e-3
-1.112, -8.608e-3
-1.111, -8.707e-3
-1.110, -8.781e-3
-1.109, -8.833e-3
-1.108, -8.895e-3
-1.107, -8.978e-3
-1.106, -9.064e-3
-1.105, -9.135e-3
-1.104, -9.191e-3
-1.103, -9.252e-3
-1.102, -9.339e-3
-1.101, -9.434e-3
-1.100, -9.508e-3
-1.099, -9.557e-3
-1.098, -9.616e-3
-1.097, -9.702e-3
-1.096, -9.795e-3
-1.095, -9.860e-3
-1.094, -9.906e-3
-1.093, -9.964e-3
-1.092, -1.005e-2
-1.091, -1.015e-2
-1.090, -1.022e-2
-1.089, -1.027e-2
-1.088, -1.033e-2
-1.087, -1.043e-2
-1.086, -1.053e-2
-1.085, -1.059e-2
-1.084, -1.063e-2
-1.083, -1.068e-2
-1.082, -1.076e-2
-1.081, -1.084e-2
-1.080, -1.089e-2
-1.079, -1.093e-2
-1.078, -1.099e-2
-1.077, -1.108e-2
-1.076, -1.118e-2
-1.075, -1.125e-2
-1.074, -1.130e-2
-1.073, -1.135e-2
-1.072, -1.144e-2
-1.071, -1.152e-2
-1.070, -1.159e-2
-1.069, -1.164e-2
-1.068, -1.169e-2
-1.067, -1.178e-2
-1.066, -1.188e-2
-1.065, -1.195e-2
-1.064, -1.199e-2
-1.063, -1.204e-2
-1.062, -1.211e-2
-1.061, -1.218e-2
-1.060, -1.225e-2
-1.059, -1.229e-2
-1.058, -1.235e-2
-1.057, -1.244e-2
-1.056, -1.252e-2
-1.055, -1.259e-2
-1.054, -1.263e-2
-1.053, -1.268e-2
-1.052, -1.277e-2
-1.051, -1.286e-2
-1.050, -1.292e-2
-1.049, -1.296e-2
-1.048, -1.301e-2
-1.047, -1.310e-2
-1.046, -1.318e-2
-1.045, -1.324e-2
-1.044, -1.329e-2
-1.043, -1.335e-2
-1.042, -1.343e-2
-1.041, -1.351e-2
-1.040, -1.356e-2
-1.039, -1.360e-2
-1.038, -1.364e-2
-1.037, -1.371e-2
-1.036, -1.380e-2
-1.035, -1.386e-2
-1.034, -1.390e-2
-1.033, -1.395e-2
-1.032, -1.403e-2
-1.031, -1.411e-2
-1.030, -1.418e-2
-1.029, -1.423e-2
-1.028, -1.429e-2
-1.027, -1.438e-2
-1.026, -1.445e-2
-1.025, -1.450e-2
-1.024, -1.453e-2
-1.023, -1.458e-2
-1.022, -1.466e-2
-1.021, -1.475e-2
-1.020, -1.481e-2
-1.019, -1.485e-2
-1.018, -1.489e-2
-1.017, -1.496e-2
-1.016, -1.505e-2
-1.015, -1.511e-2
-1.014, -1.514e-2
-1.013, -1.517e-2
-1.012, -1.523e-2
-1.011, -1.530e-2
-1.010, -1.535e-2
-1.009, -1.538e-2
-1.008, -1.541e-2
-1.007, -1.548e-2
-1.006, -1.555e-2
-1.005, -1.561e-2
-1.004, -1.565e-2
-1.003, -1.569e-2
-1.002, -1.576e-2
-1.001, -1.584e-2
