Aug. 28, 2024   05:32:30
Cyclic Voltammetry
File: c:/users/guazh/data/20240813_batch_181_500/2024-08-25-exp203\exp203-2024-08-28t05_27_37-h2koh\exp203_cv_50mvs_efin_-1400mv.bin
Data Source:  Experiment
Instrument Model:  CHI760E
Header: CV ran at 50 mVs
Note: 

Init E (V) = -1
High E (V) = -1
Low E (V) = -1.4
Final E (V) = -1
Init P/N = N
Scan Rate (V/s) = 0.05
Segment = 7
Sample Interval (V) = 0.001
Quiet Time (sec) = 60
Sensitivity (A/V) = 0.001
Comp R (ohm) = 1.4

Results:

Channel 1:
Segment 1:

Segment 2:

Segment 3:

Segment 4:

Segment 5:

Segment 6:

Segment 7:

Potential/V, Current/A

-1.000, 1.094e-5
-1.001, 1.693e-5
-1.002, 1.951e-5
-1.003, 2.117e-5
-1.004, 2.253e-5
-1.005, 2.401e-5
-1.006, 2.544e-5
-1.007, 2.701e-5
-1.008, 2.799e-5
-1.009, 2.912e-5
-1.010, 3.016e-5
-1.011, 3.114e-5
-1.012, 3.215e-5
-1.013, 3.288e-5
-1.014, 3.345e-5
-1.015, 3.409e-5
-1.016, 3.456e-5
-1.017, 3.533e-5
-1.018, 3.573e-5
-1.019, 3.604e-5
-1.020, 3.644e-5
-1.021, 3.685e-5
-1.022, 3.757e-5
-1.023, 3.781e-5
-1.024, 3.806e-5
-1.025, 3.820e-5
-1.026, 3.874e-5
-1.027, 3.904e-5
-1.028, 3.945e-5
-1.029, 3.953e-5
-1.030, 3.983e-5
-1.031, 4.026e-5
-1.032, 4.063e-5
-1.033, 4.094e-5
-1.034, 4.102e-5
-1.035, 4.133e-5
-1.036, 4.176e-5
-1.037, 4.215e-5
-1.038, 4.237e-5
-1.039, 4.266e-5
-1.040, 4.277e-5
-1.041, 4.326e-5
-1.042, 4.371e-5
-1.043, 4.401e-5
-1.044, 4.422e-5
-1.045, 4.443e-5
-1.046, 4.478e-5
-1.047, 4.539e-5
-1.048, 4.551e-5
-1.049, 4.579e-5
-1.050, 4.610e-5
-1.051, 4.655e-5
-1.052, 4.706e-5
-1.053, 4.732e-5
-1.054, 4.757e-5
-1.055, 4.788e-5
-1.056, 4.835e-5
-1.057, 4.882e-5
-1.058, 4.924e-5
-1.059, 4.935e-5
-1.060, 4.978e-5
-1.061, 5.026e-5
-1.062, 5.084e-5
-1.063, 5.120e-5
-1.064, 5.135e-5
-1.065, 5.174e-5
-1.066, 5.235e-5
-1.067, 5.289e-5
-1.068, 5.327e-5
-1.069, 5.354e-5
-1.070, 5.393e-5
-1.071, 5.461e-5
-1.072, 5.503e-5
-1.073, 5.559e-5
-1.074, 5.592e-5
-1.075, 5.649e-5
-1.076, 5.698e-5
-1.077, 5.743e-5
-1.078, 5.797e-5
-1.079, 5.847e-5
-1.080, 5.865e-5
-1.081, 5.939e-5
-1.082, 6.002e-5
-1.083, 6.044e-5
-1.084, 6.111e-5
-1.085, 6.132e-5
-1.086, 6.199e-5
-1.087, 6.273e-5
-1.088, 6.324e-5
-1.089, 6.366e-5
-1.090, 6.431e-5
-1.091, 6.487e-5
-1.092, 6.566e-5
-1.093, 6.617e-5
-1.094, 6.664e-5
-1.095, 6.722e-5
-1.096, 6.782e-5
-1.097, 6.875e-5
-1.098, 6.936e-5
-1.099, 6.982e-5
-1.100, 7.051e-5
-1.101, 7.125e-5
-1.102, 7.191e-5
-1.103, 7.279e-5
-1.104, 7.319e-5
-1.105, 7.383e-5
-1.106, 7.470e-5
-1.107, 7.550e-5
-1.108, 7.627e-5
-1.109, 7.690e-5
-1.110, 7.764e-5
-1.111, 7.843e-5
-1.112, 7.933e-5
-1.113, 8.007e-5
-1.114, 8.089e-5
-1.115, 8.147e-5
-1.116, 8.245e-5
-1.117, 8.348e-5
-1.118, 8.429e-5
-1.119, 8.510e-5
-1.120, 8.582e-5
-1.121, 8.699e-5
-1.122, 8.797e-5
-1.123, 8.873e-5
-1.124, 8.975e-5
-1.125, 9.052e-5
-1.126, 9.150e-5
-1.127, 9.280e-5
-1.128, 9.373e-5
-1.129, 9.466e-5
-1.130, 9.562e-5
-1.131, 9.665e-5
-1.132, 9.801e-5
-1.133, 9.896e-5
-1.134, 1.000e-4
-1.135, 1.012e-4
-1.136, 1.023e-4
-1.137, 1.036e-4
-1.138, 1.048e-4
-1.139, 1.059e-4
-1.140, 1.071e-4
-1.141, 1.083e-4
-1.142, 1.099e-4
-1.143, 1.113e-4
-1.144, 1.123e-4
-1.145, 1.136e-4
-1.146, 1.150e-4
-1.147, 1.165e-4
-1.148, 1.180e-4
-1.149, 1.192e-4
-1.150, 1.207e-4
-1.151, 1.224e-4
-1.152, 1.240e-4
-1.153, 1.256e-4
-1.154, 1.269e-4
-1.155, 1.285e-4
-1.156, 1.303e-4
-1.157, 1.320e-4
-1.158, 1.337e-4
-1.159, 1.354e-4
-1.160, 1.370e-4
-1.161, 1.388e-4
-1.162, 1.408e-4
-1.163, 1.425e-4
-1.164, 1.445e-4
-1.165, 1.463e-4
-1.166, 1.483e-4
-1.167, 1.505e-4
-1.168, 1.522e-4
-1.169, 1.543e-4
-1.170, 1.563e-4
-1.171, 1.584e-4
-1.172, 1.607e-4
-1.173, 1.629e-4
-1.174, 1.649e-4
-1.175, 1.672e-4
-1.176, 1.695e-4
-1.177, 1.724e-4
-1.178, 1.749e-4
-1.179, 1.769e-4
-1.180, 1.792e-4
-1.181, 1.816e-4
-1.182, 1.845e-4
-1.183, 1.870e-4
-1.184, 1.896e-4
-1.185, 1.924e-4
-1.186, 1.951e-4
-1.187, 1.978e-4
-1.188, 2.006e-4
-1.189, 2.034e-4
-1.190, 2.064e-4
-1.191, 2.093e-4
-1.192, 2.123e-4
-1.193, 2.155e-4
-1.194, 2.184e-4
-1.195, 2.216e-4
-1.196, 2.248e-4
-1.197, 2.283e-4
-1.198, 2.316e-4
-1.199, 2.348e-4
-1.200, 2.380e-4
-1.201, 2.416e-4
-1.202, 2.451e-4
-1.203, 2.488e-4
-1.204, 2.524e-4
-1.205, 2.558e-4
-1.206, 2.596e-4
-1.207, 2.637e-4
-1.208, 2.675e-4
-1.209, 2.711e-4
-1.210, 2.751e-4
-1.211, 2.793e-4
-1.212, 2.837e-4
-1.213, 2.876e-4
-1.214, 2.917e-4
-1.215, 2.961e-4
-1.216, 3.003e-4
-1.217, 3.052e-4
-1.218, 3.097e-4
-1.219, 3.141e-4
-1.220, 3.185e-4
-1.221, 3.231e-4
-1.222, 3.282e-4
-1.223, 3.333e-4
-1.224, 3.378e-4
-1.225, 3.429e-4
-1.226, 3.480e-4
-1.227, 3.534e-4
-1.228, 3.588e-4
-1.229, 3.644e-4
-1.230, 3.693e-4
-1.231, 3.746e-4
-1.232, 3.807e-4
-1.233, 3.864e-4
-1.234, 3.917e-4
-1.235, 3.971e-4
-1.236, 4.030e-4
-1.237, 4.092e-4
-1.238, 4.155e-4
-1.239, 4.217e-4
-1.240, 4.276e-4
-1.241, 4.339e-4
-1.242, 4.404e-4
-1.243, 4.469e-4
-1.244, 4.533e-4
-1.245, 4.598e-4
-1.246, 4.666e-4
-1.247, 4.735e-4
-1.248, 4.803e-4
-1.249, 4.870e-4
-1.250, 4.945e-4
-1.251, 5.018e-4
-1.252, 5.095e-4
-1.253, 5.165e-4
-1.254, 5.239e-4
-1.255, 5.312e-4
-1.256, 5.387e-4
-1.257, 5.464e-4
-1.258, 5.543e-4
-1.259, 5.624e-4
-1.260, 5.705e-4
-1.261, 5.777e-4
-1.262, 5.857e-4
-1.263, 5.941e-4
-1.264, 6.022e-4
-1.265, 6.105e-4
-1.266, 6.187e-4
-1.267, 6.273e-4
-1.268, 6.361e-4
-1.269, 6.446e-4
-1.270, 6.536e-4
-1.271, 6.628e-4
-1.272, 6.712e-4
-1.273, 6.804e-4
-1.274, 6.900e-4
-1.275, 6.990e-4
-1.276, 7.083e-4
-1.277, 7.170e-4
-1.278, 7.263e-4
-1.279, 7.353e-4
-1.280, 7.451e-4
-1.281, 7.547e-4
-1.282, 7.651e-4
-1.283, 7.744e-4
-1.284, 7.842e-4
-1.285, 7.940e-4
-1.286, 8.036e-4
-1.287, 8.138e-4
-1.288, 8.242e-4
-1.289, 8.339e-4
-1.290, 8.442e-4
-1.291, 8.544e-4
-1.292, 8.652e-4
-1.293, 8.764e-4
-1.294, 8.865e-4
-1.295, 8.963e-4
-1.296, 9.066e-4
-1.297, 9.173e-4
-1.298, 9.278e-4
-1.299, 9.382e-4
-1.300, 9.492e-4
-1.301, 9.595e-4
-1.302, 9.707e-4
-1.303, 9.815e-4
-1.304, 9.919e-4
-1.305, 1.003e-3
-1.306, 1.013e-3
-1.307, 1.024e-3
-1.308, 1.035e-3
-1.309, 1.046e-3
-1.310, 1.056e-3
-1.311, 1.066e-3
-1.312, 1.077e-3
-1.313, 1.088e-3
-1.314, 1.098e-3
-1.315, 1.109e-3
-1.316, 1.120e-3
-1.317, 1.130e-3
-1.318, 1.141e-3
-1.319, 1.152e-3
-1.320, 1.162e-3
-1.321, 1.172e-3
-1.322, 1.182e-3
-1.323, 1.193e-3
-1.324, 1.205e-3
-1.325, 1.216e-3
-1.326, 1.226e-3
-1.327, 1.237e-3
-1.328, 1.248e-3
-1.329, 1.258e-3
-1.330, 1.268e-3
-1.331, 1.279e-3
-1.332, 1.290e-3
-1.333, 1.302e-3
-1.334, 1.313e-3
-1.335, 1.326e-3
-1.336, 1.339e-3
-1.337, 1.351e-3
-1.338, 1.364e-3
-1.339, 1.378e-3
-1.340, 1.392e-3
-1.341, 1.407e-3
-1.342, 1.421e-3
-1.343, 1.436e-3
-1.344, 1.450e-3
-1.345, 1.465e-3
-1.346, 1.481e-3
-1.347, 1.496e-3
-1.348, 1.512e-3
-1.349, 1.527e-3
-1.350, 1.543e-3
-1.351, 1.562e-3
-1.352, 1.581e-3
-1.353, 1.601e-3
-1.354, 1.620e-3
-1.355, 1.639e-3
-1.356, 1.661e-3
-1.357, 1.682e-3
-1.358, 1.705e-3
-1.359, 1.728e-3
-1.360, 1.749e-3
-1.361, 1.772e-3
-1.362, 1.795e-3
-1.363, 1.820e-3
-1.364, 1.846e-3
-1.365, 1.871e-3
-1.366, 1.895e-3
-1.367, 1.922e-3
-1.368, 1.949e-3
-1.369, 1.977e-3
-1.370, 2.003e-3
-1.371, 2.027e-3
-1.372, 2.052e-3
-1.373, 2.079e-3
-1.374, 2.108e-3
-1.375, 2.135e-3
-1.376, 2.162e-3
-1.377, 2.188e-3
-1.378, 2.215e-3
-1.379, 2.243e-3
-1.380, 2.269e-3
-1.381, 2.291e-3
-1.382, 2.313e-3
-1.383, 2.337e-3
-1.384, 2.361e-3
-1.385, 2.383e-3
-1.386, 2.406e-3
-1.387, 2.426e-3
-1.388, 2.442e-3
-1.389, 2.459e-3
-1.390, 2.479e-3
-1.391, 2.497e-3
-1.392, 2.516e-3
-1.393, 2.531e-3
-1.394, 2.546e-3
-1.395, 2.560e-3
-1.396, 2.576e-3
-1.397, 2.594e-3
-1.398, 2.604e-3
-1.399, 2.615e-3
-1.400, 2.568e-3
-1.399, 2.478e-3
-1.398, 2.394e-3
-1.397, 2.314e-3
-1.396, 2.236e-3
-1.395, 2.162e-3
-1.394, 2.087e-3
-1.393, 2.017e-3
-1.392, 1.951e-3
-1.391, 1.888e-3
-1.390, 1.826e-3
-1.389, 1.767e-3
-1.388, 1.711e-3
-1.387, 1.658e-3
-1.386, 1.609e-3
-1.385, 1.558e-3
-1.384, 1.510e-3
-1.383, 1.464e-3
-1.382, 1.420e-3
-1.381, 1.378e-3
-1.380, 1.337e-3
-1.379, 1.295e-3
-1.378, 1.256e-3
-1.377, 1.219e-3
-1.376, 1.185e-3
-1.375, 1.151e-3
-1.374, 1.118e-3
-1.373, 1.086e-3
-1.372, 1.054e-3
-1.371, 1.024e-3
-1.370, 9.946e-4
-1.369, 9.657e-4
-1.368, 9.381e-4
-1.367, 9.116e-4
-1.366, 8.868e-4
-1.365, 8.630e-4
-1.364, 8.384e-4
-1.363, 8.149e-4
-1.362, 7.933e-4
-1.361, 7.692e-4
-1.360, 7.462e-4
-1.359, 7.286e-4
-1.358, 7.094e-4
-1.357, 6.889e-4
-1.356, 6.680e-4
-1.355, 6.485e-4
-1.354, 6.304e-4
-1.353, 6.115e-4
-1.352, 5.945e-4
-1.351, 5.776e-4
-1.350, 5.608e-4
-1.349, 5.445e-4
-1.348, 5.297e-4
-1.347, 5.147e-4
-1.346, 5.006e-4
-1.345, 4.863e-4
-1.344, 4.722e-4
-1.343, 4.581e-4
-1.342, 4.450e-4
-1.341, 4.325e-4
-1.340, 4.196e-4
-1.339, 4.076e-4
-1.338, 3.965e-4
-1.337, 3.842e-4
-1.336, 3.730e-4
-1.335, 3.618e-4
-1.334, 3.507e-4
-1.333, 3.407e-4
-1.332, 3.302e-4
-1.331, 3.203e-4
-1.330, 3.105e-4
-1.329, 3.014e-4
-1.328, 2.925e-4
-1.327, 2.831e-4
-1.326, 2.743e-4
-1.325, 2.654e-4
-1.324, 2.569e-4
-1.323, 2.488e-4
-1.322, 2.409e-4
-1.321, 2.325e-4
-1.320, 2.251e-4
-1.319, 2.181e-4
-1.318, 2.107e-4
-1.317, 2.035e-4
-1.316, 1.963e-4
-1.315, 1.892e-4
-1.314, 1.826e-4
-1.313, 1.762e-4
-1.312, 1.697e-4
-1.311, 1.635e-4
-1.310, 1.569e-4
-1.309, 1.511e-4
-1.308, 1.452e-4
-1.307, 1.394e-4
-1.306, 1.340e-4
-1.305, 1.281e-4
-1.304, 1.228e-4
-1.303, 1.176e-4
-1.302, 1.124e-4
-1.301, 1.074e-4
-1.300, 1.023e-4
-1.299, 9.749e-5
-1.298, 9.279e-5
-1.297, 8.806e-5
-1.296, 8.358e-5
-1.295, 7.897e-5
-1.294, 7.469e-5
-1.293, 7.060e-5
-1.292, 6.644e-5
-1.291, 6.234e-5
-1.290, 5.814e-5
-1.289, 5.420e-5
-1.288, 5.042e-5
-1.287, 4.657e-5
-1.286, 4.275e-5
-1.285, 3.894e-5
-1.284, 3.524e-5
-1.283, 3.155e-5
-1.282, 2.792e-5
-1.281, 2.420e-5
-1.280, 2.025e-5
-1.279, 1.661e-5
-1.278, 1.315e-5
-1.277, 9.729e-6
-1.276, 6.372e-6
-1.275, 3.041e-6
-1.274, -4.854e-8
-1.273, -2.854e-6
-1.272, -5.512e-6
-1.271, -8.264e-6
-1.270, -1.095e-5
-1.269, -1.285e-5
-1.268, -1.480e-5
-1.267, -1.625e-5
-1.266, -1.787e-5
-1.265, -1.961e-5
-1.264, -2.108e-5
-1.263, -2.253e-5
-1.262, -2.490e-5
-1.261, -2.588e-5
-1.260, -2.719e-5
-1.259, -2.874e-5
-1.258, -3.008e-5
-1.257, -3.166e-5
-1.256, -3.312e-5
-1.255, -3.480e-5
-1.254, -3.631e-5
-1.253, -3.761e-5
-1.252, -3.897e-5
-1.251, -4.057e-5
-1.250, -4.200e-5
-1.249, -4.341e-5
-1.248, -4.462e-5
-1.247, -4.600e-5
-1.246, -4.747e-5
-1.245, -4.878e-5
-1.244, -5.031e-5
-1.243, -5.143e-5
-1.242, -5.280e-5
-1.241, -5.414e-5
-1.240, -5.551e-5
-1.239, -5.682e-5
-1.238, -5.826e-5
-1.237, -5.939e-5
-1.236, -6.077e-5
-1.235, -6.214e-5
-1.234, -6.337e-5
-1.233, -6.469e-5
-1.232, -6.572e-5
-1.231, -6.720e-5
-1.230, -6.859e-5
-1.229, -7.018e-5
-1.228, -7.129e-5
-1.227, -7.259e-5
-1.226, -7.380e-5
-1.225, -7.522e-5
-1.224, -7.644e-5
-1.223, -7.765e-5
-1.222, -7.906e-5
-1.221, -8.041e-5
-1.220, -8.194e-5
-1.219, -8.347e-5
-1.218, -8.472e-5
-1.217, -8.629e-5
-1.216, -8.766e-5
-1.215, -8.931e-5
-1.214, -9.089e-5
-1.213, -9.218e-5
-1.212, -9.377e-5
-1.211, -9.535e-5
-1.210, -9.764e-5
-1.209, -9.880e-5
-1.208, -1.004e-4
-1.207, -1.019e-4
-1.206, -1.035e-4
-1.205, -1.054e-4
-1.204, -1.069e-4
-1.203, -1.083e-4
-1.202, -1.099e-4
-1.201, -1.118e-4
-1.200, -1.130e-4
-1.199, -1.147e-4
-1.198, -1.164e-4
-1.197, -1.177e-4
-1.196, -1.194e-4
-1.195, -1.208e-4
-1.194, -1.222e-4
-1.193, -1.235e-4
-1.192, -1.251e-4
-1.191, -1.269e-4
-1.190, -1.283e-4
-1.189, -1.299e-4
-1.188, -1.311e-4
-1.187, -1.326e-4
-1.186, -1.339e-4
-1.185, -1.353e-4
-1.184, -1.365e-4
-1.183, -1.381e-4
-1.182, -1.396e-4
-1.181, -1.409e-4
-1.180, -1.422e-4
-1.179, -1.436e-4
-1.178, -1.449e-4
-1.177, -1.467e-4
-1.176, -1.481e-4
-1.175, -1.493e-4
-1.174, -1.507e-4
-1.173, -1.519e-4
-1.172, -1.530e-4
-1.171, -1.540e-4
-1.170, -1.558e-4
-1.169, -1.578e-4
-1.168, -1.592e-4
-1.167, -1.606e-4
-1.166, -1.620e-4
-1.165, -1.636e-4
-1.164, -1.647e-4
-1.163, -1.662e-4
-1.162, -1.673e-4
-1.161, -1.688e-4
-1.160, -1.706e-4
-1.159, -1.713e-4
-1.158, -1.730e-4
-1.157, -1.744e-4
-1.156, -1.757e-4
-1.155, -1.776e-4
-1.154, -1.789e-4
-1.153, -1.806e-4
-1.152, -1.822e-4
-1.151, -1.837e-4
-1.150, -1.851e-4
-1.149, -1.866e-4
-1.148, -1.882e-4
-1.147, -1.896e-4
-1.146, -1.924e-4
-1.145, -1.932e-4
-1.144, -1.954e-4
-1.143, -1.967e-4
-1.142, -1.985e-4
-1.141, -1.998e-4
-1.140, -2.016e-4
-1.139, -2.030e-4
-1.138, -2.046e-4
-1.137, -2.061e-4
-1.136, -2.078e-4
-1.135, -2.094e-4
-1.134, -2.112e-4
-1.133, -2.127e-4
-1.132, -2.145e-4
-1.131, -2.162e-4
-1.130, -2.177e-4
-1.129, -2.195e-4
-1.128, -2.206e-4
-1.127, -2.222e-4
-1.126, -2.235e-4
-1.125, -2.260e-4
-1.124, -2.279e-4
-1.123, -2.291e-4
-1.122, -2.306e-4
-1.121, -2.324e-4
-1.120, -2.339e-4
-1.119, -2.354e-4
-1.118, -2.366e-4
-1.117, -2.381e-4
-1.116, -2.397e-4
-1.115, -2.410e-4
-1.114, -2.429e-4
-1.113, -2.447e-4
-1.112, -2.459e-4
-1.111, -2.470e-4
-1.110, -2.488e-4
-1.109, -2.499e-4
-1.108, -2.514e-4
-1.107, -2.523e-4
-1.106, -2.535e-4
-1.105, -2.544e-4
-1.104, -2.556e-4
-1.103, -2.570e-4
-1.102, -2.584e-4
-1.101, -2.594e-4
-1.100, -2.605e-4
-1.099, -2.620e-4
-1.098, -2.627e-4
-1.097, -2.641e-4
-1.096, -2.647e-4
-1.095, -2.658e-4
-1.094, -2.666e-4
-1.093, -2.678e-4
-1.092, -2.687e-4
-1.091, -2.697e-4
-1.090, -2.701e-4
-1.089, -2.711e-4
-1.088, -2.713e-4
-1.087, -2.717e-4
-1.086, -2.727e-4
-1.085, -2.734e-4
-1.084, -2.738e-4
-1.083, -2.749e-4
-1.082, -2.750e-4
-1.081, -2.762e-4
-1.080, -2.758e-4
-1.079, -2.765e-4
-1.078, -2.761e-4
-1.077, -2.759e-4
-1.076, -2.764e-4
-1.075, -2.771e-4
-1.074, -2.768e-4
-1.073, -2.770e-4
-1.072, -2.769e-4
-1.071, -2.769e-4
-1.070, -2.773e-4
-1.069, -2.762e-4
-1.068, -2.757e-4
-1.067, -2.756e-4
-1.066, -2.757e-4
-1.065, -2.755e-4
-1.064, -2.748e-4
-1.063, -2.743e-4
-1.062, -2.737e-4
-1.061, -2.733e-4
-1.060, -2.730e-4
-1.059, -2.723e-4
-1.058, -2.714e-4
-1.057, -2.703e-4
-1.056, -2.694e-4
-1.055, -2.687e-4
-1.054, -2.675e-4
-1.053, -2.669e-4
-1.052, -2.655e-4
-1.051, -2.647e-4
-1.050, -2.629e-4
-1.049, -2.621e-4
-1.048, -2.611e-4
-1.047, -2.601e-4
-1.046, -2.593e-4
-1.045, -2.579e-4
-1.044, -2.571e-4
-1.043, -2.562e-4
-1.042, -2.550e-4
-1.041, -2.543e-4
-1.040, -2.530e-4
-1.039, -2.520e-4
-1.038, -2.504e-4
-1.037, -2.487e-4
-1.036, -2.478e-4
-1.035, -2.466e-4
-1.034, -2.451e-4
-1.033, -2.439e-4
-1.032, -2.425e-4
-1.031, -2.409e-4
-1.030, -2.398e-4
-1.029, -2.387e-4
-1.028, -2.372e-4
-1.027, -2.356e-4
-1.026, -2.345e-4
-1.025, -2.330e-4
-1.024, -2.320e-4
-1.023, -2.305e-4
-1.022, -2.290e-4
-1.021, -2.279e-4
-1.020, -2.268e-4
-1.019, -2.254e-4
-1.018, -2.238e-4
-1.017, -2.217e-4
-1.016, -2.207e-4
-1.015, -2.203e-4
-1.014, -2.182e-4
-1.013, -2.167e-4
-1.012, -2.159e-4
-1.011, -2.153e-4
-1.010, -2.140e-4
-1.009, -2.123e-4
-1.008, -2.115e-4
-1.007, -2.096e-4
-1.006, -2.095e-4
-1.005, -2.078e-4
-1.004, -2.078e-4
-1.003, -2.072e-4
-1.002, -2.047e-4
-1.001, -2.039e-4
-1.000, -1.812e-4
-1.001, -1.613e-4
-1.002, -1.510e-4
-1.003, -1.427e-4
-1.004, -1.353e-4
-1.005, -1.299e-4
-1.006, -1.233e-4
-1.007, -1.190e-4
-1.008, -1.132e-4
-1.009, -1.103e-4
-1.010, -1.049e-4
-1.011, -1.017e-4
-1.012, -9.815e-5
-1.013, -9.349e-5
-1.014, -9.146e-5
-1.015, -8.760e-5
-1.016, -8.561e-5
-1.017, -8.130e-5
-1.018, -7.905e-5
-1.019, -7.738e-5
-1.020, -7.395e-5
-1.021, -7.144e-5
-1.022, -6.889e-5
-1.023, -6.671e-5
-1.024, -6.367e-5
-1.025, -6.217e-5
-1.026, -6.014e-5
-1.027, -5.779e-5
-1.028, -5.505e-5
-1.029, -5.356e-5
-1.030, -5.207e-5
-1.031, -4.902e-5
-1.032, -4.732e-5
-1.033, -4.531e-5
-1.034, -4.358e-5
-1.035, -4.203e-5
-1.036, -3.995e-5
-1.037, -3.874e-5
-1.038, -3.665e-5
-1.039, -3.504e-5
-1.040, -3.325e-5
-1.041, -3.194e-5
-1.042, -3.001e-5
-1.043, -2.817e-5
-1.044, -2.690e-5
-1.045, -2.574e-5
-1.046, -2.420e-5
-1.047, -2.244e-5
-1.048, -2.106e-5
-1.049, -1.977e-5
-1.050, -1.841e-5
-1.051, -1.728e-5
-1.052, -1.573e-5
-1.053, -1.428e-5
-1.054, -1.315e-5
-1.055, -1.178e-5
-1.056, -1.081e-5
-1.057, -9.306e-6
-1.058, -8.034e-6
-1.059, -7.014e-6
-1.060, -5.869e-6
-1.061, -4.783e-6
-1.062, -3.467e-6
-1.063, -2.254e-6
-1.064, -1.332e-6
-1.065, -4.027e-7
-1.066, 9.479e-7
-1.067, 1.865e-6
-1.068, 3.181e-6
-1.069, 4.033e-6
-1.070, 4.841e-6
-1.071, 5.979e-6
-1.072, 7.067e-6
-1.073, 8.184e-6
-1.074, 9.004e-6
-1.075, 1.007e-5
-1.076, 1.101e-5
-1.077, 1.214e-5
-1.078, 1.309e-5
-1.079, 1.411e-5
-1.080, 1.476e-5
-1.081, 1.594e-5
-1.082, 1.713e-5
-1.083, 1.814e-5
-1.084, 1.898e-5
-1.085, 2.027e-5
-1.086, 2.138e-5
-1.087, 2.246e-5
-1.088, 2.341e-5
-1.089, 2.435e-5
-1.090, 2.535e-5
-1.091, 2.611e-5
-1.092, 2.752e-5
-1.093, 2.860e-5
-1.094, 2.939e-5
-1.095, 3.042e-5
-1.096, 3.136e-5
-1.097, 3.256e-5
-1.098, 3.376e-5
-1.099, 3.460e-5
-1.100, 3.552e-5
-1.101, 3.649e-5
-1.102, 3.772e-5
-1.103, 3.895e-5
-1.104, 3.960e-5
-1.105, 4.054e-5
-1.106, 4.171e-5
-1.107, 4.290e-5
-1.108, 4.412e-5
-1.109, 4.482e-5
-1.110, 4.580e-5
-1.111, 4.690e-5
-1.112, 4.810e-5
-1.113, 4.910e-5
-1.114, 5.012e-5
-1.115, 5.105e-5
-1.116, 5.233e-5
-1.117, 5.325e-5
-1.118, 5.450e-5
-1.119, 5.544e-5
-1.120, 5.638e-5
-1.121, 5.750e-5
-1.122, 5.857e-5
-1.123, 5.967e-5
-1.124, 6.070e-5
-1.125, 6.162e-5
-1.126, 6.272e-5
-1.127, 6.396e-5
-1.128, 6.498e-5
-1.129, 6.593e-5
-1.130, 6.684e-5
-1.131, 6.796e-5
-1.132, 6.908e-5
-1.133, 7.002e-5
-1.134, 7.102e-5
-1.135, 7.219e-5
-1.136, 7.300e-5
-1.137, 7.428e-5
-1.138, 7.541e-5
-1.139, 7.618e-5
-1.140, 7.744e-5
-1.141, 7.830e-5
-1.142, 7.943e-5
-1.143, 8.069e-5
-1.144, 8.149e-5
-1.145, 8.245e-5
-1.146, 8.362e-5
-1.147, 8.472e-5
-1.148, 8.594e-5
-1.149, 8.682e-5
-1.150, 8.780e-5
-1.151, 8.908e-5
-1.152, 9.019e-5
-1.153, 9.132e-5
-1.154, 9.223e-5
-1.155, 9.317e-5
-1.156, 9.447e-5
-1.157, 9.554e-5
-1.158, 9.681e-5
-1.159, 9.777e-5
-1.160, 9.882e-5
-1.161, 9.987e-5
-1.162, 1.011e-4
-1.163, 1.023e-4
-1.164, 1.032e-4
-1.165, 1.043e-4
-1.166, 1.053e-4
-1.167, 1.067e-4
-1.168, 1.076e-4
-1.169, 1.087e-4
-1.170, 1.099e-4
-1.171, 1.109e-4
-1.172, 1.123e-4
-1.173, 1.133e-4
-1.174, 1.144e-4
-1.175, 1.156e-4
-1.176, 1.166e-4
-1.177, 1.182e-4
-1.178, 1.195e-4
-1.179, 1.202e-4
-1.180, 1.215e-4
-1.181, 1.225e-4
-1.182, 1.239e-4
-1.183, 1.251e-4
-1.184, 1.260e-4
-1.185, 1.271e-4
-1.186, 1.285e-4
-1.187, 1.297e-4
-1.188, 1.309e-4
-1.189, 1.321e-4
-1.190, 1.332e-4
-1.191, 1.346e-4
-1.192, 1.356e-4
-1.193, 1.370e-4
-1.194, 1.381e-4
-1.195, 1.392e-4
-1.196, 1.405e-4
-1.197, 1.419e-4
-1.198, 1.431e-4
-1.199, 1.443e-4
-1.200, 1.456e-4
-1.201, 1.469e-4
-1.202, 1.482e-4
-1.203, 1.495e-4
-1.204, 1.506e-4
-1.205, 1.518e-4
-1.206, 1.531e-4
-1.207, 1.547e-4
-1.208, 1.559e-4
-1.209, 1.571e-4
-1.210, 1.583e-4
-1.211, 1.596e-4
-1.212, 1.611e-4
-1.213, 1.623e-4
-1.214, 1.636e-4
-1.215, 1.651e-4
-1.216, 1.663e-4
-1.217, 1.678e-4
-1.218, 1.693e-4
-1.219, 1.705e-4
-1.220, 1.720e-4
-1.221, 1.732e-4
-1.222, 1.748e-4
-1.223, 1.764e-4
-1.224, 1.774e-4
-1.225, 1.788e-4
-1.226, 1.803e-4
-1.227, 1.818e-4
-1.228, 1.835e-4
-1.229, 1.852e-4
-1.230, 1.863e-4
-1.231, 1.878e-4
-1.232, 1.892e-4
-1.233, 1.909e-4
-1.234, 1.924e-4
-1.235, 1.938e-4
-1.236, 1.953e-4
-1.237, 1.969e-4
-1.238, 1.983e-4
-1.239, 1.997e-4
-1.240, 2.014e-4
-1.241, 2.029e-4
-1.242, 2.046e-4
-1.243, 2.061e-4
-1.244, 2.076e-4
-1.245, 2.090e-4
-1.246, 2.106e-4
-1.247, 2.123e-4
-1.248, 2.140e-4
-1.249, 2.155e-4
-1.250, 2.170e-4
-1.251, 2.186e-4
-1.252, 2.205e-4
-1.253, 2.224e-4
-1.254, 2.237e-4
-1.255, 2.257e-4
-1.256, 2.272e-4
-1.257, 2.291e-4
-1.258, 2.309e-4
-1.259, 2.324e-4
-1.260, 2.343e-4
-1.261, 2.361e-4
-1.262, 2.379e-4
-1.263, 2.401e-4
-1.264, 2.417e-4
-1.265, 2.438e-4
-1.266, 2.457e-4
-1.267, 2.477e-4
-1.268, 2.499e-4
-1.269, 2.517e-4
-1.270, 2.539e-4
-1.271, 2.560e-4
-1.272, 2.582e-4
-1.273, 2.606e-4
-1.274, 2.627e-4
-1.275, 2.649e-4
-1.276, 2.672e-4
-1.277, 2.696e-4
-1.278, 2.722e-4
-1.279, 2.745e-4
-1.280, 2.771e-4
-1.281, 2.794e-4
-1.282, 2.823e-4
-1.283, 2.848e-4
-1.284, 2.874e-4
-1.285, 2.903e-4
-1.286, 2.929e-4
-1.287, 2.960e-4
-1.288, 2.987e-4
-1.289, 3.016e-4
-1.290, 3.044e-4
-1.291, 3.074e-4
-1.292, 3.109e-4
-1.293, 3.141e-4
-1.294, 3.171e-4
-1.295, 3.206e-4
-1.296, 3.241e-4
-1.297, 3.277e-4
-1.298, 3.314e-4
-1.299, 3.346e-4
-1.300, 3.385e-4
-1.301, 3.420e-4
-1.302, 3.463e-4
-1.303, 3.505e-4
-1.304, 3.543e-4
-1.305, 3.585e-4
-1.306, 3.627e-4
-1.307, 3.673e-4
-1.308, 3.723e-4
-1.309, 3.765e-4
-1.310, 3.811e-4
-1.311, 3.863e-4
-1.312, 3.912e-4
-1.313, 3.967e-4
-1.314, 4.016e-4
-1.315, 4.069e-4
-1.316, 4.124e-4
-1.317, 4.180e-4
-1.318, 4.239e-4
-1.319, 4.299e-4
-1.320, 4.357e-4
-1.321, 4.417e-4
-1.322, 4.478e-4
-1.323, 4.544e-4
-1.324, 4.610e-4
-1.325, 4.678e-4
-1.326, 4.744e-4
-1.327, 4.817e-4
-1.328, 4.889e-4
-1.329, 4.970e-4
-1.330, 5.044e-4
-1.331, 5.119e-4
-1.332, 5.199e-4
-1.333, 5.276e-4
-1.334, 5.362e-4
-1.335, 5.443e-4
-1.336, 5.532e-4
-1.337, 5.621e-4
-1.338, 5.715e-4
-1.339, 5.806e-4
-1.340, 5.904e-4
-1.341, 6.000e-4
-1.342, 6.104e-4
-1.343, 6.207e-4
-1.344, 6.309e-4
-1.345, 6.411e-4
-1.346, 6.518e-4
-1.347, 6.633e-4
-1.348, 6.746e-4
-1.349, 6.854e-4
-1.350, 6.972e-4
-1.351, 7.091e-4
-1.352, 7.214e-4
-1.353, 7.342e-4
-1.354, 7.467e-4
-1.355, 7.596e-4
-1.356, 7.728e-4
-1.357, 7.861e-4
-1.358, 7.997e-4
-1.359, 8.138e-4
-1.360, 8.272e-4
-1.361, 8.419e-4
-1.362, 8.565e-4
-1.363, 8.716e-4
-1.364, 8.861e-4
-1.365, 9.013e-4
-1.366, 9.166e-4
-1.367, 9.336e-4
-1.368, 9.495e-4
-1.369, 9.659e-4
-1.370, 9.822e-4
-1.371, 9.997e-4
-1.372, 1.018e-3
-1.373, 1.034e-3
-1.374, 1.052e-3
-1.375, 1.070e-3
-1.376, 1.088e-3
-1.377, 1.107e-3
-1.378, 1.127e-3
-1.379, 1.146e-3
-1.380, 1.166e-3
-1.381, 1.186e-3
-1.382, 1.206e-3
-1.383, 1.226e-3
-1.384, 1.246e-3
-1.385, 1.268e-3
-1.386, 1.290e-3
-1.387, 1.312e-3
-1.388, 1.334e-3
-1.389, 1.356e-3
-1.390, 1.378e-3
-1.391, 1.400e-3
-1.392, 1.423e-3
-1.393, 1.447e-3
-1.394, 1.470e-3
-1.395, 1.493e-3
-1.396, 1.517e-3
-1.397, 1.541e-3
-1.398, 1.566e-3
-1.399, 1.592e-3
-1.400, 1.570e-3
-1.399, 1.520e-3
-1.398, 1.478e-3
-1.397, 1.439e-3
-1.396, 1.402e-3
-1.395, 1.365e-3
-1.394, 1.330e-3
-1.393, 1.294e-3
-1.392, 1.261e-3
-1.391, 1.231e-3
-1.390, 1.201e-3
-1.389, 1.170e-3
-1.388, 1.139e-3
-1.387, 1.110e-3
-1.386, 1.081e-3
-1.385, 1.053e-3
-1.384, 1.026e-3
-1.383, 1.000e-3
-1.382, 9.750e-4
-1.381, 9.508e-4
-1.380, 9.256e-4
-1.379, 9.015e-4
-1.378, 8.783e-4
-1.377, 8.563e-4
-1.376, 8.353e-4
-1.375, 8.145e-4
-1.374, 7.940e-4
-1.373, 7.744e-4
-1.372, 7.541e-4
-1.371, 7.355e-4
-1.370, 7.167e-4
-1.369, 6.984e-4
-1.368, 6.812e-4
-1.367, 6.632e-4
-1.366, 6.469e-4
-1.365, 6.312e-4
-1.364, 6.153e-4
-1.363, 5.994e-4
-1.362, 5.849e-4
-1.361, 5.698e-4
-1.360, 5.556e-4
-1.359, 5.415e-4
-1.358, 5.282e-4
-1.357, 5.153e-4
-1.356, 5.020e-4
-1.355, 4.888e-4
-1.354, 4.768e-4
-1.353, 4.652e-4
-1.352, 4.535e-4
-1.351, 4.414e-4
-1.350, 4.300e-4
-1.349, 4.193e-4
-1.348, 4.089e-4
-1.347, 3.985e-4
-1.346, 3.883e-4
-1.345, 3.780e-4
-1.344, 3.681e-4
-1.343, 3.581e-4
-1.342, 3.489e-4
-1.341, 3.401e-4
-1.340, 3.312e-4
-1.339, 3.227e-4
-1.338, 3.142e-4
-1.337, 3.057e-4
-1.336, 2.975e-4
-1.335, 2.895e-4
-1.334, 2.821e-4
-1.333, 2.748e-4
-1.332, 2.674e-4
-1.331, 2.597e-4
-1.330, 2.523e-4
-1.329, 2.473e-4
-1.328, 2.403e-4
-1.327, 2.333e-4
-1.326, 2.263e-4
-1.325, 2.198e-4
-1.324, 2.132e-4
-1.323, 2.070e-4
-1.322, 2.014e-4
-1.321, 1.962e-4
-1.320, 1.906e-4
-1.319, 1.844e-4
-1.318, 1.787e-4
-1.317, 1.733e-4
-1.316, 1.677e-4
-1.315, 1.623e-4
-1.314, 1.571e-4
-1.313, 1.520e-4
-1.312, 1.472e-4
-1.311, 1.420e-4
-1.310, 1.372e-4
-1.309, 1.325e-4
-1.308, 1.281e-4
-1.307, 1.238e-4
-1.306, 1.194e-4
-1.305, 1.153e-4
-1.304, 1.108e-4
-1.303, 1.067e-4
-1.302, 1.026e-4
-1.301, 9.857e-5
-1.300, 9.467e-5
-1.299, 9.088e-5
-1.298, 8.735e-5
-1.297, 8.375e-5
-1.296, 8.003e-5
-1.295, 7.643e-5
-1.294, 7.292e-5
-1.293, 6.955e-5
-1.292, 6.632e-5
-1.291, 6.275e-5
-1.290, 5.945e-5
-1.289, 5.589e-5
-1.288, 5.284e-5
-1.287, 4.955e-5
-1.286, 4.618e-5
-1.285, 4.300e-5
-1.284, 3.966e-5
-1.283, 3.672e-5
-1.282, 3.373e-5
-1.281, 3.048e-5
-1.280, 2.735e-5
-1.279, 2.464e-5
-1.278, 2.196e-5
-1.277, 1.958e-5
-1.276, 1.689e-5
-1.275, 1.434e-5
-1.274, 1.214e-5
-1.273, 9.992e-6
-1.272, 8.016e-6
-1.271, 5.734e-6
-1.270, 3.727e-6
-1.269, 1.847e-6
-1.268, -5.130e-9
-1.267, -1.879e-6
-1.266, -3.651e-6
-1.265, -5.463e-6
-1.264, -7.018e-6
-1.263, -8.558e-6
-1.262, -1.014e-5
-1.261, -1.171e-5
-1.260, -1.322e-5
-1.259, -1.475e-5
-1.258, -1.616e-5
-1.257, -1.764e-5
-1.256, -1.908e-5
-1.255, -2.047e-5
-1.254, -2.184e-5
-1.253, -2.299e-5
-1.252, -2.428e-5
-1.251, -2.575e-5
-1.250, -2.692e-5
-1.249, -2.810e-5
-1.248, -2.906e-5
-1.247, -3.011e-5
-1.246, -3.136e-5
-1.245, -3.235e-5
-1.244, -3.348e-5
-1.243, -3.452e-5
-1.242, -3.550e-5
-1.241, -3.675e-5
-1.240, -3.765e-5
-1.239, -3.859e-5
-1.238, -3.950e-5
-1.237, -4.033e-5
-1.236, -4.149e-5
-1.235, -4.257e-5
-1.234, -4.346e-5
-1.233, -4.437e-5
-1.232, -4.520e-5
-1.231, -4.616e-5
-1.230, -4.718e-5
-1.229, -4.841e-5
-1.228, -4.902e-5
-1.227, -4.987e-5
-1.226, -5.079e-5
-1.225, -5.199e-5
-1.224, -5.256e-5
-1.223, -5.325e-5
-1.222, -5.420e-5
-1.221, -5.527e-5
-1.220, -5.624e-5
-1.219, -5.727e-5
-1.218, -5.808e-5
-1.217, -5.908e-5
-1.216, -6.012e-5
-1.215, -6.115e-5
-1.214, -6.214e-5
-1.213, -6.278e-5
-1.212, -6.394e-5
-1.211, -6.510e-5
-1.210, -6.632e-5
-1.209, -6.762e-5
-1.208, -6.874e-5
-1.207, -6.981e-5
-1.206, -7.137e-5
-1.205, -7.248e-5
-1.204, -7.362e-5
-1.203, -7.484e-5
-1.202, -7.584e-5
-1.201, -7.751e-5
-1.200, -7.863e-5
-1.199, -7.983e-5
-1.198, -8.084e-5
-1.197, -8.189e-5
-1.196, -8.313e-5
-1.195, -8.444e-5
-1.194, -8.511e-5
-1.193, -8.617e-5
-1.192, -8.689e-5
-1.191, -8.796e-5
-1.190, -8.920e-5
-1.189, -8.990e-5
-1.188, -9.091e-5
-1.187, -9.182e-5
-1.186, -9.285e-5
-1.185, -9.397e-5
-1.184, -9.470e-5
-1.183, -9.551e-5
-1.182, -9.653e-5
-1.181, -9.738e-5
-1.180, -9.815e-5
-1.179, -9.924e-5
-1.178, -9.980e-5
-1.177, -1.006e-4
-1.176, -1.014e-4
-1.175, -1.026e-4
-1.174, -1.034e-4
-1.173, -1.040e-4
-1.172, -1.047e-4
-1.171, -1.058e-4
-1.170, -1.067e-4
-1.169, -1.077e-4
-1.168, -1.082e-4
-1.167, -1.090e-4
-1.166, -1.102e-4
-1.165, -1.111e-4
-1.164, -1.120e-4
-1.163, -1.127e-4
-1.162, -1.136e-4
-1.161, -1.148e-4
-1.160, -1.155e-4
-1.159, -1.162e-4
-1.158, -1.169e-4
-1.157, -1.176e-4
-1.156, -1.188e-4
-1.155, -1.200e-4
-1.154, -1.207e-4
-1.153, -1.216e-4
-1.152, -1.224e-4
-1.151, -1.234e-4
-1.150, -1.245e-4
-1.149, -1.252e-4
-1.148, -1.261e-4
-1.147, -1.269e-4
-1.146, -1.279e-4
-1.145, -1.292e-4
-1.144, -1.296e-4
-1.143, -1.308e-4
-1.142, -1.318e-4
-1.141, -1.326e-4
-1.140, -1.338e-4
-1.139, -1.347e-4
-1.138, -1.354e-4
-1.137, -1.364e-4
-1.136, -1.372e-4
-1.135, -1.383e-4
-1.134, -1.390e-4
-1.133, -1.398e-4
-1.132, -1.408e-4
-1.131, -1.416e-4
-1.130, -1.429e-4
-1.129, -1.435e-4
-1.128, -1.441e-4
-1.127, -1.451e-4
-1.126, -1.463e-4
-1.125, -1.472e-4
-1.124, -1.482e-4
-1.123, -1.490e-4
-1.122, -1.496e-4
-1.121, -1.507e-4
-1.120, -1.515e-4
-1.119, -1.521e-4
-1.118, -1.528e-4
-1.117, -1.536e-4
-1.116, -1.547e-4
-1.115, -1.557e-4
-1.114, -1.562e-4
-1.113, -1.569e-4
-1.112, -1.575e-4
-1.111, -1.585e-4
-1.110, -1.596e-4
-1.109, -1.601e-4
-1.108, -1.606e-4
-1.107, -1.615e-4
-1.106, -1.619e-4
-1.105, -1.626e-4
-1.104, -1.634e-4
-1.103, -1.638e-4
-1.102, -1.643e-4
-1.101, -1.648e-4
-1.100, -1.655e-4
-1.099, -1.659e-4
-1.098, -1.661e-4
-1.097, -1.669e-4
-1.096, -1.673e-4
-1.095, -1.678e-4
-1.094, -1.683e-4
-1.093, -1.682e-4
-1.092, -1.690e-4
-1.091, -1.696e-4
-1.090, -1.695e-4
-1.089, -1.696e-4
-1.088, -1.699e-4
-1.087, -1.700e-4
-1.086, -1.706e-4
-1.085, -1.710e-4
-1.084, -1.713e-4
-1.083, -1.712e-4
-1.082, -1.710e-4
-1.081, -1.713e-4
-1.080, -1.716e-4
-1.079, -1.720e-4
-1.078, -1.720e-4
-1.077, -1.718e-4
-1.076, -1.718e-4
-1.075, -1.721e-4
-1.074, -1.717e-4
-1.073, -1.719e-4
-1.072, -1.717e-4
-1.071, -1.715e-4
-1.070, -1.715e-4
-1.069, -1.713e-4
-1.068, -1.710e-4
-1.067, -1.707e-4
-1.066, -1.704e-4
-1.065, -1.703e-4
-1.064, -1.700e-4
-1.063, -1.698e-4
-1.062, -1.694e-4
-1.061, -1.694e-4
-1.060, -1.690e-4
-1.059, -1.686e-4
-1.058, -1.678e-4
-1.057, -1.678e-4
-1.056, -1.669e-4
-1.055, -1.670e-4
-1.054, -1.667e-4
-1.053, -1.659e-4
-1.052, -1.656e-4
-1.051, -1.658e-4
-1.050, -1.653e-4
-1.049, -1.651e-4
-1.048, -1.642e-4
-1.047, -1.624e-4
-1.046, -1.633e-4
-1.045, -1.630e-4
-1.044, -1.628e-4
-1.043, -1.624e-4
-1.042, -1.618e-4
-1.041, -1.615e-4
-1.040, -1.608e-4
-1.039, -1.610e-4
-1.038, -1.600e-4
-1.037, -1.598e-4
-1.036, -1.595e-4
-1.035, -1.591e-4
-1.034, -1.589e-4
-1.033, -1.584e-4
-1.032, -1.580e-4
-1.031, -1.575e-4
-1.030, -1.574e-4
-1.029, -1.569e-4
-1.028, -1.561e-4
-1.027, -1.562e-4
-1.026, -1.556e-4
-1.025, -1.556e-4
-1.024, -1.554e-4
-1.023, -1.546e-4
-1.022, -1.545e-4
-1.021, -1.543e-4
-1.020, -1.534e-4
-1.019, -1.536e-4
-1.018, -1.535e-4
-1.017, -1.531e-4
-1.016, -1.523e-4
-1.015, -1.524e-4
-1.014, -1.524e-4
-1.013, -1.514e-4
-1.012, -1.520e-4
-1.011, -1.513e-4
-1.010, -1.512e-4
-1.009, -1.511e-4
-1.008, -1.507e-4
-1.007, -1.507e-4
-1.006, -1.508e-4
-1.005, -1.503e-4
-1.004, -1.505e-4
-1.003, -1.501e-4
-1.002, -1.500e-4
-1.001, -1.499e-4
-1.000, -1.290e-4
-1.001, -1.116e-4
-1.002, -1.023e-4
-1.003, -9.506e-5
-1.004, -8.874e-5
-1.005, -8.384e-5
-1.006, -7.876e-5
-1.007, -7.439e-5
-1.008, -7.035e-5
-1.009, -6.660e-5
-1.010, -6.315e-5
-1.011, -5.993e-5
-1.012, -5.661e-5
-1.013, -5.381e-5
-1.014, -5.104e-5
-1.015, -4.846e-5
-1.016, -4.601e-5
-1.017, -4.345e-5
-1.018, -4.115e-5
-1.019, -3.904e-5
-1.020, -3.709e-5
-1.021, -3.512e-5
-1.022, -3.305e-5
-1.023, -3.106e-5
-1.024, -2.920e-5
-1.025, -2.778e-5
-1.026, -2.606e-5
-1.027, -2.446e-5
-1.028, -2.285e-5
-1.029, -2.140e-5
-1.030, -2.024e-5
-1.031, -1.879e-5
-1.032, -1.737e-5
-1.033, -1.601e-5
-1.034, -1.482e-5
-1.035, -1.382e-5
-1.036, -1.259e-5
-1.037, -1.129e-5
-1.038, -1.025e-5
-1.039, -9.176e-6
-1.040, -8.364e-6
-1.041, -7.337e-6
-1.042, -6.240e-6
-1.043, -5.447e-6
-1.044, -4.490e-6
-1.045, -3.837e-6
-1.046, -2.934e-6
-1.047, -1.879e-6
-1.048, -1.082e-6
-1.049, -3.475e-7
-1.050, 3.717e-7
-1.051, 9.519e-7
-1.052, 1.951e-6
-1.053, 2.676e-6
-1.054, 3.366e-6
-1.055, 4.057e-6
-1.056, 4.594e-6
-1.057, 5.474e-6
-1.058, 6.278e-6
-1.059, 6.831e-6
-1.060, 7.490e-6
-1.061, 8.046e-6
-1.062, 8.949e-6
-1.063, 9.731e-6
-1.064, 1.035e-5
-1.065, 1.081e-5
-1.066, 1.153e-5
-1.067, 1.230e-5
-1.068, 1.313e-5
-1.069, 1.368e-5
-1.070, 1.422e-5
-1.071, 1.501e-5
-1.072, 1.577e-5
-1.073, 1.652e-5
-1.074, 1.710e-5
-1.075, 1.782e-5
-1.076, 1.854e-5
-1.077, 1.927e-5
-1.078, 2.008e-5
-1.079, 2.081e-5
-1.080, 2.128e-5
-1.081, 2.202e-5
-1.082, 2.297e-5
-1.083, 2.365e-5
-1.084, 2.456e-5
-1.085, 2.507e-5
-1.086, 2.576e-5
-1.087, 2.673e-5
-1.088, 2.748e-5
-1.089, 2.827e-5
-1.090, 2.887e-5
-1.091, 2.954e-5
-1.092, 3.044e-5
-1.093, 3.122e-5
-1.094, 3.196e-5
-1.095, 3.266e-5
-1.096, 3.324e-5
-1.097, 3.410e-5
-1.098, 3.487e-5
-1.099, 3.554e-5
-1.100, 3.620e-5
-1.101, 3.684e-5
-1.102, 3.772e-5
-1.103, 3.848e-5
-1.104, 3.906e-5
-1.105, 3.968e-5
-1.106, 4.037e-5
-1.107, 4.118e-5
-1.108, 4.204e-5
-1.109, 4.260e-5
-1.110, 4.315e-5
-1.111, 4.388e-5
-1.112, 4.456e-5
-1.113, 4.545e-5
-1.114, 4.613e-5
-1.115, 4.660e-5
-1.116, 4.736e-5
-1.117, 4.815e-5
-1.118, 4.881e-5
-1.119, 4.956e-5
-1.120, 5.006e-5
-1.121, 5.078e-5
-1.122, 5.168e-5
-1.123, 5.233e-5
-1.124, 5.302e-5
-1.125, 5.354e-5
-1.126, 5.424e-5
-1.127, 5.516e-5
-1.128, 5.570e-5
-1.129, 5.632e-5
-1.130, 5.700e-5
-1.131, 5.770e-5
-1.132, 5.845e-5
-1.133, 5.926e-5
-1.134, 5.989e-5
-1.135, 6.059e-5
-1.136, 6.108e-5
-1.137, 6.194e-5
-1.138, 6.280e-5
-1.139, 6.334e-5
-1.140, 6.392e-5
-1.141, 6.465e-5
-1.142, 6.543e-5
-1.143, 6.637e-5
-1.144, 6.686e-5
-1.145, 6.742e-5
-1.146, 6.826e-5
-1.147, 6.892e-5
-1.148, 6.981e-5
-1.149, 7.049e-5
-1.150, 7.106e-5
-1.151, 7.182e-5
-1.152, 7.245e-5
-1.153, 7.336e-5
-1.154, 7.387e-5
-1.155, 7.444e-5
-1.156, 7.528e-5
-1.157, 7.603e-5
-1.158, 7.683e-5
-1.159, 7.764e-5
-1.160, 7.793e-5
-1.161, 7.886e-5
-1.162, 7.972e-5
-1.163, 8.044e-5
-1.164, 8.121e-5
-1.165, 8.181e-5
-1.166, 8.247e-5
-1.167, 8.335e-5
-1.168, 8.415e-5
-1.169, 8.488e-5
-1.170, 8.553e-5
-1.171, 8.627e-5
-1.172, 8.722e-5
-1.173, 8.797e-5
-1.174, 8.866e-5
-1.175, 8.936e-5
-1.176, 9.010e-5
-1.177, 9.115e-5
-1.178, 9.210e-5
-1.179, 9.276e-5
-1.180, 9.346e-5
-1.181, 9.419e-5
-1.182, 9.508e-5
-1.183, 9.606e-5
-1.184, 9.668e-5
-1.185, 9.752e-5
-1.186, 9.825e-5
-1.187, 9.918e-5
-1.188, 1.001e-4
-1.189, 1.008e-4
-1.190, 1.016e-4
-1.191, 1.024e-4
-1.192, 1.032e-4
-1.193, 1.042e-4
-1.194, 1.050e-4
-1.195, 1.056e-4
-1.196, 1.066e-4
-1.197, 1.074e-4
-1.198, 1.082e-4
-1.199, 1.092e-4
-1.200, 1.098e-4
-1.201, 1.106e-4
-1.202, 1.115e-4
-1.203, 1.123e-4
-1.204, 1.134e-4
-1.205, 1.140e-4
-1.206, 1.147e-4
-1.207, 1.158e-4
-1.208, 1.164e-4
-1.209, 1.173e-4
-1.210, 1.181e-4
-1.211, 1.188e-4
-1.212, 1.199e-4
-1.213, 1.208e-4
-1.214, 1.214e-4
-1.215, 1.222e-4
-1.216, 1.229e-4
-1.217, 1.239e-4
-1.218, 1.248e-4
-1.219, 1.255e-4
-1.220, 1.263e-4
-1.221, 1.273e-4
-1.222, 1.280e-4
-1.223, 1.290e-4
-1.224, 1.298e-4
-1.225, 1.306e-4
-1.226, 1.314e-4
-1.227, 1.325e-4
-1.228, 1.333e-4
-1.229, 1.342e-4
-1.230, 1.345e-4
-1.231, 1.356e-4
-1.232, 1.362e-4
-1.233, 1.373e-4
-1.234, 1.389e-4
-1.235, 1.395e-4
-1.236, 1.402e-4
-1.237, 1.411e-4
-1.238, 1.418e-4
-1.239, 1.424e-4
-1.240, 1.430e-4
-1.241, 1.447e-4
-1.242, 1.462e-4
-1.243, 1.474e-4
-1.244, 1.492e-4
-1.245, 1.500e-4
-1.246, 1.510e-4
-1.247, 1.520e-4
-1.248, 1.531e-4
-1.249, 1.541e-4
-1.250, 1.553e-4
-1.251, 1.562e-4
-1.252, 1.577e-4
-1.253, 1.589e-4
-1.254, 1.602e-4
-1.255, 1.616e-4
-1.256, 1.626e-4
-1.257, 1.640e-4
-1.258, 1.656e-4
-1.259, 1.668e-4
-1.260, 1.683e-4
-1.261, 1.697e-4
-1.262, 1.712e-4
-1.263, 1.728e-4
-1.264, 1.742e-4
-1.265, 1.758e-4
-1.266, 1.775e-4
-1.267, 1.793e-4
-1.268, 1.810e-4
-1.269, 1.827e-4
-1.270, 1.844e-4
-1.271, 1.862e-4
-1.272, 1.881e-4
-1.273, 1.903e-4
-1.274, 1.923e-4
-1.275, 1.941e-4
-1.276, 1.961e-4
-1.277, 1.981e-4
-1.278, 2.004e-4
-1.279, 2.027e-4
-1.280, 2.049e-4
-1.281, 2.070e-4
-1.282, 2.094e-4
-1.283, 2.118e-4
-1.284, 2.143e-4
-1.285, 2.166e-4
-1.286, 2.192e-4
-1.287, 2.219e-4
-1.288, 2.245e-4
-1.289, 2.272e-4
-1.290, 2.299e-4
-1.291, 2.326e-4
-1.292, 2.359e-4
-1.293, 2.387e-4
-1.294, 2.417e-4
-1.295, 2.445e-4
-1.296, 2.475e-4
-1.297, 2.508e-4
-1.298, 2.542e-4
-1.299, 2.577e-4
-1.300, 2.609e-4
-1.301, 2.643e-4
-1.302, 2.682e-4
-1.303, 2.718e-4
-1.304, 2.754e-4
-1.305, 2.793e-4
-1.306, 2.832e-4
-1.307, 2.874e-4
-1.308, 2.915e-4
-1.309, 2.956e-4
-1.310, 2.999e-4
-1.311, 3.043e-4
-1.312, 3.090e-4
-1.313, 3.135e-4
-1.314, 3.180e-4
-1.315, 3.225e-4
-1.316, 3.276e-4
-1.317, 3.328e-4
-1.318, 3.380e-4
-1.319, 3.437e-4
-1.320, 3.490e-4
-1.321, 3.547e-4
-1.322, 3.605e-4
-1.323, 3.664e-4
-1.324, 3.728e-4
-1.325, 3.791e-4
-1.326, 3.850e-4
-1.327, 3.915e-4
-1.328, 3.977e-4
-1.329, 4.046e-4
-1.330, 4.114e-4
-1.331, 4.182e-4
-1.332, 4.256e-4
-1.333, 4.328e-4
-1.334, 4.403e-4
-1.335, 4.482e-4
-1.336, 4.563e-4
-1.337, 4.639e-4
-1.338, 4.722e-4
-1.339, 4.803e-4
-1.340, 4.887e-4
-1.341, 4.971e-4
-1.342, 5.061e-4
-1.343, 5.147e-4
-1.344, 5.237e-4
-1.345, 5.326e-4
-1.346, 5.422e-4
-1.347, 5.519e-4
-1.348, 5.616e-4
-1.349, 5.717e-4
-1.350, 5.814e-4
-1.351, 5.918e-4
-1.352, 6.028e-4
-1.353, 6.136e-4
-1.354, 6.246e-4
-1.355, 6.353e-4
-1.356, 6.467e-4
-1.357, 6.583e-4
-1.358, 6.707e-4
-1.359, 6.829e-4
-1.360, 6.948e-4
-1.361, 7.077e-4
-1.362, 7.205e-4
-1.363, 7.340e-4
-1.364, 7.472e-4
-1.365, 7.608e-4
-1.366, 7.743e-4
-1.367, 7.881e-4
-1.368, 8.018e-4
-1.369, 8.173e-4
-1.370, 8.327e-4
-1.371, 8.469e-4
-1.372, 8.622e-4
-1.373, 8.780e-4
-1.374, 8.942e-4
-1.375, 9.102e-4
-1.376, 9.264e-4
-1.377, 9.429e-4
-1.378, 9.597e-4
-1.379, 9.774e-4
-1.380, 9.953e-4
-1.381, 1.013e-3
-1.382, 1.031e-3
-1.383, 1.049e-3
-1.384, 1.068e-3
-1.385, 1.086e-3
-1.386, 1.106e-3
-1.387, 1.125e-3
-1.388, 1.145e-3
-1.389, 1.165e-3
-1.390, 1.185e-3
-1.391, 1.205e-3
-1.392, 1.226e-3
-1.393, 1.247e-3
-1.394, 1.269e-3
-1.395, 1.290e-3
-1.396, 1.312e-3
-1.397, 1.334e-3
-1.398, 1.357e-3
-1.399, 1.380e-3
-1.400, 1.356e-3
-1.399, 1.312e-3
-1.398, 1.281e-3
-1.397, 1.250e-3
-1.396, 1.221e-3
-1.395, 1.192e-3
-1.394, 1.164e-3
-1.393, 1.136e-3
-1.392, 1.109e-3
-1.391, 1.083e-3
-1.390, 1.058e-3
-1.389, 1.032e-3
-1.388, 1.008e-3
-1.387, 9.851e-4
-1.386, 9.622e-4
-1.385, 9.391e-4
-1.384, 9.176e-4
-1.383, 8.958e-4
-1.382, 8.751e-4
-1.381, 8.552e-4
-1.380, 8.350e-4
-1.379, 8.150e-4
-1.378, 7.965e-4
-1.377, 7.781e-4
-1.376, 7.601e-4
-1.375, 7.421e-4
-1.374, 7.249e-4
-1.373, 7.086e-4
-1.372, 6.925e-4
-1.371, 6.760e-4
-1.370, 6.605e-4
-1.369, 6.454e-4
-1.368, 6.304e-4
-1.367, 6.147e-4
-1.366, 6.004e-4
-1.365, 5.866e-4
-1.364, 5.729e-4
-1.363, 5.592e-4
-1.362, 5.463e-4
-1.361, 5.346e-4
-1.360, 5.221e-4
-1.359, 5.089e-4
-1.358, 4.976e-4
-1.357, 4.869e-4
-1.356, 4.817e-4
-1.355, 4.668e-4
-1.354, 4.553e-4
-1.353, 4.445e-4
-1.352, 4.341e-4
-1.351, 4.235e-4
-1.350, 4.133e-4
-1.349, 4.035e-4
-1.348, 3.938e-4
-1.347, 3.846e-4
-1.346, 3.756e-4
-1.345, 3.662e-4
-1.344, 3.575e-4
-1.343, 3.489e-4
-1.342, 3.407e-4
-1.341, 3.324e-4
-1.340, 3.238e-4
-1.339, 3.158e-4
-1.338, 3.084e-4
-1.337, 3.011e-4
-1.336, 2.951e-4
-1.335, 2.871e-4
-1.334, 2.804e-4
-1.333, 2.738e-4
-1.332, 2.668e-4
-1.331, 2.593e-4
-1.330, 2.524e-4
-1.329, 2.457e-4
-1.328, 2.396e-4
-1.327, 2.332e-4
-1.326, 2.269e-4
-1.325, 2.210e-4
-1.324, 2.150e-4
-1.323, 2.093e-4
-1.322, 2.038e-4
-1.321, 1.982e-4
-1.320, 1.928e-4
-1.319, 1.871e-4
-1.318, 1.819e-4
-1.317, 1.771e-4
-1.316, 1.719e-4
-1.315, 1.670e-4
-1.314, 1.622e-4
-1.313, 1.574e-4
-1.312, 1.528e-4
-1.311, 1.481e-4
-1.310, 1.434e-4
-1.309, 1.397e-4
-1.308, 1.352e-4
-1.307, 1.310e-4
-1.306, 1.271e-4
-1.305, 1.230e-4
-1.304, 1.190e-4
-1.303, 1.150e-4
-1.302, 1.114e-4
-1.301, 1.077e-4
-1.300, 1.040e-4
-1.299, 1.004e-4
-1.298, 9.701e-5
-1.297, 9.367e-5
-1.296, 9.047e-5
-1.295, 8.694e-5
-1.294, 8.375e-5
-1.293, 8.052e-5
-1.292, 7.752e-5
-1.291, 7.426e-5
-1.290, 7.106e-5
-1.289, 6.775e-5
-1.288, 6.482e-5
-1.287, 6.182e-5
-1.286, 5.862e-5
-1.285, 5.553e-5
-1.284, 5.252e-5
-1.283, 4.964e-5
-1.282, 4.675e-5
-1.281, 4.372e-5
-1.280, 4.063e-5
-1.279, 3.779e-5
-1.278, 3.511e-5
-1.277, 3.251e-5
-1.276, 2.979e-5
-1.275, 2.659e-5
-1.274, 2.439e-5
-1.273, 2.224e-5
-1.272, 2.019e-5
-1.271, 1.793e-5
-1.270, 1.564e-5
-1.269, 1.372e-5
-1.268, 1.208e-5
-1.267, 1.054e-5
-1.266, 8.625e-6
-1.265, 6.712e-6
-1.264, 5.033e-6
-1.263, 3.361e-6
-1.262, 1.644e-6
-1.261, 5.209e-8
-1.260, -1.700e-6
-1.259, -3.275e-6
-1.258, -4.855e-6
-1.257, -6.525e-6
-1.256, -7.875e-6
-1.255, -9.576e-6
-1.254, -1.117e-5
-1.253, -1.246e-5
-1.252, -1.376e-5
-1.251, -1.513e-5
-1.250, -1.639e-5
-1.249, -1.779e-5
-1.248, -1.874e-5
-1.247, -1.972e-5
-1.246, -2.086e-5
-1.245, -2.200e-5
-1.244, -2.307e-5
-1.243, -2.405e-5
-1.242, -2.488e-5
-1.241, -2.587e-5
-1.240, -2.684e-5
-1.239, -2.788e-5
-1.238, -2.878e-5
-1.237, -2.949e-5
-1.236, -3.033e-5
-1.235, -3.146e-5
-1.234, -3.232e-5
-1.233, -3.315e-5
-1.232, -3.383e-5
-1.231, -3.467e-5
-1.230, -3.566e-5
-1.229, -3.683e-5
-1.228, -3.755e-5
-1.227, -3.807e-5
-1.226, -3.885e-5
-1.225, -3.982e-5
-1.224, -4.058e-5
-1.223, -4.127e-5
-1.222, -4.199e-5
-1.221, -4.256e-5
-1.220, -4.361e-5
-1.219, -4.438e-5
-1.218, -4.509e-5
-1.217, -4.573e-5
-1.216, -4.626e-5
-1.215, -4.714e-5
-1.214, -4.820e-5
-1.213, -4.855e-5
-1.212, -4.923e-5
-1.211, -5.014e-5
-1.210, -5.094e-5
-1.209, -5.186e-5
-1.208, -5.247e-5
-1.207, -5.331e-5
-1.206, -5.415e-5
-1.205, -5.516e-5
-1.204, -5.607e-5
-1.203, -5.708e-5
-1.202, -5.785e-5
-1.201, -5.889e-5
-1.200, -5.987e-5
-1.199, -6.102e-5
-1.198, -6.207e-5
-1.197, -6.300e-5
-1.196, -6.423e-5
-1.195, -6.541e-5
-1.194, -6.664e-5
-1.193, -6.762e-5
-1.192, -6.854e-5
-1.191, -6.969e-5
-1.190, -7.079e-5
-1.189, -7.173e-5
-1.188, -7.265e-5
-1.187, -7.359e-5
-1.186, -7.495e-5
-1.185, -7.597e-5
-1.184, -7.680e-5
-1.183, -7.750e-5
-1.182, -7.843e-5
-1.181, -7.911e-5
-1.180, -8.008e-5
-1.179, -8.091e-5
-1.178, -8.194e-5
-1.177, -8.254e-5
-1.176, -8.348e-5
-1.175, -8.434e-5
-1.174, -8.535e-5
-1.173, -8.597e-5
-1.172, -8.671e-5
-1.171, -8.760e-5
-1.170, -8.833e-5
-1.169, -8.957e-5
-1.168, -8.998e-5
-1.167, -9.077e-5
-1.166, -9.154e-5
-1.165, -9.245e-5
-1.164, -9.340e-5
-1.163, -9.382e-5
-1.162, -9.457e-5
-1.161, -9.566e-5
-1.160, -9.650e-5
-1.159, -9.748e-5
-1.158, -9.834e-5
-1.157, -9.887e-5
-1.156, -9.984e-5
-1.155, -1.007e-4
-1.154, -1.015e-4
-1.153, -1.022e-4
-1.152, -1.029e-4
-1.151, -1.036e-4
-1.150, -1.047e-4
-1.149, -1.055e-4
-1.148, -1.064e-4
-1.147, -1.071e-4
-1.146, -1.079e-4
-1.145, -1.089e-4
-1.144, -1.099e-4
-1.143, -1.107e-4
-1.142, -1.116e-4
-1.141, -1.121e-4
-1.140, -1.132e-4
-1.139, -1.139e-4
-1.138, -1.147e-4
-1.137, -1.154e-4
-1.136, -1.163e-4
-1.135, -1.170e-4
-1.134, -1.183e-4
-1.133, -1.191e-4
-1.132, -1.198e-4
-1.131, -1.209e-4
-1.130, -1.217e-4
-1.129, -1.228e-4
-1.128, -1.235e-4
-1.127, -1.241e-4
-1.126, -1.251e-4
-1.125, -1.260e-4
-1.124, -1.269e-4
-1.123, -1.276e-4
-1.122, -1.283e-4
-1.121, -1.292e-4
-1.120, -1.298e-4
-1.119, -1.310e-4
-1.118, -1.318e-4
-1.117, -1.323e-4
-1.116, -1.331e-4
-1.115, -1.341e-4
-1.114, -1.349e-4
-1.113, -1.357e-4
-1.112, -1.363e-4
-1.111, -1.370e-4
-1.110, -1.377e-4
-1.109, -1.385e-4
-1.108, -1.392e-4
-1.107, -1.397e-4
-1.106, -1.402e-4
-1.105, -1.413e-4
-1.104, -1.417e-4
-1.103, -1.422e-4
-1.102, -1.427e-4
-1.101, -1.430e-4
-1.100, -1.441e-4
-1.099, -1.447e-4
-1.098, -1.451e-4
-1.097, -1.455e-4
-1.096, -1.459e-4
-1.095, -1.466e-4
-1.094, -1.471e-4
-1.093, -1.476e-4
-1.092, -1.480e-4
-1.091, -1.484e-4
-1.090, -1.487e-4
-1.089, -1.494e-4
-1.088, -1.497e-4
-1.087, -1.499e-4
-1.086, -1.503e-4
-1.085, -1.506e-4
-1.084, -1.509e-4
-1.083, -1.512e-4
-1.082, -1.511e-4
-1.081, -1.514e-4
-1.080, -1.517e-4
-1.079, -1.521e-4
-1.078, -1.523e-4
-1.077, -1.523e-4
-1.076, -1.526e-4
-1.075, -1.532e-4
-1.074, -1.529e-4
-1.073, -1.532e-4
-1.072, -1.528e-4
-1.071, -1.532e-4
-1.070, -1.535e-4
-1.069, -1.533e-4
-1.068, -1.534e-4
-1.067, -1.533e-4
-1.066, -1.531e-4
-1.065, -1.534e-4
-1.064, -1.532e-4
-1.063, -1.532e-4
-1.062, -1.531e-4
-1.061, -1.528e-4
-1.060, -1.530e-4
-1.059, -1.529e-4
-1.058, -1.527e-4
-1.057, -1.526e-4
-1.056, -1.521e-4
-1.055, -1.523e-4
-1.054, -1.521e-4
-1.053, -1.519e-4
-1.052, -1.514e-4
-1.051, -1.512e-4
-1.050, -1.511e-4
-1.049, -1.509e-4
-1.048, -1.508e-4
-1.047, -1.497e-4
-1.046, -1.498e-4
-1.045, -1.494e-4
-1.044, -1.494e-4
-1.043, -1.494e-4
-1.042, -1.488e-4
-1.041, -1.488e-4
-1.040, -1.486e-4
-1.039, -1.485e-4
-1.038, -1.482e-4
-1.037, -1.477e-4
-1.036, -1.477e-4
-1.035, -1.475e-4
-1.034, -1.472e-4
-1.033, -1.468e-4
-1.032, -1.465e-4
-1.031, -1.464e-4
-1.030, -1.462e-4
-1.029, -1.460e-4
-1.028, -1.457e-4
-1.027, -1.456e-4
-1.026, -1.452e-4
-1.025, -1.453e-4
-1.024, -1.443e-4
-1.023, -1.446e-4
-1.022, -1.446e-4
-1.021, -1.444e-4
-1.020, -1.445e-4
-1.019, -1.445e-4
-1.018, -1.441e-4
-1.017, -1.439e-4
-1.016, -1.438e-4
-1.015, -1.439e-4
-1.014, -1.440e-4
-1.013, -1.436e-4
-1.012, -1.435e-4
-1.011, -1.432e-4
-1.010, -1.432e-4
-1.009, -1.434e-4
-1.008, -1.433e-4
-1.007, -1.432e-4
-1.006, -1.430e-4
-1.005, -1.430e-4
-1.004, -1.431e-4
-1.003, -1.431e-4
-1.002, -1.431e-4
-1.001, -1.431e-4
