Potential V vs RHE, Current mA cm-2
0.013299999999999867,-0.15476941620523502
0.012299999999999978,-0.2395106230671507
0.011299999999999866,-0.27601017460366867
0.010299999999999976,-0.29949438218142826
0.009299999999999864,-0.31873445585959276
0.008299999999999974,-0.3396721830975953
0.007299999999999862,-0.35990255468566534
0.006299999999999972,-0.38211352209354643
0.00529999999999986,-0.3959776928322238
0.0042999999999999705,-0.4119639305206987
0.0032999999999998586,-0.4266769280392951
0.0022999999999999687,-0.4405410987779724
0.0012999999999998568,-0.4548296829066093
0.00029999999999996696,-0.465157075395624
-0.000700000000000145,-0.47322092980485475
-0.0017000000000000348,-0.48227508212399106
-0.0027000000000001467,-0.48892422523335666
-0.0037000000000000366,-0.49981750224231747
-0.0047000000000001485,-0.5054763474417775
-0.005700000000000038,-0.5098619524713591
-0.00670000000000015,-0.5155207976708194
-0.00770000000000004,-0.521321114000266
-0.008700000000000152,-0.5315070353592943
-0.009700000000000042,-0.5349023424789704
-0.010700000000000154,-0.538439120728633
-0.011700000000000044,-0.540419716548444
-0.012700000000000156,-0.5480591575677152
-0.013700000000000045,-0.5523032914673103
-0.014700000000000157,-0.5581036077967569
-0.015700000000000047,-0.559235376836649
-0.01670000000000016,-0.5634795107362441
-0.01770000000000005,-0.5695627693256637
-0.01870000000000016,-0.5747972011351644
-0.01970000000000005,-0.5791828061647459
-0.020700000000000163,-0.580314575204638
-0.021700000000000053,-0.5847001802342197
-0.022700000000000164,-0.5907834388236393
-0.023700000000000054,-0.596300812893113
-0.024700000000000166,-0.5994131777528161
-0.025700000000000056,-0.6035158405224247
-0.026700000000000168,-0.6050720229522761
-0.027700000000000058,-0.6120041083216149
-0.02870000000000017,-0.6183703091710075
-0.02970000000000006,-0.6226144430706027
-0.03070000000000017,-0.6255853368003192
-0.03170000000000006,-0.6285562305300357
-0.03270000000000017,-0.6335077200795635
-0.03370000000000006,-0.6421374590087401
-0.034700000000000175,-0.6438351125685782
-0.035700000000000065,-0.6477963042082002
-0.03670000000000018,-0.6521819092377819
-0.03770000000000007,-0.6585481100871745
-0.03870000000000018,-0.6657631377164863
-0.03970000000000007,-0.6694413870961354
-0.04070000000000018,-0.672978165345798
-0.04170000000000007,-0.6773637703753796
-0.04270000000000018,-0.6840129134847454
-0.04370000000000007,-0.6906620565941108
-0.044700000000000184,-0.6966038440535441
-0.045700000000000074,-0.6981600264833956
-0.046700000000000186,-0.7042432850728153
-0.047700000000000076,-0.7110338993121675
-0.04870000000000019,-0.7192392248513847
-0.04970000000000008,-0.7243321855308987
-0.05070000000000019,-0.7264542524806964
-0.05170000000000008,-0.73197162655017
-0.05270000000000019,-0.7406013654793466
-0.05370000000000008,-0.7482408064986178
-0.05470000000000019,-0.7536167094381051
-0.05570000000000008,-0.7574364299477406
-0.056700000000000195,-0.7629538040172142
-0.057700000000000085,-0.7725738408562965
-0.058700000000000196,-0.7785156283157296
-0.059700000000000086,-0.7864380115949738
-0.0607000000000002,-0.7911065588845285
-0.06170000000000009,-0.7991704132937593
-0.0627000000000002,-0.8061024986630978
-0.06370000000000009,-0.8124686995124906
-0.0647000000000002,-0.8201081405317618
-0.06570000000000009,-0.827181697031087
-0.0667000000000002,-0.8297281773708441
-0.0677000000000001,-0.8401970409898453
-0.0687000000000002,-0.849109722178995
-0.0697000000000001,-0.8550515096384281
-0.07070000000000021,-0.864530075347524
-0.0717000000000001,-0.8675009690772405
-0.07270000000000021,-0.8769795347863362
-0.0737000000000001,-0.8874483984053376
-0.07470000000000021,-0.8946634260346491
-0.0757000000000001,-0.9006052134940823
-0.07670000000000021,-0.909800836943205
-0.0777000000000001,-0.9177232202224491
-0.07870000000000021,-0.9288994394913831
-0.0797000000000001,-0.9361144671206947
-0.08070000000000022,-0.9427636102300604
-0.0817000000000001,-0.9509689357692777
-0.08270000000000022,-0.9594572035684679
-0.08370000000000011,-0.9726140186572129
-0.08470000000000022,-0.9812437575863894
-0.08570000000000011,-0.9877514295657687
-0.08670000000000022,-0.9975129375348374
-0.08770000000000011,-1.0079818011538386
-0.08870000000000022,-1.0173188957329478
-0.08970000000000011,-1.0297683551717602
-0.09070000000000022,-1.0354272003712204
-0.09170000000000011,-1.0444813526903567
-0.09270000000000023,-1.0567893409991824
-0.09370000000000012,-1.068107031398103
-0.09470000000000023,-1.0790003084070634
-0.09570000000000012,-1.0879129895962132
-0.09670000000000023,-1.0983818532152145
-0.09770000000000012,-1.1095580724841483
-0.09870000000000023,-1.1222904741829336
-0.09970000000000012,-1.1327593378019347
-0.10070000000000023,-1.1443599704608283
-0.10170000000000012,-1.1525652960000454
-0.10270000000000024,-1.1664294667387227
-0.10370000000000013,-1.1810009931273324
-0.10470000000000024,-1.1924601546562394
-0.10570000000000013,-1.203919316185146
-0.10670000000000024,-1.2141052375441745
-0.10770000000000013,-1.2306573597525956
-0.10870000000000024,-1.244521530491273
-0.10970000000000013,-1.255273336370247
-0.11070000000000024,-1.2697033916288705
-0.11170000000000013,-1.280596668637831
-0.11270000000000002,-1.2944608393765085
-0.11370000000000013,-1.3128520862747541
-0.11470000000000002,-1.3260089013634988
-0.11570000000000014,-1.3391657164522437
-0.11670000000000003,-1.3527469449309482
-0.11770000000000014,-1.367318471319558
-0.11870000000000003,-1.3865585449977225
-0.11970000000000014,-1.3999983023464404
-0.12070000000000003,-1.4147112998650369
-0.12170000000000014,-1.431687835463417
-0.12270000000000003,-1.4472496597619326
-0.12370000000000014,-1.4656409066601779
-0.12470000000000003,-1.4826174422585585
-0.12570000000000014,-1.498179266557074
-0.12670000000000003,-1.5151558021554543
-0.12770000000000015,-1.5321323377538347
-0.12870000000000004,-1.5547677185516753
-0.12970000000000015,-1.5745736767497858
-0.13070000000000004,-1.5887207897484361
-0.13170000000000015,-1.6071120366466816
-0.13270000000000004,-1.626917994844792
-0.13370000000000015,-1.6481386643427678
-0.13470000000000004,-1.6693593338407433
-0.13570000000000015,-1.6863358694391237
-0.13670000000000004,-1.7075565389370995
-0.13770000000000016,-1.7316066310348048
-0.13870000000000005,-1.7542420118326456
-0.13970000000000016,-1.776877392630486
-0.14070000000000005,-1.7952686395287314
-0.14170000000000016,-1.8179040203265722
-0.14270000000000005,-1.8433688237241426
-0.14370000000000016,-1.8674189158218486
-0.14470000000000005,-1.891469007919554
-0.14570000000000016,-1.9155191000172598
-0.14670000000000005,-1.9381544808151003
-0.14770000000000016,-1.963619284212671
-0.14870000000000005,-1.9919135102099716
-0.14970000000000017,-2.0159636023076772
-0.15070000000000006,-2.044257828304978
-0.15170000000000017,-2.0697226317025486
-0.15270000000000006,-2.0980168576998492
-0.15370000000000017,-2.12914050629688
-0.15470000000000006,-2.1531905983945863
-0.15570000000000017,-2.1828995356917518
-0.15670000000000006,-2.2111937616890525
-0.15770000000000017,-2.2409026989862184
-0.15870000000000006,-2.273441058883114
-0.15970000000000018,-2.3045647074801447
-0.16070000000000007,-2.3328589334774454
-0.16170000000000018,-2.3653972933743415
-0.16270000000000007,-2.3979356532712375
-0.16370000000000018,-2.438962280967323
-0.16470000000000007,-2.4743300634639493
-0.16570000000000018,-2.50262428946125
-0.16670000000000007,-2.5351626493581456
-0.16770000000000018,-2.5691157205549064
-0.16870000000000007,-2.610142348250993
-0.16970000000000018,-2.6455101307476188
-0.17070000000000007,-2.6822926245441097
-0.17170000000000019,-2.7219045409403306
-0.17270000000000008,-2.7601017460366863
-0.1737000000000002,-2.798298951133043
-0.17470000000000008,-2.8379108675292635
-0.1757000000000002,-2.877522783925485
-0.17670000000000008,-2.919964122921436
-0.1777000000000002,-2.9609907506175217
-0.17870000000000008,-3.003432089613473
-0.1797000000000002,-3.0487028512091543
-0.18070000000000008,-3.08972947890524
-0.1817000000000002,-3.135000240500921
-0.18270000000000008,-3.1802710020966023
-0.1837000000000002,-3.2297858975918787
-0.1847000000000001,-3.276471370487425
-0.1857000000000002,-3.321742132083106
-0.1867000000000001,-3.3670128936787878
-0.1877000000000002,-3.4179425004739286
-0.1887000000000001,-3.4674573959692045
-0.1897000000000002,-3.519801714064211
-0.1907000000000001,-3.5707313208593527
-0.1917000000000001,-3.6188315050547635
-0.19269999999999998,-3.6725905344496357
-0.1937000000000001,-3.730593697744102
-0.19469999999999998,-3.784352727138973
-0.1957000000000001,-3.835282333934114
-0.19669999999999999,-3.8918707859287163
-0.1977000000000001,-3.9512886605230477
-0.1987,-4.013535957717109
-0.1997000000000001,-4.068709698411845
-0.2007,-4.126712861706312
-0.2017000000000001,-4.1889601589003735
-0.2027,-4.2483780334947046
-0.2037000000000001,-4.317698887188092
-0.2047,-4.381360895682018
-0.2057000000000001,-4.443608192876081
-0.2067,-4.505855490070142
-0.2077000000000001,-4.570932209863933
-0.2087,-4.64308248615705
-0.2097000000000001,-4.715232762450168
-0.2107,-4.778894770944094
-0.2117000000000001,-4.851045047237211
-0.2127,-4.923195323530328
-0.2137000000000001,-4.99958973372304
-0.2147,-5.075984143915751
-0.2157000000000001,-5.155207976708193
-0.2167,-5.22452883040158
-0.21770000000000012,-5.299508529294427
-0.2187,-5.385805918586194
-0.21970000000000012,-5.466444462678503
-0.2207,-5.5414241615713475
-0.22170000000000012,-5.617818571764061
-0.2227,-5.701286538456097
-0.22370000000000012,-5.788998639047731
-0.2247,-5.878125450939227
-0.22570000000000012,-5.96583755153086
-0.2267,-6.049305518222896
-0.22770000000000012,-6.138432330114394
-0.22870000000000001,-6.230388564605621
-0.22970000000000013,-6.322344799096849
-0.23070000000000002,-6.4128863222882115
-0.23170000000000013,-6.504842556779439
-0.23270000000000002,-6.601042925170261
-0.23370000000000013,-6.698658004860949
-0.23470000000000002,-6.794858373251771
-0.23570000000000013,-6.889644030342729
-0.23670000000000002,-6.995747377832608
-0.2376999999999999,-7.099021302722755
-0.23870000000000002,-7.2079540728123614
-0.2396999999999999,-7.306983863802915
-0.24070000000000003,-7.411672499992927
-0.24169999999999991,-7.514946424883075
-0.24270000000000003,-7.621049772372953
-0.24369999999999992,-7.729982542462561
-0.24470000000000003,-7.841744735151897
-0.24569999999999992,-7.956336350440965
-0.24670000000000003,-8.070927965730034
-0.24769999999999992,-8.172787179320316
-0.24870000000000003,-8.28596408330952
-0.24969999999999992,-8.404799832498183
-0.25070000000000003,-8.519391447787251
-0.2516999999999999,-8.63681248567605
-0.25270000000000004,-8.752818812264982
-0.2536999999999999,-8.874483984053375
-0.25470000000000004,-8.998978578441498
-0.2556999999999999,-9.119229038930026
-0.25670000000000004,-9.246553055917879
-0.25769999999999993,-9.376706495505463
-0.25870000000000004,-9.495542244694127
-0.25969999999999993,-9.625695684281709
-0.26070000000000004,-9.761507969068754
-0.26169999999999993,-9.888831986056605
-0.26270000000000004,-10.020400136944055
-0.26369999999999993,-10.143480020032312
-0.26470000000000005,-10.275048170919762
-0.26569999999999994,-10.402372187907615
-0.26670000000000005,-10.541013895294387
-0.26769999999999994,-10.67682618008143
-0.26870000000000005,-10.823956155267396
-0.26969999999999994,-10.955524306154844
-0.27070000000000005,-11.094166013541617
-0.27169999999999994,-11.23280772092839
-0.27270000000000005,-11.368620005715435
-0.27369999999999994,-11.51292055830167
-0.27470000000000006,-11.660050533487633
-0.27569999999999995,-11.797277529574542
-0.27670000000000006,-11.94299279346064
-0.27769999999999995,-12.087293346046872
-0.27870000000000006,-12.240082166432298
-0.27969999999999995,-12.398529832017182
-0.28070000000000006,-12.54141567330355
-0.28169999999999995,-12.680057380690325
-0.28270000000000006,-12.825772644576423
-0.28369999999999995,-12.977146753661982
-0.28470000000000006,-13.125691440147811
-0.28569999999999995,-13.272821415333775
-0.28670000000000007,-13.428439658318927
-0.28769999999999996,-13.574154922205025
-0.28870000000000007,-13.732602587789911
-0.28969999999999996,-13.885391408175334
-0.29070000000000007,-14.0325213833613
-0.29169999999999996,-14.189554337646317
-0.29270000000000007,-14.331025467632822
-0.29369999999999996,-14.486643710617974
-0.2947000000000001,-14.642261953603128
-0.29569999999999996,-14.797880196588284
-0.2967000000000001,-14.939351326574789
-0.29769999999999996,-15.080822456561293
-0.2987000000000001,-15.236440699546446
-0.29969999999999997,-15.3920589425316
-0.3007000000000001,-15.533530072518102
-0.30169999999999997,-15.689148315503255
-0.3027000000000001,-15.844766558488407
-0.30369999999999997,-15.986237688474914
-0.3047000000000001,-16.141855931460068
-0.30569999999999997,-16.29747417444522
-0.3067000000000001,-16.438945304431726
-0.3077,-16.580416434418233
-0.3087000000000001,-16.721887564404735
-0.3097,-16.877505807389888
-0.3107000000000001,-17.047271163373694
-0.3117,-17.20288940635885
-0.3127000000000001,-17.34436053634535
-0.3137,-17.499978779330505
-0.3147000000000001,-17.655597022315657
-0.3157,-17.797068152302163
-0.3167000000000001,-17.938539282288666
-0.3177,-18.09415752527382
-0.3187000000000001,-18.249775768258974
-0.3197,-18.419541124242777
-0.3207000000000001,-18.57515936722793
-0.3217,-18.759071836210385
-0.3227000000000001,-18.94298430519284
-0.3237,-19.112749661176647
-0.3247000000000001,-19.296662130159103
-0.3257,-19.49472171214021
-0.3267000000000001,-19.69278129412131
-0.3277,-19.904987989101066
-0.3287000000000001,-20.10304757108217
-0.3297,-20.315254266061928
-0.3307000000000001,-20.51331384804303
-0.3317,-20.72552054302279
-0.3327000000000001,-20.95187435100119
-0.3337,-21.16408104598095
-0.3347000000000001,-21.390434853959356
-0.3357,-21.602641548939108
-0.3367000000000001,-21.828995356917517
-0.3377,-22.097790503891872
-0.3387000000000001,-22.36658565086623
-0.3397,-22.649527910839236
-0.3407000000000001,-22.91832305781359
-0.3417,-23.187118204787954
-0.3427000000000001,-23.49835469075826
-0.3437,-23.795444063729917
-0.3447000000000001,-24.120827662698876
-0.3457,-24.44621126166783
-0.3467000000000001,-24.74330063463949
-0.3477,-25.06868423360845
-0.3487000000000001,-25.39406783257741
-0.3497,-25.747745657543668
-0.3507000000000001,-26.11557059550858
-0.3517,-26.469248420474838
-0.3527000000000001,-26.808779132442442
-0.3537,-27.190751183406004
-0.3547000000000001,-27.572723234369565
-0.3557,-27.968842398331773
-0.35670000000000013,-28.336667336296685
-0.3577,-28.676198048264297
-0.35870000000000013,-29.029875873230555
-0.3597,-29.411847924194117
-0.36070000000000013,-29.822114201154974
-0.3617,-30.204086252118536
-0.3626999999999999,-30.58605830308209
-0.3637,-30.953883241047
-0.3646999999999999,-31.335855292010564
-0.3657,-31.731974455972775
-0.3666999999999999,-32.09979939393769
-0.3677,-32.41103587990799
-0.3686999999999999,-32.7222723658783
-0.36970000000000003,-33.06180307784591
-0.3706999999999999,-33.40133378981351
-0.37170000000000003,-33.712570275783825
-0.3726999999999999,-34.03795387475279
-0.37370000000000003,-34.32089613472579
-0.3746999999999999,-34.5472499427042
-0.37570000000000003,-34.787750863681254
-0.3766999999999999,-35.07069312365426
-0.37770000000000004,-35.32534115762997
-0.3786999999999999,-35.594136304604326
-0.37970000000000004,-35.806342999584075
-0.3806999999999999,-36.01854969456383
-0.38170000000000004,-36.21660927654494
-0.38269999999999993,-36.44296308452335
-0.38370000000000004,-36.69761111849905
-0.38469999999999993,-36.83908224848555
-0.38570000000000004,-36.99470049147071
-0.38669999999999993,-36.329786180534136
-0.38570000000000004,-35.05654601065561
-0.38469999999999993,-33.86818851876898
-0.38370000000000004,-32.73641947887695
-0.38269999999999993,-31.632944664982226
-0.38170000000000004,-30.58605830308209
-0.3806999999999999,-29.525024828183312
-0.37970000000000004,-28.53472691827779
-0.3786999999999999,-27.601017460366865
-0.37770000000000004,-26.709749341451893
-0.3766999999999999,-25.832628335535567
-0.37570000000000003,-24.997948668615198
-0.3746999999999999,-24.20571034069078
-0.37370000000000003,-23.45591335176231
-0.3726999999999999,-22.76270481482844
-0.37170000000000003,-22.04120205189727
-0.3706999999999999,-21.362140627962056
-0.36970000000000003,-20.711373430024135
-0.3686999999999999,-20.088900458083522
-0.3677,-19.49472171214021
-0.3666999999999999,-18.91469007919554
-0.3657,-18.320511333252224
-0.3646999999999999,-17.76877392630486
-0.3637,-17.2453307453548
-0.3626999999999999,-16.764328903400685
-0.3617,-16.28332706144657
-0.36070000000000013,-15.816472332491113
-0.3597,-15.363764716534297
-0.35870000000000013,-14.911057100577487
-0.3577,-14.486643710617974
-0.35670000000000013,-14.070718588457655
-0.3557,-13.66186702279666
-0.3547000000000001,-13.27140670403391
-0.3537,-12.896508209569674
-0.3527000000000001,-12.545659807203146
-0.3517,-12.208958517835267
-0.3507000000000001,-11.860939538068468
-0.3497,-11.528482382600183
-0.3487000000000001,-11.222904741829336
-0.3477,-10.881959318561863
-0.3467000000000001,-10.556575719592905
-0.3457,-10.307586530816659
-0.3447000000000001,-10.035961961242569
-0.3437,-9.745946144770238
-0.3427000000000001,-9.450271483098444
-0.3417,-9.174402779624762
-0.3407000000000001,-8.918340034349193
-0.3397,-8.650959598674698
-0.3387000000000001,-8.410458677697642
-0.3377,-8.171372468020452
-0.3367000000000001,-7.933700969643125
-0.3357,-7.703103027765124
-0.3347000000000001,-7.4937257553851
-0.3337,-7.281519060405343
-0.3327000000000001,-7.082044767124374
-0.3317,-6.879741051243673
-0.3307000000000001,-6.680266757962703
-0.3297,-6.480792464681733
-0.3287000000000001,-6.2954652843994126
-0.3277,-6.1186263719162834
-0.3267000000000001,-5.936128614233694
-0.3257,-5.766363258249889
-0.3247000000000001,-5.609330303964871
-0.3237,-5.4353208140814715
-0.3227000000000001,-5.276873148496587
-0.3217,-5.118425482911703
-0.3207000000000001,-4.961392528626684
-0.3197,-4.819921398640179
-0.3187000000000001,-4.671376712154351
-0.3177,-4.531320293467712
-0.3167000000000001,-4.3926785860809385
-0.3157,-4.26393985779322
-0.3147000000000001,-4.138030552105232
-0.3137,-4.0050476899179195
-0.3127000000000001,-3.8805530955297955
-0.3117,-3.7546437898418072
-0.3107000000000001,-3.6343933293532795
-0.3097,-3.519801714064211
-0.3087000000000001,-3.408039521374873
-0.3077,-3.2892037721862106
-0.3067000000000001,-3.1845151359961976
-0.30569999999999997,-3.0854853450056448
-0.3047000000000001,-2.9807967088156326
-0.30369999999999997,-2.8789374952253497
-0.3027000000000001,-2.7770782816350668
-0.30169999999999997,-2.6766337793446495
-0.3007000000000001,-2.583262833553557
-0.29969999999999997,-2.4927213103621946
-0.2987000000000001,-2.4007650758709675
-0.29769999999999996,-2.3130529752793345
-0.2967000000000001,-2.2196820294882422
-0.29569999999999996,-2.13762877409607
-0.2947000000000001,-2.054160807404033
-0.29369999999999996,-1.972107552011861
-0.29270000000000007,-1.895713141819149
-0.29169999999999996,-1.8122451751271118
-0.29070000000000007,-1.7372654762342652
-0.28969999999999996,-1.6637004886412832
-0.28870000000000007,-1.5901355010483011
-0.28769999999999996,-1.5193999360550492
-0.28670000000000007,-1.4472496597619326
-0.28569999999999995,-1.3792020462384242
-0.28470000000000006,-1.3127106151447676
-0.28369999999999995,-1.2457947706611512
-0.28270000000000006,-1.1824157044271977
-0.28169999999999995,-1.1171975135034193
-0.28070000000000006,-1.056647869869196
-0.27969999999999995,-0.9987861777047158
-0.27870000000000006,-0.9399341876303302
-0.27769999999999995,-0.8819310243358639
-0.27670000000000006,-0.8225131497415324
-0.27569999999999995,-0.7667735245268499
-0.27470000000000006,-0.7132974373919515
-0.27369999999999994,-0.6588310523471476
-0.27270000000000005,-0.6047890806923032
-0.27169999999999994,-0.5508885801674454
-0.27070000000000005,-0.4985442620724389
-0.26969999999999994,-0.4463414151074191
