Potential V vs RHE, Current mA cm-2
0.05339999999999995,-0.043827756069818834
0.05239999999999995,-0.04501611356170547
0.051399999999999946,-0.04572346921163799
0.050399999999999945,-0.046275206618585356
0.049399999999999944,-0.04675620846053946
0.04839999999999994,-0.047251357415492225
0.04739999999999994,-0.04774650637044498
0.04639999999999994,-0.0482558024383964
0.04539999999999994,-0.04869436294135456
0.04439999999999994,-0.04916121767031002
0.04339999999999994,-0.04965636662526278
0.04239999999999994,-0.05012322135421825
0.04139999999999994,-0.05060422319617236
0.040399999999999936,-0.05107107792512782
0.039399999999999935,-0.05150963842808598
0.038399999999999934,-0.0519623460440428
0.03739999999999993,-0.05245749499899556
0.03639999999999993,-0.052952643953948324
0.03539999999999993,-0.053405351569905134
0.03439999999999993,-0.053886353411859246
0.03339999999999993,-0.05431076680181876
0.03239999999999993,-0.05480591575677152
0.03139999999999993,-0.055272770485726985
0.030399999999999927,-0.055711330988685144
0.029399999999999926,-0.056149891491643296
0.028399999999999925,-0.056630893333597415
0.027399999999999924,-0.05709774806255288
0.026399999999999924,-0.05757874990450699
0.025399999999999923,-0.058073898859459745
0.024399999999999922,-0.05854075358841522
0.02339999999999992,-0.05896516697837473
0.02239999999999992,-0.05941787459433154
0.02139999999999992,-0.059884729323287006
0.020399999999999918,-0.06039402539123842
0.019399999999999917,-0.06091746857218847
0.018399999999999916,-0.06135602907514664
0.017399999999999916,-0.061808736691103455
0.016399999999999915,-0.062332179872053514
0.015399999999999914,-0.06278488748801032
0.014399999999999913,-0.06320930087796985
0.013399999999999912,-0.06371859694592126
0.012399999999999911,-0.06425618723986996
0.01139999999999991,-0.06475133619482273
0.01039999999999991,-0.06516160247178358
0.009399999999999908,-0.0656426043137377
0.008399999999999908,-0.06610945904269316
0.007399999999999907,-0.06663290222364322
0.006399999999999906,-0.06717049251759194
0.005399999999999905,-0.06769393569854201
0.004399999999999904,-0.06813249620150016
0.003399999999999903,-0.06857105670445833
0.002399999999999902,-0.06903791143341378
0.0013999999999999013,-0.0695472075013652
0.00039999999999990044,-0.07001406223032067
-0.0006000000000001005,-0.07045262273327882
-0.0016000000000001013,-0.07093362457523293
-0.0026000000000001022,-0.07145706775618299
-0.003600000000000103,-0.07199465805013172
-0.004600000000000104,-0.07243321855308989
-0.005600000000000105,-0.07287177905604804
-0.006600000000000106,-0.0733669280110008
-0.007600000000000107,-0.07386207696595355
-0.008600000000000108,-0.07437137303390498
-0.009600000000000108,-0.07482408064986179
-0.01060000000000011,-0.07530508249181589
-0.01160000000000011,-0.07578608433377002
-0.012600000000000111,-0.07629538040172142
-0.013600000000000112,-0.07677638224367554
-0.014600000000000113,-0.07725738408562965
-0.015600000000000114,-0.07772423881458512
-0.016600000000000115,-0.07816279931754326
-0.017600000000000116,-0.07867209538549469
-0.018600000000000116,-0.07923797990544071
-0.019600000000000117,-0.07967654040839886
-0.020600000000000118,-0.08008680668535972
-0.02160000000000012,-0.08052536718831789
-0.02260000000000012,-0.08104881036926795
-0.02360000000000012,-0.08157225355021802
-0.024600000000000122,-0.08202496116617483
-0.025600000000000123,-0.08249181589513029
-0.026600000000000124,-0.08295867062408575
-0.027600000000000124,-0.0833972311270439
-0.028600000000000125,-0.08387823296899803
-0.029600000000000126,-0.08427435213296022
-0.030600000000000127,-0.08467047129692246
-0.03160000000000013,-0.0851939144778725
-0.03260000000000013,-0.08561832786783201
-0.03360000000000013,-0.08605688837079019
-0.03460000000000002,-0.08652374309974564
-0.03560000000000002,-0.08697645071570247
-0.03660000000000002,-0.08738671699266332
-0.03760000000000002,-0.08781113038262284
-0.03860000000000002,-0.08824969088558099
-0.039600000000000024,-0.08865995716254185
-0.040600000000000025,-0.08907022343950272
-0.041600000000000026,-0.08949463682946222
-0.04260000000000003,-0.09017369825339744
-0.04360000000000003,-0.09066884720835021
-0.04460000000000003,-0.09096593658132186
-0.04560000000000003,-0.09131961440628812
-0.04660000000000003,-0.09174402779624763
-0.04760000000000003,-0.09214014696020983
-0.04860000000000003,-0.09256456035016934
-0.04960000000000003,-0.0929748266271302
-0.050600000000000034,-0.09334265156509512
-0.051600000000000035,-0.09373877072905733
-0.052600000000000036,-0.09414903700601819
-0.053600000000000037,-0.09453100905698175
-0.05460000000000004,-0.09489883399494665
-0.05560000000000004,-0.09522421759391562
-0.05660000000000004,-0.09562033675787783
-0.05760000000000004,-0.09598816169584275
-0.05860000000000004,-0.09638428085980494
-0.05960000000000004,-0.0967662529107685
-0.06060000000000004,-0.09704919517074152
-0.061600000000000044,-0.09740287299570777
-0.06260000000000004,-0.0977706979336727
-0.06360000000000005,-0.09816681709763489
-0.06460000000000005,-0.09850634780960252
-0.06560000000000005,-0.09878929006957551
-0.06660000000000005,-0.09917126212053906
-0.06760000000000005,-0.09951079283250668
-0.06860000000000005,-0.09985032354447429
-0.06960000000000005,-0.10011911869144864
-0.07060000000000005,-0.1004445022904176
-0.07160000000000005,-0.10069915032439332
-0.07260000000000005,-0.10095379835836901
-0.07360000000000005,-0.10126503484433932
-0.07460000000000006,-0.10153382999131368
-0.07560000000000006,-0.10183091936428534
-0.07660000000000006,-0.10208556739826105
-0.07760000000000006,-0.10235436254523542
-0.07860000000000006,-0.10260901057921111
-0.07960000000000006,-0.10286365861318682
-0.08060000000000006,-0.10310415953416388
-0.08160000000000006,-0.10333051334214227
-0.08260000000000006,-0.10357101426311933
-0.08360000000000006,-0.1038398094100937
-0.08460000000000006,-0.10413689878306535
-0.08560000000000006,-0.1042925170260505
-0.08660000000000007,-0.10449057660803161
-0.08760000000000007,-0.10467448907701406
-0.08860000000000007,-0.10492913711098976
-0.08960000000000007,-0.10511304957997222
-0.09060000000000007,-0.10529696204895468
-0.09160000000000007,-0.10545258029193984
-0.09260000000000007,-0.10567893409991824
-0.09360000000000007,-0.10591943502089529
-0.09460000000000007,-0.1061174946028764
-0.09560000000000007,-0.10628725995886021
-0.09660000000000007,-0.1064287310888467
-0.09760000000000008,-0.10661264355782916
-0.09860000000000008,-0.10675411468781566
-0.09960000000000008,-0.10688143870480352
-0.10060000000000008,-0.10698046849579408
-0.10160000000000008,-0.10713608673877922
-0.10260000000000008,-0.10729170498176437
-0.10360000000000008,-0.10746147033774818
-0.10460000000000008,-0.10760294146773468
-0.10560000000000008,-0.10770197125872524
-0.10660000000000008,-0.10778685393671714
-0.10760000000000008,-0.10795661929270095
-0.10860000000000009,-0.10809809042268745
-0.10960000000000009,-0.1081405317616834
-0.11060000000000009,-0.10821126732667666
-0.11160000000000009,-0.10825370866567262
-0.11260000000000009,-0.10833859134366451
-0.11360000000000009,-0.10852250381264696
-0.11460000000000009,-0.10860738649063886
-0.11560000000000009,-0.10866397494263345
-0.11660000000000009,-0.10870641628162941
-0.1176000000000001,-0.10876300473362402
-0.1186000000000001,-0.10887618163761323
-0.1196000000000001,-0.10891862297660918
-0.1206000000000001,-0.10894691720260646
-0.1216000000000001,-0.10894691720260646
-0.1226000000000001,-0.10896106431560514
-0.1236000000000001,-0.10911668255859029
-0.1246000000000001,-0.1091732710105849
-0.1256000000000001,-0.1091732710105849
-0.1266000000000001,-0.10915912389758622
-0.1276000000000001,-0.1091732710105849
-0.1286000000000001,-0.10921571234958084
-0.1296000000000001,-0.10924400657557813
-0.1306000000000001,-0.10921571234958084
-0.1316000000000001,-0.10918741812358353
-0.1326000000000001,-0.1091732710105849
-0.1336000000000001,-0.10925815368857679
-0.1346000000000001,-0.10924400657557813
-0.1356000000000001,-0.10924400657557813
-0.1366000000000001,-0.10924400657557813
-0.1376000000000001,-0.10925815368857679
-0.1386000000000001,-0.10927230080157543
-0.1396000000000001,-0.10922985946257947
-0.1406000000000001,-0.10924400657557813
-0.14160000000000011,-0.10921571234958084
-0.14260000000000012,-0.10922985946257947
-0.14360000000000012,-0.10921571234958084
-0.14460000000000012,-0.1091732710105849
-0.14560000000000012,-0.10910253544559163
-0.14660000000000012,-0.10907424121959435
-0.14760000000000012,-0.10901765276759973
-0.14860000000000012,-0.10904594699359701
-0.14960000000000012,-0.10897521142860378
-0.15060000000000012,-0.10891862297660918
-0.15160000000000012,-0.10883374029861728
-0.15260000000000012,-0.10883374029861728
-0.15360000000000013,-0.10886203452461457
-0.15460000000000013,-0.10876300473362402
-0.15560000000000013,-0.10869226916863078
-0.15660000000000013,-0.10863568071663617
-0.15760000000000013,-0.10862153360363752
-0.15860000000000013,-0.10859323937764022
-0.15960000000000002,-0.10856494515164292
-0.16060000000000002,-0.10845176824765372
-0.16160000000000002,-0.10838103268266046
-0.16260000000000002,-0.10835273845666317
-0.16360000000000002,-0.1083102971176672
-0.16460000000000002,-0.10821126732667666
-0.16560000000000002,-0.10818297310067936
-0.16660000000000003,-0.10809809042268745
-0.16760000000000003,-0.10806979619669015
-0.16860000000000003,-0.1080839433096888
-0.16960000000000003,-0.10802735485769419
-0.17060000000000003,-0.10795661929270095
-0.17160000000000003,-0.1078575895017104
-0.17260000000000003,-0.1078010010497158
-0.17360000000000003,-0.10774441259772119
-0.17460000000000003,-0.1076595299197293
-0.17560000000000003,-0.10757464724173739
-0.17660000000000003,-0.1075463530157401
-0.17760000000000004,-0.10750391167674413
-0.17860000000000004,-0.10748976456374548
-0.17960000000000004,-0.10741902899875223
-0.18060000000000004,-0.10731999920776168
-0.18160000000000004,-0.10722096941677112
-0.18260000000000004,-0.10722096941677112
-0.18360000000000004,-0.10722096941677112
-0.18460000000000004,-0.10710779251278192
-0.18560000000000004,-0.10698046849579408
-0.18660000000000004,-0.10693802715679812
-0.18760000000000004,-0.10689558581780217
-0.18860000000000005,-0.10683899736580757
-0.18960000000000005,-0.10682485025280893
-0.19060000000000005,-0.10672582046181836
-0.19160000000000005,-0.10668337912282241
-0.19260000000000005,-0.10666923200982377
-0.19360000000000005,-0.10662679067082782
-0.19460000000000005,-0.10661264355782916
-0.19560000000000005,-0.10655605510583457
-0.19660000000000005,-0.10648531954084133
-0.19760000000000005,-0.10647117242784265
-0.19860000000000005,-0.10647117242784265
-0.19960000000000006,-0.10641458397584806
-0.20060000000000006,-0.10634384841085481
-0.20160000000000006,-0.10634384841085481
-0.20260000000000006,-0.10631555418485751
-0.20360000000000006,-0.10624481861986426
-0.20460000000000006,-0.10624481861986426
-0.20560000000000006,-0.10620237728086832
-0.20660000000000006,-0.10618823016786964
-0.20760000000000006,-0.10624481861986426
-0.20860000000000006,-0.10624481861986426
-0.20960000000000006,-0.10618823016786964
-0.21060000000000006,-0.1061174946028764
-0.21160000000000007,-0.10615993594187234
-0.21260000000000007,-0.10617408305487101
-0.21360000000000007,-0.10621652439386696
-0.21460000000000007,-0.10618823016786964
-0.21560000000000007,-0.10610334748987776
-0.21660000000000007,-0.10613164171587507
-0.21760000000000007,-0.10615993594187234
-0.21860000000000007,-0.10624481861986426
-0.21960000000000007,-0.10624481861986426
-0.22060000000000007,-0.10610334748987776
-0.22160000000000007,-0.10607505326388045
-0.22260000000000008,-0.10610334748987776
-0.22360000000000008,-0.1061457888288737
-0.22460000000000008,-0.1061457888288737
-0.22560000000000008,-0.1061174946028764
-0.22660000000000008,-0.10617408305487101
-0.22760000000000008,-0.10621652439386696
-0.22860000000000008,-0.10624481861986426
-0.22960000000000008,-0.10623067150686559
-0.23060000000000008,-0.10623067150686559
-0.23160000000000008,-0.10617408305487101
-0.23260000000000008,-0.10617408305487101
-0.23360000000000009,-0.10623067150686559
-0.2346000000000001,-0.1064004368628494
-0.2356000000000001,-0.10644287820184536
-0.2366000000000001,-0.10645702531484401
-0.2376000000000001,-0.10651361376683861
-0.2386000000000001,-0.10658434933183186
-0.2396000000000001,-0.10664093778382645
-0.2406000000000001,-0.10669752623582107
-0.2416000000000001,-0.10676826180081432
-0.2426000000000001,-0.10686729159180487
-0.2436000000000001,-0.10696632138279542
-0.2446000000000001,-0.10700876272179137
-0.2456000000000001,-0.10710779251278192
-0.2466000000000001,-0.10715023385177787
-0.2476000000000001,-0.10722096941677112
-0.2486000000000001,-0.10743317611175088
-0.2496000000000001,-0.10751805878974278
-0.2506000000000001,-0.10757464724173739
-0.2516000000000001,-0.10771611837172389
-0.2526000000000001,-0.10775855971071985
-0.2536000000000001,-0.1078010010497158
-0.2546000000000001,-0.1079990606316969
-0.2556000000000001,-0.1080839433096888
-0.2566000000000001,-0.10815467887468207
-0.2576000000000001,-0.10835273845666317
-0.2586000000000001,-0.10856494515164292
-0.2596000000000001,-0.10866397494263345
-0.2606000000000001,-0.10893277008960783
-0.2616000000000001,-0.10904594699359701
-0.2626000000000001,-0.1091732710105849
-0.2636000000000001,-0.1094562132705579
-0.2646000000000001,-0.10962597862654169
-0.2656000000000001,-0.10975330264352953
-0.2666000000000001,-0.109937215112512
-0.2676000000000001,-0.11016356892049041
-0.2686000000000001,-0.11034748138947285
-0.2696000000000001,-0.11053139385845531
-0.2706000000000001,-0.11072945344043642
-0.2716000000000001,-0.11092751302241752
-0.2726000000000001,-0.11122460239538919
-0.2736000000000001,-0.11143680909036893
-0.2746000000000001,-0.11157828022035543
-0.2756000000000001,-0.1117621926893379
-0.2766000000000001,-0.11197439938431765
-0.2776000000000001,-0.11222904741829336
-0.2786000000000001,-0.11261101946925692
-0.2796000000000001,-0.11276663771224207
-0.2806000000000001,-0.11300713863321914
-0.28160000000000013,-0.11314860976320563
-0.28260000000000013,-0.11345984624917593
-0.28360000000000013,-0.11372864139615031
-0.2846,-0.11405402499511925
-0.2856,-0.11442184993308416
-0.2866,-0.11471893930605583
-0.2876,-0.11510091135701939
-0.2886,-0.11556776608597484
-0.2896,-0.11594973813693843
-0.2906,-0.11619023905791546
-0.2916,-0.11647318131788847
-0.2926,-0.11681271202985609
-0.2936,-0.11722297830681694
-0.29460000000000003,-0.11761909747077916
-0.29560000000000003,-0.11802936374774001
-0.29660000000000003,-0.11832645312071166
-0.29760000000000003,-0.11872257228467388
-0.29860000000000003,-0.11901966165764555
-0.29960000000000003,-0.11920357412662799
-0.30060000000000003,-0.11955725195159424
-0.30160000000000003,-0.11998166534155377
-0.30260000000000004,-0.12047681429650652
-0.30360000000000004,-0.12090122768646602
-0.30460000000000004,-0.12135393530242285
-0.30560000000000004,-0.12170761312738912
-0.30660000000000004,-0.12206129095235536
-0.30760000000000004,-0.12248570434231489
-0.30860000000000004,-0.12295255907127035
-0.30960000000000004,-0.12337697246122986
-0.31060000000000004,-0.12371650317319745
-0.31160000000000004,-0.12423994635414752
-0.31260000000000004,-0.12466435974410703
-0.31360000000000005,-0.12510292024706518
-0.31460000000000005,-0.1256122163150166
-0.31560000000000005,-0.12605077681797475
-0.31660000000000005,-0.1265600728859262
-0.31760000000000005,-0.1269844862758857
-0.31860000000000005,-0.1274088996658452
-0.31960000000000005,-0.12801722552478714
-0.32060000000000005,-0.12859725715773185
-0.32160000000000005,-0.1290924061126846
-0.32260000000000005,-0.12974317331062254
-0.32360000000000005,-0.13021002803957799
-0.32460000000000006,-0.13067688276853343
-0.32560000000000006,-0.13108714904549432
-0.32660000000000006,-0.1316813277914376
-0.32760000000000006,-0.13227550653738093
-0.32860000000000006,-0.1329970093003121
-0.32960000000000006,-0.13357704093325676
-0.33060000000000006,-0.13410048411420683
-0.33160000000000006,-0.13466636863415282
-0.33260000000000006,-0.1352746944930948
-0.33360000000000006,-0.13633572796799356
-0.33460000000000006,-0.13697234805293285
-0.33560000000000006,-0.13765140947686808
-0.33660000000000007,-0.138302176674806
-0.33760000000000007,-0.13885391408175335
-0.33860000000000007,-0.13950468127969126
-0.33960000000000007,-0.14012715425163189
-0.34060000000000007,-0.14067889165857925
-0.34160000000000007,-0.14134380596951582
-0.34260000000000007,-0.14189554337646318
-0.34360000000000007,-0.1426028990263957
-0.3446000000000001,-0.1433102546763282
-0.3456000000000001,-0.14387613919627423
-0.3466000000000001,-0.14444202371622025
-0.34759999999999996,-0.14514937936615277
-0.3486000000000001,-0.14571526388609876
-0.34959999999999997,-0.14642261953603128
-0.3506000000000001,-0.14698850405597733
-0.35159999999999997,-0.14741291744593682
-0.3526000000000001,-0.14797880196588284
-0.35359999999999997,-0.14868615761581536
-0.3546000000000001,-0.14939351326574787
-0.35559999999999997,-0.1499593977856939
-0.3566000000000001,-0.15052528230563988
-0.3576,-0.1510911668255859
-0.3586000000000001,-0.15193999360550495
-0.3596,-0.15250587812545094
-0.3606000000000001,-0.15321323377538346
-0.3616,-0.15377911829532948
-0.3626000000000001,-0.1543450028152755
-0.3636,-0.15491088733522151
-0.3646000000000001,-0.15547677185516753
-0.3656,-0.15618412750510002
-0.3666000000000001,-0.15675001202504607
-0.3676,-0.15731589654499206
-0.3686000000000001,-0.15774030993495158
-0.3696,-0.1583061944548976
-0.3706000000000001,-0.15901355010483012
-0.3716,-0.15957943462477614
-0.3726000000000001,-0.16014531914472213
-0.3736,-0.16071120366466815
-0.3746000000000001,-0.16127708818461417
-0.3756,-0.1618429727045602
-0.3766000000000001,-0.1622673860945197
-0.3776,-0.1628332706144657
-0.3786000000000001,-0.16339915513441172
-0.3796,-0.16410651078434427
-0.3806000000000001,-0.16467239530429026
-0.3816,-0.16523827982423628
-0.3826000000000001,-0.1659456354741688
-0.3836,-0.1666529911241013
-0.3846000000000001,-0.16736034677403386
-0.3856,-0.16778476016399335
-0.3866000000000001,-0.16820917355395287
-0.3876,-0.1689165292038854
-0.3886000000000001,-0.1693409425938449
-0.3896,-0.1697653559838044
-0.3906000000000001,-0.17033124050375043
-0.3916,-0.17075565389370992
-0.3926000000000001,-0.17132153841365594
-0.3936,-0.17202889406358848
-0.3946000000000001,-0.17259477858353447
-0.3956,-0.1731606631034805
-0.3966000000000001,-0.173868018753413
-0.3976,-0.17429243214337253
-0.3986000000000001,-0.17485831666331855
-0.3996,-0.17528273005327805
-0.4006000000000001,-0.17584861457322407
-0.4016,-0.17641449909317006
-0.4026000000000001,-0.1771218547431026
-0.4036,-0.17754626813306212
-0.4046000000000001,-0.17811215265300812
-0.4056,-0.17867803717295414
-0.40660000000000013,-0.17924392169290015
-0.4076,-0.17980980621284617
-0.40860000000000013,-0.1805171618627787
-0.4096,-0.18122451751271118
-0.41060000000000013,-0.18164893090267073
-0.4116,-0.18221481542261672
-0.41260000000000013,-0.18263922881257624
-0.4136,-0.18320511333252223
-0.41460000000000014,-0.18377099785246825
-0.4156,-0.1844783535024008
-0.41660000000000014,-0.1850442380223468
-0.4176,-0.1856101225422928
-0.41860000000000014,-0.1861760070622388
-0.41960000000000003,-0.18674189158218485
-0.42060000000000014,-0.18716630497214437
-0.42160000000000003,-0.18773218949209036
-0.42260000000000014,-0.18843954514202288
-0.42360000000000003,-0.1890054296619689
-0.42460000000000014,-0.18942984305192842
-0.42560000000000003,-0.18985425644188791
-0.42660000000000015,-0.19042014096183393
-0.42760000000000004,-0.19098602548177993
-0.42860000000000015,-0.19169338113171247
-0.42960000000000004,-0.1922592656516585
-0.43060000000000015,-0.192966621301591
-0.43160000000000004,-0.193532505821537
-0.43260000000000015,-0.19395691921149652
-0.43360000000000004,-0.19452280373144254
-0.43460000000000015,-0.19508868825138856
-0.43560000000000004,-0.19565457277133455
-0.43660000000000015,-0.19607898616129407
