Aug. 8, 2024   18:55:36
Linear Sweep Voltammetry
File: c:/users/guazh/data/20240802_batch_500/2024-08-02-exp56\regeneratedgce-2024-08-08t18_51_03-lsvinkoh\regeneratedgce_lsv_50mvs_efin_-1900mv.bin
Data Source:  Experiment
Instrument Model:  CHI760E
Header: LSV ran at 50 mVs with Efin at -1900mV
Note: 

Init E (V) = -0.6
Final E (V) = -1.9
Scan Rate (V/s) = 0.05
Sample Interval (V) = 0.001
Quiet Time (sec) = 2
Sensitivity (A/V) = 1e-4
Comp R (ohm) = 2.1

Results:

Channel 1:

Potential/V, Current/A

-0.600, -3.468e-7
-0.601, -1.995e-7
-0.602, -1.457e-7
-0.603, -1.176e-7
-0.604, -9.621e-8
-0.605, -7.717e-8
-0.606, -5.764e-8
-0.607, -4.254e-8
-0.608, -3.139e-8
-0.609, -1.886e-8
-0.610, -6.137e-9
-0.611, 7.873e-9
-0.612, 1.754e-8
-0.613, 2.504e-8
-0.614, 3.500e-8
-0.615, 4.438e-8
-0.616, 5.395e-8
-0.617, 6.302e-8
-0.618, 6.894e-8
-0.619, 7.615e-8
-0.620, 8.473e-8
-0.621, 9.489e-8
-0.622, 1.024e-7
-0.623, 1.076e-7
-0.624, 1.128e-7
-0.625, 1.210e-7
-0.626, 1.298e-7
-0.627, 1.376e-7
-0.628, 1.410e-7
-0.629, 1.464e-7
-0.630, 1.519e-7
-0.631, 1.608e-7
-0.632, 1.655e-7
-0.633, 1.700e-7
-0.634, 1.742e-7
-0.635, 1.810e-7
-0.636, 1.883e-7
-0.637, 1.927e-7
-0.638, 1.964e-7
-0.639, 2.007e-7
-0.640, 2.077e-7
-0.641, 2.139e-7
-0.642, 2.171e-7
-0.643, 2.219e-7
-0.644, 2.249e-7
-0.645, 2.300e-7
-0.646, 2.382e-7
-0.647, 2.417e-7
-0.648, 2.449e-7
-0.649, 2.488e-7
-0.650, 2.517e-7
-0.651, 2.606e-7
-0.652, 2.641e-7
-0.653, 2.689e-7
-0.654, 2.733e-7
-0.655, 2.773e-7
-0.656, 2.836e-7
-0.657, 2.866e-7
-0.658, 2.883e-7
-0.659, 2.912e-7
-0.660, 2.955e-7
-0.661, 3.010e-7
-0.662, 3.046e-7
-0.663, 3.070e-7
-0.664, 3.095e-7
-0.665, 3.147e-7
-0.666, 3.220e-7
-0.667, 3.240e-7
-0.668, 3.253e-7
-0.669, 3.266e-7
-0.670, 3.318e-7
-0.671, 3.361e-7
-0.672, 3.391e-7
-0.673, 3.410e-7
-0.674, 3.423e-7
-0.675, 3.471e-7
-0.676, 3.517e-7
-0.677, 3.534e-7
-0.678, 3.562e-7
-0.679, 3.574e-7
-0.680, 3.618e-7
-0.681, 3.678e-7
-0.682, 3.701e-7
-0.683, 3.717e-7
-0.684, 3.725e-7
-0.685, 3.782e-7
-0.686, 3.841e-7
-0.687, 3.843e-7
-0.688, 3.862e-7
-0.689, 3.870e-7
-0.690, 3.894e-7
-0.691, 3.969e-7
-0.692, 3.986e-7
-0.693, 3.996e-7
-0.694, 4.021e-7
-0.695, 4.050e-7
-0.696, 4.092e-7
-0.697, 4.117e-7
-0.698, 4.129e-7
-0.699, 4.146e-7
-0.700, 4.202e-7
-0.701, 4.225e-7
-0.702, 4.249e-7
-0.703, 4.247e-7
-0.704, 4.283e-7
-0.705, 4.315e-7
-0.706, 4.344e-7
-0.707, 4.377e-7
-0.708, 4.374e-7
-0.709, 4.402e-7
-0.710, 4.438e-7
-0.711, 4.479e-7
-0.712, 4.492e-7
-0.713, 4.508e-7
-0.714, 4.508e-7
-0.715, 4.557e-7
-0.716, 4.608e-7
-0.717, 4.623e-7
-0.718, 4.624e-7
-0.719, 4.638e-7
-0.720, 4.674e-7
-0.721, 4.723e-7
-0.722, 4.722e-7
-0.723, 4.731e-7
-0.724, 4.742e-7
-0.725, 4.762e-7
-0.726, 4.827e-7
-0.727, 4.827e-7
-0.728, 4.833e-7
-0.729, 4.853e-7
-0.730, 4.892e-7
-0.731, 4.943e-7
-0.732, 4.956e-7
-0.733, 4.967e-7
-0.734, 4.987e-7
-0.735, 5.018e-7
-0.736, 5.046e-7
-0.737, 5.054e-7
-0.738, 5.039e-7
-0.739, 5.070e-7
-0.740, 5.099e-7
-0.741, 5.151e-7
-0.742, 5.167e-7
-0.743, 5.156e-7
-0.744, 5.164e-7
-0.745, 5.216e-7
-0.746, 5.248e-7
-0.747, 5.261e-7
-0.748, 5.261e-7
-0.749, 5.279e-7
-0.750, 5.321e-7
-0.751, 5.358e-7
-0.752, 5.354e-7
-0.753, 5.364e-7
-0.754, 5.369e-7
-0.755, 5.418e-7
-0.756, 5.459e-7
-0.757, 5.453e-7
-0.758, 5.467e-7
-0.759, 5.462e-7
-0.760, 5.501e-7
-0.761, 5.549e-7
-0.762, 5.546e-7
-0.763, 5.554e-7
-0.764, 5.564e-7
-0.765, 5.599e-7
-0.766, 5.638e-7
-0.767, 5.632e-7
-0.768, 5.662e-7
-0.769, 5.679e-7
-0.770, 5.684e-7
-0.771, 5.733e-7
-0.772, 5.743e-7
-0.773, 5.734e-7
-0.774, 5.756e-7
-0.775, 5.795e-7
-0.776, 5.826e-7
-0.777, 5.831e-7
-0.778, 5.826e-7
-0.779, 5.838e-7
-0.780, 5.882e-7
-0.781, 5.910e-7
-0.782, 5.920e-7
-0.783, 5.915e-7
-0.784, 5.921e-7
-0.785, 5.967e-7
-0.786, 5.987e-7
-0.787, 6.001e-7
-0.788, 6.013e-7
-0.789, 6.012e-7
-0.790, 6.063e-7
-0.791, 6.083e-7
-0.792, 6.108e-7
-0.793, 6.107e-7
-0.794, 6.112e-7
-0.795, 6.147e-7
-0.796, 6.182e-7
-0.797, 6.184e-7
-0.798, 6.194e-7
-0.799, 6.187e-7
-0.800, 6.239e-7
-0.801, 6.261e-7
-0.802, 6.255e-7
-0.803, 6.276e-7
-0.804, 6.283e-7
-0.805, 6.315e-7
-0.806, 6.344e-7
-0.807, 6.352e-7
-0.808, 6.359e-7
-0.809, 6.370e-7
-0.810, 6.395e-7
-0.811, 6.435e-7
-0.812, 6.437e-7
-0.813, 6.440e-7
-0.814, 6.448e-7
-0.815, 6.484e-7
-0.816, 6.521e-7
-0.817, 6.516e-7
-0.818, 6.514e-7
-0.819, 6.568e-7
-0.820, 6.631e-7
-0.821, 6.623e-7
-0.822, 6.634e-7
-0.823, 6.630e-7
-0.824, 6.641e-7
-0.825, 6.678e-7
-0.826, 6.709e-7
-0.827, 6.721e-7
-0.828, 6.723e-7
-0.829, 6.728e-7
-0.830, 6.770e-7
-0.831, 6.797e-7
-0.832, 6.812e-7
-0.833, 6.833e-7
-0.834, 6.836e-7
-0.835, 6.863e-7
-0.836, 6.895e-7
-0.837, 6.892e-7
-0.838, 6.909e-7
-0.839, 6.915e-7
-0.840, 6.950e-7
-0.841, 6.980e-7
-0.842, 6.970e-7
-0.843, 6.977e-7
-0.844, 6.984e-7
-0.845, 7.034e-7
-0.846, 7.064e-7
-0.847, 7.065e-7
-0.848, 7.069e-7
-0.849, 7.084e-7
-0.850, 7.112e-7
-0.851, 7.150e-7
-0.852, 7.146e-7
-0.853, 7.144e-7
-0.854, 7.167e-7
-0.855, 7.214e-7
-0.856, 7.231e-7
-0.857, 7.242e-7
-0.858, 7.245e-7
-0.859, 7.265e-7
-0.860, 7.294e-7
-0.861, 7.308e-7
-0.862, 7.326e-7
-0.863, 7.327e-7
-0.864, 7.343e-7
-0.865, 7.380e-7
-0.866, 7.400e-7
-0.867, 7.414e-7
-0.868, 7.431e-7
-0.869, 7.452e-7
-0.870, 7.500e-7
-0.871, 7.557e-7
-0.872, 7.538e-7
-0.873, 7.532e-7
-0.874, 7.552e-7
-0.875, 7.584e-7
-0.876, 7.605e-7
-0.877, 7.632e-7
-0.878, 7.625e-7
-0.879, 7.633e-7
-0.880, 7.676e-7
-0.881, 7.722e-7
-0.882, 7.694e-7
-0.883, 7.737e-7
-0.884, 7.752e-7
-0.885, 7.786e-7
-0.886, 7.832e-7
-0.887, 7.812e-7
-0.888, 7.825e-7
-0.889, 7.838e-7
-0.890, 7.886e-7
-0.891, 7.917e-7
-0.892, 7.918e-7
-0.893, 7.931e-7
-0.894, 7.952e-7
-0.895, 7.983e-7
-0.896, 8.021e-7
-0.897, 8.028e-7
-0.898, 8.026e-7
-0.899, 8.055e-7
-0.900, 8.106e-7
-0.901, 8.117e-7
-0.902, 8.135e-7
-0.903, 8.131e-7
-0.904, 8.153e-7
-0.905, 8.200e-7
-0.906, 8.223e-7
-0.907, 8.229e-7
-0.908, 8.234e-7
-0.909, 8.252e-7
-0.910, 8.309e-7
-0.911, 8.334e-7
-0.912, 8.342e-7
-0.913, 8.350e-7
-0.914, 8.361e-7
-0.915, 8.425e-7
-0.916, 8.454e-7
-0.917, 8.449e-7
-0.918, 8.465e-7
-0.919, 8.477e-7
-0.920, 8.510e-7
-0.921, 8.542e-7
-0.922, 8.567e-7
-0.923, 8.574e-7
-0.924, 8.601e-7
-0.925, 8.633e-7
-0.926, 8.672e-7
-0.927, 8.670e-7
-0.928, 8.687e-7
-0.929, 8.711e-7
-0.930, 8.747e-7
-0.931, 8.782e-7
-0.932, 8.785e-7
-0.933, 8.797e-7
-0.934, 8.818e-7
-0.935, 8.868e-7
-0.936, 8.897e-7
-0.937, 8.910e-7
-0.938, 8.916e-7
-0.939, 8.943e-7
-0.940, 8.982e-7
-0.941, 9.024e-7
-0.942, 9.034e-7
-0.943, 9.039e-7
-0.944, 9.064e-7
-0.945, 9.128e-7
-0.946, 9.145e-7
-0.947, 9.157e-7
-0.948, 9.186e-7
-0.949, 9.207e-7
-0.950, 9.281e-7
-0.951, 9.317e-7
-0.952, 9.307e-7
-0.953, 9.324e-7
-0.954, 9.345e-7
-0.955, 9.399e-7
-0.956, 9.436e-7
-0.957, 9.425e-7
-0.958, 9.460e-7
-0.959, 9.481e-7
-0.960, 9.546e-7
-0.961, 9.577e-7
-0.962, 9.560e-7
-0.963, 9.591e-7
-0.964, 9.615e-7
-0.965, 9.665e-7
-0.966, 9.705e-7
-0.967, 9.713e-7
-0.968, 9.720e-7
-0.969, 9.760e-7
-0.970, 9.798e-7
-0.971, 9.845e-7
-0.972, 9.853e-7
-0.973, 9.887e-7
-0.974, 9.912e-7
-0.975, 9.953e-7
-0.976, 9.998e-7
-0.977, 1.002e-6
-0.978, 1.002e-6
-0.979, 1.006e-6
-0.980, 1.013e-6
-0.981, 1.016e-6
-0.982, 1.018e-6
-0.983, 1.021e-6
-0.984, 1.024e-6
-0.985, 1.028e-6
-0.986, 1.031e-6
-0.987, 1.033e-6
-0.988, 1.035e-6
-0.989, 1.038e-6
-0.990, 1.042e-6
-0.991, 1.045e-6
-0.992, 1.047e-6
-0.993, 1.050e-6
-0.994, 1.052e-6
-0.995, 1.058e-6
-0.996, 1.061e-6
-0.997, 1.062e-6
-0.998, 1.065e-6
-0.999, 1.068e-6
-1.000, 1.074e-6
-1.001, 1.077e-6
-1.002, 1.078e-6
-1.003, 1.082e-6
-1.004, 1.084e-6
-1.005, 1.089e-6
-1.006, 1.093e-6
-1.007, 1.093e-6
-1.008, 1.096e-6
-1.009, 1.099e-6
-1.010, 1.105e-6
-1.011, 1.109e-6
-1.012, 1.112e-6
-1.013, 1.114e-6
-1.014, 1.119e-6
-1.015, 1.124e-6
-1.016, 1.126e-6
-1.017, 1.127e-6
-1.018, 1.128e-6
-1.019, 1.132e-6
-1.020, 1.138e-6
-1.021, 1.141e-6
-1.022, 1.143e-6
-1.023, 1.145e-6
-1.024, 1.152e-6
-1.025, 1.158e-6
-1.026, 1.158e-6
-1.027, 1.161e-6
-1.028, 1.164e-6
-1.029, 1.165e-6
-1.030, 1.172e-6
-1.031, 1.176e-6
-1.032, 1.178e-6
-1.033, 1.180e-6
-1.034, 1.183e-6
-1.035, 1.190e-6
-1.036, 1.193e-6
-1.037, 1.194e-6
-1.038, 1.197e-6
-1.039, 1.200e-6
-1.040, 1.206e-6
-1.041, 1.209e-6
-1.042, 1.210e-6
-1.043, 1.214e-6
-1.044, 1.218e-6
-1.045, 1.223e-6
-1.046, 1.227e-6
-1.047, 1.228e-6
-1.048, 1.230e-6
-1.049, 1.235e-6
-1.050, 1.240e-6
-1.051, 1.244e-6
-1.052, 1.245e-6
-1.053, 1.247e-6
-1.054, 1.252e-6
-1.055, 1.257e-6
-1.056, 1.262e-6
-1.057, 1.264e-6
-1.058, 1.265e-6
-1.059, 1.269e-6
-1.060, 1.273e-6
-1.061, 1.276e-6
-1.062, 1.278e-6
-1.063, 1.280e-6
-1.064, 1.285e-6
-1.065, 1.291e-6
-1.066, 1.292e-6
-1.067, 1.295e-6
-1.068, 1.297e-6
-1.069, 1.300e-6
-1.070, 1.307e-6
-1.071, 1.309e-6
-1.072, 1.310e-6
-1.073, 1.313e-6
-1.074, 1.317e-6
-1.075, 1.324e-6
-1.076, 1.328e-6
-1.077, 1.329e-6
-1.078, 1.333e-6
-1.079, 1.337e-6
-1.080, 1.344e-6
-1.081, 1.346e-6
-1.082, 1.346e-6
-1.083, 1.347e-6
-1.084, 1.352e-6
-1.085, 1.356e-6
-1.086, 1.359e-6
-1.087, 1.360e-6
-1.088, 1.363e-6
-1.089, 1.368e-6
-1.090, 1.372e-6
-1.091, 1.376e-6
-1.092, 1.376e-6
-1.093, 1.379e-6
-1.094, 1.383e-6
-1.095, 1.388e-6
-1.096, 1.391e-6
-1.097, 1.393e-6
-1.098, 1.394e-6
-1.099, 1.398e-6
-1.100, 1.404e-6
-1.101, 1.406e-6
-1.102, 1.409e-6
-1.103, 1.411e-6
-1.104, 1.416e-6
-1.105, 1.423e-6
-1.106, 1.424e-6
-1.107, 1.425e-6
-1.108, 1.427e-6
-1.109, 1.431e-6
-1.110, 1.437e-6
-1.111, 1.439e-6
-1.112, 1.440e-6
-1.113, 1.443e-6
-1.114, 1.448e-6
-1.115, 1.454e-6
-1.116, 1.456e-6
-1.117, 1.457e-6
-1.118, 1.460e-6
-1.119, 1.463e-6
-1.120, 1.469e-6
-1.121, 1.471e-6
-1.122, 1.473e-6
-1.123, 1.475e-6
-1.124, 1.480e-6
-1.125, 1.486e-6
-1.126, 1.489e-6
-1.127, 1.490e-6
-1.128, 1.492e-6
-1.129, 1.496e-6
-1.130, 1.502e-6
-1.131, 1.505e-6
-1.132, 1.507e-6
-1.133, 1.509e-6
-1.134, 1.514e-6
-1.135, 1.518e-6
-1.136, 1.520e-6
-1.137, 1.523e-6
-1.138, 1.525e-6
-1.139, 1.531e-6
-1.140, 1.536e-6
-1.141, 1.539e-6
-1.142, 1.542e-6
-1.143, 1.543e-6
-1.144, 1.550e-6
-1.145, 1.556e-6
-1.146, 1.557e-6
-1.147, 1.561e-6
-1.148, 1.561e-6
-1.149, 1.566e-6
-1.150, 1.574e-6
-1.151, 1.577e-6
-1.152, 1.579e-6
-1.153, 1.582e-6
-1.154, 1.586e-6
-1.155, 1.596e-6
-1.156, 1.597e-6
-1.157, 1.598e-6
-1.158, 1.601e-6
-1.159, 1.604e-6
-1.160, 1.609e-6
-1.161, 1.613e-6
-1.162, 1.614e-6
-1.163, 1.617e-6
-1.164, 1.622e-6
-1.165, 1.628e-6
-1.166, 1.633e-6
-1.167, 1.635e-6
-1.168, 1.635e-6
-1.169, 1.639e-6
-1.170, 1.643e-6
-1.171, 1.646e-6
-1.172, 1.648e-6
-1.173, 1.651e-6
-1.174, 1.658e-6
-1.175, 1.663e-6
-1.176, 1.666e-6
-1.177, 1.669e-6
-1.178, 1.672e-6
-1.179, 1.675e-6
-1.180, 1.682e-6
-1.181, 1.683e-6
-1.182, 1.685e-6
-1.183, 1.687e-6
-1.184, 1.694e-6
-1.185, 1.701e-6
-1.186, 1.701e-6
-1.187, 1.704e-6
-1.188, 1.707e-6
-1.189, 1.712e-6
-1.190, 1.719e-6
-1.191, 1.723e-6
-1.192, 1.723e-6
-1.193, 1.725e-6
-1.194, 1.728e-6
-1.195, 1.737e-6
-1.196, 1.739e-6
-1.197, 1.741e-6
-1.198, 1.745e-6
-1.199, 1.748e-6
-1.200, 1.753e-6
-1.201, 1.758e-6
-1.202, 1.757e-6
-1.203, 1.761e-6
-1.204, 1.768e-6
-1.205, 1.772e-6
-1.206, 1.777e-6
-1.207, 1.777e-6
-1.208, 1.780e-6
-1.209, 1.786e-6
-1.210, 1.790e-6
-1.211, 1.794e-6
-1.212, 1.796e-6
-1.213, 1.799e-6
-1.214, 1.808e-6
-1.215, 1.814e-6
-1.216, 1.816e-6
-1.217, 1.818e-6
-1.218, 1.818e-6
-1.219, 1.824e-6
-1.220, 1.830e-6
-1.221, 1.833e-6
-1.222, 1.835e-6
-1.223, 1.837e-6
-1.224, 1.841e-6
-1.225, 1.848e-6
-1.226, 1.851e-6
-1.227, 1.860e-6
-1.228, 1.864e-6
-1.229, 1.879e-6
-1.230, 1.895e-6
-1.231, 1.885e-6
-1.232, 1.883e-6
-1.233, 1.884e-6
-1.234, 1.889e-6
-1.235, 1.894e-6
-1.236, 1.897e-6
-1.237, 1.897e-6
-1.238, 1.899e-6
-1.239, 1.904e-6
-1.240, 1.912e-6
-1.241, 1.916e-6
-1.242, 1.921e-6
-1.243, 1.925e-6
-1.244, 1.929e-6
-1.245, 1.934e-6
-1.246, 1.937e-6
-1.247, 1.936e-6
-1.248, 1.940e-6
-1.249, 1.947e-6
-1.250, 1.953e-6
-1.251, 1.956e-6
-1.252, 1.958e-6
-1.253, 1.959e-6
-1.254, 1.967e-6
-1.255, 1.972e-6
-1.256, 1.977e-6
-1.257, 1.979e-6
-1.258, 1.980e-6
-1.259, 1.989e-6
-1.260, 1.995e-6
-1.261, 1.999e-6
-1.262, 2.002e-6
-1.263, 2.004e-6
-1.264, 2.011e-6
-1.265, 2.019e-6
-1.266, 2.019e-6
-1.267, 2.024e-6
-1.268, 2.027e-6
-1.269, 2.032e-6
-1.270, 2.042e-6
-1.271, 2.045e-6
-1.272, 2.048e-6
-1.273, 2.050e-6
-1.274, 2.057e-6
-1.275, 2.064e-6
-1.276, 2.066e-6
-1.277, 2.068e-6
-1.278, 2.074e-6
-1.279, 2.080e-6
-1.280, 2.090e-6
-1.281, 2.093e-6
-1.282, 2.093e-6
-1.283, 2.097e-6
-1.284, 2.104e-6
-1.285, 2.110e-6
-1.286, 2.115e-6
-1.287, 2.116e-6
-1.288, 2.120e-6
-1.289, 2.128e-6
-1.290, 2.133e-6
-1.291, 2.138e-6
-1.292, 2.140e-6
-1.293, 2.145e-6
-1.294, 2.153e-6
-1.295, 2.159e-6
-1.296, 2.163e-6
-1.297, 2.165e-6
-1.298, 2.168e-6
-1.299, 2.176e-6
-1.300, 2.181e-6
-1.301, 2.185e-6
-1.302, 2.188e-6
-1.303, 2.191e-6
-1.304, 2.199e-6
-1.305, 2.206e-6
-1.306, 2.210e-6
-1.307, 2.215e-6
-1.308, 2.219e-6
-1.309, 2.224e-6
-1.310, 2.231e-6
-1.311, 2.233e-6
-1.312, 2.236e-6
-1.313, 2.240e-6
-1.314, 2.248e-6
-1.315, 2.255e-6
-1.316, 2.258e-6
-1.317, 2.260e-6
-1.318, 2.265e-6
-1.319, 2.272e-6
-1.320, 2.279e-6
-1.321, 2.283e-6
-1.322, 2.286e-6
-1.323, 2.290e-6
-1.324, 2.298e-6
-1.325, 2.306e-6
-1.326, 2.311e-6
-1.327, 2.313e-6
-1.328, 2.318e-6
-1.329, 2.327e-6
-1.330, 2.332e-6
-1.331, 2.339e-6
-1.332, 2.341e-6
-1.333, 2.345e-6
-1.334, 2.354e-6
-1.335, 2.360e-6
-1.336, 2.365e-6
-1.337, 2.369e-6
-1.338, 2.373e-6
-1.339, 2.382e-6
-1.340, 2.391e-6
-1.341, 2.395e-6
-1.342, 2.401e-6
-1.343, 2.404e-6
-1.344, 2.413e-6
-1.345, 2.421e-6
-1.346, 2.422e-6
-1.347, 2.428e-6
-1.348, 2.433e-6
-1.349, 2.439e-6
-1.350, 2.449e-6
-1.351, 2.452e-6
-1.352, 2.456e-6
-1.353, 2.462e-6
-1.354, 2.469e-6
-1.355, 2.477e-6
-1.356, 2.482e-6
-1.357, 2.486e-6
-1.358, 2.492e-6
-1.359, 2.501e-6
-1.360, 2.508e-6
-1.361, 2.512e-6
-1.362, 2.517e-6
-1.363, 2.524e-6
-1.364, 2.533e-6
-1.365, 2.541e-6
-1.366, 2.548e-6
-1.367, 2.552e-6
-1.368, 2.560e-6
-1.369, 2.571e-6
-1.370, 2.580e-6
-1.371, 2.587e-6
-1.372, 2.592e-6
-1.373, 2.599e-6
-1.374, 2.608e-6
-1.375, 2.617e-6
-1.376, 2.623e-6
-1.377, 2.628e-6
-1.378, 2.632e-6
-1.379, 2.643e-6
-1.380, 2.652e-6
-1.381, 2.658e-6
-1.382, 2.666e-6
-1.383, 2.675e-6
-1.384, 2.684e-6
-1.385, 2.693e-6
-1.386, 2.699e-6
-1.387, 2.705e-6
-1.388, 2.711e-6
-1.389, 2.723e-6
-1.390, 2.736e-6
-1.391, 2.741e-6
-1.392, 2.748e-6
-1.393, 2.758e-6
-1.394, 2.767e-6
-1.395, 2.780e-6
-1.396, 2.788e-6
-1.397, 2.793e-6
-1.398, 2.805e-6
-1.399, 2.816e-6
-1.400, 2.826e-6
-1.401, 2.836e-6
-1.402, 2.841e-6
-1.403, 2.852e-6
-1.404, 2.865e-6
-1.405, 2.878e-6
-1.406, 2.888e-6
-1.407, 2.898e-6
-1.408, 2.908e-6
-1.409, 2.923e-6
-1.410, 2.934e-6
-1.411, 2.944e-6
-1.412, 2.953e-6
-1.413, 2.963e-6
-1.414, 2.977e-6
-1.415, 2.989e-6
-1.416, 3.000e-6
-1.417, 3.008e-6
-1.418, 3.019e-6
-1.419, 3.036e-6
-1.420, 3.048e-6
-1.421, 3.061e-6
-1.422, 3.072e-6
-1.423, 3.082e-6
-1.424, 3.100e-6
-1.425, 3.115e-6
-1.426, 3.126e-6
-1.427, 3.141e-6
-1.428, 3.156e-6
-1.429, 3.174e-6
-1.430, 3.192e-6
-1.431, 3.201e-6
-1.432, 3.212e-6
-1.433, 3.227e-6
-1.434, 3.244e-6
-1.435, 3.260e-6
-1.436, 3.271e-6
-1.437, 3.283e-6
-1.438, 3.299e-6
-1.439, 3.316e-6
-1.440, 3.334e-6
-1.441, 3.348e-6
-1.442, 3.360e-6
-1.443, 3.378e-6
-1.444, 3.397e-6
-1.445, 3.415e-6
-1.446, 3.429e-6
-1.447, 3.444e-6
-1.448, 3.461e-6
-1.449, 3.483e-6
-1.450, 3.501e-6
-1.451, 3.518e-6
-1.452, 3.532e-6
-1.453, 3.549e-6
-1.454, 3.573e-6
-1.455, 3.591e-6
-1.456, 3.607e-6
-1.457, 3.624e-6
-1.458, 3.641e-6
-1.459, 3.668e-6
-1.460, 3.689e-6
-1.461, 3.705e-6
-1.462, 3.725e-6
-1.463, 3.744e-6
-1.464, 3.768e-6
-1.465, 3.794e-6
-1.466, 3.812e-6
-1.467, 3.832e-6
-1.468, 3.851e-6
-1.469, 3.875e-6
-1.470, 3.899e-6
-1.471, 3.917e-6
-1.472, 3.937e-6
-1.473, 3.960e-6
-1.474, 3.985e-6
-1.475, 4.011e-6
-1.476, 4.031e-6
-1.477, 4.051e-6
-1.478, 4.075e-6
-1.479, 4.102e-6
-1.480, 4.126e-6
-1.481, 4.148e-6
-1.482, 4.169e-6
-1.483, 4.195e-6
-1.484, 4.223e-6
-1.485, 4.253e-6
-1.486, 4.277e-6
-1.487, 4.297e-6
-1.488, 4.323e-6
-1.489, 4.354e-6
-1.490, 4.380e-6
-1.491, 4.408e-6
-1.492, 4.433e-6
-1.493, 4.459e-6
-1.494, 4.492e-6
-1.495, 4.520e-6
-1.496, 4.548e-6
-1.497, 4.575e-6
-1.498, 4.602e-6
-1.499, 4.639e-6
-1.500, 4.670e-6
-1.501, 4.698e-6
-1.502, 4.727e-6
-1.503, 4.753e-6
-1.504, 4.788e-6
-1.505, 4.822e-6
-1.506, 4.849e-6
-1.507, 4.879e-6
-1.508, 4.908e-6
-1.509, 4.942e-6
-1.510, 4.978e-6
-1.511, 5.010e-6
-1.512, 5.040e-6
-1.513, 5.075e-6
-1.514, 5.111e-6
-1.515, 5.146e-6
-1.516, 5.180e-6
-1.517, 5.213e-6
-1.518, 5.249e-6
-1.519, 5.287e-6
-1.520, 5.325e-6
-1.521, 5.358e-6
-1.522, 5.391e-6
-1.523, 5.430e-6
-1.524, 5.469e-6
-1.525, 5.508e-6
-1.526, 5.545e-6
-1.527, 5.580e-6
-1.528, 5.621e-6
-1.529, 5.666e-6
-1.530, 5.709e-6
-1.531, 5.751e-6
-1.532, 5.789e-6
-1.533, 5.830e-6
-1.534, 5.872e-6
-1.535, 5.912e-6
-1.536, 5.950e-6
-1.537, 5.990e-6
-1.538, 6.032e-6
-1.539, 6.081e-6
-1.540, 6.125e-6
-1.541, 6.164e-6
-1.542, 6.207e-6
-1.543, 6.250e-6
-1.544, 6.299e-6
-1.545, 6.346e-6
-1.546, 6.388e-6
-1.547, 6.432e-6
-1.548, 6.479e-6
-1.549, 6.531e-6
-1.550, 6.582e-6
-1.551, 6.626e-6
-1.552, 6.673e-6
-1.553, 6.722e-6
-1.554, 6.775e-6
-1.555, 6.827e-6
-1.556, 6.876e-6
-1.557, 6.922e-6
-1.558, 6.976e-6
-1.559, 7.028e-6
-1.560, 7.084e-6
-1.561, 7.137e-6
-1.562, 7.190e-6
-1.563, 7.247e-6
-1.564, 7.302e-6
-1.565, 7.356e-6
-1.566, 7.408e-6
-1.567, 7.462e-6
-1.568, 7.522e-6
-1.569, 7.582e-6
-1.570, 7.639e-6
-1.571, 7.701e-6
-1.572, 7.766e-6
-1.573, 7.826e-6
-1.574, 7.892e-6
-1.575, 7.959e-6
-1.576, 8.023e-6
-1.577, 8.078e-6
-1.578, 8.136e-6
-1.579, 8.208e-6
-1.580, 8.281e-6
-1.581, 8.355e-6
-1.582, 8.418e-6
-1.583, 8.488e-6
-1.584, 8.570e-6
-1.585, 8.645e-6
-1.586, 8.711e-6
-1.587, 8.784e-6
-1.588, 8.854e-6
-1.589, 8.920e-6
-1.590, 8.991e-6
-1.591, 9.074e-6
-1.592, 9.137e-6
-1.593, 9.206e-6
-1.594, 9.281e-6
-1.595, 9.352e-6
-1.596, 9.418e-6
-1.597, 9.481e-6
-1.598, 9.558e-6
-1.599, 9.646e-6
-1.600, 9.734e-6
-1.601, 9.808e-6
-1.602, 9.876e-6
-1.603, 9.940e-6
-1.604, 1.002e-5
-1.605, 1.009e-5
-1.606, 1.016e-5
-1.607, 1.024e-5
-1.608, 1.031e-5
-1.609, 1.040e-5
-1.610, 1.048e-5
-1.611, 1.056e-5
-1.612, 1.066e-5
-1.613, 1.076e-5
-1.614, 1.086e-5
-1.615, 1.094e-5
-1.616, 1.102e-5
-1.617, 1.110e-5
-1.618, 1.119e-5
-1.619, 1.129e-5
-1.620, 1.138e-5
-1.621, 1.147e-5
-1.622, 1.155e-5
-1.623, 1.163e-5
-1.624, 1.173e-5
-1.625, 1.183e-5
-1.626, 1.192e-5
-1.627, 1.201e-5
-1.628, 1.209e-5
-1.629, 1.219e-5
-1.630, 1.229e-5
-1.631, 1.239e-5
-1.632, 1.249e-5
-1.633, 1.257e-5
-1.634, 1.262e-5
-1.635, 1.272e-5
-1.636, 1.281e-5
-1.637, 1.291e-5
-1.638, 1.302e-5
-1.639, 1.314e-5
-1.640, 1.324e-5
-1.641, 1.334e-5
-1.642, 1.344e-5
-1.643, 1.356e-5
-1.644, 1.367e-5
-1.645, 1.378e-5
-1.646, 1.389e-5
-1.647, 1.399e-5
-1.648, 1.410e-5
-1.649, 1.422e-5
-1.650, 1.433e-5
-1.651, 1.444e-5
-1.652, 1.455e-5
-1.653, 1.467e-5
-1.654, 1.480e-5
-1.655, 1.491e-5
-1.656, 1.502e-5
-1.657, 1.514e-5
-1.658, 1.526e-5
-1.659, 1.538e-5
-1.660, 1.549e-5
-1.661, 1.561e-5
-1.662, 1.574e-5
-1.663, 1.586e-5
-1.664, 1.599e-5
-1.665, 1.613e-5
-1.666, 1.624e-5
-1.667, 1.638e-5
-1.668, 1.651e-5
-1.669, 1.665e-5
-1.670, 1.678e-5
-1.671, 1.691e-5
-1.672, 1.703e-5
-1.673, 1.718e-5
-1.674, 1.732e-5
-1.675, 1.746e-5
-1.676, 1.759e-5
-1.677, 1.773e-5
-1.678, 1.787e-5
-1.679, 1.801e-5
-1.680, 1.815e-5
-1.681, 1.829e-5
-1.682, 1.843e-5
-1.683, 1.858e-5
-1.684, 1.873e-5
-1.685, 1.888e-5
-1.686, 1.903e-5
-1.687, 1.917e-5
-1.688, 1.932e-5
-1.689, 1.949e-5
-1.690, 1.966e-5
-1.691, 1.981e-5
-1.692, 1.996e-5
-1.693, 2.012e-5
-1.694, 2.029e-5
-1.695, 2.046e-5
-1.696, 2.060e-5
-1.697, 2.077e-5
-1.698, 2.093e-5
-1.699, 2.112e-5
-1.700, 2.130e-5
-1.701, 2.146e-5
-1.702, 2.161e-5
-1.703, 2.178e-5
-1.704, 2.197e-5
-1.705, 2.215e-5
-1.706, 2.230e-5
-1.707, 2.248e-5
-1.708, 2.268e-5
-1.709, 2.287e-5
-1.710, 2.306e-5
-1.711, 2.324e-5
-1.712, 2.343e-5
-1.713, 2.363e-5
-1.714, 2.383e-5
-1.715, 2.403e-5
-1.716, 2.420e-5
-1.717, 2.439e-5
-1.718, 2.460e-5
-1.719, 2.480e-5
-1.720, 2.500e-5
-1.721, 2.522e-5
-1.722, 2.547e-5
-1.723, 2.574e-5
-1.724, 2.602e-5
-1.725, 2.630e-5
-1.726, 2.655e-5
-1.727, 2.679e-5
-1.728, 2.703e-5
-1.729, 2.729e-5
-1.730, 2.754e-5
-1.731, 2.778e-5
-1.732, 2.805e-5
-1.733, 2.832e-5
-1.734, 2.860e-5
-1.735, 2.888e-5
-1.736, 2.915e-5
-1.737, 2.941e-5
-1.738, 2.969e-5
-1.739, 2.997e-5
-1.740, 3.025e-5
-1.741, 3.049e-5
-1.742, 3.075e-5
-1.743, 3.104e-5
-1.744, 3.136e-5
-1.745, 3.168e-5
-1.746, 3.201e-5
-1.747, 3.235e-5
-1.748, 3.271e-5
-1.749, 3.306e-5
-1.750, 3.341e-5
-1.751, 3.377e-5
-1.752, 3.413e-5
-1.753, 3.449e-5
-1.754, 3.485e-5
-1.755, 3.523e-5
-1.756, 3.562e-5
-1.757, 3.600e-5
-1.758, 3.631e-5
-1.759, 3.663e-5
-1.760, 3.700e-5
-1.761, 3.727e-5
-1.762, 3.757e-5
-1.763, 3.800e-5
-1.764, 3.837e-5
-1.765, 3.822e-5
-1.766, 3.853e-5
-1.767, 3.897e-5
-1.768, 3.951e-5
-1.769, 4.013e-5
-1.770, 4.074e-5
-1.771, 4.136e-5
-1.772, 4.199e-5
-1.773, 4.265e-5
-1.774, 4.332e-5
-1.775, 4.374e-5
-1.776, 4.443e-5
-1.777, 4.542e-5
-1.778, 4.615e-5
-1.779, 4.693e-5
-1.780, 4.775e-5
-1.781, 4.859e-5
-1.782, 4.944e-5
-1.783, 5.033e-5
-1.784, 5.123e-5
-1.785, 5.217e-5
-1.786, 5.314e-5
-1.787, 5.415e-5
-1.788, 5.527e-5
-1.789, 5.644e-5
-1.790, 5.752e-5
-1.791, 5.862e-5
-1.792, 5.973e-5
-1.793, 6.093e-5
-1.794, 6.212e-5
-1.795, 6.335e-5
-1.796, 6.460e-5
-1.797, 6.585e-5
-1.798, 6.706e-5
-1.799, 6.738e-5
-1.800, 6.812e-5
-1.801, 7.099e-5
-1.802, 7.288e-5
-1.803, 7.444e-5
-1.804, 7.598e-5
-1.805, 7.755e-5
-1.806, 7.917e-5
-1.807, 8.082e-5
-1.808, 8.250e-5
-1.809, 8.424e-5
-1.810, 8.602e-5
-1.811, 8.786e-5
-1.812, 8.972e-5
-1.813, 9.160e-5
-1.814, 9.354e-5
-1.815, 9.551e-5
-1.816, 9.750e-5
-1.817, 9.953e-5
-1.818, 1.016e-4
-1.819, 1.037e-4
-1.820, 1.060e-4
-1.821, 1.081e-4
-1.822, 1.106e-4
-1.823, 1.129e-4
-1.824, 1.152e-4
-1.825, 1.175e-4
-1.826, 1.194e-4
-1.827, 1.217e-4
-1.828, 1.242e-4
-1.829, 1.267e-4
-1.830, 1.294e-4
-1.831, 1.319e-4
-1.832, 1.347e-4
-1.833, 1.376e-4
-1.834, 1.404e-4
-1.835, 1.430e-4
-1.836, 1.460e-4
-1.837, 1.489e-4
-1.838, 1.518e-4
-1.839, 1.548e-4
-1.840, 1.581e-4
-1.841, 1.613e-4
-1.842, 1.645e-4
-1.843, 1.677e-4
-1.844, 1.709e-4
-1.845, 1.743e-4
-1.846, 1.771e-4
-1.847, 1.796e-4
-1.848, 1.826e-4
-1.849, 1.859e-4
-1.850, 1.891e-4
-1.851, 1.923e-4
-1.852, 1.958e-4
-1.853, 1.994e-4
-1.854, 2.031e-4
-1.855, 2.066e-4
-1.856, 2.096e-4
-1.857, 2.125e-4
-1.858, 2.162e-4
-1.859, 2.202e-4
-1.860, 2.242e-4
-1.861, 2.286e-4
-1.862, 2.328e-4
-1.863, 2.371e-4
-1.864, 2.413e-4
-1.865, 2.454e-4
-1.866, 2.497e-4
-1.867, 2.542e-4
-1.868, 2.591e-4
-1.869, 2.637e-4
-1.870, 2.686e-4
-1.871, 2.731e-4
-1.872, 2.777e-4
-1.873, 2.823e-4
-1.874, 2.868e-4
-1.875, 2.919e-4
-1.876, 2.966e-4
-1.877, 3.014e-4
-1.878, 3.067e-4
-1.879, 3.113e-4
-1.880, 3.162e-4
-1.881, 3.214e-4
-1.882, 3.267e-4
-1.883, 3.325e-4
-1.884, 3.382e-4
-1.885, 3.437e-4
-1.886, 3.493e-4
-1.887, 3.555e-4
-1.888, 3.615e-4
-1.889, 3.674e-4
-1.890, 3.736e-4
-1.891, 3.798e-4
-1.892, 3.857e-4
-1.893, 3.918e-4
-1.894, 3.977e-4
-1.895, 4.039e-4
-1.896, 4.105e-4
-1.897, 4.171e-4
-1.898, 4.240e-4
-1.899, 4.309e-4
