Potential V vs RHE, Current mA cm-2
0.4132999999999999,0.009206941139521658
0.4122999999999999,0.007285763194304939
0.4112999999999999,0.006557186874874445
0.4102999999999999,0.006071940899020738
0.4092999999999999,0.0057069453836555584
0.4082999999999999,0.005350438136089568
0.4072999999999999,0.005037786938819396
0.4062999999999999,0.00479728601784234
0.4052999999999999,0.004552540962965688
0.4042999999999999,0.004313454753288497
0.4032999999999999,0.004077197966211036
0.4022999999999999,0.003872064827730606
0.4012999999999999,0.0037122024508458563
0.4002999999999999,0.003542437094862052
0.3992999999999999,0.0033528657806801364
0.3982999999999999,0.003156220909998897
0.3972999999999999,0.003002017378313608
0.3962999999999999,0.0028647903822266994
0.3952999999999999,0.002737466365238846
0.3942999999999999,0.0025747745657543667
0.39329999999999987,0.002396520941971372
0.39229999999999987,0.002250805678085273
0.39129999999999987,0.0021305552175967454
0.39029999999999987,0.0020187930249074074
0.38929999999999987,0.001884395451420229
0.38829999999999987,0.0017259477858353447
0.38729999999999987,0.001617015015745737
0.38629999999999987,0.0014939351326574788
0.38529999999999986,0.0013750993834688156
0.38429999999999986,0.001271825458578668
0.38329999999999986,0.0011266760792125153
0.38229999999999986,0.0010317489509915714
0.38129999999999986,0.0009339924001708973
0.38029999999999986,0.0008349626091803447
0.37929999999999986,0.0007357913470598056
0.37829999999999986,0.000594886101593248
0.37729999999999986,0.0004859533315036401
0.37629999999999986,0.00041069069035082014
0.37529999999999986,0.00032128093619934983
0.37429999999999986,0.0002277685192782709
0.37329999999999985,0.00010914497678458758
0.37229999999999985,4.466243573673921e-06
0.37129999999999985,-5.4155148558833596e-05
0.37029999999999985,-0.00013650549332397738
0.36929999999999985,-0.000230032057358055
0.36829999999999985,-0.00032354447427913386
0.36729999999999985,-0.0004170568912002128
0.36629999999999985,-0.0004965636662526279
0.36529999999999985,-0.0005510300512974318
0.36429999999999985,-0.0006402983343189156
0.36329999999999985,-0.0007240492432709258
0.36229999999999984,-0.0008246352166913299
0.36129999999999984,-0.0008706133339369434
0.36029999999999984,-0.0009293238528813426
0.35929999999999984,-0.0010130747618333528
0.35829999999999984,-0.001123280772092839
0.35729999999999984,-0.0012015143069753756
0.35629999999999984,-0.0012446630016212594
0.35529999999999984,-0.0012977146753661982
0.35429999999999984,-0.0013885391408175335
0.35329999999999984,-0.0015024234004566688
0.35229999999999984,-0.0015575971411514054
0.35129999999999983,-0.0016056973253468167
0.35029999999999983,-0.001659456354741688
0.34929999999999983,-0.0017188742293360194
0.34829999999999983,-0.0018377099785246824
0.34729999999999983,-0.0019324956356156402
0.34629999999999983,-0.001959375150313076
0.34529999999999983,-0.002000401778009162
0.34429999999999983,-0.0020711373430024136
0.3432999999999998,-0.0021659230000933708
0.3422999999999998,-0.002216852606888512
0.3412999999999998,-0.0022621233684841937
0.3402999999999998,-0.0023116382639794698
0.3392999999999998,-0.0023625678707746116
0.3382999999999998,-0.002463012373065029
0.3372999999999998,-0.002521015536359495
0.3362999999999998,-0.0025620421640555812
0.3352999999999998,-0.0026101423482509925
0.3342999999999998,-0.002670974934145189
0.3332999999999998,-0.002751613478237496
0.3322999999999998,-0.002825178465830478
0.3312999999999998,-0.0028280078884302087
0.3302999999999998,-0.0028973287421235954
0.3292999999999998,-0.0029468436376188715
0.3282999999999998,-0.0030345557382105036
0.3272999999999998,-0.0031081207258034853
0.3262999999999998,-0.0031081207258034853
0.3252999999999999,-0.003160465043898492
0.3242999999999999,-0.0032156387845932283
0.3232999999999999,-0.0033005214625851306
0.3222999999999999,-0.003368427604978652
0.3212999999999999,-0.0033868188518768974
0.3202999999999999,-0.003430674902172714
0.3192999999999999,-0.0034971663332663706
0.3182999999999999,-0.003563657764360028
0.3172999999999999,-0.0036145873711551685
0.3162999999999999,-0.0036541992875513893
0.3152999999999999,-0.003698055337847206
0.3142999999999999,-0.0037461555220426167
0.3132999999999999,-0.0038296234887346546
0.3122999999999999,-0.0038805530955297956
0.3112999999999999,-0.003901773765027772
0.3102999999999999,-0.003927238568425341
0.3092999999999999,-0.004016365380316839
0.3082999999999999,-0.004082856811410495
0.3072999999999999,-0.0041012480583087416
0.3062999999999999,-0.004155007087703612
0.3052999999999999,-0.004177642468501453
0.3042999999999999,-0.004203107271899024
0.3032999999999999,-0.0042978929289899815
0.3022999999999999,-0.004343163690585663
0.3012999999999999,-0.0043615549374839075
0.3002999999999999,-0.004413899255578915
0.2992999999999999,-0.004428046368577565
0.2982999999999999,-0.004518587891768928
0.2972999999999999,-0.004566688075964338
0.2962999999999999,-0.0045850793228625845
0.2952999999999999,-0.0046317647957581295
0.2942999999999999,-0.004679864979953542
0.2932999999999999,-0.0047520152562466585
0.2922999999999999,-0.004787383038743284
0.2912999999999999,-0.00480577428564153
0.2902999999999999,-0.0048312390890391
0.2892999999999999,-0.004869436294135457
0.2882999999999999,-0.004933098302629383
0.2872999999999999,-0.004972710219025604
0.2862999999999999,-0.0049826131981246585
0.2852999999999999,-0.005019395691921149
0.2842999999999999,-0.0050731547213160215
0.2832999999999999,-0.005133987307210219
0.2822999999999999,-0.00517642864620617
0.2812999999999999,-0.005189161047904954
0.2802999999999999,-0.0052018934496037405
0.2792999999999999,-0.0052655554580976665
0.2782999999999999,-0.005323558621392133
0.2772999999999999,-0.005346194002189974
0.2762999999999999,-0.005371658805587544
0.2752999999999999,-0.005382976495986465
0.2742999999999999,-0.00542966196888201
0.2732999999999999,-0.005497568111275533
0.2722999999999999,-0.005537180027671754
0.2712999999999999,-0.005551327140670404
0.2702999999999999,-0.0055739625214682445
0.2692999999999999,-0.005631965684762711
0.26829999999999987,-0.0056899688480571775
0.26729999999999987,-0.0057069453836555584
0.26629999999999987,-0.0057281660531535335
0.26529999999999987,-0.005767777969549754
0.26429999999999987,-0.005798901618146785
0.26329999999999987,-0.005854075358841523
0.26229999999999987,-0.005880954873538957
0.26129999999999987,-0.005902175543036933
0.26029999999999986,-0.005912078522135988
0.25929999999999986,-0.005947446304632614
0.25829999999999986,-0.0060280848487249215
0.25729999999999986,-0.006062037919921682
0.25629999999999986,-0.006062037919921682
0.25529999999999986,-0.006090332145918982
0.25429999999999986,-0.0061398470414142595
0.25329999999999986,-0.006192191359509265
0.25229999999999986,-0.006226144430706026
0.25129999999999986,-0.006227559142005892
0.25029999999999986,-0.006268585769701978
0.24929999999999986,-0.006318100665197253
0.24829999999999985,-0.0063619567154930695
0.24729999999999985,-0.006400153920589426
0.24629999999999985,-0.006405812765788886
0.24529999999999985,-0.006453912949984298
0.24429999999999985,-0.006497769000280113
0.24329999999999985,-0.006537380916676334
0.24229999999999985,-0.006560016297474175
0.24129999999999985,-0.006591139946071206
0.24029999999999985,-0.006585481100871746
0.23929999999999985,-0.006634995996367021
0.23829999999999985,-0.006678852046662838
0.23729999999999984,-0.006719878674358924
0.23629999999999984,-0.006735440498657439
0.23529999999999984,-0.006735440498657439
0.23429999999999984,-0.006787784816752447
0.23329999999999984,-0.006840129134847452
0.23229999999999984,-0.006862764515645293
0.23129999999999984,-0.006876911628643943
0.23029999999999984,-0.006898132298141919
0.22929999999999984,-0.0069278412354390854
0.22829999999999984,-0.006985844398733551
0.22729999999999984,-0.007002820934331932
0.22629999999999983,-0.007024041603829908
0.22529999999999983,-0.007052335829827208
0.22429999999999983,-0.007080630055824508
0.22329999999999983,-0.007135803796519245
0.22229999999999983,-0.007152780332117625
0.22129999999999983,-0.007172586290315736
0.22029999999999983,-0.007196636382413441
0.21929999999999983,-0.007232004164910068
0.21829999999999983,-0.007305569152503051
0.21729999999999983,-0.007323960399401295
0.21629999999999983,-0.00732254568810143
0.21529999999999982,-0.007345181068899271
0.21429999999999982,-0.0073649870270973816
0.21329999999999982,-0.0074328931694909025
0.21229999999999982,-0.007451284416389148
0.21129999999999982,-0.007452699127689013
0.21029999999999982,-0.007465431529387799
0.20929999999999982,-0.007514946424883075
0.20829999999999982,-0.0075701201655778115
0.20729999999999982,-0.007609732081974032
0.20629999999999982,-0.007615390927173492
0.20529999999999982,-0.007625293906272548
0.20429999999999982,-0.00766207640006904
0.20329999999999981,-0.007725738408562966
0.2022999999999998,-0.007748373789360804
0.2012999999999998,-0.007763935613659322
0.20029999999999992,-0.0077752533040582415
0.19929999999999992,-0.007826182910853382
0.19829999999999992,-0.007875697806348659
0.19729999999999992,-0.007882771362847985
0.19629999999999992,-0.0078983331871465
0.19529999999999992,-0.007913895011445014
0.19429999999999992,-0.008005851245936241
0.19329999999999992,-0.00808083094482909
0.19229999999999992,-0.008059610275331114
0.19129999999999991,-0.008058195564031248
0.1902999999999999,-0.008070927965730034
0.1892999999999999,-0.008104881036926794
0.1882999999999999,-0.008168543045420721
0.1872999999999999,-0.008185519581019101
0.1862999999999999,-0.008210984384416673
0.1852999999999999,-0.008206740250517076
0.1842999999999999,-0.008252011012112759
0.1832999999999999,-0.008317087731906552
0.1822999999999999,-0.008312843598006955
0.1812999999999999,-0.00834538195790385
0.1802999999999999,-0.008366602627401826
0.1792999999999999,-0.00840904396639778
0.1782999999999999,-0.008452900016693595
0.1772999999999999,-0.008465632418392379
0.1762999999999999,-0.008465632418392379
0.1752999999999999,-0.008501000200889005
0.1742999999999999,-0.00853070913818617
0.1732999999999999,-0.008591541724080368
0.1722999999999999,-0.008615591816178074
0.1712999999999999,-0.008608518259678748
0.1702999999999999,-0.008631153640476587
0.1692999999999999,-0.00866510671167335
0.1682999999999999,-0.008728768720167276
0.1672999999999999,-0.008745745255765656
0.1662999999999999,-0.008749989389665251
0.1652999999999999,-0.008765551213963767
0.1642999999999999,-0.008806577841659852
0.1632999999999999,-0.008871654561453645
0.1622999999999999,-0.008874483984053376
0.1612999999999999,-0.008894289942251485
0.1602999999999999,-0.008897119364851215
0.1592999999999999,-0.008959366662045278
0.15829999999999989,-0.009013125691440148
0.15729999999999988,-0.00901029626884042
0.15629999999999988,-0.009027272804438798
0.15529999999999988,-0.009048493473936775
0.15429999999999988,-0.00908952010163286
0.15329999999999988,-0.009146108553627462
0.15229999999999988,-0.009151767398826923
0.15129999999999988,-0.009157426244026382
0.15029999999999988,-0.009165914511825572
0.14929999999999988,-0.009214014696020985
0.14829999999999988,-0.009281920838414505
0.14729999999999988,-0.00928333554971437
0.14629999999999987,-0.009293238528813426
0.14529999999999987,-0.009304556219212345
0.14429999999999987,-0.009348412269508161
0.14329999999999987,-0.00942905081360047
0.14229999999999987,-0.009461589173497365
0.14129999999999987,-0.00945451561699804
0.14029999999999987,-0.009468662729996689
0.13929999999999987,-0.009501201089893585
0.13829999999999987,-0.009563448387087647
0.13729999999999987,-0.009573351366186703
0.13629999999999987,-0.009569107232287107
0.13529999999999986,-0.009598816169584273
0.13429999999999986,-0.00964550164247982
0.13329999999999986,-0.009668137023277661
0.13229999999999986,-0.00970774893967388
0.13129999999999986,-0.009696431249274962
0.13029999999999986,-0.009721896052672532
0.12929999999999986,-0.009765752102968348
0.12829999999999986,-0.009808193441964298
0.12729999999999986,-0.00983365824536187
0.12629999999999986,-0.00983931709056133
0.12529999999999986,-0.0098647818939589
0.12429999999999986,-0.0099213703459535
0.12329999999999985,-0.009951079283250668
0.12229999999999985,-0.009960982262349724
0.12129999999999985,-0.009980788220547833
0.12029999999999985,-0.009994935333546484
0.11929999999999985,-0.01005010907424122
0.11829999999999985,-0.010091135701937308
0.11729999999999985,-0.010133577040933258
0.11629999999999985,-0.010150553576531638
0.11529999999999985,-0.010142065308732446
0.11429999999999985,-0.010201483183326778
0.11329999999999985,-0.010239680388423135
0.11229999999999984,-0.010256656924021517
0.11129999999999984,-0.010286365861318682
0.11029999999999984,-0.010282121727419087
0.10929999999999984,-0.010334466045514093
0.10829999999999984,-0.01039529863140829
0.10729999999999984,-0.010382566229709504
0.10629999999999984,-0.01040661632180721
0.10529999999999984,-0.010422178146105724
0.10429999999999984,-0.010483010731999922
0.10329999999999984,-0.010528281493595602
0.10229999999999984,-0.010550916874393444
0.10129999999999983,-0.010550916874393444
0.10029999999999983,-0.01058628465689007
0.09929999999999983,-0.01061457888288737
0.09829999999999983,-0.010690973293080082
0.09729999999999983,-0.010698046849579406
0.09629999999999983,-0.010707949828678464
0.09529999999999983,-0.010734829343375898
0.09429999999999983,-0.010788588372770769
0.09329999999999983,-0.010835273845666316
0.09229999999999983,-0.01084517682476537
0.09129999999999983,-0.010866397494263347
0.09029999999999982,-0.010889032875061187
0.08929999999999982,-0.010941377193156193
0.08829999999999982,-0.01099655093385093
0.08729999999999982,-0.010986647954751875
0.08629999999999982,-0.01099938035645066
0.08529999999999982,-0.01102767458244796
0.08429999999999982,-0.011096995436141347
0.08329999999999982,-0.011130948507338109
0.08229999999999982,-0.011149339754236355
0.08129999999999982,-0.01117056042373433
0.08029999999999982,-0.011186122248032844
0.07929999999999982,-0.011269590214724881
0.07829999999999981,-0.011304957997221508
0.07729999999999981,-0.011334666934518673
0.07629999999999981,-0.01135305818141692
0.07529999999999992,-0.011361546449216109
0.07429999999999992,-0.011405402499511925
0.07329999999999992,-0.011469064508005854
0.07229999999999992,-0.011486041043604234
0.07129999999999992,-0.011508676424402073
0.07029999999999992,-0.011524238248700589
0.06929999999999992,-0.011599217947593436
0.06829999999999992,-0.011650147554388578
0.06729999999999992,-0.011643073997889252
0.06629999999999991,-0.011679856491685743
0.06529999999999991,-0.011701077161183718
0.06429999999999991,-0.01175766561317832
0.06329999999999991,-0.011821327621672246
0.06229999999999991,-0.011821327621672246
0.06129999999999991,-0.011836889445970762
0.06029999999999991,-0.01186942780586766
0.05929999999999991,-0.01193733394826118
0.05829999999999991,-0.011986848843756457
0.05729999999999991,-0.011999581245455242
0.056299999999999906,-0.012015143069753757
0.055299999999999905,-0.012046266718350788
0.054299999999999904,-0.012090122768646605
0.0532999999999999,-0.01215661419974026
0.0522999999999999,-0.01218207900313783
0.0512999999999999,-0.012203299672635807
0.0502999999999999,-0.012242911589032027
0.0492999999999999,-0.012309403020125686
0.0482999999999999,-0.012350429647821771
0.0472999999999999,-0.012382968007718667
0.0462999999999999,-0.012395700409417452
0.045299999999999896,-0.012422579924114888
0.044299999999999895,-0.0124989743343076
0.043299999999999894,-0.01253858625070382
0.04229999999999989,-0.012545659807203145
0.04129999999999989,-0.012595174702698421
0.04029999999999989,-0.012653177865992887
0.03929999999999989,-0.012722498719686275
0.03829999999999989,-0.012739475255284655
0.03729999999999989,-0.01275503707958317
0.03629999999999989,-0.012788990150779932
0.03529999999999989,-0.012817284376777233
0.034299999999999886,-0.012892264075670078
0.033299999999999885,-0.012947437816364817
0.032299999999999884,-0.01294319368246522
0.031299999999999883,-0.012979976176261713
0.030299999999999883,-0.013005440979659283
0.02929999999999988,-0.013064858854253614
0.02829999999999988,-0.01313983855314646
0.02729999999999988,-0.013152570954845245
0.02629999999999988,-0.013173791624343222
0.025299999999999878,-0.013214818252039308
0.024299999999999877,-0.01329121266223202
0.023299999999999876,-0.013329409867328374
0.022299999999999875,-0.013344971691626892
0.021299999999999875,-0.013387413030622844
0.020299999999999874,-0.013432683792218523
0.019299999999999873,-0.01349068695551299
0.018299999999999872,-0.013558593097906512
0.01729999999999987,-0.013575569633504894
0.01629999999999987,-0.013595375591703002
0.01529999999999987,-0.013646305198498144
0.014299999999999868,-0.013725529031290587
0.013299999999999867,-0.013770799792886269
0.012299999999999978,-0.013797679307583703
0.011299999999999866,-0.013825973533581002
0.010299999999999976,-0.013854267759578305
0.009299999999999864,-0.01393773572627034
0.008299999999999974,-0.013984421199165886
0.007299999999999862,-0.01401554484776292
0.006299999999999972,-0.01405232734155941
0.00529999999999986,-0.014096183391855225
0.0042999999999999705,-0.014175407224647668
0.0032999999999998586,-0.014203701450644968
0.0022999999999999687,-0.014231995676642267
0.0012999999999998568,-0.01427443701563822
0.00029999999999996696,-0.01430273124163552
-0.000700000000000145,-0.014373466806628774
-0.0017000000000000348,-0.014430055258623373
-0.0027000000000001467,-0.014458349484620674
-0.0037000000000000366,-0.014500790823616624
-0.0047000000000001485,-0.014529085049613928
-0.005700000000000038,-0.014599820614607179
-0.00670000000000015,-0.01465640906660178
-0.00770000000000004,-0.014670556179600431
-0.008700000000000152,-0.014712997518596381
-0.009700000000000042,-0.014741291744593682
-0.010700000000000154,-0.014854468648582884
-0.011700000000000044,-0.014911057100577486
-0.012700000000000156,-0.014925204213576137
-0.013700000000000045,-0.014967645552572089
-0.014700000000000157,-0.014995939778569388
-0.015700000000000047,-0.01505252823056399
-0.01670000000000016,-0.015123263795557243
-0.01770000000000005,-0.015137410908555892
-0.01870000000000016,-0.015179852247551842
-0.01970000000000005,-0.015250587812545097
-0.020700000000000163,-0.015278882038542396
-0.021700000000000053,-0.015349617603535646
-0.022700000000000164,-0.015377911829532949
-0.023700000000000054,-0.015420353168528897
-0.024700000000000166,-0.015448647394526203
-0.025700000000000056,-0.015505235846520802
-0.026700000000000168,-0.015561824298515404
-0.027700000000000058,-0.015590118524512706
-0.02870000000000017,-0.015618412750510005
-0.02970000000000006,-0.015660854089505957
-0.03070000000000017,-0.015745736767497857
-0.03170000000000006,-0.015774030993495156
-0.03270000000000017,-0.01580232521949246
-0.03370000000000006,-0.01583061944548976
-0.034700000000000175,-0.015873060784485714
-0.035700000000000065,-0.015929649236480315
-0.03670000000000018,-0.015986237688474913
-0.03770000000000007,-0.016014531914472215
-0.03870000000000018,-0.016042826140469518
-0.03970000000000007,-0.01608526747946547
-0.04070000000000018,-0.01615600304445872
-0.04170000000000007,-0.01619844438345467
-0.04270000000000018,-0.01624088572245062
-0.04370000000000007,-0.016269179948447923
-0.044700000000000184,-0.016325768400442524
-0.045700000000000074,-0.016410651078434424
-0.046700000000000186,-0.016453092417430374
-0.047700000000000076,-0.01646723953042903
-0.04870000000000019,-0.016495533756426328
-0.04970000000000008,-0.016552122208420932
-0.05070000000000019,-0.016637004886412832
-0.05170000000000008,-0.01666529911241013
-0.05270000000000019,-0.016693593338407434
-0.05370000000000008,-0.016721887564404736
-0.05470000000000019,-0.016750181790402035
-0.05570000000000008,-0.016820917355395284
-0.056700000000000195,-0.01687750580738989
-0.057700000000000085,-0.01690580003338719
-0.058700000000000196,-0.01693409425938449
-0.059700000000000086,-0.01697653559838044
-0.0607000000000002,-0.017018976937376393
