Potential V vs RHE, Current mA cm-2
0.013299999999999867,-0.7001406223032067
0.012299999999999978,-2.968064307116847
0.011299999999999866,-4.712403339850438
0.010299999999999976,-6.108723392817228
0.009299999999999864,-7.243321855308987
0.008299999999999974,-8.11478401602585
0.007299999999999862,-8.943804837746763
0.006299999999999972,-9.59740145828441
0.00529999999999986,-10.25241279012192
0.0042999999999999705,-10.863568071663616
0.0032999999999998586,-11.385596541313816
0.0022999999999999687,-11.909039722263879
0.0012999999999998568,-12.258473413330542
0.00029999999999996696,-12.607907104397206
-0.000700000000000145,-12.781916594280606
-0.0017000000000000348,-12.913484745168056
-0.0027000000000001467,-12.99978213445982
-0.0037000000000000366,-13.043638184755638
-0.0047000000000001485,-13.175206335643086
-0.005700000000000038,-13.261503724934855
-0.00670000000000015,-13.47936926511407
-0.00770000000000004,-13.654793466297335
-0.008700000000000152,-13.872659006476551
-0.009700000000000042,-14.090524546655764
-0.010700000000000154,-14.175407224647667
-0.011700000000000044,-14.30273124163552
-0.012700000000000156,-14.30273124163552
-0.013700000000000045,-14.26028990263957
-0.014700000000000157,-14.217848563643619
-0.015700000000000047,-14.175407224647667
-0.01670000000000016,-14.175407224647667
-0.01770000000000005,-14.26028990263957
-0.01870000000000016,-14.345172580631472
-0.01970000000000005,-14.486643710617974
-0.020700000000000163,-14.61396772760583
-0.021700000000000053,-14.741291744593681
-0.022700000000000164,-14.826174422585586
-0.023700000000000054,-14.826174422585586
-0.024700000000000166,-14.826174422585586
-0.025700000000000056,-14.741291744593681
-0.026700000000000168,-14.65640906660178
-0.027700000000000058,-14.65640906660178
-0.02870000000000017,-14.65640906660178
-0.02970000000000006,-14.69885040559773
-0.03070000000000017,-14.826174422585586
-0.03170000000000006,-14.925204213576137
-0.03270000000000017,-15.094969569559943
-0.03370000000000006,-15.137410908555893
-0.034700000000000175,-15.222293586547794
-0.035700000000000065,-15.222293586547794
-0.03670000000000018,-15.179852247551842
-0.03770000000000007,-15.05252823056399
-0.03870000000000018,-14.925204213576137
-0.03970000000000007,-14.967645552572087
-0.04070000000000018,-14.925204213576137
-0.04170000000000007,-15.05252823056399
-0.04270000000000018,-15.137410908555893
-0.04370000000000007,-15.264734925543747
-0.044700000000000184,-15.448647394526201
-0.045700000000000074,-15.448647394526201
-0.046700000000000186,-15.491088733522153
-0.047700000000000076,-15.448647394526201
-0.04870000000000019,-15.349617603535648
-0.04970000000000008,-15.307176264539699
-0.05070000000000019,-15.179852247551842
-0.05170000000000008,-15.179852247551842
-0.05270000000000019,-15.222293586547794
-0.05370000000000008,-15.307176264539699
-0.05470000000000019,-15.3920589425316
-0.05570000000000008,-15.533530072518102
-0.056700000000000195,-15.660854089505953
-0.057700000000000085,-15.70329542850191
-0.058700000000000196,-15.660854089505953
-0.059700000000000086,-15.618412750510005
-0.0607000000000002,-15.533530072518102
-0.06170000000000009,-15.448647394526201
-0.0627000000000002,-15.448647394526201
-0.06370000000000009,-15.3920589425316
-0.0647000000000002,-15.448647394526201
-0.06570000000000009,-15.575971411514052
-0.0667000000000002,-15.660854089505953
-0.0677000000000001,-15.830619445489761
-0.0687000000000002,-15.87306078448571
-0.0697000000000001,-15.91550212348166
-0.07070000000000021,-15.87306078448571
-0.0717000000000001,-15.78817810649381
-0.07270000000000021,-15.70329542850191
-0.0737000000000001,-15.575971411514052
-0.07470000000000021,-15.575971411514052
-0.0757000000000001,-15.575971411514052
-0.07670000000000021,-15.660854089505953
-0.0777000000000001,-15.78817810649381
-0.07870000000000021,-15.91550212348166
-0.0797000000000001,-16.056973253468165
-0.08070000000000022,-16.099414592464115
-0.0817000000000001,-16.141855931460068
-0.08270000000000022,-16.056973253468165
-0.08370000000000011,-16.014531914472215
-0.08470000000000022,-15.972090575476265
-0.08570000000000011,-15.87306078448571
-0.08670000000000022,-15.87306078448571
-0.08770000000000011,-15.87306078448571
-0.08870000000000022,-15.972090575476265
-0.08970000000000011,-16.099414592464115
-0.09070000000000022,-16.184297270456018
-0.09170000000000011,-16.311621287443874
-0.09270000000000023,-16.354062626439823
-0.09370000000000012,-16.311621287443874
-0.09470000000000023,-16.269179948447924
-0.09570000000000012,-16.184297270456018
-0.09670000000000023,-16.099414592464115
-0.09770000000000012,-16.014531914472215
-0.09870000000000023,-16.014531914472215
-0.09970000000000012,-16.056973253468165
-0.10070000000000023,-16.184297270456018
-0.10170000000000012,-16.22673860945197
-0.10270000000000024,-16.396503965435777
-0.10370000000000013,-16.438945304431726
-0.10470000000000024,-16.495533756426326
-0.10570000000000013,-16.438945304431726
-0.10670000000000024,-16.354062626439823
-0.10770000000000013,-16.269179948447924
-0.10870000000000024,-16.141855931460068
-0.10970000000000013,-16.141855931460068
-0.11070000000000024,-16.099414592464115
-0.11170000000000013,-16.22673860945197
-0.11270000000000002,-16.311621287443874
-0.11370000000000013,-16.396503965435777
-0.11470000000000002,-16.53797509542228
-0.11570000000000014,-16.580416434418233
-0.11670000000000003,-16.580416434418233
-0.11770000000000014,-16.53797509542228
-0.11870000000000003,-16.495533756426326
-0.11970000000000014,-16.396503965435777
-0.12070000000000003,-16.354062626439823
-0.12170000000000014,-16.311621287443874
-0.12270000000000003,-16.311621287443874
-0.12370000000000014,-16.396503965435777
-0.12470000000000003,-16.495533756426326
-0.12570000000000014,-16.622857773414182
-0.12670000000000003,-16.70774045140608
-0.12770000000000015,-16.750181790402035
-0.12870000000000004,-16.70774045140608
-0.12970000000000015,-16.665299112410132
-0.13070000000000004,-16.580416434418233
-0.13170000000000015,-16.438945304431726
-0.13270000000000004,-16.396503965435777
-0.13370000000000015,-16.354062626439823
-0.13470000000000004,-16.396503965435777
-0.13570000000000015,-16.495533756426326
-0.13670000000000004,-16.580416434418233
-0.13770000000000016,-16.750181790402035
-0.13870000000000005,-16.792623129397985
-0.13970000000000016,-16.835064468393938
-0.14070000000000005,-16.750181790402035
-0.14170000000000016,-16.665299112410132
-0.14270000000000005,-16.580416434418233
-0.14370000000000016,-16.396503965435777
-0.14470000000000005,-16.396503965435777
-0.14570000000000016,-16.354062626439823
-0.14670000000000005,-16.438945304431726
-0.14770000000000016,-16.53797509542228
-0.14870000000000005,-16.622857773414182
-0.14970000000000017,-16.750181790402035
-0.15070000000000006,-16.792623129397985
-0.15170000000000017,-16.792623129397985
-0.15270000000000006,-16.70774045140608
-0.15370000000000017,-16.622857773414182
-0.15470000000000006,-16.53797509542228
-0.15570000000000017,-16.396503965435777
-0.15670000000000006,-16.396503965435777
-0.15770000000000017,-16.396503965435777
-0.15870000000000006,-16.495533756426326
-0.15970000000000018,-16.580416434418233
-0.16070000000000007,-16.665299112410132
-0.16170000000000018,-16.792623129397985
-0.16270000000000007,-16.835064468393938
-0.16370000000000018,-16.792623129397985
-0.16470000000000007,-16.750181790402035
-0.16570000000000018,-16.665299112410132
-0.16670000000000007,-16.53797509542228
-0.16770000000000018,-16.495533756426326
-0.16870000000000007,-16.438945304431726
-0.16970000000000018,-16.495533756426326
-0.17070000000000007,-16.622857773414182
-0.17170000000000019,-16.70774045140608
-0.17270000000000008,-16.835064468393938
-0.1737000000000002,-16.877505807389888
-0.17470000000000008,-16.962388485381787
-0.1757000000000002,-16.919947146385837
-0.17670000000000008,-16.877505807389888
-0.1777000000000002,-16.750181790402035
-0.17870000000000008,-16.622857773414182
-0.1797000000000002,-16.622857773414182
-0.18070000000000008,-16.580416434418233
-0.1817000000000002,-16.70774045140608
-0.18270000000000008,-16.792623129397985
-0.1837000000000002,-16.877505807389888
-0.1847000000000001,-17.061418276372343
-0.1857000000000002,-17.061418276372343
-0.1867000000000001,-17.103859615368293
-0.1877000000000002,-17.061418276372343
-0.1887000000000001,-16.962388485381787
-0.1897000000000002,-16.919947146385837
-0.1907000000000001,-16.835064468393938
-0.1917000000000001,-16.792623129397985
-0.19269999999999998,-16.835064468393938
-0.1937000000000001,-16.919947146385837
-0.19469999999999998,-17.061418276372343
-0.1957000000000001,-17.188742293360193
-0.19669999999999999,-17.2736249713521
-0.1977000000000001,-17.316066310348052
-0.1987,-17.316066310348052
-0.1997000000000001,-17.2736249713521
-0.2007,-17.231183632356142
-0.2017000000000001,-17.146300954364243
-0.2027,-17.146300954364243
-0.2037000000000001,-17.146300954364243
-0.2047,-17.231183632356142
-0.2057000000000001,-17.316066310348052
-0.2067,-17.48583166633185
-0.2077000000000001,-17.669744135314307
-0.2087,-17.75462681330621
-0.2097000000000001,-17.839509491298113
-0.2107,-17.839509491298113
-0.2117000000000001,-17.797068152302163
-0.2127,-17.75462681330621
-0.2137000000000001,-17.71218547431026
-0.2147,-17.75462681330621
-0.2157000000000001,-17.839509491298113
-0.2167,-17.966833508285966
-0.21770000000000012,-18.15074597726842
-0.2187,-18.27806999425627
-0.21970000000000012,-18.44783535024008
-0.2207,-18.53271802823198
-0.22170000000000012,-18.674189158218486
-0.2227,-18.674189158218486
-0.22370000000000012,-18.631747819222536
-0.2247,-18.631747819222536
-0.22570000000000012,-18.631747819222536
-0.2267,-18.674189158218486
-0.22770000000000012,-18.759071836210385
-0.22870000000000001,-18.92883719219419
-0.22970000000000013,-19.112749661176647
-0.23070000000000002,-19.3249563561564
-0.23170000000000013,-19.49472171214021
-0.23270000000000002,-19.636192842126707
-0.23370000000000013,-19.721075520118614
-0.23470000000000002,-19.763516859114564
-0.23570000000000013,-19.763516859114564
-0.23670000000000002,-19.763516859114564
-0.2376999999999999,-19.848399537106463
-0.23870000000000002,-19.93328221509837
-0.2396999999999999,-20.10304757108217
-0.24070000000000003,-20.329401379060574
-0.24169999999999991,-20.541608074040333
-0.24270000000000003,-20.810403221014692
-0.24369999999999992,-20.980168576998494
-0.24470000000000003,-21.2065223849769
-0.24569999999999992,-21.248963723972853
-0.24670000000000003,-21.333846401964752
-0.24769999999999992,-21.418729079956652
-0.24870000000000003,-21.418729079956652
-0.24969999999999992,-21.54605309694451
-0.25070000000000003,-21.67337711393236
-0.2516999999999999,-21.899730921910766
-0.25270000000000004,-22.196820294882425
-0.2536999999999999,-22.46561544185678
-0.25470000000000004,-22.819293266823045
-0.2556999999999999,-22.989058622806844
-0.25670000000000004,-23.24370665678255
-0.25769999999999993,-23.342736447773106
-0.25870000000000004,-23.47006046476096
-0.25969999999999993,-23.597384481748815
-0.26070000000000004,-23.682267159740714
-0.26169999999999993,-23.908620967719123
-0.26270000000000004,-24.120827662698876
-0.26369999999999993,-24.389622809673234
-0.26470000000000005,-24.729153521640843
-0.26569999999999994,-25.0828313466071
-0.26670000000000005,-25.43650917157336
-0.26769999999999994,-25.73359854454502
-0.26870000000000005,-25.91751101352747
-0.26969999999999994,-26.087276369511276
-0.27070000000000005,-26.257041725495082
-0.27169999999999994,-26.38436574248293
-0.27270000000000005,-26.65316088945729
-0.27369999999999994,-26.86536758443705
-0.27470000000000006,-27.176604070407354
-0.27569999999999995,-27.530281895373616
-0.27670000000000006,-27.912253946337174
-0.27769999999999995,-28.350814449295335
-0.27870000000000006,-28.662050935265643
-0.27969999999999995,-29.001581647233255
-0.28070000000000006,-29.27037679420761
-0.28169999999999995,-29.482583489187363
-0.28270000000000006,-29.708937297165768
-0.28369999999999995,-29.921143992145527
-0.28470000000000006,-30.232380478115836
-0.28569999999999995,-30.487028512091538
-0.28670000000000007,-30.925589015049702
-0.28769999999999996,-31.321708179011907
-0.28870000000000007,-31.76026868197007
-0.28969999999999996,-32.24127052392419
-0.29070000000000007,-32.62324257488775
-0.29169999999999996,-33.01936173884996
-0.29270000000000007,-33.330598224820264
-0.29369999999999996,-33.58524625879597
-0.2947000000000001,-33.89648274476628
-0.29569999999999996,-34.15113077874198
-0.2967000000000001,-34.5472499427042
-0.29769999999999996,-34.94336910666641
-0.2987000000000001,-35.38192960962457
-0.29969999999999997,-35.90537279057463
-0.3007000000000001,-36.37222751953009
-0.30169999999999997,-36.89567070048016
-0.3027000000000001,-37.376672542434264
-0.30369999999999997,-37.77279170639648
-0.3047000000000001,-38.12646953136274
-0.30569999999999997,-38.522588695324956
-0.3067000000000001,-38.81967806829661
-0.3077,-39.258238571254765
-0.3087000000000001,-39.654357735216976
-0.3097,-40.177800916167044
-0.3107000000000001,-40.78612677510901
-0.3117,-41.352011295055014
-0.3127000000000001,-41.96033715399699
-0.3137,-42.526221673943
-0.3147000000000001,-43.04966485489307
-0.3157,-43.48822535785123
-0.3167000000000001,-43.92678586080939
-0.3177,-44.36534636376755
-0.3187000000000001,-44.74731841473111
-0.3197,-45.27076159568118
-0.3207000000000001,-45.75176343763528
-0.3217,-46.37423640957591
-0.3227000000000001,-47.02500360751382
-0.3237,-47.633329466455784
-0.3247000000000001,-48.32653800338966
-0.3257,-48.93486386233162
-0.3267000000000001,-49.557336834272235
-0.3277,-50.024191563227696
-0.3287000000000001,-50.547634744177756
-0.3297,-51.028636586131874
-0.3307000000000001,-51.509638428085985
-0.3317,-52.11796428702795
-0.3327000000000001,-52.69799591997262
-0.3337,-53.39120445690648
-0.3347000000000001,-54.0419716548444
-0.3357,-54.73518019177827
-0.3367000000000001,-55.484977180706736
-0.3377,-56.1781857176406
-0.3387000000000001,-56.786511576582576
-0.3397,-57.408984548523186
-0.3407000000000001,-57.974869068469204
-0.3417,-58.498312249419264
-0.3427000000000001,-59.14907944735718
-0.3437,-59.757405306299155
-0.3447000000000001,-60.49305518222897
-0.3457,-61.242852171157445
-0.3467000000000001,-61.97850204708726
-0.3477,-62.855623053003576
-0.3487000000000001,-63.59127292893339
-0.3497,-64.38351125685783
-0.3507000000000001,-65.0767197937917
-0.3517,-65.76992833072556
-0.3527000000000001,-66.47728398065809
-0.3537,-67.08560983960004
-0.3547000000000001,-67.82125971552985
-0.3557,-68.57105670445833
-0.35670000000000013,-69.39158925838004
-0.3577,-70.22626892530042
-0.35870000000000013,-71.10338993121674
-0.3597,-72.00880516313036
-0.36070000000000013,-72.84348483005074
-0.3617,-73.6781644969711
-0.3626999999999999,-74.45625571189689
-0.3637,-75.2484940398213
-0.3646999999999999,-75.98414391575112
-0.3657,-76.71979379168094
-0.3666999999999999,-77.55447345860131
-0.3677,-78.38915312552167
-0.3686999999999999,-79.2945683574353
-0.36970000000000003,-80.25657204134353
-0.3706999999999999,-81.1761343862558
-0.37170000000000003,-82.18057940915998
-0.3726999999999999,-83.04355330207765
-0.37370000000000003,-83.87823296899803
-0.3746999999999999,-84.7129126359184
-0.37570000000000003,-85.53344518984011
-0.3766999999999999,-86.32568351776455
-0.37770000000000004,-87.18865741068221
-0.3786999999999999,-88.06577841659853
-0.37970000000000004,-88.9853407615108
-0.3806999999999999,-89.98978578441499
-0.38170000000000004,-90.99423080731917
-0.38269999999999993,-92.04111716921928
-0.38370000000000004,-92.94653240113291
-0.38469999999999993,-93.95097742403709
-0.38570000000000004,-94.87053976894937
-0.38669999999999993,-93.90853608504113
-0.38570000000000004,-90.24443381839069
-0.38469999999999993,-87.18865741068221
-0.38370000000000004,-84.75535397491434
-0.38269999999999993,-82.6615812511141
-0.38170000000000004,-80.82245656128954
-0.3806999999999999,-79.16724434044745
-0.37970000000000004,-77.68179747558916
-0.3786999999999999,-76.38026307971333
-0.37770000000000004,-74.93725755385098
-0.3766999999999999,-73.57913470598055
-0.37570000000000003,-72.15027629311687
-0.3746999999999999,-70.74971210625048
-0.37370000000000003,-69.43403059737601
-0.3726999999999999,-68.04761352350828
-0.37170000000000003,-66.81681469262568
-0.3706999999999999,-65.64260431373769
-0.36970000000000003,-64.51083527384567
-0.3686999999999999,-63.421507572949594
-0.3677,-62.37462121104946
-0.3666999999999999,-61.327734849149344
-0.3657,-60.32328982624517
-0.3646999999999999,-59.14907944735718
-0.3637,-58.05975174646111
-0.3626999999999999,-56.927982706569075
-0.3617,-55.6971838756865
-0.36070000000000013,-54.65029751378637
-0.3597,-53.56096981289029
-0.35870000000000013,-52.55652478998611
-0.3577,-51.594521106077885
-0.35670000000000013,-50.73154721316022
-0.3557,-49.81198486824794
-0.3547000000000001,-48.93486386233162
-0.3537,-47.987007291422046
-0.3527000000000001,-47.02500360751382
-0.3517,-46.02055858460964
-0.3507000000000001,-45.01611356170547
-0.3497,-43.96922719980534
-0.3487000000000001,-43.007223515897124
-0.3477,-42.04521983198889
-0.3467000000000001,-41.267128617063115
-0.3457,-40.43244895014274
-0.3447000000000001,-39.696799074212926
-0.3437,-38.98944342428042
-0.3427000000000001,-38.16891087035869
-0.3417,-37.376672542434264
-0.3407000000000001,-36.47125731052064
-0.3397,-35.594136304604326
-0.3387000000000001,-34.717015298688004
-0.3377,-33.755011614779775
-0.3367000000000001,-32.97692039985401
-0.3357,-32.184682071929586
-0.3347000000000001,-31.49147353499572
-0.3337,-30.8407063370578
-0.3327000000000001,-30.189939139119886
-0.3317,-29.525024828183312
-0.3307000000000001,-28.831816291249446
-0.3297,-28.09616641531963
-0.3287000000000001,-27.34636942639116
-0.3277,-26.568278211465387
-0.3267000000000001,-25.77603988354097
-0.3257,-25.04039000761115
-0.3247000000000001,-24.34718147067728
-0.3237,-23.724708498736668
-0.3227000000000001,-23.15882397879065
-0.3217,-22.592939458844636
-0.3207000000000001,-22.069496277894572
-0.3197,-21.503611757948562
-0.3187000000000001,-20.93772723800254
-0.3177,-20.286960040064624
-0.3167000000000001,-19.636192842126707
-0.3157,-18.92883719219419
-0.3147000000000001,-18.23562865526032
-0.3137,-17.627302796318357
-0.3127000000000001,-17.018976937376394
-0.3117,-16.580416434418233
-0.3107000000000001,-16.099414592464115
-0.3097,-15.660854089505953
-0.3087000000000001,-15.264734925543747
-0.3077,-14.741291744593681
-0.3067000000000001,-14.30273124163552
-0.30569999999999997,-13.698649516593148
-0.3047000000000001,-13.13135028534727
-0.30369999999999997,-12.56405105410139
-0.3027000000000001,-11.952895772559694
-0.30169999999999997,-11.42945259160963
-0.3007000000000001,-10.949865460955383
-0.29969999999999997,-10.557990430892769
-0.2987000000000001,-10.208556739826104
-0.29769999999999996,-9.85912304875944
-0.2967000000000001,-9.511104068992642
-0.29569999999999996,-9.11781432763016
-0.2947000000000001,-8.638227196975913
-0.29369999999999996,-8.158640066321666
-0.29270000000000007,-7.635196885371603
-0.29169999999999996,-7.111753704421539
-0.29070000000000007,-6.6760226240631075
-0.28969999999999996,-6.196435493408861
-0.28870000000000007,-5.847001802342197
-0.28769999999999996,-5.5414241615713475
-0.28670000000000007,-5.235846520800501
-0.28569999999999995,-5.017980980621284
-0.28470000000000006,-4.712403339850438
-0.28369999999999995,-4.364384360083638
-0.28270000000000006,-3.971094618721158
-0.28169999999999995,-3.4915074880669104
-0.28070000000000006,-3.0996324580042955
-0.27969999999999995,-2.618630616050183
-0.27870000000000006,-2.226755585987568
-0.27769999999999995,-1.8773218949209036
-0.27670000000000006,-1.6156003044458718
-0.27569999999999995,-1.3980177065266295
-0.27470000000000006,-1.1798692240874404
-0.27369999999999994,-1.0054353208140816
-0.27270000000000005,-0.7437137303390498
-0.27169999999999994,-0.4384190318281749
-0.27070000000000005,-0.04582249900262853
-0.26969999999999994,0.3031726315610774
-0.26870000000000005,0.6520404381077953
