Potential V vs RHE, Current mA cm-2
0.013299999999999867,-0.3511313446265021
0.012299999999999978,-1.3543031273607997
0.011299999999999866,-2.052746096104168
0.010299999999999976,-2.618630616050183
0.009299999999999864,-3.055776407708479
0.008299999999999974,-3.403795387475278
0.007299999999999862,-3.7532290785419424
0.006299999999999972,-4.0588067193127895
0.00529999999999986,-4.276672259492005
0.0042999999999999705,-4.538393849967037
0.0032999999999998586,-4.756259390146253
0.0022999999999999687,-4.9302688800296535
0.0012999999999998568,-5.105693081212917
0.00029999999999996696,-5.235846520800501
-0.000700000000000145,-5.367414671687949
-0.0017000000000000348,-5.5414241615713475
-0.0027000000000001467,-5.629136262162981
-0.0037000000000000366,-5.759289701750564
-0.0047000000000001485,-5.847001802342197
-0.005700000000000038,-5.977155241929781
-0.00670000000000015,-6.064867342521412
-0.00770000000000004,-6.196435493408861
-0.008700000000000152,-6.282732882700628
-0.009700000000000042,-6.37044498329226
-0.010700000000000154,-6.500598422879844
-0.011700000000000044,-6.632166573767292
-0.012700000000000156,-6.719878674358924
-0.013700000000000045,-6.806176063650692
-0.014700000000000157,-6.93774421453814
-0.015700000000000047,-7.024041603829907
-0.01670000000000016,-7.155609754717355
-0.01770000000000005,-7.28576319430494
-0.01870000000000016,-7.37347529489657
-0.01970000000000005,-7.50504344578402
-0.020700000000000163,-7.591340835075788
-0.021700000000000053,-7.635196885371603
-0.022700000000000164,-7.809206375255003
-0.023700000000000054,-7.896918475846635
-0.024700000000000166,-8.027071915434218
-0.025700000000000056,-8.11478401602585
-0.026700000000000168,-8.246352166913299
-0.027700000000000058,-8.376505606500881
-0.02870000000000017,-8.508073757388331
-0.02970000000000006,-8.68208324727173
-0.03070000000000017,-8.812236686859313
-0.03170000000000006,-8.943804837746763
-0.03270000000000017,-9.073958277334345
-0.03370000000000006,-9.24938247851761
-0.034700000000000175,-9.379535918105192
-0.035700000000000065,-9.55496011928846
-0.03670000000000018,-9.641257508580225
-0.03770000000000007,-9.81668170976349
-0.03870000000000018,-9.946835149351072
-0.03970000000000007,-10.120844639234473
-0.04070000000000018,-10.296268840417738
-0.04170000000000007,-10.514134380596953
-0.04270000000000018,-10.688143870480351
-0.04370000000000007,-10.949865460955383
-0.044700000000000184,-11.1677310011346
-0.045700000000000074,-11.473308641905447
-0.046700000000000186,-11.82274233297211
-0.047700000000000076,-12.040607873151327
-0.04870000000000019,-12.346185513922174
-0.04970000000000008,-12.651763154693022
-0.05070000000000019,-12.869628694872238
-0.05170000000000008,-13.13135028534727
-0.05270000000000019,-13.3930718758223
-0.05370000000000008,-13.610937416001518
-0.05470000000000019,-13.828802956180734
-0.05570000000000008,-14.002812446064135
-0.056700000000000195,-14.175407224647667
-0.057700000000000085,-14.30273124163552
-0.058700000000000196,-14.486643710617974
-0.059700000000000086,-14.57152638860988
-0.0607000000000002,-14.69885040559773
-0.06170000000000009,-14.826174422585586
-0.0627000000000002,-14.925204213576137
-0.06370000000000009,-15.01008689156804
-0.0647000000000002,-15.094969569559943
-0.06570000000000009,-15.137410908555893
-0.0667000000000002,-15.179852247551842
-0.0677000000000001,-15.222293586547794
-0.0687000000000002,-15.264734925543747
-0.0697000000000001,-15.264734925543747
-0.07070000000000021,-15.307176264539699
-0.0717000000000001,-15.349617603535648
-0.07270000000000021,-15.349617603535648
-0.0737000000000001,-15.3920589425316
-0.07470000000000021,-15.3920589425316
-0.0757000000000001,-15.448647394526201
-0.07670000000000021,-15.448647394526201
-0.0777000000000001,-15.448647394526201
-0.07870000000000021,-15.448647394526201
-0.0797000000000001,-15.491088733522153
-0.08070000000000022,-15.448647394526201
-0.0817000000000001,-15.491088733522153
-0.08270000000000022,-15.448647394526201
-0.08370000000000011,-15.491088733522153
-0.08470000000000022,-15.491088733522153
-0.08570000000000011,-15.448647394526201
-0.08670000000000022,-15.448647394526201
-0.08770000000000011,-15.448647394526201
-0.08870000000000022,-15.448647394526201
-0.08970000000000011,-15.3920589425316
-0.09070000000000022,-15.448647394526201
-0.09170000000000011,-15.3920589425316
-0.09270000000000023,-15.3920589425316
-0.09370000000000012,-15.349617603535648
-0.09470000000000023,-15.3920589425316
-0.09570000000000012,-15.349617603535648
-0.09670000000000023,-15.349617603535648
-0.09770000000000012,-15.307176264539699
-0.09870000000000023,-15.307176264539699
-0.09970000000000012,-15.307176264539699
-0.10070000000000023,-15.264734925543747
-0.10170000000000012,-15.264734925543747
-0.10270000000000024,-15.222293586547794
-0.10370000000000013,-15.179852247551842
-0.10470000000000024,-15.179852247551842
-0.10570000000000013,-15.179852247551842
-0.10670000000000024,-15.179852247551842
-0.10770000000000013,-15.137410908555893
-0.10870000000000024,-15.137410908555893
-0.10970000000000013,-15.137410908555893
-0.11070000000000024,-15.094969569559943
-0.11170000000000013,-15.094969569559943
-0.11270000000000002,-15.094969569559943
-0.11370000000000013,-15.094969569559943
-0.11470000000000002,-15.05252823056399
-0.11570000000000014,-15.05252823056399
-0.11670000000000003,-15.05252823056399
-0.11770000000000014,-15.05252823056399
-0.11870000000000003,-15.05252823056399
-0.11970000000000014,-15.01008689156804
-0.12070000000000003,-15.05252823056399
-0.12170000000000014,-15.05252823056399
-0.12270000000000003,-15.01008689156804
-0.12370000000000014,-15.05252823056399
-0.12470000000000003,-15.05252823056399
-0.12570000000000014,-15.05252823056399
-0.12670000000000003,-15.05252823056399
-0.12770000000000015,-15.01008689156804
-0.12870000000000004,-15.05252823056399
-0.12970000000000015,-15.05252823056399
-0.13070000000000004,-15.01008689156804
-0.13170000000000015,-15.01008689156804
-0.13270000000000004,-15.01008689156804
-0.13370000000000015,-15.01008689156804
-0.13470000000000004,-15.01008689156804
-0.13570000000000015,-15.01008689156804
-0.13670000000000004,-15.01008689156804
-0.13770000000000016,-15.01008689156804
-0.13870000000000005,-15.01008689156804
-0.13970000000000016,-15.05252823056399
-0.14070000000000005,-15.05252823056399
-0.14170000000000016,-15.05252823056399
-0.14270000000000005,-15.05252823056399
-0.14370000000000016,-15.01008689156804
-0.14470000000000005,-15.01008689156804
-0.14570000000000016,-15.01008689156804
-0.14670000000000005,-15.01008689156804
-0.14770000000000016,-15.01008689156804
-0.14870000000000005,-15.01008689156804
-0.14970000000000017,-15.01008689156804
-0.15070000000000006,-15.01008689156804
-0.15170000000000017,-15.01008689156804
-0.15270000000000006,-15.01008689156804
-0.15370000000000017,-15.01008689156804
-0.15470000000000006,-15.01008689156804
-0.15570000000000017,-15.05252823056399
-0.15670000000000006,-15.01008689156804
-0.15770000000000017,-15.05252823056399
-0.15870000000000006,-15.01008689156804
-0.15970000000000018,-15.05252823056399
-0.16070000000000007,-15.05252823056399
-0.16170000000000018,-15.094969569559943
-0.16270000000000007,-15.094969569559943
-0.16370000000000018,-15.094969569559943
-0.16470000000000007,-15.137410908555893
-0.16570000000000018,-15.137410908555893
-0.16670000000000007,-15.179852247551842
-0.16770000000000018,-15.179852247551842
-0.16870000000000007,-15.222293586547794
-0.16970000000000018,-15.264734925543747
-0.17070000000000007,-15.264734925543747
-0.17170000000000019,-15.264734925543747
-0.17270000000000008,-15.264734925543747
-0.1737000000000002,-15.307176264539699
-0.17470000000000008,-15.307176264539699
-0.1757000000000002,-15.307176264539699
-0.17670000000000008,-15.349617603535648
-0.1777000000000002,-15.349617603535648
-0.17870000000000008,-15.349617603535648
-0.1797000000000002,-15.3920589425316
-0.18070000000000008,-15.448647394526201
-0.1817000000000002,-15.448647394526201
-0.18270000000000008,-15.491088733522153
-0.1837000000000002,-15.533530072518102
-0.1847000000000001,-15.533530072518102
-0.1857000000000002,-15.533530072518102
-0.1867000000000001,-15.533530072518102
-0.1877000000000002,-15.575971411514052
-0.1887000000000001,-15.575971411514052
-0.1897000000000002,-15.575971411514052
-0.1907000000000001,-15.618412750510005
-0.1917000000000001,-15.618412750510005
-0.19269999999999998,-15.618412750510005
-0.1937000000000001,-15.70329542850191
-0.19469999999999998,-15.70329542850191
-0.1957000000000001,-15.74573676749786
-0.19669999999999999,-15.78817810649381
-0.1977000000000001,-15.78817810649381
-0.1987,-15.87306078448571
-0.1997000000000001,-15.91550212348166
-0.2007,-15.91550212348166
-0.2017000000000001,-15.972090575476265
-0.2027,-16.014531914472215
-0.2037000000000001,-16.056973253468165
-0.2047,-16.099414592464115
-0.2057000000000001,-16.141855931460068
-0.2067,-16.184297270456018
-0.2077000000000001,-16.22673860945197
-0.2087,-16.311621287443874
-0.2097000000000001,-16.311621287443874
-0.2107,-16.396503965435777
-0.2117000000000001,-16.495533756426326
-0.2127,-16.495533756426326
-0.2137000000000001,-16.580416434418233
-0.2147,-16.622857773414182
-0.2157000000000001,-16.70774045140608
-0.2167,-16.750181790402035
-0.21770000000000012,-16.792623129397985
-0.2187,-16.877505807389888
-0.21970000000000012,-16.919947146385837
-0.2207,-16.962388485381787
-0.22170000000000012,-17.018976937376394
-0.2227,-17.103859615368293
-0.22370000000000012,-17.146300954364243
-0.2247,-17.231183632356142
-0.22570000000000012,-17.316066310348052
-0.2267,-17.40094898833995
-0.22770000000000012,-17.4433903273359
-0.22870000000000001,-17.48583166633185
-0.22970000000000013,-17.584861457322408
-0.23070000000000002,-17.627302796318357
-0.23170000000000013,-17.669744135314307
-0.23270000000000002,-17.75462681330621
-0.23370000000000013,-17.839509491298113
-0.23470000000000002,-17.881950830294063
-0.23570000000000013,-17.966833508285966
-0.23670000000000002,-18.06586329927652
-0.2376999999999999,-18.15074597726842
-0.23870000000000002,-18.27806999425627
-0.2396999999999999,-18.320511333252224
-0.24070000000000003,-18.44783535024008
-0.24169999999999991,-18.53271802823198
-0.24270000000000003,-18.631747819222536
-0.24369999999999992,-18.759071836210385
-0.24470000000000003,-18.88639585319824
-0.24569999999999992,-18.92883719219419
-0.24670000000000003,-19.056161209182044
-0.24769999999999992,-19.197632339168546
-0.24870000000000003,-19.28251501716045
-0.24969999999999992,-19.409839034148305
-0.25070000000000003,-19.537163051136158
-0.2516999999999999,-19.678634181122664
-0.25270000000000004,-19.805958198110513
-0.2536999999999999,-19.93328221509837
-0.25470000000000004,-20.06060623208622
-0.2556999999999999,-20.244518701068674
-0.25670000000000004,-20.371842718056527
-0.25769999999999993,-20.499166735044383
-0.25870000000000004,-20.683079204026836
-0.25969999999999993,-20.85284456001064
-0.26070000000000004,-20.93772723800254
-0.26169999999999993,-21.065051254990397
-0.26270000000000004,-21.248963723972853
-0.26369999999999993,-21.418729079956652
-0.26470000000000005,-21.54605309694451
-0.26569999999999994,-21.729965565926964
-0.26670000000000005,-21.899730921910766
-0.26769999999999994,-22.069496277894572
-0.26870000000000005,-22.253408746877028
-0.26969999999999994,-22.42317410286083
-0.27070000000000005,-22.592939458844636
-0.27169999999999994,-22.776851927827092
-0.27270000000000005,-22.946617283810895
-0.27369999999999994,-23.1163826397947
-0.27470000000000006,-23.300295108777156
-0.27569999999999995,-23.47006046476096
-0.27670000000000006,-23.639825820744765
-0.27769999999999995,-23.823738289727217
-0.27870000000000006,-24.035944984706973
-0.27969999999999995,-24.20571034069078
-0.28070000000000006,-24.432064148669184
-0.28169999999999995,-24.64427084364894
-0.28270000000000006,-24.870624651627345
-0.28369999999999995,-25.0828313466071
-0.28470000000000006,-25.295038041586857
-0.28569999999999995,-25.563833188561212
-0.28670000000000007,-25.77603988354097
-0.28769999999999996,-26.002393691519377
-0.28870000000000007,-26.257041725495082
-0.28969999999999996,-26.568278211465387
-0.29070000000000007,-26.780484906445146
-0.29169999999999996,-27.049280053419505
-0.29270000000000007,-27.303928087395207
-0.29369999999999996,-27.572723234369565
-0.2947000000000001,-27.869812607341224
-0.29569999999999996,-28.09616641531963
-0.2967000000000001,-28.435697127287238
-0.29769999999999996,-28.704492274261593
-0.2987000000000001,-28.959140308237306
-0.29969999999999997,-29.31281813320356
-0.3007000000000001,-29.62405461917387
-0.30169999999999997,-29.921143992145527
-0.3027000000000001,-30.232380478115836
-0.30369999999999997,-30.529469851087494
-0.3047000000000001,-30.8407063370578
-0.30569999999999997,-31.137795710029454
-0.3067000000000001,-31.40659085700382
-0.3077,-31.802710020966025
-0.3087000000000001,-32.09979939393769
-0.3097,-32.45347721890394
-0.3107000000000001,-32.807155043870196
-0.3117,-33.14668575583781
-0.3127000000000001,-33.45792224180811
-0.3137,-33.81160006677438
-0.3147000000000001,-34.15113077874198
-0.3157,-34.50480860370825
-0.3167000000000001,-34.85848642867451
-0.3177,-35.198017140642115
-0.3187000000000001,-35.594136304604326
-0.3197,-35.94781412957058
-0.3207000000000001,-36.28734484153819
-0.3217,-36.6834640055004
-0.3227000000000001,-37.07958316946261
-0.3237,-37.47570233342482
-0.3247000000000001,-37.85767438438838
-0.3257,-38.253793548350586
-0.3267000000000001,-38.6499127123128
-0.3277,-39.046031876275016
-0.3287000000000001,-39.47044526623452
-0.3297,-39.86656443019674
-0.3307000000000001,-40.34756627215084
-0.3317,-40.828568114104954
-0.3327000000000001,-41.22468727806717
-0.3337,-41.70568912002128
-0.3347000000000001,-42.229132300971344
-0.3357,-42.653545690930855
-0.3367000000000001,-43.134547532884966
-0.3377,-43.657990713835034
-0.3387000000000001,-44.096551216793195
-0.3397,-44.619994397743255
-0.3407000000000001,-45.10099623969737
-0.3417,-45.624439420647434
-0.3427000000000001,-46.10544126260155
-0.3437,-46.628884443551605
-0.3447000000000001,-47.15232762450167
-0.3457,-47.67577080545174
-0.3467000000000001,-48.1992139864018
-0.3477,-48.72265716735186
-0.3487000000000001,-49.24610034830193
-0.3497,-49.76954352925199
-0.3507000000000001,-50.29298671020206
-0.3517,-50.85887123014807
-0.3527000000000001,-51.424755750094086
-0.3537,-51.990640270040096
-0.3547000000000001,-52.55652478998611
-0.3557,-53.079967970936174
-0.35670000000000013,-53.603411151886235
-0.3577,-54.1268543328363
-0.35870000000000013,-54.69273885278232
-0.3597,-55.25862337272834
-0.36070000000000013,-55.838655005673
-0.3617,-56.44698086461496
-0.3626999999999999,-56.97042404556503
-0.3637,-57.57874990450699
-0.3646999999999999,-58.18707576344896
-0.3657,-58.75296028339497
-0.3666999999999999,-59.36128614233694
-0.3677,-60.02620045327351
-0.3686999999999999,-60.63452631221547
-0.36970000000000003,-61.242852171157445
-0.3706999999999999,-61.80873669110345
-0.37170000000000003,-62.459503889041365
-0.3726999999999999,-63.11027108697928
-0.37370000000000003,-63.81762673691181
-0.3746999999999999,-64.46839393484973
-0.37570000000000003,-65.20404381077954
-0.3766999999999999,-65.91139946071206
-0.37770000000000004,-66.56216665864997
-0.3786999999999999,-67.2978165345798
-0.37970000000000004,-68.0900548625042
-0.3806999999999999,-68.74082206044213
-0.38170000000000004,-69.53306038836655
-0.38269999999999993,-70.26871026429637
-0.38370000000000004,-70.96191880123024
-0.38469999999999993,-71.7117157901587
-0.38570000000000004,-72.44736566608852
-0.38669999999999993,-72.15027629311687
-0.38570000000000004,-70.18382758630447
-0.38469999999999993,-68.44373268747047
-0.38370000000000004,-66.87340314462028
-0.38269999999999993,-65.4728389577539
-0.38170000000000004,-64.11471610988345
-0.3806999999999999,-62.855623053003576
-0.37970000000000004,-61.72385401311155
-0.3786999999999999,-60.63452631221547
-0.37770000000000004,-59.587639950315335
-0.3766999999999999,-58.583194927411164
-0.37570000000000003,-57.53630856551105
-0.3746999999999999,-56.57430488160282
-0.37370000000000003,-55.56985985869864
-0.3726999999999999,-54.60785617479041
-0.37170000000000003,-53.68829382987814
-0.3706999999999999,-52.78287859796452
-0.36970000000000003,-51.90575759204819
-0.3686999999999999,-50.98619524713592
-0.3677,-50.1656626932142
-0.3666999999999999,-49.33098302629383
-0.3657,-48.45386202037751
-0.3646999999999999,-47.67577080545174
-0.3637,-46.88353247752732
-0.3626999999999999,-46.062999923605595
-0.3617,-45.27076159568118
-0.36070000000000013,-44.4926703807554
-0.3597,-43.75702050482558
-0.35870000000000013,-42.96478217690117
-0.3577,-42.229132300971344
-0.35670000000000013,-41.52177665103883
-0.3557,-40.78612677510901
-0.3547000000000001,-40.092918238175145
-0.3537,-39.38556258824262
-0.3527000000000001,-38.692354051308754
-0.3517,-38.04158685337084
-0.3507000000000001,-37.334231203438314
-0.3497,-36.6834640055004
-0.3487000000000001,-36.03269680756248
-0.3477,-35.282899818634014
-0.3467000000000001,-34.67457395969205
-0.3457,-34.02380676175414
-0.3447000000000001,-33.330598224820264
-0.3437,-32.66568391388369
-0.3427000000000001,-32.01491671594578
-0.3417,-31.36414951800786
-0.3407000000000001,-30.71338232006995
-0.3397,-30.10505646112798
-0.3387000000000001,-29.440142150191413
-0.3377,-28.831816291249446
-0.3367000000000001,-28.22349043230748
-0.3357,-27.65760591236147
-0.3347000000000001,-27.049280053419505
-0.3337,-26.483395533473487
-0.3327000000000001,-25.86092256153287
-0.3317,-25.252596702590903
-0.3307000000000001,-24.64427084364894
-0.3297,-24.078386323702922
-0.3287000000000001,-23.47006046476096
-0.3277,-22.904175944814945
-0.3267000000000001,-22.33829142486893
-0.3257,-21.729965565926964
-0.3247000000000001,-21.2065223849769
-0.3237,-20.683079204026836
-0.3227000000000001,-20.159636023076775
-0.3217,-19.636192842126707
-0.3207000000000001,-19.112749661176647
-0.3197,-18.589306480226583
-0.3187000000000001,-18.06586329927652
-0.3177,-17.584861457322408
-0.3167000000000001,-17.061418276372343
-0.3157,-16.622857773414182
-0.3147000000000001,-16.141855931460068
-0.3137,-15.660854089505953
-0.3127000000000001,-15.179852247551842
-0.3117,-14.741291744593681
-0.3107000000000001,-14.217848563643619
-0.3097,-13.784946905884919
-0.3087000000000001,-13.3930718758223
-0.3077,-12.955926084164007
-0.3067000000000001,-12.520195003805576
-0.30569999999999997,-12.084463923447142
-0.3047000000000001,-11.647318131788847
-0.30369999999999997,-11.255443101726232
-0.3027000000000001,-10.819712021367803
-0.30169999999999997,-10.382566229709504
-0.3007000000000001,-10.034547249942705
-0.29969999999999997,-9.59740145828441
-0.2987000000000001,-9.205526428221793
-0.29769999999999996,-8.812236686859313
-0.2967000000000001,-8.464217707092514
-0.29569999999999996,-8.070927965730034
-0.2947000000000001,-7.722908985963235
-0.29369999999999996,-7.329619244600755
-0.29270000000000007,-7.024041603829907
-0.29169999999999996,-6.6760226240631075
-0.29070000000000007,-6.326588932996443
-0.28969999999999996,-6.021011292225596
-0.28870000000000007,-5.715433651454749
-0.28769999999999996,-5.367414671687949
-0.28670000000000007,-5.017980980621284
-0.28569999999999995,-4.756259390146253
-0.28470000000000006,-4.406825699079589
-0.28369999999999995,-4.146518819904423
-0.28270000000000006,-3.840941179133574
-0.28169999999999995,-3.579219588658543
-0.28070000000000006,-3.273641947887695
-0.27969999999999995,-3.055776407708479
-0.27870000000000006,-2.7501987669376318
-0.27769999999999995,-2.532333226758415
-0.27670000000000006,-2.3144676865791998
-0.27569999999999995,-2.052746096104168
-0.27470000000000006,-1.8773218949209036
-0.27369999999999994,-1.6156003044458718
-0.27270000000000005,-1.3980177065266295
-0.27169999999999994,-1.1798692240874404
-0.27070000000000005,-1.0054353208140816
-0.26969999999999994,-0.8308599464107361
-0.26870000000000005,-0.6128529351015338
-0.26769999999999994,-0.4384190318281749
-0.26670000000000005,-0.26384365742482935
