Potential V vs RHE, Current mA cm-2
0.013299999999999867,-0.30755823659065895
0.012299999999999978,-1.0925815368857679
0.011299999999999866,-1.6156003044458718
0.010299999999999976,-1.9650339955125358
0.009299999999999864,-2.226755585987568
0.008299999999999974,-2.4884771764625997
0.007299999999999862,-2.662486666345999
0.006299999999999972,-2.8803522065252145
0.00529999999999986,-3.0119203574126634
0.0042999999999999705,-3.1420737970002466
0.0032999999999998586,-3.2297858975918787
0.0022999999999999687,-3.317497998183511
0.0012999999999998568,-3.447651437771094
0.00029999999999996696,-3.5353635383627267
-0.000700000000000145,-3.623075638954359
-0.0017000000000000348,-3.6655169779503103
-0.0027000000000001467,-3.7532290785419424
-0.0037000000000000366,-3.840941179133574
-0.0047000000000001485,-3.884797229429391
-0.005700000000000038,-3.971094618721158
-0.00670000000000015,-4.0588067193127895
-0.00770000000000004,-4.102662769608606
-0.008700000000000152,-4.1889601589003735
-0.009700000000000042,-4.276672259492005
-0.010700000000000154,-4.364384360083638
-0.011700000000000044,-4.406825699079589
-0.012700000000000156,-4.494537799671222
-0.013700000000000045,-4.582249900262854
-0.014700000000000157,-4.668547289554621
-0.015700000000000047,-4.756259390146253
-0.01670000000000016,-4.843971490737885
-0.01770000000000005,-4.974124930325469
-0.01870000000000016,-5.017980980621284
-0.01970000000000005,-5.105693081212917
-0.020700000000000163,-5.191990470504685
-0.021700000000000053,-5.279702571096316
-0.022700000000000164,-5.367414671687949
-0.023700000000000054,-5.497568111275533
-0.024700000000000166,-5.585280211867165
-0.025700000000000056,-5.715433651454749
-0.026700000000000168,-5.80314575204638
-0.027700000000000058,-5.9347139029338285
-0.02870000000000017,-5.977155241929781
-0.02970000000000006,-6.108723392817228
-0.03070000000000017,-6.196435493408861
-0.03170000000000006,-6.238876832404812
-0.03270000000000017,-6.37044498329226
-0.03370000000000006,-6.414301033588076
-0.034700000000000175,-6.54445447317566
-0.035700000000000065,-6.632166573767292
-0.03670000000000018,-6.719878674358924
-0.03770000000000007,-6.762320013354876
-0.03870000000000018,-6.850032113946507
-0.03970000000000007,-6.981600264833956
-0.04070000000000018,-7.067897654125724
-0.04170000000000007,-7.199465805013171
-0.04270000000000018,-7.329619244600755
-0.04370000000000007,-7.50504344578402
-0.044700000000000184,-7.635196885371603
-0.045700000000000074,-7.7653503249591855
-0.046700000000000186,-7.896918475846635
-0.047700000000000076,-8.070927965730034
-0.04870000000000019,-8.202496116617484
-0.04970000000000008,-8.332649556205066
-0.05070000000000019,-8.4203616567967
-0.05170000000000008,-8.508073757388331
-0.05270000000000019,-8.594371146680096
-0.05370000000000008,-8.68208324727173
-0.05470000000000019,-8.769795347863363
-0.05570000000000008,-8.769795347863363
-0.056700000000000195,-8.85609273715513
-0.057700000000000085,-8.899948787450944
-0.058700000000000196,-8.943804837746763
-0.059700000000000086,-8.987660888042578
-0.0607000000000002,-8.987660888042578
-0.06170000000000009,-9.031516938338395
-0.0627000000000002,-9.031516938338395
-0.06370000000000009,-9.073958277334345
-0.0647000000000002,-9.073958277334345
-0.06570000000000009,-9.073958277334345
-0.0667000000000002,-9.073958277334345
-0.0677000000000001,-9.073958277334345
-0.0687000000000002,-9.11781432763016
-0.0697000000000001,-9.073958277334345
-0.07070000000000021,-9.073958277334345
-0.0717000000000001,-9.031516938338395
-0.07270000000000021,-9.031516938338395
-0.0737000000000001,-9.031516938338395
-0.07470000000000021,-9.031516938338395
-0.0757000000000001,-9.031516938338395
-0.07670000000000021,-8.987660888042578
-0.0777000000000001,-8.943804837746763
-0.07870000000000021,-8.943804837746763
-0.0797000000000001,-8.943804837746763
-0.08070000000000022,-8.899948787450944
-0.0817000000000001,-8.899948787450944
-0.08270000000000022,-8.899948787450944
-0.08370000000000011,-8.899948787450944
-0.08470000000000022,-8.899948787450944
-0.08570000000000011,-8.899948787450944
-0.08670000000000022,-8.899948787450944
-0.08770000000000011,-8.85609273715513
-0.08870000000000022,-8.899948787450944
-0.08970000000000011,-8.85609273715513
-0.09070000000000022,-8.85609273715513
-0.09170000000000011,-8.85609273715513
-0.09270000000000023,-8.85609273715513
-0.09370000000000012,-8.85609273715513
-0.09470000000000023,-8.85609273715513
-0.09570000000000012,-8.812236686859313
-0.09670000000000023,-8.769795347863363
-0.09770000000000012,-8.769795347863363
-0.09870000000000023,-8.812236686859313
-0.09970000000000012,-8.769795347863363
-0.10070000000000023,-8.769795347863363
-0.10170000000000012,-8.769795347863363
-0.10270000000000024,-8.725939297567548
-0.10370000000000013,-8.725939297567548
-0.10470000000000024,-8.725939297567548
-0.10570000000000013,-8.725939297567548
-0.10670000000000024,-8.68208324727173
-0.10770000000000013,-8.725939297567548
-0.10870000000000024,-8.725939297567548
-0.10970000000000013,-8.725939297567548
-0.11070000000000024,-8.725939297567548
-0.11170000000000013,-8.725939297567548
-0.11270000000000002,-8.725939297567548
-0.11370000000000013,-8.725939297567548
-0.11470000000000002,-8.68208324727173
-0.11570000000000014,-8.725939297567548
-0.11670000000000003,-8.725939297567548
-0.11770000000000014,-8.725939297567548
-0.11870000000000003,-8.725939297567548
-0.11970000000000014,-8.68208324727173
-0.12070000000000003,-8.68208324727173
-0.12170000000000014,-8.68208324727173
-0.12270000000000003,-8.68208324727173
-0.12370000000000014,-8.68208324727173
-0.12470000000000003,-8.638227196975913
-0.12570000000000014,-8.68208324727173
-0.12670000000000003,-8.68208324727173
-0.12770000000000015,-8.68208324727173
-0.12870000000000004,-8.68208324727173
-0.12970000000000015,-8.68208324727173
-0.13070000000000004,-8.68208324727173
-0.13170000000000015,-8.68208324727173
-0.13270000000000004,-8.68208324727173
-0.13370000000000015,-8.68208324727173
-0.13470000000000004,-8.725939297567548
-0.13570000000000015,-8.725939297567548
-0.13670000000000004,-8.725939297567548
-0.13770000000000016,-8.725939297567548
-0.13870000000000005,-8.725939297567548
-0.13970000000000016,-8.725939297567548
-0.14070000000000005,-8.725939297567548
-0.14170000000000016,-8.769795347863363
-0.14270000000000005,-8.769795347863363
-0.14370000000000016,-8.769795347863363
-0.14470000000000005,-8.769795347863363
-0.14570000000000016,-8.769795347863363
-0.14670000000000005,-8.725939297567548
-0.14770000000000016,-8.769795347863363
-0.14870000000000005,-8.769795347863363
-0.14970000000000017,-8.769795347863363
-0.15070000000000006,-8.769795347863363
-0.15170000000000017,-8.769795347863363
-0.15270000000000006,-8.769795347863363
-0.15370000000000017,-8.812236686859313
-0.15470000000000006,-8.812236686859313
-0.15570000000000017,-8.812236686859313
-0.15670000000000006,-8.812236686859313
-0.15770000000000017,-8.85609273715513
-0.15870000000000006,-8.899948787450944
-0.15970000000000018,-8.899948787450944
-0.16070000000000007,-8.899948787450944
-0.16170000000000018,-8.943804837746763
-0.16270000000000007,-8.943804837746763
-0.16370000000000018,-8.943804837746763
-0.16470000000000007,-8.987660888042578
-0.16570000000000018,-8.987660888042578
-0.16670000000000007,-9.031516938338395
-0.16770000000000018,-9.031516938338395
-0.16870000000000007,-9.031516938338395
-0.16970000000000018,-9.073958277334345
-0.17070000000000007,-9.031516938338395
-0.17170000000000019,-9.073958277334345
-0.17270000000000008,-9.031516938338395
-0.1737000000000002,-9.11781432763016
-0.17470000000000008,-9.11781432763016
-0.1757000000000002,-9.11781432763016
-0.17670000000000008,-9.161670377925978
-0.1777000000000002,-9.161670377925978
-0.17870000000000008,-9.205526428221793
-0.1797000000000002,-9.24938247851761
-0.18070000000000008,-9.24938247851761
-0.1817000000000002,-9.293238528813426
-0.18270000000000008,-9.335679867809377
-0.1837000000000002,-9.379535918105192
-0.1847000000000001,-9.423391968401008
-0.1857000000000002,-9.423391968401008
-0.1867000000000001,-9.467248018696827
-0.1877000000000002,-9.467248018696827
-0.1887000000000001,-9.511104068992642
-0.1897000000000002,-9.511104068992642
-0.1907000000000001,-9.55496011928846
-0.1917000000000001,-9.59740145828441
-0.19269999999999998,-9.641257508580225
-0.1937000000000001,-9.685113558876042
-0.19469999999999998,-9.685113558876042
-0.1957000000000001,-9.728969609171857
-0.19669999999999999,-9.728969609171857
-0.1977000000000001,-9.772825659467674
-0.1987,-9.81668170976349
-0.1997000000000001,-9.85912304875944
-0.2007,-9.946835149351072
-0.2017000000000001,-9.99069119964689
-0.2027,-10.034547249942705
-0.2037000000000001,-10.078403300238522
-0.2047,-10.120844639234473
-0.2057000000000001,-10.164700689530287
-0.2067,-10.25241279012192
-0.2077000000000001,-10.296268840417738
-0.2087,-10.382566229709504
-0.2097000000000001,-10.42642228000532
-0.2107,-10.470278330301136
-0.2117000000000001,-10.514134380596953
-0.2127,-10.601846481188586
-0.2137000000000001,-10.644287820184536
-0.2147,-10.688143870480351
-0.2157000000000001,-10.775855971071984
-0.2167,-10.819712021367803
-0.21770000000000012,-10.906009410659568
-0.2187,-10.993721511251199
-0.21970000000000012,-11.037577561547016
-0.2207,-11.081433611842833
-0.22170000000000012,-11.1677310011346
-0.2227,-11.211587051430415
-0.22370000000000012,-11.299299152022046
-0.2247,-11.385596541313816
-0.22570000000000012,-11.473308641905447
-0.2267,-11.56102074249708
-0.22770000000000012,-11.647318131788847
-0.22870000000000001,-11.778886282676295
-0.22970000000000013,-11.86659838326793
-0.23070000000000002,-11.952895772559694
-0.23170000000000013,-12.040607873151327
-0.23270000000000002,-12.12831997374296
-0.23370000000000013,-12.258473413330542
-0.23470000000000002,-12.346185513922174
-0.23570000000000013,-12.476338953509758
-0.23670000000000002,-12.56405105410139
-0.2376999999999999,-12.694204493688973
-0.23870000000000002,-12.781916594280606
-0.2396999999999999,-12.869628694872238
-0.24070000000000003,-12.99978213445982
-0.24169999999999991,-13.087494235051453
-0.24270000000000003,-13.217647674639037
-0.24369999999999992,-13.349215825526485
-0.24470000000000003,-13.436927926118118
-0.24569999999999992,-13.567081365705702
-0.24670000000000003,-13.654793466297335
-0.24769999999999992,-13.784946905884919
-0.24870000000000003,-13.960371107068182
-0.24969999999999992,-14.090524546655764
-0.25070000000000003,-14.26028990263957
-0.2516999999999999,-14.401761032626075
-0.25270000000000004,-14.57152638860988
-0.2536999999999999,-14.741291744593681
-0.25470000000000004,-14.925204213576137
-0.2556999999999999,-15.05252823056399
-0.25670000000000004,-15.222293586547794
-0.25769999999999993,-15.349617603535648
-0.25870000000000004,-15.533530072518102
-0.25969999999999993,-15.74573676749786
-0.26070000000000004,-15.91550212348166
-0.26169999999999993,-16.099414592464115
-0.26270000000000004,-16.22673860945197
-0.26369999999999993,-16.396503965435777
-0.26470000000000005,-16.580416434418233
-0.26569999999999994,-16.750181790402035
-0.26670000000000005,-16.962388485381787
-0.26769999999999994,-17.146300954364243
-0.26870000000000005,-17.316066310348052
-0.26969999999999994,-17.542420118326454
-0.27070000000000005,-17.71218547431026
-0.27169999999999994,-17.924392169290012
-0.27270000000000005,-18.10830463827247
-0.27369999999999994,-18.362952672248177
-0.27470000000000006,-18.631747819222536
-0.27569999999999995,-18.88639585319824
-0.27670000000000006,-19.155191000172596
-0.27769999999999995,-19.367397695152352
-0.27870000000000006,-19.636192842126707
-0.27969999999999995,-19.848399537106463
-0.28070000000000006,-20.06060623208622
-0.28169999999999995,-20.371842718056527
-0.28270000000000006,-20.584049413036283
-0.28369999999999995,-20.89528589900659
-0.28470000000000006,-21.149933932982297
-0.28569999999999995,-21.376287740960702
-0.28670000000000007,-21.67337711393236
-0.28769999999999996,-21.899730921910766
-0.28870000000000007,-22.15437895588647
-0.28969999999999996,-22.42317410286083
-0.29070000000000007,-22.67782213683654
-0.29169999999999996,-22.989058622806844
-0.29270000000000007,-23.300295108777156
-0.29369999999999996,-23.597384481748815
-0.2947000000000001,-23.86617962872317
-0.29569999999999996,-24.20571034069078
-0.2967000000000001,-24.516946826661083
-0.29769999999999996,-24.870624651627345
-0.2987000000000001,-25.210155363594954
-0.29969999999999997,-25.563833188561212
-0.3007000000000001,-25.91751101352747
-0.30169999999999997,-26.29948306449103
-0.3027000000000001,-26.61071955046134
-0.30369999999999997,-27.00683871442355
-0.3047000000000001,-27.34636942639116
-0.30569999999999997,-27.700047251357418
-0.3067000000000001,-28.05372507632368
-0.3077,-28.435697127287238
-0.3087000000000001,-28.831816291249446
-0.3097,-29.18549411621571
-0.3107000000000001,-29.525024828183312
-0.3117,-29.878702653149578
-0.3127000000000001,-30.232380478115836
-0.3137,-30.614352529079397
-0.3147000000000001,-30.968030354045652
-0.3157,-31.36414951800786
-0.3167000000000001,-31.76026868197007
-0.3177,-32.184682071929586
-0.3187000000000001,-32.62324257488775
-0.3197,-33.01936173884996
-0.3207000000000001,-33.50036358080407
-0.3217,-33.93892408376223
-0.3227000000000001,-34.41992592571634
-0.3237,-34.94336910666641
-0.3247000000000001,-35.38192960962457
-0.3257,-35.848784338580025
-0.3267000000000001,-36.329786180534136
-0.3277,-36.81078802248826
-0.3287000000000001,-37.291789864442364
-0.3297,-37.77279170639648
-0.3307000000000001,-38.253793548350586
-0.3317,-38.734795390304704
-0.3327000000000001,-39.21579723225882
-0.3337,-39.696799074212926
-0.3347000000000001,-40.177800916167044
-0.3357,-40.65880275812115
-0.3367000000000001,-41.083216148080666
-0.3377,-41.56421799003478
-0.3387000000000001,-42.087661170984845
-0.3397,-42.568663012938956
-0.3407000000000001,-43.09210619388902
-0.3417,-43.61554937483908
-0.3427000000000001,-44.181433894785094
-0.3437,-44.74731841473111
-0.3447000000000001,-45.32735004767578
-0.3457,-45.97811724561369
-0.3467000000000001,-46.544001765559706
-0.3477,-47.19476896349763
-0.3487000000000001,-47.80309482243959
-0.3497,-48.41142068138156
-0.3507000000000001,-49.03389365332217
-0.3517,-49.59977817326819
-0.3527000000000001,-50.20810403221015
-0.3537,-50.81642989115212
-0.3547000000000001,-51.46719708909004
-0.3557,-52.075522948032
-0.35670000000000013,-52.64140746797801
-0.3577,-53.22143910092268
-0.35870000000000013,-53.82976495986464
-0.3597,-54.43809081880661
-0.36070000000000013,-55.003975338752625
-0.3617,-55.612301197694585
-0.3626999999999999,-56.22062705663656
-0.3637,-56.82895291557852
-0.3646999999999999,-57.45142588751914
-0.3657,-58.10219308545706
-0.3666999999999999,-58.83784296138688
-0.3677,-59.502757272323436
-0.3686999999999999,-60.28084848724921
-0.36970000000000003,-61.01649836317903
-0.3706999999999999,-61.72385401311155
-0.37170000000000003,-62.459503889041365
-0.3726999999999999,-63.20930087796983
-0.37370000000000003,-63.944950753899654
-0.3746999999999999,-64.68060062982947
-0.37570000000000003,-65.43039761875795
-0.3766999999999999,-66.16604749468777
-0.37770000000000004,-66.91584448361623
-0.3786999999999999,-67.65149435954605
-0.37970000000000004,-68.38714423547587
-0.3806999999999999,-69.0944998854084
-0.38170000000000004,-69.78770842234226
-0.38269999999999993,-70.53750541127073
-0.38370000000000004,-71.18827260920865
-0.38469999999999993,-71.8814811461425
-0.38570000000000004,-72.53224834408043
-0.38669999999999993,-72.32004164910067
-0.38570000000000004,-70.48091695927613
-0.38469999999999993,-69.0096172074165
-0.38370000000000004,-67.73637703753796
-0.38269999999999993,-66.56216665864997
-0.38170000000000004,-65.5577216357458
-0.3806999999999999,-64.59571795183757
-0.37970000000000004,-63.732744058919906
-0.3786999999999999,-62.855623053003576
-0.37770000000000004,-61.97850204708726
-0.3766999999999999,-61.15796949316553
-0.37570000000000003,-60.32328982624517
-0.3746999999999999,-59.44616882032884
-0.37370000000000003,-58.66807760540307
-0.3726999999999999,-57.79095659948675
-0.37170000000000003,-57.05530672355693
-0.3706999999999999,-56.22062705663656
-0.36970000000000003,-55.400094502714836
-0.3686999999999999,-54.52297349679851
-0.3677,-53.68829382987814
-0.3666999999999999,-52.86776127595642
-0.3657,-51.990640270040096
-0.3646999999999999,-51.25499039411028
-0.3637,-50.42031072718991
-0.3626999999999999,-49.642219512264134
-0.3617,-48.84998118433972
-0.36070000000000013,-48.071889969413945
-0.3597,-47.36453431948143
-0.35870000000000013,-46.67132578254756
-0.3577,-45.93567590661774
-0.35670000000000013,-45.27076159568118
-0.3557,-44.577553058747306
-0.3547000000000001,-43.96922719980534
-0.3537,-43.27601866287147
-0.3527000000000001,-42.6111043519349
-0.3517,-41.91789581500104
-0.3507000000000001,-41.182245939071215
-0.3497,-40.559772967130606
-0.3487000000000001,-39.86656443019674
-0.3477,-39.258238571254765
-0.3467000000000001,-38.607471373316855
-0.3457,-37.90011572338433
-0.3447000000000001,-37.206907186450465
-0.3437,-36.5136986495166
-0.3427000000000001,-35.848784338580025
-0.3417,-35.198017140642115
-0.3407000000000001,-34.5472499427042
-0.3397,-33.89648274476628
-0.3387000000000001,-33.288156885824314
-0.3377,-32.62324257488775
-0.3367000000000001,-32.05735805494172
-0.3357,-31.449032195999767
-0.3347000000000001,-30.88314767605375
-0.3337,-30.317263156107735
-0.3327000000000001,-29.751378636161718
-0.3317,-29.22793545521166
-0.3307000000000001,-28.704492274261593
-0.3297,-28.13860775431558
-0.3287000000000001,-27.572723234369565
-0.3277,-27.049280053419505
-0.3267000000000001,-26.525836872469437
-0.3257,-26.002393691519377
-0.3247000000000001,-25.43650917157336
-0.3237,-24.9130659906233
-0.3227000000000001,-24.389622809673234
-0.3217,-23.86617962872317
-0.3207000000000001,-23.300295108777156
-0.3197,-22.776851927827092
-0.3187000000000001,-22.253408746877028
-0.3177,-21.729965565926964
-0.3167000000000001,-21.2065223849769
-0.3157,-20.72552054302279
-0.3147000000000001,-20.244518701068674
-0.3137,-19.805958198110513
-0.3127000000000001,-19.3249563561564
-0.3117,-18.88639585319824
-0.3107000000000001,-18.40539401124413
-0.3097,-17.966833508285966
-0.3087000000000001,-17.584861457322408
-0.3077,-17.146300954364243
-0.3067000000000001,-16.750181790402035
-0.30569999999999997,-16.311621287443874
-0.3047000000000001,-15.91550212348166
-0.30369999999999997,-15.491088733522153
-0.3027000000000001,-15.05252823056399
-0.30169999999999997,-14.65640906660178
-0.3007000000000001,-14.26028990263957
-0.29969999999999997,-13.872659006476551
-0.2987000000000001,-13.523225315409885
-0.29769999999999996,-13.087494235051453
-0.2967000000000001,-12.694204493688973
-0.29569999999999996,-12.346185513922174
-0.2947000000000001,-11.952895772559694
-0.29369999999999996,-11.56102074249708
-0.29270000000000007,-11.211587051430415
-0.29169999999999996,-10.819712021367803
-0.29070000000000007,-10.514134380596953
-0.28969999999999996,-10.164700689530287
-0.28870000000000007,-9.85912304875944
-0.28769999999999996,-9.511104068992642
-0.28670000000000007,-9.205526428221793
-0.28569999999999995,-8.899948787450944
-0.28470000000000006,-8.55051509638428
-0.28369999999999995,-8.288793505909249
-0.28270000000000006,-7.984630576438266
-0.28169999999999995,-7.679052935667419
-0.28070000000000006,-7.37347529489657
-0.27969999999999995,-7.111753704421539
-0.27870000000000006,-6.806176063650692
-0.27769999999999995,-6.500598422879844
-0.27670000000000006,-6.282732882700628
-0.27569999999999995,-5.977155241929781
-0.27470000000000006,-5.715433651454749
-0.27369999999999994,-5.453712060979717
-0.27270000000000005,-5.191990470504685
-0.27169999999999994,-4.974124930325469
-0.27070000000000005,-4.712403339850438
-0.26969999999999994,-4.494537799671222
-0.26870000000000005,-4.23281620919619
-0.26769999999999994,-4.014950669016974
-0.26670000000000005,-3.7532290785419424
-0.26569999999999994,-3.5353635383627267
-0.26470000000000005,-3.361354048479327
