Potential V vs RHE, Current mA cm-2
0.013299999999999867,-0.10423592857405589
0.012299999999999978,-0.40531478741133303
0.011299999999999866,-0.538439120728633
0.010299999999999976,-0.637327440589199
0.009299999999999864,-0.7110338993121675
0.008299999999999974,-0.7711591295564314
0.007299999999999862,-0.824352274431357
0.006299999999999972,-0.8643886042175374
0.00529999999999986,-0.9038590494837719
0.0042999999999999705,-0.9380950629405057
0.0032999999999998586,-0.9700675383174557
0.0022999999999999687,-1.007840330023852
0.0012999999999998568,-1.038398094100937
0.00029999999999996696,-1.0726341075576709
-0.000700000000000145,-1.1034748138947286
-0.0017000000000000348,-1.1321934532819888
-0.0027000000000001467,-1.1630341596190465
-0.0037000000000000366,-1.1865183671968063
-0.0047000000000001485,-1.2201884961335943
-0.005700000000000038,-1.2418335790215291
-0.00670000000000015,-1.2685716225889785
-0.00770000000000004,-1.2998367423159956
-0.008700000000000152,-1.3271406704033908
-0.009700000000000042,-1.3680258269694907
-0.010700000000000154,-1.4029691960761568
-0.011700000000000044,-1.4345172580631471
-0.012700000000000156,-1.4755438857592333
-0.013700000000000045,-1.5080822456561291
-0.014700000000000157,-1.5519382959519452
-0.015700000000000047,-1.5788178106493809
-0.01670000000000016,-1.6056973253468165
-0.01770000000000005,-1.6509680869424979
-0.01870000000000016,-1.6750181790402037
-0.01970000000000005,-1.7061418276372344
-0.020700000000000163,-1.7287772084350748
-0.021700000000000053,-1.7499978779330503
-0.022700000000000164,-1.7825362378299463
-0.023700000000000054,-1.7980980621284617
-0.024700000000000166,-1.8249775768258971
-0.025700000000000056,-1.8391246898245475
-0.026700000000000168,-1.850442380223468
-0.027700000000000058,-1.8759071836210386
-0.02870000000000017,-1.884395451420229
-0.02970000000000006,-1.897127853119014
-0.03070000000000017,-1.9042014096183393
-0.03170000000000006,-1.9141043887173947
-0.03270000000000017,-1.933910346915505
-0.03370000000000006,-1.9310809243157752
-0.034700000000000175,-1.9381544808151003
-0.035700000000000065,-1.9409839034148304
-0.03670000000000018,-1.9508868825138854
-0.03770000000000007,-1.9607898616129409
-0.03870000000000018,-1.9664487068124006
-0.03970000000000007,-1.967863418112266
-0.04070000000000018,-1.9692781294121309
-0.04170000000000007,-1.980595819811051
-0.04270000000000018,-1.9890840876102414
-0.04370000000000007,-1.9862546650105113
-0.044700000000000184,-1.9890840876102414
-0.045700000000000074,-1.9904987989101068
-0.046700000000000186,-1.9975723554094316
-0.047700000000000076,-2.001816489309027
-0.04870000000000019,-2.0004017780091616
-0.04970000000000008,-2.008890045808352
-0.05070000000000019,-2.008890045808352
-0.05170000000000008,-2.014548891007812
-0.05270000000000019,-2.0216224475071374
-0.05370000000000008,-2.011719468408082
-0.05470000000000019,-2.017378313607542
-0.05570000000000008,-2.0187930249074073
-0.056700000000000195,-2.0244518701068674
-0.057700000000000085,-2.0286960040064623
-0.058700000000000196,-2.0159636023076772
-0.059700000000000086,-2.0244518701068674
-0.0607000000000002,-2.0272812927065975
-0.06170000000000009,-2.0315254266061924
-0.0627000000000002,-2.0371842718056525
-0.06370000000000009,-2.0244518701068674
-0.0647000000000002,-2.0301107153063276
-0.06570000000000009,-2.0301107153063276
-0.0667000000000002,-2.0272812927065975
-0.0677000000000001,-2.0286960040064623
-0.0687000000000002,-2.020207736207272
-0.0697000000000001,-2.0272812927065975
-0.07070000000000021,-2.0286960040064623
-0.0717000000000001,-2.023037158807002
-0.07270000000000021,-2.023037158807002
-0.0737000000000001,-2.013134179707947
-0.07470000000000021,-2.0187930249074073
-0.0757000000000001,-2.023037158807002
-0.07670000000000021,-2.0216224475071374
-0.0777000000000001,-2.020207736207272
-0.07870000000000021,-2.017378313607542
-0.0797000000000001,-2.0244518701068674
-0.08070000000000022,-2.0244518701068674
-0.0817000000000001,-2.0216224475071374
-0.08270000000000022,-2.0159636023076772
-0.08370000000000011,-2.014548891007812
-0.08470000000000022,-2.0258665814067327
-0.08570000000000011,-2.020207736207272
-0.08670000000000022,-2.020207736207272
-0.08770000000000011,-2.0187930249074073
-0.08870000000000022,-2.0187930249074073
-0.08970000000000011,-2.0272812927065975
-0.09070000000000022,-2.0244518701068674
-0.09170000000000011,-2.0159636023076772
-0.09270000000000023,-2.020207736207272
-0.09370000000000012,-2.017378313607542
-0.09470000000000023,-2.0286960040064623
-0.09570000000000012,-2.017378313607542
-0.09670000000000023,-2.0187930249074073
-0.09770000000000012,-2.0258665814067327
-0.09870000000000023,-2.0244518701068674
-0.09970000000000012,-2.0286960040064623
-0.10070000000000023,-2.0286960040064623
-0.10170000000000012,-2.0244518701068674
-0.10270000000000024,-2.0343548492059225
-0.10370000000000013,-2.0301107153063276
-0.10470000000000024,-2.038598983105518
-0.10570000000000013,-2.0329401379060577
-0.10670000000000024,-2.0301107153063276
-0.10770000000000013,-2.042843117005113
-0.10870000000000024,-2.038598983105518
-0.10970000000000013,-2.042843117005113
-0.11070000000000024,-2.042843117005113
-0.11170000000000013,-2.044257828304978
-0.11270000000000002,-2.0569902300037635
-0.11370000000000013,-2.0569902300037635
-0.11470000000000002,-2.0598196526034935
-0.11570000000000014,-2.0569902300037635
-0.11670000000000003,-2.0612343639033583
-0.11770000000000014,-2.071137343002414
-0.11870000000000003,-2.071137343002414
-0.11970000000000014,-2.073966765602144
-0.12070000000000003,-2.0697226317025486
-0.12170000000000014,-2.082455033401334
-0.12270000000000003,-2.0895285899006595
-0.12370000000000014,-2.092358012500389
-0.12470000000000003,-2.0994315689997145
-0.12570000000000014,-2.0980168576998492
-0.12670000000000003,-2.1093345480987695
-0.12770000000000015,-2.116408104598095
-0.12870000000000004,-2.116408104598095
-0.12970000000000015,-2.122066949797555
-0.13070000000000004,-2.124896372397285
-0.13170000000000015,-2.136214062796206
-0.13270000000000004,-2.148946464494991
-0.13370000000000015,-2.1475317531951257
-0.13470000000000004,-2.1546053096944506
-0.13570000000000015,-2.1673377113932366
-0.13670000000000004,-2.1758259791924264
-0.13770000000000016,-2.1871436695913467
-0.13870000000000005,-2.184314246991617
-0.13970000000000016,-2.1956319373905373
-0.14070000000000005,-2.205534916489592
-0.14170000000000016,-2.215437895588648
-0.14270000000000005,-2.2324144311870278
-0.14370000000000016,-2.228170297287433
-0.14470000000000005,-2.2451468328858133
-0.14570000000000016,-2.2550498119848683
-0.14670000000000005,-2.2691969249835187
-0.14770000000000016,-2.279099904082574
-0.14870000000000005,-2.2819293266823037
-0.14970000000000017,-2.3017352848804147
-0.15070000000000006,-2.3172971091789303
-0.15170000000000017,-2.33144422217758
-0.15270000000000006,-2.3455913351762305
-0.15370000000000017,-2.352664891675556
-0.15470000000000006,-2.3696414272739363
-0.15570000000000017,-2.385203251572452
-0.15670000000000006,-2.4007650758709675
-0.15770000000000017,-2.414912188869618
-0.15870000000000006,-2.426229879268538
-0.15970000000000018,-2.451694682666109
-0.16070000000000007,-2.4700859295643536
-0.16170000000000018,-2.4870624651627344
-0.16270000000000007,-2.5012095781613843
-0.16370000000000018,-2.5196008250596305
-0.16470000000000007,-2.557798030155986
-0.16570000000000018,-2.5747745657543666
-0.16670000000000007,-2.591751101352747
-0.16770000000000018,-2.610142348250993
-0.16870000000000007,-2.631363017748968
-0.16970000000000018,-2.663901377645864
-0.17070000000000007,-2.6822926245441097
-0.17170000000000019,-2.7049280053419507
-0.17270000000000008,-2.7332222313392514
-0.1737000000000002,-2.7586870347368215
-0.17470000000000008,-2.7997136624329078
-0.1757000000000002,-2.818104909331153
-0.17670000000000008,-2.840740290128994
-0.1777000000000002,-2.8761080726256196
-0.17870000000000008,-2.9058170099227856
-0.1797000000000002,-2.9482583489187366
-0.18070000000000008,-2.9694790184167124
-0.1817000000000002,-2.996358533114148
-0.18270000000000008,-3.044458717309559
-0.1837000000000002,-3.076997077206455
-0.1847000000000001,-3.120853127502271
-0.1857000000000002,-3.150562064799437
-0.1867000000000001,-3.1816857133964676
-0.1877000000000002,-3.2396888766909337
-0.1887000000000001,-3.2821302156868852
-0.1897000000000002,-3.3274009772825663
-0.1907000000000001,-3.358524625879597
-0.1917000000000001,-3.402380676175413
-0.19269999999999998,-3.4589691281700143
-0.1937000000000001,-3.507069312365426
-0.19469999999999998,-3.553754785260972
-0.1957000000000001,-3.594781412957058
-0.19669999999999999,-3.6513698649516595
-0.1977000000000001,-3.7206907186450464
-0.1987,-3.7702056141403233
-0.1997000000000001,-3.822549932235329
-0.2007,-3.87065011643074
-0.2017000000000001,-3.9413856814239923
-0.2027,-4.013535957717109
-0.2037000000000001,-4.074368543611305
-0.2047,-4.135201129505503
-0.2057000000000001,-4.187545447600509
-0.2067,-4.271013414292546
-0.2077000000000001,-4.354481380984582
-0.2087,-4.419558100778375
-0.2097000000000001,-4.488878954471762
-0.2107,-4.556785096865283
-0.2117000000000001,-4.652985465256107
-0.2127,-4.739282854547873
-0.2137000000000001,-4.8128478421408545
-0.2147,-4.890656963633432
-0.2157000000000001,-4.998175022423175
-0.2167,-5.091545968214268
-0.21770000000000012,-5.1863316253052245
-0.2187,-5.255652478998611
-0.21970000000000012,-5.349023424789703
-0.2207,-5.456541483579446
-0.22170000000000012,-5.568303676268785
-0.2227,-5.677236446358393
-0.22370000000000012,-5.746557300051779
-0.2247,-5.859734204040981
-0.22570000000000012,-5.98564350972897
-0.2267,-6.1044792589176335
-0.22770000000000012,-6.219070874206701
-0.22870000000000001,-6.309612397398063
-0.22970000000000013,-6.448254104784837
-0.23070000000000002,-6.5840663895718805
-0.23170000000000013,-6.715634540459329
-0.23270000000000002,-6.834470289647991
-0.23370000000000013,-6.940573637137869
-0.23470000000000002,-7.101850725322484
-0.23570000000000013,-7.256054257007774
-0.23670000000000002,-7.400354809594007
-0.2376999999999999,-7.51919055878267
-0.23870000000000002,-7.656417554869579
-0.2396999999999999,-7.838915312552168
-0.24070000000000003,-8.004436534636376
-0.24169999999999991,-8.152981221122205
-0.24270000000000003,-8.281719949409926
-0.24369999999999992,-8.445826460194269
-0.24470000000000003,-8.650959598674698
-0.24569999999999992,-8.822139665958368
-0.24670000000000003,-8.979172620243387
-0.24769999999999992,-9.126302595429351
-0.24870000000000003,-9.318703332210998
-0.24969999999999992,-9.546471851489269
-0.25070000000000003,-9.724725475272262
-0.2516999999999999,-9.894490831256066
-0.25270000000000004,-10.069915032439331
-0.2536999999999999,-10.294854129117871
-0.25470000000000004,-10.531110916195333
-0.2556999999999999,-10.724926364276843
-0.25670000000000004,-10.894691720260647
-0.25769999999999993,-11.108313126540267
-0.25870000000000004,-11.360131737916245
-0.25969999999999993,-11.613365060592086
-0.26070000000000004,-11.815668776472787
-0.26169999999999993,-11.996751822855511
-0.26270000000000004,-12.261302835930273
-0.26369999999999993,-12.527268560304899
-0.26470000000000005,-12.787575439480067
-0.26569999999999994,-12.994123289260362
-0.26670000000000005,-13.213403540739444
-0.26769999999999994,-13.511907625010965
-0.26870000000000005,-13.796264596283837
-0.26969999999999994,-14.065059743258194
-0.27070000000000005,-14.274437015638219
-0.27169999999999994,-14.514937936615278
-0.27270000000000005,-14.854468648582884
-0.27369999999999994,-15.151558021554543
-0.27470000000000006,-15.43450028152755
-0.27569999999999995,-15.646706976507305
-0.27670000000000006,-15.957943462477614
-0.27769999999999995,-16.311621287443874
-0.27870000000000006,-16.622857773414182
-0.27969999999999995,-16.90580003338719
-0.28070000000000006,-17.132153841365596
-0.28169999999999995,-17.48583166633185
-0.28270000000000006,-17.853656604296763
-0.28369999999999995,-18.17904020326572
-0.28470000000000006,-18.44783535024008
-0.28569999999999995,-18.730777610213085
-0.28670000000000007,-19.141043887173947
-0.28769999999999996,-19.523015938137508
-0.28870000000000007,-19.862546650105116
-0.28969999999999996,-20.14548891007812
-0.29070000000000007,-20.47087250904708
-0.29169999999999996,-20.923580125003895
-0.29270000000000007,-21.319699288966106
-0.29369999999999996,-21.659230000933714
-0.2947000000000001,-21.95631937390537
-0.29569999999999996,-22.36658565086623
-0.2967000000000001,-22.833440379821692
-0.29769999999999996,-23.257853769781203
-0.2987000000000001,-23.55494314275286
-0.29969999999999997,-23.894473854720466
-0.3007000000000001,-24.36132858367593
-0.30169999999999997,-24.842330425630045
-0.3027000000000001,-25.266743815589557
-0.30369999999999997,-25.563833188561212
-0.3047000000000001,-25.959952352523427
-0.30569999999999997,-26.483395533473487
-0.3067000000000001,-26.9643973754276
-0.3077,-27.38881076538711
-0.3087000000000001,-27.685900138358768
-0.3097,-28.15275486731423
-0.3107000000000001,-28.704492274261593
-0.3117,-29.18549411621571
-0.3127000000000001,-29.59576039317657
-0.3137,-29.921143992145527
-0.3147000000000001,-30.47288139909289
-0.3157,-31.038765919038905
-0.3167000000000001,-31.533914873991666
-0.3177,-31.915886924955227
-0.3187000000000001,-32.31200608891744
-0.3197,-32.93447906085806
-0.3207000000000001,-33.51451069380272
-0.3217,-34.00965964875548
-0.3227000000000001,-34.36333747372174
-0.3237,-34.85848642867451
-0.3247000000000001,-35.52340073961108
-0.3257,-36.10343237255574
-0.3267000000000001,-36.584434214509855
-0.3277,-36.9381120394761
-0.3287000000000001,-37.53229078541942
-0.3297,-38.22549932235329
-0.3307000000000001,-38.791383842299304
-0.3317,-39.229944345257465
-0.3327000000000001,-39.654357735216976
-0.3337,-40.31927204615355
-0.3347000000000001,-41.01248058308742
-0.3357,-41.57836510303343
-0.3367000000000001,-41.98863137999429
-0.3377,-42.497927447945706
-0.3387000000000001,-43.23357732387552
-0.3397,-43.92678586080939
-0.3407000000000001,-44.478523267756756
-0.3417,-44.86049531872031
-0.3427000000000001,-45.497115403659585
-0.3437,-46.27520661858535
-0.3447000000000001,-46.96841515551922
-0.3457,-47.47771122347063
-0.3467000000000001,-47.8879775004315
-0.3477,-48.609480263362656
-0.3487000000000001,-49.387571478288436
-0.3497,-50.06663290222365
-0.3507000000000001,-50.53348763117911
-0.3517,-51.014489473133224
-0.3527000000000001,-51.8491691400536
-0.3537,-52.61311324198071
-0.3547000000000001,-53.29217466591593
-0.3557,-53.70244094287679
-0.35670000000000013,-54.2966196888201
-0.3577,-55.20203492073373
-0.35870000000000013,-55.96597902266086
-0.3597,-56.58845199460147
-0.36070000000000013,-56.998718271562325
-0.3617,-57.76266237348945
-0.3626999999999999,-58.63978337940577
-0.3637,-59.375433255335594
-0.3646999999999999,-59.913023549284304
-0.3657,-60.40817250423707
-0.3666999999999999,-61.34188196214799
-0.3677,-62.14826740307106
-0.3686999999999999,-62.86977016600223
-0.36970000000000003,-63.3366248949577
-0.3706999999999999,-63.944950753899654
-0.37170000000000003,-64.92110155080654
-0.3726999999999999,-65.7557812177269
-0.37370000000000003,-66.44898975466076
-0.3746999999999999,-66.90169737061757
-0.37570000000000003,-67.63734724654739
-0.3766999999999999,-68.65593938245023
-0.37770000000000004,-69.4906190493706
-0.3786999999999999,-70.08479779531392
-0.37970000000000004,-70.55165252426939
-0.3806999999999999,-71.44292064318435
-0.38170000000000004,-72.46151277908717
-0.38269999999999993,-73.29619244600755
-0.38370000000000004,-73.77719428796166
-0.38469999999999993,-74.32893169490903
-0.38570000000000004,-75.34752383081185
-0.38669999999999993,-75.23434692682265
-0.38570000000000004,-74.07428366093333
-0.38469999999999993,-72.77274926505748
-0.38370000000000004,-71.7965984681506
-0.38269999999999993,-71.17412549621
-0.38170000000000004,-70.42432850728152
-0.3806999999999999,-69.44817771037465
-0.37970000000000004,-68.25982021848802
-0.3786999999999999,-67.4958761165609
-0.37770000000000004,-66.83096180562433
-0.3766999999999999,-66.05287059069857
-0.37570000000000003,-65.03427845479574
-0.3746999999999999,-63.944950753899654
-0.37370000000000003,-63.3366248949577
-0.3726999999999999,-62.700004810018434
-0.37170000000000003,-61.907766482094
-0.3706999999999999,-60.86088012019388
-0.36970000000000003,-59.94131777528161
-0.3686999999999999,-59.389580368334244
-0.3677,-58.71051894439902
-0.3666999999999999,-57.889986390477304
-0.3657,-56.871394254574476
-0.3646999999999999,-56.10745015264736
-0.3637,-55.56985985869864
-0.3626999999999999,-54.84835709576747
-0.3617,-53.999530315848446
-0.36070000000000013,-53.065820857937524
-0.3597,-52.42920077299826
-0.35870000000000013,-51.8774633660509
-0.3577,-51.18425482911703
-0.35670000000000013,-50.2788395972034
-0.3557,-49.458307043281685
-0.3547000000000001,-48.94901097533027
-0.3537,-48.35483222938696
-0.3527000000000001,-47.633329466455784
-0.3517,-46.74206134754081
-0.3507000000000001,-46.062999923605595
-0.3497,-45.567850968652834
-0.3487000000000001,-44.97367222270952
-0.3477,-44.223875233781044
-0.3467000000000001,-43.40334267985933
-0.3457,-42.85160527291196
-0.3447000000000001,-42.3564563179592
-0.3437,-41.77642468501453
-0.3427000000000001,-41.02662769608606
-0.3417,-40.26268359415894
-0.3407000000000001,-39.79582886520348
-0.3397,-39.272385684253415
-0.3387000000000001,-38.692354051308754
-0.3377,-37.92840994938163
-0.3367000000000001,-37.291789864442364
-0.3357,-36.89567070048016
-0.3347000000000001,-36.35808040653144
-0.3337,-35.74975454758948
-0.3327000000000001,-35.04239889765696
-0.3317,-34.50480860370825
-0.3307000000000001,-34.09454232674739
-0.3297,-33.54280491980002
-0.3287000000000001,-32.93447906085806
-0.3277,-32.283711862920136
-0.3267000000000001,-31.84515135996197
-0.3257,-31.420737970002463
-0.3247000000000001,-30.897294789052403
-0.3237,-30.274821817111786
-0.3227000000000001,-29.708937297165768
-0.3217,-29.34111235920086
-0.3207000000000001,-28.88840474324405
-0.3197,-28.379108675292635
-0.3187000000000001,-27.78492992934932
-0.3177,-27.303928087395207
-0.3167000000000001,-26.936103149430302
-0.3157,-26.497542646472137
-0.3147000000000001,-25.988246578520723
-0.3137,-25.43650917157336
-0.3127000000000001,-25.04039000761115
-0.3117,-24.686712182644893
-0.3107000000000001,-24.24815167968673
-0.3097,-23.724708498736668
-0.3087000000000001,-23.24370665678255
-0.3077,-22.890028831816295
-0.3067000000000001,-22.536351006850033
-0.30569999999999997,-22.111937616890522
-0.3047000000000001,-21.58849443594046
-0.30369999999999997,-21.1782281589796
-0.3027000000000001,-20.86699167300929
-0.30169999999999997,-20.499166735044383
-0.3007000000000001,-20.10304757108217
-0.29969999999999997,-19.60789861612941
-0.2987000000000001,-19.28251501716045
-0.29769999999999996,-18.97127853119014
-0.2967000000000001,-18.617600706223882
-0.29569999999999996,-18.207334429263025
-0.2947000000000001,-17.76877392630486
-0.29369999999999996,-17.48583166633185
-0.29270000000000007,-17.188742293360193
-0.29169999999999996,-16.849211581392588
-0.29070000000000007,-16.495533756426326
-0.28969999999999996,-16.099414592464115
-0.28870000000000007,-15.830619445489761
-0.28769999999999996,-15.533530072518102
-0.28670000000000007,-15.193999360550496
-0.28569999999999995,-14.826174422585586
-0.28470000000000006,-14.500790823616628
-0.28369999999999995,-14.26028990263957
-0.28270000000000006,-13.963200529667912
-0.28169999999999995,-13.634987508099224
-0.28070000000000006,-13.292627373531884
-0.27969999999999995,-13.023832226557529
-0.27870000000000006,-12.78050188298074
-0.27769999999999995,-12.507462602106788
-0.27670000000000006,-12.189152559637156
-0.27569999999999995,-11.887819052765904
-0.27470000000000006,-11.65156226568844
-0.27369999999999994,-11.409646633411523
-0.27270000000000005,-11.147925042936489
-0.27169999999999994,-10.843762113465505
-0.27070000000000005,-10.583455234290339
-0.26969999999999994,-10.365589694111124
-0.26870000000000005,-10.136406463532989
-0.26769999999999994,-9.87892900695755
