Sept. 26, 2024   02:10:51
Linear Sweep Voltammetry
File: c:/users/guazh/data/20240922_batch_417_500/2024-09-22-exp449\1acid_2ac-2024-09-26t02_07_39-lsvinphos\1acid_2ac_lsv_50mvs_efin_-2300mv.bin
Data Source:  Experiment
Instrument Model:  CHI760E
Header: LSV ran at 50 mVs with Efin at -2300mV
Note: 

Init E (V) = -0.6
Final E (V) = -2.3
Scan Rate (V/s) = 0.05
Sample Interval (V) = 0.001
Quiet Time (sec) = 2
Sensitivity (A/V) = 1e-4
Comp R (ohm) = 14.5

Results:

Channel 1:
Ep = -1.841V
ip = 8.719e-4A
Ah = 9.812e-4C

Potential/V, Current/A

-0.600, 5.100e-6
-0.601, 5.230e-6
-0.602, 5.286e-6
-0.603, 5.330e-6
-0.604, 5.371e-6
-0.605, 5.407e-6
-0.606, 5.446e-6
-0.607, 5.483e-6
-0.608, 5.524e-6
-0.609, 5.559e-6
-0.610, 5.594e-6
-0.611, 5.630e-6
-0.612, 5.665e-6
-0.613, 5.698e-6
-0.614, 5.734e-6
-0.615, 5.768e-6
-0.616, 5.802e-6
-0.617, 5.838e-6
-0.618, 5.872e-6
-0.619, 5.901e-6
-0.620, 5.930e-6
-0.621, 5.961e-6
-0.622, 5.995e-6
-0.623, 6.027e-6
-0.624, 6.057e-6
-0.625, 6.089e-6
-0.626, 6.120e-6
-0.627, 6.151e-6
-0.628, 6.180e-6
-0.629, 6.206e-6
-0.630, 6.235e-6
-0.631, 6.264e-6
-0.632, 6.295e-6
-0.633, 6.325e-6
-0.634, 6.352e-6
-0.635, 6.381e-6
-0.636, 6.410e-6
-0.637, 6.438e-6
-0.638, 6.466e-6
-0.639, 6.492e-6
-0.640, 6.518e-6
-0.641, 6.545e-6
-0.642, 6.571e-6
-0.643, 6.599e-6
-0.644, 6.624e-6
-0.645, 6.648e-6
-0.646, 6.673e-6
-0.647, 6.698e-6
-0.648, 6.721e-6
-0.649, 6.746e-6
-0.650, 6.766e-6
-0.651, 6.791e-6
-0.652, 6.816e-6
-0.653, 6.839e-6
-0.654, 6.860e-6
-0.655, 6.881e-6
-0.656, 6.902e-6
-0.657, 6.923e-6
-0.658, 6.944e-6
-0.659, 6.963e-6
-0.660, 6.982e-6
-0.661, 7.003e-6
-0.662, 7.022e-6
-0.663, 7.041e-6
-0.664, 7.059e-6
-0.665, 7.076e-6
-0.666, 7.097e-6
-0.667, 7.114e-6
-0.668, 7.132e-6
-0.669, 7.148e-6
-0.670, 7.164e-6
-0.671, 7.179e-6
-0.672, 7.195e-6
-0.673, 7.211e-6
-0.674, 7.224e-6
-0.675, 7.238e-6
-0.676, 7.254e-6
-0.677, 7.266e-6
-0.678, 7.281e-6
-0.679, 7.292e-6
-0.680, 7.303e-6
-0.681, 7.318e-6
-0.682, 7.329e-6
-0.683, 7.343e-6
-0.684, 7.353e-6
-0.685, 7.363e-6
-0.686, 7.374e-6
-0.687, 7.385e-6
-0.688, 7.395e-6
-0.689, 7.403e-6
-0.690, 7.411e-6
-0.691, 7.422e-6
-0.692, 7.430e-6
-0.693, 7.439e-6
-0.694, 7.448e-6
-0.695, 7.454e-6
-0.696, 7.462e-6
-0.697, 7.471e-6
-0.698, 7.477e-6
-0.699, 7.483e-6
-0.700, 7.491e-6
-0.701, 7.498e-6
-0.702, 7.503e-6
-0.703, 7.507e-6
-0.704, 7.511e-6
-0.705, 7.516e-6
-0.706, 7.521e-6
-0.707, 7.525e-6
-0.708, 7.531e-6
-0.709, 7.534e-6
-0.710, 7.537e-6
-0.711, 7.541e-6
-0.712, 7.544e-6
-0.713, 7.549e-6
-0.714, 7.550e-6
-0.715, 7.551e-6
-0.716, 7.554e-6
-0.717, 7.556e-6
-0.718, 7.560e-6
-0.719, 7.561e-6
-0.720, 7.561e-6
-0.721, 7.565e-6
-0.722, 7.565e-6
-0.723, 7.567e-6
-0.724, 7.566e-6
-0.725, 7.566e-6
-0.726, 7.570e-6
-0.727, 7.571e-6
-0.728, 7.571e-6
-0.729, 7.571e-6
-0.730, 7.571e-6
-0.731, 7.570e-6
-0.732, 7.570e-6
-0.733, 7.571e-6
-0.734, 7.571e-6
-0.735, 7.570e-6
-0.736, 7.570e-6
-0.737, 7.571e-6
-0.738, 7.570e-6
-0.739, 7.568e-6
-0.740, 7.567e-6
-0.741, 7.567e-6
-0.742, 7.567e-6
-0.743, 7.567e-6
-0.744, 7.563e-6
-0.745, 7.564e-6
-0.746, 7.563e-6
-0.747, 7.563e-6
-0.748, 7.563e-6
-0.749, 7.560e-6
-0.750, 7.559e-6
-0.751, 7.558e-6
-0.752, 7.557e-6
-0.753, 7.559e-6
-0.754, 7.556e-6
-0.755, 7.558e-6
-0.756, 7.556e-6
-0.757, 7.552e-6
-0.758, 7.553e-6
-0.759, 7.552e-6
-0.760, 7.551e-6
-0.761, 7.549e-6
-0.762, 7.547e-6
-0.763, 7.547e-6
-0.764, 7.545e-6
-0.765, 7.545e-6
-0.766, 7.546e-6
-0.767, 7.547e-6
-0.768, 7.548e-6
-0.769, 7.547e-6
-0.770, 7.546e-6
-0.771, 7.545e-6
-0.772, 7.545e-6
-0.773, 7.545e-6
-0.774, 7.543e-6
-0.775, 7.543e-6
-0.776, 7.544e-6
-0.777, 7.543e-6
-0.778, 7.545e-6
-0.779, 7.543e-6
-0.780, 7.544e-6
-0.781, 7.544e-6
-0.782, 7.545e-6
-0.783, 7.544e-6
-0.784, 7.545e-6
-0.785, 7.546e-6
-0.786, 7.546e-6
-0.787, 7.547e-6
-0.788, 7.549e-6
-0.789, 7.549e-6
-0.790, 7.551e-6
-0.791, 7.550e-6
-0.792, 7.550e-6
-0.793, 7.552e-6
-0.794, 7.553e-6
-0.795, 7.557e-6
-0.796, 7.557e-6
-0.797, 7.557e-6
-0.798, 7.560e-6
-0.799, 7.558e-6
-0.800, 7.562e-6
-0.801, 7.564e-6
-0.802, 7.568e-6
-0.803, 7.574e-6
-0.804, 7.574e-6
-0.805, 7.574e-6
-0.806, 7.578e-6
-0.807, 7.581e-6
-0.808, 7.584e-6
-0.809, 7.586e-6
-0.810, 7.589e-6
-0.811, 7.595e-6
-0.812, 7.600e-6
-0.813, 7.604e-6
-0.814, 7.606e-6
-0.815, 7.609e-6
-0.816, 7.611e-6
-0.817, 7.618e-6
-0.818, 7.622e-6
-0.819, 7.628e-6
-0.820, 7.631e-6
-0.821, 7.634e-6
-0.822, 7.637e-6
-0.823, 7.642e-6
-0.824, 7.643e-6
-0.825, 7.646e-6
-0.826, 7.650e-6
-0.827, 7.656e-6
-0.828, 7.664e-6
-0.829, 7.666e-6
-0.830, 7.671e-6
-0.831, 7.675e-6
-0.832, 7.681e-6
-0.833, 7.685e-6
-0.834, 7.690e-6
-0.835, 7.694e-6
-0.836, 7.700e-6
-0.837, 7.703e-6
-0.838, 7.709e-6
-0.839, 7.714e-6
-0.840, 7.718e-6
-0.841, 7.722e-6
-0.842, 7.730e-6
-0.843, 7.737e-6
-0.844, 7.739e-6
-0.845, 7.741e-6
-0.846, 7.748e-6
-0.847, 7.756e-6
-0.848, 7.757e-6
-0.849, 7.763e-6
-0.850, 7.769e-6
-0.851, 7.773e-6
-0.852, 7.780e-6
-0.853, 7.785e-6
-0.854, 7.786e-6
-0.855, 7.789e-6
-0.856, 7.792e-6
-0.857, 7.800e-6
-0.858, 7.801e-6
-0.859, 7.803e-6
-0.860, 7.808e-6
-0.861, 7.812e-6
-0.862, 7.815e-6
-0.863, 7.819e-6
-0.864, 7.821e-6
-0.865, 7.828e-6
-0.866, 7.830e-6
-0.867, 7.837e-6
-0.868, 7.842e-6
-0.869, 7.845e-6
-0.870, 7.852e-6
-0.871, 7.856e-6
-0.872, 7.860e-6
-0.873, 7.865e-6
-0.874, 7.867e-6
-0.875, 7.871e-6
-0.876, 7.880e-6
-0.877, 7.885e-6
-0.878, 7.891e-6
-0.879, 7.889e-6
-0.880, 7.890e-6
-0.881, 7.896e-6
-0.882, 7.896e-6
-0.883, 7.898e-6
-0.884, 7.902e-6
-0.885, 7.906e-6
-0.886, 7.909e-6
-0.887, 7.909e-6
-0.888, 7.910e-6
-0.889, 7.911e-6
-0.890, 7.915e-6
-0.891, 7.919e-6
-0.892, 7.922e-6
-0.893, 7.926e-6
-0.894, 7.934e-6
-0.895, 7.938e-6
-0.896, 7.940e-6
-0.897, 7.942e-6
-0.898, 7.945e-6
-0.899, 7.947e-6
-0.900, 7.947e-6
-0.901, 7.949e-6
-0.902, 7.955e-6
-0.903, 7.959e-6
-0.904, 7.962e-6
-0.905, 7.964e-6
-0.906, 7.966e-6
-0.907, 7.968e-6
-0.908, 7.969e-6
-0.909, 7.969e-6
-0.910, 7.976e-6
-0.911, 7.974e-6
-0.912, 7.975e-6
-0.913, 7.980e-6
-0.914, 7.979e-6
-0.915, 7.986e-6
-0.916, 7.990e-6
-0.917, 7.989e-6
-0.918, 7.988e-6
-0.919, 7.989e-6
-0.920, 7.995e-6
-0.921, 7.997e-6
-0.922, 7.996e-6
-0.923, 7.998e-6
-0.924, 7.992e-6
-0.925, 7.994e-6
-0.926, 8.001e-6
-0.927, 8.004e-6
-0.928, 8.008e-6
-0.929, 8.010e-6
-0.930, 8.004e-6
-0.931, 8.003e-6
-0.932, 8.003e-6
-0.933, 8.006e-6
-0.934, 8.002e-6
-0.935, 8.004e-6
-0.936, 8.008e-6
-0.937, 8.007e-6
-0.938, 8.004e-6
-0.939, 8.002e-6
-0.940, 8.007e-6
-0.941, 8.012e-6
-0.942, 8.009e-6
-0.943, 8.004e-6
-0.944, 8.003e-6
-0.945, 8.005e-6
-0.946, 8.005e-6
-0.947, 8.007e-6
-0.948, 8.011e-6
-0.949, 8.012e-6
-0.950, 8.017e-6
-0.951, 8.014e-6
-0.952, 8.015e-6
-0.953, 8.014e-6
-0.954, 8.013e-6
-0.955, 8.007e-6
-0.956, 8.003e-6
-0.957, 7.998e-6
-0.958, 8.003e-6
-0.959, 8.004e-6
-0.960, 8.008e-6
-0.961, 8.017e-6
-0.962, 8.018e-6
-0.963, 8.017e-6
-0.964, 8.015e-6
-0.965, 8.017e-6
-0.966, 8.026e-6
-0.967, 8.034e-6
-0.968, 8.043e-6
-0.969, 8.046e-6
-0.970, 8.041e-6
-0.971, 8.037e-6
-0.972, 8.036e-6
-0.973, 8.038e-6
-0.974, 8.032e-6
-0.975, 8.028e-6
-0.976, 8.025e-6
-0.977, 8.023e-6
-0.978, 8.021e-6
-0.979, 8.014e-6
-0.980, 8.015e-6
-0.981, 8.014e-6
-0.982, 8.010e-6
-0.983, 8.003e-6
-0.984, 7.999e-6
-0.985, 7.999e-6
-0.986, 7.995e-6
-0.987, 8.000e-6
-0.988, 8.000e-6
-0.989, 7.999e-6
-0.990, 8.007e-6
-0.991, 8.001e-6
-0.992, 8.006e-6
-0.993, 8.005e-6
-0.994, 8.008e-6
-0.995, 8.004e-6
-0.996, 8.019e-6
-0.997, 8.025e-6
-0.998, 8.028e-6
-0.999, 8.028e-6
-1.000, 8.026e-6
-1.001, 8.019e-6
-1.002, 8.013e-6
-1.003, 7.998e-6
-1.004, 7.993e-6
-1.005, 7.989e-6
-1.006, 7.986e-6
-1.007, 7.980e-6
-1.008, 7.966e-6
-1.009, 7.953e-6
-1.010, 7.952e-6
-1.011, 7.960e-6
-1.012, 7.959e-6
-1.013, 7.952e-6
-1.014, 7.950e-6
-1.015, 7.941e-6
-1.016, 7.942e-6
-1.017, 7.944e-6
-1.018, 7.941e-6
-1.019, 7.946e-6
-1.020, 7.952e-6
-1.021, 7.962e-6
-1.022, 7.973e-6
-1.023, 7.986e-6
-1.024, 7.985e-6
-1.025, 7.983e-6
-1.026, 7.992e-6
-1.027, 8.003e-6
-1.028, 8.013e-6
-1.029, 8.013e-6
-1.030, 8.019e-6
-1.031, 8.024e-6
-1.032, 8.031e-6
-1.033, 8.041e-6
-1.034, 8.039e-6
-1.035, 8.048e-6
-1.036, 8.050e-6
-1.037, 8.058e-6
-1.038, 8.060e-6
-1.039, 8.067e-6
-1.040, 8.082e-6
-1.041, 8.089e-6
-1.042, 8.088e-6
-1.043, 8.081e-6
-1.044, 8.078e-6
-1.045, 8.093e-6
-1.046, 8.107e-6
-1.047, 8.122e-6
-1.048, 8.127e-6
-1.049, 8.137e-6
-1.050, 8.139e-6
-1.051, 8.146e-6
-1.052, 8.167e-6
-1.053, 8.169e-6
-1.054, 8.179e-6
-1.055, 8.192e-6
-1.056, 8.203e-6
-1.057, 8.198e-6
-1.058, 8.200e-6
-1.059, 8.213e-6
-1.060, 8.234e-6
-1.061, 8.238e-6
-1.062, 8.238e-6
-1.063, 8.247e-6
-1.064, 8.250e-6
-1.065, 8.269e-6
-1.066, 8.273e-6
-1.067, 8.280e-6
-1.068, 8.282e-6
-1.069, 8.287e-6
-1.070, 8.300e-6
-1.071, 8.310e-6
-1.072, 8.320e-6
-1.073, 8.314e-6
-1.074, 8.319e-6
-1.075, 8.338e-6
-1.076, 8.345e-6
-1.077, 8.357e-6
-1.078, 8.381e-6
-1.079, 8.402e-6
-1.080, 8.424e-6
-1.081, 8.422e-6
-1.082, 8.442e-6
-1.083, 8.453e-6
-1.084, 8.480e-6
-1.085, 8.484e-6
-1.086, 8.495e-6
-1.087, 8.516e-6
-1.088, 8.529e-6
-1.089, 8.537e-6
-1.090, 8.539e-6
-1.091, 8.537e-6
-1.092, 8.546e-6
-1.093, 8.547e-6
-1.094, 8.570e-6
-1.095, 8.575e-6
-1.096, 8.576e-6
-1.097, 8.591e-6
-1.098, 8.601e-6
-1.099, 8.615e-6
-1.100, 8.626e-6
-1.101, 8.641e-6
-1.102, 8.653e-6
-1.103, 8.665e-6
-1.104, 8.672e-6
-1.105, 8.680e-6
-1.106, 8.704e-6
-1.107, 8.719e-6
-1.108, 8.711e-6
-1.109, 8.708e-6
-1.110, 8.719e-6
-1.111, 8.726e-6
-1.112, 8.742e-6
-1.113, 8.755e-6
-1.114, 8.781e-6
-1.115, 8.793e-6
-1.116, 8.805e-6
-1.117, 8.808e-6
-1.118, 8.810e-6
-1.119, 8.842e-6
-1.120, 8.863e-6
-1.121, 8.881e-6
-1.122, 8.883e-6
-1.123, 8.900e-6
-1.124, 8.925e-6
-1.125, 8.947e-6
-1.126, 8.964e-6
-1.127, 8.976e-6
-1.128, 8.993e-6
-1.129, 9.012e-6
-1.130, 9.034e-6
-1.131, 9.047e-6
-1.132, 9.062e-6
-1.133, 9.085e-6
-1.134, 9.110e-6
-1.135, 9.136e-6
-1.136, 9.149e-6
-1.137, 9.179e-6
-1.138, 9.204e-6
-1.139, 9.237e-6
-1.140, 9.258e-6
-1.141, 9.279e-6
-1.142, 9.301e-6
-1.143, 9.308e-6
-1.144, 9.330e-6
-1.145, 9.348e-6
-1.146, 9.368e-6
-1.147, 9.396e-6
-1.148, 9.399e-6
-1.149, 9.409e-6
-1.150, 9.426e-6
-1.151, 9.456e-6
-1.152, 9.481e-6
-1.153, 9.506e-6
-1.154, 9.533e-6
-1.155, 9.561e-6
-1.156, 9.593e-6
-1.157, 9.612e-6
-1.158, 9.637e-6
-1.159, 9.677e-6
-1.160, 9.693e-6
-1.161, 9.716e-6
-1.162, 9.739e-6
-1.163, 9.764e-6
-1.164, 9.794e-6
-1.165, 9.804e-6
-1.166, 9.830e-6
-1.167, 9.872e-6
-1.168, 9.905e-6
-1.169, 9.933e-6
-1.170, 9.945e-6
-1.171, 9.960e-6
-1.172, 9.980e-6
-1.173, 1.000e-5
-1.174, 1.005e-5
-1.175, 1.008e-5
-1.176, 1.012e-5
-1.177, 1.015e-5
-1.178, 1.018e-5
-1.179, 1.022e-5
-1.180, 1.024e-5
-1.181, 1.027e-5
-1.182, 1.031e-5
-1.183, 1.034e-5
-1.184, 1.036e-5
-1.185, 1.039e-5
-1.186, 1.043e-5
-1.187, 1.045e-5
-1.188, 1.047e-5
-1.189, 1.051e-5
-1.190, 1.054e-5
-1.191, 1.058e-5
-1.192, 1.062e-5
-1.193, 1.065e-5
-1.194, 1.069e-5
-1.195, 1.072e-5
-1.196, 1.076e-5
-1.197, 1.079e-5
-1.198, 1.080e-5
-1.199, 1.084e-5
-1.200, 1.088e-5
-1.201, 1.092e-5
-1.202, 1.094e-5
-1.203, 1.097e-5
-1.204, 1.100e-5
-1.205, 1.104e-5
-1.206, 1.109e-5
-1.207, 1.113e-5
-1.208, 1.117e-5
-1.209, 1.118e-5
-1.210, 1.122e-5
-1.211, 1.125e-5
-1.212, 1.126e-5
-1.213, 1.128e-5
-1.214, 1.131e-5
-1.215, 1.134e-5
-1.216, 1.139e-5
-1.217, 1.143e-5
-1.218, 1.147e-5
-1.219, 1.149e-5
-1.220, 1.153e-5
-1.221, 1.155e-5
-1.222, 1.158e-5
-1.223, 1.160e-5
-1.224, 1.162e-5
-1.225, 1.164e-5
-1.226, 1.167e-5
-1.227, 1.172e-5
-1.228, 1.175e-5
-1.229, 1.177e-5
-1.230, 1.179e-5
-1.231, 1.182e-5
-1.232, 1.186e-5
-1.233, 1.189e-5
-1.234, 1.192e-5
-1.235, 1.196e-5
-1.236, 1.197e-5
-1.237, 1.199e-5
-1.238, 1.201e-5
-1.239, 1.204e-5
-1.240, 1.206e-5
-1.241, 1.208e-5
-1.242, 1.210e-5
-1.243, 1.212e-5
-1.244, 1.216e-5
-1.245, 1.220e-5
-1.246, 1.223e-5
-1.247, 1.224e-5
-1.248, 1.228e-5
-1.249, 1.231e-5
-1.250, 1.231e-5
-1.251, 1.234e-5
-1.252, 1.237e-5
-1.253, 1.241e-5
-1.254, 1.243e-5
-1.255, 1.245e-5
-1.256, 1.246e-5
-1.257, 1.247e-5
-1.258, 1.250e-5
-1.259, 1.252e-5
-1.260, 1.257e-5
-1.261, 1.261e-5
-1.262, 1.263e-5
-1.263, 1.266e-5
-1.264, 1.269e-5
-1.265, 1.269e-5
-1.266, 1.273e-5
-1.267, 1.276e-5
-1.268, 1.279e-5
-1.269, 1.281e-5
-1.270, 1.285e-5
-1.271, 1.288e-5
-1.272, 1.292e-5
-1.273, 1.294e-5
-1.274, 1.296e-5
-1.275, 1.300e-5
-1.276, 1.302e-5
-1.277, 1.303e-5
-1.278, 1.307e-5
-1.279, 1.311e-5
-1.280, 1.312e-5
-1.281, 1.316e-5
-1.282, 1.319e-5
-1.283, 1.322e-5
-1.284, 1.324e-5
-1.285, 1.328e-5
-1.286, 1.330e-5
-1.287, 1.330e-5
-1.288, 1.332e-5
-1.289, 1.337e-5
-1.290, 1.340e-5
-1.291, 1.342e-5
-1.292, 1.343e-5
-1.293, 1.347e-5
-1.294, 1.351e-5
-1.295, 1.354e-5
-1.296, 1.355e-5
-1.297, 1.361e-5
-1.298, 1.364e-5
-1.299, 1.362e-5
-1.300, 1.362e-5
-1.301, 1.367e-5
-1.302, 1.369e-5
-1.303, 1.369e-5
-1.304, 1.370e-5
-1.305, 1.371e-5
-1.306, 1.374e-5
-1.307, 1.376e-5
-1.308, 1.378e-5
-1.309, 1.380e-5
-1.310, 1.382e-5
-1.311, 1.384e-5
-1.312, 1.387e-5
-1.313, 1.391e-5
-1.314, 1.393e-5
-1.315, 1.394e-5
-1.316, 1.396e-5
-1.317, 1.397e-5
-1.318, 1.400e-5
-1.319, 1.403e-5
-1.320, 1.406e-5
-1.321, 1.409e-5
-1.322, 1.413e-5
-1.323, 1.416e-5
-1.324, 1.420e-5
-1.325, 1.422e-5
-1.326, 1.424e-5
-1.327, 1.425e-5
-1.328, 1.428e-5
-1.329, 1.429e-5
-1.330, 1.431e-5
-1.331, 1.438e-5
-1.332, 1.440e-5
-1.333, 1.442e-5
-1.334, 1.444e-5
-1.335, 1.447e-5
-1.336, 1.452e-5
-1.337, 1.457e-5
-1.338, 1.459e-5
-1.339, 1.461e-5
-1.340, 1.464e-5
-1.341, 1.465e-5
-1.342, 1.466e-5
-1.343, 1.468e-5
-1.344, 1.471e-5
-1.345, 1.474e-5
-1.346, 1.479e-5
-1.347, 1.483e-5
-1.348, 1.484e-5
-1.349, 1.487e-5
-1.350, 1.488e-5
-1.351, 1.491e-5
-1.352, 1.495e-5
-1.353, 1.498e-5
-1.354, 1.499e-5
-1.355, 1.500e-5
-1.356, 1.502e-5
-1.357, 1.503e-5
-1.358, 1.506e-5
-1.359, 1.508e-5
-1.360, 1.509e-5
-1.361, 1.512e-5
-1.362, 1.515e-5
-1.363, 1.520e-5
-1.364, 1.522e-5
-1.365, 1.525e-5
-1.366, 1.530e-5
-1.367, 1.531e-5
-1.368, 1.531e-5
-1.369, 1.535e-5
-1.370, 1.539e-5
-1.371, 1.542e-5
-1.372, 1.545e-5
-1.373, 1.550e-5
-1.374, 1.552e-5
-1.375, 1.554e-5
-1.376, 1.559e-5
-1.377, 1.560e-5
-1.378, 1.561e-5
-1.379, 1.564e-5
-1.380, 1.568e-5
-1.381, 1.571e-5
-1.382, 1.574e-5
-1.383, 1.575e-5
-1.384, 1.580e-5
-1.385, 1.584e-5
-1.386, 1.588e-5
-1.387, 1.590e-5
-1.388, 1.593e-5
-1.389, 1.597e-5
-1.390, 1.600e-5
-1.391, 1.602e-5
-1.392, 1.606e-5
-1.393, 1.610e-5
-1.394, 1.612e-5
-1.395, 1.613e-5
-1.396, 1.617e-5
-1.397, 1.620e-5
-1.398, 1.624e-5
-1.399, 1.627e-5
-1.400, 1.630e-5
-1.401, 1.634e-5
-1.402, 1.636e-5
-1.403, 1.640e-5
-1.404, 1.647e-5
-1.405, 1.650e-5
-1.406, 1.655e-5
-1.407, 1.657e-5
-1.408, 1.661e-5
-1.409, 1.666e-5
-1.410, 1.670e-5
-1.411, 1.672e-5
-1.412, 1.675e-5
-1.413, 1.679e-5
-1.414, 1.681e-5
-1.415, 1.686e-5
-1.416, 1.689e-5
-1.417, 1.691e-5
-1.418, 1.694e-5
-1.419, 1.699e-5
-1.420, 1.705e-5
-1.421, 1.708e-5
-1.422, 1.712e-5
-1.423, 1.714e-5
-1.424, 1.719e-5
-1.425, 1.723e-5
-1.426, 1.730e-5
-1.427, 1.734e-5
-1.428, 1.735e-5
-1.429, 1.737e-5
-1.430, 1.742e-5
-1.431, 1.746e-5
-1.432, 1.750e-5
-1.433, 1.756e-5
-1.434, 1.760e-5
-1.435, 1.765e-5
-1.436, 1.770e-5
-1.437, 1.772e-5
-1.438, 1.777e-5
-1.439, 1.784e-5
-1.440, 1.790e-5
-1.441, 1.794e-5
-1.442, 1.795e-5
-1.443, 1.799e-5
-1.444, 1.804e-5
-1.445, 1.808e-5
-1.446, 1.812e-5
-1.447, 1.818e-5
-1.448, 1.825e-5
-1.449, 1.829e-5
-1.450, 1.832e-5
-1.451, 1.835e-5
-1.452, 1.842e-5
-1.453, 1.848e-5
-1.454, 1.853e-5
-1.455, 1.861e-5
-1.456, 1.866e-5
-1.457, 1.869e-5
-1.458, 1.873e-5
-1.459, 1.878e-5
-1.460, 1.885e-5
-1.461, 1.892e-5
-1.462, 1.899e-5
-1.463, 1.903e-5
-1.464, 1.910e-5
-1.465, 1.913e-5
-1.466, 1.919e-5
-1.467, 1.924e-5
-1.468, 1.928e-5
-1.469, 1.933e-5
-1.470, 1.940e-5
-1.471, 1.945e-5
-1.472, 1.952e-5
-1.473, 1.958e-5
-1.474, 1.963e-5
-1.475, 1.971e-5
-1.476, 1.977e-5
-1.477, 1.982e-5
-1.478, 1.989e-5
-1.479, 1.996e-5
-1.480, 2.001e-5
-1.481, 2.008e-5
-1.482, 2.015e-5
-1.483, 2.019e-5
-1.484, 2.025e-5
-1.485, 2.033e-5
-1.486, 2.038e-5
-1.487, 2.046e-5
-1.488, 2.055e-5
-1.489, 2.062e-5
-1.490, 2.069e-5
-1.491, 2.075e-5
-1.492, 2.079e-5
-1.493, 2.085e-5
-1.494, 2.095e-5
-1.495, 2.104e-5
-1.496, 2.112e-5
-1.497, 2.121e-5
-1.498, 2.128e-5
-1.499, 2.136e-5
-1.500, 2.142e-5
-1.501, 2.146e-5
-1.502, 2.155e-5
-1.503, 2.164e-5
-1.504, 2.171e-5
-1.505, 2.180e-5
-1.506, 2.186e-5
-1.507, 2.193e-5
-1.508, 2.202e-5
-1.509, 2.211e-5
-1.510, 2.221e-5
-1.511, 2.232e-5
-1.512, 2.238e-5
-1.513, 2.251e-5
-1.514, 2.261e-5
-1.515, 2.267e-5
-1.516, 2.274e-5
-1.517, 2.281e-5
-1.518, 2.289e-5
-1.519, 2.299e-5
-1.520, 2.308e-5
-1.521, 2.316e-5
-1.522, 2.325e-5
-1.523, 2.337e-5
-1.524, 2.347e-5
-1.525, 2.356e-5
-1.526, 2.366e-5
-1.527, 2.375e-5
-1.528, 2.384e-5
-1.529, 2.395e-5
-1.530, 2.408e-5
-1.531, 2.421e-5
-1.532, 2.434e-5
-1.533, 2.445e-5
-1.534, 2.457e-5
-1.535, 2.469e-5
-1.536, 2.481e-5
-1.537, 2.495e-5
-1.538, 2.508e-5
-1.539, 2.519e-5
-1.540, 2.531e-5
-1.541, 2.542e-5
-1.542, 2.556e-5
-1.543, 2.569e-5
-1.544, 2.582e-5
-1.545, 2.594e-5
-1.546, 2.605e-5
-1.547, 2.619e-5
-1.548, 2.633e-5
-1.549, 2.646e-5
-1.550, 2.661e-5
-1.551, 2.677e-5
-1.552, 2.689e-5
-1.553, 2.703e-5
-1.554, 2.718e-5
-1.555, 2.734e-5
-1.556, 2.750e-5
-1.557, 2.764e-5
-1.558, 2.780e-5
-1.559, 2.797e-5
-1.560, 2.815e-5
-1.561, 2.832e-5
-1.562, 2.849e-5
-1.563, 2.866e-5
-1.564, 2.885e-5
-1.565, 2.903e-5
-1.566, 2.920e-5
-1.567, 2.938e-5
-1.568, 2.956e-5
-1.569, 2.974e-5
-1.570, 2.994e-5
-1.571, 3.012e-5
-1.572, 3.032e-5
-1.573, 3.055e-5
-1.574, 3.079e-5
-1.575, 3.102e-5
-1.576, 3.125e-5
-1.577, 3.147e-5
-1.578, 3.171e-5
-1.579, 3.193e-5
-1.580, 3.217e-5
-1.581, 3.241e-5
-1.582, 3.265e-5
-1.583, 3.290e-5
-1.584, 3.313e-5
-1.585, 3.338e-5
-1.586, 3.364e-5
-1.587, 3.391e-5
-1.588, 3.419e-5
-1.589, 3.450e-5
-1.590, 3.479e-5
-1.591, 3.505e-5
-1.592, 3.535e-5
-1.593, 3.565e-5
-1.594, 3.594e-5
-1.595, 3.625e-5
-1.596, 3.656e-5
-1.597, 3.687e-5
-1.598, 3.717e-5
-1.599, 3.751e-5
-1.600, 3.785e-5
-1.601, 3.820e-5
-1.602, 3.855e-5
-1.603, 3.890e-5
-1.604, 3.927e-5
-1.605, 3.968e-5
-1.606, 4.008e-5
-1.607, 4.046e-5
-1.608, 4.087e-5
-1.609, 4.129e-5
-1.610, 4.169e-5
-1.611, 4.209e-5
-1.612, 4.252e-5
-1.613, 4.295e-5
-1.614, 4.338e-5
-1.615, 4.381e-5
-1.616, 4.428e-5
-1.617, 4.475e-5
-1.618, 4.523e-5
-1.619, 4.570e-5
-1.620, 4.621e-5
-1.621, 4.672e-5
-1.622, 4.722e-5
-1.623, 4.777e-5
-1.624, 4.833e-5
-1.625, 4.889e-5
-1.626, 4.944e-5
-1.627, 5.001e-5
-1.628, 5.060e-5
-1.629, 5.120e-5
-1.630, 5.180e-5
-1.631, 5.241e-5
-1.632, 5.302e-5
-1.633, 5.366e-5
-1.634, 5.430e-5
-1.635, 5.496e-5
-1.636, 5.561e-5
-1.637, 5.630e-5
-1.638, 5.701e-5
-1.639, 5.776e-5
-1.640, 5.848e-5
-1.641, 5.921e-5
-1.642, 5.992e-5
-1.643, 6.070e-5
-1.644, 6.148e-5
-1.645, 6.225e-5
-1.646, 6.305e-5
-1.647, 6.385e-5
-1.648, 6.468e-5
-1.649, 6.553e-5
-1.650, 6.639e-5
-1.651, 6.726e-5
-1.652, 6.814e-5
-1.653, 6.905e-5
-1.654, 6.995e-5
-1.655, 7.087e-5
-1.656, 7.184e-5
-1.657, 7.277e-5
-1.658, 7.370e-5
-1.659, 7.468e-5
-1.660, 7.563e-5
-1.661, 7.663e-5
-1.662, 7.763e-5
-1.663, 7.865e-5
-1.664, 7.970e-5
-1.665, 8.077e-5
-1.666, 8.181e-5
-1.667, 8.286e-5
-1.668, 8.398e-5
-1.669, 8.507e-5
-1.670, 8.618e-5
-1.671, 8.731e-5
-1.672, 8.847e-5
-1.673, 8.962e-5
-1.674, 9.074e-5
-1.675, 9.191e-5
-1.676, 9.309e-5
-1.677, 9.429e-5
-1.678, 9.550e-5
-1.679, 9.670e-5
-1.680, 9.791e-5
-1.681, 9.915e-5
-1.682, 1.004e-4
-1.683, 1.017e-4
-1.684, 1.029e-4
-1.685, 1.042e-4
-1.686, 1.054e-4
-1.687, 1.067e-4
-1.688, 1.080e-4
-1.689, 1.093e-4
-1.690, 1.106e-4
-1.691, 1.119e-4
-1.692, 1.133e-4
-1.693, 1.146e-4
-1.694, 1.159e-4
-1.695, 1.172e-4
-1.696, 1.185e-4
-1.697, 1.198e-4
-1.698, 1.212e-4
-1.699, 1.225e-4
-1.700, 1.238e-4
-1.701, 1.252e-4
-1.702, 1.265e-4
-1.703, 1.279e-4
-1.704, 1.293e-4
-1.705, 1.306e-4
-1.706, 1.319e-4
-1.707, 1.333e-4
-1.708, 1.347e-4
-1.709, 1.360e-4
-1.710, 1.374e-4
-1.711, 1.388e-4
-1.712, 1.402e-4
-1.713, 1.415e-4
-1.714, 1.429e-4
-1.715, 1.444e-4
-1.716, 1.458e-4
-1.717, 1.473e-4
-1.718, 1.488e-4
-1.719, 1.503e-4
-1.720, 1.519e-4
-1.721, 1.535e-4
-1.722, 1.552e-4
-1.723, 1.570e-4
-1.724, 1.589e-4
-1.725, 1.608e-4
-1.726, 1.629e-4
-1.727, 1.651e-4
-1.728, 1.674e-4
-1.729, 1.698e-4
-1.730, 1.724e-4
-1.731, 1.751e-4
-1.732, 1.780e-4
-1.733, 1.810e-4
-1.734, 1.841e-4
-1.735, 1.874e-4
-1.736, 1.909e-4
-1.737, 1.944e-4
-1.738, 1.982e-4
-1.739, 2.020e-4
-1.740, 2.060e-4
-1.741, 2.101e-4
-1.742, 2.143e-4
-1.743, 2.186e-4
-1.744, 2.231e-4
-1.745, 2.276e-4
-1.746, 2.323e-4
-1.747, 2.371e-4
-1.748, 2.419e-4
-1.749, 2.469e-4
-1.750, 2.520e-4
-1.751, 2.572e-4
-1.752, 2.625e-4
-1.753, 2.679e-4
-1.754, 2.733e-4
-1.755, 2.789e-4
-1.756, 2.846e-4
-1.757, 2.903e-4
-1.758, 2.962e-4
-1.759, 3.021e-4
-1.760, 3.081e-4
-1.761, 3.142e-4
-1.762, 3.204e-4
-1.763, 3.267e-4
-1.764, 3.331e-4
-1.765, 3.395e-4
-1.766, 3.461e-4
-1.767, 3.527e-4
-1.768, 3.595e-4
-1.769, 3.663e-4
-1.770, 3.732e-4
-1.771, 3.802e-4
-1.772, 3.873e-4
-1.773, 3.944e-4
-1.774, 4.017e-4
-1.775, 4.090e-4
-1.776, 4.164e-4
-1.777, 4.238e-4
-1.778, 4.313e-4
-1.779, 4.390e-4
-1.780, 4.467e-4
-1.781, 4.544e-4
-1.782, 4.622e-4
-1.783, 4.701e-4
-1.784, 4.781e-4
-1.785, 4.862e-4
-1.786, 4.943e-4
-1.787, 5.025e-4
-1.788, 5.107e-4
-1.789, 5.190e-4
-1.790, 5.275e-4
-1.791, 5.359e-4
-1.792, 5.445e-4
-1.793, 5.531e-4
-1.794, 5.617e-4
-1.795, 5.704e-4
-1.796, 5.792e-4
-1.797, 5.880e-4
-1.798, 5.969e-4
-1.799, 6.059e-4
-1.800, 6.149e-4
-1.801, 6.239e-4
-1.802, 6.330e-4
-1.803, 6.422e-4
-1.804, 6.513e-4
-1.805, 6.605e-4
-1.806, 6.699e-4
-1.807, 6.793e-4
-1.808, 6.888e-4
-1.809, 6.983e-4
-1.810, 7.078e-4
-1.811, 7.174e-4
-1.812, 7.270e-4
-1.813, 7.367e-4
-1.814, 7.464e-4
-1.815, 7.562e-4
-1.816, 7.660e-4
-1.817, 7.758e-4
-1.818, 7.857e-4
-1.819, 7.957e-4
-1.820, 8.057e-4
-1.821, 8.158e-4
-1.822, 8.259e-4
-1.823, 8.361e-4
-1.824, 8.463e-4
-1.825, 8.565e-4
-1.826, 8.668e-4
-1.827, 8.771e-4
-1.828, 8.874e-4
-1.829, 8.978e-4
-1.830, 9.082e-4
-1.831, 9.187e-4
-1.832, 9.292e-4
-1.833, 9.397e-4
-1.834, 9.503e-4
-1.835, 9.609e-4
-1.836, 9.716e-4
-1.837, 9.823e-4
-1.838, 9.930e-4
-1.839, 1.004e-3
-1.840, 1.011e-3
-1.841, 1.011e-3
-1.842, 1.011e-3
-1.843, 1.011e-3
-1.844, 1.011e-3
-1.845, 1.011e-3
-1.846, 1.011e-3
-1.847, 1.011e-3
-1.848, 1.011e-3
-1.849, 1.011e-3
-1.850, 1.011e-3
-1.851, 1.011e-3
-1.852, 1.011e-3
-1.853, 1.011e-3
-1.854, 1.011e-3
-1.855, 1.011e-3
-1.856, 1.011e-3
-1.857, 1.011e-3
-1.858, 1.011e-3
-1.859, 1.011e-3
-1.860, 1.011e-3
-1.861, 1.011e-3
-1.862, 1.011e-3
-1.863, 1.011e-3
-1.864, 1.011e-3
-1.865, 1.011e-3
-1.866, 1.011e-3
-1.867, 1.011e-3
-1.868, 1.011e-3
-1.869, 1.011e-3
-1.870, 1.011e-3
-1.871, 1.011e-3
-1.872, 1.011e-3
-1.873, 1.011e-3
-1.874, 1.011e-3
-1.875, 1.011e-3
-1.876, 1.011e-3
-1.877, 1.011e-3
-1.878, 1.011e-3
-1.879, 1.011e-3
-1.880, 1.011e-3
-1.881, 1.011e-3
-1.882, 1.011e-3
-1.883, 1.011e-3
-1.884, 1.011e-3
-1.885, 1.011e-3
-1.886, 1.011e-3
-1.887, 1.011e-3
-1.888, 1.011e-3
-1.889, 1.011e-3
-1.890, 1.011e-3
-1.891, 1.011e-3
-1.892, 1.011e-3
-1.893, 1.011e-3
-1.894, 1.011e-3
-1.895, 1.011e-3
-1.896, 1.011e-3
-1.897, 1.011e-3
-1.898, 1.011e-3
-1.899, 1.011e-3
-1.900, 1.011e-3
-1.901, 1.011e-3
-1.902, 1.011e-3
-1.903, 1.011e-3
-1.904, 1.011e-3
-1.905, 1.011e-3
-1.906, 1.011e-3
-1.907, 1.011e-3
-1.908, 1.011e-3
-1.909, 1.011e-3
-1.910, 1.011e-3
-1.911, 1.011e-3
-1.912, 1.011e-3
-1.913, 1.011e-3
-1.914, 1.011e-3
-1.915, 1.011e-3
-1.916, 1.011e-3
-1.917, 1.011e-3
-1.918, 1.011e-3
-1.919, 1.011e-3
-1.920, 1.011e-3
-1.921, 1.011e-3
-1.922, 1.011e-3
-1.923, 1.011e-3
-1.924, 1.011e-3
-1.925, 1.011e-3
-1.926, 1.011e-3
-1.927, 1.011e-3
-1.928, 1.011e-3
-1.929, 1.011e-3
-1.930, 1.011e-3
-1.931, 1.011e-3
-1.932, 1.011e-3
-1.933, 1.011e-3
-1.934, 1.011e-3
-1.935, 1.011e-3
-1.936, 1.011e-3
-1.937, 1.011e-3
-1.938, 1.011e-3
-1.939, 1.011e-3
-1.940, 1.011e-3
-1.941, 1.011e-3
-1.942, 1.011e-3
-1.943, 1.011e-3
-1.944, 1.011e-3
-1.945, 1.011e-3
-1.946, 1.011e-3
-1.947, 1.011e-3
-1.948, 1.011e-3
-1.949, 1.011e-3
-1.950, 1.011e-3
-1.951, 1.011e-3
-1.952, 1.011e-3
-1.953, 1.011e-3
-1.954, 1.011e-3
-1.955, 1.011e-3
-1.956, 1.011e-3
-1.957, 1.011e-3
-1.958, 1.011e-3
-1.959, 1.011e-3
-1.960, 1.011e-3
-1.961, 1.011e-3
-1.962, 1.011e-3
-1.963, 1.011e-3
-1.964, 1.011e-3
-1.965, 1.011e-3
-1.966, 1.011e-3
-1.967, 1.011e-3
-1.968, 1.011e-3
-1.969, 1.011e-3
-1.970, 1.011e-3
-1.971, 1.011e-3
-1.972, 1.011e-3
-1.973, 1.011e-3
-1.974, 1.011e-3
-1.975, 1.011e-3
-1.976, 1.011e-3
-1.977, 1.011e-3
-1.978, 1.011e-3
-1.979, 1.011e-3
-1.980, 1.011e-3
-1.981, 1.011e-3
-1.982, 1.011e-3
-1.983, 1.011e-3
-1.984, 1.011e-3
-1.985, 1.011e-3
-1.986, 1.011e-3
-1.987, 1.011e-3
-1.988, 1.011e-3
-1.989, 1.011e-3
-1.990, 1.011e-3
-1.991, 1.011e-3
-1.992, 1.011e-3
-1.993, 1.011e-3
-1.994, 1.011e-3
-1.995, 1.011e-3
-1.996, 1.011e-3
-1.997, 1.011e-3
-1.998, 1.011e-3
-1.999, 1.011e-3
-2.000, 1.011e-3
-2.001, 1.011e-3
-2.002, 1.011e-3
-2.003, 1.011e-3
-2.004, 1.011e-3
-2.005, 1.011e-3
-2.006, 1.011e-3
-2.007, 1.011e-3
-2.008, 1.011e-3
-2.009, 1.011e-3
-2.010, 1.011e-3
-2.011, 1.011e-3
-2.012, 1.011e-3
-2.013, 1.011e-3
-2.014, 1.011e-3
-2.015, 1.011e-3
-2.016, 1.011e-3
-2.017, 1.011e-3
-2.018, 1.011e-3
-2.019, 1.011e-3
-2.020, 1.011e-3
-2.021, 1.011e-3
-2.022, 1.011e-3
-2.023, 1.011e-3
-2.024, 1.011e-3
-2.025, 1.011e-3
-2.026, 1.011e-3
-2.027, 1.011e-3
-2.028, 1.011e-3
-2.029, 1.011e-3
-2.030, 1.011e-3
-2.031, 1.011e-3
-2.032, 1.011e-3
-2.033, 1.011e-3
-2.034, 1.011e-3
-2.035, 1.011e-3
-2.036, 1.011e-3
-2.037, 1.011e-3
-2.038, 1.011e-3
-2.039, 1.011e-3
-2.040, 1.011e-3
-2.041, 1.011e-3
-2.042, 1.011e-3
-2.043, 1.011e-3
-2.044, 1.011e-3
-2.045, 1.011e-3
-2.046, 1.011e-3
-2.047, 1.011e-3
-2.048, 1.011e-3
-2.049, 1.011e-3
-2.050, 1.011e-3
-2.051, 1.011e-3
-2.052, 1.011e-3
-2.053, 1.011e-3
-2.054, 1.011e-3
-2.055, 1.011e-3
-2.056, 1.011e-3
-2.057, 1.011e-3
-2.058, 1.011e-3
-2.059, 1.011e-3
-2.060, 1.011e-3
-2.061, 1.011e-3
-2.062, 1.011e-3
-2.063, 1.011e-3
-2.064, 1.011e-3
-2.065, 1.011e-3
-2.066, 1.011e-3
-2.067, 1.011e-3
-2.068, 1.011e-3
-2.069, 1.011e-3
-2.070, 1.011e-3
-2.071, 1.011e-3
-2.072, 1.011e-3
-2.073, 1.011e-3
-2.074, 1.011e-3
-2.075, 1.011e-3
-2.076, 1.011e-3
-2.077, 1.011e-3
-2.078, 1.011e-3
-2.079, 1.011e-3
-2.080, 1.011e-3
-2.081, 1.011e-3
-2.082, 1.011e-3
-2.083, 1.011e-3
-2.084, 1.011e-3
-2.085, 1.011e-3
-2.086, 1.011e-3
-2.087, 1.011e-3
-2.088, 1.011e-3
-2.089, 1.011e-3
-2.090, 1.011e-3
-2.091, 1.011e-3
-2.092, 1.011e-3
-2.093, 1.011e-3
-2.094, 1.011e-3
-2.095, 1.011e-3
-2.096, 1.011e-3
-2.097, 1.011e-3
-2.098, 1.011e-3
-2.099, 1.011e-3
-2.100, 1.011e-3
-2.101, 1.011e-3
-2.102, 1.011e-3
-2.103, 1.011e-3
-2.104, 1.011e-3
-2.105, 1.011e-3
-2.106, 1.011e-3
-2.107, 1.011e-3
-2.108, 1.011e-3
-2.109, 1.011e-3
-2.110, 1.011e-3
-2.111, 1.011e-3
-2.112, 1.011e-3
-2.113, 1.011e-3
-2.114, 1.011e-3
-2.115, 1.011e-3
-2.116, 1.011e-3
-2.117, 1.011e-3
-2.118, 1.011e-3
-2.119, 1.011e-3
-2.120, 1.011e-3
-2.121, 1.011e-3
-2.122, 1.011e-3
-2.123, 1.011e-3
-2.124, 1.011e-3
-2.125, 1.011e-3
-2.126, 1.011e-3
-2.127, 1.011e-3
-2.128, 1.011e-3
-2.129, 1.011e-3
-2.130, 1.011e-3
-2.131, 1.011e-3
-2.132, 1.011e-3
-2.133, 1.011e-3
-2.134, 1.011e-3
-2.135, 1.011e-3
-2.136, 1.011e-3
-2.137, 1.011e-3
-2.138, 1.011e-3
-2.139, 1.011e-3
-2.140, 1.011e-3
-2.141, 1.011e-3
-2.142, 1.011e-3
-2.143, 1.011e-3
-2.144, 1.011e-3
-2.145, 1.011e-3
-2.146, 1.011e-3
-2.147, 1.011e-3
-2.148, 1.011e-3
-2.149, 1.011e-3
-2.150, 1.011e-3
-2.151, 1.011e-3
-2.152, 1.011e-3
-2.153, 1.011e-3
-2.154, 1.011e-3
-2.155, 1.011e-3
-2.156, 1.011e-3
-2.157, 1.011e-3
-2.158, 1.011e-3
-2.159, 1.011e-3
-2.160, 1.011e-3
-2.161, 1.011e-3
-2.162, 1.011e-3
-2.163, 1.011e-3
-2.164, 1.011e-3
-2.165, 1.011e-3
-2.166, 1.011e-3
-2.167, 1.011e-3
-2.168, 1.011e-3
-2.169, 1.011e-3
-2.170, 1.011e-3
-2.171, 1.011e-3
-2.172, 1.011e-3
-2.173, 1.011e-3
-2.174, 1.011e-3
-2.175, 1.011e-3
-2.176, 1.011e-3
-2.177, 1.011e-3
-2.178, 1.011e-3
-2.179, 1.011e-3
-2.180, 1.011e-3
-2.181, 1.011e-3
-2.182, 1.011e-3
-2.183, 1.011e-3
-2.184, 1.011e-3
-2.185, 1.011e-3
-2.186, 1.011e-3
-2.187, 1.011e-3
-2.188, 1.011e-3
-2.189, 1.011e-3
-2.190, 1.011e-3
-2.191, 1.011e-3
-2.192, 1.011e-3
-2.193, 1.011e-3
-2.194, 1.011e-3
-2.195, 1.011e-3
-2.196, 1.011e-3
-2.197, 1.011e-3
-2.198, 1.011e-3
-2.199, 1.011e-3
-2.200, 1.011e-3
-2.201, 1.011e-3
-2.202, 1.011e-3
-2.203, 1.011e-3
-2.204, 1.011e-3
-2.205, 1.011e-3
-2.206, 1.011e-3
-2.207, 1.011e-3
-2.208, 1.011e-3
-2.209, 1.011e-3
-2.210, 1.011e-3
-2.211, 1.011e-3
-2.212, 1.011e-3
-2.213, 1.011e-3
-2.214, 1.011e-3
-2.215, 1.011e-3
-2.216, 1.011e-3
-2.217, 1.011e-3
-2.218, 1.011e-3
-2.219, 1.011e-3
-2.220, 1.011e-3
-2.221, 1.011e-3
-2.222, 1.011e-3
-2.223, 1.011e-3
-2.224, 1.011e-3
-2.225, 1.011e-3
-2.226, 1.011e-3
-2.227, 1.011e-3
-2.228, 1.011e-3
-2.229, 1.011e-3
-2.230, 1.011e-3
-2.231, 1.011e-3
-2.232, 1.011e-3
-2.233, 1.011e-3
-2.234, 1.011e-3
-2.235, 1.011e-3
-2.236, 1.011e-3
-2.237, 1.011e-3
-2.238, 1.011e-3
-2.239, 1.011e-3
-2.240, 1.011e-3
-2.241, 1.011e-3
-2.242, 1.011e-3
-2.243, 1.011e-3
-2.244, 1.011e-3
-2.245, 1.011e-3
-2.246, 1.011e-3
-2.247, 1.011e-3
-2.248, 1.011e-3
-2.249, 1.011e-3
-2.250, 1.011e-3
-2.251, 1.011e-3
-2.252, 1.011e-3
-2.253, 1.011e-3
-2.254, 1.011e-3
-2.255, 1.011e-3
-2.256, 1.011e-3
-2.257, 1.011e-3
-2.258, 1.011e-3
-2.259, 1.011e-3
-2.260, 1.011e-3
-2.261, 1.011e-3
-2.262, 1.011e-3
-2.263, 1.011e-3
-2.264, 1.011e-3
-2.265, 1.011e-3
-2.266, 1.011e-3
-2.267, 1.011e-3
-2.268, 1.011e-3
-2.269, 1.011e-3
-2.270, 1.011e-3
-2.271, 1.011e-3
-2.272, 1.011e-3
-2.273, 1.011e-3
-2.274, 1.011e-3
-2.275, 1.011e-3
-2.276, 1.011e-3
-2.277, 1.011e-3
-2.278, 1.011e-3
-2.279, 1.011e-3
-2.280, 1.011e-3
-2.281, 1.011e-3
-2.282, 1.011e-3
-2.283, 1.011e-3
-2.284, 1.011e-3
-2.285, 1.011e-3
-2.286, 1.011e-3
-2.287, 1.011e-3
-2.288, 1.011e-3
-2.289, 1.011e-3
-2.290, 1.011e-3
-2.291, 1.011e-3
-2.292, 1.011e-3
-2.293, 1.011e-3
-2.294, 1.011e-3
-2.295, 1.011e-3
-2.296, 1.011e-3
-2.297, 1.011e-3
-2.298, 1.011e-3
-2.299, 1.011e-3
