Jan. 8, 2025   14:12:46
Cyclic Voltammetry
File: c:/users/guazh/data/banditlqround7_x0exp772_r5/2025-01-07-exp798\exp798-2025-01-08t14_04_39-arkoh\exp798_cv_sr_700mvs_efin_-1400mv.bin
Data Source:  Experiment
Instrument Model:  CHI760E
Header: CV ran at 700 mVs
Note: 

Init E (V) = -1
High E (V) = -1
Low E (V) = -1.4
Final E (V) = -1
Init P/N = N
Scan Rate (V/s) = 0.7
Segment = 3
Sample Interval (V) = 0.001
Quiet Time (sec) = 2
Sensitivity (A/V) = 0.01
Comp R (ohm) = 1.4

Results:

Channel 1:
Segment 1:

Segment 2:

Segment 3:

Potential/V, Current/A

-1.000, -3.205e-4
-1.001, 9.405e-6
-1.002, 3.331e-4
-1.003, 6.723e-4
-1.004, 1.021e-3
-1.005, 1.317e-3
-1.006, 1.606e-3
-1.007, 1.865e-3
-1.008, 2.091e-3
-1.009, 2.291e-3
-1.010, 2.470e-3
-1.011, 2.670e-3
-1.012, 2.886e-3
-1.013, 3.114e-3
-1.014, 3.364e-3
-1.015, 3.617e-3
-1.016, 3.854e-3
-1.017, 4.076e-3
-1.018, 4.264e-3
-1.019, 4.428e-3
-1.020, 4.560e-3
-1.021, 4.671e-3
-1.022, 4.804e-3
-1.023, 4.930e-3
-1.024, 5.093e-3
-1.025, 5.269e-3
-1.026, 5.457e-3
-1.027, 5.661e-3
-1.028, 5.830e-3
-1.029, 6.003e-3
-1.030, 6.129e-3
-1.031, 6.234e-3
-1.032, 6.311e-3
-1.033, 6.379e-3
-1.034, 6.481e-3
-1.035, 6.564e-3
-1.036, 6.694e-3
-1.037, 6.842e-3
-1.038, 6.993e-3
-1.039, 7.162e-3
-1.040, 7.292e-3
-1.041, 7.412e-3
-1.042, 7.501e-3
-1.043, 7.560e-3
-1.044, 7.619e-3
-1.045, 7.662e-3
-1.046, 7.723e-3
-1.047, 7.800e-3
-1.048, 7.908e-3
-1.049, 8.035e-3
-1.050, 8.164e-3
-1.051, 8.294e-3
-1.052, 8.414e-3
-1.053, 8.491e-3
-1.054, 8.550e-3
-1.055, 8.584e-3
-1.056, 8.605e-3
-1.057, 8.642e-3
-1.058, 8.679e-3
-1.059, 8.762e-3
-1.060, 8.864e-3
-1.061, 8.972e-3
-1.062, 9.092e-3
-1.063, 9.197e-3
-1.064, 9.299e-3
-1.065, 9.354e-3
-1.066, 9.394e-3
-1.067, 9.419e-3
-1.068, 9.422e-3
-1.069, 9.456e-3
-1.070, 9.487e-3
-1.071, 9.567e-3
-1.072, 9.650e-3
-1.073, 9.743e-3
-1.074, 9.857e-3
-1.075, 9.946e-3
-1.076, 1.001e-2
-1.077, 1.003e-2
-1.078, 1.005e-2
-1.079, 1.005e-2
-1.080, 1.004e-2
-1.081, 1.005e-2
-1.082, 1.010e-2
-1.083, 1.019e-2
-1.084, 1.028e-2
-1.085, 1.038e-2
-1.086, 1.048e-2
-1.087, 1.054e-2
-1.088, 1.057e-2
-1.089, 1.060e-2
-1.090, 1.061e-2
-1.091, 1.060e-2
-1.092, 1.058e-2
-1.093, 1.058e-2
-1.094, 1.062e-2
-1.095, 1.068e-2
-1.096, 1.075e-2
-1.097, 1.086e-2
-1.098, 1.093e-2
-1.099, 1.100e-2
-1.100, 1.103e-2
-1.101, 1.103e-2
-1.102, 1.101e-2
-1.103, 1.098e-2
-1.104, 1.099e-2
-1.105, 1.100e-2
-1.106, 1.105e-2
-1.107, 1.110e-2
-1.108, 1.118e-2
-1.109, 1.127e-2
-1.110, 1.132e-2
-1.111, 1.136e-2
-1.112, 1.137e-2
-1.113, 1.137e-2
-1.114, 1.135e-2
-1.115, 1.133e-2
-1.116, 1.133e-2
-1.117, 1.136e-2
-1.118, 1.140e-2
-1.119, 1.148e-2
-1.120, 1.156e-2
-1.121, 1.164e-2
-1.122, 1.169e-2
-1.123, 1.173e-2
-1.124, 1.174e-2
-1.125, 1.173e-2
-1.126, 1.170e-2
-1.127, 1.169e-2
-1.128, 1.169e-2
-1.129, 1.172e-2
-1.130, 1.177e-2
-1.131, 1.183e-2
-1.132, 1.192e-2
-1.133, 1.197e-2
-1.134, 1.203e-2
-1.135, 1.205e-2
-1.136, 1.204e-2
-1.137, 1.202e-2
-1.138, 1.198e-2
-1.139, 1.198e-2
-1.140, 1.197e-2
-1.141, 1.201e-2
-1.142, 1.207e-2
-1.143, 1.214e-2
-1.144, 1.222e-2
-1.145, 1.227e-2
-1.146, 1.231e-2
-1.147, 1.232e-2
-1.148, 1.231e-2
-1.149, 1.229e-2
-1.150, 1.227e-2
-1.151, 1.226e-2
-1.152, 1.227e-2
-1.153, 1.232e-2
-1.154, 1.238e-2
-1.155, 1.244e-2
-1.156, 1.251e-2
-1.157, 1.256e-2
-1.158, 1.259e-2
-1.159, 1.259e-2
-1.160, 1.256e-2
-1.161, 1.252e-2
-1.162, 1.250e-2
-1.163, 1.249e-2
-1.164, 1.252e-2
-1.165, 1.256e-2
-1.166, 1.262e-2
-1.167, 1.269e-2
-1.168, 1.275e-2
-1.169, 1.280e-2
-1.170, 1.280e-2
-1.171, 1.280e-2
-1.172, 1.278e-2
-1.173, 1.274e-2
-1.174, 1.274e-2
-1.175, 1.273e-2
-1.176, 1.277e-2
-1.177, 1.283e-2
-1.178, 1.289e-2
-1.179, 1.298e-2
-1.180, 1.303e-2
-1.181, 1.307e-2
-1.182, 1.307e-2
-1.183, 1.305e-2
-1.184, 1.303e-2
-1.185, 1.300e-2
-1.186, 1.298e-2
-1.187, 1.299e-2
-1.188, 1.303e-2
-1.189, 1.308e-2
-1.190, 1.315e-2
-1.191, 1.321e-2
-1.192, 1.325e-2
-1.193, 1.326e-2
-1.194, 1.325e-2
-1.195, 1.323e-2
-1.196, 1.319e-2
-1.197, 1.316e-2
-1.198, 1.315e-2
-1.199, 1.318e-2
-1.200, 1.321e-2
-1.201, 1.328e-2
-1.202, 1.336e-2
-1.203, 1.341e-2
-1.204, 1.346e-2
-1.205, 1.347e-2
-1.206, 1.346e-2
-1.207, 1.344e-2
-1.208, 1.339e-2
-1.209, 1.339e-2
-1.210, 1.338e-2
-1.211, 1.341e-2
-1.212, 1.346e-2
-1.213, 1.352e-2
-1.214, 1.360e-2
-1.215, 1.365e-2
-1.216, 1.368e-2
-1.217, 1.370e-2
-1.218, 1.367e-2
-1.219, 1.364e-2
-1.220, 1.361e-2
-1.221, 1.360e-2
-1.222, 1.361e-2
-1.223, 1.364e-2
-1.224, 1.370e-2
-1.225, 1.378e-2
-1.226, 1.384e-2
-1.227, 1.388e-2
-1.228, 1.391e-2
-1.229, 1.391e-2
-1.230, 1.389e-2
-1.231, 1.386e-2
-1.232, 1.385e-2
-1.233, 1.384e-2
-1.234, 1.386e-2
-1.235, 1.391e-2
-1.236, 1.398e-2
-1.237, 1.405e-2
-1.238, 1.411e-2
-1.239, 1.416e-2
-1.240, 1.417e-2
-1.241, 1.417e-2
-1.242, 1.414e-2
-1.243, 1.411e-2
-1.244, 1.411e-2
-1.245, 1.410e-2
-1.246, 1.414e-2
-1.247, 1.419e-2
-1.248, 1.426e-2
-1.249, 1.434e-2
-1.250, 1.439e-2
-1.251, 1.443e-2
-1.252, 1.444e-2
-1.253, 1.442e-2
-1.254, 1.441e-2
-1.255, 1.439e-2
-1.256, 1.437e-2
-1.257, 1.440e-2
-1.258, 1.444e-2
-1.259, 1.451e-2
-1.260, 1.459e-2
-1.261, 1.466e-2
-1.262, 1.474e-2
-1.263, 1.477e-2
-1.264, 1.477e-2
-1.265, 1.477e-2
-1.266, 1.475e-2
-1.267, 1.474e-2
-1.268, 1.473e-2
-1.269, 1.478e-2
-1.270, 1.484e-2
-1.271, 1.491e-2
-1.272, 1.499e-2
-1.273, 1.507e-2
-1.274, 1.514e-2
-1.275, 1.516e-2
-1.276, 1.518e-2
-1.277, 1.518e-2
-1.278, 1.515e-2
-1.279, 1.516e-2
-1.280, 1.518e-2
-1.281, 1.523e-2
-1.282, 1.531e-2
-1.283, 1.540e-2
-1.284, 1.552e-2
-1.285, 1.560e-2
-1.286, 1.566e-2
-1.287, 1.568e-2
-1.288, 1.569e-2
-1.289, 1.570e-2
-1.290, 1.568e-2
-1.291, 1.569e-2
-1.292, 1.574e-2
-1.293, 1.580e-2
-1.294, 1.588e-2
-1.295, 1.597e-2
-1.296, 1.606e-2
-1.297, 1.614e-2
-1.298, 1.619e-2
-1.299, 1.621e-2
-1.300, 1.623e-2
-1.301, 1.621e-2
-1.302, 1.621e-2
-1.303, 1.623e-2
-1.304, 1.629e-2
-1.305, 1.636e-2
-1.306, 1.645e-2
-1.307, 1.657e-2
-1.308, 1.666e-2
-1.309, 1.674e-2
-1.310, 1.678e-2
-1.311, 1.681e-2
-1.312, 1.683e-2
-1.313, 1.682e-2
-1.314, 1.686e-2
-1.315, 1.689e-2
-1.316, 1.697e-2
-1.317, 1.705e-2
-1.318, 1.715e-2
-1.319, 1.728e-2
-1.320, 1.738e-2
-1.321, 1.746e-2
-1.322, 1.752e-2
-1.323, 1.756e-2
-1.324, 1.759e-2
-1.325, 1.760e-2
-1.326, 1.765e-2
-1.327, 1.772e-2
-1.328, 1.781e-2
-1.329, 1.791e-2
-1.330, 1.804e-2
-1.331, 1.817e-2
-1.332, 1.827e-2
-1.333, 1.835e-2
-1.334, 1.841e-2
-1.335, 1.845e-2
-1.336, 1.847e-2
-1.337, 1.852e-2
-1.338, 1.856e-2
-1.339, 1.865e-2
-1.340, 1.875e-2
-1.341, 1.888e-2
-1.342, 1.902e-2
-1.343, 1.913e-2
-1.344, 1.925e-2
-1.345, 1.933e-2
-1.346, 1.938e-2
-1.347, 1.942e-2
-1.348, 1.946e-2
-1.349, 1.953e-2
-1.350, 1.959e-2
-1.351, 1.970e-2
-1.352, 1.982e-2
-1.353, 1.996e-2
-1.354, 2.012e-2
-1.355, 2.024e-2
-1.356, 2.035e-2
-1.357, 2.042e-2
-1.358, 2.048e-2
-1.359, 2.054e-2
-1.360, 2.058e-2
-1.361, 2.065e-2
-1.362, 2.073e-2
-1.363, 2.086e-2
-1.364, 2.100e-2
-1.365, 2.115e-2
-1.366, 2.131e-2
-1.367, 2.146e-2
-1.368, 2.157e-2
-1.369, 2.166e-2
-1.370, 2.173e-2
-1.371, 2.180e-2
-1.372, 2.190e-2
-1.373, 2.199e-2
-1.374, 2.212e-2
-1.375, 2.228e-2
-1.376, 2.245e-2
-1.377, 2.262e-2
-1.378, 2.277e-2
-1.379, 2.293e-2
-1.380, 2.304e-2
-1.381, 2.313e-2
-1.382, 2.322e-2
-1.383, 2.328e-2
-1.384, 2.337e-2
-1.385, 2.347e-2
-1.386, 2.361e-2
-1.387, 2.376e-2
-1.388, 2.390e-2
-1.389, 2.407e-2
-1.390, 2.422e-2
-1.391, 2.436e-2
-1.392, 2.446e-2
-1.393, 2.457e-2
-1.394, 2.467e-2
-1.395, 2.475e-2
-1.396, 2.486e-2
-1.397, 2.500e-2
-1.398, 2.518e-2
-1.399, 2.537e-2
-1.400, 2.532e-2
-1.399, 2.486e-2
-1.398, 2.442e-2
-1.397, 2.394e-2
-1.396, 2.347e-2
-1.395, 2.302e-2
-1.394, 2.255e-2
-1.393, 2.210e-2
-1.392, 2.167e-2
-1.391, 2.129e-2
-1.390, 2.093e-2
-1.389, 2.060e-2
-1.388, 2.030e-2
-1.387, 1.998e-2
-1.386, 1.967e-2
-1.385, 1.932e-2
-1.384, 1.896e-2
-1.383, 1.860e-2
-1.382, 1.822e-2
-1.381, 1.789e-2
-1.380, 1.756e-2
-1.379, 1.728e-2
-1.378, 1.702e-2
-1.377, 1.677e-2
-1.376, 1.655e-2
-1.375, 1.629e-2
-1.374, 1.602e-2
-1.373, 1.574e-2
-1.372, 1.542e-2
-1.371, 1.511e-2
-1.370, 1.479e-2
-1.369, 1.449e-2
-1.368, 1.423e-2
-1.367, 1.398e-2
-1.366, 1.377e-2
-1.365, 1.357e-2
-1.364, 1.336e-2
-1.363, 1.314e-2
-1.362, 1.289e-2
-1.361, 1.263e-2
-1.360, 1.235e-2
-1.359, 1.205e-2
-1.358, 1.178e-2
-1.357, 1.151e-2
-1.356, 1.128e-2
-1.355, 1.107e-2
-1.354, 1.088e-2
-1.353, 1.072e-2
-1.352, 1.052e-2
-1.351, 1.033e-2
-1.350, 1.010e-2
-1.349, 9.851e-3
-1.348, 9.576e-3
-1.347, 9.296e-3
-1.346, 9.058e-3
-1.345, 8.812e-3
-1.344, 8.608e-3
-1.343, 8.426e-3
-1.342, 8.257e-3
-1.341, 8.106e-3
-1.340, 7.921e-3
-1.339, 7.736e-3
-1.338, 7.523e-3
-1.337, 7.279e-3
-1.336, 7.039e-3
-1.335, 6.792e-3
-1.334, 6.555e-3
-1.333, 6.342e-3
-1.332, 6.157e-3
-1.331, 5.997e-3
-1.330, 5.852e-3
-1.329, 5.695e-3
-1.328, 5.541e-3
-1.327, 5.349e-3
-1.326, 5.137e-3
-1.325, 4.908e-3
-1.324, 4.665e-3
-1.323, 4.443e-3
-1.322, 4.215e-3
-1.321, 4.039e-3
-1.320, 3.888e-3
-1.319, 3.740e-3
-1.318, 3.610e-3
-1.317, 3.466e-3
-1.316, 3.321e-3
-1.315, 3.126e-3
-1.314, 2.920e-3
-1.313, 2.707e-3
-1.312, 2.470e-3
-1.311, 2.272e-3
-1.310, 2.063e-3
-1.309, 1.912e-3
-1.308, 1.773e-3
-1.307, 1.640e-3
-1.306, 1.536e-3
-1.305, 1.397e-3
-1.304, 1.252e-3
-1.303, 1.070e-3
-1.302, 8.727e-4
-1.301, 6.754e-4
-1.300, 4.626e-4
-1.299, 2.684e-4
-1.298, 1.081e-4
-1.297, -3.068e-5
-1.296, -1.478e-4
-1.295, -2.588e-4
-1.294, -3.667e-4
-1.293, -4.870e-4
-1.292, -6.504e-4
-1.291, -8.200e-4
-1.290, -1.002e-3
-1.289, -1.212e-3
-1.288, -1.396e-3
-1.287, -1.585e-3
-1.286, -1.720e-3
-1.285, -1.840e-3
-1.284, -1.948e-3
-1.283, -2.022e-3
-1.282, -2.133e-3
-1.281, -2.238e-3
-1.280, -2.399e-3
-1.279, -2.559e-3
-1.278, -2.735e-3
-1.277, -2.938e-3
-1.276, -3.095e-3
-1.275, -3.253e-3
-1.274, -3.367e-3
-1.273, -3.475e-3
-1.272, -3.561e-3
-1.271, -3.629e-3
-1.270, -3.733e-3
-1.269, -3.848e-3
-1.268, -3.983e-3
-1.267, -4.137e-3
-1.266, -4.304e-3
-1.265, -4.489e-3
-1.264, -4.640e-3
-1.263, -4.763e-3
-1.262, -4.874e-3
-1.261, -4.954e-3
-1.260, -5.016e-3
-1.259, -5.090e-3
-1.258, -5.170e-3
-1.257, -5.287e-3
-1.256, -5.420e-3
-1.255, -5.577e-3
-1.254, -5.750e-3
-1.253, -5.892e-3
-1.252, -6.033e-3
-1.251, -6.135e-3
-1.250, -6.225e-3
-1.249, -6.286e-3
-1.248, -6.326e-3
-1.247, -6.407e-3
-1.246, -6.477e-3
-1.245, -6.582e-3
-1.244, -6.715e-3
-1.243, -6.857e-3
-1.242, -7.020e-3
-1.241, -7.140e-3
-1.240, -7.267e-3
-1.239, -7.353e-3
-1.238, -7.418e-3
-1.237, -7.470e-3
-1.236, -7.504e-3
-1.235, -7.572e-3
-1.234, -7.649e-3
-1.233, -7.751e-3
-1.232, -7.880e-3
-1.231, -8.010e-3
-1.230, -8.145e-3
-1.229, -8.275e-3
-1.228, -8.374e-3
-1.227, -8.444e-3
-1.226, -8.488e-3
-1.225, -8.522e-3
-1.224, -8.565e-3
-1.223, -8.611e-3
-1.222, -8.688e-3
-1.221, -8.790e-3
-1.220, -8.916e-3
-1.219, -9.043e-3
-1.218, -9.157e-3
-1.217, -9.274e-3
-1.216, -9.339e-3
-1.215, -9.388e-3
-1.214, -9.425e-3
-1.213, -9.434e-3
-1.212, -9.480e-3
-1.211, -9.508e-3
-1.210, -9.591e-3
-1.209, -9.696e-3
-1.208, -9.801e-3
-1.207, -9.927e-3
-1.206, -1.001e-2
-1.205, -1.011e-2
-1.204, -1.016e-2
-1.203, -1.019e-2
-1.202, -1.021e-2
-1.201, -1.021e-2
-1.200, -1.024e-2
-1.199, -1.029e-2
-1.198, -1.037e-2
-1.197, -1.047e-2
-1.196, -1.056e-2
-1.195, -1.067e-2
-1.194, -1.077e-2
-1.193, -1.082e-2
-1.192, -1.086e-2
-1.191, -1.087e-2
-1.190, -1.088e-2
-1.189, -1.089e-2
-1.188, -1.091e-2
-1.187, -1.097e-2
-1.186, -1.104e-2
-1.185, -1.112e-2
-1.184, -1.122e-2
-1.183, -1.131e-2
-1.182, -1.139e-2
-1.181, -1.142e-2
-1.180, -1.144e-2
-1.179, -1.145e-2
-1.178, -1.144e-2
-1.177, -1.146e-2
-1.176, -1.147e-2
-1.175, -1.153e-2
-1.174, -1.160e-2
-1.173, -1.168e-2
-1.172, -1.180e-2
-1.171, -1.186e-2
-1.170, -1.192e-2
-1.169, -1.195e-2
-1.168, -1.196e-2
-1.167, -1.196e-2
-1.166, -1.194e-2
-1.165, -1.195e-2
-1.164, -1.198e-2
-1.163, -1.203e-2
-1.162, -1.211e-2
-1.161, -1.219e-2
-1.160, -1.228e-2
-1.159, -1.235e-2
-1.158, -1.238e-2
-1.157, -1.240e-2
-1.156, -1.240e-2
-1.155, -1.237e-2
-1.154, -1.236e-2
-1.153, -1.235e-2
-1.152, -1.238e-2
-1.151, -1.243e-2
-1.150, -1.250e-2
-1.149, -1.260e-2
-1.148, -1.266e-2
-1.147, -1.271e-2
-1.146, -1.273e-2
-1.145, -1.274e-2
-1.144, -1.272e-2
-1.143, -1.269e-2
-1.142, -1.269e-2
-1.141, -1.268e-2
-1.140, -1.272e-2
-1.139, -1.278e-2
-1.138, -1.285e-2
-1.137, -1.295e-2
-1.136, -1.300e-2
-1.135, -1.305e-2
-1.134, -1.308e-2
-1.133, -1.307e-2
-1.132, -1.306e-2
-1.131, -1.302e-2
-1.130, -1.302e-2
-1.129, -1.303e-2
-1.128, -1.305e-2
-1.127, -1.312e-2
-1.126, -1.319e-2
-1.125, -1.326e-2
-1.124, -1.332e-2
-1.123, -1.334e-2
-1.122, -1.335e-2
-1.121, -1.333e-2
-1.120, -1.329e-2
-1.119, -1.328e-2
-1.118, -1.326e-2
-1.117, -1.327e-2
-1.116, -1.332e-2
-1.115, -1.337e-2
-1.114, -1.344e-2
-1.113, -1.349e-2
-1.112, -1.354e-2
-1.111, -1.354e-2
-1.110, -1.353e-2
-1.109, -1.350e-2
-1.108, -1.346e-2
-1.107, -1.345e-2
-1.106, -1.343e-2
-1.105, -1.346e-2
-1.104, -1.351e-2
-1.103, -1.357e-2
-1.102, -1.364e-2
-1.101, -1.368e-2
-1.100, -1.373e-2
-1.099, -1.373e-2
-1.098, -1.371e-2
-1.097, -1.369e-2
-1.096, -1.365e-2
-1.095, -1.363e-2
-1.094, -1.363e-2
-1.093, -1.365e-2
-1.092, -1.372e-2
-1.091, -1.376e-2
-1.090, -1.382e-2
-1.089, -1.388e-2
-1.088, -1.389e-2
-1.087, -1.388e-2
-1.086, -1.386e-2
-1.085, -1.382e-2
-1.084, -1.380e-2
-1.083, -1.378e-2
-1.082, -1.380e-2
-1.081, -1.384e-2
-1.080, -1.388e-2
-1.079, -1.395e-2
-1.078, -1.399e-2
-1.077, -1.404e-2
-1.076, -1.404e-2
-1.075, -1.402e-2
-1.074, -1.400e-2
-1.073, -1.394e-2
-1.072, -1.392e-2
-1.071, -1.389e-2
-1.070, -1.391e-2
-1.069, -1.395e-2
-1.068, -1.399e-2
-1.067, -1.406e-2
-1.066, -1.410e-2
-1.065, -1.413e-2
-1.064, -1.412e-2
-1.063, -1.410e-2
-1.062, -1.408e-2
-1.061, -1.402e-2
-1.060, -1.400e-2
-1.059, -1.400e-2
-1.058, -1.402e-2
-1.057, -1.406e-2
-1.056, -1.411e-2
-1.055, -1.417e-2
-1.054, -1.422e-2
-1.053, -1.423e-2
-1.052, -1.422e-2
-1.051, -1.419e-2
-1.050, -1.415e-2
-1.049, -1.411e-2
-1.048, -1.408e-2
-1.047, -1.410e-2
-1.046, -1.412e-2
-1.045, -1.416e-2
-1.044, -1.423e-2
-1.043, -1.427e-2
-1.042, -1.431e-2
-1.041, -1.431e-2
-1.040, -1.430e-2
-1.039, -1.427e-2
-1.038, -1.421e-2
-1.037, -1.420e-2
-1.036, -1.418e-2
-1.035, -1.420e-2
-1.034, -1.424e-2
-1.033, -1.429e-2
-1.032, -1.437e-2
-1.031, -1.440e-2
-1.030, -1.444e-2
-1.029, -1.443e-2
-1.028, -1.441e-2
-1.027, -1.438e-2
-1.026, -1.433e-2
-1.025, -1.431e-2
-1.024, -1.431e-2
-1.023, -1.433e-2
-1.022, -1.437e-2
-1.021, -1.443e-2
-1.020, -1.449e-2
-1.019, -1.453e-2
-1.018, -1.454e-2
-1.017, -1.455e-2
-1.016, -1.452e-2
-1.015, -1.448e-2
-1.014, -1.445e-2
-1.013, -1.443e-2
-1.012, -1.445e-2
-1.011, -1.448e-2
-1.010, -1.453e-2
-1.009, -1.460e-2
-1.008, -1.463e-2
-1.007, -1.468e-2
-1.006, -1.469e-2
-1.005, -1.467e-2
-1.004, -1.464e-2
-1.003, -1.459e-2
-1.002, -1.457e-2
-1.001, -1.455e-2
