Potential V vs RHE, Current mA cm-2
0.013299999999999867,14.995939778569388
0.012299999999999978,13.431269080918659
0.011299999999999866,11.992507688955916
0.010299999999999976,10.509890246697358
0.009299999999999864,8.939560703847167
0.008299999999999974,7.369231160996977
0.007299999999999862,5.75504556785097
0.006299999999999972,4.098418635709011
0.00529999999999986,2.4403769922671885
0.0042999999999999705,0.8264743413811545
0.0032999999999998586,-0.7437137303390498
0.0022999999999999687,-2.1828995356917518
0.0012999999999998568,-3.403795387475278
0.00029999999999996696,-4.582249900262854
-0.000700000000000145,-5.585280211867165
-0.0017000000000000348,-6.500598422879844
-0.0027000000000001467,-7.329619244600755
-0.0037000000000000366,-8.246352166913299
-0.0047000000000001485,-9.11781432763016
-0.005700000000000038,-10.120844639234473
-0.00670000000000015,-11.1677310011346
-0.00770000000000004,-12.346185513922174
-0.008700000000000152,-13.567081365705702
-0.009700000000000042,-14.783733083589633
-0.010700000000000154,-16.014531914472215
-0.011700000000000044,-17.188742293360193
-0.012700000000000156,-18.19318731626437
-0.013700000000000045,-19.112749661176647
-0.014700000000000157,-19.890840876102416
-0.015700000000000047,-20.584049413036283
-0.01670000000000016,-21.149933932982297
-0.01770000000000005,-21.729965565926964
-0.01870000000000016,-22.295850085872978
-0.01970000000000005,-22.904175944814945
-0.020700000000000163,-23.639825820744765
-0.021700000000000053,-24.432064148669184
-0.022700000000000164,-25.337479380582806
-0.023700000000000054,-26.29948306449103
-0.024700000000000166,-27.303928087395207
-0.025700000000000056,-28.265931771303435
-0.026700000000000168,-29.22793545521166
-0.027700000000000058,-30.04846800913338
-0.02870000000000017,-30.79826499806185
-0.02970000000000006,-31.36414951800786
-0.03070000000000017,-31.887592698957924
-0.03170000000000006,-32.283711862920136
-0.03270000000000017,-32.62324257488775
-0.03370000000000006,-33.06180307784591
-0.034700000000000175,-33.50036358080407
-0.035700000000000065,-34.06624810075008
-0.03670000000000018,-34.717015298688004
-0.03770000000000007,-35.46681228761647
-0.03870000000000018,-36.28734484153819
-0.03970000000000007,-37.164465847454515
-0.04070000000000018,-37.99914551437489
-0.04170000000000007,-38.81967806829661
-0.04270000000000018,-39.51288660523048
-0.04370000000000007,-40.092918238175145
-0.044700000000000184,-40.559772967130606
-0.045700000000000074,-40.95589213109281
-0.046700000000000186,-41.267128617063115
-0.047700000000000076,-41.52177665103883
-0.04870000000000019,-41.83301313700913
-0.04970000000000008,-42.229132300971344
-0.05070000000000019,-42.653545690930855
-0.05170000000000008,-43.17698887188092
-0.05270000000000019,-43.84190318281749
-0.05370000000000008,-44.535111719751356
-0.05470000000000019,-45.36979138667173
-0.05570000000000008,-46.10544126260155
-0.056700000000000195,-46.79864979953541
-0.057700000000000085,-47.46356411047198
-0.058700000000000196,-47.93041883942744
-0.059700000000000086,-48.36897934238561
-0.0607000000000002,-48.68021582835591
-0.06170000000000009,-48.89242252333566
-0.0627000000000002,-49.118776331314066
-0.06370000000000009,-49.33098302629383
-0.0647000000000002,-49.59977817326819
-0.06570000000000009,-49.98175022423175
-0.0667000000000002,-50.50519340518181
-0.0677000000000001,-51.071077925127824
-0.0687000000000002,-51.77843357506035
-0.0697000000000001,-52.514083450990164
-0.07070000000000021,-53.22143910092268
-0.0717000000000001,-53.91464763785655
-0.07270000000000021,-54.52297349679851
-0.0737000000000001,-54.961533999756675
-0.07470000000000021,-55.357653163718886
-0.0757000000000001,-55.612301197694585
-0.07670000000000021,-55.7820665536784
-0.0777000000000001,-55.9235376836649
-0.07870000000000021,-56.13574437864466
-0.0797000000000001,-56.36209818662306
-0.08070000000000022,-56.74407023758662
-0.0817000000000001,-57.182630740544774
-0.08270000000000022,-57.70607392149485
-0.08370000000000011,-58.31439978043681
-0.08470000000000022,-59.06419676936528
-0.08570000000000011,-59.7149639673032
-0.08670000000000022,-60.36573116524111
-0.08770000000000011,-60.93161568518713
-0.08870000000000022,-61.37017618814529
-0.08970000000000011,-61.72385401311155
-0.09070000000000022,-61.89361936909536
-0.09170000000000011,-62.06338472507916
-0.09270000000000023,-62.20485585506566
-0.09370000000000012,-62.33217987205352
-0.09470000000000023,-62.58682790602922
-0.09570000000000012,-62.89806439199953
-0.09670000000000023,-63.3366248949577
-0.09770000000000012,-63.860068075907755
-0.09870000000000023,-64.46839393484973
-0.09970000000000012,-65.20404381077954
-0.10070000000000023,-65.82651678272015
-0.10170000000000012,-66.51972531965401
-0.10270000000000024,-67.08560983960004
-0.10370000000000013,-67.52417034255821
-0.10470000000000024,-67.86370105452582
-0.10570000000000013,-68.13249620150016
-0.10670000000000024,-68.30226155748396
-0.10770000000000013,-68.48617402646643
-0.10870000000000024,-68.65593938245023
-0.10970000000000013,-68.91058741642594
-0.11070000000000024,-69.26426524139221
-0.11170000000000013,-69.74526708334632
-0.11270000000000002,-70.31115160329232
-0.11370000000000013,-71.0043601402262
-0.11470000000000002,-71.7117157901587
-0.11570000000000014,-72.40492432709259
-0.11670000000000003,-73.09813286402644
-0.11770000000000014,-73.6781644969711
-0.11870000000000003,-74.14501922592657
-0.11970000000000014,-74.49869705089283
-0.12070000000000003,-74.76749219786718
-0.12170000000000014,-74.93725755385098
-0.12270000000000003,-75.1070229098348
-0.12370000000000014,-75.29093537881725
-0.12470000000000003,-75.54558341279296
-0.12570000000000014,-75.8992612377592
-0.12670000000000003,-76.42270441870929
-0.12770000000000015,-76.94614759965934
-0.12870000000000004,-77.59691479759726
-0.12970000000000015,-78.38915312552167
-0.13070000000000004,-79.08236166245555
-0.13170000000000015,-79.7755701993894
-0.13270000000000004,-80.38389605833139
-0.13370000000000015,-80.86489790028548
-0.13470000000000004,-81.26101706424771
-0.13570000000000015,-81.57225355021802
-0.13670000000000004,-81.74201890620182
-0.13770000000000016,-81.95422560118158
-0.13870000000000005,-82.18057940915998
-0.13970000000000016,-82.47766878213164
-0.14070000000000005,-82.9162292850898
-0.14170000000000016,-83.39723112704392
-0.14270000000000005,-84.00555698598588
-0.14370000000000016,-84.7129126359184
-0.14470000000000005,-85.49100385084417
-0.14570000000000016,-86.28324217876859
-0.14670000000000005,-86.97645071570246
-0.14770000000000016,-87.66965925263632
-0.14870000000000005,-88.15066109459043
-0.14970000000000017,-88.63166293654454
-0.15070000000000006,-89.02778210050676
-0.15170000000000017,-89.23998879548651
-0.15270000000000006,-89.50878394246087
-0.15370000000000017,-89.80587331543254
-0.15470000000000006,-90.15955114039879
-0.15570000000000017,-90.6405529823529
-0.15670000000000006,-91.20643750229891
-0.15770000000000017,-91.85720470023682
-0.15870000000000006,-92.64944302816124
-0.15970000000000018,-93.46997558208298
-0.16070000000000007,-94.26221391000739
-0.16170000000000018,-95.04030512493317
-0.16270000000000007,-95.74766077486568
-0.16370000000000018,-96.31354529481169
-0.16470000000000007,-96.79454713676581
-0.16570000000000018,-97.17651918772938
-0.16670000000000007,-97.44531433470372
-0.16770000000000018,-97.69996236867944
-0.16870000000000007,-98.05364019364569
-0.16970000000000018,-98.40731801861195
-0.17070000000000007,-98.88831986056607
-0.17170000000000019,-99.49664571950804
-0.17270000000000008,-100.18985425644189
-0.1737000000000002,-100.98209258436633
-0.17470000000000008,-101.84506647728399
-0.1757000000000002,-102.67974614420436
-0.17670000000000008,-103.50027869812607
-0.1777000000000002,-104.2925170260505
-0.17870000000000008,-104.85840154599651
-0.1797000000000002,-105.38184472694657
-0.18070000000000008,-105.7779638909088
-0.1817000000000002,-106.11749460287639
-0.18270000000000008,-106.38628974985076
-0.1837000000000002,-106.68337912282242
-0.1847000000000001,-107.07949828678463
-0.1857000000000002,-107.56050012873874
-0.1867000000000001,-108.1688259876807
-0.1877000000000002,-108.87618163761321
-0.1887000000000001,-109.61183151354304
-0.1897000000000002,-110.48895251945936
-0.1907000000000001,-111.26704373438514
-0.1917000000000001,-112.10172340130552
-0.19269999999999998,-112.79493193823936
-0.1937000000000001,-113.36081645818538
-0.19469999999999998,-113.84181830013951
-0.1957000000000001,-114.23793746410173
-0.19669999999999999,-114.4925854980774
-0.1977000000000001,-114.84626332304367
-0.1987,-115.15749980901398
-0.1997000000000001,-115.53947185997755
-0.2007,-116.02047370193165
-0.2017000000000001,-116.67124089986959
-0.2027,-117.3785965498021
-0.2037000000000001,-118.15668776472786
-0.2047,-119.03380877064419
-0.2057000000000001,-119.95337111555646
-0.2067,-120.77390366947817
-0.2077000000000001,-121.52370065840667
-0.2087,-122.21690919534053
-0.2097000000000001,-122.74035237629057
-0.2107,-123.2213542182447
-0.2117000000000001,-123.6174733822069
-0.2127,-123.95700409417452
-0.2137000000000001,-124.35312325813672
-0.2147,-124.83412510009084
-0.2157000000000001,-125.40000962003687
-0.2167,-126.09321815697072
-0.21770000000000012,-126.84301514589919
-0.2187,-127.72013615181551
-0.21970000000000012,-128.62555138372915
-0.2207,-129.5451137286414
-0.22170000000000012,-130.42223473455772
-0.2227,-131.24276728847948
-0.22370000000000012,-131.89353448641737
-0.2247,-132.41697766736743
-0.22570000000000012,-132.89797950932152
-0.2267,-133.2516573342878
-0.22770000000000012,-133.5628938202581
-0.22870000000000001,-133.90242453222572
-0.22970000000000013,-134.29854369618792
-0.23070000000000002,-134.82198687713802
-0.23170000000000013,-135.387871397084
-0.23270000000000002,-136.13766838601245
-0.23370000000000013,-136.95820093993422
-0.23470000000000002,-137.79288060685457
-0.23570000000000013,-138.65585449977226
-0.23670000000000002,-139.53297550568857
-0.2376999999999999,-140.36765517260895
-0.23870000000000002,-141.01842237054686
-0.2396999999999999,-141.61260111649017
-0.24070000000000003,-142.03701450644968
-0.24169999999999991,-142.4614278964092
-0.24270000000000003,-142.8858412863687
-0.24369999999999992,-143.3102546763282
-0.24470000000000003,-143.73466806628772
-0.24569999999999992,-144.30055258623375
-0.24670000000000003,-145.00790823616626
-0.24769999999999992,-145.7152638860988
-0.24870000000000003,-146.7055617960043
-0.24969999999999992,-147.6958597059098
-0.25070000000000003,-148.68615761581535
-0.2516999999999999,-149.53498439573437
-0.25270000000000004,-150.38381117565342
-0.2536999999999999,-151.23263795557244
-0.25470000000000004,-151.7985224755184
-0.2556999999999999,-152.36440699546444
-0.25670000000000004,-152.78882038542397
-0.25769999999999993,-153.21323377538346
-0.25870000000000004,-153.77911829532948
-0.25969999999999993,-154.203531685289
-0.26070000000000004,-154.9108873352215
-0.26169999999999993,-155.61824298515404
-0.26270000000000004,-156.46706976507306
-0.26369999999999993,-157.45736767497857
-0.26470000000000005,-158.4476655848841
-0.26569999999999994,-159.57943462477613
-0.26670000000000005,-160.5697325346817
-0.26769999999999994,-161.41855931460069
-0.26870000000000005,-162.2673860945197
-0.26969999999999994,-162.97474174445222
-0.27070000000000005,-163.54062626439824
-0.27169999999999994,-163.96503965435775
-0.27270000000000005,-164.38945304431726
-0.27369999999999994,-164.81386643427678
-0.27470000000000006,-165.3797509542228
-0.27569999999999995,-166.0871066041553
-0.27670000000000006,-166.79446225408785
-0.27769999999999995,-167.6432890340068
-0.27870000000000006,-168.63358694391238
-0.27969999999999995,-169.7653559838044
-0.28070000000000006,-170.75565389370993
-0.28169999999999995,-171.88742293360195
-0.28270000000000006,-172.87772084350746
-0.28369999999999995,-173.72654762342648
-0.28470000000000006,-174.43390327335902
-0.28569999999999995,-175.14125892329156
-0.28670000000000007,-175.70714344323756
-0.28769999999999996,-176.27302796318358
-0.28870000000000007,-176.8389124831296
-0.28969999999999996,-177.4047970030756
-0.29070000000000007,-178.1121526530081
-0.29169999999999996,-179.10245056291362
-0.29270000000000007,-179.95127734283267
-0.29369999999999996,-181.08304638272472
-0.2947000000000001,-182.07334429263022
-0.29569999999999996,-183.20511333252225
-0.2967000000000001,-184.19541124242778
-0.29769999999999996,-185.1857091523333
-0.2987000000000001,-186.03453593225234
-0.29969999999999997,-186.74189158218485
-0.3007000000000001,-187.44924723211736
-0.30169999999999997,-188.01513175206335
-0.3027000000000001,-188.4395451420229
-0.30369999999999997,-189.0054296619689
-0.3047000000000001,-189.71278531190143
-0.30569999999999997,-190.42014096183394
-0.3067000000000001,-191.268967741753
-0.3077,-192.11779452167198
-0.3087000000000001,-193.249563561564
-0.3097,-194.38133260145605
-0.3107000000000001,-195.51310164134807
-0.3117,-196.50339955125358
-0.3127000000000001,-197.63516859114563
-0.3137,-198.48399537106465
-0.3147000000000001,-199.33282215098367
-0.3157,-200.04017780091618
-0.3167000000000001,-200.6060623208622
-0.3177,-201.31341797079472
-0.3187000000000001,-201.87930249074074
-0.3197,-202.58665814067325
-0.3207000000000001,-203.43548492059227
-0.3217,-204.42578283049778
-0.3227000000000001,-205.41608074040332
-0.3237,-206.54784978029537
-0.3247000000000001,-207.8210899501739
-0.3257,-208.95285899006592
-0.3267000000000001,-210.22609915994445
-0.3277,-211.35786819983647
-0.3287000000000001,-212.34816610974204
-0.3297,-213.19699288966103
-0.3307000000000001,-214.04581966958003
-0.3317,-214.75317531951256
-0.3327000000000001,-215.4605309694451
-0.3337,-216.1678866193776
-0.3347000000000001,-216.87524226931012
-0.3357,-217.72406904922914
-0.3367000000000001,-218.85583808912116
-0.3377,-219.98760712901318
-0.3387000000000001,-221.11937616890526
-0.3397,-222.3926163387838
-0.3407000000000001,-223.6658565086623
-0.3417,-224.93909667854084
-0.3427000000000001,-226.07086571843288
-0.3437,-227.06116362833836
-0.3447000000000001,-227.9099904082574
-0.3457,-228.75881718817644
-0.3467000000000001,-229.46617283810895
-0.3477,-230.17352848804146
-0.3487000000000001,-230.880884137974
-0.3497,-231.729710917893
-0.3507000000000001,-232.72000882779852
-0.3517,-233.71030673770406
-0.3527000000000001,-234.84207577759608
-0.3537,-235.97384481748813
-0.3547000000000001,-237.24708498736666
-0.3557,-238.5203251572452
-0.35670000000000013,-239.7935653271237
-0.3577,-240.92533436701575
-0.35870000000000013,-242.05710340690777
-0.3597,-243.04740131681334
-0.36070000000000013,-243.75475696674582
-0.3617,-244.60358374666484
-0.3626999999999999,-245.31093939659738
-0.3637,-246.01829504652986
-0.3646999999999999,-246.8671218264489
-0.3657,-247.85741973635444
-0.3666999999999999,-248.9891887762465
-0.3677,-250.1209578161385
-0.3686999999999999,-251.39419798601702
-0.36970000000000003,-252.80890928588207
-0.3706999999999999,-254.2236205857471
-0.37170000000000003,-255.63833188561213
-0.3726999999999999,-256.91157205549064
-0.37370000000000003,-258.0433410953827
-0.3746999999999999,-259.17511013527474
-0.37570000000000003,-260.16540804518024
-0.3766999999999999,-261.01423482509927
-0.37770000000000004,-261.8630616050183
-0.3786999999999999,-262.7118883849373
-0.37970000000000004,-263.56071516485633
-0.3806999999999999,-264.6924842047484
-0.38170000000000004,-265.82425324464043
-0.38269999999999993,-267.09749341451896
-0.38370000000000004,-268.512204714384
-0.38469999999999993,-269.926916014249
-0.38570000000000004,-271.341627314114
-0.38669999999999993,-272.7563386139791
-0.38770000000000004,-274.0295787838576
-0.38869999999999993,-275.30281895373616
-0.38970000000000005,-276.43458799362816
-0.39069999999999994,-277.4248859035337
-0.39170000000000005,-278.4151838134392
-0.39269999999999994,-279.26401059335825
-0.39370000000000005,-280.25430850326376
-0.39469999999999994,-281.1031352831828
-0.39570000000000005,-282.09343319308834
-0.39669999999999994,-283.3666733629668
-0.39770000000000005,-284.49844240285887
-0.39869999999999994,-285.9131537027239
-0.39970000000000006,-287.327865002589
-0.40069999999999995,-288.6011051724675
-0.40170000000000006,-290.0158164723325
-0.40269999999999995,-291.28905664221105
-0.40370000000000006,-292.4208256821031
-0.40469999999999995,-293.26965246202207
-0.40570000000000006,-294.2599503719276
-0.40669999999999995,-294.96730602186017
-0.40770000000000006,-295.67466167179265
-0.40869999999999995,-296.52348845171167
-0.40970000000000006,-297.3723152316307
-0.41069999999999995,-298.3626131415362
-0.41170000000000007,-299.3529110514418
-0.41269999999999996,-300.6261512213203
-0.41370000000000007,-301.8993913911989
-0.41469999999999996,-303.31410269106385
-0.41570000000000007,-304.5873428609424
-0.41669999999999996,-306.00205416080746
-0.41770000000000007,-307.1338232006995
-0.41869999999999996,-308.2655922405915
-0.4197000000000001,-309.255890150497
-0.42069999999999996,-310.2461880604026
-0.4217000000000001,-310.95354371033505
-0.42269999999999996,-311.80237049025413
-0.4237000000000001,-312.50972614018656
-0.42469999999999997,-313.35855292010564
-0.4257000000000001,-314.34885083001114
-0.42669999999999997,-315.3391487399167
-0.4277000000000001,-316.47091777980876
-0.42869999999999997,-317.74415794968724
-0.4297000000000001,-319.15886924955225
-0.43069999999999997,-320.4321094194308
-0.4317000000000001,-321.8468207192958
-0.4327,-322.97858975918786
-0.4337000000000001,-324.1103587990799
-0.4347,-325.24212783897195
-0.4357000000000001,-326.23242574887746
-0.4367,-326.93978139880994
-0.4377000000000001,-327.9300793087155
-0.4387,-328.7789060886345
-0.4397000000000001,-329.76920399854004
-0.4407,-330.7595019084456
-0.4417000000000001,-331.89127094833765
-0.4427,-333.1645111182162
-0.4437000000000001,-334.5792224180812
-0.4447,-336.1354048479327
-0.4457000000000001,-337.5501161477977
-0.4467,-338.96482744766274
-0.4477000000000001,-340.3795387475279
-0.4487,-341.51130778741987
-0.4497000000000001,-342.64307682731186
-0.4507,-343.49190360723094
-0.4517000000000001,-344.1992592571634
-0.4527,-344.90661490709596
-0.4537000000000001,-345.7554416870149
-0.4547,-346.604268466934
-0.4557000000000001,-347.59456637683957
-0.4567,-348.584864286745
-0.4577000000000001,-349.71663332663707
-0.4587,-350.8484023665291
-0.4597000000000001,-352.1216425364076
-0.4607,-353.3948827062862
-0.4617000000000001,-354.66812287616466
-0.4627,-355.65842078607017
-0.4637000000000001,-356.7901898259622
-0.4647,-357.7804877358678
-0.4657000000000001,-358.7707856457733
-0.4667,-359.4781412957058
-0.4677000000000001,-360.18549694563836
-0.4687,-361.0343237255574
-0.4697000000000001,-361.74167937548987
-0.4707,-362.73197728539543
-0.4717000000000001,-363.72227519530094
-0.4727,-364.854044235193
-0.4737000000000001,-366.12728440507146
-0.4747,-367.40052457495005
-0.4757000000000001,-368.8152358748151
-0.4767,-370.0884760446936
-0.4777000000000001,-371.3617162145721
-0.4787,-372.49348525446413
-0.4797000000000001,-373.34231203438316
-0.4807,-374.3326099442887
-0.48170000000000013,-375.0399655942212
-0.4827,-375.8887923741402
-0.48370000000000013,-376.59614802407276
-0.4847,-377.4449748039917
-0.48570000000000013,-378.2938015839108
-0.4867,-377.86938819395135
-0.48570000000000013,-375.0399655942212
-0.4847,-372.35201412447765
-0.48370000000000013,-369.8055337847206
-0.4827,-367.40052457495005
-0.48170000000000013,-364.854044235193
-0.4807,-362.3075638954359
-0.4797000000000001,-359.7610835556788
-0.4787,-357.07313208593524
-0.4777000000000001,-354.2437094862052
-0.4767,-351.4142868864751
-0.4757000000000001,-348.44339315675853
-0.4747,-345.6139705570285
-0.4737000000000001,-342.7845479572984
-0.4727,-340.0965964875548
-0.4717000000000001,-337.40864501781124
-0.4707,-335.1451069380272
-0.4697000000000001,-332.8815688582431
-0.4687,-330.7595019084456
-0.4677000000000001,-328.7789060886345
-0.4667,-326.51536800885043
-0.4657000000000001,-324.3933010590529
-0.4647,-322.12976297926883
