Potential V vs RHE, Current mA cm-2
0.013299999999999867,13.980177065266293
0.012299999999999978,12.971487908462521
0.011299999999999866,12.107099304244983
0.010299999999999976,11.354472892716785
0.009299999999999864,10.79424721797023
0.008299999999999974,10.351442581112472
0.007299999999999862,9.883173140857146
0.006299999999999972,9.318703332210998
0.00529999999999986,8.656618443874159
0.0042999999999999705,8.027071915434218
0.0032999999999998586,7.577193722077136
0.0022999999999999687,7.229174742310337
0.0012999999999998568,6.810420197550286
0.00029999999999996696,6.303953552198603
-0.000700000000000145,5.820122287644761
-0.0017000000000000348,5.477762153077422
-0.0027000000000001467,5.2188699852021205
-0.0037000000000000366,4.901974654032353
-0.0047000000000001485,4.99958973372304
-0.005700000000000038,4.752015256246658
-0.00670000000000015,4.317698887188092
-0.00770000000000004,3.927238568425342
-0.008700000000000152,3.447651437771094
-0.009700000000000042,2.9440142150191413
-0.010700000000000154,2.5776039883540967
-0.011700000000000044,2.3243706656782552
-0.012700000000000156,2.177240690492291
-0.013700000000000045,2.0329401379060577
-0.014700000000000157,1.696238848538179
-0.015700000000000047,1.3021002803957797
-0.01670000000000016,1.0323148355115173
-0.01770000000000005,0.8492511933089816
-0.01870000000000016,0.673544049865744
-0.01970000000000005,0.3279300793087155
-0.020700000000000163,0.027940548172334476
-0.021700000000000053,-0.13899538521173985
-0.022700000000000164,-0.2397935653271237
-0.023700000000000054,-0.406163614191252
-0.024700000000000166,-0.7253224834408043
-0.025700000000000056,-0.9823755266262814
-0.026700000000000168,-1.0696632138279543
-0.027700000000000058,-1.0964012573954034
-0.02870000000000017,-1.2715425163186949
-0.02970000000000006,-1.584476655848841
-0.03070000000000017,-1.8730777610213083
-0.03170000000000006,-1.9749369746115912
-0.03270000000000017,-2.0414284057052483
-0.03370000000000006,-2.184314246991617
-0.034700000000000175,-2.4446211261667834
-0.035700000000000065,-2.6653160889457292
-0.03670000000000018,-2.775663570335202
-0.03770000000000007,-2.798298951133043
-0.03870000000000018,-2.925622968120896
-0.03970000000000007,-3.160465043898492
-0.04070000000000018,-3.3698423162785174
-0.04170000000000007,-3.4646279733694745
-0.04270000000000018,-3.492922199366775
-0.04370000000000007,-3.6131726598553033
-0.044700000000000184,-3.815476375736004
-0.045700000000000074,-4.029097782015624
-0.046700000000000186,-4.105492192208336
-0.047700000000000076,-4.118224593907121
-0.04870000000000019,-4.222913230097134
-0.04970000000000008,-4.4393640589764845
-0.05070000000000019,-4.623276527958939
-0.05170000000000008,-4.695426804252056
-0.05270000000000019,-4.695426804252056
-0.05370000000000008,-4.778894770944094
-0.05470000000000019,-5.00807800152223
-0.05570000000000008,-5.208967006103065
-0.056700000000000195,-5.266970169397532
-0.057700000000000085,-5.255652478998611
-0.058700000000000196,-5.336291023090919
-0.059700000000000086,-5.548497718070673
-0.0607000000000002,-5.7309954757532635
-0.06170000000000009,-5.784754505148135
-0.0627000000000002,-5.807389885945976
-0.06370000000000009,-5.897931409137338
-0.0647000000000002,-6.073355610320603
-0.06570000000000009,-6.247365100204002
-0.0667000000000002,-6.31951537649712
-0.0677000000000001,-6.302538840898738
-0.0687000000000002,-6.35912729289334
-0.0697000000000001,-6.54728389577539
-0.07070000000000021,-6.735440498657439
-0.0717000000000001,-6.779296548953256
-0.07270000000000021,-6.765149435954606
-0.0737000000000001,-6.857105670445833
-0.07470000000000021,-7.042432850728153
-0.0757000000000001,-7.222101185811012
-0.07670000000000021,-7.250395411808314
-0.0777000000000001,-7.280104349105479
-0.07870000000000021,-7.352254625398595
-0.0797000000000001,-7.543240650880375
-0.08070000000000022,-7.715835429463911
-0.0817000000000001,-7.795059262256351
-0.08270000000000022,-7.796473973556218
-0.08370000000000011,-7.820524065653922
-0.08470000000000022,-8.022827781534623
-0.08570000000000011,-8.191178426218563
-0.08670000000000022,-8.242108033013702
-0.08770000000000011,-8.222302074815595
-0.08870000000000022,-8.311428886707091
-0.08970000000000011,-8.51373260258779
-0.09070000000000022,-8.720280452368087
-0.09170000000000011,-8.764136502663902
-0.09270000000000023,-8.711792184568896
-0.09370000000000012,-8.788186594761608
-0.09470000000000023,-9.024443381839069
-0.09570000000000012,-9.192794026523009
-0.09670000000000023,-9.243723633318151
-0.09770000000000012,-9.23806478811869
-0.09870000000000023,-9.447442060498714
-0.09970000000000012,-9.63701337468063
-0.10070000000000023,-9.748775567369968
-0.10170000000000012,-9.765752102968348
-0.10270000000000024,-9.829414111462276
-0.10370000000000013,-9.876099584357823
-0.10470000000000024,-9.986447065747294
-0.10570000000000013,-10.123674061834203
-0.10670000000000024,-10.191580204227723
-0.10770000000000013,-10.19865376072705
-0.10870000000000024,-10.255242212721651
-0.10970000000000013,-10.481596020700055
-0.11070000000000024,-10.669752623582108
-0.11170000000000013,-10.750391167674413
-0.11270000000000002,-10.702290983479003
-0.11370000000000013,-10.846591536065237
-0.11470000000000002,-11.091336590941888
-0.11570000000000014,-11.249784256526773
-0.11670000000000003,-11.231393009628526
-0.11770000000000014,-11.245540122627176
-0.11870000000000003,-11.343155202317865
-0.11970000000000014,-11.55536189729762
-0.12070000000000003,-11.692588893384528
-0.12170000000000014,-11.737859654980209
-0.12270000000000003,-11.710980140282773
-0.12370000000000014,-11.776056860076565
-0.12470000000000003,-11.979775287257132
-0.12570000000000014,-12.15944362233999
-0.12670000000000003,-12.269791103729462
-0.12770000000000015,-12.288182350627707
-0.12870000000000004,-12.390041564217992
-0.12970000000000015,-12.634786619094642
-0.13070000000000004,-12.844163891474668
-0.13170000000000015,-12.869628694872238
-0.13270000000000004,-12.964414351963198
-0.13370000000000015,-13.10022663675024
-0.13470000000000004,-13.31950688822932
-0.13570000000000015,-13.49917522331218
-0.13670000000000004,-13.575569633504891
-0.13770000000000016,-13.62508452900017
-0.13870000000000005,-13.734017299089775
-0.13970000000000016,-13.885391408175334
-0.14070000000000005,-14.127307040452258
-0.14170000000000016,-14.140039442151041
-0.14270000000000005,-14.161260111649016
-0.14370000000000016,-14.26028990263957
-0.14470000000000005,-14.557379275611227
-0.14570000000000016,-14.741291744593681
-0.14670000000000005,-15.222293586547794
-0.14770000000000016,-15.491088733522153
-0.14870000000000005,-15.43450028152755
-0.14970000000000017,-15.462794507524851
-0.15070000000000006,-15.74573676749786
-0.15170000000000017,-15.858913671487063
-0.15270000000000006,-15.901355010483012
-0.15370000000000017,-15.844766558488407
-0.15470000000000006,-16.02867902747086
-0.15570000000000017,-16.354062626439823
-0.15670000000000006,-16.59456354741688
-0.15770000000000017,-16.55212220842093
-0.15870000000000006,-16.60871066041553
-0.15970000000000018,-16.877505807389888
-0.16070000000000007,-17.118006728366943
-0.16170000000000018,-17.2736249713521
-0.16270000000000007,-17.40094898833995
-0.16370000000000018,-17.627302796318357
-0.16470000000000007,-17.853656604296763
-0.16570000000000018,-18.10830463827247
-0.16670000000000007,-18.221481542261674
-0.16770000000000018,-18.27806999425627
-0.16870000000000007,-18.419541124242777
-0.16970000000000018,-18.744924723211735
-0.17070000000000007,-19.042014096183394
-0.17170000000000019,-19.25422079116315
-0.17270000000000008,-19.353250582153702
-0.1737000000000002,-19.678634181122664
-0.17470000000000008,-20.03231200608892
-0.1757000000000002,-20.34354849205923
-0.17670000000000008,-20.400136944053827
-0.1777000000000002,-20.456725396048434
-0.17870000000000008,-20.73966765602144
-0.1797000000000002,-21.036757028993097
-0.18070000000000008,-21.2348166109742
-0.1817000000000002,-21.404581966958006
-0.18270000000000008,-21.54605309694451
-0.1837000000000002,-21.71581845292831
-0.1847000000000001,-22.069496277894572
-0.1857000000000002,-22.39487987686353
-0.1867000000000001,-22.63538079784059
-0.1877000000000002,-22.748557701829792
-0.1887000000000001,-22.946617283810895
-0.1897000000000002,-23.314442221775803
-0.1907000000000001,-23.682267159740714
-0.1917000000000001,-23.908620967719123
-0.19269999999999998,-24.17741611469348
-0.1937000000000001,-24.389622809673234
-0.19469999999999998,-24.71500640864219
-0.1957000000000001,-25.111125572604404
-0.19669999999999999,-25.39406783257741
-0.1977000000000001,-25.592127414558515
-0.1987,-25.832628335535567
-0.1997000000000001,-26.28533595149238
-0.2007,-26.766337793446493
-0.2017000000000001,-26.921956036431645
-0.2027,-26.992691601424898
-0.2037000000000001,-27.31807520039386
-0.2047,-27.64345879936282
-0.2057000000000001,-27.98298951133043
-0.2067,-28.364961562293985
-0.2077000000000001,-28.619609596269694
-0.2087,-28.8459634042481
-0.2097000000000001,-29.242082568210304
-0.2107,-29.694790184167122
-0.2117000000000001,-29.991879557138777
-0.2127,-30.06261512213203
-0.2137000000000001,-30.43044006009694
-0.2147,-30.953883241047
-0.2157000000000001,-31.30756106601326
-0.2167,-31.56220909998897
-0.21770000000000012,-31.85929847296063
-0.2187,-32.22712341092554
-0.21970000000000012,-32.73641947887695
-0.2207,-33.21742132083106
-0.22170000000000012,-33.47206935480677
-0.2227,-33.783305840777075
-0.22370000000000012,-34.179425004739294
-0.2247,-34.75945663768395
-0.22570000000000012,-35.45266517461782
-0.2267,-35.87707856457733
-0.22770000000000012,-35.89122567757598
-0.22870000000000001,-36.244903502542236
-0.22970000000000013,-36.8532293614842
-0.23070000000000002,-37.334231203438314
-0.23170000000000013,-37.57473212441538
-0.23270000000000002,-37.90011572338433
-0.23370000000000013,-38.5650300343209
-0.23470000000000002,-39.00359053727906
-0.23570000000000013,-39.116767441268266
-0.23670000000000002,-39.62606350921968
-0.2376999999999999,-40.02218267318189
-0.23870000000000002,-40.30512493315489
-0.2396999999999999,-40.84271522710361
-0.24070000000000003,-41.47933531204288
-0.24169999999999991,-41.80471891101183
-0.24270000000000003,-42.05936694498754
-0.24369999999999992,-42.3564563179592
-0.24470000000000003,-42.87989949890926
-0.24569999999999992,-43.50237247084988
-0.24670000000000003,-43.95508008680669
-0.24769999999999992,-44.223875233781044
-0.24870000000000003,-44.78975975372706
-0.24969999999999992,-45.38393849967037
-0.25070000000000003,-45.76591055063393
-0.2516999999999999,-46.034705697608295
-0.25270000000000004,-46.4874133135651
-0.2536999999999999,-47.02500360751382
-0.25470000000000004,-47.56259390146253
-0.2556999999999999,-48.071889969413945
-0.25670000000000004,-48.68021582835591
-0.25769999999999993,-49.21780612230463
-0.25870000000000004,-49.24610034830193
-0.25969999999999993,-49.8261319812466
-0.26070000000000004,-50.448604953187214
-0.26169999999999993,-50.77398855215617
-0.26270000000000004,-51.410608637095436
-0.26369999999999993,-51.80672780105764
-0.26470000000000005,-52.25943541701445
-0.26569999999999994,-52.75458437196722
-0.26670000000000005,-53.03752663194023
-0.26769999999999994,-53.39120445690648
-0.26870000000000005,-53.77317650787004
-0.26969999999999994,-54.38150236681201
-0.27070000000000005,-54.84835709576747
-0.27169999999999994,-55.10300512974318
-0.27270000000000005,-55.64059542369189
-0.27369999999999994,-56.05086170065276
-0.27470000000000006,-56.29136262162981
-0.27569999999999995,-56.77236446358392
-0.27670000000000006,-57.21092496654208
-0.27769999999999995,-57.394837435524536
-0.27870000000000006,-57.76266237348945
-0.27969999999999995,-58.21536998944626
-0.28070000000000006,-58.72466605739767
-0.28169999999999995,-59.14907944735718
-0.28270000000000006,-59.20566789935179
-0.28369999999999995,-59.81399375829375
-0.28470000000000006,-59.9696120012789
-0.28569999999999995,-60.32328982624517
-0.28670000000000007,-60.95990991118443
-0.28769999999999996,-61.15796949316553
-0.28870000000000007,-61.35602907514664
-0.28969999999999996,-61.62482422212099
-0.29070000000000007,-61.87947225609671
-0.29169999999999996,-61.89361936909536
-0.29270000000000007,-62.02094338608321
-0.29369999999999996,-62.24729719406162
-0.2947000000000001,-62.61512213202652
-0.29569999999999996,-62.86977016600223
-0.2967000000000001,-62.75659326201302
-0.29769999999999996,-62.799034601008984
-0.2987000000000001,-62.99709418299008
-0.29969999999999997,-62.89806439199953
-0.3007000000000001,-62.60097501902788
-0.30169999999999997,-62.34632698505217
-0.3027000000000001,-62.21900296806431
-0.30369999999999997,-62.544386567033264
-0.3047000000000001,-62.64341635802381
-0.30569999999999997,-62.81318171400764
-0.3067000000000001,-62.34632698505217
-0.3077,-61.20041083216149
-0.3087000000000001,-60.32328982624517
-0.3097,-59.99790622727621
-0.3107000000000001,-59.828140871292405
-0.3117,-59.417874594331536
-0.3127000000000001,-58.86613718738417
-0.3137,-58.017310407465146
-0.3147000000000001,-56.942129819567725
-0.3157,-55.838655005673
-0.3167000000000001,-55.088858016744524
-0.3177,-54.1551485588336
-0.3187000000000001,-53.29217466591593
-0.3197,-52.980938179945625
-0.3207000000000001,-52.2735825300131
-0.3217,-50.47689917918451
-0.3227000000000001,-48.69436294135456
-0.3237,-47.33624009348412
-0.3247000000000001,-46.133735488598845
-0.3257,-45.00196644870681
-0.3267000000000001,-43.77116761782423
-0.3277,-42.3847505439565
-0.3287000000000001,-41.12565748707661
-0.3297,-39.93729999518999
-0.3307000000000001,-38.89041363328986
-0.3317,-37.716203254401876
-0.3327000000000001,-37.107877395459916
-0.3337,-38.6216184863155
-0.3347000000000001,-38.02743974037218
-0.3357,-36.69761111849905
-0.3367000000000001,-35.311194044631314
-0.3377,-33.51451069380272
-0.3387000000000001,-31.95832826395118
-0.3397,-31.250972614018657
-0.3407000000000001,-30.571911190083444
-0.3417,-29.991879557138777
-0.3427000000000001,-29.609907506175215
-0.3437,-29.39770081119546
-0.3447000000000001,-28.88840474324405
-0.3457,-28.435697127287238
-0.3467000000000001,-28.02543085032638
-0.3477,-28.09616641531963
-0.3487000000000001,-27.799077042347974
-0.3497,-27.473693443379013
-0.3507000000000001,-27.37466365238846
-0.3517,-27.14830984441005
-0.3527000000000001,-27.035132940420848
-0.3537,-27.06342716641815
-0.3547000000000001,-27.303928087395207
-0.3557,-27.459546330380363
-0.35670000000000013,-27.530281895373616
-0.3577,-27.572723234369565
-0.35870000000000013,-27.65760591236147
-0.3597,-27.869812607341224
-0.36070000000000013,-28.19519620631018
-0.3617,-28.478138466283188
-0.3626999999999999,-28.506432692280487
-0.3637,-28.732786500258893
-0.3646999999999999,-29.058170099227848
-0.3657,-29.35525947219951
-0.3666999999999999,-29.63820173217252
-0.3677,-29.73723152316307
-0.3686999999999999,-29.991879557138777
-0.36970000000000003,-30.55776407708479
-0.3706999999999999,-31.109501484032155
-0.37170000000000003,-31.76026868197007
-0.3726999999999999,-32.87789060886345
-0.37370000000000003,-33.59939337179462
-0.3746999999999999,-35.339488270628614
-0.37570000000000003,-35.82049011258273
-0.3766999999999999,-36.07513814655844
-0.37770000000000004,-36.13172659855304
-0.3786999999999999,-36.30149195453684
-0.37970000000000004,-36.81078802248826
-0.3806999999999999,-37.305936977441014
-0.38170000000000004,-37.744497480399176
-0.38269999999999993,-38.09817530536544
-0.38370000000000004,-38.55088292132225
-0.38469999999999993,-39.145061667265566
-0.38570000000000004,-39.72509330021023
-0.38669999999999993,-40.24853648116029
-0.38770000000000004,-40.602214306126555
-0.38869999999999993,-41.15395171307392
-0.38970000000000005,-41.79057179801318
-0.39069999999999994,-42.4696332219484
-0.39170000000000005,-42.93648795090387
-0.39269999999999994,-43.44578401885527
-0.39370000000000005,-43.98337431280399
-0.39469999999999994,-44.66243573673921
-0.39570000000000005,-45.35564427367308
-0.39669999999999994,-45.97811724561369
-0.39770000000000005,-46.544001765559706
-0.39869999999999994,-47.19476896349763
-0.39970000000000006,-47.84553616143554
-0.40069999999999995,-48.63777448935996
-0.40170000000000006,-49.24610034830193
-0.40269999999999995,-49.74124930325469
-0.40370000000000006,-50.42031072718991
-0.40469999999999995,-51.127666377122424
-0.40570000000000006,-51.90575759204819
-0.40669999999999995,-52.61311324198071
-0.40770000000000006,-53.12240930993213
-0.40869999999999995,-53.82976495986464
-0.40970000000000006,-54.72103307877962
-0.41069999999999995,-55.541565632701335
-0.41170000000000007,-56.333803960625765
-0.41269999999999996,-56.871394254574476
-0.41370000000000007,-57.493867226515086
-0.41469999999999996,-58.32854689343546
-0.41570000000000007,-59.14907944735718
-0.41669999999999996,-59.7998466452951
-0.41770000000000007,-60.56379074722222
-0.41869999999999996,-61.228705058158795
-0.4197000000000001,-62.233150081062966
-0.42069999999999996,-63.15271242597524
-0.4217000000000001,-63.944950753899654
-0.42269999999999996,-64.53912949984297
-0.4237000000000001,-65.20404381077954
-0.42469999999999997,-66.03872347769992
-0.4257000000000001,-66.88755025761894
-0.42669999999999997,-67.79296548953256
-0.4277000000000001,-68.55690959145967
-0.42869999999999997,-69.36329503238275
-0.4297000000000001,-70.08479779531392
-0.43069999999999997,-71.1458312702127
-0.4317000000000001,-71.93806959813712
-0.4327,-72.65957236106827
-0.4337000000000001,-73.59328181897921
-0.4347,-74.32893169490903
-0.4357000000000001,-75.20605270082535
-0.4367,-76.16805638473357
-0.4377000000000001,-76.84711780866878
-0.4387,-77.51203211960537
-0.4397000000000001,-78.55891848150549
-0.4407,-79.60580484340561
-0.4417000000000001,-80.49707296232059
-0.4427,-81.45907664622881
-0.4437000000000001,-82.36449187814243
-0.4447,-83.18502443206415
-0.4457000000000001,-84.18946945496833
-0.4467,-84.9109722178995
-0.4477000000000001,-85.80224033681448
-0.4487,-86.6227728907362
-0.4497000000000001,-87.59892368764307
-0.4507,-88.7872811795297
-0.4517000000000001,-89.43804837746762
-0.4527,-90.08881557540555
-0.4537000000000001,-90.8669067903313
-0.4547,-91.99867583022333
-0.4557000000000001,-92.98897374012887
-0.4567,-94.02171298903033
-0.4577000000000001,-94.99786378593721
-0.4587,-95.76180788786432
-0.4597000000000001,-97.02090094474423
-0.4607,-97.94046328965649
-0.4617000000000001,-98.63367182659036
-0.4627,-99.55323417150264
-0.4637000000000001,-100.07667735245269
-0.4647,-100.88306279337576
-0.4657000000000001,-102.2977740932408
-0.4667,-103.06171819516793
-0.4677000000000001,-103.74077961910314
-0.4687,-104.83010731999921
-0.4697000000000001,-105.70722832591555
-0.4707,-106.73996757481702
-0.4717000000000001,-107.631235693732
-0.4727,-108.43762113465506
-0.4737000000000001,-109.25815368857677
-0.4747,-110.16356892049039
-0.4757000000000001,-111.3094850733811
-0.4767,-112.31393009628526
-0.4777000000000001,-113.13446265020698
-0.4787,-113.99743654312465
-0.4797000000000001,-114.83211621004502
-0.4807,-115.8931496849438
-0.48170000000000013,-116.72782935186417
-0.4827,-117.91618684375081
-0.48370000000000013,-118.84989630166173
-0.4847,-120.26460760152676
-0.48570000000000013,-121.24075839843364
-0.4867,-120.54754986149979
-0.48570000000000013,-118.96307320565093
-0.4847,-117.3785965498021
-0.48370000000000013,-116.13365060592085
-0.4827,-114.94529311403423
-0.48170000000000013,-113.94084809113006
-0.4807,-112.97884440722183
-0.4797000000000001,-111.46510331636625
-0.4787,-110.17771603348905
-0.4777000000000001,-108.77715184662266
-0.4767,-107.44732322474954
-0.4757000000000001,-106.32970129785616
-0.4747,-105.35355050094927
-0.4737000000000001,-104.25007568705455
-0.4727,-103.18904221215577
-0.4717000000000001,-101.88750781627995
-0.4707,-100.75573877638791
-0.4697000000000001,-99.55323417150264
-0.4687,-98.5063478096025
-0.4677000000000001,-97.50190278669832
-0.4667,-96.55404621578876
-0.4657000000000001,-95.22421759391563
-0.4647,-94.19147834501413
-0.4637000000000001,-93.15873909611267
-0.4627,-92.09770562121389
