Potential V vs RHE, Current mA cm-2
0.05339999999999995,-0.07439966725990228
0.05239999999999995,-0.07708761872964585
0.051399999999999946,-0.07809206375255001
0.050399999999999945,-0.07881356651548119
0.049399999999999944,-0.0794643337134191
0.04839999999999994,-0.08007265957236107
0.04739999999999994,-0.08066683831830439
0.04639999999999994,-0.0812044286122531
0.04539999999999994,-0.08172787179320316
0.04439999999999994,-0.08223716786115459
0.04339999999999994,-0.08273231681610735
0.04239999999999994,-0.08321331865806145
0.04139999999999994,-0.08360943782202368
0.040399999999999936,-0.08403385121198319
0.039399999999999935,-0.08447241171494134
0.038399999999999934,-0.0849392664438968
0.03739999999999993,-0.08536367983385632
0.03639999999999993,-0.08574565188481988
0.03539999999999993,-0.08609932970978613
0.03439999999999993,-0.0864813017607497
0.03339999999999993,-0.08686327381171326
0.03239999999999993,-0.08721695163667952
0.03139999999999993,-0.08755648234864712
0.030399999999999927,-0.08783942460862013
0.029399999999999926,-0.08817895532058774
0.028399999999999925,-0.088532633145554
0.027399999999999924,-0.088815575405527
0.026399999999999924,-0.08914095900449596
0.025399999999999923,-0.08945219549046628
0.024399999999999922,-0.08970684352444197
0.02339999999999992,-0.09003222712341094
0.02239999999999992,-0.09031516938338394
0.02139999999999992,-0.09056981741735964
0.020399999999999918,-0.09086690679033131
0.019399999999999917,-0.09109326059830972
0.018399999999999916,-0.09136205574528407
0.017399999999999916,-0.09160255666626112
0.016399999999999915,-0.09181476336124088
0.015399999999999914,-0.09205526428221794
0.014399999999999913,-0.09225332386419903
0.013399999999999912,-0.0924938247851761
0.012399999999999911,-0.09272017859315451
0.01139999999999991,-0.09288994394913831
0.01039999999999991,-0.0930880035311194
0.009399999999999908,-0.09327191600010187
0.008399999999999908,-0.09345582846908432
0.007399999999999907,-0.09365388805106543
0.006399999999999906,-0.09379535918105193
0.005399999999999905,-0.09395097742403709
0.004399999999999904,-0.09410659566702224
0.003399999999999903,-0.0942622139100074
0.002399999999999902,-0.09441783215299256
0.0013999999999999013,-0.0945451561699804
0.00039999999999990044,-0.0946583330739696
-0.0006000000000001005,-0.09479980420395612
-0.0016000000000001013,-0.09489883399494665
-0.0026000000000001022,-0.09502615801193452
-0.003600000000000103,-0.09512518780292507
-0.004600000000000104,-0.09521007048091697
-0.005600000000000105,-0.09532324738490616
-0.006600000000000106,-0.09540813006289808
-0.007600000000000107,-0.09550715985388863
-0.008600000000000108,-0.09557789541888188
-0.009600000000000108,-0.09563448387087647
-0.01060000000000011,-0.09570521943586972
-0.01160000000000011,-0.09581839633985893
-0.012600000000000111,-0.09591742613084948
-0.013600000000000112,-0.09593157324384814
-0.014600000000000113,-0.09598816169584275
-0.015600000000000114,-0.09600230880884139
-0.016600000000000115,-0.0960871914868333
-0.017600000000000116,-0.09612963282582924
-0.018600000000000116,-0.09614377993882789
-0.019600000000000117,-0.0962003683908225
-0.020600000000000118,-0.09617207416482519
-0.02160000000000012,-0.0962286626168198
-0.02260000000000012,-0.09624280972981844
-0.02360000000000012,-0.09624280972981844
-0.024600000000000122,-0.0962569568428171
-0.025600000000000123,-0.0962569568428171
-0.026600000000000124,-0.09627110395581574
-0.027600000000000124,-0.0962852510688144
-0.028600000000000125,-0.0962569568428171
-0.029600000000000126,-0.0962569568428171
-0.030600000000000127,-0.09624280972981844
-0.03160000000000013,-0.09624280972981844
-0.03260000000000013,-0.0962286626168198
-0.03360000000000013,-0.09618622127782384
-0.03460000000000002,-0.09615792705182655
-0.03560000000000002,-0.09612963282582924
-0.03660000000000002,-0.09611548571283059
-0.03760000000000002,-0.09610133859983194
-0.03860000000000002,-0.09604475014783734
-0.039600000000000024,-0.09597401458284409
-0.040600000000000025,-0.09595986746984543
-0.041600000000000026,-0.09591742613084948
-0.04260000000000003,-0.09590327901785084
-0.04360000000000003,-0.09584669056585624
-0.04460000000000003,-0.09577595500086299
-0.04560000000000003,-0.09573351366186703
-0.04660000000000003,-0.09569107232287108
-0.04760000000000003,-0.09564863098387513
-0.04860000000000003,-0.09557789541888188
-0.04960000000000003,-0.09549301274088996
-0.050600000000000034,-0.09542227717589671
-0.051600000000000035,-0.09540813006289808
-0.052600000000000036,-0.09533739449790483
-0.053600000000000037,-0.09525251181991291
-0.05460000000000004,-0.09515348202892236
-0.05560000000000004,-0.09509689357692777
-0.05660000000000004,-0.09504030512493315
-0.05760000000000004,-0.09498371667293856
-0.05860000000000004,-0.09489883399494665
-0.05960000000000004,-0.09481395131695476
-0.06060000000000004,-0.09472906863896285
-0.061600000000000044,-0.09470077441296555
-0.06260000000000004,-0.0946300388479723
-0.06360000000000005,-0.09453100905698175
-0.06460000000000005,-0.0944602734919885
-0.06560000000000005,-0.0943470965879993
-0.06660000000000005,-0.09429050813600469
-0.06760000000000005,-0.09423391968401008
-0.06860000000000005,-0.09412074278002087
-0.06960000000000005,-0.09405000721502763
-0.07060000000000005,-0.09396512453703573
-0.07160000000000005,-0.09386609474604518
-0.07260000000000005,-0.09382365340704923
-0.07360000000000005,-0.09371047650306003
-0.07460000000000006,-0.09363974093806678
-0.07560000000000006,-0.09354071114707624
-0.07660000000000006,-0.09345582846908432
-0.07760000000000006,-0.09339924001708971
-0.07860000000000006,-0.09330021022609918
-0.07960000000000006,-0.09320118043510862
-0.08060000000000006,-0.09311629775711672
-0.08160000000000006,-0.09303141507912481
-0.08260000000000006,-0.09296067951413156
-0.08360000000000006,-0.09286164972314101
-0.08460000000000006,-0.0927484728191518
-0.08560000000000006,-0.09267773725415854
-0.08660000000000007,-0.09262114880216396
-0.08760000000000007,-0.0925221190111734
-0.08860000000000007,-0.0924372363331815
-0.08960000000000007,-0.09233820654219095
-0.09060000000000007,-0.0922391767512004
-0.09160000000000007,-0.09218258829920578
-0.09260000000000007,-0.09208355850821524
-0.09360000000000007,-0.092012822943222
-0.09460000000000007,-0.09189964603923279
-0.09560000000000007,-0.09182891047423952
-0.09660000000000007,-0.09175817490924627
-0.09760000000000008,-0.09170158645725168
-0.09860000000000008,-0.09157426244026382
-0.09960000000000008,-0.09151767398826924
-0.10060000000000008,-0.09140449708428001
-0.10160000000000008,-0.09136205574528407
-0.10260000000000008,-0.09127717306729217
-0.10360000000000008,-0.09119229038930025
-0.10460000000000008,-0.09110740771130836
-0.10560000000000008,-0.09099423080731917
-0.10660000000000008,-0.0909517894683232
-0.10760000000000008,-0.09086690679033131
-0.10860000000000009,-0.09076787699934075
-0.10960000000000009,-0.09071128854734616
-0.11060000000000009,-0.09062640586935425
-0.11160000000000009,-0.09056981741735964
-0.11260000000000009,-0.09052737607836371
-0.11360000000000009,-0.0904141991743745
-0.11460000000000009,-0.09037175783537854
-0.11560000000000009,-0.09027272804438799
-0.11660000000000009,-0.09020199247939473
-0.1176000000000001,-0.09014540402740015
-0.1186000000000001,-0.09006052134940823
-0.1196000000000001,-0.08996149155841768
-0.1206000000000001,-0.08991905021942173
-0.1216000000000001,-0.08986246176742714
-0.1226000000000001,-0.08979172620243389
-0.1236000000000001,-0.08972099063744063
-0.1246000000000001,-0.08963610795944872
-0.1256000000000001,-0.08957951950745412
-0.1266000000000001,-0.08953707816845817
-0.1276000000000001,-0.08948048971646357
-0.1286000000000001,-0.08940975415147032
-0.1296000000000001,-0.08932487147347841
-0.1306000000000001,-0.08926828302148382
-0.1316000000000001,-0.08921169456948921
-0.1326000000000001,-0.08916925323049325
-0.1336000000000001,-0.0890985176655
-0.1346000000000001,-0.08902778210050676
-0.1356000000000001,-0.08897119364851215
-0.1366000000000001,-0.08891460519651756
-0.1376000000000001,-0.08885801674452294
-0.1386000000000001,-0.08878728117952969
-0.1396000000000001,-0.08874483984053375
-0.1406000000000001,-0.08868825138853914
-0.14160000000000011,-0.08865995716254185
-0.14260000000000012,-0.0886458100495432
-0.14360000000000012,-0.08854678025855263
-0.14460000000000012,-0.0885043389195567
-0.14560000000000012,-0.08843360335456343
-0.14660000000000012,-0.08840530912856613
-0.14760000000000012,-0.0883911620155675
-0.14860000000000012,-0.0883062793375756
-0.14960000000000012,-0.08827798511157829
-0.15060000000000012,-0.08822139665958369
-0.15160000000000012,-0.08819310243358638
-0.15260000000000012,-0.08820724954658503
-0.15360000000000013,-0.08815066109459044
-0.15460000000000013,-0.08807992552959719
-0.15560000000000013,-0.08805163130359987
-0.15660000000000013,-0.08803748419060124
-0.15760000000000013,-0.08800918996460394
-0.15860000000000013,-0.08796674862560798
-0.15960000000000002,-0.08792430728661203
-0.16060000000000002,-0.08791016017361337
-0.16160000000000002,-0.08788186594761609
-0.16260000000000002,-0.08786771883461743
-0.16360000000000002,-0.08785357172161878
-0.16460000000000002,-0.08776868904362688
-0.16560000000000002,-0.08783942460862013
-0.16660000000000003,-0.08783942460862013
-0.16760000000000003,-0.08776868904362688
-0.16860000000000003,-0.08775454193062822
-0.16960000000000003,-0.08769795347863363
-0.17060000000000003,-0.08766965925263633
-0.17160000000000003,-0.08768380636563497
-0.17260000000000003,-0.08768380636563497
-0.17360000000000003,-0.08765551213963767
-0.17460000000000003,-0.08762721791364038
-0.17560000000000003,-0.08759892368764308
-0.17660000000000003,-0.08762721791364038
-0.17760000000000004,-0.08759892368764308
-0.17860000000000004,-0.08759892368764308
-0.17960000000000004,-0.08759892368764308
-0.18060000000000004,-0.08754233523564847
-0.18160000000000004,-0.08757062946164577
-0.18260000000000004,-0.08758477657464442
-0.18360000000000004,-0.08755648234864712
-0.18460000000000004,-0.08755648234864712
-0.18560000000000004,-0.08752818812264983
-0.18660000000000004,-0.08755648234864712
-0.18760000000000004,-0.08758477657464442
-0.18860000000000005,-0.08754233523564847
-0.18960000000000005,-0.08757062946164577
-0.19060000000000005,-0.08754233523564847
-0.19160000000000005,-0.08757062946164577
-0.19260000000000005,-0.08761307080064172
-0.19360000000000005,-0.08758477657464442
-0.19460000000000005,-0.08758477657464442
-0.19560000000000005,-0.08761307080064172
-0.19660000000000005,-0.08761307080064172
-0.19760000000000005,-0.08765551213963767
-0.19860000000000005,-0.08764136502663902
-0.19960000000000006,-0.08762721791364038
-0.20060000000000006,-0.08765551213963767
-0.20160000000000006,-0.08768380636563497
-0.20260000000000006,-0.08772624770463092
-0.20360000000000006,-0.08774039481762959
-0.20460000000000006,-0.08774039481762959
-0.20560000000000006,-0.08775454193062822
-0.20660000000000006,-0.08781113038262284
-0.20760000000000006,-0.08785357172161878
-0.20860000000000006,-0.08786771883461743
-0.20960000000000006,-0.08786771883461743
-0.21060000000000006,-0.08788186594761609
-0.21160000000000007,-0.08795260151260934
-0.21260000000000007,-0.08798089573860662
-0.21360000000000007,-0.08800918996460394
-0.21460000000000007,-0.08802333707760258
-0.21560000000000007,-0.08805163130359987
-0.21660000000000007,-0.08815066109459044
-0.21760000000000007,-0.08820724954658503
-0.21860000000000007,-0.08820724954658503
-0.21960000000000007,-0.08824969088558099
-0.22060000000000007,-0.08824969088558099
-0.22160000000000007,-0.08834872067657155
-0.22260000000000008,-0.08840530912856613
-0.22360000000000008,-0.08843360335456343
-0.22460000000000008,-0.0885043389195567
-0.22560000000000008,-0.0885043389195567
-0.22660000000000008,-0.0885892215975486
-0.22760000000000008,-0.0886741042755405
-0.22860000000000008,-0.08868825138853914
-0.22960000000000008,-0.0887589869535324
-0.23060000000000008,-0.08880142829252836
-0.23160000000000008,-0.08887216385752161
-0.23260000000000008,-0.08897119364851215
-0.23360000000000009,-0.08899948787450947
-0.2346000000000001,-0.08905607632650406
-0.2356000000000001,-0.08914095900449596
-0.2366000000000001,-0.08921169456948921
-0.2376000000000001,-0.08929657724748112
-0.2386000000000001,-0.08935316569947571
-0.2396000000000001,-0.08939560703847166
-0.2406000000000001,-0.08949463682946222
-0.2416000000000001,-0.08959366662045277
-0.2426000000000001,-0.08967854929844467
-0.2436000000000001,-0.08976343197643659
-0.2446000000000001,-0.08980587331543252
-0.2456000000000001,-0.08990490310642309
-0.2466000000000001,-0.09000393289741364
-0.2476000000000001,-0.09006052134940823
-0.2486000000000001,-0.09017369825339744
-0.2496000000000001,-0.09024443381839069
-0.2506000000000001,-0.09031516938338394
-0.2516000000000001,-0.09044249340037179
-0.2526000000000001,-0.09052737607836371
-0.2536000000000001,-0.09061225875635559
-0.2546000000000001,-0.0906971414343475
-0.2556000000000001,-0.09079617122533806
-0.2566000000000001,-0.09093764235532456
-0.2576000000000001,-0.09102252503331647
-0.2586000000000001,-0.091121554824307
-0.2596000000000001,-0.09122058461529756
-0.2606000000000001,-0.09130546729328948
-0.2616000000000001,-0.09144693842327598
-0.2626000000000001,-0.09156011532726518
-0.2636000000000001,-0.09163085089225843
-0.2646000000000001,-0.09172988068324898
-0.2656000000000001,-0.09185720470023684
-0.2666000000000001,-0.09197038160422603
-0.2676000000000001,-0.09211185273421253
-0.2686000000000001,-0.09221088252520308
-0.2696000000000001,-0.09233820654219095
-0.2706000000000001,-0.0924372363331815
-0.2716000000000001,-0.09256456035016934
-0.2726000000000001,-0.09272017859315451
-0.2736000000000001,-0.09281920838414506
-0.2746000000000001,-0.0929465324011329
-0.2756000000000001,-0.0930880035311194
-0.2766000000000001,-0.09320118043510862
-0.2776000000000001,-0.09337094579109242
-0.2786000000000001,-0.09348412269508162
-0.2796000000000001,-0.09359729959907082
-0.2806000000000001,-0.09375291784205599
-0.28160000000000013,-0.09390853608504113
-0.28260000000000013,-0.09405000721502763
-0.28360000000000013,-0.09421977257101144
-0.2846,-0.09430465524900335
-0.2856,-0.0944602734919885
-0.2866,-0.0946300388479723
-0.2876,-0.09478565709095746
-0.2886,-0.09491298110794531
-0.2896,-0.09506859935093047
-0.2906,-0.09519592336791832
-0.2916,-0.09537983583690077
-0.2926,-0.09553545407988592
-0.2936,-0.09570521943586972
-0.29460000000000003,-0.0958608376788549
-0.29560000000000003,-0.09600230880884139
-0.29660000000000003,-0.09621451550382115
-0.29760000000000003,-0.09638428085980494
-0.29860000000000003,-0.09653989910279011
-0.29960000000000003,-0.09669551734577525
-0.30060000000000003,-0.09686528270175906
-0.30160000000000003,-0.09706334228374017
-0.30260000000000004,-0.09726140186572127
-0.30360000000000004,-0.09738872588270912
-0.30460000000000004,-0.09757263835169158
-0.30560000000000004,-0.09772825659467674
-0.30660000000000004,-0.09792631617665784
-0.30760000000000004,-0.09815266998463625
-0.30860000000000004,-0.09832243534062005
-0.30960000000000004,-0.0984780535836052
-0.31060000000000004,-0.09869026027858496
-0.31160000000000004,-0.09887417274756742
-0.31260000000000004,-0.09912882078154311
-0.31360000000000005,-0.09928443902452828
-0.31460000000000005,-0.09948249860650937
-0.31560000000000005,-0.09969470530148912
-0.31660000000000005,-0.09989276488347024
-0.31760000000000005,-0.10014741291744596
-0.31860000000000005,-0.1003313253864284
-0.31960000000000005,-0.10057182630740545
-0.32060000000000005,-0.10076988588938657
-0.32160000000000005,-0.10098209258436633
-0.32260000000000005,-0.10120844639234472
-0.32360000000000005,-0.10144894731332177
-0.32460000000000006,-0.10163285978230424
-0.32560000000000006,-0.10187336070328129
-0.32660000000000006,-0.10211386162425835
-0.32760000000000006,-0.10236850965823405
-0.32860000000000006,-0.10256656924021516
-0.32960000000000006,-0.10280707016119221
-0.33060000000000006,-0.10303342396917063
-0.33160000000000006,-0.10330221911614497
-0.33260000000000006,-0.10355686715012069
-0.33360000000000006,-0.1038115151840964
-0.33460000000000006,-0.1040661632180721
-0.33560000000000006,-0.10430666413904917
-0.33660000000000007,-0.10457545928602352
-0.33760000000000007,-0.10483010731999923
-0.33860000000000007,-0.10509890246697358
-0.33960000000000007,-0.10538184472694657
-0.34060000000000007,-0.1056364927609223
-0.34160000000000007,-0.1059477292468926
-0.34260000000000007,-0.10624481861986426
-0.34360000000000007,-0.10651361376683861
-0.3446000000000001,-0.10681070313981027
-0.3456000000000001,-0.10709364539978329
-0.3466000000000001,-0.10741902899875223
-0.34759999999999996,-0.10774441259772119
-0.3486000000000001,-0.10801320774469556
-0.34959999999999997,-0.10832444423066585
-0.3506000000000001,-0.10862153360363752
-0.35159999999999997,-0.10896106431560514
-0.3526000000000001,-0.10932888925357002
-0.35359999999999997,-0.10962597862654169
-0.3546000000000001,-0.10995136222551065
-0.35559999999999997,-0.11029089293747825
-0.3566000000000001,-0.11063042364944586
-0.3576,-0.11099824858741078
-0.3586000000000001,-0.1113660735253757
-0.3596,-0.11169145712434464
-0.3606000000000001,-0.1120734291753082
-0.3616,-0.11245540122627176
-0.3626000000000001,-0.11285152039023398
-0.3636,-0.11321934532819887
-0.3646000000000001,-0.11357302315316514
-0.3656,-0.11396914231712736
-0.3666000000000001,-0.11439355570708687
-0.3676,-0.11478967487104909
-0.3686000000000001,-0.11518579403501128
-0.3696,-0.11559606031197216
-0.3706000000000001,-0.11607706215392626
-0.3716,-0.11651562265688443
-0.3726000000000001,-0.11695418315984259
-0.3736,-0.11739274366280074
-0.3746000000000001,-0.11784545127875755
-0.3756,-0.11826986466871706
-0.3766000000000001,-0.11873671939767255
-0.3776,-0.11921772123962665
-0.3786000000000001,-0.11967042885558345
-0.3796,-0.12016557781053622
-0.3806000000000001,-0.12063243253949167
-0.3816,-0.12115587572044173
-0.3826000000000001,-0.1216510246753945
-0.3836,-0.12211787940434997
-0.3846000000000001,-0.1226271754723014
-0.3856,-0.12312232442725414
-0.3866000000000001,-0.12367406183420152
-0.3876,-0.12423994635414752
-0.3886000000000001,-0.12474924242209892
-0.3896,-0.12528683271604765
-0.3906000000000001,-0.12582442300999636
-0.3916,-0.12637616041694374
-0.3926000000000001,-0.12699863338888437
-0.3936,-0.12753622368283307
-0.3946000000000001,-0.12811625531577772
-0.3956,-0.12869628694872237
-0.3966000000000001,-0.129318759920663
-0.3976,-0.12994123289260362
-0.3986000000000001,-0.13054955875154559
-0.3996,-0.13115788461048755
-0.4006000000000001,-0.1318086518084255
-0.4016,-0.13241697766736746
-0.4026000000000001,-0.1330535977523067
-0.4036,-0.13370436495024463
-0.4046000000000001,-0.13434098503518388
-0.4056,-0.13500589934612045
-0.40660000000000013,-0.13569910788305434
-0.4076,-0.13637816930698954
-0.40860000000000013,-0.13702893650492745
-0.4096,-0.13772214504186134
-0.41060000000000013,-0.13842950069179386
-0.4116,-0.139151003454725
-0.41260000000000013,-0.13985835910465752
-0.4136,-0.1405515676415914
-0.41460000000000014,-0.14128721751752119
-0.4156,-0.1420370145064497
-0.41660000000000014,-0.1427443701563822
-0.4176,-0.1434517258063147
-0.41860000000000014,-0.14415908145624726
-0.41960000000000003,-0.14486643710617977
-0.42060000000000014,-0.14571526388609876
-0.42160000000000003,-0.14642261953603128
-0.42260000000000014,-0.14727144631595032
-0.42360000000000003,-0.14797880196588284
-0.42460000000000014,-0.14882762874580185
-0.42560000000000003,-0.14953498439573437
-0.42660000000000015,-0.1503838111756534
-0.42760000000000004,-0.1512326379555724
-0.42860000000000015,-0.15193999360550495
-0.42960000000000004,-0.15278882038542396
-0.43060000000000015,-0.15363764716534298
-0.43160000000000004,-0.15448647394526202
-0.43260000000000015,-0.155335300725181
-0.43360000000000004,-0.15604265637511353
-0.43460000000000015,-0.15689148315503257
-0.43560000000000004,-0.15774030993495158
-0.43660000000000015,-0.1585891367148706
