Aug. 6, 2024   22:31:39
Cyclic Voltammetry
File: c:/users/guazh/data/20240802_batch_500/2024-08-02-exp39\exp39-2024-08-06t22_19_50-h2koh\exp39_cv_sr_600mvs_efin_-1500mv.bin
Data Source:  Experiment
Instrument Model:  CHI760E
Header: CV ran at 600 mVs
Note: 

Init E (V) = -1
High E (V) = -1
Low E (V) = -1.5
Final E (V) = -1
Init P/N = N
Scan Rate (V/s) = 0.6
Segment = 3
Sample Interval (V) = 0.001
Quiet Time (sec) = 2
Sensitivity (A/V) = 0.01
Comp R (ohm) = 2.3

Results:

Channel 1:
Segment 1:

Segment 2:

Segment 3:

Potential/V, Current/A

-1.000, 2.790e-5
-1.001, 1.266e-4
-1.002, 1.913e-4
-1.003, 2.345e-4
-1.004, 2.591e-4
-1.005, 2.776e-4
-1.006, 2.869e-4
-1.007, 2.931e-4
-1.008, 2.961e-4
-1.009, 2.992e-4
-1.010, 3.054e-4
-1.011, 3.115e-4
-1.012, 3.208e-4
-1.013, 3.270e-4
-1.014, 3.331e-4
-1.015, 3.331e-4
-1.016, 3.300e-4
-1.017, 3.300e-4
-1.018, 3.239e-4
-1.019, 3.239e-4
-1.020, 3.270e-4
-1.021, 3.300e-4
-1.022, 3.362e-4
-1.023, 3.424e-4
-1.024, 3.455e-4
-1.025, 3.485e-4
-1.026, 3.424e-4
-1.027, 3.393e-4
-1.028, 3.362e-4
-1.029, 3.331e-4
-1.030, 3.362e-4
-1.031, 3.393e-4
-1.032, 3.455e-4
-1.033, 3.516e-4
-1.034, 3.547e-4
-1.035, 3.547e-4
-1.036, 3.516e-4
-1.037, 3.485e-4
-1.038, 3.424e-4
-1.039, 3.424e-4
-1.040, 3.424e-4
-1.041, 3.485e-4
-1.042, 3.547e-4
-1.043, 3.609e-4
-1.044, 3.609e-4
-1.045, 3.609e-4
-1.046, 3.578e-4
-1.047, 3.547e-4
-1.048, 3.485e-4
-1.049, 3.516e-4
-1.050, 3.516e-4
-1.051, 3.547e-4
-1.052, 3.609e-4
-1.053, 3.670e-4
-1.054, 3.670e-4
-1.055, 3.701e-4
-1.056, 3.640e-4
-1.057, 3.609e-4
-1.058, 3.547e-4
-1.059, 3.578e-4
-1.060, 3.578e-4
-1.061, 3.609e-4
-1.062, 3.670e-4
-1.063, 3.732e-4
-1.064, 3.732e-4
-1.065, 3.763e-4
-1.066, 3.701e-4
-1.067, 3.670e-4
-1.068, 3.609e-4
-1.069, 3.609e-4
-1.070, 3.609e-4
-1.071, 3.670e-4
-1.072, 3.732e-4
-1.073, 3.794e-4
-1.074, 3.794e-4
-1.075, 3.794e-4
-1.076, 3.763e-4
-1.077, 3.732e-4
-1.078, 3.670e-4
-1.079, 3.670e-4
-1.080, 3.670e-4
-1.081, 3.732e-4
-1.082, 3.794e-4
-1.083, 3.825e-4
-1.084, 3.855e-4
-1.085, 3.855e-4
-1.086, 3.825e-4
-1.087, 3.794e-4
-1.088, 3.732e-4
-1.089, 3.732e-4
-1.090, 3.732e-4
-1.091, 3.794e-4
-1.092, 3.855e-4
-1.093, 3.886e-4
-1.094, 3.917e-4
-1.095, 3.917e-4
-1.096, 3.886e-4
-1.097, 3.855e-4
-1.098, 3.794e-4
-1.099, 3.794e-4
-1.100, 3.794e-4
-1.101, 3.855e-4
-1.102, 3.886e-4
-1.103, 3.948e-4
-1.104, 3.948e-4
-1.105, 3.979e-4
-1.106, 3.917e-4
-1.107, 3.886e-4
-1.108, 3.855e-4
-1.109, 3.825e-4
-1.110, 3.855e-4
-1.111, 3.886e-4
-1.112, 3.948e-4
-1.113, 4.010e-4
-1.114, 4.010e-4
-1.115, 4.010e-4
-1.116, 3.979e-4
-1.117, 3.917e-4
-1.118, 3.886e-4
-1.119, 3.886e-4
-1.120, 3.886e-4
-1.121, 3.948e-4
-1.122, 3.979e-4
-1.123, 4.040e-4
-1.124, 4.040e-4
-1.125, 4.040e-4
-1.126, 4.010e-4
-1.127, 3.979e-4
-1.128, 3.917e-4
-1.129, 3.917e-4
-1.130, 3.917e-4
-1.131, 3.948e-4
-1.132, 4.010e-4
-1.133, 4.040e-4
-1.134, 4.071e-4
-1.135, 4.071e-4
-1.136, 4.010e-4
-1.137, 3.979e-4
-1.138, 3.948e-4
-1.139, 3.948e-4
-1.140, 3.948e-4
-1.141, 4.010e-4
-1.142, 4.040e-4
-1.143, 4.102e-4
-1.144, 4.102e-4
-1.145, 4.102e-4
-1.146, 4.071e-4
-1.147, 4.040e-4
-1.148, 3.979e-4
-1.149, 3.979e-4
-1.150, 3.979e-4
-1.151, 4.040e-4
-1.152, 4.071e-4
-1.153, 4.133e-4
-1.154, 4.133e-4
-1.155, 4.133e-4
-1.156, 4.102e-4
-1.157, 4.071e-4
-1.158, 4.010e-4
-1.159, 4.010e-4
-1.160, 4.010e-4
-1.161, 4.071e-4
-1.162, 4.102e-4
-1.163, 4.164e-4
-1.164, 4.164e-4
-1.165, 4.195e-4
-1.166, 4.133e-4
-1.167, 4.102e-4
-1.168, 4.040e-4
-1.169, 4.040e-4
-1.170, 4.040e-4
-1.171, 4.102e-4
-1.172, 4.133e-4
-1.173, 4.195e-4
-1.174, 4.195e-4
-1.175, 4.195e-4
-1.176, 4.164e-4
-1.177, 4.133e-4
-1.178, 4.102e-4
-1.179, 4.071e-4
-1.180, 4.102e-4
-1.181, 4.133e-4
-1.182, 4.164e-4
-1.183, 4.225e-4
-1.184, 4.256e-4
-1.185, 4.256e-4
-1.186, 4.225e-4
-1.187, 4.164e-4
-1.188, 4.133e-4
-1.189, 4.133e-4
-1.190, 4.133e-4
-1.191, 4.195e-4
-1.192, 4.225e-4
-1.193, 4.287e-4
-1.194, 4.318e-4
-1.195, 4.318e-4
-1.196, 4.287e-4
-1.197, 4.256e-4
-1.198, 4.195e-4
-1.199, 4.225e-4
-1.200, 4.225e-4
-1.201, 4.287e-4
-1.202, 4.318e-4
-1.203, 4.380e-4
-1.204, 4.410e-4
-1.205, 4.410e-4
-1.206, 4.380e-4
-1.207, 4.349e-4
-1.208, 4.318e-4
-1.209, 4.318e-4
-1.210, 4.318e-4
-1.211, 4.380e-4
-1.212, 4.410e-4
-1.213, 4.472e-4
-1.214, 4.503e-4
-1.215, 4.534e-4
-1.216, 4.503e-4
-1.217, 4.472e-4
-1.218, 4.441e-4
-1.219, 4.441e-4
-1.220, 4.441e-4
-1.221, 4.503e-4
-1.222, 4.565e-4
-1.223, 4.626e-4
-1.224, 4.657e-4
-1.225, 4.688e-4
-1.226, 4.657e-4
-1.227, 4.626e-4
-1.228, 4.595e-4
-1.229, 4.626e-4
-1.230, 4.626e-4
-1.231, 4.719e-4
-1.232, 4.750e-4
-1.233, 4.842e-4
-1.234, 4.873e-4
-1.235, 4.873e-4
-1.236, 4.873e-4
-1.237, 4.842e-4
-1.238, 4.811e-4
-1.239, 4.842e-4
-1.240, 4.842e-4
-1.241, 4.935e-4
-1.242, 4.996e-4
-1.243, 5.089e-4
-1.244, 5.120e-4
-1.245, 5.150e-4
-1.246, 5.150e-4
-1.247, 5.150e-4
-1.248, 5.120e-4
-1.249, 5.150e-4
-1.250, 5.181e-4
-1.251, 5.243e-4
-1.252, 5.335e-4
-1.253, 5.397e-4
-1.254, 5.459e-4
-1.255, 5.520e-4
-1.256, 5.520e-4
-1.257, 5.489e-4
-1.258, 5.489e-4
-1.259, 5.520e-4
-1.260, 5.582e-4
-1.261, 5.644e-4
-1.262, 5.736e-4
-1.263, 5.859e-4
-1.264, 5.890e-4
-1.265, 5.952e-4
-1.266, 5.952e-4
-1.267, 5.952e-4
-1.268, 5.983e-4
-1.269, 5.983e-4
-1.270, 6.044e-4
-1.271, 6.168e-4
-1.272, 6.229e-4
-1.273, 6.353e-4
-1.274, 6.414e-4
-1.275, 6.476e-4
-1.276, 6.507e-4
-1.277, 6.538e-4
-1.278, 6.538e-4
-1.279, 6.599e-4
-1.280, 6.661e-4
-1.281, 6.784e-4
-1.282, 6.877e-4
-1.283, 7.000e-4
-1.284, 7.062e-4
-1.285, 7.154e-4
-1.286, 7.185e-4
-1.287, 7.247e-4
-1.288, 7.247e-4
-1.289, 7.309e-4
-1.290, 7.370e-4
-1.291, 7.524e-4
-1.292, 7.648e-4
-1.293, 7.771e-4
-1.294, 7.894e-4
-1.295, 7.987e-4
-1.296, 8.018e-4
-1.297, 8.079e-4
-1.298, 8.110e-4
-1.299, 8.233e-4
-1.300, 8.326e-4
-1.301, 8.449e-4
-1.302, 8.603e-4
-1.303, 8.758e-4
-1.304, 8.881e-4
-1.305, 9.004e-4
-1.306, 9.066e-4
-1.307, 9.128e-4
-1.308, 9.220e-4
-1.309, 9.313e-4
-1.310, 9.436e-4
-1.311, 9.590e-4
-1.312, 9.744e-4
-1.313, 9.929e-4
-1.314, 1.005e-3
-1.315, 1.021e-3
-1.316, 1.030e-3
-1.317, 1.039e-3
-1.318, 1.048e-3
-1.319, 1.061e-3
-1.320, 1.073e-3
-1.321, 1.092e-3
-1.322, 1.110e-3
-1.323, 1.132e-3
-1.324, 1.147e-3
-1.325, 1.162e-3
-1.326, 1.175e-3
-1.327, 1.187e-3
-1.328, 1.196e-3
-1.329, 1.212e-3
-1.330, 1.224e-3
-1.331, 1.246e-3
-1.332, 1.267e-3
-1.333, 1.289e-3
-1.334, 1.307e-3
-1.335, 1.326e-3
-1.336, 1.338e-3
-1.337, 1.354e-3
-1.338, 1.366e-3
-1.339, 1.384e-3
-1.340, 1.403e-3
-1.341, 1.425e-3
-1.342, 1.449e-3
-1.343, 1.474e-3
-1.344, 1.492e-3
-1.345, 1.517e-3
-1.346, 1.532e-3
-1.347, 1.551e-3
-1.348, 1.566e-3
-1.349, 1.585e-3
-1.350, 1.606e-3
-1.351, 1.634e-3
-1.352, 1.659e-3
-1.353, 1.690e-3
-1.354, 1.714e-3
-1.355, 1.736e-3
-1.356, 1.758e-3
-1.357, 1.779e-3
-1.358, 1.798e-3
-1.359, 1.819e-3
-1.360, 1.844e-3
-1.361, 1.875e-3
-1.362, 1.902e-3
-1.363, 1.933e-3
-1.364, 1.961e-3
-1.365, 1.989e-3
-1.366, 2.010e-3
-1.367, 2.035e-3
-1.368, 2.054e-3
-1.369, 2.081e-3
-1.370, 2.106e-3
-1.371, 2.140e-3
-1.372, 2.174e-3
-1.373, 2.205e-3
-1.374, 2.238e-3
-1.375, 2.266e-3
-1.376, 2.291e-3
-1.377, 2.319e-3
-1.378, 2.340e-3
-1.379, 2.368e-3
-1.380, 2.399e-3
-1.381, 2.433e-3
-1.382, 2.470e-3
-1.383, 2.504e-3
-1.384, 2.538e-3
-1.385, 2.568e-3
-1.386, 2.599e-3
-1.387, 2.627e-3
-1.388, 2.655e-3
-1.389, 2.682e-3
-1.390, 2.713e-3
-1.391, 2.750e-3
-1.392, 2.787e-3
-1.393, 2.824e-3
-1.394, 2.861e-3
-1.395, 2.898e-3
-1.396, 2.929e-3
-1.397, 2.957e-3
-1.398, 2.988e-3
-1.399, 3.022e-3
-1.400, 3.052e-3
-1.401, 3.096e-3
-1.402, 3.133e-3
-1.403, 3.176e-3
-1.404, 3.216e-3
-1.405, 3.256e-3
-1.406, 3.290e-3
-1.407, 3.324e-3
-1.408, 3.355e-3
-1.409, 3.392e-3
-1.410, 3.429e-3
-1.411, 3.472e-3
-1.412, 3.515e-3
-1.413, 3.561e-3
-1.414, 3.604e-3
-1.415, 3.647e-3
-1.416, 3.684e-3
-1.417, 3.721e-3
-1.418, 3.758e-3
-1.419, 3.799e-3
-1.420, 3.839e-3
-1.421, 3.885e-3
-1.422, 3.931e-3
-1.423, 3.977e-3
-1.424, 4.024e-3
-1.425, 4.067e-3
-1.426, 4.107e-3
-1.427, 4.144e-3
-1.428, 4.184e-3
-1.429, 4.221e-3
-1.430, 4.261e-3
-1.431, 4.307e-3
-1.432, 4.354e-3
-1.433, 4.400e-3
-1.434, 4.446e-3
-1.435, 4.492e-3
-1.436, 4.535e-3
-1.437, 4.572e-3
-1.438, 4.616e-3
-1.439, 4.659e-3
-1.440, 4.702e-3
-1.441, 4.751e-3
-1.442, 4.801e-3
-1.443, 4.853e-3
-1.444, 4.899e-3
-1.445, 4.949e-3
-1.446, 4.992e-3
-1.447, 5.038e-3
-1.448, 5.078e-3
-1.449, 5.124e-3
-1.450, 5.171e-3
-1.451, 5.223e-3
-1.452, 5.275e-3
-1.453, 5.331e-3
-1.454, 5.380e-3
-1.455, 5.433e-3
-1.456, 5.479e-3
-1.457, 5.528e-3
-1.458, 5.574e-3
-1.459, 5.624e-3
-1.460, 5.673e-3
-1.461, 5.725e-3
-1.462, 5.781e-3
-1.463, 5.840e-3
-1.464, 5.892e-3
-1.465, 5.947e-3
-1.466, 5.994e-3
-1.467, 6.043e-3
-1.468, 6.092e-3
-1.469, 6.142e-3
-1.470, 6.194e-3
-1.471, 6.250e-3
-1.472, 6.308e-3
-1.473, 6.370e-3
-1.474, 6.425e-3
-1.475, 6.484e-3
-1.476, 6.533e-3
-1.477, 6.586e-3
-1.478, 6.635e-3
-1.479, 6.691e-3
-1.480, 6.746e-3
-1.481, 6.805e-3
-1.482, 6.866e-3
-1.483, 6.925e-3
-1.484, 6.986e-3
-1.485, 7.045e-3
-1.486, 7.097e-3
-1.487, 7.150e-3
-1.488, 7.202e-3
-1.489, 7.255e-3
-1.490, 7.307e-3
-1.491, 7.366e-3
-1.492, 7.424e-3
-1.493, 7.486e-3
-1.494, 7.545e-3
-1.495, 7.600e-3
-1.496, 7.652e-3
-1.497, 7.708e-3
-1.498, 7.757e-3
-1.499, 7.813e-3
-1.500, 7.782e-3
-1.499, 7.643e-3
-1.498, 7.538e-3
-1.497, 7.446e-3
-1.496, 7.360e-3
-1.495, 7.276e-3
-1.494, 7.190e-3
-1.493, 7.104e-3
-1.492, 7.017e-3
-1.491, 6.934e-3
-1.490, 6.854e-3
-1.489, 6.780e-3
-1.488, 6.706e-3
-1.487, 6.635e-3
-1.486, 6.561e-3
-1.485, 6.490e-3
-1.484, 6.410e-3
-1.483, 6.333e-3
-1.482, 6.256e-3
-1.481, 6.179e-3
-1.480, 6.108e-3
-1.479, 6.040e-3
-1.478, 5.972e-3
-1.477, 5.910e-3
-1.476, 5.843e-3
-1.475, 5.775e-3
-1.474, 5.704e-3
-1.473, 5.633e-3
-1.472, 5.562e-3
-1.471, 5.494e-3
-1.470, 5.426e-3
-1.469, 5.365e-3
-1.468, 5.303e-3
-1.467, 5.248e-3
-1.466, 5.186e-3
-1.465, 5.127e-3
-1.464, 5.063e-3
-1.463, 4.995e-3
-1.462, 4.927e-3
-1.461, 4.862e-3
-1.460, 4.797e-3
-1.459, 4.742e-3
-1.458, 4.683e-3
-1.457, 4.628e-3
-1.456, 4.572e-3
-1.455, 4.517e-3
-1.454, 4.455e-3
-1.453, 4.397e-3
-1.452, 4.335e-3
-1.451, 4.276e-3
-1.450, 4.221e-3
-1.449, 4.169e-3
-1.448, 4.116e-3
-1.447, 4.067e-3
-1.446, 4.014e-3
-1.445, 3.965e-3
-1.444, 3.910e-3
-1.443, 3.854e-3
-1.442, 3.799e-3
-1.441, 3.746e-3
-1.440, 3.697e-3
-1.439, 3.651e-3
-1.438, 3.604e-3
-1.437, 3.561e-3
-1.436, 3.515e-3
-1.435, 3.469e-3
-1.434, 3.419e-3
-1.433, 3.367e-3
-1.432, 3.318e-3
-1.431, 3.268e-3
-1.430, 3.222e-3
-1.429, 3.182e-3
-1.428, 3.139e-3
-1.427, 3.099e-3
-1.426, 3.059e-3
-1.425, 3.015e-3
-1.424, 2.969e-3
-1.423, 2.923e-3
-1.422, 2.877e-3
-1.421, 2.834e-3
-1.420, 2.787e-3
-1.419, 2.750e-3
-1.418, 2.716e-3
-1.417, 2.679e-3
-1.416, 2.642e-3
-1.415, 2.605e-3
-1.414, 2.559e-3
-1.413, 2.519e-3
-1.412, 2.473e-3
-1.411, 2.433e-3
-1.410, 2.393e-3
-1.409, 2.359e-3
-1.408, 2.325e-3
-1.407, 2.294e-3
-1.406, 2.260e-3
-1.405, 2.226e-3
-1.404, 2.183e-3
-1.403, 2.146e-3
-1.402, 2.106e-3
-1.401, 2.069e-3
-1.400, 2.035e-3
-1.399, 2.004e-3
-1.398, 1.973e-3
-1.397, 1.946e-3
-1.396, 1.915e-3
-1.395, 1.884e-3
-1.394, 1.847e-3
-1.393, 1.816e-3
-1.392, 1.779e-3
-1.391, 1.745e-3
-1.390, 1.714e-3
-1.389, 1.690e-3
-1.388, 1.662e-3
-1.387, 1.640e-3
-1.386, 1.613e-3
-1.385, 1.585e-3
-1.384, 1.554e-3
-1.383, 1.520e-3
-1.382, 1.489e-3
-1.381, 1.458e-3
-1.380, 1.431e-3
-1.379, 1.406e-3
-1.378, 1.384e-3
-1.377, 1.363e-3
-1.376, 1.338e-3
-1.375, 1.317e-3
-1.374, 1.286e-3
-1.373, 1.258e-3
-1.372, 1.227e-3
-1.371, 1.203e-3
-1.370, 1.178e-3
-1.369, 1.156e-3
-1.368, 1.138e-3
-1.367, 1.119e-3
-1.366, 1.098e-3
-1.365, 1.076e-3
-1.364, 1.051e-3
-1.363, 1.027e-3
-1.362, 9.991e-4
-1.361, 9.744e-4
-1.360, 9.528e-4
-1.359, 9.343e-4
-1.358, 9.158e-4
-1.357, 9.004e-4
-1.356, 8.819e-4
-1.355, 8.634e-4
-1.354, 8.388e-4
-1.353, 8.141e-4
-1.352, 7.925e-4
-1.351, 7.679e-4
-1.350, 7.494e-4
-1.349, 7.339e-4
-1.348, 7.185e-4
-1.347, 7.062e-4
-1.346, 6.877e-4
-1.345, 6.723e-4
-1.344, 6.507e-4
-1.343, 6.291e-4
-1.342, 6.075e-4
-1.341, 5.890e-4
-1.340, 5.705e-4
-1.339, 5.582e-4
-1.338, 5.459e-4
-1.337, 5.335e-4
-1.336, 5.212e-4
-1.335, 5.058e-4
-1.334, 4.873e-4
-1.333, 4.688e-4
-1.332, 4.472e-4
-1.331, 4.287e-4
-1.330, 4.133e-4
-1.329, 4.040e-4
-1.328, 3.917e-4
-1.327, 3.855e-4
-1.326, 3.732e-4
-1.325, 3.578e-4
-1.324, 3.393e-4
-1.323, 3.239e-4
-1.322, 3.054e-4
-1.321, 2.900e-4
-1.320, 2.776e-4
-1.319, 2.684e-4
-1.318, 2.591e-4
-1.317, 2.499e-4
-1.316, 2.406e-4
-1.315, 2.314e-4
-1.314, 2.160e-4
-1.313, 1.975e-4
-1.312, 1.821e-4
-1.311, 1.697e-4
-1.310, 1.574e-4
-1.309, 1.481e-4
-1.308, 1.420e-4
-1.307, 1.358e-4
-1.306, 1.266e-4
-1.305, 1.173e-4
-1.304, 1.050e-4
-1.303, 8.957e-5
-1.302, 7.415e-5
-1.301, 6.490e-5
-1.300, 5.257e-5
-1.299, 4.640e-5
-1.298, 4.024e-5
-1.297, 3.715e-5
-1.296, 3.099e-5
-1.295, 2.174e-5
-1.294, 6.322e-6
-1.293, -2.927e-6
-1.292, -1.834e-5
-1.291, -2.759e-5
-1.290, -3.684e-5
-1.289, -4.301e-5
-1.288, -4.609e-5
-1.287, -4.917e-5
-1.286, -5.534e-5
-1.285, -6.151e-5
-1.284, -7.384e-5
-1.283, -8.617e-5
-1.282, -9.542e-5
-1.281, -1.047e-4
-1.280, -1.139e-4
-1.279, -1.201e-4
-1.278, -1.232e-4
-1.277, -1.232e-4
-1.276, -1.263e-4
-1.275, -1.324e-4
-1.274, -1.417e-4
-1.273, -1.540e-4
-1.272, -1.632e-4
-1.271, -1.725e-4
-1.270, -1.787e-4
-1.269, -1.817e-4
-1.268, -1.817e-4
-1.267, -1.817e-4
-1.266, -1.848e-4
-1.265, -1.910e-4
-1.264, -2.002e-4
-1.263, -2.095e-4
-1.262, -2.187e-4
-1.261, -2.280e-4
-1.260, -2.342e-4
-1.259, -2.342e-4
-1.258, -2.342e-4
-1.257, -2.342e-4
-1.256, -2.372e-4
-1.255, -2.403e-4
-1.254, -2.496e-4
-1.253, -2.557e-4
-1.252, -2.650e-4
-1.251, -2.712e-4
-1.250, -2.773e-4
-1.249, -2.773e-4
-1.248, -2.773e-4
-1.247, -2.773e-4
-1.246, -2.773e-4
-1.245, -2.804e-4
-1.244, -2.866e-4
-1.243, -2.927e-4
-1.242, -3.051e-4
-1.241, -3.082e-4
-1.240, -3.143e-4
-1.239, -3.112e-4
-1.238, -3.112e-4
-1.237, -3.112e-4
-1.236, -3.112e-4
-1.235, -3.143e-4
-1.234, -3.205e-4
-1.233, -3.267e-4
-1.232, -3.328e-4
-1.231, -3.390e-4
-1.230, -3.421e-4
-1.229, -3.421e-4
-1.228, -3.421e-4
-1.227, -3.390e-4
-1.226, -3.390e-4
-1.225, -3.390e-4
-1.224, -3.452e-4
-1.223, -3.513e-4
-1.222, -3.575e-4
-1.221, -3.606e-4
-1.220, -3.637e-4
-1.219, -3.637e-4
-1.218, -3.606e-4
-1.217, -3.575e-4
-1.216, -3.575e-4
-1.215, -3.606e-4
-1.214, -3.637e-4
-1.213, -3.698e-4
-1.212, -3.760e-4
-1.211, -3.791e-4
-1.210, -3.821e-4
-1.209, -3.821e-4
-1.208, -3.760e-4
-1.207, -3.729e-4
-1.206, -3.729e-4
-1.205, -3.729e-4
-1.204, -3.791e-4
-1.203, -3.821e-4
-1.202, -3.883e-4
-1.201, -3.945e-4
-1.200, -3.945e-4
-1.199, -3.945e-4
-1.198, -3.914e-4
-1.197, -3.852e-4
-1.196, -3.852e-4
-1.195, -3.852e-4
-1.194, -3.883e-4
-1.193, -3.945e-4
-1.192, -4.006e-4
-1.191, -4.037e-4
-1.190, -4.068e-4
-1.189, -4.037e-4
-1.188, -4.006e-4
-1.187, -3.945e-4
-1.186, -3.945e-4
-1.185, -3.945e-4
-1.184, -3.976e-4
-1.183, -4.037e-4
-1.182, -4.099e-4
-1.181, -4.130e-4
-1.180, -4.130e-4
-1.179, -4.099e-4
-1.178, -4.068e-4
-1.177, -4.037e-4
-1.176, -4.006e-4
-1.175, -4.006e-4
-1.174, -4.068e-4
-1.173, -4.099e-4
-1.172, -4.161e-4
-1.171, -4.191e-4
-1.170, -4.222e-4
-1.169, -4.191e-4
-1.168, -4.161e-4
-1.167, -4.099e-4
-1.166, -4.068e-4
-1.165, -4.068e-4
-1.164, -4.130e-4
-1.163, -4.161e-4
-1.162, -4.222e-4
-1.161, -4.253e-4
-1.160, -4.253e-4
-1.159, -4.222e-4
-1.158, -4.191e-4
-1.157, -4.130e-4
-1.156, -4.130e-4
-1.155, -4.099e-4
-1.154, -4.161e-4
-1.153, -4.222e-4
-1.152, -4.253e-4
-1.151, -4.284e-4
-1.150, -4.284e-4
-1.149, -4.253e-4
-1.148, -4.222e-4
-1.147, -4.191e-4
-1.146, -4.161e-4
-1.145, -4.161e-4
-1.144, -4.191e-4
-1.143, -4.253e-4
-1.142, -4.284e-4
-1.141, -4.315e-4
-1.140, -4.315e-4
-1.139, -4.284e-4
-1.138, -4.253e-4
-1.137, -4.222e-4
-1.136, -4.191e-4
-1.135, -4.191e-4
-1.134, -4.222e-4
-1.133, -4.253e-4
-1.132, -4.315e-4
-1.131, -4.346e-4
-1.130, -4.376e-4
-1.129, -4.346e-4
-1.128, -4.284e-4
-1.127, -4.253e-4
-1.126, -4.222e-4
-1.125, -4.222e-4
-1.124, -4.253e-4
-1.123, -4.315e-4
-1.122, -4.346e-4
-1.121, -4.407e-4
-1.120, -4.407e-4
-1.119, -4.376e-4
-1.118, -4.346e-4
-1.117, -4.315e-4
-1.116, -4.284e-4
-1.115, -4.284e-4
-1.114, -4.315e-4
-1.113, -4.346e-4
-1.112, -4.407e-4
-1.111, -4.438e-4
-1.110, -4.469e-4
-1.109, -4.407e-4
-1.108, -4.407e-4
-1.107, -4.346e-4
-1.106, -4.315e-4
-1.105, -4.315e-4
-1.104, -4.346e-4
-1.103, -4.407e-4
-1.102, -4.438e-4
-1.101, -4.469e-4
-1.100, -4.500e-4
-1.099, -4.469e-4
-1.098, -4.438e-4
-1.097, -4.376e-4
-1.096, -4.346e-4
-1.095, -4.376e-4
-1.094, -4.376e-4
-1.093, -4.438e-4
-1.092, -4.500e-4
-1.091, -4.531e-4
-1.090, -4.531e-4
-1.089, -4.500e-4
-1.088, -4.469e-4
-1.087, -4.407e-4
-1.086, -4.407e-4
-1.085, -4.376e-4
-1.084, -4.438e-4
-1.083, -4.469e-4
-1.082, -4.531e-4
-1.081, -4.561e-4
-1.080, -4.592e-4
-1.079, -4.561e-4
-1.078, -4.500e-4
-1.077, -4.469e-4
-1.076, -4.469e-4
-1.075, -4.469e-4
-1.074, -4.500e-4
-1.073, -4.531e-4
-1.072, -4.592e-4
-1.071, -4.623e-4
-1.070, -4.654e-4
-1.069, -4.592e-4
-1.068, -4.592e-4
-1.067, -4.531e-4
-1.066, -4.500e-4
-1.065, -4.500e-4
-1.064, -4.531e-4
-1.063, -4.592e-4
-1.062, -4.654e-4
-1.061, -4.685e-4
-1.060, -4.716e-4
-1.059, -4.685e-4
-1.058, -4.654e-4
-1.057, -4.592e-4
-1.056, -4.592e-4
-1.055, -4.561e-4
-1.054, -4.623e-4
-1.053, -4.654e-4
-1.052, -4.716e-4
-1.051, -4.746e-4
-1.050, -4.777e-4
-1.049, -4.746e-4
-1.048, -4.716e-4
-1.047, -4.685e-4
-1.046, -4.654e-4
-1.045, -4.654e-4
-1.044, -4.685e-4
-1.043, -4.746e-4
-1.042, -4.777e-4
-1.041, -4.839e-4
-1.040, -4.839e-4
-1.039, -4.839e-4
-1.038, -4.777e-4
-1.037, -4.746e-4
-1.036, -4.716e-4
-1.035, -4.716e-4
-1.034, -4.777e-4
-1.033, -4.808e-4
-1.032, -4.870e-4
-1.031, -4.931e-4
-1.030, -4.931e-4
-1.029, -4.901e-4
-1.028, -4.870e-4
-1.027, -4.839e-4
-1.026, -4.808e-4
-1.025, -4.808e-4
-1.024, -4.870e-4
-1.023, -4.931e-4
-1.022, -4.962e-4
-1.021, -5.024e-4
-1.020, -5.024e-4
-1.019, -4.993e-4
-1.018, -4.993e-4
-1.017, -4.931e-4
-1.016, -4.931e-4
-1.015, -4.931e-4
-1.014, -4.962e-4
-1.013, -5.024e-4
-1.012, -5.086e-4
-1.011, -5.147e-4
-1.010, -5.147e-4
-1.009, -5.147e-4
-1.008, -5.116e-4
-1.007, -5.086e-4
-1.006, -5.055e-4
-1.005, -5.055e-4
-1.004, -5.116e-4
-1.003, -5.147e-4
-1.002, -5.240e-4
-1.001, -5.271e-4
