Potential V vs RHE, Current mA cm-2
0.4132999999999999,0.007045262273327883
0.4122999999999999,0.005162281533207518
0.4112999999999999,0.0046317647957581295
0.4102999999999999,0.0043445784018855274
0.4092999999999999,0.004070124409711711
0.4082999999999999,0.0038437706017333045
0.4072999999999999,0.0035933667016571935
0.4062999999999999,0.0034094542326747385
0.4052999999999999,0.0032580801235891793
0.4042999999999999,0.003093973612804835
0.4032999999999999,0.0029199641229214358
0.4022999999999999,0.0027105868505414104
0.4012999999999999,0.0025761892770542315
0.4002999999999999,0.0024531093939659738
0.3992999999999999,0.00230880884137974
0.3982999999999999,0.0021376287740960706
0.3972999999999999,0.0019650339955125363
0.3962999999999999,0.0018263922881257626
0.3952999999999999,0.0017415096101338603
0.3942999999999999,0.0016085267479465466
0.39329999999999987,0.001464226195360313
0.39229999999999987,0.0013122862017548081
0.39129999999999987,0.0011880745496266579
0.39029999999999987,0.0011126704373438515
0.38929999999999987,0.001002464427084365
0.38829999999999987,0.0008725939297567545
0.38729999999999987,0.0007274445503906019
0.38629999999999987,0.0006115796949316553
0.38529999999999986,0.0005237261232100366
0.38429999999999986,0.0004371457916582963
0.38329999999999986,0.0003060020541608074
0.38229999999999986,0.00015802325219492459
0.38129999999999986,6.308197686098199e-05
0.38029999999999986,3.0713382320069947e-06
0.37929999999999986,-7.230589453610203e-05
0.37829999999999986,-0.00019791811085111862
0.37729999999999986,-0.00034023806761754137
0.37629999999999986,-0.00041012480583087413
0.37529999999999986,-0.0004938757147828843
0.37429999999999986,-0.0005664504044659606
0.37329999999999985,-0.0006835885000947857
0.37229999999999985,-0.0008358114359602637
0.37129999999999985,-0.0008776868904362688
0.37029999999999985,-0.000947432157519615
0.36929999999999985,-0.001039529863140829
0.36829999999999985,-0.0011261101946925692
0.36729999999999985,-0.0012726742853585871
0.36629999999999985,-0.001369016124879396
0.36529999999999985,-0.001399715360086467
0.36429999999999985,-0.0014854468648582886
0.36329999999999985,-0.0015731589654499208
0.36229999999999984,-0.001697653559838044
0.36129999999999984,-0.001774047970030756
0.36029999999999984,-0.001844783535024008
0.35929999999999984,-0.0019056161209182044
0.35829999999999984,-0.0020060606232086223
0.35729999999999984,-0.0021135786819983645
0.35629999999999984,-0.0021828995356917517
0.35529999999999984,-0.002246561544185678
0.35429999999999984,-0.002321541243078525
0.35329999999999984,-0.0024120827662698877
0.35229999999999984,-0.00251111255726044
0.35129999999999983,-0.0025747745657543667
0.35029999999999983,-0.0026455101307476182
0.34929999999999983,-0.0026992691601424898
0.34829999999999983,-0.002820934331930883
0.34729999999999983,-0.0029553319054180615
0.34629999999999983,-0.0029807967088156325
0.34529999999999983,-0.0030260674704113135
0.34429999999999983,-0.0030996324580042952
0.3432999999999998,-0.003209979939393768
0.3422999999999998,-0.0032991067512852653
0.3412999999999998,-0.003362768759779192
0.3402999999999998,-0.0034221866343735236
0.3392999999999998,-0.003470286818568935
0.3382999999999998,-0.003556584207860702
0.3372999999999998,-0.00365985813275085
0.3362999999999998,-0.0037334231203438317
0.3352999999999998,-0.0037956704175378933
0.3342999999999998,-0.003821135220935464
0.3332999999999998,-0.003914506166726556
0.3322999999999998,-0.0040531478741133295
0.3312999999999998,-0.004088515656609956
0.3302999999999998,-0.004125298150406446
0.3292999999999998,-0.004181886602401049
0.3282999999999998,-0.004287989949890926
0.3272999999999998,-0.004403996276479858
0.3262999999999998,-0.004449267038075541
0.3252999999999999,-0.004480390686672572
0.3242999999999999,-0.004525661448268253
0.3232999999999999,-0.004607714703660425
0.3222999999999999,-0.004744941699747333
0.3212999999999999,-0.004790212461343014
0.3202999999999999,-0.004804359574341665
0.3192999999999999,-0.004879339273234511
0.3182999999999999,-0.0049401718591287076
0.3172999999999999,-0.005057592897017506
0.3162999999999999,-0.0051198401942115675
0.3152999999999999,-0.005132572595910353
0.3142999999999999,-0.005175013934906304
0.3132999999999999,-0.005272629014596992
0.3122999999999999,-0.005354682269989164
0.3112999999999999,-0.005412685433283631
0.3102999999999999,-0.005442394370580797
0.3092999999999999,-0.005497568111275533
0.3082999999999999,-0.0055909390570666245
0.3072999999999999,-0.005691383559357043
0.3062999999999999,-0.005736654320952724
0.3052999999999999,-0.005767777969549754
0.3042999999999999,-0.00580031632944665
0.3032999999999999,-0.005902175543036933
0.3022999999999999,-0.0059884729323287
0.3012999999999999,-0.006052134940822627
0.3002999999999999,-0.006091746857218848
0.2992999999999999,-0.006114382238016689
0.2982999999999999,-0.006206338472507916
0.2972999999999999,-0.006329418355596174
0.2962999999999999,-0.006363371426792935
0.2952999999999999,-0.006383177384991045
0.2942999999999999,-0.006419959878787536
0.2932999999999999,-0.006528892648877144
0.2922999999999999,-0.006609531192969452
0.2912999999999999,-0.006630751862467427
0.2902999999999999,-0.006677437335362973
0.2892999999999999,-0.006724122808258519
0.2882999999999999,-0.0068033466410509615
0.2872999999999999,-0.006893888164242324
0.2862999999999999,-0.00693208536933868
0.2852999999999999,-0.00695472075013652
0.2842999999999999,-0.007031115160329232
0.2832999999999999,-0.007091947746223429
0.2822999999999999,-0.007189562825914116
0.2812999999999999,-0.007222101185811012
0.2802999999999999,-0.007220686474511147
0.2792999999999999,-0.007282933771705209
0.2782999999999999,-0.0073649870270973816
0.2772999999999999,-0.007452699127689013
0.2762999999999999,-0.00751919055878267
0.2752999999999999,-0.007517775847482805
0.2742999999999999,-0.0075658760316782165
0.2732999999999999,-0.007632367462771873
0.2722999999999999,-0.007731397253762425
0.2712999999999999,-0.007779497437957837
0.2702999999999999,-0.007803547530055544
0.2692999999999999,-0.007838915312552168
0.26829999999999987,-0.007937945103542721
0.26729999999999987,-0.008003021823336513
0.26629999999999987,-0.008053951430131654
0.26529999999999987,-0.00807517209962963
0.26429999999999987,-0.00809780748042747
0.26329999999999987,-0.008192593137518427
0.26229999999999987,-0.008266158125111408
0.26129999999999987,-0.008315673020606686
0.26029999999999986,-0.008348211380503581
0.25929999999999986,-0.008358114359602637
0.25829999999999986,-0.00846846184099211
0.25729999999999986,-0.008549100385084416
0.25629999999999986,-0.008560418075483337
0.25529999999999986,-0.008601444703179422
0.25429999999999986,-0.008633983063076318
0.25329999999999986,-0.008718865741068222
0.25229999999999986,-0.008807992552959717
0.25129999999999986,-0.00885609273715513
0.25029999999999986,-0.008890045808351892
0.24929999999999986,-0.008931072436047977
0.24829999999999985,-0.009003222712341092
0.24729999999999985,-0.009082446545133535
0.24629999999999985,-0.009109326059830971
0.24529999999999985,-0.009153182110126787
0.24429999999999985,-0.009194208737822873
0.24329999999999985,-0.009247967767217743
0.24229999999999985,-0.009337094579109242
0.24129999999999985,-0.009379535918105194
0.24029999999999985,-0.009396512453703574
0.23929999999999985,-0.009467248018696825
0.23829999999999985,-0.009529495315890887
0.23729999999999984,-0.009621451550382114
0.23629999999999984,-0.00963984279728036
0.23529999999999984,-0.009668137023277661
0.23429999999999984,-0.00970774893967388
0.23329999999999984,-0.009788387483766188
0.23229999999999984,-0.009863367182659035
0.23129999999999984,-0.009893076119956202
0.23029999999999984,-0.009915711500754043
0.22929999999999984,-0.009945420438051208
0.22829999999999984,-0.010045864940341626
0.22729999999999984,-0.010115185794035012
0.22629999999999983,-0.010143480020032312
0.22529999999999983,-0.010177433091229074
0.22429999999999983,-0.01020997145112597
0.22329999999999983,-0.010304757108216926
0.22229999999999983,-0.010376907384510045
0.22129999999999983,-0.010391054497508694
0.22029999999999983,-0.010425007568705454
0.21929999999999983,-0.010471693041601003
0.21829999999999983,-0.010553746296993174
0.21729999999999983,-0.010635799552385347
0.21629999999999983,-0.010665508489682512
0.21529999999999982,-0.010683899736580757
0.21429999999999982,-0.010715023385177788
0.21329999999999982,-0.01081688259876807
0.21229999999999982,-0.010906009410659567
0.21129999999999982,-0.010908838833259297
0.21029999999999982,-0.010937133059256598
0.20929999999999982,-0.010986647954751875
0.20829999999999982,-0.011036162850247149
0.20729999999999982,-0.011136607352537568
0.20629999999999982,-0.01116207215593514
0.20529999999999982,-0.011194610515832037
0.20429999999999982,-0.01124129598872758
0.20329999999999981,-0.011297884440722184
0.2022999999999998,-0.01138418183001395
0.2012999999999998,-0.011408231922111656
0.20029999999999992,-0.011432282014209361
0.19929999999999992,-0.011483211621004503
0.19829999999999992,-0.01156667958769654
0.19729999999999992,-0.011655806399588036
0.19629999999999992,-0.011688344759484933
0.19529999999999992,-0.011708150717683045
0.19429999999999992,-0.01180010695217427
0.19329999999999992,-0.011903380877064417
0.19229999999999992,-0.011913283856163474
0.19129999999999991,-0.011961384040358885
0.1902999999999999,-0.011989678266356186
0.1892999999999999,-0.012027875471452542
0.1882999999999999,-0.012115587572044175
0.1872999999999999,-0.012180664291837964
0.1862999999999999,-0.012220276208234187
0.1852999999999999,-0.012251399856831218
0.1842999999999999,-0.012259888124630408
0.1832999999999999,-0.012360332626920826
0.1822999999999999,-0.012433897614513807
0.1812999999999999,-0.012466435974410705
0.1802999999999999,-0.01250746260210679
0.1792999999999999,-0.012535756828104089
0.1782999999999999,-0.012622054217395857
0.1772999999999999,-0.012698448627588569
0.1762999999999999,-0.012725328142286005
0.1752999999999999,-0.012742304677884385
0.1742999999999999,-0.01278333130558047
0.1732999999999999,-0.012875287540071698
0.1722999999999999,-0.012968658485862792
0.1712999999999999,-0.012972902619762385
0.1702999999999999,-0.013011099824858742
0.1692999999999999,-0.013073347122052803
0.1682999999999999,-0.013155400377444976
0.1672999999999999,-0.013233209498937554
0.1662999999999999,-0.013233209498937554
0.1652999999999999,-0.01327423612663364
0.1642999999999999,-0.013325165733428781
0.1632999999999999,-0.013407218988820954
0.1622999999999999,-0.013500589934612043
0.1612999999999999,-0.013535957717108672
0.1602999999999999,-0.013551519541407186
0.1592999999999999,-0.013601034436902462
0.15829999999999989,-0.013688746537494094
0.15729999999999988,-0.013756652679887616
0.15629999999999988,-0.013779288060685456
0.15529999999999988,-0.013800508730183434
0.15429999999999988,-0.013861341316077629
0.15329999999999988,-0.013951882839268992
0.15229999999999988,-0.014008471291263595
0.15129999999999988,-0.014045253785060085
0.15029999999999988,-0.014063645031958328
0.14929999999999988,-0.014127307040452258
0.14829999999999988,-0.014203701450644968
0.14729999999999988,-0.01427443701563822
0.14629999999999987,-0.01430273124163552
0.14529999999999987,-0.014345172580631472
0.14429999999999987,-0.014373466806628774
0.14329999999999987,-0.014500790823616624
0.14229999999999987,-0.014585673501608528
0.14129999999999987,-0.014571526388609878
0.14029999999999987,-0.01461396772760583
0.13929999999999987,-0.01465640906660178
0.13829999999999987,-0.014755438857592333
0.13729999999999987,-0.014812027309586936
0.13629999999999987,-0.014840321535584235
0.13529999999999986,-0.014896909987578835
0.13429999999999986,-0.014939351326574786
0.13329999999999986,-0.01503838111756534
0.13229999999999986,-0.015123263795557243
0.13129999999999986,-0.015137410908555892
0.13029999999999986,-0.015165705134553195
0.12929999999999986,-0.015222293586547794
0.12829999999999986,-0.015321323377538347
0.12729999999999986,-0.0153637647165343
0.12629999999999986,-0.015377911829532949
0.12529999999999986,-0.01543450028152755
0.12429999999999986,-0.015491088733522153
0.12329999999999985,-0.015561824298515404
0.12229999999999985,-0.015646706976507305
0.12129999999999985,-0.015675001202504608
0.12029999999999985,-0.015675001202504608
0.11929999999999985,-0.015745736767497857
0.11829999999999985,-0.01581647233249111
0.11729999999999985,-0.01591550212348166
0.11629999999999985,-0.015929649236480315
0.11529999999999985,-0.015957943462477614
0.11429999999999985,-0.016014531914472215
0.11329999999999985,-0.01611356170546277
0.11229999999999984,-0.01615600304445872
0.11129999999999984,-0.01619844438345467
0.11029999999999984,-0.01624088572245062
0.10929999999999984,-0.01629747417444522
0.10829999999999984,-0.016410651078434424
0.10729999999999984,-0.016453092417430374
0.10629999999999984,-0.01648138664342768
0.10529999999999984,-0.01652382798242363
0.10429999999999984,-0.01656626932141958
0.10329999999999984,-0.016693593338407434
0.10229999999999984,-0.016764328903400686
0.10129999999999983,-0.016778476016399334
0.10029999999999983,-0.016820917355395284
0.09929999999999983,-0.016863358694391237
0.09829999999999983,-0.016962388485381792
0.09729999999999983,-0.017047271163373692
0.09629999999999983,-0.01706141827637234
0.09529999999999983,-0.017103859615368294
0.09429999999999983,-0.017160448067362895
0.09329999999999983,-0.017259477858353446
0.09229999999999983,-0.01734436053634535
0.09129999999999983,-0.017372654762342652
0.09029999999999982,-0.0174150961013386
0.08929999999999982,-0.017471684553333203
0.08829999999999982,-0.017570714344323755
0.08729999999999982,-0.017641449909317007
0.08629999999999982,-0.01765559702231566
0.08529999999999982,-0.01769803836131161
0.08429999999999982,-0.017782921039303512
0.08329999999999982,-0.017867803717295416
0.08229999999999982,-0.017938539282288665
0.08129999999999982,-0.017980980621284618
0.08029999999999982,-0.017995127734283266
0.07929999999999982,-0.018065863299276518
0.07829999999999981,-0.01817904020326572
0.07729999999999981,-0.018249775768258973
0.07629999999999981,-0.018306364220253574
0.07529999999999992,-0.018348805559249524
0.07429999999999992,-0.018405394011244126
0.07329999999999992,-0.01849027668923603
0.07229999999999992,-0.01856101225422928
0.07129999999999992,-0.018603453593225232
0.07029999999999992,-0.018631747819222534
0.06929999999999992,-0.018716630497214438
0.06829999999999992,-0.01882980740120364
0.06729999999999992,-0.018900542966196893
0.06629999999999991,-0.018957131418191494
0.06529999999999991,-0.019013719870186095
0.06429999999999991,-0.019042014096183394
0.06329999999999991,-0.019169338113171244
0.06229999999999991,-0.019240073678164497
0.06129999999999991,-0.0192683679041618
0.06029999999999991,-0.0193249563561564
0.05929999999999991,-0.019367397695152354
0.05829999999999991,-0.019480574599141553
0.05729999999999991,-0.019551310164134805
0.056299999999999906,-0.01959375150313076
0.055299999999999905,-0.01965033995512536
0.054299999999999904,-0.01969278129412131
0.0532999999999999,-0.019805958198110513
0.0522999999999999,-0.019890840876102416
0.0512999999999999,-0.019933282215098366
0.0502999999999999,-0.019989870667092968
0.0492999999999999,-0.02004645911908757
0.0482999999999999,-0.020145488910078124
0.0472999999999999,-0.020244518701068675
0.0462999999999999,-0.020272812927065977
0.045299999999999896,-0.02032940137906058
0.044299999999999895,-0.02041428405705248
0.043299999999999894,-0.020513313848043033
0.04229999999999989,-0.020584049413036282
0.04129999999999989,-0.020612343639033585
0.04029999999999989,-0.020697226317025485
0.03929999999999989,-0.020767961882018737
0.03829999999999989,-0.02085284456001064
0.03729999999999989,-0.020937727238002544
0.03629999999999989,-0.021008462802995797
0.03529999999999989,-0.021022609915994445
0.034299999999999886,-0.021121639706984996
0.033299999999999885,-0.02122066949797555
0.032299999999999884,-0.021305552175967454
0.031299999999999883,-0.021362140627962056
0.030299999999999883,-0.021404581966958002
0.02929999999999988,-0.021475317531951258
0.02829999999999988,-0.021602641548939108
0.02729999999999988,-0.02167337711393236
0.02629999999999988,-0.021729965565926962
0.025299999999999878,-0.021772406904922915
0.024299999999999877,-0.02185728958291482
0.023299999999999876,-0.02198461359990267
0.022299999999999875,-0.02205534916489592
0.021299999999999875,-0.022097790503891875
0.020299999999999874,-0.022168526068885124
0.019299999999999873,-0.022239261633878377
0.018299999999999872,-0.022366585650866227
0.01729999999999987,-0.022437321215859483
0.01629999999999987,-0.022465615441856785
0.01529999999999987,-0.022550498119848682
0.014299999999999868,-0.022635380797840585
0.013299999999999867,-0.02274855770182979
0.012299999999999978,-0.022833440379821688
0.011299999999999866,-0.022847587492820343
0.010299999999999976,-0.022946617283810897
0.009299999999999864,-0.023017352848804146
0.008299999999999974,-0.023116382639794698
0.007299999999999862,-0.023215412430785252
0.006299999999999972,-0.023257853769781203
0.00529999999999986,-0.023328589334774455
0.0042999999999999705,-0.02341347201276636
0.0032999999999998586,-0.023512501803756906
0.0022999999999999687,-0.023625678707746112
0.0012999999999998568,-0.023682267159740714
0.00029999999999996696,-0.02373885561173532
-0.000700000000000145,-0.023823738289727222
-0.0017000000000000348,-0.02393691519371642
-0.0027000000000001467,-0.024050092097705623
-0.0037000000000000366,-0.024078386323702922
-0.0047000000000001485,-0.024149121888696175
-0.005700000000000038,-0.024219857453689427
-0.00670000000000015,-0.02436132858367593
-0.00770000000000004,-0.024446211261667832
-0.008700000000000152,-0.024488652600663786
-0.009700000000000042,-0.024545241052658383
-0.010700000000000154,-0.02465841795664759
-0.011700000000000044,-0.02479988908663409
-0.012700000000000156,-0.024856477538628696
-0.013700000000000045,-0.024927213103621948
-0.014700000000000157,-0.0249979486686152
-0.015700000000000047,-0.0250545371206098
-0.01670000000000016,-0.025181861137597652
-0.01770000000000005,-0.025266743815589552
-0.01870000000000016,-0.025323332267584157
-0.01970000000000005,-0.025422362058574708
-0.020700000000000163,-0.02547895051056931
-0.021700000000000053,-0.025592127414558512
-0.022700000000000164,-0.025719451431546365
-0.023700000000000054,-0.025747745657543668
-0.024700000000000166,-0.025832628335535568
-0.025700000000000056,-0.02591751101352747
-0.026700000000000168,-0.026058982143513973
-0.027700000000000058,-0.02614386482150588
-0.02870000000000017,-0.026186306160501827
-0.02970000000000006,-0.02627118883849373
-0.03070000000000017,-0.026370218629484285
-0.03170000000000006,-0.026469248420474833
-0.03270000000000017,-0.02658242532446404
-0.03370000000000006,-0.02662486666345999
-0.034700000000000175,-0.026695602228453245
-0.035700000000000065,-0.026808779132442447
-0.03670000000000018,-0.026936103149430297
-0.03770000000000007,-0.026992691601424906
-0.03870000000000018,-0.027049280053419503
-0.03970000000000007,-0.027134162731411407
-0.04070000000000018,-0.02723319252240196
-0.04170000000000007,-0.027332222313392506
-0.04270000000000018,-0.02743125210438306
-0.04370000000000007,-0.027487840556377662
-0.044700000000000184,-0.027530281895373616
-0.045700000000000074,-0.027657605912361466
-0.046700000000000186,-0.027784929929349323
-0.047700000000000076,-0.027869812607341227
-0.04870000000000019,-0.027940548172334476
-0.04970000000000008,-0.02802543085032638
-0.05070000000000019,-0.02811031352831828
-0.05170000000000008,-0.028265931771303435
-0.05270000000000019,-0.028322520223298033
-0.05370000000000008,-0.028393255788291286
-0.05470000000000019,-0.028449844240285887
-0.05570000000000008,-0.028534726918277787
-0.056700000000000195,-0.028676198048264292
-0.057700000000000085,-0.028746933613257548
-0.058700000000000196,-0.028817669178250797
-0.059700000000000086,-0.0289025518562427
-0.0607000000000002,-0.028987434534234607
-0.06170000000000009,-0.029143052777219756
