Potential V vs RHE, Current mA cm-2
0.05339999999999995,-0.04706744494650977
0.05239999999999995,-0.04842556779438021
0.051399999999999946,-0.04910462921831542
0.050399999999999945,-0.04967051373826144
0.049399999999999944,-0.0501939569192115
0.04839999999999994,-0.05071740010016157
0.04739999999999994,-0.05125499039411028
0.04639999999999994,-0.051735992236064385
0.04539999999999994,-0.05225943541701446
0.04439999999999994,-0.052768731484965865
0.04339999999999994,-0.05326388043991863
0.04239999999999994,-0.05375902939487139
0.04139999999999994,-0.05428247257582146
0.040399999999999936,-0.05477762153077422
0.039399999999999935,-0.055272770485726985
0.038399999999999934,-0.05578206655367839
0.03739999999999993,-0.056291362621629815
0.03639999999999993,-0.05678651157658257
0.03539999999999993,-0.057281660531535335
0.03439999999999993,-0.05776266237348945
0.03339999999999993,-0.05827195844144086
0.03239999999999993,-0.058767107396393625
0.03139999999999993,-0.059248109238347745
0.030399999999999927,-0.0597432581933005
0.029399999999999926,-0.06023840714825326
0.028399999999999925,-0.06073355610320603
0.027399999999999924,-0.06124285217115744
0.026399999999999924,-0.061752148239108844
0.025399999999999923,-0.062261444307060265
0.024399999999999922,-0.06277074037501168
0.02339999999999992,-0.0632800364429631
0.02239999999999992,-0.0638176267369118
0.02139999999999992,-0.06434106991786188
0.020399999999999918,-0.06486451309881193
0.019399999999999917,-0.0653596620537647
0.018399999999999916,-0.06588310523471475
0.017399999999999916,-0.06642069552866348
0.016399999999999915,-0.06690169737061757
0.015399999999999914,-0.06743928766456629
0.014399999999999913,-0.06796273084551636
0.013399999999999912,-0.06848617402646642
0.012399999999999911,-0.06899547009441785
0.01139999999999991,-0.06950476616236925
0.01039999999999991,-0.07005650356931663
0.009399999999999908,-0.07055165252426938
0.008399999999999908,-0.0710892428182181
0.007399999999999907,-0.07164098022516545
0.006399999999999906,-0.07213612918011822
0.005399999999999905,-0.07264542524806963
0.004399999999999904,-0.07318301554201835
0.003399999999999903,-0.07367816449697111
0.002399999999999902,-0.07422990190391847
0.0013999999999999013,-0.07475334508486854
0.00039999999999990044,-0.0752767882658186
-0.0006000000000001005,-0.07581437855976732
-0.0016000000000001013,-0.07630952751472009
-0.0026000000000001022,-0.07684711780866879
-0.003600000000000103,-0.0773564138766202
-0.004600000000000104,-0.07786570994457162
-0.005600000000000105,-0.0783891531255217
-0.006600000000000106,-0.0789267434194704
-0.007600000000000107,-0.07945018660042047
-0.008600000000000108,-0.07994533555537323
-0.009600000000000108,-0.08045463162332463
-0.01060000000000011,-0.08096392769127606
-0.01160000000000011,-0.08150151798522477
-0.012600000000000111,-0.08205325539217213
-0.013600000000000112,-0.08254840434712489
-0.014600000000000113,-0.0830577004150763
-0.015600000000000114,-0.08352455514403176
-0.016600000000000115,-0.08399140987298723
-0.017600000000000116,-0.08448655882793998
-0.018600000000000116,-0.0849958548958914
-0.019600000000000117,-0.08550515096384281
-0.020600000000000118,-0.08598615280579694
-0.02160000000000012,-0.0864813017607497
-0.02260000000000012,-0.0869905978287011
-0.02360000000000012,-0.0874433054446579
-0.024600000000000122,-0.08789601306061473
-0.025600000000000123,-0.08837701490256884
-0.026600000000000124,-0.08884386963152431
-0.027600000000000124,-0.08935316569947571
-0.028600000000000125,-0.08980587331543252
-0.029600000000000126,-0.09027272804438799
-0.030600000000000127,-0.09075372988634212
-0.03160000000000013,-0.09122058461529756
-0.03260000000000013,-0.09168743934425302
-0.03360000000000013,-0.09212599984721119
-0.03460000000000002,-0.09257870746316801
-0.03560000000000002,-0.09304556219212347
-0.03660000000000002,-0.09348412269508162
-0.03760000000000002,-0.09395097742403709
-0.03860000000000002,-0.09438953792699524
-0.039600000000000024,-0.09481395131695476
-0.040600000000000025,-0.09525251181991291
-0.041600000000000026,-0.09566277809687378
-0.04260000000000003,-0.09610133859983194
-0.04360000000000003,-0.09653989910279011
-0.04460000000000003,-0.09693601826675231
-0.04560000000000003,-0.09736043165671183
-0.04660000000000003,-0.0977424037076754
-0.04760000000000003,-0.09813852287163759
-0.04860000000000003,-0.0985346420355998
-0.04960000000000003,-0.09891661408656337
-0.050600000000000034,-0.09931273325052556
-0.051600000000000035,-0.09969470530148912
-0.052600000000000036,-0.10006253023945405
-0.053600000000000037,-0.1004445022904176
-0.05460000000000004,-0.10078403300238521
-0.05560000000000004,-0.10113771082735147
-0.05660000000000004,-0.10151968287831505
-0.05760000000000004,-0.10185921359028265
-0.05860000000000004,-0.1021845971892516
-0.05960000000000004,-0.1025241279012192
-0.06060000000000004,-0.10284951150018817
-0.061600000000000044,-0.10314660087315983
-0.06260000000000004,-0.10347198447212877
-0.06360000000000005,-0.10378322095809908
-0.06460000000000005,-0.1040944574440694
-0.06560000000000005,-0.10439154681704105
-0.06660000000000005,-0.10467448907701406
-0.06760000000000005,-0.10495743133698707
-0.06860000000000005,-0.10524037359696008
-0.06960000000000005,-0.10552331585693309
-0.07060000000000005,-0.10579211100390745
-0.07160000000000005,-0.10604675903788315
-0.07260000000000005,-0.10632970129785616
-0.07360000000000005,-0.10655605510583457
-0.07460000000000006,-0.10678240891381298
-0.07560000000000006,-0.10702290983479003
-0.07660000000000006,-0.10724926364276843
-0.07760000000000006,-0.10750391167674413
-0.07860000000000006,-0.1076878241457266
-0.07960000000000006,-0.10790003084070635
-0.08060000000000006,-0.10809809042268745
-0.08160000000000006,-0.10829615000466856
-0.08260000000000006,-0.10849420958664967
-0.08360000000000006,-0.10867812205563213
-0.08460000000000006,-0.10884788741161593
-0.08560000000000006,-0.10901765276759973
-0.08660000000000007,-0.10920156523658218
-0.08760000000000007,-0.1093430363665687
-0.08860000000000007,-0.10949865460955385
-0.08960000000000007,-0.10966841996553764
-0.09060000000000007,-0.1097957439825255
-0.09160000000000007,-0.10992306799951335
-0.09260000000000007,-0.1100503920165012
-0.09360000000000007,-0.11016356892049041
-0.09460000000000007,-0.11027674582447962
-0.09560000000000007,-0.1103899227284688
-0.09660000000000007,-0.11048895251945937
-0.09760000000000008,-0.11058798231044992
-0.09860000000000008,-0.11067286498844181
-0.09960000000000008,-0.11075774766643375
-0.10060000000000008,-0.11081433611842831
-0.10160000000000008,-0.11089921879642024
-0.10260000000000008,-0.11096995436141348
-0.10360000000000008,-0.11102654281340808
-0.10460000000000008,-0.11108313126540269
-0.10560000000000008,-0.11113971971739729
-0.10660000000000008,-0.11115386683039592
-0.10760000000000008,-0.11122460239538919
-0.10860000000000009,-0.11123874950838784
-0.10960000000000009,-0.11126704373438513
-0.11060000000000009,-0.11129533796038243
-0.11160000000000009,-0.11129533796038243
-0.11260000000000009,-0.11132363218637975
-0.11360000000000009,-0.11132363218637975
-0.11460000000000009,-0.11135192641237703
-0.11560000000000009,-0.11135192641237703
-0.11660000000000009,-0.11132363218637975
-0.1176000000000001,-0.11133777929937837
-0.1186000000000001,-0.11129533796038243
-0.1196000000000001,-0.11126704373438513
-0.1206000000000001,-0.11126704373438513
-0.1216000000000001,-0.11122460239538919
-0.1226000000000001,-0.11119630816939187
-0.1236000000000001,-0.11113971971739729
-0.1246000000000001,-0.11109727837840132
-0.1256000000000001,-0.11105483703940537
-0.1266000000000001,-0.11099824858741078
-0.1276000000000001,-0.11096995436141348
-0.1286000000000001,-0.11089921879642024
-0.1296000000000001,-0.11082848323142698
-0.1306000000000001,-0.11075774766643375
-0.1316000000000001,-0.11070115921443913
-0.1326000000000001,-0.11063042364944586
-0.1336000000000001,-0.11055968808445263
-0.1346000000000001,-0.11047480540646071
-0.1356000000000001,-0.11040406984146747
-0.1366000000000001,-0.11033333427647421
-0.1376000000000001,-0.1102484515984823
-0.1386000000000001,-0.11014942180749175
-0.1396000000000001,-0.1100786862424985
-0.1406000000000001,-0.1099938035645066
-0.14160000000000011,-0.10989477377351606
-0.14260000000000012,-0.10980989109552414
-0.14360000000000012,-0.10971086130453359
-0.14460000000000012,-0.10962597862654169
-0.14560000000000012,-0.10951280172255247
-0.14660000000000012,-0.10941377193156195
-0.14760000000000012,-0.1093147421405714
-0.14860000000000012,-0.1091732710105849
-0.14960000000000012,-0.10907424121959435
-0.15060000000000012,-0.10898935854160242
-0.15160000000000012,-0.10886203452461457
-0.15260000000000012,-0.10874885762062536
-0.15360000000000013,-0.10863568071663617
-0.15460000000000013,-0.10850835669964831
-0.15560000000000013,-0.10840932690865775
-0.15660000000000013,-0.10829615000466856
-0.15760000000000013,-0.10819712021367801
-0.15860000000000013,-0.10806979619669015
-0.15960000000000002,-0.10794247217970229
-0.16060000000000002,-0.10784344238871174
-0.16160000000000002,-0.10770197125872524
-0.16260000000000002,-0.10760294146773468
-0.16360000000000002,-0.10747561745074685
-0.16460000000000002,-0.10733414632076034
-0.16560000000000002,-0.10727755786876574
-0.16660000000000003,-0.10717852807777517
-0.16760000000000003,-0.10702290983479003
-0.16860000000000003,-0.10689558581780217
-0.16960000000000003,-0.10676826180081432
-0.17060000000000003,-0.10665508489682511
-0.17160000000000003,-0.10652776087983726
-0.17260000000000003,-0.10641458397584806
-0.17360000000000003,-0.10627311284586156
-0.17460000000000003,-0.10615993594187234
-0.17560000000000003,-0.10604675903788315
-0.17660000000000003,-0.10593358213389395
-0.17760000000000004,-0.10580625811690608
-0.17860000000000004,-0.10569308121291689
-0.17960000000000004,-0.10555161008293039
-0.18060000000000004,-0.10542428606594254
-0.18160000000000004,-0.10531110916195333
-0.18260000000000004,-0.10519793225796412
-0.18360000000000004,-0.10507060824097628
-0.18460000000000004,-0.10495743133698707
-0.18560000000000004,-0.10485840154599652
-0.18660000000000004,-0.1047452246420073
-0.18760000000000004,-0.10461790062501947
-0.18860000000000005,-0.10450472372103026
-0.18960000000000005,-0.10437739970404242
-0.19060000000000005,-0.10427836991305185
-0.19160000000000005,-0.1041793401220613
-0.19260000000000005,-0.10408031033107075
-0.19360000000000005,-0.1039529863140829
-0.19460000000000005,-0.10385395652309233
-0.19560000000000005,-0.10374077961910314
-0.19660000000000005,-0.10361345560211528
-0.19760000000000005,-0.10354272003712203
-0.19860000000000005,-0.10340124890713552
-0.19960000000000006,-0.10328807200314633
-0.20060000000000006,-0.10321733643815308
-0.20160000000000006,-0.10309001242116521
-0.20260000000000006,-0.10299098263017467
-0.20360000000000006,-0.10290609995218276
-0.20460000000000006,-0.10280707016119221
-0.20560000000000006,-0.10270804037020166
-0.20660000000000006,-0.10260901057921111
-0.20760000000000006,-0.10250998078822056
-0.20860000000000006,-0.10242509811022867
-0.20960000000000006,-0.1023260683192381
-0.21060000000000006,-0.1022411856412462
-0.21160000000000007,-0.10214215585025564
-0.21260000000000007,-0.1020714202852624
-0.21360000000000007,-0.10197239049427186
-0.21460000000000007,-0.10187336070328129
-0.21560000000000007,-0.10177433091229074
-0.21660000000000007,-0.10171774246029613
-0.21760000000000007,-0.10164700689530289
-0.21860000000000007,-0.10154797710431233
-0.21960000000000007,-0.10146309442632043
-0.22060000000000007,-0.10137821174832852
-0.22160000000000007,-0.10129332907033663
-0.22260000000000008,-0.10122259350534336
-0.22360000000000008,-0.10115185794035012
-0.22460000000000008,-0.10106697526235821
-0.22560000000000008,-0.10099623969736496
-0.22660000000000008,-0.10091135701937308
-0.22760000000000008,-0.10085476856737846
-0.22860000000000008,-0.10076988588938657
-0.22960000000000008,-0.10071329743739196
-0.23060000000000008,-0.10065670898539736
-0.23160000000000008,-0.10055767919440682
-0.23260000000000008,-0.1005010907424122
-0.23360000000000009,-0.10041620806442031
-0.2346000000000001,-0.10034547249942705
-0.2356000000000001,-0.10030303116043109
-0.2366000000000001,-0.10023229559543784
-0.2376000000000001,-0.10017570714344325
-0.2386000000000001,-0.10011911869144864
-0.2396000000000001,-0.10004838312645539
-0.2406000000000001,-0.0999917946744608
-0.2416000000000001,-0.09993520622246618
-0.2426000000000001,-0.0999069119964689
-0.2436000000000001,-0.09985032354447429
-0.2446000000000001,-0.0997654408664824
-0.2456000000000001,-0.0997654408664824
-0.2466000000000001,-0.09970885241448779
-0.2476000000000001,-0.09965226396249319
-0.2486000000000001,-0.09960982262349724
-0.2496000000000001,-0.0995673812845013
-0.2506000000000001,-0.09953908705850398
-0.2516000000000001,-0.09949664571950805
-0.2526000000000001,-0.09946835149351073
-0.2536000000000001,-0.09942591015451478
-0.2546000000000001,-0.09938346881551882
-0.2556000000000001,-0.09936932170252018
-0.2566000000000001,-0.09932688036352423
-0.2576000000000001,-0.09929858613752693
-0.2586000000000001,-0.09927029191152963
-0.2596000000000001,-0.09924199768553231
-0.2606000000000001,-0.09921370345953502
-0.2616000000000001,-0.09918540923353773
-0.2626000000000001,-0.09918540923353773
-0.2636000000000001,-0.09915711500754042
-0.2646000000000001,-0.09914296789454177
-0.2656000000000001,-0.09912882078154311
-0.2666000000000001,-0.09911467366854448
-0.2676000000000001,-0.09911467366854448
-0.2686000000000001,-0.09910052655554581
-0.2696000000000001,-0.09910052655554581
-0.2706000000000001,-0.09910052655554581
-0.2716000000000001,-0.09908637944254717
-0.2726000000000001,-0.09910052655554581
-0.2736000000000001,-0.09908637944254717
-0.2746000000000001,-0.09910052655554581
-0.2756000000000001,-0.09910052655554581
-0.2766000000000001,-0.09912882078154311
-0.2776000000000001,-0.09914296789454177
-0.2786000000000001,-0.09915711500754042
-0.2796000000000001,-0.09917126212053906
-0.2806000000000001,-0.09921370345953502
-0.28160000000000013,-0.09922785057253368
-0.28260000000000013,-0.09925614479853098
-0.28360000000000013,-0.09931273325052556
-0.2846,-0.09932688036352423
-0.2856,-0.09936932170252018
-0.2866,-0.09939761592851748
-0.2876,-0.09944005726751343
-0.2886,-0.09949664571950805
-0.2896,-0.09955323417150262
-0.2906,-0.09959567551049858
-0.2916,-0.09963811684949454
-0.2926,-0.09969470530148912
-0.2936,-0.0997654408664824
-0.29460000000000003,-0.09983617643147565
-0.29560000000000003,-0.09992105910946754
-0.29660000000000003,-0.09997764756146214
-0.29760000000000003,-0.10004838312645539
-0.29860000000000003,-0.1001332658044473
-0.29960000000000003,-0.10023229559543784
-0.30060000000000003,-0.10031717827342976
-0.30160000000000003,-0.10041620806442031
-0.30260000000000004,-0.1005010907424122
-0.30360000000000004,-0.10060012053340277
-0.30460000000000004,-0.10071329743739196
-0.30560000000000004,-0.10079818011538387
-0.30660000000000004,-0.10092550413237171
-0.30760000000000004,-0.10103868103636092
-0.30860000000000004,-0.10113771082735147
-0.30960000000000004,-0.10125088773134068
-0.31060000000000004,-0.10139235886132718
-0.31160000000000004,-0.10150553576531639
-0.31260000000000004,-0.10164700689530289
-0.31360000000000005,-0.10180262513828804
-0.31460000000000005,-0.1019299491552759
-0.31560000000000005,-0.1020714202852624
-0.31660000000000005,-0.1022128914152489
-0.31760000000000005,-0.10241095099723
-0.31860000000000005,-0.10258071635321381
-0.31960000000000005,-0.10273633459619896
-0.32060000000000005,-0.10290609995218276
-0.32160000000000005,-0.10304757108216928
-0.32260000000000005,-0.10324563066415038
-0.32360000000000005,-0.10344369024613147
-0.32460000000000006,-0.10358516137611798
-0.32560000000000006,-0.10378322095809908
-0.32660000000000006,-0.10396713342708154
-0.32760000000000006,-0.10410860455706805
-0.32860000000000006,-0.10430666413904917
-0.32960000000000006,-0.10447642949503295
-0.33060000000000006,-0.10466034196401541
-0.33160000000000006,-0.10487254865899517
-0.33260000000000006,-0.10508475535397492
-0.33360000000000006,-0.10531110916195333
-0.33460000000000006,-0.10550916874393444
-0.33560000000000006,-0.1057213754389142
-0.33660000000000007,-0.10593358213389395
-0.33760000000000007,-0.10617408305487101
-0.33860000000000007,-0.10638628974985076
-0.33960000000000007,-0.10661264355782916
-0.34060000000000007,-0.10683899736580757
-0.34160000000000007,-0.10706535117378597
-0.34260000000000007,-0.10730585209476304
-0.34360000000000007,-0.1075463530157401
-0.3446000000000001,-0.10777270682371849
-0.3456000000000001,-0.10801320774469556
-0.3466000000000001,-0.10825370866567262
-0.34759999999999996,-0.10852250381264696
-0.3486000000000001,-0.10876300473362402
-0.34959999999999997,-0.10901765276759973
-0.3506000000000001,-0.10927230080157543
-0.35159999999999997,-0.10954109594854979
-0.3526000000000001,-0.1097957439825255
-0.35359999999999997,-0.1100503920165012
-0.3546000000000001,-0.11030504005047691
-0.35559999999999997,-0.11058798231044992
-0.3566000000000001,-0.11084263034442562
-0.3576,-0.11112557260439863
-0.3586000000000001,-0.11142266197737029
-0.3596,-0.111677310011346
-0.3606000000000001,-0.11196025227131902
-0.3616,-0.11222904741829336
-0.3626000000000001,-0.11251198967826637
-0.3636,-0.11279493193823936
-0.3646000000000001,-0.11303543285921643
-0.3656,-0.1133325222321881
-0.3666000000000001,-0.11360131737916243
-0.3676,-0.11385596541313814
-0.3686000000000001,-0.11413890767311115
-0.3696,-0.11442184993308416
-0.3706000000000001,-0.11473308641905447
-0.3716,-0.11500188156602882
-0.3726000000000001,-0.11529897093900049
-0.3736,-0.11559606031197216
-0.3746000000000001,-0.11590729679794246
-0.3756,-0.11621853328391277
-0.3766000000000001,-0.11651562265688443
-0.3776,-0.11685515336885204
-0.3786000000000001,-0.11712394851582639
-0.3796,-0.11740689077579938
-0.3806000000000001,-0.11768983303577239
-0.3816,-0.1179727752957454
-0.3826000000000001,-0.11825571755571843
-0.3836,-0.11856695404168872
-0.3846000000000001,-0.11883574918866308
-0.3856,-0.11913283856163473
-0.3866000000000001,-0.11942992793460638
-0.3876,-0.11978360575957266
-0.3886000000000001,-0.12006654801954567
-0.3896,-0.12037778450551596
-0.3906000000000001,-0.12070316810448493
-0.3916,-0.12101440459045523
-0.3926000000000001,-0.12132564107642556
-0.3936,-0.1216227304493972
-0.3946000000000001,-0.1219622611613648
-0.3956,-0.12225935053433647
-0.3966000000000001,-0.12258473413330541
-0.3976,-0.12293841195827168
-0.3986000000000001,-0.12329208978323794
-0.3996,-0.12363162049520555
-0.4006000000000001,-0.12399944543317046
-0.4016,-0.12438141748413403
-0.4026000000000001,-0.12476338953509758
-0.4036,-0.12511706736006384
-0.4046000000000001,-0.1254424509590328
-0.4056,-0.1258102758969977
-0.40660000000000013,-0.12616395372196398
-0.4076,-0.12653177865992887
-0.40860000000000013,-0.12694204493688974
-0.4096,-0.127295722761856
-0.41060000000000013,-0.12767769481281957
-0.4116,-0.12807381397678178
-0.41260000000000013,-0.12846993314074398
-0.4136,-0.12886605230470619
-0.41460000000000014,-0.1292338772426711
-0.4156,-0.12964414351963197
-0.41660000000000014,-0.13009685113558878
-0.4176,-0.13052126452554827
-0.41860000000000014,-0.13095982502850645
-0.41960000000000003,-0.1313983855314646
-0.42060000000000014,-0.13186524026042007
-0.42160000000000003,-0.13231794787637688
-0.42260000000000014,-0.13278480260533235
-0.42360000000000003,-0.1332233631082905
-0.42460000000000014,-0.13366192361124865
-0.42560000000000003,-0.1341146312272055
-0.42660000000000015,-0.13458148595616093
-0.42760000000000004,-0.13506248779811506
-0.42860000000000015,-0.1355576367530678
-0.42960000000000004,-0.13603863859502194
-0.43060000000000015,-0.13647719909798006
-0.43160000000000004,-0.1369016124879396
-0.43260000000000015,-0.13742505566888966
-0.43360000000000004,-0.13789191039784512
-0.43460000000000015,-0.1384153535787952
-0.43560000000000004,-0.1389529438727439
-0.43660000000000015,-0.13944809282769668
