Potential V vs RHE, Current mA cm-2
0.4132999999999999,-0.016693593338407434
0.4122999999999999,-0.018094157525273817
0.4112999999999999,-0.018461982463238727
0.4102999999999999,-0.018660042045219833
0.4092999999999999,-0.018843954514202284
0.4082999999999999,-0.018957131418191494
0.4072999999999999,-0.019042014096183394
0.4062999999999999,-0.0191551910001726
0.4052999999999999,-0.0192683679041618
0.4042999999999999,-0.019381544808151
0.4032999999999999,-0.019466427486142905
0.4022999999999999,-0.019537163051136158
0.4012999999999999,-0.01965033995512536
0.4002999999999999,-0.019721075520118612
0.3992999999999999,-0.019862546650105117
0.3982999999999999,-0.019961576441095665
0.3972999999999999,-0.020018164893090266
0.3962999999999999,-0.02008890045808352
0.3952999999999999,-0.020131341797079472
0.3942999999999999,-0.02020207736207272
0.39329999999999987,-0.020258665814067326
0.39229999999999987,-0.020301107153063276
0.39129999999999987,-0.02041428405705248
0.39029999999999987,-0.020513313848043033
0.38929999999999987,-0.020626490752032236
0.38829999999999987,-0.02071137343002414
0.38729999999999987,-0.020725520543022787
0.38629999999999987,-0.02078210899501739
0.38529999999999986,-0.020838697447011986
0.38429999999999986,-0.02088113878600794
0.38329999999999986,-0.020951874351001196
0.38229999999999986,-0.021008462802995797
0.38129999999999986,-0.021121639706984996
0.38029999999999986,-0.0212065223849769
0.37929999999999986,-0.0212631108369715
0.37829999999999986,-0.021305552175967454
0.37729999999999986,-0.021333846401964753
0.37629999999999986,-0.021390434853959358
0.37529999999999986,-0.021432876192955305
0.37429999999999986,-0.02150361175794856
0.37329999999999985,-0.021602641548939108
0.37229999999999985,-0.021687524226931015
0.37129999999999985,-0.021715818452928314
0.37029999999999985,-0.021786554017921567
0.36929999999999985,-0.021843142469916164
0.36829999999999985,-0.021871436695913467
0.36729999999999985,-0.021928025147908068
0.36629999999999985,-0.02198461359990267
0.36529999999999985,-0.02205534916489592
0.36429999999999985,-0.022140231842887825
0.36329999999999985,-0.02218267318188378
0.36229999999999984,-0.022239261633878377
0.36129999999999984,-0.022295850085872978
0.36029999999999984,-0.02235243853786758
0.35929999999999984,-0.02240902698986218
0.35829999999999984,-0.02245146832885813
0.35729999999999984,-0.022493909667854084
0.35629999999999984,-0.022564645232847336
0.35529999999999984,-0.022621233684841938
0.35429999999999984,-0.02267782213683654
0.35329999999999984,-0.02273441058883114
0.35229999999999984,-0.02274855770182979
0.35129999999999983,-0.022819293266823044
0.35029999999999983,-0.02287588171881764
0.34929999999999983,-0.022946617283810897
0.34829999999999983,-0.023031499961802798
0.34729999999999983,-0.0230880884137974
0.34629999999999983,-0.023158823978790648
0.34529999999999983,-0.0232012653177866
0.34429999999999983,-0.02324370665678255
0.3432999999999998,-0.023286147995778505
0.3422999999999998,-0.023300295108777156
0.3412999999999998,-0.023399324899767704
0.3402999999999998,-0.02345591335176231
0.3392999999999998,-0.02352664891675556
0.3382999999999998,-0.02359738448174881
0.3372999999999998,-0.023625678707746112
0.3362999999999998,-0.023668120046742062
0.3352999999999998,-0.023724708498736664
0.3342999999999998,-0.023767149837732617
0.3332999999999998,-0.023823738289727222
0.3322999999999998,-0.02388032674172182
0.3312999999999998,-0.02395106230671507
0.3302999999999998,-0.024021797871708325
0.3292999999999998,-0.024064239210704275
0.3282999999999998,-0.024092533436701577
0.3272999999999998,-0.024134974775697527
0.3262999999999998,-0.02417741611469348
0.3252999999999999,-0.02424815167968673
0.3242999999999999,-0.024318887244679982
0.3232999999999999,-0.02436132858367593
0.3222999999999999,-0.024417917035670533
0.3212999999999999,-0.02447450548766513
0.3202999999999999,-0.024502799713662437
0.3192999999999999,-0.024559388165657038
0.3182999999999999,-0.024601829504652988
0.3172999999999999,-0.024630123730650287
0.3162999999999999,-0.024729153521640842
0.3152999999999999,-0.024771594860636792
0.3142999999999999,-0.024814036199632745
0.3132999999999999,-0.024870624651627343
0.3122999999999999,-0.024898918877624646
0.3112999999999999,-0.024955507329619247
0.3102999999999999,-0.0250262428946125
0.3092999999999999,-0.0251111255726044
0.3082999999999999,-0.025139419798601705
0.3072999999999999,-0.025139419798601705
0.3062999999999999,-0.025210155363594954
0.3052999999999999,-0.025266743815589552
0.3042999999999999,-0.025295038041586858
0.3032999999999999,-0.025365773606580107
0.3022999999999999,-0.02540821494557606
0.3012999999999999,-0.025493097623567964
0.3002999999999999,-0.02553553896256391
0.2992999999999999,-0.025577980301559864
0.2982999999999999,-0.025634568753554465
0.2972999999999999,-0.025662862979551764
0.2962999999999999,-0.02573359854454502
0.2952999999999999,-0.025790186996539618
0.2942999999999999,-0.025846775448534223
0.2932999999999999,-0.02587506967453152
0.2922999999999999,-0.02591751101352747
0.2912999999999999,-0.025959952352523425
0.2902999999999999,-0.026030687917516674
0.2892999999999999,-0.026101423482509926
0.2882999999999999,-0.02612971770850723
0.2872999999999999,-0.026186306160501827
0.2862999999999999,-0.02622874749949778
0.2852999999999999,-0.02627118883849373
0.2842999999999999,-0.026341924403486983
0.2832999999999999,-0.026356071516485634
0.2822999999999999,-0.026412659968480235
0.2812999999999999,-0.026469248420474833
0.2802999999999999,-0.02649754264647214
0.2792999999999999,-0.02655413109846674
0.2782999999999999,-0.02661071955046134
0.2772999999999999,-0.026639013776458643
0.2762999999999999,-0.026695602228453245
0.2752999999999999,-0.026752190680447843
0.2742999999999999,-0.026837073358439746
0.2732999999999999,-0.026907808923433
0.2722999999999999,-0.0269643973754276
0.2712999999999999,-0.02703513294042085
0.2702999999999999,-0.02709172139241545
0.2692999999999999,-0.027148309844410055
0.26829999999999987,-0.027176604070407354
0.26729999999999987,-0.027190751183406005
0.26629999999999987,-0.027247339635400606
0.26529999999999987,-0.027289780974396556
0.26429999999999987,-0.02736051653938981
0.26329999999999987,-0.02743125210438306
0.26229999999999987,-0.027459546330380363
0.26129999999999987,-0.027487840556377662
0.26029999999999986,-0.027544429008372267
0.25929999999999986,-0.027586870347368214
0.25829999999999986,-0.027615164573365516
0.25729999999999986,-0.027671753025360117
0.25629999999999986,-0.027714194364356067
0.25529999999999986,-0.027813224155346622
0.25429999999999986,-0.027869812607341227
0.25329999999999986,-0.027898106833338522
0.25229999999999986,-0.027926401059335824
0.25129999999999986,-0.02796884239833177
0.25029999999999986,-0.027997136624329073
0.24929999999999986,-0.028053725076323675
0.24829999999999985,-0.02811031352831828
0.24729999999999985,-0.02815275486731423
0.24629999999999985,-0.02820934331930883
0.24529999999999985,-0.028265931771303435
0.24429999999999985,-0.028336667336296688
0.24329999999999985,-0.028336667336296688
0.24229999999999985,-0.028393255788291286
0.24129999999999985,-0.02847813846628319
0.24029999999999985,-0.02854887403127644
0.23929999999999985,-0.028633756709268345
0.23829999999999985,-0.028662050935265648
0.23729999999999984,-0.028676198048264292
0.23629999999999984,-0.028761080726256192
0.23529999999999984,-0.028746933613257548
0.23429999999999984,-0.028817669178250797
0.23329999999999984,-0.028845963404248096
0.23229999999999984,-0.028916698969241348
0.23129999999999984,-0.029015728760231903
0.23029999999999984,-0.029058170099227856
0.22929999999999984,-0.029114758551222454
0.22829999999999984,-0.029157199890218404
0.22729999999999984,-0.029185494116215707
0.22629999999999983,-0.02927037679420761
0.22529999999999983,-0.029326965246202208
0.22429999999999983,-0.029369406585198165
0.22329999999999983,-0.02941184792419411
0.22229999999999983,-0.029440142150191414
0.22129999999999983,-0.029525024828183317
0.22029999999999983,-0.029581613280177915
0.21929999999999983,-0.029609907506175218
0.21829999999999983,-0.029652348845171168
0.21729999999999983,-0.02968064307116847
0.21629999999999983,-0.029765525749160374
0.21529999999999982,-0.029807967088156324
0.21429999999999982,-0.02986455554015093
0.21329999999999982,-0.029906996879146875
0.21229999999999982,-0.029949438218142825
0.21129999999999982,-0.03000602667013743
0.21029999999999982,-0.03006261512213203
0.20929999999999982,-0.03010505646112798
0.20829999999999982,-0.030133350687125283
0.20729999999999982,-0.030204086252118532
0.20629999999999982,-0.030246527591114486
0.20529999999999982,-0.030288968930110433
0.20429999999999982,-0.030359704495103685
0.20329999999999981,-0.030387998721100987
0.2022999999999998,-0.03044458717309559
0.2012999999999998,-0.030501175625090193
0.20029999999999992,-0.030543616964086147
0.19929999999999992,-0.030600205416080745
0.19829999999999992,-0.030614352529079396
0.19729999999999992,-0.030670940981073994
0.19629999999999992,-0.030741676546067253
0.19529999999999992,-0.03082655922405915
0.19429999999999992,-0.030968030354045658
0.19329999999999992,-0.03099632458004295
0.19229999999999992,-0.03099632458004295
0.19129999999999991,-0.031010471693041605
0.1902999999999999,-0.031052913032037555
0.1892999999999999,-0.031081207258034853
0.1882999999999999,-0.031123648597030807
0.1872999999999999,-0.031180237049025412
0.1862999999999999,-0.03127926684001596
0.1852999999999999,-0.03133585529201056
0.1842999999999999,-0.03136414951800787
0.1832999999999999,-0.03139244374400516
0.1822999999999999,-0.031434885083001116
0.1812999999999999,-0.03149147353499571
0.1802999999999999,-0.03156220909998896
0.1792999999999999,-0.03160465043898492
0.1782999999999999,-0.03161879755198357
0.1772999999999999,-0.03166123889097952
0.1762999999999999,-0.031731974455972776
0.1752999999999999,-0.031788562907967374
0.1742999999999999,-0.03184515135996198
0.1732999999999999,-0.031887592698957926
0.1722999999999999,-0.03195832826395118
0.1712999999999999,-0.03200076960294713
0.1702999999999999,-0.03204321094194308
0.1692999999999999,-0.03209979939393768
0.1682999999999999,-0.03212809361993498
0.1672999999999999,-0.032184682071929586
0.1662999999999999,-0.03224127052392419
0.1652999999999999,-0.03228371186292014
0.1642999999999999,-0.03236859454091204
0.1632999999999999,-0.03239688876690934
0.1622999999999999,-0.032453477218903945
0.1612999999999999,-0.03249591855789989
0.1602999999999999,-0.032524212783897194
0.1592999999999999,-0.03259494834889044
0.15829999999999989,-0.032637389687886396
0.15729999999999988,-0.032693978139880994
0.15629999999999988,-0.0327788608178729
0.15529999999999988,-0.0328354492698675
0.15429999999999988,-0.03290618483486075
0.15329999999999988,-0.03293447906085806
0.15229999999999988,-0.032976920399854
0.15129999999999988,-0.03303350885184861
0.15029999999999988,-0.033061803077845904
0.14929999999999988,-0.03311839152984051
0.14829999999999988,-0.03318912709483376
0.14729999999999988,-0.03324571554682836
0.14629999999999987,-0.03333059822482026
0.14529999999999987,-0.033358892450817565
0.14429999999999987,-0.03340133378981351
0.14329999999999987,-0.03342962801581082
0.14229999999999987,-0.03351451069380272
0.14129999999999987,-0.03357109914579732
0.14029999999999987,-0.033655981823789226
0.13929999999999987,-0.033698423162785165
0.13829999999999987,-0.033726717388782475
0.13729999999999987,-0.03376915872777843
0.13629999999999987,-0.03381160006677438
0.13529999999999986,-0.03388233563176763
0.13429999999999986,-0.03393892408376223
0.13329999999999986,-0.034009659648755484
0.13229999999999986,-0.03408039521374873
0.13129999999999986,-0.03415113077874199
0.13029999999999986,-0.03420771923073659
0.12929999999999986,-0.034264307682731185
0.12829999999999986,-0.034264307682731185
0.12729999999999986,-0.03432089613472579
0.12629999999999986,-0.034377484586720394
0.12529999999999986,-0.03444822015171364
0.12429999999999986,-0.034547249942704195
0.12329999999999985,-0.03458969128170015
0.12229999999999985,-0.0346321326206961
0.12129999999999985,-0.0346604268466934
0.12029999999999985,-0.0346887210726907
0.11929999999999985,-0.03475945663768395
0.11829999999999985,-0.03478775086368125
0.11729999999999985,-0.03487263354167316
0.11629999999999985,-0.034929221993667756
0.11529999999999985,-0.034999957558661005
0.11429999999999985,-0.0350565460106556
0.11329999999999985,-0.03509898734965156
0.11229999999999984,-0.03514142868864751
0.11129999999999984,-0.03518387002764346
0.11029999999999984,-0.03524045847963807
0.10929999999999984,-0.03526875270563536
0.10829999999999984,-0.03533948827062862
0.10729999999999984,-0.035381929609624566
0.10629999999999984,-0.03543851806161917
0.10529999999999984,-0.03552340073961108
0.10429999999999984,-0.035579989191605675
0.10329999999999984,-0.03560828341760297
0.10229999999999984,-0.035664871869597575
0.10129999999999983,-0.03572146032159217
0.10029999999999983,-0.03577804877358678
0.09929999999999983,-0.03584878433858003
0.09829999999999983,-0.03591951990357328
0.09729999999999983,-0.03599025546856653
0.09629999999999983,-0.03606099103355979
0.09529999999999983,-0.036117579485554385
0.09429999999999983,-0.036160020824550346
0.09329999999999983,-0.036216609276544943
0.09229999999999983,-0.03627319772853954
0.09129999999999983,-0.03631563906753549
0.09029999999999982,-0.03637222751953009
0.08929999999999982,-0.036457110197522
0.08829999999999982,-0.036499551536517946
0.08729999999999982,-0.036584434214509846
0.08629999999999982,-0.0366268755535058
0.08529999999999982,-0.03669761111849905
0.08429999999999982,-0.036782493796490956
0.08329999999999982,-0.036839082248485554
0.08229999999999982,-0.03695225915247476
0.08129999999999982,-0.03700884760446936
0.08029999999999982,-0.03705128894346531
0.07929999999999982,-0.03710787739545991
0.07829999999999981,-0.03712202450845856
0.07729999999999981,-0.03719276007345181
0.07629999999999981,-0.03726349563844507
0.07529999999999992,-0.03733423120343832
0.07429999999999992,-0.037404966768431566
0.07329999999999992,-0.03744740810742752
0.07229999999999992,-0.037518143672420776
0.07129999999999992,-0.03761717346341132
0.07029999999999992,-0.03770205614140323
0.06929999999999992,-0.03778693881939513
0.06829999999999992,-0.03785767438438838
0.06729999999999992,-0.03791426283638299
0.06629999999999991,-0.037956704175378934
0.06529999999999991,-0.03801329262737353
0.06429999999999991,-0.038041586853370835
0.06329999999999991,-0.038112322418364084
0.06229999999999991,-0.03819720509635599
0.06129999999999991,-0.03825379354835059
0.06029999999999991,-0.03832452911334384
0.05929999999999991,-0.0383669704523398
0.05829999999999991,-0.03843770601733305
0.05729999999999991,-0.038494294469327645
0.056299999999999906,-0.0385367358083236
0.055299999999999905,-0.038621618486315505
0.054299999999999904,-0.03866405982531145
0.0532999999999999,-0.03872064827730605
0.0522999999999999,-0.03880553095529796
0.0512999999999999,-0.03883382518129525
0.0502999999999999,-0.03893285497228581
0.0492999999999999,-0.039003590537279066
0.0482999999999999,-0.039060178989273664
0.0472999999999999,-0.039159208780264215
0.0462999999999999,-0.03920165011926016
0.045299999999999896,-0.03927238568425342
0.044299999999999895,-0.039343121249246674
0.043299999999999894,-0.03938556258824262
0.04229999999999989,-0.03949873949223183
0.04129999999999989,-0.039597769283222374
0.04029999999999989,-0.039696799074212925
0.03929999999999989,-0.03975338752620753
0.03829999999999989,-0.03978168175220483
0.03729999999999989,-0.03983827020419943
0.03629999999999989,-0.039909005769192686
0.03529999999999989,-0.03999388844718459
0.034299999999999886,-0.04006462401217784
0.033299999999999885,-0.04013535957717109
0.032299999999999884,-0.04020609514216435
0.031299999999999883,-0.040276830707157596
0.030299999999999883,-0.040333419159152194
0.02929999999999988,-0.040361713385149496
0.02829999999999988,-0.04043244895014275
0.02729999999999988,-0.040503184515136
0.02629999999999988,-0.04058806719312791
0.025299999999999878,-0.04068709698411845
0.024299999999999877,-0.04074368543611305
0.023299999999999876,-0.040800273888107655
0.022299999999999875,-0.04085686234010226
0.021299999999999875,-0.04091345079209686
0.020299999999999874,-0.04098418635709011
0.019299999999999873,-0.04102662769608607
0.018299999999999872,-0.04111151037407796
0.01729999999999987,-0.04119639305206987
0.01629999999999987,-0.04126712861706312
0.01529999999999987,-0.041366158408053674
0.014299999999999868,-0.04140859974704963
0.013299999999999867,-0.041451041086045574
0.012299999999999978,-0.041550070877036126
0.011299999999999866,-0.041578365103033435
0.010299999999999976,-0.04167739489402397
0.009299999999999864,-0.041748130459017235
0.008299999999999974,-0.04180471891101184
0.007299999999999862,-0.04190374870200239
0.006299999999999972,-0.04194619004099834
0.00529999999999986,-0.04204521983198889
0.0042999999999999705,-0.04208766117098484
0.0032999999999998586,-0.04214424962297945
0.0022999999999999687,-0.04224327941396999
0.0012999999999998568,-0.042299867865964604
0.00029999999999996696,-0.04237060343095785
-0.000700000000000145,-0.04242719188295245
-0.0017000000000000348,-0.0424696332219484
-0.0027000000000001467,-0.042526221673943
-0.0037000000000000366,-0.04261110435193491
-0.0047000000000001485,-0.042653545690930855
-0.005700000000000038,-0.04272428125592411
-0.00670000000000015,-0.04279501682091736
-0.00770000000000004,-0.04287989949890925
-0.008700000000000152,-0.04299307640289847
-0.009700000000000042,-0.04306381196789172
-0.010700000000000154,-0.04314869464588362
-0.011700000000000044,-0.043205283097878217
-0.012700000000000156,-0.04324772443687417
-0.013700000000000045,-0.04333260711486608
-0.014700000000000157,-0.043389195566860675
-0.015700000000000047,-0.04341748979285798
-0.01670000000000016,-0.043459931131853924
-0.01770000000000005,-0.04351651958384853
-0.01870000000000016,-0.04358725514884178
-0.01970000000000005,-0.04370043205283098
-0.020700000000000163,-0.043742873391826934
-0.021700000000000053,-0.04379946184382154
-0.022700000000000164,-0.04388434452181344
-0.023700000000000054,-0.04392678586080939
-0.024700000000000166,-0.04399752142580264
-0.025700000000000056,-0.044025815651799936
-0.026700000000000168,-0.04408240410379454
-0.027700000000000058,-0.04416728678178644
-0.02870000000000017,-0.04423802234677969
-0.02970000000000006,-0.0443229050247716
-0.03070000000000017,-0.0443511992507689
-0.03170000000000006,-0.044393640589764846
-0.03270000000000017,-0.044464376154758095
-0.03370000000000006,-0.0445209646067527
-0.034700000000000175,-0.044591700171745956
-0.035700000000000065,-0.04464828862374056
-0.03670000000000018,-0.04470487707573516
-0.03770000000000007,-0.04478975975372706
-0.03870000000000018,-0.04488878954471761
-0.03970000000000007,-0.044959525109710866
-0.04070000000000018,-0.04500196644870682
-0.04170000000000007,-0.045030260674704115
-0.04270000000000018,-0.04508684912669872
-0.04370000000000007,-0.045143437578693324
-0.044700000000000184,-0.04521417314368657
-0.045700000000000074,-0.04529905582167848
-0.046700000000000186,-0.04538393849967037
-0.047700000000000076,-0.04544052695166498
-0.04870000000000019,-0.04548296829066093
-0.04970000000000008,-0.04552540962965688
-0.05070000000000019,-0.04558199808165148
-0.05170000000000008,-0.04563858653364609
-0.05270000000000019,-0.04572346921163799
-0.05370000000000008,-0.04580835188962989
-0.05470000000000019,-0.04586494034162449
-0.05570000000000008,-0.04590738168062044
-0.056700000000000195,-0.04593567590661774
-0.057700000000000085,-0.04599226435861234
-0.058700000000000196,-0.046048852810606944
-0.059700000000000086,-0.04613373548859885
-0.0607000000000002,-0.0461761768275948
-0.06170000000000009,-0.046303500844582644
-0.0627000000000002,-0.04638838352257455
-0.06370000000000009,-0.046416677748571854
-0.0647000000000002,-0.04647326620056645
-0.06570000000000009,-0.046515707539562405
-0.0667000000000002,-0.046529854652561056
-0.0677000000000001,-0.04662888444355161
