Potential V vs RHE, Current mA cm-2
0.013299999999999867,-0.09093764235532456
0.012299999999999978,-0.12786160728180201
0.011299999999999866,-0.14444202371622025
0.010299999999999976,-0.155335300725181
0.009299999999999864,-0.1659456354741688
0.008299999999999974,-0.17047271163373692
0.007299999999999862,-0.17400948988339954
0.006299999999999972,-0.17966833508285968
0.00529999999999986,-0.1857515936722793
0.0042999999999999705,-0.19282515017160448
0.0032999999999998586,-0.19565457277133455
0.0022999999999999687,-0.1965033995512536
0.0012999999999998568,-0.2010304757108217
0.00029999999999996696,-0.20640637865030886
-0.000700000000000145,-0.21234816610974203
-0.0017000000000000348,-0.21404581966958006
-0.0027000000000001467,-0.21461170418952608
-0.0037000000000000366,-0.21843142469916169
-0.0047000000000001485,-0.2250805678085273
-0.005700000000000038,-0.22918323057813594
-0.00670000000000015,-0.23116382639794697
-0.00770000000000004,-0.23201265317786599
-0.008700000000000152,-0.23554943142752863
-0.009700000000000042,-0.24149121888696176
-0.010700000000000154,-0.24757447747638137
-0.011700000000000044,-0.2477159486063679
-0.012700000000000156,-0.24997948668615194
-0.013700000000000045,-0.252243024765936
-0.014700000000000157,-0.25903363900528825
-0.015700000000000047,-0.26440954194477534
-0.01670000000000016,-0.2656827821146539
-0.01770000000000005,-0.26752190680447846
-0.01870000000000016,-0.27049280053419505
-0.01970000000000005,-0.2770004725135742
-0.020700000000000163,-0.28350814449295336
-0.021700000000000053,-0.2844984424028589
-0.022700000000000164,-0.28647903822266996
-0.023700000000000054,-0.2917134700321706
-0.024700000000000166,-0.29751378636161724
-0.025700000000000056,-0.3035970449510369
-0.026700000000000168,-0.3051532273808884
-0.027700000000000058,-0.308124121110605
-0.02870000000000017,-0.31406590857003813
-0.02970000000000006,-0.32000769602947127
-0.03070000000000017,-0.32708125252879644
-0.03170000000000006,-0.32948626173856704
-0.03270000000000017,-0.33288156885824316
-0.03370000000000006,-0.33995512535756833
-0.034700000000000175,-0.345755441687015
-0.035700000000000065,-0.3535363538362727
-0.03670000000000018,-0.3586293145157868
-0.03770000000000007,-0.36018549694563834
-0.03870000000000018,-0.368249351354869
-0.03970000000000007,-0.3767376191540593
-0.04070000000000018,-0.3855088292132225
-0.04170000000000007,-0.39060178989273664
-0.04270000000000018,-0.3951288660523047
-0.04370000000000007,-0.40262683594158943
-0.044700000000000184,-0.41408599747049624
-0.045700000000000074,-0.4221498518797269
-0.046700000000000186,-0.4280916393391601
-0.047700000000000076,-0.4338919556686068
-0.04870000000000019,-0.443511992507689
-0.04970000000000008,-0.4556785096865283
-0.05070000000000019,-0.464308248615705
-0.05170000000000008,-0.47223063189494924
-0.05270000000000019,-0.48015301517419345
-0.05370000000000008,-0.48949010975330265
-0.05470000000000019,-0.5032128093619935
-0.05570000000000008,-0.5143890286309274
-0.056700000000000195,-0.5224528830401581
-0.057700000000000085,-0.5329217466591593
-0.058700000000000196,-0.5424003123682551
-0.059700000000000086,-0.5585280211867165
-0.0607000000000002,-0.5712604228855018
-0.06170000000000009,-0.5815878153745165
-0.0627000000000002,-0.5907834388236393
-0.06370000000000009,-0.6033743693924382
-0.0647000000000002,-0.6195020782108995
-0.06570000000000009,-0.6333662489495769
-0.0667000000000002,-0.6438351125685782
-0.0677000000000001,-0.6551528029674984
-0.0687000000000002,-0.670148742746068
-0.0697000000000001,-0.6847202691346778
-0.07070000000000021,-0.7001406223032067
-0.0717000000000001,-0.7113168415721405
-0.07270000000000021,-0.7223515897110878
-0.0737000000000001,-0.7384792985295492
-0.07470000000000021,-0.753899651698078
-0.0757000000000001,-0.768471178086688
-0.07670000000000021,-0.7824768199553517
-0.0777000000000001,-0.7930871547043395
-0.07870000000000021,-0.808931921262828
-0.0797000000000001,-0.8246352166913299
-0.08070000000000022,-0.8403385121198318
-0.0817000000000001,-0.8526465004286576
-0.08270000000000022,-0.863681248567605
-0.08370000000000011,-0.8781113038262282
-0.08470000000000022,-0.8962196084645007
-0.08570000000000011,-0.9109326059830971
-0.08670000000000022,-0.9230991231619364
-0.08770000000000011,-0.9342753424308702
-0.08870000000000022,-0.9488468688194802
-0.08970000000000011,-0.966530760067793
-0.09070000000000022,-0.9809608153264163
-0.09170000000000011,-0.9921370345953502
-0.09270000000000023,-1.004445022904176
-0.09370000000000012,-1.0178847802528939
-0.09470000000000023,-1.0348613158512743
-0.09570000000000012,-1.0490084288499246
-0.09670000000000023,-1.060043176988872
-0.09770000000000012,-1.072917049817644
-0.09870000000000023,-1.0850835669964831
-0.09970000000000012,-1.1023430448548366
-0.10070000000000023,-1.1160657444635274
-0.10170000000000012,-1.1263931369525422
-0.10270000000000024,-1.1368620005715435
-0.10370000000000013,-1.151292055830167
-0.10470000000000024,-1.1671368223886553
-0.10570000000000013,-1.181425406517292
-0.10670000000000024,-1.1913283856163475
-0.10770000000000013,-1.201655778105362
-0.10870000000000024,-1.2155199488440396
-0.10970000000000013,-1.22966706184269
-0.11070000000000024,-1.2440971171013133
-0.11170000000000013,-1.2532927405504362
-0.11270000000000002,-1.2633371907794777
-0.11370000000000013,-1.276352534738236
-0.11470000000000002,-1.289509349826981
-0.11570000000000014,-1.3025246937857393
-0.11670000000000003,-1.3134179707947
-0.11770000000000014,-1.3204915272940252
-0.11870000000000003,-1.3329409867328375
-0.11970000000000014,-1.3475125131214474
-0.12070000000000003,-1.3593960880403138
-0.12170000000000014,-1.3691575960093827
-0.12270000000000003,-1.3762311525087079
-0.12370000000000014,-1.3891050253374793
-0.12470000000000003,-1.4033936094661164
-0.12570000000000014,-1.4137210019551312
-0.12670000000000003,-1.423199567664227
-0.12770000000000015,-1.431687835463417
-0.12870000000000004,-1.4430055258623373
-0.12970000000000015,-1.4557379275611226
-0.13070000000000004,-1.4656409066601779
-0.13170000000000015,-1.4755438857592333
-0.13270000000000004,-1.4826174422585585
-0.13370000000000015,-1.4939351326574788
-0.13470000000000004,-1.506667534356264
-0.13570000000000015,-1.5179852247551844
-0.13670000000000004,-1.5264734925543744
-0.13770000000000016,-1.5349617603535646
-0.13870000000000005,-1.54486473945262
-0.13970000000000016,-1.5590118524512704
-0.14070000000000005,-1.5689148315503256
-0.14170000000000016,-1.5759883880496508
-0.14270000000000005,-1.584476655848841
-0.14370000000000016,-1.5957943462477613
-0.14470000000000005,-1.6085267479465466
-0.14570000000000016,-1.6198444383454669
-0.14670000000000005,-1.626917994844792
-0.14770000000000016,-1.6339915513441174
-0.14870000000000005,-1.6453092417430377
-0.14970000000000017,-1.658041643441823
-0.15070000000000006,-1.6693593338407433
-0.15170000000000017,-1.6764328903400685
-0.15270000000000006,-1.6835064468393939
-0.15370000000000017,-1.694824137238314
-0.15470000000000006,-1.7061418276372344
-0.15570000000000017,-1.7174595180361545
-0.15670000000000006,-1.7259477858353447
-0.15770000000000017,-1.7316066310348048
-0.15870000000000006,-1.7443390327335901
-0.15970000000000018,-1.7556567231325106
-0.16070000000000007,-1.766974413531431
-0.16170000000000018,-1.775462681330621
-0.16270000000000007,-1.7825362378299463
-0.16370000000000018,-1.7938539282288664
-0.16470000000000007,-1.8065863299276517
-0.16570000000000018,-1.8164893090267071
-0.16670000000000007,-1.8249775768258971
-0.16770000000000018,-1.8320511333252225
-0.16870000000000007,-1.8419541124242775
-0.16970000000000018,-1.8561012254229279
-0.17070000000000007,-1.8660042045219833
-0.17170000000000019,-1.8730777610213083
-0.17270000000000008,-1.8815660288204987
-0.1737000000000002,-1.890054296619689
-0.17470000000000008,-1.9042014096183393
-0.1757000000000002,-1.9141043887173947
-0.17670000000000008,-1.92117794521672
-0.1777000000000002,-1.9310809243157752
-0.17870000000000008,-1.9395691921149654
-0.1797000000000002,-1.9523015938137507
-0.18070000000000008,-1.9622045729128061
-0.1817000000000002,-1.9692781294121309
-0.18270000000000008,-1.9777663972113213
-0.1837000000000002,-1.9890840876102414
-0.1847000000000001,-2.0004017780091616
-0.1857000000000002,-2.013134179707947
-0.1867000000000001,-2.0187930249074073
-0.1877000000000002,-2.0286960040064623
-0.1887000000000001,-2.038598983105518
-0.1897000000000002,-2.049916673504438
-0.1907000000000001,-2.0598196526034935
-0.1917000000000001,-2.0668932091028185
-0.19269999999999998,-2.072552054302279
-0.1937000000000001,-2.083869744701199
-0.19469999999999998,-2.0937727238002544
-0.1957000000000001,-2.1065051254990395
-0.19669999999999999,-2.1121639706984996
-0.1977000000000001,-2.1192375271978254
-0.1987,-2.1305552175967453
-0.1997000000000001,-2.1432876192955304
-0.2007,-2.1531905983945863
-0.2017000000000001,-2.158849443594046
-0.2027,-2.1673377113932366
-0.2037000000000001,-2.177240690492291
-0.2047,-2.1899730921910767
-0.2057000000000001,-2.1984613599902674
-0.2067,-2.206949627789457
-0.2077000000000001,-2.2140231842887825
-0.2087,-2.225340874687703
-0.2097000000000001,-2.238073276386488
-0.2107,-2.2465615441856785
-0.2117000000000001,-2.2550498119848683
-0.2127,-2.263538079784059
-0.2137000000000001,-2.272026347583249
-0.2147,-2.2890028831816296
-0.2157000000000001,-2.3003205735805494
-0.2167,-2.30597941878001
-0.21770000000000012,-2.3144676865791998
-0.2187,-2.3243706656782552
-0.21970000000000012,-2.3371030673770408
-0.2207,-2.348420757775961
-0.22170000000000012,-2.355494314275286
-0.2227,-2.3653972933743415
-0.22370000000000012,-2.3753002724733965
-0.2247,-2.389447385472047
-0.22570000000000012,-2.4007650758709675
-0.2267,-2.407838632370292
-0.22770000000000012,-2.417741611469348
-0.22870000000000001,-2.430474013168133
-0.22970000000000013,-2.4446211261667834
-0.23070000000000002,-2.4559388165657037
-0.23170000000000013,-2.464427084364894
-0.23270000000000002,-2.4743300634639493
-0.23370000000000013,-2.4884771764625997
-0.23470000000000002,-2.50262428946125
-0.23570000000000013,-2.5167714024599
-0.23670000000000002,-2.5266743815589554
-0.2376999999999999,-2.536577360658011
-0.23870000000000002,-2.549309762356796
-0.2396999999999999,-2.5662862979551764
-0.24070000000000003,-2.5804334109538267
-0.24169999999999991,-2.5931658126526123
-0.24270000000000003,-2.6030687917516673
-0.24369999999999992,-2.618630616050183
-0.24470000000000003,-2.6356071516485633
-0.24569999999999992,-2.6511689759470785
-0.24670000000000003,-2.663901377645864
-0.24769999999999992,-2.6752190680447843
-0.24870000000000003,-2.6921956036431647
-0.24969999999999992,-2.712001561841275
-0.25070000000000003,-2.7261486748399255
-0.2516999999999999,-2.740295787838576
-0.25270000000000004,-2.754442900837226
-0.2536999999999999,-2.7714194364356066
-0.25470000000000004,-2.7926401059335824
-0.2556999999999999,-2.811031352831828
-0.25670000000000004,-2.8251784658304784
-0.25769999999999993,-2.840740290128994
-0.25870000000000004,-2.8619609596269693
-0.25969999999999993,-2.8831816291249446
-0.26070000000000004,-2.9029875873230555
-0.26169999999999993,-2.9185494116215707
-0.26270000000000004,-2.9369406585198163
-0.26369999999999993,-2.9581613280177916
-0.26470000000000005,-2.9822114201154974
-0.26569999999999994,-3.003432089613473
-0.26670000000000005,-3.024652759111448
-0.26769999999999994,-3.044458717309559
-0.26870000000000005,-3.0685088094072643
-0.26969999999999994,-3.0939736128048354
-0.27070000000000005,-3.1180237049025408
-0.27169999999999994,-3.1378296631006513
-0.27270000000000005,-3.161879755198357
-0.27369999999999994,-3.1887592698957925
-0.27470000000000006,-3.2156387845932284
-0.27569999999999995,-3.243933010590529
-0.27670000000000006,-3.267983102688235
-0.27769999999999995,-3.2920331947859403
-0.27870000000000006,-3.3203274207832414
-0.27969999999999995,-3.351451069380272
-0.28070000000000006,-3.379745295377573
-0.28169999999999995,-3.4066248100750083
-0.28270000000000006,-3.432089613472579
-0.28369999999999995,-3.4617985507697444
-0.28470000000000006,-3.4957516219665052
-0.28569999999999995,-3.525460559263671
-0.28670000000000007,-3.555169496560837
-0.28769999999999996,-3.583463722558138
-0.28870000000000007,-3.6202462163546287
-0.28969999999999996,-3.6556139988512544
-0.29070000000000007,-3.686737647448285
-0.29169999999999996,-3.716446584745451
-0.29270000000000007,-3.748984944642347
-0.29369999999999996,-3.784352727138973
-0.2947000000000001,-3.822549932235329
-0.29569999999999996,-3.8565030034320897
-0.2967000000000001,-3.889041363328986
-0.29769999999999996,-3.9258238571254775
-0.2987000000000001,-3.961191639622102
-0.29969999999999997,-4.000803556018323
-0.3007000000000001,-4.03900076111468
-0.30169999999999997,-4.072953832311441
-0.3027000000000001,-4.112565748707662
-0.30369999999999997,-4.152177665103882
-0.3047000000000001,-4.193204292799969
-0.30569999999999997,-4.238475054395651
-0.3067000000000001,-4.272428125592412
-0.3077,-4.310625330688767
-0.3087000000000001,-4.357310803584314
-0.3097,-4.399752142580264
-0.3107000000000001,-4.442193481576215
-0.3117,-4.478975975372705
-0.3127000000000001,-4.522832025668523
-0.3137,-4.569517498564068
-0.3147000000000001,-4.61478826015975
-0.3157,-4.6572295991557
-0.3167000000000001,-4.698256226851787
-0.3177,-4.737868143248008
-0.3187000000000001,-4.784553616143554
-0.3197,-4.829824377739236
-0.3207000000000001,-4.873680428035052
-0.3217,-4.913292344431272
-0.3227000000000001,-4.952904260827493
-0.3237,-5.001004445022905
-0.3247000000000001,-5.047689917918451
-0.3257,-5.085887123014808
-0.3267000000000001,-5.125499039411029
-0.3277,-5.167940378406978
-0.3287000000000001,-5.214625851302525
-0.3297,-5.258481901598341
-0.3307000000000001,-5.299508529294427
-0.3317,-5.339120445690648
-0.3327000000000001,-5.37873236208687
-0.3337,-5.4225884123826855
-0.3347000000000001,-5.467859173978367
-0.3357,-5.508885801674452
-0.3367000000000001,-5.548497718070673
-0.3377,-5.585280211867165
-0.3387000000000001,-5.624892128263387
-0.3397,-5.667333467259336
-0.3407000000000001,-5.705530672355693
-0.3417,-5.739483743552454
-0.3427000000000001,-5.776266237348945
-0.3437,-5.814463442445301
-0.3447000000000001,-5.851245936241792
-0.3457,-5.888028430038283
-0.3467000000000001,-5.916322656035583
-0.3477,-5.948861015932479
-0.3487000000000001,-5.987058221028835
-0.3497,-6.019596580925731
-0.3507000000000001,-6.053549652122491
-0.3517,-6.080429166819927
-0.3527000000000001,-6.1058939702174975
-0.3537,-6.137017618814529
-0.3547000000000001,-6.1624824222121
-0.3557,-6.189361936909536
-0.35670000000000013,-6.211997317707376
-0.3577,-6.233217987205351
-0.35870000000000013,-6.262926924502518
-0.3597,-6.286977016600223
-0.36070000000000013,-6.309612397398063
-0.3617,-6.330833066896039
-0.3626999999999999,-6.34780960249442
-0.3637,-6.371859694592125
-0.3646999999999999,-6.393080364090101
-0.3657,-6.411471610988346
-0.3666999999999999,-6.424204012687131
-0.3677,-6.4397658369856465
-0.3686999999999999,-6.462401217783487
-0.36970000000000003,-6.4793777533818675
-0.3706999999999999,-6.492110155080653
-0.37170000000000003,-6.500598422879844
-0.3726999999999999,-6.513330824578629
-0.37370000000000003,-6.523233803677684
-0.3746999999999999,-6.538795627976199
-0.37570000000000003,-6.545869184475525
-0.3766999999999999,-6.548698607075254
-0.37770000000000004,-6.55577216357458
-0.3786999999999999,-6.560016297474175
-0.37970000000000004,-6.571333987873095
-0.3806999999999999,-6.575578121772692
-0.38170000000000004,-6.565675142673635
-0.38269999999999993,-6.5642604313737705
-0.38370000000000004,-6.56143100877404
-0.38469999999999993,-6.562845720073906
-0.38570000000000004,-6.56143100877404
-0.38669999999999993,-6.289806439199953
-0.38570000000000004,-6.037987827823977
-0.38469999999999993,-5.838513534543006
-0.38370000000000004,-5.653186354260687
-0.38269999999999993,-5.470688596578097
-0.38170000000000004,-5.2924349727951014
-0.3806999999999999,-5.126913750710893
-0.37970000000000004,-4.965636662526279
-0.3786999999999999,-4.814262553440719
-0.37770000000000004,-4.667132578254756
-0.3766999999999999,-4.518587891768927
-0.37570000000000003,-4.379946184382153
-0.3746999999999999,-4.24696332219484
-0.37370000000000003,-4.122468727806717
-0.3726999999999999,-4.000803556018323
-0.37170000000000003,-3.8777236729300655
-0.3706999999999999,-3.7617173463411326
-0.36970000000000003,-3.6513698649516595
-0.3686999999999999,-3.548095940061512
-0.3677,-3.4462367264712297
-0.3666999999999999,-3.3415480902812167
-0.3657,-3.243933010590529
-0.3646999999999999,-3.1519767760993016
-0.3637,-3.0670940981073995
-0.3626999999999999,-2.9807967088156326
-0.3617,-2.893084608224
-0.36070000000000013,-2.8082019302320975
-0.3597,-2.734636942639116
-0.35870000000000013,-2.663901377645864
-0.3577,-2.587506967453152
-0.35670000000000013,-2.515356691160035
-0.3557,-2.4460358374666487
-0.3547000000000001,-2.414912188869618
-0.3537,-2.380959117672857
-0.3527000000000001,-2.283344037982169
-0.3517,-2.2097790503891876
-0.3507000000000001,-2.1475317531951257
-0.3497,-2.0881138786007942
-0.3487000000000001,-2.0343548492059225
-0.3477,-1.9777663972113213
-0.3467000000000001,-1.92400736781645
-0.3457,-1.8702483384215782
-0.3447000000000001,-1.823562865526032
-0.3437,-1.778292103930351
-0.3427000000000001,-1.7301919197349398
-0.3417,-1.6792623129397986
-0.3407000000000001,-1.6368209739438475
-0.3397,-1.5943796349478963
-0.3387000000000001,-1.5575971411514054
-0.3377,-1.5151558021554543
-0.3367000000000001,-1.4698850405597732
-0.3357,-1.431687835463417
-0.3347000000000001,-1.3970274086167236
-0.3337,-1.3626499240300034
-0.3327000000000001,-1.3224721231138363
-0.3317,-1.274654881178398
-0.3307000000000001,-1.255273336370247
-0.3297,-1.2211787940434997
-0.3287000000000001,-1.1904795588364285
-0.3277,-1.1586485545894651
-0.3267000000000001,-1.1241295988727582
-0.3257,-1.0927230080157544
-0.3247000000000001,-1.0665508489682511
-0.3237,-1.040378689920748
-0.3227000000000001,-1.0123674061834202
-0.3217,-0.9820925843663083
-0.3207000000000001,-0.9489883399494666
-0.3197,-0.9199867583022334
-0.3187000000000001,-0.8976343197643657
-0.3177,-0.8704718628069571
-0.3167000000000001,-0.8438752903694944
-0.3157,-0.8194007848818293
-0.3147000000000001,-0.8140248819423421
-0.3137,-0.7928042124443665
-0.3127000000000001,-0.7669149956568363
-0.3117,-0.7422990190391847
-0.3107000000000001,-0.7203709938912767
-0.3097,-0.7007065068231527
-0.3087000000000001,-0.6841543846147318
-0.3077,-0.6620848883368372
-0.3067000000000001,-0.637893325109145
-0.30569999999999997,-0.6129944062315204
-0.3047000000000001,-0.594886101593248
-0.30369999999999997,-0.582295171024449
-0.3027000000000001,-0.5634795107362441
-0.30169999999999997,-0.5399953031584845
-0.3007000000000001,-0.5293849684094968
-0.29969999999999997,-0.5264140746797802
-0.2987000000000001,-0.5084472411714941
-0.29769999999999996,-0.4900559942732487
-0.2967000000000001,-0.4685523825153001
-0.29569999999999996,-0.4549711540365957
-0.2947000000000001,-0.44393640589764854
-0.29369999999999996,-0.4314869464588362
-0.29270000000000007,-0.4159251221603208
-0.29169999999999996,-0.3978168175220483
-0.29070000000000007,-0.3832452911334384
-0.28969999999999996,-0.3747570233342482
-0.28870000000000007,-0.36343933293532793
-0.28769999999999996,-0.35042398897656957
-0.28670000000000007,-0.33245715546828364
-0.28569999999999995,-0.31378296631006514
-0.28470000000000006,-0.30826559224059147
-0.28369999999999995,-0.2963820173217252
-0.28270000000000006,-0.28336667336296684
-0.28169999999999995,-0.26851220471438403
-0.28070000000000006,-0.25959952352523424
-0.27969999999999995,-0.25662862979551765
-0.27870000000000006,-0.24785741973635445
-0.27769999999999995,-0.23342736447773108
-0.27670000000000006,-0.22111937616890526
-0.27569999999999995,-0.20966021463999845
-0.27470000000000006,-0.20598196526034934
-0.27369999999999994,-0.19961576441095666
-0.27270000000000005,-0.18730777610213087
-0.27169999999999994,-0.17542420118326454
-0.27070000000000005,-0.16523827982423628
