Potential V vs RHE, Current mA cm-2
0.4132999999999999,-0.005132572595910353
0.4122999999999999,-0.006707146272660138
0.4112999999999999,-0.007258883679607504
0.4102999999999999,-0.007592755546375651
0.4092999999999999,-0.007823353488253653
0.4082999999999999,-0.007950677505241506
0.4072999999999999,-0.00808648979002855
0.4062999999999999,-0.008188349003618832
0.4052999999999999,-0.008348211380503581
0.4042999999999999,-0.008482608953990762
0.4032999999999999,-0.00853070913818617
0.4022999999999999,-0.008607103548378882
0.4012999999999999,-0.00866793613427308
0.4002999999999999,-0.008793845439961067
0.3992999999999999,-0.008914095900449595
0.3982999999999999,-0.008962196084645007
0.3972999999999999,-0.009003222712341092
0.3962999999999999,-0.009051322896536505
0.3952999999999999,-0.009141864419727867
0.3942999999999999,-0.009226747097719768
0.39329999999999987,-0.00927767670451491
0.39229999999999987,-0.009313044487011536
0.39129999999999987,-0.009354071114707622
0.39029999999999987,-0.00943753908139966
0.38929999999999987,-0.009519592336791833
0.38829999999999987,-0.009537983583690079
0.38729999999999987,-0.009562033675787783
0.38629999999999987,-0.009603060303483868
0.38529999999999986,-0.009697845960574828
0.38429999999999986,-0.00975726383516916
0.38329999999999986,-0.009799705174165108
0.38229999999999986,-0.00979687575156538
0.38129999999999986,-0.009852049492260116
0.38029999999999986,-0.009927029191152962
0.37929999999999986,-0.009989276488347024
0.37829999999999986,-0.01002747369344338
0.37729999999999986,-0.01003313253864284
0.37629999999999986,-0.010076988588938657
0.37529999999999986,-0.010147724153931907
0.37429999999999986,-0.010231192120623945
0.37329999999999985,-0.010239680388423135
0.37229999999999985,-0.010259486346621246
0.37129999999999985,-0.010284951150018817
0.37029999999999985,-0.010358516137611799
0.36929999999999985,-0.01042642228000532
0.36829999999999985,-0.010433495836504644
0.36729999999999985,-0.010453301794702757
0.36629999999999985,-0.010477351886800462
0.36529999999999985,-0.010542428606594254
0.36429999999999985,-0.010627311284586155
0.36329999999999985,-0.010608920037687911
0.36229999999999984,-0.010635799552385347
0.36129999999999984,-0.010669752623582105
0.36029999999999984,-0.01074897645637455
0.35929999999999984,-0.010825370866567261
0.35829999999999984,-0.0108197120213678
0.35729999999999984,-0.010831029711766721
0.35629999999999984,-0.01085932393776402
0.35529999999999984,-0.010924400657557813
0.35429999999999984,-0.011014942180749176
0.35329999999999984,-0.011013527469449311
0.35229999999999984,-0.011006453912949984
0.35129999999999983,-0.011044651118046341
0.35029999999999983,-0.011102654281340808
0.34929999999999983,-0.011171975135034195
0.34829999999999983,-0.011186122248032844
0.34729999999999983,-0.011221490030529472
0.34629999999999983,-0.011242710700027445
0.34529999999999983,-0.011297884440722184
0.34429999999999983,-0.011365790583115706
0.3432999999999998,-0.01138418183001395
0.3422999999999998,-0.011368620005715436
0.3412999999999998,-0.011405402499511925
0.3402999999999998,-0.011476138064505176
0.3392999999999998,-0.011538385361699238
0.3382999999999998,-0.011555361897297618
0.3372999999999998,-0.01155253247469789
0.3362999999999998,-0.011562435453796944
0.3352999999999998,-0.011647318131788847
0.3342999999999998,-0.011725127253281424
0.3332999999999998,-0.011719468408081964
0.3322999999999998,-0.01173503023238048
0.3312999999999998,-0.011742103788879804
0.3302999999999998,-0.011815668776472785
0.3292999999999998,-0.011894892609265227
0.3282999999999998,-0.011892063186665499
0.3272999999999998,-0.011897722031864958
0.3262999999999998,-0.011913283856163474
0.3252999999999999,-0.011984019421156726
0.3242999999999999,-0.012047681429650653
0.3232999999999999,-0.012050510852250384
0.3222999999999999,-0.012063243253949167
0.3212999999999999,-0.012095781613846062
0.3202999999999999,-0.01214246708674161
0.3192999999999999,-0.012220276208234187
0.3182999999999999,-0.012214617363034726
0.3172999999999999,-0.012227349764733513
0.3162999999999999,-0.012262717547230139
0.3152999999999999,-0.012300914752326494
0.3142999999999999,-0.012380138585118937
0.3132999999999999,-0.012385797430318396
0.3122999999999999,-0.012382968007718667
0.3112999999999999,-0.012409847522416103
0.3102999999999999,-0.012459362417911377
0.3092999999999999,-0.012542830384603416
0.3082999999999999,-0.012565465765401256
0.3072999999999999,-0.012554148075002335
0.3062999999999999,-0.012561221631501661
0.3052999999999999,-0.012612151238296801
0.3042999999999999,-0.012694204493688974
0.3032999999999999,-0.012695619204988838
0.3022999999999999,-0.01270976631798749
0.3012999999999999,-0.012723913430986139
0.3002999999999999,-0.012788990150779932
0.2992999999999999,-0.012845578602774533
0.2982999999999999,-0.012869628694872239
0.2972999999999999,-0.012869628694872239
0.2962999999999999,-0.012895093498269809
0.2952999999999999,-0.01294602310506495
0.2942999999999999,-0.013019588092657932
0.2932999999999999,-0.013036564628256312
0.2922999999999999,-0.013057785297754289
0.2912999999999999,-0.013046467607355368
0.2902999999999999,-0.01312003259494835
0.2892999999999999,-0.013196427005141061
0.2882999999999999,-0.013202085850340523
0.2872999999999999,-0.013209159406839846
0.2862999999999999,-0.013207744695539982
0.2852999999999999,-0.013269991992734043
0.2842999999999999,-0.013343556980327026
0.2832999999999999,-0.013359118804625541
0.2822999999999999,-0.013354874670725946
0.2812999999999999,-0.01337326591762419
0.2802999999999999,-0.013425610235719199
0.2792999999999999,-0.013499175223312178
0.2782999999999999,-0.013520395892810155
0.2772999999999999,-0.013511907625010965
0.2762999999999999,-0.013540201851008266
0.2752999999999999,-0.013585472612603948
0.2742999999999999,-0.013666111156696253
0.2732999999999999,-0.01366752586799612
0.2722999999999999,-0.0136562081775972
0.2712999999999999,-0.013685917114894365
0.2702999999999999,-0.013746749700788562
0.2692999999999999,-0.013835876512680059
0.26829999999999987,-0.01384153535787952
0.26729999999999987,-0.013828802956180733
0.26629999999999987,-0.01385002362567871
0.26529999999999987,-0.013925003324571555
0.26429999999999987,-0.013977347642666562
0.26329999999999987,-0.014004227157364
0.26229999999999987,-0.013998568312164537
0.26129999999999987,-0.014024033115562108
0.26029999999999986,-0.014079206856256845
0.25929999999999986,-0.014140039442151042
0.25829999999999986,-0.014161260111649017
0.25729999999999986,-0.014161260111649017
0.25629999999999986,-0.014175407224647668
0.25529999999999986,-0.01424614278964092
0.25429999999999986,-0.01430273124163552
0.25329999999999986,-0.014316878354634173
0.25229999999999986,-0.014316878354634173
0.25129999999999986,-0.014345172580631472
0.25029999999999986,-0.014401761032626074
0.24929999999999986,-0.014472496597619325
0.24829999999999985,-0.014500790823616624
0.24729999999999985,-0.014500790823616624
0.24629999999999985,-0.014500790823616624
0.24529999999999985,-0.014585673501608528
0.24429999999999985,-0.014684703292599082
0.24329999999999985,-0.014670556179600431
0.24229999999999985,-0.014684703292599082
0.24129999999999985,-0.014684703292599082
0.24029999999999985,-0.014741291744593682
0.23929999999999985,-0.014826174422585584
0.23829999999999985,-0.014840321535584235
0.23729999999999984,-0.014826174422585584
0.23629999999999984,-0.014854468648582884
0.23529999999999984,-0.014911057100577486
0.23429999999999984,-0.014995939778569388
0.23329999999999984,-0.01501008689156804
0.23229999999999984,-0.015024234004566688
0.23129999999999984,-0.01503838111756534
0.23029999999999984,-0.01509496956955994
0.22929999999999984,-0.015151558021554544
0.22829999999999984,-0.015193999360550494
0.22729999999999984,-0.015179852247551842
0.22629999999999983,-0.015193999360550494
0.22529999999999983,-0.015264734925543746
0.22429999999999983,-0.015335470490536997
0.22329999999999983,-0.0153637647165343
0.22229999999999983,-0.0153637647165343
0.22129999999999983,-0.0153637647165343
0.22029999999999983,-0.015448647394526203
0.21929999999999983,-0.015505235846520802
0.21829999999999983,-0.015547677185516754
0.21729999999999983,-0.015533530072518101
0.21629999999999983,-0.015547677185516754
0.21529999999999982,-0.015618412750510005
0.21429999999999982,-0.01568914831550326
0.21329999999999982,-0.015717442541500558
0.21229999999999982,-0.01573158965449921
0.21129999999999982,-0.01573158965449921
0.21029999999999982,-0.01578817810649381
0.20929999999999982,-0.015873060784485714
0.20829999999999982,-0.015873060784485714
0.20729999999999982,-0.01588720789748436
0.20629999999999982,-0.015901355010483013
0.20529999999999982,-0.015943796349478963
0.20429999999999982,-0.016042826140469518
0.20329999999999981,-0.016056973253468165
0.2022999999999998,-0.01608526747946547
0.2012999999999998,-0.016099414592464115
0.20029999999999992,-0.01614185593146007
0.19929999999999992,-0.016226738609451972
0.19829999999999992,-0.016226738609451972
0.19729999999999992,-0.01625503283544927
0.19629999999999992,-0.016283327061446574
0.19529999999999992,-0.016325768400442524
0.19429999999999992,-0.016453092417430374
0.19329999999999992,-0.016495533756426328
0.19229999999999992,-0.01648138664342768
0.19129999999999991,-0.016495533756426328
0.1902999999999999,-0.016552122208420932
0.1892999999999999,-0.01660871066041553
0.1882999999999999,-0.01666529911241013
0.1872999999999999,-0.01665115199941148
0.1862999999999999,-0.016679446225408782
0.1852999999999999,-0.01673603467740338
0.1842999999999999,-0.016806770242396636
0.1832999999999999,-0.016849211581392583
0.1822999999999999,-0.01683506446839394
0.1812999999999999,-0.01687750580738989
0.1802999999999999,-0.01693409425938449
0.1792999999999999,-0.017004829824377742
0.1782999999999999,-0.017047271163373692
0.1772999999999999,-0.017047271163373692
0.1762999999999999,-0.01706141827637234
0.1752999999999999,-0.017132153841365592
0.1742999999999999,-0.017217036519357496
0.1732999999999999,-0.0172453307453548
0.1722999999999999,-0.0172453307453548
0.1712999999999999,-0.017273624971352097
0.1702999999999999,-0.0173302134233467
0.1692999999999999,-0.0174150961013386
0.1682999999999999,-0.017443390327335904
0.1672999999999999,-0.017457537440334552
0.1662999999999999,-0.01748583166633185
0.1652999999999999,-0.0175282730053278
0.1642999999999999,-0.017627302796318356
0.1632999999999999,-0.017641449909317007
0.1622999999999999,-0.01766974413531431
0.1612999999999999,-0.01766974413531431
0.1602999999999999,-0.01774047970030756
0.1592999999999999,-0.017825362378299462
0.15829999999999989,-0.01785365660429676
0.15729999999999988,-0.01785365660429676
0.15629999999999988,-0.017896097943292714
0.15529999999999988,-0.017952686395287316
0.15429999999999988,-0.01803756907327922
0.15329999999999988,-0.018065863299276518
0.15229999999999988,-0.018080010412275173
0.15129999999999988,-0.018108304638272472
0.15029999999999988,-0.018150745977268422
0.14929999999999988,-0.018249775768258973
0.14829999999999988,-0.018292217107254923
0.14729999999999988,-0.018292217107254923
0.14629999999999987,-0.018306364220253574
0.14529999999999987,-0.018391246898245478
0.14429999999999987,-0.018433688237241428
0.14329999999999987,-0.01850442380223468
0.14229999999999987,-0.018546865141230634
0.14129999999999987,-0.018546865141230634
0.14029999999999987,-0.018603453593225232
0.13929999999999987,-0.018688336271217135
0.13829999999999987,-0.018730777610213082
0.13729999999999987,-0.018716630497214438
0.13629999999999987,-0.018759071836210388
0.13529999999999986,-0.01882980740120364
0.13429999999999986,-0.018900542966196893
0.13329999999999986,-0.018942984305192843
0.13229999999999986,-0.018957131418191494
0.13129999999999986,-0.01897127853119014
0.13029999999999986,-0.019042014096183394
0.12929999999999986,-0.019141043887173945
0.12829999999999986,-0.019169338113171244
0.12729999999999986,-0.019197632339168547
0.12629999999999986,-0.019211779452167198
0.12529999999999986,-0.019254220791163148
0.12429999999999986,-0.019367397695152354
0.12329999999999985,-0.019395691921149656
0.12229999999999985,-0.019423986147146955
0.12129999999999985,-0.019452280373144254
0.12029999999999985,-0.019494721712140204
0.11929999999999985,-0.01959375150313076
0.11829999999999985,-0.01963619284212671
0.11729999999999985,-0.019664487068124008
0.11629999999999985,-0.01969278129412131
0.11529999999999985,-0.01973522263311726
0.11429999999999985,-0.019834252424107815
0.11329999999999985,-0.019862546650105117
0.11229999999999984,-0.019876693763103765
0.11129999999999984,-0.019919135102099715
0.11029999999999984,-0.01997572355409432
0.10929999999999984,-0.02006060623208622
0.10829999999999984,-0.02011719468408082
0.10729999999999984,-0.020103047571082173
0.10629999999999984,-0.020145488910078124
0.10529999999999984,-0.020216224475071376
0.10429999999999984,-0.020301107153063276
0.10329999999999984,-0.020343548492059226
0.10229999999999984,-0.020371842718056525
0.10129999999999983,-0.020400136944053827
0.10029999999999983,-0.02045672539604843
0.09929999999999983,-0.02055575518703898
0.09829999999999983,-0.020598196526034934
0.09729999999999983,-0.020626490752032236
0.09629999999999983,-0.020640637865030884
0.09529999999999983,-0.020725520543022787
0.09429999999999983,-0.02079625610801604
0.09329999999999983,-0.02086699167300929
0.09229999999999983,-0.02088113878600794
0.09129999999999983,-0.020909433012005242
0.09029999999999982,-0.020966021463999843
0.08929999999999982,-0.021065051254990398
0.08829999999999982,-0.021107492593986348
0.08729999999999982,-0.021135786819983647
0.08629999999999982,-0.021149933932982302
0.08529999999999982,-0.0212348166109742
0.08429999999999982,-0.021333846401964753
0.08329999999999982,-0.021362140627962056
0.08229999999999982,-0.021390434853959358
0.08129999999999982,-0.021418729079956657
0.08029999999999982,-0.021475317531951258
0.07929999999999982,-0.021602641548939108
0.07829999999999981,-0.02165923000093371
0.07729999999999981,-0.02165923000093371
0.07629999999999981,-0.021701671339929663
0.07529999999999992,-0.021758259791924264
0.07429999999999992,-0.02185728958291482
0.07329999999999992,-0.021913878034909417
0.07229999999999992,-0.021928025147908068
0.07129999999999992,-0.02197046648690402
0.07029999999999992,-0.02204120205189727
0.06929999999999992,-0.022140231842887825
0.06829999999999992,-0.02218267318188378
0.06729999999999992,-0.022210967407881078
0.06629999999999991,-0.02226755585987568
0.06529999999999991,-0.02232414431187028
0.06429999999999991,-0.02242317410286083
0.06329999999999991,-0.022493909667854084
0.06229999999999991,-0.022493909667854084
0.06129999999999991,-0.022536351006850038
0.06029999999999991,-0.022607086571843286
0.05929999999999991,-0.02273441058883114
0.05829999999999991,-0.02277685192782709
0.05729999999999991,-0.02279099904082574
0.056299999999999906,-0.022819293266823044
0.055299999999999905,-0.022890028831816296
0.054299999999999904,-0.022989058622806844
0.0532999999999999,-0.0230597941878001
0.0522999999999999,-0.0230880884137974
0.0512999999999999,-0.02310223552679605
0.0502999999999999,-0.02318711820478795
0.0492999999999999,-0.023286147995778505
0.0482999999999999,-0.023342736447773106
0.0472999999999999,-0.023371030673770405
0.0462999999999999,-0.02341347201276636
0.045299999999999896,-0.02345591335176231
0.044299999999999895,-0.023583237368750162
0.043299999999999894,-0.023639825820744764
0.04229999999999989,-0.023668120046742062
0.04129999999999989,-0.023710561385738016
0.04029999999999989,-0.023795444063729916
0.03929999999999989,-0.02389447385472047
0.03829999999999989,-0.02393691519371642
0.03729999999999989,-0.02397935653271237
0.03629999999999989,-0.024021797871708325
0.03529999999999989,-0.024078386323702922
0.034299999999999886,-0.024191563227692125
0.033299999999999885,-0.02426229879268538
0.032299999999999884,-0.02427644590568403
0.031299999999999883,-0.024318887244679982
0.030299999999999883,-0.024403769922671882
0.02929999999999988,-0.024502799713662437
0.02829999999999988,-0.02457353527865569
0.02729999999999988,-0.024587682391654337
0.02629999999999988,-0.024630123730650287
0.025299999999999878,-0.02471500640864219
0.024299999999999877,-0.02479988908663409
0.023299999999999876,-0.024884771764625994
0.022299999999999875,-0.024898918877624646
0.021299999999999875,-0.0249413602166206
0.020299999999999874,-0.0250262428946125
0.019299999999999873,-0.0251111255726044
0.018299999999999872,-0.025210155363594954
0.01729999999999987,-0.025224302476593602
0.01629999999999987,-0.025252596702590904
0.01529999999999987,-0.025337479380582808
0.014299999999999868,-0.02545065628457201
0.013299999999999867,-0.025507244736566608
0.012299999999999978,-0.025563833188561213
0.011299999999999866,-0.025577980301559864
0.010299999999999976,-0.025648715866553113
0.009299999999999864,-0.02577603988354097
0.008299999999999974,-0.025860922561532867
0.007299999999999862,-0.02590336390052882
0.006299999999999972,-0.025931658126526123
0.00529999999999986,-0.02600239369151937
0.0042999999999999705,-0.026115570595508578
0.0032999999999998586,-0.026172159047503182
0.0022999999999999687,-0.02621460038649913
0.0012999999999998568,-0.02624289461249643
0.00029999999999996696,-0.026313630177489684
-0.000700000000000145,-0.026426807081478886
-0.0017000000000000348,-0.02649754264647214
-0.0027000000000001467,-0.026539983985468085
-0.0037000000000000366,-0.02658242532446404
-0.0047000000000001485,-0.02662486666345999
-0.005700000000000038,-0.026752190680447843
-0.00670000000000015,-0.02682292624544109
-0.00770000000000004,-0.026837073358439746
-0.008700000000000152,-0.026893661810434347
-0.009700000000000042,-0.026936103149430297
-0.010700000000000154,-0.02709172139241545
-0.011700000000000044,-0.027176604070407354
-0.012700000000000156,-0.027190751183406005
-0.013700000000000045,-0.02723319252240196
-0.014700000000000157,-0.027289780974396556
-0.015700000000000047,-0.02740295787838576
-0.01670000000000016,-0.027473693443379014
-0.01770000000000005,-0.027516134782374965
-0.01870000000000016,-0.027544429008372267
-0.01970000000000005,-0.027601017460366868
-0.020700000000000163,-0.027714194364356067
-0.021700000000000053,-0.027799077042347967
-0.022700000000000164,-0.027841518381343924
-0.023700000000000054,-0.02788395972033987
-0.024700000000000166,-0.02796884239833177
-0.025700000000000056,-0.028053725076323675
-0.026700000000000168,-0.02813860775431558
-0.027700000000000058,-0.028181049093311532
-0.02870000000000017,-0.02820934331930883
-0.02970000000000006,-0.028280078884302083
-0.03070000000000017,-0.028379108675292634
-0.03170000000000006,-0.028449844240285887
-0.03270000000000017,-0.02852057980527914
-0.03370000000000006,-0.02854887403127644
-0.034700000000000175,-0.02860546248327104
-0.035700000000000065,-0.028732786500258897
-0.03670000000000018,-0.028817669178250797
-0.03770000000000007,-0.028860110517246747
-0.03870000000000018,-0.02888840474324405
-0.03970000000000007,-0.0289591403082373
-0.04070000000000018,-0.0290723172122265
-0.04170000000000007,-0.029157199890218404
-0.04270000000000018,-0.02921378834221301
-0.04370000000000007,-0.029242082568210308
-0.044700000000000184,-0.029298671020204912
-0.045700000000000074,-0.029425995037192763
-0.046700000000000186,-0.02949673060218601
-0.047700000000000076,-0.029525024828183317
-0.04870000000000019,-0.029567466167179264
-0.04970000000000008,-0.029624054619173872
-0.05070000000000019,-0.029765525749160374
-0.05170000000000008,-0.029850408427152274
-0.05270000000000019,-0.02986455554015093
-0.05370000000000008,-0.029921143992145526
-0.05470000000000019,-0.029977732444140127
-0.05570000000000008,-0.03010505646112798
-0.056700000000000195,-0.030204086252118532
-0.057700000000000085,-0.030232380478115835
-0.058700000000000196,-0.030260674704113137
-0.059700000000000086,-0.030317263156107735
-0.0607000000000002,-0.030416292947098293
-0.06170000000000009,-0.03055776407708479
-0.0627000000000002,-0.03058605830308209
-0.06370000000000009,-0.030600205416080745
-0.0647000000000002,-0.030670940981073994
