July 1, 2026   07:55:07
Cyclic Voltammetry
File: c:/users/guazh/data/20260623_doe_duplica2/2026-06-24-exp57\exp57-2026-07-01t07_46_25-arkoh\exp57_cv_50mvs_efin_-1600mv.bin
Data Source:  Experiment
Instrument Model:  CHI760E
Header: CV ran at 50 mVs
Note: 

Init E (V) = -1
High E (V) = -1
Low E (V) = -1.6
Final E (V) = -1
Init P/N = N
Scan Rate (V/s) = 0.05
Segment = 7
Sample Interval (V) = 0.001
Quiet Time (sec) = 60
Sensitivity (A/V) = 0.001
Comp R (ohm) = 1.6

Results:

Channel 1:
Segment 1:

Segment 2:

Segment 3:

Segment 4:

Segment 5:

Segment 6:

Segment 7:

Potential/V, Current/A

-1.000, 3.641e-6
-1.001, 3.736e-6
-1.002, 3.785e-6
-1.003, 3.824e-6
-1.004, 3.874e-6
-1.005, 3.896e-6
-1.006, 3.919e-6
-1.007, 3.954e-6
-1.008, 3.976e-6
-1.009, 4.022e-6
-1.010, 4.023e-6
-1.011, 4.059e-6
-1.012, 4.089e-6
-1.013, 4.114e-6
-1.014, 4.125e-6
-1.015, 4.167e-6
-1.016, 4.171e-6
-1.017, 4.194e-6
-1.018, 4.212e-6
-1.019, 4.240e-6
-1.020, 4.240e-6
-1.021, 4.283e-6
-1.022, 4.272e-6
-1.023, 4.311e-6
-1.024, 4.319e-6
-1.025, 4.353e-6
-1.026, 4.364e-6
-1.027, 4.409e-6
-1.028, 4.409e-6
-1.029, 4.435e-6
-1.030, 4.445e-6
-1.031, 4.468e-6
-1.032, 4.490e-6
-1.033, 4.494e-6
-1.034, 4.515e-6
-1.035, 4.536e-6
-1.036, 4.567e-6
-1.037, 4.584e-6
-1.038, 4.600e-6
-1.039, 4.614e-6
-1.040, 4.641e-6
-1.041, 4.653e-6
-1.042, 4.652e-6
-1.043, 4.686e-6
-1.044, 4.721e-6
-1.045, 4.709e-6
-1.046, 4.735e-6
-1.047, 4.745e-6
-1.048, 4.769e-6
-1.049, 4.793e-6
-1.050, 4.801e-6
-1.051, 4.833e-6
-1.052, 4.852e-6
-1.053, 4.874e-6
-1.054, 4.902e-6
-1.055, 4.904e-6
-1.056, 4.927e-6
-1.057, 4.939e-6
-1.058, 4.959e-6
-1.059, 4.962e-6
-1.060, 4.996e-6
-1.061, 5.010e-6
-1.062, 5.029e-6
-1.063, 5.054e-6
-1.064, 5.094e-6
-1.065, 5.083e-6
-1.066, 5.131e-6
-1.067, 5.138e-6
-1.068, 5.146e-6
-1.069, 5.190e-6
-1.070, 5.184e-6
-1.071, 5.211e-6
-1.072, 5.204e-6
-1.073, 5.257e-6
-1.074, 5.285e-6
-1.075, 5.310e-6
-1.076, 5.331e-6
-1.077, 5.350e-6
-1.078, 5.356e-6
-1.079, 5.382e-6
-1.080, 5.385e-6
-1.081, 5.415e-6
-1.082, 5.440e-6
-1.083, 5.458e-6
-1.084, 5.480e-6
-1.085, 5.497e-6
-1.086, 5.530e-6
-1.087, 5.532e-6
-1.088, 5.565e-6
-1.089, 5.589e-6
-1.090, 5.607e-6
-1.091, 5.608e-6
-1.092, 5.648e-6
-1.093, 5.675e-6
-1.094, 5.678e-6
-1.095, 5.704e-6
-1.096, 5.722e-6
-1.097, 5.745e-6
-1.098, 5.763e-6
-1.099, 5.801e-6
-1.100, 5.808e-6
-1.101, 5.848e-6
-1.102, 5.858e-6
-1.103, 5.873e-6
-1.104, 5.901e-6
-1.105, 5.912e-6
-1.106, 5.934e-6
-1.107, 5.969e-6
-1.108, 5.984e-6
-1.109, 6.001e-6
-1.110, 6.009e-6
-1.111, 6.053e-6
-1.112, 6.075e-6
-1.113, 6.079e-6
-1.114, 6.111e-6
-1.115, 6.100e-6
-1.116, 6.149e-6
-1.117, 6.165e-6
-1.118, 6.176e-6
-1.119, 6.209e-6
-1.120, 6.230e-6
-1.121, 6.258e-6
-1.122, 6.259e-6
-1.123, 6.288e-6
-1.124, 6.317e-6
-1.125, 6.329e-6
-1.126, 6.335e-6
-1.127, 6.376e-6
-1.128, 6.382e-6
-1.129, 6.425e-6
-1.130, 6.442e-6
-1.131, 6.466e-6
-1.132, 6.479e-6
-1.133, 6.511e-6
-1.134, 6.537e-6
-1.135, 6.535e-6
-1.136, 6.563e-6
-1.137, 6.593e-6
-1.138, 6.604e-6
-1.139, 6.633e-6
-1.140, 6.641e-6
-1.141, 6.670e-6
-1.142, 6.686e-6
-1.143, 6.718e-6
-1.144, 6.718e-6
-1.145, 6.745e-6
-1.146, 6.767e-6
-1.147, 6.778e-6
-1.148, 6.805e-6
-1.149, 6.824e-6
-1.150, 6.827e-6
-1.151, 6.856e-6
-1.152, 6.873e-6
-1.153, 6.894e-6
-1.154, 6.925e-6
-1.155, 6.932e-6
-1.156, 6.951e-6
-1.157, 6.973e-6
-1.158, 6.989e-6
-1.159, 7.014e-6
-1.160, 7.022e-6
-1.161, 7.060e-6
-1.162, 7.063e-6
-1.163, 7.084e-6
-1.164, 7.101e-6
-1.165, 7.118e-6
-1.166, 7.164e-6
-1.167, 7.171e-6
-1.168, 7.201e-6
-1.169, 7.187e-6
-1.170, 7.224e-6
-1.171, 7.239e-6
-1.172, 7.275e-6
-1.173, 7.273e-6
-1.174, 7.295e-6
-1.175, 7.308e-6
-1.176, 7.319e-6
-1.177, 7.380e-6
-1.178, 7.400e-6
-1.179, 7.414e-6
-1.180, 7.427e-6
-1.181, 7.418e-6
-1.182, 7.434e-6
-1.183, 7.456e-6
-1.184, 7.487e-6
-1.185, 7.504e-6
-1.186, 7.536e-6
-1.187, 7.539e-6
-1.188, 7.556e-6
-1.189, 7.586e-6
-1.190, 7.625e-6
-1.191, 7.613e-6
-1.192, 7.639e-6
-1.193, 7.657e-6
-1.194, 7.703e-6
-1.195, 7.715e-6
-1.196, 7.743e-6
-1.197, 7.772e-6
-1.198, 7.789e-6
-1.199, 7.796e-6
-1.200, 7.803e-6
-1.201, 7.825e-6
-1.202, 7.879e-6
-1.203, 7.877e-6
-1.204, 7.917e-6
-1.205, 7.910e-6
-1.206, 7.934e-6
-1.207, 7.955e-6
-1.208, 7.984e-6
-1.209, 8.022e-6
-1.210, 8.024e-6
-1.211, 8.067e-6
-1.212, 8.080e-6
-1.213, 8.099e-6
-1.214, 8.109e-6
-1.215, 8.125e-6
-1.216, 8.157e-6
-1.217, 8.199e-6
-1.218, 8.188e-6
-1.219, 8.208e-6
-1.220, 8.240e-6
-1.221, 8.261e-6
-1.222, 8.279e-6
-1.223, 8.337e-6
-1.224, 8.341e-6
-1.225, 8.365e-6
-1.226, 8.383e-6
-1.227, 8.400e-6
-1.228, 8.412e-6
-1.229, 8.467e-6
-1.230, 8.465e-6
-1.231, 8.498e-6
-1.232, 8.484e-6
-1.233, 8.482e-6
-1.234, 8.512e-6
-1.235, 8.541e-6
-1.236, 8.554e-6
-1.237, 8.587e-6
-1.238, 8.605e-6
-1.239, 8.613e-6
-1.240, 8.648e-6
-1.241, 8.669e-6
-1.242, 8.710e-6
-1.243, 8.718e-6
-1.244, 8.709e-6
-1.245, 8.740e-6
-1.246, 8.728e-6
-1.247, 8.766e-6
-1.248, 8.802e-6
-1.249, 8.828e-6
-1.250, 8.816e-6
-1.251, 8.833e-6
-1.252, 8.870e-6
-1.253, 8.906e-6
-1.254, 8.918e-6
-1.255, 8.946e-6
-1.256, 8.975e-6
-1.257, 8.979e-6
-1.258, 9.033e-6
-1.259, 9.020e-6
-1.260, 9.040e-6
-1.261, 9.062e-6
-1.262, 9.085e-6
-1.263, 9.131e-6
-1.264, 9.156e-6
-1.265, 9.193e-6
-1.266, 9.210e-6
-1.267, 9.202e-6
-1.268, 9.231e-6
-1.269, 9.288e-6
-1.270, 9.279e-6
-1.271, 9.335e-6
-1.272, 9.336e-6
-1.273, 9.381e-6
-1.274, 9.396e-6
-1.275, 9.432e-6
-1.276, 9.455e-6
-1.277, 9.499e-6
-1.278, 9.505e-6
-1.279, 9.555e-6
-1.280, 9.551e-6
-1.281, 9.594e-6
-1.282, 9.646e-6
-1.283, 9.692e-6
-1.284, 9.759e-6
-1.285, 9.761e-6
-1.286, 9.800e-6
-1.287, 9.845e-6
-1.288, 9.886e-6
-1.289, 9.940e-6
-1.290, 9.950e-6
-1.291, 1.003e-5
-1.292, 1.005e-5
-1.293, 1.007e-5
-1.294, 1.014e-5
-1.295, 1.017e-5
-1.296, 1.020e-5
-1.297, 1.029e-5
-1.298, 1.035e-5
-1.299, 1.035e-5
-1.300, 1.036e-5
-1.301, 1.040e-5
-1.302, 1.044e-5
-1.303, 1.051e-5
-1.304, 1.054e-5
-1.305, 1.060e-5
-1.306, 1.069e-5
-1.307, 1.075e-5
-1.308, 1.077e-5
-1.309, 1.083e-5
-1.310, 1.091e-5
-1.311, 1.093e-5
-1.312, 1.098e-5
-1.313, 1.103e-5
-1.314, 1.112e-5
-1.315, 1.116e-5
-1.316, 1.123e-5
-1.317, 1.125e-5
-1.318, 1.134e-5
-1.319, 1.143e-5
-1.320, 1.149e-5
-1.321, 1.148e-5
-1.322, 1.157e-5
-1.323, 1.167e-5
-1.324, 1.174e-5
-1.325, 1.181e-5
-1.326, 1.192e-5
-1.327, 1.200e-5
-1.328, 1.202e-5
-1.329, 1.217e-5
-1.330, 1.218e-5
-1.331, 1.228e-5
-1.332, 1.239e-5
-1.333, 1.245e-5
-1.334, 1.246e-5
-1.335, 1.255e-5
-1.336, 1.258e-5
-1.337, 1.270e-5
-1.338, 1.276e-5
-1.339, 1.289e-5
-1.340, 1.295e-5
-1.341, 1.302e-5
-1.342, 1.310e-5
-1.343, 1.318e-5
-1.344, 1.333e-5
-1.345, 1.339e-5
-1.346, 1.353e-5
-1.347, 1.359e-5
-1.348, 1.373e-5
-1.349, 1.374e-5
-1.350, 1.383e-5
-1.351, 1.390e-5
-1.352, 1.403e-5
-1.353, 1.411e-5
-1.354, 1.421e-5
-1.355, 1.434e-5
-1.356, 1.441e-5
-1.357, 1.449e-5
-1.358, 1.456e-5
-1.359, 1.478e-5
-1.360, 1.485e-5
-1.361, 1.505e-5
-1.362, 1.519e-5
-1.363, 1.529e-5
-1.364, 1.538e-5
-1.365, 1.553e-5
-1.366, 1.569e-5
-1.367, 1.579e-5
-1.368, 1.589e-5
-1.369, 1.604e-5
-1.370, 1.622e-5
-1.371, 1.628e-5
-1.372, 1.638e-5
-1.373, 1.652e-5
-1.374, 1.662e-5
-1.375, 1.671e-5
-1.376, 1.687e-5
-1.377, 1.694e-5
-1.378, 1.719e-5
-1.379, 1.730e-5
-1.380, 1.742e-5
-1.381, 1.765e-5
-1.382, 1.786e-5
-1.383, 1.804e-5
-1.384, 1.830e-5
-1.385, 1.859e-5
-1.386, 1.863e-5
-1.387, 1.879e-5
-1.388, 1.889e-5
-1.389, 1.887e-5
-1.390, 1.890e-5
-1.391, 1.907e-5
-1.392, 1.930e-5
-1.393, 1.943e-5
-1.394, 1.962e-5
-1.395, 1.983e-5
-1.396, 2.001e-5
-1.397, 2.011e-5
-1.398, 2.018e-5
-1.399, 2.039e-5
-1.400, 2.057e-5
-1.401, 2.068e-5
-1.402, 2.083e-5
-1.403, 2.099e-5
-1.404, 2.118e-5
-1.405, 2.136e-5
-1.406, 2.153e-5
-1.407, 2.173e-5
-1.408, 2.190e-5
-1.409, 2.227e-5
-1.410, 2.225e-5
-1.411, 2.247e-5
-1.412, 2.260e-5
-1.413, 2.282e-5
-1.414, 2.296e-5
-1.415, 2.310e-5
-1.416, 2.333e-5
-1.417, 2.360e-5
-1.418, 2.408e-5
-1.419, 2.440e-5
-1.420, 2.426e-5
-1.421, 2.456e-5
-1.422, 2.475e-5
-1.423, 2.499e-5
-1.424, 2.523e-5
-1.425, 2.542e-5
-1.426, 2.564e-5
-1.427, 2.583e-5
-1.428, 2.604e-5
-1.429, 2.637e-5
-1.430, 2.660e-5
-1.431, 2.693e-5
-1.432, 2.707e-5
-1.433, 2.733e-5
-1.434, 2.782e-5
-1.435, 2.819e-5
-1.436, 2.827e-5
-1.437, 2.842e-5
-1.438, 2.878e-5
-1.439, 2.893e-5
-1.440, 2.930e-5
-1.441, 2.949e-5
-1.442, 2.970e-5
-1.443, 2.986e-5
-1.444, 3.001e-5
-1.445, 3.031e-5
-1.446, 3.057e-5
-1.447, 3.095e-5
-1.448, 3.130e-5
-1.449, 3.162e-5
-1.450, 3.186e-5
-1.451, 3.207e-5
-1.452, 3.229e-5
-1.453, 3.266e-5
-1.454, 3.301e-5
-1.455, 3.333e-5
-1.456, 3.366e-5
-1.457, 3.375e-5
-1.458, 3.411e-5
-1.459, 3.450e-5
-1.460, 3.466e-5
-1.461, 3.498e-5
-1.462, 3.524e-5
-1.463, 3.555e-5
-1.464, 3.594e-5
-1.465, 3.625e-5
-1.466, 3.663e-5
-1.467, 3.690e-5
-1.468, 3.720e-5
-1.469, 3.753e-5
-1.470, 3.781e-5
-1.471, 3.816e-5
-1.472, 3.857e-5
-1.473, 3.895e-5
-1.474, 3.934e-5
-1.475, 3.966e-5
-1.476, 3.988e-5
-1.477, 4.037e-5
-1.478, 4.066e-5
-1.479, 4.110e-5
-1.480, 4.149e-5
-1.481, 4.198e-5
-1.482, 4.233e-5
-1.483, 4.265e-5
-1.484, 4.308e-5
-1.485, 4.333e-5
-1.486, 4.372e-5
-1.487, 4.430e-5
-1.488, 4.471e-5
-1.489, 4.525e-5
-1.490, 4.573e-5
-1.491, 4.619e-5
-1.492, 4.655e-5
-1.493, 4.697e-5
-1.494, 4.732e-5
-1.495, 4.771e-5
-1.496, 4.811e-5
-1.497, 4.861e-5
-1.498, 4.916e-5
-1.499, 4.957e-5
-1.500, 4.987e-5
-1.501, 5.050e-5
-1.502, 5.142e-5
-1.503, 5.157e-5
-1.504, 5.198e-5
-1.505, 5.231e-5
-1.506, 5.259e-5
-1.507, 5.323e-5
-1.508, 5.387e-5
-1.509, 5.425e-5
-1.510, 5.467e-5
-1.511, 5.540e-5
-1.512, 5.589e-5
-1.513, 5.651e-5
-1.514, 5.698e-5
-1.515, 5.742e-5
-1.516, 5.800e-5
-1.517, 5.853e-5
-1.518, 5.917e-5
-1.519, 5.986e-5
-1.520, 6.034e-5
-1.521, 6.108e-5
-1.522, 6.181e-5
-1.523, 6.322e-5
-1.524, 6.364e-5
-1.525, 6.430e-5
-1.526, 6.490e-5
-1.527, 6.562e-5
-1.528, 6.625e-5
-1.529, 6.708e-5
-1.530, 6.777e-5
-1.531, 6.844e-5
-1.532, 6.907e-5
-1.533, 7.007e-5
-1.534, 7.082e-5
-1.535, 7.138e-5
-1.536, 7.213e-5
-1.537, 7.317e-5
-1.538, 7.391e-5
-1.539, 7.467e-5
-1.540, 7.559e-5
-1.541, 7.634e-5
-1.542, 7.716e-5
-1.543, 7.797e-5
-1.544, 7.877e-5
-1.545, 7.958e-5
-1.546, 8.051e-5
-1.547, 8.145e-5
-1.548, 8.230e-5
-1.549, 8.298e-5
-1.550, 8.476e-5
-1.551, 8.563e-5
-1.552, 8.680e-5
-1.553, 8.785e-5
-1.554, 8.904e-5
-1.555, 9.010e-5
-1.556, 9.135e-5
-1.557, 9.244e-5
-1.558, 9.376e-5
-1.559, 9.519e-5
-1.560, 9.619e-5
-1.561, 9.741e-5
-1.562, 9.849e-5
-1.563, 1.002e-4
-1.564, 1.019e-4
-1.565, 1.033e-4
-1.566, 1.050e-4
-1.567, 1.065e-4
-1.568, 1.073e-4
-1.569, 1.089e-4
-1.570, 1.106e-4
-1.571, 1.119e-4
-1.572, 1.135e-4
-1.573, 1.148e-4
-1.574, 1.156e-4
-1.575, 1.172e-4
-1.576, 1.187e-4
-1.577, 1.203e-4
-1.578, 1.217e-4
-1.579, 1.231e-4
-1.580, 1.248e-4
-1.581, 1.264e-4
-1.582, 1.278e-4
-1.583, 1.296e-4
-1.584, 1.317e-4
-1.585, 1.330e-4
-1.586, 1.349e-4
-1.587, 1.372e-4
-1.588, 1.397e-4
-1.589, 1.406e-4
-1.590, 1.427e-4
-1.591, 1.459e-4
-1.592, 1.466e-4
-1.593, 1.483e-4
-1.594, 1.509e-4
-1.595, 1.529e-4
-1.596, 1.543e-4
-1.597, 1.577e-4
-1.598, 1.598e-4
-1.599, 1.611e-4
-1.600, 1.628e-4
-1.599, 1.602e-4
-1.598, 1.585e-4
-1.597, 1.588e-4
-1.596, 1.554e-4
-1.595, 1.540e-4
-1.594, 1.539e-4
-1.593, 1.507e-4
-1.592, 1.494e-4
-1.591, 1.495e-4
-1.590, 1.472e-4
-1.589, 1.448e-4
-1.588, 1.428e-4
-1.587, 1.423e-4
-1.586, 1.392e-4
-1.585, 1.372e-4
-1.584, 1.354e-4
-1.583, 1.348e-4
-1.582, 1.327e-4
-1.581, 1.309e-4
-1.580, 1.289e-4
-1.579, 1.269e-4
-1.578, 1.256e-4
-1.577, 1.240e-4
-1.576, 1.225e-4
-1.575, 1.214e-4
-1.574, 1.199e-4
-1.573, 1.176e-4
-1.572, 1.164e-4
-1.571, 1.147e-4
-1.570, 1.128e-4
-1.569, 1.113e-4
-1.568, 1.099e-4
-1.567, 1.084e-4
-1.566, 1.073e-4
-1.565, 1.062e-4
-1.564, 1.056e-4
-1.563, 1.039e-4
-1.562, 1.022e-4
-1.561, 1.005e-4
-1.560, 9.964e-5
-1.559, 9.838e-5
-1.558, 9.725e-5
-1.557, 9.554e-5
-1.556, 9.427e-5
-1.555, 9.314e-5
-1.554, 9.209e-5
-1.553, 9.054e-5
-1.552, 8.920e-5
-1.551, 8.779e-5
-1.550, 8.648e-5
-1.549, 8.562e-5
-1.548, 8.450e-5
-1.547, 8.313e-5
-1.546, 8.228e-5
-1.545, 8.089e-5
-1.544, 7.954e-5
-1.543, 7.885e-5
-1.542, 7.786e-5
-1.541, 7.725e-5
-1.540, 7.621e-5
-1.539, 7.493e-5
-1.538, 7.411e-5
-1.537, 7.322e-5
-1.536, 7.181e-5
-1.535, 7.117e-5
-1.534, 6.995e-5
-1.533, 6.886e-5
-1.532, 6.794e-5
-1.531, 6.698e-5
-1.530, 6.616e-5
-1.529, 6.514e-5
-1.528, 6.422e-5
-1.527, 6.374e-5
-1.526, 6.277e-5
-1.525, 6.191e-5
-1.524, 6.095e-5
-1.523, 6.038e-5
-1.522, 5.968e-5
-1.521, 5.897e-5
-1.520, 5.811e-5
-1.519, 5.731e-5
-1.518, 5.650e-5
-1.517, 5.586e-5
-1.516, 5.525e-5
-1.515, 5.453e-5
-1.514, 5.382e-5
-1.513, 5.327e-5
-1.512, 5.246e-5
-1.511, 5.184e-5
-1.510, 5.119e-5
-1.509, 5.050e-5
-1.508, 4.996e-5
-1.507, 4.928e-5
-1.506, 4.856e-5
-1.505, 4.796e-5
-1.504, 4.740e-5
-1.503, 4.709e-5
-1.502, 4.651e-5
-1.501, 4.588e-5
-1.500, 4.506e-5
-1.499, 4.436e-5
-1.498, 4.385e-5
-1.497, 4.342e-5
-1.496, 4.296e-5
-1.495, 4.238e-5
-1.494, 4.171e-5
-1.493, 4.134e-5
-1.492, 4.081e-5
-1.491, 4.040e-5
-1.490, 4.001e-5
-1.489, 3.947e-5
-1.488, 3.903e-5
-1.487, 3.847e-5
-1.486, 3.796e-5
-1.485, 3.759e-5
-1.484, 3.700e-5
-1.483, 3.651e-5
-1.482, 3.613e-5
-1.481, 3.577e-5
-1.480, 3.528e-5
-1.479, 3.484e-5
-1.478, 3.445e-5
-1.477, 3.394e-5
-1.476, 3.357e-5
-1.475, 3.317e-5
-1.474, 3.294e-5
-1.473, 3.253e-5
-1.472, 3.209e-5
-1.471, 3.181e-5
-1.470, 3.123e-5
-1.469, 3.088e-5
-1.468, 3.072e-5
-1.467, 3.036e-5
-1.466, 2.994e-5
-1.465, 2.951e-5
-1.464, 2.939e-5
-1.463, 2.915e-5
-1.462, 2.880e-5
-1.461, 2.843e-5
-1.460, 2.807e-5
-1.459, 2.775e-5
-1.458, 2.756e-5
-1.457, 2.728e-5
-1.456, 2.688e-5
-1.455, 2.662e-5
-1.454, 2.630e-5
-1.453, 2.607e-5
-1.452, 2.578e-5
-1.451, 2.548e-5
-1.450, 2.520e-5
-1.449, 2.494e-5
-1.448, 2.449e-5
-1.447, 2.428e-5
-1.446, 2.400e-5
-1.445, 2.373e-5
-1.444, 2.347e-5
-1.443, 2.324e-5
-1.442, 2.299e-5
-1.441, 2.272e-5
-1.440, 2.243e-5
-1.439, 2.217e-5
-1.438, 2.205e-5
-1.437, 2.203e-5
-1.436, 2.162e-5
-1.435, 2.137e-5
-1.434, 2.116e-5
-1.433, 2.096e-5
-1.432, 2.079e-5
-1.431, 2.059e-5
-1.430, 2.037e-5
-1.429, 2.012e-5
-1.428, 1.993e-5
-1.427, 1.972e-5
-1.426, 1.956e-5
-1.425, 1.938e-5
-1.424, 1.913e-5
-1.423, 1.891e-5
-1.422, 1.881e-5
-1.421, 1.860e-5
-1.420, 1.843e-5
-1.419, 1.836e-5
-1.418, 1.817e-5
-1.417, 1.795e-5
-1.416, 1.775e-5
-1.415, 1.760e-5
-1.414, 1.727e-5
-1.413, 1.699e-5
-1.412, 1.683e-5
-1.411, 1.668e-5
-1.410, 1.660e-5
-1.409, 1.641e-5
-1.408, 1.625e-5
-1.407, 1.610e-5
-1.406, 1.594e-5
-1.405, 1.577e-5
-1.404, 1.567e-5
-1.403, 1.555e-5
-1.402, 1.528e-5
-1.401, 1.514e-5
-1.400, 1.504e-5
-1.399, 1.493e-5
-1.398, 1.482e-5
-1.397, 1.465e-5
-1.396, 1.454e-5
-1.395, 1.439e-5
-1.394, 1.429e-5
-1.393, 1.414e-5
-1.392, 1.399e-5
-1.391, 1.384e-5
-1.390, 1.371e-5
-1.389, 1.358e-5
-1.388, 1.345e-5
-1.387, 1.338e-5
-1.386, 1.328e-5
-1.385, 1.314e-5
-1.384, 1.304e-5
-1.383, 1.292e-5
-1.382, 1.274e-5
-1.381, 1.264e-5
-1.380, 1.257e-5
-1.379, 1.247e-5
-1.378, 1.230e-5
-1.377, 1.222e-5
-1.376, 1.208e-5
-1.375, 1.198e-5
-1.374, 1.188e-5
-1.373, 1.178e-5
-1.372, 1.166e-5
-1.371, 1.158e-5
-1.370, 1.147e-5
-1.369, 1.137e-5
-1.368, 1.131e-5
-1.367, 1.114e-5
-1.366, 1.110e-5
-1.365, 1.103e-5
-1.364, 1.092e-5
-1.363, 1.080e-5
-1.362, 1.071e-5
-1.361, 1.064e-5
-1.360, 1.055e-5
-1.359, 1.046e-5
-1.358, 1.035e-5
-1.357, 1.027e-5
-1.356, 1.018e-5
-1.355, 1.008e-5
-1.354, 1.008e-5
-1.353, 9.929e-6
-1.352, 9.852e-6
-1.351, 9.749e-6
-1.350, 9.688e-6
-1.349, 9.611e-6
-1.348, 9.522e-6
-1.347, 9.426e-6
-1.346, 9.353e-6
-1.345, 9.294e-6
-1.344, 9.210e-6
-1.343, 9.103e-6
-1.342, 9.052e-6
-1.341, 9.054e-6
-1.340, 8.994e-6
-1.339, 8.942e-6
-1.338, 8.824e-6
-1.337, 8.771e-6
-1.336, 8.704e-6
-1.335, 8.634e-6
-1.334, 8.501e-6
-1.333, 8.479e-6
-1.332, 8.422e-6
-1.331, 8.388e-6
-1.330, 8.285e-6
-1.329, 8.239e-6
-1.328, 8.161e-6
-1.327, 8.096e-6
-1.326, 8.039e-6
-1.325, 7.972e-6
-1.324, 7.910e-6
-1.323, 7.854e-6
-1.322, 7.776e-6
-1.321, 7.696e-6
-1.320, 7.626e-6
-1.319, 7.574e-6
-1.318, 7.518e-6
-1.317, 7.438e-6
-1.316, 7.408e-6
-1.315, 7.311e-6
-1.314, 7.252e-6
-1.313, 7.224e-6
-1.312, 7.152e-6
-1.311, 7.091e-6
-1.310, 7.051e-6
-1.309, 6.971e-6
-1.308, 6.928e-6
-1.307, 6.882e-6
-1.306, 6.833e-6
-1.305, 6.769e-6
-1.304, 6.714e-6
-1.303, 6.661e-6
-1.302, 6.592e-6
-1.301, 6.557e-6
-1.300, 6.530e-6
-1.299, 6.460e-6
-1.298, 6.444e-6
-1.297, 6.372e-6
-1.296, 6.311e-6
-1.295, 6.290e-6
-1.294, 6.214e-6
-1.293, 6.216e-6
-1.292, 6.155e-6
-1.291, 6.096e-6
-1.290, 6.063e-6
-1.289, 5.981e-6
-1.288, 5.990e-6
-1.287, 5.952e-6
-1.286, 5.880e-6
-1.285, 5.861e-6
-1.284, 5.824e-6
-1.283, 5.780e-6
-1.282, 5.716e-6
-1.281, 5.681e-6
-1.280, 5.661e-6
-1.279, 5.621e-6
-1.278, 5.570e-6
-1.277, 5.571e-6
-1.276, 5.493e-6
-1.275, 5.478e-6
-1.274, 5.416e-6
-1.273, 5.386e-6
-1.272, 5.364e-6
-1.271, 5.312e-6
-1.270, 5.302e-6
-1.269, 5.248e-6
-1.268, 5.241e-6
-1.267, 5.187e-6
-1.266, 5.137e-6
-1.265, 5.108e-6
-1.264, 5.118e-6
-1.263, 5.059e-6
-1.262, 5.032e-6
-1.261, 5.007e-6
-1.260, 4.982e-6
-1.259, 4.959e-6
-1.258, 4.973e-6
-1.257, 4.884e-6
-1.256, 4.875e-6
-1.255, 4.858e-6
-1.254, 4.800e-6
-1.253, 4.787e-6
-1.252, 4.759e-6
-1.251, 4.722e-6
-1.250, 4.715e-6
-1.249, 4.680e-6
-1.248, 4.673e-6
-1.247, 4.637e-6
-1.246, 4.590e-6
-1.245, 4.581e-6
-1.244, 4.563e-6
-1.243, 4.552e-6
-1.242, 4.521e-6
-1.241, 4.456e-6
-1.240, 4.468e-6
-1.239, 4.462e-6
-1.238, 4.394e-6
-1.237, 4.386e-6
-1.236, 4.366e-6
-1.235, 4.340e-6
-1.234, 4.302e-6
-1.233, 4.302e-6
-1.232, 4.280e-6
-1.231, 4.251e-6
-1.230, 4.245e-6
-1.229, 4.193e-6
-1.228, 4.180e-6
-1.227, 4.160e-6
-1.226, 4.143e-6
-1.225, 4.120e-6
-1.224, 4.103e-6
-1.223, 4.082e-6
-1.222, 4.054e-6
-1.221, 4.035e-6
-1.220, 4.020e-6
-1.219, 4.017e-6
-1.218, 3.990e-6
-1.217, 3.958e-6
-1.216, 3.948e-6
-1.215, 3.923e-6
-1.214, 3.907e-6
-1.213, 3.895e-6
-1.212, 3.892e-6
-1.211, 3.863e-6
-1.210, 3.849e-6
-1.209, 3.807e-6
-1.208, 3.817e-6
-1.207, 3.793e-6
-1.206, 3.781e-6
-1.205, 3.767e-6
-1.204, 3.750e-6
-1.203, 3.724e-6
-1.202, 3.712e-6
-1.201, 3.708e-6
-1.200, 3.684e-6
-1.199, 3.668e-6
-1.198, 3.664e-6
-1.197, 3.654e-6
-1.196, 3.631e-6
-1.195, 3.624e-6
-1.194, 3.595e-6
-1.193, 3.582e-6
-1.192, 3.563e-6
-1.191, 3.559e-6
-1.190, 3.532e-6
-1.189, 3.528e-6
-1.188, 3.509e-6
-1.187, 3.476e-6
-1.186, 3.481e-6
-1.185, 3.468e-6
-1.184, 3.455e-6
-1.183, 3.445e-6
-1.182, 3.417e-6
-1.181, 3.410e-6
-1.180, 3.371e-6
-1.179, 3.379e-6
-1.178, 3.355e-6
-1.177, 3.344e-6
-1.176, 3.328e-6
-1.175, 3.350e-6
-1.174, 3.326e-6
-1.173, 3.317e-6
-1.172, 3.310e-6
-1.171, 3.283e-6
-1.170, 3.278e-6
-1.169, 3.261e-6
-1.168, 3.256e-6
-1.167, 3.236e-6
-1.166, 3.247e-6
-1.165, 3.212e-6
-1.164, 3.190e-6
-1.163, 3.216e-6
-1.162, 3.193e-6
-1.161, 3.174e-6
-1.160, 3.154e-6
-1.159, 3.138e-6
-1.158, 3.138e-6
-1.157, 3.117e-6
-1.156, 3.131e-6
-1.155, 3.104e-6
-1.154, 3.095e-6
-1.153, 3.059e-6
-1.152, 3.060e-6
-1.151, 3.051e-6
-1.150, 3.050e-6
-1.149, 3.036e-6
-1.148, 3.022e-6
-1.147, 3.015e-6
-1.146, 3.004e-6
-1.145, 2.993e-6
-1.144, 2.994e-6
-1.143, 2.967e-6
-1.142, 2.945e-6
-1.141, 2.961e-6
-1.140, 2.958e-6
-1.139, 2.936e-6
-1.138, 2.922e-6
-1.137, 2.905e-6
-1.136, 2.905e-6
-1.135, 2.893e-6
-1.134, 2.888e-6
-1.133, 2.864e-6
-1.132, 2.871e-6
-1.131, 2.847e-6
-1.130, 2.852e-6
-1.129, 2.827e-6
-1.128, 2.834e-6
-1.127, 2.802e-6
-1.126, 2.809e-6
-1.125, 2.784e-6
-1.124, 2.774e-6
-1.123, 2.746e-6
-1.122, 2.759e-6
-1.121, 2.726e-6
-1.120, 2.745e-6
-1.119, 2.743e-6
-1.118, 2.703e-6
-1.117, 2.710e-6
-1.116, 2.685e-6
-1.115, 2.692e-6
-1.114, 2.659e-6
-1.113, 2.647e-6
-1.112, 2.641e-6
-1.111, 2.646e-6
-1.110, 2.632e-6
-1.109, 2.622e-6
-1.108, 2.603e-6
-1.107, 2.574e-6
-1.106, 2.583e-6
-1.105, 2.558e-6
-1.104, 2.544e-6
-1.103, 2.534e-6
-1.102, 2.520e-6
-1.101, 2.507e-6
-1.100, 2.493e-6
-1.099, 2.474e-6
-1.098, 2.489e-6
-1.097, 2.452e-6
-1.096, 2.417e-6
-1.095, 2.413e-6
-1.094, 2.395e-6
-1.093, 2.401e-6
-1.092, 2.377e-6
-1.091, 2.390e-6
-1.090, 2.369e-6
-1.089, 2.359e-6
-1.088, 2.352e-6
-1.087, 2.334e-6
-1.086, 2.294e-6
-1.085, 2.316e-6
-1.084, 2.294e-6
-1.083, 2.298e-6
-1.082, 2.280e-6
-1.081, 2.293e-6
-1.080, 2.302e-6
-1.079, 2.273e-6
-1.078, 2.254e-6
-1.077, 2.263e-6
-1.076, 2.243e-6
-1.075, 2.244e-6
-1.074, 2.233e-6
-1.073, 2.220e-6
-1.072, 2.211e-6
-1.071, 2.190e-6
-1.070, 2.194e-6
-1.069, 2.179e-6
-1.068, 2.179e-6
-1.067, 2.164e-6
-1.066, 2.149e-6
-1.065, 2.144e-6
-1.064, 2.123e-6
-1.063, 2.115e-6
-1.062, 2.086e-6
-1.061, 2.096e-6
-1.060, 2.106e-6
-1.059, 2.067e-6
-1.058, 2.065e-6
-1.057, 2.026e-6
-1.056, 2.017e-6
-1.055, 2.037e-6
-1.054, 2.005e-6
-1.053, 1.978e-6
-1.052, 1.985e-6
-1.051, 1.968e-6
-1.050, 1.932e-6
-1.049, 1.935e-6
-1.048, 1.927e-6
-1.047, 1.905e-6
-1.046, 1.902e-6
-1.045, 1.903e-6
-1.044, 1.858e-6
-1.043, 1.862e-6
-1.042, 1.838e-6
-1.041, 1.826e-6
-1.040, 1.818e-6
-1.039, 1.788e-6
-1.038, 1.793e-6
-1.037, 1.766e-6
-1.036, 1.761e-6
-1.035, 1.733e-6
-1.034, 1.723e-6
-1.033, 1.720e-6
-1.032, 1.712e-6
-1.031, 1.683e-6
-1.030, 1.674e-6
-1.029, 1.666e-6
-1.028, 1.648e-6
-1.027, 1.617e-6
-1.026, 1.597e-6
-1.025, 1.588e-6
-1.024, 1.561e-6
-1.023, 1.549e-6
-1.022, 1.520e-6
-1.021, 1.523e-6
-1.020, 1.494e-6
-1.019, 1.506e-6
-1.018, 1.455e-6
-1.017, 1.448e-6
-1.016, 1.447e-6
-1.015, 1.424e-6
-1.014, 1.400e-6
-1.013, 1.377e-6
-1.012, 1.366e-6
-1.011, 1.342e-6
-1.010, 1.328e-6
-1.009, 1.297e-6
-1.008, 1.300e-6
-1.007, 1.267e-6
-1.006, 1.245e-6
-1.005, 1.221e-6
-1.004, 1.212e-6
-1.003, 1.205e-6
-1.002, 1.175e-6
-1.001, 1.151e-6
-1.000, 1.504e-6
-1.001, 1.743e-6
-1.002, 1.901e-6
-1.003, 2.028e-6
-1.004, 2.122e-6
-1.005, 2.196e-6
-1.006, 2.278e-6
-1.007, 2.351e-6
-1.008, 2.430e-6
-1.009, 2.492e-6
-1.010, 2.524e-6
-1.011, 2.587e-6
-1.012, 2.687e-6
-1.013, 2.705e-6
-1.014, 2.767e-6
-1.015, 2.805e-6
-1.016, 2.843e-6
-1.017, 2.892e-6
-1.018, 2.931e-6
-1.019, 2.980e-6
-1.020, 3.011e-6
-1.021, 3.049e-6
-1.022, 3.080e-6
-1.023, 3.131e-6
-1.024, 3.165e-6
-1.025, 3.214e-6
-1.026, 3.216e-6
-1.027, 3.273e-6
-1.028, 3.294e-6
-1.029, 3.317e-6
-1.030, 3.360e-6
-1.031, 3.385e-6
-1.032, 3.425e-6
-1.033, 3.441e-6
-1.034, 3.466e-6
-1.035, 3.481e-6
-1.036, 3.525e-6
-1.037, 3.551e-6
-1.038, 3.547e-6
-1.039, 3.585e-6
-1.040, 3.618e-6
-1.041, 3.629e-6
-1.042, 3.676e-6
-1.043, 3.683e-6
-1.044, 3.701e-6
-1.045, 3.713e-6
-1.046, 3.727e-6
-1.047, 3.764e-6
-1.048, 3.776e-6
-1.049, 3.801e-6
-1.050, 3.845e-6
-1.051, 3.822e-6
-1.052, 3.874e-6
-1.053, 3.893e-6
-1.054, 3.915e-6
-1.055, 3.916e-6
-1.056, 3.953e-6
-1.057, 3.974e-6
-1.058, 3.967e-6
-1.059, 4.000e-6
-1.060, 4.019e-6
-1.061, 4.026e-6
-1.062, 4.054e-6
-1.063, 4.071e-6
-1.064, 4.090e-6
-1.065, 4.093e-6
-1.066, 4.119e-6
-1.067, 4.137e-6
-1.068, 4.144e-6
-1.069, 4.163e-6
-1.070, 4.174e-6
-1.071, 4.205e-6
-1.072, 4.202e-6
-1.073, 4.218e-6
-1.074, 4.249e-6
-1.075, 4.267e-6
-1.076, 4.264e-6
-1.077, 4.274e-6
-1.078, 4.289e-6
-1.079, 4.317e-6
-1.080, 4.330e-6
-1.081, 4.346e-6
-1.082, 4.363e-6
-1.083, 4.356e-6
-1.084, 4.372e-6
-1.085, 4.408e-6
-1.086, 4.394e-6
-1.087, 4.431e-6
-1.088, 4.424e-6
-1.089, 4.442e-6
-1.090, 4.455e-6
-1.091, 4.478e-6
-1.092, 4.497e-6
-1.093, 4.486e-6
-1.094, 4.520e-6
-1.095, 4.536e-6
-1.096, 4.518e-6
-1.097, 4.551e-6
-1.098, 4.555e-6
-1.099, 4.572e-6
-1.100, 4.584e-6
-1.101, 4.615e-6
-1.102, 4.622e-6
-1.103, 4.630e-6
-1.104, 4.642e-6
-1.105, 4.655e-6
-1.106, 4.659e-6
-1.107, 4.679e-6
-1.108, 4.679e-6
-1.109, 4.698e-6
-1.110, 4.693e-6
-1.111, 4.715e-6
-1.112, 4.733e-6
-1.113, 4.732e-6
-1.114, 4.768e-6
-1.115, 4.778e-6
-1.116, 4.795e-6
-1.117, 4.797e-6
-1.118, 4.820e-6
-1.119, 4.802e-6
-1.120, 4.831e-6
-1.121, 4.825e-6
-1.122, 4.851e-6
-1.123, 4.858e-6
-1.124, 4.884e-6
-1.125, 4.894e-6
-1.126, 4.897e-6
-1.127, 4.939e-6
-1.128, 4.922e-6
-1.129, 4.953e-6
-1.130, 4.959e-6
-1.131, 4.985e-6
-1.132, 4.984e-6
-1.133, 5.007e-6
-1.134, 4.996e-6
-1.135, 5.029e-6
-1.136, 5.017e-6
-1.137, 5.058e-6
-1.138, 5.042e-6
-1.139, 5.062e-6
-1.140, 5.079e-6
-1.141, 5.115e-6
-1.142, 5.103e-6
-1.143, 5.133e-6
-1.144, 5.131e-6
-1.145, 5.145e-6
-1.146, 5.154e-6
-1.147, 5.166e-6
-1.148, 5.167e-6
-1.149, 5.191e-6
-1.150, 5.193e-6
-1.151, 5.232e-6
-1.152, 5.236e-6
-1.153, 5.262e-6
-1.154, 5.256e-6
-1.155, 5.285e-6
-1.156, 5.267e-6
-1.157, 5.290e-6
-1.158, 5.301e-6
-1.159, 5.320e-6
-1.160, 5.312e-6
-1.161, 5.337e-6
-1.162, 5.350e-6
-1.163, 5.355e-6
-1.164, 5.356e-6
-1.165, 5.396e-6
-1.166, 5.402e-6
-1.167, 5.413e-6
-1.168, 5.415e-6
-1.169, 5.437e-6
-1.170, 5.437e-6
-1.171, 5.447e-6
-1.172, 5.451e-6
-1.173, 5.484e-6
-1.174, 5.488e-6
-1.175, 5.508e-6
-1.176, 5.517e-6
-1.177, 5.546e-6
-1.178, 5.549e-6
-1.179, 5.552e-6
-1.180, 5.563e-6
-1.181, 5.572e-6
-1.182, 5.591e-6
-1.183, 5.600e-6
-1.184, 5.621e-6
-1.185, 5.665e-6
-1.186, 5.653e-6
-1.187, 5.697e-6
-1.188, 5.687e-6
-1.189, 5.709e-6
-1.190, 5.722e-6
-1.191, 5.732e-6
-1.192, 5.739e-6
-1.193, 5.758e-6
-1.194, 5.775e-6
-1.195, 5.776e-6
-1.196, 5.797e-6
-1.197, 5.806e-6
-1.198, 5.817e-6
-1.199, 5.846e-6
-1.200, 5.844e-6
-1.201, 5.862e-6
-1.202, 5.867e-6
-1.203, 5.871e-6
-1.204, 5.910e-6
-1.205, 5.920e-6
-1.206, 5.917e-6
-1.207, 5.938e-6
-1.208, 5.966e-6
-1.209, 5.991e-6
-1.210, 5.999e-6
-1.211, 6.014e-6
-1.212, 6.031e-6
-1.213, 6.035e-6
-1.214, 6.040e-6
-1.215, 6.075e-6
-1.216, 6.081e-6
-1.217, 6.115e-6
-1.218, 6.106e-6
-1.219, 6.135e-6
-1.220, 6.166e-6
-1.221, 6.175e-6
-1.222, 6.196e-6
-1.223, 6.204e-6
-1.224, 6.228e-6
-1.225, 6.250e-6
-1.226, 6.269e-6
-1.227, 6.286e-6
-1.228, 6.304e-6
-1.229, 6.339e-6
-1.230, 6.346e-6
-1.231, 6.374e-6
-1.232, 6.396e-6
-1.233, 6.411e-6
-1.234, 6.421e-6
-1.235, 6.459e-6
-1.236, 6.473e-6
-1.237, 6.500e-6
-1.238, 6.512e-6
-1.239, 6.555e-6
-1.240, 6.550e-6
-1.241, 6.582e-6
-1.242, 6.620e-6
-1.243, 6.628e-6
-1.244, 6.663e-6
-1.245, 6.682e-6
-1.246, 6.691e-6
-1.247, 6.719e-6
-1.248, 6.742e-6
-1.249, 6.764e-6
-1.250, 6.792e-6
-1.251, 6.836e-6
-1.252, 6.863e-6
-1.253, 6.865e-6
-1.254, 6.910e-6
-1.255, 6.929e-6
-1.256, 6.960e-6
-1.257, 6.984e-6
-1.258, 6.998e-6
-1.259, 7.023e-6
-1.260, 7.057e-6
-1.261, 7.081e-6
-1.262, 7.118e-6
-1.263, 7.150e-6
-1.264, 7.191e-6
-1.265, 7.191e-6
-1.266, 7.249e-6
-1.267, 7.259e-6
-1.268, 7.311e-6
-1.269, 7.325e-6
-1.270, 7.354e-6
-1.271, 7.367e-6
-1.272, 7.424e-6
-1.273, 7.472e-6
-1.274, 7.493e-6
-1.275, 7.542e-6
-1.276, 7.549e-6
-1.277, 7.584e-6
-1.278, 7.628e-6
-1.279, 7.682e-6
-1.280, 7.708e-6
-1.281, 7.746e-6
-1.282, 7.787e-6
-1.283, 7.815e-6
-1.284, 7.866e-6
-1.285, 7.892e-6
-1.286, 7.960e-6
-1.287, 7.987e-6
-1.288, 8.011e-6
-1.289, 8.071e-6
-1.290, 8.073e-6
-1.291, 8.127e-6
-1.292, 8.183e-6
-1.293, 8.232e-6
-1.294, 8.283e-6
-1.295, 8.339e-6
-1.296, 8.361e-6
-1.297, 8.433e-6
-1.298, 8.471e-6
-1.299, 8.542e-6
-1.300, 8.568e-6
-1.301, 8.617e-6
-1.302, 8.655e-6
-1.303, 8.754e-6
-1.304, 8.763e-6
-1.305, 8.822e-6
-1.306, 8.886e-6
-1.307, 8.944e-6
-1.308, 9.013e-6
-1.309, 9.054e-6
-1.310, 9.101e-6
-1.311, 9.152e-6
-1.312, 9.240e-6
-1.313, 9.269e-6
-1.314, 9.330e-6
-1.315, 9.367e-6
-1.316, 9.432e-6
-1.317, 9.506e-6
-1.318, 9.616e-6
-1.319, 9.671e-6
-1.320, 9.675e-6
-1.321, 9.750e-6
-1.322, 9.825e-6
-1.323, 9.873e-6
-1.324, 9.958e-6
-1.325, 1.002e-5
-1.326, 1.011e-5
-1.327, 1.014e-5
-1.328, 1.023e-5
-1.329, 1.029e-5
-1.330, 1.036e-5
-1.331, 1.041e-5
-1.332, 1.047e-5
-1.333, 1.053e-5
-1.334, 1.062e-5
-1.335, 1.066e-5
-1.336, 1.073e-5
-1.337, 1.084e-5
-1.338, 1.085e-5
-1.339, 1.096e-5
-1.340, 1.101e-5
-1.341, 1.111e-5
-1.342, 1.117e-5
-1.343, 1.125e-5
-1.344, 1.135e-5
-1.345, 1.147e-5
-1.346, 1.150e-5
-1.347, 1.153e-5
-1.348, 1.161e-5
-1.349, 1.174e-5
-1.350, 1.176e-5
-1.351, 1.188e-5
-1.352, 1.199e-5
-1.353, 1.204e-5
-1.354, 1.212e-5
-1.355, 1.224e-5
-1.356, 1.229e-5
-1.357, 1.236e-5
-1.358, 1.244e-5
-1.359, 1.252e-5
-1.360, 1.262e-5
-1.361, 1.267e-5
-1.362, 1.277e-5
-1.363, 1.285e-5
-1.364, 1.295e-5
-1.365, 1.303e-5
-1.366, 1.312e-5
-1.367, 1.319e-5
-1.368, 1.328e-5
-1.369, 1.339e-5
-1.370, 1.346e-5
-1.371, 1.358e-5
-1.372, 1.368e-5
-1.373, 1.376e-5
-1.374, 1.385e-5
-1.375, 1.395e-5
-1.376, 1.404e-5
-1.377, 1.415e-5
-1.378, 1.424e-5
-1.379, 1.431e-5
-1.380, 1.443e-5
-1.381, 1.456e-5
-1.382, 1.464e-5
-1.383, 1.477e-5
-1.384, 1.488e-5
-1.385, 1.503e-5
-1.386, 1.510e-5
-1.387, 1.521e-5
-1.388, 1.528e-5
-1.389, 1.544e-5
-1.390, 1.553e-5
-1.391, 1.564e-5
-1.392, 1.577e-5
-1.393, 1.600e-5
-1.394, 1.610e-5
-1.395, 1.617e-5
-1.396, 1.639e-5
-1.397, 1.644e-5
-1.398, 1.658e-5
-1.399, 1.670e-5
-1.400, 1.686e-5
-1.401, 1.697e-5
-1.402, 1.705e-5
-1.403, 1.713e-5
-1.404, 1.731e-5
-1.405, 1.746e-5
-1.406, 1.755e-5
-1.407, 1.767e-5
-1.408, 1.773e-5
-1.409, 1.785e-5
-1.410, 1.802e-5
-1.411, 1.813e-5
-1.412, 1.828e-5
-1.413, 1.838e-5
-1.414, 1.851e-5
-1.415, 1.869e-5
-1.416, 1.882e-5
-1.417, 1.896e-5
-1.418, 1.915e-5
-1.419, 1.926e-5
-1.420, 1.945e-5
-1.421, 1.962e-5
-1.422, 1.975e-5
-1.423, 1.987e-5
-1.424, 2.008e-5
-1.425, 2.016e-5
-1.426, 2.027e-5
-1.427, 2.048e-5
-1.428, 2.057e-5
-1.429, 2.066e-5
-1.430, 2.085e-5
-1.431, 2.106e-5
-1.432, 2.122e-5
-1.433, 2.142e-5
-1.434, 2.157e-5
-1.435, 2.169e-5
-1.436, 2.188e-5
-1.437, 2.205e-5
-1.438, 2.223e-5
-1.439, 2.248e-5
-1.440, 2.265e-5
-1.441, 2.289e-5
-1.442, 2.299e-5
-1.443, 2.314e-5
-1.444, 2.315e-5
-1.445, 2.328e-5
-1.446, 2.352e-5
-1.447, 2.380e-5
-1.448, 2.410e-5
-1.449, 2.424e-5
-1.450, 2.443e-5
-1.451, 2.463e-5
-1.452, 2.487e-5
-1.453, 2.499e-5
-1.454, 2.512e-5
-1.455, 2.533e-5
-1.456, 2.562e-5
-1.457, 2.576e-5
-1.458, 2.601e-5
-1.459, 2.630e-5
-1.460, 2.666e-5
-1.461, 2.683e-5
-1.462, 2.698e-5
-1.463, 2.709e-5
-1.464, 2.734e-5
-1.465, 2.758e-5
-1.466, 2.774e-5
-1.467, 2.808e-5
-1.468, 2.833e-5
-1.469, 2.861e-5
-1.470, 2.873e-5
-1.471, 2.883e-5
-1.472, 2.898e-5
-1.473, 2.921e-5
-1.474, 2.945e-5
-1.475, 2.971e-5
-1.476, 2.995e-5
-1.477, 3.039e-5
-1.478, 3.053e-5
-1.479, 3.078e-5
-1.480, 3.094e-5
-1.481, 3.122e-5
-1.482, 3.152e-5
-1.483, 3.189e-5
-1.484, 3.207e-5
-1.485, 3.248e-5
-1.486, 3.287e-5
-1.487, 3.308e-5
-1.488, 3.343e-5
-1.489, 3.378e-5
-1.490, 3.404e-5
-1.491, 3.451e-5
-1.492, 3.464e-5
-1.493, 3.490e-5
-1.494, 3.511e-5
-1.495, 3.550e-5
-1.496, 3.567e-5
-1.497, 3.590e-5
-1.498, 3.633e-5
-1.499, 3.650e-5
-1.500, 3.689e-5
-1.501, 3.740e-5
-1.502, 3.778e-5
-1.503, 3.814e-5
-1.504, 3.836e-5
-1.505, 3.845e-5
-1.506, 3.887e-5
-1.507, 3.948e-5
-1.508, 3.970e-5
-1.509, 4.023e-5
-1.510, 4.052e-5
-1.511, 4.093e-5
-1.512, 4.107e-5
-1.513, 4.154e-5
-1.514, 4.182e-5
-1.515, 4.243e-5
-1.516, 4.274e-5
-1.517, 4.302e-5
-1.518, 4.327e-5
-1.519, 4.365e-5
-1.520, 4.436e-5
-1.521, 4.482e-5
-1.522, 4.525e-5
-1.523, 4.561e-5
-1.524, 4.587e-5
-1.525, 4.627e-5
-1.526, 4.653e-5
-1.527, 4.703e-5
-1.528, 4.749e-5
-1.529, 4.763e-5
-1.530, 4.831e-5
-1.531, 4.906e-5
-1.532, 4.961e-5
-1.533, 5.008e-5
-1.534, 5.078e-5
-1.535, 5.159e-5
-1.536, 5.203e-5
-1.537, 5.261e-5
-1.538, 5.328e-5
-1.539, 5.401e-5
-1.540, 5.458e-5
-1.541, 5.499e-5
-1.542, 5.547e-5
-1.543, 5.636e-5
-1.544, 5.697e-5
-1.545, 5.763e-5
-1.546, 5.780e-5
-1.547, 5.854e-5
-1.548, 5.912e-5
-1.549, 5.997e-5
-1.550, 6.099e-5
-1.551, 6.165e-5
-1.552, 6.213e-5
-1.553, 6.274e-5
-1.554, 6.344e-5
-1.555, 6.411e-5
-1.556, 6.460e-5
-1.557, 6.535e-5
-1.558, 6.613e-5
-1.559, 6.703e-5
-1.560, 6.766e-5
-1.561, 6.865e-5
-1.562, 6.950e-5
-1.563, 7.036e-5
-1.564, 7.125e-5
-1.565, 7.229e-5
-1.566, 7.275e-5
-1.567, 7.405e-5
-1.568, 7.478e-5
-1.569, 7.619e-5
-1.570, 7.696e-5
-1.571, 7.777e-5
-1.572, 7.879e-5
-1.573, 8.000e-5
-1.574, 8.104e-5
-1.575, 8.199e-5
-1.576, 8.307e-5
-1.577, 8.445e-5
-1.578, 8.538e-5
-1.579, 8.626e-5
-1.580, 8.760e-5
-1.581, 8.856e-5
-1.582, 8.974e-5
-1.583, 9.099e-5
-1.584, 9.280e-5
-1.585, 9.390e-5
-1.586, 9.510e-5
-1.587, 9.603e-5
-1.588, 9.750e-5
-1.589, 9.864e-5
-1.590, 1.002e-4
-1.591, 1.019e-4
-1.592, 1.034e-4
-1.593, 1.044e-4
-1.594, 1.054e-4
-1.595, 1.074e-4
-1.596, 1.093e-4
-1.597, 1.107e-4
-1.598, 1.121e-4
-1.599, 1.136e-4
-1.600, 1.135e-4
-1.599, 1.121e-4
-1.598, 1.109e-4
-1.597, 1.096e-4
-1.596, 1.082e-4
-1.595, 1.071e-4
-1.594, 1.057e-4
-1.593, 1.043e-4
-1.592, 1.031e-4
-1.591, 1.020e-4
-1.590, 1.003e-4
-1.589, 9.919e-5
-1.588, 9.802e-5
-1.587, 9.665e-5
-1.586, 9.547e-5
-1.585, 9.444e-5
-1.584, 9.298e-5
-1.583, 9.165e-5
-1.582, 9.111e-5
-1.581, 8.927e-5
-1.580, 8.844e-5
-1.579, 8.718e-5
-1.578, 8.596e-5
-1.577, 8.510e-5
-1.576, 8.368e-5
-1.575, 8.264e-5
-1.574, 8.163e-5
-1.573, 8.081e-5
-1.572, 7.960e-5
-1.571, 7.845e-5
-1.570, 7.756e-5
-1.569, 7.646e-5
-1.568, 7.577e-5
-1.567, 7.452e-5
-1.566, 7.335e-5
-1.565, 7.221e-5
-1.564, 7.135e-5
-1.563, 7.070e-5
-1.562, 6.982e-5
-1.561, 6.862e-5
-1.560, 6.777e-5
-1.559, 6.667e-5
-1.558, 6.584e-5
-1.557, 6.517e-5
-1.556, 6.431e-5
-1.555, 6.341e-5
-1.554, 6.274e-5
-1.553, 6.179e-5
-1.552, 6.108e-5
-1.551, 6.038e-5
-1.550, 5.961e-5
-1.549, 5.896e-5
-1.548, 5.832e-5
-1.547, 5.748e-5
-1.546, 5.661e-5
-1.545, 5.613e-5
-1.544, 5.535e-5
-1.543, 5.466e-5
-1.542, 5.407e-5
-1.541, 5.352e-5
-1.540, 5.303e-5
-1.539, 5.205e-5
-1.538, 5.116e-5
-1.537, 5.050e-5
-1.536, 4.989e-5
-1.535, 4.936e-5
-1.534, 4.870e-5
-1.533, 4.816e-5
-1.532, 4.768e-5
-1.531, 4.710e-5
-1.530, 4.660e-5
-1.529, 4.594e-5
-1.528, 4.511e-5
-1.527, 4.455e-5
-1.526, 4.400e-5
-1.525, 4.351e-5
-1.524, 4.301e-5
-1.523, 4.240e-5
-1.522, 4.193e-5
-1.521, 4.149e-5
-1.520, 4.113e-5
-1.519, 4.055e-5
-1.518, 4.018e-5
-1.517, 3.990e-5
-1.516, 3.917e-5
-1.515, 3.875e-5
-1.514, 3.844e-5
-1.513, 3.807e-5
-1.512, 3.762e-5
-1.511, 3.707e-5
-1.510, 3.651e-5
-1.509, 3.599e-5
-1.508, 3.558e-5
-1.507, 3.531e-5
-1.506, 3.498e-5
-1.505, 3.449e-5
-1.504, 3.415e-5
-1.503, 3.365e-5
-1.502, 3.337e-5
-1.501, 3.291e-5
-1.500, 3.242e-5
-1.499, 3.209e-5
-1.498, 3.185e-5
-1.497, 3.148e-5
-1.496, 3.091e-5
-1.495, 3.059e-5
-1.494, 3.028e-5
-1.493, 2.986e-5
-1.492, 2.954e-5
-1.491, 2.916e-5
-1.490, 2.887e-5
-1.489, 2.852e-5
-1.488, 2.814e-5
-1.487, 2.794e-5
-1.486, 2.771e-5
-1.485, 2.745e-5
-1.484, 2.720e-5
-1.483, 2.701e-5
-1.482, 2.670e-5
-1.481, 2.637e-5
-1.480, 2.617e-5
-1.479, 2.587e-5
-1.478, 2.566e-5
-1.477, 2.533e-5
-1.476, 2.505e-5
-1.475, 2.484e-5
-1.474, 2.470e-5
-1.473, 2.437e-5
-1.472, 2.424e-5
-1.471, 2.397e-5
-1.470, 2.365e-5
-1.469, 2.348e-5
-1.468, 2.319e-5
-1.467, 2.299e-5
-1.466, 2.279e-5
-1.465, 2.249e-5
-1.464, 2.218e-5
-1.463, 2.204e-5
-1.462, 2.188e-5
-1.461, 2.158e-5
-1.460, 2.143e-5
-1.459, 2.123e-5
-1.458, 2.121e-5
-1.457, 2.091e-5
-1.456, 2.072e-5
-1.455, 2.058e-5
-1.454, 2.021e-5
-1.453, 2.001e-5
-1.452, 1.982e-5
-1.451, 1.957e-5
-1.450, 1.923e-5
-1.449, 1.908e-5
-1.448, 1.903e-5
-1.447, 1.880e-5
-1.446, 1.866e-5
-1.445, 1.850e-5
-1.444, 1.830e-5
-1.443, 1.803e-5
-1.442, 1.781e-5
-1.441, 1.768e-5
-1.440, 1.754e-5
-1.439, 1.744e-5
-1.438, 1.720e-5
-1.437, 1.708e-5
-1.436, 1.701e-5
-1.435, 1.690e-5
-1.434, 1.672e-5
-1.433, 1.660e-5
-1.432, 1.642e-5
-1.431, 1.637e-5
-1.430, 1.615e-5
-1.429, 1.602e-5
-1.428, 1.584e-5
-1.427, 1.565e-5
-1.426, 1.559e-5
-1.425, 1.540e-5
-1.424, 1.528e-5
-1.423, 1.514e-5
-1.422, 1.494e-5
-1.421, 1.471e-5
-1.420, 1.461e-5
-1.419, 1.447e-5
-1.418, 1.433e-5
-1.417, 1.424e-5
-1.416, 1.414e-5
-1.415, 1.407e-5
-1.414, 1.388e-5
-1.413, 1.376e-5
-1.412, 1.364e-5
-1.411, 1.352e-5
-1.410, 1.338e-5
-1.409, 1.327e-5
-1.408, 1.311e-5
-1.407, 1.304e-5
-1.406, 1.294e-5
-1.405, 1.275e-5
-1.404, 1.267e-5
-1.403, 1.258e-5
-1.402, 1.250e-5
-1.401, 1.239e-5
-1.400, 1.224e-5
-1.399, 1.217e-5
-1.398, 1.199e-5
-1.397, 1.193e-5
-1.396, 1.179e-5
-1.395, 1.168e-5
-1.394, 1.161e-5
-1.393, 1.153e-5
-1.392, 1.139e-5
-1.391, 1.130e-5
-1.390, 1.116e-5
-1.389, 1.109e-5
-1.388, 1.104e-5
-1.387, 1.092e-5
-1.386, 1.085e-5
-1.385, 1.072e-5
-1.384, 1.061e-5
-1.383, 1.050e-5
-1.382, 1.041e-5
-1.381, 1.033e-5
-1.380, 1.023e-5
-1.379, 1.020e-5
-1.378, 1.010e-5
-1.377, 1.003e-5
-1.376, 9.962e-6
-1.375, 9.843e-6
-1.374, 9.796e-6
-1.373, 9.675e-6
-1.372, 9.612e-6
-1.371, 9.524e-6
-1.370, 9.455e-6
-1.369, 9.376e-6
-1.368, 9.279e-6
-1.367, 9.236e-6
-1.366, 9.146e-6
-1.365, 9.064e-6
-1.364, 9.016e-6
-1.363, 8.990e-6
-1.362, 8.870e-6
-1.361, 8.856e-6
-1.360, 8.790e-6
-1.359, 8.735e-6
-1.358, 8.655e-6
-1.357, 8.555e-6
-1.356, 8.490e-6
-1.355, 8.475e-6
-1.354, 8.369e-6
-1.353, 8.314e-6
-1.352, 8.252e-6
-1.351, 8.188e-6
-1.350, 8.082e-6
-1.349, 8.096e-6
-1.348, 8.007e-6
-1.347, 7.935e-6
-1.346, 7.888e-6
-1.345, 7.798e-6
-1.344, 7.765e-6
-1.343, 7.701e-6
-1.342, 7.624e-6
-1.341, 7.554e-6
-1.340, 7.516e-6
-1.339, 7.439e-6
-1.338, 7.409e-6
-1.337, 7.386e-6
-1.336, 7.341e-6
-1.335, 7.255e-6
-1.334, 7.227e-6
-1.333, 7.149e-6
-1.332, 7.132e-6
-1.331, 7.061e-6
-1.330, 6.986e-6
-1.329, 6.947e-6
-1.328, 6.927e-6
-1.327, 6.868e-6
-1.326, 6.894e-6
-1.325, 6.765e-6
-1.324, 6.711e-6
-1.323, 6.657e-6
-1.322, 6.630e-6
-1.321, 6.563e-6
-1.320, 6.522e-6
-1.319, 6.482e-6
-1.318, 6.428e-6
-1.317, 6.389e-6
-1.316, 6.349e-6
-1.315, 6.313e-6
-1.314, 6.256e-6
-1.313, 6.232e-6
-1.312, 6.165e-6
-1.311, 6.114e-6
-1.310, 6.071e-6
-1.309, 6.067e-6
-1.308, 5.993e-6
-1.307, 5.965e-6
-1.306, 5.918e-6
-1.305, 5.874e-6
-1.304, 5.864e-6
-1.303, 5.804e-6
-1.302, 5.764e-6
-1.301, 5.717e-6
-1.300, 5.665e-6
-1.299, 5.643e-6
-1.298, 5.593e-6
-1.297, 5.573e-6
-1.296, 5.542e-6
-1.295, 5.506e-6
-1.294, 5.487e-6
-1.293, 5.423e-6
-1.292, 5.394e-6
-1.291, 5.360e-6
-1.290, 5.330e-6
-1.289, 5.299e-6
-1.288, 5.259e-6
-1.287, 5.229e-6
-1.286, 5.194e-6
-1.285, 5.156e-6
-1.284, 5.152e-6
-1.283, 5.117e-6
-1.282, 5.078e-6
-1.281, 5.071e-6
-1.280, 5.022e-6
-1.279, 4.996e-6
-1.278, 4.941e-6
-1.277, 4.917e-6
-1.276, 4.907e-6
-1.275, 4.880e-6
-1.274, 4.847e-6
-1.273, 4.819e-6
-1.272, 4.777e-6
-1.271, 4.759e-6
-1.270, 4.729e-6
-1.269, 4.713e-6
-1.268, 4.677e-6
-1.267, 4.632e-6
-1.266, 4.630e-6
-1.265, 4.579e-6
-1.264, 4.582e-6
-1.263, 4.522e-6
-1.262, 4.527e-6
-1.261, 4.488e-6
-1.260, 4.470e-6
-1.259, 4.444e-6
-1.258, 4.421e-6
-1.257, 4.407e-6
-1.256, 4.388e-6
-1.255, 4.348e-6
-1.254, 4.353e-6
-1.253, 4.304e-6
-1.252, 4.276e-6
-1.251, 4.258e-6
-1.250, 4.229e-6
-1.249, 4.207e-6
-1.248, 4.199e-6
-1.247, 4.183e-6
-1.246, 4.163e-6
-1.245, 4.135e-6
-1.244, 4.123e-6
-1.243, 4.086e-6
-1.242, 4.071e-6
-1.241, 4.076e-6
-1.240, 4.031e-6
-1.239, 4.005e-6
-1.238, 3.992e-6
-1.237, 3.967e-6
-1.236, 3.963e-6
-1.235, 3.937e-6
-1.234, 3.922e-6
-1.233, 3.911e-6
-1.232, 3.894e-6
-1.231, 3.858e-6
-1.230, 3.849e-6
-1.229, 3.816e-6
-1.228, 3.790e-6
-1.227, 3.782e-6
-1.226, 3.776e-6
-1.225, 3.756e-6
-1.224, 3.729e-6
-1.223, 3.703e-6
-1.222, 3.692e-6
-1.221, 3.683e-6
-1.220, 3.659e-6
-1.219, 3.646e-6
-1.218, 3.622e-6
-1.217, 3.618e-6
-1.216, 3.598e-6
-1.215, 3.586e-6
-1.214, 3.580e-6
-1.213, 3.550e-6
-1.212, 3.546e-6
-1.211, 3.518e-6
-1.210, 3.512e-6
-1.209, 3.484e-6
-1.208, 3.483e-6
-1.207, 3.465e-6
-1.206, 3.465e-6
-1.205, 3.438e-6
-1.204, 3.434e-6
-1.203, 3.397e-6
-1.202, 3.393e-6
-1.201, 3.381e-6
-1.200, 3.367e-6
-1.199, 3.361e-6
-1.198, 3.355e-6
-1.197, 3.330e-6
-1.196, 3.327e-6
-1.195, 3.305e-6
-1.194, 3.304e-6
-1.193, 3.286e-6
-1.192, 3.272e-6
-1.191, 3.267e-6
-1.190, 3.231e-6
-1.189, 3.228e-6
-1.188, 3.208e-6
-1.187, 3.203e-6
-1.186, 3.211e-6
-1.185, 3.172e-6
-1.184, 3.143e-6
-1.183, 3.143e-6
-1.182, 3.143e-6
-1.181, 3.133e-6
-1.180, 3.105e-6
-1.179, 3.098e-6
-1.178, 3.057e-6
-1.177, 3.062e-6
-1.176, 3.054e-6
-1.175, 3.052e-6
-1.174, 3.046e-6
-1.173, 3.062e-6
-1.172, 3.048e-6
-1.171, 3.024e-6
-1.170, 2.995e-6
-1.169, 3.021e-6
-1.168, 2.995e-6
-1.167, 2.991e-6
-1.166, 2.993e-6
-1.165, 2.979e-6
-1.164, 2.978e-6
-1.163, 2.956e-6
-1.162, 2.953e-6
-1.161, 2.931e-6
-1.160, 2.924e-6
-1.159, 2.912e-6
-1.158, 2.901e-6
-1.157, 2.892e-6
-1.156, 2.888e-6
-1.155, 2.876e-6
-1.154, 2.881e-6
-1.153, 2.852e-6
-1.152, 2.851e-6
-1.151, 2.820e-6
-1.150, 2.829e-6
-1.149, 2.802e-6
-1.148, 2.798e-6
-1.147, 2.784e-6
-1.146, 2.763e-6
-1.145, 2.770e-6
-1.144, 2.764e-6
-1.143, 2.757e-6
-1.142, 2.734e-6
-1.141, 2.748e-6
-1.140, 2.728e-6
-1.139, 2.727e-6
-1.138, 2.703e-6
-1.137, 2.694e-6
-1.136, 2.690e-6
-1.135, 2.682e-6
-1.134, 2.676e-6
-1.133, 2.657e-6
-1.132, 2.653e-6
-1.131, 2.643e-6
-1.130, 2.633e-6
-1.129, 2.606e-6
-1.128, 2.605e-6
-1.127, 2.594e-6
-1.126, 2.580e-6
-1.125, 2.568e-6
-1.124, 2.560e-6
-1.123, 2.534e-6
-1.122, 2.537e-6
-1.121, 2.526e-6
-1.120, 2.513e-6
-1.119, 2.514e-6
-1.118, 2.506e-6
-1.117, 2.514e-6
-1.116, 2.488e-6
-1.115, 2.479e-6
-1.114, 2.470e-6
-1.113, 2.458e-6
-1.112, 2.442e-6
-1.111, 2.442e-6
-1.110, 2.426e-6
-1.109, 2.449e-6
-1.108, 2.418e-6
-1.107, 2.402e-6
-1.106, 2.405e-6
-1.105, 2.392e-6
-1.104, 2.366e-6
-1.103, 2.359e-6
-1.102, 2.355e-6
-1.101, 2.337e-6
-1.100, 2.340e-6
-1.099, 2.313e-6
-1.098, 2.317e-6
-1.097, 2.316e-6
-1.096, 2.325e-6
-1.095, 2.291e-6
-1.094, 2.301e-6
-1.093, 2.270e-6
-1.092, 2.287e-6
-1.091, 2.270e-6
-1.090, 2.262e-6
-1.089, 2.239e-6
-1.088, 2.237e-6
-1.087, 2.244e-6
-1.086, 2.209e-6
-1.085, 2.208e-6
-1.084, 2.198e-6
-1.083, 2.192e-6
-1.082, 2.170e-6
-1.081, 2.158e-6
-1.080, 2.154e-6
-1.079, 2.147e-6
-1.078, 2.128e-6
-1.077, 2.131e-6
-1.076, 2.130e-6
-1.075, 2.116e-6
-1.074, 2.088e-6
-1.073, 2.079e-6
-1.072, 2.082e-6
-1.071, 2.068e-6
-1.070, 2.068e-6
-1.069, 2.039e-6
-1.068, 2.028e-6
-1.067, 2.025e-6
-1.066, 2.022e-6
-1.065, 1.986e-6
-1.064, 2.004e-6
-1.063, 1.965e-6
-1.062, 1.962e-6
-1.061, 1.942e-6
-1.060, 1.907e-6
-1.059, 1.918e-6
-1.058, 1.899e-6
-1.057, 1.889e-6
-1.056, 1.884e-6
-1.055, 1.849e-6
-1.054, 1.842e-6
-1.053, 1.835e-6
-1.052, 1.836e-6
-1.051, 1.808e-6
-1.050, 1.817e-6
-1.049, 1.792e-6
-1.048, 1.767e-6
-1.047, 1.767e-6
-1.046, 1.743e-6
-1.045, 1.747e-6
-1.044, 1.725e-6
-1.043, 1.685e-6
-1.042, 1.697e-6
-1.041, 1.666e-6
-1.040, 1.659e-6
-1.039, 1.644e-6
-1.038, 1.634e-6
-1.037, 1.599e-6
-1.036, 1.601e-6
-1.035, 1.568e-6
-1.034, 1.552e-6
-1.033, 1.539e-6
-1.032, 1.550e-6
-1.031, 1.506e-6
-1.030, 1.486e-6
-1.029, 1.460e-6
-1.028, 1.457e-6
-1.027, 1.438e-6
-1.026, 1.407e-6
-1.025, 1.383e-6
-1.024, 1.367e-6
-1.023, 1.342e-6
-1.022, 1.333e-6
-1.021, 1.322e-6
-1.020, 1.300e-6
-1.019, 1.269e-6
-1.018, 1.245e-6
-1.017, 1.221e-6
-1.016, 1.211e-6
-1.015, 1.189e-6
-1.014, 1.166e-6
-1.013, 1.149e-6
-1.012, 1.120e-6
-1.011, 1.102e-6
-1.010, 1.072e-6
-1.009, 1.052e-6
-1.008, 1.014e-6
-1.007, 1.012e-6
-1.006, 9.874e-7
-1.005, 9.706e-7
-1.004, 9.479e-7
-1.003, 9.104e-7
-1.002, 8.986e-7
-1.001, 8.532e-7
-1.000, 1.205e-6
-1.001, 1.502e-6
-1.002, 1.648e-6
-1.003, 1.774e-6
-1.004, 1.871e-6
-1.005, 1.965e-6
-1.006, 2.066e-6
-1.007, 2.146e-6
-1.008, 2.215e-6
-1.009, 2.290e-6
-1.010, 2.349e-6
-1.011, 2.418e-6
-1.012, 2.494e-6
-1.013, 2.534e-6
-1.014, 2.589e-6
-1.015, 2.639e-6
-1.016, 2.691e-6
-1.017, 2.740e-6
-1.018, 2.784e-6
-1.019, 2.831e-6
-1.020, 2.865e-6
-1.021, 2.911e-6
-1.022, 2.952e-6
-1.023, 2.993e-6
-1.024, 3.018e-6
-1.025, 3.063e-6
-1.026, 3.107e-6
-1.027, 3.131e-6
-1.028, 3.161e-6
-1.029, 3.188e-6
-1.030, 3.225e-6
-1.031, 3.250e-6
-1.032, 3.273e-6
-1.033, 3.297e-6
-1.034, 3.340e-6
-1.035, 3.344e-6
-1.036, 3.388e-6
-1.037, 3.411e-6
-1.038, 3.434e-6
-1.039, 3.456e-6
-1.040, 3.482e-6
-1.041, 3.513e-6
-1.042, 3.530e-6
-1.043, 3.554e-6
-1.044, 3.585e-6
-1.045, 3.596e-6
-1.046, 3.630e-6
-1.047, 3.654e-6
-1.048, 3.644e-6
-1.049, 3.685e-6
-1.050, 3.702e-6
-1.051, 3.714e-6
-1.052, 3.729e-6
-1.053, 3.768e-6
-1.054, 3.760e-6
-1.055, 3.787e-6
-1.056, 3.808e-6
-1.057, 3.837e-6
-1.058, 3.853e-6
-1.059, 3.867e-6
-1.060, 3.876e-6
-1.061, 3.883e-6
-1.062, 3.904e-6
-1.063, 3.940e-6
-1.064, 3.954e-6
-1.065, 3.955e-6
-1.066, 3.973e-6
-1.067, 3.984e-6
-1.068, 4.009e-6
-1.069, 4.013e-6
-1.070, 4.041e-6
-1.071, 4.039e-6
-1.072, 4.061e-6
-1.073, 4.057e-6
-1.074, 4.097e-6
-1.075, 4.118e-6
-1.076, 4.134e-6
-1.077, 4.132e-6
-1.078, 4.172e-6
-1.079, 4.170e-6
-1.080, 4.189e-6
-1.081, 4.191e-6
-1.082, 4.206e-6
-1.083, 4.219e-6
-1.084, 4.217e-6
-1.085, 4.253e-6
-1.086, 4.243e-6
-1.087, 4.258e-6
-1.088, 4.284e-6
-1.089, 4.286e-6
-1.090, 4.311e-6
-1.091, 4.327e-6
-1.092, 4.326e-6
-1.093, 4.345e-6
-1.094, 4.348e-6
-1.095, 4.364e-6
-1.096, 4.373e-6
-1.097, 4.379e-6
-1.098, 4.392e-6
-1.099, 4.400e-6
-1.100, 4.420e-6
-1.101, 4.443e-6
-1.102, 4.445e-6
-1.103, 4.438e-6
-1.104, 4.480e-6
-1.105, 4.478e-6
-1.106, 4.487e-6
-1.107, 4.507e-6
-1.108, 4.512e-6
-1.109, 4.513e-6
-1.110, 4.551e-6
-1.111, 4.538e-6
-1.112, 4.556e-6
-1.113, 4.566e-6
-1.114, 4.580e-6
-1.115, 4.601e-6
-1.116, 4.602e-6
-1.117, 4.608e-6
-1.118, 4.631e-6
-1.119, 4.644e-6
-1.120, 4.643e-6
-1.121, 4.667e-6
-1.122, 4.672e-6
-1.123, 4.691e-6
-1.124, 4.706e-6
-1.125, 4.704e-6
-1.126, 4.726e-6
-1.127, 4.729e-6
-1.128, 4.736e-6
-1.129, 4.757e-6
-1.130, 4.753e-6
-1.131, 4.774e-6
-1.132, 4.783e-6
-1.133, 4.812e-6
-1.134, 4.805e-6
-1.135, 4.807e-6
-1.136, 4.835e-6
-1.137, 4.850e-6
-1.138, 4.846e-6
-1.139, 4.865e-6
-1.140, 4.865e-6
-1.141, 4.874e-6
-1.142, 4.887e-6
-1.143, 4.899e-6
-1.144, 4.911e-6
-1.145, 4.918e-6
-1.146, 4.958e-6
-1.147, 4.952e-6
-1.148, 4.953e-6
-1.149, 4.944e-6
-1.150, 4.970e-6
-1.151, 4.977e-6
-1.152, 5.003e-6
-1.153, 5.013e-6
-1.154, 5.032e-6
-1.155, 5.035e-6
-1.156, 5.033e-6
-1.157, 5.056e-6
-1.158, 5.046e-6
-1.159, 5.078e-6
-1.160, 5.092e-6
-1.161, 5.093e-6
-1.162, 5.094e-6
-1.163, 5.108e-6
-1.164, 5.129e-6
-1.165, 5.148e-6
-1.166, 5.143e-6
-1.167, 5.157e-6
-1.168, 5.164e-6
-1.169, 5.182e-6
-1.170, 5.202e-6
-1.171, 5.201e-6
-1.172, 5.211e-6
-1.173, 5.235e-6
-1.174, 5.236e-6
-1.175, 5.246e-6
-1.176, 5.267e-6
-1.177, 5.267e-6
-1.178, 5.290e-6
-1.179, 5.291e-6
-1.180, 5.315e-6
-1.181, 5.324e-6
-1.182, 5.311e-6
-1.183, 5.349e-6
-1.184, 5.355e-6
-1.185, 5.377e-6
-1.186, 5.373e-6
-1.187, 5.367e-6
-1.188, 5.372e-6
-1.189, 5.410e-6
-1.190, 5.430e-6
-1.191, 5.438e-6
-1.192, 5.435e-6
-1.193, 5.458e-6
-1.194, 5.455e-6
-1.195, 5.469e-6
-1.196, 5.482e-6
-1.197, 5.521e-6
-1.198, 5.518e-6
-1.199, 5.532e-6
-1.200, 5.534e-6
-1.201, 5.562e-6
-1.202, 5.585e-6
-1.203, 5.601e-6
-1.204, 5.599e-6
-1.205, 5.613e-6
-1.206, 5.653e-6
-1.207, 5.641e-6
-1.208, 5.669e-6
-1.209, 5.689e-6
-1.210, 5.710e-6
-1.211, 5.714e-6
-1.212, 5.741e-6
-1.213, 5.758e-6
-1.214, 5.764e-6
-1.215, 5.775e-6
-1.216, 5.819e-6
-1.217, 5.823e-6
-1.218, 5.842e-6
-1.219, 5.844e-6
-1.220, 5.865e-6
-1.221, 5.895e-6
-1.222, 5.906e-6
-1.223, 5.931e-6
-1.224, 5.912e-6
-1.225, 5.946e-6
-1.226, 5.964e-6
-1.227, 5.987e-6
-1.228, 5.996e-6
-1.229, 6.057e-6
-1.230, 6.048e-6
-1.231, 6.074e-6
-1.232, 6.064e-6
-1.233, 6.084e-6
-1.234, 6.098e-6
-1.235, 6.137e-6
-1.236, 6.138e-6
-1.237, 6.165e-6
-1.238, 6.165e-6
-1.239, 6.186e-6
-1.240, 6.220e-6
-1.241, 6.272e-6
-1.242, 6.271e-6
-1.243, 6.290e-6
-1.244, 6.311e-6
-1.245, 6.303e-6
-1.246, 6.364e-6
-1.247, 6.364e-6
-1.248, 6.400e-6
-1.249, 6.409e-6
-1.250, 6.434e-6
-1.251, 6.452e-6
-1.252, 6.487e-6
-1.253, 6.514e-6
-1.254, 6.541e-6
-1.255, 6.569e-6
-1.256, 6.564e-6
-1.257, 6.593e-6
-1.258, 6.651e-6
-1.259, 6.655e-6
-1.260, 6.694e-6
-1.261, 6.732e-6
-1.262, 6.736e-6
-1.263, 6.765e-6
-1.264, 6.790e-6
-1.265, 6.822e-6
-1.266, 6.859e-6
-1.267, 6.885e-6
-1.268, 6.913e-6
-1.269, 6.946e-6
-1.270, 6.974e-6
-1.271, 7.011e-6
-1.272, 7.027e-6
-1.273, 7.074e-6
-1.274, 7.116e-6
-1.275, 7.134e-6
-1.276, 7.177e-6
-1.277, 7.193e-6
-1.278, 7.248e-6
-1.279, 7.284e-6
-1.280, 7.332e-6
-1.281, 7.359e-6
-1.282, 7.378e-6
-1.283, 7.388e-6
-1.284, 7.448e-6
-1.285, 7.468e-6
-1.286, 7.524e-6
-1.287, 7.575e-6
-1.288, 7.583e-6
-1.289, 7.636e-6
-1.290, 7.645e-6
-1.291, 7.691e-6
-1.292, 7.717e-6
-1.293, 7.784e-6
-1.294, 7.814e-6
-1.295, 7.840e-6
-1.296, 7.892e-6
-1.297, 7.940e-6
-1.298, 7.955e-6
-1.299, 7.992e-6
-1.300, 8.046e-6
-1.301, 8.081e-6
-1.302, 8.114e-6
-1.303, 8.184e-6
-1.304, 8.210e-6
-1.305, 8.274e-6
-1.306, 8.326e-6
-1.307, 8.364e-6
-1.308, 8.382e-6
-1.309, 8.472e-6
-1.310, 8.511e-6
-1.311, 8.585e-6
-1.312, 8.605e-6
-1.313, 8.636e-6
-1.314, 8.701e-6
-1.315, 8.759e-6
-1.316, 8.817e-6
-1.317, 8.844e-6
-1.318, 8.891e-6
-1.319, 8.951e-6
-1.320, 9.021e-6
-1.321, 9.069e-6
-1.322, 9.149e-6
-1.323, 9.175e-6
-1.324, 9.264e-6
-1.325, 9.284e-6
-1.326, 9.350e-6
-1.327, 9.403e-6
-1.328, 9.472e-6
-1.329, 9.537e-6
-1.330, 9.571e-6
-1.331, 9.631e-6
-1.332, 9.733e-6
-1.333, 9.766e-6
-1.334, 9.840e-6
-1.335, 9.885e-6
-1.336, 9.974e-6
-1.337, 1.000e-5
-1.338, 1.008e-5
-1.339, 1.015e-5
-1.340, 1.019e-5
-1.341, 1.026e-5
-1.342, 1.032e-5
-1.343, 1.041e-5
-1.344, 1.047e-5
-1.345, 1.054e-5
-1.346, 1.061e-5
-1.347, 1.068e-5
-1.348, 1.074e-5
-1.349, 1.084e-5
-1.350, 1.083e-5
-1.351, 1.097e-5
-1.352, 1.101e-5
-1.353, 1.108e-5
-1.354, 1.115e-5
-1.355, 1.120e-5
-1.356, 1.130e-5
-1.357, 1.132e-5
-1.358, 1.140e-5
-1.359, 1.147e-5
-1.360, 1.158e-5
-1.361, 1.161e-5
-1.362, 1.171e-5
-1.363, 1.176e-5
-1.364, 1.188e-5
-1.365, 1.191e-5
-1.366, 1.204e-5
-1.367, 1.211e-5
-1.368, 1.214e-5
-1.369, 1.230e-5
-1.370, 1.237e-5
-1.371, 1.242e-5
-1.372, 1.255e-5
-1.373, 1.259e-5
-1.374, 1.271e-5
-1.375, 1.277e-5
-1.376, 1.280e-5
-1.377, 1.292e-5
-1.378, 1.304e-5
-1.379, 1.313e-5
-1.380, 1.322e-5
-1.381, 1.332e-5
-1.382, 1.343e-5
-1.383, 1.345e-5
-1.384, 1.352e-5
-1.385, 1.362e-5
-1.386, 1.378e-5
-1.387, 1.384e-5
-1.388, 1.397e-5
-1.389, 1.402e-5
-1.390, 1.411e-5
-1.391, 1.423e-5
-1.392, 1.426e-5
-1.393, 1.441e-5
-1.394, 1.453e-5
-1.395, 1.468e-5
-1.396, 1.478e-5
-1.397, 1.485e-5
-1.398, 1.498e-5
-1.399, 1.508e-5
-1.400, 1.513e-5
-1.401, 1.524e-5
-1.402, 1.534e-5
-1.403, 1.545e-5
-1.404, 1.558e-5
-1.405, 1.571e-5
-1.406, 1.580e-5
-1.407, 1.594e-5
-1.408, 1.600e-5
-1.409, 1.612e-5
-1.410, 1.618e-5
-1.411, 1.629e-5
-1.412, 1.639e-5
-1.413, 1.654e-5
-1.414, 1.656e-5
-1.415, 1.678e-5
-1.416, 1.687e-5
-1.417, 1.699e-5
-1.418, 1.711e-5
-1.419, 1.721e-5
-1.420, 1.731e-5
-1.421, 1.746e-5
-1.422, 1.754e-5
-1.423, 1.766e-5
-1.424, 1.776e-5
-1.425, 1.796e-5
-1.426, 1.817e-5
-1.427, 1.823e-5
-1.428, 1.839e-5
-1.429, 1.848e-5
-1.430, 1.863e-5
-1.431, 1.868e-5
-1.432, 1.880e-5
-1.433, 1.894e-5
-1.434, 1.922e-5
-1.435, 1.929e-5
-1.436, 1.942e-5
-1.437, 1.958e-5
-1.438, 1.969e-5
-1.439, 1.981e-5
-1.440, 1.999e-5
-1.441, 2.014e-5
-1.442, 2.023e-5
-1.443, 2.043e-5
-1.444, 2.056e-5
-1.445, 2.075e-5
-1.446, 2.099e-5
-1.447, 2.124e-5
-1.448, 2.128e-5
-1.449, 2.151e-5
-1.450, 2.164e-5
-1.451, 2.179e-5
-1.452, 2.199e-5
-1.453, 2.205e-5
-1.454, 2.228e-5
-1.455, 2.246e-5
-1.456, 2.259e-5
-1.457, 2.270e-5
-1.458, 2.282e-5
-1.459, 2.305e-5
-1.460, 2.321e-5
-1.461, 2.336e-5
-1.462, 2.357e-5
-1.463, 2.372e-5
-1.464, 2.400e-5
-1.465, 2.420e-5
-1.466, 2.436e-5
-1.467, 2.451e-5
-1.468, 2.468e-5
-1.469, 2.482e-5
-1.470, 2.499e-5
-1.471, 2.523e-5
-1.472, 2.549e-5
-1.473, 2.556e-5
-1.474, 2.575e-5
-1.475, 2.587e-5
-1.476, 2.612e-5
-1.477, 2.638e-5
-1.478, 2.695e-5
-1.479, 2.691e-5
-1.480, 2.720e-5
-1.481, 2.733e-5
-1.482, 2.757e-5
-1.483, 2.789e-5
-1.484, 2.823e-5
-1.485, 2.838e-5
-1.486, 2.859e-5
-1.487, 2.886e-5
-1.488, 2.913e-5
-1.489, 2.940e-5
-1.490, 2.968e-5
-1.491, 2.988e-5
-1.492, 3.012e-5
-1.493, 3.045e-5
-1.494, 3.061e-5
-1.495, 3.092e-5
-1.496, 3.119e-5
-1.497, 3.144e-5
-1.498, 3.161e-5
-1.499, 3.202e-5
-1.500, 3.227e-5
-1.501, 3.250e-5
-1.502, 3.262e-5
-1.503, 3.297e-5
-1.504, 3.332e-5
-1.505, 3.361e-5
-1.506, 3.394e-5
-1.507, 3.422e-5
-1.508, 3.446e-5
-1.509, 3.471e-5
-1.510, 3.513e-5
-1.511, 3.549e-5
-1.512, 3.590e-5
-1.513, 3.622e-5
-1.514, 3.668e-5
-1.515, 3.698e-5
-1.516, 3.714e-5
-1.517, 3.745e-5
-1.518, 3.776e-5
-1.519, 3.823e-5
-1.520, 3.871e-5
-1.521, 3.905e-5
-1.522, 3.934e-5
-1.523, 3.969e-5
-1.524, 4.009e-5
-1.525, 4.044e-5
-1.526, 4.081e-5
-1.527, 4.116e-5
-1.528, 4.168e-5
-1.529, 4.213e-5
-1.530, 4.249e-5
-1.531, 4.296e-5
-1.532, 4.342e-5
-1.533, 4.381e-5
-1.534, 4.438e-5
-1.535, 4.466e-5
-1.536, 4.518e-5
-1.537, 4.566e-5
-1.538, 4.625e-5
-1.539, 4.698e-5
-1.540, 4.738e-5
-1.541, 4.790e-5
-1.542, 4.854e-5
-1.543, 4.919e-5
-1.544, 4.941e-5
-1.545, 4.971e-5
-1.546, 5.006e-5
-1.547, 5.075e-5
-1.548, 5.135e-5
-1.549, 5.179e-5
-1.550, 5.225e-5
-1.551, 5.291e-5
-1.552, 5.353e-5
-1.553, 5.358e-5
-1.554, 5.446e-5
-1.555, 5.499e-5
-1.556, 5.543e-5
-1.557, 5.603e-5
-1.558, 5.680e-5
-1.559, 5.741e-5
-1.560, 5.793e-5
-1.561, 5.864e-5
-1.562, 5.885e-5
-1.563, 5.916e-5
-1.564, 5.984e-5
-1.565, 6.056e-5
-1.566, 6.131e-5
-1.567, 6.227e-5
-1.568, 6.276e-5
-1.569, 6.355e-5
-1.570, 6.436e-5
-1.571, 6.505e-5
-1.572, 6.597e-5
-1.573, 6.646e-5
-1.574, 6.762e-5
-1.575, 6.863e-5
-1.576, 6.990e-5
-1.577, 7.061e-5
-1.578, 7.163e-5
-1.579, 7.260e-5
-1.580, 7.349e-5
-1.581, 7.433e-5
-1.582, 7.509e-5
-1.583, 7.609e-5
-1.584, 7.697e-5
-1.585, 7.785e-5
-1.586, 7.899e-5
-1.587, 8.004e-5
-1.588, 8.101e-5
-1.589, 8.208e-5
-1.590, 8.393e-5
-1.591, 8.517e-5
-1.592, 8.632e-5
-1.593, 8.752e-5
-1.594, 8.888e-5
-1.595, 8.991e-5
-1.596, 9.116e-5
-1.597, 9.226e-5
-1.598, 9.370e-5
-1.599, 9.497e-5
-1.600, 9.488e-5
-1.599, 9.392e-5
-1.598, 9.257e-5
-1.597, 9.097e-5
-1.596, 8.982e-5
-1.595, 8.874e-5
-1.594, 8.757e-5
-1.593, 8.620e-5
-1.592, 8.502e-5
-1.591, 8.422e-5
-1.590, 8.326e-5
-1.589, 8.231e-5
-1.588, 8.077e-5
-1.587, 7.997e-5
-1.586, 7.896e-5
-1.585, 7.795e-5
-1.584, 7.713e-5
-1.583, 7.594e-5
-1.582, 7.513e-5
-1.581, 7.411e-5
-1.580, 7.292e-5
-1.579, 7.203e-5
-1.578, 7.100e-5
-1.577, 7.011e-5
-1.576, 6.928e-5
-1.575, 6.849e-5
-1.574, 6.757e-5
-1.573, 6.672e-5
-1.572, 6.573e-5
-1.571, 6.513e-5
-1.570, 6.397e-5
-1.569, 6.326e-5
-1.568, 6.241e-5
-1.567, 6.177e-5
-1.566, 6.090e-5
-1.565, 6.021e-5
-1.564, 5.941e-5
-1.563, 5.821e-5
-1.562, 5.745e-5
-1.561, 5.682e-5
-1.560, 5.630e-5
-1.559, 5.569e-5
-1.558, 5.522e-5
-1.557, 5.418e-5
-1.556, 5.347e-5
-1.555, 5.252e-5
-1.554, 5.191e-5
-1.553, 5.142e-5
-1.552, 5.084e-5
-1.551, 5.030e-5
-1.550, 4.957e-5
-1.549, 4.902e-5
-1.548, 4.832e-5
-1.547, 4.750e-5
-1.546, 4.690e-5
-1.545, 4.628e-5
-1.544, 4.571e-5
-1.543, 4.517e-5
-1.542, 4.436e-5
-1.541, 4.378e-5
-1.540, 4.336e-5
-1.539, 4.292e-5
-1.538, 4.238e-5
-1.537, 4.186e-5
-1.536, 4.137e-5
-1.535, 4.096e-5
-1.534, 4.041e-5
-1.533, 4.004e-5
-1.532, 3.948e-5
-1.531, 3.895e-5
-1.530, 3.840e-5
-1.529, 3.789e-5
-1.528, 3.746e-5
-1.527, 3.706e-5
-1.526, 3.669e-5
-1.525, 3.601e-5
-1.524, 3.549e-5
-1.523, 3.513e-5
-1.522, 3.454e-5
-1.521, 3.420e-5
-1.520, 3.370e-5
-1.519, 3.343e-5
-1.518, 3.306e-5
-1.517, 3.282e-5
-1.516, 3.239e-5
-1.515, 3.200e-5
-1.514, 3.158e-5
-1.513, 3.126e-5
-1.512, 3.106e-5
-1.511, 3.067e-5
-1.510, 3.028e-5
-1.509, 2.996e-5
-1.508, 2.952e-5
-1.507, 2.931e-5
-1.506, 2.904e-5
-1.505, 2.870e-5
-1.504, 2.839e-5
-1.503, 2.808e-5
-1.502, 2.777e-5
-1.501, 2.749e-5
-1.500, 2.722e-5
-1.499, 2.691e-5
-1.498, 2.664e-5
-1.497, 2.640e-5
-1.496, 2.613e-5
-1.495, 2.577e-5
-1.494, 2.550e-5
-1.493, 2.524e-5
-1.492, 2.499e-5
-1.491, 2.471e-5
-1.490, 2.446e-5
-1.489, 2.417e-5
-1.488, 2.397e-5
-1.487, 2.379e-5
-1.486, 2.363e-5
-1.485, 2.334e-5
-1.484, 2.320e-5
-1.483, 2.286e-5
-1.482, 2.270e-5
-1.481, 2.237e-5
-1.480, 2.233e-5
-1.479, 2.212e-5
-1.478, 2.198e-5
-1.477, 2.166e-5
-1.476, 2.142e-5
-1.475, 2.121e-5
-1.474, 2.102e-5
-1.473, 2.079e-5
-1.472, 2.054e-5
-1.471, 2.032e-5
-1.470, 2.013e-5
-1.469, 1.996e-5
-1.468, 1.977e-5
-1.467, 1.960e-5
-1.466, 1.938e-5
-1.465, 1.918e-5
-1.464, 1.902e-5
-1.463, 1.886e-5
-1.462, 1.870e-5
-1.461, 1.854e-5
-1.460, 1.834e-5
-1.459, 1.821e-5
-1.458, 1.804e-5
-1.457, 1.784e-5
-1.456, 1.771e-5
-1.455, 1.750e-5
-1.454, 1.734e-5
-1.453, 1.722e-5
-1.452, 1.706e-5
-1.451, 1.693e-5
-1.450, 1.671e-5
-1.449, 1.659e-5
-1.448, 1.643e-5
-1.447, 1.622e-5
-1.446, 1.606e-5
-1.445, 1.595e-5
-1.444, 1.578e-5
-1.443, 1.567e-5
-1.442, 1.555e-5
-1.441, 1.539e-5
-1.440, 1.526e-5
-1.439, 1.513e-5
-1.438, 1.504e-5
-1.437, 1.492e-5
-1.436, 1.474e-5
-1.435, 1.464e-5
-1.434, 1.450e-5
-1.433, 1.433e-5
-1.432, 1.420e-5
-1.431, 1.410e-5
-1.430, 1.393e-5
-1.429, 1.383e-5
-1.428, 1.370e-5
-1.427, 1.360e-5
-1.426, 1.352e-5
-1.425, 1.338e-5
-1.424, 1.327e-5
-1.423, 1.318e-5
-1.422, 1.304e-5
-1.421, 1.294e-5
-1.420, 1.285e-5
-1.419, 1.275e-5
-1.418, 1.265e-5
-1.417, 1.252e-5
-1.416, 1.245e-5
-1.415, 1.235e-5
-1.414, 1.223e-5
-1.413, 1.212e-5
-1.412, 1.204e-5
-1.411, 1.198e-5
-1.410, 1.186e-5
-1.409, 1.174e-5
-1.408, 1.165e-5
-1.407, 1.162e-5
-1.406, 1.156e-5
-1.405, 1.147e-5
-1.404, 1.135e-5
-1.403, 1.126e-5
-1.402, 1.111e-5
-1.401, 1.102e-5
-1.400, 1.097e-5
-1.399, 1.087e-5
-1.398, 1.079e-5
-1.397, 1.071e-5
-1.396, 1.064e-5
-1.395, 1.052e-5
-1.394, 1.041e-5
-1.393, 1.035e-5
-1.392, 1.028e-5
-1.391, 1.021e-5
-1.390, 1.010e-5
-1.389, 1.007e-5
-1.388, 1.001e-5
-1.387, 9.920e-6
-1.386, 9.789e-6
-1.385, 9.721e-6
-1.384, 9.622e-6
-1.383, 9.588e-6
-1.382, 9.491e-6
-1.381, 9.373e-6
-1.380, 9.344e-6
-1.379, 9.247e-6
-1.378, 9.173e-6
-1.377, 9.097e-6
-1.376, 9.025e-6
-1.375, 8.981e-6
-1.374, 8.914e-6
-1.373, 8.798e-6
-1.372, 8.779e-6
-1.371, 8.685e-6
-1.370, 8.622e-6
-1.369, 8.548e-6
-1.368, 8.472e-6
-1.367, 8.414e-6
-1.366, 8.380e-6
-1.365, 8.285e-6
-1.364, 8.196e-6
-1.363, 8.159e-6
-1.362, 8.082e-6
-1.361, 8.034e-6
-1.360, 8.011e-6
-1.359, 7.898e-6
-1.358, 7.853e-6
-1.357, 7.838e-6
-1.356, 7.798e-6
-1.355, 7.709e-6
-1.354, 7.672e-6
-1.353, 7.615e-6
-1.352, 7.536e-6
-1.351, 7.523e-6
-1.350, 7.415e-6
-1.349, 7.384e-6
-1.348, 7.346e-6
-1.347, 7.290e-6
-1.346, 7.262e-6
-1.345, 7.182e-6
-1.344, 7.130e-6
-1.343, 7.063e-6
-1.342, 7.000e-6
-1.341, 6.959e-6
-1.340, 6.903e-6
-1.339, 6.857e-6
-1.338, 6.824e-6
-1.337, 6.736e-6
-1.336, 6.731e-6
-1.335, 6.693e-6
-1.334, 6.636e-6
-1.333, 6.585e-6
-1.332, 6.540e-6
-1.331, 6.495e-6
-1.330, 6.442e-6
-1.329, 6.397e-6
-1.328, 6.357e-6
-1.327, 6.294e-6
-1.326, 6.278e-6
-1.325, 6.202e-6
-1.324, 6.187e-6
-1.323, 6.117e-6
-1.322, 6.101e-6
-1.321, 6.061e-6
-1.320, 5.996e-6
-1.319, 5.952e-6
-1.318, 5.937e-6
-1.317, 5.882e-6
-1.316, 5.852e-6
-1.315, 5.806e-6
-1.314, 5.744e-6
-1.313, 5.739e-6
-1.312, 5.668e-6
-1.311, 5.642e-6
-1.310, 5.595e-6
-1.309, 5.579e-6
-1.308, 5.515e-6
-1.307, 5.495e-6
-1.306, 5.459e-6
-1.305, 5.413e-6
-1.304, 5.387e-6
-1.303, 5.362e-6
-1.302, 5.296e-6
-1.301, 5.285e-6
-1.300, 5.242e-6
-1.299, 5.217e-6
-1.298, 5.177e-6
-1.297, 5.139e-6
-1.296, 5.149e-6
-1.295, 5.096e-6
-1.294, 5.067e-6
-1.293, 5.008e-6
-1.292, 4.983e-6
-1.291, 4.960e-6
-1.290, 4.953e-6
-1.289, 4.896e-6
-1.288, 4.873e-6
-1.287, 4.834e-6
-1.286, 4.810e-6
-1.285, 4.797e-6
-1.284, 4.750e-6
-1.283, 4.730e-6
-1.282, 4.720e-6
-1.281, 4.694e-6
-1.280, 4.649e-6
-1.279, 4.627e-6
-1.278, 4.592e-6
-1.277, 4.573e-6
-1.276, 4.559e-6
-1.275, 4.522e-6
-1.274, 4.505e-6
-1.273, 4.483e-6
-1.272, 4.446e-6
-1.271, 4.456e-6
-1.270, 4.423e-6
-1.269, 4.414e-6
-1.268, 4.382e-6
-1.267, 4.353e-6
-1.266, 4.335e-6
-1.265, 4.318e-6
-1.264, 4.311e-6
-1.263, 4.282e-6
-1.262, 4.258e-6
-1.261, 4.241e-6
-1.260, 4.221e-6
-1.259, 4.201e-6
-1.258, 4.165e-6
-1.257, 4.149e-6
-1.256, 4.114e-6
-1.255, 4.121e-6
-1.254, 4.095e-6
-1.253, 4.098e-6
-1.252, 4.060e-6
-1.251, 4.044e-6
-1.250, 4.039e-6
-1.249, 4.007e-6
-1.248, 3.996e-6
-1.247, 3.981e-6
-1.246, 3.949e-6
-1.245, 3.945e-6
-1.244, 3.922e-6
-1.243, 3.902e-6
-1.242, 3.890e-6
-1.241, 3.867e-6
-1.240, 3.837e-6
-1.239, 3.841e-6
-1.238, 3.795e-6
-1.237, 3.796e-6
-1.236, 3.811e-6
-1.235, 3.759e-6
-1.234, 3.759e-6
-1.233, 3.750e-6
-1.232, 3.733e-6
-1.231, 3.712e-6
-1.230, 3.704e-6
-1.229, 3.678e-6
-1.228, 3.677e-6
-1.227, 3.629e-6
-1.226, 3.633e-6
-1.225, 3.607e-6
-1.224, 3.611e-6
-1.223, 3.587e-6
-1.222, 3.571e-6
-1.221, 3.577e-6
-1.220, 3.555e-6
-1.219, 3.537e-6
-1.218, 3.526e-6
-1.217, 3.507e-6
-1.216, 3.494e-6
-1.215, 3.499e-6
-1.214, 3.479e-6
-1.213, 3.456e-6
-1.212, 3.458e-6
-1.211, 3.429e-6
-1.210, 3.426e-6
-1.209, 3.417e-6
-1.208, 3.416e-6
-1.207, 3.401e-6
-1.206, 3.395e-6
-1.205, 3.359e-6
-1.204, 3.375e-6
-1.203, 3.321e-6
-1.202, 3.339e-6
-1.201, 3.317e-6
-1.200, 3.298e-6
-1.199, 3.300e-6
-1.198, 3.288e-6
-1.197, 3.290e-6
-1.196, 3.277e-6
-1.195, 3.259e-6
-1.194, 3.262e-6
-1.193, 3.259e-6
-1.192, 3.240e-6
-1.191, 3.209e-6
-1.190, 3.201e-6
-1.189, 3.215e-6
-1.188, 3.201e-6
-1.187, 3.182e-6
-1.186, 3.185e-6
-1.185, 3.169e-6
-1.184, 3.169e-6
-1.183, 3.146e-6
-1.182, 3.147e-6
-1.181, 3.126e-6
-1.180, 3.130e-6
-1.179, 3.120e-6
-1.178, 3.104e-6
-1.177, 3.087e-6
-1.176, 3.085e-6
-1.175, 3.055e-6
-1.174, 3.060e-6
-1.173, 3.051e-6
-1.172, 3.040e-6
-1.171, 3.040e-6
-1.170, 3.008e-6
-1.169, 3.014e-6
-1.168, 3.002e-6
-1.167, 2.983e-6
-1.166, 3.004e-6
-1.165, 2.945e-6
-1.164, 2.958e-6
-1.163, 2.935e-6
-1.162, 2.938e-6
-1.161, 2.917e-6
-1.160, 2.901e-6
-1.159, 2.900e-6
-1.158, 2.892e-6
-1.157, 2.872e-6
-1.156, 2.863e-6
-1.155, 2.852e-6
-1.154, 2.842e-6
-1.153, 2.843e-6
-1.152, 2.803e-6
-1.151, 2.830e-6
-1.150, 2.786e-6
-1.149, 2.816e-6
-1.148, 2.754e-6
-1.147, 2.760e-6
-1.146, 2.738e-6
-1.145, 2.741e-6
-1.144, 2.730e-6
-1.143, 2.728e-6
-1.142, 2.702e-6
-1.141, 2.706e-6
-1.140, 2.684e-6
-1.139, 2.675e-6
-1.138, 2.674e-6
-1.137, 2.659e-6
-1.136, 2.649e-6
-1.135, 2.637e-6
-1.134, 2.619e-6
-1.133, 2.645e-6
-1.132, 2.621e-6
-1.131, 2.606e-6
-1.130, 2.601e-6
-1.129, 2.585e-6
-1.128, 2.584e-6
-1.127, 2.567e-6
-1.126, 2.539e-6
-1.125, 2.532e-6
-1.124, 2.530e-6
-1.123, 2.522e-6
-1.122, 2.507e-6
-1.121, 2.493e-6
-1.120, 2.465e-6
-1.119, 2.475e-6
-1.118, 2.437e-6
-1.117, 2.448e-6
-1.116, 2.415e-6
-1.115, 2.425e-6
-1.114, 2.394e-6
-1.113, 2.399e-6
-1.112, 2.389e-6
-1.111, 2.394e-6
-1.110, 2.374e-6
-1.109, 2.379e-6
-1.108, 2.352e-6
-1.107, 2.377e-6
-1.106, 2.362e-6
-1.105, 2.358e-6
-1.104, 2.353e-6
-1.103, 2.328e-6
-1.102, 2.334e-6
-1.101, 2.326e-6
-1.100, 2.307e-6
-1.099, 2.303e-6
-1.098, 2.298e-6
-1.097, 2.283e-6
-1.096, 2.284e-6
-1.095, 2.272e-6
-1.094, 2.252e-6
-1.093, 2.247e-6
-1.092, 2.241e-6
-1.091, 2.229e-6
-1.090, 2.222e-6
-1.089, 2.221e-6
-1.088, 2.187e-6
-1.087, 2.178e-6
-1.086, 2.160e-6
-1.085, 2.152e-6
-1.084, 2.166e-6
-1.083, 2.136e-6
-1.082, 2.128e-6
-1.081, 2.112e-6
-1.080, 2.121e-6
-1.079, 2.100e-6
-1.078, 2.071e-6
-1.077, 2.072e-6
-1.076, 2.059e-6
-1.075, 2.017e-6
-1.074, 2.031e-6
-1.073, 2.002e-6
-1.072, 1.992e-6
-1.071, 1.980e-6
-1.070, 1.951e-6
-1.069, 1.949e-6
-1.068, 1.930e-6
-1.067, 1.934e-6
-1.066, 1.924e-6
-1.065, 1.903e-6
-1.064, 1.886e-6
-1.063, 1.878e-6
-1.062, 1.853e-6
-1.061, 1.842e-6
-1.060, 1.816e-6
-1.059, 1.808e-6
-1.058, 1.810e-6
-1.057, 1.787e-6
-1.056, 1.767e-6
-1.055, 1.748e-6
-1.054, 1.744e-6
-1.053, 1.719e-6
-1.052, 1.701e-6
-1.051, 1.694e-6
-1.050, 1.665e-6
-1.049, 1.659e-6
-1.048, 1.636e-6
-1.047, 1.625e-6
-1.046, 1.597e-6
-1.045, 1.601e-6
-1.044, 1.567e-6
-1.043, 1.555e-6
-1.042, 1.524e-6
-1.041, 1.547e-6
-1.040, 1.491e-6
-1.039, 1.496e-6
-1.038, 1.462e-6
-1.037, 1.444e-6
-1.036, 1.449e-6
-1.035, 1.410e-6
-1.034, 1.390e-6
-1.033, 1.387e-6
-1.032, 1.360e-6
-1.031, 1.345e-6
-1.030, 1.316e-6
-1.029, 1.316e-6
-1.028, 1.285e-6
-1.027, 1.271e-6
-1.026, 1.247e-6
-1.025, 1.236e-6
-1.024, 1.201e-6
-1.023, 1.170e-6
-1.022, 1.146e-6
-1.021, 1.160e-6
-1.020, 1.121e-6
-1.019, 1.091e-6
-1.018, 1.075e-6
-1.017, 1.058e-6
-1.016, 1.017e-6
-1.015, 1.012e-6
-1.014, 9.874e-7
-1.013, 9.598e-7
-1.012, 9.282e-7
-1.011, 9.213e-7
-1.010, 8.601e-7
-1.009, 8.680e-7
-1.008, 8.453e-7
-1.007, 8.206e-7
-1.006, 7.841e-7
-1.005, 7.624e-7
-1.004, 7.358e-7
-1.003, 7.151e-7
-1.002, 6.815e-7
-1.001, 6.460e-7
