Potential V vs RHE, Current mA cm-2
0.05339999999999995,-0.025931658126526123
0.05239999999999995,-0.027148309844410055
0.051399999999999946,-0.027586870347368214
0.050399999999999945,-0.027940548172334476
0.049399999999999944,-0.028265931771303435
0.04839999999999994,-0.02861960959626969
0.04739999999999994,-0.028973287421235953
0.04639999999999994,-0.029256229681208955
0.04539999999999994,-0.029567466167179264
0.04439999999999994,-0.029836261314153626
0.04339999999999994,-0.030161644913122586
0.04239999999999994,-0.030501175625090193
0.04139999999999994,-0.030769970772064545
0.040399999999999936,-0.031052913032037555
0.039399999999999935,-0.03133585529201056
0.038399999999999934,-0.03166123889097952
0.03739999999999993,-0.03198662248994848
0.03639999999999993,-0.03226956474992148
0.03539999999999993,-0.032538359896895845
0.03439999999999993,-0.03284959638286615
0.03339999999999993,-0.033174979981835113
0.03239999999999993,-0.03351451069380272
0.03139999999999993,-0.033825747179773026
0.030399999999999927,-0.03413698366574334
0.029399999999999926,-0.03440577881271769
0.028399999999999925,-0.03475945663768395
0.027399999999999924,-0.03507069312365426
0.026399999999999924,-0.03539607672262322
0.025399999999999923,-0.03570731320859352
0.024399999999999922,-0.036018549694563834
0.02339999999999992,-0.03638637463252875
0.02239999999999992,-0.03672590534449635
0.02139999999999992,-0.03705128894346531
0.020399999999999918,-0.03737667254243427
0.019399999999999917,-0.03770205614140323
0.018399999999999916,-0.03806988107936814
0.017399999999999916,-0.03843770601733305
0.016399999999999915,-0.038763089616302
0.015399999999999914,-0.039088473215270966
0.014399999999999913,-0.039442151040237225
0.013399999999999912,-0.039824123091200786
0.012399999999999911,-0.04023438936816164
0.01139999999999991,-0.040531478741133296
0.01039999999999991,-0.040885156566099555
0.009399999999999908,-0.041238834391065814
0.008399999999999908,-0.041620806442029375
0.007399999999999907,-0.04203107271899024
0.006399999999999906,-0.04237060343095785
0.005399999999999905,-0.04269598702992681
0.004399999999999904,-0.04307795908089037
0.003399999999999903,-0.043459931131853924
0.002399999999999902,-0.04388434452181344
0.0013999999999999013,-0.04425216945977835
0.00039999999999990044,-0.04461999439774326
-0.0006000000000001005,-0.04498781933570817
-0.0016000000000001013,-0.04539808561266903
-0.0026000000000001022,-0.04582249900262853
-0.003600000000000103,-0.04619032394059345
-0.004600000000000104,-0.0465440017655597
-0.005600000000000105,-0.046954268042520564
-0.006600000000000106,-0.04736453431948143
-0.007600000000000107,-0.04781724193543824
-0.008600000000000108,-0.048199213986401805
-0.009600000000000108,-0.04859533315036401
-0.01060000000000011,-0.04899145231432622
-0.01160000000000011,-0.04944415993028303
-0.012600000000000111,-0.04989686754623984
-0.013600000000000112,-0.05026469248420476
-0.014600000000000113,-0.050674958761165616
-0.015600000000000114,-0.05108522503812647
-0.016600000000000115,-0.05153793265408329
-0.017600000000000116,-0.05200478738303874
-0.018600000000000116,-0.05240090654700096
-0.019600000000000117,-0.05279702571096317
-0.020600000000000118,-0.05320729198792403
-0.02160000000000012,-0.05367414671687949
-0.02260000000000012,-0.0541551485588336
-0.02360000000000012,-0.05456541483579446
-0.024600000000000122,-0.05501812245175128
-0.025600000000000123,-0.055442535841710786
-0.026600000000000124,-0.05590939057066625
-0.027600000000000124,-0.05639039241262036
-0.028600000000000125,-0.056800658689581215
-0.029600000000000126,-0.05722507207954074
-0.030600000000000127,-0.057649485469500245
-0.03160000000000013,-0.058144634424453
-0.03260000000000013,-0.05862563626640712
-0.03360000000000013,-0.05903590254336798
-0.03460000000000002,-0.059488610159324794
-0.03560000000000002,-0.05989887643628565
-0.03660000000000002,-0.06037987827823976
-0.03760000000000002,-0.06087502723319253
-0.03860000000000002,-0.061327734849149336
-0.039600000000000024,-0.06176629535210751
-0.040600000000000025,-0.06221900296806432
-0.041600000000000026,-0.06274244614901436
-0.04260000000000003,-0.06325174221696579
-0.04360000000000003,-0.0637044498329226
-0.04460000000000003,-0.06418545167487671
-0.04560000000000003,-0.06463815929083352
-0.04660000000000003,-0.06514745535878494
-0.04760000000000003,-0.0656426043137377
-0.04860000000000003,-0.06610945904269316
-0.04960000000000003,-0.06654801954565133
-0.050600000000000034,-0.06702902138760544
-0.051600000000000035,-0.0675524645685555
-0.052600000000000036,-0.06806176063650692
-0.053600000000000037,-0.06852861536546237
-0.05460000000000004,-0.0689813229814192
-0.05560000000000004,-0.069434030597376
-0.05660000000000004,-0.0699716208913247
-0.05760000000000004,-0.07048091695927614
-0.05860000000000004,-0.07094777168823159
-0.05960000000000004,-0.0714287735301857
-0.06060000000000004,-0.07189562825914117
-0.061600000000000044,-0.07241907144009123
-0.06260000000000004,-0.07292836750804264
-0.06360000000000005,-0.0733952222369981
-0.06460000000000005,-0.07387622407895222
-0.06560000000000005,-0.07434307880790768
-0.06660000000000005,-0.07486652198885775
-0.06760000000000005,-0.07540411228280645
-0.06860000000000005,-0.07584267278576462
-0.06960000000000005,-0.07630952751472009
-0.07060000000000005,-0.07677638224367554
-0.07160000000000005,-0.07727153119862831
-0.07260000000000005,-0.07780912149257702
-0.07360000000000005,-0.07826182910853383
-0.07460000000000006,-0.0787286838374893
-0.07560000000000006,-0.0792096856794434
-0.07660000000000006,-0.07973312886039347
-0.07760000000000006,-0.08024242492834488
-0.07860000000000006,-0.08066683831830439
-0.07960000000000006,-0.0811195459342612
-0.08060000000000006,-0.08161469488921397
-0.08160000000000006,-0.08209569673116808
-0.08260000000000006,-0.08263328702511678
-0.08360000000000006,-0.08307184752807495
-0.08460000000000006,-0.08346796669203715
-0.08560000000000006,-0.08389238008199668
-0.08660000000000007,-0.08438752903694943
-0.08760000000000007,-0.0848826779919022
-0.08860000000000007,-0.08533538560785901
-0.08960000000000007,-0.0857597989978185
-0.09060000000000007,-0.08619835950077669
-0.09160000000000007,-0.08669350845572944
-0.09260000000000007,-0.08714621607168627
-0.09360000000000007,-0.08754233523564847
-0.09460000000000007,-0.08793845439961068
-0.09560000000000007,-0.08834872067657155
-0.09660000000000007,-0.088815575405527
-0.09760000000000008,-0.08929657724748112
-0.09860000000000008,-0.08969269641144333
-0.09960000000000008,-0.09010296268840419
-0.10060000000000008,-0.0904990818523664
-0.10160000000000008,-0.09098008369432051
-0.10260000000000008,-0.09141864419727867
-0.10360000000000008,-0.09178646913524359
-0.10460000000000008,-0.09218258829920578
-0.10560000000000008,-0.09259285457616664
-0.10660000000000008,-0.09300312085312752
-0.10760000000000008,-0.09344168135608567
-0.10860000000000009,-0.09380950629405059
-0.10960000000000009,-0.09416318411901684
-0.11060000000000009,-0.0945451561699804
-0.11160000000000009,-0.09494127533394262
-0.11260000000000009,-0.09535154161090346
-0.11360000000000009,-0.09569107232287108
-0.11460000000000009,-0.096058897260836
-0.11560000000000009,-0.09644086931179956
-0.11660000000000009,-0.09680869424976446
-0.1176000000000001,-0.09717651918772936
-0.1186000000000001,-0.09748775567369967
-0.1196000000000001,-0.09778484504667133
-0.1206000000000001,-0.09812437575863896
-0.1216000000000001,-0.09849220069660385
-0.1226000000000001,-0.09883173140857146
-0.1236000000000001,-0.09912882078154311
-0.1246000000000001,-0.09941176304151612
-0.1256000000000001,-0.09972299952748644
-0.1266000000000001,-0.10004838312645539
-0.1276000000000001,-0.10040206095142165
-0.1286000000000001,-0.10068500321139465
-0.1296000000000001,-0.10092550413237171
-0.1306000000000001,-0.10120844639234472
-0.1316000000000001,-0.10151968287831505
-0.1326000000000001,-0.10183091936428534
-0.1336000000000001,-0.1020714202852624
-0.1346000000000001,-0.10231192120623946
-0.1356000000000001,-0.10255242212721652
-0.1366000000000001,-0.10283536438718952
-0.1376000000000001,-0.10307586530816658
-0.1386000000000001,-0.10330221911614497
-0.1396000000000001,-0.10351442581112473
-0.1406000000000001,-0.10375492673210178
-0.14160000000000011,-0.1040378689920748
-0.14260000000000012,-0.10425007568705455
-0.14360000000000012,-0.104433988156037
-0.14460000000000012,-0.10461790062501947
-0.14560000000000012,-0.10480181309400192
-0.14660000000000012,-0.10505646112797762
-0.14760000000000012,-0.10526866782295738
-0.14860000000000012,-0.10542428606594254
-0.14960000000000012,-0.10559405142192634
-0.15060000000000012,-0.10576381677791014
-0.15160000000000012,-0.1059760234728899
-0.15260000000000012,-0.10615993594187234
-0.15360000000000013,-0.10630140707185885
-0.15460000000000013,-0.1064287310888467
-0.15560000000000013,-0.10658434933183186
-0.15660000000000013,-0.10673996757481702
-0.15760000000000013,-0.10690973293080082
-0.15860000000000013,-0.10700876272179137
-0.15960000000000002,-0.10713608673877922
-0.16060000000000002,-0.10727755786876574
-0.16160000000000002,-0.10741902899875223
-0.16260000000000002,-0.1075463530157401
-0.16360000000000002,-0.10764538280673064
-0.16460000000000002,-0.10773026548472255
-0.16560000000000002,-0.1078858837277077
-0.16660000000000003,-0.10804150197069286
-0.16760000000000003,-0.10812638464868475
-0.16860000000000003,-0.10818297310067936
-0.16960000000000003,-0.10823956155267396
-0.17060000000000003,-0.10832444423066585
-0.17160000000000003,-0.10840932690865775
-0.17260000000000003,-0.10850835669964831
-0.17360000000000003,-0.10856494515164292
-0.17460000000000003,-0.10857909226464157
-0.17560000000000003,-0.10863568071663617
-0.17660000000000003,-0.10872056339462807
-0.17760000000000004,-0.10880544607261997
-0.17860000000000004,-0.10883374029861728
-0.17960000000000004,-0.10886203452461457
-0.18060000000000004,-0.10889032875061187
-0.18160000000000004,-0.10896106431560514
-0.18260000000000004,-0.10900350565460108
-0.18360000000000004,-0.10900350565460108
-0.18460000000000004,-0.10903179988059837
-0.18560000000000004,-0.10903179988059837
-0.18660000000000004,-0.10910253544559163
-0.18760000000000004,-0.10914497678458758
-0.18860000000000005,-0.10911668255859029
-0.18960000000000005,-0.10910253544559163
-0.19060000000000005,-0.10913082967158892
-0.19160000000000005,-0.1091732710105849
-0.19260000000000005,-0.10920156523658218
-0.19360000000000005,-0.10915912389758622
-0.19460000000000005,-0.10913082967158892
-0.19560000000000005,-0.10914497678458758
-0.19660000000000005,-0.10915912389758622
-0.19760000000000005,-0.10915912389758622
-0.19860000000000005,-0.10911668255859029
-0.19960000000000006,-0.10907424121959435
-0.20060000000000006,-0.10907424121959435
-0.20160000000000006,-0.10907424121959435
-0.20260000000000006,-0.10906009410659567
-0.20360000000000006,-0.10903179988059837
-0.20460000000000006,-0.10897521142860378
-0.20560000000000006,-0.10896106431560514
-0.20660000000000006,-0.10896106431560514
-0.20760000000000006,-0.10893277008960783
-0.20860000000000006,-0.10887618163761323
-0.20960000000000006,-0.10883374029861728
-0.21060000000000006,-0.10880544607261997
-0.21160000000000007,-0.10879129895962131
-0.21260000000000007,-0.10876300473362402
-0.21360000000000007,-0.10869226916863078
-0.21460000000000007,-0.10863568071663617
-0.21560000000000007,-0.10857909226464157
-0.21660000000000007,-0.10857909226464157
-0.21760000000000007,-0.10857909226464157
-0.21860000000000007,-0.10849420958664967
-0.21960000000000007,-0.10843762113465506
-0.22060000000000007,-0.10838103268266046
-0.22160000000000007,-0.10838103268266046
-0.22260000000000008,-0.10833859134366451
-0.22360000000000008,-0.10823956155267396
-0.22460000000000008,-0.10818297310067936
-0.22560000000000008,-0.10812638464868475
-0.22660000000000008,-0.10811223753568612
-0.22760000000000008,-0.1080839433096888
-0.22860000000000008,-0.10798491351869824
-0.22960000000000008,-0.10792832506670365
-0.23060000000000008,-0.10787173661470904
-0.23160000000000008,-0.1078575895017104
-0.23260000000000008,-0.10778685393671714
-0.23360000000000009,-0.10771611837172389
-0.2346000000000001,-0.107631235693732
-0.2356000000000001,-0.10760294146773468
-0.2366000000000001,-0.10757464724173739
-0.2376000000000001,-0.10751805878974278
-0.2386000000000001,-0.10743317611175088
-0.2396000000000001,-0.10734829343375898
-0.2406000000000001,-0.10729170498176437
-0.2416000000000001,-0.10726341075576709
-0.2426000000000001,-0.10722096941677112
-0.2436000000000001,-0.10715023385177787
-0.2446000000000001,-0.10703705694778867
-0.2456000000000001,-0.10699461560879273
-0.2466000000000001,-0.10699461560879273
-0.2476000000000001,-0.10690973293080082
-0.2486000000000001,-0.10683899736580757
-0.2496000000000001,-0.10675411468781566
-0.2506000000000001,-0.10669752623582107
-0.2516000000000001,-0.10668337912282241
-0.2526000000000001,-0.10661264355782916
-0.2536000000000001,-0.10654190799283592
-0.2546000000000001,-0.10647117242784265
-0.2556000000000001,-0.10641458397584806
-0.2566000000000001,-0.10641458397584806
-0.2576000000000001,-0.10635799552385346
-0.2586000000000001,-0.10624481861986426
-0.2596000000000001,-0.10618823016786964
-0.2606000000000001,-0.10613164171587507
-0.2616000000000001,-0.10613164171587507
-0.2626000000000001,-0.10607505326388045
-0.2636000000000001,-0.1059760234728899
-0.2646000000000001,-0.105891140794898
-0.2656000000000001,-0.1058345523429034
-0.2666000000000001,-0.10584869945590204
-0.2676000000000001,-0.10579211100390745
-0.2686000000000001,-0.10569308121291689
-0.2696000000000001,-0.1056364927609223
-0.2706000000000001,-0.10557990430892769
-0.2716000000000001,-0.10557990430892769
-0.2726000000000001,-0.10552331585693309
-0.2736000000000001,-0.10543843317894118
-0.2746000000000001,-0.10536769761394793
-0.2756000000000001,-0.10532525627495198
-0.2766000000000001,-0.10529696204895468
-0.2776000000000001,-0.10525452070995873
-0.2786000000000001,-0.10516963803196683
-0.2796000000000001,-0.10509890246697358
-0.2806000000000001,-0.10505646112797762
-0.28160000000000013,-0.10505646112797762
-0.28260000000000013,-0.10501401978898167
-0.28360000000000013,-0.10495743133698707
-0.2846,-0.10485840154599652
-0.2856,-0.10481596020700056
-0.2866,-0.10483010731999923
-0.2876,-0.10480181309400192
-0.2886,-0.10471693041601002
-0.2896,-0.10464619485101677
-0.2906,-0.10460375351202081
-0.2916,-0.10461790062501947
-0.2926,-0.10456131217302486
-0.2936,-0.10450472372103026
-0.29460000000000003,-0.10444813526903567
-0.29560000000000003,-0.1044056939300397
-0.29660000000000003,-0.10439154681704105
-0.29760000000000003,-0.1043491054780451
-0.29860000000000003,-0.10427836991305185
-0.29960000000000003,-0.10423592857405589
-0.30060000000000003,-0.1042076343480586
-0.30160000000000003,-0.1042076343480586
-0.30260000000000004,-0.1041793401220613
-0.30360000000000004,-0.10410860455706805
-0.30460000000000004,-0.1040378689920748
-0.30560000000000004,-0.10402372187907614
-0.30660000000000004,-0.1040378689920748
-0.30760000000000004,-0.10400957476607749
-0.30860000000000004,-0.10393883920108424
-0.30960000000000004,-0.10389639786208829
-0.31060000000000004,-0.10386810363609099
-0.31160000000000004,-0.10385395652309233
-0.31260000000000004,-0.10385395652309233
-0.31360000000000005,-0.10376907384510045
-0.31460000000000005,-0.1036983382801072
-0.31560000000000005,-0.10368419116710853
-0.31660000000000005,-0.10368419116710853
-0.31760000000000005,-0.10367004405410989
-0.31860000000000005,-0.10361345560211528
-0.31960000000000005,-0.10358516137611798
-0.32060000000000005,-0.10354272003712203
-0.32160000000000005,-0.10354272003712203
-0.32260000000000005,-0.10352857292412339
-0.32360000000000005,-0.10345783735913014
-0.32460000000000006,-0.10341539602013419
-0.32560000000000006,-0.10340124890713552
-0.32660000000000006,-0.10341539602013419
-0.32760000000000006,-0.10338710179413689
-0.32860000000000006,-0.10334466045514094
-0.32960000000000006,-0.1032739248901477
-0.33060000000000006,-0.10325977777714902
-0.33160000000000006,-0.1032739248901477
-0.33260000000000006,-0.10324563066415038
-0.33360000000000006,-0.10321733643815308
-0.33460000000000006,-0.10317489509915713
-0.33560000000000006,-0.10314660087315983
-0.33660000000000007,-0.10317489509915713
-0.33760000000000007,-0.10314660087315983
-0.33860000000000007,-0.10311830664716252
-0.33960000000000007,-0.10307586530816658
-0.34060000000000007,-0.10306171819516792
-0.34160000000000007,-0.10307586530816658
-0.34260000000000007,-0.10306171819516792
-0.34360000000000007,-0.10300512974317333
-0.3446000000000001,-0.10297683551717601
-0.3456000000000001,-0.10296268840417737
-0.3466000000000001,-0.10297683551717601
-0.34759999999999996,-0.10299098263017467
-0.3486000000000001,-0.10293439417818008
-0.34959999999999997,-0.10289195283918412
-0.3506000000000001,-0.10289195283918412
-0.35159999999999997,-0.10289195283918412
-0.3526000000000001,-0.10287780572618546
-0.35359999999999997,-0.10283536438718952
-0.3546000000000001,-0.10280707016119221
-0.35559999999999997,-0.10280707016119221
-0.3566000000000001,-0.10283536438718952
-0.3576,-0.10283536438718952
-0.3586000000000001,-0.10279292304819357
-0.3596,-0.10276462882219627
-0.3606000000000001,-0.10275048170919761
-0.3616,-0.10277877593519492
-0.3626000000000001,-0.10276462882219627
-0.3636,-0.10273633459619896
-0.3646000000000001,-0.10270804037020166
-0.3656,-0.10270804037020166
-0.3666000000000001,-0.10273633459619896
-0.3676,-0.10270804037020166
-0.3686000000000001,-0.10267974614420436
-0.3696,-0.10266559903120571
-0.3706000000000001,-0.10267974614420436
-0.3716,-0.10270804037020166
-0.3726000000000001,-0.10267974614420436
-0.3736,-0.10263730480520841
-0.3746000000000001,-0.10263730480520841
-0.3756,-0.10262315769220977
-0.3766000000000001,-0.10266559903120571
-0.3776,-0.10265145191820706
-0.3786000000000001,-0.10262315769220977
-0.3796,-0.10262315769220977
-0.3806000000000001,-0.10259486346621245
-0.3816,-0.10265145191820706
-0.3826000000000001,-0.10263730480520841
-0.3836,-0.10262315769220977
-0.3846000000000001,-0.10258071635321381
-0.3856,-0.10258071635321381
-0.3866000000000001,-0.10263730480520841
-0.3876,-0.10260901057921111
-0.3886000000000001,-0.10258071635321381
-0.3896,-0.10256656924021516
-0.3906000000000001,-0.10259486346621245
-0.3916,-0.10262315769220977
-0.3926000000000001,-0.10260901057921111
-0.3936,-0.10258071635321381
-0.3946000000000001,-0.10256656924021516
-0.3956,-0.10259486346621245
-0.3966000000000001,-0.10265145191820706
-0.3976,-0.10262315769220977
-0.3986000000000001,-0.10260901057921111
-0.3996,-0.10258071635321381
-0.4006000000000001,-0.10259486346621245
-0.4016,-0.10262315769220977
-0.4026000000000001,-0.10262315769220977
-0.4036,-0.10259486346621245
-0.4046000000000001,-0.10256656924021516
-0.4056,-0.10260901057921111
-0.40660000000000013,-0.10262315769220977
-0.4076,-0.10265145191820706
-0.40860000000000013,-0.10262315769220977
-0.4096,-0.10259486346621245
-0.41060000000000013,-0.10262315769220977
-0.4116,-0.10266559903120571
-0.41260000000000013,-0.10266559903120571
-0.4136,-0.10263730480520841
-0.41460000000000014,-0.10265145191820706
-0.4156,-0.10265145191820706
-0.41660000000000014,-0.10269389325720302
-0.4176,-0.10269389325720302
-0.41860000000000014,-0.10266559903120571
-0.41960000000000003,-0.10265145191820706
-0.42060000000000014,-0.10266559903120571
-0.42160000000000003,-0.10273633459619896
-0.42260000000000014,-0.10275048170919761
-0.42360000000000003,-0.10269389325720302
-0.42460000000000014,-0.10270804037020166
-0.42560000000000003,-0.1027221874832003
-0.42660000000000015,-0.10276462882219627
-0.42760000000000004,-0.10277877593519492
-0.42860000000000015,-0.10273633459619896
-0.42960000000000004,-0.10273633459619896
-0.43060000000000015,-0.10276462882219627
-0.43160000000000004,-0.10279292304819357
-0.43260000000000015,-0.10280707016119221
-0.43360000000000004,-0.10277877593519492
-0.43460000000000015,-0.10277877593519492
-0.43560000000000004,-0.10282121727419087
