Aug. 18, 2024   22:50:25
Cyclic Voltammetry
File: c:/users/guazh/data/20240813_batch_94_500/2024-08-15-exp126\exp126-2024-08-18t22_45_29-h2koh\exp126_cv_50mvs_efin_-1400mv.bin
Data Source:  Experiment
Instrument Model:  CHI760E
Header: CV ran at 50 mVs
Note: 

Init E (V) = -1
High E (V) = -1
Low E (V) = -1.4
Final E (V) = -1
Init P/N = N
Scan Rate (V/s) = 0.05
Segment = 7
Sample Interval (V) = 0.001
Quiet Time (sec) = 60
Sensitivity (A/V) = 0.001
Comp R (ohm) = 1.8

Results:

Channel 1:
Segment 1:

Segment 2:

Segment 3:

Segment 4:

Segment 5:

Segment 6:

Segment 7:

Potential/V, Current/A

-1.000, 9.133e-5
-1.001, 1.122e-4
-1.002, 1.327e-4
-1.003, 1.549e-4
-1.004, 1.793e-4
-1.005, 2.042e-4
-1.006, 2.291e-4
-1.007, 2.532e-4
-1.008, 2.755e-4
-1.009, 2.966e-4
-1.010, 3.168e-4
-1.011, 3.359e-4
-1.012, 3.541e-4
-1.013, 3.703e-4
-1.014, 3.867e-4
-1.015, 4.016e-4
-1.016, 4.150e-4
-1.017, 4.291e-4
-1.018, 4.420e-4
-1.019, 4.563e-4
-1.020, 4.694e-4
-1.021, 4.826e-4
-1.022, 4.954e-4
-1.023, 5.078e-4
-1.024, 5.194e-4
-1.025, 5.320e-4
-1.026, 5.436e-4
-1.027, 5.558e-4
-1.028, 5.674e-4
-1.029, 5.790e-4
-1.030, 5.916e-4
-1.031, 6.049e-4
-1.032, 6.175e-4
-1.033, 6.288e-4
-1.034, 6.412e-4
-1.035, 6.544e-4
-1.036, 6.687e-4
-1.037, 6.815e-4
-1.038, 6.960e-4
-1.039, 7.164e-4
-1.040, 7.276e-4
-1.041, 7.401e-4
-1.042, 7.546e-4
-1.043, 7.692e-4
-1.044, 7.861e-4
-1.045, 8.001e-4
-1.046, 8.172e-4
-1.047, 8.330e-4
-1.048, 8.488e-4
-1.049, 8.660e-4
-1.050, 8.814e-4
-1.051, 8.987e-4
-1.052, 9.165e-4
-1.053, 9.308e-4
-1.054, 9.507e-4
-1.055, 9.691e-4
-1.056, 9.882e-4
-1.057, 1.007e-3
-1.058, 1.026e-3
-1.059, 1.047e-3
-1.060, 1.070e-3
-1.061, 1.091e-3
-1.062, 1.109e-3
-1.063, 1.131e-3
-1.064, 1.151e-3
-1.065, 1.172e-3
-1.066, 1.196e-3
-1.067, 1.219e-3
-1.068, 1.243e-3
-1.069, 1.263e-3
-1.070, 1.286e-3
-1.071, 1.308e-3
-1.072, 1.336e-3
-1.073, 1.360e-3
-1.074, 1.390e-3
-1.075, 1.415e-3
-1.076, 1.439e-3
-1.077, 1.463e-3
-1.078, 1.491e-3
-1.079, 1.515e-3
-1.080, 1.539e-3
-1.081, 1.562e-3
-1.082, 1.589e-3
-1.083, 1.615e-3
-1.084, 1.651e-3
-1.085, 1.680e-3
-1.086, 1.706e-3
-1.087, 1.731e-3
-1.088, 1.759e-3
-1.089, 1.785e-3
-1.090, 1.811e-3
-1.091, 1.837e-3
-1.092, 1.866e-3
-1.093, 1.894e-3
-1.094, 1.920e-3
-1.095, 1.949e-3
-1.096, 1.977e-3
-1.097, 2.008e-3
-1.098, 2.036e-3
-1.099, 2.055e-3
-1.100, 2.084e-3
-1.101, 2.114e-3
-1.102, 2.145e-3
-1.103, 2.170e-3
-1.104, 2.197e-3
-1.105, 2.221e-3
-1.106, 2.247e-3
-1.107, 2.276e-3
-1.108, 2.304e-3
-1.109, 2.330e-3
-1.110, 2.361e-3
-1.111, 2.383e-3
-1.112, 2.416e-3
-1.113, 2.440e-3
-1.114, 2.466e-3
-1.115, 2.491e-3
-1.116, 2.515e-3
-1.117, 2.544e-3
-1.118, 2.575e-3
-1.119, 2.598e-3
-1.120, 2.623e-3
-1.121, 2.645e-3
-1.122, 2.678e-3
-1.123, 2.706e-3
-1.124, 2.734e-3
-1.125, 2.756e-3
-1.126, 2.771e-3
-1.127, 2.799e-3
-1.128, 2.819e-3
-1.129, 2.840e-3
-1.130, 2.860e-3
-1.131, 2.883e-3
-1.132, 2.911e-3
-1.133, 2.927e-3
-1.134, 2.948e-3
-1.135, 2.963e-3
-1.136, 2.995e-3
-1.137, 3.014e-3
-1.138, 3.034e-3
-1.139, 3.054e-3
-1.140, 3.072e-3
-1.141, 3.087e-3
-1.142, 3.103e-3
-1.143, 3.125e-3
-1.144, 3.144e-3
-1.145, 3.159e-3
-1.146, 3.175e-3
-1.147, 3.184e-3
-1.148, 3.206e-3
-1.149, 3.221e-3
-1.150, 3.242e-3
-1.151, 3.262e-3
-1.152, 3.268e-3
-1.153, 3.285e-3
-1.154, 3.293e-3
-1.155, 3.310e-3
-1.156, 3.322e-3
-1.157, 3.333e-3
-1.158, 3.348e-3
-1.159, 3.353e-3
-1.160, 3.371e-3
-1.161, 3.376e-3
-1.162, 3.393e-3
-1.163, 3.394e-3
-1.164, 3.406e-3
-1.165, 3.414e-3
-1.166, 3.417e-3
-1.167, 3.431e-3
-1.168, 3.443e-3
-1.169, 3.449e-3
-1.170, 3.453e-3
-1.171, 3.462e-3
-1.172, 3.463e-3
-1.173, 3.470e-3
-1.174, 3.469e-3
-1.175, 3.479e-3
-1.176, 3.478e-3
-1.177, 3.487e-3
-1.178, 3.486e-3
-1.179, 3.492e-3
-1.180, 3.496e-3
-1.181, 3.498e-3
-1.182, 3.490e-3
-1.183, 3.495e-3
-1.184, 3.499e-3
-1.185, 3.499e-3
-1.186, 3.500e-3
-1.187, 3.498e-3
-1.188, 3.491e-3
-1.189, 3.493e-3
-1.190, 3.498e-3
-1.191, 3.503e-3
-1.192, 3.486e-3
-1.193, 3.488e-3
-1.194, 3.493e-3
-1.195, 3.483e-3
-1.196, 3.482e-3
-1.197, 3.485e-3
-1.198, 3.479e-3
-1.199, 3.480e-3
-1.200, 3.475e-3
-1.201, 3.471e-3
-1.202, 3.470e-3
-1.203, 3.467e-3
-1.204, 3.456e-3
-1.205, 3.457e-3
-1.206, 3.449e-3
-1.207, 3.454e-3
-1.208, 3.445e-3
-1.209, 3.440e-3
-1.210, 3.439e-3
-1.211, 3.432e-3
-1.212, 3.421e-3
-1.213, 3.405e-3
-1.214, 3.404e-3
-1.215, 3.402e-3
-1.216, 3.394e-3
-1.217, 3.390e-3
-1.218, 3.379e-3
-1.219, 3.368e-3
-1.220, 3.362e-3
-1.221, 3.357e-3
-1.222, 3.348e-3
-1.223, 3.342e-3
-1.224, 3.327e-3
-1.225, 3.325e-3
-1.226, 3.317e-3
-1.227, 3.311e-3
-1.228, 3.302e-3
-1.229, 3.290e-3
-1.230, 3.285e-3
-1.231, 3.275e-3
-1.232, 3.269e-3
-1.233, 3.260e-3
-1.234, 3.247e-3
-1.235, 3.240e-3
-1.236, 3.230e-3
-1.237, 3.226e-3
-1.238, 3.213e-3
-1.239, 3.203e-3
-1.240, 3.197e-3
-1.241, 3.186e-3
-1.242, 3.172e-3
-1.243, 3.165e-3
-1.244, 3.160e-3
-1.245, 3.156e-3
-1.246, 3.143e-3
-1.247, 3.127e-3
-1.248, 3.117e-3
-1.249, 3.111e-3
-1.250, 3.100e-3
-1.251, 3.093e-3
-1.252, 3.082e-3
-1.253, 3.064e-3
-1.254, 3.060e-3
-1.255, 3.049e-3
-1.256, 3.044e-3
-1.257, 3.036e-3
-1.258, 3.029e-3
-1.259, 3.029e-3
-1.260, 3.020e-3
-1.261, 3.012e-3
-1.262, 3.001e-3
-1.263, 3.000e-3
-1.264, 2.979e-3
-1.265, 2.986e-3
-1.266, 2.981e-3
-1.267, 2.977e-3
-1.268, 2.974e-3
-1.269, 2.956e-3
-1.270, 2.947e-3
-1.271, 2.939e-3
-1.272, 2.933e-3
-1.273, 2.958e-3
-1.274, 3.009e-3
-1.275, 2.973e-3
-1.276, 2.950e-3
-1.277, 2.941e-3
-1.278, 2.930e-3
-1.279, 2.923e-3
-1.280, 2.911e-3
-1.281, 2.903e-3
-1.282, 2.886e-3
-1.283, 2.877e-3
-1.284, 2.864e-3
-1.285, 2.836e-3
-1.286, 2.827e-3
-1.287, 2.823e-3
-1.288, 2.815e-3
-1.289, 2.815e-3
-1.290, 2.807e-3
-1.291, 2.803e-3
-1.292, 2.791e-3
-1.293, 2.790e-3
-1.294, 2.782e-3
-1.295, 2.775e-3
-1.296, 2.758e-3
-1.297, 2.762e-3
-1.298, 2.760e-3
-1.299, 2.759e-3
-1.300, 2.751e-3
-1.301, 2.744e-3
-1.302, 2.740e-3
-1.303, 2.736e-3
-1.304, 2.744e-3
-1.305, 2.744e-3
-1.306, 2.741e-3
-1.307, 2.734e-3
-1.308, 2.738e-3
-1.309, 2.741e-3
-1.310, 2.746e-3
-1.311, 2.745e-3
-1.312, 2.725e-3
-1.313, 2.705e-3
-1.314, 2.697e-3
-1.315, 2.690e-3
-1.316, 2.696e-3
-1.317, 2.698e-3
-1.318, 2.703e-3
-1.319, 2.708e-3
-1.320, 2.713e-3
-1.321, 2.719e-3
-1.322, 2.724e-3
-1.323, 2.730e-3
-1.324, 2.735e-3
-1.325, 2.752e-3
-1.326, 2.752e-3
-1.327, 2.762e-3
-1.328, 2.760e-3
-1.329, 2.767e-3
-1.330, 2.772e-3
-1.331, 2.787e-3
-1.332, 2.797e-3
-1.333, 2.805e-3
-1.334, 2.817e-3
-1.335, 2.824e-3
-1.336, 2.832e-3
-1.337, 2.840e-3
-1.338, 2.843e-3
-1.339, 2.856e-3
-1.340, 2.863e-3
-1.341, 2.871e-3
-1.342, 2.886e-3
-1.343, 2.896e-3
-1.344, 2.889e-3
-1.345, 2.894e-3
-1.346, 2.899e-3
-1.347, 2.920e-3
-1.348, 2.934e-3
-1.349, 2.943e-3
-1.350, 2.959e-3
-1.351, 2.973e-3
-1.352, 2.990e-3
-1.353, 3.001e-3
-1.354, 3.015e-3
-1.355, 3.030e-3
-1.356, 3.040e-3
-1.357, 3.048e-3
-1.358, 3.064e-3
-1.359, 3.089e-3
-1.360, 3.099e-3
-1.361, 3.123e-3
-1.362, 3.146e-3
-1.363, 3.154e-3
-1.364, 3.169e-3
-1.365, 3.182e-3
-1.366, 3.199e-3
-1.367, 3.211e-3
-1.368, 3.223e-3
-1.369, 3.210e-3
-1.370, 3.183e-3
-1.371, 3.183e-3
-1.372, 3.115e-3
-1.373, 3.096e-3
-1.374, 3.096e-3
-1.375, 3.088e-3
-1.376, 3.074e-3
-1.377, 3.091e-3
-1.378, 3.104e-3
-1.379, 3.028e-3
-1.380, 2.974e-3
-1.381, 2.988e-3
-1.382, 3.013e-3
-1.383, 3.022e-3
-1.384, 3.047e-3
-1.385, 3.065e-3
-1.386, 3.093e-3
-1.387, 3.112e-3
-1.388, 3.144e-3
-1.389, 3.167e-3
-1.390, 3.186e-3
-1.391, 3.215e-3
-1.392, 3.235e-3
-1.393, 3.263e-3
-1.394, 3.290e-3
-1.395, 3.319e-3
-1.396, 3.345e-3
-1.397, 3.367e-3
-1.398, 3.395e-3
-1.399, 3.419e-3
-1.400, 3.414e-3
-1.399, 3.359e-3
-1.398, 3.324e-3
-1.397, 3.274e-3
-1.396, 3.229e-3
-1.395, 3.180e-3
-1.394, 3.133e-3
-1.393, 3.078e-3
-1.392, 2.969e-3
-1.391, 2.922e-3
-1.390, 2.877e-3
-1.389, 2.838e-3
-1.388, 2.802e-3
-1.387, 2.768e-3
-1.386, 2.740e-3
-1.385, 2.710e-3
-1.384, 2.668e-3
-1.383, 2.633e-3
-1.382, 2.599e-3
-1.381, 2.565e-3
-1.380, 2.537e-3
-1.379, 2.501e-3
-1.378, 2.468e-3
-1.377, 2.437e-3
-1.376, 2.401e-3
-1.375, 2.371e-3
-1.374, 2.342e-3
-1.373, 2.313e-3
-1.372, 2.281e-3
-1.371, 2.250e-3
-1.370, 2.218e-3
-1.369, 2.188e-3
-1.368, 2.157e-3
-1.367, 2.133e-3
-1.366, 2.102e-3
-1.365, 2.077e-3
-1.364, 2.049e-3
-1.363, 2.023e-3
-1.362, 1.993e-3
-1.361, 1.965e-3
-1.360, 1.935e-3
-1.359, 1.908e-3
-1.358, 1.884e-3
-1.357, 1.861e-3
-1.356, 1.835e-3
-1.355, 1.815e-3
-1.354, 1.792e-3
-1.353, 1.766e-3
-1.352, 1.741e-3
-1.351, 1.718e-3
-1.350, 1.692e-3
-1.349, 1.671e-3
-1.348, 1.649e-3
-1.347, 1.622e-3
-1.346, 1.599e-3
-1.345, 1.571e-3
-1.344, 1.546e-3
-1.343, 1.524e-3
-1.342, 1.500e-3
-1.341, 1.481e-3
-1.340, 1.459e-3
-1.339, 1.439e-3
-1.338, 1.417e-3
-1.337, 1.398e-3
-1.336, 1.377e-3
-1.335, 1.358e-3
-1.334, 1.342e-3
-1.333, 1.319e-3
-1.332, 1.300e-3
-1.331, 1.279e-3
-1.330, 1.263e-3
-1.329, 1.241e-3
-1.328, 1.222e-3
-1.327, 1.203e-3
-1.326, 1.183e-3
-1.325, 1.168e-3
-1.324, 1.149e-3
-1.323, 1.128e-3
-1.322, 1.110e-3
-1.321, 1.094e-3
-1.320, 1.076e-3
-1.319, 1.059e-3
-1.318, 1.041e-3
-1.317, 1.023e-3
-1.316, 1.006e-3
-1.315, 9.883e-4
-1.314, 9.721e-4
-1.313, 9.562e-4
-1.312, 9.411e-4
-1.311, 9.266e-4
-1.310, 9.133e-4
-1.309, 8.945e-4
-1.308, 8.786e-4
-1.307, 8.625e-4
-1.306, 8.474e-4
-1.305, 8.303e-4
-1.304, 8.149e-4
-1.303, 8.010e-4
-1.302, 7.863e-4
-1.301, 7.722e-4
-1.300, 7.577e-4
-1.299, 7.485e-4
-1.298, 7.346e-4
-1.297, 7.205e-4
-1.296, 7.050e-4
-1.295, 6.962e-4
-1.294, 6.868e-4
-1.293, 6.722e-4
-1.292, 6.586e-4
-1.291, 6.453e-4
-1.290, 6.313e-4
-1.289, 6.177e-4
-1.288, 6.051e-4
-1.287, 5.917e-4
-1.286, 5.795e-4
-1.285, 5.662e-4
-1.284, 5.548e-4
-1.283, 5.420e-4
-1.282, 5.298e-4
-1.281, 5.184e-4
-1.280, 5.073e-4
-1.279, 4.947e-4
-1.278, 4.830e-4
-1.277, 4.700e-4
-1.276, 4.589e-4
-1.275, 4.500e-4
-1.274, 4.380e-4
-1.273, 4.268e-4
-1.272, 4.157e-4
-1.271, 4.036e-4
-1.270, 3.926e-4
-1.269, 3.833e-4
-1.268, 3.753e-4
-1.267, 3.697e-4
-1.266, 3.608e-4
-1.265, 3.489e-4
-1.264, 3.381e-4
-1.263, 3.272e-4
-1.262, 3.166e-4
-1.261, 3.063e-4
-1.260, 2.962e-4
-1.259, 2.865e-4
-1.258, 2.766e-4
-1.257, 2.670e-4
-1.256, 2.569e-4
-1.255, 2.472e-4
-1.254, 2.387e-4
-1.253, 2.308e-4
-1.252, 2.223e-4
-1.251, 2.134e-4
-1.250, 2.043e-4
-1.249, 1.937e-4
-1.248, 1.851e-4
-1.247, 1.781e-4
-1.246, 1.763e-4
-1.245, 1.678e-4
-1.244, 1.588e-4
-1.243, 1.504e-4
-1.242, 1.424e-4
-1.241, 1.343e-4
-1.240, 1.264e-4
-1.239, 1.185e-4
-1.238, 1.109e-4
-1.237, 1.031e-4
-1.236, 9.615e-5
-1.235, 8.968e-5
-1.234, 8.298e-5
-1.233, 7.638e-5
-1.232, 7.017e-5
-1.231, 6.396e-5
-1.230, 5.796e-5
-1.229, 5.176e-5
-1.228, 4.603e-5
-1.227, 4.030e-5
-1.226, 3.491e-5
-1.225, 2.945e-5
-1.224, 2.431e-5
-1.223, 1.915e-5
-1.222, 1.409e-5
-1.221, 9.245e-6
-1.220, 4.352e-6
-1.219, -5.093e-7
-1.218, -5.283e-6
-1.217, -1.004e-5
-1.216, -1.497e-5
-1.215, -1.966e-5
-1.214, -2.452e-5
-1.213, -2.916e-5
-1.212, -3.396e-5
-1.211, -3.875e-5
-1.210, -4.342e-5
-1.209, -4.823e-5
-1.208, -5.297e-5
-1.207, -5.803e-5
-1.206, -6.308e-5
-1.205, -6.806e-5
-1.204, -7.331e-5
-1.203, -7.882e-5
-1.202, -8.429e-5
-1.201, -9.015e-5
-1.200, -9.589e-5
-1.199, -1.019e-4
-1.198, -1.081e-4
-1.197, -1.142e-4
-1.196, -1.206e-4
-1.195, -1.264e-4
-1.194, -1.333e-4
-1.193, -1.397e-4
-1.192, -1.455e-4
-1.191, -1.514e-4
-1.190, -1.568e-4
-1.189, -1.619e-4
-1.188, -1.670e-4
-1.187, -1.720e-4
-1.186, -1.766e-4
-1.185, -1.809e-4
-1.184, -1.846e-4
-1.183, -1.880e-4
-1.182, -1.915e-4
-1.181, -1.946e-4
-1.180, -1.978e-4
-1.179, -2.005e-4
-1.178, -2.037e-4
-1.177, -2.066e-4
-1.176, -2.086e-4
-1.175, -2.103e-4
-1.174, -2.118e-4
-1.173, -2.136e-4
-1.172, -2.155e-4
-1.171, -2.173e-4
-1.170, -2.192e-4
-1.169, -2.212e-4
-1.168, -2.230e-4
-1.167, -2.248e-4
-1.166, -2.278e-4
-1.165, -2.315e-4
-1.164, -2.371e-4
-1.163, -2.445e-4
-1.162, -2.536e-4
-1.161, -2.639e-4
-1.160, -2.747e-4
-1.159, -2.856e-4
-1.158, -2.965e-4
-1.157, -3.072e-4
-1.156, -3.177e-4
-1.155, -3.279e-4
-1.154, -3.373e-4
-1.153, -3.452e-4
-1.152, -3.538e-4
-1.151, -3.623e-4
-1.150, -3.703e-4
-1.149, -3.781e-4
-1.148, -3.858e-4
-1.147, -3.928e-4
-1.146, -3.996e-4
-1.145, -4.051e-4
-1.144, -4.107e-4
-1.143, -4.159e-4
-1.142, -4.216e-4
-1.141, -4.267e-4
-1.140, -4.322e-4
-1.139, -4.372e-4
-1.138, -4.420e-4
-1.137, -4.468e-4
-1.136, -4.506e-4
-1.135, -4.547e-4
-1.134, -4.584e-4
-1.133, -4.621e-4
-1.132, -4.662e-4
-1.131, -4.693e-4
-1.130, -4.727e-4
-1.129, -4.760e-4
-1.128, -4.790e-4
-1.127, -4.821e-4
-1.126, -4.846e-4
-1.125, -4.878e-4
-1.124, -4.911e-4
-1.123, -4.944e-4
-1.122, -4.975e-4
-1.121, -5.009e-4
-1.120, -5.030e-4
-1.119, -5.058e-4
-1.118, -5.080e-4
-1.117, -5.106e-4
-1.116, -5.139e-4
-1.115, -5.163e-4
-1.114, -5.185e-4
-1.113, -5.208e-4
-1.112, -5.232e-4
-1.111, -5.248e-4
-1.110, -5.267e-4
-1.109, -5.289e-4
-1.108, -5.310e-4
-1.107, -5.332e-4
-1.106, -5.349e-4
-1.105, -5.383e-4
-1.104, -5.409e-4
-1.103, -5.426e-4
-1.102, -5.448e-4
-1.101, -5.469e-4
-1.100, -5.496e-4
-1.099, -5.516e-4
-1.098, -5.541e-4
-1.097, -5.563e-4
-1.096, -5.568e-4
-1.095, -5.582e-4
-1.094, -5.595e-4
-1.093, -5.618e-4
-1.092, -5.650e-4
-1.091, -5.653e-4
-1.090, -5.677e-4
-1.089, -5.729e-4
-1.088, -5.749e-4
-1.087, -5.774e-4
-1.086, -5.788e-4
-1.085, -5.798e-4
-1.084, -5.818e-4
-1.083, -5.833e-4
-1.082, -5.859e-4
-1.081, -5.877e-4
-1.080, -5.896e-4
-1.079, -5.915e-4
-1.078, -5.921e-4
-1.077, -5.945e-4
-1.076, -5.956e-4
-1.075, -5.992e-4
-1.074, -5.997e-4
-1.073, -6.022e-4
-1.072, -6.014e-4
-1.071, -6.020e-4
-1.070, -6.044e-4
-1.069, -6.064e-4
-1.068, -6.087e-4
-1.067, -6.114e-4
-1.066, -6.133e-4
-1.065, -6.138e-4
-1.064, -6.168e-4
-1.063, -6.193e-4
-1.062, -6.207e-4
-1.061, -6.230e-4
-1.060, -6.233e-4
-1.059, -6.264e-4
-1.058, -6.280e-4
-1.057, -6.296e-4
-1.056, -6.318e-4
-1.055, -6.334e-4
-1.054, -6.350e-4
-1.053, -6.380e-4
-1.052, -6.389e-4
-1.051, -6.423e-4
-1.050, -6.429e-4
-1.049, -6.430e-4
-1.048, -6.428e-4
-1.047, -6.448e-4
-1.046, -6.464e-4
-1.045, -6.489e-4
-1.044, -6.521e-4
-1.043, -6.542e-4
-1.042, -6.563e-4
-1.041, -6.578e-4
-1.040, -6.570e-4
-1.039, -6.558e-4
-1.038, -6.559e-4
-1.037, -6.570e-4
-1.036, -6.584e-4
-1.035, -6.594e-4
-1.034, -6.603e-4
-1.033, -6.610e-4
-1.032, -6.617e-4
-1.031, -6.627e-4
-1.030, -6.624e-4
-1.029, -6.625e-4
-1.028, -6.620e-4
-1.027, -6.624e-4
-1.026, -6.638e-4
-1.025, -6.635e-4
-1.024, -6.632e-4
-1.023, -6.622e-4
-1.022, -6.618e-4
-1.021, -6.624e-4
-1.020, -6.623e-4
-1.019, -6.626e-4
-1.018, -6.640e-4
-1.017, -6.636e-4
-1.016, -6.645e-4
-1.015, -6.645e-4
-1.014, -6.656e-4
-1.013, -6.657e-4
-1.012, -6.662e-4
-1.011, -6.679e-4
-1.010, -6.691e-4
-1.009, -6.714e-4
-1.008, -6.703e-4
-1.007, -6.714e-4
-1.006, -6.725e-4
-1.005, -6.725e-4
-1.004, -6.733e-4
-1.003, -6.730e-4
-1.002, -6.731e-4
-1.001, -6.737e-4
-1.000, -6.552e-4
-1.001, -6.304e-4
-1.002, -6.107e-4
-1.003, -5.941e-4
-1.004, -5.775e-4
-1.005, -5.641e-4
-1.006, -5.507e-4
-1.007, -5.371e-4
-1.008, -5.251e-4
-1.009, -5.127e-4
-1.010, -5.013e-4
-1.011, -4.903e-4
-1.012, -4.792e-4
-1.013, -4.687e-4
-1.014, -4.580e-4
-1.015, -4.478e-4
-1.016, -4.383e-4
-1.017, -4.281e-4
-1.018, -4.174e-4
-1.019, -4.082e-4
-1.020, -3.993e-4
-1.021, -3.916e-4
-1.022, -3.832e-4
-1.023, -3.744e-4
-1.024, -3.664e-4
-1.025, -3.580e-4
-1.026, -3.495e-4
-1.027, -3.417e-4
-1.028, -3.342e-4
-1.029, -3.265e-4
-1.030, -3.194e-4
-1.031, -3.123e-4
-1.032, -3.055e-4
-1.033, -2.986e-4
-1.034, -2.913e-4
-1.035, -2.855e-4
-1.036, -2.788e-4
-1.037, -2.724e-4
-1.038, -2.664e-4
-1.039, -2.606e-4
-1.040, -2.553e-4
-1.041, -2.498e-4
-1.042, -2.443e-4
-1.043, -2.390e-4
-1.044, -2.336e-4
-1.045, -2.284e-4
-1.046, -2.231e-4
-1.047, -2.182e-4
-1.048, -2.135e-4
-1.049, -2.083e-4
-1.050, -2.028e-4
-1.051, -1.976e-4
-1.052, -1.921e-4
-1.053, -1.868e-4
-1.054, -1.814e-4
-1.055, -1.755e-4
-1.056, -1.701e-4
-1.057, -1.644e-4
-1.058, -1.593e-4
-1.059, -1.539e-4
-1.060, -1.484e-4
-1.061, -1.429e-4
-1.062, -1.375e-4
-1.063, -1.320e-4
-1.064, -1.270e-4
-1.065, -1.216e-4
-1.066, -1.166e-4
-1.067, -1.116e-4
-1.068, -1.064e-4
-1.069, -1.014e-4
-1.070, -9.652e-5
-1.071, -9.159e-5
-1.072, -8.687e-5
-1.073, -8.232e-5
-1.074, -7.746e-5
-1.075, -7.240e-5
-1.076, -6.726e-5
-1.077, -6.253e-5
-1.078, -5.792e-5
-1.079, -5.324e-5
-1.080, -4.881e-5
-1.081, -4.454e-5
-1.082, -4.045e-5
-1.083, -3.653e-5
-1.084, -3.234e-5
-1.085, -2.813e-5
-1.086, -2.410e-5
-1.087, -2.008e-5
-1.088, -1.651e-5
-1.089, -1.295e-5
-1.090, -9.551e-6
-1.091, -6.355e-6
-1.092, -3.060e-6
-1.093, -8.406e-8
-1.094, 3.067e-6
-1.095, 6.130e-6
-1.096, 8.976e-6
-1.097, 1.187e-5
-1.098, 1.469e-5
-1.099, 1.738e-5
-1.100, 2.022e-5
-1.101, 2.301e-5
-1.102, 2.579e-5
-1.103, 2.863e-5
-1.104, 3.147e-5
-1.105, 3.452e-5
-1.106, 3.766e-5
-1.107, 4.070e-5
-1.108, 4.401e-5
-1.109, 4.725e-5
-1.110, 5.052e-5
-1.111, 5.386e-5
-1.112, 5.714e-5
-1.113, 6.065e-5
-1.114, 6.416e-5
-1.115, 6.775e-5
-1.116, 7.137e-5
-1.117, 7.487e-5
-1.118, 7.842e-5
-1.119, 8.210e-5
-1.120, 8.583e-5
-1.121, 8.946e-5
-1.122, 9.310e-5
-1.123, 9.655e-5
-1.124, 1.001e-4
-1.125, 1.038e-4
-1.126, 1.072e-4
-1.127, 1.107e-4
-1.128, 1.139e-4
-1.129, 1.173e-4
-1.130, 1.206e-4
-1.131, 1.238e-4
-1.132, 1.270e-4
-1.133, 1.300e-4
-1.134, 1.333e-4
-1.135, 1.363e-4
-1.136, 1.392e-4
-1.137, 1.423e-4
-1.138, 1.453e-4
-1.139, 1.481e-4
-1.140, 1.511e-4
-1.141, 1.539e-4
-1.142, 1.569e-4
-1.143, 1.597e-4
-1.144, 1.624e-4
-1.145, 1.652e-4
-1.146, 1.680e-4
-1.147, 1.705e-4
-1.148, 1.734e-4
-1.149, 1.759e-4
-1.150, 1.787e-4
-1.151, 1.815e-4
-1.152, 1.842e-4
-1.153, 1.868e-4
-1.154, 1.895e-4
-1.155, 1.921e-4
-1.156, 1.949e-4
-1.157, 1.976e-4
-1.158, 2.001e-4
-1.159, 2.029e-4
-1.160, 2.055e-4
-1.161, 2.082e-4
-1.162, 2.110e-4
-1.163, 2.136e-4
-1.164, 2.162e-4
-1.165, 2.188e-4
-1.166, 2.214e-4
-1.167, 2.241e-4
-1.168, 2.267e-4
-1.169, 2.295e-4
-1.170, 2.320e-4
-1.171, 2.348e-4
-1.172, 2.376e-4
-1.173, 2.402e-4
-1.174, 2.429e-4
-1.175, 2.455e-4
-1.176, 2.486e-4
-1.177, 2.514e-4
-1.178, 2.543e-4
-1.179, 2.570e-4
-1.180, 2.596e-4
-1.181, 2.626e-4
-1.182, 2.654e-4
-1.183, 2.685e-4
-1.184, 2.711e-4
-1.185, 2.739e-4
-1.186, 2.771e-4
-1.187, 2.799e-4
-1.188, 2.831e-4
-1.189, 2.860e-4
-1.190, 2.892e-4
-1.191, 2.927e-4
-1.192, 2.956e-4
-1.193, 2.991e-4
-1.194, 3.019e-4
-1.195, 3.050e-4
-1.196, 3.082e-4
-1.197, 3.115e-4
-1.198, 3.151e-4
-1.199, 3.184e-4
-1.200, 3.219e-4
-1.201, 3.254e-4
-1.202, 3.287e-4
-1.203, 3.321e-4
-1.204, 3.353e-4
-1.205, 3.387e-4
-1.206, 3.431e-4
-1.207, 3.467e-4
-1.208, 3.506e-4
-1.209, 3.542e-4
-1.210, 3.577e-4
-1.211, 3.607e-4
-1.212, 3.645e-4
-1.213, 3.681e-4
-1.214, 3.722e-4
-1.215, 3.759e-4
-1.216, 3.798e-4
-1.217, 3.837e-4
-1.218, 3.881e-4
-1.219, 3.915e-4
-1.220, 3.958e-4
-1.221, 3.996e-4
-1.222, 4.041e-4
-1.223, 4.077e-4
-1.224, 4.056e-4
-1.225, 4.062e-4
-1.226, 4.102e-4
-1.227, 4.149e-4
-1.228, 4.192e-4
-1.229, 4.233e-4
-1.230, 4.277e-4
-1.231, 4.321e-4
-1.232, 4.374e-4
-1.233, 4.417e-4
-1.234, 4.457e-4
-1.235, 4.489e-4
-1.236, 4.522e-4
-1.237, 4.570e-4
-1.238, 4.615e-4
-1.239, 4.663e-4
-1.240, 4.710e-4
-1.241, 4.752e-4
-1.242, 4.789e-4
-1.243, 4.827e-4
-1.244, 4.860e-4
-1.245, 4.906e-4
-1.246, 4.950e-4
-1.247, 4.995e-4
-1.248, 5.040e-4
-1.249, 5.084e-4
-1.250, 5.131e-4
-1.251, 5.182e-4
-1.252, 5.233e-4
-1.253, 5.285e-4
-1.254, 5.342e-4
-1.255, 5.387e-4
-1.256, 5.422e-4
-1.257, 5.453e-4
-1.258, 5.423e-4
-1.259, 5.420e-4
-1.260, 5.464e-4
-1.261, 5.514e-4
-1.262, 5.567e-4
-1.263, 5.623e-4
-1.264, 5.678e-4
-1.265, 5.741e-4
-1.266, 5.809e-4
-1.267, 5.870e-4
-1.268, 5.933e-4
-1.269, 5.997e-4
-1.270, 6.069e-4
-1.271, 6.134e-4
-1.272, 6.210e-4
-1.273, 6.282e-4
-1.274, 6.354e-4
-1.275, 6.431e-4
-1.276, 6.502e-4
-1.277, 6.575e-4
-1.278, 6.652e-4
-1.279, 6.739e-4
-1.280, 6.822e-4
-1.281, 6.908e-4
-1.282, 6.995e-4
-1.283, 7.080e-4
-1.284, 7.172e-4
-1.285, 7.261e-4
-1.286, 7.355e-4
-1.287, 7.445e-4
-1.288, 7.537e-4
-1.289, 7.624e-4
-1.290, 7.713e-4
-1.291, 7.808e-4
-1.292, 7.911e-4
-1.293, 8.008e-4
-1.294, 8.115e-4
-1.295, 8.208e-4
-1.296, 8.311e-4
-1.297, 8.418e-4
-1.298, 8.519e-4
-1.299, 8.628e-4
-1.300, 8.734e-4
-1.301, 8.846e-4
-1.302, 8.950e-4
-1.303, 9.062e-4
-1.304, 9.160e-4
-1.305, 9.273e-4
-1.306, 9.385e-4
-1.307, 9.501e-4
-1.308, 9.619e-4
-1.309, 9.733e-4
-1.310, 9.858e-4
-1.311, 9.983e-4
-1.312, 1.011e-3
-1.313, 1.023e-3
-1.314, 1.036e-3
-1.315, 1.050e-3
-1.316, 1.066e-3
-1.317, 1.079e-3
-1.318, 1.092e-3
-1.319, 1.105e-3
-1.320, 1.117e-3
-1.321, 1.131e-3
-1.322, 1.143e-3
-1.323, 1.157e-3
-1.324, 1.170e-3
-1.325, 1.185e-3
-1.326, 1.203e-3
-1.327, 1.215e-3
-1.328, 1.228e-3
-1.329, 1.242e-3
-1.330, 1.257e-3
-1.331, 1.272e-3
-1.332, 1.287e-3
-1.333, 1.300e-3
-1.334, 1.316e-3
-1.335, 1.330e-3
-1.336, 1.344e-3
-1.337, 1.362e-3
-1.338, 1.379e-3
-1.339, 1.396e-3
-1.340, 1.412e-3
-1.341, 1.428e-3
-1.342, 1.445e-3
-1.343, 1.462e-3
-1.344, 1.479e-3
-1.345, 1.496e-3
-1.346, 1.513e-3
-1.347, 1.531e-3
-1.348, 1.549e-3
-1.349, 1.567e-3
-1.350, 1.587e-3
-1.351, 1.605e-3
-1.352, 1.624e-3
-1.353, 1.644e-3
-1.354, 1.663e-3
-1.355, 1.682e-3
-1.356, 1.702e-3
-1.357, 1.720e-3
-1.358, 1.742e-3
-1.359, 1.765e-3
-1.360, 1.786e-3
-1.361, 1.808e-3
-1.362, 1.831e-3
-1.363, 1.850e-3
-1.364, 1.872e-3
-1.365, 1.894e-3
-1.366, 1.917e-3
-1.367, 1.939e-3
-1.368, 1.962e-3
-1.369, 1.983e-3
-1.370, 2.009e-3
-1.371, 2.032e-3
-1.372, 2.054e-3
-1.373, 2.078e-3
-1.374, 2.103e-3
-1.375, 2.128e-3
-1.376, 2.153e-3
-1.377, 2.179e-3
-1.378, 2.206e-3
-1.379, 2.229e-3
-1.380, 2.256e-3
-1.381, 2.286e-3
-1.382, 2.314e-3
-1.383, 2.344e-3
-1.384, 2.377e-3
-1.385, 2.411e-3
-1.386, 2.442e-3
-1.387, 2.474e-3
-1.388, 2.501e-3
-1.389, 2.532e-3
-1.390, 2.566e-3
-1.391, 2.600e-3
-1.392, 2.639e-3
-1.393, 2.665e-3
-1.394, 2.696e-3
-1.395, 2.729e-3
-1.396, 2.764e-3
-1.397, 2.804e-3
-1.398, 2.844e-3
-1.399, 2.883e-3
-1.400, 2.887e-3
-1.399, 2.854e-3
-1.398, 2.826e-3
-1.397, 2.799e-3
-1.396, 2.773e-3
-1.395, 2.745e-3
-1.394, 2.717e-3
-1.393, 2.696e-3
-1.392, 2.666e-3
-1.391, 2.641e-3
-1.390, 2.609e-3
-1.389, 2.582e-3
-1.388, 2.556e-3
-1.387, 2.527e-3
-1.386, 2.504e-3
-1.385, 2.474e-3
-1.384, 2.452e-3
-1.383, 2.426e-3
-1.382, 2.399e-3
-1.381, 2.375e-3
-1.380, 2.348e-3
-1.379, 2.315e-3
-1.378, 2.289e-3
-1.377, 2.266e-3
-1.376, 2.233e-3
-1.375, 2.208e-3
-1.374, 2.179e-3
-1.373, 2.161e-3
-1.372, 2.142e-3
-1.371, 2.120e-3
-1.370, 2.096e-3
-1.369, 2.069e-3
-1.368, 2.045e-3
-1.367, 2.020e-3
-1.366, 1.986e-3
-1.365, 1.947e-3
-1.364, 1.928e-3
-1.363, 1.915e-3
-1.362, 1.890e-3
-1.361, 1.866e-3
-1.360, 1.846e-3
-1.359, 1.817e-3
-1.358, 1.784e-3
-1.357, 1.761e-3
-1.356, 1.740e-3
-1.355, 1.717e-3
-1.354, 1.695e-3
-1.353, 1.668e-3
-1.352, 1.649e-3
-1.351, 1.630e-3
-1.350, 1.607e-3
-1.349, 1.581e-3
-1.348, 1.558e-3
-1.347, 1.539e-3
-1.346, 1.522e-3
-1.345, 1.498e-3
-1.344, 1.471e-3
-1.343, 1.455e-3
-1.342, 1.432e-3
-1.341, 1.413e-3
-1.340, 1.393e-3
-1.339, 1.373e-3
-1.338, 1.354e-3
-1.337, 1.329e-3
-1.336, 1.309e-3
-1.335, 1.291e-3
-1.334, 1.276e-3
-1.333, 1.252e-3
-1.332, 1.237e-3
-1.331, 1.219e-3
-1.330, 1.198e-3
-1.329, 1.174e-3
-1.328, 1.155e-3
-1.327, 1.137e-3
-1.326, 1.118e-3
-1.325, 1.099e-3
-1.324, 1.084e-3
-1.323, 1.068e-3
-1.322, 1.049e-3
-1.321, 1.032e-3
-1.320, 1.017e-3
-1.319, 9.997e-4
-1.318, 9.828e-4
-1.317, 9.649e-4
-1.316, 9.549e-4
-1.315, 9.417e-4
-1.314, 9.234e-4
-1.313, 9.071e-4
-1.312, 8.908e-4
-1.311, 8.755e-4
-1.310, 8.640e-4
-1.309, 8.582e-4
-1.308, 8.380e-4
-1.307, 8.198e-4
-1.306, 8.048e-4
-1.305, 7.895e-4
-1.304, 7.735e-4
-1.303, 7.562e-4
-1.302, 7.414e-4
-1.301, 7.268e-4
-1.300, 7.144e-4
-1.299, 7.020e-4
-1.298, 6.868e-4
-1.297, 6.723e-4
-1.296, 6.615e-4
-1.295, 6.492e-4
-1.294, 6.340e-4
-1.293, 6.203e-4
-1.292, 6.068e-4
-1.291, 5.950e-4
-1.290, 5.843e-4
-1.289, 5.701e-4
-1.288, 5.570e-4
-1.287, 5.445e-4
-1.286, 5.332e-4
-1.285, 5.215e-4
-1.284, 5.092e-4
-1.283, 4.970e-4
-1.282, 4.863e-4
-1.281, 4.743e-4
-1.280, 4.625e-4
-1.279, 4.511e-4
-1.278, 4.393e-4
-1.277, 4.292e-4
-1.276, 4.179e-4
-1.275, 4.072e-4
-1.274, 3.966e-4
-1.273, 3.864e-4
-1.272, 3.757e-4
-1.271, 3.653e-4
-1.270, 3.548e-4
-1.269, 3.442e-4
-1.268, 3.331e-4
-1.267, 3.230e-4
-1.266, 3.127e-4
-1.265, 3.025e-4
-1.264, 2.934e-4
-1.263, 2.845e-4
-1.262, 2.745e-4
-1.261, 2.648e-4
-1.260, 2.556e-4
-1.259, 2.469e-4
-1.258, 2.376e-4
-1.257, 2.287e-4
-1.256, 2.197e-4
-1.255, 2.110e-4
-1.254, 2.019e-4
-1.253, 1.935e-4
-1.252, 1.856e-4
-1.251, 1.773e-4
-1.250, 1.693e-4
-1.249, 1.612e-4
-1.248, 1.534e-4
-1.247, 1.459e-4
-1.246, 1.393e-4
-1.245, 1.321e-4
-1.244, 1.240e-4
-1.243, 1.168e-4
-1.242, 1.097e-4
-1.241, 1.028e-4
-1.240, 9.623e-5
-1.239, 8.960e-5
-1.238, 8.335e-5
-1.237, 7.723e-5
-1.236, 7.107e-5
-1.235, 6.508e-5
-1.234, 5.966e-5
-1.233, 5.399e-5
-1.232, 4.870e-5
-1.231, 4.441e-5
-1.230, 3.931e-5
-1.229, 3.406e-5
-1.228, 2.895e-5
-1.227, 2.400e-5
-1.226, 1.906e-5
-1.225, 1.442e-5
-1.224, 9.896e-6
-1.223, 5.272e-6
-1.222, 8.256e-7
-1.221, -3.549e-6
-1.220, -7.836e-6
-1.219, -1.204e-5
-1.218, -1.614e-5
-1.217, -2.037e-5
-1.216, -2.445e-5
-1.215, -2.857e-5
-1.214, -3.347e-5
-1.213, -3.783e-5
-1.212, -4.182e-5
-1.211, -4.592e-5
-1.210, -4.998e-5
-1.209, -5.414e-5
-1.208, -5.827e-5
-1.207, -6.258e-5
-1.206, -6.680e-5
-1.205, -7.107e-5
-1.204, -7.515e-5
-1.203, -7.930e-5
-1.202, -8.354e-5
-1.201, -8.744e-5
-1.200, -9.148e-5
-1.199, -9.560e-5
-1.198, -9.944e-5
-1.197, -1.029e-4
-1.196, -1.069e-4
-1.195, -1.103e-4
-1.194, -1.138e-4
-1.193, -1.173e-4
-1.192, -1.199e-4
-1.191, -1.229e-4
-1.190, -1.260e-4
-1.189, -1.284e-4
-1.188, -1.310e-4
-1.187, -1.336e-4
-1.186, -1.364e-4
-1.185, -1.386e-4
-1.184, -1.404e-4
-1.183, -1.421e-4
-1.182, -1.436e-4
-1.181, -1.447e-4
-1.180, -1.457e-4
-1.179, -1.467e-4
-1.178, -1.472e-4
-1.177, -1.478e-4
-1.176, -1.481e-4
-1.175, -1.484e-4
-1.174, -1.489e-4
-1.173, -1.492e-4
-1.172, -1.500e-4
-1.171, -1.506e-4
-1.170, -1.519e-4
-1.169, -1.542e-4
-1.168, -1.580e-4
-1.167, -1.635e-4
-1.166, -1.698e-4
-1.165, -1.776e-4
-1.164, -1.851e-4
-1.163, -1.927e-4
-1.162, -1.999e-4
-1.161, -2.072e-4
-1.160, -2.141e-4
-1.159, -2.199e-4
-1.158, -2.259e-4
-1.157, -2.320e-4
-1.156, -2.376e-4
-1.155, -2.427e-4
-1.154, -2.474e-4
-1.153, -2.517e-4
-1.152, -2.560e-4
-1.151, -2.599e-4
-1.150, -2.644e-4
-1.149, -2.689e-4
-1.148, -2.724e-4
-1.147, -2.768e-4
-1.146, -2.801e-4
-1.145, -2.842e-4
-1.144, -2.878e-4
-1.143, -2.916e-4
-1.142, -2.930e-4
-1.141, -2.951e-4
-1.140, -2.968e-4
-1.139, -2.988e-4
-1.138, -3.019e-4
-1.137, -3.048e-4
-1.136, -3.073e-4
-1.135, -3.109e-4
-1.134, -3.133e-4
-1.133, -3.152e-4
-1.132, -3.163e-4
-1.131, -3.172e-4
-1.130, -3.192e-4
-1.129, -3.217e-4
-1.128, -3.235e-4
-1.127, -3.256e-4
-1.126, -3.275e-4
-1.125, -3.291e-4
-1.124, -3.303e-4
-1.123, -3.323e-4
-1.122, -3.330e-4
-1.121, -3.338e-4
-1.120, -3.349e-4
-1.119, -3.359e-4
-1.118, -3.368e-4
-1.117, -3.370e-4
-1.116, -3.394e-4
-1.115, -3.399e-4
-1.114, -3.408e-4
-1.113, -3.415e-4
-1.112, -3.412e-4
-1.111, -3.430e-4
-1.110, -3.434e-4
-1.109, -3.436e-4
-1.108, -3.453e-4
-1.107, -3.461e-4
-1.106, -3.466e-4
-1.105, -3.470e-4
-1.104, -3.481e-4
-1.103, -3.479e-4
-1.102, -3.488e-4
-1.101, -3.477e-4
-1.100, -3.491e-4
-1.099, -3.490e-4
-1.098, -3.502e-4
-1.097, -3.503e-4
-1.096, -3.500e-4
-1.095, -3.500e-4
-1.094, -3.500e-4
-1.093, -3.507e-4
-1.092, -3.506e-4
-1.091, -3.519e-4
-1.090, -3.516e-4
-1.089, -3.518e-4
-1.088, -3.520e-4
-1.087, -3.519e-4
-1.086, -3.523e-4
-1.085, -3.531e-4
-1.084, -3.538e-4
-1.083, -3.541e-4
-1.082, -3.539e-4
-1.081, -3.538e-4
-1.080, -3.536e-4
-1.079, -3.541e-4
-1.078, -3.541e-4
-1.077, -3.541e-4
-1.076, -3.549e-4
-1.075, -3.556e-4
-1.074, -3.553e-4
-1.073, -3.558e-4
-1.072, -3.558e-4
-1.071, -3.552e-4
-1.070, -3.543e-4
-1.069, -3.542e-4
-1.068, -3.549e-4
-1.067, -3.545e-4
-1.066, -3.546e-4
-1.065, -3.543e-4
-1.064, -3.556e-4
-1.063, -3.552e-4
-1.062, -3.547e-4
-1.061, -3.550e-4
-1.060, -3.555e-4
-1.059, -3.558e-4
-1.058, -3.557e-4
-1.057, -3.553e-4
-1.056, -3.553e-4
-1.055, -3.552e-4
-1.054, -3.551e-4
-1.053, -3.548e-4
-1.052, -3.542e-4
-1.051, -3.539e-4
-1.050, -3.529e-4
-1.049, -3.530e-4
-1.048, -3.529e-4
-1.047, -3.534e-4
-1.046, -3.522e-4
-1.045, -3.525e-4
-1.044, -3.518e-4
-1.043, -3.511e-4
-1.042, -3.511e-4
-1.041, -3.506e-4
-1.040, -3.507e-4
-1.039, -3.510e-4
-1.038, -3.514e-4
-1.037, -3.518e-4
-1.036, -3.511e-4
-1.035, -3.502e-4
-1.034, -3.494e-4
-1.033, -3.495e-4
-1.032, -3.484e-4
-1.031, -3.479e-4
-1.030, -3.480e-4
-1.029, -3.472e-4
-1.028, -3.470e-4
-1.027, -3.472e-4
-1.026, -3.467e-4
-1.025, -3.463e-4
-1.024, -3.459e-4
-1.023, -3.449e-4
-1.022, -3.466e-4
-1.021, -3.443e-4
-1.020, -3.442e-4
-1.019, -3.433e-4
-1.018, -3.423e-4
-1.017, -3.433e-4
-1.016, -3.431e-4
-1.015, -3.426e-4
-1.014, -3.417e-4
-1.013, -3.407e-4
-1.012, -3.403e-4
-1.011, -3.390e-4
-1.010, -3.394e-4
-1.009, -3.386e-4
-1.008, -3.374e-4
-1.007, -3.380e-4
-1.006, -3.358e-4
-1.005, -3.353e-4
-1.004, -3.348e-4
-1.003, -3.338e-4
-1.002, -3.335e-4
-1.001, -3.337e-4
-1.000, -3.185e-4
-1.001, -2.993e-4
-1.002, -2.853e-4
-1.003, -2.744e-4
-1.004, -2.648e-4
-1.005, -2.548e-4
-1.006, -2.455e-4
-1.007, -2.374e-4
-1.008, -2.289e-4
-1.009, -2.217e-4
-1.010, -2.144e-4
-1.011, -2.070e-4
-1.012, -1.994e-4
-1.013, -1.924e-4
-1.014, -1.861e-4
-1.015, -1.798e-4
-1.016, -1.738e-4
-1.017, -1.676e-4
-1.018, -1.618e-4
-1.019, -1.567e-4
-1.020, -1.511e-4
-1.021, -1.457e-4
-1.022, -1.401e-4
-1.023, -1.350e-4
-1.024, -1.297e-4
-1.025, -1.249e-4
-1.026, -1.202e-4
-1.027, -1.157e-4
-1.028, -1.113e-4
-1.029, -1.069e-4
-1.030, -1.025e-4
-1.031, -9.827e-5
-1.032, -9.429e-5
-1.033, -9.043e-5
-1.034, -8.646e-5
-1.035, -8.285e-5
-1.036, -7.873e-5
-1.037, -7.499e-5
-1.038, -7.156e-5
-1.039, -6.810e-5
-1.040, -6.462e-5
-1.041, -6.137e-5
-1.042, -5.813e-5
-1.043, -5.487e-5
-1.044, -5.169e-5
-1.045, -4.861e-5
-1.046, -4.543e-5
-1.047, -4.245e-5
-1.048, -3.964e-5
-1.049, -3.689e-5
-1.050, -3.415e-5
-1.051, -3.145e-5
-1.052, -2.874e-5
-1.053, -2.626e-5
-1.054, -2.379e-5
-1.055, -2.146e-5
-1.056, -1.914e-5
-1.057, -1.679e-5
-1.058, -1.456e-5
-1.059, -1.259e-5
-1.060, -1.037e-5
-1.061, -8.410e-6
-1.062, -6.394e-6
-1.063, -4.541e-6
-1.064, -2.998e-6
-1.065, -1.195e-6
-1.066, 4.911e-7
-1.067, 2.031e-6
-1.068, 3.667e-6
-1.069, 4.987e-6
-1.070, 6.515e-6
-1.071, 7.958e-6
-1.072, 9.271e-6
-1.073, 1.068e-5
-1.074, 1.195e-5
-1.075, 1.338e-5
-1.076, 1.480e-5
-1.077, 1.602e-5
-1.078, 1.737e-5
-1.079, 1.885e-5
-1.080, 2.018e-5
-1.081, 2.171e-5
-1.082, 2.329e-5
-1.083, 2.475e-5
-1.084, 2.632e-5
-1.085, 2.788e-5
-1.086, 2.952e-5
-1.087, 3.137e-5
-1.088, 3.303e-5
-1.089, 3.469e-5
-1.090, 3.655e-5
-1.091, 3.844e-5
-1.092, 4.032e-5
-1.093, 4.192e-5
-1.094, 4.383e-5
-1.095, 4.590e-5
-1.096, 4.780e-5
-1.097, 4.975e-5
-1.098, 5.168e-5
-1.099, 5.333e-5
-1.100, 5.524e-5
-1.101, 5.704e-5
-1.102, 5.878e-5
-1.103, 6.064e-5
-1.104, 6.225e-5
-1.105, 6.396e-5
-1.106, 6.569e-5
-1.107, 6.737e-5
-1.108, 6.904e-5
-1.109, 7.051e-5
-1.110, 7.210e-5
-1.111, 7.363e-5
-1.112, 7.511e-5
-1.113, 7.664e-5
-1.114, 7.806e-5
-1.115, 7.960e-5
-1.116, 8.110e-5
-1.117, 8.218e-5
-1.118, 8.357e-5
-1.119, 8.501e-5
-1.120, 8.621e-5
-1.121, 8.760e-5
-1.122, 8.899e-5
-1.123, 9.035e-5
-1.124, 9.160e-5
-1.125, 9.288e-5
-1.126, 9.424e-5
-1.127, 9.550e-5
-1.128, 9.672e-5
-1.129, 9.804e-5
-1.130, 9.927e-5
-1.131, 1.005e-4
-1.132, 1.019e-4
-1.133, 1.031e-4
-1.134, 1.043e-4
-1.135, 1.057e-4
-1.136, 1.069e-4
-1.137, 1.082e-4
-1.138, 1.095e-4
-1.139, 1.107e-4
-1.140, 1.121e-4
-1.141, 1.134e-4
-1.142, 1.146e-4
-1.143, 1.160e-4
-1.144, 1.172e-4
-1.145, 1.185e-4
-1.146, 1.200e-4
-1.147, 1.212e-4
-1.148, 1.228e-4
-1.149, 1.239e-4
-1.150, 1.254e-4
-1.151, 1.268e-4
-1.152, 1.283e-4
-1.153, 1.298e-4
-1.154, 1.312e-4
-1.155, 1.328e-4
-1.156, 1.344e-4
-1.157, 1.360e-4
-1.158, 1.375e-4
-1.159, 1.392e-4
-1.160, 1.407e-4
-1.161, 1.424e-4
-1.162, 1.442e-4
-1.163, 1.461e-4
-1.164, 1.477e-4
-1.165, 1.496e-4
-1.166, 1.516e-4
-1.167, 1.536e-4
-1.168, 1.554e-4
-1.169, 1.575e-4
-1.170, 1.596e-4
-1.171, 1.615e-4
-1.172, 1.638e-4
-1.173, 1.658e-4
-1.174, 1.677e-4
-1.175, 1.698e-4
-1.176, 1.720e-4
-1.177, 1.741e-4
-1.178, 1.762e-4
-1.179, 1.782e-4
-1.180, 1.804e-4
-1.181, 1.824e-4
-1.182, 1.845e-4
-1.183, 1.869e-4
-1.184, 1.891e-4
-1.185, 1.914e-4
-1.186, 1.932e-4
-1.187, 1.952e-4
-1.188, 1.974e-4
-1.189, 1.995e-4
-1.190, 2.013e-4
-1.191, 2.036e-4
-1.192, 2.064e-4
-1.193, 2.085e-4
-1.194, 2.106e-4
-1.195, 2.127e-4
-1.196, 2.150e-4
-1.197, 2.169e-4
-1.198, 2.193e-4
-1.199, 2.218e-4
-1.200, 2.238e-4
-1.201, 2.259e-4
-1.202, 2.283e-4
-1.203, 2.306e-4
-1.204, 2.330e-4
-1.205, 2.357e-4
-1.206, 2.383e-4
-1.207, 2.412e-4
-1.208, 2.435e-4
-1.209, 2.464e-4
-1.210, 2.487e-4
-1.211, 2.511e-4
-1.212, 2.531e-4
-1.213, 2.561e-4
-1.214, 2.586e-4
-1.215, 2.611e-4
-1.216, 2.639e-4
-1.217, 2.667e-4
-1.218, 2.690e-4
-1.219, 2.721e-4
-1.220, 2.746e-4
-1.221, 2.773e-4
-1.222, 2.799e-4
-1.223, 2.830e-4
-1.224, 2.854e-4
-1.225, 2.880e-4
-1.226, 2.911e-4
-1.227, 2.942e-4
-1.228, 2.972e-4
-1.229, 3.010e-4
-1.230, 3.040e-4
-1.231, 3.077e-4
-1.232, 3.106e-4
-1.233, 3.133e-4
-1.234, 3.164e-4
-1.235, 3.193e-4
-1.236, 3.226e-4
-1.237, 3.255e-4
-1.238, 3.290e-4
-1.239, 3.326e-4
-1.240, 3.360e-4
-1.241, 3.392e-4
-1.242, 3.425e-4
-1.243, 3.458e-4
-1.244, 3.493e-4
-1.245, 3.531e-4
-1.246, 3.571e-4
-1.247, 3.605e-4
-1.248, 3.640e-4
-1.249, 3.680e-4
-1.250, 3.718e-4
-1.251, 3.762e-4
-1.252, 3.806e-4
-1.253, 3.848e-4
-1.254, 3.887e-4
-1.255, 3.932e-4
-1.256, 3.981e-4
-1.257, 4.033e-4
-1.258, 4.082e-4
-1.259, 4.133e-4
-1.260, 4.193e-4
-1.261, 4.249e-4
-1.262, 4.300e-4
-1.263, 4.365e-4
-1.264, 4.419e-4
-1.265, 4.479e-4
-1.266, 4.544e-4
-1.267, 4.605e-4
-1.268, 4.670e-4
-1.269, 4.734e-4
-1.270, 4.800e-4
-1.271, 4.868e-4
-1.272, 4.941e-4
-1.273, 5.010e-4
-1.274, 5.081e-4
-1.275, 5.148e-4
-1.276, 5.226e-4
-1.277, 5.301e-4
-1.278, 5.376e-4
-1.279, 5.445e-4
-1.280, 5.528e-4
-1.281, 5.606e-4
-1.282, 5.689e-4
-1.283, 5.760e-4
-1.284, 5.842e-4
-1.285, 5.933e-4
-1.286, 6.016e-4
-1.287, 6.101e-4
-1.288, 6.194e-4
-1.289, 6.276e-4
-1.290, 6.358e-4
-1.291, 6.449e-4
-1.292, 6.533e-4
-1.293, 6.626e-4
-1.294, 6.720e-4
-1.295, 6.824e-4
-1.296, 6.917e-4
-1.297, 7.008e-4
-1.298, 7.108e-4
-1.299, 7.208e-4
-1.300, 7.309e-4
-1.301, 7.405e-4
-1.302, 7.520e-4
-1.303, 7.620e-4
-1.304, 7.726e-4
-1.305, 7.839e-4
-1.306, 7.953e-4
-1.307, 8.077e-4
-1.308, 8.175e-4
-1.309, 8.279e-4
-1.310, 8.405e-4
-1.311, 8.519e-4
-1.312, 8.644e-4
-1.313, 8.769e-4
-1.314, 8.886e-4
-1.315, 9.009e-4
-1.316, 9.138e-4
-1.317, 9.279e-4
-1.318, 9.411e-4
-1.319, 9.541e-4
-1.320, 9.690e-4
-1.321, 9.831e-4
-1.322, 9.976e-4
-1.323, 1.011e-3
-1.324, 1.025e-3
-1.325, 1.039e-3
-1.326, 1.054e-3
-1.327, 1.070e-3
-1.328, 1.084e-3
-1.329, 1.100e-3
-1.330, 1.117e-3
-1.331, 1.132e-3
-1.332, 1.147e-3
-1.333, 1.163e-3
-1.334, 1.179e-3
-1.335, 1.196e-3
-1.336, 1.212e-3
-1.337, 1.231e-3
-1.338, 1.247e-3
-1.339, 1.263e-3
-1.340, 1.280e-3
-1.341, 1.295e-3
-1.342, 1.314e-3
-1.343, 1.332e-3
-1.344, 1.351e-3
-1.345, 1.369e-3
-1.346, 1.390e-3
-1.347, 1.408e-3
-1.348, 1.426e-3
-1.349, 1.442e-3
-1.350, 1.461e-3
-1.351, 1.481e-3
-1.352, 1.502e-3
-1.353, 1.524e-3
-1.354, 1.543e-3
-1.355, 1.564e-3
-1.356, 1.585e-3
-1.357, 1.607e-3
-1.358, 1.629e-3
-1.359, 1.650e-3
-1.360, 1.671e-3
-1.361, 1.691e-3
-1.362, 1.713e-3
-1.363, 1.736e-3
-1.364, 1.758e-3
-1.365, 1.781e-3
-1.366, 1.805e-3
-1.367, 1.832e-3
-1.368, 1.861e-3
-1.369, 1.887e-3
-1.370, 1.911e-3
-1.371, 1.930e-3
-1.372, 1.954e-3
-1.373, 1.983e-3
-1.374, 2.008e-3
-1.375, 2.039e-3
-1.376, 2.068e-3
-1.377, 2.097e-3
-1.378, 2.125e-3
-1.379, 2.146e-3
-1.380, 2.171e-3
-1.381, 2.198e-3
-1.382, 2.224e-3
-1.383, 2.256e-3
-1.384, 2.285e-3
-1.385, 2.305e-3
-1.386, 2.333e-3
-1.387, 2.362e-3
-1.388, 2.399e-3
-1.389, 2.421e-3
-1.390, 2.443e-3
-1.391, 2.470e-3
-1.392, 2.498e-3
-1.393, 2.533e-3
-1.394, 2.562e-3
-1.395, 2.587e-3
-1.396, 2.614e-3
-1.397, 2.649e-3
-1.398, 2.678e-3
-1.399, 2.708e-3
-1.400, 2.700e-3
-1.399, 2.671e-3
-1.398, 2.652e-3
-1.397, 2.622e-3
-1.396, 2.590e-3
-1.395, 2.565e-3
-1.394, 2.544e-3
-1.393, 2.524e-3
-1.392, 2.496e-3
-1.391, 2.467e-3
-1.390, 2.435e-3
-1.389, 2.403e-3
-1.388, 2.384e-3
-1.387, 2.365e-3
-1.386, 2.335e-3
-1.385, 2.300e-3
-1.384, 2.267e-3
-1.383, 2.245e-3
-1.382, 2.220e-3
-1.381, 2.202e-3
-1.380, 2.174e-3
-1.379, 2.151e-3
-1.378, 2.127e-3
-1.377, 2.105e-3
-1.376, 2.086e-3
-1.375, 2.062e-3
-1.374, 2.036e-3
-1.373, 2.018e-3
-1.372, 1.987e-3
-1.371, 1.965e-3
-1.370, 1.940e-3
-1.369, 1.914e-3
-1.368, 1.881e-3
-1.367, 1.858e-3
-1.366, 1.837e-3
-1.365, 1.816e-3
-1.364, 1.797e-3
-1.363, 1.780e-3
-1.362, 1.757e-3
-1.361, 1.740e-3
-1.360, 1.718e-3
-1.359, 1.680e-3
-1.358, 1.657e-3
-1.357, 1.636e-3
-1.356, 1.613e-3
-1.355, 1.592e-3
-1.354, 1.582e-3
-1.353, 1.561e-3
-1.352, 1.542e-3
-1.351, 1.519e-3
-1.350, 1.494e-3
-1.349, 1.471e-3
-1.348, 1.454e-3
-1.347, 1.439e-3
-1.346, 1.417e-3
-1.345, 1.393e-3
-1.344, 1.368e-3
-1.343, 1.356e-3
-1.342, 1.340e-3
-1.341, 1.318e-3
-1.340, 1.301e-3
-1.339, 1.287e-3
-1.338, 1.264e-3
-1.337, 1.242e-3
-1.336, 1.218e-3
-1.335, 1.203e-3
-1.334, 1.187e-3
-1.333, 1.169e-3
-1.332, 1.151e-3
-1.331, 1.135e-3
-1.330, 1.118e-3
-1.329, 1.100e-3
-1.328, 1.081e-3
-1.327, 1.067e-3
-1.326, 1.048e-3
-1.325, 1.036e-3
-1.324, 1.021e-3
-1.323, 1.003e-3
-1.322, 9.864e-4
-1.321, 9.726e-4
-1.320, 9.504e-4
-1.319, 9.311e-4
-1.318, 9.159e-4
-1.317, 9.017e-4
-1.316, 8.907e-4
-1.315, 8.757e-4
-1.314, 8.637e-4
-1.313, 8.505e-4
-1.312, 8.330e-4
-1.311, 8.167e-4
-1.310, 7.988e-4
-1.309, 7.836e-4
-1.308, 7.692e-4
-1.307, 7.571e-4
-1.306, 7.423e-4
-1.305, 7.297e-4
-1.304, 7.169e-4
-1.303, 7.057e-4
-1.302, 6.928e-4
-1.301, 6.798e-4
-1.300, 6.650e-4
-1.299, 6.550e-4
-1.298, 6.395e-4
-1.297, 6.294e-4
-1.296, 6.166e-4
-1.295, 6.042e-4
-1.294, 5.917e-4
-1.293, 5.820e-4
-1.292, 5.690e-4
-1.291, 5.584e-4
-1.290, 5.475e-4
-1.289, 5.347e-4
-1.288, 5.216e-4
-1.287, 5.086e-4
-1.286, 4.945e-4
-1.285, 4.874e-4
-1.284, 4.772e-4
-1.283, 4.643e-4
-1.282, 4.553e-4
-1.281, 4.429e-4
-1.280, 4.352e-4
-1.279, 4.207e-4
-1.278, 4.110e-4
-1.277, 4.014e-4
-1.276, 3.927e-4
-1.275, 3.844e-4
-1.274, 3.741e-4
-1.273, 3.622e-4
-1.272, 3.514e-4
-1.271, 3.411e-4
-1.270, 3.321e-4
-1.269, 3.231e-4
-1.268, 3.142e-4
-1.267, 3.053e-4
-1.266, 2.965e-4
-1.265, 2.882e-4
-1.264, 2.788e-4
-1.263, 2.685e-4
-1.262, 2.595e-4
-1.261, 2.516e-4
-1.260, 2.436e-4
-1.259, 2.355e-4
-1.258, 2.276e-4
-1.257, 2.202e-4
-1.256, 2.111e-4
-1.255, 2.026e-4
-1.254, 1.945e-4
-1.253, 1.870e-4
-1.252, 1.798e-4
-1.251, 1.728e-4
-1.250, 1.654e-4
-1.249, 1.581e-4
-1.248, 1.514e-4
-1.247, 1.446e-4
-1.246, 1.377e-4
-1.245, 1.304e-4
-1.244, 1.232e-4
-1.243, 1.165e-4
-1.242, 1.101e-4
-1.241, 1.036e-4
-1.240, 9.844e-5
-1.239, 9.227e-5
-1.238, 8.654e-5
-1.237, 8.025e-5
-1.236, 7.457e-5
-1.235, 6.874e-5
-1.234, 6.348e-5
-1.233, 5.803e-5
-1.232, 5.288e-5
-1.231, 4.796e-5
-1.230, 4.308e-5
-1.229, 3.804e-5
-1.228, 3.340e-5
-1.227, 2.877e-5
-1.226, 2.423e-5
-1.225, 1.976e-5
-1.224, 1.557e-5
-1.223, 1.146e-5
-1.222, 7.302e-6
-1.221, 3.219e-6
-1.220, -8.339e-7
-1.219, -4.654e-6
-1.218, -8.564e-6
-1.217, -1.229e-5
-1.216, -1.608e-5
-1.215, -1.973e-5
-1.214, -2.339e-5
-1.213, -2.697e-5
-1.212, -3.046e-5
-1.211, -3.397e-5
-1.210, -3.730e-5
-1.209, -4.059e-5
-1.208, -4.491e-5
-1.207, -4.950e-5
-1.206, -5.299e-5
-1.205, -5.622e-5
-1.204, -5.988e-5
-1.203, -6.367e-5
-1.202, -6.729e-5
-1.201, -7.097e-5
-1.200, -7.435e-5
-1.199, -7.758e-5
-1.198, -8.094e-5
-1.197, -8.353e-5
-1.196, -8.681e-5
-1.195, -8.986e-5
-1.194, -9.293e-5
-1.193, -9.601e-5
-1.192, -9.946e-5
-1.191, -1.024e-4
-1.190, -1.054e-4
-1.189, -1.080e-4
-1.188, -1.107e-4
-1.187, -1.134e-4
-1.186, -1.158e-4
-1.185, -1.187e-4
-1.184, -1.207e-4
-1.183, -1.224e-4
-1.182, -1.240e-4
-1.181, -1.252e-4
-1.180, -1.261e-4
-1.179, -1.277e-4
-1.178, -1.289e-4
-1.177, -1.295e-4
-1.176, -1.294e-4
-1.175, -1.296e-4
-1.174, -1.289e-4
-1.173, -1.283e-4
-1.172, -1.277e-4
-1.171, -1.280e-4
-1.170, -1.288e-4
-1.169, -1.295e-4
-1.168, -1.311e-4
-1.167, -1.336e-4
-1.166, -1.373e-4
-1.165, -1.419e-4
-1.164, -1.479e-4
-1.163, -1.551e-4
-1.162, -1.629e-4
-1.161, -1.691e-4
-1.160, -1.753e-4
-1.159, -1.805e-4
-1.158, -1.855e-4
-1.157, -1.900e-4
-1.156, -1.948e-4
-1.155, -1.982e-4
-1.154, -2.030e-4
-1.153, -2.066e-4
-1.152, -2.110e-4
-1.151, -2.132e-4
-1.150, -2.154e-4
-1.149, -2.188e-4
-1.148, -2.216e-4
-1.147, -2.245e-4
-1.146, -2.280e-4
-1.145, -2.316e-4
-1.144, -2.352e-4
-1.143, -2.379e-4
-1.142, -2.405e-4
-1.141, -2.420e-4
-1.140, -2.452e-4
-1.139, -2.482e-4
-1.138, -2.510e-4
-1.137, -2.539e-4
-1.136, -2.557e-4
-1.135, -2.565e-4
-1.134, -2.589e-4
-1.133, -2.591e-4
-1.132, -2.609e-4
-1.131, -2.627e-4
-1.130, -2.649e-4
-1.129, -2.668e-4
-1.128, -2.667e-4
-1.127, -2.690e-4
-1.126, -2.706e-4
-1.125, -2.715e-4
-1.124, -2.725e-4
-1.123, -2.732e-4
-1.122, -2.744e-4
-1.121, -2.762e-4
-1.120, -2.780e-4
-1.119, -2.788e-4
-1.118, -2.788e-4
-1.117, -2.797e-4
-1.116, -2.804e-4
-1.115, -2.821e-4
-1.114, -2.835e-4
-1.113, -2.847e-4
-1.112, -2.855e-4
-1.111, -2.865e-4
-1.110, -2.860e-4
-1.109, -2.855e-4
-1.108, -2.868e-4
-1.107, -2.872e-4
-1.106, -2.873e-4
-1.105, -2.863e-4
-1.104, -2.861e-4
-1.103, -2.867e-4
-1.102, -2.876e-4
-1.101, -2.875e-4
-1.100, -2.891e-4
-1.099, -2.893e-4
-1.098, -2.892e-4
-1.097, -2.899e-4
-1.096, -2.885e-4
-1.095, -2.895e-4
-1.094, -2.891e-4
-1.093, -2.895e-4
-1.092, -2.907e-4
-1.091, -2.911e-4
-1.090, -2.898e-4
-1.089, -2.901e-4
-1.088, -2.894e-4
-1.087, -2.898e-4
-1.086, -2.911e-4
-1.085, -2.902e-4
-1.084, -2.906e-4
-1.083, -2.899e-4
-1.082, -2.890e-4
-1.081, -2.893e-4
-1.080, -2.894e-4
-1.079, -2.888e-4
-1.078, -2.887e-4
-1.077, -2.883e-4
-1.076, -2.897e-4
-1.075, -2.903e-4
-1.074, -2.888e-4
-1.073, -2.894e-4
-1.072, -2.889e-4
-1.071, -2.875e-4
-1.070, -2.863e-4
-1.069, -2.858e-4
-1.068, -2.850e-4
-1.067, -2.857e-4
-1.066, -2.859e-4
-1.065, -2.862e-4
-1.064, -2.860e-4
-1.063, -2.856e-4
-1.062, -2.857e-4
-1.061, -2.846e-4
-1.060, -2.835e-4
-1.059, -2.826e-4
-1.058, -2.822e-4
-1.057, -2.810e-4
-1.056, -2.803e-4
-1.055, -2.798e-4
-1.054, -2.797e-4
-1.053, -2.783e-4
-1.052, -2.778e-4
-1.051, -2.777e-4
-1.050, -2.767e-4
-1.049, -2.756e-4
-1.048, -2.750e-4
-1.047, -2.740e-4
-1.046, -2.737e-4
-1.045, -2.738e-4
-1.044, -2.718e-4
-1.043, -2.717e-4
-1.042, -2.727e-4
-1.041, -2.727e-4
-1.040, -2.711e-4
-1.039, -2.707e-4
-1.038, -2.711e-4
-1.037, -2.695e-4
-1.036, -2.697e-4
-1.035, -2.674e-4
-1.034, -2.672e-4
-1.033, -2.653e-4
-1.032, -2.644e-4
-1.031, -2.658e-4
-1.030, -2.659e-4
-1.029, -2.655e-4
-1.028, -2.639e-4
-1.027, -2.640e-4
-1.026, -2.629e-4
-1.025, -2.638e-4
-1.024, -2.608e-4
-1.023, -2.589e-4
-1.022, -2.579e-4
-1.021, -2.577e-4
-1.020, -2.570e-4
-1.019, -2.559e-4
-1.018, -2.565e-4
-1.017, -2.557e-4
-1.016, -2.554e-4
-1.015, -2.547e-4
-1.014, -2.538e-4
-1.013, -2.519e-4
-1.012, -2.514e-4
-1.011, -2.511e-4
-1.010, -2.516e-4
-1.009, -2.520e-4
-1.008, -2.510e-4
-1.007, -2.495e-4
-1.006, -2.496e-4
-1.005, -2.492e-4
-1.004, -2.472e-4
-1.003, -2.475e-4
-1.002, -2.469e-4
-1.001, -2.466e-4
