Potential V vs RHE, Current mA cm-2
0.013299999999999867,-0.03425016056973254
0.012299999999999978,-0.05391464763785655
0.011299999999999866,-0.0636761556069253
0.010299999999999976,-0.07096191880123023
0.009299999999999864,-0.0771583542946391
0.008299999999999974,-0.08145907664622881
0.007299999999999862,-0.08559003364183472
0.006299999999999972,-0.08955122528145683
0.00529999999999986,-0.09276261993215046
0.0042999999999999705,-0.09612963282582924
0.0032999999999998586,-0.09910052655554581
0.0022999999999999687,-0.10164700689530289
0.0012999999999998568,-0.10436325259104375
0.00029999999999996696,-0.10743317611175088
-0.000700000000000145,-0.10921571234958084
-0.0017000000000000348,-0.11138022063837434
-0.0027000000000001467,-0.11343155202317864
-0.0037000000000000366,-0.11522823537400724
-0.0047000000000001485,-0.11777471571376431
-0.005700000000000038,-0.1190621029966415
-0.00670000000000015,-0.12107099304244984
-0.00770000000000004,-0.12223105630833916
-0.008700000000000152,-0.12408432811116238
-0.009700000000000042,-0.12639030752994238
-0.010700000000000154,-0.12718254585786679
-0.011700000000000044,-0.1288943465307035
-0.012700000000000156,-0.12965829063263062
-0.013700000000000045,-0.13144082687046055
-0.014700000000000157,-0.13254430168435527
-0.015700000000000047,-0.13388827741922704
-0.01670000000000016,-0.13552934252707052
-0.01770000000000005,-0.13618010972500844
-0.01870000000000016,-0.13728358453890316
-0.01970000000000005,-0.13847194203078977
-0.020700000000000163,-0.13983006487866023
-0.021700000000000053,-0.14073548011057385
-0.022700000000000164,-0.14189554337646318
-0.023700000000000054,-0.1427443701563822
-0.024700000000000166,-0.1437346680662877
-0.025700000000000056,-0.14486643710617977
-0.026700000000000168,-0.14543232162612577
-0.027700000000000058,-0.14712997518596382
-0.02870000000000017,-0.14769585970590982
-0.02970000000000006,-0.14840321535584233
-0.03070000000000017,-0.1496764555257209
-0.03170000000000006,-0.1501008689156804
-0.03270000000000017,-0.1509496956955994
-0.03370000000000006,-0.15151558021554543
-0.034700000000000175,-0.15307176264539696
-0.035700000000000065,-0.15363764716534298
-0.03670000000000018,-0.15476941620523502
-0.03770000000000007,-0.155052358465208
-0.03870000000000018,-0.15646706976507307
-0.03970000000000007,-0.15717442541500556
-0.04070000000000018,-0.15759883880496509
-0.04170000000000007,-0.1585891367148706
-0.04270000000000018,-0.15901355010483012
-0.04370000000000007,-0.16000384801473563
-0.044700000000000184,-0.16127708818461417
-0.045700000000000074,-0.1615600304445872
-0.046700000000000186,-0.1625503283544927
-0.047700000000000076,-0.1629747417444522
-0.04870000000000019,-0.16382356852437122
-0.04970000000000008,-0.16467239530429026
-0.05070000000000019,-0.16537975095422278
-0.05170000000000008,-0.1659456354741688
-0.05270000000000019,-0.1669359333840743
-0.05370000000000008,-0.16750181790402036
-0.05470000000000019,-0.16820917355395287
-0.05570000000000008,-0.16905800033387192
-0.056700000000000195,-0.17018976937376393
-0.057700000000000085,-0.17075565389370992
-0.058700000000000196,-0.17146300954364244
-0.059700000000000086,-0.172736249713521
-0.0607000000000002,-0.1737265476234265
-0.06170000000000009,-0.17485831666331855
-0.0627000000000002,-0.17528273005327805
-0.06370000000000009,-0.17570714344323757
-0.0647000000000002,-0.1768389124831296
-0.06570000000000009,-0.17811215265300812
-0.0667000000000002,-0.1783950949129811
-0.0677000000000001,-0.17896097943292713
-0.0687000000000002,-0.17995127734283267
-0.0697000000000001,-0.1806586329927652
-0.07070000000000021,-0.18179040203265723
-0.0717000000000001,-0.18249775768258975
-0.07270000000000021,-0.18348805559249526
-0.0737000000000001,-0.1843368823724143
-0.07470000000000021,-0.1849027668923603
-0.0757000000000001,-0.1856101225422928
-0.07670000000000021,-0.18674189158218485
-0.0777000000000001,-0.18674189158218485
-0.07870000000000021,-0.18815660288204988
-0.0797000000000001,-0.18886395853198237
-0.08070000000000022,-0.1899957275718744
-0.0817000000000001,-0.19084455435179343
-0.08270000000000022,-0.19141043887173945
-0.08370000000000011,-0.19254220791163149
-0.08470000000000022,-0.1936739769515235
-0.08570000000000011,-0.19452280373144254
-0.08670000000000022,-0.19551310164134805
-0.08770000000000011,-0.19607898616129407
-0.08870000000000022,-0.1972107552011861
-0.08970000000000011,-0.19862546650105112
-0.09070000000000022,-0.19933282215098366
-0.09170000000000011,-0.20018164893090268
-0.09270000000000023,-0.20131341797079472
-0.09370000000000012,-0.20187930249074074
-0.09470000000000023,-0.20301107153063278
-0.09570000000000012,-0.2040013694405383
-0.09670000000000023,-0.20499166735044383
-0.09770000000000012,-0.20584049413036284
-0.09870000000000023,-0.20683079204026839
-0.09970000000000012,-0.2078210899501739
-0.10070000000000023,-0.20966021463999845
-0.10170000000000012,-0.21008462802995795
-0.10270000000000024,-0.21065051254990397
-0.10370000000000013,-0.212065223849769
-0.10470000000000024,-0.21305552175967452
-0.10570000000000013,-0.21489464644949907
-0.10670000000000024,-0.2153190598394586
-0.10770000000000013,-0.2164508288793506
-0.10870000000000024,-0.21758259791924262
-0.10970000000000013,-0.21828995356917516
-0.11070000000000024,-0.2202705493889862
-0.11170000000000013,-0.22126084729889173
-0.11270000000000002,-0.22210967407881074
-0.11370000000000013,-0.2235243853786758
-0.11470000000000002,-0.2245146832885813
-0.11570000000000014,-0.22621233684841938
-0.11670000000000003,-0.2273441058883114
-0.11770000000000014,-0.22861734605818995
-0.11870000000000003,-0.2293247017081224
-0.11970000000000014,-0.23088088413797397
-0.12070000000000003,-0.231729710917893
-0.12170000000000014,-0.23342736447773108
-0.12270000000000003,-0.23441766238763656
-0.12370000000000014,-0.23554943142752863
-0.12470000000000003,-0.2368226715974071
-0.12570000000000014,-0.2386617962872317
-0.12670000000000003,-0.2397935653271237
-0.12770000000000015,-0.24035944984706975
-0.12870000000000004,-0.24219857453689428
-0.12970000000000015,-0.24333034357678635
-0.13070000000000004,-0.2443206414866918
-0.13170000000000015,-0.2460182950465299
-0.13270000000000004,-0.24785741973635445
-0.13370000000000015,-0.2485647753862869
-0.13470000000000004,-0.25040390007611146
-0.13570000000000015,-0.251960082505963
-0.13670000000000004,-0.2535162649358146
-0.13770000000000016,-0.25507244736566614
-0.13870000000000005,-0.2560627452755716
-0.13970000000000016,-0.2580433410953827
-0.14070000000000005,-0.25959952352523424
-0.14170000000000016,-0.2610142348250993
-0.14270000000000005,-0.2631363017748969
-0.14370000000000016,-0.2646924842047484
-0.14470000000000005,-0.2661071955046134
-0.14570000000000016,-0.26808779132442445
-0.14670000000000005,-0.2697854448842625
-0.14770000000000016,-0.27120015618412757
-0.14870000000000005,-0.2736051653938981
-0.14970000000000017,-0.27530281895373615
-0.15070000000000006,-0.2774248859035337
-0.15170000000000017,-0.27926401059335826
-0.15270000000000006,-0.2811031352831828
-0.15370000000000017,-0.28308373110299384
-0.15470000000000006,-0.28534726918277786
-0.15570000000000017,-0.2874693361325754
-0.15670000000000006,-0.29001581647233254
-0.15770000000000017,-0.2918549411621571
-0.15870000000000006,-0.2946843637618871
-0.15970000000000018,-0.29680643071168467
-0.16070000000000007,-0.2993529110514418
-0.16170000000000018,-0.30232380478115833
-0.16270000000000007,-0.30373851608102337
-0.16370000000000018,-0.3058605830308209
-0.16470000000000007,-0.3096803035404565
-0.16570000000000018,-0.3110950148403216
-0.16670000000000007,-0.3144903219599976
-0.16770000000000018,-0.3170368022997547
-0.16870000000000007,-0.31958328263951175
-0.16970000000000018,-0.32269564749921487
-0.17070000000000007,-0.3249591855789989
-0.17170000000000019,-0.32807155043870195
-0.17270000000000008,-0.3306180307784591
-0.1737000000000002,-0.33316451111821616
-0.17470000000000008,-0.3378330584077708
-0.1757000000000002,-0.34094542326747385
-0.17670000000000008,-0.34462367264712296
-0.1777000000000002,-0.347736037506826
-0.17870000000000008,-0.3508484023665291
-0.1797000000000002,-0.35466812287616467
-0.18070000000000008,-0.3580634299958408
-0.1817000000000002,-0.3617416793754899
-0.18270000000000008,-0.3649955153651795
-0.1837000000000002,-0.3686737647448286
-0.1847000000000001,-0.3724934852544642
-0.1857000000000002,-0.3760302635041267
-0.1867000000000001,-0.3798499840137623
-0.1877000000000002,-0.38366970452339794
-0.1887000000000001,-0.38777236729300657
-0.1897000000000002,-0.39244091458256114
-0.1907000000000001,-0.3965435773521698
-0.1917000000000001,-0.4007877112517649
-0.19269999999999998,-0.4054562585413195
-0.1937000000000001,-0.40970039244091466
-0.19469999999999998,-0.41408599747049624
-0.1957000000000001,-0.41847160250007787
-0.19669999999999999,-0.4237060343095785
-0.1977000000000001,-0.42851605272911963
-0.1987,-0.4327601866287147
-0.1997000000000001,-0.4375702050482558
-0.2007,-0.44238022346779693
-0.2017000000000001,-0.44747318414731113
-0.2027,-0.45242467369683875
-0.2037000000000001,-0.4572346921163799
-0.2047,-0.4630350084458265
-0.2057000000000001,-0.46756208460539456
-0.2067,-0.4727965164148953
-0.2077000000000001,-0.47831389048436895
-0.2087,-0.48397273568382904
-0.2097000000000001,-0.4907633499231812
-0.2107,-0.4962807239926549
-0.2117000000000001,-0.5023639825820745
-0.2127,-0.5078813566515481
-0.2137000000000001,-0.5136816729809948
-0.2147,-0.521321114000266
-0.2157000000000001,-0.5282531993696047
-0.2167,-0.5344779290890109
-0.21770000000000012,-0.5412685433283632
-0.2187,-0.5474932730477692
-0.21970000000000012,-0.5547083006770809
-0.2207,-0.5619233283063926
-0.22170000000000012,-0.5682895291557853
-0.2227,-0.5753630856551104
-0.22370000000000012,-0.5827195844144085
-0.2247,-0.5907834388236393
-0.22570000000000012,-0.598281408712924
-0.2267,-0.6060623208621817
-0.22770000000000012,-0.6139847041414259
-0.22870000000000001,-0.6219070874206701
-0.22970000000000013,-0.6294050573099549
-0.23070000000000002,-0.637327440589199
-0.23170000000000013,-0.6451083527384567
-0.23270000000000002,-0.653313678277674
-0.23370000000000013,-0.6615190038168911
-0.23470000000000002,-0.6700072716160814
-0.23570000000000013,-0.6786370105452582
-0.23670000000000002,-0.6869838072144618
-0.2376999999999999,-0.6958964884036116
-0.23870000000000002,-0.7048091695927613
-0.2396999999999999,-0.713155966261965
-0.24070000000000003,-0.7226345319710608
-0.24169999999999991,-0.7326789822001024
-0.24270000000000003,-0.7421575479091983
-0.24369999999999992,-0.7512117002283345
-0.24470000000000003,-0.7612561504573763
-0.24569999999999992,-0.7707347161664719
-0.24670000000000003,-0.7810621086554868
-0.24769999999999992,-0.7906821454945689
-0.24870000000000003,-0.8015754225035298
-0.24969999999999992,-0.812327228382504
-0.25070000000000003,-0.8229375631314919
-0.2516999999999999,-0.8338308401404527
-0.25270000000000004,-0.845148530539373
-0.2536999999999999,-0.8564662209382933
-0.25470000000000004,-0.8679253824672
-0.2556999999999999,-0.8798089573860663
-0.25670000000000004,-0.8912681189149732
-0.25769999999999993,-0.903010222703853
-0.25870000000000004,-0.9150352687527057
-0.25969999999999993,-0.9276261993215045
-0.26070000000000004,-0.9407830144102494
-0.26169999999999993,-0.9530910027190752
-0.26270000000000004,-0.965964875547847
-0.26369999999999993,-0.978838748376619
-0.26470000000000005,-0.9919955634653637
-0.26569999999999994,-1.006142676464014
-0.26670000000000005,-1.0202897894626646
-0.26769999999999994,-1.0337295468113823
-0.26870000000000005,-1.0481596020700057
-0.26969999999999994,-1.063155541848575
-0.27070000000000005,-1.0777270682371851
-0.27169999999999994,-1.0924400657557813
-0.27270000000000005,-1.1082848323142698
-0.27369999999999994,-1.1238466566127852
-0.27470000000000006,-1.138701125261368
-0.27569999999999995,-1.1553947185997753
-0.27670000000000006,-1.1719468408081963
-0.27769999999999995,-1.1883574918866306
-0.27870000000000006,-1.2047681429650652
-0.27969999999999995,-1.2228764476033378
-0.28070000000000006,-1.2407018099816371
-0.28169999999999995,-1.2586686434899232
-0.28270000000000006,-1.27578665021829
-0.28369999999999995,-1.2943193682465222
-0.28470000000000006,-1.3124276728847946
-0.28569999999999995,-1.3315262754329726
-0.28670000000000007,-1.350766349111137
-0.28769999999999996,-1.3708552495692206
-0.28870000000000007,-1.3903782655073582
-0.28969999999999996,-1.4101842237054685
-0.29070000000000007,-1.431687835463417
-0.29169999999999996,-1.4514937936615278
-0.29270000000000007,-1.4741291744593683
-0.29369999999999996,-1.4953498439573436
-0.2947000000000001,-1.5179852247551844
-0.29569999999999996,-1.540620605553025
-0.2967000000000001,-1.5632559863508655
-0.29769999999999996,-1.587306078448571
-0.2987000000000001,-1.612770881846142
-0.29969999999999997,-1.6368209739438475
-0.3007000000000001,-1.660871066041553
-0.30169999999999997,-1.6863358694391237
-0.3027000000000001,-1.7118006728366943
-0.30369999999999997,-1.7372654762342652
-0.3047000000000001,-1.7641449909317006
-0.30569999999999997,-1.7910245056291363
-0.3067000000000001,-1.8193187316264372
-0.3077,-1.8461982463238729
-0.3087000000000001,-1.8744924723211736
-0.3097,-1.9027866983184742
-0.3107000000000001,-1.9324956356156402
-0.3117,-1.9622045729128061
-0.3127000000000001,-1.993328221509837
-0.3137,-2.023037158807002
-0.3147000000000001,-2.052746096104168
-0.3157,-2.083869744701199
-0.3167000000000001,-2.1149933932982297
-0.3177,-2.1432876192955304
-0.3187000000000001,-2.1758259791924264
-0.3197,-2.206949627789457
-0.3207000000000001,-2.238073276386488
-0.3217,-2.2706116362833835
-0.3227000000000001,-2.3003205735805494
-0.3237,-2.3342736447773107
-0.3247000000000001,-2.3653972933743415
-0.3257,-2.396520941971372
-0.3267000000000001,-2.430474013168133
-0.3277,-2.460182950465299
-0.3287000000000001,-2.49413602166206
-0.3297,-2.5280890928588207
-0.3307000000000001,-2.5634568753554463
-0.3317,-2.5988246578520724
-0.3327000000000001,-2.629948306449103
-0.3337,-2.663901377645864
-0.3347000000000001,-2.697854448842625
-0.3357,-2.7318075200393857
-0.3367000000000001,-2.765760591236147
-0.3377,-2.8025430850326374
-0.3387000000000001,-2.8350814449295334
-0.3397,-2.8718639387260247
-0.3407000000000001,-2.9072317212226504
-0.3417,-2.942599503719276
-0.3427000000000001,-2.976552574916037
-0.3437,-3.0119203574126634
-0.3447000000000001,-3.0487028512091543
-0.3457,-3.0854853450056448
-0.3467000000000001,-3.122267838802136
-0.3477,-3.160465043898492
-0.3487000000000001,-3.195832826395118
-0.3497,-3.232615320191609
-0.3507000000000001,-3.270812525287965
-0.3517,-3.3090097303843207
-0.3527000000000001,-3.347206935480677
-0.3537,-3.386818851876898
-0.3547000000000001,-3.427845479572984
-0.3557,-3.4660426846693397
-0.35670000000000013,-3.502825178465831
-0.3577,-3.542437094862052
-0.35870000000000013,-3.583463722558138
-0.3597,-3.623075638954359
-0.36070000000000013,-3.6655169779503103
-0.3617,-3.707958316946261
-0.3626999999999999,-3.747570233342482
-0.3637,-3.791426283638298
-0.3646999999999999,-3.832452911334385
-0.3657,-3.8777236729300655
-0.3666999999999999,-3.9215797232258818
-0.3677,-3.973924041320888
-0.3686999999999999,-4.023438936816164
-0.36970000000000003,-4.070124409711711
-0.3706999999999999,-4.115395171307392
-0.37170000000000003,-4.159251221603208
-0.3726999999999999,-4.20735140579862
-0.37370000000000003,-4.254036878694166
-0.3746999999999999,-4.304966485489307
-0.37570000000000003,-4.350237247084988
-0.3766999999999999,-4.396922719980535
-0.37770000000000004,-4.445022904175945
-0.3786999999999999,-4.490293665771627
-0.37970000000000004,-4.5369791386671725
-0.3806999999999999,-4.5893234567621795
-0.38170000000000004,-4.63742364095759
-0.38269999999999993,-4.688353247752731
-0.38370000000000004,-4.742112277147603
-0.38469999999999993,-4.790212461343015
-0.38570000000000004,-4.843971490737885
-0.38669999999999993,-4.896315808832893
-0.38770000000000004,-4.951489549527628
-0.38869999999999993,-5.001004445022905
-0.38970000000000005,-5.047689917918451
-0.39069999999999994,-5.102863658613187
-0.39170000000000005,-5.153793265408329
-0.39269999999999994,-5.201893449603739
-0.39370000000000005,-5.254237767698746
-0.39469999999999994,-5.310826219693348
-0.39570000000000005,-5.365999960388084
-0.39669999999999994,-5.425417834982416
-0.39770000000000005,-5.480591575677152
-0.39869999999999994,-5.538594738971618
-0.39970000000000006,-5.593768479666355
-0.40069999999999995,-5.650356931660957
-0.40170000000000006,-5.7111895175551535
-0.40269999999999995,-5.767777969549755
-0.40370000000000006,-5.830025266743816
-0.40469999999999995,-5.892272563937878
-0.40570000000000006,-5.953105149832074
-0.40669999999999995,-6.012523024426406
-0.40770000000000006,-6.080429166819927
-0.40869999999999995,-6.142676464013989
-0.40970000000000006,-6.20209433860832
-0.41069999999999995,-6.264341635802381
-0.41170000000000007,-6.32517422169658
-0.41269999999999996,-6.388836230190505
-0.41370000000000007,-6.451083527384568
-0.41469999999999996,-6.514745535878494
-0.41570000000000007,-6.586895812171611
-0.41669999999999996,-6.659046088464728
-0.41770000000000007,-6.719878674358924
-0.41869999999999996,-6.786370105452581
-0.4197000000000001,-6.845787980046913
-0.42069999999999996,-6.916523545040165
-0.4217000000000001,-6.981600264833956
-0.42269999999999996,-7.045262273327882
-0.4237000000000001,-7.115997838321134
-0.42469999999999997,-7.183903980714656
-0.4257000000000001,-7.257468968307639
-0.42669999999999997,-7.326789822001024
-0.4277000000000001,-7.396110675694412
-0.42869999999999997,-7.466846240687664
-0.4297000000000001,-7.53333767178132
-0.43069999999999997,-7.6012438141748415
-0.4317000000000001,-7.676223513067688
-0.4327,-7.746959078060941
-0.4337000000000001,-7.827597622153248
-0.4347,-7.903992032345959
-0.4357000000000001,-7.978971731238807
-0.4367,-8.055366141431518
-0.4377000000000001,-8.127516417724635
-0.4387,-8.215228518316268
-0.4397000000000001,-8.29162292850898
-0.4407,-8.375090895201017
-0.4417000000000001,-8.46846184099211
-0.4427,-8.554759230283878
-0.4437000000000001,-8.64247133087551
-0.4447,-8.71886574106822
-0.4457000000000001,-8.802333707760258
-0.4467,-8.89004580835189
-0.4477000000000001,-8.967854929844465
-0.4487,-9.049908185236639
-0.4497000000000001,-9.139034997128135
-0.4507,-9.239479499418556
-0.4517000000000001,-9.328606311310052
-0.4527,-9.421977257101144
-0.4537000000000001,-9.521007048091697
-0.4547,-9.610133859983193
-0.4557000000000001,-9.710578362273612
-0.4567,-9.8081934419643
-0.4577000000000001,-9.901564387755393
-0.4587,-10.00200889004581
-0.4597000000000001,-10.101038681036362
-0.4607,-10.19299491552759
-0.4617000000000001,-10.309001242116523
-0.4627,-10.408031033107076
-0.4637000000000001,-10.511304957997222
-0.4647,-10.657020221883322
-0.4657000000000001,-10.764538280673063
-0.4667,-10.78858837277077
-0.4677000000000001,-10.904594699359702
-0.4687,-11.012112758149446
-0.4697000000000001,-11.123874950838783
-0.4707,-11.238466566127851
-0.4717000000000001,-11.341740491018
-0.4727,-11.476138064505177
-0.4737000000000001,-11.602047370193167
-0.4747,-11.719468408081962
-0.4757000000000001,-11.835474734670896
-0.4767,-11.958554617759154
-0.4777000000000001,-12.090122768646603
-0.4787,-12.223105630833915
-0.4797000000000001,-12.351844359121635
-0.4807,-12.49331548910814
-0.48170000000000013,-12.598004125298152
-0.4827,-12.728157564885736
-0.48370000000000013,-12.86396984967278
-0.4847,-12.979976176261713
-0.48570000000000013,-13.097397214150508
-0.4867,-13.216232963339174
-0.4876999999999999,-13.323751022128915
-0.4887,-13.449660327816902
-0.4896999999999999,-13.585472612603946
-0.4907,-13.71562605219153
-0.4916999999999999,-13.883976696875468
-0.4927,-14.03535080596103
-0.4936999999999999,-14.189554337646317
-0.49470000000000003,-14.331025467632822
-0.4956999999999999,-14.472496597619326
-0.49670000000000003,-14.62811484060448
-0.4976999999999999,-14.797880196588284
-0.49870000000000003,-14.840321535584234
-0.4996999999999999,-15.01008689156804
