Aug. 18, 2024   23:11:05
Cyclic Voltammetry
File: c:/users/guazh/data/20240813_batch_94_500/2024-08-15-exp126\exp126-2024-08-18t22_45_29-h2koh\exp126_cv_sr_900mvs_efin_-1800mv.bin
Data Source:  Experiment
Instrument Model:  CHI760E
Header: CV ran at 900 mVs
Note: 

Init E (V) = -1
High E (V) = -1
Low E (V) = -1.8
Final E (V) = -1
Init P/N = N
Scan Rate (V/s) = 0.9
Segment = 3
Sample Interval (V) = 0.001
Quiet Time (sec) = 2
Sensitivity (A/V) = 0.01
Comp R (ohm) = 1.8

Results:

Channel 1:
Segment 1:

Segment 2:

Segment 3:

Potential/V, Current/A

-1.000, 6.322e-6
-1.001, 6.322e-6
-1.002, 6.322e-6
-1.003, 6.322e-6
-1.004, 9.405e-6
-1.005, 6.322e-6
-1.006, 9.405e-6
-1.007, 9.405e-6
-1.008, 6.322e-6
-1.009, 6.322e-6
-1.010, 9.405e-6
-1.011, 9.405e-6
-1.012, 9.405e-6
-1.013, 9.405e-6
-1.014, 9.405e-6
-1.015, 9.405e-6
-1.016, 9.405e-6
-1.017, 9.405e-6
-1.018, 9.405e-6
-1.019, 9.405e-6
-1.020, 9.405e-6
-1.021, 9.405e-6
-1.022, 9.405e-6
-1.023, 9.405e-6
-1.024, 9.405e-6
-1.025, 9.405e-6
-1.026, 9.405e-6
-1.027, 9.405e-6
-1.028, 9.405e-6
-1.029, 9.405e-6
-1.030, 9.405e-6
-1.031, 1.249e-5
-1.032, 1.249e-5
-1.033, 9.405e-6
-1.034, 1.249e-5
-1.035, 9.405e-6
-1.036, 1.249e-5
-1.037, 1.249e-5
-1.038, 1.249e-5
-1.039, 1.249e-5
-1.040, 1.249e-5
-1.041, 1.249e-5
-1.042, 1.249e-5
-1.043, 1.249e-5
-1.044, 1.249e-5
-1.045, 1.249e-5
-1.046, 1.249e-5
-1.047, 1.249e-5
-1.048, 1.249e-5
-1.049, 1.249e-5
-1.050, 1.249e-5
-1.051, 1.249e-5
-1.052, 1.557e-5
-1.053, 1.249e-5
-1.054, 1.249e-5
-1.055, 1.249e-5
-1.056, 1.249e-5
-1.057, 1.249e-5
-1.058, 1.249e-5
-1.059, 1.249e-5
-1.060, 1.249e-5
-1.061, 1.249e-5
-1.062, 1.249e-5
-1.063, 1.249e-5
-1.064, 1.249e-5
-1.065, 1.249e-5
-1.066, 1.557e-5
-1.067, 1.557e-5
-1.068, 1.249e-5
-1.069, 1.249e-5
-1.070, 1.557e-5
-1.071, 1.249e-5
-1.072, 1.557e-5
-1.073, 1.557e-5
-1.074, 1.249e-5
-1.075, 1.557e-5
-1.076, 1.557e-5
-1.077, 1.249e-5
-1.078, 1.557e-5
-1.079, 1.557e-5
-1.080, 1.557e-5
-1.081, 1.557e-5
-1.082, 1.557e-5
-1.083, 1.249e-5
-1.084, 1.557e-5
-1.085, 1.557e-5
-1.086, 1.557e-5
-1.087, 1.557e-5
-1.088, 1.557e-5
-1.089, 1.557e-5
-1.090, 1.557e-5
-1.091, 1.557e-5
-1.092, 1.557e-5
-1.093, 1.557e-5
-1.094, 1.557e-5
-1.095, 1.557e-5
-1.096, 1.557e-5
-1.097, 1.557e-5
-1.098, 1.557e-5
-1.099, 1.557e-5
-1.100, 1.557e-5
-1.101, 1.557e-5
-1.102, 1.557e-5
-1.103, 1.557e-5
-1.104, 1.557e-5
-1.105, 1.557e-5
-1.106, 1.865e-5
-1.107, 1.557e-5
-1.108, 1.557e-5
-1.109, 1.557e-5
-1.110, 1.557e-5
-1.111, 1.557e-5
-1.112, 1.557e-5
-1.113, 1.557e-5
-1.114, 1.557e-5
-1.115, 1.557e-5
-1.116, 1.557e-5
-1.117, 1.865e-5
-1.118, 1.557e-5
-1.119, 1.865e-5
-1.120, 1.557e-5
-1.121, 1.865e-5
-1.122, 1.865e-5
-1.123, 1.557e-5
-1.124, 1.865e-5
-1.125, 1.557e-5
-1.126, 1.557e-5
-1.127, 1.865e-5
-1.128, 1.557e-5
-1.129, 1.865e-5
-1.130, 1.557e-5
-1.131, 1.557e-5
-1.132, 1.557e-5
-1.133, 1.865e-5
-1.134, 1.865e-5
-1.135, 1.865e-5
-1.136, 1.865e-5
-1.137, 1.865e-5
-1.138, 1.865e-5
-1.139, 1.865e-5
-1.140, 1.865e-5
-1.141, 1.865e-5
-1.142, 1.865e-5
-1.143, 1.865e-5
-1.144, 1.865e-5
-1.145, 1.865e-5
-1.146, 1.557e-5
-1.147, 1.865e-5
-1.148, 1.865e-5
-1.149, 1.865e-5
-1.150, 1.865e-5
-1.151, 1.865e-5
-1.152, 1.865e-5
-1.153, 1.865e-5
-1.154, 1.865e-5
-1.155, 1.865e-5
-1.156, 1.865e-5
-1.157, 1.865e-5
-1.158, 1.865e-5
-1.159, 1.865e-5
-1.160, 1.865e-5
-1.161, 1.865e-5
-1.162, 1.865e-5
-1.163, 1.865e-5
-1.164, 1.865e-5
-1.165, 1.865e-5
-1.166, 1.865e-5
-1.167, 1.865e-5
-1.168, 1.865e-5
-1.169, 1.865e-5
-1.170, 1.865e-5
-1.171, 1.865e-5
-1.172, 1.865e-5
-1.173, 1.865e-5
-1.174, 1.865e-5
-1.175, 2.174e-5
-1.176, 1.865e-5
-1.177, 2.174e-5
-1.178, 1.865e-5
-1.179, 1.865e-5
-1.180, 2.174e-5
-1.181, 2.174e-5
-1.182, 2.174e-5
-1.183, 1.865e-5
-1.184, 2.174e-5
-1.185, 1.865e-5
-1.186, 2.174e-5
-1.187, 2.174e-5
-1.188, 1.865e-5
-1.189, 2.174e-5
-1.190, 2.174e-5
-1.191, 2.174e-5
-1.192, 1.865e-5
-1.193, 2.174e-5
-1.194, 2.174e-5
-1.195, 2.174e-5
-1.196, 2.174e-5
-1.197, 1.865e-5
-1.198, 2.174e-5
-1.199, 2.174e-5
-1.200, 2.174e-5
-1.201, 2.174e-5
-1.202, 2.174e-5
-1.203, 2.174e-5
-1.204, 2.174e-5
-1.205, 2.174e-5
-1.206, 2.174e-5
-1.207, 2.174e-5
-1.208, 2.174e-5
-1.209, 2.174e-5
-1.210, 2.174e-5
-1.211, 2.174e-5
-1.212, 2.174e-5
-1.213, 2.174e-5
-1.214, 2.174e-5
-1.215, 2.174e-5
-1.216, 2.174e-5
-1.217, 2.482e-5
-1.218, 2.482e-5
-1.219, 2.482e-5
-1.220, 2.482e-5
-1.221, 2.482e-5
-1.222, 2.174e-5
-1.223, 2.482e-5
-1.224, 2.482e-5
-1.225, 2.174e-5
-1.226, 2.482e-5
-1.227, 2.174e-5
-1.228, 2.482e-5
-1.229, 2.174e-5
-1.230, 2.482e-5
-1.231, 2.482e-5
-1.232, 2.482e-5
-1.233, 2.482e-5
-1.234, 2.482e-5
-1.235, 2.482e-5
-1.236, 2.482e-5
-1.237, 2.482e-5
-1.238, 2.482e-5
-1.239, 2.482e-5
-1.240, 2.482e-5
-1.241, 2.482e-5
-1.242, 2.482e-5
-1.243, 2.482e-5
-1.244, 2.482e-5
-1.245, 2.482e-5
-1.246, 2.790e-5
-1.247, 2.790e-5
-1.248, 2.482e-5
-1.249, 2.790e-5
-1.250, 2.790e-5
-1.251, 2.790e-5
-1.252, 2.790e-5
-1.253, 2.790e-5
-1.254, 2.790e-5
-1.255, 2.790e-5
-1.256, 2.790e-5
-1.257, 2.790e-5
-1.258, 2.790e-5
-1.259, 2.790e-5
-1.260, 2.790e-5
-1.261, 2.790e-5
-1.262, 2.790e-5
-1.263, 2.790e-5
-1.264, 2.790e-5
-1.265, 2.790e-5
-1.266, 2.790e-5
-1.267, 2.790e-5
-1.268, 2.790e-5
-1.269, 2.790e-5
-1.270, 2.790e-5
-1.271, 2.790e-5
-1.272, 2.790e-5
-1.273, 2.790e-5
-1.274, 3.099e-5
-1.275, 3.099e-5
-1.276, 3.099e-5
-1.277, 3.099e-5
-1.278, 2.790e-5
-1.279, 3.099e-5
-1.280, 3.099e-5
-1.281, 3.099e-5
-1.282, 3.099e-5
-1.283, 3.099e-5
-1.284, 3.099e-5
-1.285, 3.099e-5
-1.286, 3.407e-5
-1.287, 3.099e-5
-1.288, 3.099e-5
-1.289, 3.407e-5
-1.290, 3.099e-5
-1.291, 3.099e-5
-1.292, 3.407e-5
-1.293, 3.407e-5
-1.294, 3.407e-5
-1.295, 3.407e-5
-1.296, 3.407e-5
-1.297, 3.407e-5
-1.298, 3.407e-5
-1.299, 3.407e-5
-1.300, 3.407e-5
-1.301, 3.407e-5
-1.302, 3.407e-5
-1.303, 3.407e-5
-1.304, 3.715e-5
-1.305, 3.715e-5
-1.306, 3.715e-5
-1.307, 3.715e-5
-1.308, 3.715e-5
-1.309, 3.715e-5
-1.310, 3.715e-5
-1.311, 3.715e-5
-1.312, 3.715e-5
-1.313, 4.024e-5
-1.314, 3.715e-5
-1.315, 3.715e-5
-1.316, 3.715e-5
-1.317, 3.715e-5
-1.318, 4.024e-5
-1.319, 4.024e-5
-1.320, 4.024e-5
-1.321, 4.024e-5
-1.322, 4.024e-5
-1.323, 4.024e-5
-1.324, 4.024e-5
-1.325, 4.024e-5
-1.326, 4.024e-5
-1.327, 4.332e-5
-1.328, 4.024e-5
-1.329, 4.332e-5
-1.330, 4.332e-5
-1.331, 4.332e-5
-1.332, 4.332e-5
-1.333, 4.332e-5
-1.334, 4.332e-5
-1.335, 4.332e-5
-1.336, 4.332e-5
-1.337, 4.332e-5
-1.338, 4.332e-5
-1.339, 4.640e-5
-1.340, 4.640e-5
-1.341, 4.640e-5
-1.342, 4.640e-5
-1.343, 4.640e-5
-1.344, 4.640e-5
-1.345, 4.640e-5
-1.346, 4.949e-5
-1.347, 4.949e-5
-1.348, 4.949e-5
-1.349, 4.949e-5
-1.350, 4.949e-5
-1.351, 4.949e-5
-1.352, 4.949e-5
-1.353, 5.257e-5
-1.354, 4.949e-5
-1.355, 5.257e-5
-1.356, 5.257e-5
-1.357, 5.257e-5
-1.358, 5.257e-5
-1.359, 5.257e-5
-1.360, 5.257e-5
-1.361, 5.257e-5
-1.362, 5.565e-5
-1.363, 5.565e-5
-1.364, 5.565e-5
-1.365, 5.565e-5
-1.366, 5.565e-5
-1.367, 5.873e-5
-1.368, 5.565e-5
-1.369, 5.873e-5
-1.370, 5.873e-5
-1.371, 5.873e-5
-1.372, 5.873e-5
-1.373, 6.182e-5
-1.374, 6.182e-5
-1.375, 6.182e-5
-1.376, 6.182e-5
-1.377, 6.182e-5
-1.378, 6.490e-5
-1.379, 6.490e-5
-1.380, 6.490e-5
-1.381, 6.490e-5
-1.382, 6.798e-5
-1.383, 6.798e-5
-1.384, 6.798e-5
-1.385, 6.798e-5
-1.386, 6.798e-5
-1.387, 7.107e-5
-1.388, 7.107e-5
-1.389, 7.107e-5
-1.390, 7.415e-5
-1.391, 7.415e-5
-1.392, 7.415e-5
-1.393, 7.415e-5
-1.394, 7.723e-5
-1.395, 7.723e-5
-1.396, 7.723e-5
-1.397, 7.723e-5
-1.398, 8.032e-5
-1.399, 8.032e-5
-1.400, 8.032e-5
-1.401, 8.032e-5
-1.402, 8.340e-5
-1.403, 8.340e-5
-1.404, 8.340e-5
-1.405, 8.648e-5
-1.406, 8.648e-5
-1.407, 8.648e-5
-1.408, 8.957e-5
-1.409, 8.957e-5
-1.410, 8.957e-5
-1.411, 9.265e-5
-1.412, 9.265e-5
-1.413, 9.265e-5
-1.414, 9.573e-5
-1.415, 9.573e-5
-1.416, 9.573e-5
-1.417, 9.882e-5
-1.418, 9.882e-5
-1.419, 1.019e-4
-1.420, 1.019e-4
-1.421, 1.050e-4
-1.422, 1.050e-4
-1.423, 1.050e-4
-1.424, 1.081e-4
-1.425, 1.081e-4
-1.426, 1.111e-4
-1.427, 1.111e-4
-1.428, 1.111e-4
-1.429, 1.142e-4
-1.430, 1.142e-4
-1.431, 1.173e-4
-1.432, 1.173e-4
-1.433, 1.204e-4
-1.434, 1.204e-4
-1.435, 1.235e-4
-1.436, 1.235e-4
-1.437, 1.235e-4
-1.438, 1.266e-4
-1.439, 1.296e-4
-1.440, 1.296e-4
-1.441, 1.327e-4
-1.442, 1.327e-4
-1.443, 1.358e-4
-1.444, 1.358e-4
-1.445, 1.389e-4
-1.446, 1.389e-4
-1.447, 1.420e-4
-1.448, 1.420e-4
-1.449, 1.451e-4
-1.450, 1.481e-4
-1.451, 1.481e-4
-1.452, 1.512e-4
-1.453, 1.512e-4
-1.454, 1.543e-4
-1.455, 1.574e-4
-1.456, 1.574e-4
-1.457, 1.605e-4
-1.458, 1.636e-4
-1.459, 1.636e-4
-1.460, 1.666e-4
-1.461, 1.697e-4
-1.462, 1.728e-4
-1.463, 1.728e-4
-1.464, 1.759e-4
-1.465, 1.759e-4
-1.466, 1.821e-4
-1.467, 1.821e-4
-1.468, 1.851e-4
-1.469, 1.882e-4
-1.470, 1.882e-4
-1.471, 1.913e-4
-1.472, 1.944e-4
-1.473, 1.975e-4
-1.474, 2.006e-4
-1.475, 2.036e-4
-1.476, 2.036e-4
-1.477, 2.098e-4
-1.478, 2.098e-4
-1.479, 2.129e-4
-1.480, 2.160e-4
-1.481, 2.191e-4
-1.482, 2.221e-4
-1.483, 2.252e-4
-1.484, 2.283e-4
-1.485, 2.314e-4
-1.486, 2.345e-4
-1.487, 2.376e-4
-1.488, 2.406e-4
-1.489, 2.437e-4
-1.490, 2.468e-4
-1.491, 2.499e-4
-1.492, 2.530e-4
-1.493, 2.561e-4
-1.494, 2.591e-4
-1.495, 2.622e-4
-1.496, 2.653e-4
-1.497, 2.684e-4
-1.498, 2.715e-4
-1.499, 2.746e-4
-1.500, 2.776e-4
-1.501, 2.838e-4
-1.502, 2.869e-4
-1.503, 2.900e-4
-1.504, 2.931e-4
-1.505, 2.992e-4
-1.506, 3.023e-4
-1.507, 3.054e-4
-1.508, 3.085e-4
-1.509, 3.146e-4
-1.510, 3.177e-4
-1.511, 3.239e-4
-1.512, 3.270e-4
-1.513, 3.300e-4
-1.514, 3.362e-4
-1.515, 3.362e-4
-1.516, 3.424e-4
-1.517, 3.455e-4
-1.518, 3.485e-4
-1.519, 3.516e-4
-1.520, 3.578e-4
-1.521, 3.609e-4
-1.522, 3.670e-4
-1.523, 3.701e-4
-1.524, 3.732e-4
-1.525, 3.763e-4
-1.526, 3.825e-4
-1.527, 3.886e-4
-1.528, 3.917e-4
-1.529, 3.948e-4
-1.530, 4.010e-4
-1.531, 4.040e-4
-1.532, 4.102e-4
-1.533, 4.133e-4
-1.534, 4.164e-4
-1.535, 4.225e-4
-1.536, 4.256e-4
-1.537, 4.318e-4
-1.538, 4.349e-4
-1.539, 4.410e-4
-1.540, 4.441e-4
-1.541, 4.503e-4
-1.542, 4.565e-4
-1.543, 4.595e-4
-1.544, 4.626e-4
-1.545, 4.688e-4
-1.546, 4.719e-4
-1.547, 4.780e-4
-1.548, 4.842e-4
-1.549, 4.873e-4
-1.550, 4.935e-4
-1.551, 4.965e-4
-1.552, 5.027e-4
-1.553, 5.058e-4
-1.554, 5.120e-4
-1.555, 5.181e-4
-1.556, 5.243e-4
-1.557, 5.274e-4
-1.558, 5.335e-4
-1.559, 5.397e-4
-1.560, 5.428e-4
-1.561, 5.489e-4
-1.562, 5.551e-4
-1.563, 5.613e-4
-1.564, 5.644e-4
-1.565, 5.705e-4
-1.566, 5.736e-4
-1.567, 5.798e-4
-1.568, 5.859e-4
-1.569, 5.921e-4
-1.570, 5.983e-4
-1.571, 6.044e-4
-1.572, 6.106e-4
-1.573, 6.137e-4
-1.574, 6.199e-4
-1.575, 6.260e-4
-1.576, 6.322e-4
-1.577, 6.384e-4
-1.578, 6.476e-4
-1.579, 6.507e-4
-1.580, 6.599e-4
-1.581, 6.630e-4
-1.582, 6.692e-4
-1.583, 6.784e-4
-1.584, 6.846e-4
-1.585, 6.908e-4
-1.586, 6.969e-4
-1.587, 7.031e-4
-1.588, 7.093e-4
-1.589, 7.154e-4
-1.590, 7.247e-4
-1.591, 7.309e-4
-1.592, 7.370e-4
-1.593, 7.432e-4
-1.594, 7.494e-4
-1.595, 7.586e-4
-1.596, 7.648e-4
-1.597, 7.709e-4
-1.598, 7.771e-4
-1.599, 7.863e-4
-1.600, 7.925e-4
-1.601, 8.018e-4
-1.602, 8.079e-4
-1.603, 8.141e-4
-1.604, 8.233e-4
-1.605, 8.326e-4
-1.606, 8.388e-4
-1.607, 8.511e-4
-1.608, 8.573e-4
-1.609, 8.665e-4
-1.610, 8.727e-4
-1.611, 8.819e-4
-1.612, 8.881e-4
-1.613, 8.943e-4
-1.614, 9.066e-4
-1.615, 9.128e-4
-1.616, 9.220e-4
-1.617, 9.313e-4
-1.618, 9.405e-4
-1.619, 9.498e-4
-1.620, 9.559e-4
-1.621, 9.652e-4
-1.622, 9.744e-4
-1.623, 9.837e-4
-1.624, 9.929e-4
-1.625, 1.002e-3
-1.626, 1.008e-3
-1.627, 1.021e-3
-1.628, 1.030e-3
-1.629, 1.039e-3
-1.630, 1.048e-3
-1.631, 1.058e-3
-1.632, 1.070e-3
-1.633, 1.079e-3
-1.634, 1.088e-3
-1.635, 1.098e-3
-1.636, 1.110e-3
-1.637, 1.122e-3
-1.638, 1.132e-3
-1.639, 1.144e-3
-1.640, 1.159e-3
-1.641, 1.169e-3
-1.642, 1.178e-3
-1.643, 1.187e-3
-1.644, 1.203e-3
-1.645, 1.212e-3
-1.646, 1.224e-3
-1.647, 1.236e-3
-1.648, 1.249e-3
-1.649, 1.261e-3
-1.650, 1.277e-3
-1.651, 1.289e-3
-1.652, 1.301e-3
-1.653, 1.317e-3
-1.654, 1.326e-3
-1.655, 1.344e-3
-1.656, 1.357e-3
-1.657, 1.369e-3
-1.658, 1.381e-3
-1.659, 1.394e-3
-1.660, 1.409e-3
-1.661, 1.425e-3
-1.662, 1.440e-3
-1.663, 1.452e-3
-1.664, 1.471e-3
-1.665, 1.486e-3
-1.666, 1.502e-3
-1.667, 1.517e-3
-1.668, 1.536e-3
-1.669, 1.545e-3
-1.670, 1.563e-3
-1.671, 1.579e-3
-1.672, 1.591e-3
-1.673, 1.613e-3
-1.674, 1.628e-3
-1.675, 1.643e-3
-1.676, 1.662e-3
-1.677, 1.680e-3
-1.678, 1.702e-3
-1.679, 1.721e-3
-1.680, 1.736e-3
-1.681, 1.758e-3
-1.682, 1.785e-3
-1.683, 1.804e-3
-1.684, 1.825e-3
-1.685, 1.847e-3
-1.686, 1.865e-3
-1.687, 1.890e-3
-1.688, 1.909e-3
-1.689, 1.930e-3
-1.690, 1.955e-3
-1.691, 1.980e-3
-1.692, 2.001e-3
-1.693, 2.026e-3
-1.694, 2.050e-3
-1.695, 2.072e-3
-1.696, 2.097e-3
-1.697, 2.124e-3
-1.698, 2.152e-3
-1.699, 2.171e-3
-1.700, 2.205e-3
-1.701, 2.229e-3
-1.702, 2.257e-3
-1.703, 2.285e-3
-1.704, 2.312e-3
-1.705, 2.343e-3
-1.706, 2.377e-3
-1.707, 2.411e-3
-1.708, 2.439e-3
-1.709, 2.470e-3
-1.710, 2.501e-3
-1.711, 2.534e-3
-1.712, 2.565e-3
-1.713, 2.596e-3
-1.714, 2.627e-3
-1.715, 2.670e-3
-1.716, 2.707e-3
-1.717, 2.741e-3
-1.718, 2.778e-3
-1.719, 2.812e-3
-1.720, 2.849e-3
-1.721, 2.889e-3
-1.722, 2.929e-3
-1.723, 2.969e-3
-1.724, 3.009e-3
-1.725, 3.049e-3
-1.726, 3.093e-3
-1.727, 3.133e-3
-1.728, 3.185e-3
-1.729, 3.228e-3
-1.730, 3.278e-3
-1.731, 3.318e-3
-1.732, 3.367e-3
-1.733, 3.413e-3
-1.734, 3.459e-3
-1.735, 3.509e-3
-1.736, 3.552e-3
-1.737, 3.607e-3
-1.738, 3.657e-3
-1.739, 3.712e-3
-1.740, 3.771e-3
-1.741, 3.826e-3
-1.742, 3.885e-3
-1.743, 3.943e-3
-1.744, 4.002e-3
-1.745, 4.064e-3
-1.746, 4.119e-3
-1.747, 4.178e-3
-1.748, 4.243e-3
-1.749, 4.307e-3
-1.750, 4.375e-3
-1.751, 4.440e-3
-1.752, 4.495e-3
-1.753, 4.557e-3
-1.754, 4.625e-3
-1.755, 4.686e-3
-1.756, 4.754e-3
-1.757, 4.819e-3
-1.758, 4.893e-3
-1.759, 4.964e-3
-1.760, 5.029e-3
-1.761, 5.100e-3
-1.762, 5.177e-3
-1.763, 5.254e-3
-1.764, 5.328e-3
-1.765, 5.399e-3
-1.766, 5.473e-3
-1.767, 5.547e-3
-1.768, 5.624e-3
-1.769, 5.698e-3
-1.770, 5.784e-3
-1.771, 5.858e-3
-1.772, 5.944e-3
-1.773, 6.012e-3
-1.774, 6.092e-3
-1.775, 6.182e-3
-1.776, 6.259e-3
-1.777, 6.345e-3
-1.778, 6.435e-3
-1.779, 6.518e-3
-1.780, 6.601e-3
-1.781, 6.678e-3
-1.782, 6.764e-3
-1.783, 6.854e-3
-1.784, 6.940e-3
-1.785, 7.033e-3
-1.786, 7.128e-3
-1.787, 7.224e-3
-1.788, 7.310e-3
-1.789, 7.403e-3
-1.790, 7.495e-3
-1.791, 7.588e-3
-1.792, 7.683e-3
-1.793, 7.782e-3
-1.794, 7.881e-3
-1.795, 7.970e-3
-1.796, 8.066e-3
-1.797, 8.164e-3
-1.798, 8.263e-3
-1.799, 8.352e-3
-1.800, 8.411e-3
-1.799, 8.402e-3
-1.798, 8.380e-3
-1.797, 8.355e-3
-1.796, 8.328e-3
-1.795, 8.297e-3
-1.794, 8.263e-3
-1.793, 8.229e-3
-1.792, 8.198e-3
-1.791, 8.152e-3
-1.790, 8.109e-3
-1.789, 8.072e-3
-1.788, 8.032e-3
-1.787, 7.982e-3
-1.786, 7.939e-3
-1.785, 7.887e-3
-1.784, 7.850e-3
-1.783, 7.813e-3
-1.782, 7.757e-3
-1.781, 7.711e-3
-1.780, 7.671e-3
-1.779, 7.622e-3
-1.778, 7.566e-3
-1.777, 7.511e-3
-1.776, 7.458e-3
-1.775, 7.403e-3
-1.774, 7.353e-3
-1.773, 7.301e-3
-1.772, 7.245e-3
-1.771, 7.202e-3
-1.770, 7.150e-3
-1.769, 7.101e-3
-1.768, 7.051e-3
-1.767, 6.996e-3
-1.766, 6.946e-3
-1.765, 6.903e-3
-1.764, 6.854e-3
-1.763, 6.805e-3
-1.762, 6.746e-3
-1.761, 6.697e-3
-1.760, 6.647e-3
-1.759, 6.595e-3
-1.758, 6.539e-3
-1.757, 6.490e-3
-1.756, 6.438e-3
-1.755, 6.382e-3
-1.754, 6.330e-3
-1.753, 6.280e-3
-1.752, 6.216e-3
-1.751, 6.166e-3
-1.750, 6.111e-3
-1.749, 6.058e-3
-1.748, 6.006e-3
-1.747, 5.954e-3
-1.746, 5.904e-3
-1.745, 5.846e-3
-1.744, 5.796e-3
-1.743, 5.741e-3
-1.742, 5.688e-3
-1.741, 5.633e-3
-1.740, 5.574e-3
-1.739, 5.525e-3
-1.738, 5.473e-3
-1.737, 5.426e-3
-1.736, 5.371e-3
-1.735, 5.322e-3
-1.734, 5.260e-3
-1.733, 5.214e-3
-1.732, 5.158e-3
-1.731, 5.109e-3
-1.730, 5.047e-3
-1.729, 5.001e-3
-1.728, 4.955e-3
-1.727, 4.902e-3
-1.726, 4.853e-3
-1.725, 4.810e-3
-1.724, 4.760e-3
-1.723, 4.705e-3
-1.722, 4.659e-3
-1.721, 4.616e-3
-1.720, 4.572e-3
-1.719, 4.517e-3
-1.718, 4.474e-3
-1.717, 4.428e-3
-1.716, 4.375e-3
-1.715, 4.332e-3
-1.714, 4.289e-3
-1.713, 4.236e-3
-1.712, 4.190e-3
-1.711, 4.144e-3
-1.710, 4.101e-3
-1.709, 4.048e-3
-1.708, 4.002e-3
-1.707, 3.959e-3
-1.706, 3.906e-3
-1.705, 3.863e-3
-1.704, 3.820e-3
-1.703, 3.774e-3
-1.702, 3.731e-3
-1.701, 3.684e-3
-1.700, 3.641e-3
-1.699, 3.604e-3
-1.698, 3.552e-3
-1.697, 3.512e-3
-1.696, 3.469e-3
-1.695, 3.425e-3
-1.694, 3.379e-3
-1.693, 3.342e-3
-1.692, 3.302e-3
-1.691, 3.262e-3
-1.690, 3.219e-3
-1.689, 3.176e-3
-1.688, 3.139e-3
-1.687, 3.096e-3
-1.686, 3.056e-3
-1.685, 3.015e-3
-1.684, 2.972e-3
-1.683, 2.938e-3
-1.682, 2.895e-3
-1.681, 2.861e-3
-1.680, 2.824e-3
-1.679, 2.787e-3
-1.678, 2.756e-3
-1.677, 2.719e-3
-1.676, 2.682e-3
-1.675, 2.649e-3
-1.674, 2.615e-3
-1.673, 2.578e-3
-1.672, 2.544e-3
-1.671, 2.513e-3
-1.670, 2.473e-3
-1.669, 2.442e-3
-1.668, 2.408e-3
-1.667, 2.377e-3
-1.666, 2.346e-3
-1.665, 2.306e-3
-1.664, 2.282e-3
-1.663, 2.248e-3
-1.662, 2.214e-3
-1.661, 2.186e-3
-1.660, 2.155e-3
-1.659, 2.124e-3
-1.658, 2.097e-3
-1.657, 2.063e-3
-1.656, 2.035e-3
-1.655, 2.010e-3
-1.654, 1.976e-3
-1.653, 1.949e-3
-1.652, 1.921e-3
-1.651, 1.890e-3
-1.650, 1.865e-3
-1.649, 1.838e-3
-1.648, 1.816e-3
-1.647, 1.791e-3
-1.646, 1.758e-3
-1.645, 1.739e-3
-1.644, 1.714e-3
-1.643, 1.684e-3
-1.642, 1.659e-3
-1.641, 1.637e-3
-1.640, 1.610e-3
-1.639, 1.588e-3
-1.638, 1.563e-3
-1.637, 1.539e-3
-1.636, 1.517e-3
-1.635, 1.492e-3
-1.634, 1.468e-3
-1.633, 1.446e-3
-1.632, 1.431e-3
-1.631, 1.409e-3
-1.630, 1.384e-3
-1.629, 1.366e-3
-1.628, 1.344e-3
-1.627, 1.323e-3
-1.626, 1.304e-3
-1.625, 1.286e-3
-1.624, 1.267e-3
-1.623, 1.246e-3
-1.622, 1.230e-3
-1.621, 1.212e-3
-1.620, 1.190e-3
-1.619, 1.175e-3
-1.618, 1.159e-3
-1.617, 1.135e-3
-1.616, 1.122e-3
-1.615, 1.104e-3
-1.614, 1.088e-3
-1.613, 1.070e-3
-1.612, 1.051e-3
-1.611, 1.039e-3
-1.610, 1.018e-3
-1.609, 1.008e-3
-1.608, 9.960e-4
-1.607, 9.806e-4
-1.606, 9.621e-4
-1.605, 9.498e-4
-1.604, 9.343e-4
-1.603, 9.189e-4
-1.602, 9.035e-4
-1.601, 8.912e-4
-1.600, 8.758e-4
-1.599, 8.603e-4
-1.598, 8.449e-4
-1.597, 8.326e-4
-1.596, 8.203e-4
-1.595, 8.110e-4
-1.594, 7.956e-4
-1.593, 7.833e-4
-1.592, 7.709e-4
-1.591, 7.586e-4
-1.590, 7.432e-4
-1.589, 7.339e-4
-1.588, 7.216e-4
-1.587, 7.124e-4
-1.586, 6.969e-4
-1.585, 6.877e-4
-1.584, 6.784e-4
-1.583, 6.661e-4
-1.582, 6.569e-4
-1.581, 6.445e-4
-1.580, 6.384e-4
-1.579, 6.291e-4
-1.578, 6.168e-4
-1.577, 6.075e-4
-1.576, 5.983e-4
-1.575, 5.890e-4
-1.574, 5.798e-4
-1.573, 5.705e-4
-1.572, 5.613e-4
-1.571, 5.520e-4
-1.570, 5.428e-4
-1.569, 5.335e-4
-1.568, 5.243e-4
-1.567, 5.181e-4
-1.566, 5.089e-4
-1.565, 5.027e-4
-1.564, 4.935e-4
-1.563, 4.842e-4
-1.562, 4.780e-4
-1.561, 4.688e-4
-1.560, 4.595e-4
-1.559, 4.565e-4
-1.558, 4.472e-4
-1.557, 4.410e-4
-1.556, 4.318e-4
-1.555, 4.256e-4
-1.554, 4.164e-4
-1.553, 4.102e-4
-1.552, 4.040e-4
-1.551, 3.979e-4
-1.550, 3.917e-4
-1.549, 3.855e-4
-1.548, 3.794e-4
-1.547, 3.732e-4
-1.546, 3.701e-4
-1.545, 3.609e-4
-1.544, 3.547e-4
-1.543, 3.485e-4
-1.542, 3.455e-4
-1.541, 3.393e-4
-1.540, 3.300e-4
-1.539, 3.270e-4
-1.538, 3.208e-4
-1.537, 3.177e-4
-1.536, 3.085e-4
-1.535, 3.054e-4
-1.534, 3.023e-4
-1.533, 2.961e-4
-1.532, 2.900e-4
-1.531, 2.869e-4
-1.530, 2.807e-4
-1.529, 2.746e-4
-1.528, 2.715e-4
-1.527, 2.684e-4
-1.526, 2.622e-4
-1.525, 2.591e-4
-1.524, 2.530e-4
-1.523, 2.499e-4
-1.522, 2.468e-4
-1.521, 2.406e-4
-1.520, 2.376e-4
-1.519, 2.345e-4
-1.518, 2.314e-4
-1.517, 2.221e-4
-1.516, 2.221e-4
-1.515, 2.191e-4
-1.514, 2.129e-4
-1.513, 2.098e-4
-1.512, 2.067e-4
-1.511, 2.036e-4
-1.510, 2.006e-4
-1.509, 1.975e-4
-1.508, 1.913e-4
-1.507, 1.882e-4
-1.506, 1.851e-4
-1.505, 1.821e-4
-1.504, 1.821e-4
-1.503, 1.759e-4
-1.502, 1.728e-4
-1.501, 1.697e-4
-1.500, 1.666e-4
-1.499, 1.636e-4
-1.498, 1.605e-4
-1.497, 1.605e-4
-1.496, 1.543e-4
-1.495, 1.543e-4
-1.494, 1.481e-4
-1.493, 1.451e-4
-1.492, 1.451e-4
-1.491, 1.420e-4
-1.490, 1.389e-4
-1.489, 1.358e-4
-1.488, 1.358e-4
-1.487, 1.327e-4
-1.486, 1.296e-4
-1.485, 1.266e-4
-1.484, 1.235e-4
-1.483, 1.235e-4
-1.482, 1.204e-4
-1.481, 1.173e-4
-1.480, 1.142e-4
-1.479, 1.142e-4
-1.478, 1.142e-4
-1.477, 1.111e-4
-1.476, 1.081e-4
-1.475, 1.050e-4
-1.474, 1.050e-4
-1.473, 1.019e-4
-1.472, 9.882e-5
-1.471, 9.882e-5
-1.470, 9.573e-5
-1.469, 9.265e-5
-1.468, 9.265e-5
-1.467, 8.957e-5
-1.466, 8.648e-5
-1.465, 8.648e-5
-1.464, 8.340e-5
-1.463, 8.340e-5
-1.462, 8.032e-5
-1.461, 8.032e-5
-1.460, 7.723e-5
-1.459, 7.723e-5
-1.458, 7.415e-5
-1.457, 7.107e-5
-1.456, 7.107e-5
-1.455, 7.107e-5
-1.454, 6.798e-5
-1.453, 6.798e-5
-1.452, 6.490e-5
-1.451, 6.490e-5
-1.450, 6.182e-5
-1.449, 6.182e-5
-1.448, 5.873e-5
-1.447, 5.873e-5
-1.446, 5.873e-5
-1.445, 5.565e-5
-1.444, 5.565e-5
-1.443, 5.257e-5
-1.442, 5.257e-5
-1.441, 5.257e-5
-1.440, 5.257e-5
-1.439, 4.949e-5
-1.438, 4.949e-5
-1.437, 4.640e-5
-1.436, 4.640e-5
-1.435, 4.640e-5
-1.434, 4.640e-5
-1.433, 4.332e-5
-1.432, 4.332e-5
-1.431, 4.332e-5
-1.430, 4.024e-5
-1.429, 4.024e-5
-1.428, 4.024e-5
-1.427, 3.715e-5
-1.426, 3.715e-5
-1.425, 3.407e-5
-1.424, 3.407e-5
-1.423, 3.407e-5
-1.422, 3.407e-5
-1.421, 3.407e-5
-1.420, 3.099e-5
-1.419, 3.407e-5
-1.418, 3.099e-5
-1.417, 3.099e-5
-1.416, 2.790e-5
-1.415, 2.790e-5
-1.414, 2.790e-5
-1.413, 2.790e-5
-1.412, 2.790e-5
-1.411, 2.482e-5
-1.410, 2.482e-5
-1.409, 2.482e-5
-1.408, 2.482e-5
-1.407, 2.482e-5
-1.406, 2.174e-5
-1.405, 2.174e-5
-1.404, 2.174e-5
-1.403, 2.174e-5
-1.402, 1.865e-5
-1.401, 1.865e-5
-1.400, 1.865e-5
-1.399, 1.865e-5
-1.398, 1.865e-5
-1.397, 1.557e-5
-1.396, 1.557e-5
-1.395, 1.557e-5
-1.394, 1.557e-5
-1.393, 1.249e-5
-1.392, 1.249e-5
-1.391, 1.557e-5
-1.390, 1.249e-5
-1.389, 1.557e-5
-1.388, 1.249e-5
-1.387, 1.249e-5
-1.386, 1.249e-5
-1.385, 9.405e-6
-1.384, 9.405e-6
-1.383, 1.249e-5
-1.382, 9.405e-6
-1.381, 9.405e-6
-1.380, 9.405e-6
-1.379, 9.405e-6
-1.378, 9.405e-6
-1.377, 9.405e-6
-1.376, 6.322e-6
-1.375, 6.322e-6
-1.374, 6.322e-6
-1.373, 6.322e-6
-1.372, 6.322e-6
-1.371, 6.322e-6
-1.370, 6.322e-6
-1.369, 3.239e-6
-1.368, 6.322e-6
-1.367, 6.322e-6
-1.366, 3.239e-6
-1.365, 3.239e-6
-1.364, 3.239e-6
-1.363, 3.239e-6
-1.362, 3.239e-6
-1.361, 3.239e-6
-1.360, 3.239e-6
-1.359, 3.239e-6
-1.358, 3.239e-6
-1.357, 3.239e-6
-1.356, 3.239e-6
-1.355, 3.239e-6
-1.354, 3.239e-6
-1.353, 1.559e-7
-1.352, 1.559e-7
-1.351, 1.559e-7
-1.350, 1.559e-7
-1.349, 1.559e-7
-1.348, 1.559e-7
-1.347, 1.559e-7
-1.346, 1.559e-7
-1.345, 1.559e-7
-1.344, 1.559e-7
-1.343, 1.559e-7
-1.342, 1.559e-7
-1.341, 1.559e-7
-1.340, -2.927e-6
-1.339, -2.927e-6
-1.338, 1.559e-7
-1.337, -2.927e-6
-1.336, -2.927e-6
-1.335, -2.927e-6
-1.334, -2.927e-6
-1.333, -2.927e-6
-1.332, -2.927e-6
-1.331, -2.927e-6
-1.330, -2.927e-6
-1.329, -2.927e-6
-1.328, -2.927e-6
-1.327, -2.927e-6
-1.326, -2.927e-6
-1.325, -6.010e-6
-1.324, -2.927e-6
-1.323, -2.927e-6
-1.322, -2.927e-6
-1.321, -2.927e-6
-1.320, -2.927e-6
-1.319, -2.927e-6
-1.318, -6.010e-6
-1.317, -2.927e-6
-1.316, -2.927e-6
-1.315, -6.010e-6
-1.314, -6.010e-6
-1.313, -6.010e-6
-1.312, -6.010e-6
-1.311, -6.010e-6
-1.310, -6.010e-6
-1.309, -6.010e-6
-1.308, -6.010e-6
-1.307, -6.010e-6
-1.306, -6.010e-6
-1.305, -6.010e-6
-1.304, -6.010e-6
-1.303, -6.010e-6
-1.302, -6.010e-6
-1.301, -6.010e-6
-1.300, -6.010e-6
-1.299, -6.010e-6
-1.298, -9.093e-6
-1.297, -6.010e-6
-1.296, -6.010e-6
-1.295, -6.010e-6
-1.294, -6.010e-6
-1.293, -6.010e-6
-1.292, -6.010e-6
-1.291, -6.010e-6
-1.290, -6.010e-6
-1.289, -6.010e-6
-1.288, -6.010e-6
-1.287, -6.010e-6
-1.286, -6.010e-6
-1.285, -6.010e-6
-1.284, -6.010e-6
-1.283, -9.093e-6
-1.282, -6.010e-6
-1.281, -9.093e-6
-1.280, -6.010e-6
-1.279, -9.093e-6
-1.278, -6.010e-6
-1.277, -9.093e-6
-1.276, -9.093e-6
-1.275, -9.093e-6
-1.274, -6.010e-6
-1.273, -9.093e-6
-1.272, -9.093e-6
-1.271, -6.010e-6
-1.270, -9.093e-6
-1.269, -6.010e-6
-1.268, -9.093e-6
-1.267, -9.093e-6
-1.266, -6.010e-6
-1.265, -9.093e-6
-1.264, -9.093e-6
-1.263, -9.093e-6
-1.262, -9.093e-6
-1.261, -9.093e-6
-1.260, -6.010e-6
-1.259, -9.093e-6
-1.258, -9.093e-6
-1.257, -9.093e-6
-1.256, -9.093e-6
-1.255, -9.093e-6
-1.254, -9.093e-6
-1.253, -9.093e-6
-1.252, -9.093e-6
-1.251, -9.093e-6
-1.250, -9.093e-6
-1.249, -9.093e-6
-1.248, -9.093e-6
-1.247, -9.093e-6
-1.246, -9.093e-6
-1.245, -9.093e-6
-1.244, -9.093e-6
-1.243, -9.093e-6
-1.242, -9.093e-6
-1.241, -9.093e-6
-1.240, -9.093e-6
-1.239, -9.093e-6
-1.238, -9.093e-6
-1.237, -9.093e-6
-1.236, -9.093e-6
-1.235, -9.093e-6
-1.234, -9.093e-6
-1.233, -9.093e-6
-1.232, -9.093e-6
-1.231, -1.218e-5
-1.230, -9.093e-6
-1.229, -9.093e-6
-1.228, -9.093e-6
-1.227, -9.093e-6
-1.226, -9.093e-6
-1.225, -1.218e-5
-1.224, -9.093e-6
-1.223, -9.093e-6
-1.222, -9.093e-6
-1.221, -9.093e-6
-1.220, -9.093e-6
-1.219, -9.093e-6
-1.218, -9.093e-6
-1.217, -9.093e-6
-1.216, -9.093e-6
-1.215, -1.218e-5
-1.214, -9.093e-6
-1.213, -1.218e-5
-1.212, -9.093e-6
-1.211, -1.218e-5
-1.210, -1.218e-5
-1.209, -9.093e-6
-1.208, -1.218e-5
-1.207, -9.093e-6
-1.206, -9.093e-6
-1.205, -9.093e-6
-1.204, -1.218e-5
-1.203, -1.218e-5
-1.202, -1.218e-5
-1.201, -1.218e-5
-1.200, -9.093e-6
-1.199, -9.093e-6
-1.198, -1.218e-5
-1.197, -1.218e-5
-1.196, -1.218e-5
-1.195, -1.218e-5
-1.194, -1.218e-5
-1.193, -1.218e-5
-1.192, -1.218e-5
-1.191, -1.218e-5
-1.190, -1.218e-5
-1.189, -1.218e-5
-1.188, -1.218e-5
-1.187, -1.218e-5
-1.186, -9.093e-6
-1.185, -1.218e-5
-1.184, -1.218e-5
-1.183, -9.093e-6
-1.182, -1.218e-5
-1.181, -1.218e-5
-1.180, -1.218e-5
-1.179, -9.093e-6
-1.178, -1.218e-5
-1.177, -1.218e-5
-1.176, -1.218e-5
-1.175, -9.093e-6
-1.174, -1.218e-5
-1.173, -1.218e-5
-1.172, -1.218e-5
-1.171, -1.218e-5
-1.170, -1.218e-5
-1.169, -1.218e-5
-1.168, -1.218e-5
-1.167, -1.218e-5
-1.166, -1.218e-5
-1.165, -1.218e-5
-1.164, -1.218e-5
-1.163, -1.218e-5
-1.162, -1.218e-5
-1.161, -1.218e-5
-1.160, -1.218e-5
-1.159, -1.218e-5
-1.158, -1.218e-5
-1.157, -1.218e-5
-1.156, -1.218e-5
-1.155, -1.218e-5
-1.154, -1.218e-5
-1.153, -1.218e-5
-1.152, -1.218e-5
-1.151, -1.218e-5
-1.150, -1.218e-5
-1.149, -1.218e-5
-1.148, -1.218e-5
-1.147, -1.218e-5
-1.146, -1.218e-5
-1.145, -1.218e-5
-1.144, -1.218e-5
-1.143, -1.218e-5
-1.142, -1.218e-5
-1.141, -1.218e-5
-1.140, -1.218e-5
-1.139, -1.218e-5
-1.138, -1.218e-5
-1.137, -1.218e-5
-1.136, -1.218e-5
-1.135, -1.218e-5
-1.134, -1.218e-5
-1.133, -1.218e-5
-1.132, -1.218e-5
-1.131, -1.218e-5
-1.130, -1.218e-5
-1.129, -1.218e-5
-1.128, -1.218e-5
-1.127, -1.218e-5
-1.126, -1.218e-5
-1.125, -1.218e-5
-1.124, -1.218e-5
-1.123, -1.218e-5
-1.122, -1.218e-5
-1.121, -1.218e-5
-1.120, -1.526e-5
-1.119, -1.526e-5
-1.118, -1.526e-5
-1.117, -1.218e-5
-1.116, -1.526e-5
-1.115, -1.218e-5
-1.114, -1.218e-5
-1.113, -1.218e-5
-1.112, -1.218e-5
-1.111, -1.526e-5
-1.110, -1.218e-5
-1.109, -1.218e-5
-1.108, -1.218e-5
-1.107, -1.218e-5
-1.106, -1.218e-5
-1.105, -1.218e-5
-1.104, -1.526e-5
-1.103, -1.218e-5
-1.102, -1.526e-5
-1.101, -1.526e-5
-1.100, -1.526e-5
-1.099, -1.526e-5
-1.098, -1.218e-5
-1.097, -1.526e-5
-1.096, -1.218e-5
-1.095, -1.526e-5
-1.094, -1.218e-5
-1.093, -1.526e-5
-1.092, -1.526e-5
-1.091, -1.218e-5
-1.090, -1.526e-5
-1.089, -1.218e-5
-1.088, -1.526e-5
-1.087, -1.218e-5
-1.086, -1.526e-5
-1.085, -1.526e-5
-1.084, -1.526e-5
-1.083, -1.526e-5
-1.082, -1.526e-5
-1.081, -1.526e-5
-1.080, -1.218e-5
-1.079, -1.526e-5
-1.078, -1.526e-5
-1.077, -1.526e-5
-1.076, -1.526e-5
-1.075, -1.526e-5
-1.074, -1.526e-5
-1.073, -1.526e-5
-1.072, -1.526e-5
-1.071, -1.526e-5
-1.070, -1.526e-5
-1.069, -1.526e-5
-1.068, -1.526e-5
-1.067, -1.526e-5
-1.066, -1.526e-5
-1.065, -1.526e-5
-1.064, -1.526e-5
-1.063, -1.526e-5
-1.062, -1.526e-5
-1.061, -1.526e-5
-1.060, -1.526e-5
-1.059, -1.526e-5
-1.058, -1.526e-5
-1.057, -1.526e-5
-1.056, -1.526e-5
-1.055, -1.526e-5
-1.054, -1.526e-5
-1.053, -1.526e-5
-1.052, -1.526e-5
-1.051, -1.526e-5
-1.050, -1.526e-5
-1.049, -1.526e-5
-1.048, -1.526e-5
-1.047, -1.526e-5
-1.046, -1.526e-5
-1.045, -1.526e-5
-1.044, -1.526e-5
-1.043, -1.526e-5
-1.042, -1.526e-5
-1.041, -1.526e-5
-1.040, -1.526e-5
-1.039, -1.526e-5
-1.038, -1.526e-5
-1.037, -1.526e-5
-1.036, -1.526e-5
-1.035, -1.526e-5
-1.034, -1.526e-5
-1.033, -1.526e-5
-1.032, -1.526e-5
-1.031, -1.526e-5
-1.030, -1.834e-5
-1.029, -1.526e-5
-1.028, -1.526e-5
-1.027, -1.526e-5
-1.026, -1.526e-5
-1.025, -1.834e-5
-1.024, -1.834e-5
-1.023, -1.526e-5
-1.022, -1.526e-5
-1.021, -1.834e-5
-1.020, -1.526e-5
-1.019, -1.526e-5
-1.018, -1.834e-5
-1.017, -1.526e-5
-1.016, -1.526e-5
-1.015, -1.526e-5
-1.014, -1.526e-5
-1.013, -1.526e-5
-1.012, -1.834e-5
-1.011, -1.526e-5
-1.010, -1.526e-5
-1.009, -1.526e-5
-1.008, -1.526e-5
-1.007, -1.526e-5
-1.006, -1.834e-5
-1.005, -1.834e-5
-1.004, -1.526e-5
-1.003, -1.834e-5
-1.002, -1.834e-5
-1.001, -1.526e-5
