Potential V vs RHE, Current mA cm-2
0.013299999999999867,18.461982463238726
0.012299999999999978,16.806770242396635
0.011299999999999866,15.37791182953295
0.010299999999999976,14.007056579963729
0.009299999999999864,12.764940058682226
0.008299999999999974,11.648732843088712
0.007299999999999862,10.604675903788314
0.006299999999999972,9.570521943586973
0.00529999999999986,8.591541724080368
0.0042999999999999705,7.667735245268498
0.0032999999999998586,6.777881837653391
0.0022999999999999687,5.961593417631265
0.0012999999999998568,5.150963842808599
0.00029999999999996696,4.351651958384853
-0.000700000000000145,3.580634299958408
-0.0017000000000000348,2.8690345161262942
-0.0027000000000001467,2.192802514790807
-0.0037000000000000366,1.506667534356264
-0.0047000000000001485,0.8206740250517078
-0.005700000000000038,0.17542420118326454
-0.00670000000000015,-0.43742873391826936
-0.00770000000000004,-1.0048694362941357
-0.008700000000000152,-1.5957943462477613
-0.009700000000000042,-2.1871436695913467
-0.010700000000000154,-2.7629311686364164
-0.011700000000000044,-3.28071550438702
-0.012700000000000156,-3.7574732124415373
-0.013700000000000045,-4.269598702992681
-0.014700000000000157,-4.793041883942744
-0.015700000000000047,-5.282531993696048
-0.01670000000000016,-5.735239609652858
-0.01770000000000005,-6.15965299961237
-0.01870000000000016,-6.588310523471475
-0.01970000000000005,-7.039603428128422
-0.020700000000000163,-7.4753345084868545
-0.021700000000000053,-7.867209538549469
-0.022700000000000164,-8.24918158951303
-0.023700000000000054,-8.63964190827578
-0.024700000000000166,-9.048493473936775
-0.025700000000000056,-9.44602734919885
-0.026700000000000168,-9.789802195066054
-0.027700000000000058,-10.125088773134069
-0.02870000000000017,-10.474522464200732
-0.02970000000000006,-10.832444423066585
-0.03070000000000017,-11.211587051430415
-0.03170000000000006,-11.534141227799646
-0.03270000000000017,-11.856695404168873
-0.03370000000000006,-12.186323137037425
-0.034700000000000175,-12.513121447306249
-0.035700000000000065,-12.852652159273859
-0.03670000000000018,-13.139838553146461
-0.03770000000000007,-13.404389566221221
-0.03870000000000018,-13.711381918291936
-0.03970000000000007,-14.05798618675887
-0.04070000000000018,-14.373466806628771
-0.04170000000000007,-14.65640906660178
-0.04270000000000018,-14.925204213576137
-0.04370000000000007,-15.222293586547794
-0.044700000000000184,-15.575971411514052
-0.045700000000000074,-15.88720789748436
-0.046700000000000186,-16.170150157457368
-0.047700000000000076,-16.396503965435777
-0.04870000000000019,-16.665299112410132
-0.04970000000000008,-17.00482982437774
-0.05070000000000019,-17.34436053634535
-0.05170000000000008,-17.584861457322408
-0.05270000000000019,-17.782921039303513
-0.05370000000000008,-18.02342196028057
-0.05470000000000019,-18.292217107254928
-0.05570000000000008,-18.603453593225233
-0.056700000000000195,-18.88639585319824
-0.057700000000000085,-19.126896774175293
-0.058700000000000196,-19.367397695152352
-0.059700000000000086,-19.69278129412131
-0.0607000000000002,-19.93328221509837
-0.06170000000000009,-20.17378313607542
-0.0627000000000002,-20.456725396048434
-0.06370000000000009,-20.711373430024135
-0.0647000000000002,-21.008462802995794
-0.06570000000000009,-21.291405062968803
-0.0667000000000002,-21.531905983945855
-0.0677000000000001,-21.701671339929664
-0.0687000000000002,-22.012907825899973
-0.0697000000000001,-22.267555859875678
-0.07070000000000021,-22.564645232847337
-0.0717000000000001,-22.776851927827092
-0.07270000000000021,-23.031499961802798
-0.0737000000000001,-23.385177786769056
-0.07470000000000021,-23.62567870774611
-0.0757000000000001,-23.908620967719123
-0.07670000000000021,-24.17741611469348
-0.0777000000000001,-24.40376992267188
-0.07870000000000021,-24.559388165657033
-0.0797000000000001,-24.799889086634096
-0.08070000000000022,-25.0828313466071
-0.0817000000000001,-25.42236205857471
-0.08270000000000022,-25.832628335535567
-0.08370000000000011,-26.087276369511276
-0.08470000000000022,-26.370218629484285
-0.08570000000000011,-26.61071955046134
-0.08670000000000022,-26.851220471438396
-0.08770000000000011,-27.06342716641815
-0.08870000000000022,-27.289780974396557
-0.08970000000000011,-27.572723234369565
-0.09070000000000022,-27.841518381343924
-0.09170000000000011,-28.09616641531963
-0.09270000000000023,-28.32252022329803
-0.09370000000000012,-28.56302114427509
-0.09470000000000023,-28.86011051724675
-0.09570000000000012,-29.114758551222454
-0.09670000000000023,-29.34111235920086
-0.09770000000000012,-29.55331905418062
-0.09870000000000023,-29.779672862159025
-0.09970000000000012,-30.07676223513068
-0.10070000000000023,-30.387998721100992
-0.10170000000000012,-30.670940981073993
-0.10270000000000024,-30.88314767605375
-0.10370000000000013,-31.137795710029454
-0.10470000000000024,-31.46317930899841
-0.10570000000000013,-31.731974455972775
-0.10670000000000024,-31.930034037953877
-0.10770000000000013,-32.19882918492823
-0.10870000000000024,-32.4676243319026
-0.10970000000000013,-32.7505665918756
-0.11070000000000024,-33.00521462585131
-0.11170000000000013,-33.245715546828364
-0.11270000000000002,-33.48621646780542
-0.11370000000000013,-33.740864501781125
-0.11470000000000002,-34.02380676175414
-0.11570000000000014,-34.292601908728486
-0.11670000000000003,-34.56139705570285
-0.11770000000000014,-34.81604508967855
-0.11870000000000003,-35.11313446265021
-0.11970000000000014,-35.41022383562187
-0.12070000000000003,-35.664871869597576
-0.12170000000000014,-35.90537279057463
-0.12270000000000003,-36.14587371155169
-0.12370000000000014,-36.38637463252874
-0.12470000000000003,-36.655169779503105
-0.12570000000000014,-36.95225915247476
-0.12670000000000003,-37.235201412447765
-0.12770000000000015,-37.47570233342482
-0.12870000000000004,-37.73035036740053
-0.12970000000000015,-38.05573396636949
-0.13070000000000004,-38.38111756533845
-0.13170000000000015,-38.6499127123128
-0.13270000000000004,-38.84797229429391
-0.13370000000000015,-39.08847321527096
-0.13470000000000004,-39.35726836224533
-0.13570000000000015,-39.66850484821563
-0.13670000000000004,-39.99388844718459
-0.13770000000000016,-40.234389368161644
-0.13870000000000005,-40.51733162813464
-0.13970000000000016,-40.84271522710361
-0.14070000000000005,-41.139804600075266
-0.14170000000000016,-41.47933531204288
-0.14270000000000005,-41.73398334601858
-0.14370000000000016,-42.04521983198889
-0.14470000000000005,-42.31401497896325
-0.14570000000000016,-42.625251464933555
-0.14670000000000005,-42.92234083790521
-0.14770000000000016,-43.19113598487957
-0.14870000000000005,-43.51651958384853
-0.14970000000000017,-43.84190318281749
-0.15070000000000006,-44.181433894785094
-0.15170000000000017,-44.45022904175945
-0.15270000000000006,-44.690729962736505
-0.15370000000000017,-44.97367222270952
-0.15470000000000006,-45.39808561266902
-0.15570000000000017,-45.75176343763528
-0.15670000000000006,-46.034705697608295
-0.15770000000000017,-46.289353731584
-0.15870000000000006,-46.61473733055296
-0.15970000000000018,-46.96841515551922
-0.16070000000000007,-47.29379875448818
-0.16170000000000018,-47.619182353457134
-0.16270000000000007,-47.902124613430146
-0.16370000000000018,-48.1709197604045
-0.16470000000000007,-48.49630335937346
-0.16570000000000018,-48.86412829733837
-0.16670000000000007,-49.21780612230463
-0.16770000000000018,-49.543189721273585
-0.16870000000000007,-49.925161772237146
-0.16970000000000018,-50.26469248420475
-0.17070000000000007,-50.59007608317371
-0.17170000000000019,-50.90131256914402
-0.17270000000000008,-51.22669616811298
-0.1737000000000002,-51.65110955807249
-0.17470000000000008,-52.1886998520212
-0.1757000000000002,-52.471642111994214
-0.17670000000000008,-52.82531993696047
-0.1777000000000002,-53.17899776192673
-0.17870000000000008,-53.57511692588894
-0.1797000000000002,-53.85805918586195
-0.18070000000000008,-54.24003123682551
-0.1817000000000002,-54.60785617479041
-0.18270000000000008,-54.989828225753975
-0.1837000000000002,-55.34350605072023
-0.1847000000000001,-55.7537723276811
-0.1857000000000002,-56.1781857176406
-0.1867000000000001,-56.57430488160282
-0.1877000000000002,-56.927982706569075
-0.1887000000000001,-57.23921919253939
-0.1897000000000002,-57.6353383565016
-0.1907000000000001,-58.10219308545706
-0.1917000000000001,-58.44172379742467
-0.19269999999999998,-58.79540162239092
-0.1937000000000001,-59.06419676936528
-0.19469999999999998,-59.46031593332749
-0.1957000000000001,-59.913023549284304
-0.19669999999999999,-60.224260035254616
-0.1977000000000001,-60.60623208621817
-0.1987,-60.988204137181725
-0.1997000000000001,-61.37017618814529
-0.2007,-61.80873669110345
-0.2017000000000001,-62.24729719406162
-0.2027,-62.65756347102247
-0.2037000000000001,-62.98294706999144
-0.2047,-63.39321334695229
-0.2057000000000001,-63.64786138092801
-0.2067,-64.02983343189156
-0.2077000000000001,-64.45424682185109
-0.2087,-64.77963042082003
-0.2097000000000001,-65.14745535878494
-0.2107,-65.5860158617431
-0.2117000000000001,-65.99628213870396
-0.2127,-66.47728398065809
-0.2137000000000001,-66.85925603162164
-0.2147,-67.28366942158114
-0.2157000000000001,-67.73637703753796
-0.2167,-68.13249620150016
-0.21770000000000012,-68.48617402646643
-0.2187,-68.83985185143268
-0.21970000000000012,-69.22182390239624
-0.2207,-69.6320901793571
-0.22170000000000012,-70.01406223032066
-0.2227,-70.36774005528693
-0.22370000000000012,-70.74971210625048
-0.2247,-71.24486106120324
-0.22570000000000012,-71.75415712915466
-0.2267,-72.07954072812362
-0.22770000000000012,-72.36248298809663
-0.22870000000000001,-72.67371947406694
-0.22970000000000013,-73.06983863802915
-0.23070000000000002,-73.50839914098731
-0.23170000000000013,-73.90451830494952
-0.23270000000000002,-74.28649035591307
-0.23370000000000013,-74.7391979718699
-0.23470000000000002,-75.19190558782671
-0.23570000000000013,-75.54558341279296
-0.23670000000000002,-75.88511412476056
-0.2376999999999999,-76.29538040172143
-0.23870000000000002,-76.60661688769173
-0.2396999999999999,-76.960294712658
-0.24070000000000003,-77.34226676362155
-0.24169999999999991,-77.51203211960537
-0.24270000000000003,-77.61106191059591
-0.24369999999999992,-77.92229839656622
-0.24470000000000003,-78.21938776953787
-0.24569999999999992,-78.84186074147848
-0.24670000000000003,-79.39359814842585
-0.24769999999999992,-79.70483463439616
-0.24870000000000003,-79.97362978137053
-0.24969999999999992,-80.29901338033947
-0.25070000000000003,-80.66683831830439
-0.2516999999999999,-81.03466325626928
-0.25270000000000004,-81.38834108123557
-0.2536999999999999,-81.69957756720586
-0.25470000000000004,-82.01081405317618
-0.2556999999999999,-82.27960920015053
-0.25670000000000004,-82.61913991211814
-0.25769999999999993,-82.95867062408576
-0.25870000000000004,-83.34064267504931
-0.25969999999999993,-83.70846761301424
-0.26070000000000004,-84.04799832498183
-0.26169999999999993,-84.34508769795349
-0.26270000000000004,-84.6846184099211
-0.26369999999999993,-84.99585489589141
-0.26470000000000005,-85.27879715586442
-0.26569999999999994,-85.54759230283878
-0.26670000000000005,-85.85882878880908
-0.26769999999999994,-86.07103548378883
-0.26870000000000005,-86.26909506576993
-0.26969999999999994,-86.52374309974564
-0.27070000000000005,-86.86327381171324
-0.27169999999999994,-87.0471862806957
-0.27270000000000005,-87.28768720167277
-0.27369999999999994,-87.64136502663902
-0.27470000000000006,-87.89601306061473
-0.27569999999999995,-88.29213222457693
-0.27670000000000006,-88.5043389195567
-0.27769999999999995,-88.65995716254186
-0.27870000000000006,-88.82972251852566
-0.27969999999999995,-89.14095900449597
-0.28070000000000006,-89.33901858647707
-0.28169999999999995,-89.67854929844468
-0.28270000000000006,-89.94734444541903
-0.28369999999999995,-90.11710980140283
-0.28470000000000006,-90.3576107223799
-0.28569999999999995,-90.40005206137585
-0.28670000000000007,-90.6688472083502
-0.28769999999999996,-90.79617122533804
-0.28870000000000007,-90.8669067903313
-0.28969999999999996,-91.03667214631511
-0.29070000000000007,-91.41864419727867
-0.29169999999999996,-91.89964603923279
-0.29270000000000007,-92.02697005622063
-0.29369999999999996,-92.23917675120039
-0.2947000000000001,-92.32405942919229
-0.29569999999999996,-92.47967767217744
-0.2967000000000001,-92.7201785931545
-0.29769999999999996,-92.96067951413156
-0.2987000000000001,-93.11629775711671
-0.29969999999999997,-93.20118043510863
-0.3007000000000001,-93.37094579109242
-0.30169999999999997,-93.61144671206948
-0.3027000000000001,-93.78121206805329
-0.30369999999999997,-94.00756587603168
-0.3047000000000001,-94.20562545801279
-0.30569999999999997,-94.41783215299256
-0.3067000000000001,-94.67248018696824
-0.3077,-94.89883399494667
-0.3087000000000001,-95.05445223793181
-0.3097,-95.19592336791831
-0.3107000000000001,-95.36568872390212
-0.3117,-95.42227717589672
-0.3127000000000001,-95.64863098387512
-0.3137,-95.81839633985894
-0.3147000000000001,-95.95986746984543
-0.3157,-96.12963282582925
-0.3167000000000001,-96.2569568428171
-0.3177,-96.3701337468063
-0.3187000000000001,-96.65307600677932
-0.3197,-96.93601826675231
-0.3207000000000001,-97.11993073573475
-0.3217,-97.36043165671182
-0.3227000000000001,-97.55849123869294
-0.3237,-97.72825659467674
-0.3247000000000001,-98.05364019364569
-0.3257,-98.3082882276214
-0.3267000000000001,-98.52049492260115
-0.3277,-98.74684873057957
-0.3287000000000001,-98.90246697356471
-0.3297,-99.25614479853097
-0.3307000000000001,-99.6805581884905
-0.3317,-99.90691199646888
-0.3327000000000001,-100.21814848243919
-0.3337,-100.54353208140815
-0.3347000000000001,-100.81232722838251
-0.3357,-101.05282814935958
-0.3367000000000001,-101.32162329633393
-0.3377,-101.54797710431234
-0.3387000000000001,-101.80262513828804
-0.3397,-102.17045007625295
-0.3407000000000001,-102.4958336752219
-0.3417,-102.89195283918411
-0.3427000000000001,-103.25977777714903
-0.3437,-103.5285729241234
-0.3447000000000001,-103.98128054008019
-0.3457,-104.39154681704106
-0.3467000000000001,-104.74522464200732
-0.3477,-105.12719669297088
-0.3487000000000001,-105.52331585693308
-0.3497,-105.891140794898
-0.3507000000000001,-106.30140707185885
-0.3517,-106.68337912282242
-0.3527000000000001,-107.10779251278193
-0.3537,-107.53220590274144
-0.3547000000000001,-107.98491351869825
-0.3557,-108.64982782963483
-0.35670000000000013,-109.06009410659567
-0.3577,-109.55524306154844
-0.35870000000000013,-110.02209779050389
-0.3597,-110.51724674545667
-0.36070000000000013,-111.0265428134081
-0.3617,-111.57828022035544
-0.3626999999999999,-112.08757628830685
-0.3637,-112.62516658225556
-0.3646999999999999,-113.23349244119754
-0.3657,-113.88425963913545
-0.3666999999999999,-114.52087972407472
-0.3677,-115.12920558301667
-0.3686999999999999,-115.87900257194515
-0.36970000000000003,-116.45903420488982
-0.3706999999999999,-117.02491872483584
-0.37170000000000003,-117.76056860076565
-0.3726999999999999,-118.3688944597076
-0.37370000000000003,-118.94892609265229
-0.3746999999999999,-119.67042885558345
-0.37570000000000003,-120.39193161851462
-0.3766999999999999,-121.14172860744308
-0.37770000000000004,-121.66517178839315
-0.3786999999999999,-122.2452034213378
-0.37970000000000004,-123.1647657662501
-0.3806999999999999,-124.16921078915428
-0.38170000000000004,-124.87656643908679
-0.38269999999999993,-125.59806920201797
-0.38370000000000004,-126.39030752994238
-0.38469999999999993,-127.32401698785328
-0.38570000000000004,-128.05966686378312
-0.38669999999999993,-127.2108400838641
-0.38570000000000004,-124.63606551810975
-0.38469999999999993,-122.47155722931623
-0.38370000000000004,-120.56169697449842
-0.38269999999999993,-118.52451270269277
-0.38170000000000004,-116.77027069086012
-0.3806999999999999,-115.00188156602884
-0.37970000000000004,-113.29008089319213
-0.3786999999999999,-111.6207215593514
-0.37770000000000004,-110.00795067750525
-0.3766999999999999,-108.33859134366452
-0.37570000000000003,-106.75411468781566
-0.3746999999999999,-105.31110916195333
-0.37370000000000003,-103.81151518409638
-0.3726999999999999,-102.28362698024215
-0.37170000000000003,-100.88306279337576
-0.3706999999999999,-99.45420438051207
-0.36970000000000003,-97.91216906365919
-0.3686999999999999,-96.4550164247982
-0.3677,-95.12518780292505
-0.3666999999999999,-93.63974093806678
-0.3657,-92.29576520319499
-0.3646999999999999,-90.99423080731917
-0.3637,-89.70684352444198
-0.3626999999999999,-88.47604469355939
-0.3617,-87.08962761969167
-0.36070000000000013,-85.66076920682796
-0.3597,-84.23191079396429
-0.35870000000000013,-82.90208217209116
-0.3577,-81.54395932422072
-0.35670000000000013,-80.28486626734085
-0.3557,-78.8701549674758
-0.3547000000000001,-77.52617923260401
-0.3537,-76.30952751472009
-0.3527000000000001,-75.06458157083884
-0.3517,-73.83378273995626
-0.3507000000000001,-72.53224834408043
-0.3497,-71.2024197222073
-0.3487000000000001,-69.87259110033416
-0.3477,-68.58520381745697
-0.3467000000000001,-67.2978165345798
-0.3457,-66.01042925170262
-0.3447000000000001,-64.76548330782138
-0.3437,-63.5346844769388
-0.3427000000000001,-62.28973853305756
-0.3417,-61.18626371916283
-0.3407000000000001,-59.9696120012789
-0.3397,-58.72466605739767
-0.3387000000000001,-57.50801433951374
-0.3377,-56.333803960625765
-0.3367000000000001,-55.18788780773508
-0.3357,-54.02782454184575
-0.3347000000000001,-52.853614162957776
-0.3337,-51.65110955807249
-0.3327000000000001,-50.547634744177756
-0.3317,-49.48660126927898
-0.3307000000000001,-48.35483222938696
-0.3297,-47.23721030249357
-0.3287000000000001,-46.176176827594794
-0.3277,-45.11514335269602
-0.3267000000000001,-44.025815651799945
-0.3257,-42.96478217690117
-0.3247000000000001,-41.96033715399699
-0.3237,-40.97003924409146
-0.3227000000000001,-40.02218267318189
-0.3217,-39.01773765027771
-0.3207000000000001,-37.95670417537893
-0.3197,-36.98055337847206
-0.3187000000000001,-36.04684392056114
-0.3177,-35.12728157564886
-0.3167000000000001,-34.16527789174064
-0.3157,-33.160832868836465
-0.3147000000000001,-32.24127052392419
-0.3137,-31.350002405009217
-0.3127000000000001,-30.47288139909289
-0.3117,-29.66649595816982
-0.3107000000000001,-28.80352206525215
-0.3097,-27.912253946337174
-0.3087000000000001,-27.06342716641815
-0.3077,-26.21460038649913
-0.3067000000000001,-25.351626493581456
-0.30569999999999997,-24.488652600663784
-0.3047000000000001,-23.639825820744765
-0.30369999999999997,-22.833440379821692
-0.3027000000000001,-22.04120205189727
-0.30169999999999997,-21.2631108369715
-0.3007000000000001,-20.44257828304978
-0.29969999999999997,-19.636192842126707
-0.2987000000000001,-18.872248740199588
-0.29769999999999996,-18.10830463827247
-0.2967000000000001,-17.34436053634535
-0.29569999999999996,-16.637004886412832
-0.2947000000000001,-15.88720789748436
-0.29369999999999996,-15.165705134553193
-0.29270000000000007,-14.472496597619326
-0.29169999999999996,-13.770799792886267
-0.29070000000000007,-13.09173836895105
-0.28969999999999996,-12.35042964782177
-0.28870000000000007,-11.628926884890602
-0.28769999999999996,-10.97108613045336
-0.28670000000000007,-10.317489509915713
-0.28569999999999995,-9.646916353779686
-0.28470000000000006,-8.93531656994757
-0.28369999999999995,-8.28030523811006
-0.28270000000000006,-7.69037062606634
-0.28169999999999995,-7.063653520226129
-0.28070000000000006,-6.393080364090101
-0.27969999999999995,-5.736654320952724
-0.27870000000000006,-5.1212549055114325
-0.27769999999999995,-4.525661448268252
-0.27670000000000006,-3.9201650119260174
-0.27569999999999995,-3.28637434958648
-0.27470000000000006,-2.6752190680447843
-0.27369999999999994,-2.072552054302279
-0.27270000000000005,-1.505252823056399
-0.27169999999999994,-0.9325776888710322
-0.27070000000000005,-0.31576356212987616
-0.26969999999999994,0.2806787218932233
-0.26870000000000005,0.8437338192395079
-0.26769999999999994,1.385002362567871
-0.26670000000000005,1.9508868825138854
-0.26569999999999994,2.515356691160035
-0.26470000000000005,3.08407063370578
