Aug. 22, 2024   11:23:48
Cyclic Voltammetry
File: c:/users/guazh/data/20240813_batch_94_500/2024-08-15-exp159\exp159-2024-08-22t11_10_40-h2koh\exp159_cv_sr_50mvs_efin_-1600mv.bin
Data Source:  Experiment
Instrument Model:  CHI760E
Header: CV ran at 50 mVs
Note: 

Init E (V) = -1
High E (V) = -1
Low E (V) = -1.6
Final E (V) = -1
Init P/N = N
Scan Rate (V/s) = 0.05
Segment = 3
Sample Interval (V) = 0.001
Quiet Time (sec) = 2
Sensitivity (A/V) = 0.01
Comp R (ohm) = 1.8

Results:

Channel 1:
Segment 1:

Segment 2:

Segment 3:

Potential/V, Current/A

-1.000, 2.534e-6
-1.001, 6.312e-6
-1.002, 7.812e-6
-1.003, 8.808e-6
-1.004, 9.726e-6
-1.005, 1.047e-5
-1.006, 1.068e-5
-1.007, 1.146e-5
-1.008, 1.186e-5
-1.009, 1.233e-5
-1.010, 1.287e-5
-1.011, 1.292e-5
-1.012, 1.348e-5
-1.013, 1.372e-5
-1.014, 1.418e-5
-1.015, 1.452e-5
-1.016, 1.455e-5
-1.017, 1.490e-5
-1.018, 1.514e-5
-1.019, 1.547e-5
-1.020, 1.575e-5
-1.021, 1.587e-5
-1.022, 1.596e-5
-1.023, 1.644e-5
-1.024, 1.670e-5
-1.025, 1.697e-5
-1.026, 1.707e-5
-1.027, 1.710e-5
-1.028, 1.747e-5
-1.029, 1.775e-5
-1.030, 1.791e-5
-1.031, 1.794e-5
-1.032, 1.792e-5
-1.033, 1.841e-5
-1.034, 1.850e-5
-1.035, 1.860e-5
-1.036, 1.858e-5
-1.037, 1.873e-5
-1.038, 1.896e-5
-1.039, 1.910e-5
-1.040, 1.920e-5
-1.041, 1.903e-5
-1.042, 1.932e-5
-1.043, 1.928e-5
-1.044, 1.963e-5
-1.045, 1.964e-5
-1.046, 1.949e-5
-1.047, 1.963e-5
-1.048, 1.966e-5
-1.049, 1.975e-5
-1.050, 2.009e-5
-1.051, 1.979e-5
-1.052, 1.985e-5
-1.053, 1.991e-5
-1.054, 1.997e-5
-1.055, 2.019e-5
-1.056, 1.986e-5
-1.057, 1.994e-5
-1.058, 2.005e-5
-1.059, 2.006e-5
-1.060, 2.028e-5
-1.061, 2.014e-5
-1.062, 2.009e-5
-1.063, 2.029e-5
-1.064, 2.019e-5
-1.065, 2.039e-5
-1.066, 2.025e-5
-1.067, 2.011e-5
-1.068, 2.030e-5
-1.069, 2.028e-5
-1.070, 2.048e-5
-1.071, 2.035e-5
-1.072, 2.011e-5
-1.073, 2.031e-5
-1.074, 2.046e-5
-1.075, 2.057e-5
-1.076, 2.033e-5
-1.077, 2.033e-5
-1.078, 2.036e-5
-1.079, 2.052e-5
-1.080, 2.051e-5
-1.081, 2.033e-5
-1.082, 2.046e-5
-1.083, 2.036e-5
-1.084, 2.047e-5
-1.085, 2.057e-5
-1.086, 2.034e-5
-1.087, 2.038e-5
-1.088, 2.048e-5
-1.089, 2.045e-5
-1.090, 2.066e-5
-1.091, 2.033e-5
-1.092, 2.050e-5
-1.093, 2.044e-5
-1.094, 2.047e-5
-1.095, 2.070e-5
-1.096, 2.052e-5
-1.097, 2.034e-5
-1.098, 2.053e-5
-1.099, 2.042e-5
-1.100, 2.061e-5
-1.101, 2.051e-5
-1.102, 2.040e-5
-1.103, 2.066e-5
-1.104, 2.066e-5
-1.105, 2.072e-5
-1.106, 2.057e-5
-1.107, 2.037e-5
-1.108, 2.063e-5
-1.109, 2.061e-5
-1.110, 2.063e-5
-1.111, 2.057e-5
-1.112, 2.038e-5
-1.113, 2.054e-5
-1.114, 2.072e-5
-1.115, 2.077e-5
-1.116, 2.060e-5
-1.117, 2.053e-5
-1.118, 2.056e-5
-1.119, 2.079e-5
-1.120, 2.072e-5
-1.121, 2.052e-5
-1.122, 2.057e-5
-1.123, 2.063e-5
-1.124, 2.075e-5
-1.125, 2.080e-5
-1.126, 2.066e-5
-1.127, 2.066e-5
-1.128, 2.076e-5
-1.129, 2.080e-5
-1.130, 2.096e-5
-1.131, 2.068e-5
-1.132, 2.064e-5
-1.133, 2.070e-5
-1.134, 2.086e-5
-1.135, 2.087e-5
-1.136, 2.079e-5
-1.137, 2.075e-5
-1.138, 2.081e-5
-1.139, 2.088e-5
-1.140, 2.098e-5
-1.141, 2.078e-5
-1.142, 2.076e-5
-1.143, 2.088e-5
-1.144, 2.082e-5
-1.145, 2.092e-5
-1.146, 2.085e-5
-1.147, 2.073e-5
-1.148, 2.095e-5
-1.149, 2.089e-5
-1.150, 2.100e-5
-1.151, 2.090e-5
-1.152, 2.083e-5
-1.153, 2.102e-5
-1.154, 2.113e-5
-1.155, 2.119e-5
-1.156, 2.108e-5
-1.157, 2.098e-5
-1.158, 2.116e-5
-1.159, 2.127e-5
-1.160, 2.128e-5
-1.161, 2.105e-5
-1.162, 2.119e-5
-1.163, 2.113e-5
-1.164, 2.121e-5
-1.165, 2.149e-5
-1.166, 2.131e-5
-1.167, 2.123e-5
-1.168, 2.137e-5
-1.169, 2.137e-5
-1.170, 2.158e-5
-1.171, 2.150e-5
-1.172, 2.152e-5
-1.173, 2.155e-5
-1.174, 2.147e-5
-1.175, 2.173e-5
-1.176, 2.152e-5
-1.177, 2.156e-5
-1.178, 2.180e-5
-1.179, 2.184e-5
-1.180, 2.190e-5
-1.181, 2.185e-5
-1.182, 2.174e-5
-1.183, 2.192e-5
-1.184, 2.193e-5
-1.185, 2.198e-5
-1.186, 2.209e-5
-1.187, 2.201e-5
-1.188, 2.213e-5
-1.189, 2.221e-5
-1.190, 2.232e-5
-1.191, 2.244e-5
-1.192, 2.218e-5
-1.193, 2.241e-5
-1.194, 2.253e-5
-1.195, 2.257e-5
-1.196, 2.250e-5
-1.197, 2.254e-5
-1.198, 2.271e-5
-1.199, 2.286e-5
-1.200, 2.290e-5
-1.201, 2.283e-5
-1.202, 2.294e-5
-1.203, 2.299e-5
-1.204, 2.319e-5
-1.205, 2.341e-5
-1.206, 2.331e-5
-1.207, 2.333e-5
-1.208, 2.334e-5
-1.209, 2.339e-5
-1.210, 2.377e-5
-1.211, 2.365e-5
-1.212, 2.372e-5
-1.213, 2.379e-5
-1.214, 2.403e-5
-1.215, 2.407e-5
-1.216, 2.414e-5
-1.217, 2.411e-5
-1.218, 2.432e-5
-1.219, 2.441e-5
-1.220, 2.466e-5
-1.221, 2.465e-5
-1.222, 2.469e-5
-1.223, 2.493e-5
-1.224, 2.494e-5
-1.225, 2.516e-5
-1.226, 2.528e-5
-1.227, 2.515e-5
-1.228, 2.542e-5
-1.229, 2.567e-5
-1.230, 2.583e-5
-1.231, 2.592e-5
-1.232, 2.580e-5
-1.233, 2.596e-5
-1.234, 2.624e-5
-1.235, 2.638e-5
-1.236, 2.663e-5
-1.237, 2.656e-5
-1.238, 2.690e-5
-1.239, 2.703e-5
-1.240, 2.710e-5
-1.241, 2.720e-5
-1.242, 2.734e-5
-1.243, 2.754e-5
-1.244, 2.778e-5
-1.245, 2.798e-5
-1.246, 2.806e-5
-1.247, 2.820e-5
-1.248, 2.845e-5
-1.249, 2.858e-5
-1.250, 2.891e-5
-1.251, 2.894e-5
-1.252, 2.905e-5
-1.253, 2.928e-5
-1.254, 2.954e-5
-1.255, 2.989e-5
-1.256, 2.995e-5
-1.257, 3.019e-5
-1.258, 3.040e-5
-1.259, 3.052e-5
-1.260, 3.095e-5
-1.261, 3.108e-5
-1.262, 3.122e-5
-1.263, 3.160e-5
-1.264, 3.179e-5
-1.265, 3.210e-5
-1.266, 3.241e-5
-1.267, 3.242e-5
-1.268, 3.287e-5
-1.269, 3.303e-5
-1.270, 3.337e-5
-1.271, 3.369e-5
-1.272, 3.374e-5
-1.273, 3.424e-5
-1.274, 3.456e-5
-1.275, 3.488e-5
-1.276, 3.510e-5
-1.277, 3.516e-5
-1.278, 3.566e-5
-1.279, 3.618e-5
-1.280, 3.661e-5
-1.281, 3.680e-5
-1.282, 3.697e-5
-1.283, 3.740e-5
-1.284, 3.784e-5
-1.285, 3.820e-5
-1.286, 3.846e-5
-1.287, 3.894e-5
-1.288, 3.929e-5
-1.289, 3.962e-5
-1.290, 4.022e-5
-1.291, 4.053e-5
-1.292, 4.074e-5
-1.293, 4.129e-5
-1.294, 4.176e-5
-1.295, 4.235e-5
-1.296, 4.287e-5
-1.297, 4.294e-5
-1.298, 4.367e-5
-1.299, 4.413e-5
-1.300, 4.477e-5
-1.301, 4.508e-5
-1.302, 4.545e-5
-1.303, 4.628e-5
-1.304, 4.674e-5
-1.305, 4.737e-5
-1.306, 4.799e-5
-1.307, 4.820e-5
-1.308, 4.901e-5
-1.309, 4.974e-5
-1.310, 5.027e-5
-1.311, 5.087e-5
-1.312, 5.139e-5
-1.313, 5.212e-5
-1.314, 5.293e-5
-1.315, 5.363e-5
-1.316, 5.409e-5
-1.317, 5.482e-5
-1.318, 5.565e-5
-1.319, 5.646e-5
-1.320, 5.715e-5
-1.321, 5.777e-5
-1.322, 5.855e-5
-1.323, 5.934e-5
-1.324, 6.019e-5
-1.325, 6.110e-5
-1.326, 6.195e-5
-1.327, 6.259e-5
-1.328, 6.352e-5
-1.329, 6.436e-5
-1.330, 6.544e-5
-1.331, 6.637e-5
-1.332, 6.717e-5
-1.333, 6.819e-5
-1.334, 6.921e-5
-1.335, 7.034e-5
-1.336, 7.121e-5
-1.337, 7.211e-5
-1.338, 7.338e-5
-1.339, 7.451e-5
-1.340, 7.566e-5
-1.341, 7.663e-5
-1.342, 7.759e-5
-1.343, 7.888e-5
-1.344, 8.031e-5
-1.345, 8.144e-5
-1.346, 8.261e-5
-1.347, 8.357e-5
-1.348, 8.499e-5
-1.349, 8.638e-5
-1.350, 8.785e-5
-1.351, 8.933e-5
-1.352, 9.042e-5
-1.353, 9.181e-5
-1.354, 9.335e-5
-1.355, 9.472e-5
-1.356, 9.614e-5
-1.357, 9.776e-5
-1.358, 9.933e-5
-1.359, 1.009e-4
-1.360, 1.025e-4
-1.361, 1.042e-4
-1.362, 1.058e-4
-1.363, 1.073e-4
-1.364, 1.091e-4
-1.365, 1.111e-4
-1.366, 1.131e-4
-1.367, 1.146e-4
-1.368, 1.164e-4
-1.369, 1.184e-4
-1.370, 1.205e-4
-1.371, 1.222e-4
-1.372, 1.241e-4
-1.373, 1.264e-4
-1.374, 1.286e-4
-1.375, 1.306e-4
-1.376, 1.326e-4
-1.377, 1.348e-4
-1.378, 1.374e-4
-1.379, 1.395e-4
-1.380, 1.420e-4
-1.381, 1.444e-4
-1.382, 1.467e-4
-1.383, 1.494e-4
-1.384, 1.518e-4
-1.385, 1.546e-4
-1.386, 1.572e-4
-1.387, 1.596e-4
-1.388, 1.628e-4
-1.389, 1.655e-4
-1.390, 1.684e-4
-1.391, 1.713e-4
-1.392, 1.743e-4
-1.393, 1.771e-4
-1.394, 1.803e-4
-1.395, 1.834e-4
-1.396, 1.872e-4
-1.397, 1.905e-4
-1.398, 1.936e-4
-1.399, 1.972e-4
-1.400, 2.004e-4
-1.401, 2.044e-4
-1.402, 2.077e-4
-1.403, 2.113e-4
-1.404, 2.156e-4
-1.405, 2.194e-4
-1.406, 2.228e-4
-1.407, 2.266e-4
-1.408, 2.309e-4
-1.409, 2.360e-4
-1.410, 2.402e-4
-1.411, 2.442e-4
-1.412, 2.486e-4
-1.413, 2.526e-4
-1.414, 2.574e-4
-1.415, 2.628e-4
-1.416, 2.671e-4
-1.417, 2.715e-4
-1.418, 2.766e-4
-1.419, 2.820e-4
-1.420, 2.872e-4
-1.421, 2.921e-4
-1.422, 2.973e-4
-1.423, 3.034e-4
-1.424, 3.086e-4
-1.425, 3.139e-4
-1.426, 3.201e-4
-1.427, 3.252e-4
-1.428, 3.314e-4
-1.429, 3.369e-4
-1.430, 3.427e-4
-1.431, 3.493e-4
-1.432, 3.553e-4
-1.433, 3.610e-4
-1.434, 3.677e-4
-1.435, 3.744e-4
-1.436, 3.807e-4
-1.437, 3.870e-4
-1.438, 3.930e-4
-1.439, 4.000e-4
-1.440, 4.073e-4
-1.441, 4.136e-4
-1.442, 4.200e-4
-1.443, 4.274e-4
-1.444, 4.352e-4
-1.445, 4.414e-4
-1.446, 4.478e-4
-1.447, 4.546e-4
-1.448, 4.634e-4
-1.449, 4.719e-4
-1.450, 4.788e-4
-1.451, 4.865e-4
-1.452, 4.939e-4
-1.453, 5.011e-4
-1.454, 5.084e-4
-1.455, 5.181e-4
-1.456, 5.272e-4
-1.457, 5.343e-4
-1.458, 5.423e-4
-1.459, 5.513e-4
-1.460, 5.601e-4
-1.461, 5.685e-4
-1.462, 5.774e-4
-1.463, 5.863e-4
-1.464, 5.945e-4
-1.465, 6.021e-4
-1.466, 6.121e-4
-1.467, 6.234e-4
-1.468, 6.325e-4
-1.469, 6.416e-4
-1.470, 6.517e-4
-1.471, 6.606e-4
-1.472, 6.695e-4
-1.473, 6.789e-4
-1.474, 6.909e-4
-1.475, 7.025e-4
-1.476, 7.123e-4
-1.477, 7.231e-4
-1.478, 7.333e-4
-1.479, 7.448e-4
-1.480, 7.547e-4
-1.481, 7.676e-4
-1.482, 7.776e-4
-1.483, 7.887e-4
-1.484, 8.016e-4
-1.485, 8.140e-4
-1.486, 8.259e-4
-1.487, 8.369e-4
-1.488, 8.476e-4
-1.489, 8.600e-4
-1.490, 8.754e-4
-1.491, 8.884e-4
-1.492, 9.011e-4
-1.493, 9.149e-4
-1.494, 9.276e-4
-1.495, 9.419e-4
-1.496, 9.550e-4
-1.497, 9.674e-4
-1.498, 9.825e-4
-1.499, 9.988e-4
-1.500, 1.013e-3
-1.501, 1.028e-3
-1.502, 1.042e-3
-1.503, 1.057e-3
-1.504, 1.074e-3
-1.505, 1.089e-3
-1.506, 1.102e-3
-1.507, 1.116e-3
-1.508, 1.136e-3
-1.509, 1.156e-3
-1.510, 1.172e-3
-1.511, 1.189e-3
-1.512, 1.204e-3
-1.513, 1.219e-3
-1.514, 1.238e-3
-1.515, 1.257e-3
-1.516, 1.275e-3
-1.517, 1.293e-3
-1.518, 1.312e-3
-1.519, 1.328e-3
-1.520, 1.348e-3
-1.521, 1.365e-3
-1.522, 1.386e-3
-1.523, 1.408e-3
-1.524, 1.429e-3
-1.525, 1.448e-3
-1.526, 1.466e-3
-1.527, 1.488e-3
-1.528, 1.512e-3
-1.529, 1.533e-3
-1.530, 1.550e-3
-1.531, 1.568e-3
-1.532, 1.595e-3
-1.533, 1.623e-3
-1.534, 1.646e-3
-1.535, 1.669e-3
-1.536, 1.694e-3
-1.537, 1.720e-3
-1.538, 1.744e-3
-1.539, 1.768e-3
-1.540, 1.789e-3
-1.541, 1.809e-3
-1.542, 1.834e-3
-1.543, 1.867e-3
-1.544, 1.898e-3
-1.545, 1.921e-3
-1.546, 1.946e-3
-1.547, 1.979e-3
-1.548, 2.005e-3
-1.549, 2.034e-3
-1.550, 2.060e-3
-1.551, 2.090e-3
-1.552, 2.121e-3
-1.553, 2.146e-3
-1.554, 2.177e-3
-1.555, 2.207e-3
-1.556, 2.240e-3
-1.557, 2.268e-3
-1.558, 2.298e-3
-1.559, 2.333e-3
-1.560, 2.364e-3
-1.561, 2.391e-3
-1.562, 2.421e-3
-1.563, 2.461e-3
-1.564, 2.497e-3
-1.565, 2.527e-3
-1.566, 2.564e-3
-1.567, 2.599e-3
-1.568, 2.631e-3
-1.569, 2.657e-3
-1.570, 2.686e-3
-1.571, 2.723e-3
-1.572, 2.775e-3
-1.573, 2.815e-3
-1.574, 2.846e-3
-1.575, 2.881e-3
-1.576, 2.926e-3
-1.577, 2.963e-3
-1.578, 2.996e-3
-1.579, 3.035e-3
-1.580, 3.084e-3
-1.581, 3.120e-3
-1.582, 3.147e-3
-1.583, 3.199e-3
-1.584, 3.240e-3
-1.585, 3.288e-3
-1.586, 3.329e-3
-1.587, 3.374e-3
-1.588, 3.410e-3
-1.589, 3.442e-3
-1.590, 3.496e-3
-1.591, 3.552e-3
-1.592, 3.586e-3
-1.593, 3.611e-3
-1.594, 3.648e-3
-1.595, 3.711e-3
-1.596, 3.774e-3
-1.597, 3.818e-3
-1.598, 3.867e-3
-1.599, 3.919e-3
-1.600, 3.918e-3
-1.599, 3.880e-3
-1.598, 3.866e-3
-1.597, 3.838e-3
-1.596, 3.791e-3
-1.595, 3.751e-3
-1.594, 3.730e-3
-1.593, 3.695e-3
-1.592, 3.649e-3
-1.591, 3.616e-3
-1.590, 3.585e-3
-1.589, 3.541e-3
-1.588, 3.501e-3
-1.587, 3.468e-3
-1.586, 3.427e-3
-1.585, 3.393e-3
-1.584, 3.349e-3
-1.583, 3.296e-3
-1.582, 3.248e-3
-1.581, 3.224e-3
-1.580, 3.206e-3
-1.579, 3.167e-3
-1.578, 3.130e-3
-1.577, 3.081e-3
-1.576, 3.027e-3
-1.575, 2.983e-3
-1.574, 2.959e-3
-1.573, 2.938e-3
-1.572, 2.900e-3
-1.571, 2.863e-3
-1.570, 2.829e-3
-1.569, 2.791e-3
-1.568, 2.752e-3
-1.567, 2.720e-3
-1.566, 2.683e-3
-1.565, 2.647e-3
-1.564, 2.617e-3
-1.563, 2.581e-3
-1.562, 2.545e-3
-1.561, 2.502e-3
-1.560, 2.458e-3
-1.559, 2.422e-3
-1.558, 2.403e-3
-1.557, 2.378e-3
-1.556, 2.340e-3
-1.555, 2.307e-3
-1.554, 2.278e-3
-1.553, 2.242e-3
-1.552, 2.208e-3
-1.551, 2.182e-3
-1.550, 2.157e-3
-1.549, 2.124e-3
-1.548, 2.095e-3
-1.547, 2.063e-3
-1.546, 2.028e-3
-1.545, 1.997e-3
-1.544, 1.978e-3
-1.543, 1.952e-3
-1.542, 1.920e-3
-1.541, 1.892e-3
-1.540, 1.867e-3
-1.539, 1.839e-3
-1.538, 1.812e-3
-1.537, 1.788e-3
-1.536, 1.761e-3
-1.535, 1.734e-3
-1.534, 1.710e-3
-1.533, 1.685e-3
-1.532, 1.662e-3
-1.531, 1.636e-3
-1.530, 1.610e-3
-1.529, 1.581e-3
-1.528, 1.556e-3
-1.527, 1.537e-3
-1.526, 1.519e-3
-1.525, 1.494e-3
-1.524, 1.473e-3
-1.523, 1.449e-3
-1.522, 1.429e-3
-1.521, 1.406e-3
-1.520, 1.386e-3
-1.519, 1.364e-3
-1.518, 1.343e-3
-1.517, 1.324e-3
-1.516, 1.304e-3
-1.515, 1.283e-3
-1.514, 1.262e-3
-1.513, 1.244e-3
-1.512, 1.226e-3
-1.511, 1.207e-3
-1.510, 1.190e-3
-1.509, 1.173e-3
-1.508, 1.154e-3
-1.507, 1.134e-3
-1.506, 1.117e-3
-1.505, 1.103e-3
-1.504, 1.086e-3
-1.503, 1.066e-3
-1.502, 1.050e-3
-1.501, 1.037e-3
-1.500, 1.022e-3
-1.499, 1.005e-3
-1.498, 9.900e-4
-1.497, 9.749e-4
-1.496, 9.603e-4
-1.495, 9.448e-4
-1.494, 9.310e-4
-1.493, 9.166e-4
-1.492, 9.021e-4
-1.491, 8.884e-4
-1.490, 8.742e-4
-1.489, 8.588e-4
-1.488, 8.439e-4
-1.487, 8.313e-4
-1.486, 8.212e-4
-1.485, 8.073e-4
-1.484, 7.935e-4
-1.483, 7.817e-4
-1.482, 7.689e-4
-1.481, 7.564e-4
-1.480, 7.447e-4
-1.479, 7.312e-4
-1.478, 7.195e-4
-1.477, 7.094e-4
-1.476, 6.975e-4
-1.475, 6.854e-4
-1.474, 6.740e-4
-1.473, 6.637e-4
-1.472, 6.544e-4
-1.471, 6.426e-4
-1.470, 6.320e-4
-1.469, 6.215e-4
-1.468, 6.112e-4
-1.467, 6.012e-4
-1.466, 5.900e-4
-1.465, 5.800e-4
-1.464, 5.715e-4
-1.463, 5.639e-4
-1.462, 5.541e-4
-1.461, 5.449e-4
-1.460, 5.362e-4
-1.459, 5.263e-4
-1.458, 5.175e-4
-1.457, 5.092e-4
-1.456, 5.002e-4
-1.455, 4.910e-4
-1.454, 4.831e-4
-1.453, 4.761e-4
-1.452, 4.676e-4
-1.451, 4.593e-4
-1.450, 4.517e-4
-1.449, 4.436e-4
-1.448, 4.360e-4
-1.447, 4.287e-4
-1.446, 4.210e-4
-1.445, 4.143e-4
-1.444, 4.068e-4
-1.443, 3.992e-4
-1.442, 3.919e-4
-1.441, 3.849e-4
-1.440, 3.796e-4
-1.439, 3.728e-4
-1.438, 3.655e-4
-1.437, 3.595e-4
-1.436, 3.525e-4
-1.435, 3.463e-4
-1.434, 3.400e-4
-1.433, 3.333e-4
-1.432, 3.280e-4
-1.431, 3.214e-4
-1.430, 3.161e-4
-1.429, 3.102e-4
-1.428, 3.037e-4
-1.427, 2.981e-4
-1.426, 2.931e-4
-1.425, 2.884e-4
-1.424, 2.827e-4
-1.423, 2.773e-4
-1.422, 2.719e-4
-1.421, 2.665e-4
-1.420, 2.619e-4
-1.419, 2.570e-4
-1.418, 2.519e-4
-1.417, 2.472e-4
-1.416, 2.427e-4
-1.415, 2.380e-4
-1.414, 2.329e-4
-1.413, 2.282e-4
-1.412, 2.245e-4
-1.411, 2.207e-4
-1.410, 2.162e-4
-1.409, 2.117e-4
-1.408, 2.072e-4
-1.407, 2.027e-4
-1.406, 1.985e-4
-1.405, 1.952e-4
-1.404, 1.916e-4
-1.403, 1.875e-4
-1.402, 1.837e-4
-1.401, 1.797e-4
-1.400, 1.761e-4
-1.399, 1.728e-4
-1.398, 1.687e-4
-1.397, 1.655e-4
-1.396, 1.620e-4
-1.395, 1.585e-4
-1.394, 1.554e-4
-1.393, 1.517e-4
-1.392, 1.487e-4
-1.391, 1.456e-4
-1.390, 1.426e-4
-1.389, 1.394e-4
-1.388, 1.364e-4
-1.387, 1.337e-4
-1.386, 1.308e-4
-1.385, 1.278e-4
-1.384, 1.251e-4
-1.383, 1.223e-4
-1.382, 1.200e-4
-1.381, 1.174e-4
-1.380, 1.148e-4
-1.379, 1.122e-4
-1.378, 1.098e-4
-1.377, 1.074e-4
-1.376, 1.050e-4
-1.375, 1.028e-4
-1.374, 1.005e-4
-1.373, 9.817e-5
-1.372, 9.590e-5
-1.371, 9.389e-5
-1.370, 9.190e-5
-1.369, 8.972e-5
-1.368, 8.776e-5
-1.367, 8.579e-5
-1.366, 8.352e-5
-1.365, 8.192e-5
-1.364, 8.008e-5
-1.363, 7.821e-5
-1.362, 7.661e-5
-1.361, 7.459e-5
-1.360, 7.326e-5
-1.359, 7.144e-5
-1.358, 6.963e-5
-1.357, 6.811e-5
-1.356, 6.639e-5
-1.355, 6.496e-5
-1.354, 6.338e-5
-1.353, 6.165e-5
-1.352, 6.033e-5
-1.351, 5.898e-5
-1.350, 5.770e-5
-1.349, 5.641e-5
-1.348, 5.507e-5
-1.347, 5.362e-5
-1.346, 5.247e-5
-1.345, 5.122e-5
-1.344, 4.998e-5
-1.343, 4.842e-5
-1.342, 4.733e-5
-1.341, 4.647e-5
-1.340, 4.514e-5
-1.339, 4.393e-5
-1.338, 4.278e-5
-1.337, 4.167e-5
-1.336, 4.069e-5
-1.335, 3.971e-5
-1.334, 3.862e-5
-1.333, 3.743e-5
-1.332, 3.660e-5
-1.331, 3.552e-5
-1.330, 3.481e-5
-1.329, 3.354e-5
-1.328, 3.259e-5
-1.327, 3.179e-5
-1.326, 3.087e-5
-1.325, 3.009e-5
-1.324, 2.910e-5
-1.323, 2.819e-5
-1.322, 2.750e-5
-1.321, 2.661e-5
-1.320, 2.598e-5
-1.319, 2.516e-5
-1.318, 2.402e-5
-1.317, 2.349e-5
-1.316, 2.276e-5
-1.315, 2.211e-5
-1.314, 2.137e-5
-1.313, 2.031e-5
-1.312, 1.988e-5
-1.311, 1.910e-5
-1.310, 1.871e-5
-1.309, 1.804e-5
-1.308, 1.715e-5
-1.307, 1.664e-5
-1.306, 1.607e-5
-1.305, 1.552e-5
-1.304, 1.490e-5
-1.303, 1.419e-5
-1.302, 1.377e-5
-1.301, 1.324e-5
-1.300, 1.274e-5
-1.299, 1.208e-5
-1.298, 1.165e-5
-1.297, 1.117e-5
-1.296, 1.072e-5
-1.295, 1.030e-5
-1.294, 9.696e-6
-1.293, 9.055e-6
-1.292, 8.818e-6
-1.291, 8.345e-6
-1.290, 8.078e-6
-1.289, 7.437e-6
-1.288, 7.003e-6
-1.287, 6.736e-6
-1.286, 6.312e-6
-1.285, 6.075e-6
-1.284, 5.641e-6
-1.283, 4.911e-6
-1.282, 4.832e-6
-1.281, 4.398e-6
-1.280, 4.013e-6
-1.279, 3.579e-6
-1.278, 3.234e-6
-1.277, 3.007e-6
-1.276, 2.593e-6
-1.275, 2.415e-6
-1.274, 2.050e-6
-1.273, 1.517e-6
-1.272, 1.438e-6
-1.271, 1.083e-6
-1.270, 7.873e-7
-1.269, 5.407e-7
-1.268, 2.762e-8
-1.267, -2.289e-7
-1.266, -4.558e-7
-1.265, -6.137e-7
-1.264, -9.096e-7
-1.263, -1.304e-6
-1.262, -1.521e-6
-1.261, -1.778e-6
-1.260, -1.955e-6
-1.259, -2.251e-6
-1.258, -2.547e-6
-1.257, -2.843e-6
-1.256, -3.080e-6
-1.255, -3.199e-6
-1.254, -3.652e-6
-1.253, -3.958e-6
-1.252, -3.929e-6
-1.251, -4.264e-6
-1.250, -4.363e-6
-1.249, -4.590e-6
-1.248, -5.024e-6
-1.247, -4.984e-6
-1.246, -5.300e-6
-1.245, -5.389e-6
-1.244, -6.247e-6
-1.243, -6.523e-6
-1.242, -6.287e-6
-1.241, -6.208e-6
-1.240, -6.405e-6
-1.239, -6.533e-6
-1.238, -7.017e-6
-1.237, -6.908e-6
-1.236, -7.214e-6
-1.235, -7.352e-6
-1.234, -7.342e-6
-1.233, -7.766e-6
-1.232, -7.766e-6
-1.231, -8.062e-6
-1.230, -8.171e-6
-1.229, -8.585e-6
-1.228, -8.832e-6
-1.227, -8.783e-6
-1.226, -8.950e-6
-1.225, -9.089e-6
-1.224, -9.167e-6
-1.223, -9.532e-6
-1.222, -9.552e-6
-1.221, -9.671e-6
-1.220, -9.779e-6
-1.219, -1.005e-5
-1.218, -1.010e-5
-1.217, -1.032e-5
-1.216, -1.042e-5
-1.215, -1.038e-5
-1.214, -1.073e-5
-1.213, -1.085e-5
-1.212, -1.084e-5
-1.211, -1.101e-5
-1.210, -1.102e-5
-1.209, -1.124e-5
-1.208, -1.128e-5
-1.207, -1.144e-5
-1.206, -1.163e-5
-1.205, -1.152e-5
-1.204, -1.169e-5
-1.203, -1.216e-5
-1.202, -1.198e-5
-1.201, -1.222e-5
-1.200, -1.205e-5
-1.199, -1.229e-5
-1.198, -1.254e-5
-1.197, -1.241e-5
-1.196, -1.264e-5
-1.195, -1.260e-5
-1.194, -1.275e-5
-1.193, -1.313e-5
-1.192, -1.297e-5
-1.191, -1.303e-5
-1.190, -1.315e-5
-1.189, -1.318e-5
-1.188, -1.344e-5
-1.187, -1.352e-5
-1.186, -1.343e-5
-1.185, -1.348e-5
-1.184, -1.362e-5
-1.183, -1.390e-5
-1.182, -1.385e-5
-1.181, -1.382e-5
-1.180, -1.391e-5
-1.179, -1.408e-5
-1.178, -1.438e-5
-1.177, -1.430e-5
-1.176, -1.437e-5
-1.175, -1.434e-5
-1.174, -1.451e-5
-1.173, -1.459e-5
-1.172, -1.467e-5
-1.171, -1.476e-5
-1.170, -1.470e-5
-1.169, -1.482e-5
-1.168, -1.505e-5
-1.167, -1.499e-5
-1.166, -1.507e-5
-1.165, -1.500e-5
-1.164, -1.519e-5
-1.163, -1.551e-5
-1.162, -1.531e-5
-1.161, -1.548e-5
-1.160, -1.537e-5
-1.159, -1.548e-5
-1.158, -1.571e-5
-1.157, -1.566e-5
-1.156, -1.573e-5
-1.155, -1.578e-5
-1.154, -1.579e-5
-1.153, -1.598e-5
-1.152, -1.606e-5
-1.151, -1.597e-5
-1.150, -1.611e-5
-1.149, -1.610e-5
-1.148, -1.629e-5
-1.147, -1.636e-5
-1.146, -1.641e-5
-1.145, -1.636e-5
-1.144, -1.650e-5
-1.143, -1.663e-5
-1.142, -1.678e-5
-1.141, -1.666e-5
-1.140, -1.661e-5
-1.139, -1.701e-5
-1.138, -1.693e-5
-1.137, -1.700e-5
-1.136, -1.695e-5
-1.135, -1.697e-5
-1.134, -1.720e-5
-1.133, -1.726e-5
-1.132, -1.732e-5
-1.131, -1.735e-5
-1.130, -1.730e-5
-1.129, -1.755e-5
-1.128, -1.754e-5
-1.127, -1.761e-5
-1.126, -1.779e-5
-1.125, -1.770e-5
-1.124, -1.782e-5
-1.123, -1.792e-5
-1.122, -1.796e-5
-1.121, -1.809e-5
-1.120, -1.797e-5
-1.119, -1.817e-5
-1.118, -1.835e-5
-1.117, -1.823e-5
-1.116, -1.828e-5
-1.115, -1.834e-5
-1.114, -1.839e-5
-1.113, -1.867e-5
-1.112, -1.863e-5
-1.111, -1.863e-5
-1.110, -1.869e-5
-1.109, -1.873e-5
-1.108, -1.895e-5
-1.107, -1.902e-5
-1.106, -1.895e-5
-1.105, -1.910e-5
-1.104, -1.915e-5
-1.103, -1.940e-5
-1.102, -1.943e-5
-1.101, -1.941e-5
-1.100, -1.959e-5
-1.099, -1.977e-5
-1.098, -1.988e-5
-1.097, -2.010e-5
-1.096, -1.995e-5
-1.095, -1.996e-5
-1.094, -2.024e-5
-1.093, -2.010e-5
-1.092, -2.038e-5
-1.091, -2.045e-5
-1.090, -2.043e-5
-1.089, -2.056e-5
-1.088, -2.082e-5
-1.087, -2.091e-5
-1.086, -2.083e-5
-1.085, -2.090e-5
-1.084, -2.100e-5
-1.083, -2.142e-5
-1.082, -2.132e-5
-1.081, -2.144e-5
-1.080, -2.150e-5
-1.079, -2.169e-5
-1.078, -2.190e-5
-1.077, -2.191e-5
-1.076, -2.217e-5
-1.075, -2.219e-5
-1.074, -2.232e-5
-1.073, -2.272e-5
-1.072, -2.260e-5
-1.071, -2.268e-5
-1.070, -2.289e-5
-1.069, -2.312e-5
-1.068, -2.324e-5
-1.067, -2.349e-5
-1.066, -2.335e-5
-1.065, -2.362e-5
-1.064, -2.373e-5
-1.063, -2.403e-5
-1.062, -2.421e-5
-1.061, -2.425e-5
-1.060, -2.442e-5
-1.059, -2.465e-5
-1.058, -2.494e-5
-1.057, -2.512e-5
-1.056, -2.511e-5
-1.055, -2.524e-5
-1.054, -2.559e-5
-1.053, -2.578e-5
-1.052, -2.602e-5
-1.051, -2.609e-5
-1.050, -2.629e-5
-1.049, -2.656e-5
-1.048, -2.677e-5
-1.047, -2.702e-5
-1.046, -2.723e-5
-1.045, -2.736e-5
-1.044, -2.770e-5
-1.043, -2.800e-5
-1.042, -2.831e-5
-1.041, -2.855e-5
-1.040, -2.861e-5
-1.039, -2.888e-5
-1.038, -2.930e-5
-1.037, -2.954e-5
-1.036, -2.973e-5
-1.035, -3.019e-5
-1.034, -3.029e-5
-1.033, -3.072e-5
-1.032, -3.093e-5
-1.031, -3.108e-5
-1.030, -3.154e-5
-1.029, -3.170e-5
-1.028, -3.210e-5
-1.027, -3.247e-5
-1.026, -3.268e-5
-1.025, -3.290e-5
-1.024, -3.344e-5
-1.023, -3.404e-5
-1.022, -3.416e-5
-1.021, -3.425e-5
-1.020, -3.471e-5
-1.019, -3.509e-5
-1.018, -3.545e-5
-1.017, -3.582e-5
-1.016, -3.598e-5
-1.015, -3.631e-5
-1.014, -3.696e-5
-1.013, -3.719e-5
-1.012, -3.767e-5
-1.011, -3.789e-5
-1.010, -3.823e-5
-1.009, -3.871e-5
-1.008, -3.926e-5
-1.007, -3.947e-5
-1.006, -3.987e-5
-1.005, -4.028e-5
-1.004, -4.069e-5
-1.003, -4.123e-5
-1.002, -4.173e-5
-1.001, -4.194e-5
