Potential V vs RHE, Current mA cm-2
0.013299999999999867,-0.08345381957903851
0.012299999999999978,-0.15476941620523502
0.011299999999999866,-0.193532505821537
0.010299999999999976,-0.22055349164895924
0.009299999999999864,-0.24248151679686727
0.008299999999999974,-0.25959952352523424
0.007299999999999862,-0.2772834147735472
0.006299999999999972,-0.29284523907206256
0.00529999999999986,-0.3061435252907939
0.0042999999999999705,-0.3194418115095253
0.0032999999999998586,-0.33019361738849956
0.0022999999999999687,-0.34405778812717697
0.0012999999999998568,-0.3542437094862052
0.00029999999999996696,-0.3647125731052065
-0.000700000000000145,-0.37390819655432916
-0.0017000000000000348,-0.38211352209354643
-0.0027000000000001467,-0.3914506166726556
-0.0037000000000000366,-0.39993888447184583
-0.0047000000000001485,-0.40630508532123855
-0.005700000000000038,-0.4125298150406447
-0.00670000000000015,-0.41847160250007787
-0.00770000000000004,-0.42554515899940304
-0.008700000000000152,-0.4323357732387552
-0.009700000000000042,-0.43728726278828284
-0.010700000000000154,-0.44252169459778345
-0.011700000000000044,-0.44733171301732455
-0.012700000000000156,-0.45313202934677127
-0.013700000000000045,-0.45765910550633937
-0.014700000000000157,-0.463459421835786
-0.015700000000000047,-0.46699620008544857
-0.01670000000000016,-0.4713818051150302
-0.01770000000000005,-0.4761918235345713
-0.01870000000000016,-0.48086037082412597
-0.01970000000000005,-0.4858118603736536
-0.020700000000000163,-0.48949010975330265
-0.021700000000000053,-0.49302688800296524
-0.022700000000000164,-0.4985442620724389
-0.023700000000000054,-0.504768991791845
-0.024700000000000166,-0.5078813566515481
-0.025700000000000056,-0.5128328462010757
-0.026700000000000168,-0.5165110955807248
-0.027700000000000058,-0.5203308160903605
-0.02870000000000017,-0.5269799591997262
-0.02970000000000006,-0.5309411508393483
-0.03070000000000017,-0.5365999960388084
-0.03170000000000006,-0.5397123608985115
-0.03270000000000017,-0.5446638504480392
-0.03370000000000006,-0.5508885801674454
-0.034700000000000175,-0.5552741851970269
-0.035700000000000065,-0.5607915592665006
-0.03670000000000018,-0.5660259910760012
-0.03770000000000007,-0.5698457115856368
-0.03870000000000018,-0.5773436814749214
-0.03970000000000007,-0.5820122287644761
-0.04070000000000018,-0.5873881317039633
-0.04170000000000007,-0.5936128614233693
-0.04270000000000018,-0.597998466452951
-0.04370000000000007,-0.6049305518222896
-0.044700000000000184,-0.6120041083216149
-0.045700000000000074,-0.6165311844811829
-0.046700000000000186,-0.6230388564605621
-0.047700000000000076,-0.6303953552198603
-0.04870000000000019,-0.6367615560692529
-0.04970000000000008,-0.6441180548285511
-0.05070000000000019,-0.6497769000280114
-0.05170000000000008,-0.6562845720073905
-0.05270000000000019,-0.6643484264166213
-0.05370000000000008,-0.672412280825852
-0.05470000000000019,-0.6804761352350827
-0.05570000000000008,-0.6867008649544888
-0.056700000000000195,-0.6936329503238275
-0.057700000000000085,-0.7025456315129773
-0.058700000000000196,-0.7107509570521945
-0.059700000000000086,-0.7189562825914116
-0.0607000000000002,-0.7273030792606153
-0.06170000000000009,-0.7370645872296842
-0.0627000000000002,-0.7449869705089284
-0.06370000000000009,-0.7540411228280646
-0.0647000000000002,-0.7628123328872277
-0.06570000000000009,-0.7732811965062291
-0.0667000000000002,-0.7820524065653922
-0.0677000000000001,-0.7911065588845285
-0.0687000000000002,-0.8027071915434218
-0.0697000000000001,-0.81289311290245
-0.07070000000000021,-0.8227960920015054
-0.0717000000000001,-0.8325575999705741
-0.07270000000000021,-0.8444411748894404
-0.0737000000000001,-0.8553344518984012
-0.07470000000000021,-0.8658033155174024
-0.0757000000000001,-0.8789601306061473
-0.07670000000000021,-0.8897119364851216
-0.0777000000000001,-0.9003222712341092
-0.07870000000000021,-0.9144693842327598
-0.0797000000000001,-0.9266359014115991
-0.08070000000000022,-0.9392268319803979
-0.0817000000000001,-0.9513933491592371
-0.08270000000000022,-0.9638428085980495
-0.08370000000000011,-0.9784143349866592
-0.08470000000000022,-0.9915711500754043
-0.08570000000000011,-1.0055767919440681
-0.08670000000000022,-1.0191580204227724
-0.08770000000000011,-1.0337295468113823
-0.08870000000000022,-1.0488669577199383
-0.08970000000000011,-1.065984964448305
-0.09070000000000022,-1.079990606316969
-0.09170000000000011,-1.0942791904456057
-0.09270000000000023,-1.110972783784013
-0.09370000000000012,-1.1255443101726232
-0.09470000000000023,-1.1420964323810439
-0.09570000000000012,-1.1600632658893302
-0.09670000000000023,-1.1759080324478186
-0.09770000000000012,-1.193733394826118
-0.09870000000000023,-1.2119831705943769
-0.09970000000000012,-1.2298085329726764
-0.10070000000000023,-1.2480583087409354
-0.10170000000000012,-1.2641860175593966
-0.10270000000000024,-1.283284620107575
-0.10370000000000013,-1.3032320494356717
-0.10470000000000024,-1.3221891808538633
-0.10570000000000013,-1.3429854369618792
-0.10670000000000024,-1.3606693282101925
-0.10770000000000013,-1.3807582286682758
-0.10870000000000024,-1.4028277249461705
-0.10970000000000013,-1.423199567664227
-0.11070000000000024,-1.4444202371622026
-0.11170000000000013,-1.4656409066601779
-0.11270000000000002,-1.4854468648582886
-0.11370000000000013,-1.5080822456561291
-0.11470000000000002,-1.5293029151541047
-0.11570000000000014,-1.5533530072518102
-0.11670000000000003,-1.5774030993495158
-0.11770000000000014,-1.5986237688474914
-0.11870000000000003,-1.6240885722450622
-0.11970000000000014,-1.6467239530429028
-0.12070000000000003,-1.6693593338407433
-0.12170000000000014,-1.693409425938449
-0.12270000000000003,-1.7202889406358846
-0.12370000000000014,-1.7471684553333202
-0.12470000000000003,-1.771218547431026
-0.12570000000000014,-1.7966833508285964
-0.12670000000000003,-1.822148154226167
-0.12770000000000015,-1.8461982463238729
-0.12870000000000004,-1.8730777610213083
-0.12970000000000015,-1.9027866983184742
-0.13070000000000004,-1.9282515017160449
-0.13170000000000015,-1.9551310164134805
-0.13270000000000004,-1.980595819811051
-0.13370000000000015,-2.007475334508487
-0.13470000000000004,-2.0371842718056525
-0.13570000000000015,-2.0668932091028185
-0.13670000000000004,-2.0966021463999844
-0.13770000000000016,-2.124896372397285
-0.13870000000000005,-2.1531905983945863
-0.13970000000000016,-2.1828995356917518
-0.14070000000000005,-2.2097790503891876
-0.14170000000000016,-2.2394879876863527
-0.14270000000000005,-2.2691969249835187
-0.14370000000000016,-2.298905862280684
-0.14470000000000005,-2.330029510877715
-0.14570000000000016,-2.359738448174881
-0.14670000000000005,-2.388032674172182
-0.14770000000000016,-2.4163269001694827
-0.14870000000000005,-2.4488652600663787
-0.14970000000000017,-2.4842330425630044
-0.15070000000000006,-2.5139419798601703
-0.15170000000000017,-2.542236205857471
-0.15270000000000006,-2.5747745657543666
-0.15370000000000017,-2.610142348250993
-0.15470000000000006,-2.639851285548158
-0.15570000000000017,-2.669560222845324
-0.15670000000000006,-2.7049280053419507
-0.15770000000000017,-2.7360516539389814
-0.15870000000000006,-2.768590013835877
-0.15970000000000018,-2.8039577963325026
-0.16070000000000007,-2.833666733629668
-0.16170000000000018,-2.866205093526564
-0.16270000000000007,-2.900158164723325
-0.16370000000000018,-2.9341112359200863
-0.16470000000000007,-2.970893729716577
-0.16570000000000018,-2.999187955713878
-0.16670000000000007,-3.0303116043109086
-0.16770000000000018,-3.0614352529079394
-0.16870000000000007,-3.0968030354045655
-0.16970000000000018,-3.135000240500921
-0.17070000000000007,-3.164709177798087
-0.17170000000000019,-3.195832826395118
-0.17270000000000008,-3.232615320191609
-0.1737000000000002,-3.2623242574887747
-0.17470000000000008,-3.2976920399854004
-0.1757000000000002,-3.328815688582431
-0.17670000000000008,-3.359939337179462
-0.1777000000000002,-3.3910629857764927
-0.17870000000000008,-3.426430768273119
-0.1797000000000002,-3.4589691281700143
-0.18070000000000008,-3.4900927767670455
-0.1817000000000002,-3.5169722914644814
-0.18270000000000008,-3.5495106513613774
-0.1837000000000002,-3.5848784338580026
-0.1847000000000001,-3.6160020824550334
-0.1857000000000002,-3.6485404423519294
-0.1867000000000001,-3.674005245749501
-0.1877000000000002,-3.7051288943465317
-0.1887000000000001,-3.7404966768431565
-0.1897000000000002,-3.7730350367400525
-0.1907000000000001,-3.8027439740372184
-0.1917000000000001,-3.8310382000345196
-0.19269999999999998,-3.8664059825311448
-0.1937000000000001,-3.896114919828311
-0.19469999999999998,-3.9258238571254775
-0.1957000000000001,-3.958362217022373
-0.19669999999999999,-3.9894858656194034
-0.1977000000000001,-4.0220242255163
-0.1987,-4.05597729671306
-0.1997000000000001,-4.084271522710361
-0.2007,-4.115395171307392
-0.2017000000000001,-4.146518819904423
-0.2027,-4.1762277572015885
-0.2037000000000001,-4.205936694498754
-0.2047,-4.238475054395651
-0.2057000000000001,-4.276672259492005
-0.2067,-4.307795908089036
-0.2077000000000001,-4.337504845386203
-0.2087,-4.374287339182693
-0.2097000000000001,-4.408240410379454
-0.2107,-4.44077877027635
-0.2117000000000001,-4.476146552772976
-0.2127,-4.510099623969737
-0.2137000000000001,-4.542637983866633
-0.2147,-4.578005766363259
-0.2157000000000001,-4.623276527958939
-0.2167,-4.658644310455566
-0.21770000000000012,-4.692597381652327
-0.2187,-4.730794586748683
-0.21970000000000012,-4.773235925744634
-0.2207,-4.811433130840991
-0.22170000000000012,-4.851045047237211
-0.2227,-4.892071674933297
-0.22370000000000012,-4.933098302629383
-0.2247,-4.974124930325469
-0.22570000000000012,-5.01656626932142
-0.2267,-5.051934051818047
-0.22770000000000012,-5.092960679514132
-0.22870000000000001,-5.145304997609139
-0.22970000000000013,-5.191990470504685
-0.23070000000000002,-5.23301709820077
-0.23170000000000013,-5.276873148496587
-0.23270000000000002,-5.327802755291728
-0.23370000000000013,-5.371658805587544
-0.23470000000000002,-5.41834427848309
-0.23570000000000013,-5.467859173978367
-0.23670000000000002,-5.513129935574048
-0.2376999999999999,-5.556985985869864
-0.23870000000000002,-5.607915592665005
-0.2396999999999999,-5.661674622059877
-0.24070000000000003,-5.712604228855018
-0.24169999999999991,-5.760704413050429
-0.24270000000000003,-5.80314575204638
-0.24369999999999992,-5.849831224941926
-0.24470000000000003,-5.905004965636663
-0.24569999999999992,-5.961593417631265
-0.24670000000000003,-6.008278890526811
-0.24769999999999992,-6.057793786022088
-0.24870000000000003,-6.111552815416958
-0.24969999999999992,-6.172385401311155
-0.25070000000000003,-6.220485585506567
-0.2516999999999999,-6.272829903601573
-0.25270000000000004,-6.323759510396714
-0.2536999999999999,-6.369030271992395
-0.25470000000000004,-6.418545167487672
-0.2556999999999999,-6.472304196882543
-0.25670000000000004,-6.5317220714768744
-0.25769999999999993,-6.5769928330725556
-0.25870000000000004,-6.632166573767292
-0.25969999999999993,-6.683096180562433
-0.26070000000000004,-6.735440498657439
-0.26169999999999993,-6.780711260253121
-0.26270000000000004,-6.827396733148667
-0.26369999999999993,-6.883985185143269
-0.26470000000000005,-6.936329503238276
-0.26569999999999994,-6.981600264833956
-0.26670000000000005,-7.028285737729503
-0.26769999999999994,-7.080630055824508
-0.26870000000000005,-7.127315528720055
-0.26969999999999994,-7.174001001615601
-0.27070000000000005,-7.230589453610202
-0.27169999999999994,-7.278689637805614
-0.27270000000000005,-7.329619244600755
-0.27369999999999994,-7.380548851395897
-0.27470000000000006,-7.421575479091982
-0.27569999999999995,-7.459772684188338
-0.27670000000000006,-7.507872868383751
-0.27769999999999995,-7.5743642994774065
-0.27870000000000006,-7.636611596671468
-0.27969999999999995,-7.69037062606634
-0.28070000000000006,-7.748373789360806
-0.28169999999999995,-7.800718107455811
-0.28270000000000006,-7.8502330029510885
-0.28369999999999995,-7.901162609746229
-0.28470000000000006,-7.960580484340561
-0.28569999999999995,-8.035560183233407
-0.28670000000000007,-8.100636903027201
-0.28769999999999996,-8.162884200221262
-0.28870000000000007,-8.240693321713838
-0.28969999999999996,-8.311428886707091
-0.29070000000000007,-8.376505606500881
-0.29169999999999996,-8.46846184099211
-0.29270000000000007,-8.551929807684147
-0.29369999999999996,-8.643886042175374
-0.2947000000000001,-8.735842276666602
-0.29569999999999996,-8.83628677895702
-0.2967000000000001,-8.940975415147031
-0.29769999999999996,-9.054152319136236
-0.2987000000000001,-9.172988068324898
-0.29969999999999997,-9.305970930512213
-0.3007000000000001,-9.440368503999391
-0.30169999999999997,-9.583254345285757
-0.3027000000000001,-9.733213743071452
-0.30369999999999997,-9.894490831256066
-0.3047000000000001,-10.058597342040411
-0.30569999999999997,-10.234021543223676
-0.3067000000000001,-10.441984104303836
-0.3077,-10.669752623582108
-0.3087000000000001,-10.89044758636105
-0.3097,-11.098410147441212
-0.3107000000000001,-11.336081645818538
-0.3117,-11.621853328391275
-0.3127000000000001,-11.921772123962665
-0.3137,-12.214617363034726
-0.3147000000000001,-12.520195003805576
-0.3157,-12.86114042707305
-0.3167000000000001,-13.217647674639037
-0.3177,-13.602449148202329
-0.3187000000000001,-13.977347642666562
-0.3197,-14.345172580631472
-0.3207000000000001,-14.755438857592333
-0.3217,-15.236440699546446
-0.3227000000000001,-15.731589654499205
-0.3237,-16.19844438345467
-0.3247000000000001,-16.70774045140608
-0.3257,-17.231183632356142
-0.3267000000000001,-17.782921039303513
-0.3277,-18.348805559249524
-0.3287000000000001,-18.94298430519284
-0.3297,-19.508868825138855
-0.3307000000000001,-20.06060623208622
-0.3317,-20.598196526034933
-0.3327000000000001,-21.248963723972853
-0.3337,-21.98461359990267
-0.3347000000000001,-22.649527910839236
-0.3357,-23.314442221775803
-0.3367000000000001,-23.97935653271237
-0.3377,-24.65841795664759
-0.3387000000000001,-25.309185154585506
-0.3397,-26.002393691519377
-0.3407000000000001,-26.709749341451893
-0.3417,-27.34636942639116
-0.3427000000000001,-27.98298951133043
-0.3437,-28.662050935265643
-0.3447000000000001,-29.35525947219951
-0.3457,-29.977732444140123
-0.3467000000000001,-30.685088094072643
-0.3477,-31.250972614018657
-0.3487000000000001,-31.74612156897142
-0.3497,-32.354447427913385
-0.3507000000000001,-32.92033194785941
-0.3517,-33.41548090281216
-0.3527000000000001,-33.96721830975953
-0.3537,-34.53310282970554
-0.3547000000000001,-34.99995755866101
-0.3557,-35.50925362661242
-0.35670000000000013,-36.00440258156518
-0.3577,-36.40052174552739
-0.35870000000000013,-36.64102266650445
-0.3597,-36.8249351354869
-0.36070000000000013,-37.15031873445586
-0.3617,-37.716203254401876
-0.3626999999999999,-38.01329262737354
-0.3637,-38.22549932235329
-0.3646999999999999,-38.5650300343209
-0.3657,-38.692354051308754
-0.3666999999999999,-38.8762665202912
-0.3677,-39.03188476327636
-0.3686999999999999,-39.130914554266916
-0.36970000000000003,-39.328974136248014
-0.3706999999999999,-39.314827023249364
-0.37170000000000003,-39.41385681423992
-0.3726999999999999,-39.38556258824262
-0.37370000000000003,-39.41385681423992
-0.3746999999999999,-39.41385681423992
-0.37570000000000003,-39.44215104023723
-0.3766999999999999,-39.35726836224533
-0.37770000000000004,-39.35726836224533
-0.3786999999999999,-39.28653279725207
-0.37970000000000004,-39.046031876275016
-0.3806999999999999,-38.93285497228581
-0.38170000000000004,-38.94700208528445
-0.38269999999999993,-38.706501164307404
-0.38370000000000004,-38.38111756533845
-0.38469999999999993,-38.35282333934114
-0.38570000000000004,-38.12646953136274
-0.38669999999999993,-37.36252542943562
-0.38570000000000004,-36.07513814655844
-0.38469999999999993,-34.81604508967855
-0.38370000000000004,-33.740864501781125
-0.38269999999999993,-32.764713704874254
-0.38170000000000004,-31.632944664982226
-0.3806999999999999,-30.45873428609424
-0.37970000000000004,-29.42599503719276
-0.3786999999999999,-28.53472691827779
-0.37770000000000004,-27.615164573365515
-0.3766999999999999,-26.69560222845324
-0.37570000000000003,-25.81848122253692
-0.3746999999999999,-24.95550732961925
-0.37370000000000003,-24.16326900169483
-0.3726999999999999,-23.314442221775803
-0.37170000000000003,-22.479762554855434
-0.3706999999999999,-21.758259791924264
-0.36970000000000003,-21.13578681998365
-0.3686999999999999,-20.47087250904708
-0.3677,-19.77766397211321
-0.3666999999999999,-19.155191000172596
-0.3657,-18.631747819222536
-0.3646999999999999,-18.05171618627787
-0.3637,-17.499978779330505
-0.3626999999999999,-16.962388485381787
-0.3617,-16.481386643427676
-0.36070000000000013,-15.986237688474914
-0.3597,-15.491088733522153
-0.35870000000000013,-15.02423400456669
-0.3577,-14.684703292599082
-0.35670000000000013,-14.24614278964092
-0.3557,-13.83304709008033
-0.3547000000000001,-13.425610235719198
-0.3537,-13.032320494356718
-0.3527000000000001,-12.70410747278803
-0.3517,-12.407018099816371
-0.3507000000000001,-12.053340274850113
-0.3497,-11.702491872483584
-0.3487000000000001,-11.395499520412871
-0.3477,-11.13660735253757
-0.3467000000000001,-10.842347402165641
-0.3457,-10.548087451793712
-0.3447000000000001,-10.277877593519491
-0.3437,-9.997764756146214
-0.3427000000000001,-9.750190278669832
-0.3417,-9.516762914192102
-0.3407000000000001,-9.264944302816126
-0.3397,-9.03293164963826
-0.3387000000000001,-8.837701490256883
-0.3377,-8.618421238777803
-0.3367000000000001,-8.406214543798049
-0.3357,-8.208154961816943
-0.3347000000000001,-7.991704132937592
-0.3337,-7.780912149257703
-0.3327000000000001,-7.6083173706741665
-0.3317,-7.451284416389148
-0.3307000000000001,-7.261713102207232
-0.3297,-7.093362457523294
-0.3287000000000001,-6.913694122440434
-0.3277,-6.759490590755146
-0.3267000000000001,-6.601042925170261
-0.3257,-6.4397658369856465
-0.3247000000000001,-6.2954652843994126
-0.3237,-6.128529351015339
-0.3227000000000001,-5.97149639673032
-0.3217,-5.832854689343546
-0.3207000000000001,-5.719677785354343
-0.3197,-5.58952434576676
-0.3187000000000001,-5.452297349679851
-0.3177,-5.320729198792402
-0.3167000000000001,-5.197649315704145
-0.3157,-5.068910587416426
-0.3147000000000001,-4.9571483947270885
-0.3137,-4.835483222938696
-0.3127000000000001,-4.727965164148953
-0.3117,-4.61761768275948
-0.3107000000000001,-4.494537799671222
-0.3097,-4.381360895682018
-0.3087000000000001,-4.303551774189442
-0.3077,-4.20452198319889
-0.3067000000000001,-4.102662769608606
-0.30569999999999997,-3.992315288219133
-0.3047000000000001,-3.8989443424280408
-0.30369999999999997,-3.8140616644361387
-0.3027000000000001,-3.7178612960453163
-0.30169999999999997,-3.627319772853954
-0.3007000000000001,-3.5282899818634013
-0.29969999999999997,-3.437748458672039
-0.2987000000000001,-3.361354048479327
-0.29769999999999996,-3.2934479060858055
-0.2967000000000001,-3.208565228093903
-0.29569999999999996,-3.1279266840015962
-0.2947000000000001,-3.0487028512091543
-0.29369999999999996,-2.9666495958169823
-0.29270000000000007,-2.88742576302454
-0.29169999999999996,-2.8124460641316933
-0.29070000000000007,-2.7516134782374966
-0.28969999999999996,-2.6766337793446495
-0.28870000000000007,-2.6044835030515325
-0.28769999999999996,-2.5408214945576058
-0.28670000000000007,-2.467256506964624
-0.28569999999999995,-2.4021797871708324
-0.28470000000000006,-2.3371030673770408
-0.28369999999999995,-2.2748557701829792
-0.28270000000000006,-2.215437895588648
-0.28169999999999995,-2.150361175794856
-0.28070000000000006,-2.0881138786007942
-0.27969999999999995,-2.0272812927065975
-0.27870000000000006,-1.967863418112266
-0.27769999999999995,-1.9169338113171246
-0.27670000000000006,-1.8589306480226582
-0.27569999999999995,-1.7966833508285964
-0.27470000000000006,-1.7415096101338603
-0.27369999999999994,-1.6919947146385839
-0.27270000000000005,-1.6368209739438475
-0.27169999999999994,-1.5816472332491107
-0.27070000000000005,-1.5363764716534298
-0.26969999999999994,-1.4840321535584236
-0.26870000000000005,-1.4373466806628774
