Potential V vs RHE, Current mA cm-2
0.013299999999999867,15.05252823056399
0.012299999999999978,13.213403540739444
0.011299999999999866,11.38135240741422
0.010299999999999976,9.549301274088998
0.009299999999999864,7.848818291651225
0.008299999999999974,6.060623208621817
0.007299999999999862,4.272428125592412
0.006299999999999972,2.6143864821505876
0.00529999999999986,1.0010497157844997
0.0042999999999999705,-0.5692798270656908
0.0032999999999998586,-2.095187435100119
0.0022999999999999687,-3.579219588658543
0.0012999999999998568,-5.017980980621284
0.00029999999999996696,-6.414301033588076
-0.000700000000000145,-7.896918475846635
-0.0017000000000000348,-9.24938247851761
-0.0027000000000001467,-10.688143870480351
-0.0037000000000000366,-12.170761312738911
-0.0047000000000001485,-13.610937416001518
-0.005700000000000038,-15.094969569559943
-0.00670000000000015,-16.495533756426326
-0.00770000000000004,-17.839509491298113
-0.008700000000000152,-19.197632339168546
-0.009700000000000042,-20.499166735044383
-0.010700000000000154,-21.772406904922917
-0.011700000000000044,-22.989058622806844
-0.012700000000000156,-24.16326900169483
-0.013700000000000045,-25.43650917157336
-0.014700000000000157,-26.61071955046134
-0.015700000000000047,-27.869812607341224
-0.01670000000000016,-29.14305277721976
-0.01770000000000005,-30.402145834099635
-0.01870000000000016,-31.661238890979522
-0.01970000000000005,-32.892037721862096
-0.020700000000000163,-34.10868943974604
-0.021700000000000053,-35.32534115762997
-0.022700000000000164,-36.47125731052064
-0.023700000000000054,-37.56058501141672
-0.024700000000000166,-38.6499127123128
-0.025700000000000056,-39.654357735216976
-0.026700000000000168,-40.743685436113054
-0.027700000000000058,-41.83301313700913
-0.02870000000000017,-42.87989949890926
-0.02970000000000006,-44.011668538801295
-0.03070000000000017,-45.18587891768927
-0.03170000000000006,-46.3176479575813
-0.03270000000000017,-47.506005449467935
-0.03370000000000006,-48.63777448935996
-0.034700000000000175,-49.72710219025603
-0.035700000000000065,-50.77398855215617
-0.03670000000000018,-51.77843357506035
-0.03770000000000007,-52.74043725896857
-0.03870000000000018,-53.74488228187274
-0.03970000000000007,-54.69273885278232
-0.04070000000000018,-55.6971838756865
-0.04170000000000007,-56.70162889859067
-0.04270000000000018,-57.7485152604908
-0.04370000000000007,-58.79540162239092
-0.044700000000000184,-59.7998466452951
-0.045700000000000074,-60.889174346191176
-0.046700000000000186,-61.936060708091304
-0.047700000000000076,-62.94050573099548
-0.04870000000000019,-63.902509414903705
-0.04970000000000008,-64.82207175981598
-0.05070000000000019,-65.7274869917296
-0.05170000000000008,-66.60460799764593
-0.05270000000000019,-67.48172900356225
-0.05370000000000008,-68.34470289647993
-0.05470000000000019,-69.26426524139221
-0.05570000000000008,-70.26871026429637
-0.056700000000000195,-71.31559662619651
-0.057700000000000085,-72.36248298809663
-0.058700000000000196,-73.45181068899271
-0.059700000000000086,-74.58357972888473
-0.0607000000000002,-75.63046609078486
-0.06170000000000009,-76.71979379168094
-0.0627000000000002,-77.7242388145851
-0.06370000000000009,-78.64380115949739
-0.0647000000000002,-79.56336350440966
-0.06570000000000009,-80.34145471933543
-0.0667000000000002,-81.1761343862558
-0.0677000000000001,-81.99666694017753
-0.0687000000000002,-82.8313466070979
-0.0697000000000001,-83.75090895201016
-0.07070000000000021,-84.6563241839238
-0.0717000000000001,-85.61832786783202
-0.07270000000000021,-86.66521422973216
-0.0737000000000001,-87.62721791364037
-0.07470000000000021,-88.5892215975486
-0.0757000000000001,-89.55122528145681
-0.07670000000000021,-90.51322896536506
-0.0777000000000001,-91.41864419727867
-0.07870000000000021,-92.3806478811869
-0.0797000000000001,-93.30021022609918
-0.08070000000000022,-94.30465524900335
-0.0817000000000001,-95.22421759391563
-0.08270000000000022,-96.12963282582925
-0.08370000000000011,-97.09163650973747
-0.08470000000000022,-98.01119885464975
-0.08570000000000011,-98.93076119956201
-0.08670000000000022,-99.7937350924797
-0.08770000000000011,-100.670856098396
-0.08870000000000022,-101.50553576531638
-0.08970000000000011,-102.3260683192381
-0.09070000000000022,-103.16074798615847
-0.09170000000000011,-103.93883920108425
-0.09270000000000023,-104.77351886800463
-0.09370000000000012,-105.69308121291688
-0.09470000000000023,-106.64093778382647
-0.09570000000000012,-107.6029414677347
-0.09670000000000023,-108.64982782963483
-0.09770000000000012,-109.654272852539
-0.09870000000000023,-110.74360055343507
-0.09970000000000012,-111.83292825433115
-0.10070000000000023,-112.79493193823936
-0.10170000000000012,-113.75693562214758
-0.10270000000000024,-114.57746817606933
-0.10370000000000013,-115.32726516499778
-0.10470000000000024,-116.06291504092759
-0.10570000000000013,-116.81271202985609
-0.10670000000000024,-117.59080324478184
-0.10770000000000013,-118.38304157270628
-0.10870000000000024,-119.20357412662798
-0.10970000000000013,-120.16557781053622
-0.11070000000000024,-121.12758149444444
-0.11170000000000013,-122.1320265173486
-0.11270000000000002,-123.26379555724066
-0.11370000000000013,-124.26824058014482
-0.11470000000000002,-125.31512694204494
-0.11570000000000014,-126.27713062595316
-0.11670000000000003,-127.14010451887084
-0.11770000000000014,-128.05966686378312
-0.11870000000000003,-128.89434653070347
-0.11970000000000014,-129.7148790846252
-0.12070000000000003,-130.5495587515456
-0.12170000000000014,-131.37009130546733
-0.12270000000000003,-132.33209498937555
-0.12370000000000014,-133.29409867328377
-0.12470000000000003,-134.256102357192
-0.12570000000000014,-135.26054738009617
-0.12670000000000003,-136.2225510640044
-0.12770000000000015,-137.22699608690854
-0.12870000000000004,-138.17485265781812
-0.12970000000000015,-139.05197366373446
-0.13070000000000004,-139.97153600864672
-0.13170000000000015,-140.84865701456303
-0.13270000000000004,-141.61260111649017
-0.13370000000000015,-142.4614278964092
-0.13470000000000004,-143.3102546763282
-0.13570000000000015,-144.30055258623375
-0.13670000000000004,-145.29085049613926
-0.13770000000000016,-146.1396772760583
-0.13870000000000005,-147.1299751859638
-0.13970000000000016,-148.26174422585584
-0.14070000000000005,-149.1105710057749
-0.14170000000000016,-150.24234004566688
-0.14270000000000005,-151.09116682558593
-0.14370000000000016,-152.0814647354914
-0.14470000000000005,-152.93029151541046
-0.14570000000000016,-153.77911829532948
-0.14670000000000005,-154.76941620523502
-0.14770000000000016,-155.75971411514055
-0.14870000000000005,-156.60854089505958
-0.14970000000000017,-157.59883880496508
-0.15070000000000006,-158.5891367148706
-0.15170000000000017,-159.57943462477613
-0.15270000000000006,-160.71120366466818
-0.15370000000000017,-161.5600304445872
-0.15470000000000006,-162.40885722450622
-0.15570000000000017,-163.39915513441173
-0.15670000000000006,-164.10651078434424
-0.15770000000000017,-164.9553375642633
-0.15870000000000006,-165.8041643441823
-0.15970000000000018,-166.51151999411482
-0.16070000000000007,-167.50181790402033
-0.16170000000000018,-168.35064468393938
-0.16270000000000007,-169.19947146385837
-0.16370000000000018,-170.18976937376394
-0.16470000000000007,-171.18006728366944
-0.16570000000000018,-172.31183632356147
-0.16670000000000007,-173.302134233467
-0.16770000000000018,-174.2924321433725
-0.16870000000000007,-175.28273005327804
-0.16970000000000018,-176.27302796318358
-0.17070000000000007,-177.2633258730891
-0.17170000000000019,-178.3950949129811
-0.17270000000000008,-179.38539282288664
-0.1737000000000002,-180.37569073279218
-0.17470000000000008,-181.36598864269772
-0.1757000000000002,-182.21481542261674
-0.17670000000000008,-183.06364220253573
-0.1777000000000002,-183.91246898245475
-0.17870000000000008,-184.9027668923603
-0.1797000000000002,-185.7515936722793
-0.18070000000000008,-186.74189158218485
-0.1817000000000002,-187.59071836210387
-0.18270000000000008,-188.4395451420229
-0.1837000000000002,-189.1469007919554
-0.1847000000000001,-189.99572757187443
-0.1857000000000002,-190.70308322180696
-0.1867000000000001,-191.551910001726
-0.1877000000000002,-192.54220791163152
-0.1887000000000001,-193.3910346915505
-0.1897000000000002,-194.52280373144254
-0.1907000000000001,-195.65457277133459
-0.1917000000000001,-196.7863418112266
-0.19269999999999998,-198.05958198110514
-0.1937000000000001,-199.19135102099716
-0.19469999999999998,-200.3231200608892
-0.1957000000000001,-201.31341797079472
-0.19669999999999999,-202.30371588070025
-0.1977000000000001,-203.15254266061928
-0.1987,-204.0013694405383
-0.1997000000000001,-204.8501962204573
-0.2007,-205.69902300037634
-0.2017000000000001,-206.54784978029537
-0.2027,-207.67961882018741
-0.2037000000000001,-208.6699167300929
-0.2047,-209.66021463999843
-0.2057000000000001,-210.79198367989048
-0.2067,-211.782281589796
-0.2077000000000001,-212.914050629688
-0.2087,-214.04581966958003
-0.2097000000000001,-214.89464644949908
-0.2107,-215.88494435940459
-0.2117000000000001,-216.87524226931012
-0.2127,-217.72406904922914
-0.2137000000000001,-218.57289582914817
-0.2147,-219.5631937390537
-0.2157000000000001,-220.5534916489592
-0.2167,-221.40231842887826
-0.21770000000000012,-222.25114520879725
-0.2187,-223.09997198871628
-0.21970000000000012,-224.09026989862178
-0.2207,-225.08056780852735
-0.22170000000000012,-226.07086571843288
-0.2227,-226.91969249835188
-0.22370000000000012,-227.9099904082574
-0.2247,-229.04175944814943
-0.22570000000000012,-230.03205735805497
-0.2267,-231.0223552679605
-0.22770000000000012,-232.01265317786604
-0.22870000000000001,-233.1444222177581
-0.22970000000000013,-234.13472012766357
-0.23070000000000002,-235.12501803756908
-0.23170000000000013,-236.25678707746113
-0.23270000000000002,-237.10561385738015
-0.23370000000000013,-238.0959117672857
-0.23470000000000002,-238.94473854720468
-0.23570000000000013,-239.7935653271237
-0.23670000000000002,-240.64239210704275
-0.2376999999999999,-241.34974775697523
-0.23870000000000002,-242.19857453689428
-0.2396999999999999,-243.04740131681334
-0.24070000000000003,-244.03769922671884
-0.24169999999999991,-245.02799713662432
-0.24270000000000003,-246.01829504652986
-0.24369999999999992,-247.1500640864219
-0.24470000000000003,-248.28183312631393
-0.24569999999999992,-249.41360216620598
-0.24670000000000003,-250.545371206098
-0.24769999999999992,-251.53566911600356
-0.24870000000000003,-252.66743815589555
-0.24969999999999992,-253.51626493581452
-0.25070000000000003,-254.36509171573357
-0.2516999999999999,-255.21391849565262
-0.25270000000000004,-255.92127414558513
-0.2536999999999999,-256.77010092550415
-0.25470000000000004,-257.6189277054232
-0.2556999999999999,-258.4677544853422
-0.25670000000000004,-259.4580523952477
-0.25769999999999993,-260.4483503051532
-0.25870000000000004,-261.4386482150588
-0.25969999999999993,-262.42894612496434
-0.26070000000000004,-263.56071516485633
-0.26169999999999993,-264.55101307476184
-0.26270000000000004,-265.39983985468086
-0.26369999999999993,-266.3901377645864
-0.26470000000000005,-267.23896454450545
-0.26569999999999994,-268.22926245441096
-0.26670000000000005,-269.07808923433
-0.26769999999999994,-270.0683871442355
-0.26870000000000005,-270.9172139241545
-0.26969999999999994,-272.04898296404656
-0.27070000000000005,-273.03928087395207
-0.27169999999999994,-274.1710499138441
-0.27270000000000005,-275.30281895373616
-0.27369999999999994,-276.43458799362816
-0.27470000000000006,-277.56635703352015
-0.27569999999999995,-278.5566549434257
-0.27670000000000006,-279.5469528533313
-0.27769999999999995,-280.5372507632368
-0.27870000000000006,-281.3860775431558
-0.27969999999999995,-282.09343319308834
-0.28070000000000006,-282.8007888430208
-0.28169999999999995,-283.3666733629668
-0.28270000000000006,-284.07402901289936
-0.28369999999999995,-284.7813846628319
-0.28470000000000006,-285.7716825727374
-0.28569999999999995,-286.76198048264297
-0.28670000000000007,-287.893749522535
-0.28769999999999996,-289.1669896924135
-0.28870000000000007,-290.86464325225154
-0.28969999999999996,-292.4208256821031
-0.29070000000000007,-293.8355369819681
-0.29169999999999996,-295.10877715184665
-0.29270000000000007,-296.52348845171167
-0.29369999999999996,-297.6552574916037
-0.2947000000000001,-298.78702653149577
-0.29569999999999996,-299.7773244414013
-0.2967000000000001,-300.76762235130684
-0.29769999999999996,-301.6164491312258
-0.2987000000000001,-302.4652759111449
-0.29969999999999997,-303.31410269106385
-0.3007000000000001,-304.0214583409964
-0.30169999999999997,-304.72881399092887
-0.3027000000000001,-305.43616964086146
-0.30369999999999997,-306.28499642078043
-0.3047000000000001,-307.27529433068594
-0.30569999999999997,-308.2655922405915
-0.3067000000000001,-309.53883241047004
-0.3077,-310.81207258034857
-0.3087000000000001,-312.0853127502271
-0.3097,-313.35855292010564
-0.3107000000000001,-314.49032195999763
-0.3117,-315.6220909998897
-0.3127000000000001,-316.6123889097952
-0.3137,-317.60268681970075
-0.3147000000000001,-318.59298472960626
-0.3157,-319.30034037953874
-0.3167000000000001,-320.1491671594578
-0.3177,-320.9979939393768
-0.3187000000000001,-321.7053495893094
-0.3197,-322.5541763692284
-0.3207000000000001,-323.40300314914737
-0.3217,-324.25182992906645
-0.3227000000000001,-325.3835989689584
-0.3237,-326.373896878864
-0.3247000000000001,-327.3641947887695
-0.3257,-328.4959638286615
-0.3267000000000001,-329.48626173856707
-0.3277,-330.33508851848603
-0.3287000000000001,-331.3253864283916
-0.3297,-332.1742132083106
-0.3307000000000001,-333.02303998822964
-0.3317,-333.87186676814866
-0.3327000000000001,-334.5792224180812
-0.3337,-335.42804919800017
-0.3347000000000001,-336.27687597791925
-0.3357,-337.40864501781124
-0.3367000000000001,-338.5404140577033
-0.3377,-339.8136542275818
-0.3387000000000001,-341.0868943974603
-0.3397,-342.21866343735235
-0.3407000000000001,-343.49190360723094
-0.3417,-344.7651437771094
-0.3427000000000001,-345.7554416870149
-0.3437,-346.88721072690697
-0.3447000000000001,-347.87750863681254
-0.3457,-348.86780654671804
-0.3467000000000001,-349.71663332663707
-0.3477,-350.7069312365426
-0.3487000000000001,-351.5557580164616
-0.3497,-352.54605592636716
-0.3507000000000001,-353.5363538362726
-0.3517,-354.66812287616466
-0.3527000000000001,-355.7998919160567
-0.3537,-357.07313208593524
-0.3547000000000001,-358.20490112582723
-0.3557,-359.3366701657193
-0.35670000000000013,-360.3269680756248
-0.3577,-361.17579485554387
-0.35870000000000013,-362.16609276544943
-0.3597,-362.87344841538186
-0.36070000000000013,-363.8637463252875
-0.3617,-364.57110197521996
-0.3626999999999999,-365.419928755139
-0.3637,-366.268755535058
-0.3646999999999999,-367.117582314977
-0.3657,-368.10788022488254
-0.3666999999999999,-369.09817813478804
-0.3677,-370.0884760446936
-0.3686999999999999,-371.2202450845856
-0.36970000000000003,-372.35201412447765
-0.3706999999999999,-373.34231203438316
-0.37170000000000003,-374.4740810742752
-0.3726999999999999,-375.4643789841807
-0.37370000000000003,-376.7376191540593
-0.3746999999999999,-377.7279170639648
-0.37570000000000003,-378.7182149738703
-0.3766999999999999,-379.7085128837758
-0.37770000000000004,-380.55733966369485
-0.3786999999999999,-381.6891087035869
-0.37970000000000004,-383.103820003452
-0.3806999999999999,-384.518531303317
-0.38170000000000004,-386.0747137331685
-0.38269999999999993,-387.347953903047
-0.38370000000000004,-388.7626652029121
-0.38469999999999993,-389.8944342428041
-0.38570000000000004,-391.16767441268263
-0.38669999999999993,-391.02620328269614
-0.38570000000000004,-388.19678068296605
-0.38469999999999993,-385.5088292132225
-0.38370000000000004,-382.82087774347895
-0.38269999999999993,-380.41586853370836
-0.38170000000000004,-378.1523304539243
-0.3806999999999999,-376.17173463411325
-0.37970000000000004,-373.76672542434267
-0.3786999999999999,-371.0787739545991
-0.37770000000000004,-367.8249379649095
-0.3766999999999999,-364.28815971524693
-0.37570000000000003,-360.6099103355978
-0.3746999999999999,-356.93166095594876
-0.37370000000000003,-353.5363538362726
-0.3726999999999999,-350.5654601065561
-0.37170000000000003,-347.87750863681254
-0.3706999999999999,-345.6139705570285
-0.36970000000000003,-343.7748458672039
-0.3686999999999999,-341.9357211773794
-0.3677,-340.3795387475279
-0.3666999999999999,-338.6818851876898
-0.3657,-336.70128936787876
-0.3646999999999999,-334.5792224180812
-0.3637,-332.1742132083106
-0.3626999999999999,-329.62773286855355
-0.3617,-326.656839138837
-0.36070000000000013,-323.68594540912045
-0.3597,-320.8565228093903
-0.35870000000000013,-317.8856290796738
-0.3577,-315.0562064799437
-0.35670000000000013,-312.36825501020013
-0.3557,-309.9632458004295
-0.3547000000000001,-307.55823659065896
-0.3537,-305.43616964086146
-0.3527000000000001,-303.4555738210504
-0.3517,-301.33350687125284
-0.3507000000000001,-299.3529110514418
-0.3497,-297.23084410164427
-0.3487000000000001,-295.10877715184665
-0.3477,-292.8452390720626
-0.3467000000000001,-290.5817009922785
-0.3457,-288.176691782508
-0.3447000000000001,-285.7716825727374
-0.3437,-283.3666733629668
-0.3427000000000001,-280.9616641531963
-0.3417,-278.6981260734122
-0.3407000000000001,-276.43458799362816
-0.3397,-274.31252104383066
-0.3387000000000001,-272.1904540940331
-0.3377,-270.0683871442355
-0.3367000000000001,-267.94632019443793
-0.3357,-265.82425324464043
-0.3347000000000001,-263.84365742482936
-0.3337,-261.58011934504526
-0.3327000000000001,-259.4580523952477
-0.3317,-257.33598544545015
-0.3307000000000001,-255.21391849565262
-0.3297,-253.09185154585506
-0.3287000000000001,-250.828313466071
-0.3277,-248.84771764625998
-0.3267000000000001,-246.7256506964624
-0.3257,-244.46211261667833
-0.3247000000000001,-242.34004566688077
-0.3237,-240.21797871708318
-0.3227000000000001,-238.0959117672857
-0.3217,-235.97384481748813
-0.3207000000000001,-233.71030673770406
-0.3197,-231.5882397879065
-0.3187000000000001,-229.46617283810895
-0.3177,-227.34410588831142
-0.3167000000000001,-225.36351006850035
-0.3157,-223.38291424868927
-0.3147000000000001,-221.40231842887826
-0.3137,-219.5631937390537
-0.3127000000000001,-217.58259791924263
-0.3117,-215.6020020994316
-0.3107000000000001,-213.62140627962054
-0.3097,-211.499339329823
-0.3087000000000001,-209.51874351001192
-0.3077,-207.5381476902009
-0.3067000000000001,-205.55755187038983
-0.30569999999999997,-203.57695605057876
-0.3047000000000001,-201.4548891007812
-0.30369999999999997,-199.47429328097016
-0.3027000000000001,-197.49369746115914
-0.30169999999999997,-195.51310164134807
-0.3007000000000001,-193.6739769515235
-0.29969999999999997,-191.551910001726
-0.2987000000000001,-189.57131418191491
-0.29769999999999996,-187.59071836210387
-0.2967000000000001,-185.46865141230631
-0.29569999999999996,-183.48805559249527
-0.2947000000000001,-181.5074597726842
-0.29369999999999996,-179.38539282288664
-0.29270000000000007,-177.4047970030756
-0.29169999999999996,-175.28273005327804
-0.29070000000000007,-173.44360536345349
-0.28969999999999996,-171.60448067362896
-0.28870000000000007,-169.7653559838044
-0.28769999999999996,-167.92623129397984
-0.28670000000000007,-166.0871066041553
-0.28569999999999995,-164.24798191433075
-0.28470000000000006,-162.5503283544927
-0.28369999999999995,-160.71120366466818
-0.28270000000000006,-158.87207897484362
-0.28169999999999995,-156.89148315503257
-0.28070000000000006,-155.05235846520802
-0.27969999999999995,-153.07176264539694
-0.27870000000000006,-151.23263795557244
-0.27769999999999995,-149.25204213576137
-0.27670000000000006,-147.4129174459368
-0.27569999999999995,-145.57379275611228
-0.27470000000000006,-143.73466806628772
-0.27369999999999994,-141.89554337646317
-0.27270000000000005,-140.01397734764268
-0.27169999999999994,-138.13241131882216
-0.27070000000000005,-136.26499240300032
-0.26969999999999994,-134.38342637417986
-0.26870000000000005,-132.55844879735392
-0.26769999999999994,-130.67688276853346
