Dec. 18, 2024   20:35:42
Cyclic Voltammetry
File: c:/users/guazh/data/banditlqround7_x0exp667_r5/2024-12-16-exp694\exp694-2024-12-18t20_26_54-h2koh\exp694_cv_sr_800mvs_efin_-1400mv.bin
Data Source:  Experiment
Instrument Model:  CHI760E
Header: CV ran at 800 mVs
Note: 

Init E (V) = -1
High E (V) = -1
Low E (V) = -1.4
Final E (V) = -1
Init P/N = N
Scan Rate (V/s) = 0.8
Segment = 3
Sample Interval (V) = 0.001
Quiet Time (sec) = 2
Sensitivity (A/V) = 0.01
Comp R (ohm) = 1.1

Results:

Channel 1:
Segment 1:

Segment 2:

Segment 3:

Potential/V, Current/A

-1.000, -1.064e-3
-1.001, -9.340e-4
-1.002, -8.045e-4
-1.003, -6.750e-4
-1.004, -5.548e-4
-1.005, -4.284e-4
-1.006, -3.020e-4
-1.007, -1.848e-4
-1.008, -7.076e-5
-1.009, 4.024e-5
-1.010, 1.481e-4
-1.011, 2.530e-4
-1.012, 3.547e-4
-1.013, 4.534e-4
-1.014, 5.582e-4
-1.015, 6.538e-4
-1.016, 7.555e-4
-1.017, 8.603e-4
-1.018, 9.621e-4
-1.019, 1.067e-3
-1.020, 1.166e-3
-1.021, 1.261e-3
-1.022, 1.357e-3
-1.023, 1.449e-3
-1.024, 1.539e-3
-1.025, 1.625e-3
-1.026, 1.708e-3
-1.027, 1.798e-3
-1.028, 1.881e-3
-1.029, 1.970e-3
-1.030, 2.060e-3
-1.031, 2.149e-3
-1.032, 2.238e-3
-1.033, 2.325e-3
-1.034, 2.411e-3
-1.035, 2.497e-3
-1.036, 2.578e-3
-1.037, 2.655e-3
-1.038, 2.732e-3
-1.039, 2.803e-3
-1.040, 2.880e-3
-1.041, 2.957e-3
-1.042, 3.031e-3
-1.043, 3.111e-3
-1.044, 3.194e-3
-1.045, 3.274e-3
-1.046, 3.358e-3
-1.047, 3.438e-3
-1.048, 3.515e-3
-1.049, 3.589e-3
-1.050, 3.660e-3
-1.051, 3.728e-3
-1.052, 3.799e-3
-1.053, 3.866e-3
-1.054, 3.937e-3
-1.055, 4.008e-3
-1.056, 4.082e-3
-1.057, 4.156e-3
-1.058, 4.227e-3
-1.059, 4.304e-3
-1.060, 4.378e-3
-1.061, 4.449e-3
-1.062, 4.517e-3
-1.063, 4.582e-3
-1.064, 4.646e-3
-1.065, 4.708e-3
-1.066, 4.770e-3
-1.067, 4.831e-3
-1.068, 4.896e-3
-1.069, 4.967e-3
-1.070, 5.041e-3
-1.071, 5.115e-3
-1.072, 5.192e-3
-1.073, 5.272e-3
-1.074, 5.346e-3
-1.075, 5.423e-3
-1.076, 5.494e-3
-1.077, 5.559e-3
-1.078, 5.624e-3
-1.079, 5.679e-3
-1.080, 5.738e-3
-1.081, 5.796e-3
-1.082, 5.855e-3
-1.083, 5.920e-3
-1.084, 5.984e-3
-1.085, 6.052e-3
-1.086, 6.126e-3
-1.087, 6.194e-3
-1.088, 6.262e-3
-1.089, 6.330e-3
-1.090, 6.398e-3
-1.091, 6.462e-3
-1.092, 6.530e-3
-1.093, 6.595e-3
-1.094, 6.666e-3
-1.095, 6.731e-3
-1.096, 6.795e-3
-1.097, 6.863e-3
-1.098, 6.928e-3
-1.099, 6.993e-3
-1.100, 7.054e-3
-1.101, 7.116e-3
-1.102, 7.175e-3
-1.103, 7.233e-3
-1.104, 7.292e-3
-1.105, 7.347e-3
-1.106, 7.406e-3
-1.107, 7.471e-3
-1.108, 7.538e-3
-1.109, 7.606e-3
-1.110, 7.680e-3
-1.111, 7.751e-3
-1.112, 7.828e-3
-1.113, 7.905e-3
-1.114, 7.973e-3
-1.115, 8.041e-3
-1.116, 8.099e-3
-1.117, 8.152e-3
-1.118, 8.204e-3
-1.119, 8.257e-3
-1.120, 8.312e-3
-1.121, 8.368e-3
-1.122, 8.426e-3
-1.123, 8.494e-3
-1.124, 8.562e-3
-1.125, 8.633e-3
-1.126, 8.713e-3
-1.127, 8.784e-3
-1.128, 8.858e-3
-1.129, 8.926e-3
-1.130, 8.987e-3
-1.131, 9.052e-3
-1.132, 9.111e-3
-1.133, 9.169e-3
-1.134, 9.228e-3
-1.135, 9.286e-3
-1.136, 9.354e-3
-1.137, 9.422e-3
-1.138, 9.490e-3
-1.139, 9.561e-3
-1.140, 9.629e-3
-1.141, 9.700e-3
-1.142, 9.767e-3
-1.143, 9.829e-3
-1.144, 9.894e-3
-1.145, 9.956e-3
-1.146, 1.001e-2
-1.147, 1.007e-2
-1.148, 1.013e-2
-1.149, 1.020e-2
-1.150, 1.027e-2
-1.151, 1.033e-2
-1.152, 1.040e-2
-1.153, 1.048e-2
-1.154, 1.054e-2
-1.155, 1.062e-2
-1.156, 1.068e-2
-1.157, 1.075e-2
-1.158, 1.081e-2
-1.159, 1.087e-2
-1.160, 1.094e-2
-1.161, 1.101e-2
-1.162, 1.107e-2
-1.163, 1.114e-2
-1.164, 1.121e-2
-1.165, 1.128e-2
-1.166, 1.136e-2
-1.167, 1.142e-2
-1.168, 1.148e-2
-1.169, 1.155e-2
-1.170, 1.160e-2
-1.171, 1.166e-2
-1.172, 1.172e-2
-1.173, 1.177e-2
-1.174, 1.184e-2
-1.175, 1.190e-2
-1.176, 1.196e-2
-1.177, 1.203e-2
-1.178, 1.210e-2
-1.179, 1.218e-2
-1.180, 1.225e-2
-1.181, 1.232e-2
-1.182, 1.239e-2
-1.183, 1.246e-2
-1.184, 1.253e-2
-1.185, 1.261e-2
-1.186, 1.268e-2
-1.187, 1.275e-2
-1.188, 1.282e-2
-1.189, 1.288e-2
-1.190, 1.294e-2
-1.191, 1.300e-2
-1.192, 1.307e-2
-1.193, 1.313e-2
-1.194, 1.320e-2
-1.195, 1.326e-2
-1.196, 1.332e-2
-1.197, 1.337e-2
-1.198, 1.343e-2
-1.199, 1.348e-2
-1.200, 1.354e-2
-1.201, 1.361e-2
-1.202, 1.367e-2
-1.203, 1.375e-2
-1.204, 1.383e-2
-1.205, 1.391e-2
-1.206, 1.400e-2
-1.207, 1.408e-2
-1.208, 1.416e-2
-1.209, 1.423e-2
-1.210, 1.430e-2
-1.211, 1.436e-2
-1.212, 1.442e-2
-1.213, 1.448e-2
-1.214, 1.454e-2
-1.215, 1.460e-2
-1.216, 1.468e-2
-1.217, 1.475e-2
-1.218, 1.482e-2
-1.219, 1.490e-2
-1.220, 1.497e-2
-1.221, 1.505e-2
-1.222, 1.513e-2
-1.223, 1.519e-2
-1.224, 1.526e-2
-1.225, 1.533e-2
-1.226, 1.539e-2
-1.227, 1.545e-2
-1.228, 1.552e-2
-1.229, 1.559e-2
-1.230, 1.565e-2
-1.231, 1.571e-2
-1.232, 1.577e-2
-1.233, 1.584e-2
-1.234, 1.591e-2
-1.235, 1.598e-2
-1.236, 1.604e-2
-1.237, 1.611e-2
-1.238, 1.619e-2
-1.239, 1.626e-2
-1.240, 1.633e-2
-1.241, 1.640e-2
-1.242, 1.648e-2
-1.243, 1.655e-2
-1.244, 1.662e-2
-1.245, 1.670e-2
-1.246, 1.676e-2
-1.247, 1.683e-2
-1.248, 1.689e-2
-1.249, 1.695e-2
-1.250, 1.701e-2
-1.251, 1.706e-2
-1.252, 1.712e-2
-1.253, 1.718e-2
-1.254, 1.725e-2
-1.255, 1.732e-2
-1.256, 1.739e-2
-1.257, 1.747e-2
-1.258, 1.755e-2
-1.259, 1.763e-2
-1.260, 1.771e-2
-1.261, 1.778e-2
-1.262, 1.786e-2
-1.263, 1.792e-2
-1.264, 1.798e-2
-1.265, 1.804e-2
-1.266, 1.809e-2
-1.267, 1.815e-2
-1.268, 1.821e-2
-1.269, 1.827e-2
-1.270, 1.834e-2
-1.271, 1.841e-2
-1.272, 1.848e-2
-1.273, 1.855e-2
-1.274, 1.863e-2
-1.275, 1.870e-2
-1.276, 1.876e-2
-1.277, 1.883e-2
-1.278, 1.889e-2
-1.279, 1.896e-2
-1.280, 1.902e-2
-1.281, 1.909e-2
-1.282, 1.915e-2
-1.283, 1.923e-2
-1.284, 1.930e-2
-1.285, 1.938e-2
-1.286, 1.946e-2
-1.287, 1.954e-2
-1.288, 1.962e-2
-1.289, 1.969e-2
-1.290, 1.976e-2
-1.291, 1.983e-2
-1.292, 1.989e-2
-1.293, 1.994e-2
-1.294, 1.999e-2
-1.295, 2.003e-2
-1.296, 2.008e-2
-1.297, 2.013e-2
-1.298, 2.020e-2
-1.299, 2.027e-2
-1.300, 2.035e-2
-1.301, 2.044e-2
-1.302, 2.056e-2
-1.303, 2.067e-2
-1.304, 2.077e-2
-1.305, 2.086e-2
-1.306, 2.096e-2
-1.307, 2.104e-2
-1.308, 2.112e-2
-1.309, 2.119e-2
-1.310, 2.126e-2
-1.311, 2.132e-2
-1.312, 2.138e-2
-1.313, 2.144e-2
-1.314, 2.149e-2
-1.315, 2.154e-2
-1.316, 2.159e-2
-1.317, 2.165e-2
-1.318, 2.172e-2
-1.319, 2.179e-2
-1.320, 2.188e-2
-1.321, 2.197e-2
-1.322, 2.206e-2
-1.323, 2.215e-2
-1.324, 2.223e-2
-1.325, 2.231e-2
-1.326, 2.238e-2
-1.327, 2.245e-2
-1.328, 2.252e-2
-1.329, 2.257e-2
-1.330, 2.263e-2
-1.331, 2.269e-2
-1.332, 2.274e-2
-1.333, 2.280e-2
-1.334, 2.286e-2
-1.335, 2.292e-2
-1.336, 2.300e-2
-1.337, 2.307e-2
-1.338, 2.314e-2
-1.339, 2.322e-2
-1.340, 2.329e-2
-1.341, 2.335e-2
-1.342, 2.342e-2
-1.343, 2.348e-2
-1.344, 2.354e-2
-1.345, 2.360e-2
-1.346, 2.365e-2
-1.347, 2.371e-2
-1.348, 2.377e-2
-1.349, 2.385e-2
-1.350, 2.393e-2
-1.351, 2.402e-2
-1.352, 2.411e-2
-1.353, 2.419e-2
-1.354, 2.428e-2
-1.355, 2.437e-2
-1.356, 2.444e-2
-1.357, 2.452e-2
-1.358, 2.459e-2
-1.359, 2.466e-2
-1.360, 2.472e-2
-1.361, 2.479e-2
-1.362, 2.485e-2
-1.363, 2.492e-2
-1.364, 2.499e-2
-1.365, 2.507e-2
-1.366, 2.515e-2
-1.367, 2.524e-2
-1.368, 2.532e-2
-1.369, 2.540e-2
-1.370, 2.547e-2
-1.371, 2.553e-2
-1.372, 2.560e-2
-1.373, 2.565e-2
-1.374, 2.572e-2
-1.375, 2.577e-2
-1.376, 2.583e-2
-1.377, 2.589e-2
-1.378, 2.595e-2
-1.379, 2.602e-2
-1.380, 2.609e-2
-1.381, 2.616e-2
-1.382, 2.624e-2
-1.383, 2.632e-2
-1.384, 2.639e-2
-1.385, 2.647e-2
-1.386, 2.654e-2
-1.387, 2.663e-2
-1.388, 2.670e-2
-1.389, 2.677e-2
-1.390, 2.684e-2
-1.391, 2.690e-2
-1.392, 2.698e-2
-1.393, 2.708e-2
-1.394, 2.718e-2
-1.395, 2.729e-2
-1.396, 2.738e-2
-1.397, 2.748e-2
-1.398, 2.756e-2
-1.399, 2.765e-2
-1.400, 2.764e-2
-1.399, 2.744e-2
-1.398, 2.725e-2
-1.397, 2.706e-2
-1.396, 2.689e-2
-1.395, 2.673e-2
-1.394, 2.659e-2
-1.393, 2.642e-2
-1.392, 2.623e-2
-1.391, 2.600e-2
-1.390, 2.575e-2
-1.389, 2.549e-2
-1.388, 2.523e-2
-1.387, 2.499e-2
-1.386, 2.478e-2
-1.385, 2.459e-2
-1.384, 2.443e-2
-1.383, 2.430e-2
-1.382, 2.417e-2
-1.381, 2.406e-2
-1.380, 2.394e-2
-1.379, 2.380e-2
-1.378, 2.365e-2
-1.377, 2.348e-2
-1.376, 2.330e-2
-1.375, 2.309e-2
-1.374, 2.288e-2
-1.373, 2.268e-2
-1.372, 2.247e-2
-1.371, 2.227e-2
-1.370, 2.208e-2
-1.369, 2.191e-2
-1.368, 2.174e-2
-1.367, 2.159e-2
-1.366, 2.145e-2
-1.365, 2.130e-2
-1.364, 2.116e-2
-1.363, 2.101e-2
-1.362, 2.086e-2
-1.361, 2.070e-2
-1.360, 2.054e-2
-1.359, 2.037e-2
-1.358, 2.020e-2
-1.357, 2.003e-2
-1.356, 1.986e-2
-1.355, 1.970e-2
-1.354, 1.954e-2
-1.353, 1.939e-2
-1.352, 1.924e-2
-1.351, 1.909e-2
-1.350, 1.894e-2
-1.349, 1.879e-2
-1.348, 1.865e-2
-1.347, 1.849e-2
-1.346, 1.834e-2
-1.345, 1.819e-2
-1.344, 1.804e-2
-1.343, 1.789e-2
-1.342, 1.773e-2
-1.341, 1.759e-2
-1.340, 1.744e-2
-1.339, 1.728e-2
-1.338, 1.713e-2
-1.337, 1.698e-2
-1.336, 1.683e-2
-1.335, 1.668e-2
-1.334, 1.652e-2
-1.333, 1.637e-2
-1.332, 1.622e-2
-1.331, 1.607e-2
-1.330, 1.593e-2
-1.329, 1.579e-2
-1.328, 1.565e-2
-1.327, 1.552e-2
-1.326, 1.538e-2
-1.325, 1.524e-2
-1.324, 1.510e-2
-1.323, 1.495e-2
-1.322, 1.481e-2
-1.321, 1.467e-2
-1.320, 1.453e-2
-1.319, 1.439e-2
-1.318, 1.424e-2
-1.317, 1.410e-2
-1.316, 1.396e-2
-1.315, 1.382e-2
-1.314, 1.369e-2
-1.313, 1.354e-2
-1.312, 1.340e-2
-1.311, 1.326e-2
-1.310, 1.311e-2
-1.309, 1.297e-2
-1.308, 1.283e-2
-1.307, 1.268e-2
-1.306, 1.254e-2
-1.305, 1.239e-2
-1.304, 1.226e-2
-1.303, 1.213e-2
-1.302, 1.200e-2
-1.301, 1.187e-2
-1.300, 1.174e-2
-1.299, 1.161e-2
-1.298, 1.149e-2
-1.297, 1.136e-2
-1.296, 1.123e-2
-1.295, 1.109e-2
-1.294, 1.096e-2
-1.293, 1.082e-2
-1.292, 1.069e-2
-1.291, 1.055e-2
-1.290, 1.042e-2
-1.289, 1.029e-2
-1.288, 1.016e-2
-1.287, 1.003e-2
-1.286, 9.897e-3
-1.285, 9.764e-3
-1.284, 9.632e-3
-1.283, 9.499e-3
-1.282, 9.370e-3
-1.281, 9.237e-3
-1.280, 9.108e-3
-1.279, 8.981e-3
-1.278, 8.858e-3
-1.277, 8.738e-3
-1.276, 8.617e-3
-1.275, 8.497e-3
-1.274, 8.380e-3
-1.273, 8.260e-3
-1.272, 8.136e-3
-1.271, 8.007e-3
-1.270, 7.874e-3
-1.269, 7.739e-3
-1.268, 7.600e-3
-1.267, 7.461e-3
-1.266, 7.332e-3
-1.265, 7.199e-3
-1.264, 7.073e-3
-1.263, 6.953e-3
-1.262, 6.832e-3
-1.261, 6.718e-3
-1.260, 6.601e-3
-1.259, 6.484e-3
-1.258, 6.367e-3
-1.257, 6.247e-3
-1.256, 6.123e-3
-1.255, 5.997e-3
-1.254, 5.867e-3
-1.253, 5.744e-3
-1.252, 5.621e-3
-1.251, 5.500e-3
-1.250, 5.383e-3
-1.249, 5.269e-3
-1.248, 5.155e-3
-1.247, 5.047e-3
-1.246, 4.933e-3
-1.245, 4.822e-3
-1.244, 4.705e-3
-1.243, 4.585e-3
-1.242, 4.461e-3
-1.241, 4.341e-3
-1.240, 4.221e-3
-1.239, 4.101e-3
-1.238, 3.984e-3
-1.237, 3.866e-3
-1.236, 3.755e-3
-1.235, 3.644e-3
-1.234, 3.536e-3
-1.233, 3.422e-3
-1.232, 3.314e-3
-1.231, 3.200e-3
-1.230, 3.086e-3
-1.229, 2.966e-3
-1.228, 2.852e-3
-1.227, 2.735e-3
-1.226, 2.621e-3
-1.225, 2.510e-3
-1.224, 2.402e-3
-1.223, 2.297e-3
-1.222, 2.192e-3
-1.221, 2.087e-3
-1.220, 1.986e-3
-1.219, 1.881e-3
-1.218, 1.773e-3
-1.217, 1.662e-3
-1.216, 1.551e-3
-1.215, 1.437e-3
-1.214, 1.323e-3
-1.213, 1.212e-3
-1.212, 1.101e-3
-1.211, 9.960e-4
-1.210, 8.943e-4
-1.209, 7.894e-4
-1.208, 6.908e-4
-1.207, 5.952e-4
-1.206, 4.935e-4
-1.205, 3.917e-4
-1.204, 2.838e-4
-1.203, 1.790e-4
-1.202, 7.415e-5
-1.201, -3.376e-5
-1.200, -1.448e-4
-1.199, -2.465e-4
-1.198, -3.513e-4
-1.197, -4.500e-4
-1.196, -5.517e-4
-1.195, -6.473e-4
-1.194, -7.398e-4
-1.193, -8.385e-4
-1.192, -9.371e-4
-1.191, -1.039e-3
-1.190, -1.138e-3
-1.189, -1.242e-3
-1.188, -1.347e-3
-1.187, -1.452e-3
-1.186, -1.554e-3
-1.185, -1.655e-3
-1.184, -1.751e-3
-1.183, -1.847e-3
-1.182, -1.939e-3
-1.181, -2.029e-3
-1.180, -2.124e-3
-1.179, -2.214e-3
-1.178, -2.309e-3
-1.177, -2.405e-3
-1.176, -2.503e-3
-1.175, -2.602e-3
-1.174, -2.704e-3
-1.173, -2.799e-3
-1.172, -2.898e-3
-1.171, -2.990e-3
-1.170, -3.086e-3
-1.169, -3.175e-3
-1.168, -3.265e-3
-1.167, -3.354e-3
-1.166, -3.444e-3
-1.165, -3.530e-3
-1.164, -3.626e-3
-1.163, -3.721e-3
-1.162, -3.817e-3
-1.161, -3.912e-3
-1.160, -4.008e-3
-1.159, -4.100e-3
-1.158, -4.196e-3
-1.157, -4.282e-3
-1.156, -4.369e-3
-1.155, -4.452e-3
-1.154, -4.538e-3
-1.153, -4.625e-3
-1.152, -4.708e-3
-1.151, -4.800e-3
-1.150, -4.890e-3
-1.149, -4.982e-3
-1.148, -5.078e-3
-1.147, -5.170e-3
-1.146, -5.263e-3
-1.145, -5.355e-3
-1.144, -5.442e-3
-1.143, -5.525e-3
-1.142, -5.608e-3
-1.141, -5.688e-3
-1.140, -5.768e-3
-1.139, -5.849e-3
-1.138, -5.929e-3
-1.137, -6.015e-3
-1.136, -6.104e-3
-1.135, -6.191e-3
-1.134, -6.283e-3
-1.133, -6.373e-3
-1.132, -6.462e-3
-1.131, -6.542e-3
-1.130, -6.622e-3
-1.129, -6.699e-3
-1.128, -6.777e-3
-1.127, -6.851e-3
-1.126, -6.931e-3
-1.125, -7.008e-3
-1.124, -7.091e-3
-1.123, -7.174e-3
-1.122, -7.257e-3
-1.121, -7.344e-3
-1.120, -7.430e-3
-1.119, -7.510e-3
-1.118, -7.594e-3
-1.117, -7.671e-3
-1.116, -7.748e-3
-1.115, -7.822e-3
-1.114, -7.896e-3
-1.113, -7.976e-3
-1.112, -8.053e-3
-1.111, -8.139e-3
-1.110, -8.219e-3
-1.109, -8.300e-3
-1.108, -8.386e-3
-1.107, -8.475e-3
-1.106, -8.552e-3
-1.105, -8.636e-3
-1.104, -8.710e-3
-1.103, -8.787e-3
-1.102, -8.861e-3
-1.101, -8.935e-3
-1.100, -9.006e-3
-1.099, -9.080e-3
-1.098, -9.154e-3
-1.097, -9.234e-3
-1.096, -9.311e-3
-1.095, -9.394e-3
-1.094, -9.477e-3
-1.093, -9.554e-3
-1.092, -9.635e-3
-1.091, -9.709e-3
-1.090, -9.783e-3
-1.089, -9.850e-3
-1.088, -9.915e-3
-1.087, -9.983e-3
-1.086, -1.005e-2
-1.085, -1.012e-2
-1.084, -1.020e-2
-1.083, -1.029e-2
-1.082, -1.037e-2
-1.081, -1.045e-2
-1.080, -1.053e-2
-1.079, -1.061e-2
-1.078, -1.070e-2
-1.077, -1.077e-2
-1.076, -1.084e-2
-1.075, -1.091e-2
-1.074, -1.098e-2
-1.073, -1.104e-2
-1.072, -1.111e-2
-1.071, -1.118e-2
-1.070, -1.126e-2
-1.069, -1.134e-2
-1.068, -1.141e-2
-1.067, -1.149e-2
-1.066, -1.157e-2
-1.065, -1.165e-2
-1.064, -1.172e-2
-1.063, -1.179e-2
-1.062, -1.186e-2
-1.061, -1.193e-2
-1.060, -1.200e-2
-1.059, -1.207e-2
-1.058, -1.214e-2
-1.057, -1.221e-2
-1.056, -1.229e-2
-1.055, -1.236e-2
-1.054, -1.244e-2
-1.053, -1.252e-2
-1.052, -1.259e-2
-1.051, -1.266e-2
-1.050, -1.273e-2
-1.049, -1.280e-2
-1.048, -1.287e-2
-1.047, -1.293e-2
-1.046, -1.300e-2
-1.045, -1.306e-2
-1.044, -1.313e-2
-1.043, -1.320e-2
-1.042, -1.327e-2
-1.041, -1.334e-2
-1.040, -1.341e-2
-1.039, -1.348e-2
-1.038, -1.354e-2
-1.037, -1.362e-2
-1.036, -1.368e-2
-1.035, -1.375e-2
-1.034, -1.381e-2
-1.033, -1.387e-2
-1.032, -1.394e-2
-1.031, -1.401e-2
-1.030, -1.408e-2
-1.029, -1.415e-2
-1.028, -1.423e-2
-1.027, -1.430e-2
-1.026, -1.436e-2
-1.025, -1.443e-2
-1.024, -1.450e-2
-1.023, -1.456e-2
-1.022, -1.461e-2
-1.021, -1.467e-2
-1.020, -1.473e-2
-1.019, -1.479e-2
-1.018, -1.485e-2
-1.017, -1.492e-2
-1.016, -1.498e-2
-1.015, -1.505e-2
-1.014, -1.512e-2
-1.013, -1.519e-2
-1.012, -1.526e-2
-1.011, -1.532e-2
-1.010, -1.538e-2
-1.009, -1.544e-2
-1.008, -1.550e-2
-1.007, -1.556e-2
-1.006, -1.563e-2
-1.005, -1.570e-2
-1.004, -1.577e-2
-1.003, -1.584e-2
-1.002, -1.591e-2
-1.001, -1.599e-2
