Sept. 27, 2024   23:24:22
Cyclic Voltammetry
File: c:/users/guazh/data/20240922_batch_417_500/2024-09-22-exp467\exp467-2024-09-27t23_05_10-h2koh\exp467_cv_sr_300mvs_efin_-1700mv.bin
Data Source:  Experiment
Instrument Model:  CHI760E
Header: CV ran at 300 mVs
Note: 

Init E (V) = -1
High E (V) = -1
Low E (V) = -1.7
Final E (V) = -1
Init P/N = N
Scan Rate (V/s) = 0.3
Segment = 3
Sample Interval (V) = 0.001
Quiet Time (sec) = 2
Sensitivity (A/V) = 0.01
Comp R (ohm) = 3.1

Results:

Channel 1:
Segment 1:

Segment 2:

Segment 3:

Potential/V, Current/A

-1.000, 1.557e-5
-1.001, 3.715e-5
-1.002, 4.949e-5
-1.003, 5.257e-5
-1.004, 5.257e-5
-1.005, 5.257e-5
-1.006, 5.565e-5
-1.007, 5.873e-5
-1.008, 6.182e-5
-1.009, 5.873e-5
-1.010, 6.182e-5
-1.011, 6.182e-5
-1.012, 6.490e-5
-1.013, 6.490e-5
-1.014, 6.182e-5
-1.015, 6.490e-5
-1.016, 6.490e-5
-1.017, 6.798e-5
-1.018, 6.798e-5
-1.019, 6.490e-5
-1.020, 6.490e-5
-1.021, 6.798e-5
-1.022, 6.798e-5
-1.023, 6.798e-5
-1.024, 6.798e-5
-1.025, 6.798e-5
-1.026, 6.798e-5
-1.027, 7.107e-5
-1.028, 7.107e-5
-1.029, 6.798e-5
-1.030, 6.798e-5
-1.031, 7.107e-5
-1.032, 7.107e-5
-1.033, 7.415e-5
-1.034, 7.107e-5
-1.035, 7.107e-5
-1.036, 7.107e-5
-1.037, 7.415e-5
-1.038, 7.415e-5
-1.039, 7.107e-5
-1.040, 7.107e-5
-1.041, 7.107e-5
-1.042, 7.415e-5
-1.043, 7.415e-5
-1.044, 7.107e-5
-1.045, 7.107e-5
-1.046, 7.415e-5
-1.047, 7.723e-5
-1.048, 7.415e-5
-1.049, 7.723e-5
-1.050, 7.415e-5
-1.051, 7.415e-5
-1.052, 7.723e-5
-1.053, 7.723e-5
-1.054, 7.415e-5
-1.055, 7.415e-5
-1.056, 7.415e-5
-1.057, 7.723e-5
-1.058, 7.723e-5
-1.059, 7.415e-5
-1.060, 7.723e-5
-1.061, 7.415e-5
-1.062, 8.032e-5
-1.063, 8.032e-5
-1.064, 7.723e-5
-1.065, 7.723e-5
-1.066, 7.723e-5
-1.067, 8.032e-5
-1.068, 8.032e-5
-1.069, 7.723e-5
-1.070, 7.723e-5
-1.071, 8.032e-5
-1.072, 8.032e-5
-1.073, 8.032e-5
-1.074, 7.723e-5
-1.075, 7.723e-5
-1.076, 8.032e-5
-1.077, 8.032e-5
-1.078, 8.032e-5
-1.079, 8.032e-5
-1.080, 7.723e-5
-1.081, 8.032e-5
-1.082, 8.340e-5
-1.083, 8.340e-5
-1.084, 8.032e-5
-1.085, 8.032e-5
-1.086, 8.032e-5
-1.087, 8.340e-5
-1.088, 8.340e-5
-1.089, 8.032e-5
-1.090, 8.032e-5
-1.091, 8.032e-5
-1.092, 8.340e-5
-1.093, 8.340e-5
-1.094, 8.032e-5
-1.095, 8.032e-5
-1.096, 8.032e-5
-1.097, 8.340e-5
-1.098, 8.340e-5
-1.099, 8.340e-5
-1.100, 8.340e-5
-1.101, 8.340e-5
-1.102, 8.340e-5
-1.103, 8.340e-5
-1.104, 8.340e-5
-1.105, 8.340e-5
-1.106, 8.340e-5
-1.107, 8.340e-5
-1.108, 8.648e-5
-1.109, 8.340e-5
-1.110, 8.340e-5
-1.111, 8.340e-5
-1.112, 8.648e-5
-1.113, 8.648e-5
-1.114, 8.340e-5
-1.115, 8.340e-5
-1.116, 8.340e-5
-1.117, 8.648e-5
-1.118, 8.648e-5
-1.119, 8.340e-5
-1.120, 8.340e-5
-1.121, 8.340e-5
-1.122, 8.340e-5
-1.123, 8.648e-5
-1.124, 8.340e-5
-1.125, 8.340e-5
-1.126, 8.340e-5
-1.127, 8.648e-5
-1.128, 8.340e-5
-1.129, 8.648e-5
-1.130, 8.340e-5
-1.131, 8.340e-5
-1.132, 8.648e-5
-1.133, 8.648e-5
-1.134, 8.648e-5
-1.135, 8.340e-5
-1.136, 8.340e-5
-1.137, 8.648e-5
-1.138, 8.648e-5
-1.139, 8.648e-5
-1.140, 8.340e-5
-1.141, 8.648e-5
-1.142, 8.648e-5
-1.143, 8.648e-5
-1.144, 8.648e-5
-1.145, 8.340e-5
-1.146, 8.648e-5
-1.147, 8.648e-5
-1.148, 8.648e-5
-1.149, 8.648e-5
-1.150, 8.340e-5
-1.151, 8.648e-5
-1.152, 8.648e-5
-1.153, 8.648e-5
-1.154, 8.648e-5
-1.155, 8.340e-5
-1.156, 8.340e-5
-1.157, 8.648e-5
-1.158, 8.648e-5
-1.159, 8.648e-5
-1.160, 8.340e-5
-1.161, 8.648e-5
-1.162, 8.648e-5
-1.163, 8.648e-5
-1.164, 8.340e-5
-1.165, 8.340e-5
-1.166, 8.340e-5
-1.167, 8.648e-5
-1.168, 8.648e-5
-1.169, 8.648e-5
-1.170, 8.648e-5
-1.171, 8.340e-5
-1.172, 8.648e-5
-1.173, 8.648e-5
-1.174, 8.648e-5
-1.175, 8.340e-5
-1.176, 8.648e-5
-1.177, 8.648e-5
-1.178, 8.648e-5
-1.179, 8.648e-5
-1.180, 8.340e-5
-1.181, 8.648e-5
-1.182, 8.648e-5
-1.183, 8.648e-5
-1.184, 8.648e-5
-1.185, 8.340e-5
-1.186, 8.648e-5
-1.187, 8.648e-5
-1.188, 8.648e-5
-1.189, 8.648e-5
-1.190, 8.648e-5
-1.191, 8.648e-5
-1.192, 8.648e-5
-1.193, 8.648e-5
-1.194, 8.648e-5
-1.195, 8.340e-5
-1.196, 8.648e-5
-1.197, 8.648e-5
-1.198, 8.648e-5
-1.199, 8.648e-5
-1.200, 8.340e-5
-1.201, 8.648e-5
-1.202, 8.648e-5
-1.203, 8.648e-5
-1.204, 8.648e-5
-1.205, 8.648e-5
-1.206, 8.648e-5
-1.207, 8.648e-5
-1.208, 8.648e-5
-1.209, 8.648e-5
-1.210, 8.648e-5
-1.211, 8.648e-5
-1.212, 8.648e-5
-1.213, 8.648e-5
-1.214, 8.648e-5
-1.215, 8.648e-5
-1.216, 8.648e-5
-1.217, 8.957e-5
-1.218, 8.648e-5
-1.219, 8.648e-5
-1.220, 8.648e-5
-1.221, 8.648e-5
-1.222, 8.957e-5
-1.223, 8.957e-5
-1.224, 8.648e-5
-1.225, 8.648e-5
-1.226, 8.648e-5
-1.227, 8.648e-5
-1.228, 8.957e-5
-1.229, 8.648e-5
-1.230, 8.648e-5
-1.231, 8.648e-5
-1.232, 8.648e-5
-1.233, 8.957e-5
-1.234, 8.648e-5
-1.235, 8.648e-5
-1.236, 8.648e-5
-1.237, 8.957e-5
-1.238, 8.957e-5
-1.239, 8.648e-5
-1.240, 8.648e-5
-1.241, 8.957e-5
-1.242, 8.957e-5
-1.243, 8.957e-5
-1.244, 8.957e-5
-1.245, 8.957e-5
-1.246, 8.957e-5
-1.247, 8.957e-5
-1.248, 8.957e-5
-1.249, 8.957e-5
-1.250, 8.957e-5
-1.251, 8.957e-5
-1.252, 9.265e-5
-1.253, 8.957e-5
-1.254, 8.957e-5
-1.255, 8.957e-5
-1.256, 8.957e-5
-1.257, 8.957e-5
-1.258, 9.265e-5
-1.259, 8.957e-5
-1.260, 8.957e-5
-1.261, 8.957e-5
-1.262, 8.957e-5
-1.263, 9.265e-5
-1.264, 8.957e-5
-1.265, 8.957e-5
-1.266, 8.957e-5
-1.267, 9.265e-5
-1.268, 9.265e-5
-1.269, 9.265e-5
-1.270, 8.957e-5
-1.271, 9.265e-5
-1.272, 9.265e-5
-1.273, 9.265e-5
-1.274, 9.265e-5
-1.275, 9.265e-5
-1.276, 9.265e-5
-1.277, 9.265e-5
-1.278, 9.265e-5
-1.279, 9.265e-5
-1.280, 9.265e-5
-1.281, 9.265e-5
-1.282, 9.573e-5
-1.283, 9.265e-5
-1.284, 9.265e-5
-1.285, 9.265e-5
-1.286, 9.265e-5
-1.287, 9.573e-5
-1.288, 9.573e-5
-1.289, 9.265e-5
-1.290, 9.265e-5
-1.291, 9.265e-5
-1.292, 9.573e-5
-1.293, 9.573e-5
-1.294, 9.265e-5
-1.295, 9.265e-5
-1.296, 9.265e-5
-1.297, 9.573e-5
-1.298, 9.573e-5
-1.299, 9.573e-5
-1.300, 9.573e-5
-1.301, 9.573e-5
-1.302, 9.882e-5
-1.303, 9.573e-5
-1.304, 9.882e-5
-1.305, 9.573e-5
-1.306, 9.573e-5
-1.307, 9.882e-5
-1.308, 9.882e-5
-1.309, 9.573e-5
-1.310, 9.573e-5
-1.311, 9.573e-5
-1.312, 9.882e-5
-1.313, 9.882e-5
-1.314, 9.882e-5
-1.315, 9.573e-5
-1.316, 9.882e-5
-1.317, 1.019e-4
-1.318, 1.019e-4
-1.319, 9.882e-5
-1.320, 9.882e-5
-1.321, 9.882e-5
-1.322, 1.019e-4
-1.323, 1.019e-4
-1.324, 1.019e-4
-1.325, 9.882e-5
-1.326, 9.882e-5
-1.327, 1.019e-4
-1.328, 1.019e-4
-1.329, 1.019e-4
-1.330, 1.019e-4
-1.331, 1.019e-4
-1.332, 1.019e-4
-1.333, 1.019e-4
-1.334, 1.050e-4
-1.335, 1.019e-4
-1.336, 1.019e-4
-1.337, 1.050e-4
-1.338, 1.050e-4
-1.339, 1.019e-4
-1.340, 1.019e-4
-1.341, 1.050e-4
-1.342, 1.050e-4
-1.343, 1.050e-4
-1.344, 1.050e-4
-1.345, 1.050e-4
-1.346, 1.050e-4
-1.347, 1.081e-4
-1.348, 1.081e-4
-1.349, 1.081e-4
-1.350, 1.050e-4
-1.351, 1.050e-4
-1.352, 1.081e-4
-1.353, 1.081e-4
-1.354, 1.081e-4
-1.355, 1.081e-4
-1.356, 1.081e-4
-1.357, 1.081e-4
-1.358, 1.111e-4
-1.359, 1.081e-4
-1.360, 1.081e-4
-1.361, 1.111e-4
-1.362, 1.111e-4
-1.363, 1.111e-4
-1.364, 1.111e-4
-1.365, 1.111e-4
-1.366, 1.111e-4
-1.367, 1.142e-4
-1.368, 1.111e-4
-1.369, 1.111e-4
-1.370, 1.111e-4
-1.371, 1.142e-4
-1.372, 1.142e-4
-1.373, 1.142e-4
-1.374, 1.111e-4
-1.375, 1.142e-4
-1.376, 1.142e-4
-1.377, 1.173e-4
-1.378, 1.173e-4
-1.379, 1.142e-4
-1.380, 1.173e-4
-1.381, 1.173e-4
-1.382, 1.173e-4
-1.383, 1.204e-4
-1.384, 1.173e-4
-1.385, 1.173e-4
-1.386, 1.173e-4
-1.387, 1.204e-4
-1.388, 1.204e-4
-1.389, 1.204e-4
-1.390, 1.204e-4
-1.391, 1.204e-4
-1.392, 1.235e-4
-1.393, 1.235e-4
-1.394, 1.235e-4
-1.395, 1.235e-4
-1.396, 1.235e-4
-1.397, 1.266e-4
-1.398, 1.266e-4
-1.399, 1.266e-4
-1.400, 1.266e-4
-1.401, 1.266e-4
-1.402, 1.296e-4
-1.403, 1.296e-4
-1.404, 1.266e-4
-1.405, 1.266e-4
-1.406, 1.296e-4
-1.407, 1.327e-4
-1.408, 1.327e-4
-1.409, 1.296e-4
-1.410, 1.296e-4
-1.411, 1.327e-4
-1.412, 1.327e-4
-1.413, 1.358e-4
-1.414, 1.358e-4
-1.415, 1.327e-4
-1.416, 1.358e-4
-1.417, 1.389e-4
-1.418, 1.389e-4
-1.419, 1.389e-4
-1.420, 1.389e-4
-1.421, 1.389e-4
-1.422, 1.420e-4
-1.423, 1.420e-4
-1.424, 1.420e-4
-1.425, 1.420e-4
-1.426, 1.420e-4
-1.427, 1.481e-4
-1.428, 1.481e-4
-1.429, 1.481e-4
-1.430, 1.481e-4
-1.431, 1.481e-4
-1.432, 1.512e-4
-1.433, 1.512e-4
-1.434, 1.543e-4
-1.435, 1.512e-4
-1.436, 1.543e-4
-1.437, 1.574e-4
-1.438, 1.574e-4
-1.439, 1.574e-4
-1.440, 1.574e-4
-1.441, 1.605e-4
-1.442, 1.636e-4
-1.443, 1.636e-4
-1.444, 1.666e-4
-1.445, 1.636e-4
-1.446, 1.666e-4
-1.447, 1.697e-4
-1.448, 1.697e-4
-1.449, 1.697e-4
-1.450, 1.728e-4
-1.451, 1.728e-4
-1.452, 1.759e-4
-1.453, 1.790e-4
-1.454, 1.790e-4
-1.455, 1.790e-4
-1.456, 1.790e-4
-1.457, 1.821e-4
-1.458, 1.851e-4
-1.459, 1.851e-4
-1.460, 1.882e-4
-1.461, 1.882e-4
-1.462, 1.913e-4
-1.463, 1.944e-4
-1.464, 1.944e-4
-1.465, 1.944e-4
-1.466, 1.975e-4
-1.467, 2.006e-4
-1.468, 2.036e-4
-1.469, 2.036e-4
-1.470, 2.036e-4
-1.471, 2.067e-4
-1.472, 2.098e-4
-1.473, 2.129e-4
-1.474, 2.129e-4
-1.475, 2.160e-4
-1.476, 2.191e-4
-1.477, 2.221e-4
-1.478, 2.252e-4
-1.479, 2.252e-4
-1.480, 2.283e-4
-1.481, 2.314e-4
-1.482, 2.345e-4
-1.483, 2.345e-4
-1.484, 2.376e-4
-1.485, 2.376e-4
-1.486, 2.437e-4
-1.487, 2.468e-4
-1.488, 2.499e-4
-1.489, 2.499e-4
-1.490, 2.530e-4
-1.491, 2.561e-4
-1.492, 2.591e-4
-1.493, 2.622e-4
-1.494, 2.653e-4
-1.495, 2.684e-4
-1.496, 2.715e-4
-1.497, 2.776e-4
-1.498, 2.776e-4
-1.499, 2.807e-4
-1.500, 2.838e-4
-1.501, 2.869e-4
-1.502, 2.931e-4
-1.503, 2.961e-4
-1.504, 2.961e-4
-1.505, 3.023e-4
-1.506, 3.023e-4
-1.507, 3.115e-4
-1.508, 3.146e-4
-1.509, 3.177e-4
-1.510, 3.208e-4
-1.511, 3.239e-4
-1.512, 3.300e-4
-1.513, 3.331e-4
-1.514, 3.362e-4
-1.515, 3.393e-4
-1.516, 3.424e-4
-1.517, 3.485e-4
-1.518, 3.547e-4
-1.519, 3.578e-4
-1.520, 3.609e-4
-1.521, 3.670e-4
-1.522, 3.732e-4
-1.523, 3.763e-4
-1.524, 3.794e-4
-1.525, 3.855e-4
-1.526, 3.917e-4
-1.527, 3.948e-4
-1.528, 4.010e-4
-1.529, 4.071e-4
-1.530, 4.102e-4
-1.531, 4.164e-4
-1.532, 4.225e-4
-1.533, 4.287e-4
-1.534, 4.318e-4
-1.535, 4.380e-4
-1.536, 4.441e-4
-1.537, 4.534e-4
-1.538, 4.595e-4
-1.539, 4.626e-4
-1.540, 4.688e-4
-1.541, 4.750e-4
-1.542, 4.811e-4
-1.543, 4.904e-4
-1.544, 4.935e-4
-1.545, 4.996e-4
-1.546, 5.058e-4
-1.547, 5.150e-4
-1.548, 5.243e-4
-1.549, 5.305e-4
-1.550, 5.366e-4
-1.551, 5.428e-4
-1.552, 5.520e-4
-1.553, 5.582e-4
-1.554, 5.644e-4
-1.555, 5.736e-4
-1.556, 5.798e-4
-1.557, 5.890e-4
-1.558, 5.983e-4
-1.559, 6.075e-4
-1.560, 6.137e-4
-1.561, 6.229e-4
-1.562, 6.322e-4
-1.563, 6.414e-4
-1.564, 6.507e-4
-1.565, 6.569e-4
-1.566, 6.661e-4
-1.567, 6.815e-4
-1.568, 6.908e-4
-1.569, 7.000e-4
-1.570, 7.093e-4
-1.571, 7.185e-4
-1.572, 7.278e-4
-1.573, 7.370e-4
-1.574, 7.463e-4
-1.575, 7.524e-4
-1.576, 7.648e-4
-1.577, 7.802e-4
-1.578, 7.925e-4
-1.579, 8.048e-4
-1.580, 8.141e-4
-1.581, 8.264e-4
-1.582, 8.388e-4
-1.583, 8.511e-4
-1.584, 8.634e-4
-1.585, 8.758e-4
-1.586, 8.912e-4
-1.587, 9.066e-4
-1.588, 9.220e-4
-1.589, 9.343e-4
-1.590, 9.498e-4
-1.591, 9.621e-4
-1.592, 9.775e-4
-1.593, 9.929e-4
-1.594, 1.008e-3
-1.595, 1.021e-3
-1.596, 1.036e-3
-1.597, 1.055e-3
-1.598, 1.073e-3
-1.599, 1.088e-3
-1.600, 1.104e-3
-1.601, 1.119e-3
-1.602, 1.141e-3
-1.603, 1.159e-3
-1.604, 1.175e-3
-1.605, 1.193e-3
-1.606, 1.212e-3
-1.607, 1.233e-3
-1.608, 1.252e-3
-1.609, 1.270e-3
-1.610, 1.289e-3
-1.611, 1.307e-3
-1.612, 1.329e-3
-1.613, 1.351e-3
-1.614, 1.372e-3
-1.615, 1.391e-3
-1.616, 1.412e-3
-1.617, 1.437e-3
-1.618, 1.458e-3
-1.619, 1.477e-3
-1.620, 1.502e-3
-1.621, 1.523e-3
-1.622, 1.551e-3
-1.623, 1.576e-3
-1.624, 1.600e-3
-1.625, 1.625e-3
-1.626, 1.653e-3
-1.627, 1.684e-3
-1.628, 1.711e-3
-1.629, 1.739e-3
-1.630, 1.767e-3
-1.631, 1.795e-3
-1.632, 1.822e-3
-1.633, 1.856e-3
-1.634, 1.887e-3
-1.635, 1.918e-3
-1.636, 1.955e-3
-1.637, 1.989e-3
-1.638, 2.026e-3
-1.639, 2.057e-3
-1.640, 2.091e-3
-1.641, 2.128e-3
-1.642, 2.164e-3
-1.643, 2.205e-3
-1.644, 2.245e-3
-1.645, 2.282e-3
-1.646, 2.319e-3
-1.647, 2.365e-3
-1.648, 2.411e-3
-1.649, 2.451e-3
-1.650, 2.491e-3
-1.651, 2.534e-3
-1.652, 2.578e-3
-1.653, 2.621e-3
-1.654, 2.670e-3
-1.655, 2.713e-3
-1.656, 2.760e-3
-1.657, 2.806e-3
-1.658, 2.852e-3
-1.659, 2.898e-3
-1.660, 2.945e-3
-1.661, 2.991e-3
-1.662, 3.040e-3
-1.663, 3.086e-3
-1.664, 3.136e-3
-1.665, 3.182e-3
-1.666, 3.231e-3
-1.667, 3.281e-3
-1.668, 3.333e-3
-1.669, 3.385e-3
-1.670, 3.435e-3
-1.671, 3.484e-3
-1.672, 3.533e-3
-1.673, 3.586e-3
-1.674, 3.641e-3
-1.675, 3.697e-3
-1.676, 3.749e-3
-1.677, 3.802e-3
-1.678, 3.854e-3
-1.679, 3.903e-3
-1.680, 3.953e-3
-1.681, 4.002e-3
-1.682, 4.051e-3
-1.683, 4.104e-3
-1.684, 4.162e-3
-1.685, 4.218e-3
-1.686, 4.267e-3
-1.687, 4.326e-3
-1.688, 4.378e-3
-1.689, 4.431e-3
-1.690, 4.489e-3
-1.691, 4.545e-3
-1.692, 4.600e-3
-1.693, 4.656e-3
-1.694, 4.717e-3
-1.695, 4.770e-3
-1.696, 4.828e-3
-1.697, 4.890e-3
-1.698, 4.952e-3
-1.699, 5.016e-3
-1.700, 5.032e-3
-1.699, 4.982e-3
-1.698, 4.945e-3
-1.697, 4.908e-3
-1.696, 4.871e-3
-1.695, 4.825e-3
-1.694, 4.776e-3
-1.693, 4.733e-3
-1.692, 4.683e-3
-1.691, 4.637e-3
-1.690, 4.594e-3
-1.689, 4.548e-3
-1.688, 4.501e-3
-1.687, 4.458e-3
-1.686, 4.409e-3
-1.685, 4.360e-3
-1.684, 4.310e-3
-1.683, 4.258e-3
-1.682, 4.209e-3
-1.681, 4.159e-3
-1.680, 4.110e-3
-1.679, 4.064e-3
-1.678, 4.021e-3
-1.677, 3.974e-3
-1.676, 3.925e-3
-1.675, 3.876e-3
-1.674, 3.826e-3
-1.673, 3.780e-3
-1.672, 3.734e-3
-1.671, 3.688e-3
-1.670, 3.632e-3
-1.669, 3.586e-3
-1.668, 3.543e-3
-1.667, 3.506e-3
-1.666, 3.459e-3
-1.665, 3.416e-3
-1.664, 3.370e-3
-1.663, 3.330e-3
-1.662, 3.284e-3
-1.661, 3.241e-3
-1.660, 3.194e-3
-1.659, 3.148e-3
-1.658, 3.105e-3
-1.657, 3.062e-3
-1.656, 3.022e-3
-1.655, 2.982e-3
-1.654, 2.941e-3
-1.653, 2.904e-3
-1.652, 2.867e-3
-1.651, 2.827e-3
-1.650, 2.787e-3
-1.649, 2.750e-3
-1.648, 2.713e-3
-1.647, 2.676e-3
-1.646, 2.639e-3
-1.645, 2.602e-3
-1.644, 2.562e-3
-1.643, 2.525e-3
-1.642, 2.488e-3
-1.641, 2.451e-3
-1.640, 2.414e-3
-1.639, 2.374e-3
-1.638, 2.334e-3
-1.637, 2.297e-3
-1.636, 2.260e-3
-1.635, 2.223e-3
-1.634, 2.186e-3
-1.633, 2.152e-3
-1.632, 2.118e-3
-1.631, 2.081e-3
-1.630, 2.044e-3
-1.629, 2.010e-3
-1.628, 1.976e-3
-1.627, 1.946e-3
-1.626, 1.912e-3
-1.625, 1.875e-3
-1.624, 1.841e-3
-1.623, 1.807e-3
-1.622, 1.776e-3
-1.621, 1.742e-3
-1.620, 1.705e-3
-1.619, 1.674e-3
-1.618, 1.643e-3
-1.617, 1.613e-3
-1.616, 1.579e-3
-1.615, 1.548e-3
-1.614, 1.517e-3
-1.613, 1.489e-3
-1.612, 1.458e-3
-1.611, 1.431e-3
-1.610, 1.400e-3
-1.609, 1.372e-3
-1.608, 1.347e-3
-1.607, 1.323e-3
-1.606, 1.292e-3
-1.605, 1.267e-3
-1.604, 1.240e-3
-1.603, 1.215e-3
-1.602, 1.190e-3
-1.601, 1.166e-3
-1.600, 1.141e-3
-1.599, 1.119e-3
-1.598, 1.095e-3
-1.597, 1.070e-3
-1.596, 1.048e-3
-1.595, 1.021e-3
-1.594, 9.991e-4
-1.593, 9.744e-4
-1.592, 9.559e-4
-1.591, 9.343e-4
-1.590, 9.128e-4
-1.589, 8.881e-4
-1.588, 8.665e-4
-1.587, 8.480e-4
-1.586, 8.264e-4
-1.585, 8.048e-4
-1.584, 7.863e-4
-1.583, 7.679e-4
-1.582, 7.494e-4
-1.581, 7.278e-4
-1.580, 7.093e-4
-1.579, 6.908e-4
-1.578, 6.723e-4
-1.577, 6.569e-4
-1.576, 6.384e-4
-1.575, 6.199e-4
-1.574, 6.014e-4
-1.573, 5.890e-4
-1.572, 5.705e-4
-1.571, 5.551e-4
-1.570, 5.366e-4
-1.569, 5.243e-4
-1.568, 5.120e-4
-1.567, 4.965e-4
-1.566, 4.811e-4
-1.565, 4.657e-4
-1.564, 4.503e-4
-1.563, 4.380e-4
-1.562, 4.256e-4
-1.561, 4.133e-4
-1.560, 3.979e-4
-1.559, 3.855e-4
-1.558, 3.732e-4
-1.557, 3.609e-4
-1.556, 3.485e-4
-1.555, 3.362e-4
-1.554, 3.239e-4
-1.553, 3.146e-4
-1.552, 3.054e-4
-1.551, 2.931e-4
-1.550, 2.807e-4
-1.549, 2.746e-4
-1.548, 2.622e-4
-1.547, 2.530e-4
-1.546, 2.437e-4
-1.545, 2.314e-4
-1.544, 2.221e-4
-1.543, 2.160e-4
-1.542, 2.067e-4
-1.541, 1.975e-4
-1.540, 1.882e-4
-1.539, 1.790e-4
-1.538, 1.728e-4
-1.537, 1.636e-4
-1.536, 1.605e-4
-1.535, 1.481e-4
-1.534, 1.389e-4
-1.533, 1.358e-4
-1.532, 1.296e-4
-1.531, 1.204e-4
-1.530, 1.111e-4
-1.529, 1.050e-4
-1.528, 9.882e-5
-1.527, 9.265e-5
-1.526, 8.648e-5
-1.525, 8.032e-5
-1.524, 7.107e-5
-1.523, 6.798e-5
-1.522, 6.182e-5
-1.521, 5.565e-5
-1.520, 4.949e-5
-1.519, 4.332e-5
-1.518, 4.024e-5
-1.517, 3.407e-5
-1.516, 2.790e-5
-1.515, 2.174e-5
-1.514, 1.865e-5
-1.513, 1.249e-5
-1.512, 9.405e-6
-1.511, 3.239e-6
-1.510, 1.559e-7
-1.509, -6.010e-6
-1.508, -9.093e-6
-1.507, -1.526e-5
-1.506, -1.834e-5
-1.505, -2.451e-5
-1.504, -2.759e-5
-1.503, -3.068e-5
-1.502, -3.376e-5
-1.501, -3.684e-5
-1.500, -4.301e-5
-1.499, -4.609e-5
-1.498, -4.917e-5
-1.497, -5.226e-5
-1.496, -5.534e-5
-1.495, -5.842e-5
-1.494, -6.459e-5
-1.493, -6.459e-5
-1.492, -6.767e-5
-1.491, -7.076e-5
-1.490, -7.692e-5
-1.489, -8.000e-5
-1.488, -8.000e-5
-1.487, -8.309e-5
-1.486, -8.617e-5
-1.485, -8.925e-5
-1.484, -9.234e-5
-1.483, -9.542e-5
-1.482, -9.542e-5
-1.481, -1.016e-4
-1.480, -1.016e-4
-1.479, -1.047e-4
-1.478, -1.078e-4
-1.477, -1.078e-4
-1.476, -1.108e-4
-1.475, -1.139e-4
-1.474, -1.170e-4
-1.473, -1.170e-4
-1.472, -1.201e-4
-1.471, -1.201e-4
-1.470, -1.232e-4
-1.469, -1.263e-4
-1.468, -1.263e-4
-1.467, -1.293e-4
-1.466, -1.324e-4
-1.465, -1.324e-4
-1.464, -1.324e-4
-1.463, -1.355e-4
-1.462, -1.355e-4
-1.461, -1.386e-4
-1.460, -1.417e-4
-1.459, -1.417e-4
-1.458, -1.417e-4
-1.457, -1.417e-4
-1.456, -1.448e-4
-1.455, -1.478e-4
-1.454, -1.478e-4
-1.453, -1.478e-4
-1.452, -1.509e-4
-1.451, -1.509e-4
-1.450, -1.540e-4
-1.449, -1.540e-4
-1.448, -1.571e-4
-1.447, -1.540e-4
-1.446, -1.571e-4
-1.445, -1.571e-4
-1.444, -1.602e-4
-1.443, -1.602e-4
-1.442, -1.602e-4
-1.441, -1.602e-4
-1.440, -1.632e-4
-1.439, -1.632e-4
-1.438, -1.632e-4
-1.437, -1.632e-4
-1.436, -1.663e-4
-1.435, -1.663e-4
-1.434, -1.663e-4
-1.433, -1.663e-4
-1.432, -1.663e-4
-1.431, -1.694e-4
-1.430, -1.694e-4
-1.429, -1.694e-4
-1.428, -1.694e-4
-1.427, -1.694e-4
-1.426, -1.694e-4
-1.425, -1.725e-4
-1.424, -1.694e-4
-1.423, -1.694e-4
-1.422, -1.725e-4
-1.421, -1.725e-4
-1.420, -1.725e-4
-1.419, -1.725e-4
-1.418, -1.725e-4
-1.417, -1.725e-4
-1.416, -1.725e-4
-1.415, -1.756e-4
-1.414, -1.756e-4
-1.413, -1.725e-4
-1.412, -1.725e-4
-1.411, -1.756e-4
-1.410, -1.756e-4
-1.409, -1.756e-4
-1.408, -1.756e-4
-1.407, -1.725e-4
-1.406, -1.725e-4
-1.405, -1.725e-4
-1.404, -1.725e-4
-1.403, -1.725e-4
-1.402, -1.725e-4
-1.401, -1.725e-4
-1.400, -1.756e-4
-1.399, -1.725e-4
-1.398, -1.725e-4
-1.397, -1.725e-4
-1.396, -1.725e-4
-1.395, -1.725e-4
-1.394, -1.725e-4
-1.393, -1.725e-4
-1.392, -1.725e-4
-1.391, -1.725e-4
-1.390, -1.725e-4
-1.389, -1.694e-4
-1.388, -1.725e-4
-1.387, -1.694e-4
-1.386, -1.694e-4
-1.385, -1.725e-4
-1.384, -1.694e-4
-1.383, -1.694e-4
-1.382, -1.694e-4
-1.381, -1.694e-4
-1.380, -1.694e-4
-1.379, -1.663e-4
-1.378, -1.663e-4
-1.377, -1.663e-4
-1.376, -1.663e-4
-1.375, -1.663e-4
-1.374, -1.663e-4
-1.373, -1.632e-4
-1.372, -1.632e-4
-1.371, -1.632e-4
-1.370, -1.663e-4
-1.369, -1.663e-4
-1.368, -1.632e-4
-1.367, -1.602e-4
-1.366, -1.632e-4
-1.365, -1.632e-4
-1.364, -1.602e-4
-1.363, -1.632e-4
-1.362, -1.602e-4
-1.361, -1.602e-4
-1.360, -1.602e-4
-1.359, -1.602e-4
-1.358, -1.571e-4
-1.357, -1.571e-4
-1.356, -1.571e-4
-1.355, -1.571e-4
-1.354, -1.571e-4
-1.353, -1.540e-4
-1.352, -1.540e-4
-1.351, -1.540e-4
-1.350, -1.540e-4
-1.349, -1.540e-4
-1.348, -1.540e-4
-1.347, -1.509e-4
-1.346, -1.540e-4
-1.345, -1.540e-4
-1.344, -1.540e-4
-1.343, -1.509e-4
-1.342, -1.478e-4
-1.341, -1.509e-4
-1.340, -1.509e-4
-1.339, -1.478e-4
-1.338, -1.478e-4
-1.337, -1.478e-4
-1.336, -1.478e-4
-1.335, -1.478e-4
-1.334, -1.478e-4
-1.333, -1.478e-4
-1.332, -1.448e-4
-1.331, -1.478e-4
-1.330, -1.478e-4
-1.329, -1.478e-4
-1.328, -1.448e-4
-1.327, -1.448e-4
-1.326, -1.448e-4
-1.325, -1.448e-4
-1.324, -1.448e-4
-1.323, -1.417e-4
-1.322, -1.417e-4
-1.321, -1.417e-4
-1.320, -1.417e-4
-1.319, -1.417e-4
-1.318, -1.417e-4
-1.317, -1.417e-4
-1.316, -1.417e-4
-1.315, -1.417e-4
-1.314, -1.417e-4
-1.313, -1.386e-4
-1.312, -1.386e-4
-1.311, -1.417e-4
-1.310, -1.417e-4
-1.309, -1.386e-4
-1.308, -1.386e-4
-1.307, -1.386e-4
-1.306, -1.386e-4
-1.305, -1.386e-4
-1.304, -1.386e-4
-1.303, -1.386e-4
-1.302, -1.386e-4
-1.301, -1.386e-4
-1.300, -1.386e-4
-1.299, -1.386e-4
-1.298, -1.386e-4
-1.297, -1.386e-4
-1.296, -1.386e-4
-1.295, -1.386e-4
-1.294, -1.386e-4
-1.293, -1.386e-4
-1.292, -1.355e-4
-1.291, -1.355e-4
-1.290, -1.386e-4
-1.289, -1.386e-4
-1.288, -1.386e-4
-1.287, -1.355e-4
-1.286, -1.355e-4
-1.285, -1.386e-4
-1.284, -1.386e-4
-1.283, -1.355e-4
-1.282, -1.355e-4
-1.281, -1.355e-4
-1.280, -1.386e-4
-1.279, -1.386e-4
-1.278, -1.355e-4
-1.277, -1.355e-4
-1.276, -1.355e-4
-1.275, -1.386e-4
-1.274, -1.355e-4
-1.273, -1.355e-4
-1.272, -1.355e-4
-1.271, -1.355e-4
-1.270, -1.386e-4
-1.269, -1.386e-4
-1.268, -1.386e-4
-1.267, -1.355e-4
-1.266, -1.355e-4
-1.265, -1.386e-4
-1.264, -1.386e-4
-1.263, -1.355e-4
-1.262, -1.355e-4
-1.261, -1.355e-4
-1.260, -1.386e-4
-1.259, -1.386e-4
-1.258, -1.355e-4
-1.257, -1.355e-4
-1.256, -1.386e-4
-1.255, -1.386e-4
-1.254, -1.386e-4
-1.253, -1.386e-4
-1.252, -1.386e-4
-1.251, -1.386e-4
-1.250, -1.386e-4
-1.249, -1.386e-4
-1.248, -1.386e-4
-1.247, -1.386e-4
-1.246, -1.386e-4
-1.245, -1.417e-4
-1.244, -1.386e-4
-1.243, -1.386e-4
-1.242, -1.386e-4
-1.241, -1.386e-4
-1.240, -1.417e-4
-1.239, -1.417e-4
-1.238, -1.386e-4
-1.237, -1.386e-4
-1.236, -1.417e-4
-1.235, -1.417e-4
-1.234, -1.417e-4
-1.233, -1.386e-4
-1.232, -1.386e-4
-1.231, -1.417e-4
-1.230, -1.417e-4
-1.229, -1.417e-4
-1.228, -1.417e-4
-1.227, -1.417e-4
-1.226, -1.417e-4
-1.225, -1.448e-4
-1.224, -1.417e-4
-1.223, -1.417e-4
-1.222, -1.417e-4
-1.221, -1.448e-4
-1.220, -1.448e-4
-1.219, -1.448e-4
-1.218, -1.448e-4
-1.217, -1.417e-4
-1.216, -1.448e-4
-1.215, -1.448e-4
-1.214, -1.448e-4
-1.213, -1.448e-4
-1.212, -1.448e-4
-1.211, -1.448e-4
-1.210, -1.478e-4
-1.209, -1.448e-4
-1.208, -1.448e-4
-1.207, -1.448e-4
-1.206, -1.478e-4
-1.205, -1.478e-4
-1.204, -1.478e-4
-1.203, -1.478e-4
-1.202, -1.478e-4
-1.201, -1.478e-4
-1.200, -1.478e-4
-1.199, -1.478e-4
-1.198, -1.478e-4
-1.197, -1.478e-4
-1.196, -1.509e-4
-1.195, -1.509e-4
-1.194, -1.509e-4
-1.193, -1.509e-4
-1.192, -1.478e-4
-1.191, -1.509e-4
-1.190, -1.540e-4
-1.189, -1.509e-4
-1.188, -1.509e-4
-1.187, -1.509e-4
-1.186, -1.509e-4
-1.185, -1.540e-4
-1.184, -1.540e-4
-1.183, -1.540e-4
-1.182, -1.509e-4
-1.181, -1.509e-4
-1.180, -1.571e-4
-1.179, -1.540e-4
-1.178, -1.540e-4
-1.177, -1.540e-4
-1.176, -1.571e-4
-1.175, -1.571e-4
-1.174, -1.571e-4
-1.173, -1.571e-4
-1.172, -1.571e-4
-1.171, -1.571e-4
-1.170, -1.602e-4
-1.169, -1.602e-4
-1.168, -1.571e-4
-1.167, -1.571e-4
-1.166, -1.602e-4
-1.165, -1.602e-4
-1.164, -1.602e-4
-1.163, -1.602e-4
-1.162, -1.602e-4
-1.161, -1.602e-4
-1.160, -1.632e-4
-1.159, -1.632e-4
-1.158, -1.602e-4
-1.157, -1.602e-4
-1.156, -1.632e-4
-1.155, -1.663e-4
-1.154, -1.632e-4
-1.153, -1.663e-4
-1.152, -1.632e-4
-1.151, -1.663e-4
-1.150, -1.663e-4
-1.149, -1.663e-4
-1.148, -1.632e-4
-1.147, -1.632e-4
-1.146, -1.663e-4
-1.145, -1.694e-4
-1.144, -1.663e-4
-1.143, -1.663e-4
-1.142, -1.663e-4
-1.141, -1.663e-4
-1.140, -1.694e-4
-1.139, -1.694e-4
-1.138, -1.694e-4
-1.137, -1.694e-4
-1.136, -1.694e-4
-1.135, -1.725e-4
-1.134, -1.725e-4
-1.133, -1.725e-4
-1.132, -1.725e-4
-1.131, -1.725e-4
-1.130, -1.725e-4
-1.129, -1.725e-4
-1.128, -1.725e-4
-1.127, -1.725e-4
-1.126, -1.756e-4
-1.125, -1.787e-4
-1.124, -1.756e-4
-1.123, -1.756e-4
-1.122, -1.756e-4
-1.121, -1.756e-4
-1.120, -1.787e-4
-1.119, -1.787e-4
-1.118, -1.756e-4
-1.117, -1.787e-4
-1.116, -1.787e-4
-1.115, -1.787e-4
-1.114, -1.787e-4
-1.113, -1.787e-4
-1.112, -1.787e-4
-1.111, -1.787e-4
-1.110, -1.817e-4
-1.109, -1.817e-4
-1.108, -1.817e-4
-1.107, -1.817e-4
-1.106, -1.817e-4
-1.105, -1.848e-4
-1.104, -1.817e-4
-1.103, -1.848e-4
-1.102, -1.817e-4
-1.101, -1.848e-4
-1.100, -1.848e-4
-1.099, -1.848e-4
-1.098, -1.848e-4
-1.097, -1.848e-4
-1.096, -1.848e-4
-1.095, -1.879e-4
-1.094, -1.879e-4
-1.093, -1.848e-4
-1.092, -1.848e-4
-1.091, -1.879e-4
-1.090, -1.879e-4
-1.089, -1.879e-4
-1.088, -1.879e-4
-1.087, -1.879e-4
-1.086, -1.910e-4
-1.085, -1.910e-4
-1.084, -1.910e-4
-1.083, -1.879e-4
-1.082, -1.879e-4
-1.081, -1.910e-4
-1.080, -1.910e-4
-1.079, -1.910e-4
-1.078, -1.910e-4
-1.077, -1.910e-4
-1.076, -1.910e-4
-1.075, -1.941e-4
-1.074, -1.941e-4
-1.073, -1.941e-4
-1.072, -1.941e-4
-1.071, -1.941e-4
-1.070, -1.972e-4
-1.069, -1.941e-4
-1.068, -1.941e-4
-1.067, -1.941e-4
-1.066, -1.972e-4
-1.065, -1.972e-4
-1.064, -1.972e-4
-1.063, -1.972e-4
-1.062, -1.941e-4
-1.061, -1.972e-4
-1.060, -2.002e-4
-1.059, -2.002e-4
-1.058, -1.972e-4
-1.057, -2.002e-4
-1.056, -2.002e-4
-1.055, -2.033e-4
-1.054, -2.002e-4
-1.053, -2.002e-4
-1.052, -2.002e-4
-1.051, -2.002e-4
-1.050, -2.033e-4
-1.049, -2.033e-4
-1.048, -2.002e-4
-1.047, -2.033e-4
-1.046, -2.033e-4
-1.045, -2.033e-4
-1.044, -2.033e-4
-1.043, -2.033e-4
-1.042, -2.002e-4
-1.041, -2.033e-4
-1.040, -2.064e-4
-1.039, -2.064e-4
-1.038, -2.033e-4
-1.037, -2.033e-4
-1.036, -2.064e-4
-1.035, -2.064e-4
-1.034, -2.064e-4
-1.033, -2.064e-4
-1.032, -2.064e-4
-1.031, -2.064e-4
-1.030, -2.095e-4
-1.029, -2.064e-4
-1.028, -2.064e-4
-1.027, -2.064e-4
-1.026, -2.095e-4
-1.025, -2.095e-4
-1.024, -2.095e-4
-1.023, -2.095e-4
-1.022, -2.095e-4
-1.021, -2.095e-4
-1.020, -2.126e-4
-1.019, -2.095e-4
-1.018, -2.095e-4
-1.017, -2.095e-4
-1.016, -2.126e-4
-1.015, -2.126e-4
-1.014, -2.126e-4
-1.013, -2.095e-4
-1.012, -2.095e-4
-1.011, -2.126e-4
-1.010, -2.157e-4
-1.009, -2.126e-4
-1.008, -2.126e-4
-1.007, -2.126e-4
-1.006, -2.157e-4
-1.005, -2.157e-4
-1.004, -2.157e-4
-1.003, -2.126e-4
-1.002, -2.126e-4
-1.001, -2.126e-4
