Potential V vs RHE, Current mA cm-2
0.013299999999999867,1.7429243214337253
0.012299999999999978,-0.48199213986401795
0.011299999999999866,-2.4884771764625997
0.010299999999999976,-4.3205283097878215
0.009299999999999864,-6.152579443113044
0.008299999999999974,-7.940774526142452
0.007299999999999862,-9.728969609171857
0.006299999999999972,-11.473308641905447
0.00529999999999986,-13.13135028534727
0.0042999999999999705,-14.61396772760583
0.0032999999999998586,-16.014531914472215
0.0022999999999999687,-17.2736249713521
0.0012999999999998568,-18.589306480226583
0.00029999999999996696,-19.848399537106463
-0.000700000000000145,-21.149933932982297
-0.0017000000000000348,-22.550498119848687
-0.0027000000000001467,-23.767149837732617
-0.0037000000000000366,-24.95550732961925
-0.0047000000000001485,-26.044835030515326
-0.005700000000000038,-27.00683871442355
-0.00670000000000015,-27.954695285333123
-0.00770000000000004,-28.8742576302454
-0.008700000000000152,-29.921143992145527
-0.009700000000000042,-30.968030354045652
-0.010700000000000154,-32.01491671594578
-0.011700000000000044,-32.97692039985401
-0.012700000000000156,-33.81160006677438
-0.013700000000000045,-34.58969128170015
-0.014700000000000157,-35.282899818634014
-0.015700000000000047,-36.03269680756248
-0.01670000000000016,-36.8532293614842
-0.01770000000000005,-37.73035036740053
-0.01870000000000016,-38.607471373316855
-0.01970000000000005,-39.38556258824262
-0.020700000000000163,-40.092918238175145
-0.021700000000000053,-40.743685436113054
-0.022700000000000164,-41.30956995605907
-0.023700000000000054,-41.91789581500104
-0.024700000000000166,-42.526221673943
-0.025700000000000056,-43.27601866287147
-0.026700000000000168,-44.011668538801295
-0.027700000000000058,-44.704877075735155
-0.02870000000000017,-45.36979138667173
-0.02970000000000006,-45.93567590661774
-0.03070000000000017,-46.41667774857186
-0.03170000000000006,-46.88353247752732
-0.03270000000000017,-47.40697565847737
-0.03370000000000006,-48.029448630417996
-0.034700000000000175,-48.68021582835591
-0.035700000000000065,-49.33098302629383
-0.03670000000000018,-49.939308885235796
-0.03770000000000007,-50.42031072718991
-0.03870000000000018,-50.85887123014807
-0.03970000000000007,-51.29743173310623
-0.04070000000000018,-51.73599223606439
-0.04170000000000007,-52.25943541701445
-0.04270000000000018,-52.86776127595642
-0.04370000000000007,-53.518528473894335
-0.044700000000000184,-54.0419716548444
-0.045700000000000074,-54.52297349679851
-0.046700000000000186,-54.919092660760725
-0.047700000000000076,-55.25862337272834
-0.04870000000000019,-55.65474253669055
-0.04970000000000008,-56.13574437864466
-0.05070000000000019,-56.65918755959472
-0.05170000000000008,-57.26751341853669
-0.05270000000000019,-57.79095659948675
-0.05370000000000008,-58.27195844144086
-0.05470000000000019,-58.71051894439902
-0.05570000000000008,-59.02175543036933
-0.056700000000000195,-59.36128614233694
-0.057700000000000085,-59.757405306299155
-0.058700000000000196,-60.23840714825326
-0.059700000000000086,-60.761850329203334
-0.0607000000000002,-61.28529351015339
-0.06170000000000009,-61.7662953521075
-0.0627000000000002,-62.16241451606972
-0.06370000000000009,-62.501945228037314
-0.0647000000000002,-62.81318171400764
-0.06570000000000009,-63.20930087796983
-0.0667000000000002,-63.59127292893339
-0.0677000000000001,-64.11471610988345
-0.0687000000000002,-64.63815929083353
-0.0697000000000001,-65.11916113278764
-0.07070000000000021,-65.51528029674984
-0.0717000000000001,-65.82651678272015
-0.07270000000000021,-66.12360615569182
-0.0737000000000001,-66.47728398065809
-0.07470000000000021,-66.87340314462028
-0.0757000000000001,-67.34025787357575
-0.07670000000000021,-67.82125971552985
-0.0777000000000001,-68.30226155748396
-0.07870000000000021,-68.69838072144618
-0.0797000000000001,-69.05205854641244
-0.08070000000000022,-69.3491479193841
-0.0817000000000001,-69.61794306635846
-0.08270000000000022,-69.95747377832606
-0.08370000000000011,-70.35359294228827
-0.08470000000000022,-70.79215344524643
-0.08570000000000011,-71.27315528720055
-0.08670000000000022,-71.7117157901587
-0.08770000000000011,-72.00880516313036
-0.08870000000000022,-72.32004164910067
-0.08970000000000011,-72.53224834408043
-0.09070000000000022,-72.84348483005074
-0.09170000000000011,-73.197162655017
-0.09270000000000023,-73.57913470598055
-0.09370000000000012,-74.06013654793468
-0.09470000000000023,-74.45625571189689
-0.09570000000000012,-74.76749219786718
-0.09670000000000023,-75.02214023184291
-0.09770000000000012,-75.19190558782671
-0.09870000000000023,-75.46070073480107
-0.09970000000000012,-75.77193722077136
-0.10070000000000023,-76.11146793273898
-0.10170000000000012,-76.50758709670117
-0.10270000000000024,-76.86126492166746
-0.10370000000000013,-77.1583542946391
-0.10470000000000024,-77.38470810261751
-0.10570000000000013,-77.55447345860131
-0.10670000000000024,-77.76668015358106
-0.10770000000000013,-77.99303396155948
-0.10870000000000024,-78.29012333453113
-0.10970000000000013,-78.64380115949739
-0.11070000000000024,-79.0399203234596
-0.11170000000000013,-79.37945103542721
-0.11270000000000002,-79.64824618240156
-0.11370000000000013,-79.81801153838538
-0.11470000000000002,-79.94533555537322
-0.11570000000000014,-80.12924802435568
-0.11670000000000003,-80.38389605833139
-0.11770000000000014,-80.69513254430169
-0.11870000000000003,-81.13369304725985
-0.11970000000000014,-81.43078242023151
-0.12070000000000003,-81.69957756720586
-0.12170000000000014,-81.91178426218562
-0.12270000000000003,-81.99666694017753
-0.12370000000000014,-82.18057940915998
-0.12470000000000003,-82.35034476514379
-0.12570000000000014,-82.61913991211814
-0.12670000000000003,-82.95867062408576
-0.12770000000000015,-83.22746577106011
-0.12870000000000004,-83.43967246603985
-0.12970000000000015,-83.56699648302772
-0.13070000000000004,-83.56699648302772
-0.13170000000000015,-83.66602627401826
-0.13270000000000004,-83.70846761301424
-0.13370000000000015,-83.87823296899803
-0.13470000000000004,-84.04799832498183
-0.13570000000000015,-84.23191079396429
-0.13670000000000004,-84.40167614994809
-0.13770000000000016,-84.44411748894404
-0.13870000000000005,-84.48655882793999
-0.13970000000000016,-84.48655882793999
-0.14070000000000005,-84.52900016693594
-0.14170000000000016,-84.7129126359184
-0.14270000000000005,-84.8826779919022
-0.14370000000000016,-85.09488468688197
-0.14470000000000005,-85.32123849486035
-0.14570000000000016,-85.40612117285227
-0.14670000000000005,-85.44856251184822
-0.14770000000000016,-85.40612117285227
-0.14870000000000005,-85.44856251184822
-0.14970000000000017,-85.53344518984011
-0.15070000000000006,-85.70321054582392
-0.15170000000000017,-85.92956435380233
-0.15270000000000006,-86.14177104878208
-0.15370000000000017,-86.32568351776455
-0.15470000000000006,-86.41056619575643
-0.15570000000000017,-86.41056619575643
-0.15670000000000006,-86.45300753475239
-0.15770000000000017,-86.49544887374834
-0.15870000000000006,-86.66521422973216
-0.15970000000000018,-86.80668535971866
-0.16070000000000007,-87.01889205469841
-0.16170000000000018,-87.14621607168625
-0.16270000000000007,-87.18865741068221
-0.16370000000000018,-87.23109874967815
-0.16470000000000007,-87.27354008867411
-0.16570000000000018,-87.27354008867411
-0.16670000000000007,-87.37256987966467
-0.16770000000000018,-87.49989389665252
-0.16870000000000007,-87.66965925263632
-0.16970000000000018,-87.85357172161878
-0.17070000000000007,-87.85357172161878
-0.17170000000000019,-87.79698326962418
-0.17270000000000008,-87.75454193062824
-0.1737000000000002,-87.66965925263632
-0.17470000000000008,-87.71210059163228
-0.1757000000000002,-87.85357172161878
-0.17670000000000008,-88.02333707760259
-0.1777000000000002,-88.19310243358639
-0.17870000000000008,-88.23554377258235
-0.1797000000000002,-88.23554377258235
-0.18070000000000008,-88.15066109459043
-0.1817000000000002,-88.06577841659853
-0.18270000000000008,-88.06577841659853
-0.1837000000000002,-88.10821975559449
-0.1847000000000001,-88.23554377258235
-0.1857000000000002,-88.37701490256885
-0.1867000000000001,-88.46189758056073
-0.1877000000000002,-88.5043389195567
-0.1887000000000001,-88.46189758056073
-0.1897000000000002,-88.37701490256885
-0.1907000000000001,-88.27798511157829
-0.1917000000000001,-88.32042645057423
-0.19269999999999998,-88.37701490256885
-0.1937000000000001,-88.5043389195567
-0.19469999999999998,-88.54678025855264
-0.1957000000000001,-88.5043389195567
-0.19669999999999999,-88.4194562415648
-0.1977000000000001,-88.27798511157829
-0.1987,-88.15066109459043
-0.1997000000000001,-88.10821975559449
-0.2007,-88.19310243358639
-0.2017000000000001,-88.23554377258235
-0.2027,-88.27798511157829
-0.2037000000000001,-88.27798511157829
-0.2047,-88.15066109459043
-0.2057000000000001,-88.02333707760259
-0.2067,-87.85357172161878
-0.2077000000000001,-87.71210059163228
-0.2087,-87.71210059163228
-0.2097000000000001,-87.75454193062824
-0.2107,-87.79698326962418
-0.2117000000000001,-87.75454193062824
-0.2127,-87.62721791364037
-0.2137000000000001,-87.45745255765657
-0.2147,-87.23109874967815
-0.2157000000000001,-87.14621607168625
-0.2167,-87.06133339369435
-0.21770000000000012,-87.06133339369435
-0.2187,-87.06133339369435
-0.21970000000000012,-87.06133339369435
-0.2207,-86.93400937670651
-0.22170000000000012,-86.75009690772404
-0.2227,-86.5378902127443
-0.22370000000000012,-86.28324217876859
-0.2247,-86.14177104878208
-0.22570000000000012,-86.09932970978613
-0.2267,-86.05688837079018
-0.22770000000000012,-86.05688837079018
-0.22870000000000001,-85.92956435380233
-0.22970000000000013,-85.70321054582392
-0.23070000000000002,-85.40612117285227
-0.23170000000000013,-85.13732602587791
-0.23270000000000002,-84.92511933089816
-0.23370000000000013,-84.7977953139103
-0.23470000000000002,-84.75535397491434
-0.23570000000000013,-84.6563241839238
-0.23670000000000002,-84.52900016693594
-0.2376999999999999,-84.35923481095215
-0.23870000000000002,-84.09043966397778
-0.2396999999999999,-83.79335029100612
-0.24070000000000003,-83.52455514403178
-0.24169999999999991,-83.35478978804795
-0.24270000000000003,-83.26990711005605
-0.24369999999999992,-83.18502443206415
-0.24470000000000003,-83.04355330207765
-0.24569999999999992,-82.87378794609386
-0.24670000000000003,-82.61913991211814
-0.24769999999999992,-82.30790342614785
-0.24870000000000003,-81.99666694017753
-0.24969999999999992,-81.82690158419373
-0.25070000000000003,-81.69957756720586
-0.2516999999999999,-81.61469488921396
-0.25270000000000004,-81.47322375922747
-0.2536999999999999,-81.3458997422396
-0.25470000000000004,-81.09125170826391
-0.2556999999999999,-80.7800152222936
-0.25670000000000004,-80.52536718831789
-0.25769999999999993,-80.25657204134353
-0.25870000000000004,-80.08680668535972
-0.25969999999999993,-80.00192400736783
-0.26070000000000004,-79.90289421637728
-0.26169999999999993,-79.7755701993894
-0.26270000000000004,-79.56336350440966
-0.26369999999999993,-79.25212701843935
-0.26470000000000005,-78.9550376454677
-0.26569999999999994,-78.64380115949739
-0.26670000000000005,-78.47403580351359
-0.26769999999999994,-78.33256467352709
-0.26870000000000005,-78.29012333453113
-0.26969999999999994,-78.20524065653922
-0.27070000000000005,-77.99303396155948
-0.27169999999999994,-77.7242388145851
-0.27270000000000005,-77.46959078060941
-0.27369999999999994,-77.20079563363505
-0.27470000000000006,-76.98858893865528
-0.27569999999999995,-76.86126492166746
-0.27670000000000006,-76.81882358267148
-0.27769999999999995,-76.71979379168094
-0.27870000000000006,-76.55002843569714
-0.27969999999999995,-76.33782174071737
-0.28070000000000006,-76.02658525474708
-0.28169999999999995,-75.77193722077136
-0.28270000000000006,-75.50314207379701
-0.28369999999999995,-75.4182593958051
-0.28470000000000006,-75.33337671781321
-0.28569999999999995,-75.33337671781321
-0.28670000000000007,-75.2484940398213
-0.28769999999999996,-75.02214023184291
-0.28870000000000007,-74.76749219786718
-0.28969999999999996,-74.49869705089283
-0.29070000000000007,-74.28649035591307
-0.29169999999999996,-74.14501922592657
-0.29270000000000007,-74.06013654793468
-0.29369999999999996,-74.06013654793468
-0.2947000000000001,-73.97525386994278
-0.29569999999999996,-73.80548851395896
-0.2967000000000001,-73.62157604497652
-0.29769999999999996,-73.3669280110008
-0.2987000000000001,-73.15472131602105
-0.29969999999999997,-73.0556915250305
-0.3007000000000001,-73.01325018603454
-0.30169999999999997,-73.01325018603454
-0.3027000000000001,-73.01325018603454
-0.30369999999999997,-72.97080884703858
-0.3047000000000001,-72.80104349105478
-0.30569999999999997,-72.63127813507097
-0.3067000000000001,-72.40492432709259
-0.3077,-72.32004164910067
-0.3087000000000001,-72.27760031010472
-0.3097,-72.32004164910067
-0.3107000000000001,-72.36248298809663
-0.3117,-72.32004164910067
-0.3127000000000001,-72.23515897110877
-0.3137,-72.05124650212633
-0.3147000000000001,-71.83903980714656
-0.3157,-71.7117157901587
-0.3167000000000001,-71.58439177317086
-0.3177,-71.58439177317086
-0.3187000000000001,-71.58439177317086
-0.3197,-71.6268331121668
-0.3207000000000001,-71.58439177317086
-0.3217,-71.48536198218031
-0.3227000000000001,-71.31559662619651
-0.3237,-71.2307139482046
-0.3247000000000001,-71.18827260920865
-0.3257,-71.27315528720055
-0.3267000000000001,-71.35803796519245
-0.3277,-71.4004793041884
-0.3287000000000001,-71.4004793041884
-0.3297,-71.35803796519245
-0.3307000000000001,-71.2307139482046
-0.3317,-71.1458312702127
-0.3327000000000001,-71.06094859222078
-0.3337,-71.1458312702127
-0.3347000000000001,-71.2307139482046
-0.3357,-71.35803796519245
-0.3367000000000001,-71.44292064318435
-0.3377,-71.4004793041884
-0.3387000000000001,-71.31559662619651
-0.3397,-71.2307139482046
-0.3407000000000001,-71.1458312702127
-0.3417,-71.1458312702127
-0.3427000000000001,-71.27315528720055
-0.3437,-71.4004793041884
-0.3447000000000001,-71.58439177317086
-0.3457,-71.6268331121668
-0.3467000000000001,-71.6268331121668
-0.3477,-71.6268331121668
-0.3487000000000001,-71.6268331121668
-0.3497,-71.7117157901587
-0.3507000000000001,-71.96636382413442
-0.3517,-72.19271763211282
-0.3527000000000001,-72.44736566608852
-0.3537,-72.63127813507097
-0.3547000000000001,-72.75860215205884
-0.3557,-72.80104349105478
-0.35670000000000013,-72.92836750804264
-0.3577,-73.01325018603454
-0.35870000000000013,-73.23960399401295
-0.3597,-73.49425202798865
-0.36070000000000013,-73.76304717496302
-0.3617,-74.0176952089387
-0.3626999999999999,-74.10257788693062
-0.3637,-74.24404901691713
-0.3646999999999999,-74.32893169490903
-0.3657,-74.45625571189689
-0.3666999999999999,-74.62602106788069
-0.3677,-74.93725755385098
-0.3686999999999999,-75.2484940398213
-0.36970000000000003,-75.54558341279296
-0.3706999999999999,-75.77193722077136
-0.37170000000000003,-75.94170257675518
-0.3726999999999999,-76.06902659374302
-0.37370000000000003,-76.29538040172143
-0.3746999999999999,-76.55002843569714
-0.37570000000000003,-76.86126492166746
-0.3766999999999999,-77.28567831162695
-0.37770000000000004,-77.63935613659322
-0.3786999999999999,-77.99303396155948
-0.37970000000000004,-78.24768199553519
-0.3806999999999999,-78.47403580351359
-0.38170000000000004,-78.72868383748929
-0.38269999999999993,-79.08236166245555
-0.38370000000000004,-79.52092216541372
-0.38469999999999993,-80.00192400736783
-0.38570000000000004,-80.52536718831789
-0.38669999999999993,-79.33700969643127
-0.38570000000000004,-75.29093537881725
-0.38469999999999993,-71.58439177317086
-0.38370000000000004,-68.17493754049613
-0.38269999999999993,-65.03427845479574
-0.38170000000000004,-62.20485585506566
-0.3806999999999999,-59.587639950315335
-0.37970000000000004,-57.14018940154883
-0.3786999999999999,-54.834209982768826
-0.37770000000000004,-52.514083450990164
-0.3766999999999999,-50.29298671020206
-0.37570000000000003,-48.114331308409895
-0.3746999999999999,-46.062999923605595
-0.37370000000000003,-44.181433894785094
-0.3726999999999999,-42.39889765695515
-0.37170000000000003,-40.78612677510901
-0.3706999999999999,-39.21579723225882
-0.36970000000000003,-37.60302635041268
-0.3686999999999999,-35.99025546856653
-0.3677,-34.462367264712285
-0.3666999999999999,-32.93447906085806
-0.3657,-31.533914873991666
-0.3646999999999999,-30.274821817111786
-0.3637,-29.100611438223805
-0.3626999999999999,-27.954695285333123
-0.3617,-26.822926245441096
-0.36070000000000013,-25.60627452755716
-0.3597,-24.389622809673234
-0.35870000000000013,-23.1163826397947
-0.3577,-21.98461359990267
-0.35670000000000013,-20.93772723800254
-0.3557,-20.01816489309027
-0.3547000000000001,-19.112749661176647
-0.3537,-18.19318731626437
-0.3527000000000001,-17.188742293360193
-0.3517,-16.184297270456018
-0.3507000000000001,-15.137410908555893
-0.3497,-14.175407224647667
-0.3487000000000001,-13.261503724934855
-0.3477,-12.476338953509758
-0.3467000000000001,-11.73503023238048
-0.3457,-10.949865460955383
-0.3447000000000001,-10.164700689530287
-0.3437,-9.293238528813426
-0.3427000000000001,-8.4203616567967
-0.3417,-7.5474847847799715
-0.3407000000000001,-6.719878674358924
-0.3397,-6.021011292225596
-0.3387000000000001,-5.411270721983764
-0.3377,-4.756259390146253
-0.3367000000000001,-4.146518819904423
-0.3357,-3.361354048479327
-0.3347000000000001,-2.576189277054232
-0.3337,-1.7910245056291363
-0.3327000000000001,-1.0490084288499246
-0.3317,-0.3947044526623452
-0.3307000000000001,0.12863969849672777
-0.3297,0.6520404381077953
-0.3287000000000001,1.219056727093702
-0.3277,1.8730777610213083
-0.3267000000000001,2.5280890928588207
-0.3257,3.225541763692284
-0.3247000000000001,3.922994434525747
-0.3237,4.534149716067443
-0.3227000000000001,5.01373684672169
-0.3217,5.449467927080121
-0.3207000000000001,5.929055057734368
-0.3197,6.410056899688482
-0.3187000000000001,7.063653520226129
-0.3177,7.674808801767824
-0.3167000000000001,8.284549372009655
-0.3157,8.851848603255535
-0.3147000000000001,9.287579683613965
-0.3137,9.724725475272262
-0.3127000000000001,10.116600505334876
-0.3117,10.553746296993173
-0.3107000000000001,11.119630816939189
-0.3097,11.643073997889251
-0.3087000000000001,12.254229279430946
-0.3077,12.733816410085195
-0.3067000000000001,13.169547490443627
-0.30569999999999997,13.562837231806107
-0.3047000000000001,13.868414872576954
-0.30369999999999997,14.217848563643619
-0.3027000000000001,14.69885040559773
-0.30169999999999997,15.179852247551842
-0.3007000000000001,15.70329542850191
-0.29969999999999997,16.184297270456018
-0.2987000000000001,16.56626932141958
-0.29769999999999996,16.919947146385837
-0.2967000000000001,17.188742293360193
-0.29569999999999996,17.48583166633185
-0.2947000000000001,17.839509491298113
-0.29369999999999996,18.27806999425627
-0.29270000000000007,18.759071836210385
-0.29169999999999996,19.22592656516585
-0.29070000000000007,19.622045729128057
-0.28969999999999996,19.93328221509837
-0.28870000000000007,20.187930249074075
-0.28769999999999996,20.414284057052477
-0.28670000000000007,20.75381476902009
-0.28569999999999995,21.065051254990397
-0.28470000000000006,21.503611757948562
-0.28369999999999995,21.98461359990267
-0.28270000000000006,22.324144311870278
-0.28169999999999995,22.63538079784059
-0.28070000000000006,22.890028831816295
-0.27969999999999995,23.073941300798747
-0.27870000000000006,23.328589334774456
-0.27769999999999995,23.639825820744765
-0.27670000000000006,24.035944984706973
-0.27569999999999995,24.460358374666487
-0.27470000000000006,24.814036199632742
-0.27369999999999994,25.167714024599
-0.27270000000000005,25.37992071957876
-0.27169999999999994,25.563833188561212
-0.27070000000000005,25.77603988354097
-0.26969999999999994,25.988246578520723
-0.26870000000000005,26.34192440348698
-0.26769999999999994,26.738043567449193
-0.26670000000000005,27.0775742794168
-0.26569999999999994,27.43125210438306
-0.26470000000000005,27.601017460366865
-0.26369999999999993,27.742488590353368
-0.26270000000000004,27.912253946337174
-0.26169999999999993,28.082019302320973
-0.26070000000000004,28.350814449295335
