Aug. 6, 2024   23:39:48
Linear Sweep Voltammetry
File: c:/users/guazh/data/20240802_batch_500/2024-08-02-exp39\1acid_3ac-2024-08-06t23_36_34-lsvinphos\1acid_3ac_lsv_50mvs_efin_-2300mv.bin
Data Source:  Experiment
Instrument Model:  CHI760E
Header: LSV ran at 50 mVs with Efin at -2300mV
Note: 

Init E (V) = -0.6
Final E (V) = -2.3
Scan Rate (V/s) = 0.05
Sample Interval (V) = 0.001
Quiet Time (sec) = 2
Sensitivity (A/V) = 1e-4
Comp R (ohm) = 7.5

Results:

Channel 1:
Ep = -2.056V
ip = 5.894e-4A
Ah = 9.062e-4C

Potential/V, Current/A

-0.600, 1.714e-6
-0.601, 1.791e-6
-0.602, 1.829e-6
-0.603, 1.856e-6
-0.604, 1.881e-6
-0.605, 1.904e-6
-0.606, 1.928e-6
-0.607, 1.950e-6
-0.608, 1.971e-6
-0.609, 1.993e-6
-0.610, 2.014e-6
-0.611, 2.037e-6
-0.612, 2.059e-6
-0.613, 2.079e-6
-0.614, 2.101e-6
-0.615, 2.123e-6
-0.616, 2.145e-6
-0.617, 2.166e-6
-0.618, 2.184e-6
-0.619, 2.204e-6
-0.620, 2.225e-6
-0.621, 2.247e-6
-0.622, 2.267e-6
-0.623, 2.286e-6
-0.624, 2.308e-6
-0.625, 2.329e-6
-0.626, 2.352e-6
-0.627, 2.374e-6
-0.628, 2.397e-6
-0.629, 2.417e-6
-0.630, 2.439e-6
-0.631, 2.462e-6
-0.632, 2.483e-6
-0.633, 2.504e-6
-0.634, 2.526e-6
-0.635, 2.550e-6
-0.636, 2.576e-6
-0.637, 2.598e-6
-0.638, 2.621e-6
-0.639, 2.643e-6
-0.640, 2.668e-6
-0.641, 2.693e-6
-0.642, 2.715e-6
-0.643, 2.738e-6
-0.644, 2.762e-6
-0.645, 2.786e-6
-0.646, 2.813e-6
-0.647, 2.836e-6
-0.648, 2.859e-6
-0.649, 2.884e-6
-0.650, 2.909e-6
-0.651, 2.936e-6
-0.652, 2.962e-6
-0.653, 2.985e-6
-0.654, 3.009e-6
-0.655, 3.035e-6
-0.656, 3.064e-6
-0.657, 3.090e-6
-0.658, 3.114e-6
-0.659, 3.141e-6
-0.660, 3.168e-6
-0.661, 3.196e-6
-0.662, 3.222e-6
-0.663, 3.248e-6
-0.664, 3.272e-6
-0.665, 3.301e-6
-0.666, 3.332e-6
-0.667, 3.358e-6
-0.668, 3.384e-6
-0.669, 3.411e-6
-0.670, 3.440e-6
-0.671, 3.469e-6
-0.672, 3.496e-6
-0.673, 3.524e-6
-0.674, 3.550e-6
-0.675, 3.580e-6
-0.676, 3.611e-6
-0.677, 3.638e-6
-0.678, 3.666e-6
-0.679, 3.696e-6
-0.680, 3.727e-6
-0.681, 3.757e-6
-0.682, 3.783e-6
-0.683, 3.813e-6
-0.684, 3.843e-6
-0.685, 3.875e-6
-0.686, 3.906e-6
-0.687, 3.934e-6
-0.688, 3.963e-6
-0.689, 3.993e-6
-0.690, 4.024e-6
-0.691, 4.057e-6
-0.692, 4.086e-6
-0.693, 4.116e-6
-0.694, 4.147e-6
-0.695, 4.176e-6
-0.696, 4.208e-6
-0.697, 4.238e-6
-0.698, 4.268e-6
-0.699, 4.298e-6
-0.700, 4.330e-6
-0.701, 4.363e-6
-0.702, 4.394e-6
-0.703, 4.425e-6
-0.704, 4.457e-6
-0.705, 4.489e-6
-0.706, 4.524e-6
-0.707, 4.556e-6
-0.708, 4.589e-6
-0.709, 4.619e-6
-0.710, 4.652e-6
-0.711, 4.687e-6
-0.712, 4.718e-6
-0.713, 4.749e-6
-0.714, 4.781e-6
-0.715, 4.815e-6
-0.716, 4.849e-6
-0.717, 4.880e-6
-0.718, 4.911e-6
-0.719, 4.942e-6
-0.720, 4.977e-6
-0.721, 5.012e-6
-0.722, 5.042e-6
-0.723, 5.076e-6
-0.724, 5.106e-6
-0.725, 5.139e-6
-0.726, 5.174e-6
-0.727, 5.206e-6
-0.728, 5.239e-6
-0.729, 5.270e-6
-0.730, 5.304e-6
-0.731, 5.339e-6
-0.732, 5.370e-6
-0.733, 5.401e-6
-0.734, 5.432e-6
-0.735, 5.465e-6
-0.736, 5.501e-6
-0.737, 5.533e-6
-0.738, 5.566e-6
-0.739, 5.596e-6
-0.740, 5.629e-6
-0.741, 5.662e-6
-0.742, 5.694e-6
-0.743, 5.726e-6
-0.744, 5.758e-6
-0.745, 5.792e-6
-0.746, 5.825e-6
-0.747, 5.856e-6
-0.748, 5.886e-6
-0.749, 5.915e-6
-0.750, 5.945e-6
-0.751, 5.977e-6
-0.752, 6.007e-6
-0.753, 6.037e-6
-0.754, 6.068e-6
-0.755, 6.100e-6
-0.756, 6.134e-6
-0.757, 6.161e-6
-0.758, 6.191e-6
-0.759, 6.218e-6
-0.760, 6.248e-6
-0.761, 6.280e-6
-0.762, 6.309e-6
-0.763, 6.338e-6
-0.764, 6.367e-6
-0.765, 6.397e-6
-0.766, 6.428e-6
-0.767, 6.456e-6
-0.768, 6.486e-6
-0.769, 6.514e-6
-0.770, 6.543e-6
-0.771, 6.574e-6
-0.772, 6.600e-6
-0.773, 6.627e-6
-0.774, 6.654e-6
-0.775, 6.682e-6
-0.776, 6.712e-6
-0.777, 6.739e-6
-0.778, 6.763e-6
-0.779, 6.790e-6
-0.780, 6.818e-6
-0.781, 6.846e-6
-0.782, 6.871e-6
-0.783, 6.894e-6
-0.784, 6.919e-6
-0.785, 6.947e-6
-0.786, 6.973e-6
-0.787, 6.996e-6
-0.788, 7.019e-6
-0.789, 7.042e-6
-0.790, 7.069e-6
-0.791, 7.094e-6
-0.792, 7.115e-6
-0.793, 7.140e-6
-0.794, 7.165e-6
-0.795, 7.188e-6
-0.796, 7.211e-6
-0.797, 7.233e-6
-0.798, 7.254e-6
-0.799, 7.275e-6
-0.800, 7.298e-6
-0.801, 7.320e-6
-0.802, 7.339e-6
-0.803, 7.359e-6
-0.804, 7.378e-6
-0.805, 7.399e-6
-0.806, 7.420e-6
-0.807, 7.440e-6
-0.808, 7.460e-6
-0.809, 7.478e-6
-0.810, 7.498e-6
-0.811, 7.517e-6
-0.812, 7.535e-6
-0.813, 7.551e-6
-0.814, 7.568e-6
-0.815, 7.588e-6
-0.816, 7.606e-6
-0.817, 7.624e-6
-0.818, 7.640e-6
-0.819, 7.659e-6
-0.820, 7.678e-6
-0.821, 7.694e-6
-0.822, 7.709e-6
-0.823, 7.724e-6
-0.824, 7.738e-6
-0.825, 7.756e-6
-0.826, 7.771e-6
-0.827, 7.784e-6
-0.828, 7.796e-6
-0.829, 7.810e-6
-0.830, 7.824e-6
-0.831, 7.839e-6
-0.832, 7.852e-6
-0.833, 7.865e-6
-0.834, 7.876e-6
-0.835, 7.891e-6
-0.836, 7.903e-6
-0.837, 7.914e-6
-0.838, 7.926e-6
-0.839, 7.936e-6
-0.840, 7.951e-6
-0.841, 7.963e-6
-0.842, 7.972e-6
-0.843, 7.983e-6
-0.844, 7.993e-6
-0.845, 8.005e-6
-0.846, 8.016e-6
-0.847, 8.025e-6
-0.848, 8.035e-6
-0.849, 8.043e-6
-0.850, 8.053e-6
-0.851, 8.065e-6
-0.852, 8.073e-6
-0.853, 8.081e-6
-0.854, 8.090e-6
-0.855, 8.100e-6
-0.856, 8.109e-6
-0.857, 8.117e-6
-0.858, 8.124e-6
-0.859, 8.131e-6
-0.860, 8.140e-6
-0.861, 8.150e-6
-0.862, 8.156e-6
-0.863, 8.164e-6
-0.864, 8.171e-6
-0.865, 8.182e-6
-0.866, 8.189e-6
-0.867, 8.196e-6
-0.868, 8.203e-6
-0.869, 8.208e-6
-0.870, 8.219e-6
-0.871, 8.226e-6
-0.872, 8.232e-6
-0.873, 8.238e-6
-0.874, 8.244e-6
-0.875, 8.251e-6
-0.876, 8.258e-6
-0.877, 8.263e-6
-0.878, 8.267e-6
-0.879, 8.273e-6
-0.880, 8.280e-6
-0.881, 8.297e-6
-0.882, 8.317e-6
-0.883, 8.324e-6
-0.884, 8.329e-6
-0.885, 8.335e-6
-0.886, 8.342e-6
-0.887, 8.346e-6
-0.888, 8.351e-6
-0.889, 8.355e-6
-0.890, 8.363e-6
-0.891, 8.368e-6
-0.892, 8.372e-6
-0.893, 8.376e-6
-0.894, 8.381e-6
-0.895, 8.387e-6
-0.896, 8.393e-6
-0.897, 8.397e-6
-0.898, 8.400e-6
-0.899, 8.403e-6
-0.900, 8.410e-6
-0.901, 8.414e-6
-0.902, 8.419e-6
-0.903, 8.423e-6
-0.904, 8.427e-6
-0.905, 8.432e-6
-0.906, 8.439e-6
-0.907, 8.442e-6
-0.908, 8.446e-6
-0.909, 8.451e-6
-0.910, 8.456e-6
-0.911, 8.462e-6
-0.912, 8.466e-6
-0.913, 8.470e-6
-0.914, 8.475e-6
-0.915, 8.482e-6
-0.916, 8.487e-6
-0.917, 8.491e-6
-0.918, 8.494e-6
-0.919, 8.498e-6
-0.920, 8.505e-6
-0.921, 8.510e-6
-0.922, 8.514e-6
-0.923, 8.519e-6
-0.924, 8.523e-6
-0.925, 8.527e-6
-0.926, 8.533e-6
-0.927, 8.537e-6
-0.928, 8.542e-6
-0.929, 8.546e-6
-0.930, 8.553e-6
-0.931, 8.558e-6
-0.932, 8.561e-6
-0.933, 8.564e-6
-0.934, 8.569e-6
-0.935, 8.577e-6
-0.936, 8.582e-6
-0.937, 8.585e-6
-0.938, 8.589e-6
-0.939, 8.593e-6
-0.940, 8.599e-6
-0.941, 8.605e-6
-0.942, 8.608e-6
-0.943, 8.611e-6
-0.944, 8.616e-6
-0.945, 8.623e-6
-0.946, 8.628e-6
-0.947, 8.632e-6
-0.948, 8.636e-6
-0.949, 8.640e-6
-0.950, 8.647e-6
-0.951, 8.652e-6
-0.952, 8.656e-6
-0.953, 8.661e-6
-0.954, 8.666e-6
-0.955, 8.674e-6
-0.956, 8.679e-6
-0.957, 8.683e-6
-0.958, 8.687e-6
-0.959, 8.693e-6
-0.960, 8.700e-6
-0.961, 8.706e-6
-0.962, 8.709e-6
-0.963, 8.716e-6
-0.964, 8.722e-6
-0.965, 8.728e-6
-0.966, 8.734e-6
-0.967, 8.738e-6
-0.968, 8.743e-6
-0.969, 8.748e-6
-0.970, 8.755e-6
-0.971, 8.761e-6
-0.972, 8.765e-6
-0.973, 8.772e-6
-0.974, 8.779e-6
-0.975, 8.785e-6
-0.976, 8.790e-6
-0.977, 8.795e-6
-0.978, 8.800e-6
-0.979, 8.806e-6
-0.980, 8.814e-6
-0.981, 8.820e-6
-0.982, 8.823e-6
-0.983, 8.828e-6
-0.984, 8.835e-6
-0.985, 8.842e-6
-0.986, 8.847e-6
-0.987, 8.852e-6
-0.988, 8.858e-6
-0.989, 8.885e-6
-0.990, 8.937e-6
-0.991, 8.949e-6
-0.992, 8.958e-6
-0.993, 8.965e-6
-0.994, 8.972e-6
-0.995, 8.982e-6
-0.996, 8.989e-6
-0.997, 8.994e-6
-0.998, 9.002e-6
-0.999, 9.009e-6
-1.000, 9.017e-6
-1.001, 9.025e-6
-1.002, 9.030e-6
-1.003, 9.037e-6
-1.004, 9.044e-6
-1.005, 9.052e-6
-1.006, 9.060e-6
-1.007, 9.065e-6
-1.008, 9.072e-6
-1.009, 9.079e-6
-1.010, 9.094e-6
-1.011, 9.114e-6
-1.012, 9.120e-6
-1.013, 9.127e-6
-1.014, 9.134e-6
-1.015, 9.142e-6
-1.016, 9.149e-6
-1.017, 9.155e-6
-1.018, 9.161e-6
-1.019, 9.169e-6
-1.020, 9.178e-6
-1.021, 9.185e-6
-1.022, 9.192e-6
-1.023, 9.198e-6
-1.024, 9.211e-6
-1.025, 9.222e-6
-1.026, 9.230e-6
-1.027, 9.236e-6
-1.028, 9.243e-6
-1.029, 9.310e-6
-1.030, 9.369e-6
-1.031, 9.384e-6
-1.032, 9.393e-6
-1.033, 9.414e-6
-1.034, 9.434e-6
-1.035, 9.446e-6
-1.036, 9.457e-6
-1.037, 9.466e-6
-1.038, 9.473e-6
-1.039, 9.483e-6
-1.040, 9.495e-6
-1.041, 9.503e-6
-1.042, 9.511e-6
-1.043, 9.520e-6
-1.044, 9.529e-6
-1.045, 9.538e-6
-1.046, 9.546e-6
-1.047, 9.554e-6
-1.048, 9.562e-6
-1.049, 9.570e-6
-1.050, 9.582e-6
-1.051, 9.590e-6
-1.052, 9.597e-6
-1.053, 9.606e-6
-1.054, 9.613e-6
-1.055, 9.624e-6
-1.056, 9.632e-6
-1.057, 9.638e-6
-1.058, 9.645e-6
-1.059, 9.654e-6
-1.060, 9.664e-6
-1.061, 9.672e-6
-1.062, 9.678e-6
-1.063, 9.686e-6
-1.064, 9.696e-6
-1.065, 9.707e-6
-1.066, 9.714e-6
-1.067, 9.722e-6
-1.068, 9.729e-6
-1.069, 9.739e-6
-1.070, 9.750e-6
-1.071, 9.755e-6
-1.072, 9.763e-6
-1.073, 9.770e-6
-1.074, 9.781e-6
-1.075, 9.792e-6
-1.076, 9.800e-6
-1.077, 9.808e-6
-1.078, 9.816e-6
-1.079, 9.825e-6
-1.080, 9.836e-6
-1.081, 9.846e-6
-1.082, 9.852e-6
-1.083, 9.861e-6
-1.084, 9.869e-6
-1.085, 9.880e-6
-1.086, 9.887e-6
-1.087, 9.895e-6
-1.088, 9.903e-6
-1.089, 9.913e-6
-1.090, 9.923e-6
-1.091, 9.932e-6
-1.092, 9.937e-6
-1.093, 9.945e-6
-1.094, 9.956e-6
-1.095, 9.967e-6
-1.096, 9.976e-6
-1.097, 9.986e-6
-1.098, 9.994e-6
-1.099, 1.000e-5
-1.100, 1.002e-5
-1.101, 1.002e-5
-1.102, 1.003e-5
-1.103, 1.004e-5
-1.104, 1.005e-5
-1.105, 1.006e-5
-1.106, 1.007e-5
-1.107, 1.007e-5
-1.108, 1.008e-5
-1.109, 1.009e-5
-1.110, 1.011e-5
-1.111, 1.011e-5
-1.112, 1.012e-5
-1.113, 1.013e-5
-1.114, 1.014e-5
-1.115, 1.015e-5
-1.116, 1.016e-5
-1.117, 1.017e-5
-1.118, 1.018e-5
-1.119, 1.019e-5
-1.120, 1.020e-5
-1.121, 1.021e-5
-1.122, 1.022e-5
-1.123, 1.023e-5
-1.124, 1.024e-5
-1.125, 1.025e-5
-1.126, 1.026e-5
-1.127, 1.027e-5
-1.128, 1.028e-5
-1.129, 1.029e-5
-1.130, 1.030e-5
-1.131, 1.031e-5
-1.132, 1.032e-5
-1.133, 1.033e-5
-1.134, 1.034e-5
-1.135, 1.036e-5
-1.136, 1.036e-5
-1.137, 1.036e-5
-1.138, 1.037e-5
-1.139, 1.039e-5
-1.140, 1.040e-5
-1.141, 1.041e-5
-1.142, 1.042e-5
-1.143, 1.043e-5
-1.144, 1.044e-5
-1.145, 1.046e-5
-1.146, 1.047e-5
-1.147, 1.048e-5
-1.148, 1.049e-5
-1.149, 1.050e-5
-1.150, 1.052e-5
-1.151, 1.053e-5
-1.152, 1.054e-5
-1.153, 1.055e-5
-1.154, 1.057e-5
-1.155, 1.058e-5
-1.156, 1.059e-5
-1.157, 1.060e-5
-1.158, 1.062e-5
-1.159, 1.063e-5
-1.160, 1.064e-5
-1.161, 1.065e-5
-1.162, 1.066e-5
-1.163, 1.067e-5
-1.164, 1.069e-5
-1.165, 1.070e-5
-1.166, 1.071e-5
-1.167, 1.073e-5
-1.168, 1.074e-5
-1.169, 1.075e-5
-1.170, 1.077e-5
-1.171, 1.078e-5
-1.172, 1.080e-5
-1.173, 1.081e-5
-1.174, 1.083e-5
-1.175, 1.084e-5
-1.176, 1.086e-5
-1.177, 1.090e-5
-1.178, 1.096e-5
-1.179, 1.099e-5
-1.180, 1.101e-5
-1.181, 1.103e-5
-1.182, 1.105e-5
-1.183, 1.106e-5
-1.184, 1.108e-5
-1.185, 1.110e-5
-1.186, 1.111e-5
-1.187, 1.113e-5
-1.188, 1.114e-5
-1.189, 1.116e-5
-1.190, 1.118e-5
-1.191, 1.119e-5
-1.192, 1.121e-5
-1.193, 1.122e-5
-1.194, 1.124e-5
-1.195, 1.126e-5
-1.196, 1.127e-5
-1.197, 1.129e-5
-1.198, 1.131e-5
-1.199, 1.132e-5
-1.200, 1.134e-5
-1.201, 1.136e-5
-1.202, 1.138e-5
-1.203, 1.139e-5
-1.204, 1.141e-5
-1.205, 1.143e-5
-1.206, 1.145e-5
-1.207, 1.147e-5
-1.208, 1.148e-5
-1.209, 1.150e-5
-1.210, 1.152e-5
-1.211, 1.154e-5
-1.212, 1.155e-5
-1.213, 1.157e-5
-1.214, 1.159e-5
-1.215, 1.161e-5
-1.216, 1.163e-5
-1.217, 1.165e-5
-1.218, 1.167e-5
-1.219, 1.169e-5
-1.220, 1.171e-5
-1.221, 1.173e-5
-1.222, 1.175e-5
-1.223, 1.176e-5
-1.224, 1.178e-5
-1.225, 1.180e-5
-1.226, 1.182e-5
-1.227, 1.184e-5
-1.228, 1.186e-5
-1.229, 1.189e-5
-1.230, 1.191e-5
-1.231, 1.193e-5
-1.232, 1.195e-5
-1.233, 1.197e-5
-1.234, 1.199e-5
-1.235, 1.202e-5
-1.236, 1.203e-5
-1.237, 1.205e-5
-1.238, 1.207e-5
-1.239, 1.209e-5
-1.240, 1.211e-5
-1.241, 1.213e-5
-1.242, 1.216e-5
-1.243, 1.218e-5
-1.244, 1.220e-5
-1.245, 1.223e-5
-1.246, 1.225e-5
-1.247, 1.227e-5
-1.248, 1.230e-5
-1.249, 1.232e-5
-1.250, 1.235e-5
-1.251, 1.237e-5
-1.252, 1.239e-5
-1.253, 1.241e-5
-1.254, 1.244e-5
-1.255, 1.246e-5
-1.256, 1.248e-5
-1.257, 1.251e-5
-1.258, 1.253e-5
-1.259, 1.255e-5
-1.260, 1.258e-5
-1.261, 1.260e-5
-1.262, 1.262e-5
-1.263, 1.265e-5
-1.264, 1.267e-5
-1.265, 1.270e-5
-1.266, 1.273e-5
-1.267, 1.275e-5
-1.268, 1.278e-5
-1.269, 1.281e-5
-1.270, 1.285e-5
-1.271, 1.287e-5
-1.272, 1.290e-5
-1.273, 1.293e-5
-1.274, 1.296e-5
-1.275, 1.299e-5
-1.276, 1.302e-5
-1.277, 1.304e-5
-1.278, 1.307e-5
-1.279, 1.310e-5
-1.280, 1.313e-5
-1.281, 1.315e-5
-1.282, 1.318e-5
-1.283, 1.321e-5
-1.284, 1.324e-5
-1.285, 1.327e-5
-1.286, 1.329e-5
-1.287, 1.332e-5
-1.288, 1.335e-5
-1.289, 1.338e-5
-1.290, 1.340e-5
-1.291, 1.343e-5
-1.292, 1.346e-5
-1.293, 1.348e-5
-1.294, 1.351e-5
-1.295, 1.354e-5
-1.296, 1.357e-5
-1.297, 1.360e-5
-1.298, 1.363e-5
-1.299, 1.366e-5
-1.300, 1.369e-5
-1.301, 1.373e-5
-1.302, 1.376e-5
-1.303, 1.379e-5
-1.304, 1.382e-5
-1.305, 1.385e-5
-1.306, 1.388e-5
-1.307, 1.391e-5
-1.308, 1.394e-5
-1.309, 1.397e-5
-1.310, 1.401e-5
-1.311, 1.404e-5
-1.312, 1.407e-5
-1.313, 1.409e-5
-1.314, 1.412e-5
-1.315, 1.415e-5
-1.316, 1.418e-5
-1.317, 1.420e-5
-1.318, 1.423e-5
-1.319, 1.426e-5
-1.320, 1.429e-5
-1.321, 1.431e-5
-1.322, 1.434e-5
-1.323, 1.437e-5
-1.324, 1.441e-5
-1.325, 1.440e-5
-1.326, 1.441e-5
-1.327, 1.445e-5
-1.328, 1.448e-5
-1.329, 1.452e-5
-1.330, 1.455e-5
-1.331, 1.459e-5
-1.332, 1.462e-5
-1.333, 1.466e-5
-1.334, 1.469e-5
-1.335, 1.472e-5
-1.336, 1.475e-5
-1.337, 1.477e-5
-1.338, 1.480e-5
-1.339, 1.483e-5
-1.340, 1.486e-5
-1.341, 1.489e-5
-1.342, 1.491e-5
-1.343, 1.494e-5
-1.344, 1.497e-5
-1.345, 1.500e-5
-1.346, 1.502e-5
-1.347, 1.505e-5
-1.348, 1.507e-5
-1.349, 1.510e-5
-1.350, 1.512e-5
-1.351, 1.515e-5
-1.352, 1.517e-5
-1.353, 1.520e-5
-1.354, 1.522e-5
-1.355, 1.525e-5
-1.356, 1.527e-5
-1.357, 1.529e-5
-1.358, 1.532e-5
-1.359, 1.534e-5
-1.360, 1.537e-5
-1.361, 1.539e-5
-1.362, 1.542e-5
-1.363, 1.544e-5
-1.364, 1.547e-5
-1.365, 1.549e-5
-1.366, 1.552e-5
-1.367, 1.554e-5
-1.368, 1.556e-5
-1.369, 1.559e-5
-1.370, 1.561e-5
-1.371, 1.563e-5
-1.372, 1.566e-5
-1.373, 1.568e-5
-1.374, 1.571e-5
-1.375, 1.573e-5
-1.376, 1.575e-5
-1.377, 1.578e-5
-1.378, 1.580e-5
-1.379, 1.582e-5
-1.380, 1.585e-5
-1.381, 1.587e-5
-1.382, 1.589e-5
-1.383, 1.592e-5
-1.384, 1.594e-5
-1.385, 1.597e-5
-1.386, 1.599e-5
-1.387, 1.601e-5
-1.388, 1.604e-5
-1.389, 1.606e-5
-1.390, 1.609e-5
-1.391, 1.611e-5
-1.392, 1.614e-5
-1.393, 1.616e-5
-1.394, 1.618e-5
-1.395, 1.621e-5
-1.396, 1.623e-5
-1.397, 1.625e-5
-1.398, 1.627e-5
-1.399, 1.630e-5
-1.400, 1.632e-5
-1.401, 1.635e-5
-1.402, 1.638e-5
-1.403, 1.640e-5
-1.404, 1.643e-5
-1.405, 1.645e-5
-1.406, 1.647e-5
-1.407, 1.649e-5
-1.408, 1.652e-5
-1.409, 1.655e-5
-1.410, 1.657e-5
-1.411, 1.660e-5
-1.412, 1.662e-5
-1.413, 1.665e-5
-1.414, 1.668e-5
-1.415, 1.670e-5
-1.416, 1.672e-5
-1.417, 1.675e-5
-1.418, 1.677e-5
-1.419, 1.680e-5
-1.420, 1.682e-5
-1.421, 1.685e-5
-1.422, 1.688e-5
-1.423, 1.690e-5
-1.424, 1.693e-5
-1.425, 1.695e-5
-1.426, 1.698e-5
-1.427, 1.701e-5
-1.428, 1.703e-5
-1.429, 1.706e-5
-1.430, 1.709e-5
-1.431, 1.712e-5
-1.432, 1.715e-5
-1.433, 1.717e-5
-1.434, 1.721e-5
-1.435, 1.723e-5
-1.436, 1.726e-5
-1.437, 1.729e-5
-1.438, 1.732e-5
-1.439, 1.735e-5
-1.440, 1.738e-5
-1.441, 1.741e-5
-1.442, 1.743e-5
-1.443, 1.746e-5
-1.444, 1.749e-5
-1.445, 1.753e-5
-1.446, 1.756e-5
-1.447, 1.759e-5
-1.448, 1.762e-5
-1.449, 1.765e-5
-1.450, 1.768e-5
-1.451, 1.771e-5
-1.452, 1.774e-5
-1.453, 1.777e-5
-1.454, 1.781e-5
-1.455, 1.784e-5
-1.456, 1.787e-5
-1.457, 1.790e-5
-1.458, 1.794e-5
-1.459, 1.797e-5
-1.460, 1.800e-5
-1.461, 1.803e-5
-1.462, 1.807e-5
-1.463, 1.810e-5
-1.464, 1.814e-5
-1.465, 1.817e-5
-1.466, 1.821e-5
-1.467, 1.824e-5
-1.468, 1.827e-5
-1.469, 1.831e-5
-1.470, 1.835e-5
-1.471, 1.838e-5
-1.472, 1.842e-5
-1.473, 1.845e-5
-1.474, 1.849e-5
-1.475, 1.853e-5
-1.476, 1.857e-5
-1.477, 1.860e-5
-1.478, 1.864e-5
-1.479, 1.868e-5
-1.480, 1.872e-5
-1.481, 1.876e-5
-1.482, 1.879e-5
-1.483, 1.883e-5
-1.484, 1.887e-5
-1.485, 1.892e-5
-1.486, 1.896e-5
-1.487, 1.899e-5
-1.488, 1.904e-5
-1.489, 1.908e-5
-1.490, 1.912e-5
-1.491, 1.916e-5
-1.492, 1.921e-5
-1.493, 1.925e-5
-1.494, 1.930e-5
-1.495, 1.934e-5
-1.496, 1.938e-5
-1.497, 1.943e-5
-1.498, 1.947e-5
-1.499, 1.952e-5
-1.500, 1.957e-5
-1.501, 1.961e-5
-1.502, 1.966e-5
-1.503, 1.971e-5
-1.504, 1.976e-5
-1.505, 1.982e-5
-1.506, 1.987e-5
-1.507, 1.992e-5
-1.508, 1.997e-5
-1.509, 2.002e-5
-1.510, 2.007e-5
-1.511, 2.013e-5
-1.512, 2.018e-5
-1.513, 2.023e-5
-1.514, 2.029e-5
-1.515, 2.035e-5
-1.516, 2.040e-5
-1.517, 2.046e-5
-1.518, 2.052e-5
-1.519, 2.058e-5
-1.520, 2.064e-5
-1.521, 2.070e-5
-1.522, 2.076e-5
-1.523, 2.083e-5
-1.524, 2.089e-5
-1.525, 2.096e-5
-1.526, 2.103e-5
-1.527, 2.109e-5
-1.528, 2.116e-5
-1.529, 2.123e-5
-1.530, 2.130e-5
-1.531, 2.137e-5
-1.532, 2.144e-5
-1.533, 2.152e-5
-1.534, 2.160e-5
-1.535, 2.167e-5
-1.536, 2.175e-5
-1.537, 2.183e-5
-1.538, 2.191e-5
-1.539, 2.199e-5
-1.540, 2.207e-5
-1.541, 2.216e-5
-1.542, 2.224e-5
-1.543, 2.233e-5
-1.544, 2.242e-5
-1.545, 2.251e-5
-1.546, 2.260e-5
-1.547, 2.270e-5
-1.548, 2.280e-5
-1.549, 2.290e-5
-1.550, 2.300e-5
-1.551, 2.310e-5
-1.552, 2.320e-5
-1.553, 2.331e-5
-1.554, 2.342e-5
-1.555, 2.353e-5
-1.556, 2.364e-5
-1.557, 2.375e-5
-1.558, 2.387e-5
-1.559, 2.399e-5
-1.560, 2.412e-5
-1.561, 2.424e-5
-1.562, 2.436e-5
-1.563, 2.449e-5
-1.564, 2.462e-5
-1.565, 2.475e-5
-1.566, 2.489e-5
-1.567, 2.502e-5
-1.568, 2.516e-5
-1.569, 2.531e-5
-1.570, 2.545e-5
-1.571, 2.560e-5
-1.572, 2.574e-5
-1.573, 2.590e-5
-1.574, 2.605e-5
-1.575, 2.621e-5
-1.576, 2.637e-5
-1.577, 2.653e-5
-1.578, 2.670e-5
-1.579, 2.687e-5
-1.580, 2.704e-5
-1.581, 2.722e-5
-1.582, 2.739e-5
-1.583, 2.758e-5
-1.584, 2.776e-5
-1.585, 2.794e-5
-1.586, 2.813e-5
-1.587, 2.832e-5
-1.588, 2.853e-5
-1.589, 2.873e-5
-1.590, 2.894e-5
-1.591, 2.915e-5
-1.592, 2.936e-5
-1.593, 2.958e-5
-1.594, 2.981e-5
-1.595, 3.003e-5
-1.596, 3.025e-5
-1.597, 3.048e-5
-1.598, 3.072e-5
-1.599, 3.097e-5
-1.600, 3.121e-5
-1.601, 3.145e-5
-1.602, 3.170e-5
-1.603, 3.196e-5
-1.604, 3.222e-5
-1.605, 3.249e-5
-1.606, 3.276e-5
-1.607, 3.303e-5
-1.608, 3.331e-5
-1.609, 3.359e-5
-1.610, 3.388e-5
-1.611, 3.417e-5
-1.612, 3.446e-5
-1.613, 3.477e-5
-1.614, 3.508e-5
-1.615, 3.538e-5
-1.616, 3.569e-5
-1.617, 3.600e-5
-1.618, 3.632e-5
-1.619, 3.665e-5
-1.620, 3.697e-5
-1.621, 3.731e-5
-1.622, 3.764e-5
-1.623, 3.798e-5
-1.624, 3.833e-5
-1.625, 3.868e-5
-1.626, 3.903e-5
-1.627, 3.939e-5
-1.628, 3.976e-5
-1.629, 4.014e-5
-1.630, 4.051e-5
-1.631, 4.088e-5
-1.632, 4.126e-5
-1.633, 4.164e-5
-1.634, 4.203e-5
-1.635, 4.243e-5
-1.636, 4.283e-5
-1.637, 4.323e-5
-1.638, 4.364e-5
-1.639, 4.405e-5
-1.640, 4.447e-5
-1.641, 4.487e-5
-1.642, 4.529e-5
-1.643, 4.571e-5
-1.644, 4.614e-5
-1.645, 4.656e-5
-1.646, 4.700e-5
-1.647, 4.743e-5
-1.648, 4.787e-5
-1.649, 4.832e-5
-1.650, 4.876e-5
-1.651, 4.922e-5
-1.652, 4.968e-5
-1.653, 5.015e-5
-1.654, 5.062e-5
-1.655, 5.109e-5
-1.656, 5.155e-5
-1.657, 5.202e-5
-1.658, 5.250e-5
-1.659, 5.298e-5
-1.660, 5.345e-5
-1.661, 5.393e-5
-1.662, 5.442e-5
-1.663, 5.491e-5
-1.664, 5.541e-5
-1.665, 5.592e-5
-1.666, 5.641e-5
-1.667, 5.691e-5
-1.668, 5.741e-5
-1.669, 5.792e-5
-1.670, 5.844e-5
-1.671, 5.895e-5
-1.672, 5.946e-5
-1.673, 5.998e-5
-1.674, 6.051e-5
-1.675, 6.103e-5
-1.676, 6.155e-5
-1.677, 6.209e-5
-1.678, 6.263e-5
-1.679, 6.315e-5
-1.680, 6.369e-5
-1.681, 6.422e-5
-1.682, 6.475e-5
-1.683, 6.529e-5
-1.684, 6.583e-5
-1.685, 6.637e-5
-1.686, 6.692e-5
-1.687, 6.745e-5
-1.688, 6.799e-5
-1.689, 6.855e-5
-1.690, 6.911e-5
-1.691, 6.965e-5
-1.692, 7.019e-5
-1.693, 7.074e-5
-1.694, 7.131e-5
-1.695, 7.187e-5
-1.696, 7.243e-5
-1.697, 7.298e-5
-1.698, 7.353e-5
-1.699, 7.410e-5
-1.700, 7.467e-5
-1.701, 7.523e-5
-1.702, 7.578e-5
-1.703, 7.634e-5
-1.704, 7.692e-5
-1.705, 7.748e-5
-1.706, 7.804e-5
-1.707, 7.861e-5
-1.708, 7.919e-5
-1.709, 7.977e-5
-1.710, 8.035e-5
-1.711, 8.092e-5
-1.712, 8.149e-5
-1.713, 8.208e-5
-1.714, 8.266e-5
-1.715, 8.324e-5
-1.716, 8.381e-5
-1.717, 8.440e-5
-1.718, 8.500e-5
-1.719, 8.559e-5
-1.720, 8.618e-5
-1.721, 8.676e-5
-1.722, 8.734e-5
-1.723, 8.794e-5
-1.724, 8.853e-5
-1.725, 8.911e-5
-1.726, 8.969e-5
-1.727, 9.027e-5
-1.728, 9.087e-5
-1.729, 9.147e-5
-1.730, 9.205e-5
-1.731, 9.265e-5
-1.732, 9.324e-5
-1.733, 9.385e-5
-1.734, 9.446e-5
-1.735, 9.505e-5
-1.736, 9.565e-5
-1.737, 9.626e-5
-1.738, 9.687e-5
-1.739, 9.747e-5
-1.740, 9.808e-5
-1.741, 9.869e-5
-1.742, 9.930e-5
-1.743, 9.992e-5
-1.744, 1.005e-4
-1.745, 1.011e-4
-1.746, 1.017e-4
-1.747, 1.024e-4
-1.748, 1.030e-4
-1.749, 1.036e-4
-1.750, 1.042e-4
-1.751, 1.048e-4
-1.752, 1.055e-4
-1.753, 1.061e-4
-1.754, 1.067e-4
-1.755, 1.073e-4
-1.756, 1.079e-4
-1.757, 1.085e-4
-1.758, 1.092e-4
-1.759, 1.098e-4
-1.760, 1.104e-4
-1.761, 1.111e-4
-1.762, 1.117e-4
-1.763, 1.124e-4
-1.764, 1.130e-4
-1.765, 1.136e-4
-1.766, 1.143e-4
-1.767, 1.149e-4
-1.768, 1.156e-4
-1.769, 1.162e-4
-1.770, 1.169e-4
-1.771, 1.176e-4
-1.772, 1.182e-4
-1.773, 1.189e-4
-1.774, 1.196e-4
-1.775, 1.203e-4
-1.776, 1.209e-4
-1.777, 1.216e-4
-1.778, 1.223e-4
-1.779, 1.230e-4
-1.780, 1.237e-4
-1.781, 1.243e-4
-1.782, 1.250e-4
-1.783, 1.258e-4
-1.784, 1.265e-4
-1.785, 1.272e-4
-1.786, 1.279e-4
-1.787, 1.286e-4
-1.788, 1.293e-4
-1.789, 1.301e-4
-1.790, 1.308e-4
-1.791, 1.316e-4
-1.792, 1.323e-4
-1.793, 1.331e-4
-1.794, 1.339e-4
-1.795, 1.346e-4
-1.796, 1.354e-4
-1.797, 1.361e-4
-1.798, 1.370e-4
-1.799, 1.378e-4
-1.800, 1.386e-4
-1.801, 1.394e-4
-1.802, 1.402e-4
-1.803, 1.410e-4
-1.804, 1.418e-4
-1.805, 1.427e-4
-1.806, 1.436e-4
-1.807, 1.444e-4
-1.808, 1.453e-4
-1.809, 1.462e-4
-1.810, 1.470e-4
-1.811, 1.479e-4
-1.812, 1.489e-4
-1.813, 1.498e-4
-1.814, 1.508e-4
-1.815, 1.517e-4
-1.816, 1.526e-4
-1.817, 1.536e-4
-1.818, 1.546e-4
-1.819, 1.556e-4
-1.820, 1.566e-4
-1.821, 1.577e-4
-1.822, 1.588e-4
-1.823, 1.598e-4
-1.824, 1.609e-4
-1.825, 1.620e-4
-1.826, 1.632e-4
-1.827, 1.643e-4
-1.828, 1.655e-4
-1.829, 1.667e-4
-1.830, 1.679e-4
-1.831, 1.690e-4
-1.832, 1.703e-4
-1.833, 1.715e-4
-1.834, 1.728e-4
-1.835, 1.740e-4
-1.836, 1.753e-4
-1.837, 1.767e-4
-1.838, 1.780e-4
-1.839, 1.793e-4
-1.840, 1.808e-4
-1.841, 1.822e-4
-1.842, 1.836e-4
-1.843, 1.850e-4
-1.844, 1.863e-4
-1.845, 1.877e-4
-1.846, 1.893e-4
-1.847, 1.908e-4
-1.848, 1.924e-4
-1.849, 1.939e-4
-1.850, 1.955e-4
-1.851, 1.971e-4
-1.852, 1.988e-4
-1.853, 2.004e-4
-1.854, 2.021e-4
-1.855, 2.038e-4
-1.856, 2.055e-4
-1.857, 2.073e-4
-1.858, 2.091e-4
-1.859, 2.109e-4
-1.860, 2.128e-4
-1.861, 2.146e-4
-1.862, 2.165e-4
-1.863, 2.183e-4
-1.864, 2.202e-4
-1.865, 2.221e-4
-1.866, 2.241e-4
-1.867, 2.261e-4
-1.868, 2.282e-4
-1.869, 2.302e-4
-1.870, 2.322e-4
-1.871, 2.342e-4
-1.872, 2.364e-4
-1.873, 2.386e-4
-1.874, 2.406e-4
-1.875, 2.427e-4
-1.876, 2.450e-4
-1.877, 2.472e-4
-1.878, 2.494e-4
-1.879, 2.516e-4
-1.880, 2.539e-4
-1.881, 2.562e-4
-1.882, 2.586e-4
-1.883, 2.610e-4
-1.884, 2.633e-4
-1.885, 2.657e-4
-1.886, 2.682e-4
-1.887, 2.706e-4
-1.888, 2.730e-4
-1.889, 2.756e-4
-1.890, 2.780e-4
-1.891, 2.805e-4
-1.892, 2.831e-4
-1.893, 2.855e-4
-1.894, 2.882e-4
-1.895, 2.909e-4
-1.896, 2.935e-4
-1.897, 2.962e-4
-1.898, 2.990e-4
-1.899, 3.017e-4
-1.900, 3.044e-4
-1.901, 3.073e-4
-1.902, 3.100e-4
-1.903, 3.128e-4
-1.904, 3.156e-4
-1.905, 3.184e-4
-1.906, 3.212e-4
-1.907, 3.242e-4
-1.908, 3.271e-4
-1.909, 3.299e-4
-1.910, 3.329e-4
-1.911, 3.360e-4
-1.912, 3.389e-4
-1.913, 3.419e-4
-1.914, 3.450e-4
-1.915, 3.481e-4
-1.916, 3.513e-4
-1.917, 3.544e-4
-1.918, 3.576e-4
-1.919, 3.607e-4
-1.920, 3.639e-4
-1.921, 3.672e-4
-1.922, 3.705e-4
-1.923, 3.738e-4
-1.924, 3.771e-4
-1.925, 3.804e-4
-1.926, 3.838e-4
-1.927, 3.872e-4
-1.928, 3.899e-4
-1.929, 3.929e-4
-1.930, 3.963e-4
-1.931, 3.998e-4
-1.932, 4.032e-4
-1.933, 4.067e-4
-1.934, 4.101e-4
-1.935, 4.137e-4
-1.936, 4.172e-4
-1.937, 4.208e-4
-1.938, 4.245e-4
-1.939, 4.281e-4
-1.940, 4.318e-4
-1.941, 4.354e-4
-1.942, 4.394e-4
-1.943, 4.433e-4
-1.944, 4.472e-4
-1.945, 4.510e-4
-1.946, 4.550e-4
-1.947, 4.588e-4
-1.948, 4.627e-4
-1.949, 4.667e-4
-1.950, 4.706e-4
-1.951, 4.745e-4
-1.952, 4.784e-4
-1.953, 4.826e-4
-1.954, 4.867e-4
-1.955, 4.908e-4
-1.956, 4.951e-4
-1.957, 4.993e-4
-1.958, 5.034e-4
-1.959, 5.075e-4
-1.960, 5.117e-4
-1.961, 5.160e-4
-1.962, 5.201e-4
-1.963, 5.244e-4
-1.964, 5.287e-4
-1.965, 5.326e-4
-1.966, 5.367e-4
-1.967, 5.411e-4
-1.968, 5.456e-4
-1.969, 5.500e-4
-1.970, 5.543e-4
-1.971, 5.587e-4
-1.972, 5.630e-4
-1.973, 5.673e-4
-1.974, 5.718e-4
-1.975, 5.763e-4
-1.976, 5.806e-4
-1.977, 5.848e-4
-1.978, 5.894e-4
-1.979, 5.938e-4
-1.980, 5.980e-4
-1.981, 6.025e-4
-1.982, 6.070e-4
-1.983, 6.115e-4
-1.984, 6.162e-4
-1.985, 6.209e-4
-1.986, 6.255e-4
-1.987, 6.302e-4
-1.988, 6.349e-4
-1.989, 6.397e-4
-1.990, 6.448e-4
-1.991, 6.493e-4
-1.992, 6.539e-4
-1.993, 6.589e-4
-1.994, 6.637e-4
-1.995, 6.684e-4
-1.996, 6.735e-4
-1.997, 6.785e-4
-1.998, 6.837e-4
-1.999, 6.889e-4
-2.000, 6.939e-4
-2.001, 6.986e-4
-2.002, 7.035e-4
-2.003, 7.090e-4
-2.004, 7.149e-4
-2.005, 7.202e-4
-2.006, 7.254e-4
-2.007, 7.307e-4
-2.008, 7.361e-4
-2.009, 7.413e-4
-2.010, 7.467e-4
-2.011, 7.521e-4
-2.012, 7.576e-4
-2.013, 7.632e-4
-2.014, 7.689e-4
-2.015, 7.746e-4
-2.016, 7.800e-4
-2.017, 7.859e-4
-2.018, 7.916e-4
-2.019, 7.974e-4
-2.020, 8.030e-4
-2.021, 8.086e-4
-2.022, 8.144e-4
-2.023, 8.202e-4
-2.024, 8.259e-4
-2.025, 8.316e-4
-2.026, 8.375e-4
-2.027, 8.436e-4
-2.028, 8.492e-4
-2.029, 8.553e-4
-2.030, 8.616e-4
-2.031, 8.674e-4
-2.032, 8.732e-4
-2.033, 8.792e-4
-2.034, 8.851e-4
-2.035, 8.908e-4
-2.036, 8.964e-4
-2.037, 9.025e-4
-2.038, 9.088e-4
-2.039, 9.148e-4
-2.040, 9.206e-4
-2.041, 9.265e-4
-2.042, 9.326e-4
-2.043, 9.385e-4
-2.044, 9.446e-4
-2.045, 9.508e-4
-2.046, 9.569e-4
-2.047, 9.632e-4
-2.048, 9.697e-4
-2.049, 9.763e-4
-2.050, 9.824e-4
-2.051, 9.887e-4
-2.052, 9.942e-4
-2.053, 1.000e-3
-2.054, 1.007e-3
-2.055, 1.011e-3
-2.056, 1.011e-3
-2.057, 1.011e-3
-2.058, 1.011e-3
-2.059, 1.011e-3
-2.060, 1.011e-3
-2.061, 1.011e-3
-2.062, 1.011e-3
-2.063, 1.011e-3
-2.064, 1.011e-3
-2.065, 1.011e-3
-2.066, 1.011e-3
-2.067, 1.011e-3
-2.068, 1.011e-3
-2.069, 1.011e-3
-2.070, 1.011e-3
-2.071, 1.011e-3
-2.072, 1.011e-3
-2.073, 1.011e-3
-2.074, 1.011e-3
-2.075, 1.011e-3
-2.076, 1.011e-3
-2.077, 1.011e-3
-2.078, 1.011e-3
-2.079, 1.011e-3
-2.080, 1.011e-3
-2.081, 1.011e-3
-2.082, 1.011e-3
-2.083, 1.011e-3
-2.084, 1.011e-3
-2.085, 1.011e-3
-2.086, 1.011e-3
-2.087, 1.011e-3
-2.088, 1.011e-3
-2.089, 1.011e-3
-2.090, 1.011e-3
-2.091, 1.011e-3
-2.092, 1.011e-3
-2.093, 1.011e-3
-2.094, 1.011e-3
-2.095, 1.011e-3
-2.096, 1.011e-3
-2.097, 1.011e-3
-2.098, 1.011e-3
-2.099, 1.011e-3
-2.100, 1.011e-3
-2.101, 1.011e-3
-2.102, 1.011e-3
-2.103, 1.011e-3
-2.104, 1.011e-3
-2.105, 1.011e-3
-2.106, 1.011e-3
-2.107, 1.011e-3
-2.108, 1.011e-3
-2.109, 1.011e-3
-2.110, 1.011e-3
-2.111, 1.011e-3
-2.112, 1.011e-3
-2.113, 1.011e-3
-2.114, 1.011e-3
-2.115, 1.011e-3
-2.116, 1.011e-3
-2.117, 1.011e-3
-2.118, 1.011e-3
-2.119, 1.011e-3
-2.120, 1.011e-3
-2.121, 1.011e-3
-2.122, 1.011e-3
-2.123, 1.011e-3
-2.124, 1.011e-3
-2.125, 1.011e-3
-2.126, 1.011e-3
-2.127, 1.011e-3
-2.128, 1.011e-3
-2.129, 1.011e-3
-2.130, 1.011e-3
-2.131, 1.011e-3
-2.132, 1.011e-3
-2.133, 1.011e-3
-2.134, 1.011e-3
-2.135, 1.011e-3
-2.136, 1.011e-3
-2.137, 1.011e-3
-2.138, 1.011e-3
-2.139, 1.011e-3
-2.140, 1.011e-3
-2.141, 1.011e-3
-2.142, 1.011e-3
-2.143, 1.011e-3
-2.144, 1.011e-3
-2.145, 1.011e-3
-2.146, 1.011e-3
-2.147, 1.011e-3
-2.148, 1.011e-3
-2.149, 1.011e-3
-2.150, 1.011e-3
-2.151, 1.011e-3
-2.152, 1.011e-3
-2.153, 1.011e-3
-2.154, 1.011e-3
-2.155, 1.011e-3
-2.156, 1.011e-3
-2.157, 1.011e-3
-2.158, 1.011e-3
-2.159, 1.011e-3
-2.160, 1.011e-3
-2.161, 1.011e-3
-2.162, 1.011e-3
-2.163, 1.011e-3
-2.164, 1.011e-3
-2.165, 1.011e-3
-2.166, 1.011e-3
-2.167, 1.011e-3
-2.168, 1.011e-3
-2.169, 1.011e-3
-2.170, 1.011e-3
-2.171, 1.011e-3
-2.172, 1.011e-3
-2.173, 1.011e-3
-2.174, 1.011e-3
-2.175, 1.011e-3
-2.176, 1.011e-3
-2.177, 1.011e-3
-2.178, 1.011e-3
-2.179, 1.011e-3
-2.180, 1.011e-3
-2.181, 1.011e-3
-2.182, 1.011e-3
-2.183, 1.011e-3
-2.184, 1.011e-3
-2.185, 1.011e-3
-2.186, 1.011e-3
-2.187, 1.011e-3
-2.188, 1.011e-3
-2.189, 1.011e-3
-2.190, 1.011e-3
-2.191, 1.011e-3
-2.192, 1.011e-3
-2.193, 1.011e-3
-2.194, 1.011e-3
-2.195, 1.011e-3
-2.196, 1.011e-3
-2.197, 1.011e-3
-2.198, 1.011e-3
-2.199, 1.011e-3
-2.200, 1.011e-3
-2.201, 1.011e-3
-2.202, 1.011e-3
-2.203, 1.011e-3
-2.204, 1.011e-3
-2.205, 1.011e-3
-2.206, 1.011e-3
-2.207, 1.011e-3
-2.208, 1.011e-3
-2.209, 1.011e-3
-2.210, 1.011e-3
-2.211, 1.011e-3
-2.212, 1.011e-3
-2.213, 1.011e-3
-2.214, 1.011e-3
-2.215, 1.011e-3
-2.216, 1.011e-3
-2.217, 1.011e-3
-2.218, 1.011e-3
-2.219, 1.011e-3
-2.220, 1.011e-3
-2.221, 1.011e-3
-2.222, 1.011e-3
-2.223, 1.011e-3
-2.224, 1.011e-3
-2.225, 1.011e-3
-2.226, 1.011e-3
-2.227, 1.011e-3
-2.228, 1.011e-3
-2.229, 1.011e-3
-2.230, 1.011e-3
-2.231, 1.011e-3
-2.232, 1.011e-3
-2.233, 1.011e-3
-2.234, 1.011e-3
-2.235, 1.011e-3
-2.236, 1.011e-3
-2.237, 1.011e-3
-2.238, 1.011e-3
-2.239, 1.011e-3
-2.240, 1.011e-3
-2.241, 1.011e-3
-2.242, 1.011e-3
-2.243, 1.011e-3
-2.244, 1.011e-3
-2.245, 1.011e-3
-2.246, 1.011e-3
-2.247, 1.011e-3
-2.248, 1.011e-3
-2.249, 1.011e-3
-2.250, 1.011e-3
-2.251, 1.011e-3
-2.252, 1.011e-3
-2.253, 1.011e-3
-2.254, 1.011e-3
-2.255, 1.011e-3
-2.256, 1.011e-3
-2.257, 1.011e-3
-2.258, 1.011e-3
-2.259, 1.011e-3
-2.260, 1.011e-3
-2.261, 1.011e-3
-2.262, 1.011e-3
-2.263, 1.011e-3
-2.264, 1.011e-3
-2.265, 1.011e-3
-2.266, 1.011e-3
-2.267, 1.011e-3
-2.268, 1.011e-3
-2.269, 1.011e-3
-2.270, 1.011e-3
-2.271, 1.011e-3
-2.272, 1.011e-3
-2.273, 1.011e-3
-2.274, 1.011e-3
-2.275, 1.011e-3
-2.276, 1.011e-3
-2.277, 1.011e-3
-2.278, 1.011e-3
-2.279, 1.011e-3
-2.280, 1.011e-3
-2.281, 1.011e-3
-2.282, 1.011e-3
-2.283, 1.011e-3
-2.284, 1.011e-3
-2.285, 1.011e-3
-2.286, 1.011e-3
-2.287, 1.011e-3
-2.288, 1.011e-3
-2.289, 1.011e-3
-2.290, 1.011e-3
-2.291, 1.011e-3
-2.292, 1.011e-3
-2.293, 1.011e-3
-2.294, 1.011e-3
-2.295, 1.011e-3
-2.296, 1.011e-3
-2.297, 1.011e-3
-2.298, 1.011e-3
-2.299, 1.011e-3
