Aug. 22, 2024   05:25:16
Linear Sweep Voltammetry
File: c:/users/guazh/data/20240813_batch_94_500/2024-08-15-exp156\regeneratedgce-2024-08-22t05_20_40-lsvinkoh\regeneratedgce_lsv_50mvs_efin_-1900mv.bin
Data Source:  Experiment
Instrument Model:  CHI760E
Header: LSV ran at 50 mVs with Efin at -1900mV
Note: 

Init E (V) = -0.6
Final E (V) = -1.9
Scan Rate (V/s) = 0.05
Sample Interval (V) = 0.001
Quiet Time (sec) = 2
Sensitivity (A/V) = 1e-4
Comp R (ohm) = 1.9

Results:

Channel 1:
Ep = -1.782V
ip = 9.313e-4A
Ah = 9.841e-4C

Potential/V, Current/A

-0.600, 1.452e-6
-0.601, 1.631e-6
-0.602, 1.683e-6
-0.603, 1.710e-6
-0.604, 1.727e-6
-0.605, 1.740e-6
-0.606, 1.751e-6
-0.607, 1.758e-6
-0.608, 1.765e-6
-0.609, 1.773e-6
-0.610, 1.778e-6
-0.611, 1.784e-6
-0.612, 1.787e-6
-0.613, 1.791e-6
-0.614, 1.797e-6
-0.615, 1.803e-6
-0.616, 1.805e-6
-0.617, 1.807e-6
-0.618, 1.808e-6
-0.619, 1.813e-6
-0.620, 1.817e-6
-0.621, 1.819e-6
-0.622, 1.820e-6
-0.623, 1.822e-6
-0.624, 1.824e-6
-0.625, 1.828e-6
-0.626, 1.829e-6
-0.627, 1.832e-6
-0.628, 1.835e-6
-0.629, 1.836e-6
-0.630, 1.838e-6
-0.631, 1.841e-6
-0.632, 1.841e-6
-0.633, 1.844e-6
-0.634, 1.845e-6
-0.635, 1.846e-6
-0.636, 1.850e-6
-0.637, 1.850e-6
-0.638, 1.852e-6
-0.639, 1.854e-6
-0.640, 1.857e-6
-0.641, 1.860e-6
-0.642, 1.860e-6
-0.643, 1.861e-6
-0.644, 1.864e-6
-0.645, 1.865e-6
-0.646, 1.868e-6
-0.647, 1.868e-6
-0.648, 1.871e-6
-0.649, 1.873e-6
-0.650, 1.874e-6
-0.651, 1.876e-6
-0.652, 1.876e-6
-0.653, 1.879e-6
-0.654, 1.881e-6
-0.655, 1.882e-6
-0.656, 1.884e-6
-0.657, 1.885e-6
-0.658, 1.886e-6
-0.659, 1.889e-6
-0.660, 1.891e-6
-0.661, 1.892e-6
-0.662, 1.893e-6
-0.663, 1.894e-6
-0.664, 1.896e-6
-0.665, 1.899e-6
-0.666, 1.904e-6
-0.667, 1.902e-6
-0.668, 1.904e-6
-0.669, 1.905e-6
-0.670, 1.908e-6
-0.671, 1.908e-6
-0.672, 1.910e-6
-0.673, 1.912e-6
-0.674, 1.912e-6
-0.675, 1.915e-6
-0.676, 1.918e-6
-0.677, 1.916e-6
-0.678, 1.919e-6
-0.679, 1.920e-6
-0.680, 1.922e-6
-0.681, 1.926e-6
-0.682, 1.925e-6
-0.683, 1.926e-6
-0.684, 1.929e-6
-0.685, 1.929e-6
-0.686, 1.934e-6
-0.687, 1.932e-6
-0.688, 1.935e-6
-0.689, 1.939e-6
-0.690, 1.938e-6
-0.691, 1.942e-6
-0.692, 1.942e-6
-0.693, 1.944e-6
-0.694, 1.945e-6
-0.695, 1.946e-6
-0.696, 1.946e-6
-0.697, 1.948e-6
-0.698, 1.952e-6
-0.699, 1.955e-6
-0.700, 1.956e-6
-0.701, 1.957e-6
-0.702, 1.960e-6
-0.703, 1.959e-6
-0.704, 1.963e-6
-0.705, 1.964e-6
-0.706, 1.964e-6
-0.707, 1.966e-6
-0.708, 1.967e-6
-0.709, 1.968e-6
-0.710, 1.974e-6
-0.711, 1.976e-6
-0.712, 1.977e-6
-0.713, 1.980e-6
-0.714, 1.982e-6
-0.715, 1.983e-6
-0.716, 1.985e-6
-0.717, 1.987e-6
-0.718, 1.988e-6
-0.719, 1.993e-6
-0.720, 1.994e-6
-0.721, 1.998e-6
-0.722, 1.996e-6
-0.723, 2.000e-6
-0.724, 2.003e-6
-0.725, 2.004e-6
-0.726, 2.006e-6
-0.727, 2.008e-6
-0.728, 2.010e-6
-0.729, 2.013e-6
-0.730, 2.015e-6
-0.731, 2.018e-6
-0.732, 2.018e-6
-0.733, 2.020e-6
-0.734, 2.024e-6
-0.735, 2.026e-6
-0.736, 2.027e-6
-0.737, 2.031e-6
-0.738, 2.032e-6
-0.739, 2.035e-6
-0.740, 2.037e-6
-0.741, 2.039e-6
-0.742, 2.041e-6
-0.743, 2.044e-6
-0.744, 2.047e-6
-0.745, 2.050e-6
-0.746, 2.051e-6
-0.747, 2.053e-6
-0.748, 2.056e-6
-0.749, 2.058e-6
-0.750, 2.062e-6
-0.751, 2.063e-6
-0.752, 2.065e-6
-0.753, 2.069e-6
-0.754, 2.070e-6
-0.755, 2.074e-6
-0.756, 2.075e-6
-0.757, 2.076e-6
-0.758, 2.081e-6
-0.759, 2.083e-6
-0.760, 2.085e-6
-0.761, 2.089e-6
-0.762, 2.089e-6
-0.763, 2.092e-6
-0.764, 2.095e-6
-0.765, 2.098e-6
-0.766, 2.102e-6
-0.767, 2.102e-6
-0.768, 2.109e-6
-0.769, 2.111e-6
-0.770, 2.112e-6
-0.771, 2.115e-6
-0.772, 2.116e-6
-0.773, 2.120e-6
-0.774, 2.124e-6
-0.775, 2.126e-6
-0.776, 2.128e-6
-0.777, 2.131e-6
-0.778, 2.133e-6
-0.779, 2.137e-6
-0.780, 2.140e-6
-0.781, 2.142e-6
-0.782, 2.146e-6
-0.783, 2.147e-6
-0.784, 2.150e-6
-0.785, 2.155e-6
-0.786, 2.156e-6
-0.787, 2.159e-6
-0.788, 2.162e-6
-0.789, 2.164e-6
-0.790, 2.169e-6
-0.791, 2.170e-6
-0.792, 2.173e-6
-0.793, 2.175e-6
-0.794, 2.181e-6
-0.795, 2.185e-6
-0.796, 2.188e-6
-0.797, 2.189e-6
-0.798, 2.193e-6
-0.799, 2.196e-6
-0.800, 2.198e-6
-0.801, 2.202e-6
-0.802, 2.204e-6
-0.803, 2.208e-6
-0.804, 2.211e-6
-0.805, 2.214e-6
-0.806, 2.218e-6
-0.807, 2.220e-6
-0.808, 2.224e-6
-0.809, 2.228e-6
-0.810, 2.230e-6
-0.811, 2.235e-6
-0.812, 2.237e-6
-0.813, 2.240e-6
-0.814, 2.245e-6
-0.815, 2.248e-6
-0.816, 2.251e-6
-0.817, 2.254e-6
-0.818, 2.256e-6
-0.819, 2.266e-6
-0.820, 2.271e-6
-0.821, 2.269e-6
-0.822, 2.274e-6
-0.823, 2.277e-6
-0.824, 2.280e-6
-0.825, 2.285e-6
-0.826, 2.288e-6
-0.827, 2.291e-6
-0.828, 2.294e-6
-0.829, 2.297e-6
-0.830, 2.303e-6
-0.831, 2.304e-6
-0.832, 2.308e-6
-0.833, 2.312e-6
-0.834, 2.316e-6
-0.835, 2.320e-6
-0.836, 2.324e-6
-0.837, 2.327e-6
-0.838, 2.331e-6
-0.839, 2.336e-6
-0.840, 2.339e-6
-0.841, 2.344e-6
-0.842, 2.345e-6
-0.843, 2.349e-6
-0.844, 2.355e-6
-0.845, 2.359e-6
-0.846, 2.364e-6
-0.847, 2.367e-6
-0.848, 2.370e-6
-0.849, 2.376e-6
-0.850, 2.378e-6
-0.851, 2.384e-6
-0.852, 2.388e-6
-0.853, 2.391e-6
-0.854, 2.397e-6
-0.855, 2.400e-6
-0.856, 2.405e-6
-0.857, 2.408e-6
-0.858, 2.412e-6
-0.859, 2.418e-6
-0.860, 2.422e-6
-0.861, 2.426e-6
-0.862, 2.429e-6
-0.863, 2.434e-6
-0.864, 2.439e-6
-0.865, 2.442e-6
-0.866, 2.447e-6
-0.867, 2.451e-6
-0.868, 2.455e-6
-0.869, 2.460e-6
-0.870, 2.466e-6
-0.871, 2.473e-6
-0.872, 2.474e-6
-0.873, 2.479e-6
-0.874, 2.484e-6
-0.875, 2.489e-6
-0.876, 2.495e-6
-0.877, 2.498e-6
-0.878, 2.503e-6
-0.879, 2.508e-6
-0.880, 2.512e-6
-0.881, 2.519e-6
-0.882, 2.523e-6
-0.883, 2.528e-6
-0.884, 2.535e-6
-0.885, 2.540e-6
-0.886, 2.546e-6
-0.887, 2.550e-6
-0.888, 2.557e-6
-0.889, 2.564e-6
-0.890, 2.568e-6
-0.891, 2.575e-6
-0.892, 2.580e-6
-0.893, 2.584e-6
-0.894, 2.594e-6
-0.895, 2.599e-6
-0.896, 2.605e-6
-0.897, 2.611e-6
-0.898, 2.614e-6
-0.899, 2.622e-6
-0.900, 2.627e-6
-0.901, 2.634e-6
-0.902, 2.639e-6
-0.903, 2.644e-6
-0.904, 2.652e-6
-0.905, 2.659e-6
-0.906, 2.666e-6
-0.907, 2.672e-6
-0.908, 2.677e-6
-0.909, 2.684e-6
-0.910, 2.692e-6
-0.911, 2.697e-6
-0.912, 2.702e-6
-0.913, 2.709e-6
-0.914, 2.714e-6
-0.915, 2.722e-6
-0.916, 2.729e-6
-0.917, 2.732e-6
-0.918, 2.739e-6
-0.919, 2.746e-6
-0.920, 2.753e-6
-0.921, 2.762e-6
-0.922, 2.765e-6
-0.923, 2.772e-6
-0.924, 2.784e-6
-0.925, 2.787e-6
-0.926, 2.797e-6
-0.927, 2.802e-6
-0.928, 2.809e-6
-0.929, 2.815e-6
-0.930, 2.821e-6
-0.931, 2.830e-6
-0.932, 2.836e-6
-0.933, 2.842e-6
-0.934, 2.850e-6
-0.935, 2.855e-6
-0.936, 2.862e-6
-0.937, 2.870e-6
-0.938, 2.875e-6
-0.939, 2.883e-6
-0.940, 2.890e-6
-0.941, 2.895e-6
-0.942, 2.903e-6
-0.943, 2.907e-6
-0.944, 2.915e-6
-0.945, 2.922e-6
-0.946, 2.927e-6
-0.947, 2.935e-6
-0.948, 2.941e-6
-0.949, 2.947e-6
-0.950, 2.953e-6
-0.951, 2.958e-6
-0.952, 2.965e-6
-0.953, 2.970e-6
-0.954, 2.977e-6
-0.955, 2.984e-6
-0.956, 2.990e-6
-0.957, 2.995e-6
-0.958, 3.002e-6
-0.959, 3.007e-6
-0.960, 3.013e-6
-0.961, 3.021e-6
-0.962, 3.024e-6
-0.963, 3.030e-6
-0.964, 3.036e-6
-0.965, 3.042e-6
-0.966, 3.050e-6
-0.967, 3.054e-6
-0.968, 3.059e-6
-0.969, 3.067e-6
-0.970, 3.070e-6
-0.971, 3.077e-6
-0.972, 3.081e-6
-0.973, 3.090e-6
-0.974, 3.095e-6
-0.975, 3.100e-6
-0.976, 3.105e-6
-0.977, 3.111e-6
-0.978, 3.113e-6
-0.979, 3.121e-6
-0.980, 3.127e-6
-0.981, 3.130e-6
-0.982, 3.137e-6
-0.983, 3.140e-6
-0.984, 3.146e-6
-0.985, 3.153e-6
-0.986, 3.158e-6
-0.987, 3.163e-6
-0.988, 3.168e-6
-0.989, 3.172e-6
-0.990, 3.178e-6
-0.991, 3.182e-6
-0.992, 3.187e-6
-0.993, 3.193e-6
-0.994, 3.197e-6
-0.995, 3.203e-6
-0.996, 3.208e-6
-0.997, 3.213e-6
-0.998, 3.216e-6
-0.999, 3.223e-6
-1.000, 3.227e-6
-1.001, 3.232e-6
-1.002, 3.235e-6
-1.003, 3.239e-6
-1.004, 3.245e-6
-1.005, 3.249e-6
-1.006, 3.255e-6
-1.007, 3.257e-6
-1.008, 3.261e-6
-1.009, 3.268e-6
-1.010, 3.271e-6
-1.011, 3.276e-6
-1.012, 3.279e-6
-1.013, 3.284e-6
-1.014, 3.288e-6
-1.015, 3.293e-6
-1.016, 3.297e-6
-1.017, 3.302e-6
-1.018, 3.305e-6
-1.019, 3.311e-6
-1.020, 3.315e-6
-1.021, 3.319e-6
-1.022, 3.322e-6
-1.023, 3.325e-6
-1.024, 3.335e-6
-1.025, 3.337e-6
-1.026, 3.341e-6
-1.027, 3.344e-6
-1.028, 3.350e-6
-1.029, 3.353e-6
-1.030, 3.359e-6
-1.031, 3.362e-6
-1.032, 3.365e-6
-1.033, 3.370e-6
-1.034, 3.375e-6
-1.035, 3.378e-6
-1.036, 3.383e-6
-1.037, 3.386e-6
-1.038, 3.391e-6
-1.039, 3.394e-6
-1.040, 3.399e-6
-1.041, 3.404e-6
-1.042, 3.406e-6
-1.043, 3.411e-6
-1.044, 3.415e-6
-1.045, 3.418e-6
-1.046, 3.423e-6
-1.047, 3.425e-6
-1.048, 3.428e-6
-1.049, 3.435e-6
-1.050, 3.440e-6
-1.051, 3.444e-6
-1.052, 3.446e-6
-1.053, 3.448e-6
-1.054, 3.454e-6
-1.055, 3.458e-6
-1.056, 3.462e-6
-1.057, 3.466e-6
-1.058, 3.469e-6
-1.059, 3.474e-6
-1.060, 3.477e-6
-1.061, 3.482e-6
-1.062, 3.486e-6
-1.063, 3.489e-6
-1.064, 3.494e-6
-1.065, 3.498e-6
-1.066, 3.499e-6
-1.067, 3.504e-6
-1.068, 3.507e-6
-1.069, 3.511e-6
-1.070, 3.517e-6
-1.071, 3.521e-6
-1.072, 3.523e-6
-1.073, 3.528e-6
-1.074, 3.530e-6
-1.075, 3.537e-6
-1.076, 3.541e-6
-1.077, 3.542e-6
-1.078, 3.546e-6
-1.079, 3.549e-6
-1.080, 3.554e-6
-1.081, 3.559e-6
-1.082, 3.561e-6
-1.083, 3.563e-6
-1.084, 3.569e-6
-1.085, 3.572e-6
-1.086, 3.577e-6
-1.087, 3.579e-6
-1.088, 3.582e-6
-1.089, 3.588e-6
-1.090, 3.589e-6
-1.091, 3.595e-6
-1.092, 3.599e-6
-1.093, 3.601e-6
-1.094, 3.608e-6
-1.095, 3.610e-6
-1.096, 3.615e-6
-1.097, 3.620e-6
-1.098, 3.621e-6
-1.099, 3.625e-6
-1.100, 3.631e-6
-1.101, 3.635e-6
-1.102, 3.638e-6
-1.103, 3.641e-6
-1.104, 3.646e-6
-1.105, 3.650e-6
-1.106, 3.652e-6
-1.107, 3.657e-6
-1.108, 3.660e-6
-1.109, 3.663e-6
-1.110, 3.668e-6
-1.111, 3.671e-6
-1.112, 3.676e-6
-1.113, 3.680e-6
-1.114, 3.683e-6
-1.115, 3.688e-6
-1.116, 3.694e-6
-1.117, 3.696e-6
-1.118, 3.699e-6
-1.119, 3.704e-6
-1.120, 3.708e-6
-1.121, 3.714e-6
-1.122, 3.717e-6
-1.123, 3.718e-6
-1.124, 3.725e-6
-1.125, 3.728e-6
-1.126, 3.735e-6
-1.127, 3.737e-6
-1.128, 3.740e-6
-1.129, 3.746e-6
-1.130, 3.748e-6
-1.131, 3.752e-6
-1.132, 3.756e-6
-1.133, 3.758e-6
-1.134, 3.765e-6
-1.135, 3.768e-6
-1.136, 3.773e-6
-1.137, 3.777e-6
-1.138, 3.778e-6
-1.139, 3.785e-6
-1.140, 3.790e-6
-1.141, 3.794e-6
-1.142, 3.800e-6
-1.143, 3.802e-6
-1.144, 3.808e-6
-1.145, 3.813e-6
-1.146, 3.816e-6
-1.147, 3.822e-6
-1.148, 3.826e-6
-1.149, 3.830e-6
-1.150, 3.834e-6
-1.151, 3.840e-6
-1.152, 3.843e-6
-1.153, 3.848e-6
-1.154, 3.852e-6
-1.155, 3.857e-6
-1.156, 3.862e-6
-1.157, 3.865e-6
-1.158, 3.869e-6
-1.159, 3.873e-6
-1.160, 3.878e-6
-1.161, 3.883e-6
-1.162, 3.885e-6
-1.163, 3.891e-6
-1.164, 3.896e-6
-1.165, 3.897e-6
-1.166, 3.903e-6
-1.167, 3.906e-6
-1.168, 3.911e-6
-1.169, 3.917e-6
-1.170, 3.921e-6
-1.171, 3.927e-6
-1.172, 3.932e-6
-1.173, 3.933e-6
-1.174, 3.940e-6
-1.175, 3.943e-6
-1.176, 3.947e-6
-1.177, 3.954e-6
-1.178, 3.959e-6
-1.179, 3.963e-6
-1.180, 3.966e-6
-1.181, 3.970e-6
-1.182, 3.976e-6
-1.183, 3.977e-6
-1.184, 3.984e-6
-1.185, 3.990e-6
-1.186, 3.992e-6
-1.187, 3.998e-6
-1.188, 4.002e-6
-1.189, 4.005e-6
-1.190, 4.012e-6
-1.191, 4.016e-6
-1.192, 4.021e-6
-1.193, 4.024e-6
-1.194, 4.028e-6
-1.195, 4.034e-6
-1.196, 4.040e-6
-1.197, 4.043e-6
-1.198, 4.049e-6
-1.199, 4.053e-6
-1.200, 4.058e-6
-1.201, 4.062e-6
-1.202, 4.066e-6
-1.203, 4.073e-6
-1.204, 4.079e-6
-1.205, 4.081e-6
-1.206, 4.087e-6
-1.207, 4.091e-6
-1.208, 4.094e-6
-1.209, 4.101e-6
-1.210, 4.105e-6
-1.211, 4.112e-6
-1.212, 4.117e-6
-1.213, 4.120e-6
-1.214, 4.126e-6
-1.215, 4.130e-6
-1.216, 4.137e-6
-1.217, 4.143e-6
-1.218, 4.147e-6
-1.219, 4.153e-6
-1.220, 4.158e-6
-1.221, 4.163e-6
-1.222, 4.168e-6
-1.223, 4.171e-6
-1.224, 4.178e-6
-1.225, 4.185e-6
-1.226, 4.187e-6
-1.227, 4.195e-6
-1.228, 4.199e-6
-1.229, 4.212e-6
-1.230, 4.215e-6
-1.231, 4.217e-6
-1.232, 4.223e-6
-1.233, 4.226e-6
-1.234, 4.232e-6
-1.235, 4.238e-6
-1.236, 4.244e-6
-1.237, 4.248e-6
-1.238, 4.255e-6
-1.239, 4.260e-6
-1.240, 4.265e-6
-1.241, 4.273e-6
-1.242, 4.279e-6
-1.243, 4.286e-6
-1.244, 4.291e-6
-1.245, 4.297e-6
-1.246, 4.303e-6
-1.247, 4.310e-6
-1.248, 4.315e-6
-1.249, 4.324e-6
-1.250, 4.327e-6
-1.251, 4.335e-6
-1.252, 4.341e-6
-1.253, 4.345e-6
-1.254, 4.354e-6
-1.255, 4.360e-6
-1.256, 4.368e-6
-1.257, 4.375e-6
-1.258, 4.377e-6
-1.259, 4.386e-6
-1.260, 4.395e-6
-1.261, 4.402e-6
-1.262, 4.408e-6
-1.263, 4.413e-6
-1.264, 4.421e-6
-1.265, 4.430e-6
-1.266, 4.436e-6
-1.267, 4.446e-6
-1.268, 4.452e-6
-1.269, 4.459e-6
-1.270, 4.468e-6
-1.271, 4.475e-6
-1.272, 4.481e-6
-1.273, 4.489e-6
-1.274, 4.497e-6
-1.275, 4.506e-6
-1.276, 4.515e-6
-1.277, 4.520e-6
-1.278, 4.529e-6
-1.279, 4.537e-6
-1.280, 4.549e-6
-1.281, 4.558e-6
-1.282, 4.564e-6
-1.283, 4.572e-6
-1.284, 4.581e-6
-1.285, 4.589e-6
-1.286, 4.600e-6
-1.287, 4.607e-6
-1.288, 4.614e-6
-1.289, 4.625e-6
-1.290, 4.631e-6
-1.291, 4.642e-6
-1.292, 4.653e-6
-1.293, 4.660e-6
-1.294, 4.671e-6
-1.295, 4.679e-6
-1.296, 4.691e-6
-1.297, 4.703e-6
-1.298, 4.710e-6
-1.299, 4.723e-6
-1.300, 4.734e-6
-1.301, 4.744e-6
-1.302, 4.756e-6
-1.303, 4.763e-6
-1.304, 4.774e-6
-1.305, 4.790e-6
-1.306, 4.802e-6
-1.307, 4.817e-6
-1.308, 4.821e-6
-1.309, 4.833e-6
-1.310, 4.845e-6
-1.311, 4.853e-6
-1.312, 4.865e-6
-1.313, 4.874e-6
-1.314, 4.887e-6
-1.315, 4.898e-6
-1.316, 4.908e-6
-1.317, 4.920e-6
-1.318, 4.931e-6
-1.319, 4.944e-6
-1.320, 4.956e-6
-1.321, 4.975e-6
-1.322, 4.984e-6
-1.323, 4.994e-6
-1.324, 5.007e-6
-1.325, 5.018e-6
-1.326, 5.033e-6
-1.327, 5.045e-6
-1.328, 5.058e-6
-1.329, 5.075e-6
-1.330, 5.087e-6
-1.331, 5.103e-6
-1.332, 5.117e-6
-1.333, 5.128e-6
-1.334, 5.144e-6
-1.335, 5.160e-6
-1.336, 5.175e-6
-1.337, 5.191e-6
-1.338, 5.199e-6
-1.339, 5.213e-6
-1.340, 5.227e-6
-1.341, 5.244e-6
-1.342, 5.261e-6
-1.343, 5.274e-6
-1.344, 5.290e-6
-1.345, 5.307e-6
-1.346, 5.322e-6
-1.347, 5.338e-6
-1.348, 5.354e-6
-1.349, 5.369e-6
-1.350, 5.388e-6
-1.351, 5.405e-6
-1.352, 5.421e-6
-1.353, 5.437e-6
-1.354, 5.453e-6
-1.355, 5.473e-6
-1.356, 5.490e-6
-1.357, 5.509e-6
-1.358, 5.528e-6
-1.359, 5.545e-6
-1.360, 5.566e-6
-1.361, 5.584e-6
-1.362, 5.601e-6
-1.363, 5.621e-6
-1.364, 5.639e-6
-1.365, 5.657e-6
-1.366, 5.680e-6
-1.367, 5.700e-6
-1.368, 5.718e-6
-1.369, 5.747e-6
-1.370, 5.769e-6
-1.371, 5.793e-6
-1.372, 5.817e-6
-1.373, 5.838e-6
-1.374, 5.864e-6
-1.375, 5.883e-6
-1.376, 5.902e-6
-1.377, 5.923e-6
-1.378, 5.942e-6
-1.379, 5.966e-6
-1.380, 5.987e-6
-1.381, 6.004e-6
-1.382, 6.022e-6
-1.383, 6.043e-6
-1.384, 6.063e-6
-1.385, 6.086e-6
-1.386, 6.107e-6
-1.387, 6.132e-6
-1.388, 6.157e-6
-1.389, 6.180e-6
-1.390, 6.208e-6
-1.391, 6.231e-6
-1.392, 6.256e-6
-1.393, 6.281e-6
-1.394, 6.306e-6
-1.395, 6.333e-6
-1.396, 6.361e-6
-1.397, 6.387e-6
-1.398, 6.413e-6
-1.399, 6.441e-6
-1.400, 6.468e-6
-1.401, 6.503e-6
-1.402, 6.535e-6
-1.403, 6.562e-6
-1.404, 6.590e-6
-1.405, 6.619e-6
-1.406, 6.651e-6
-1.407, 6.683e-6
-1.408, 6.715e-6
-1.409, 6.742e-6
-1.410, 6.772e-6
-1.411, 6.801e-6
-1.412, 6.835e-6
-1.413, 6.863e-6
-1.414, 6.897e-6
-1.415, 6.931e-6
-1.416, 6.965e-6
-1.417, 6.999e-6
-1.418, 7.032e-6
-1.419, 7.068e-6
-1.420, 7.101e-6
-1.421, 7.136e-6
-1.422, 7.173e-6
-1.423, 7.205e-6
-1.424, 7.243e-6
-1.425, 7.279e-6
-1.426, 7.315e-6
-1.427, 7.356e-6
-1.428, 7.391e-6
-1.429, 7.428e-6
-1.430, 7.471e-6
-1.431, 7.510e-6
-1.432, 7.551e-6
-1.433, 7.592e-6
-1.434, 7.636e-6
-1.435, 7.680e-6
-1.436, 7.723e-6
-1.437, 7.765e-6
-1.438, 7.813e-6
-1.439, 7.855e-6
-1.440, 7.896e-6
-1.441, 7.941e-6
-1.442, 7.987e-6
-1.443, 8.034e-6
-1.444, 8.080e-6
-1.445, 8.126e-6
-1.446, 8.176e-6
-1.447, 8.226e-6
-1.448, 8.276e-6
-1.449, 8.328e-6
-1.450, 8.374e-6
-1.451, 8.427e-6
-1.452, 8.481e-6
-1.453, 8.533e-6
-1.454, 8.590e-6
-1.455, 8.641e-6
-1.456, 8.699e-6
-1.457, 8.758e-6
-1.458, 8.813e-6
-1.459, 8.870e-6
-1.460, 8.926e-6
-1.461, 8.985e-6
-1.462, 9.047e-6
-1.463, 9.105e-6
-1.464, 9.162e-6
-1.465, 9.228e-6
-1.466, 9.298e-6
-1.467, 9.367e-6
-1.468, 9.418e-6
-1.469, 9.470e-6
-1.470, 9.534e-6
-1.471, 9.599e-6
-1.472, 9.666e-6
-1.473, 9.734e-6
-1.474, 9.799e-6
-1.475, 9.871e-6
-1.476, 9.938e-6
-1.477, 1.001e-5
-1.478, 1.008e-5
-1.479, 1.015e-5
-1.480, 1.022e-5
-1.481, 1.030e-5
-1.482, 1.037e-5
-1.483, 1.045e-5
-1.484, 1.052e-5
-1.485, 1.061e-5
-1.486, 1.069e-5
-1.487, 1.077e-5
-1.488, 1.085e-5
-1.489, 1.093e-5
-1.490, 1.102e-5
-1.491, 1.111e-5
-1.492, 1.119e-5
-1.493, 1.128e-5
-1.494, 1.138e-5
-1.495, 1.147e-5
-1.496, 1.156e-5
-1.497, 1.166e-5
-1.498, 1.175e-5
-1.499, 1.185e-5
-1.500, 1.195e-5
-1.501, 1.204e-5
-1.502, 1.213e-5
-1.503, 1.223e-5
-1.504, 1.234e-5
-1.505, 1.246e-5
-1.506, 1.256e-5
-1.507, 1.268e-5
-1.508, 1.279e-5
-1.509, 1.290e-5
-1.510, 1.303e-5
-1.511, 1.315e-5
-1.512, 1.327e-5
-1.513, 1.339e-5
-1.514, 1.351e-5
-1.515, 1.364e-5
-1.516, 1.377e-5
-1.517, 1.390e-5
-1.518, 1.404e-5
-1.519, 1.417e-5
-1.520, 1.431e-5
-1.521, 1.446e-5
-1.522, 1.460e-5
-1.523, 1.475e-5
-1.524, 1.490e-5
-1.525, 1.506e-5
-1.526, 1.522e-5
-1.527, 1.538e-5
-1.528, 1.554e-5
-1.529, 1.570e-5
-1.530, 1.587e-5
-1.531, 1.605e-5
-1.532, 1.623e-5
-1.533, 1.641e-5
-1.534, 1.659e-5
-1.535, 1.677e-5
-1.536, 1.696e-5
-1.537, 1.715e-5
-1.538, 1.734e-5
-1.539, 1.754e-5
-1.540, 1.775e-5
-1.541, 1.795e-5
-1.542, 1.816e-5
-1.543, 1.837e-5
-1.544, 1.859e-5
-1.545, 1.881e-5
-1.546, 1.904e-5
-1.547, 1.927e-5
-1.548, 1.950e-5
-1.549, 1.974e-5
-1.550, 1.999e-5
-1.551, 2.025e-5
-1.552, 2.050e-5
-1.553, 2.076e-5
-1.554, 2.103e-5
-1.555, 2.130e-5
-1.556, 2.157e-5
-1.557, 2.185e-5
-1.558, 2.214e-5
-1.559, 2.242e-5
-1.560, 2.272e-5
-1.561, 2.302e-5
-1.562, 2.333e-5
-1.563, 2.365e-5
-1.564, 2.399e-5
-1.565, 2.432e-5
-1.566, 2.465e-5
-1.567, 2.500e-5
-1.568, 2.536e-5
-1.569, 2.574e-5
-1.570, 2.611e-5
-1.571, 2.652e-5
-1.572, 2.702e-5
-1.573, 2.744e-5
-1.574, 2.782e-5
-1.575, 2.818e-5
-1.576, 2.858e-5
-1.577, 2.900e-5
-1.578, 2.941e-5
-1.579, 2.966e-5
-1.580, 3.004e-5
-1.581, 3.049e-5
-1.582, 3.096e-5
-1.583, 3.145e-5
-1.584, 3.174e-5
-1.585, 3.213e-5
-1.586, 3.259e-5
-1.587, 3.306e-5
-1.588, 3.360e-5
-1.589, 3.416e-5
-1.590, 3.469e-5
-1.591, 3.521e-5
-1.592, 3.578e-5
-1.593, 3.639e-5
-1.594, 3.700e-5
-1.595, 3.754e-5
-1.596, 3.811e-5
-1.597, 3.874e-5
-1.598, 3.939e-5
-1.599, 4.005e-5
-1.600, 4.068e-5
-1.601, 4.134e-5
-1.602, 4.201e-5
-1.603, 4.269e-5
-1.604, 4.338e-5
-1.605, 4.412e-5
-1.606, 4.484e-5
-1.607, 4.559e-5
-1.608, 4.631e-5
-1.609, 4.706e-5
-1.610, 4.788e-5
-1.611, 4.872e-5
-1.612, 4.957e-5
-1.613, 5.045e-5
-1.614, 5.139e-5
-1.615, 5.248e-5
-1.616, 5.342e-5
-1.617, 5.430e-5
-1.618, 5.528e-5
-1.619, 5.630e-5
-1.620, 5.725e-5
-1.621, 5.827e-5
-1.622, 5.929e-5
-1.623, 6.024e-5
-1.624, 6.129e-5
-1.625, 6.237e-5
-1.626, 6.349e-5
-1.627, 6.463e-5
-1.628, 6.578e-5
-1.629, 6.689e-5
-1.630, 6.815e-5
-1.631, 6.945e-5
-1.632, 7.074e-5
-1.633, 7.206e-5
-1.634, 7.346e-5
-1.635, 7.476e-5
-1.636, 7.602e-5
-1.637, 7.747e-5
-1.638, 7.891e-5
-1.639, 8.052e-5
-1.640, 8.211e-5
-1.641, 8.363e-5
-1.642, 8.515e-5
-1.643, 8.684e-5
-1.644, 8.842e-5
-1.645, 9.013e-5
-1.646, 9.183e-5
-1.647, 9.353e-5
-1.648, 9.532e-5
-1.649, 9.727e-5
-1.650, 9.914e-5
-1.651, 1.011e-4
-1.652, 1.031e-4
-1.653, 1.052e-4
-1.654, 1.073e-4
-1.655, 1.095e-4
-1.656, 1.116e-4
-1.657, 1.138e-4
-1.658, 1.161e-4
-1.659, 1.185e-4
-1.660, 1.208e-4
-1.661, 1.233e-4
-1.662, 1.257e-4
-1.663, 1.282e-4
-1.664, 1.308e-4
-1.665, 1.334e-4
-1.666, 1.361e-4
-1.667, 1.387e-4
-1.668, 1.414e-4
-1.669, 1.442e-4
-1.670, 1.471e-4
-1.671, 1.500e-4
-1.672, 1.530e-4
-1.673, 1.559e-4
-1.674, 1.590e-4
-1.675, 1.621e-4
-1.676, 1.652e-4
-1.677, 1.683e-4
-1.678, 1.716e-4
-1.679, 1.751e-4
-1.680, 1.785e-4
-1.681, 1.820e-4
-1.682, 1.856e-4
-1.683, 1.893e-4
-1.684, 1.930e-4
-1.685, 1.968e-4
-1.686, 2.007e-4
-1.687, 2.046e-4
-1.688, 2.085e-4
-1.689, 2.126e-4
-1.690, 2.168e-4
-1.691, 2.213e-4
-1.692, 2.259e-4
-1.693, 2.303e-4
-1.694, 2.348e-4
-1.695, 2.394e-4
-1.696, 2.439e-4
-1.697, 2.486e-4
-1.698, 2.534e-4
-1.699, 2.583e-4
-1.700, 2.631e-4
-1.701, 2.683e-4
-1.702, 2.736e-4
-1.703, 2.786e-4
-1.704, 2.836e-4
-1.705, 2.891e-4
-1.706, 2.944e-4
-1.707, 2.999e-4
-1.708, 3.054e-4
-1.709, 3.110e-4
-1.710, 3.167e-4
-1.711, 3.224e-4
-1.712, 3.281e-4
-1.713, 3.343e-4
-1.714, 3.405e-4
-1.715, 3.468e-4
-1.716, 3.529e-4
-1.717, 3.592e-4
-1.718, 3.657e-4
-1.719, 3.720e-4
-1.720, 3.786e-4
-1.721, 3.853e-4
-1.722, 3.917e-4
-1.723, 3.980e-4
-1.724, 4.048e-4
-1.725, 4.120e-4
-1.726, 4.195e-4
-1.727, 4.275e-4
-1.728, 4.350e-4
-1.729, 4.427e-4
-1.730, 4.506e-4
-1.731, 4.589e-4
-1.732, 4.669e-4
-1.733, 4.750e-4
-1.734, 4.828e-4
-1.735, 4.909e-4
-1.736, 4.987e-4
-1.737, 5.073e-4
-1.738, 5.161e-4
-1.739, 5.246e-4
-1.740, 5.333e-4
-1.741, 5.419e-4
-1.742, 5.508e-4
-1.743, 5.600e-4
-1.744, 5.692e-4
-1.745, 5.784e-4
-1.746, 5.884e-4
-1.747, 5.983e-4
-1.748, 6.083e-4
-1.749, 6.185e-4
-1.750, 6.281e-4
-1.751, 6.384e-4
-1.752, 6.487e-4
-1.753, 6.589e-4
-1.754, 6.695e-4
-1.755, 6.800e-4
-1.756, 6.903e-4
-1.757, 7.013e-4
-1.758, 7.120e-4
-1.759, 7.228e-4
-1.760, 7.344e-4
-1.761, 7.459e-4
-1.762, 7.567e-4
-1.763, 7.684e-4
-1.764, 7.804e-4
-1.765, 7.922e-4
-1.766, 8.042e-4
-1.767, 8.171e-4
-1.768, 8.299e-4
-1.769, 8.425e-4
-1.770, 8.555e-4
-1.771, 8.691e-4
-1.772, 8.826e-4
-1.773, 8.965e-4
-1.774, 9.102e-4
-1.775, 9.236e-4
-1.776, 9.378e-4
-1.777, 9.516e-4
-1.778, 9.658e-4
-1.779, 9.799e-4
-1.780, 9.944e-4
-1.781, 1.008e-3
-1.782, 1.011e-3
-1.783, 1.011e-3
-1.784, 1.011e-3
-1.785, 1.011e-3
-1.786, 1.011e-3
-1.787, 1.011e-3
-1.788, 1.011e-3
-1.789, 1.011e-3
-1.790, 1.011e-3
-1.791, 1.011e-3
-1.792, 1.011e-3
-1.793, 1.011e-3
-1.794, 1.011e-3
-1.795, 1.011e-3
-1.796, 1.011e-3
-1.797, 1.011e-3
-1.798, 1.011e-3
-1.799, 1.011e-3
-1.800, 1.011e-3
-1.801, 1.011e-3
-1.802, 1.011e-3
-1.803, 1.011e-3
-1.804, 1.011e-3
-1.805, 1.011e-3
-1.806, 1.011e-3
-1.807, 1.011e-3
-1.808, 1.011e-3
-1.809, 1.011e-3
-1.810, 1.011e-3
-1.811, 1.011e-3
-1.812, 1.011e-3
-1.813, 1.011e-3
-1.814, 1.011e-3
-1.815, 1.011e-3
-1.816, 1.011e-3
-1.817, 1.011e-3
-1.818, 1.011e-3
-1.819, 1.011e-3
-1.820, 1.011e-3
-1.821, 1.011e-3
-1.822, 1.011e-3
-1.823, 1.011e-3
-1.824, 1.011e-3
-1.825, 1.011e-3
-1.826, 1.011e-3
-1.827, 1.011e-3
-1.828, 1.011e-3
-1.829, 1.011e-3
-1.830, 1.011e-3
-1.831, 1.011e-3
-1.832, 1.011e-3
-1.833, 1.011e-3
-1.834, 1.011e-3
-1.835, 1.011e-3
-1.836, 1.011e-3
-1.837, 1.011e-3
-1.838, 1.011e-3
-1.839, 1.011e-3
-1.840, 1.011e-3
-1.841, 1.011e-3
-1.842, 1.011e-3
-1.843, 1.011e-3
-1.844, 1.011e-3
-1.845, 1.011e-3
-1.846, 1.011e-3
-1.847, 1.011e-3
-1.848, 1.011e-3
-1.849, 1.011e-3
-1.850, 1.011e-3
-1.851, 1.011e-3
-1.852, 1.011e-3
-1.853, 1.011e-3
-1.854, 1.011e-3
-1.855, 1.011e-3
-1.856, 1.011e-3
-1.857, 1.011e-3
-1.858, 1.011e-3
-1.859, 1.011e-3
-1.860, 1.011e-3
-1.861, 1.011e-3
-1.862, 1.011e-3
-1.863, 1.011e-3
-1.864, 1.011e-3
-1.865, 1.011e-3
-1.866, 1.011e-3
-1.867, 1.011e-3
-1.868, 1.011e-3
-1.869, 1.011e-3
-1.870, 1.011e-3
-1.871, 1.011e-3
-1.872, 1.011e-3
-1.873, 1.011e-3
-1.874, 1.011e-3
-1.875, 1.011e-3
-1.876, 1.011e-3
-1.877, 1.011e-3
-1.878, 1.011e-3
-1.879, 1.011e-3
-1.880, 1.011e-3
-1.881, 1.011e-3
-1.882, 1.011e-3
-1.883, 1.011e-3
-1.884, 1.011e-3
-1.885, 1.011e-3
-1.886, 1.011e-3
-1.887, 1.011e-3
-1.888, 1.011e-3
-1.889, 1.011e-3
-1.890, 1.011e-3
-1.891, 1.011e-3
-1.892, 1.011e-3
-1.893, 1.011e-3
-1.894, 1.011e-3
-1.895, 1.011e-3
-1.896, 1.011e-3
-1.897, 1.011e-3
-1.898, 1.011e-3
-1.899, 1.011e-3
