Potential V vs RHE, Current mA cm-2
0.013299999999999867,-1.0490084288499246
0.012299999999999978,-4.0588067193127895
0.011299999999999866,-6.326588932996443
0.010299999999999976,-8.070927965730034
0.009299999999999864,-9.511104068992642
0.008299999999999974,-10.644287820184536
0.007299999999999862,-11.604876792792895
0.006299999999999972,-12.346185513922174
0.00529999999999986,-12.913484745168056
0.0042999999999999705,-13.436927926118118
0.0032999999999998586,-13.784946905884919
0.0022999999999999687,-14.090524546655764
0.0012999999999998568,-14.345172580631472
0.00029999999999996696,-14.529085049613924
-0.000700000000000145,-14.69885040559773
-0.0017000000000000348,-14.925204213576137
-0.0027000000000001467,-15.05252823056399
-0.0037000000000000366,-15.222293586547794
-0.0047000000000001485,-15.349617603535648
-0.005700000000000038,-15.533530072518102
-0.00670000000000015,-15.70329542850191
-0.00770000000000004,-15.830619445489761
-0.008700000000000152,-15.972090575476265
-0.009700000000000042,-16.056973253468165
-0.010700000000000154,-16.141855931460068
-0.011700000000000044,-16.22673860945197
-0.012700000000000156,-16.184297270456018
-0.013700000000000045,-16.184297270456018
-0.014700000000000157,-16.22673860945197
-0.015700000000000047,-16.184297270456018
-0.01670000000000016,-16.22673860945197
-0.01770000000000005,-16.22673860945197
-0.01870000000000016,-16.269179948447924
-0.01970000000000005,-16.354062626439823
-0.020700000000000163,-16.396503965435777
-0.021700000000000053,-16.438945304431726
-0.022700000000000164,-16.580416434418233
-0.023700000000000054,-16.622857773414182
-0.024700000000000166,-16.665299112410132
-0.025700000000000056,-16.70774045140608
-0.026700000000000168,-16.665299112410132
-0.027700000000000058,-16.622857773414182
-0.02870000000000017,-16.622857773414182
-0.02970000000000006,-16.580416434418233
-0.03070000000000017,-16.53797509542228
-0.03170000000000006,-16.53797509542228
-0.03270000000000017,-16.580416434418233
-0.03370000000000006,-16.622857773414182
-0.034700000000000175,-16.622857773414182
-0.035700000000000065,-16.70774045140608
-0.03670000000000018,-16.750181790402035
-0.03770000000000007,-16.835064468393938
-0.03870000000000018,-16.877505807389888
-0.03970000000000007,-16.877505807389888
-0.04070000000000018,-16.919947146385837
-0.04170000000000007,-16.877505807389888
-0.04270000000000018,-16.792623129397985
-0.04370000000000007,-16.835064468393938
-0.044700000000000184,-16.792623129397985
-0.045700000000000074,-16.70774045140608
-0.046700000000000186,-16.750181790402035
-0.047700000000000076,-16.70774045140608
-0.04870000000000019,-16.750181790402035
-0.04970000000000008,-16.792623129397985
-0.05070000000000019,-16.792623129397985
-0.05170000000000008,-16.877505807389888
-0.05270000000000019,-16.919947146385837
-0.05370000000000008,-16.962388485381787
-0.05470000000000019,-17.018976937376394
-0.05570000000000008,-16.962388485381787
-0.056700000000000195,-16.962388485381787
-0.057700000000000085,-16.919947146385837
-0.058700000000000196,-16.835064468393938
-0.059700000000000086,-16.835064468393938
-0.0607000000000002,-16.750181790402035
-0.06170000000000009,-16.750181790402035
-0.0627000000000002,-16.792623129397985
-0.06370000000000009,-16.792623129397985
-0.0647000000000002,-16.835064468393938
-0.06570000000000009,-16.877505807389888
-0.0667000000000002,-16.877505807389888
-0.0677000000000001,-16.962388485381787
-0.0687000000000002,-16.962388485381787
-0.0697000000000001,-16.962388485381787
-0.07070000000000021,-16.962388485381787
-0.0717000000000001,-16.919947146385837
-0.07270000000000021,-16.919947146385837
-0.0737000000000001,-16.835064468393938
-0.07470000000000021,-16.792623129397985
-0.0757000000000001,-16.750181790402035
-0.07670000000000021,-16.750181790402035
-0.0777000000000001,-16.70774045140608
-0.07870000000000021,-16.750181790402035
-0.0797000000000001,-16.750181790402035
-0.08070000000000022,-16.835064468393938
-0.0817000000000001,-16.877505807389888
-0.08270000000000022,-16.919947146385837
-0.08370000000000011,-16.962388485381787
-0.08470000000000022,-16.919947146385837
-0.08570000000000011,-16.919947146385837
-0.08670000000000022,-16.919947146385837
-0.08770000000000011,-16.877505807389888
-0.08870000000000022,-16.835064468393938
-0.08970000000000011,-16.750181790402035
-0.09070000000000022,-16.70774045140608
-0.09170000000000011,-16.750181790402035
-0.09270000000000023,-16.70774045140608
-0.09370000000000012,-16.792623129397985
-0.09470000000000023,-16.792623129397985
-0.09570000000000012,-16.792623129397985
-0.09670000000000023,-16.877505807389888
-0.09770000000000012,-16.919947146385837
-0.09870000000000023,-16.919947146385837
-0.09970000000000012,-16.962388485381787
-0.10070000000000023,-16.919947146385837
-0.10170000000000012,-16.919947146385837
-0.10270000000000024,-16.877505807389888
-0.10370000000000013,-16.835064468393938
-0.10470000000000024,-16.792623129397985
-0.10570000000000013,-16.750181790402035
-0.10670000000000024,-16.750181790402035
-0.10770000000000013,-16.70774045140608
-0.10870000000000024,-16.750181790402035
-0.10970000000000013,-16.792623129397985
-0.11070000000000024,-16.835064468393938
-0.11170000000000013,-16.877505807389888
-0.11270000000000002,-16.919947146385837
-0.11370000000000013,-16.962388485381787
-0.11470000000000002,-16.962388485381787
-0.11570000000000014,-16.962388485381787
-0.11670000000000003,-16.962388485381787
-0.11770000000000014,-16.919947146385837
-0.11870000000000003,-16.877505807389888
-0.11970000000000014,-16.835064468393938
-0.12070000000000003,-16.792623129397985
-0.12170000000000014,-16.792623129397985
-0.12270000000000003,-16.792623129397985
-0.12370000000000014,-16.835064468393938
-0.12470000000000003,-16.835064468393938
-0.12570000000000014,-16.919947146385837
-0.12670000000000003,-16.962388485381787
-0.12770000000000015,-16.962388485381787
-0.12870000000000004,-17.061418276372343
-0.12970000000000015,-17.061418276372343
-0.13070000000000004,-17.061418276372343
-0.13170000000000015,-17.018976937376394
-0.13270000000000004,-16.962388485381787
-0.13370000000000015,-16.962388485381787
-0.13470000000000004,-16.919947146385837
-0.13570000000000015,-16.835064468393938
-0.13670000000000004,-16.877505807389888
-0.13770000000000016,-16.877505807389888
-0.13870000000000005,-16.919947146385837
-0.13970000000000016,-16.919947146385837
-0.14070000000000005,-17.018976937376394
-0.14170000000000016,-17.018976937376394
-0.14270000000000005,-17.061418276372343
-0.14370000000000016,-17.103859615368293
-0.14470000000000005,-17.103859615368293
-0.14570000000000016,-17.146300954364243
-0.14670000000000005,-17.061418276372343
-0.14770000000000016,-17.061418276372343
-0.14870000000000005,-17.018976937376394
-0.14970000000000017,-17.018976937376394
-0.15070000000000006,-16.962388485381787
-0.15170000000000017,-16.962388485381787
-0.15270000000000006,-16.962388485381787
-0.15370000000000017,-17.018976937376394
-0.15470000000000006,-17.061418276372343
-0.15570000000000017,-17.103859615368293
-0.15670000000000006,-17.146300954364243
-0.15770000000000017,-17.231183632356142
-0.15870000000000006,-17.231183632356142
-0.15970000000000018,-17.2736249713521
-0.16070000000000007,-17.316066310348052
-0.16170000000000018,-17.2736249713521
-0.16270000000000007,-17.188742293360193
-0.16370000000000018,-17.188742293360193
-0.16470000000000007,-17.188742293360193
-0.16570000000000018,-17.103859615368293
-0.16670000000000007,-17.188742293360193
-0.16770000000000018,-17.103859615368293
-0.16870000000000007,-17.146300954364243
-0.16970000000000018,-17.231183632356142
-0.17070000000000007,-17.2736249713521
-0.17170000000000019,-17.316066310348052
-0.17270000000000008,-17.358507649344002
-0.1737000000000002,-17.40094898833995
-0.17470000000000008,-17.40094898833995
-0.1757000000000002,-17.4433903273359
-0.17670000000000008,-17.4433903273359
-0.1777000000000002,-17.40094898833995
-0.17870000000000008,-17.358507649344002
-0.1797000000000002,-17.316066310348052
-0.18070000000000008,-17.2736249713521
-0.1817000000000002,-17.316066310348052
-0.18270000000000008,-17.358507649344002
-0.1837000000000002,-17.40094898833995
-0.1847000000000001,-17.4433903273359
-0.1857000000000002,-17.48583166633185
-0.1867000000000001,-17.542420118326454
-0.1877000000000002,-17.669744135314307
-0.1887000000000001,-17.669744135314307
-0.1897000000000002,-17.669744135314307
-0.1907000000000001,-17.75462681330621
-0.1917000000000001,-17.71218547431026
-0.19269999999999998,-17.669744135314307
-0.1937000000000001,-17.669744135314307
-0.19469999999999998,-17.669744135314307
-0.1957000000000001,-17.627302796318357
-0.19669999999999999,-17.627302796318357
-0.1977000000000001,-17.627302796318357
-0.1987,-17.71218547431026
-0.1997000000000001,-17.75462681330621
-0.2007,-17.797068152302163
-0.2017000000000001,-17.881950830294063
-0.2027,-17.966833508285966
-0.2037000000000001,-18.06586329927652
-0.2047,-18.009274847281915
-0.2057000000000001,-18.06586329927652
-0.2067,-18.06586329927652
-0.2077000000000001,-17.966833508285966
-0.2087,-18.009274847281915
-0.2097000000000001,-18.009274847281915
-0.2107,-17.966833508285966
-0.2117000000000001,-17.966833508285966
-0.2127,-17.966833508285966
-0.2137000000000001,-18.06586329927652
-0.2147,-18.10830463827247
-0.2157000000000001,-18.27806999425627
-0.2167,-18.320511333252224
-0.21770000000000012,-18.362952672248177
-0.2187,-18.40539401124413
-0.21970000000000012,-18.49027668923603
-0.2207,-18.49027668923603
-0.22170000000000012,-18.44783535024008
-0.2227,-18.44783535024008
-0.22370000000000012,-18.40539401124413
-0.2247,-18.40539401124413
-0.22570000000000012,-18.40539401124413
-0.2267,-18.40539401124413
-0.22770000000000012,-18.49027668923603
-0.22870000000000001,-18.49027668923603
-0.22970000000000013,-18.589306480226583
-0.23070000000000002,-18.674189158218486
-0.23170000000000013,-18.759071836210385
-0.23270000000000002,-18.80151317520634
-0.23370000000000013,-18.92883719219419
-0.23470000000000002,-18.92883719219419
-0.23570000000000013,-18.97127853119014
-0.23670000000000002,-18.97127853119014
-0.2376999999999999,-18.88639585319824
-0.23870000000000002,-18.97127853119014
-0.2396999999999999,-18.92883719219419
-0.24070000000000003,-18.97127853119014
-0.24169999999999991,-18.97127853119014
-0.24270000000000003,-19.056161209182044
-0.24369999999999992,-19.112749661176647
-0.24470000000000003,-19.197632339168546
-0.24569999999999992,-19.28251501716045
-0.24670000000000003,-19.367397695152352
-0.24769999999999992,-19.452280373144255
-0.24870000000000003,-19.537163051136158
-0.24969999999999992,-19.579604390132108
-0.25070000000000003,-19.636192842126707
-0.2516999999999999,-19.636192842126707
-0.25270000000000004,-19.636192842126707
-0.2536999999999999,-19.636192842126707
-0.25470000000000004,-19.678634181122664
-0.2556999999999999,-19.678634181122664
-0.25670000000000004,-19.721075520118614
-0.25769999999999993,-19.721075520118614
-0.25870000000000004,-19.805958198110513
-0.25969999999999993,-19.93328221509837
-0.26070000000000004,-20.01816489309027
-0.26169999999999993,-20.10304757108217
-0.26270000000000004,-20.202077362072725
-0.26369999999999993,-20.329401379060574
-0.26470000000000005,-20.371842718056527
-0.26569999999999994,-20.414284057052477
-0.26670000000000005,-20.499166735044383
-0.26769999999999994,-20.499166735044383
-0.26870000000000005,-20.499166735044383
-0.26969999999999994,-20.499166735044383
-0.27070000000000005,-20.499166735044383
-0.27169999999999994,-20.541608074040333
-0.27270000000000005,-20.626490752032236
-0.27369999999999994,-20.72552054302279
-0.27470000000000006,-20.810403221014692
-0.27569999999999995,-20.89528589900659
-0.27670000000000006,-20.980168576998494
-0.27769999999999995,-21.107492593986347
-0.27870000000000006,-21.248963723972853
-0.27969999999999995,-21.248963723972853
-0.28070000000000006,-21.333846401964752
-0.28169999999999995,-21.418729079956652
-0.28270000000000006,-21.418729079956652
-0.28369999999999995,-21.461170418952605
-0.28470000000000006,-21.461170418952605
-0.28569999999999995,-21.503611757948562
-0.28670000000000007,-21.54605309694451
-0.28769999999999996,-21.63093577493641
-0.28870000000000007,-21.772406904922917
-0.28969999999999996,-21.857289582914817
-0.29070000000000007,-21.98461359990267
-0.29169999999999996,-22.111937616890522
-0.29270000000000007,-22.253408746877028
-0.29369999999999996,-22.33829142486893
-0.2947000000000001,-22.46561544185678
-0.29569999999999996,-22.550498119848687
-0.2967000000000001,-22.592939458844636
-0.29769999999999996,-22.592939458844636
-0.2987000000000001,-22.67782213683654
-0.29969999999999997,-22.776851927827092
-0.3007000000000001,-22.72026347583249
-0.30169999999999997,-22.861734605818995
-0.3027000000000001,-22.946617283810895
-0.30369999999999997,-23.073941300798747
-0.3047000000000001,-23.2012653177866
-0.30569999999999997,-23.342736447773106
-0.3067000000000001,-23.47006046476096
-0.3077,-23.639825820744765
-0.3087000000000001,-23.767149837732617
-0.3097,-23.86617962872317
-0.3107000000000001,-23.993503645711023
-0.3117,-24.078386323702922
-0.3127000000000001,-24.120827662698876
-0.3137,-24.20571034069078
-0.3147000000000001,-24.34718147067728
-0.3157,-24.389622809673234
-0.3167000000000001,-24.474505487665134
-0.3177,-24.601829504652986
-0.3187000000000001,-24.771594860636792
-0.3197,-24.9130659906233
-0.3207000000000001,-25.0828313466071
-0.3217,-25.252596702590903
-0.3227000000000001,-25.39406783257741
-0.3237,-25.563833188561212
-0.3247000000000001,-25.691157205549064
-0.3257,-25.81848122253692
-0.3267000000000001,-25.91751101352747
-0.3277,-25.959952352523427
-0.3287000000000001,-26.087276369511276
-0.3297,-26.21460038649913
-0.3307000000000001,-26.257041725495082
-0.3317,-26.483395533473487
-0.3327000000000001,-26.61071955046134
-0.3337,-26.780484906445146
-0.3347000000000001,-27.00683871442355
-0.3357,-27.219045409403304
-0.3367000000000001,-27.38881076538711
-0.3377,-27.615164573365515
-0.3387000000000001,-27.827371268345274
-0.3397,-28.011283737327723
-0.3407000000000001,-28.18104909331153
-0.3417,-28.308373110299385
-0.3427000000000001,-28.435697127287238
-0.3437,-28.619609596269694
-0.3447000000000001,-28.746933613257543
-0.3457,-28.8742576302454
-0.3467000000000001,-29.058170099227848
-0.3477,-29.22793545521166
-0.3487000000000001,-29.440142150191413
-0.3497,-29.66649595816982
-0.3507000000000001,-29.921143992145527
-0.3517,-30.10505646112798
-0.3527000000000001,-30.359704495103685
-0.3537,-30.571911190083444
-0.3547000000000001,-30.79826499806185
-0.3557,-30.968030354045652
-0.35670000000000013,-31.137795710029454
-0.3577,-31.321708179011907
-0.35870000000000013,-31.533914873991666
-0.3597,-31.661238890979522
-0.36070000000000013,-31.84515135996197
-0.3617,-32.09979939393769
-0.3626999999999999,-32.32615320191609
-0.3637,-32.58080123589179
-0.3646999999999999,-32.84959638286615
-0.3657,-33.14668575583781
-0.3666999999999999,-33.45792224180811
-0.3677,-33.712570275783825
-0.3686999999999999,-34.06624810075008
-0.36970000000000003,-34.278454795729836
-0.3706999999999999,-34.58969128170015
-0.37170000000000003,-34.85848642867451
-0.3726999999999999,-35.07069312365426
-0.37370000000000003,-35.282899818634014
-0.3746999999999999,-35.50925362661242
-0.37570000000000003,-35.679018982596226
-0.3766999999999999,-35.94781412957058
-0.37770000000000004,-36.244903502542236
-0.3786999999999999,-36.55613998851254
-0.37970000000000004,-36.89567070048016
-0.3806999999999999,-37.164465847454515
-0.38170000000000004,-37.51814367242077
-0.38269999999999993,-37.90011572338433
-0.38370000000000004,-38.253793548350586
-0.38469999999999993,-38.5650300343209
-0.38570000000000004,-38.90456074628851
-0.38669999999999993,-39.173355893262865
-0.38770000000000004,-39.47044526623452
-0.38869999999999993,-39.739240413208876
-0.38970000000000005,-40.03632978618054
-0.39069999999999994,-40.30512493315489
-0.39170000000000005,-40.65880275812115
-0.39269999999999994,-40.99833347008877
-0.39370000000000005,-41.39445263405098
-0.39469999999999994,-41.79057179801318
-0.39570000000000005,-42.186690961975394
-0.39669999999999994,-42.526221673943
-0.39770000000000005,-42.92234083790521
-0.39869999999999994,-43.31846000186743
-0.39970000000000006,-43.657990713835034
-0.40069999999999995,-44.054109877797245
-0.40170000000000006,-44.36534636376755
-0.40269999999999995,-44.704877075735155
-0.40370000000000006,-45.05855490070142
-0.40469999999999995,-45.412232725667685
-0.40570000000000006,-45.70932209863933
-0.40669999999999995,-46.10544126260155
-0.40770000000000006,-46.544001765559706
-0.40869999999999995,-46.94012092952192
-0.40970000000000006,-47.40697565847737
-0.41069999999999995,-47.84553616143554
-0.41170000000000007,-48.32653800338966
-0.41269999999999996,-48.72265716735186
-0.41370000000000007,-49.20365900930597
-0.41469999999999996,-49.68466085126009
-0.41570000000000007,-50.0807800152223
-0.41669999999999996,-50.547634744177756
-0.41770000000000007,-50.90131256914402
-0.41869999999999996,-51.33987307210218
-0.4197000000000001,-51.73599223606439
-0.42069999999999996,-52.11796428702795
-0.4217000000000001,-52.59896612898206
-0.42269999999999996,-53.03752663194023
-0.4237000000000001,-53.518528473894335
-0.42469999999999997,-53.999530315848446
-0.4257000000000001,-54.56541483579447
-0.42669999999999997,-55.046416677748574
-0.4277000000000001,-55.612301197694585
-0.42869999999999997,-56.13574437864466
-0.4297000000000001,-56.61674622059877
-0.43069999999999997,-57.14018940154883
-0.4317000000000001,-57.62119124350295
-0.4327,-58.10219308545706
-0.4337000000000001,-58.62563626640712
-0.4347,-59.06419676936528
-0.4357000000000001,-59.54519861131939
-0.4367,-60.06864179226946
-0.4377000000000001,-60.59208497321952
-0.4387,-61.20041083216149
-0.4397000000000001,-61.72385401311155
-0.4407,-62.33217987205352
-0.4417000000000001,-62.94050573099548
-0.4427,-63.5063902509415
-0.4437000000000001,-64.11471610988345
-0.4447,-64.68060062982947
-0.4457000000000001,-65.2464851497755
-0.4467,-65.76992833072556
-0.4477000000000001,-66.29337151167562
-0.4487,-66.81681469262568
-0.4497000000000001,-67.43928766456631
-0.4507,-67.9202895065204
-0.4517000000000001,-68.52861536546239
-0.4527,-69.13694122440434
-0.4537000000000001,-69.78770842234226
-0.4547,-70.43847562028017
-0.4557000000000001,-71.06094859222078
-0.4567,-71.75415712915466
-0.4577000000000001,-72.40492432709259
-0.4587,-73.09813286402644
-0.4597000000000001,-73.72060583596706
-0.4607,-74.37137303390499
-0.4617000000000001,-75.02214023184291
-0.4627,-75.5880247517889
-0.4637000000000001,-76.23879194972683
-0.4647,-76.86126492166746
-0.4657000000000001,-77.46959078060941
-0.4667,-78.12035797854733
-0.4677000000000001,-78.8135665154812
-0.4687,-79.56336350440966
-0.4697000000000001,-80.25657204134353
-0.4707,-80.99222191727335
-0.4717000000000001,-81.78446024519776
-0.4727,-82.52011012112759
-0.4737000000000001,-83.26990711005605
-0.4747,-83.96311564698992
-0.4757000000000001,-84.75535397491434
-0.4767,-85.44856251184822
-0.4777000000000001,-86.05688837079018
-0.4787,-86.75009690772404
-0.4797000000000001,-87.45745255765657
-0.4807,-88.15066109459043
-0.48170000000000013,-88.9004580835189
-0.4827,-89.63610795944872
-0.48370000000000013,-90.47078762636909
-0.4847,-91.33376151928677
-0.48570000000000013,-92.12599984721119
-0.4867,-92.98897374012887
-0.4876999999999999,-93.86609474604518
-0.4887,-94.7432157519615
-0.4896999999999999,-95.56374830588322
-0.4907,-96.44086931179956
-0.4916999999999999,-97.31799031771587
-0.4927,-98.05364019364569
-0.4936999999999999,-98.83173140857146
-0.49470000000000003,-99.62396973649588
-0.4956999999999999,-100.40206095142165
-0.49670000000000003,-101.23674061834203
-0.4976999999999999,-102.11386162425833
-0.49870000000000003,-102.93439417818009
-0.4996999999999999,-103.81151518409638
-0.5007,-104.64619485101677
-0.5016999999999999,-105.5516100829304
-0.5027,-106.47117242784265
-0.5036999999999999,-107.34829343375898
-0.5047,-108.2537086656726
-0.5056999999999999,-109.13082967158894
