Sept. 3, 2024   15:26:07
Cyclic Voltammetry
File: c:/users/guazh/data/20240903_batch_252_500/2024-09-03-exp253\exp253-2024-09-03t15_06_43-arkoh\exp253_cv_sr_300mvs_efin_-1800mv.bin
Data Source:  Experiment
Instrument Model:  CHI760E
Header: CV ran at 300 mVs
Note: 

Init E (V) = -1
High E (V) = -1
Low E (V) = -1.8
Final E (V) = -1
Init P/N = N
Scan Rate (V/s) = 0.3
Segment = 3
Sample Interval (V) = 0.001
Quiet Time (sec) = 2
Sensitivity (A/V) = 0.01
Comp R (ohm) = 4.3

Results:

Channel 1:
Segment 1:

Segment 2:
Ep = -1.071V
ip = -6.226e-6A
Ah = -2.054e-6C

Segment 3:

Potential/V, Current/A

-1.000, 3.239e-6
-1.001, 3.239e-6
-1.002, 3.239e-6
-1.003, 3.239e-6
-1.004, 3.239e-6
-1.005, 3.239e-6
-1.006, 3.239e-6
-1.007, 6.322e-6
-1.008, 6.322e-6
-1.009, 6.322e-6
-1.010, 6.322e-6
-1.011, 6.322e-6
-1.012, 6.322e-6
-1.013, 6.322e-6
-1.014, 6.322e-6
-1.015, 6.322e-6
-1.016, 6.322e-6
-1.017, 6.322e-6
-1.018, 6.322e-6
-1.019, 6.322e-6
-1.020, 6.322e-6
-1.021, 6.322e-6
-1.022, 6.322e-6
-1.023, 6.322e-6
-1.024, 6.322e-6
-1.025, 6.322e-6
-1.026, 6.322e-6
-1.027, 6.322e-6
-1.028, 6.322e-6
-1.029, 6.322e-6
-1.030, 6.322e-6
-1.031, 6.322e-6
-1.032, 6.322e-6
-1.033, 9.405e-6
-1.034, 9.405e-6
-1.035, 9.405e-6
-1.036, 9.405e-6
-1.037, 9.405e-6
-1.038, 9.405e-6
-1.039, 9.405e-6
-1.040, 9.405e-6
-1.041, 9.405e-6
-1.042, 9.405e-6
-1.043, 9.405e-6
-1.044, 9.405e-6
-1.045, 9.405e-6
-1.046, 9.405e-6
-1.047, 9.405e-6
-1.048, 9.405e-6
-1.049, 9.405e-6
-1.050, 9.405e-6
-1.051, 9.405e-6
-1.052, 9.405e-6
-1.053, 9.405e-6
-1.054, 9.405e-6
-1.055, 9.405e-6
-1.056, 9.405e-6
-1.057, 9.405e-6
-1.058, 9.405e-6
-1.059, 9.405e-6
-1.060, 6.322e-6
-1.061, 9.405e-6
-1.062, 9.405e-6
-1.063, 9.405e-6
-1.064, 9.405e-6
-1.065, 9.405e-6
-1.066, 9.405e-6
-1.067, 9.405e-6
-1.068, 9.405e-6
-1.069, 9.405e-6
-1.070, 9.405e-6
-1.071, 9.405e-6
-1.072, 9.405e-6
-1.073, 9.405e-6
-1.074, 9.405e-6
-1.075, 9.405e-6
-1.076, 9.405e-6
-1.077, 9.405e-6
-1.078, 9.405e-6
-1.079, 9.405e-6
-1.080, 9.405e-6
-1.081, 9.405e-6
-1.082, 9.405e-6
-1.083, 9.405e-6
-1.084, 9.405e-6
-1.085, 9.405e-6
-1.086, 9.405e-6
-1.087, 9.405e-6
-1.088, 9.405e-6
-1.089, 9.405e-6
-1.090, 9.405e-6
-1.091, 9.405e-6
-1.092, 9.405e-6
-1.093, 9.405e-6
-1.094, 9.405e-6
-1.095, 9.405e-6
-1.096, 9.405e-6
-1.097, 9.405e-6
-1.098, 9.405e-6
-1.099, 9.405e-6
-1.100, 9.405e-6
-1.101, 9.405e-6
-1.102, 9.405e-6
-1.103, 9.405e-6
-1.104, 9.405e-6
-1.105, 9.405e-6
-1.106, 9.405e-6
-1.107, 9.405e-6
-1.108, 9.405e-6
-1.109, 9.405e-6
-1.110, 9.405e-6
-1.111, 9.405e-6
-1.112, 9.405e-6
-1.113, 9.405e-6
-1.114, 9.405e-6
-1.115, 9.405e-6
-1.116, 9.405e-6
-1.117, 9.405e-6
-1.118, 9.405e-6
-1.119, 9.405e-6
-1.120, 9.405e-6
-1.121, 9.405e-6
-1.122, 9.405e-6
-1.123, 9.405e-6
-1.124, 9.405e-6
-1.125, 9.405e-6
-1.126, 9.405e-6
-1.127, 9.405e-6
-1.128, 9.405e-6
-1.129, 9.405e-6
-1.130, 9.405e-6
-1.131, 9.405e-6
-1.132, 9.405e-6
-1.133, 9.405e-6
-1.134, 9.405e-6
-1.135, 9.405e-6
-1.136, 1.249e-5
-1.137, 9.405e-6
-1.138, 9.405e-6
-1.139, 1.249e-5
-1.140, 1.249e-5
-1.141, 9.405e-6
-1.142, 1.249e-5
-1.143, 9.405e-6
-1.144, 1.249e-5
-1.145, 9.405e-6
-1.146, 9.405e-6
-1.147, 1.249e-5
-1.148, 9.405e-6
-1.149, 1.249e-5
-1.150, 9.405e-6
-1.151, 9.405e-6
-1.152, 9.405e-6
-1.153, 9.405e-6
-1.154, 1.249e-5
-1.155, 9.405e-6
-1.156, 9.405e-6
-1.157, 9.405e-6
-1.158, 9.405e-6
-1.159, 9.405e-6
-1.160, 1.249e-5
-1.161, 1.249e-5
-1.162, 9.405e-6
-1.163, 9.405e-6
-1.164, 1.249e-5
-1.165, 9.405e-6
-1.166, 9.405e-6
-1.167, 1.249e-5
-1.168, 9.405e-6
-1.169, 9.405e-6
-1.170, 9.405e-6
-1.171, 9.405e-6
-1.172, 1.249e-5
-1.173, 1.249e-5
-1.174, 1.249e-5
-1.175, 1.249e-5
-1.176, 9.405e-6
-1.177, 1.249e-5
-1.178, 9.405e-6
-1.179, 1.249e-5
-1.180, 1.249e-5
-1.181, 1.249e-5
-1.182, 9.405e-6
-1.183, 1.249e-5
-1.184, 1.249e-5
-1.185, 9.405e-6
-1.186, 1.249e-5
-1.187, 1.249e-5
-1.188, 9.405e-6
-1.189, 9.405e-6
-1.190, 1.249e-5
-1.191, 1.249e-5
-1.192, 1.249e-5
-1.193, 1.249e-5
-1.194, 1.249e-5
-1.195, 9.405e-6
-1.196, 1.249e-5
-1.197, 1.249e-5
-1.198, 1.249e-5
-1.199, 1.249e-5
-1.200, 1.249e-5
-1.201, 9.405e-6
-1.202, 1.249e-5
-1.203, 1.249e-5
-1.204, 1.249e-5
-1.205, 1.249e-5
-1.206, 1.249e-5
-1.207, 1.249e-5
-1.208, 1.249e-5
-1.209, 1.249e-5
-1.210, 1.249e-5
-1.211, 1.249e-5
-1.212, 1.249e-5
-1.213, 1.249e-5
-1.214, 1.249e-5
-1.215, 1.249e-5
-1.216, 1.249e-5
-1.217, 1.249e-5
-1.218, 1.249e-5
-1.219, 1.249e-5
-1.220, 1.249e-5
-1.221, 1.249e-5
-1.222, 1.249e-5
-1.223, 1.249e-5
-1.224, 1.249e-5
-1.225, 1.249e-5
-1.226, 1.249e-5
-1.227, 1.249e-5
-1.228, 1.249e-5
-1.229, 1.249e-5
-1.230, 1.249e-5
-1.231, 1.249e-5
-1.232, 1.249e-5
-1.233, 1.249e-5
-1.234, 1.249e-5
-1.235, 1.249e-5
-1.236, 1.249e-5
-1.237, 1.249e-5
-1.238, 1.249e-5
-1.239, 1.249e-5
-1.240, 1.249e-5
-1.241, 1.249e-5
-1.242, 1.249e-5
-1.243, 1.249e-5
-1.244, 1.249e-5
-1.245, 1.249e-5
-1.246, 1.249e-5
-1.247, 1.249e-5
-1.248, 1.249e-5
-1.249, 1.249e-5
-1.250, 1.249e-5
-1.251, 1.249e-5
-1.252, 1.249e-5
-1.253, 1.249e-5
-1.254, 1.249e-5
-1.255, 1.249e-5
-1.256, 1.249e-5
-1.257, 1.249e-5
-1.258, 1.249e-5
-1.259, 1.249e-5
-1.260, 1.249e-5
-1.261, 1.249e-5
-1.262, 1.249e-5
-1.263, 1.249e-5
-1.264, 1.249e-5
-1.265, 1.249e-5
-1.266, 1.249e-5
-1.267, 1.249e-5
-1.268, 1.249e-5
-1.269, 1.249e-5
-1.270, 1.249e-5
-1.271, 1.249e-5
-1.272, 1.249e-5
-1.273, 1.249e-5
-1.274, 1.249e-5
-1.275, 1.249e-5
-1.276, 1.557e-5
-1.277, 1.249e-5
-1.278, 1.249e-5
-1.279, 1.557e-5
-1.280, 1.249e-5
-1.281, 1.249e-5
-1.282, 1.249e-5
-1.283, 1.557e-5
-1.284, 1.557e-5
-1.285, 1.557e-5
-1.286, 1.557e-5
-1.287, 1.557e-5
-1.288, 1.557e-5
-1.289, 1.557e-5
-1.290, 1.249e-5
-1.291, 1.557e-5
-1.292, 1.557e-5
-1.293, 1.249e-5
-1.294, 1.249e-5
-1.295, 1.557e-5
-1.296, 1.557e-5
-1.297, 1.557e-5
-1.298, 1.557e-5
-1.299, 1.557e-5
-1.300, 1.557e-5
-1.301, 1.557e-5
-1.302, 1.557e-5
-1.303, 1.557e-5
-1.304, 1.557e-5
-1.305, 1.557e-5
-1.306, 1.557e-5
-1.307, 1.557e-5
-1.308, 1.557e-5
-1.309, 1.557e-5
-1.310, 1.557e-5
-1.311, 1.557e-5
-1.312, 1.557e-5
-1.313, 1.557e-5
-1.314, 1.557e-5
-1.315, 1.557e-5
-1.316, 1.557e-5
-1.317, 1.557e-5
-1.318, 1.557e-5
-1.319, 1.557e-5
-1.320, 1.557e-5
-1.321, 1.557e-5
-1.322, 1.557e-5
-1.323, 1.557e-5
-1.324, 1.557e-5
-1.325, 1.557e-5
-1.326, 1.557e-5
-1.327, 1.557e-5
-1.328, 1.865e-5
-1.329, 1.557e-5
-1.330, 1.865e-5
-1.331, 1.557e-5
-1.332, 1.865e-5
-1.333, 1.557e-5
-1.334, 1.865e-5
-1.335, 1.557e-5
-1.336, 1.865e-5
-1.337, 1.557e-5
-1.338, 1.865e-5
-1.339, 1.865e-5
-1.340, 1.557e-5
-1.341, 1.865e-5
-1.342, 1.865e-5
-1.343, 1.557e-5
-1.344, 1.865e-5
-1.345, 1.557e-5
-1.346, 1.557e-5
-1.347, 1.557e-5
-1.348, 1.557e-5
-1.349, 1.865e-5
-1.350, 1.865e-5
-1.351, 1.865e-5
-1.352, 1.865e-5
-1.353, 1.865e-5
-1.354, 1.865e-5
-1.355, 1.865e-5
-1.356, 1.865e-5
-1.357, 1.865e-5
-1.358, 1.865e-5
-1.359, 1.865e-5
-1.360, 1.865e-5
-1.361, 1.865e-5
-1.362, 1.865e-5
-1.363, 1.865e-5
-1.364, 1.865e-5
-1.365, 1.865e-5
-1.366, 1.865e-5
-1.367, 1.865e-5
-1.368, 1.865e-5
-1.369, 1.865e-5
-1.370, 2.174e-5
-1.371, 1.865e-5
-1.372, 2.174e-5
-1.373, 1.865e-5
-1.374, 2.174e-5
-1.375, 1.865e-5
-1.376, 1.865e-5
-1.377, 2.174e-5
-1.378, 2.174e-5
-1.379, 2.174e-5
-1.380, 2.174e-5
-1.381, 2.174e-5
-1.382, 2.174e-5
-1.383, 2.174e-5
-1.384, 2.174e-5
-1.385, 2.174e-5
-1.386, 2.174e-5
-1.387, 2.174e-5
-1.388, 2.174e-5
-1.389, 2.174e-5
-1.390, 2.174e-5
-1.391, 2.174e-5
-1.392, 2.174e-5
-1.393, 2.174e-5
-1.394, 2.174e-5
-1.395, 2.174e-5
-1.396, 2.174e-5
-1.397, 2.174e-5
-1.398, 2.482e-5
-1.399, 2.482e-5
-1.400, 2.482e-5
-1.401, 2.482e-5
-1.402, 2.482e-5
-1.403, 2.482e-5
-1.404, 2.482e-5
-1.405, 2.482e-5
-1.406, 2.482e-5
-1.407, 2.482e-5
-1.408, 2.482e-5
-1.409, 2.790e-5
-1.410, 2.482e-5
-1.411, 2.482e-5
-1.412, 2.482e-5
-1.413, 2.482e-5
-1.414, 2.482e-5
-1.415, 2.482e-5
-1.416, 2.790e-5
-1.417, 2.790e-5
-1.418, 2.790e-5
-1.419, 2.482e-5
-1.420, 2.790e-5
-1.421, 2.790e-5
-1.422, 2.790e-5
-1.423, 2.790e-5
-1.424, 2.790e-5
-1.425, 2.790e-5
-1.426, 2.790e-5
-1.427, 2.790e-5
-1.428, 2.790e-5
-1.429, 2.790e-5
-1.430, 3.099e-5
-1.431, 3.099e-5
-1.432, 3.099e-5
-1.433, 3.099e-5
-1.434, 3.099e-5
-1.435, 3.099e-5
-1.436, 3.099e-5
-1.437, 3.099e-5
-1.438, 3.099e-5
-1.439, 3.099e-5
-1.440, 3.099e-5
-1.441, 3.099e-5
-1.442, 3.407e-5
-1.443, 3.407e-5
-1.444, 3.407e-5
-1.445, 3.407e-5
-1.446, 3.407e-5
-1.447, 3.407e-5
-1.448, 3.407e-5
-1.449, 3.407e-5
-1.450, 3.407e-5
-1.451, 3.407e-5
-1.452, 3.407e-5
-1.453, 3.407e-5
-1.454, 3.715e-5
-1.455, 3.407e-5
-1.456, 3.715e-5
-1.457, 3.715e-5
-1.458, 3.715e-5
-1.459, 3.715e-5
-1.460, 3.715e-5
-1.461, 3.715e-5
-1.462, 3.715e-5
-1.463, 4.024e-5
-1.464, 4.024e-5
-1.465, 4.024e-5
-1.466, 4.024e-5
-1.467, 4.024e-5
-1.468, 4.024e-5
-1.469, 4.024e-5
-1.470, 4.024e-5
-1.471, 4.332e-5
-1.472, 4.332e-5
-1.473, 4.332e-5
-1.474, 4.332e-5
-1.475, 4.332e-5
-1.476, 4.332e-5
-1.477, 4.332e-5
-1.478, 4.640e-5
-1.479, 4.640e-5
-1.480, 4.640e-5
-1.481, 4.640e-5
-1.482, 4.640e-5
-1.483, 4.640e-5
-1.484, 4.640e-5
-1.485, 4.640e-5
-1.486, 4.949e-5
-1.487, 4.949e-5
-1.488, 4.949e-5
-1.489, 4.949e-5
-1.490, 4.949e-5
-1.491, 4.949e-5
-1.492, 4.949e-5
-1.493, 4.949e-5
-1.494, 5.257e-5
-1.495, 5.257e-5
-1.496, 5.257e-5
-1.497, 5.257e-5
-1.498, 5.565e-5
-1.499, 5.565e-5
-1.500, 5.565e-5
-1.501, 5.565e-5
-1.502, 5.565e-5
-1.503, 5.873e-5
-1.504, 5.873e-5
-1.505, 5.873e-5
-1.506, 5.873e-5
-1.507, 5.873e-5
-1.508, 5.873e-5
-1.509, 6.182e-5
-1.510, 6.182e-5
-1.511, 6.182e-5
-1.512, 6.182e-5
-1.513, 6.182e-5
-1.514, 6.490e-5
-1.515, 6.490e-5
-1.516, 6.490e-5
-1.517, 6.490e-5
-1.518, 6.490e-5
-1.519, 6.798e-5
-1.520, 6.798e-5
-1.521, 7.107e-5
-1.522, 6.798e-5
-1.523, 7.107e-5
-1.524, 7.107e-5
-1.525, 7.107e-5
-1.526, 7.415e-5
-1.527, 7.415e-5
-1.528, 7.415e-5
-1.529, 7.415e-5
-1.530, 7.415e-5
-1.531, 7.723e-5
-1.532, 7.723e-5
-1.533, 7.723e-5
-1.534, 7.723e-5
-1.535, 8.032e-5
-1.536, 8.032e-5
-1.537, 8.032e-5
-1.538, 8.340e-5
-1.539, 8.340e-5
-1.540, 8.340e-5
-1.541, 8.648e-5
-1.542, 8.648e-5
-1.543, 8.648e-5
-1.544, 8.957e-5
-1.545, 8.957e-5
-1.546, 8.957e-5
-1.547, 9.265e-5
-1.548, 9.265e-5
-1.549, 9.265e-5
-1.550, 9.573e-5
-1.551, 9.573e-5
-1.552, 9.573e-5
-1.553, 9.573e-5
-1.554, 9.882e-5
-1.555, 9.882e-5
-1.556, 1.019e-4
-1.557, 1.019e-4
-1.558, 1.050e-4
-1.559, 1.050e-4
-1.560, 1.081e-4
-1.561, 1.081e-4
-1.562, 1.081e-4
-1.563, 1.111e-4
-1.564, 1.111e-4
-1.565, 1.142e-4
-1.566, 1.142e-4
-1.567, 1.173e-4
-1.568, 1.173e-4
-1.569, 1.204e-4
-1.570, 1.204e-4
-1.571, 1.235e-4
-1.572, 1.235e-4
-1.573, 1.266e-4
-1.574, 1.266e-4
-1.575, 1.296e-4
-1.576, 1.327e-4
-1.577, 1.327e-4
-1.578, 1.358e-4
-1.579, 1.358e-4
-1.580, 1.389e-4
-1.581, 1.389e-4
-1.582, 1.420e-4
-1.583, 1.420e-4
-1.584, 1.451e-4
-1.585, 1.451e-4
-1.586, 1.481e-4
-1.587, 1.512e-4
-1.588, 1.543e-4
-1.589, 1.543e-4
-1.590, 1.574e-4
-1.591, 1.605e-4
-1.592, 1.605e-4
-1.593, 1.636e-4
-1.594, 1.666e-4
-1.595, 1.697e-4
-1.596, 1.697e-4
-1.597, 1.728e-4
-1.598, 1.759e-4
-1.599, 1.790e-4
-1.600, 1.821e-4
-1.601, 1.851e-4
-1.602, 1.851e-4
-1.603, 1.882e-4
-1.604, 1.913e-4
-1.605, 1.944e-4
-1.606, 1.975e-4
-1.607, 2.006e-4
-1.608, 2.036e-4
-1.609, 2.067e-4
-1.610, 2.067e-4
-1.611, 2.098e-4
-1.612, 2.160e-4
-1.613, 2.160e-4
-1.614, 2.221e-4
-1.615, 2.221e-4
-1.616, 2.283e-4
-1.617, 2.314e-4
-1.618, 2.314e-4
-1.619, 2.376e-4
-1.620, 2.406e-4
-1.621, 2.437e-4
-1.622, 2.468e-4
-1.623, 2.530e-4
-1.624, 2.561e-4
-1.625, 2.591e-4
-1.626, 2.622e-4
-1.627, 2.684e-4
-1.628, 2.715e-4
-1.629, 2.746e-4
-1.630, 2.807e-4
-1.631, 2.838e-4
-1.632, 2.900e-4
-1.633, 2.931e-4
-1.634, 2.961e-4
-1.635, 3.023e-4
-1.636, 3.085e-4
-1.637, 3.115e-4
-1.638, 3.177e-4
-1.639, 3.208e-4
-1.640, 3.270e-4
-1.641, 3.300e-4
-1.642, 3.393e-4
-1.643, 3.393e-4
-1.644, 3.455e-4
-1.645, 3.516e-4
-1.646, 3.578e-4
-1.647, 3.640e-4
-1.648, 3.701e-4
-1.649, 3.732e-4
-1.650, 3.794e-4
-1.651, 3.855e-4
-1.652, 3.917e-4
-1.653, 3.979e-4
-1.654, 4.040e-4
-1.655, 4.102e-4
-1.656, 4.164e-4
-1.657, 4.225e-4
-1.658, 4.287e-4
-1.659, 4.380e-4
-1.660, 4.441e-4
-1.661, 4.503e-4
-1.662, 4.565e-4
-1.663, 4.626e-4
-1.664, 4.719e-4
-1.665, 4.780e-4
-1.666, 4.873e-4
-1.667, 4.935e-4
-1.668, 4.996e-4
-1.669, 5.089e-4
-1.670, 5.181e-4
-1.671, 5.274e-4
-1.672, 5.335e-4
-1.673, 5.428e-4
-1.674, 5.489e-4
-1.675, 5.582e-4
-1.676, 5.705e-4
-1.677, 5.767e-4
-1.678, 5.859e-4
-1.679, 5.952e-4
-1.680, 6.044e-4
-1.681, 6.137e-4
-1.682, 6.229e-4
-1.683, 6.322e-4
-1.684, 6.414e-4
-1.685, 6.507e-4
-1.686, 6.630e-4
-1.687, 6.723e-4
-1.688, 6.846e-4
-1.689, 6.969e-4
-1.690, 7.062e-4
-1.691, 7.154e-4
-1.692, 7.278e-4
-1.693, 7.401e-4
-1.694, 7.524e-4
-1.695, 7.617e-4
-1.696, 7.709e-4
-1.697, 7.833e-4
-1.698, 7.956e-4
-1.699, 8.079e-4
-1.700, 8.203e-4
-1.701, 8.326e-4
-1.702, 8.418e-4
-1.703, 8.542e-4
-1.704, 8.665e-4
-1.705, 8.788e-4
-1.706, 8.943e-4
-1.707, 9.066e-4
-1.708, 9.189e-4
-1.709, 9.343e-4
-1.710, 9.498e-4
-1.711, 9.590e-4
-1.712, 9.775e-4
-1.713, 9.929e-4
-1.714, 1.005e-3
-1.715, 1.024e-3
-1.716, 1.039e-3
-1.717, 1.055e-3
-1.718, 1.073e-3
-1.719, 1.085e-3
-1.720, 1.101e-3
-1.721, 1.119e-3
-1.722, 1.135e-3
-1.723, 1.153e-3
-1.724, 1.169e-3
-1.725, 1.187e-3
-1.726, 1.206e-3
-1.727, 1.221e-3
-1.728, 1.243e-3
-1.729, 1.261e-3
-1.730, 1.283e-3
-1.731, 1.304e-3
-1.732, 1.323e-3
-1.733, 1.341e-3
-1.734, 1.363e-3
-1.735, 1.384e-3
-1.736, 1.403e-3
-1.737, 1.428e-3
-1.738, 1.443e-3
-1.739, 1.468e-3
-1.740, 1.486e-3
-1.741, 1.511e-3
-1.742, 1.532e-3
-1.743, 1.557e-3
-1.744, 1.579e-3
-1.745, 1.606e-3
-1.746, 1.625e-3
-1.747, 1.650e-3
-1.748, 1.674e-3
-1.749, 1.702e-3
-1.750, 1.724e-3
-1.751, 1.751e-3
-1.752, 1.779e-3
-1.753, 1.801e-3
-1.754, 1.825e-3
-1.755, 1.853e-3
-1.756, 1.881e-3
-1.757, 1.909e-3
-1.758, 1.939e-3
-1.759, 1.970e-3
-1.760, 1.995e-3
-1.761, 2.026e-3
-1.762, 2.057e-3
-1.763, 2.084e-3
-1.764, 2.115e-3
-1.765, 2.143e-3
-1.766, 2.171e-3
-1.767, 2.208e-3
-1.768, 2.238e-3
-1.769, 2.272e-3
-1.770, 2.306e-3
-1.771, 2.340e-3
-1.772, 2.374e-3
-1.773, 2.411e-3
-1.774, 2.442e-3
-1.775, 2.473e-3
-1.776, 2.510e-3
-1.777, 2.547e-3
-1.778, 2.584e-3
-1.779, 2.621e-3
-1.780, 2.658e-3
-1.781, 2.679e-3
-1.782, 2.704e-3
-1.783, 2.723e-3
-1.784, 2.750e-3
-1.785, 2.778e-3
-1.786, 2.815e-3
-1.787, 2.858e-3
-1.788, 2.895e-3
-1.789, 2.929e-3
-1.790, 2.966e-3
-1.791, 3.009e-3
-1.792, 3.052e-3
-1.793, 3.093e-3
-1.794, 3.133e-3
-1.795, 3.176e-3
-1.796, 3.219e-3
-1.797, 3.259e-3
-1.798, 3.299e-3
-1.799, 3.348e-3
-1.800, 3.373e-3
-1.799, 3.358e-3
-1.798, 3.339e-3
-1.797, 3.321e-3
-1.796, 3.308e-3
-1.795, 3.293e-3
-1.794, 3.271e-3
-1.793, 3.244e-3
-1.792, 3.222e-3
-1.791, 3.191e-3
-1.790, 3.157e-3
-1.789, 3.126e-3
-1.788, 3.102e-3
-1.787, 3.077e-3
-1.786, 3.049e-3
-1.785, 3.025e-3
-1.784, 2.997e-3
-1.783, 2.969e-3
-1.782, 2.945e-3
-1.781, 2.917e-3
-1.780, 2.886e-3
-1.779, 2.858e-3
-1.778, 2.827e-3
-1.777, 2.797e-3
-1.776, 2.772e-3
-1.775, 2.747e-3
-1.774, 2.707e-3
-1.773, 2.682e-3
-1.772, 2.655e-3
-1.771, 2.624e-3
-1.770, 2.596e-3
-1.769, 2.568e-3
-1.768, 2.544e-3
-1.767, 2.519e-3
-1.766, 2.494e-3
-1.765, 2.457e-3
-1.764, 2.436e-3
-1.763, 2.402e-3
-1.762, 2.377e-3
-1.761, 2.353e-3
-1.760, 2.325e-3
-1.759, 2.297e-3
-1.758, 2.272e-3
-1.757, 2.251e-3
-1.756, 2.217e-3
-1.755, 2.192e-3
-1.754, 2.164e-3
-1.753, 2.143e-3
-1.752, 2.118e-3
-1.751, 2.091e-3
-1.750, 2.072e-3
-1.749, 2.044e-3
-1.748, 2.020e-3
-1.747, 1.995e-3
-1.746, 1.970e-3
-1.745, 1.946e-3
-1.744, 1.924e-3
-1.743, 1.902e-3
-1.742, 1.881e-3
-1.741, 1.856e-3
-1.740, 1.832e-3
-1.739, 1.813e-3
-1.738, 1.788e-3
-1.737, 1.770e-3
-1.736, 1.748e-3
-1.735, 1.724e-3
-1.734, 1.705e-3
-1.733, 1.680e-3
-1.732, 1.662e-3
-1.731, 1.640e-3
-1.730, 1.619e-3
-1.729, 1.597e-3
-1.728, 1.573e-3
-1.727, 1.548e-3
-1.726, 1.523e-3
-1.725, 1.502e-3
-1.724, 1.483e-3
-1.723, 1.462e-3
-1.722, 1.443e-3
-1.721, 1.431e-3
-1.720, 1.406e-3
-1.719, 1.391e-3
-1.718, 1.372e-3
-1.717, 1.357e-3
-1.716, 1.338e-3
-1.715, 1.323e-3
-1.714, 1.304e-3
-1.713, 1.292e-3
-1.712, 1.273e-3
-1.711, 1.258e-3
-1.710, 1.240e-3
-1.709, 1.227e-3
-1.708, 1.209e-3
-1.707, 1.190e-3
-1.706, 1.181e-3
-1.705, 1.162e-3
-1.704, 1.150e-3
-1.703, 1.132e-3
-1.702, 1.119e-3
-1.701, 1.107e-3
-1.700, 1.092e-3
-1.699, 1.076e-3
-1.698, 1.064e-3
-1.697, 1.048e-3
-1.696, 1.033e-3
-1.695, 1.021e-3
-1.694, 1.005e-3
-1.693, 9.898e-4
-1.692, 9.806e-4
-1.691, 9.683e-4
-1.690, 9.528e-4
-1.689, 9.436e-4
-1.688, 9.282e-4
-1.687, 9.128e-4
-1.686, 9.035e-4
-1.685, 8.881e-4
-1.684, 8.788e-4
-1.683, 8.665e-4
-1.682, 8.542e-4
-1.681, 8.418e-4
-1.680, 8.326e-4
-1.679, 8.203e-4
-1.678, 8.079e-4
-1.677, 7.987e-4
-1.676, 7.863e-4
-1.675, 7.740e-4
-1.674, 7.648e-4
-1.673, 7.494e-4
-1.672, 7.432e-4
-1.671, 7.339e-4
-1.670, 7.216e-4
-1.669, 7.124e-4
-1.668, 7.000e-4
-1.667, 6.908e-4
-1.666, 6.815e-4
-1.665, 6.723e-4
-1.664, 6.630e-4
-1.663, 6.538e-4
-1.662, 6.445e-4
-1.661, 6.353e-4
-1.660, 6.260e-4
-1.659, 6.199e-4
-1.658, 6.075e-4
-1.657, 5.983e-4
-1.656, 5.921e-4
-1.655, 5.829e-4
-1.654, 5.767e-4
-1.653, 5.705e-4
-1.652, 5.582e-4
-1.651, 5.520e-4
-1.650, 5.459e-4
-1.649, 5.366e-4
-1.648, 5.305e-4
-1.647, 5.212e-4
-1.646, 5.150e-4
-1.645, 5.027e-4
-1.644, 4.965e-4
-1.643, 4.904e-4
-1.642, 4.811e-4
-1.641, 4.750e-4
-1.640, 4.657e-4
-1.639, 4.595e-4
-1.638, 4.534e-4
-1.637, 4.441e-4
-1.636, 4.380e-4
-1.635, 4.349e-4
-1.634, 4.256e-4
-1.633, 4.195e-4
-1.632, 4.164e-4
-1.631, 4.071e-4
-1.630, 4.040e-4
-1.629, 3.979e-4
-1.628, 3.917e-4
-1.627, 3.855e-4
-1.626, 3.794e-4
-1.625, 3.732e-4
-1.624, 3.670e-4
-1.623, 3.609e-4
-1.622, 3.578e-4
-1.621, 3.516e-4
-1.620, 3.455e-4
-1.619, 3.424e-4
-1.618, 3.362e-4
-1.617, 3.300e-4
-1.616, 3.270e-4
-1.615, 3.208e-4
-1.614, 3.177e-4
-1.613, 3.115e-4
-1.612, 3.054e-4
-1.611, 3.023e-4
-1.610, 2.961e-4
-1.609, 2.931e-4
-1.608, 2.869e-4
-1.607, 2.838e-4
-1.606, 2.776e-4
-1.605, 2.746e-4
-1.604, 2.715e-4
-1.603, 2.653e-4
-1.602, 2.622e-4
-1.601, 2.591e-4
-1.600, 2.530e-4
-1.599, 2.530e-4
-1.598, 2.468e-4
-1.597, 2.437e-4
-1.596, 2.406e-4
-1.595, 2.345e-4
-1.594, 2.314e-4
-1.593, 2.283e-4
-1.592, 2.252e-4
-1.591, 2.221e-4
-1.590, 2.191e-4
-1.589, 2.129e-4
-1.588, 2.098e-4
-1.587, 2.067e-4
-1.586, 2.036e-4
-1.585, 2.006e-4
-1.584, 1.975e-4
-1.583, 1.944e-4
-1.582, 1.913e-4
-1.581, 1.882e-4
-1.580, 1.851e-4
-1.579, 1.821e-4
-1.578, 1.790e-4
-1.577, 1.759e-4
-1.576, 1.728e-4
-1.575, 1.697e-4
-1.574, 1.666e-4
-1.573, 1.636e-4
-1.572, 1.636e-4
-1.571, 1.574e-4
-1.570, 1.574e-4
-1.569, 1.543e-4
-1.568, 1.512e-4
-1.567, 1.481e-4
-1.566, 1.451e-4
-1.565, 1.451e-4
-1.564, 1.420e-4
-1.563, 1.389e-4
-1.562, 1.389e-4
-1.561, 1.358e-4
-1.560, 1.327e-4
-1.559, 1.296e-4
-1.558, 1.266e-4
-1.557, 1.266e-4
-1.556, 1.235e-4
-1.555, 1.204e-4
-1.554, 1.204e-4
-1.553, 1.173e-4
-1.552, 1.142e-4
-1.551, 1.142e-4
-1.550, 1.111e-4
-1.549, 1.111e-4
-1.548, 1.081e-4
-1.547, 1.050e-4
-1.546, 1.050e-4
-1.545, 1.019e-4
-1.544, 9.882e-5
-1.543, 9.882e-5
-1.542, 9.573e-5
-1.541, 9.573e-5
-1.540, 9.265e-5
-1.539, 9.265e-5
-1.538, 8.957e-5
-1.537, 8.957e-5
-1.536, 8.648e-5
-1.535, 8.648e-5
-1.534, 8.340e-5
-1.533, 8.340e-5
-1.532, 8.032e-5
-1.531, 8.032e-5
-1.530, 7.723e-5
-1.529, 7.723e-5
-1.528, 7.723e-5
-1.527, 7.415e-5
-1.526, 7.415e-5
-1.525, 7.107e-5
-1.524, 7.107e-5
-1.523, 6.798e-5
-1.522, 6.798e-5
-1.521, 6.490e-5
-1.520, 6.490e-5
-1.519, 6.490e-5
-1.518, 6.182e-5
-1.517, 6.182e-5
-1.516, 6.182e-5
-1.515, 5.873e-5
-1.514, 5.873e-5
-1.513, 5.873e-5
-1.512, 5.565e-5
-1.511, 5.565e-5
-1.510, 5.257e-5
-1.509, 5.257e-5
-1.508, 5.257e-5
-1.507, 4.949e-5
-1.506, 4.949e-5
-1.505, 4.949e-5
-1.504, 4.640e-5
-1.503, 4.640e-5
-1.502, 4.640e-5
-1.501, 4.640e-5
-1.500, 4.332e-5
-1.499, 4.332e-5
-1.498, 4.332e-5
-1.497, 4.024e-5
-1.496, 4.024e-5
-1.495, 4.024e-5
-1.494, 4.024e-5
-1.493, 4.024e-5
-1.492, 3.715e-5
-1.491, 3.715e-5
-1.490, 3.715e-5
-1.489, 3.407e-5
-1.488, 3.407e-5
-1.487, 3.407e-5
-1.486, 3.407e-5
-1.485, 3.407e-5
-1.484, 3.099e-5
-1.483, 3.099e-5
-1.482, 2.790e-5
-1.481, 3.099e-5
-1.480, 2.790e-5
-1.479, 2.790e-5
-1.478, 2.790e-5
-1.477, 2.790e-5
-1.476, 2.482e-5
-1.475, 2.482e-5
-1.474, 2.482e-5
-1.473, 2.482e-5
-1.472, 2.482e-5
-1.471, 2.174e-5
-1.470, 2.174e-5
-1.469, 2.174e-5
-1.468, 2.174e-5
-1.467, 2.174e-5
-1.466, 2.174e-5
-1.465, 1.865e-5
-1.464, 1.865e-5
-1.463, 1.865e-5
-1.462, 1.865e-5
-1.461, 1.865e-5
-1.460, 1.865e-5
-1.459, 1.865e-5
-1.458, 1.865e-5
-1.457, 1.557e-5
-1.456, 1.557e-5
-1.455, 1.557e-5
-1.454, 1.557e-5
-1.453, 1.249e-5
-1.452, 1.557e-5
-1.451, 1.249e-5
-1.450, 1.249e-5
-1.449, 1.249e-5
-1.448, 1.249e-5
-1.447, 1.249e-5
-1.446, 1.249e-5
-1.445, 9.405e-6
-1.444, 1.249e-5
-1.443, 9.405e-6
-1.442, 9.405e-6
-1.441, 9.405e-6
-1.440, 9.405e-6
-1.439, 9.405e-6
-1.438, 9.405e-6
-1.437, 9.405e-6
-1.436, 9.405e-6
-1.435, 9.405e-6
-1.434, 9.405e-6
-1.433, 6.322e-6
-1.432, 6.322e-6
-1.431, 9.405e-6
-1.430, 6.322e-6
-1.429, 6.322e-6
-1.428, 6.322e-6
-1.427, 6.322e-6
-1.426, 6.322e-6
-1.425, 6.322e-6
-1.424, 6.322e-6
-1.423, 6.322e-6
-1.422, 3.239e-6
-1.421, 3.239e-6
-1.420, 6.322e-6
-1.419, 3.239e-6
-1.418, 3.239e-6
-1.417, 3.239e-6
-1.416, 3.239e-6
-1.415, 3.239e-6
-1.414, 3.239e-6
-1.413, 3.239e-6
-1.412, 1.559e-7
-1.411, 3.239e-6
-1.410, 3.239e-6
-1.409, 3.239e-6
-1.408, 1.559e-7
-1.407, 1.559e-7
-1.406, 1.559e-7
-1.405, 3.239e-6
-1.404, 1.559e-7
-1.403, 1.559e-7
-1.402, 1.559e-7
-1.401, 1.559e-7
-1.400, 1.559e-7
-1.399, 1.559e-7
-1.398, 1.559e-7
-1.397, 1.559e-7
-1.396, 1.559e-7
-1.395, -2.927e-6
-1.394, 1.559e-7
-1.393, -2.927e-6
-1.392, 1.559e-7
-1.391, -2.927e-6
-1.390, -2.927e-6
-1.389, 1.559e-7
-1.388, -2.927e-6
-1.387, -2.927e-6
-1.386, -2.927e-6
-1.385, -2.927e-6
-1.384, -2.927e-6
-1.383, -2.927e-6
-1.382, -2.927e-6
-1.381, -2.927e-6
-1.380, -2.927e-6
-1.379, -2.927e-6
-1.378, -2.927e-6
-1.377, -2.927e-6
-1.376, -2.927e-6
-1.375, -2.927e-6
-1.374, -2.927e-6
-1.373, -2.927e-6
-1.372, -2.927e-6
-1.371, -2.927e-6
-1.370, -2.927e-6
-1.369, -2.927e-6
-1.368, -2.927e-6
-1.367, -2.927e-6
-1.366, -2.927e-6
-1.365, -2.927e-6
-1.364, -2.927e-6
-1.363, -2.927e-6
-1.362, -2.927e-6
-1.361, -2.927e-6
-1.360, -6.010e-6
-1.359, -2.927e-6
-1.358, -6.010e-6
-1.357, -6.010e-6
-1.356, -6.010e-6
-1.355, -6.010e-6
-1.354, -6.010e-6
-1.353, -6.010e-6
-1.352, -6.010e-6
-1.351, -6.010e-6
-1.350, -6.010e-6
-1.349, -6.010e-6
-1.348, -6.010e-6
-1.347, -6.010e-6
-1.346, -6.010e-6
-1.345, -6.010e-6
-1.344, -6.010e-6
-1.343, -6.010e-6
-1.342, -6.010e-6
-1.341, -6.010e-6
-1.340, -6.010e-6
-1.339, -6.010e-6
-1.338, -6.010e-6
-1.337, -6.010e-6
-1.336, -6.010e-6
-1.335, -6.010e-6
-1.334, -6.010e-6
-1.333, -6.010e-6
-1.332, -6.010e-6
-1.331, -6.010e-6
-1.330, -6.010e-6
-1.329, -6.010e-6
-1.328, -6.010e-6
-1.327, -6.010e-6
-1.326, -6.010e-6
-1.325, -6.010e-6
-1.324, -6.010e-6
-1.323, -6.010e-6
-1.322, -6.010e-6
-1.321, -6.010e-6
-1.320, -6.010e-6
-1.319, -6.010e-6
-1.318, -6.010e-6
-1.317, -6.010e-6
-1.316, -6.010e-6
-1.315, -6.010e-6
-1.314, -6.010e-6
-1.313, -6.010e-6
-1.312, -6.010e-6
-1.311, -6.010e-6
-1.310, -6.010e-6
-1.309, -6.010e-6
-1.308, -6.010e-6
-1.307, -9.093e-6
-1.306, -6.010e-6
-1.305, -9.093e-6
-1.304, -9.093e-6
-1.303, -9.093e-6
-1.302, -6.010e-6
-1.301, -6.010e-6
-1.300, -9.093e-6
-1.299, -9.093e-6
-1.298, -9.093e-6
-1.297, -9.093e-6
-1.296, -9.093e-6
-1.295, -9.093e-6
-1.294, -9.093e-6
-1.293, -9.093e-6
-1.292, -9.093e-6
-1.291, -9.093e-6
-1.290, -9.093e-6
-1.289, -6.010e-6
-1.288, -9.093e-6
-1.287, -6.010e-6
-1.286, -9.093e-6
-1.285, -9.093e-6
-1.284, -9.093e-6
-1.283, -9.093e-6
-1.282, -9.093e-6
-1.281, -9.093e-6
-1.280, -9.093e-6
-1.279, -9.093e-6
-1.278, -9.093e-6
-1.277, -9.093e-6
-1.276, -9.093e-6
-1.275, -9.093e-6
-1.274, -9.093e-6
-1.273, -9.093e-6
-1.272, -6.010e-6
-1.271, -9.093e-6
-1.270, -9.093e-6
-1.269, -9.093e-6
-1.268, -9.093e-6
-1.267, -9.093e-6
-1.266, -9.093e-6
-1.265, -9.093e-6
-1.264, -9.093e-6
-1.263, -9.093e-6
-1.262, -9.093e-6
-1.261, -9.093e-6
-1.260, -9.093e-6
-1.259, -9.093e-6
-1.258, -9.093e-6
-1.257, -9.093e-6
-1.256, -9.093e-6
-1.255, -9.093e-6
-1.254, -9.093e-6
-1.253, -9.093e-6
-1.252, -9.093e-6
-1.251, -9.093e-6
-1.250, -9.093e-6
-1.249, -9.093e-6
-1.248, -9.093e-6
-1.247, -9.093e-6
-1.246, -9.093e-6
-1.245, -9.093e-6
-1.244, -9.093e-6
-1.243, -9.093e-6
-1.242, -9.093e-6
-1.241, -9.093e-6
-1.240, -9.093e-6
-1.239, -9.093e-6
-1.238, -9.093e-6
-1.237, -9.093e-6
-1.236, -9.093e-6
-1.235, -9.093e-6
-1.234, -9.093e-6
-1.233, -9.093e-6
-1.232, -9.093e-6
-1.231, -9.093e-6
-1.230, -9.093e-6
-1.229, -9.093e-6
-1.228, -9.093e-6
-1.227, -9.093e-6
-1.226, -9.093e-6
-1.225, -9.093e-6
-1.224, -9.093e-6
-1.223, -9.093e-6
-1.222, -9.093e-6
-1.221, -9.093e-6
-1.220, -9.093e-6
-1.219, -9.093e-6
-1.218, -9.093e-6
-1.217, -9.093e-6
-1.216, -9.093e-6
-1.215, -9.093e-6
-1.214, -9.093e-6
-1.213, -9.093e-6
-1.212, -9.093e-6
-1.211, -9.093e-6
-1.210, -9.093e-6
-1.209, -9.093e-6
-1.208, -9.093e-6
-1.207, -9.093e-6
-1.206, -9.093e-6
-1.205, -9.093e-6
-1.204, -9.093e-6
-1.203, -9.093e-6
-1.202, -1.218e-5
-1.201, -9.093e-6
-1.200, -9.093e-6
-1.199, -9.093e-6
-1.198, -9.093e-6
-1.197, -9.093e-6
-1.196, -9.093e-6
-1.195, -9.093e-6
-1.194, -9.093e-6
-1.193, -1.218e-5
-1.192, -9.093e-6
-1.191, -9.093e-6
-1.190, -9.093e-6
-1.189, -9.093e-6
-1.188, -9.093e-6
-1.187, -9.093e-6
-1.186, -9.093e-6
-1.185, -9.093e-6
-1.184, -9.093e-6
-1.183, -1.218e-5
-1.182, -9.093e-6
-1.181, -9.093e-6
-1.180, -9.093e-6
-1.179, -9.093e-6
-1.178, -1.218e-5
-1.177, -9.093e-6
-1.176, -9.093e-6
-1.175, -9.093e-6
-1.174, -9.093e-6
-1.173, -9.093e-6
-1.172, -1.218e-5
-1.171, -1.218e-5
-1.170, -1.218e-5
-1.169, -9.093e-6
-1.168, -1.218e-5
-1.167, -1.218e-5
-1.166, -1.218e-5
-1.165, -1.218e-5
-1.164, -9.093e-6
-1.163, -1.218e-5
-1.162, -9.093e-6
-1.161, -1.218e-5
-1.160, -9.093e-6
-1.159, -9.093e-6
-1.158, -9.093e-6
-1.157, -1.218e-5
-1.156, -9.093e-6
-1.155, -9.093e-6
-1.154, -9.093e-6
-1.153, -9.093e-6
-1.152, -9.093e-6
-1.151, -9.093e-6
-1.150, -1.218e-5
-1.149, -9.093e-6
-1.148, -1.218e-5
-1.147, -1.218e-5
-1.146, -1.218e-5
-1.145, -1.218e-5
-1.144, -1.218e-5
-1.143, -1.218e-5
-1.142, -1.218e-5
-1.141, -1.218e-5
-1.140, -1.218e-5
-1.139, -1.218e-5
-1.138, -1.218e-5
-1.137, -1.218e-5
-1.136, -1.218e-5
-1.135, -1.218e-5
-1.134, -9.093e-6
-1.133, -1.218e-5
-1.132, -1.218e-5
-1.131, -1.218e-5
-1.130, -1.218e-5
-1.129, -1.218e-5
-1.128, -1.218e-5
-1.127, -1.218e-5
-1.126, -1.218e-5
-1.125, -1.218e-5
-1.124, -1.218e-5
-1.123, -1.218e-5
-1.122, -1.218e-5
-1.121, -1.218e-5
-1.120, -1.218e-5
-1.119, -1.218e-5
-1.118, -1.218e-5
-1.117, -1.218e-5
-1.116, -1.218e-5
-1.115, -1.218e-5
-1.114, -1.218e-5
-1.113, -1.218e-5
-1.112, -1.218e-5
-1.111, -1.218e-5
-1.110, -1.218e-5
-1.109, -1.218e-5
-1.108, -1.218e-5
-1.107, -1.218e-5
-1.106, -1.218e-5
-1.105, -1.218e-5
-1.104, -1.218e-5
-1.103, -1.218e-5
-1.102, -1.218e-5
-1.101, -1.218e-5
-1.100, -1.218e-5
-1.099, -1.218e-5
-1.098, -1.218e-5
-1.097, -1.218e-5
-1.096, -1.218e-5
-1.095, -1.218e-5
-1.094, -1.218e-5
-1.093, -1.218e-5
-1.092, -1.218e-5
-1.091, -1.218e-5
-1.090, -1.218e-5
-1.089, -1.218e-5
-1.088, -1.218e-5
-1.087, -1.218e-5
-1.086, -1.218e-5
-1.085, -1.218e-5
-1.084, -1.218e-5
-1.083, -1.218e-5
-1.082, -1.218e-5
-1.081, -1.218e-5
-1.080, -1.218e-5
-1.079, -1.218e-5
-1.078, -1.218e-5
-1.077, -1.218e-5
-1.076, -1.218e-5
-1.075, -1.218e-5
-1.074, -1.218e-5
-1.073, -1.218e-5
-1.072, -1.218e-5
-1.071, -1.526e-5
-1.070, -1.218e-5
-1.069, -1.218e-5
-1.068, -1.218e-5
-1.067, -1.526e-5
-1.066, -1.526e-5
-1.065, -1.218e-5
-1.064, -1.218e-5
-1.063, -1.218e-5
-1.062, -1.526e-5
-1.061, -1.526e-5
-1.060, -1.526e-5
-1.059, -1.526e-5
-1.058, -1.526e-5
-1.057, -1.526e-5
-1.056, -1.218e-5
-1.055, -1.526e-5
-1.054, -1.526e-5
-1.053, -1.526e-5
-1.052, -1.526e-5
-1.051, -1.526e-5
-1.050, -1.526e-5
-1.049, -1.526e-5
-1.048, -1.526e-5
-1.047, -1.526e-5
-1.046, -1.526e-5
-1.045, -1.526e-5
-1.044, -1.526e-5
-1.043, -1.526e-5
-1.042, -1.526e-5
-1.041, -1.526e-5
-1.040, -1.526e-5
-1.039, -1.526e-5
-1.038, -1.526e-5
-1.037, -1.526e-5
-1.036, -1.526e-5
-1.035, -1.526e-5
-1.034, -1.526e-5
-1.033, -1.526e-5
-1.032, -1.526e-5
-1.031, -1.526e-5
-1.030, -1.526e-5
-1.029, -1.526e-5
-1.028, -1.526e-5
-1.027, -1.834e-5
-1.026, -1.526e-5
-1.025, -1.526e-5
-1.024, -1.526e-5
-1.023, -1.834e-5
-1.022, -1.834e-5
-1.021, -1.526e-5
-1.020, -1.834e-5
-1.019, -1.526e-5
-1.018, -1.834e-5
-1.017, -1.834e-5
-1.016, -1.834e-5
-1.015, -1.834e-5
-1.014, -1.834e-5
-1.013, -1.834e-5
-1.012, -1.834e-5
-1.011, -1.834e-5
-1.010, -1.834e-5
-1.009, -1.834e-5
-1.008, -1.834e-5
-1.007, -1.834e-5
-1.006, -1.834e-5
-1.005, -1.834e-5
-1.004, -1.834e-5
-1.003, -1.834e-5
-1.002, -1.834e-5
-1.001, -1.834e-5
