Potential V vs RHE, Current mA cm-2
0.013299999999999867,13.431269080918659
0.012299999999999978,11.992507688955916
0.011299999999999866,10.727755786876573
0.010299999999999976,9.549301274088998
0.009299999999999864,8.416117522897103
0.008299999999999974,7.413087211292793
0.007299999999999862,6.410056899688482
0.006299999999999972,5.581036077967569
0.00529999999999986,4.795871306542475
0.0042999999999999705,4.01070653511738
0.0032999999999998586,3.2693978139880997
0.0022999999999999687,2.5705304318547717
0.0012999999999998568,1.8730777610213083
0.00029999999999996696,1.175483619057859
-0.000700000000000145,0.43403342679859325
-0.0017000000000000348,-0.30755823659065895
-0.0027000000000001467,-1.0925815368857679
-0.0037000000000000366,-1.8334658446250875
-0.0047000000000001485,-2.576189277054232
-0.005700000000000038,-3.317497998183511
-0.00670000000000015,-4.014950669016974
-0.00770000000000004,-4.712403339850438
-0.008700000000000152,-5.367414671687949
-0.009700000000000042,-5.9347139029338285
-0.010700000000000154,-6.500598422879844
-0.011700000000000044,-7.067897654125724
-0.012700000000000156,-7.591340835075788
-0.013700000000000045,-8.158640066321666
-0.014700000000000157,-8.725939297567548
-0.015700000000000047,-9.335679867809377
-0.01670000000000016,-9.946835149351072
-0.01770000000000005,-10.601846481188586
-0.01870000000000016,-11.299299152022046
-0.01970000000000005,-11.952895772559694
-0.020700000000000163,-12.607907104397206
-0.021700000000000053,-13.261503724934855
-0.022700000000000164,-13.872659006476551
-0.023700000000000054,-14.444202371622024
-0.024700000000000166,-14.967645552572087
-0.025700000000000056,-15.491088733522153
-0.026700000000000168,-15.972090575476265
-0.027700000000000058,-16.438945304431726
-0.02870000000000017,-16.962388485381787
-0.02970000000000006,-17.4433903273359
-0.03070000000000017,-18.009274847281915
-0.03170000000000006,-18.589306480226583
-0.03270000000000017,-19.197632339168546
-0.03370000000000006,-19.848399537106463
-0.034700000000000175,-20.456725396048434
-0.035700000000000065,-21.107492593986347
-0.03670000000000018,-21.772406904922917
-0.03770000000000007,-22.33829142486893
-0.03870000000000018,-22.904175944814945
-0.03970000000000007,-23.427619125765005
-0.04070000000000018,-23.908620967719123
-0.04170000000000007,-24.389622809673234
-0.04270000000000018,-24.814036199632742
-0.04370000000000007,-25.337479380582806
-0.044700000000000184,-25.81848122253692
-0.045700000000000074,-26.29948306449103
-0.046700000000000186,-26.86536758443705
-0.047700000000000076,-27.38881076538711
-0.04870000000000019,-28.05372507632368
-0.04970000000000008,-28.662050935265643
-0.05070000000000019,-29.31281813320356
-0.05170000000000008,-29.878702653149578
-0.05270000000000019,-30.487028512091538
-0.05370000000000008,-31.010471693041605
-0.05470000000000019,-31.533914873991666
-0.05570000000000008,-32.05735805494172
-0.056700000000000195,-32.53835989689585
-0.057700000000000085,-32.97692039985401
-0.058700000000000196,-33.45792224180811
-0.059700000000000086,-33.98136542275818
-0.0607000000000002,-34.5472499427042
-0.06170000000000009,-35.11313446265021
-0.0627000000000002,-35.763901660588125
-0.06370000000000009,-36.37222751953009
-0.0647000000000002,-37.037141830466666
-0.06570000000000009,-37.687909028404576
-0.0667000000000002,-38.253793548350586
-0.0677000000000001,-38.86211940729255
-0.0687000000000002,-39.38556258824262
-0.0697000000000001,-39.86656443019674
-0.07070000000000021,-40.34756627215084
-0.0717000000000001,-40.828568114104954
-0.07270000000000021,-41.267128617063115
-0.0737000000000001,-41.74813045901723
-0.07470000000000021,-42.2715736399673
-0.0757000000000001,-42.79501682091736
-0.07670000000000021,-43.36090134086337
-0.0777000000000001,-44.011668538801295
-0.07870000000000021,-44.619994397743255
-0.0797000000000001,-45.32735004767578
-0.08070000000000022,-45.93567590661774
-0.0817000000000001,-46.544001765559706
-0.08270000000000022,-47.15232762450167
-0.08370000000000011,-47.67577080545174
-0.08470000000000022,-48.1992139864018
-0.08570000000000011,-48.72265716735186
-0.08670000000000022,-49.24610034830193
-0.08770000000000011,-49.68466085126009
-0.08870000000000022,-50.2505453712061
-0.08970000000000011,-50.77398855215617
-0.09070000000000022,-51.38231441109813
-0.09170000000000011,-51.990640270040096
-0.09270000000000023,-52.64140746797801
-0.09370000000000012,-53.348763117910536
-0.09470000000000023,-53.999530315848446
-0.09570000000000012,-54.73518019177827
-0.09670000000000023,-55.400094502714836
-0.09770000000000012,-56.05086170065276
-0.09870000000000023,-56.70162889859067
-0.09970000000000012,-57.26751341853669
-0.10070000000000023,-57.87583927747865
-0.10170000000000012,-58.45587091042332
-0.10270000000000024,-58.97931409137338
-0.10370000000000013,-59.587639950315335
-0.10470000000000024,-60.19596580925731
-0.10570000000000013,-60.80429166819927
-0.10670000000000024,-61.455058866137186
-0.10770000000000013,-62.16241451606972
-0.10870000000000024,-62.81318171400764
-0.10970000000000013,-63.54883158993744
-0.11070000000000024,-64.25618723986996
-0.11170000000000013,-64.90695443780788
-0.11270000000000002,-65.5577216357458
-0.11370000000000013,-66.16604749468777
-0.11470000000000002,-66.68949067563783
-0.11570000000000014,-67.21293385658788
-0.11670000000000003,-67.73637703753796
-0.11770000000000014,-68.21737887949207
-0.11870000000000003,-68.74082206044213
-0.11970000000000014,-69.26426524139221
-0.12070000000000003,-69.87259110033416
-0.12170000000000014,-70.48091695927613
-0.12270000000000003,-71.1458312702127
-0.12370000000000014,-71.7965984681506
-0.12470000000000003,-72.48980700508447
-0.12570000000000014,-73.197162655017
-0.12670000000000003,-73.8479298529549
-0.12770000000000015,-74.49869705089283
-0.12870000000000004,-75.14946424883075
-0.12970000000000015,-75.81437855976732
-0.13070000000000004,-76.42270441870929
-0.13170000000000015,-76.98858893865528
-0.13270000000000004,-77.46959078060941
-0.13370000000000015,-78.03547530055542
-0.13470000000000004,-78.60135982050144
-0.13570000000000015,-79.16724434044745
-0.13670000000000004,-79.7755701993894
-0.13770000000000016,-80.38389605833139
-0.13870000000000005,-81.09125170826391
-0.13970000000000016,-81.78446024519776
-0.14070000000000005,-82.52011012112759
-0.14170000000000016,-83.14258309306821
-0.14270000000000005,-83.79335029100612
-0.14370000000000016,-84.35923481095215
-0.14470000000000005,-84.92511933089816
-0.14570000000000016,-85.49100385084417
-0.14670000000000005,-86.01444703179425
-0.14770000000000016,-86.49544887374834
-0.14870000000000005,-87.10377473269031
-0.14970000000000017,-87.66965925263632
-0.15070000000000006,-88.32042645057423
-0.15170000000000017,-89.02778210050676
-0.15270000000000006,-89.76343197643658
-0.15370000000000017,-90.51322896536506
-0.15470000000000006,-91.20643750229891
-0.15570000000000017,-91.89964603923279
-0.15670000000000006,-92.56456035016936
-0.15770000000000017,-93.17288620911131
-0.15870000000000006,-93.78121206805329
-0.15970000000000018,-94.30465524900335
-0.16070000000000007,-94.87053976894937
-0.16170000000000018,-95.39398294989942
-0.16270000000000007,-95.87498479185354
-0.16370000000000018,-96.4833106507955
-0.16470000000000007,-97.09163650973747
-0.16570000000000018,-97.74240370767538
-0.16670000000000007,-98.49220069660386
-0.16770000000000018,-99.18540923353773
-0.16870000000000007,-99.97764756146215
-0.16970000000000018,-100.79818011538387
-0.17070000000000007,-101.59041844330828
-0.17170000000000019,-102.3260683192381
-0.17270000000000008,-103.07586530816658
-0.1737000000000002,-103.7266325061045
-0.17470000000000008,-104.33495836504645
-0.1757000000000002,-104.94328422398843
-0.17670000000000008,-105.50916874393444
-0.1777000000000002,-106.0326119248845
-0.17870000000000008,-106.59849644483052
-0.1797000000000002,-107.20682230377247
-0.18070000000000008,-107.8292952757131
-0.1817000000000002,-108.48006247365102
-0.18270000000000008,-109.21571234958083
-0.1837000000000002,-109.92306799951335
-0.1847000000000001,-110.65871787544317
-0.1857000000000002,-111.4509562033676
-0.1867000000000001,-112.14416474030146
-0.1877000000000002,-112.92225595522721
-0.1887000000000001,-113.58717026616378
-0.1897000000000002,-114.28037880309766
-0.1907000000000001,-114.93114600103557
-0.1917000000000001,-115.53947185997755
-0.19269999999999998,-116.20438617091412
-0.1937000000000001,-116.85515336885203
-0.19469999999999998,-117.50592056678994
-0.1957000000000001,-118.1991291037238
-0.19669999999999999,-118.99136743164823
-0.1977000000000001,-119.769458646574
-0.1987,-120.60413831349437
-0.1997000000000001,-121.38222952842017
-0.2007,-122.17446785634456
-0.2017000000000001,-122.91011773227437
-0.2027,-123.6174733822069
-0.2037000000000001,-124.26824058014482
-0.2047,-124.7916837610949
-0.2057000000000001,-125.31512694204494
-0.2067,-125.88101146199097
-0.2077000000000001,-126.3195719649491
-0.2087,-126.88545648489513
-0.2097000000000001,-127.4088996658452
-0.2107,-128.01722552478716
-0.2117000000000001,-128.62555138372915
-0.2127,-129.27631858166706
-0.2137000000000001,-130.02611557059552
-0.2147,-130.76176544652535
-0.2157000000000001,-131.55400377444977
-0.2167,-132.24721231138363
-0.21770000000000012,-132.99700930031207
-0.2187,-133.60533515925405
-0.21970000000000012,-134.21366101819604
-0.2207,-134.77954553814206
-0.22170000000000012,-135.34543005808808
-0.2227,-135.82643190004217
-0.22370000000000012,-136.43475775898415
-0.2247,-137.00064227893017
-0.22570000000000012,-137.56652679887617
-0.2267,-138.27388244880868
-0.22770000000000012,-138.96709098574257
-0.22870000000000001,-139.70274086167237
-0.22970000000000013,-140.45253785060083
-0.23070000000000002,-141.2306290655266
-0.23170000000000013,-142.03701450644968
-0.23270000000000002,-142.7443701563822
-0.23370000000000013,-143.4517258063147
-0.23470000000000002,-144.15908145624724
-0.23570000000000013,-144.72496597619326
-0.23670000000000002,-145.43232162612577
-0.2376999999999999,-145.9982061460718
-0.23870000000000002,-146.5640906660178
-0.2396999999999999,-147.1299751859638
-0.24070000000000003,-147.83733083589632
-0.24169999999999991,-148.54468648582886
-0.24270000000000003,-149.1105710057749
-0.24369999999999992,-149.8179266557074
-0.24470000000000003,-150.5252823056399
-0.24569999999999992,-151.23263795557244
-0.24670000000000003,-151.93999360550492
-0.24769999999999992,-152.64734925543743
-0.24870000000000003,-153.21323377538346
-0.24969999999999992,-153.77911829532948
-0.25070000000000003,-154.3450028152755
-0.2516999999999999,-154.76941620523502
-0.25270000000000004,-155.19382959519453
-0.2536999999999999,-155.75971411514055
-0.25470000000000004,-156.32559863508658
-0.2556999999999999,-156.75001202504606
-0.25670000000000004,-157.31589654499206
-0.25769999999999993,-158.02325219492457
-0.25870000000000004,-158.73060784485713
-0.25969999999999993,-159.43796349478964
-0.26070000000000004,-160.14531914472215
-0.26169999999999993,-160.8526747946547
-0.26270000000000004,-161.5600304445872
-0.26369999999999993,-162.12591496453322
-0.26470000000000005,-162.6917994844792
-0.26569999999999994,-163.25768400442522
-0.26670000000000005,-163.82356852437124
-0.26769999999999994,-164.24798191433075
-0.26870000000000005,-164.81386643427678
-0.26969999999999994,-165.3797509542228
-0.27070000000000005,-165.94563547416882
-0.27169999999999994,-166.51151999411482
-0.27270000000000005,-167.21887564404733
-0.27369999999999994,-167.92623129397984
-0.27470000000000006,-168.49211581392586
-0.27569999999999995,-169.19947146385837
-0.27670000000000006,-169.7653559838044
-0.27769999999999995,-170.33124050375042
-0.27870000000000006,-170.89712502369645
-0.27969999999999995,-171.32153841365593
-0.28070000000000006,-171.88742293360195
-0.28169999999999995,-172.31183632356147
-0.28270000000000006,-172.73624971352098
-0.28369999999999995,-173.16066310348046
-0.28470000000000006,-173.58507649344
-0.28569999999999995,-174.0094898833995
-0.28670000000000007,-174.71684553333202
-0.28769999999999996,-175.28273005327804
-0.28870000000000007,-175.84861457322407
-0.28969999999999996,-176.4144990931701
-0.29070000000000007,-176.98038361311612
-0.29169999999999996,-177.54626813306209
-0.29270000000000007,-177.9706815230216
-0.29369999999999996,-178.53656604296762
-0.2947000000000001,-178.96097943292713
-0.29569999999999996,-179.38539282288664
-0.2967000000000001,-179.80980621284618
-0.29769999999999996,-180.23421960280567
-0.2987000000000001,-180.65863299276518
-0.29969999999999997,-181.08304638272472
-0.3007000000000001,-181.64893090267074
-0.30169999999999997,-182.21481542261674
-0.3027000000000001,-182.78069994256273
-0.30369999999999997,-183.34658446250873
-0.3047000000000001,-184.05394011244127
-0.30569999999999997,-184.6198246323873
-0.3067000000000001,-185.1857091523333
-0.3077,-185.7515936722793
-0.3087000000000001,-186.17600706223882
-0.3097,-186.60042045219836
-0.3107000000000001,-186.88336271217133
-0.3117,-187.16630497214436
-0.3127000000000001,-187.44924723211736
-0.3137,-187.73218949209036
-0.3147000000000001,-188.01513175206335
-0.3157,-188.4395451420229
-0.3167000000000001,-188.72248740199586
-0.3177,-189.1469007919554
-0.3187000000000001,-189.71278531190143
-0.3197,-190.13719870186094
-0.3207000000000001,-190.56161209182042
-0.3217,-190.98602548177996
-0.3227000000000001,-191.41043887173947
-0.3237,-191.69338113171247
-0.3247000000000001,-192.11779452167198
-0.3257,-192.40073678164498
-0.3267000000000001,-192.82515017160452
-0.3277,-193.249563561564
-0.3287000000000001,-193.6739769515235
-0.3297,-193.9569192114965
-0.3307000000000001,-194.2398614714695
-0.3317,-194.80574599141553
-0.3327000000000001,-195.08868825138856
-0.3337,-195.65457277133459
-0.3347000000000001,-196.0789861612941
-0.3357,-196.50339955125358
-0.3367000000000001,-197.0692840711996
-0.3377,-197.63516859114563
-0.3387000000000001,-198.20105311109162
-0.3397,-198.62546650105114
-0.3407000000000001,-199.04987989101065
-0.3417,-199.33282215098367
-0.3427000000000001,-199.61576441095667
-0.3437,-200.04017780091618
-0.3447000000000001,-200.18164893090267
-0.3457,-200.4645911908757
-0.3467000000000001,-200.7475334508487
-0.3477,-201.17194684080823
-0.3487000000000001,-201.4548891007812
-0.3497,-201.87930249074074
-0.3507000000000001,-202.16224475071377
-0.3517,-202.44518701068677
-0.3527000000000001,-202.7281292706598
-0.3537,-202.86960040064628
-0.3547000000000001,-203.15254266061928
-0.3557,-203.43548492059227
-0.35670000000000013,-203.57695605057876
-0.3577,-203.85989831055176
-0.35870000000000013,-204.0013694405383
-0.3597,-204.2843117005113
-0.36070000000000013,-204.5672539604843
-0.3617,-204.8501962204573
-0.3626999999999999,-205.41608074040332
-0.3637,-205.84049413036286
-0.3646999999999999,-206.26490752032234
-0.3657,-206.83079204026836
-0.3666999999999999,-207.25520543022787
-0.3677,-207.8210899501739
-0.3686999999999999,-208.24550334013338
-0.36970000000000003,-208.6699167300929
-0.3706999999999999,-208.95285899006592
-0.37170000000000003,-209.37727238002543
-0.3726999999999999,-209.66021463999843
-0.37370000000000003,-210.08462802995794
-0.3746999999999999,-210.36757028993094
-0.37570000000000003,-210.65051254990397
-0.3766999999999999,-211.07492593986345
-0.37770000000000004,-211.64081045980947
-0.3786999999999999,-212.065223849769
-0.37970000000000004,-212.48963723972852
-0.3806999999999999,-213.05552175967455
-0.38170000000000004,-213.47993514963403
-0.38269999999999993,-213.90434853959354
-0.38370000000000004,-214.18729079956654
-0.38469999999999993,-214.47023305953954
-0.38570000000000004,-214.61170418952605
-0.38669999999999993,-214.89464644949908
-0.38770000000000004,-215.03611757948556
-0.38869999999999993,-215.17758870947208
-0.38970000000000005,-215.31905983945856
-0.39069999999999994,-215.6020020994316
-0.39170000000000005,-215.88494435940459
-0.39269999999999994,-216.3093577493641
-0.39370000000000005,-216.73377113932364
-0.39469999999999994,-217.15818452928315
-0.39570000000000005,-217.58259791924263
-0.39669999999999994,-217.86554017921566
-0.39770000000000005,-218.28995356917517
-0.39869999999999994,-218.57289582914817
-0.39970000000000006,-218.85583808912116
-0.40069999999999995,-219.13878034909416
-0.40170000000000006,-219.42172260906716
-0.40269999999999995,-219.5631937390537
-0.40370000000000006,-219.98760712901318
-0.40469999999999995,-220.1290782589997
-0.40570000000000006,-220.5534916489592
-0.40669999999999995,-220.97790503891872
-0.40770000000000006,-221.40231842887826
-0.40869999999999995,-221.82673181883774
-0.40970000000000006,-222.25114520879725
-0.41069999999999995,-222.6755585987568
-0.41170000000000007,-223.09997198871628
-0.41269999999999996,-223.38291424868927
-0.41370000000000007,-223.52438537867582
-0.41469999999999996,-223.80732763864881
-0.41570000000000007,-224.2317410286083
-0.41669999999999996,-224.5146832885813
-0.41770000000000007,-224.5146832885813
-0.41869999999999996,-224.79762554855435
-0.4197000000000001,-225.22203893851383
-0.42069999999999996,-225.78792345845983
-0.4217000000000001,-226.35380797840588
-0.42269999999999996,-226.63675023837888
-0.4237000000000001,-227.06116362833836
-0.42469999999999997,-227.4855770182979
-0.4257000000000001,-227.9099904082574
-0.42669999999999997,-228.33440379821695
-0.4277000000000001,-228.75881718817644
-0.42869999999999997,-229.18323057813595
-0.4297000000000001,-229.60764396809546
-0.43069999999999997,-230.03205735805497
-0.4317000000000001,-230.45647074801445
-0.4327,-230.880884137974
-0.4337000000000001,-231.163826397947
-0.4347,-231.5882397879065
-0.4357000000000001,-231.8711820478795
-0.4367,-232.29559543783904
-0.4377000000000001,-232.72000882779852
-0.4387,-233.00295108777152
-0.4397000000000001,-233.28589334774458
-0.4407,-233.71030673770406
-0.4417000000000001,-233.99324899767706
-0.4427,-234.4176623876366
-0.4437000000000001,-234.55913351762308
-0.4447,-234.84207577759608
-0.4457000000000001,-235.12501803756908
-0.4467,-235.54943142752862
-0.4477000000000001,-235.69090255751513
-0.4487,-236.1153159474746
-0.4497000000000001,-236.53972933743412
-0.4507,-236.96414272739366
-0.4517000000000001,-237.38855611735315
-0.4527,-237.81296950731266
-0.4537000000000001,-238.37885402725868
-0.4547,-238.94473854720468
-0.4557000000000001,-239.36915193716422
-0.4567,-239.93503645711021
-0.4577000000000001,-240.35944984706975
-0.4587,-240.78386323702924
-0.4597000000000001,-241.20827662698875
-0.4607,-241.49121888696175
-0.4617000000000001,-241.77416114693477
-0.4627,-241.9156322769213
-0.4637000000000001,-242.19857453689428
-0.4647,-242.48151679686728
-0.4657000000000001,-242.76445905684034
-0.4667,-242.90593018682682
-0.4677000000000001,-243.3303435767863
-0.4687,-243.6132858367593
-0.4697000000000001,-243.8962280967323
-0.4707,-244.17917035670533
-0.4717000000000001,-244.46211261667833
-0.4727,-244.60358374666484
-0.4737000000000001,-244.74505487665132
-0.4747,-244.8865260066378
-0.4757000000000001,-244.8865260066378
-0.4767,-244.8865260066378
-0.4777000000000001,-244.8865260066378
-0.4787,-245.16946826661086
-0.4797000000000001,-245.31093939659738
-0.4807,-245.59388165657037
-0.48170000000000013,-245.87682391654337
-0.4827,-246.30123730650286
-0.48370000000000013,-246.5841795664759
-0.4847,-247.0085929564354
-0.48570000000000013,-247.4330063463949
-0.4867,-246.7256506964624
-0.48570000000000013,-244.03769922671884
-0.4847,-241.49121888696175
-0.48370000000000013,-239.0862096771912
-0.4827,-236.82267159740715
-0.48170000000000013,-234.7006046476096
-0.4807,-232.43706656782552
-0.4797000000000001,-230.17352848804146
-0.4787,-228.0514615382439
-0.4777000000000001,-226.07086571843288
-0.4767,-224.2317410286083
-0.4757000000000001,-222.25114520879725
-0.4747,-220.1290782589997
-0.4737000000000001,-218.14848243918865
-0.4727,-216.4508288793506
-0.4717000000000001,-214.47023305953954
-0.4707,-212.34816610974204
-0.4697000000000001,-210.22609915994445
-0.4687,-208.24550334013338
-0.4677000000000001,-206.54784978029537
-0.4667,-204.8501962204573
