Potential V vs RHE, Current mA cm-2
0.4132999999999999,0.00964550164247982
0.4122999999999999,0.008082245656128955
0.4112999999999999,0.007407428366093332
0.4102999999999999,0.006973111997034765
0.4092999999999999,0.006599628213870396
0.4082999999999999,0.006284147594000493
0.4072999999999999,0.0060408172504237065
0.4062999999999999,0.005805975174646111
0.4052999999999999,0.005551327140670404
0.4042999999999999,0.005279702571096317
0.4032999999999999,0.005067495876116562
0.4022999999999999,0.004896315808832892
0.4012999999999999,0.004726550452849088
0.4002999999999999,0.004551126251665823
0.3992999999999999,0.004309210619388902
0.3982999999999999,0.004121054016506852
0.3972999999999999,0.0039894858656194035
0.3962999999999999,0.00385084415823263
0.3952999999999999,0.0037263495638445066
0.3942999999999999,0.0035551694965608367
0.39329999999999987,0.0033854041405770325
0.39229999999999987,0.0032835449269867497
0.39129999999999987,0.0031632944664982217
0.39029999999999987,0.003044458717309559
0.38929999999999987,0.0028746933613257547
0.38829999999999987,0.002741710499138441
0.38729999999999987,0.0026398512855481584
0.38629999999999987,0.00252525967025909
0.38529999999999986,0.0024219857453689425
0.38429999999999986,0.0022720263475832485
0.38329999999999986,0.00210933454809877
0.38229999999999986,0.0020286960040064627
0.38129999999999986,0.0019339103469155053
0.38029999999999986,0.0018221481542261672
0.37929999999999986,0.0017018976937376393
0.37829999999999986,0.0015873060784485711
0.37729999999999986,0.0014953498439573437
0.37629999999999986,0.0014141454153450907
0.37529999999999986,0.001309456779155078
0.37429999999999986,0.0011935919236961314
0.37329999999999985,0.0010693802715679814
0.37229999999999985,0.000992702919115296
0.37129999999999985,0.0009172988068324898
0.37029999999999985,0.0008293037639808845
0.36929999999999985,0.0007024041603829907
0.36829999999999985,0.0005989887643628565
0.36729999999999985,0.0005194819893104414
0.36629999999999985,0.00046643031556550254
0.36529999999999985,0.00038692354051308753
0.36429999999999985,0.00025295038041586856
0.36329999999999985,0.00015943796349478963
0.36229999999999984,9.938346881551882e-05
0.36129999999999984,3.65702871015112e-05
0.36029999999999984,-3.043044006009694e-05
0.35929999999999984,-0.00015745736767497858
0.35829999999999984,-0.0002397935653271237
0.35729999999999984,-0.0003040214583409964
0.35629999999999984,-0.00034731162411686653
0.35529999999999984,-0.00041012480583087413
0.35429999999999984,-0.0005160866821907654
0.35329999999999984,-0.0006195020782108995
0.35229999999999984,-0.0006640654841566482
0.35129999999999983,-0.000715702446601722
0.35029999999999983,-0.0007785156283157297
0.34929999999999983,-0.0008817895532058774
0.34829999999999983,-0.0009823755266262816
0.34729999999999983,-0.0010535355050094927
0.34629999999999983,-0.001078575895017104
0.34529999999999983,-0.0011484626332304367
0.34429999999999983,-0.0012405603388516507
0.3432999999999998,-0.0013354874670725946
0.3422999999999998,-0.0013591131457803408
0.3412999999999998,-0.0014246142789640919
0.3402999999999998,-0.001471299751859638
0.3392999999999998,-0.0015703295428501907
0.3382999999999998,-0.0016679446225408782
0.3372999999999998,-0.001697653559838044
0.3362999999999998,-0.001737265476234265
0.3352999999999998,-0.0017896097943292716
0.3342999999999998,-0.0018815660288204988
0.3332999999999998,-0.001979181108511186
0.3322999999999998,-0.002001816489309027
0.3312999999999998,-0.0020357695605057883
0.3302999999999998,-0.0020994315689997142
0.3292999999999998,-0.002175825979192426
0.3282999999999998,-0.002280514615382439
0.3272999999999998,-0.0023116382639794698
0.3262999999999998,-0.002348420757775961
0.3252999999999999,-0.0023908620967719118
0.3242999999999999,-0.002472915352164084
0.3232999999999999,-0.002554968607556256
0.3222999999999999,-0.0026073129256512628
0.3212999999999999,-0.002634192440348698
0.3202999999999999,-0.002668145511545459
0.3192999999999999,-0.0027700047251357413
0.3182999999999999,-0.0028379108675292636
0.3172999999999999,-0.0028676198048264295
0.3162999999999999,-0.0029143052777219755
0.3152999999999999,-0.002952502482818332
0.3142999999999999,-0.0030246527591114482
0.3132999999999999,-0.003115194282302811
0.3122999999999999,-0.003133585529201056
0.3112999999999999,-0.0031774415794968724
0.3102999999999999,-0.0032071505167940383
0.3092999999999999,-0.00328071550438702
0.3082999999999999,-0.0033825747179773028
0.3072999999999999,-0.0033995512535756832
0.3062999999999999,-0.003433504324772444
0.3052999999999999,-0.003470286818568935
0.3042999999999999,-0.0035367782496625914
0.3032999999999999,-0.0036329786180534147
0.3022999999999999,-0.0036527845762515253
0.3012999999999999,-0.0036824935135486908
0.3002999999999999,-0.0037206907186450467
0.2992999999999999,-0.0037956704175378933
0.2982999999999999,-0.0038763089616302006
0.2972999999999999,-0.0039060178989273665
0.2962999999999999,-0.003941385681423992
0.2952999999999999,-0.003978168175220483
0.2942999999999999,-0.004037586049814815
0.2932999999999999,-0.004111151037407797
0.2922999999999999,-0.004155007087703612
0.2912999999999999,-0.004163495355502802
0.2902999999999999,-0.004215839673597809
0.2892999999999999,-0.0042766722594920065
0.2882999999999999,-0.004350237247084989
0.2872999999999999,-0.004384190318281749
0.2862999999999999,-0.004405410987779724
0.2852999999999999,-0.0044308757911772955
0.2842999999999999,-0.004505855490070141
0.2832999999999999,-0.004579420477663123
0.2822999999999999,-0.004602055858460964
0.2812999999999999,-0.004620447105359211
0.2802999999999999,-0.004667132578254756
0.2792999999999999,-0.004720891607649627
0.2782999999999999,-0.004791627172642879
0.2772999999999999,-0.00481709197604045
0.2762999999999999,-0.004835483222938695
0.2752999999999999,-0.004862362737636131
0.2742999999999999,-0.004941586570428573
0.2732999999999999,-0.00501090742412196
0.2722999999999999,-0.00501373684672169
0.2712999999999999,-0.005049104629218316
0.2702999999999999,-0.0050816429891152115
0.2692999999999999,-0.005142475575009409
0.26829999999999987,-0.005217455273902255
0.26729999999999987,-0.00523018767560104
0.26629999999999987,-0.005259896612898206
0.26529999999999987,-0.005259896612898206
0.26429999999999987,-0.005333461600491188
0.26329999999999987,-0.005408441299384035
0.26229999999999987,-0.0054367355253813355
0.26129999999999987,-0.005459370906179176
0.26029999999999986,-0.005474932730477692
0.25929999999999986,-0.0055315211824722935
0.25829999999999986,-0.00562064799436379
0.25729999999999986,-0.005641868663861766
0.25629999999999986,-0.005654601065560552
0.25529999999999986,-0.005674407023758662
0.25429999999999986,-0.005729580764453399
0.25329999999999986,-0.00579182806164746
0.25229999999999986,-0.005851245936241792
0.25129999999999986,-0.005838513534543006
0.25029999999999986,-0.005868222471840172
0.24929999999999986,-0.005933299191633964
0.24829999999999985,-0.0060026200453273506
0.24729999999999985,-0.006026670137425056
0.24629999999999985,-0.006042231961723572
0.24529999999999985,-0.006111552815416958
0.24429999999999985,-0.006155408865712774
0.24329999999999985,-0.006213412029007242
0.24229999999999985,-0.006247365100204002
0.24129999999999985,-0.006271415192301708
0.24029999999999985,-0.006278488748801033
0.23929999999999985,-0.006343565468594825
0.23829999999999985,-0.006401568631889292
0.23729999999999984,-0.006428448146586726
0.23629999999999984,-0.006438351125685782
0.23529999999999984,-0.006455327661284162
0.23429999999999984,-0.00651333082457863
0.23329999999999984,-0.0065939693686709365
0.23229999999999984,-0.006620848883368372
0.23129999999999984,-0.006643484264166213
0.23029999999999984,-0.006653387243265268
0.22929999999999984,-0.006701487427460679
0.22829999999999984,-0.006773637703753795
0.22729999999999984,-0.00677505241505366
0.22629999999999983,-0.006801931929751096
0.22529999999999983,-0.006820323176649342
0.22429999999999983,-0.0068712527834444825
0.22329999999999983,-0.006941988348437735
0.22229999999999983,-0.00696886786313517
0.22129999999999983,-0.006992917955232876
0.22029999999999983,-0.007021212181230177
0.21929999999999983,-0.007050921118527342
0.21829999999999983,-0.00712307139482046
0.21729999999999983,-0.007157024466017221
0.21629999999999983,-0.007159853888616951
0.21529999999999982,-0.007198051093713307
0.21429999999999982,-0.007236248298809663
0.21329999999999982,-0.007304154441203185
0.21229999999999982,-0.007332448667200485
0.21129999999999982,-0.007332448667200485
0.21029999999999982,-0.00736781644969711
0.20929999999999982,-0.007404598943493603
0.20829999999999982,-0.0074710903745872585
0.20729999999999982,-0.007507872868383749
0.20629999999999982,-0.007517775847482805
0.20529999999999982,-0.007531922960481456
0.20429999999999982,-0.0075998291028749766
0.20329999999999981,-0.007640855730571064
0.2022999999999998,-0.007690370626066339
0.2012999999999998,-0.007696029471265799
0.20029999999999992,-0.007707347161664719
0.19929999999999992,-0.007773838592758377
0.19829999999999992,-0.007833256467352709
0.19729999999999992,-0.007848818291651223
0.19629999999999992,-0.00786438011594974
0.19529999999999992,-0.007872868383748928
0.19429999999999992,-0.007974727597339212
0.19329999999999992,-0.008052536718831788
0.19229999999999992,-0.008049707296232058
0.19129999999999991,-0.008065269120530573
0.1902999999999999,-0.00807517209962963
0.1892999999999999,-0.00811761343862558
0.1882999999999999,-0.008186934292318968
0.1872999999999999,-0.008215228518316268
0.1862999999999999,-0.008235034476514377
0.1852999999999999,-0.008249181589513028
0.1842999999999999,-0.008290208217209116
0.1832999999999999,-0.008346796669203717
0.1822999999999999,-0.008379335029100614
0.1812999999999999,-0.00840904396639778
0.1802999999999999,-0.008430264635895753
0.1792999999999999,-0.008458558861893055
0.1782999999999999,-0.008515147313887656
0.1772999999999999,-0.008551929807684147
0.1762999999999999,-0.008546270962484686
0.1752999999999999,-0.008594371146680099
0.1742999999999999,-0.008621250661377535
0.1732999999999999,-0.008677839113372134
0.1722999999999999,-0.008727354008867412
0.1712999999999999,-0.008717451029768357
0.1702999999999999,-0.00874715996706552
0.1692999999999999,-0.008782527749562147
0.1682999999999999,-0.008874483984053376
0.1672999999999999,-0.008902778210050675
0.1662999999999999,-0.008905607632650405
0.1652999999999999,-0.008931072436047977
0.1642999999999999,-0.008970684352444197
0.1632999999999999,-0.009025858093138934
0.1622999999999999,-0.00906122587563556
0.1612999999999999,-0.00908952010163286
0.1602999999999999,-0.00908952010163286
0.1592999999999999,-0.009144693842327595
0.15829999999999989,-0.009206941139521658
0.15729999999999988,-0.00924938247851761
0.15629999999999988,-0.00925221190111734
0.15529999999999988,-0.009279091415814776
0.15429999999999988,-0.009332850445209647
0.15329999999999988,-0.009393683031103843
0.15229999999999988,-0.009413488989301954
0.15129999999999988,-0.009423391968401008
0.15029999999999988,-0.00944036850399939
0.14929999999999988,-0.009487053976894935
0.14829999999999988,-0.009550715985388864
0.14729999999999988,-0.009573351366186703
0.14629999999999987,-0.009590327901785083
0.14529999999999987,-0.00964267221988009
0.14429999999999987,-0.009652575198979146
0.14329999999999987,-0.009747360856070102
0.14229999999999987,-0.009789802195066054
0.14129999999999987,-0.009801119885464974
0.14029999999999987,-0.00982234055496295
0.13929999999999987,-0.00984780535836052
0.13829999999999987,-0.009919955634653638
0.13729999999999987,-0.009953908705850398
0.13629999999999987,-0.009955323417150264
0.13529999999999986,-0.009977958797948105
0.13429999999999986,-0.01001615600304446
0.13329999999999986,-0.010098209258436632
0.13229999999999986,-0.010130747618333527
0.13129999999999986,-0.010129332907033663
0.13029999999999986,-0.01016470068953029
0.12929999999999986,-0.010204312605926509
0.12829999999999986,-0.010259486346621246
0.12729999999999986,-0.010317489509915713
0.12629999999999986,-0.010307586530816657
0.12529999999999986,-0.010337295468113824
0.12429999999999986,-0.010378322095809907
0.12329999999999985,-0.010446228238203431
0.12229999999999985,-0.010480181309400191
0.12129999999999985,-0.010480181309400191
0.12029999999999985,-0.010521207937096278
0.11929999999999985,-0.010563649276092229
0.11829999999999985,-0.01062306715068656
0.11729999999999985,-0.010689558581780218
0.11629999999999985,-0.010709364539978328
0.11529999999999985,-0.010716438096477652
0.11429999999999985,-0.010756050012873873
0.11329999999999985,-0.01083668855696618
0.11229999999999984,-0.010866397494263347
0.11129999999999984,-0.010876300473362402
0.11029999999999984,-0.010903179988059836
0.10929999999999984,-0.010944206615755923
0.10829999999999984,-0.011020601025948635
0.10729999999999984,-0.011071530632743777
0.10629999999999984,-0.011075774766643372
0.10529999999999984,-0.011115386683039593
0.10429999999999984,-0.011149339754236355
0.10329999999999984,-0.011218660607929741
0.10229999999999984,-0.011276663771224207
0.10129999999999983,-0.011289396172922992
0.10029999999999983,-0.011320519821520023
0.09929999999999983,-0.01135305818141692
0.09829999999999983,-0.01143794085940882
0.09729999999999983,-0.011480382198404773
0.09629999999999983,-0.011488870466203964
0.09529999999999983,-0.011548288340798294
0.09429999999999983,-0.011558191319897349
0.09329999999999983,-0.011634585730090062
0.09229999999999983,-0.011684100625585338
0.09129999999999983,-0.011712394851582639
0.09029999999999982,-0.011733615521080614
0.08929999999999982,-0.011784545127875756
0.08829999999999982,-0.011858110115468737
0.08729999999999982,-0.011907625010964014
0.08629999999999982,-0.0119203574126628
0.08529999999999982,-0.01195713990645929
0.08429999999999982,-0.011984019421156726
0.08329999999999982,-0.012056169697449843
0.08229999999999982,-0.01211134343814458
0.08129999999999982,-0.012139637664141879
0.08029999999999982,-0.01214246708674161
0.07929999999999982,-0.01219905553873621
0.07829999999999981,-0.012278279371528653
0.07729999999999981,-0.012332038400923524
0.07629999999999981,-0.0123532590704215
0.07529999999999992,-0.012360332626920826
0.07429999999999992,-0.012401359254616912
0.07329999999999992,-0.012469265397010435
0.07229999999999992,-0.01254990394110274
0.07129999999999992,-0.012573954033200446
0.07029999999999992,-0.012586686434899233
0.06929999999999992,-0.012637616041694373
0.06829999999999992,-0.01270976631798749
0.06729999999999992,-0.012779087171680878
0.06629999999999991,-0.012817284376777233
0.06529999999999991,-0.012837090334975343
0.06429999999999991,-0.012871043406172103
0.06329999999999991,-0.01295168195026441
0.06229999999999991,-0.012991293866660631
0.06129999999999991,-0.013029491071756986
0.06029999999999991,-0.013057785297754289
0.05929999999999991,-0.013098811925450374
0.05829999999999991,-0.013178035758242817
0.05729999999999991,-0.01326291843623472
0.056299999999999906,-0.01327423612663364
0.055299999999999905,-0.013318092176929456
0.054299999999999904,-0.013342142269027161
0.0532999999999999,-0.013412877834020412
0.0522999999999999,-0.013497760512012314
0.0512999999999999,-0.013502004645911909
0.0502999999999999,-0.013521810604110021
0.0492999999999999,-0.013574154922205027
0.0482999999999999,-0.01364206106459855
0.0472999999999999,-0.013722699608690856
0.0462999999999999,-0.013755237968587752
0.045299999999999896,-0.013772214504186133
0.044299999999999895,-0.013811826420582355
0.043299999999999894,-0.013879732562975875
0.04229999999999989,-0.013957541684468451
0.04129999999999989,-0.013980177065266292
0.04029999999999989,-0.014039594939860626
0.03929999999999989,-0.014087695124056035
0.03829999999999989,-0.014125892329152392
0.03729999999999989,-0.014217848563643616
0.03629999999999989,-0.01424614278964092
0.03529999999999989,-0.01424614278964092
0.034299999999999886,-0.01430273124163552
0.033299999999999885,-0.014387613919627423
0.032299999999999884,-0.014458349484620674
0.031299999999999883,-0.014486643710617976
0.030299999999999883,-0.014500790823616624
0.02929999999999988,-0.014543232162612576
0.02829999999999988,-0.01461396772760583
0.02729999999999988,-0.014712997518596381
0.02629999999999988,-0.014741291744593682
0.025299999999999878,-0.014755438857592333
0.024299999999999877,-0.014797880196588285
0.023299999999999876,-0.014882762874580187
0.022299999999999875,-0.014939351326574786
0.021299999999999875,-0.014981792665570736
0.020299999999999874,-0.01501008689156804
0.019299999999999873,-0.01505252823056399
0.018299999999999872,-0.015137410908555892
0.01729999999999987,-0.015179852247551842
0.01629999999999987,-0.015208146473549147
0.01529999999999987,-0.015264734925543746
0.014299999999999868,-0.015307176264539698
0.013299999999999867,-0.015377911829532949
0.012299999999999978,-0.015448647394526203
0.011299999999999866,-0.01546279450752485
0.010299999999999976,-0.015519382959519455
0.009299999999999864,-0.015547677185516754
0.008299999999999974,-0.015618412750510005
0.007299999999999862,-0.01568914831550326
0.006299999999999972,-0.015717442541500558
0.00529999999999986,-0.015745736767497857
0.0042999999999999705,-0.01578817810649381
0.0032999999999998586,-0.01584476655848841
0.0022999999999999687,-0.015929649236480315
0.0012999999999998568,-0.015957943462477614
0.00029999999999996696,-0.015986237688474913
-0.000700000000000145,-0.016014531914472215
-0.0017000000000000348,-0.016099414592464115
-0.0027000000000001467,-0.01618429727045602
-0.0037000000000000366,-0.016212591496453318
-0.0047000000000001485,-0.01624088572245062
-0.005700000000000038,-0.01625503283544927
-0.00670000000000015,-0.016325768400442524
-0.00770000000000004,-0.016410651078434424
-0.008700000000000152,-0.016438945304431726
-0.009700000000000042,-0.01646723953042903
-0.010700000000000154,-0.016537975095422278
-0.011700000000000044,-0.01662285777341418
-0.012700000000000156,-0.01666529911241013
-0.013700000000000045,-0.01670774045140608
-0.014700000000000157,-0.01673603467740338
-0.015700000000000047,-0.016750181790402035
-0.01670000000000016,-0.016849211581392583
-0.01770000000000005,-0.01691994714638584
-0.01870000000000016,-0.01693409425938449
-0.01970000000000005,-0.01697653559838044
-0.020700000000000163,-0.017018976937376393
-0.021700000000000053,-0.017075565389370995
-0.022700000000000164,-0.017160448067362895
-0.023700000000000054,-0.017188742293360197
-0.024700000000000166,-0.017217036519357496
-0.025700000000000056,-0.017259477858353446
-0.026700000000000168,-0.0173019191973494
-0.027700000000000058,-0.0173868018753413
-0.02870000000000017,-0.017400948988339954
-0.02970000000000006,-0.017443390327335904
-0.03070000000000017,-0.017499978779330502
-0.03170000000000006,-0.017556567231325104
-0.03270000000000017,-0.017627302796318356
-0.03370000000000006,-0.01765559702231566
-0.034700000000000175,-0.01768389124831296
-0.035700000000000065,-0.01772633258730891
-0.03670000000000018,-0.017797068152302163
-0.03770000000000007,-0.017867803717295416
-0.03870000000000018,-0.017896097943292714
-0.03970000000000007,-0.017924392169290013
-0.04070000000000018,-0.017966833508285963
-0.04170000000000007,-0.018023421960280565
-0.04270000000000018,-0.018108304638272472
-0.04370000000000007,-0.01813659886426977
-0.044700000000000184,-0.01816489309026707
-0.045700000000000074,-0.01820733442926302
-0.046700000000000186,-0.018263922881257624
-0.047700000000000076,-0.018362952672248176
-0.04870000000000019,-0.018391246898245478
-0.04970000000000008,-0.018405394011244126
-0.05070000000000019,-0.018433688237241428
-0.05170000000000008,-0.01851857091523333
-0.05270000000000019,-0.01858930648022658
-0.05370000000000008,-0.018645894932221182
-0.05470000000000019,-0.018645894932221182
-0.05570000000000008,-0.018688336271217135
-0.056700000000000195,-0.018773218949209036
-0.057700000000000085,-0.018843954514202284
-0.058700000000000196,-0.018886395853198238
-0.059700000000000086,-0.018900542966196893
-0.0607000000000002,-0.01892883719219419
-0.06170000000000009,-0.019027866983184743
