Aug. 17, 2024   20:38:21
Cyclic Voltammetry
File: c:/users/guazh/data/20240813_batch_94_500/2024-08-15-exp116\exp116-2024-08-17t20_22_01-arkoh\exp116_cv_50mvs_efin_-1700mv.bin
Data Source:  Experiment
Instrument Model:  CHI760E
Header: CV ran at 50 mVs
Note: 

Init E (V) = -1
High E (V) = -1
Low E (V) = -1.7
Final E (V) = -1
Init P/N = N
Scan Rate (V/s) = 0.05
Segment = 7
Sample Interval (V) = 0.001
Quiet Time (sec) = 60
Sensitivity (A/V) = 0.001
Comp R (ohm) = 1.4

Results:

Channel 1:
Segment 1:

Segment 2:

Segment 3:

Segment 4:

Segment 5:

Segment 6:

Segment 7:

Potential/V, Current/A

-1.000, 3.828e-6
-1.001, 4.906e-6
-1.002, 5.294e-6
-1.003, 5.591e-6
-1.004, 5.903e-6
-1.005, 6.088e-6
-1.006, 6.178e-6
-1.007, 6.413e-6
-1.008, 6.573e-6
-1.009, 6.739e-6
-1.010, 6.890e-6
-1.011, 6.941e-6
-1.012, 7.092e-6
-1.013, 7.235e-6
-1.014, 7.355e-6
-1.015, 7.504e-6
-1.016, 7.498e-6
-1.017, 7.600e-6
-1.018, 7.750e-6
-1.019, 7.852e-6
-1.020, 7.952e-6
-1.021, 8.006e-6
-1.022, 8.052e-6
-1.023, 8.222e-6
-1.024, 8.299e-6
-1.025, 8.319e-6
-1.026, 8.422e-6
-1.027, 8.473e-6
-1.028, 8.534e-6
-1.029, 8.628e-6
-1.030, 8.706e-6
-1.031, 8.727e-6
-1.032, 8.808e-6
-1.033, 8.887e-6
-1.034, 8.949e-6
-1.035, 9.029e-6
-1.036, 9.032e-6
-1.037, 9.110e-6
-1.038, 9.170e-6
-1.039, 9.297e-6
-1.040, 9.318e-6
-1.041, 9.359e-6
-1.042, 9.416e-6
-1.043, 9.449e-6
-1.044, 9.544e-6
-1.045, 9.664e-6
-1.046, 9.600e-6
-1.047, 9.714e-6
-1.048, 9.719e-6
-1.049, 9.811e-6
-1.050, 9.915e-6
-1.051, 9.878e-6
-1.052, 9.918e-6
-1.053, 1.001e-5
-1.054, 1.006e-5
-1.055, 1.017e-5
-1.056, 1.010e-5
-1.057, 1.016e-5
-1.058, 1.027e-5
-1.059, 1.031e-5
-1.060, 1.037e-5
-1.061, 1.039e-5
-1.062, 1.045e-5
-1.063, 1.052e-5
-1.064, 1.052e-5
-1.065, 1.064e-5
-1.066, 1.067e-5
-1.067, 1.069e-5
-1.068, 1.078e-5
-1.069, 1.083e-5
-1.070, 1.089e-5
-1.071, 1.097e-5
-1.072, 1.096e-5
-1.073, 1.103e-5
-1.074, 1.115e-5
-1.075, 1.120e-5
-1.076, 1.124e-5
-1.077, 1.127e-5
-1.078, 1.131e-5
-1.079, 1.143e-5
-1.080, 1.144e-5
-1.081, 1.148e-5
-1.082, 1.156e-5
-1.083, 1.160e-5
-1.084, 1.171e-5
-1.085, 1.176e-5
-1.086, 1.177e-5
-1.087, 1.187e-5
-1.088, 1.191e-5
-1.089, 1.198e-5
-1.090, 1.212e-5
-1.091, 1.211e-5
-1.092, 1.217e-5
-1.093, 1.226e-5
-1.094, 1.233e-5
-1.095, 1.240e-5
-1.096, 1.243e-5
-1.097, 1.248e-5
-1.098, 1.257e-5
-1.099, 1.265e-5
-1.100, 1.268e-5
-1.101, 1.276e-5
-1.102, 1.280e-5
-1.103, 1.290e-5
-1.104, 1.293e-5
-1.105, 1.303e-5
-1.106, 1.312e-5
-1.107, 1.312e-5
-1.108, 1.322e-5
-1.109, 1.336e-5
-1.110, 1.337e-5
-1.111, 1.346e-5
-1.112, 1.347e-5
-1.113, 1.359e-5
-1.114, 1.372e-5
-1.115, 1.374e-5
-1.116, 1.383e-5
-1.117, 1.385e-5
-1.118, 1.395e-5
-1.119, 1.408e-5
-1.120, 1.412e-5
-1.121, 1.418e-5
-1.122, 1.427e-5
-1.123, 1.434e-5
-1.124, 1.447e-5
-1.125, 1.454e-5
-1.126, 1.466e-5
-1.127, 1.473e-5
-1.128, 1.481e-5
-1.129, 1.490e-5
-1.130, 1.503e-5
-1.131, 1.508e-5
-1.132, 1.512e-5
-1.133, 1.526e-5
-1.134, 1.534e-5
-1.135, 1.545e-5
-1.136, 1.547e-5
-1.137, 1.554e-5
-1.138, 1.566e-5
-1.139, 1.573e-5
-1.140, 1.585e-5
-1.141, 1.593e-5
-1.142, 1.594e-5
-1.143, 1.612e-5
-1.144, 1.622e-5
-1.145, 1.627e-5
-1.146, 1.640e-5
-1.147, 1.642e-5
-1.148, 1.655e-5
-1.149, 1.668e-5
-1.150, 1.675e-5
-1.151, 1.686e-5
-1.152, 1.686e-5
-1.153, 1.703e-5
-1.154, 1.716e-5
-1.155, 1.720e-5
-1.156, 1.731e-5
-1.157, 1.735e-5
-1.158, 1.750e-5
-1.159, 1.764e-5
-1.160, 1.769e-5
-1.161, 1.780e-5
-1.162, 1.790e-5
-1.163, 1.799e-5
-1.164, 1.814e-5
-1.165, 1.822e-5
-1.166, 1.829e-5
-1.167, 1.847e-5
-1.168, 1.852e-5
-1.169, 1.865e-5
-1.170, 1.880e-5
-1.171, 1.889e-5
-1.172, 1.900e-5
-1.173, 1.915e-5
-1.174, 1.926e-5
-1.175, 1.942e-5
-1.176, 1.948e-5
-1.177, 1.962e-5
-1.178, 1.976e-5
-1.179, 1.986e-5
-1.180, 1.999e-5
-1.181, 2.009e-5
-1.182, 2.020e-5
-1.183, 2.039e-5
-1.184, 2.050e-5
-1.185, 2.063e-5
-1.186, 2.073e-5
-1.187, 2.083e-5
-1.188, 2.105e-5
-1.189, 2.115e-5
-1.190, 2.128e-5
-1.191, 2.148e-5
-1.192, 2.155e-5
-1.193, 2.170e-5
-1.194, 2.194e-5
-1.195, 2.200e-5
-1.196, 2.219e-5
-1.197, 2.233e-5
-1.198, 2.248e-5
-1.199, 2.276e-5
-1.200, 2.282e-5
-1.201, 2.300e-5
-1.202, 2.318e-5
-1.203, 2.333e-5
-1.204, 2.355e-5
-1.205, 2.373e-5
-1.206, 2.388e-5
-1.207, 2.412e-5
-1.208, 2.425e-5
-1.209, 2.456e-5
-1.210, 2.473e-5
-1.211, 2.493e-5
-1.212, 2.510e-5
-1.213, 2.534e-5
-1.214, 2.558e-5
-1.215, 2.587e-5
-1.216, 2.600e-5
-1.217, 2.620e-5
-1.218, 2.651e-5
-1.219, 2.675e-5
-1.220, 2.699e-5
-1.221, 2.720e-5
-1.222, 2.750e-5
-1.223, 2.777e-5
-1.224, 2.805e-5
-1.225, 2.829e-5
-1.226, 2.864e-5
-1.227, 2.891e-5
-1.228, 2.929e-5
-1.229, 2.965e-5
-1.230, 2.990e-5
-1.231, 3.022e-5
-1.232, 3.047e-5
-1.233, 3.083e-5
-1.234, 3.124e-5
-1.235, 3.153e-5
-1.236, 3.190e-5
-1.237, 3.222e-5
-1.238, 3.261e-5
-1.239, 3.303e-5
-1.240, 3.341e-5
-1.241, 3.371e-5
-1.242, 3.416e-5
-1.243, 3.458e-5
-1.244, 3.505e-5
-1.245, 3.547e-5
-1.246, 3.584e-5
-1.247, 3.634e-5
-1.248, 3.676e-5
-1.249, 3.727e-5
-1.250, 3.780e-5
-1.251, 3.821e-5
-1.252, 3.872e-5
-1.253, 3.924e-5
-1.254, 3.977e-5
-1.255, 4.035e-5
-1.256, 4.081e-5
-1.257, 4.138e-5
-1.258, 4.201e-5
-1.259, 4.258e-5
-1.260, 4.316e-5
-1.261, 4.381e-5
-1.262, 4.442e-5
-1.263, 4.518e-5
-1.264, 4.576e-5
-1.265, 4.649e-5
-1.266, 4.713e-5
-1.267, 4.785e-5
-1.268, 4.860e-5
-1.269, 4.941e-5
-1.270, 5.011e-5
-1.271, 5.093e-5
-1.272, 5.170e-5
-1.273, 5.255e-5
-1.274, 5.351e-5
-1.275, 5.430e-5
-1.276, 5.523e-5
-1.277, 5.622e-5
-1.278, 5.719e-5
-1.279, 5.825e-5
-1.280, 5.926e-5
-1.281, 6.021e-5
-1.282, 6.129e-5
-1.283, 6.234e-5
-1.284, 6.350e-5
-1.285, 6.459e-5
-1.286, 6.568e-5
-1.287, 6.687e-5
-1.288, 6.807e-5
-1.289, 6.933e-5
-1.290, 7.054e-5
-1.291, 7.167e-5
-1.292, 7.301e-5
-1.293, 7.432e-5
-1.294, 7.562e-5
-1.295, 7.705e-5
-1.296, 7.826e-5
-1.297, 7.963e-5
-1.298, 8.106e-5
-1.299, 8.253e-5
-1.300, 8.399e-5
-1.301, 8.542e-5
-1.302, 8.689e-5
-1.303, 8.846e-5
-1.304, 9.008e-5
-1.305, 9.157e-5
-1.306, 9.320e-5
-1.307, 9.472e-5
-1.308, 9.637e-5
-1.309, 9.803e-5
-1.310, 9.973e-5
-1.311, 1.015e-4
-1.312, 1.032e-4
-1.313, 1.051e-4
-1.314, 1.069e-4
-1.315, 1.086e-4
-1.316, 1.104e-4
-1.317, 1.123e-4
-1.318, 1.141e-4
-1.319, 1.160e-4
-1.320, 1.177e-4
-1.321, 1.196e-4
-1.322, 1.215e-4
-1.323, 1.233e-4
-1.324, 1.253e-4
-1.325, 1.271e-4
-1.326, 1.290e-4
-1.327, 1.310e-4
-1.328, 1.329e-4
-1.329, 1.349e-4
-1.330, 1.370e-4
-1.331, 1.389e-4
-1.332, 1.411e-4
-1.333, 1.431e-4
-1.334, 1.453e-4
-1.335, 1.475e-4
-1.336, 1.495e-4
-1.337, 1.518e-4
-1.338, 1.541e-4
-1.339, 1.564e-4
-1.340, 1.587e-4
-1.341, 1.611e-4
-1.342, 1.634e-4
-1.343, 1.659e-4
-1.344, 1.684e-4
-1.345, 1.709e-4
-1.346, 1.734e-4
-1.347, 1.759e-4
-1.348, 1.785e-4
-1.349, 1.813e-4
-1.350, 1.839e-4
-1.351, 1.865e-4
-1.352, 1.891e-4
-1.353, 1.919e-4
-1.354, 1.949e-4
-1.355, 1.975e-4
-1.356, 2.003e-4
-1.357, 2.030e-4
-1.358, 2.058e-4
-1.359, 2.088e-4
-1.360, 2.116e-4
-1.361, 2.145e-4
-1.362, 2.175e-4
-1.363, 2.204e-4
-1.364, 2.235e-4
-1.365, 2.265e-4
-1.366, 2.295e-4
-1.367, 2.326e-4
-1.368, 2.357e-4
-1.369, 2.389e-4
-1.370, 2.421e-4
-1.371, 2.453e-4
-1.372, 2.485e-4
-1.373, 2.517e-4
-1.374, 2.548e-4
-1.375, 2.582e-4
-1.376, 2.613e-4
-1.377, 2.647e-4
-1.378, 2.681e-4
-1.379, 2.715e-4
-1.380, 2.749e-4
-1.381, 2.782e-4
-1.382, 2.817e-4
-1.383, 2.852e-4
-1.384, 2.887e-4
-1.385, 2.921e-4
-1.386, 2.956e-4
-1.387, 2.992e-4
-1.388, 3.027e-4
-1.389, 3.063e-4
-1.390, 3.098e-4
-1.391, 3.134e-4
-1.392, 3.169e-4
-1.393, 3.206e-4
-1.394, 3.243e-4
-1.395, 3.281e-4
-1.396, 3.317e-4
-1.397, 3.352e-4
-1.398, 3.390e-4
-1.399, 3.428e-4
-1.400, 3.464e-4
-1.401, 3.501e-4
-1.402, 3.539e-4
-1.403, 3.578e-4
-1.404, 3.617e-4
-1.405, 3.655e-4
-1.406, 3.692e-4
-1.407, 3.732e-4
-1.408, 3.771e-4
-1.409, 3.811e-4
-1.410, 3.855e-4
-1.411, 3.892e-4
-1.412, 3.933e-4
-1.413, 3.970e-4
-1.414, 4.010e-4
-1.415, 4.051e-4
-1.416, 4.093e-4
-1.417, 4.132e-4
-1.418, 4.173e-4
-1.419, 4.213e-4
-1.420, 4.253e-4
-1.421, 4.294e-4
-1.422, 4.333e-4
-1.423, 4.376e-4
-1.424, 4.418e-4
-1.425, 4.460e-4
-1.426, 4.498e-4
-1.427, 4.539e-4
-1.428, 4.582e-4
-1.429, 4.623e-4
-1.430, 4.666e-4
-1.431, 4.709e-4
-1.432, 4.753e-4
-1.433, 4.796e-4
-1.434, 4.839e-4
-1.435, 4.880e-4
-1.436, 4.926e-4
-1.437, 4.971e-4
-1.438, 5.016e-4
-1.439, 5.061e-4
-1.440, 5.107e-4
-1.441, 5.147e-4
-1.442, 5.191e-4
-1.443, 5.238e-4
-1.444, 5.284e-4
-1.445, 5.330e-4
-1.446, 5.375e-4
-1.447, 5.421e-4
-1.448, 5.470e-4
-1.449, 5.518e-4
-1.450, 5.567e-4
-1.451, 5.605e-4
-1.452, 5.649e-4
-1.453, 5.699e-4
-1.454, 5.746e-4
-1.455, 5.797e-4
-1.456, 5.845e-4
-1.457, 5.889e-4
-1.458, 5.938e-4
-1.459, 5.983e-4
-1.460, 6.033e-4
-1.461, 6.082e-4
-1.462, 6.132e-4
-1.463, 6.180e-4
-1.464, 6.226e-4
-1.465, 6.273e-4
-1.466, 6.324e-4
-1.467, 6.376e-4
-1.468, 6.427e-4
-1.469, 6.479e-4
-1.470, 6.530e-4
-1.471, 6.578e-4
-1.472, 6.628e-4
-1.473, 6.685e-4
-1.474, 6.735e-4
-1.475, 6.785e-4
-1.476, 6.835e-4
-1.477, 6.890e-4
-1.478, 6.944e-4
-1.479, 7.002e-4
-1.480, 7.052e-4
-1.481, 7.110e-4
-1.482, 7.163e-4
-1.483, 7.217e-4
-1.484, 7.271e-4
-1.485, 7.329e-4
-1.486, 7.386e-4
-1.487, 7.437e-4
-1.488, 7.494e-4
-1.489, 7.548e-4
-1.490, 7.608e-4
-1.491, 7.666e-4
-1.492, 7.726e-4
-1.493, 7.785e-4
-1.494, 7.844e-4
-1.495, 7.899e-4
-1.496, 7.960e-4
-1.497, 8.020e-4
-1.498, 8.084e-4
-1.499, 8.149e-4
-1.500, 8.205e-4
-1.501, 8.264e-4
-1.502, 8.323e-4
-1.503, 8.389e-4
-1.504, 8.455e-4
-1.505, 8.526e-4
-1.506, 8.591e-4
-1.507, 8.656e-4
-1.508, 8.723e-4
-1.509, 8.788e-4
-1.510, 8.857e-4
-1.511, 8.925e-4
-1.512, 8.992e-4
-1.513, 9.057e-4
-1.514, 9.126e-4
-1.515, 9.195e-4
-1.516, 9.261e-4
-1.517, 9.335e-4
-1.518, 9.399e-4
-1.519, 9.470e-4
-1.520, 9.532e-4
-1.521, 9.607e-4
-1.522, 9.681e-4
-1.523, 9.763e-4
-1.524, 9.838e-4
-1.525, 9.912e-4
-1.526, 9.977e-4
-1.527, 1.005e-3
-1.528, 1.012e-3
-1.529, 1.019e-3
-1.530, 1.028e-3
-1.531, 1.035e-3
-1.532, 1.043e-3
-1.533, 1.052e-3
-1.534, 1.060e-3
-1.535, 1.067e-3
-1.536, 1.075e-3
-1.537, 1.083e-3
-1.538, 1.091e-3
-1.539, 1.099e-3
-1.540, 1.108e-3
-1.541, 1.116e-3
-1.542, 1.124e-3
-1.543, 1.132e-3
-1.544, 1.141e-3
-1.545, 1.150e-3
-1.546, 1.158e-3
-1.547, 1.167e-3
-1.548, 1.176e-3
-1.549, 1.186e-3
-1.550, 1.196e-3
-1.551, 1.206e-3
-1.552, 1.221e-3
-1.553, 1.230e-3
-1.554, 1.238e-3
-1.555, 1.248e-3
-1.556, 1.257e-3
-1.557, 1.267e-3
-1.558, 1.277e-3
-1.559, 1.288e-3
-1.560, 1.299e-3
-1.561, 1.310e-3
-1.562, 1.320e-3
-1.563, 1.330e-3
-1.564, 1.340e-3
-1.565, 1.351e-3
-1.566, 1.364e-3
-1.567, 1.374e-3
-1.568, 1.385e-3
-1.569, 1.396e-3
-1.570, 1.408e-3
-1.571, 1.419e-3
-1.572, 1.429e-3
-1.573, 1.443e-3
-1.574, 1.453e-3
-1.575, 1.467e-3
-1.576, 1.479e-3
-1.577, 1.492e-3
-1.578, 1.504e-3
-1.579, 1.516e-3
-1.580, 1.528e-3
-1.581, 1.541e-3
-1.582, 1.556e-3
-1.583, 1.569e-3
-1.584, 1.582e-3
-1.585, 1.595e-3
-1.586, 1.608e-3
-1.587, 1.622e-3
-1.588, 1.634e-3
-1.589, 1.650e-3
-1.590, 1.666e-3
-1.591, 1.681e-3
-1.592, 1.697e-3
-1.593, 1.711e-3
-1.594, 1.725e-3
-1.595, 1.739e-3
-1.596, 1.752e-3
-1.597, 1.764e-3
-1.598, 1.783e-3
-1.599, 1.801e-3
-1.600, 1.819e-3
-1.601, 1.836e-3
-1.602, 1.853e-3
-1.603, 1.867e-3
-1.604, 1.883e-3
-1.605, 1.899e-3
-1.606, 1.915e-3
-1.607, 1.933e-3
-1.608, 1.953e-3
-1.609, 1.970e-3
-1.610, 1.987e-3
-1.611, 2.006e-3
-1.612, 2.025e-3
-1.613, 2.044e-3
-1.614, 2.061e-3
-1.615, 2.082e-3
-1.616, 2.103e-3
-1.617, 2.121e-3
-1.618, 2.139e-3
-1.619, 2.159e-3
-1.620, 2.179e-3
-1.621, 2.199e-3
-1.622, 2.222e-3
-1.623, 2.243e-3
-1.624, 2.271e-3
-1.625, 2.294e-3
-1.626, 2.314e-3
-1.627, 2.337e-3
-1.628, 2.359e-3
-1.629, 2.382e-3
-1.630, 2.408e-3
-1.631, 2.433e-3
-1.632, 2.457e-3
-1.633, 2.487e-3
-1.634, 2.513e-3
-1.635, 2.538e-3
-1.636, 2.563e-3
-1.637, 2.598e-3
-1.638, 2.624e-3
-1.639, 2.651e-3
-1.640, 2.676e-3
-1.641, 2.703e-3
-1.642, 2.735e-3
-1.643, 2.765e-3
-1.644, 2.790e-3
-1.645, 2.835e-3
-1.646, 2.856e-3
-1.647, 2.885e-3
-1.648, 2.919e-3
-1.649, 2.952e-3
-1.650, 2.990e-3
-1.651, 3.028e-3
-1.652, 3.071e-3
-1.653, 3.106e-3
-1.654, 3.137e-3
-1.655, 3.166e-3
-1.656, 3.201e-3
-1.657, 3.239e-3
-1.658, 3.287e-3
-1.659, 3.338e-3
-1.660, 3.386e-3
-1.661, 3.430e-3
-1.662, 3.471e-3
-1.663, 3.504e-3
-1.664, 3.534e-3
-1.665, 3.561e-3
-1.666, 3.617e-3
-1.667, 3.656e-3
-1.668, 3.696e-3
-1.669, 3.742e-3
-1.670, 3.778e-3
-1.671, 3.826e-3
-1.672, 3.870e-3
-1.673, 3.919e-3
-1.674, 3.958e-3
-1.675, 3.994e-3
-1.676, 4.044e-3
-1.677, 4.085e-3
-1.678, 4.129e-3
-1.679, 4.158e-3
-1.680, 4.181e-3
-1.681, 4.217e-3
-1.682, 4.279e-3
-1.683, 4.324e-3
-1.684, 4.379e-3
-1.685, 4.445e-3
-1.686, 4.503e-3
-1.687, 4.580e-3
-1.688, 4.627e-3
-1.689, 4.673e-3
-1.690, 4.729e-3
-1.691, 4.784e-3
-1.692, 4.860e-3
-1.693, 4.905e-3
-1.694, 4.958e-3
-1.695, 5.008e-3
-1.696, 5.050e-3
-1.697, 5.093e-3
-1.698, 5.143e-3
-1.699, 5.204e-3
-1.700, 5.226e-3
-1.699, 5.189e-3
-1.698, 5.139e-3
-1.697, 5.082e-3
-1.696, 5.027e-3
-1.695, 4.961e-3
-1.694, 4.907e-3
-1.693, 4.867e-3
-1.692, 4.825e-3
-1.691, 4.775e-3
-1.690, 4.707e-3
-1.689, 4.633e-3
-1.688, 4.586e-3
-1.687, 4.539e-3
-1.686, 4.486e-3
-1.685, 4.422e-3
-1.684, 4.351e-3
-1.683, 4.284e-3
-1.682, 4.223e-3
-1.681, 4.141e-3
-1.680, 4.091e-3
-1.679, 4.046e-3
-1.678, 3.995e-3
-1.677, 3.947e-3
-1.676, 3.891e-3
-1.675, 3.835e-3
-1.674, 3.798e-3
-1.673, 3.754e-3
-1.672, 3.712e-3
-1.671, 3.653e-3
-1.670, 3.606e-3
-1.669, 3.560e-3
-1.668, 3.513e-3
-1.667, 3.463e-3
-1.666, 3.417e-3
-1.665, 3.371e-3
-1.664, 3.326e-3
-1.663, 3.286e-3
-1.662, 3.247e-3
-1.661, 3.198e-3
-1.660, 3.156e-3
-1.659, 3.110e-3
-1.658, 3.059e-3
-1.657, 3.006e-3
-1.656, 2.960e-3
-1.655, 2.919e-3
-1.654, 2.879e-3
-1.653, 2.833e-3
-1.652, 2.793e-3
-1.651, 2.753e-3
-1.650, 2.709e-3
-1.649, 2.669e-3
-1.648, 2.624e-3
-1.647, 2.583e-3
-1.646, 2.545e-3
-1.645, 2.510e-3
-1.644, 2.478e-3
-1.643, 2.440e-3
-1.642, 2.399e-3
-1.641, 2.360e-3
-1.640, 2.326e-3
-1.639, 2.288e-3
-1.638, 2.252e-3
-1.637, 2.218e-3
-1.636, 2.184e-3
-1.635, 2.152e-3
-1.634, 2.122e-3
-1.633, 2.087e-3
-1.632, 2.057e-3
-1.631, 2.020e-3
-1.630, 1.979e-3
-1.629, 1.949e-3
-1.628, 1.922e-3
-1.627, 1.890e-3
-1.626, 1.859e-3
-1.625, 1.835e-3
-1.624, 1.802e-3
-1.623, 1.766e-3
-1.622, 1.743e-3
-1.621, 1.765e-3
-1.620, 1.740e-3
-1.619, 1.716e-3
-1.618, 1.690e-3
-1.617, 1.659e-3
-1.616, 1.628e-3
-1.615, 1.600e-3
-1.614, 1.585e-3
-1.613, 1.566e-3
-1.612, 1.540e-3
-1.611, 1.514e-3
-1.610, 1.492e-3
-1.609, 1.471e-3
-1.608, 1.451e-3
-1.607, 1.429e-3
-1.606, 1.407e-3
-1.605, 1.383e-3
-1.604, 1.360e-3
-1.603, 1.340e-3
-1.602, 1.318e-3
-1.601, 1.296e-3
-1.600, 1.276e-3
-1.599, 1.255e-3
-1.598, 1.236e-3
-1.597, 1.217e-3
-1.596, 1.198e-3
-1.595, 1.178e-3
-1.594, 1.159e-3
-1.593, 1.140e-3
-1.592, 1.122e-3
-1.591, 1.104e-3
-1.590, 1.086e-3
-1.589, 1.068e-3
-1.588, 1.051e-3
-1.587, 1.034e-3
-1.586, 1.017e-3
-1.585, 1.001e-3
-1.584, 9.850e-4
-1.583, 9.686e-4
-1.582, 9.529e-4
-1.581, 9.372e-4
-1.580, 9.223e-4
-1.579, 9.079e-4
-1.578, 8.929e-4
-1.577, 8.785e-4
-1.576, 8.656e-4
-1.575, 8.514e-4
-1.574, 8.383e-4
-1.573, 8.267e-4
-1.572, 8.125e-4
-1.571, 7.988e-4
-1.570, 7.868e-4
-1.569, 7.745e-4
-1.568, 7.634e-4
-1.567, 7.524e-4
-1.566, 7.416e-4
-1.565, 7.297e-4
-1.564, 7.190e-4
-1.563, 7.078e-4
-1.562, 6.977e-4
-1.561, 6.878e-4
-1.560, 6.777e-4
-1.559, 6.671e-4
-1.558, 6.559e-4
-1.557, 6.434e-4
-1.556, 6.353e-4
-1.555, 6.250e-4
-1.554, 6.157e-4
-1.553, 6.064e-4
-1.552, 5.976e-4
-1.551, 5.890e-4
-1.550, 5.804e-4
-1.549, 5.719e-4
-1.548, 5.631e-4
-1.547, 5.545e-4
-1.546, 5.465e-4
-1.545, 5.386e-4
-1.544, 5.309e-4
-1.543, 5.234e-4
-1.542, 5.159e-4
-1.541, 5.086e-4
-1.540, 5.014e-4
-1.539, 4.948e-4
-1.538, 4.877e-4
-1.537, 4.803e-4
-1.536, 4.737e-4
-1.535, 4.670e-4
-1.534, 4.617e-4
-1.533, 4.548e-4
-1.532, 4.481e-4
-1.531, 4.415e-4
-1.530, 4.361e-4
-1.529, 4.309e-4
-1.528, 4.251e-4
-1.527, 4.193e-4
-1.526, 4.138e-4
-1.525, 4.084e-4
-1.524, 4.031e-4
-1.523, 3.986e-4
-1.522, 3.932e-4
-1.521, 3.912e-4
-1.520, 3.849e-4
-1.519, 3.801e-4
-1.518, 3.747e-4
-1.517, 3.697e-4
-1.516, 3.650e-4
-1.515, 3.595e-4
-1.514, 3.550e-4
-1.513, 3.502e-4
-1.512, 3.456e-4
-1.511, 3.411e-4
-1.510, 3.366e-4
-1.509, 3.327e-4
-1.508, 3.280e-4
-1.507, 3.237e-4
-1.506, 3.194e-4
-1.505, 3.153e-4
-1.504, 3.115e-4
-1.503, 3.068e-4
-1.502, 3.023e-4
-1.501, 2.984e-4
-1.500, 2.944e-4
-1.499, 2.903e-4
-1.498, 2.865e-4
-1.497, 2.828e-4
-1.496, 2.793e-4
-1.495, 2.755e-4
-1.494, 2.737e-4
-1.493, 2.688e-4
-1.492, 2.653e-4
-1.491, 2.619e-4
-1.490, 2.582e-4
-1.489, 2.547e-4
-1.488, 2.515e-4
-1.487, 2.480e-4
-1.486, 2.447e-4
-1.485, 2.416e-4
-1.484, 2.382e-4
-1.483, 2.348e-4
-1.482, 2.319e-4
-1.481, 2.287e-4
-1.480, 2.255e-4
-1.479, 2.224e-4
-1.478, 2.194e-4
-1.477, 2.166e-4
-1.476, 2.136e-4
-1.475, 2.106e-4
-1.474, 2.079e-4
-1.473, 2.047e-4
-1.472, 2.015e-4
-1.471, 1.988e-4
-1.470, 1.972e-4
-1.469, 1.943e-4
-1.468, 1.915e-4
-1.467, 1.889e-4
-1.466, 1.863e-4
-1.465, 1.837e-4
-1.464, 1.811e-4
-1.463, 1.786e-4
-1.462, 1.761e-4
-1.461, 1.738e-4
-1.460, 1.713e-4
-1.459, 1.689e-4
-1.458, 1.670e-4
-1.457, 1.643e-4
-1.456, 1.620e-4
-1.455, 1.597e-4
-1.454, 1.574e-4
-1.453, 1.552e-4
-1.452, 1.530e-4
-1.451, 1.509e-4
-1.450, 1.487e-4
-1.449, 1.465e-4
-1.448, 1.445e-4
-1.447, 1.426e-4
-1.446, 1.407e-4
-1.445, 1.385e-4
-1.444, 1.366e-4
-1.443, 1.345e-4
-1.442, 1.327e-4
-1.441, 1.307e-4
-1.440, 1.288e-4
-1.439, 1.269e-4
-1.438, 1.250e-4
-1.437, 1.232e-4
-1.436, 1.216e-4
-1.435, 1.199e-4
-1.434, 1.178e-4
-1.433, 1.163e-4
-1.432, 1.147e-4
-1.431, 1.131e-4
-1.430, 1.114e-4
-1.429, 1.098e-4
-1.428, 1.081e-4
-1.427, 1.064e-4
-1.426, 1.049e-4
-1.425, 1.033e-4
-1.424, 1.018e-4
-1.423, 1.002e-4
-1.422, 9.868e-5
-1.421, 9.718e-5
-1.420, 9.566e-5
-1.419, 9.416e-5
-1.418, 9.274e-5
-1.417, 9.122e-5
-1.416, 8.983e-5
-1.415, 8.847e-5
-1.414, 8.698e-5
-1.413, 8.572e-5
-1.412, 8.435e-5
-1.411, 8.301e-5
-1.410, 8.180e-5
-1.409, 8.035e-5
-1.408, 7.909e-5
-1.407, 7.784e-5
-1.406, 7.659e-5
-1.405, 7.540e-5
-1.404, 7.413e-5
-1.403, 7.292e-5
-1.402, 7.181e-5
-1.401, 7.056e-5
-1.400, 6.951e-5
-1.399, 6.833e-5
-1.398, 6.716e-5
-1.397, 6.615e-5
-1.396, 6.512e-5
-1.395, 6.405e-5
-1.394, 6.299e-5
-1.393, 6.171e-5
-1.392, 6.072e-5
-1.391, 5.968e-5
-1.390, 5.869e-5
-1.389, 5.768e-5
-1.388, 5.686e-5
-1.387, 5.585e-5
-1.386, 5.484e-5
-1.385, 5.393e-5
-1.384, 5.300e-5
-1.383, 5.210e-5
-1.382, 5.123e-5
-1.381, 5.032e-5
-1.380, 4.947e-5
-1.379, 4.852e-5
-1.378, 4.777e-5
-1.377, 4.689e-5
-1.376, 4.610e-5
-1.375, 4.531e-5
-1.374, 4.436e-5
-1.373, 4.363e-5
-1.372, 4.283e-5
-1.371, 4.204e-5
-1.370, 4.131e-5
-1.369, 4.053e-5
-1.368, 3.983e-5
-1.367, 3.915e-5
-1.366, 3.833e-5
-1.365, 3.771e-5
-1.364, 3.689e-5
-1.363, 3.623e-5
-1.362, 3.554e-5
-1.361, 3.485e-5
-1.360, 3.420e-5
-1.359, 3.351e-5
-1.358, 3.286e-5
-1.357, 3.251e-5
-1.356, 3.168e-5
-1.355, 3.101e-5
-1.354, 3.038e-5
-1.353, 2.979e-5
-1.352, 2.931e-5
-1.351, 2.871e-5
-1.350, 2.811e-5
-1.349, 2.753e-5
-1.348, 2.706e-5
-1.347, 2.650e-5
-1.346, 2.595e-5
-1.345, 2.537e-5
-1.344, 2.483e-5
-1.343, 2.437e-5
-1.342, 2.386e-5
-1.341, 2.339e-5
-1.340, 2.292e-5
-1.339, 2.237e-5
-1.338, 2.199e-5
-1.337, 2.149e-5
-1.336, 2.103e-5
-1.335, 2.060e-5
-1.334, 2.010e-5
-1.333, 1.971e-5
-1.332, 1.929e-5
-1.331, 1.884e-5
-1.330, 1.848e-5
-1.329, 1.799e-5
-1.328, 1.767e-5
-1.327, 1.725e-5
-1.326, 1.687e-5
-1.325, 1.648e-5
-1.324, 1.605e-5
-1.323, 1.567e-5
-1.322, 1.544e-5
-1.321, 1.509e-5
-1.320, 1.471e-5
-1.319, 1.425e-5
-1.318, 1.396e-5
-1.317, 1.370e-5
-1.316, 1.339e-5
-1.315, 1.295e-5
-1.314, 1.261e-5
-1.313, 1.228e-5
-1.312, 1.207e-5
-1.311, 1.174e-5
-1.310, 1.143e-5
-1.309, 1.110e-5
-1.308, 1.091e-5
-1.307, 1.055e-5
-1.306, 1.030e-5
-1.305, 9.982e-6
-1.304, 9.703e-6
-1.303, 9.470e-6
-1.302, 9.218e-6
-1.301, 8.979e-6
-1.300, 8.720e-6
-1.299, 8.367e-6
-1.298, 8.185e-6
-1.297, 7.901e-6
-1.296, 7.763e-6
-1.295, 7.392e-6
-1.294, 7.105e-6
-1.293, 6.896e-6
-1.292, 6.720e-6
-1.291, 6.478e-6
-1.290, 6.263e-6
-1.289, 5.986e-6
-1.288, 5.851e-6
-1.287, 5.641e-6
-1.286, 5.389e-6
-1.285, 5.182e-6
-1.284, 4.935e-6
-1.283, 4.674e-6
-1.282, 4.507e-6
-1.281, 4.310e-6
-1.280, 4.117e-6
-1.279, 3.920e-6
-1.278, 3.692e-6
-1.277, 3.591e-6
-1.276, 3.420e-6
-1.275, 3.104e-6
-1.274, 2.946e-6
-1.273, 2.816e-6
-1.272, 2.665e-6
-1.271, 2.530e-6
-1.270, 2.269e-6
-1.269, 2.110e-6
-1.268, 1.980e-6
-1.267, 1.748e-6
-1.266, 1.645e-6
-1.265, 1.422e-6
-1.264, 1.308e-6
-1.263, 1.200e-6
-1.262, 9.913e-7
-1.261, 8.917e-7
-1.260, 6.934e-7
-1.259, 5.030e-7
-1.258, 4.013e-7
-1.257, 2.188e-7
-1.256, 1.350e-7
-1.255, -4.262e-8
-1.254, -2.202e-7
-1.253, -2.764e-7
-1.252, -3.879e-7
-1.251, -6.119e-7
-1.250, -7.559e-7
-1.249, -9.039e-7
-1.248, -9.661e-7
-1.247, -1.081e-6
-1.246, -1.211e-6
-1.245, -1.362e-6
-1.244, -1.474e-6
-1.243, -1.603e-6
-1.242, -1.667e-6
-1.241, -1.845e-6
-1.240, -1.970e-6
-1.239, -2.038e-6
-1.238, -2.158e-6
-1.237, -2.251e-6
-1.236, -2.378e-6
-1.235, -2.543e-6
-1.234, -2.589e-6
-1.233, -2.740e-6
-1.232, -2.780e-6
-1.231, -2.904e-6
-1.230, -3.084e-6
-1.229, -3.220e-6
-1.228, -3.265e-6
-1.227, -3.374e-6
-1.226, -3.379e-6
-1.225, -3.617e-6
-1.224, -3.651e-6
-1.223, -3.720e-6
-1.222, -3.850e-6
-1.221, -3.848e-6
-1.220, -4.024e-6
-1.219, -4.098e-6
-1.218, -4.187e-6
-1.217, -4.301e-6
-1.216, -4.355e-6
-1.215, -4.478e-6
-1.214, -4.613e-6
-1.213, -4.630e-6
-1.212, -4.685e-6
-1.211, -4.808e-6
-1.210, -4.919e-6
-1.209, -5.003e-6
-1.208, -5.077e-6
-1.207, -5.149e-6
-1.206, -5.220e-6
-1.205, -5.318e-6
-1.204, -5.378e-6
-1.203, -5.513e-6
-1.202, -5.519e-6
-1.201, -5.635e-6
-1.200, -5.722e-6
-1.199, -5.767e-6
-1.198, -5.871e-6
-1.197, -5.902e-6
-1.196, -5.955e-6
-1.195, -6.105e-6
-1.194, -6.126e-6
-1.193, -6.230e-6
-1.192, -6.249e-6
-1.191, -6.317e-6
-1.190, -6.463e-6
-1.189, -6.473e-6
-1.188, -6.567e-6
-1.187, -6.642e-6
-1.186, -6.640e-6
-1.185, -6.796e-6
-1.184, -6.838e-6
-1.183, -6.889e-6
-1.182, -6.991e-6
-1.181, -6.978e-6
-1.180, -7.097e-6
-1.179, -7.209e-6
-1.178, -7.267e-6
-1.177, -7.315e-6
-1.176, -7.338e-6
-1.175, -7.433e-6
-1.174, -7.550e-6
-1.173, -7.603e-6
-1.172, -7.674e-6
-1.171, -7.751e-6
-1.170, -7.841e-6
-1.169, -7.875e-6
-1.168, -7.899e-6
-1.167, -7.967e-6
-1.166, -8.068e-6
-1.165, -8.171e-6
-1.164, -8.235e-6
-1.163, -8.290e-6
-1.162, -8.294e-6
-1.161, -8.392e-6
-1.160, -8.449e-6
-1.159, -8.530e-6
-1.158, -8.637e-6
-1.157, -8.691e-6
-1.156, -8.791e-6
-1.155, -8.885e-6
-1.154, -8.915e-6
-1.153, -9.020e-6
-1.152, -9.067e-6
-1.151, -9.120e-6
-1.150, -9.241e-6
-1.149, -9.277e-6
-1.148, -9.321e-6
-1.147, -9.405e-6
-1.146, -9.471e-6
-1.145, -9.589e-6
-1.144, -9.561e-6
-1.143, -9.671e-6
-1.142, -9.785e-6
-1.141, -9.786e-6
-1.140, -9.876e-6
-1.139, -9.977e-6
-1.138, -9.985e-6
-1.137, -1.011e-5
-1.136, -1.015e-5
-1.135, -1.022e-5
-1.134, -1.031e-5
-1.133, -1.037e-5
-1.132, -1.043e-5
-1.131, -1.057e-5
-1.130, -1.060e-5
-1.129, -1.072e-5
-1.128, -1.073e-5
-1.127, -1.082e-5
-1.126, -1.097e-5
-1.125, -1.099e-5
-1.124, -1.109e-5
-1.123, -1.116e-5
-1.122, -1.120e-5
-1.121, -1.132e-5
-1.120, -1.139e-5
-1.119, -1.154e-5
-1.118, -1.159e-5
-1.117, -1.164e-5
-1.116, -1.167e-5
-1.115, -1.182e-5
-1.114, -1.191e-5
-1.113, -1.196e-5
-1.112, -1.202e-5
-1.111, -1.213e-5
-1.110, -1.222e-5
-1.109, -1.231e-5
-1.108, -1.236e-5
-1.107, -1.251e-5
-1.106, -1.254e-5
-1.105, -1.268e-5
-1.104, -1.275e-5
-1.103, -1.282e-5
-1.102, -1.293e-5
-1.101, -1.301e-5
-1.100, -1.306e-5
-1.099, -1.328e-5
-1.098, -1.333e-5
-1.097, -1.344e-5
-1.096, -1.354e-5
-1.095, -1.360e-5
-1.094, -1.381e-5
-1.093, -1.380e-5
-1.092, -1.390e-5
-1.091, -1.404e-5
-1.090, -1.418e-5
-1.089, -1.434e-5
-1.088, -1.439e-5
-1.087, -1.444e-5
-1.086, -1.459e-5
-1.085, -1.465e-5
-1.084, -1.481e-5
-1.083, -1.495e-5
-1.082, -1.498e-5
-1.081, -1.518e-5
-1.080, -1.519e-5
-1.079, -1.540e-5
-1.078, -1.550e-5
-1.077, -1.560e-5
-1.076, -1.574e-5
-1.075, -1.588e-5
-1.074, -1.603e-5
-1.073, -1.616e-5
-1.072, -1.620e-5
-1.071, -1.636e-5
-1.070, -1.653e-5
-1.069, -1.665e-5
-1.068, -1.676e-5
-1.067, -1.693e-5
-1.066, -1.701e-5
-1.065, -1.721e-5
-1.064, -1.732e-5
-1.063, -1.748e-5
-1.062, -1.764e-5
-1.061, -1.775e-5
-1.060, -1.793e-5
-1.059, -1.822e-5
-1.058, -1.833e-5
-1.057, -1.848e-5
-1.056, -1.860e-5
-1.055, -1.875e-5
-1.054, -1.900e-5
-1.053, -1.910e-5
-1.052, -1.924e-5
-1.051, -1.950e-5
-1.050, -1.966e-5
-1.049, -1.988e-5
-1.048, -2.000e-5
-1.047, -2.011e-5
-1.046, -2.036e-5
-1.045, -2.052e-5
-1.044, -2.069e-5
-1.043, -2.095e-5
-1.042, -2.109e-5
-1.041, -2.134e-5
-1.040, -2.144e-5
-1.039, -2.167e-5
-1.038, -2.185e-5
-1.037, -2.194e-5
-1.036, -2.220e-5
-1.035, -2.247e-5
-1.034, -2.260e-5
-1.033, -2.282e-5
-1.032, -2.293e-5
-1.031, -2.312e-5
-1.030, -2.343e-5
-1.029, -2.361e-5
-1.028, -2.378e-5
-1.027, -2.401e-5
-1.026, -2.422e-5
-1.025, -2.450e-5
-1.024, -2.479e-5
-1.023, -2.493e-5
-1.022, -2.521e-5
-1.021, -2.540e-5
-1.020, -2.567e-5
-1.019, -2.597e-5
-1.018, -2.616e-5
-1.017, -2.642e-5
-1.016, -2.663e-5
-1.015, -2.690e-5
-1.014, -2.718e-5
-1.013, -2.741e-5
-1.012, -2.761e-5
-1.011, -2.796e-5
-1.010, -2.823e-5
-1.009, -2.852e-5
-1.008, -2.874e-5
-1.007, -2.898e-5
-1.006, -2.928e-5
-1.005, -2.957e-5
-1.004, -2.985e-5
-1.003, -3.018e-5
-1.002, -3.041e-5
-1.001, -3.074e-5
-1.000, -2.345e-5
-1.001, -1.959e-5
-1.002, -1.771e-5
-1.003, -1.620e-5
-1.004, -1.494e-5
-1.005, -1.388e-5
-1.006, -1.288e-5
-1.007, -1.196e-5
-1.008, -1.117e-5
-1.009, -1.036e-5
-1.010, -9.614e-6
-1.011, -8.972e-6
-1.012, -8.309e-6
-1.013, -7.634e-6
-1.014, -7.084e-6
-1.015, -6.414e-6
-1.016, -5.870e-6
-1.017, -5.281e-6
-1.018, -4.650e-6
-1.019, -4.127e-6
-1.020, -3.595e-6
-1.021, -2.966e-6
-1.022, -2.357e-6
-1.023, -1.705e-6
-1.024, -1.215e-6
-1.025, -8.891e-7
-1.026, -4.678e-7
-1.027, -2.676e-7
-1.028, 8.662e-8
-1.029, 3.126e-7
-1.030, 5.789e-7
-1.031, 8.808e-7
-1.032, 1.133e-6
-1.033, 1.452e-6
-1.034, 1.719e-6
-1.035, 1.945e-6
-1.036, 2.187e-6
-1.037, 2.479e-6
-1.038, 2.721e-6
-1.039, 3.007e-6
-1.040, 3.152e-6
-1.041, 3.402e-6
-1.042, 3.669e-6
-1.043, 3.916e-6
-1.044, 4.166e-6
-1.045, 4.330e-6
-1.046, 4.538e-6
-1.047, 4.821e-6
-1.048, 5.027e-6
-1.049, 5.212e-6
-1.050, 5.492e-6
-1.051, 5.609e-6
-1.052, 5.840e-6
-1.053, 6.075e-6
-1.054, 6.220e-6
-1.055, 6.400e-6
-1.056, 6.567e-6
-1.057, 6.747e-6
-1.058, 6.994e-6
-1.059, 7.079e-6
-1.060, 7.246e-6
-1.061, 7.426e-6
-1.062, 7.564e-6
-1.063, 7.768e-6
-1.064, 7.855e-6
-1.065, 8.011e-6
-1.066, 8.184e-6
-1.067, 8.298e-6
-1.068, 8.456e-6
-1.069, 8.591e-6
-1.070, 8.675e-6
-1.071, 8.819e-6
-1.072, 8.894e-6
-1.073, 9.091e-6
-1.074, 9.208e-6
-1.075, 9.316e-6
-1.076, 9.376e-6
-1.077, 9.517e-6
-1.078, 9.609e-6
-1.079, 9.718e-6
-1.080, 9.767e-6
-1.081, 9.847e-6
-1.082, 1.002e-5
-1.083, 1.010e-5
-1.084, 1.018e-5
-1.085, 1.025e-5
-1.086, 1.028e-5
-1.087, 1.042e-5
-1.088, 1.057e-5
-1.089, 1.058e-5
-1.090, 1.063e-5
-1.091, 1.069e-5
-1.092, 1.083e-5
-1.093, 1.094e-5
-1.094, 1.093e-5
-1.095, 1.103e-5
-1.096, 1.103e-5
-1.097, 1.117e-5
-1.098, 1.127e-5
-1.099, 1.125e-5
-1.100, 1.133e-5
-1.101, 1.138e-5
-1.102, 1.146e-5
-1.103, 1.158e-5
-1.104, 1.153e-5
-1.105, 1.158e-5
-1.106, 1.166e-5
-1.107, 1.173e-5
-1.108, 1.177e-5
-1.109, 1.181e-5
-1.110, 1.182e-5
-1.111, 1.186e-5
-1.112, 1.196e-5
-1.113, 1.199e-5
-1.114, 1.205e-5
-1.115, 1.207e-5
-1.116, 1.206e-5
-1.117, 1.218e-5
-1.118, 1.220e-5
-1.119, 1.224e-5
-1.120, 1.222e-5
-1.121, 1.225e-5
-1.122, 1.241e-5
-1.123, 1.238e-5
-1.124, 1.242e-5
-1.125, 1.242e-5
-1.126, 1.242e-5
-1.127, 1.257e-5
-1.128, 1.252e-5
-1.129, 1.259e-5
-1.130, 1.258e-5
-1.131, 1.254e-5
-1.132, 1.270e-5
-1.133, 1.273e-5
-1.134, 1.269e-5
-1.135, 1.273e-5
-1.136, 1.274e-5
-1.137, 1.281e-5
-1.138, 1.284e-5
-1.139, 1.282e-5
-1.140, 1.286e-5
-1.141, 1.286e-5
-1.142, 1.291e-5
-1.143, 1.298e-5
-1.144, 1.295e-5
-1.145, 1.293e-5
-1.146, 1.303e-5
-1.147, 1.303e-5
-1.148, 1.306e-5
-1.149, 1.307e-5
-1.150, 1.306e-5
-1.151, 1.312e-5
-1.152, 1.313e-5
-1.153, 1.313e-5
-1.154, 1.319e-5
-1.155, 1.312e-5
-1.156, 1.322e-5
-1.157, 1.325e-5
-1.158, 1.323e-5
-1.159, 1.333e-5
-1.160, 1.322e-5
-1.161, 1.323e-5
-1.162, 1.338e-5
-1.163, 1.331e-5
-1.164, 1.338e-5
-1.165, 1.334e-5
-1.166, 1.332e-5
-1.167, 1.346e-5
-1.168, 1.341e-5
-1.169, 1.343e-5
-1.170, 1.349e-5
-1.171, 1.340e-5
-1.172, 1.350e-5
-1.173, 1.354e-5
-1.174, 1.350e-5
-1.175, 1.356e-5
-1.176, 1.351e-5
-1.177, 1.363e-5
-1.178, 1.363e-5
-1.179, 1.364e-5
-1.180, 1.364e-5
-1.181, 1.367e-5
-1.182, 1.368e-5
-1.183, 1.373e-5
-1.184, 1.374e-5
-1.185, 1.373e-5
-1.186, 1.375e-5
-1.187, 1.385e-5
-1.188, 1.386e-5
-1.189, 1.387e-5
-1.190, 1.382e-5
-1.191, 1.390e-5
-1.192, 1.394e-5
-1.193, 1.393e-5
-1.194, 1.406e-5
-1.195, 1.395e-5
-1.196, 1.401e-5
-1.197, 1.412e-5
-1.198, 1.411e-5
-1.199, 1.419e-5
-1.200, 1.414e-5
-1.201, 1.417e-5
-1.202, 1.433e-5
-1.203, 1.430e-5
-1.204, 1.432e-5
-1.205, 1.431e-5
-1.206, 1.434e-5
-1.207, 1.452e-5
-1.208, 1.446e-5
-1.209, 1.449e-5
-1.210, 1.453e-5
-1.211, 1.456e-5
-1.212, 1.467e-5
-1.213, 1.468e-5
-1.214, 1.472e-5
-1.215, 1.476e-5
-1.216, 1.477e-5
-1.217, 1.489e-5
-1.218, 1.495e-5
-1.219, 1.497e-5
-1.220, 1.500e-5
-1.221, 1.505e-5
-1.222, 1.515e-5
-1.223, 1.525e-5
-1.224, 1.528e-5
-1.225, 1.534e-5
-1.226, 1.542e-5
-1.227, 1.547e-5
-1.228, 1.559e-5
-1.229, 1.569e-5
-1.230, 1.573e-5
-1.231, 1.580e-5
-1.232, 1.594e-5
-1.233, 1.609e-5
-1.234, 1.608e-5
-1.235, 1.616e-5
-1.236, 1.625e-5
-1.237, 1.642e-5
-1.238, 1.645e-5
-1.239, 1.663e-5
-1.240, 1.667e-5
-1.241, 1.677e-5
-1.242, 1.690e-5
-1.243, 1.703e-5
-1.244, 1.713e-5
-1.245, 1.726e-5
-1.246, 1.735e-5
-1.247, 1.757e-5
-1.248, 1.763e-5
-1.249, 1.777e-5
-1.250, 1.795e-5
-1.251, 1.800e-5
-1.252, 1.823e-5
-1.253, 1.839e-5
-1.254, 1.849e-5
-1.255, 1.871e-5
-1.256, 1.881e-5
-1.257, 1.900e-5
-1.258, 1.922e-5
-1.259, 1.935e-5
-1.260, 1.950e-5
-1.261, 1.970e-5
-1.262, 1.988e-5
-1.263, 2.011e-5
-1.264, 2.027e-5
-1.265, 2.047e-5
-1.266, 2.070e-5
-1.267, 2.091e-5
-1.268, 2.117e-5
-1.269, 2.141e-5
-1.270, 2.157e-5
-1.271, 2.183e-5
-1.272, 2.211e-5
-1.273, 2.234e-5
-1.274, 2.265e-5
-1.275, 2.285e-5
-1.276, 2.311e-5
-1.277, 2.340e-5
-1.278, 2.373e-5
-1.279, 2.400e-5
-1.280, 2.429e-5
-1.281, 2.462e-5
-1.282, 2.491e-5
-1.283, 2.523e-5
-1.284, 2.556e-5
-1.285, 2.588e-5
-1.286, 2.620e-5
-1.287, 2.661e-5
-1.288, 2.696e-5
-1.289, 2.728e-5
-1.290, 2.769e-5
-1.291, 2.805e-5
-1.292, 2.848e-5
-1.293, 2.893e-5
-1.294, 2.935e-5
-1.295, 2.975e-5
-1.296, 3.017e-5
-1.297, 3.067e-5
-1.298, 3.115e-5
-1.299, 3.157e-5
-1.300, 3.206e-5
-1.301, 3.254e-5
-1.302, 3.305e-5
-1.303, 3.366e-5
-1.304, 3.415e-5
-1.305, 3.465e-5
-1.306, 3.535e-5
-1.307, 3.589e-5
-1.308, 3.649e-5
-1.309, 3.710e-5
-1.310, 3.768e-5
-1.311, 3.840e-5
-1.312, 3.903e-5
-1.313, 3.973e-5
-1.314, 4.049e-5
-1.315, 4.109e-5
-1.316, 4.185e-5
-1.317, 4.263e-5
-1.318, 4.339e-5
-1.319, 4.418e-5
-1.320, 4.495e-5
-1.321, 4.580e-5
-1.322, 4.662e-5
-1.323, 4.747e-5
-1.324, 4.838e-5
-1.325, 4.924e-5
-1.326, 5.014e-5
-1.327, 5.113e-5
-1.328, 5.203e-5
-1.329, 5.299e-5
-1.330, 5.401e-5
-1.331, 5.499e-5
-1.332, 5.610e-5
-1.333, 5.711e-5
-1.334, 5.816e-5
-1.335, 5.929e-5
-1.336, 6.039e-5
-1.337, 6.156e-5
-1.338, 6.283e-5
-1.339, 6.398e-5
-1.340, 6.534e-5
-1.341, 6.651e-5
-1.342, 6.776e-5
-1.343, 6.910e-5
-1.344, 7.042e-5
-1.345, 7.169e-5
-1.346, 7.314e-5
-1.347, 7.454e-5
-1.348, 7.601e-5
-1.349, 7.744e-5
-1.350, 7.887e-5
-1.351, 8.044e-5
-1.352, 8.195e-5
-1.353, 8.350e-5
-1.354, 8.516e-5
-1.355, 8.673e-5
-1.356, 8.839e-5
-1.357, 9.010e-5
-1.358, 9.177e-5
-1.359, 9.359e-5
-1.360, 9.524e-5
-1.361, 9.719e-5
-1.362, 9.908e-5
-1.363, 1.009e-4
-1.364, 1.029e-4
-1.365, 1.048e-4
-1.366, 1.067e-4
-1.367, 1.089e-4
-1.368, 1.109e-4
-1.369, 1.130e-4
-1.370, 1.151e-4
-1.371, 1.172e-4
-1.372, 1.195e-4
-1.373, 1.218e-4
-1.374, 1.241e-4
-1.375, 1.265e-4
-1.376, 1.287e-4
-1.377, 1.312e-4
-1.378, 1.336e-4
-1.379, 1.361e-4
-1.380, 1.386e-4
-1.381, 1.412e-4
-1.382, 1.439e-4
-1.383, 1.466e-4
-1.384, 1.492e-4
-1.385, 1.519e-4
-1.386, 1.547e-4
-1.387, 1.575e-4
-1.388, 1.605e-4
-1.389, 1.633e-4
-1.390, 1.663e-4
-1.391, 1.694e-4
-1.392, 1.724e-4
-1.393, 1.755e-4
-1.394, 1.786e-4
-1.395, 1.817e-4
-1.396, 1.849e-4
-1.397, 1.883e-4
-1.398, 1.915e-4
-1.399, 1.950e-4
-1.400, 1.982e-4
-1.401, 2.017e-4
-1.402, 2.054e-4
-1.403, 2.088e-4
-1.404, 2.124e-4
-1.405, 2.160e-4
-1.406, 2.197e-4
-1.407, 2.235e-4
-1.408, 2.272e-4
-1.409, 2.311e-4
-1.410, 2.348e-4
-1.411, 2.386e-4
-1.412, 2.426e-4
-1.413, 2.466e-4
-1.414, 2.507e-4
-1.415, 2.548e-4
-1.416, 2.589e-4
-1.417, 2.629e-4
-1.418, 2.672e-4
-1.419, 2.714e-4
-1.420, 2.757e-4
-1.421, 2.800e-4
-1.422, 2.843e-4
-1.423, 2.886e-4
-1.424, 2.930e-4
-1.425, 2.976e-4
-1.426, 3.021e-4
-1.427, 3.066e-4
-1.428, 3.110e-4
-1.429, 3.158e-4
-1.430, 3.202e-4
-1.431, 3.249e-4
-1.432, 3.296e-4
-1.433, 3.345e-4
-1.434, 3.391e-4
-1.435, 3.437e-4
-1.436, 3.486e-4
-1.437, 3.534e-4
-1.438, 3.581e-4
-1.439, 3.630e-4
-1.440, 3.677e-4
-1.441, 3.728e-4
-1.442, 3.775e-4
-1.443, 3.822e-4
-1.444, 3.872e-4
-1.445, 3.920e-4
-1.446, 3.970e-4
-1.447, 4.019e-4
-1.448, 4.066e-4
-1.449, 4.115e-4
-1.450, 4.167e-4
-1.451, 4.216e-4
-1.452, 4.269e-4
-1.453, 4.318e-4
-1.454, 4.367e-4
-1.455, 4.414e-4
-1.456, 4.467e-4
-1.457, 4.516e-4
-1.458, 4.565e-4
-1.459, 4.613e-4
-1.460, 4.663e-4
-1.461, 4.712e-4
-1.462, 4.767e-4
-1.463, 4.814e-4
-1.464, 4.860e-4
-1.465, 4.909e-4
-1.466, 4.961e-4
-1.467, 5.010e-4
-1.468, 5.057e-4
-1.469, 5.105e-4
-1.470, 5.151e-4
-1.471, 5.201e-4
-1.472, 5.251e-4
-1.473, 5.300e-4
-1.474, 5.349e-4
-1.475, 5.396e-4
-1.476, 5.444e-4
-1.477, 5.493e-4
-1.478, 5.541e-4
-1.479, 5.588e-4
-1.480, 5.636e-4
-1.481, 5.688e-4
-1.482, 5.727e-4
-1.483, 5.772e-4
-1.484, 5.825e-4
-1.485, 5.876e-4
-1.486, 5.921e-4
-1.487, 5.966e-4
-1.488, 6.013e-4
-1.489, 6.063e-4
-1.490, 6.106e-4
-1.491, 6.155e-4
-1.492, 6.200e-4
-1.493, 6.251e-4
-1.494, 6.300e-4
-1.495, 6.345e-4
-1.496, 6.388e-4
-1.497, 6.433e-4
-1.498, 6.479e-4
-1.499, 6.523e-4
-1.500, 6.570e-4
-1.501, 6.619e-4
-1.502, 6.663e-4
-1.503, 6.708e-4
-1.504, 6.748e-4
-1.505, 6.796e-4
-1.506, 6.844e-4
-1.507, 6.893e-4
-1.508, 6.941e-4
-1.509, 6.992e-4
-1.510, 7.043e-4
-1.511, 7.085e-4
-1.512, 7.124e-4
-1.513, 7.168e-4
-1.514, 7.219e-4
-1.515, 7.263e-4
-1.516, 7.311e-4
-1.517, 7.364e-4
-1.518, 7.417e-4
-1.519, 7.465e-4
-1.520, 7.515e-4
-1.521, 7.555e-4
-1.522, 7.607e-4
-1.523, 7.653e-4
-1.524, 7.704e-4
-1.525, 7.762e-4
-1.526, 7.820e-4
-1.527, 7.872e-4
-1.528, 7.920e-4
-1.529, 7.973e-4
-1.530, 8.025e-4
-1.531, 8.077e-4
-1.532, 8.139e-4
-1.533, 8.196e-4
-1.534, 8.252e-4
-1.535, 8.310e-4
-1.536, 8.365e-4
-1.537, 8.420e-4
-1.538, 8.471e-4
-1.539, 8.525e-4
-1.540, 8.574e-4
-1.541, 8.636e-4
-1.542, 8.693e-4
-1.543, 8.758e-4
-1.544, 8.815e-4
-1.545, 8.876e-4
-1.546, 8.942e-4
-1.547, 9.004e-4
-1.548, 9.066e-4
-1.549, 9.127e-4
-1.550, 9.191e-4
-1.551, 9.259e-4
-1.552, 9.324e-4
-1.553, 9.389e-4
-1.554, 9.457e-4
-1.555, 9.527e-4
-1.556, 9.592e-4
-1.557, 9.664e-4
-1.558, 9.737e-4
-1.559, 9.813e-4
-1.560, 9.895e-4
-1.561, 9.976e-4
-1.562, 1.007e-3
-1.563, 1.014e-3
-1.564, 1.022e-3
-1.565, 1.030e-3
-1.566, 1.038e-3
-1.567, 1.047e-3
-1.568, 1.054e-3
-1.569, 1.063e-3
-1.570, 1.072e-3
-1.571, 1.080e-3
-1.572, 1.089e-3
-1.573, 1.098e-3
-1.574, 1.108e-3
-1.575, 1.117e-3
-1.576, 1.125e-3
-1.577, 1.135e-3
-1.578, 1.145e-3
-1.579, 1.157e-3
-1.580, 1.168e-3
-1.581, 1.178e-3
-1.582, 1.188e-3
-1.583, 1.203e-3
-1.584, 1.213e-3
-1.585, 1.226e-3
-1.586, 1.239e-3
-1.587, 1.253e-3
-1.588, 1.266e-3
-1.589, 1.279e-3
-1.590, 1.292e-3
-1.591, 1.304e-3
-1.592, 1.317e-3
-1.593, 1.331e-3
-1.594, 1.342e-3
-1.595, 1.355e-3
-1.596, 1.372e-3
-1.597, 1.387e-3
-1.598, 1.403e-3
-1.599, 1.418e-3
-1.600, 1.433e-3
-1.601, 1.447e-3
-1.602, 1.459e-3
-1.603, 1.473e-3
-1.604, 1.490e-3
-1.605, 1.507e-3
-1.606, 1.525e-3
-1.607, 1.541e-3
-1.608, 1.557e-3
-1.609, 1.573e-3
-1.610, 1.592e-3
-1.611, 1.612e-3
-1.612, 1.631e-3
-1.613, 1.651e-3
-1.614, 1.671e-3
-1.615, 1.689e-3
-1.616, 1.707e-3
-1.617, 1.729e-3
-1.618, 1.749e-3
-1.619, 1.773e-3
-1.620, 1.791e-3
-1.621, 1.813e-3
-1.622, 1.833e-3
-1.623, 1.854e-3
-1.624, 1.874e-3
-1.625, 1.897e-3
-1.626, 1.923e-3
-1.627, 1.945e-3
-1.628, 1.970e-3
-1.629, 1.991e-3
-1.630, 2.014e-3
-1.631, 2.045e-3
-1.632, 2.075e-3
-1.633, 2.103e-3
-1.634, 2.128e-3
-1.635, 2.154e-3
-1.636, 2.180e-3
-1.637, 2.209e-3
-1.638, 2.241e-3
-1.639, 2.272e-3
-1.640, 2.300e-3
-1.641, 2.334e-3
-1.642, 2.359e-3
-1.643, 2.386e-3
-1.644, 2.417e-3
-1.645, 2.448e-3
-1.646, 2.482e-3
-1.647, 2.513e-3
-1.648, 2.544e-3
-1.649, 2.576e-3
-1.650, 2.606e-3
-1.651, 2.638e-3
-1.652, 2.671e-3
-1.653, 2.699e-3
-1.654, 2.732e-3
-1.655, 2.772e-3
-1.656, 2.821e-3
-1.657, 2.857e-3
-1.658, 2.889e-3
-1.659, 2.920e-3
-1.660, 2.953e-3
-1.661, 2.991e-3
-1.662, 3.030e-3
-1.663, 3.062e-3
-1.664, 3.099e-3
-1.665, 3.142e-3
-1.666, 3.189e-3
-1.667, 3.226e-3
-1.668, 3.268e-3
-1.669, 3.303e-3
-1.670, 3.339e-3
-1.671, 3.383e-3
-1.672, 3.438e-3
-1.673, 3.489e-3
-1.674, 3.548e-3
-1.675, 3.589e-3
-1.676, 3.636e-3
-1.677, 3.683e-3
-1.678, 3.719e-3
-1.679, 3.750e-3
-1.680, 3.804e-3
-1.681, 3.861e-3
-1.682, 3.912e-3
-1.683, 3.967e-3
-1.684, 4.018e-3
-1.685, 4.070e-3
-1.686, 4.107e-3
-1.687, 4.171e-3
-1.688, 4.215e-3
-1.689, 4.278e-3
-1.690, 4.316e-3
-1.691, 4.374e-3
-1.692, 4.425e-3
-1.693, 4.463e-3
-1.694, 4.508e-3
-1.695, 4.553e-3
-1.696, 4.616e-3
-1.697, 4.674e-3
-1.698, 4.718e-3
-1.699, 4.761e-3
-1.700, 4.772e-3
-1.699, 4.717e-3
-1.698, 4.681e-3
-1.697, 4.641e-3
-1.696, 4.597e-3
-1.695, 4.524e-3
-1.694, 4.472e-3
-1.693, 4.424e-3
-1.692, 4.380e-3
-1.691, 4.353e-3
-1.690, 4.307e-3
-1.689, 4.278e-3
-1.688, 4.264e-3
-1.687, 4.203e-3
-1.686, 4.151e-3
-1.685, 4.103e-3
-1.684, 4.036e-3
-1.683, 3.996e-3
-1.682, 3.987e-3
-1.681, 3.964e-3
-1.680, 3.921e-3
-1.679, 3.871e-3
-1.678, 3.823e-3
-1.677, 3.775e-3
-1.676, 3.734e-3
-1.675, 3.690e-3
-1.674, 3.649e-3
-1.673, 3.608e-3
-1.672, 3.565e-3
-1.671, 3.525e-3
-1.670, 3.470e-3
-1.669, 3.421e-3
-1.668, 3.377e-3
-1.667, 3.341e-3
-1.666, 3.304e-3
-1.665, 3.268e-3
-1.664, 3.236e-3
-1.663, 3.188e-3
-1.662, 3.147e-3
-1.661, 3.103e-3
-1.660, 3.056e-3
-1.659, 3.014e-3
-1.658, 2.971e-3
-1.657, 2.931e-3
-1.656, 2.888e-3
-1.655, 2.847e-3
-1.654, 2.813e-3
-1.653, 2.778e-3
-1.652, 2.738e-3
-1.651, 2.697e-3
-1.650, 2.661e-3
-1.649, 2.616e-3
-1.648, 2.575e-3
-1.647, 2.537e-3
-1.646, 2.501e-3
-1.645, 2.460e-3
-1.644, 2.419e-3
-1.643, 2.381e-3
-1.642, 2.345e-3
-1.641, 2.311e-3
-1.640, 2.275e-3
-1.639, 2.241e-3
-1.638, 2.208e-3
-1.637, 2.183e-3
-1.636, 2.144e-3
-1.635, 2.104e-3
-1.634, 2.068e-3
-1.633, 2.033e-3
-1.632, 2.005e-3
-1.631, 1.974e-3
-1.630, 1.942e-3
-1.629, 1.910e-3
-1.628, 1.877e-3
-1.627, 1.845e-3
-1.626, 1.815e-3
-1.625, 1.786e-3
-1.624, 1.756e-3
-1.623, 1.728e-3
-1.622, 1.701e-3
-1.621, 1.675e-3
-1.620, 1.645e-3
-1.619, 1.622e-3
-1.618, 1.594e-3
-1.617, 1.565e-3
-1.616, 1.537e-3
-1.615, 1.509e-3
-1.614, 1.485e-3
-1.613, 1.460e-3
-1.612, 1.440e-3
-1.611, 1.425e-3
-1.610, 1.405e-3
-1.609, 1.382e-3
-1.608, 1.361e-3
-1.607, 1.340e-3
-1.606, 1.318e-3
-1.605, 1.297e-3
-1.604, 1.276e-3
-1.603, 1.255e-3
-1.602, 1.234e-3
-1.601, 1.212e-3
-1.600, 1.190e-3
-1.599, 1.170e-3
-1.598, 1.150e-3
-1.597, 1.131e-3
-1.596, 1.111e-3
-1.595, 1.092e-3
-1.594, 1.073e-3
-1.593, 1.054e-3
-1.592, 1.037e-3
-1.591, 1.019e-3
-1.590, 1.003e-3
-1.589, 9.845e-4
-1.588, 9.683e-4
-1.587, 9.492e-4
-1.586, 9.336e-4
-1.585, 9.173e-4
-1.584, 9.001e-4
-1.583, 8.863e-4
-1.582, 8.701e-4
-1.581, 8.559e-4
-1.580, 8.409e-4
-1.579, 8.267e-4
-1.578, 8.131e-4
-1.577, 7.998e-4
-1.576, 7.862e-4
-1.575, 7.730e-4
-1.574, 7.606e-4
-1.573, 7.486e-4
-1.572, 7.359e-4
-1.571, 7.236e-4
-1.570, 7.115e-4
-1.569, 6.997e-4
-1.568, 6.880e-4
-1.567, 6.766e-4
-1.566, 6.655e-4
-1.565, 6.546e-4
-1.564, 6.438e-4
-1.563, 6.333e-4
-1.562, 6.229e-4
-1.561, 6.133e-4
-1.560, 6.041e-4
-1.559, 5.939e-4
-1.558, 5.840e-4
-1.557, 5.749e-4
-1.556, 5.670e-4
-1.555, 5.575e-4
-1.554, 5.487e-4
-1.553, 5.400e-4
-1.552, 5.319e-4
-1.551, 5.240e-4
-1.550, 5.157e-4
-1.549, 5.077e-4
-1.548, 5.007e-4
-1.547, 4.936e-4
-1.546, 4.859e-4
-1.545, 4.777e-4
-1.544, 4.719e-4
-1.543, 4.658e-4
-1.542, 4.582e-4
-1.541, 4.519e-4
-1.540, 4.446e-4
-1.539, 4.378e-4
-1.538, 4.314e-4
-1.537, 4.254e-4
-1.536, 4.189e-4
-1.535, 4.127e-4
-1.534, 4.068e-4
-1.533, 4.009e-4
-1.532, 3.951e-4
-1.531, 3.887e-4
-1.530, 3.826e-4
-1.529, 3.770e-4
-1.528, 3.716e-4
-1.527, 3.658e-4
-1.526, 3.606e-4
-1.525, 3.550e-4
-1.524, 3.499e-4
-1.523, 3.451e-4
-1.522, 3.401e-4
-1.521, 3.353e-4
-1.520, 3.305e-4
-1.519, 3.259e-4
-1.518, 3.212e-4
-1.517, 3.166e-4
-1.516, 3.120e-4
-1.515, 3.076e-4
-1.514, 3.036e-4
-1.513, 2.991e-4
-1.512, 2.950e-4
-1.511, 2.907e-4
-1.510, 2.866e-4
-1.509, 2.826e-4
-1.508, 2.787e-4
-1.507, 2.747e-4
-1.506, 2.709e-4
-1.505, 2.671e-4
-1.504, 2.640e-4
-1.503, 2.592e-4
-1.502, 2.564e-4
-1.501, 2.535e-4
-1.500, 2.497e-4
-1.499, 2.458e-4
-1.498, 2.423e-4
-1.497, 2.388e-4
-1.496, 2.353e-4
-1.495, 2.322e-4
-1.494, 2.290e-4
-1.493, 2.260e-4
-1.492, 2.228e-4
-1.491, 2.197e-4
-1.490, 2.170e-4
-1.489, 2.142e-4
-1.488, 2.114e-4
-1.487, 2.084e-4
-1.486, 2.054e-4
-1.485, 2.026e-4
-1.484, 1.997e-4
-1.483, 1.971e-4
-1.482, 1.942e-4
-1.481, 1.913e-4
-1.480, 1.890e-4
-1.479, 1.865e-4
-1.478, 1.838e-4
-1.477, 1.811e-4
-1.476, 1.785e-4
-1.475, 1.761e-4
-1.474, 1.735e-4
-1.473, 1.710e-4
-1.472, 1.690e-4
-1.471, 1.665e-4
-1.470, 1.641e-4
-1.469, 1.618e-4
-1.468, 1.594e-4
-1.467, 1.570e-4
-1.466, 1.547e-4
-1.465, 1.525e-4
-1.464, 1.504e-4
-1.463, 1.483e-4
-1.462, 1.463e-4
-1.461, 1.445e-4
-1.460, 1.420e-4
-1.459, 1.400e-4
-1.458, 1.380e-4
-1.457, 1.359e-4
-1.456, 1.340e-4
-1.455, 1.320e-4
-1.454, 1.301e-4
-1.453, 1.282e-4
-1.452, 1.263e-4
-1.451, 1.244e-4
-1.450, 1.225e-4
-1.449, 1.206e-4
-1.448, 1.190e-4
-1.447, 1.171e-4
-1.446, 1.158e-4
-1.445, 1.139e-4
-1.444, 1.122e-4
-1.443, 1.105e-4
-1.442, 1.089e-4
-1.441, 1.074e-4
-1.440, 1.058e-4
-1.439, 1.045e-4
-1.438, 1.028e-4
-1.437, 1.012e-4
-1.436, 9.959e-5
-1.435, 9.810e-5
-1.434, 9.671e-5
-1.433, 9.526e-5
-1.432, 9.387e-5
-1.431, 9.241e-5
-1.430, 9.131e-5
-1.429, 8.977e-5
-1.428, 8.838e-5
-1.427, 8.697e-5
-1.426, 8.577e-5
-1.425, 8.426e-5
-1.424, 8.309e-5
-1.423, 8.197e-5
-1.422, 8.059e-5
-1.421, 7.926e-5
-1.420, 7.811e-5
-1.419, 7.689e-5
-1.418, 7.571e-5
-1.417, 7.464e-5
-1.416, 7.347e-5
-1.415, 7.241e-5
-1.414, 7.130e-5
-1.413, 7.022e-5
-1.412, 6.915e-5
-1.411, 6.795e-5
-1.410, 6.697e-5
-1.409, 6.598e-5
-1.408, 6.488e-5
-1.407, 6.389e-5
-1.406, 6.282e-5
-1.405, 6.184e-5
-1.404, 6.087e-5
-1.403, 5.985e-5
-1.402, 5.885e-5
-1.401, 5.782e-5
-1.400, 5.690e-5
-1.399, 5.600e-5
-1.398, 5.506e-5
-1.397, 5.418e-5
-1.396, 5.320e-5
-1.395, 5.225e-5
-1.394, 5.146e-5
-1.393, 5.058e-5
-1.392, 4.974e-5
-1.391, 4.881e-5
-1.390, 4.791e-5
-1.389, 4.718e-5
-1.388, 4.635e-5
-1.387, 4.550e-5
-1.386, 4.466e-5
-1.385, 4.384e-5
-1.384, 4.316e-5
-1.383, 4.231e-5
-1.382, 4.155e-5
-1.381, 4.083e-5
-1.380, 4.006e-5
-1.379, 3.937e-5
-1.378, 3.874e-5
-1.377, 3.795e-5
-1.376, 3.722e-5
-1.375, 3.652e-5
-1.374, 3.592e-5
-1.373, 3.535e-5
-1.372, 3.462e-5
-1.371, 3.403e-5
-1.370, 3.345e-5
-1.369, 3.290e-5
-1.368, 3.252e-5
-1.367, 3.181e-5
-1.366, 3.112e-5
-1.365, 3.060e-5
-1.364, 3.008e-5
-1.363, 2.944e-5
-1.362, 2.896e-5
-1.361, 2.842e-5
-1.360, 2.785e-5
-1.359, 2.736e-5
-1.358, 2.675e-5
-1.357, 2.628e-5
-1.356, 2.574e-5
-1.355, 2.520e-5
-1.354, 2.480e-5
-1.353, 2.424e-5
-1.352, 2.379e-5
-1.351, 2.328e-5
-1.350, 2.275e-5
-1.349, 2.239e-5
-1.348, 2.192e-5
-1.347, 2.141e-5
-1.346, 2.100e-5
-1.345, 2.053e-5
-1.344, 2.017e-5
-1.343, 1.970e-5
-1.342, 1.928e-5
-1.341, 1.891e-5
-1.340, 1.846e-5
-1.339, 1.806e-5
-1.338, 1.767e-5
-1.337, 1.725e-5
-1.336, 1.700e-5
-1.335, 1.650e-5
-1.334, 1.612e-5
-1.333, 1.576e-5
-1.332, 1.540e-5
-1.331, 1.511e-5
-1.330, 1.473e-5
-1.329, 1.435e-5
-1.328, 1.405e-5
-1.327, 1.381e-5
-1.326, 1.334e-5
-1.325, 1.306e-5
-1.324, 1.279e-5
-1.323, 1.239e-5
-1.322, 1.216e-5
-1.321, 1.186e-5
-1.320, 1.154e-5
-1.319, 1.128e-5
-1.318, 1.096e-5
-1.317, 1.068e-5
-1.316, 1.038e-5
-1.315, 1.008e-5
-1.314, 9.891e-6
-1.313, 9.576e-6
-1.312, 9.324e-6
-1.311, 9.084e-6
-1.310, 8.785e-6
-1.309, 8.620e-6
-1.308, 8.339e-6
-1.307, 8.066e-6
-1.306, 7.827e-6
-1.305, 7.559e-6
-1.304, 7.418e-6
-1.303, 7.164e-6
-1.302, 6.914e-6
-1.301, 6.717e-6
-1.300, 6.478e-6
-1.299, 6.255e-6
-1.298, 6.069e-6
-1.297, 5.815e-6
-1.296, 5.674e-6
-1.295, 5.433e-6
-1.294, 5.223e-6
-1.293, 5.059e-6
-1.292, 4.850e-6
-1.291, 4.636e-6
-1.290, 4.436e-6
-1.289, 4.277e-6
-1.288, 4.086e-6
-1.287, 3.930e-6
-1.286, 3.671e-6
-1.285, 3.574e-6
-1.284, 3.367e-6
-1.283, 3.161e-6
-1.282, 3.056e-6
-1.281, 2.793e-6
-1.280, 2.638e-6
-1.279, 2.559e-6
-1.278, 2.371e-6
-1.277, 2.214e-6
-1.276, 2.066e-6
-1.275, 1.880e-6
-1.274, 1.751e-6
-1.273, 1.579e-6
-1.272, 1.461e-6
-1.271, 1.327e-6
-1.270, 1.133e-6
-1.269, 1.046e-6
-1.268, 8.946e-7
-1.267, 6.973e-7
-1.266, 6.204e-7
-1.265, 4.448e-7
-1.264, 3.530e-7
-1.263, 2.346e-7
-1.262, 3.927e-8
-1.261, -3.769e-8
-1.260, -1.906e-7
-1.259, -3.416e-7
-1.258, -4.096e-7
-1.257, -5.843e-7
-1.256, -6.454e-7
-1.255, -8.299e-7
-1.254, -9.059e-7
-1.253, -1.048e-6
-1.252, -1.134e-6
-1.251, -1.291e-6
-1.250, -1.383e-6
-1.249, -1.524e-6
-1.248, -1.581e-6
-1.247, -1.673e-6
-1.246, -1.842e-6
-1.245, -1.834e-6
-1.244, -2.006e-6
-1.243, -2.147e-6
-1.242, -2.241e-6
-1.241, -2.362e-6
-1.240, -2.456e-6
-1.239, -2.464e-6
-1.238, -2.624e-6
-1.237, -2.688e-6
-1.236, -2.816e-6
-1.235, -2.973e-6
-1.234, -2.986e-6
-1.233, -3.111e-6
-1.232, -3.143e-6
-1.231, -3.257e-6
-1.230, -3.390e-6
-1.229, -3.534e-6
-1.228, -3.503e-6
-1.227, -3.678e-6
-1.226, -3.692e-6
-1.225, -3.841e-6
-1.224, -3.854e-6
-1.223, -3.940e-6
-1.222, -4.067e-6
-1.221, -4.111e-6
-1.220, -4.204e-6
-1.219, -4.305e-6
-1.218, -4.377e-6
-1.217, -4.496e-6
-1.216, -4.541e-6
-1.215, -4.596e-6
-1.214, -4.727e-6
-1.213, -4.729e-6
-1.212, -4.845e-6
-1.211, -4.991e-6
-1.210, -5.026e-6
-1.209, -5.085e-6
-1.208, -5.125e-6
-1.207, -5.176e-6
-1.206, -5.299e-6
-1.205, -5.366e-6
-1.204, -5.405e-6
-1.203, -5.530e-6
-1.202, -5.528e-6
-1.201, -5.674e-6
-1.200, -5.690e-6
-1.199, -5.750e-6
-1.198, -5.817e-6
-1.197, -5.874e-6
-1.196, -5.984e-6
-1.195, -6.050e-6
-1.194, -6.058e-6
-1.193, -6.159e-6
-1.192, -6.177e-6
-1.191, -6.304e-6
-1.190, -6.401e-6
-1.189, -6.378e-6
-1.188, -6.466e-6
-1.187, -6.545e-6
-1.186, -6.594e-6
-1.185, -6.719e-6
-1.184, -6.722e-6
-1.183, -6.763e-6
-1.182, -6.842e-6
-1.181, -6.937e-6
-1.180, -7.007e-6
-1.179, -7.090e-6
-1.178, -7.126e-6
-1.177, -7.203e-6
-1.176, -7.267e-6
-1.175, -7.298e-6
-1.174, -7.415e-6
-1.173, -7.416e-6
-1.172, -7.510e-6
-1.171, -7.589e-6
-1.170, -7.634e-6
-1.169, -7.711e-6
-1.168, -7.703e-6
-1.167, -7.779e-6
-1.166, -7.891e-6
-1.165, -7.945e-6
-1.164, -7.980e-6
-1.163, -8.082e-6
-1.162, -8.110e-6
-1.161, -8.194e-6
-1.160, -8.252e-6
-1.159, -8.275e-6
-1.158, -8.385e-6
-1.157, -8.431e-6
-1.156, -8.472e-6
-1.155, -8.599e-6
-1.154, -8.586e-6
-1.153, -8.691e-6
-1.152, -8.772e-6
-1.151, -8.868e-6
-1.150, -8.937e-6
-1.149, -8.953e-6
-1.148, -8.948e-6
-1.147, -9.113e-6
-1.146, -9.188e-6
-1.145, -9.264e-6
-1.144, -9.290e-6
-1.143, -9.347e-6
-1.142, -9.461e-6
-1.141, -9.458e-6
-1.140, -9.552e-6
-1.139, -9.634e-6
-1.138, -9.696e-6
-1.137, -9.775e-6
-1.136, -9.903e-6
-1.135, -9.926e-6
-1.134, -1.001e-5
-1.133, -1.001e-5
-1.132, -1.011e-5
-1.131, -1.024e-5
-1.130, -1.025e-5
-1.129, -1.040e-5
-1.128, -1.040e-5
-1.127, -1.050e-5
-1.126, -1.062e-5
-1.125, -1.064e-5
-1.124, -1.070e-5
-1.123, -1.082e-5
-1.122, -1.083e-5
-1.121, -1.104e-5
-1.120, -1.105e-5
-1.119, -1.112e-5
-1.118, -1.118e-5
-1.117, -1.123e-5
-1.116, -1.134e-5
-1.115, -1.146e-5
-1.114, -1.152e-5
-1.113, -1.162e-5
-1.112, -1.168e-5
-1.111, -1.177e-5
-1.110, -1.184e-5
-1.109, -1.187e-5
-1.108, -1.199e-5
-1.107, -1.208e-5
-1.106, -1.218e-5
-1.105, -1.228e-5
-1.104, -1.232e-5
-1.103, -1.238e-5
-1.102, -1.252e-5
-1.101, -1.259e-5
-1.100, -1.270e-5
-1.099, -1.280e-5
-1.098, -1.283e-5
-1.097, -1.298e-5
-1.096, -1.306e-5
-1.095, -1.314e-5
-1.094, -1.323e-5
-1.093, -1.333e-5
-1.092, -1.341e-5
-1.091, -1.354e-5
-1.090, -1.365e-5
-1.089, -1.376e-5
-1.088, -1.376e-5
-1.087, -1.393e-5
-1.086, -1.411e-5
-1.085, -1.413e-5
-1.084, -1.429e-5
-1.083, -1.441e-5
-1.082, -1.451e-5
-1.081, -1.468e-5
-1.080, -1.469e-5
-1.079, -1.480e-5
-1.078, -1.494e-5
-1.077, -1.503e-5
-1.076, -1.527e-5
-1.075, -1.541e-5
-1.074, -1.541e-5
-1.073, -1.555e-5
-1.072, -1.567e-5
-1.071, -1.582e-5
-1.070, -1.597e-5
-1.069, -1.604e-5
-1.068, -1.615e-5
-1.067, -1.632e-5
-1.066, -1.649e-5
-1.065, -1.662e-5
-1.064, -1.667e-5
-1.063, -1.684e-5
-1.062, -1.702e-5
-1.061, -1.716e-5
-1.060, -1.730e-5
-1.059, -1.746e-5
-1.058, -1.759e-5
-1.057, -1.776e-5
-1.056, -1.791e-5
-1.055, -1.807e-5
-1.054, -1.823e-5
-1.053, -1.837e-5
-1.052, -1.858e-5
-1.051, -1.876e-5
-1.050, -1.892e-5
-1.049, -1.913e-5
-1.048, -1.931e-5
-1.047, -1.947e-5
-1.046, -1.969e-5
-1.045, -1.982e-5
-1.044, -2.002e-5
-1.043, -2.026e-5
-1.042, -2.040e-5
-1.041, -2.070e-5
-1.040, -2.083e-5
-1.039, -2.100e-5
-1.038, -2.122e-5
-1.037, -2.138e-5
-1.036, -2.165e-5
-1.035, -2.188e-5
-1.034, -2.204e-5
-1.033, -2.230e-5
-1.032, -2.247e-5
-1.031, -2.272e-5
-1.030, -2.299e-5
-1.029, -2.315e-5
-1.028, -2.332e-5
-1.027, -2.361e-5
-1.026, -2.380e-5
-1.025, -2.410e-5
-1.024, -2.423e-5
-1.023, -2.452e-5
-1.022, -2.474e-5
-1.021, -2.496e-5
-1.020, -2.515e-5
-1.019, -2.539e-5
-1.018, -2.561e-5
-1.017, -2.592e-5
-1.016, -2.619e-5
-1.015, -2.648e-5
-1.014, -2.671e-5
-1.013, -2.696e-5
-1.012, -2.725e-5
-1.011, -2.760e-5
-1.010, -2.788e-5
-1.009, -2.814e-5
-1.008, -2.835e-5
-1.007, -2.861e-5
-1.006, -2.894e-5
-1.005, -2.918e-5
-1.004, -2.951e-5
-1.003, -2.980e-5
-1.002, -3.004e-5
-1.001, -3.040e-5
-1.000, -2.316e-5
-1.001, -1.919e-5
-1.002, -1.728e-5
-1.003, -1.582e-5
-1.004, -1.458e-5
-1.005, -1.352e-5
-1.006, -1.248e-5
-1.007, -1.157e-5
-1.008, -1.074e-5
-1.009, -1.002e-5
-1.010, -9.283e-6
-1.011, -8.636e-6
-1.012, -7.843e-6
-1.013, -7.180e-6
-1.014, -6.559e-6
-1.015, -5.792e-6
-1.016, -5.102e-6
-1.017, -4.395e-6
-1.018, -3.674e-6
-1.019, -3.187e-6
-1.020, -2.816e-6
-1.021, -2.367e-6
-1.022, -2.054e-6
-1.023, -1.654e-6
-1.024, -1.381e-6
-1.025, -1.057e-6
-1.026, -6.819e-7
-1.027, -3.919e-7
-1.028, -3.374e-8
-1.029, 2.257e-7
-1.030, 5.316e-7
-1.031, 9.173e-7
-1.032, 1.145e-6
-1.033, 1.458e-6
-1.034, 1.758e-6
-1.035, 2.006e-6
-1.036, 2.345e-6
-1.037, 2.632e-6
-1.038, 2.835e-6
-1.039, 3.096e-6
-1.040, 3.347e-6
-1.041, 3.635e-6
-1.042, 3.935e-6
-1.043, 4.133e-6
-1.044, 4.340e-6
-1.045, 4.603e-6
-1.046, 4.812e-6
-1.047, 5.065e-6
-1.048, 5.280e-6
-1.049, 5.504e-6
-1.050, 5.735e-6
-1.051, 5.937e-6
-1.052, 6.123e-6
-1.053, 6.309e-6
-1.054, 6.453e-6
-1.055, 6.677e-6
-1.056, 6.896e-6
-1.057, 7.033e-6
-1.058, 7.262e-6
-1.059, 7.375e-6
-1.060, 7.548e-6
-1.061, 7.752e-6
-1.062, 7.881e-6
-1.063, 8.077e-6
-1.064, 8.122e-6
-1.065, 8.278e-6
-1.066, 8.488e-6
-1.067, 8.603e-6
-1.068, 8.785e-6
-1.069, 8.854e-6
-1.070, 8.991e-6
-1.071, 9.181e-6
-1.072, 9.229e-6
-1.073, 9.381e-6
-1.074, 9.483e-6
-1.075, 9.652e-6
-1.076, 9.734e-6
-1.077, 9.845e-6
-1.078, 9.952e-6
-1.079, 1.002e-5
-1.080, 1.009e-5
-1.081, 1.024e-5
-1.082, 1.034e-5
-1.083, 1.038e-5
-1.084, 1.048e-5
-1.085, 1.058e-5
-1.086, 1.068e-5
-1.087, 1.078e-5
-1.088, 1.082e-5
-1.089, 1.085e-5
-1.090, 1.096e-5
-1.091, 1.101e-5
-1.092, 1.108e-5
-1.093, 1.121e-5
-1.094, 1.117e-5
-1.095, 1.132e-5
-1.096, 1.138e-5
-1.097, 1.143e-5
-1.098, 1.150e-5
-1.099, 1.148e-5
-1.100, 1.159e-5
-1.101, 1.167e-5
-1.102, 1.169e-5
-1.103, 1.181e-5
-1.104, 1.172e-5
-1.105, 1.186e-5
-1.106, 1.191e-5
-1.107, 1.186e-5
-1.108, 1.197e-5
-1.109, 1.198e-5
-1.110, 1.204e-5
-1.111, 1.216e-5
-1.112, 1.215e-5
-1.113, 1.220e-5
-1.114, 1.219e-5
-1.115, 1.221e-5
-1.116, 1.235e-5
-1.117, 1.238e-5
-1.118, 1.240e-5
-1.119, 1.240e-5
-1.120, 1.243e-5
-1.121, 1.248e-5
-1.122, 1.253e-5
-1.123, 1.251e-5
-1.124, 1.252e-5
-1.125, 1.260e-5
-1.126, 1.262e-5
-1.127, 1.274e-5
-1.128, 1.270e-5
-1.129, 1.268e-5
-1.130, 1.275e-5
-1.131, 1.275e-5
-1.132, 1.280e-5
-1.133, 1.283e-5
-1.134, 1.284e-5
-1.135, 1.288e-5
-1.136, 1.291e-5
-1.137, 1.294e-5
-1.138, 1.298e-5
-1.139, 1.293e-5
-1.140, 1.298e-5
-1.141, 1.303e-5
-1.142, 1.302e-5
-1.143, 1.308e-5
-1.144, 1.300e-5
-1.145, 1.307e-5
-1.146, 1.312e-5
-1.147, 1.316e-5
-1.148, 1.316e-5
-1.149, 1.311e-5
-1.150, 1.315e-5
-1.151, 1.319e-5
-1.152, 1.320e-5
-1.153, 1.321e-5
-1.154, 1.324e-5
-1.155, 1.323e-5
-1.156, 1.329e-5
-1.157, 1.328e-5
-1.158, 1.326e-5
-1.159, 1.325e-5
-1.160, 1.328e-5
-1.161, 1.329e-5
-1.162, 1.338e-5
-1.163, 1.330e-5
-1.164, 1.331e-5
-1.165, 1.335e-5
-1.166, 1.335e-5
-1.167, 1.348e-5
-1.168, 1.341e-5
-1.169, 1.339e-5
-1.170, 1.342e-5
-1.171, 1.344e-5
-1.172, 1.346e-5
-1.173, 1.347e-5
-1.174, 1.344e-5
-1.175, 1.350e-5
-1.176, 1.353e-5
-1.177, 1.357e-5
-1.178, 1.360e-5
-1.179, 1.348e-5
-1.180, 1.356e-5
-1.181, 1.357e-5
-1.182, 1.359e-5
-1.183, 1.362e-5
-1.184, 1.357e-5
-1.185, 1.361e-5
-1.186, 1.368e-5
-1.187, 1.365e-5
-1.188, 1.371e-5
-1.189, 1.368e-5
-1.190, 1.369e-5
-1.191, 1.378e-5
-1.192, 1.375e-5
-1.193, 1.376e-5
-1.194, 1.378e-5
-1.195, 1.378e-5
-1.196, 1.383e-5
-1.197, 1.389e-5
-1.198, 1.388e-5
-1.199, 1.389e-5
-1.200, 1.389e-5
-1.201, 1.396e-5
-1.202, 1.401e-5
-1.203, 1.400e-5
-1.204, 1.401e-5
-1.205, 1.405e-5
-1.206, 1.409e-5
-1.207, 1.417e-5
-1.208, 1.412e-5
-1.209, 1.414e-5
-1.210, 1.425e-5
-1.211, 1.427e-5
-1.212, 1.432e-5
-1.213, 1.435e-5
-1.214, 1.433e-5
-1.215, 1.441e-5
-1.216, 1.448e-5
-1.217, 1.447e-5
-1.218, 1.454e-5
-1.219, 1.456e-5
-1.220, 1.465e-5
-1.221, 1.473e-5
-1.222, 1.475e-5
-1.223, 1.482e-5
-1.224, 1.482e-5
-1.225, 1.487e-5
-1.226, 1.507e-5
-1.227, 1.505e-5
-1.228, 1.512e-5
-1.229, 1.520e-5
-1.230, 1.551e-5
-1.231, 1.551e-5
-1.232, 1.545e-5
-1.233, 1.546e-5
-1.234, 1.554e-5
-1.235, 1.564e-5
-1.236, 1.573e-5
-1.237, 1.579e-5
-1.238, 1.583e-5
-1.239, 1.593e-5
-1.240, 1.597e-5
-1.241, 1.610e-5
-1.242, 1.623e-5
-1.243, 1.627e-5
-1.244, 1.635e-5
-1.245, 1.650e-5
-1.246, 1.660e-5
-1.247, 1.677e-5
-1.248, 1.684e-5
-1.249, 1.691e-5
-1.250, 1.708e-5
-1.251, 1.719e-5
-1.252, 1.732e-5
-1.253, 1.737e-5
-1.254, 1.754e-5
-1.255, 1.773e-5
-1.256, 1.782e-5
-1.257, 1.799e-5
-1.258, 1.811e-5
-1.259, 1.824e-5
-1.260, 1.836e-5
-1.261, 1.860e-5
-1.262, 1.874e-5
-1.263, 1.891e-5
-1.264, 1.902e-5
-1.265, 1.927e-5
-1.266, 1.948e-5
-1.267, 1.961e-5
-1.268, 1.978e-5
-1.269, 2.000e-5
-1.270, 2.017e-5
-1.271, 2.047e-5
-1.272, 2.060e-5
-1.273, 2.079e-5
-1.274, 2.101e-5
-1.275, 2.124e-5
-1.276, 2.154e-5
-1.277, 2.178e-5
-1.278, 2.195e-5
-1.279, 2.221e-5
-1.280, 2.251e-5
-1.281, 2.284e-5
-1.282, 2.310e-5
-1.283, 2.331e-5
-1.284, 2.359e-5
-1.285, 2.397e-5
-1.286, 2.427e-5
-1.287, 2.461e-5
-1.288, 2.482e-5
-1.289, 2.517e-5
-1.290, 2.552e-5
-1.291, 2.585e-5
-1.292, 2.622e-5
-1.293, 2.655e-5
-1.294, 2.691e-5
-1.295, 2.731e-5
-1.296, 2.771e-5
-1.297, 2.811e-5
-1.298, 2.852e-5
-1.299, 2.889e-5
-1.300, 2.938e-5
-1.301, 2.979e-5
-1.302, 3.025e-5
-1.303, 3.073e-5
-1.304, 3.119e-5
-1.305, 3.168e-5
-1.306, 3.225e-5
-1.307, 3.272e-5
-1.308, 3.322e-5
-1.309, 3.378e-5
-1.310, 3.434e-5
-1.311, 3.502e-5
-1.312, 3.551e-5
-1.313, 3.612e-5
-1.314, 3.677e-5
-1.315, 3.739e-5
-1.316, 3.807e-5
-1.317, 3.872e-5
-1.318, 3.936e-5
-1.319, 4.014e-5
-1.320, 4.083e-5
-1.321, 4.160e-5
-1.322, 4.238e-5
-1.323, 4.307e-5
-1.324, 4.388e-5
-1.325, 4.469e-5
-1.326, 4.555e-5
-1.327, 4.638e-5
-1.328, 4.715e-5
-1.329, 4.803e-5
-1.330, 4.900e-5
-1.331, 4.990e-5
-1.332, 5.086e-5
-1.333, 5.177e-5
-1.334, 5.272e-5
-1.335, 5.378e-5
-1.336, 5.474e-5
-1.337, 5.578e-5
-1.338, 5.681e-5
-1.339, 5.783e-5
-1.340, 5.897e-5
-1.341, 6.014e-5
-1.342, 6.126e-5
-1.343, 6.243e-5
-1.344, 6.366e-5
-1.345, 6.487e-5
-1.346, 6.613e-5
-1.347, 6.737e-5
-1.348, 6.871e-5
-1.349, 7.001e-5
-1.350, 7.141e-5
-1.351, 7.282e-5
-1.352, 7.423e-5
-1.353, 7.559e-5
-1.354, 7.719e-5
-1.355, 7.864e-5
-1.356, 8.023e-5
-1.357, 8.181e-5
-1.358, 8.335e-5
-1.359, 8.502e-5
-1.360, 8.670e-5
-1.361, 8.836e-5
-1.362, 9.014e-5
-1.363, 9.179e-5
-1.364, 9.361e-5
-1.365, 9.537e-5
-1.366, 9.728e-5
-1.367, 9.922e-5
-1.368, 1.010e-4
-1.369, 1.030e-4
-1.370, 1.050e-4
-1.371, 1.070e-4
-1.372, 1.091e-4
-1.373, 1.112e-4
-1.374, 1.133e-4
-1.375, 1.155e-4
-1.376, 1.176e-4
-1.377, 1.201e-4
-1.378, 1.222e-4
-1.379, 1.245e-4
-1.380, 1.269e-4
-1.381, 1.293e-4
-1.382, 1.318e-4
-1.383, 1.343e-4
-1.384, 1.367e-4
-1.385, 1.393e-4
-1.386, 1.419e-4
-1.387, 1.446e-4
-1.388, 1.473e-4
-1.389, 1.500e-4
-1.390, 1.536e-4
-1.391, 1.559e-4
-1.392, 1.587e-4
-1.393, 1.615e-4
-1.394, 1.645e-4
-1.395, 1.674e-4
-1.396, 1.704e-4
-1.397, 1.734e-4
-1.398, 1.769e-4
-1.399, 1.799e-4
-1.400, 1.831e-4
-1.401, 1.864e-4
-1.402, 1.898e-4
-1.403, 1.931e-4
-1.404, 1.965e-4
-1.405, 1.999e-4
-1.406, 2.034e-4
-1.407, 2.068e-4
-1.408, 2.105e-4
-1.409, 2.140e-4
-1.410, 2.180e-4
-1.411, 2.215e-4
-1.412, 2.253e-4
-1.413, 2.296e-4
-1.414, 2.334e-4
-1.415, 2.373e-4
-1.416, 2.412e-4
-1.417, 2.453e-4
-1.418, 2.495e-4
-1.419, 2.536e-4
-1.420, 2.576e-4
-1.421, 2.620e-4
-1.422, 2.661e-4
-1.423, 2.706e-4
-1.424, 2.749e-4
-1.425, 2.793e-4
-1.426, 2.839e-4
-1.427, 2.883e-4
-1.428, 2.927e-4
-1.429, 2.979e-4
-1.430, 3.023e-4
-1.431, 3.071e-4
-1.432, 3.118e-4
-1.433, 3.168e-4
-1.434, 3.215e-4
-1.435, 3.265e-4
-1.436, 3.315e-4
-1.437, 3.363e-4
-1.438, 3.413e-4
-1.439, 3.464e-4
-1.440, 3.517e-4
-1.441, 3.569e-4
-1.442, 3.620e-4
-1.443, 3.670e-4
-1.444, 3.723e-4
-1.445, 3.776e-4
-1.446, 3.829e-4
-1.447, 3.885e-4
-1.448, 3.935e-4
-1.449, 3.988e-4
-1.450, 4.048e-4
-1.451, 4.101e-4
-1.452, 4.154e-4
-1.453, 4.206e-4
-1.454, 4.260e-4
-1.455, 4.315e-4
-1.456, 4.371e-4
-1.457, 4.429e-4
-1.458, 4.484e-4
-1.459, 4.538e-4
-1.460, 4.595e-4
-1.461, 4.650e-4
-1.462, 4.706e-4
-1.463, 4.760e-4
-1.464, 4.819e-4
-1.465, 4.872e-4
-1.466, 4.928e-4
-1.467, 4.988e-4
-1.468, 5.058e-4
-1.469, 5.110e-4
-1.470, 5.165e-4
-1.471, 5.220e-4
-1.472, 5.276e-4
-1.473, 5.327e-4
-1.474, 5.385e-4
-1.475, 5.440e-4
-1.476, 5.495e-4
-1.477, 5.551e-4
-1.478, 5.607e-4
-1.479, 5.663e-4
-1.480, 5.714e-4
-1.481, 5.769e-4
-1.482, 5.821e-4
-1.483, 5.874e-4
-1.484, 5.929e-4
-1.485, 5.983e-4
-1.486, 6.036e-4
-1.487, 6.092e-4
-1.488, 6.143e-4
-1.489, 6.200e-4
-1.490, 6.257e-4
-1.491, 6.308e-4
-1.492, 6.374e-4
-1.493, 6.423e-4
-1.494, 6.478e-4
-1.495, 6.528e-4
-1.496, 6.578e-4
-1.497, 6.631e-4
-1.498, 6.687e-4
-1.499, 6.738e-4
-1.500, 6.790e-4
-1.501, 6.843e-4
-1.502, 6.888e-4
-1.503, 6.937e-4
-1.504, 6.982e-4
-1.505, 7.035e-4
-1.506, 7.083e-4
-1.507, 7.141e-4
-1.508, 7.186e-4
-1.509, 7.234e-4
-1.510, 7.286e-4
-1.511, 7.337e-4
-1.512, 7.391e-4
-1.513, 7.438e-4
-1.514, 7.485e-4
-1.515, 7.532e-4
-1.516, 7.584e-4
-1.517, 7.634e-4
-1.518, 7.696e-4
-1.519, 7.750e-4
-1.520, 7.806e-4
-1.521, 7.853e-4
-1.522, 7.899e-4
-1.523, 7.940e-4
-1.524, 7.994e-4
-1.525, 8.041e-4
-1.526, 8.104e-4
-1.527, 8.156e-4
-1.528, 8.215e-4
-1.529, 8.268e-4
-1.530, 8.327e-4
-1.531, 8.378e-4
-1.532, 8.426e-4
-1.533, 8.476e-4
-1.534, 8.525e-4
-1.535, 8.578e-4
-1.536, 8.635e-4
-1.537, 8.688e-4
-1.538, 8.742e-4
-1.539, 8.792e-4
-1.540, 8.842e-4
-1.541, 8.901e-4
-1.542, 8.957e-4
-1.543, 9.006e-4
-1.544, 9.069e-4
-1.545, 9.118e-4
-1.546, 9.168e-4
-1.547, 9.230e-4
-1.548, 9.292e-4
-1.549, 9.352e-4
-1.550, 9.415e-4
-1.551, 9.478e-4
-1.552, 9.554e-4
-1.553, 9.614e-4
-1.554, 9.673e-4
-1.555, 9.747e-4
-1.556, 9.827e-4
-1.557, 9.890e-4
-1.558, 9.969e-4
-1.559, 1.004e-3
-1.560, 1.010e-3
-1.561, 1.016e-3
-1.562, 1.023e-3
-1.563, 1.031e-3
-1.564, 1.039e-3
-1.565, 1.046e-3
-1.566, 1.053e-3
-1.567, 1.060e-3
-1.568, 1.069e-3
-1.569, 1.075e-3
-1.570, 1.083e-3
-1.571, 1.092e-3
-1.572, 1.102e-3
-1.573, 1.110e-3
-1.574, 1.118e-3
-1.575, 1.125e-3
-1.576, 1.135e-3
-1.577, 1.142e-3
-1.578, 1.154e-3
-1.579, 1.165e-3
-1.580, 1.174e-3
-1.581, 1.185e-3
-1.582, 1.197e-3
-1.583, 1.208e-3
-1.584, 1.222e-3
-1.585, 1.233e-3
-1.586, 1.243e-3
-1.587, 1.254e-3
-1.588, 1.266e-3
-1.589, 1.278e-3
-1.590, 1.290e-3
-1.591, 1.302e-3
-1.592, 1.314e-3
-1.593, 1.326e-3
-1.594, 1.338e-3
-1.595, 1.352e-3
-1.596, 1.365e-3
-1.597, 1.376e-3
-1.598, 1.388e-3
-1.599, 1.402e-3
-1.600, 1.416e-3
-1.601, 1.430e-3
-1.602, 1.442e-3
-1.603, 1.455e-3
-1.604, 1.471e-3
-1.605, 1.485e-3
-1.606, 1.501e-3
-1.607, 1.518e-3
-1.608, 1.534e-3
-1.609, 1.552e-3
-1.610, 1.569e-3
-1.611, 1.586e-3
-1.612, 1.605e-3
-1.613, 1.621e-3
-1.614, 1.639e-3
-1.615, 1.657e-3
-1.616, 1.674e-3
-1.617, 1.694e-3
-1.618, 1.714e-3
-1.619, 1.736e-3
-1.620, 1.756e-3
-1.621, 1.772e-3
-1.622, 1.790e-3
-1.623, 1.808e-3
-1.624, 1.831e-3
-1.625, 1.852e-3
-1.626, 1.873e-3
-1.627, 1.898e-3
-1.628, 1.924e-3
-1.629, 1.953e-3
-1.630, 1.972e-3
-1.631, 1.992e-3
-1.632, 2.017e-3
-1.633, 2.044e-3
-1.634, 2.076e-3
-1.635, 2.102e-3
-1.636, 2.130e-3
-1.637, 2.151e-3
-1.638, 2.173e-3
-1.639, 2.197e-3
-1.640, 2.222e-3
-1.641, 2.249e-3
-1.642, 2.278e-3
-1.643, 2.310e-3
-1.644, 2.337e-3
-1.645, 2.369e-3
-1.646, 2.407e-3
-1.647, 2.428e-3
-1.648, 2.462e-3
-1.649, 2.493e-3
-1.650, 2.524e-3
-1.651, 2.558e-3
-1.652, 2.595e-3
-1.653, 2.632e-3
-1.654, 2.670e-3
-1.655, 2.711e-3
-1.656, 2.755e-3
-1.657, 2.796e-3
-1.658, 2.847e-3
-1.659, 2.894e-3
-1.660, 2.929e-3
-1.661, 2.959e-3
-1.662, 2.993e-3
-1.663, 3.039e-3
-1.664, 3.089e-3
-1.665, 3.139e-3
-1.666, 3.182e-3
-1.667, 3.220e-3
-1.668, 3.261e-3
-1.669, 3.299e-3
-1.670, 3.337e-3
-1.671, 3.369e-3
-1.672, 3.409e-3
-1.673, 3.452e-3
-1.674, 3.495e-3
-1.675, 3.535e-3
-1.676, 3.575e-3
-1.677, 3.620e-3
-1.678, 3.666e-3
-1.679, 3.709e-3
-1.680, 3.750e-3
-1.681, 3.796e-3
-1.682, 3.841e-3
-1.683, 3.886e-3
-1.684, 3.937e-3
-1.685, 3.955e-3
-1.686, 3.999e-3
-1.687, 4.034e-3
-1.688, 4.068e-3
-1.689, 4.125e-3
-1.690, 4.181e-3
-1.691, 4.232e-3
-1.692, 4.276e-3
-1.693, 4.320e-3
-1.694, 4.355e-3
-1.695, 4.403e-3
-1.696, 4.440e-3
-1.697, 4.501e-3
-1.698, 4.556e-3
-1.699, 4.600e-3
-1.700, 4.595e-3
-1.699, 4.545e-3
-1.698, 4.509e-3
-1.697, 4.467e-3
-1.696, 4.423e-3
-1.695, 4.391e-3
-1.694, 4.337e-3
-1.693, 4.292e-3
-1.692, 4.244e-3
-1.691, 4.196e-3
-1.690, 4.154e-3
-1.689, 4.106e-3
-1.688, 4.063e-3
-1.687, 4.024e-3
-1.686, 3.977e-3
-1.685, 3.945e-3
-1.684, 3.891e-3
-1.683, 3.865e-3
-1.682, 3.832e-3
-1.681, 3.792e-3
-1.680, 3.751e-3
-1.679, 3.696e-3
-1.678, 3.654e-3
-1.677, 3.615e-3
-1.676, 3.582e-3
-1.675, 3.555e-3
-1.674, 3.502e-3
-1.673, 3.477e-3
-1.672, 3.460e-3
-1.671, 3.428e-3
-1.670, 3.389e-3
-1.669, 3.350e-3
-1.668, 3.323e-3
-1.667, 3.295e-3
-1.666, 3.252e-3
-1.665, 3.220e-3
-1.664, 3.178e-3
-1.663, 3.135e-3
-1.662, 3.096e-3
-1.661, 3.051e-3
-1.660, 3.009e-3
-1.659, 2.975e-3
-1.658, 2.948e-3
-1.657, 2.913e-3
-1.656, 2.880e-3
-1.655, 2.848e-3
-1.654, 2.815e-3
-1.653, 2.779e-3
-1.652, 2.742e-3
-1.651, 2.704e-3
-1.650, 2.667e-3
-1.649, 2.628e-3
-1.648, 2.589e-3
-1.647, 2.554e-3
-1.646, 2.522e-3
-1.645, 2.484e-3
-1.644, 2.446e-3
-1.643, 2.407e-3
-1.642, 2.370e-3
-1.641, 2.334e-3
-1.640, 2.292e-3
-1.639, 2.254e-3
-1.638, 2.219e-3
-1.637, 2.185e-3
-1.636, 2.151e-3
-1.635, 2.117e-3
-1.634, 2.084e-3
-1.633, 2.049e-3
-1.632, 2.018e-3
-1.631, 1.982e-3
-1.630, 1.951e-3
-1.629, 1.922e-3
-1.628, 1.893e-3
-1.627, 1.862e-3
-1.626, 1.830e-3
-1.625, 1.804e-3
-1.624, 1.776e-3
-1.623, 1.746e-3
-1.622, 1.717e-3
-1.621, 1.689e-3
-1.620, 1.662e-3
-1.619, 1.634e-3
-1.618, 1.606e-3
-1.617, 1.585e-3
-1.616, 1.562e-3
-1.615, 1.548e-3
-1.614, 1.516e-3
-1.613, 1.485e-3
-1.612, 1.459e-3
-1.611, 1.435e-3
-1.610, 1.411e-3
-1.609, 1.387e-3
-1.608, 1.363e-3
-1.607, 1.341e-3
-1.606, 1.317e-3
-1.605, 1.294e-3
-1.604, 1.272e-3
-1.603, 1.250e-3
-1.602, 1.229e-3
-1.601, 1.210e-3
-1.600, 1.190e-3
-1.599, 1.170e-3
-1.598, 1.148e-3
-1.597, 1.127e-3
-1.596, 1.107e-3
-1.595, 1.089e-3
-1.594, 1.070e-3
-1.593, 1.057e-3
-1.592, 1.037e-3
-1.591, 1.020e-3
-1.590, 1.002e-3
-1.589, 9.846e-4
-1.588, 9.677e-4
-1.587, 9.508e-4
-1.586, 9.320e-4
-1.585, 9.168e-4
-1.584, 9.032e-4
-1.583, 8.877e-4
-1.582, 8.762e-4
-1.581, 8.600e-4
-1.580, 8.454e-4
-1.579, 8.331e-4
-1.578, 8.198e-4
-1.577, 8.062e-4
-1.576, 7.927e-4
-1.575, 7.800e-4
-1.574, 7.678e-4
-1.573, 7.556e-4
-1.572, 7.432e-4
-1.571, 7.311e-4
-1.570, 7.195e-4
-1.569, 7.076e-4
-1.568, 6.957e-4
-1.567, 6.843e-4
-1.566, 6.729e-4
-1.565, 6.621e-4
-1.564, 6.514e-4
-1.563, 6.405e-4
-1.562, 6.297e-4
-1.561, 6.195e-4
-1.560, 6.096e-4
-1.559, 5.999e-4
-1.558, 5.906e-4
-1.557, 5.806e-4
-1.556, 5.713e-4
-1.555, 5.623e-4
-1.554, 5.529e-4
-1.553, 5.438e-4
-1.552, 5.350e-4
-1.551, 5.266e-4
-1.550, 5.184e-4
-1.549, 5.109e-4
-1.548, 5.032e-4
-1.547, 4.952e-4
-1.546, 4.875e-4
-1.545, 4.803e-4
-1.544, 4.728e-4
-1.543, 4.657e-4
-1.542, 4.583e-4
-1.541, 4.515e-4
-1.540, 4.447e-4
-1.539, 4.379e-4
-1.538, 4.315e-4
-1.537, 4.244e-4
-1.536, 4.181e-4
-1.535, 4.107e-4
-1.534, 4.052e-4
-1.533, 4.002e-4
-1.532, 3.934e-4
-1.531, 3.871e-4
-1.530, 3.809e-4
-1.529, 3.750e-4
-1.528, 3.704e-4
-1.527, 3.647e-4
-1.526, 3.592e-4
-1.525, 3.538e-4
-1.524, 3.484e-4
-1.523, 3.433e-4
-1.522, 3.382e-4
-1.521, 3.335e-4
-1.520, 3.298e-4
-1.519, 3.248e-4
-1.518, 3.193e-4
-1.517, 3.144e-4
-1.516, 3.095e-4
-1.515, 3.050e-4
-1.514, 3.008e-4
-1.513, 2.965e-4
-1.512, 2.924e-4
-1.511, 2.883e-4
-1.510, 2.842e-4
-1.509, 2.803e-4
-1.508, 2.763e-4
-1.507, 2.721e-4
-1.506, 2.683e-4
-1.505, 2.644e-4
-1.504, 2.608e-4
-1.503, 2.571e-4
-1.502, 2.532e-4
-1.501, 2.497e-4
-1.500, 2.461e-4
-1.499, 2.426e-4
-1.498, 2.392e-4
-1.497, 2.359e-4
-1.496, 2.325e-4
-1.495, 2.292e-4
-1.494, 2.258e-4
-1.493, 2.228e-4
-1.492, 2.195e-4
-1.491, 2.163e-4
-1.490, 2.133e-4
-1.489, 2.101e-4
-1.488, 2.070e-4
-1.487, 2.041e-4
-1.486, 2.013e-4
-1.485, 1.986e-4
-1.484, 1.958e-4
-1.483, 1.929e-4
-1.482, 1.901e-4
-1.481, 1.878e-4
-1.480, 1.852e-4
-1.479, 1.825e-4
-1.478, 1.799e-4
-1.477, 1.774e-4
-1.476, 1.749e-4
-1.475, 1.725e-4
-1.474, 1.700e-4
-1.473, 1.675e-4
-1.472, 1.651e-4
-1.471, 1.628e-4
-1.470, 1.605e-4
-1.469, 1.582e-4
-1.468, 1.559e-4
-1.467, 1.536e-4
-1.466, 1.514e-4
-1.465, 1.491e-4
-1.464, 1.470e-4
-1.463, 1.449e-4
-1.462, 1.427e-4
-1.461, 1.406e-4
-1.460, 1.384e-4
-1.459, 1.364e-4
-1.458, 1.344e-4
-1.457, 1.323e-4
-1.456, 1.304e-4
-1.455, 1.288e-4
-1.454, 1.267e-4
-1.453, 1.248e-4
-1.452, 1.230e-4
-1.451, 1.213e-4
-1.450, 1.195e-4
-1.449, 1.177e-4
-1.448, 1.159e-4
-1.447, 1.141e-4
-1.446, 1.124e-4
-1.445, 1.108e-4
-1.444, 1.091e-4
-1.443, 1.075e-4
-1.442, 1.058e-4
-1.441, 1.042e-4
-1.440, 1.028e-4
-1.439, 1.011e-4
-1.438, 9.951e-5
-1.437, 9.809e-5
-1.436, 9.660e-5
-1.435, 9.508e-5
-1.434, 9.356e-5
-1.433, 9.224e-5
-1.432, 9.108e-5
-1.431, 8.958e-5
-1.430, 8.817e-5
-1.429, 8.705e-5
-1.428, 8.577e-5
-1.427, 8.441e-5
-1.426, 8.315e-5
-1.425, 8.184e-5
-1.424, 8.071e-5
-1.423, 7.938e-5
-1.422, 7.814e-5
-1.421, 7.694e-5
-1.420, 7.572e-5
-1.419, 7.453e-5
-1.418, 7.338e-5
-1.417, 7.217e-5
-1.416, 7.105e-5
-1.415, 6.997e-5
-1.414, 6.876e-5
-1.413, 6.767e-5
-1.412, 6.658e-5
-1.411, 6.546e-5
-1.410, 6.439e-5
-1.409, 6.335e-5
-1.408, 6.232e-5
-1.407, 6.126e-5
-1.406, 6.019e-5
-1.405, 5.925e-5
-1.404, 5.824e-5
-1.403, 5.725e-5
-1.402, 5.633e-5
-1.401, 5.529e-5
-1.400, 5.443e-5
-1.399, 5.348e-5
-1.398, 5.255e-5
-1.397, 5.169e-5
-1.396, 5.081e-5
-1.395, 4.988e-5
-1.394, 4.908e-5
-1.393, 4.822e-5
-1.392, 4.735e-5
-1.391, 4.653e-5
-1.390, 4.572e-5
-1.389, 4.496e-5
-1.388, 4.415e-5
-1.387, 4.336e-5
-1.386, 4.259e-5
-1.385, 4.183e-5
-1.384, 4.112e-5
-1.383, 4.038e-5
-1.382, 3.955e-5
-1.381, 3.885e-5
-1.380, 3.819e-5
-1.379, 3.747e-5
-1.378, 3.680e-5
-1.377, 3.610e-5
-1.376, 3.540e-5
-1.375, 3.482e-5
-1.374, 3.415e-5
-1.373, 3.357e-5
-1.372, 3.290e-5
-1.371, 3.228e-5
-1.370, 3.169e-5
-1.369, 3.106e-5
-1.368, 3.052e-5
-1.367, 2.990e-5
-1.366, 2.924e-5
-1.365, 2.877e-5
-1.364, 2.818e-5
-1.363, 2.759e-5
-1.362, 2.711e-5
-1.361, 2.654e-5
-1.360, 2.602e-5
-1.359, 2.556e-5
-1.358, 2.497e-5
-1.357, 2.453e-5
-1.356, 2.397e-5
-1.355, 2.353e-5
-1.354, 2.304e-5
-1.353, 2.260e-5
-1.352, 2.211e-5
-1.351, 2.162e-5
-1.350, 2.120e-5
-1.349, 2.076e-5
-1.348, 2.033e-5
-1.347, 1.988e-5
-1.346, 1.949e-5
-1.345, 1.906e-5
-1.344, 1.865e-5
-1.343, 1.826e-5
-1.342, 1.782e-5
-1.341, 1.743e-5
-1.340, 1.706e-5
-1.339, 1.669e-5
-1.338, 1.634e-5
-1.337, 1.592e-5
-1.336, 1.559e-5
-1.335, 1.524e-5
-1.334, 1.487e-5
-1.333, 1.459e-5
-1.332, 1.425e-5
-1.331, 1.386e-5
-1.330, 1.362e-5
-1.329, 1.330e-5
-1.328, 1.301e-5
-1.327, 1.264e-5
-1.326, 1.231e-5
-1.325, 1.209e-5
-1.324, 1.177e-5
-1.323, 1.147e-5
-1.322, 1.120e-5
-1.321, 1.087e-5
-1.320, 1.066e-5
-1.319, 1.039e-5
-1.318, 1.009e-5
-1.317, 9.896e-6
-1.316, 9.596e-6
-1.315, 9.299e-6
-1.314, 9.097e-6
-1.313, 8.849e-6
-1.312, 8.627e-6
-1.311, 8.352e-6
-1.310, 8.059e-6
-1.309, 7.933e-6
-1.308, 7.665e-6
-1.307, 7.423e-6
-1.306, 7.180e-6
-1.305, 7.003e-6
-1.304, 6.761e-6
-1.303, 6.608e-6
-1.302, 6.352e-6
-1.301, 6.164e-6
-1.300, 5.941e-6
-1.299, 5.711e-6
-1.298, 5.559e-6
-1.297, 5.316e-6
-1.296, 5.129e-6
-1.295, 4.980e-6
-1.294, 4.796e-6
-1.293, 4.641e-6
-1.292, 4.452e-6
-1.291, 4.152e-6
-1.290, 4.089e-6
-1.289, 3.877e-6
-1.288, 3.759e-6
-1.287, 3.565e-6
-1.286, 3.343e-6
-1.285, 3.228e-6
-1.284, 3.042e-6
-1.283, 2.922e-6
-1.282, 2.755e-6
-1.281, 2.557e-6
-1.280, 2.408e-6
-1.279, 2.328e-6
-1.278, 2.123e-6
-1.277, 2.022e-6
-1.276, 1.791e-6
-1.275, 1.698e-6
-1.274, 1.627e-6
-1.273, 1.426e-6
-1.272, 1.287e-6
-1.271, 1.104e-6
-1.270, 9.696e-7
-1.269, 8.996e-7
-1.268, 7.615e-7
-1.267, 5.691e-7
-1.266, 4.655e-7
-1.265, 3.412e-7
-1.264, 2.672e-7
-1.263, 1.290e-7
-1.262, -1.105e-8
-1.261, -1.452e-7
-1.260, -2.232e-7
-1.259, -4.027e-7
-1.258, -4.619e-7
-1.257, -6.237e-7
-1.256, -7.470e-7
-1.255, -8.250e-7
-1.254, -9.187e-7
-1.253, -1.054e-6
-1.252, -1.158e-6
-1.251, -1.326e-6
-1.250, -1.353e-6
-1.249, -1.482e-6
-1.248, -1.567e-6
-1.247, -1.661e-6
-1.246, -1.861e-6
-1.245, -1.834e-6
-1.244, -1.921e-6
-1.243, -2.080e-6
-1.242, -2.149e-6
-1.241, -2.303e-6
-1.240, -2.323e-6
-1.239, -2.415e-6
-1.238, -2.554e-6
-1.237, -2.610e-6
-1.236, -2.709e-6
-1.235, -2.819e-6
-1.234, -2.853e-6
-1.233, -2.991e-6
-1.232, -3.069e-6
-1.231, -3.184e-6
-1.230, -3.273e-6
-1.229, -3.369e-6
-1.228, -3.411e-6
-1.227, -3.499e-6
-1.226, -3.587e-6
-1.225, -3.674e-6
-1.224, -3.697e-6
-1.223, -3.801e-6
-1.222, -3.920e-6
-1.221, -3.986e-6
-1.220, -4.008e-6
-1.219, -4.118e-6
-1.218, -4.138e-6
-1.217, -4.293e-6
-1.216, -4.346e-6
-1.215, -4.393e-6
-1.214, -4.459e-6
-1.213, -4.535e-6
-1.212, -4.644e-6
-1.211, -4.765e-6
-1.210, -4.773e-6
-1.209, -4.862e-6
-1.208, -4.922e-6
-1.207, -4.966e-6
-1.206, -5.097e-6
-1.205, -5.105e-6
-1.204, -5.127e-6
-1.203, -5.273e-6
-1.202, -5.325e-6
-1.201, -5.460e-6
-1.200, -5.434e-6
-1.199, -5.545e-6
-1.198, -5.625e-6
-1.197, -5.631e-6
-1.196, -5.740e-6
-1.195, -5.816e-6
-1.194, -5.848e-6
-1.193, -5.970e-6
-1.192, -6.013e-6
-1.191, -6.055e-6
-1.190, -6.172e-6
-1.189, -6.184e-6
-1.188, -6.211e-6
-1.187, -6.362e-6
-1.186, -6.368e-6
-1.185, -6.483e-6
-1.184, -6.456e-6
-1.183, -6.536e-6
-1.182, -6.653e-6
-1.181, -6.651e-6
-1.180, -6.723e-6
-1.179, -6.779e-6
-1.178, -6.886e-6
-1.177, -6.968e-6
-1.176, -6.999e-6
-1.175, -7.052e-6
-1.174, -7.121e-6
-1.173, -7.124e-6
-1.172, -7.218e-6
-1.171, -7.350e-6
-1.170, -7.375e-6
-1.169, -7.432e-6
-1.168, -7.463e-6
-1.167, -7.564e-6
-1.166, -7.624e-6
-1.165, -7.666e-6
-1.164, -7.736e-6
-1.163, -7.799e-6
-1.162, -7.887e-6
-1.161, -7.979e-6
-1.160, -8.008e-6
-1.159, -8.008e-6
-1.158, -8.140e-6
-1.157, -8.174e-6
-1.156, -8.271e-6
-1.155, -8.362e-6
-1.154, -8.358e-6
-1.153, -8.443e-6
-1.152, -8.488e-6
-1.151, -8.568e-6
-1.150, -8.667e-6
-1.149, -8.631e-6
-1.148, -8.729e-6
-1.147, -8.870e-6
-1.146, -8.887e-6
-1.145, -8.960e-6
-1.144, -8.989e-6
-1.143, -9.034e-6
-1.142, -9.165e-6
-1.141, -9.219e-6
-1.140, -9.217e-6
-1.139, -9.334e-6
-1.138, -9.379e-6
-1.137, -9.521e-6
-1.136, -9.511e-6
-1.135, -9.573e-6
-1.134, -9.659e-6
-1.133, -9.740e-6
-1.132, -9.840e-6
-1.131, -9.920e-6
-1.130, -9.915e-6
-1.129, -1.001e-5
-1.128, -1.004e-5
-1.127, -1.021e-5
-1.126, -1.028e-5
-1.125, -1.033e-5
-1.124, -1.037e-5
-1.123, -1.049e-5
-1.122, -1.054e-5
-1.121, -1.063e-5
-1.120, -1.066e-5
-1.119, -1.070e-5
-1.118, -1.084e-5
-1.117, -1.091e-5
-1.116, -1.098e-5
-1.115, -1.112e-5
-1.114, -1.111e-5
-1.113, -1.121e-5
-1.112, -1.131e-5
-1.111, -1.137e-5
-1.110, -1.149e-5
-1.109, -1.148e-5
-1.108, -1.157e-5
-1.107, -1.173e-5
-1.106, -1.178e-5
-1.105, -1.186e-5
-1.104, -1.189e-5
-1.103, -1.198e-5
-1.102, -1.215e-5
-1.101, -1.215e-5
-1.100, -1.227e-5
-1.099, -1.235e-5
-1.098, -1.248e-5
-1.097, -1.262e-5
-1.096, -1.263e-5
-1.095, -1.273e-5
-1.094, -1.279e-5
-1.093, -1.287e-5
-1.092, -1.301e-5
-1.091, -1.316e-5
-1.090, -1.320e-5
-1.089, -1.332e-5
-1.088, -1.334e-5
-1.087, -1.349e-5
-1.086, -1.363e-5
-1.085, -1.371e-5
-1.084, -1.374e-5
-1.083, -1.388e-5
-1.082, -1.396e-5
-1.081, -1.412e-5
-1.080, -1.419e-5
-1.079, -1.426e-5
-1.078, -1.444e-5
-1.077, -1.452e-5
-1.076, -1.468e-5
-1.075, -1.480e-5
-1.074, -1.484e-5
-1.073, -1.503e-5
-1.072, -1.511e-5
-1.071, -1.523e-5
-1.070, -1.538e-5
-1.069, -1.543e-5
-1.068, -1.562e-5
-1.067, -1.579e-5
-1.066, -1.593e-5
-1.065, -1.608e-5
-1.064, -1.616e-5
-1.063, -1.642e-5
-1.062, -1.660e-5
-1.061, -1.672e-5
-1.060, -1.685e-5
-1.059, -1.698e-5
-1.058, -1.707e-5
-1.057, -1.727e-5
-1.056, -1.745e-5
-1.055, -1.761e-5
-1.054, -1.776e-5
-1.053, -1.786e-5
-1.052, -1.810e-5
-1.051, -1.827e-5
-1.050, -1.835e-5
-1.049, -1.855e-5
-1.048, -1.866e-5
-1.047, -1.887e-5
-1.046, -1.910e-5
-1.045, -1.921e-5
-1.044, -1.934e-5
-1.043, -1.960e-5
-1.042, -1.979e-5
-1.041, -2.003e-5
-1.040, -2.013e-5
-1.039, -2.028e-5
-1.038, -2.058e-5
-1.037, -2.076e-5
-1.036, -2.096e-5
-1.035, -2.118e-5
-1.034, -2.131e-5
-1.033, -2.160e-5
-1.032, -2.182e-5
-1.031, -2.201e-5
-1.030, -2.224e-5
-1.029, -2.242e-5
-1.028, -2.265e-5
-1.027, -2.299e-5
-1.026, -2.316e-5
-1.025, -2.342e-5
-1.024, -2.364e-5
-1.023, -2.387e-5
-1.022, -2.421e-5
-1.021, -2.444e-5
-1.020, -2.460e-5
-1.019, -2.490e-5
-1.018, -2.513e-5
-1.017, -2.545e-5
-1.016, -2.566e-5
-1.015, -2.584e-5
-1.014, -2.614e-5
-1.013, -2.634e-5
-1.012, -2.666e-5
-1.011, -2.694e-5
-1.010, -2.713e-5
-1.009, -2.742e-5
-1.008, -2.766e-5
-1.007, -2.796e-5
-1.006, -2.828e-5
-1.005, -2.848e-5
-1.004, -2.879e-5
-1.003, -2.915e-5
-1.002, -2.937e-5
-1.001, -2.974e-5
