Aug. 17, 2024   20:40:59
Cyclic Voltammetry
File: c:/users/guazh/data/20240813_batch_94_500/2024-08-15-exp116\exp116-2024-08-17t20_22_01-arkoh\exp116_cv_sr_400mvs_efin_-1700mv.bin
Data Source:  Experiment
Instrument Model:  CHI760E
Header: CV ran at 400 mVs
Note: 

Init E (V) = -1
High E (V) = -1
Low E (V) = -1.7
Final E (V) = -1
Init P/N = N
Scan Rate (V/s) = 0.4
Segment = 3
Sample Interval (V) = 0.001
Quiet Time (sec) = 2
Sensitivity (A/V) = 0.01
Comp R (ohm) = 1.4

Results:

Channel 1:
Segment 1:

Segment 2:

Segment 3:

Potential/V, Current/A

-1.000, 9.405e-6
-1.001, 1.865e-5
-1.002, 2.174e-5
-1.003, 2.482e-5
-1.004, 2.790e-5
-1.005, 2.482e-5
-1.006, 2.790e-5
-1.007, 2.790e-5
-1.008, 2.790e-5
-1.009, 3.099e-5
-1.010, 3.099e-5
-1.011, 3.099e-5
-1.012, 3.099e-5
-1.013, 3.099e-5
-1.014, 3.099e-5
-1.015, 3.099e-5
-1.016, 3.407e-5
-1.017, 3.407e-5
-1.018, 3.407e-5
-1.019, 3.407e-5
-1.020, 3.407e-5
-1.021, 3.407e-5
-1.022, 3.407e-5
-1.023, 3.715e-5
-1.024, 3.715e-5
-1.025, 3.715e-5
-1.026, 3.715e-5
-1.027, 3.715e-5
-1.028, 3.715e-5
-1.029, 3.715e-5
-1.030, 3.715e-5
-1.031, 3.715e-5
-1.032, 4.024e-5
-1.033, 4.024e-5
-1.034, 4.024e-5
-1.035, 4.024e-5
-1.036, 4.024e-5
-1.037, 4.024e-5
-1.038, 4.024e-5
-1.039, 4.024e-5
-1.040, 4.024e-5
-1.041, 4.024e-5
-1.042, 4.024e-5
-1.043, 4.332e-5
-1.044, 4.332e-5
-1.045, 4.332e-5
-1.046, 4.332e-5
-1.047, 4.332e-5
-1.048, 4.332e-5
-1.049, 4.332e-5
-1.050, 4.332e-5
-1.051, 4.332e-5
-1.052, 4.332e-5
-1.053, 4.332e-5
-1.054, 4.332e-5
-1.055, 4.332e-5
-1.056, 4.332e-5
-1.057, 4.332e-5
-1.058, 4.332e-5
-1.059, 4.332e-5
-1.060, 4.640e-5
-1.061, 4.640e-5
-1.062, 4.640e-5
-1.063, 4.640e-5
-1.064, 4.640e-5
-1.065, 4.640e-5
-1.066, 4.640e-5
-1.067, 4.640e-5
-1.068, 4.640e-5
-1.069, 4.640e-5
-1.070, 4.640e-5
-1.071, 4.640e-5
-1.072, 4.640e-5
-1.073, 4.949e-5
-1.074, 4.640e-5
-1.075, 4.640e-5
-1.076, 4.640e-5
-1.077, 4.949e-5
-1.078, 4.949e-5
-1.079, 4.949e-5
-1.080, 4.949e-5
-1.081, 4.949e-5
-1.082, 4.949e-5
-1.083, 4.949e-5
-1.084, 4.949e-5
-1.085, 4.949e-5
-1.086, 4.949e-5
-1.087, 4.949e-5
-1.088, 4.949e-5
-1.089, 4.949e-5
-1.090, 4.949e-5
-1.091, 4.949e-5
-1.092, 4.949e-5
-1.093, 5.257e-5
-1.094, 5.257e-5
-1.095, 5.257e-5
-1.096, 5.257e-5
-1.097, 5.257e-5
-1.098, 4.949e-5
-1.099, 5.257e-5
-1.100, 5.257e-5
-1.101, 5.257e-5
-1.102, 5.257e-5
-1.103, 5.257e-5
-1.104, 5.257e-5
-1.105, 5.257e-5
-1.106, 5.257e-5
-1.107, 5.257e-5
-1.108, 5.257e-5
-1.109, 5.257e-5
-1.110, 5.257e-5
-1.111, 5.257e-5
-1.112, 5.565e-5
-1.113, 5.257e-5
-1.114, 5.565e-5
-1.115, 5.565e-5
-1.116, 5.565e-5
-1.117, 5.565e-5
-1.118, 5.257e-5
-1.119, 5.565e-5
-1.120, 5.565e-5
-1.121, 5.565e-5
-1.122, 5.257e-5
-1.123, 5.565e-5
-1.124, 5.565e-5
-1.125, 5.565e-5
-1.126, 5.565e-5
-1.127, 5.565e-5
-1.128, 5.565e-5
-1.129, 5.565e-5
-1.130, 5.565e-5
-1.131, 5.565e-5
-1.132, 5.565e-5
-1.133, 5.565e-5
-1.134, 5.565e-5
-1.135, 5.873e-5
-1.136, 5.565e-5
-1.137, 5.873e-5
-1.138, 5.565e-5
-1.139, 5.873e-5
-1.140, 5.873e-5
-1.141, 5.873e-5
-1.142, 5.873e-5
-1.143, 5.873e-5
-1.144, 5.873e-5
-1.145, 5.873e-5
-1.146, 5.873e-5
-1.147, 5.873e-5
-1.148, 5.873e-5
-1.149, 5.873e-5
-1.150, 5.873e-5
-1.151, 5.873e-5
-1.152, 6.182e-5
-1.153, 5.873e-5
-1.154, 5.873e-5
-1.155, 6.182e-5
-1.156, 6.182e-5
-1.157, 6.182e-5
-1.158, 6.182e-5
-1.159, 6.182e-5
-1.160, 6.182e-5
-1.161, 6.182e-5
-1.162, 6.182e-5
-1.163, 6.182e-5
-1.164, 6.182e-5
-1.165, 6.182e-5
-1.166, 6.182e-5
-1.167, 6.182e-5
-1.168, 6.182e-5
-1.169, 6.182e-5
-1.170, 6.182e-5
-1.171, 6.182e-5
-1.172, 6.182e-5
-1.173, 6.182e-5
-1.174, 6.182e-5
-1.175, 6.182e-5
-1.176, 6.182e-5
-1.177, 6.490e-5
-1.178, 6.490e-5
-1.179, 6.490e-5
-1.180, 6.490e-5
-1.181, 6.490e-5
-1.182, 6.490e-5
-1.183, 6.490e-5
-1.184, 6.490e-5
-1.185, 6.490e-5
-1.186, 6.490e-5
-1.187, 6.490e-5
-1.188, 6.490e-5
-1.189, 6.490e-5
-1.190, 6.490e-5
-1.191, 6.490e-5
-1.192, 6.490e-5
-1.193, 6.490e-5
-1.194, 6.798e-5
-1.195, 6.490e-5
-1.196, 6.490e-5
-1.197, 6.490e-5
-1.198, 6.490e-5
-1.199, 6.798e-5
-1.200, 6.798e-5
-1.201, 6.798e-5
-1.202, 6.798e-5
-1.203, 6.798e-5
-1.204, 6.798e-5
-1.205, 6.798e-5
-1.206, 6.798e-5
-1.207, 6.798e-5
-1.208, 6.798e-5
-1.209, 6.798e-5
-1.210, 6.798e-5
-1.211, 6.798e-5
-1.212, 6.798e-5
-1.213, 6.798e-5
-1.214, 6.798e-5
-1.215, 6.798e-5
-1.216, 6.798e-5
-1.217, 6.798e-5
-1.218, 6.798e-5
-1.219, 6.798e-5
-1.220, 7.107e-5
-1.221, 6.798e-5
-1.222, 6.798e-5
-1.223, 7.107e-5
-1.224, 7.107e-5
-1.225, 7.107e-5
-1.226, 7.107e-5
-1.227, 7.107e-5
-1.228, 7.107e-5
-1.229, 7.107e-5
-1.230, 7.107e-5
-1.231, 7.107e-5
-1.232, 7.107e-5
-1.233, 7.107e-5
-1.234, 7.107e-5
-1.235, 7.107e-5
-1.236, 7.107e-5
-1.237, 7.107e-5
-1.238, 7.107e-5
-1.239, 7.107e-5
-1.240, 7.107e-5
-1.241, 7.415e-5
-1.242, 7.107e-5
-1.243, 7.107e-5
-1.244, 7.415e-5
-1.245, 7.107e-5
-1.246, 7.415e-5
-1.247, 7.415e-5
-1.248, 7.415e-5
-1.249, 7.415e-5
-1.250, 7.415e-5
-1.251, 7.415e-5
-1.252, 7.415e-5
-1.253, 7.415e-5
-1.254, 7.415e-5
-1.255, 7.415e-5
-1.256, 7.415e-5
-1.257, 7.415e-5
-1.258, 7.415e-5
-1.259, 7.415e-5
-1.260, 7.723e-5
-1.261, 7.723e-5
-1.262, 7.415e-5
-1.263, 7.723e-5
-1.264, 7.723e-5
-1.265, 7.723e-5
-1.266, 7.723e-5
-1.267, 7.723e-5
-1.268, 7.723e-5
-1.269, 7.723e-5
-1.270, 7.723e-5
-1.271, 7.723e-5
-1.272, 7.723e-5
-1.273, 7.723e-5
-1.274, 8.032e-5
-1.275, 7.723e-5
-1.276, 8.032e-5
-1.277, 8.032e-5
-1.278, 8.032e-5
-1.279, 8.032e-5
-1.280, 8.032e-5
-1.281, 8.032e-5
-1.282, 8.032e-5
-1.283, 8.032e-5
-1.284, 8.032e-5
-1.285, 8.340e-5
-1.286, 8.340e-5
-1.287, 8.340e-5
-1.288, 8.340e-5
-1.289, 8.340e-5
-1.290, 8.340e-5
-1.291, 8.340e-5
-1.292, 8.340e-5
-1.293, 8.340e-5
-1.294, 8.340e-5
-1.295, 8.648e-5
-1.296, 8.648e-5
-1.297, 8.648e-5
-1.298, 8.648e-5
-1.299, 8.957e-5
-1.300, 8.957e-5
-1.301, 8.957e-5
-1.302, 8.957e-5
-1.303, 8.957e-5
-1.304, 8.957e-5
-1.305, 9.265e-5
-1.306, 9.265e-5
-1.307, 9.265e-5
-1.308, 9.265e-5
-1.309, 9.265e-5
-1.310, 9.573e-5
-1.311, 9.573e-5
-1.312, 9.573e-5
-1.313, 9.882e-5
-1.314, 9.882e-5
-1.315, 9.882e-5
-1.316, 9.882e-5
-1.317, 9.882e-5
-1.318, 9.882e-5
-1.319, 1.019e-4
-1.320, 1.019e-4
-1.321, 1.019e-4
-1.322, 1.050e-4
-1.323, 1.050e-4
-1.324, 1.050e-4
-1.325, 1.050e-4
-1.326, 1.081e-4
-1.327, 1.081e-4
-1.328, 1.081e-4
-1.329, 1.111e-4
-1.330, 1.111e-4
-1.331, 1.111e-4
-1.332, 1.142e-4
-1.333, 1.142e-4
-1.334, 1.173e-4
-1.335, 1.173e-4
-1.336, 1.173e-4
-1.337, 1.204e-4
-1.338, 1.204e-4
-1.339, 1.204e-4
-1.340, 1.235e-4
-1.341, 1.235e-4
-1.342, 1.235e-4
-1.343, 1.266e-4
-1.344, 1.296e-4
-1.345, 1.296e-4
-1.346, 1.327e-4
-1.347, 1.327e-4
-1.348, 1.358e-4
-1.349, 1.358e-4
-1.350, 1.389e-4
-1.351, 1.389e-4
-1.352, 1.420e-4
-1.353, 1.420e-4
-1.354, 1.420e-4
-1.355, 1.451e-4
-1.356, 1.481e-4
-1.357, 1.481e-4
-1.358, 1.512e-4
-1.359, 1.512e-4
-1.360, 1.543e-4
-1.361, 1.574e-4
-1.362, 1.574e-4
-1.363, 1.605e-4
-1.364, 1.636e-4
-1.365, 1.636e-4
-1.366, 1.666e-4
-1.367, 1.697e-4
-1.368, 1.697e-4
-1.369, 1.728e-4
-1.370, 1.728e-4
-1.371, 1.790e-4
-1.372, 1.821e-4
-1.373, 1.821e-4
-1.374, 1.851e-4
-1.375, 1.882e-4
-1.376, 1.882e-4
-1.377, 1.944e-4
-1.378, 1.944e-4
-1.379, 1.975e-4
-1.380, 2.006e-4
-1.381, 2.036e-4
-1.382, 2.067e-4
-1.383, 2.098e-4
-1.384, 2.098e-4
-1.385, 2.129e-4
-1.386, 2.160e-4
-1.387, 2.221e-4
-1.388, 2.221e-4
-1.389, 2.252e-4
-1.390, 2.283e-4
-1.391, 2.345e-4
-1.392, 2.345e-4
-1.393, 2.406e-4
-1.394, 2.406e-4
-1.395, 2.468e-4
-1.396, 2.499e-4
-1.397, 2.530e-4
-1.398, 2.561e-4
-1.399, 2.591e-4
-1.400, 2.653e-4
-1.401, 2.684e-4
-1.402, 2.715e-4
-1.403, 2.746e-4
-1.404, 2.776e-4
-1.405, 2.838e-4
-1.406, 2.869e-4
-1.407, 2.931e-4
-1.408, 2.961e-4
-1.409, 2.992e-4
-1.410, 3.054e-4
-1.411, 3.085e-4
-1.412, 3.146e-4
-1.413, 3.177e-4
-1.414, 3.208e-4
-1.415, 3.270e-4
-1.416, 3.331e-4
-1.417, 3.393e-4
-1.418, 3.424e-4
-1.419, 3.485e-4
-1.420, 3.516e-4
-1.421, 3.578e-4
-1.422, 3.609e-4
-1.423, 3.670e-4
-1.424, 3.732e-4
-1.425, 3.763e-4
-1.426, 3.825e-4
-1.427, 3.886e-4
-1.428, 3.948e-4
-1.429, 4.010e-4
-1.430, 4.071e-4
-1.431, 4.102e-4
-1.432, 4.164e-4
-1.433, 4.256e-4
-1.434, 4.287e-4
-1.435, 4.349e-4
-1.436, 4.410e-4
-1.437, 4.472e-4
-1.438, 4.534e-4
-1.439, 4.595e-4
-1.440, 4.688e-4
-1.441, 4.719e-4
-1.442, 4.780e-4
-1.443, 4.873e-4
-1.444, 4.935e-4
-1.445, 4.996e-4
-1.446, 5.058e-4
-1.447, 5.150e-4
-1.448, 5.212e-4
-1.449, 5.274e-4
-1.450, 5.335e-4
-1.451, 5.428e-4
-1.452, 5.489e-4
-1.453, 5.551e-4
-1.454, 5.644e-4
-1.455, 5.705e-4
-1.456, 5.798e-4
-1.457, 5.859e-4
-1.458, 5.921e-4
-1.459, 6.014e-4
-1.460, 6.106e-4
-1.461, 6.168e-4
-1.462, 6.229e-4
-1.463, 6.322e-4
-1.464, 6.414e-4
-1.465, 6.476e-4
-1.466, 6.569e-4
-1.467, 6.630e-4
-1.468, 6.723e-4
-1.469, 6.784e-4
-1.470, 6.877e-4
-1.471, 6.939e-4
-1.472, 7.031e-4
-1.473, 7.124e-4
-1.474, 7.185e-4
-1.475, 7.278e-4
-1.476, 7.370e-4
-1.477, 7.432e-4
-1.478, 7.524e-4
-1.479, 7.617e-4
-1.480, 7.709e-4
-1.481, 7.771e-4
-1.482, 7.863e-4
-1.483, 7.956e-4
-1.484, 8.048e-4
-1.485, 8.110e-4
-1.486, 8.203e-4
-1.487, 8.295e-4
-1.488, 8.388e-4
-1.489, 8.449e-4
-1.490, 8.542e-4
-1.491, 8.634e-4
-1.492, 8.727e-4
-1.493, 8.788e-4
-1.494, 8.881e-4
-1.495, 8.973e-4
-1.496, 9.066e-4
-1.497, 9.158e-4
-1.498, 9.220e-4
-1.499, 9.313e-4
-1.500, 9.405e-4
-1.501, 9.467e-4
-1.502, 9.559e-4
-1.503, 9.652e-4
-1.504, 9.744e-4
-1.505, 9.806e-4
-1.506, 9.929e-4
-1.507, 9.991e-4
-1.508, 1.008e-3
-1.509, 1.014e-3
-1.510, 1.027e-3
-1.511, 1.033e-3
-1.512, 1.042e-3
-1.513, 1.051e-3
-1.514, 1.058e-3
-1.515, 1.067e-3
-1.516, 1.076e-3
-1.517, 1.085e-3
-1.518, 1.092e-3
-1.519, 1.101e-3
-1.520, 1.110e-3
-1.521, 1.116e-3
-1.522, 1.125e-3
-1.523, 1.135e-3
-1.524, 1.144e-3
-1.525, 1.150e-3
-1.526, 1.159e-3
-1.527, 1.169e-3
-1.528, 1.178e-3
-1.529, 1.184e-3
-1.530, 1.193e-3
-1.531, 1.203e-3
-1.532, 1.209e-3
-1.533, 1.218e-3
-1.534, 1.224e-3
-1.535, 1.233e-3
-1.536, 1.243e-3
-1.537, 1.252e-3
-1.538, 1.258e-3
-1.539, 1.267e-3
-1.540, 1.277e-3
-1.541, 1.286e-3
-1.542, 1.292e-3
-1.543, 1.301e-3
-1.544, 1.310e-3
-1.545, 1.320e-3
-1.546, 1.326e-3
-1.547, 1.335e-3
-1.548, 1.344e-3
-1.549, 1.351e-3
-1.550, 1.360e-3
-1.551, 1.369e-3
-1.552, 1.378e-3
-1.553, 1.388e-3
-1.554, 1.394e-3
-1.555, 1.403e-3
-1.556, 1.412e-3
-1.557, 1.418e-3
-1.558, 1.431e-3
-1.559, 1.437e-3
-1.560, 1.446e-3
-1.561, 1.455e-3
-1.562, 1.462e-3
-1.563, 1.471e-3
-1.564, 1.480e-3
-1.565, 1.489e-3
-1.566, 1.499e-3
-1.567, 1.508e-3
-1.568, 1.517e-3
-1.569, 1.526e-3
-1.570, 1.536e-3
-1.571, 1.545e-3
-1.572, 1.554e-3
-1.573, 1.563e-3
-1.574, 1.569e-3
-1.575, 1.582e-3
-1.576, 1.591e-3
-1.577, 1.600e-3
-1.578, 1.610e-3
-1.579, 1.622e-3
-1.580, 1.631e-3
-1.581, 1.640e-3
-1.582, 1.650e-3
-1.583, 1.659e-3
-1.584, 1.671e-3
-1.585, 1.680e-3
-1.586, 1.690e-3
-1.587, 1.702e-3
-1.588, 1.711e-3
-1.589, 1.721e-3
-1.590, 1.733e-3
-1.591, 1.745e-3
-1.592, 1.754e-3
-1.593, 1.767e-3
-1.594, 1.776e-3
-1.595, 1.788e-3
-1.596, 1.798e-3
-1.597, 1.810e-3
-1.598, 1.822e-3
-1.599, 1.835e-3
-1.600, 1.847e-3
-1.601, 1.859e-3
-1.602, 1.869e-3
-1.603, 1.881e-3
-1.604, 1.893e-3
-1.605, 1.909e-3
-1.606, 1.921e-3
-1.607, 1.933e-3
-1.608, 1.946e-3
-1.609, 1.958e-3
-1.610, 1.973e-3
-1.611, 1.989e-3
-1.612, 2.001e-3
-1.613, 2.017e-3
-1.614, 2.032e-3
-1.615, 2.047e-3
-1.616, 2.060e-3
-1.617, 2.075e-3
-1.618, 2.091e-3
-1.619, 2.106e-3
-1.620, 2.121e-3
-1.621, 2.137e-3
-1.622, 2.152e-3
-1.623, 2.168e-3
-1.624, 2.183e-3
-1.625, 2.201e-3
-1.626, 2.220e-3
-1.627, 2.235e-3
-1.628, 2.251e-3
-1.629, 2.269e-3
-1.630, 2.288e-3
-1.631, 2.306e-3
-1.632, 2.322e-3
-1.633, 2.343e-3
-1.634, 2.362e-3
-1.635, 2.383e-3
-1.636, 2.402e-3
-1.637, 2.420e-3
-1.638, 2.442e-3
-1.639, 2.464e-3
-1.640, 2.482e-3
-1.641, 2.504e-3
-1.642, 2.522e-3
-1.643, 2.547e-3
-1.644, 2.565e-3
-1.645, 2.587e-3
-1.646, 2.612e-3
-1.647, 2.633e-3
-1.648, 2.655e-3
-1.649, 2.676e-3
-1.650, 2.701e-3
-1.651, 2.726e-3
-1.652, 2.750e-3
-1.653, 2.775e-3
-1.654, 2.803e-3
-1.655, 2.824e-3
-1.656, 2.852e-3
-1.657, 2.877e-3
-1.658, 2.901e-3
-1.659, 2.929e-3
-1.660, 2.957e-3
-1.661, 2.982e-3
-1.662, 3.009e-3
-1.663, 3.040e-3
-1.664, 3.068e-3
-1.665, 3.096e-3
-1.666, 3.123e-3
-1.667, 3.154e-3
-1.668, 3.182e-3
-1.669, 3.210e-3
-1.670, 3.241e-3
-1.671, 3.271e-3
-1.672, 3.302e-3
-1.673, 3.333e-3
-1.674, 3.367e-3
-1.675, 3.401e-3
-1.676, 3.429e-3
-1.677, 3.459e-3
-1.678, 3.493e-3
-1.679, 3.527e-3
-1.680, 3.567e-3
-1.681, 3.601e-3
-1.682, 3.635e-3
-1.683, 3.669e-3
-1.684, 3.703e-3
-1.685, 3.734e-3
-1.686, 3.768e-3
-1.687, 3.805e-3
-1.688, 3.839e-3
-1.689, 3.873e-3
-1.690, 3.910e-3
-1.691, 3.947e-3
-1.692, 3.984e-3
-1.693, 4.021e-3
-1.694, 4.054e-3
-1.695, 4.091e-3
-1.696, 4.138e-3
-1.697, 4.178e-3
-1.698, 4.218e-3
-1.699, 4.258e-3
-1.700, 4.264e-3
-1.699, 4.227e-3
-1.698, 4.196e-3
-1.697, 4.159e-3
-1.696, 4.122e-3
-1.695, 4.082e-3
-1.694, 4.045e-3
-1.693, 4.011e-3
-1.692, 3.971e-3
-1.691, 3.931e-3
-1.690, 3.891e-3
-1.689, 3.854e-3
-1.688, 3.848e-3
-1.687, 3.814e-3
-1.686, 3.768e-3
-1.685, 3.721e-3
-1.684, 3.681e-3
-1.683, 3.647e-3
-1.682, 3.638e-3
-1.681, 3.601e-3
-1.680, 3.564e-3
-1.679, 3.524e-3
-1.678, 3.487e-3
-1.677, 3.453e-3
-1.676, 3.429e-3
-1.675, 3.395e-3
-1.674, 3.358e-3
-1.673, 3.321e-3
-1.672, 3.281e-3
-1.671, 3.247e-3
-1.670, 3.213e-3
-1.669, 3.176e-3
-1.668, 3.136e-3
-1.667, 3.102e-3
-1.666, 3.065e-3
-1.665, 3.025e-3
-1.664, 2.991e-3
-1.663, 2.954e-3
-1.662, 2.923e-3
-1.661, 2.889e-3
-1.660, 2.852e-3
-1.659, 2.818e-3
-1.658, 2.784e-3
-1.657, 2.750e-3
-1.656, 2.716e-3
-1.655, 2.686e-3
-1.654, 2.652e-3
-1.653, 2.618e-3
-1.652, 2.587e-3
-1.651, 2.556e-3
-1.650, 2.522e-3
-1.649, 2.491e-3
-1.648, 2.460e-3
-1.647, 2.430e-3
-1.646, 2.402e-3
-1.645, 2.371e-3
-1.644, 2.343e-3
-1.643, 2.312e-3
-1.642, 2.282e-3
-1.641, 2.254e-3
-1.640, 2.226e-3
-1.639, 2.195e-3
-1.638, 2.171e-3
-1.637, 2.140e-3
-1.636, 2.115e-3
-1.635, 2.091e-3
-1.634, 2.069e-3
-1.633, 2.038e-3
-1.632, 2.017e-3
-1.631, 1.992e-3
-1.630, 1.967e-3
-1.629, 1.943e-3
-1.628, 1.921e-3
-1.627, 1.896e-3
-1.626, 1.872e-3
-1.625, 1.847e-3
-1.624, 1.825e-3
-1.623, 1.801e-3
-1.622, 1.779e-3
-1.621, 1.754e-3
-1.620, 1.730e-3
-1.619, 1.705e-3
-1.618, 1.684e-3
-1.617, 1.662e-3
-1.616, 1.640e-3
-1.615, 1.616e-3
-1.614, 1.594e-3
-1.613, 1.573e-3
-1.612, 1.551e-3
-1.611, 1.529e-3
-1.610, 1.508e-3
-1.609, 1.486e-3
-1.608, 1.468e-3
-1.607, 1.446e-3
-1.606, 1.428e-3
-1.605, 1.409e-3
-1.604, 1.391e-3
-1.603, 1.372e-3
-1.602, 1.354e-3
-1.601, 1.332e-3
-1.600, 1.314e-3
-1.599, 1.295e-3
-1.598, 1.280e-3
-1.597, 1.261e-3
-1.596, 1.243e-3
-1.595, 1.227e-3
-1.594, 1.212e-3
-1.593, 1.193e-3
-1.592, 1.178e-3
-1.591, 1.162e-3
-1.590, 1.147e-3
-1.589, 1.132e-3
-1.588, 1.119e-3
-1.587, 1.101e-3
-1.586, 1.085e-3
-1.585, 1.073e-3
-1.584, 1.058e-3
-1.583, 1.042e-3
-1.582, 1.030e-3
-1.581, 1.018e-3
-1.580, 1.005e-3
-1.579, 9.898e-4
-1.578, 9.775e-4
-1.577, 9.621e-4
-1.576, 9.498e-4
-1.575, 9.374e-4
-1.574, 9.282e-4
-1.573, 9.128e-4
-1.572, 9.004e-4
-1.571, 8.881e-4
-1.570, 8.788e-4
-1.569, 8.665e-4
-1.568, 8.573e-4
-1.567, 8.449e-4
-1.566, 8.357e-4
-1.565, 8.233e-4
-1.564, 8.141e-4
-1.563, 8.018e-4
-1.562, 7.925e-4
-1.561, 7.833e-4
-1.560, 7.740e-4
-1.559, 7.617e-4
-1.558, 7.524e-4
-1.557, 7.432e-4
-1.556, 7.339e-4
-1.555, 7.247e-4
-1.554, 7.154e-4
-1.553, 7.093e-4
-1.552, 6.969e-4
-1.551, 6.877e-4
-1.550, 6.815e-4
-1.549, 6.723e-4
-1.548, 6.630e-4
-1.547, 6.569e-4
-1.546, 6.476e-4
-1.545, 6.414e-4
-1.544, 6.322e-4
-1.543, 6.229e-4
-1.542, 6.168e-4
-1.541, 6.106e-4
-1.540, 6.014e-4
-1.539, 5.952e-4
-1.538, 5.859e-4
-1.537, 5.798e-4
-1.536, 5.736e-4
-1.535, 5.674e-4
-1.534, 5.613e-4
-1.533, 5.520e-4
-1.532, 5.459e-4
-1.531, 5.428e-4
-1.530, 5.335e-4
-1.529, 5.274e-4
-1.528, 5.212e-4
-1.527, 5.150e-4
-1.526, 5.089e-4
-1.525, 5.027e-4
-1.524, 4.965e-4
-1.523, 4.935e-4
-1.522, 4.873e-4
-1.521, 4.811e-4
-1.520, 4.750e-4
-1.519, 4.688e-4
-1.518, 4.626e-4
-1.517, 4.565e-4
-1.516, 4.534e-4
-1.515, 4.472e-4
-1.514, 4.441e-4
-1.513, 4.380e-4
-1.512, 4.318e-4
-1.511, 4.287e-4
-1.510, 4.225e-4
-1.509, 4.164e-4
-1.508, 4.133e-4
-1.507, 4.071e-4
-1.506, 4.010e-4
-1.505, 3.979e-4
-1.504, 3.917e-4
-1.503, 3.886e-4
-1.502, 3.825e-4
-1.501, 3.794e-4
-1.500, 3.732e-4
-1.499, 3.701e-4
-1.498, 3.640e-4
-1.497, 3.609e-4
-1.496, 3.547e-4
-1.495, 3.516e-4
-1.494, 3.485e-4
-1.493, 3.424e-4
-1.492, 3.362e-4
-1.491, 3.362e-4
-1.490, 3.300e-4
-1.489, 3.270e-4
-1.488, 3.239e-4
-1.487, 3.177e-4
-1.486, 3.146e-4
-1.485, 3.115e-4
-1.484, 3.054e-4
-1.483, 3.023e-4
-1.482, 2.992e-4
-1.481, 2.931e-4
-1.480, 2.900e-4
-1.479, 2.869e-4
-1.478, 2.807e-4
-1.477, 2.807e-4
-1.476, 2.746e-4
-1.475, 2.715e-4
-1.474, 2.684e-4
-1.473, 2.653e-4
-1.472, 2.591e-4
-1.471, 2.591e-4
-1.470, 2.530e-4
-1.469, 2.499e-4
-1.468, 2.468e-4
-1.467, 2.437e-4
-1.466, 2.406e-4
-1.465, 2.376e-4
-1.464, 2.345e-4
-1.463, 2.314e-4
-1.462, 2.252e-4
-1.461, 2.252e-4
-1.460, 2.191e-4
-1.459, 2.160e-4
-1.458, 2.129e-4
-1.457, 2.098e-4
-1.456, 2.067e-4
-1.455, 2.036e-4
-1.454, 2.006e-4
-1.453, 1.975e-4
-1.452, 1.944e-4
-1.451, 1.913e-4
-1.450, 1.882e-4
-1.449, 1.851e-4
-1.448, 1.821e-4
-1.447, 1.790e-4
-1.446, 1.759e-4
-1.445, 1.728e-4
-1.444, 1.697e-4
-1.443, 1.697e-4
-1.442, 1.666e-4
-1.441, 1.636e-4
-1.440, 1.605e-4
-1.439, 1.574e-4
-1.438, 1.543e-4
-1.437, 1.512e-4
-1.436, 1.512e-4
-1.435, 1.481e-4
-1.434, 1.451e-4
-1.433, 1.420e-4
-1.432, 1.389e-4
-1.431, 1.358e-4
-1.430, 1.327e-4
-1.429, 1.296e-4
-1.428, 1.296e-4
-1.427, 1.266e-4
-1.426, 1.235e-4
-1.425, 1.204e-4
-1.424, 1.204e-4
-1.423, 1.173e-4
-1.422, 1.142e-4
-1.421, 1.142e-4
-1.420, 1.111e-4
-1.419, 1.081e-4
-1.418, 1.081e-4
-1.417, 1.050e-4
-1.416, 1.019e-4
-1.415, 9.882e-5
-1.414, 9.882e-5
-1.413, 9.573e-5
-1.412, 9.265e-5
-1.411, 9.265e-5
-1.410, 8.957e-5
-1.409, 8.648e-5
-1.408, 8.648e-5
-1.407, 8.340e-5
-1.406, 8.340e-5
-1.405, 8.032e-5
-1.404, 8.032e-5
-1.403, 7.723e-5
-1.402, 7.723e-5
-1.401, 7.415e-5
-1.400, 7.107e-5
-1.399, 7.107e-5
-1.398, 6.798e-5
-1.397, 6.798e-5
-1.396, 6.490e-5
-1.395, 6.182e-5
-1.394, 6.182e-5
-1.393, 6.182e-5
-1.392, 5.873e-5
-1.391, 5.565e-5
-1.390, 5.565e-5
-1.389, 5.257e-5
-1.388, 5.257e-5
-1.387, 5.257e-5
-1.386, 4.949e-5
-1.385, 4.640e-5
-1.384, 4.640e-5
-1.383, 4.640e-5
-1.382, 4.332e-5
-1.381, 4.332e-5
-1.380, 4.332e-5
-1.379, 4.024e-5
-1.378, 4.024e-5
-1.377, 3.715e-5
-1.376, 3.715e-5
-1.375, 3.407e-5
-1.374, 3.407e-5
-1.373, 3.099e-5
-1.372, 3.099e-5
-1.371, 3.099e-5
-1.370, 2.790e-5
-1.369, 2.790e-5
-1.368, 2.790e-5
-1.367, 2.790e-5
-1.366, 2.482e-5
-1.365, 2.482e-5
-1.364, 2.174e-5
-1.363, 2.174e-5
-1.362, 2.174e-5
-1.361, 2.174e-5
-1.360, 1.865e-5
-1.359, 1.865e-5
-1.358, 1.865e-5
-1.357, 1.557e-5
-1.356, 1.557e-5
-1.355, 1.557e-5
-1.354, 1.557e-5
-1.353, 1.249e-5
-1.352, 1.249e-5
-1.351, 9.405e-6
-1.350, 9.405e-6
-1.349, 9.405e-6
-1.348, 9.405e-6
-1.347, 9.405e-6
-1.346, 9.405e-6
-1.345, 6.322e-6
-1.344, 6.322e-6
-1.343, 6.322e-6
-1.342, 3.239e-6
-1.341, 3.239e-6
-1.340, 3.239e-6
-1.339, 3.239e-6
-1.338, 1.559e-7
-1.337, 1.559e-7
-1.336, 1.559e-7
-1.335, 1.559e-7
-1.334, 1.559e-7
-1.333, 1.559e-7
-1.332, -2.927e-6
-1.331, -2.927e-6
-1.330, -2.927e-6
-1.329, -2.927e-6
-1.328, -2.927e-6
-1.327, -2.927e-6
-1.326, -6.010e-6
-1.325, -6.010e-6
-1.324, -6.010e-6
-1.323, -6.010e-6
-1.322, -6.010e-6
-1.321, -9.093e-6
-1.320, -9.093e-6
-1.319, -9.093e-6
-1.318, -9.093e-6
-1.317, -9.093e-6
-1.316, -9.093e-6
-1.315, -9.093e-6
-1.314, -1.218e-5
-1.313, -1.218e-5
-1.312, -1.218e-5
-1.311, -1.218e-5
-1.310, -1.218e-5
-1.309, -1.218e-5
-1.308, -1.526e-5
-1.307, -1.526e-5
-1.306, -1.526e-5
-1.305, -1.526e-5
-1.304, -1.526e-5
-1.303, -1.526e-5
-1.302, -1.526e-5
-1.301, -1.526e-5
-1.300, -1.834e-5
-1.299, -1.834e-5
-1.298, -1.834e-5
-1.297, -1.834e-5
-1.296, -1.834e-5
-1.295, -1.834e-5
-1.294, -1.834e-5
-1.293, -1.834e-5
-1.292, -2.143e-5
-1.291, -2.143e-5
-1.290, -2.143e-5
-1.289, -2.143e-5
-1.288, -2.143e-5
-1.287, -2.143e-5
-1.286, -2.143e-5
-1.285, -2.143e-5
-1.284, -2.143e-5
-1.283, -2.143e-5
-1.282, -2.143e-5
-1.281, -2.451e-5
-1.280, -2.451e-5
-1.279, -2.451e-5
-1.278, -2.451e-5
-1.277, -2.451e-5
-1.276, -2.451e-5
-1.275, -2.451e-5
-1.274, -2.451e-5
-1.273, -2.451e-5
-1.272, -2.451e-5
-1.271, -2.759e-5
-1.270, -2.759e-5
-1.269, -2.451e-5
-1.268, -2.759e-5
-1.267, -2.451e-5
-1.266, -2.759e-5
-1.265, -2.759e-5
-1.264, -2.759e-5
-1.263, -2.759e-5
-1.262, -2.759e-5
-1.261, -2.759e-5
-1.260, -2.759e-5
-1.259, -2.759e-5
-1.258, -2.759e-5
-1.257, -2.759e-5
-1.256, -2.759e-5
-1.255, -2.759e-5
-1.254, -3.068e-5
-1.253, -2.759e-5
-1.252, -3.068e-5
-1.251, -3.068e-5
-1.250, -3.068e-5
-1.249, -3.068e-5
-1.248, -3.068e-5
-1.247, -3.068e-5
-1.246, -3.068e-5
-1.245, -3.068e-5
-1.244, -3.068e-5
-1.243, -3.068e-5
-1.242, -3.068e-5
-1.241, -3.068e-5
-1.240, -3.068e-5
-1.239, -3.068e-5
-1.238, -3.376e-5
-1.237, -3.068e-5
-1.236, -3.376e-5
-1.235, -3.376e-5
-1.234, -3.376e-5
-1.233, -3.376e-5
-1.232, -3.376e-5
-1.231, -3.376e-5
-1.230, -3.376e-5
-1.229, -3.376e-5
-1.228, -3.376e-5
-1.227, -3.376e-5
-1.226, -3.376e-5
-1.225, -3.376e-5
-1.224, -3.376e-5
-1.223, -3.376e-5
-1.222, -3.376e-5
-1.221, -3.376e-5
-1.220, -3.376e-5
-1.219, -3.684e-5
-1.218, -3.684e-5
-1.217, -3.684e-5
-1.216, -3.684e-5
-1.215, -3.684e-5
-1.214, -3.684e-5
-1.213, -3.376e-5
-1.212, -3.684e-5
-1.211, -3.684e-5
-1.210, -3.684e-5
-1.209, -3.684e-5
-1.208, -3.684e-5
-1.207, -3.684e-5
-1.206, -3.684e-5
-1.205, -3.684e-5
-1.204, -3.684e-5
-1.203, -3.684e-5
-1.202, -3.684e-5
-1.201, -3.684e-5
-1.200, -3.684e-5
-1.199, -3.992e-5
-1.198, -3.992e-5
-1.197, -3.992e-5
-1.196, -3.684e-5
-1.195, -3.992e-5
-1.194, -3.992e-5
-1.193, -3.992e-5
-1.192, -3.992e-5
-1.191, -3.992e-5
-1.190, -3.992e-5
-1.189, -3.992e-5
-1.188, -3.992e-5
-1.187, -3.992e-5
-1.186, -3.992e-5
-1.185, -3.992e-5
-1.184, -3.992e-5
-1.183, -3.992e-5
-1.182, -3.992e-5
-1.181, -3.992e-5
-1.180, -3.992e-5
-1.179, -4.301e-5
-1.178, -3.992e-5
-1.177, -3.992e-5
-1.176, -4.301e-5
-1.175, -4.301e-5
-1.174, -4.301e-5
-1.173, -4.301e-5
-1.172, -4.301e-5
-1.171, -4.301e-5
-1.170, -4.301e-5
-1.169, -4.301e-5
-1.168, -4.301e-5
-1.167, -4.301e-5
-1.166, -4.301e-5
-1.165, -4.301e-5
-1.164, -4.301e-5
-1.163, -4.301e-5
-1.162, -4.301e-5
-1.161, -4.301e-5
-1.160, -4.301e-5
-1.159, -4.301e-5
-1.158, -4.609e-5
-1.157, -4.609e-5
-1.156, -4.301e-5
-1.155, -4.609e-5
-1.154, -4.609e-5
-1.153, -4.609e-5
-1.152, -4.609e-5
-1.151, -4.609e-5
-1.150, -4.609e-5
-1.149, -4.609e-5
-1.148, -4.609e-5
-1.147, -4.609e-5
-1.146, -4.609e-5
-1.145, -4.609e-5
-1.144, -4.609e-5
-1.143, -4.609e-5
-1.142, -4.609e-5
-1.141, -4.609e-5
-1.140, -4.609e-5
-1.139, -4.609e-5
-1.138, -4.917e-5
-1.137, -4.917e-5
-1.136, -4.917e-5
-1.135, -4.917e-5
-1.134, -4.917e-5
-1.133, -4.917e-5
-1.132, -4.917e-5
-1.131, -4.917e-5
-1.130, -4.917e-5
-1.129, -4.917e-5
-1.128, -4.917e-5
-1.127, -4.917e-5
-1.126, -4.917e-5
-1.125, -4.917e-5
-1.124, -4.917e-5
-1.123, -4.917e-5
-1.122, -4.917e-5
-1.121, -4.917e-5
-1.120, -4.917e-5
-1.119, -4.917e-5
-1.118, -4.917e-5
-1.117, -5.226e-5
-1.116, -5.226e-5
-1.115, -5.226e-5
-1.114, -4.917e-5
-1.113, -5.226e-5
-1.112, -5.226e-5
-1.111, -5.226e-5
-1.110, -5.226e-5
-1.109, -5.226e-5
-1.108, -5.226e-5
-1.107, -5.226e-5
-1.106, -5.226e-5
-1.105, -5.226e-5
-1.104, -5.226e-5
-1.103, -5.226e-5
-1.102, -5.226e-5
-1.101, -5.226e-5
-1.100, -5.226e-5
-1.099, -5.226e-5
-1.098, -5.226e-5
-1.097, -5.534e-5
-1.096, -5.226e-5
-1.095, -5.226e-5
-1.094, -5.534e-5
-1.093, -5.534e-5
-1.092, -5.534e-5
-1.091, -5.534e-5
-1.090, -5.534e-5
-1.089, -5.534e-5
-1.088, -5.534e-5
-1.087, -5.534e-5
-1.086, -5.534e-5
-1.085, -5.534e-5
-1.084, -5.534e-5
-1.083, -5.534e-5
-1.082, -5.842e-5
-1.081, -5.842e-5
-1.080, -5.534e-5
-1.079, -5.534e-5
-1.078, -5.842e-5
-1.077, -5.842e-5
-1.076, -5.842e-5
-1.075, -5.842e-5
-1.074, -5.842e-5
-1.073, -5.842e-5
-1.072, -5.842e-5
-1.071, -5.842e-5
-1.070, -5.842e-5
-1.069, -6.151e-5
-1.068, -5.842e-5
-1.067, -6.151e-5
-1.066, -6.151e-5
-1.065, -6.151e-5
-1.064, -6.151e-5
-1.063, -6.151e-5
-1.062, -6.151e-5
-1.061, -6.151e-5
-1.060, -6.151e-5
-1.059, -6.151e-5
-1.058, -6.151e-5
-1.057, -6.151e-5
-1.056, -6.151e-5
-1.055, -6.459e-5
-1.054, -6.151e-5
-1.053, -6.459e-5
-1.052, -6.459e-5
-1.051, -6.459e-5
-1.050, -6.459e-5
-1.049, -6.459e-5
-1.048, -6.459e-5
-1.047, -6.459e-5
-1.046, -6.459e-5
-1.045, -6.767e-5
-1.044, -6.767e-5
-1.043, -6.767e-5
-1.042, -6.767e-5
-1.041, -6.767e-5
-1.040, -6.767e-5
-1.039, -6.767e-5
-1.038, -6.767e-5
-1.037, -6.767e-5
-1.036, -6.767e-5
-1.035, -7.076e-5
-1.034, -7.076e-5
-1.033, -7.076e-5
-1.032, -7.076e-5
-1.031, -7.076e-5
-1.030, -7.076e-5
-1.029, -7.076e-5
-1.028, -7.076e-5
-1.027, -7.384e-5
-1.026, -7.384e-5
-1.025, -7.384e-5
-1.024, -7.384e-5
-1.023, -7.384e-5
-1.022, -7.692e-5
-1.021, -7.384e-5
-1.020, -7.692e-5
-1.019, -7.692e-5
-1.018, -7.692e-5
-1.017, -7.692e-5
-1.016, -7.692e-5
-1.015, -8.000e-5
-1.014, -8.000e-5
-1.013, -8.000e-5
-1.012, -8.000e-5
-1.011, -8.000e-5
-1.010, -8.309e-5
-1.009, -8.309e-5
-1.008, -8.309e-5
-1.007, -8.309e-5
-1.006, -8.309e-5
-1.005, -8.309e-5
-1.004, -8.617e-5
-1.003, -8.617e-5
-1.002, -8.617e-5
-1.001, -8.617e-5
