Potential V vs RHE, Current mA cm-2
0.013299999999999867,39.44215104023723
0.012299999999999978,37.702056141403226
0.011299999999999866,36.3439332935328
0.010299999999999976,34.702868185689354
0.009299999999999864,33.06180307784591
0.008299999999999974,31.915886924955227
0.007299999999999862,30.571911190083444
0.006299999999999972,29.015728760231898
0.00529999999999986,27.883959720339874
0.0042999999999999705,26.794632019443796
0.0032999999999998586,25.351626493581456
0.0022999999999999687,24.191563227692125
0.0012999999999998568,23.300295108777156
0.00029999999999996696,22.027054938898623
-0.000700000000000145,20.75381476902009
-0.0017000000000000348,19.876693763103766
-0.0027000000000001467,18.80151317520634
-0.0037000000000000366,17.48583166633185
-0.0047000000000001485,16.59456354741688
-0.005700000000000038,15.717442541500558
-0.00670000000000015,14.458349484620674
-0.00770000000000004,13.449660327816902
-0.008700000000000152,12.714010451887084
-0.009700000000000042,11.579411989395325
-0.010700000000000154,10.440569393003972
-0.011700000000000044,9.717651918772937
-0.012700000000000156,8.805163130359988
-0.013700000000000045,7.6267086175724135
-0.014700000000000157,6.864179226945158
-0.015700000000000047,6.124285217115744
-0.01670000000000016,5.01090742412196
-0.01770000000000005,4.109736326107932
-0.01870000000000016,3.502825178465831
-0.01970000000000005,2.4913065990623298
-0.020700000000000163,1.4911057100577487
-0.021700000000000053,0.8810821975559447
-0.022700000000000164,0.05599427324865815
-0.023700000000000054,-1.0229777409324081
-0.024700000000000166,-1.700482982437774
-0.025700000000000056,-2.349835469075826
-0.026700000000000168,-3.3854041405770325
-0.027700000000000058,-4.190374870200238
-0.02870000000000017,-4.729379875448817
-0.02970000000000006,-5.667333467259336
-0.03070000000000017,-6.598213502570531
-0.03170000000000006,-7.1216566835205946
-0.03270000000000017,-7.874283095048795
-0.03370000000000006,-8.880142829252835
-0.034700000000000175,-9.47998042039561
-0.035700000000000065,-10.07557387763879
-0.03670000000000018,-11.060212942344856
-0.03770000000000007,-11.814254065172921
-0.03870000000000018,-12.299500041026628
-0.03970000000000007,-13.175206335643086
-0.04070000000000018,-14.070718588457655
-0.04170000000000007,-14.557379275611227
-0.04270000000000018,-15.264734925543747
-0.04370000000000007,-16.22673860945197
-0.044700000000000184,-16.792623129397985
-0.045700000000000074,-17.34436053634535
-0.046700000000000186,-18.27806999425627
-0.047700000000000076,-18.985425644188794
-0.04870000000000019,-19.423986147146955
-0.04970000000000008,-20.272812927065978
-0.05070000000000019,-21.107492593986347
-0.05170000000000008,-21.560200209943158
-0.05270000000000019,-22.239261633878378
-0.05370000000000008,-23.15882397879065
-0.05470000000000019,-23.710561385738018
-0.05570000000000008,-24.23400456668808
-0.056700000000000195,-25.153566911600354
-0.057700000000000085,-25.846775448534224
-0.058700000000000196,-26.257041725495082
-0.059700000000000086,-27.1058685054141
-0.0607000000000002,-27.926401059335824
-0.06170000000000009,-28.379108675292635
-0.0627000000000002,-29.044022986229205
-0.06370000000000009,-29.96358533114148
-0.0647000000000002,-30.487028512091538
-0.06570000000000009,-31.010471693041605
-0.0667000000000002,-31.930034037953877
-0.0677000000000001,-32.6090954618891
-0.0687000000000002,-33.0335088518486
-0.0697000000000001,-33.86818851876898
-0.07070000000000021,-34.6887210726907
-0.0717000000000001,-35.05654601065561
-0.07270000000000021,-35.664871869597576
-0.0737000000000001,-36.54199287551389
-0.07470000000000021,-37.00884760446935
-0.0757000000000001,-37.53229078541942
-0.07670000000000021,-38.42355890433439
-0.0777000000000001,-39.10262032826961
-0.07870000000000021,-39.49873949223183
-0.0797000000000001,-40.27683070715759
-0.08070000000000022,-41.083216148080666
-0.0817000000000001,-41.47933531204288
-0.08270000000000022,-42.10180828398349
-0.08370000000000011,-42.97892928989981
-0.08470000000000022,-43.45993113185393
-0.08570000000000011,-43.95508008680669
-0.08670000000000022,-44.86049531872031
-0.08770000000000011,-45.52540962965688
-0.08870000000000022,-45.92152879361909
-0.08970000000000011,-46.74206134754081
-0.09070000000000022,-47.54844678846388
-0.09170000000000011,-47.95871306542474
-0.09270000000000023,-48.609480263362656
-0.09370000000000012,-49.50074838227763
-0.09470000000000023,-50.010044450229046
-0.09570000000000012,-50.547634744177756
-0.09670000000000023,-51.481344202088685
-0.09770000000000012,-52.14625851302525
-0.09870000000000023,-52.54237767698746
-0.09970000000000012,-53.348763117910536
-0.10070000000000023,-54.1268543328363
-0.10170000000000012,-54.537120609797164
-0.10270000000000024,-55.20203492073373
-0.10370000000000013,-56.10745015264736
-0.10470000000000024,-56.61674622059877
-0.10570000000000013,-57.097748062552874
-0.10670000000000024,-57.98901618146786
-0.10770000000000013,-58.66807760540307
-0.10870000000000024,-59.07834388236393
-0.10970000000000013,-59.884729323287
-0.11070000000000024,-60.691114764210084
-0.11170000000000013,-61.10138104117093
-0.11270000000000002,-61.72385401311155
-0.11370000000000013,-62.60097501902788
-0.11470000000000002,-63.08197686098199
-0.11570000000000014,-63.59127292893339
-0.11670000000000003,-64.51083527384567
-0.11770000000000014,-65.2181909237782
-0.11870000000000003,-65.64260431373769
-0.11970000000000014,-66.43484264166212
-0.12070000000000003,-67.24122808258521
-0.12170000000000014,-67.67978858554335
-0.12270000000000003,-68.31640867048262
-0.12370000000000014,-69.22182390239624
-0.12470000000000003,-69.71697285734902
-0.12570000000000014,-70.22626892530042
-0.12670000000000003,-71.1458312702127
-0.12770000000000015,-71.8248926941479
-0.12870000000000004,-72.26345319710607
-0.12970000000000015,-73.09813286402644
-0.13070000000000004,-73.89037119195086
-0.13170000000000015,-74.35722592090633
-0.13270000000000004,-75.09287579683615
-0.13370000000000015,-76.05487948074436
-0.13470000000000004,-76.53588132269847
-0.13570000000000015,-77.04517739064991
-0.13670000000000004,-77.97888684856083
-0.13770000000000016,-78.70038961149199
-0.13870000000000005,-79.13895011445015
-0.13970000000000016,-79.94533555537322
-0.14070000000000005,-80.70927965730034
-0.14170000000000016,-81.11954593426121
-0.14270000000000005,-81.7986073581964
-0.14370000000000016,-82.73231681610734
-0.14470000000000005,-83.28405422305471
-0.14570000000000016,-83.83579163000208
-0.14670000000000005,-84.74120686191569
-0.14770000000000016,-85.43441539884957
-0.14870000000000005,-85.85882878880908
-0.14970000000000017,-86.7076555687281
-0.15070000000000006,-87.57062946164578
-0.15170000000000017,-88.00918996460392
-0.15270000000000006,-88.7023985015378
-0.15370000000000017,-89.62196084645008
-0.15470000000000006,-90.13125691440149
-0.15570000000000017,-90.6688472083502
-0.15670000000000006,-91.58840955326248
-0.15770000000000017,-92.26747097719769
-0.15870000000000006,-92.6918843671572
-0.15970000000000018,-93.52656403407757
-0.16070000000000007,-94.33294947500065
-0.16170000000000018,-94.7432157519615
-0.16270000000000007,-95.42227717589672
-0.16370000000000018,-96.38428085980493
-0.16470000000000007,-96.93601826675231
-0.16570000000000018,-97.44531433470372
-0.16670000000000007,-98.35072956661735
-0.16770000000000018,-98.98734965155661
-0.16870000000000007,-99.42591015451478
-0.16970000000000018,-100.37376672542435
-0.17070000000000007,-101.29332907033663
-0.17170000000000019,-101.78847802528938
-0.17270000000000008,-102.5241279012192
-0.1737000000000002,-103.48613158512744
-0.17470000000000008,-104.09445744406939
-0.1757000000000002,-104.58960639902216
-0.17670000000000008,-105.46672740493848
-0.1777000000000002,-106.08920037687909
-0.17870000000000008,-106.457025314844
-0.1797000000000002,-107.27755786876574
-0.18070000000000008,-108.09809042268746
-0.1817000000000002,-108.55079803864427
-0.18270000000000008,-109.25815368857677
-0.1837000000000002,-110.20601025948636
-0.1847000000000001,-110.78604189243102
-0.1857000000000002,-111.35192641237703
-0.1867000000000001,-112.31393009628526
-0.1877000000000002,-113.06372708521374
-0.1887000000000001,-113.54472892716784
-0.1897000000000002,-114.43599704608283
-0.1907000000000001,-115.32726516499778
-0.1917000000000001,-115.79411989395325
-0.19269999999999998,-116.54391688288172
-0.1937000000000001,-117.46347922779398
-0.19469999999999998,-117.94448106974811
-0.1957000000000001,-118.52451270269277
-0.19669999999999999,-119.6279875165875
-0.1977000000000001,-120.46266718350788
-0.1987,-120.95781613846064
-0.1997000000000001,-121.83493714437697
-0.2007,-122.68376392429597
-0.2017000000000001,-123.1647657662501
-0.2027,-123.88626852918125
-0.2037000000000001,-124.83412510009084
-0.2047,-125.37171539403954
-0.2057000000000001,-125.93759991398557
-0.2067,-126.9278978238911
-0.2077000000000001,-127.66354769982091
-0.2087,-128.1304024287764
-0.2097000000000001,-128.96508209569677
-0.2107,-129.8280559886144
-0.2117000000000001,-130.33735205656586
-0.2127,-131.12959038449023
-0.2137000000000001,-132.1764767463904
-0.2147,-132.75650837933503
-0.2157000000000001,-133.36483423827698
-0.2167,-134.36927926118116
-0.21770000000000012,-135.17566470210423
-0.2187,-135.65666654405837
-0.21970000000000012,-136.57622888897063
-0.2207,-137.4674970078856
-0.22170000000000012,-137.94849884983972
-0.2227,-138.6982958387682
-0.22370000000000012,-139.70274086167237
-0.2247,-140.2969196076157
-0.22570000000000012,-140.94768680555362
-0.2267,-141.89554337646317
-0.22770000000000012,-142.7443701563822
-0.22870000000000001,-143.4517258063147
-0.22970000000000013,-144.30055258623375
-0.23070000000000002,-145.29085049613926
-0.23170000000000013,-145.85673501608528
-0.23270000000000002,-146.5640906660178
-0.23370000000000013,-147.55438857592333
-0.23470000000000002,-148.26174422585584
-0.23570000000000013,-148.82762874580186
-0.23670000000000002,-149.8179266557074
-0.2376999999999999,-150.5252823056399
-0.23870000000000002,-151.09116682558593
-0.2396999999999999,-151.93999360550492
-0.24070000000000003,-152.93029151541046
-0.24169999999999991,-153.35470490536997
-0.24270000000000003,-154.203531685289
-0.24369999999999992,-155.19382959519453
-0.24470000000000003,-155.90118524512707
-0.24569999999999992,-156.60854089505958
-0.24670000000000003,-157.59883880496508
-0.24769999999999992,-158.1647233249111
-0.24870000000000003,-158.5891367148706
-0.24969999999999992,-159.43796349478964
-0.25070000000000003,-160.28679027470866
-0.2516999999999999,-160.8526747946547
-0.25270000000000004,-161.70150157457368
-0.2536999999999999,-162.6917994844792
-0.25470000000000004,-163.25768400442522
-0.2556999999999999,-163.82356852437124
-0.25670000000000004,-164.81386643427678
-0.25769999999999993,-165.6626932141958
-0.25870000000000004,-166.22857773414182
-0.25969999999999993,-167.21887564404733
-0.26070000000000004,-168.20917355395284
-0.26169999999999993,-168.77505807389886
-0.26270000000000004,-169.6238848538179
-0.26369999999999993,-170.61418276372342
-0.26470000000000005,-171.18006728366944
-0.26569999999999994,-171.88742293360195
-0.26670000000000005,-173.01919197349397
-0.26769999999999994,-174.0094898833995
-0.26870000000000005,-174.57537440334553
-0.26969999999999994,-175.70714344323756
-0.27070000000000005,-176.55597022315658
-0.27169999999999994,-177.1218547431026
-0.27270000000000005,-177.82921039303508
-0.27369999999999994,-178.96097943292713
-0.27470000000000006,-179.66833508285964
-0.27569999999999995,-180.37569073279218
-0.27670000000000006,-181.5074597726842
-0.27769999999999995,-182.35628655260325
-0.27870000000000006,-182.92217107254925
-0.27969999999999995,-183.77099785246824
-0.28070000000000006,-184.6198246323873
-0.28169999999999995,-185.3271802823198
-0.28270000000000006,-186.17600706223882
-0.28369999999999995,-187.16630497214436
-0.28470000000000006,-187.73218949209036
-0.28569999999999995,-188.29807401203638
-0.28670000000000007,-189.2883719219419
-0.28769999999999996,-190.13719870186094
-0.28870000000000007,-190.70308322180696
-0.28969999999999996,-191.69338113171247
-0.29070000000000007,-192.82515017160452
-0.29169999999999996,-193.3910346915505
-0.29270000000000007,-194.2398614714695
-0.29369999999999996,-195.37163051136156
-0.2947000000000001,-195.93751503130758
-0.29569999999999996,-196.6448706812401
-0.2967000000000001,-197.91811085111863
-0.29769999999999996,-198.76693763103765
-0.2987000000000001,-199.33282215098367
-0.29969999999999997,-200.4645911908757
-0.3007000000000001,-201.4548891007812
-0.30169999999999997,-202.16224475071377
-0.3027000000000001,-203.01107153063276
-0.30369999999999997,-204.2843117005113
-0.3047000000000001,-204.9916673504438
-0.30569999999999997,-205.84049413036286
-0.3067000000000001,-206.83079204026836
-0.3077,-207.8210899501739
-0.3087000000000001,-208.3869744701199
-0.3097,-209.51874351001192
-0.3107000000000001,-210.50904141991748
-0.3117,-211.07492593986345
-0.3127000000000001,-211.9237527197825
-0.3137,-212.77257949970152
-0.3147000000000001,-213.47993514963403
-0.3157,-214.18729079956654
-0.3167000000000001,-215.17758870947208
-0.3177,-215.7434732294181
-0.3187000000000001,-216.3093577493641
-0.3197,-217.29965565926966
-0.3207000000000001,-218.14848243918865
-0.3217,-218.57289582914817
-0.3227000000000001,-219.28025147908068
-0.3237,-220.2705493889862
-0.3247000000000001,-220.83643390893224
-0.3257,-221.40231842887826
-0.3267000000000001,-222.3926163387838
-0.3277,-223.38291424868927
-0.3287000000000001,-223.9487987686353
-0.3297,-224.93909667854084
-0.3307000000000001,-226.07086571843288
-0.3317,-226.77822136836537
-0.3327000000000001,-227.62704814828442
-0.3337,-228.61734605818995
-0.3347000000000001,-229.32470170812243
-0.3357,-230.03205735805497
-0.3367000000000001,-231.163826397947
-0.3377,-232.01265317786604
-0.3387000000000001,-232.72000882779852
-0.3397,-233.85177786769057
-0.3407000000000001,-234.84207577759608
-0.3417,-235.40796029754208
-0.3427000000000001,-236.25678707746113
-0.3437,-237.24708498736666
-0.3447000000000001,-237.9544406372992
-0.3457,-238.5203251572452
-0.3467000000000001,-239.5106230671507
-0.3477,-240.21797871708318
-0.3487000000000001,-240.78386323702924
-0.3497,-241.9156322769213
-0.3507000000000001,-242.76445905684034
-0.3517,-243.3303435767863
-0.3527000000000001,-244.17917035670533
-0.3537,-245.02799713662432
-0.3547000000000001,-245.59388165657037
-0.3557,-246.15976617651637
-0.35670000000000013,-247.1500640864219
-0.3577,-247.85741973635444
-0.35870000000000013,-248.42330425630044
-0.3597,-249.41360216620598
-0.36070000000000013,-250.262428946125
-0.3617,-250.6868423360845
-0.3626999999999999,-251.39419798601702
-0.3637,-252.38449589592256
-0.3646999999999999,-252.95038041586852
-0.3657,-253.51626493581452
-0.3666999999999999,-254.50656284572008
-0.3677,-255.21391849565262
-0.3686999999999999,-255.77980301559862
-0.36970000000000003,-256.62862979551767
-0.3706999999999999,-257.33598544545015
-0.37170000000000003,-257.90186996539614
-0.3726999999999999,-258.60922561532874
-0.37370000000000003,-259.59952352523425
-0.3746999999999999,-260.16540804518024
-0.37570000000000003,-260.8727636951128
-0.3766999999999999,-261.8630616050183
-0.37770000000000004,-262.57041725495077
-0.3786999999999999,-262.8533595149238
-0.37970000000000004,-263.7021862948428
-0.3806999999999999,-264.55101307476184
-0.38170000000000004,-265.11689759470784
-0.38269999999999993,-265.9657243746269
-0.38370000000000004,-266.9560222845325
-0.38469999999999993,-267.38043567449193
-0.38570000000000004,-267.80484906445145
-0.38669999999999993,-266.9560222845325
-0.38570000000000004,-263.98512855481584
-0.38469999999999993,-260.8727636951128
-0.38370000000000004,-258.18481222536917
-0.38269999999999993,-255.63833188561213
-0.38170000000000004,-252.80890928588207
-0.3806999999999999,-250.1209578161385
-0.37970000000000004,-247.71594860636796
-0.3786999999999999,-244.74505487665132
-0.37770000000000004,-242.05710340690777
-0.3766999999999999,-239.7935653271237
-0.37570000000000003,-237.24708498736666
-0.3746999999999999,-234.55913351762308
-0.37370000000000003,-232.29559543783904
-0.3726999999999999,-230.03205735805497
-0.37170000000000003,-227.4855770182979
-0.3706999999999999,-225.08056780852735
-0.36970000000000003,-222.81702972874328
-0.3686999999999999,-220.2705493889862
-0.3677,-217.86554017921566
-0.3666999999999999,-215.7434732294181
-0.3657,-213.33846401964755
-0.3646999999999999,-210.65051254990397
-0.3637,-208.6699167300929
-0.3626999999999999,-206.40637865030885
-0.3617,-204.0013694405383
-0.36070000000000013,-201.73783136075423
-0.3597,-199.75723554094319
-0.35870000000000013,-197.35222633117263
-0.3577,-195.08868825138856
-0.35670000000000013,-193.249563561564
-0.3557,-191.12749661176645
-0.3547000000000001,-188.58101627200938
-0.3537,-186.45894932221185
-0.3527000000000001,-184.33688237241427
-0.3517,-181.93187316264374
-0.3507000000000001,-179.80980621284618
-0.3497,-177.9706815230216
-0.3487000000000001,-175.70714344323756
-0.3477,-173.44360536345349
-0.3467000000000001,-171.74595180361547
-0.3457,-169.6238848538179
-0.3447000000000001,-167.36034677403384
-0.3437,-165.5212220842093
-0.3427000000000001,-163.68209739438475
-0.3417,-161.41855931460069
-0.3407000000000001,-159.57943462477613
-0.3397,-157.88178106493808
-0.3387000000000001,-155.61824298515404
-0.3377,-153.35470490536997
-0.3367000000000001,-151.65705134553193
-0.3357,-149.95939778569388
-0.3347000000000001,-147.83733083589632
-0.3337,-146.28114840604482
-0.3327000000000001,-144.58349484620675
-0.3317,-142.4614278964092
-0.3307000000000001,-140.5515676415914
-0.3297,-138.9529438727439
-0.3287000000000001,-136.95820093993422
-0.3277,-135.0200464591191
-0.3267000000000001,-133.5063053682635
-0.3257,-131.69547490443625
-0.3247000000000001,-129.68658485862792
-0.3237,-128.0879610897804
-0.3227000000000001,-126.46104309493563
-0.3217,-124.39556459713268
-0.3207000000000001,-122.61302835930273
-0.3197,-121.12758149444444
-0.3187000000000001,-119.27430969162123
-0.3177,-117.42103788879804
-0.3167000000000001,-115.93559102393975
-0.3157,-114.1813490121071
-0.3147000000000001,-112.21490030529472
-0.3137,-110.64457076244452
-0.3127000000000001,-109.04594699359701
-0.3117,-107.07949828678463
-0.3107000000000001,-105.45258029193982
-0.3097,-104.06616321807209
-0.3087000000000001,-102.28362698024215
-0.3077,-100.48694362941356
-0.3067000000000001,-99.12882078154313
-0.30569999999999997,-97.51604989969698
-0.3047000000000001,-95.70521943586974
-0.30369999999999997,-94.30465524900335
-0.3027000000000001,-92.86164972314101
-0.30169999999999997,-91.02252503331646
-0.3007000000000001,-89.46634260346492
-0.29969999999999997,-88.16480820758908
-0.2987000000000001,-86.45300753475239
-0.29769999999999996,-84.769501087913
-0.2967000000000001,-83.51040803103311
-0.29569999999999996,-81.96837271418022
-0.2947000000000001,-80.19998358934893
-0.29369999999999996,-78.82771362847984
-0.29270000000000007,-77.42714944161345
-0.29169999999999996,-75.6729074297808
-0.29070000000000007,-74.22990190391847
-0.28969999999999996,-72.98495596003725
-0.28870000000000007,-71.35803796519245
-0.28769999999999996,-69.7735613093436
-0.28670000000000007,-68.59935093045563
-0.28569999999999995,-67.128051178596
-0.28470000000000006,-65.45869184475525
-0.28369999999999995,-64.213745900874
-0.28270000000000006,-62.95465284399414
-0.28169999999999995,-61.29944062315204
-0.28070000000000006,-59.94131777528161
-0.27969999999999995,-58.809548735389576
-0.27870000000000006,-57.25336630553804
-0.27769999999999995,-55.7254781016838
-0.27670000000000006,-54.62200328778906
-0.27569999999999995,-53.22143910092268
-0.27470000000000006,-51.665256671071134
-0.27369999999999994,-50.50519340518181
-0.27270000000000005,-49.31683591329518
-0.27169999999999994,-47.74650637044499
-0.27070000000000005,-46.45911908756781
-0.26969999999999994,-45.39808561266902
-0.26870000000000005,-43.92678586080939
-0.26769999999999994,-42.51207456094435
