Sept. 29, 2024   06:35:03
Cyclic Voltammetry
File: c:/users/guazh/data/20240922_batch_417_500/2024-09-22-exp479\exp479-2024-09-29t06_17_59-h2koh\exp479_cv_sr_900mvs_efin_-1600mv.bin
Data Source:  Experiment
Instrument Model:  CHI760E
Header: CV ran at 900 mVs
Note: 

Init E (V) = -1
High E (V) = -1
Low E (V) = -1.6
Final E (V) = -1
Init P/N = N
Scan Rate (V/s) = 0.9
Segment = 3
Sample Interval (V) = 0.001
Quiet Time (sec) = 2
Sensitivity (A/V) = 0.01
Comp R (ohm) = 2.3

Results:

Channel 1:
Segment 1:

Segment 2:

Segment 3:

Potential/V, Current/A

-1.000, 2.174e-5
-1.001, 7.107e-5
-1.002, 1.111e-4
-1.003, 1.420e-4
-1.004, 1.636e-4
-1.005, 1.851e-4
-1.006, 2.006e-4
-1.007, 2.129e-4
-1.008, 2.221e-4
-1.009, 2.283e-4
-1.010, 2.314e-4
-1.011, 2.376e-4
-1.012, 2.406e-4
-1.013, 2.437e-4
-1.014, 2.468e-4
-1.015, 2.499e-4
-1.016, 2.499e-4
-1.017, 2.530e-4
-1.018, 2.561e-4
-1.019, 2.561e-4
-1.020, 2.591e-4
-1.021, 2.622e-4
-1.022, 2.622e-4
-1.023, 2.653e-4
-1.024, 2.653e-4
-1.025, 2.653e-4
-1.026, 2.622e-4
-1.027, 2.622e-4
-1.028, 2.622e-4
-1.029, 2.622e-4
-1.030, 2.653e-4
-1.031, 2.622e-4
-1.032, 2.684e-4
-1.033, 2.653e-4
-1.034, 2.684e-4
-1.035, 2.684e-4
-1.036, 2.746e-4
-1.037, 2.715e-4
-1.038, 2.746e-4
-1.039, 2.746e-4
-1.040, 2.715e-4
-1.041, 2.715e-4
-1.042, 2.684e-4
-1.043, 2.715e-4
-1.044, 2.715e-4
-1.045, 2.715e-4
-1.046, 2.684e-4
-1.047, 2.746e-4
-1.048, 2.715e-4
-1.049, 2.746e-4
-1.050, 2.746e-4
-1.051, 2.776e-4
-1.052, 2.776e-4
-1.053, 2.776e-4
-1.054, 2.776e-4
-1.055, 2.776e-4
-1.056, 2.746e-4
-1.057, 2.746e-4
-1.058, 2.776e-4
-1.059, 2.746e-4
-1.060, 2.746e-4
-1.061, 2.746e-4
-1.062, 2.776e-4
-1.063, 2.776e-4
-1.064, 2.807e-4
-1.065, 2.807e-4
-1.066, 2.838e-4
-1.067, 2.838e-4
-1.068, 2.838e-4
-1.069, 2.869e-4
-1.070, 2.807e-4
-1.071, 2.807e-4
-1.072, 2.807e-4
-1.073, 2.807e-4
-1.074, 2.807e-4
-1.075, 2.807e-4
-1.076, 2.807e-4
-1.077, 2.838e-4
-1.078, 2.838e-4
-1.079, 2.838e-4
-1.080, 2.869e-4
-1.081, 2.900e-4
-1.082, 2.900e-4
-1.083, 2.900e-4
-1.084, 2.900e-4
-1.085, 2.869e-4
-1.086, 2.900e-4
-1.087, 2.869e-4
-1.088, 2.869e-4
-1.089, 2.869e-4
-1.090, 2.869e-4
-1.091, 2.869e-4
-1.092, 2.900e-4
-1.093, 2.900e-4
-1.094, 2.900e-4
-1.095, 2.900e-4
-1.096, 2.931e-4
-1.097, 2.931e-4
-1.098, 2.931e-4
-1.099, 2.961e-4
-1.100, 2.961e-4
-1.101, 2.931e-4
-1.102, 2.931e-4
-1.103, 2.931e-4
-1.104, 2.931e-4
-1.105, 2.931e-4
-1.106, 2.931e-4
-1.107, 2.961e-4
-1.108, 2.961e-4
-1.109, 2.961e-4
-1.110, 2.992e-4
-1.111, 3.023e-4
-1.112, 3.023e-4
-1.113, 3.023e-4
-1.114, 3.023e-4
-1.115, 3.023e-4
-1.116, 3.054e-4
-1.117, 3.023e-4
-1.118, 3.023e-4
-1.119, 3.023e-4
-1.120, 3.023e-4
-1.121, 3.023e-4
-1.122, 3.054e-4
-1.123, 3.054e-4
-1.124, 3.085e-4
-1.125, 3.085e-4
-1.126, 3.115e-4
-1.127, 3.146e-4
-1.128, 3.146e-4
-1.129, 3.177e-4
-1.130, 3.146e-4
-1.131, 3.146e-4
-1.132, 3.115e-4
-1.133, 3.115e-4
-1.134, 3.115e-4
-1.135, 3.146e-4
-1.136, 3.146e-4
-1.137, 3.177e-4
-1.138, 3.208e-4
-1.139, 3.177e-4
-1.140, 3.208e-4
-1.141, 3.239e-4
-1.142, 3.239e-4
-1.143, 3.270e-4
-1.144, 3.270e-4
-1.145, 3.270e-4
-1.146, 3.300e-4
-1.147, 3.270e-4
-1.148, 3.300e-4
-1.149, 3.300e-4
-1.150, 3.300e-4
-1.151, 3.300e-4
-1.152, 3.331e-4
-1.153, 3.362e-4
-1.154, 3.362e-4
-1.155, 3.362e-4
-1.156, 3.393e-4
-1.157, 3.424e-4
-1.158, 3.424e-4
-1.159, 3.455e-4
-1.160, 3.424e-4
-1.161, 3.455e-4
-1.162, 3.424e-4
-1.163, 3.455e-4
-1.164, 3.455e-4
-1.165, 3.485e-4
-1.166, 3.516e-4
-1.167, 3.547e-4
-1.168, 3.578e-4
-1.169, 3.578e-4
-1.170, 3.609e-4
-1.171, 3.640e-4
-1.172, 3.640e-4
-1.173, 3.609e-4
-1.174, 3.609e-4
-1.175, 3.547e-4
-1.176, 3.516e-4
-1.177, 3.485e-4
-1.178, 3.485e-4
-1.179, 3.485e-4
-1.180, 3.516e-4
-1.181, 3.516e-4
-1.182, 3.609e-4
-1.183, 3.670e-4
-1.184, 3.732e-4
-1.185, 3.825e-4
-1.186, 3.886e-4
-1.187, 3.948e-4
-1.188, 3.979e-4
-1.189, 3.979e-4
-1.190, 3.979e-4
-1.191, 3.948e-4
-1.192, 3.917e-4
-1.193, 3.917e-4
-1.194, 3.886e-4
-1.195, 3.886e-4
-1.196, 3.855e-4
-1.197, 3.886e-4
-1.198, 3.886e-4
-1.199, 3.886e-4
-1.200, 3.917e-4
-1.201, 3.948e-4
-1.202, 3.979e-4
-1.203, 4.010e-4
-1.204, 4.071e-4
-1.205, 4.102e-4
-1.206, 4.164e-4
-1.207, 4.195e-4
-1.208, 4.225e-4
-1.209, 4.256e-4
-1.210, 4.287e-4
-1.211, 4.287e-4
-1.212, 4.318e-4
-1.213, 4.318e-4
-1.214, 4.318e-4
-1.215, 4.318e-4
-1.216, 4.349e-4
-1.217, 4.349e-4
-1.218, 4.349e-4
-1.219, 4.380e-4
-1.220, 4.380e-4
-1.221, 4.380e-4
-1.222, 4.380e-4
-1.223, 4.410e-4
-1.224, 4.441e-4
-1.225, 4.441e-4
-1.226, 4.472e-4
-1.227, 4.534e-4
-1.228, 4.565e-4
-1.229, 4.657e-4
-1.230, 4.688e-4
-1.231, 4.780e-4
-1.232, 4.811e-4
-1.233, 4.842e-4
-1.234, 4.873e-4
-1.235, 4.873e-4
-1.236, 4.904e-4
-1.237, 4.873e-4
-1.238, 4.873e-4
-1.239, 4.904e-4
-1.240, 4.904e-4
-1.241, 4.904e-4
-1.242, 4.935e-4
-1.243, 4.965e-4
-1.244, 4.996e-4
-1.245, 5.027e-4
-1.246, 5.058e-4
-1.247, 5.089e-4
-1.248, 5.120e-4
-1.249, 5.212e-4
-1.250, 5.243e-4
-1.251, 5.305e-4
-1.252, 5.335e-4
-1.253, 5.397e-4
-1.254, 5.459e-4
-1.255, 5.489e-4
-1.256, 5.489e-4
-1.257, 5.551e-4
-1.258, 5.551e-4
-1.259, 5.582e-4
-1.260, 5.613e-4
-1.261, 5.644e-4
-1.262, 5.674e-4
-1.263, 5.705e-4
-1.264, 5.736e-4
-1.265, 5.736e-4
-1.266, 5.767e-4
-1.267, 5.767e-4
-1.268, 5.829e-4
-1.269, 5.859e-4
-1.270, 5.921e-4
-1.271, 5.952e-4
-1.272, 6.044e-4
-1.273, 6.106e-4
-1.274, 6.137e-4
-1.275, 6.229e-4
-1.276, 6.291e-4
-1.277, 6.353e-4
-1.278, 6.384e-4
-1.279, 6.445e-4
-1.280, 6.476e-4
-1.281, 6.507e-4
-1.282, 6.538e-4
-1.283, 6.538e-4
-1.284, 6.599e-4
-1.285, 6.630e-4
-1.286, 6.661e-4
-1.287, 6.723e-4
-1.288, 6.754e-4
-1.289, 6.815e-4
-1.290, 6.877e-4
-1.291, 6.969e-4
-1.292, 7.000e-4
-1.293, 7.062e-4
-1.294, 7.154e-4
-1.295, 7.185e-4
-1.296, 7.278e-4
-1.297, 7.309e-4
-1.298, 7.370e-4
-1.299, 7.432e-4
-1.300, 7.524e-4
-1.301, 7.586e-4
-1.302, 7.679e-4
-1.303, 7.709e-4
-1.304, 7.802e-4
-1.305, 7.833e-4
-1.306, 7.925e-4
-1.307, 7.956e-4
-1.308, 8.018e-4
-1.309, 8.079e-4
-1.310, 8.141e-4
-1.311, 8.172e-4
-1.312, 8.233e-4
-1.313, 8.264e-4
-1.314, 8.326e-4
-1.315, 8.418e-4
-1.316, 8.480e-4
-1.317, 8.603e-4
-1.318, 8.696e-4
-1.319, 8.788e-4
-1.320, 8.881e-4
-1.321, 9.035e-4
-1.322, 9.128e-4
-1.323, 9.220e-4
-1.324, 9.313e-4
-1.325, 9.374e-4
-1.326, 9.405e-4
-1.327, 9.467e-4
-1.328, 9.498e-4
-1.329, 9.559e-4
-1.330, 9.621e-4
-1.331, 9.652e-4
-1.332, 9.775e-4
-1.333, 9.868e-4
-1.334, 9.960e-4
-1.335, 1.005e-3
-1.336, 1.018e-3
-1.337, 1.030e-3
-1.338, 1.039e-3
-1.339, 1.051e-3
-1.340, 1.061e-3
-1.341, 1.070e-3
-1.342, 1.079e-3
-1.343, 1.088e-3
-1.344, 1.101e-3
-1.345, 1.110e-3
-1.346, 1.119e-3
-1.347, 1.132e-3
-1.348, 1.141e-3
-1.349, 1.150e-3
-1.350, 1.156e-3
-1.351, 1.169e-3
-1.352, 1.178e-3
-1.353, 1.190e-3
-1.354, 1.199e-3
-1.355, 1.212e-3
-1.356, 1.221e-3
-1.357, 1.230e-3
-1.358, 1.240e-3
-1.359, 1.252e-3
-1.360, 1.264e-3
-1.361, 1.277e-3
-1.362, 1.292e-3
-1.363, 1.304e-3
-1.364, 1.317e-3
-1.365, 1.332e-3
-1.366, 1.347e-3
-1.367, 1.360e-3
-1.368, 1.375e-3
-1.369, 1.391e-3
-1.370, 1.400e-3
-1.371, 1.409e-3
-1.372, 1.418e-3
-1.373, 1.431e-3
-1.374, 1.440e-3
-1.375, 1.452e-3
-1.376, 1.462e-3
-1.377, 1.477e-3
-1.378, 1.489e-3
-1.379, 1.502e-3
-1.380, 1.517e-3
-1.381, 1.536e-3
-1.382, 1.551e-3
-1.383, 1.563e-3
-1.384, 1.582e-3
-1.385, 1.600e-3
-1.386, 1.613e-3
-1.387, 1.628e-3
-1.388, 1.643e-3
-1.389, 1.659e-3
-1.390, 1.674e-3
-1.391, 1.687e-3
-1.392, 1.702e-3
-1.393, 1.717e-3
-1.394, 1.733e-3
-1.395, 1.745e-3
-1.396, 1.761e-3
-1.397, 1.776e-3
-1.398, 1.788e-3
-1.399, 1.804e-3
-1.400, 1.819e-3
-1.401, 1.832e-3
-1.402, 1.847e-3
-1.403, 1.865e-3
-1.404, 1.884e-3
-1.405, 1.899e-3
-1.406, 1.918e-3
-1.407, 1.936e-3
-1.408, 1.958e-3
-1.409, 1.976e-3
-1.410, 1.992e-3
-1.411, 2.010e-3
-1.412, 2.026e-3
-1.413, 2.044e-3
-1.414, 2.060e-3
-1.415, 2.075e-3
-1.416, 2.094e-3
-1.417, 2.106e-3
-1.418, 2.121e-3
-1.419, 2.137e-3
-1.420, 2.152e-3
-1.421, 2.168e-3
-1.422, 2.189e-3
-1.423, 2.205e-3
-1.424, 2.226e-3
-1.425, 2.245e-3
-1.426, 2.266e-3
-1.427, 2.285e-3
-1.428, 2.306e-3
-1.429, 2.328e-3
-1.430, 2.346e-3
-1.431, 2.365e-3
-1.432, 2.383e-3
-1.433, 2.402e-3
-1.434, 2.423e-3
-1.435, 2.442e-3
-1.436, 2.457e-3
-1.437, 2.479e-3
-1.438, 2.501e-3
-1.439, 2.519e-3
-1.440, 2.538e-3
-1.441, 2.559e-3
-1.442, 2.578e-3
-1.443, 2.596e-3
-1.444, 2.618e-3
-1.445, 2.636e-3
-1.446, 2.655e-3
-1.447, 2.673e-3
-1.448, 2.695e-3
-1.449, 2.716e-3
-1.450, 2.741e-3
-1.451, 2.760e-3
-1.452, 2.781e-3
-1.453, 2.803e-3
-1.454, 2.824e-3
-1.455, 2.843e-3
-1.456, 2.867e-3
-1.457, 2.889e-3
-1.458, 2.908e-3
-1.459, 2.929e-3
-1.460, 2.951e-3
-1.461, 2.966e-3
-1.462, 2.985e-3
-1.463, 3.003e-3
-1.464, 3.025e-3
-1.465, 3.046e-3
-1.466, 3.068e-3
-1.467, 3.089e-3
-1.468, 3.114e-3
-1.469, 3.136e-3
-1.470, 3.157e-3
-1.471, 3.185e-3
-1.472, 3.210e-3
-1.473, 3.231e-3
-1.474, 3.256e-3
-1.475, 3.278e-3
-1.476, 3.299e-3
-1.477, 3.321e-3
-1.478, 3.339e-3
-1.479, 3.364e-3
-1.480, 3.385e-3
-1.481, 3.404e-3
-1.482, 3.432e-3
-1.483, 3.450e-3
-1.484, 3.475e-3
-1.485, 3.496e-3
-1.486, 3.521e-3
-1.487, 3.546e-3
-1.488, 3.567e-3
-1.489, 3.595e-3
-1.490, 3.614e-3
-1.491, 3.638e-3
-1.492, 3.660e-3
-1.493, 3.684e-3
-1.494, 3.709e-3
-1.495, 3.734e-3
-1.496, 3.755e-3
-1.497, 3.783e-3
-1.498, 3.808e-3
-1.499, 3.836e-3
-1.500, 3.857e-3
-1.501, 3.885e-3
-1.502, 3.910e-3
-1.503, 3.937e-3
-1.504, 3.962e-3
-1.505, 3.987e-3
-1.506, 4.011e-3
-1.507, 4.036e-3
-1.508, 4.058e-3
-1.509, 4.082e-3
-1.510, 4.107e-3
-1.511, 4.128e-3
-1.512, 4.159e-3
-1.513, 4.184e-3
-1.514, 4.212e-3
-1.515, 4.236e-3
-1.516, 4.267e-3
-1.517, 4.295e-3
-1.518, 4.320e-3
-1.519, 4.350e-3
-1.520, 4.372e-3
-1.521, 4.397e-3
-1.522, 4.418e-3
-1.523, 4.443e-3
-1.524, 4.468e-3
-1.525, 4.489e-3
-1.526, 4.511e-3
-1.527, 4.538e-3
-1.528, 4.566e-3
-1.529, 4.591e-3
-1.530, 4.616e-3
-1.531, 4.643e-3
-1.532, 4.671e-3
-1.533, 4.696e-3
-1.534, 4.727e-3
-1.535, 4.754e-3
-1.536, 4.779e-3
-1.537, 4.807e-3
-1.538, 4.828e-3
-1.539, 4.856e-3
-1.540, 4.884e-3
-1.541, 4.908e-3
-1.542, 4.939e-3
-1.543, 4.967e-3
-1.544, 4.995e-3
-1.545, 5.019e-3
-1.546, 5.047e-3
-1.547, 5.075e-3
-1.548, 5.103e-3
-1.549, 5.130e-3
-1.550, 5.158e-3
-1.551, 5.183e-3
-1.552, 5.211e-3
-1.553, 5.238e-3
-1.554, 5.266e-3
-1.555, 5.294e-3
-1.556, 5.322e-3
-1.557, 5.352e-3
-1.558, 5.383e-3
-1.559, 5.414e-3
-1.560, 5.442e-3
-1.561, 5.476e-3
-1.562, 5.504e-3
-1.563, 5.534e-3
-1.564, 5.562e-3
-1.565, 5.593e-3
-1.566, 5.621e-3
-1.567, 5.648e-3
-1.568, 5.679e-3
-1.569, 5.710e-3
-1.570, 5.738e-3
-1.571, 5.769e-3
-1.572, 5.799e-3
-1.573, 5.830e-3
-1.574, 5.858e-3
-1.575, 5.889e-3
-1.576, 5.923e-3
-1.577, 5.954e-3
-1.578, 5.988e-3
-1.579, 6.021e-3
-1.580, 6.055e-3
-1.581, 6.086e-3
-1.582, 6.123e-3
-1.583, 6.157e-3
-1.584, 6.194e-3
-1.585, 6.231e-3
-1.586, 6.262e-3
-1.587, 6.302e-3
-1.588, 6.336e-3
-1.589, 6.373e-3
-1.590, 6.407e-3
-1.591, 6.444e-3
-1.592, 6.478e-3
-1.593, 6.512e-3
-1.594, 6.539e-3
-1.595, 6.570e-3
-1.596, 6.595e-3
-1.597, 6.620e-3
-1.598, 6.644e-3
-1.599, 6.672e-3
-1.600, 6.654e-3
-1.599, 6.567e-3
-1.598, 6.499e-3
-1.597, 6.438e-3
-1.596, 6.379e-3
-1.595, 6.324e-3
-1.594, 6.274e-3
-1.593, 6.228e-3
-1.592, 6.182e-3
-1.591, 6.139e-3
-1.590, 6.092e-3
-1.589, 6.049e-3
-1.588, 6.000e-3
-1.587, 5.951e-3
-1.586, 5.901e-3
-1.585, 5.849e-3
-1.584, 5.793e-3
-1.583, 5.744e-3
-1.582, 5.688e-3
-1.581, 5.636e-3
-1.580, 5.584e-3
-1.579, 5.531e-3
-1.578, 5.485e-3
-1.577, 5.436e-3
-1.576, 5.396e-3
-1.575, 5.346e-3
-1.574, 5.294e-3
-1.573, 5.238e-3
-1.572, 5.186e-3
-1.571, 5.140e-3
-1.570, 5.093e-3
-1.569, 5.047e-3
-1.568, 5.010e-3
-1.567, 4.970e-3
-1.566, 4.936e-3
-1.565, 4.902e-3
-1.564, 4.871e-3
-1.563, 4.838e-3
-1.562, 4.804e-3
-1.561, 4.770e-3
-1.560, 4.733e-3
-1.559, 4.693e-3
-1.558, 4.649e-3
-1.557, 4.606e-3
-1.556, 4.560e-3
-1.555, 4.514e-3
-1.554, 4.464e-3
-1.553, 4.424e-3
-1.552, 4.381e-3
-1.551, 4.338e-3
-1.550, 4.289e-3
-1.549, 4.246e-3
-1.548, 4.202e-3
-1.547, 4.156e-3
-1.546, 4.119e-3
-1.545, 4.079e-3
-1.544, 4.048e-3
-1.543, 4.021e-3
-1.542, 3.993e-3
-1.541, 3.971e-3
-1.540, 3.943e-3
-1.539, 3.910e-3
-1.538, 3.879e-3
-1.537, 3.839e-3
-1.536, 3.795e-3
-1.535, 3.752e-3
-1.534, 3.712e-3
-1.533, 3.672e-3
-1.532, 3.632e-3
-1.531, 3.595e-3
-1.530, 3.561e-3
-1.529, 3.530e-3
-1.528, 3.496e-3
-1.527, 3.466e-3
-1.526, 3.432e-3
-1.525, 3.398e-3
-1.524, 3.361e-3
-1.523, 3.330e-3
-1.522, 3.299e-3
-1.521, 3.271e-3
-1.520, 3.241e-3
-1.519, 3.216e-3
-1.518, 3.185e-3
-1.517, 3.154e-3
-1.516, 3.126e-3
-1.515, 3.093e-3
-1.514, 3.062e-3
-1.513, 3.031e-3
-1.512, 2.997e-3
-1.511, 2.969e-3
-1.510, 2.938e-3
-1.509, 2.908e-3
-1.508, 2.880e-3
-1.507, 2.852e-3
-1.506, 2.821e-3
-1.505, 2.790e-3
-1.504, 2.763e-3
-1.503, 2.732e-3
-1.502, 2.704e-3
-1.501, 2.673e-3
-1.500, 2.642e-3
-1.499, 2.618e-3
-1.498, 2.590e-3
-1.497, 2.562e-3
-1.496, 2.541e-3
-1.495, 2.516e-3
-1.494, 2.491e-3
-1.493, 2.473e-3
-1.492, 2.445e-3
-1.491, 2.423e-3
-1.490, 2.396e-3
-1.489, 2.371e-3
-1.488, 2.346e-3
-1.487, 2.319e-3
-1.486, 2.291e-3
-1.485, 2.263e-3
-1.484, 2.238e-3
-1.483, 2.211e-3
-1.482, 2.183e-3
-1.481, 2.161e-3
-1.480, 2.140e-3
-1.479, 2.115e-3
-1.478, 2.094e-3
-1.477, 2.075e-3
-1.476, 2.054e-3
-1.475, 2.032e-3
-1.474, 2.010e-3
-1.473, 1.989e-3
-1.472, 1.967e-3
-1.471, 1.943e-3
-1.470, 1.921e-3
-1.469, 1.896e-3
-1.468, 1.872e-3
-1.467, 1.847e-3
-1.466, 1.825e-3
-1.465, 1.804e-3
-1.464, 1.779e-3
-1.463, 1.761e-3
-1.462, 1.742e-3
-1.461, 1.727e-3
-1.460, 1.702e-3
-1.459, 1.687e-3
-1.458, 1.665e-3
-1.457, 1.647e-3
-1.456, 1.625e-3
-1.455, 1.603e-3
-1.454, 1.582e-3
-1.453, 1.560e-3
-1.452, 1.539e-3
-1.451, 1.520e-3
-1.450, 1.502e-3
-1.449, 1.480e-3
-1.448, 1.465e-3
-1.447, 1.446e-3
-1.446, 1.428e-3
-1.445, 1.409e-3
-1.444, 1.394e-3
-1.443, 1.375e-3
-1.442, 1.357e-3
-1.441, 1.338e-3
-1.440, 1.323e-3
-1.439, 1.301e-3
-1.438, 1.286e-3
-1.437, 1.264e-3
-1.436, 1.249e-3
-1.435, 1.230e-3
-1.434, 1.212e-3
-1.433, 1.196e-3
-1.432, 1.181e-3
-1.431, 1.166e-3
-1.430, 1.150e-3
-1.429, 1.138e-3
-1.428, 1.119e-3
-1.427, 1.107e-3
-1.426, 1.088e-3
-1.425, 1.073e-3
-1.424, 1.058e-3
-1.423, 1.039e-3
-1.422, 1.021e-3
-1.421, 1.008e-3
-1.420, 9.929e-4
-1.419, 9.744e-4
-1.418, 9.621e-4
-1.417, 9.467e-4
-1.416, 9.343e-4
-1.415, 9.189e-4
-1.414, 9.066e-4
-1.413, 8.912e-4
-1.412, 8.788e-4
-1.411, 8.634e-4
-1.410, 8.480e-4
-1.409, 8.326e-4
-1.408, 8.172e-4
-1.407, 8.018e-4
-1.406, 7.894e-4
-1.405, 7.740e-4
-1.404, 7.586e-4
-1.403, 7.463e-4
-1.402, 7.370e-4
-1.401, 7.216e-4
-1.400, 7.093e-4
-1.399, 7.000e-4
-1.398, 6.846e-4
-1.397, 6.754e-4
-1.396, 6.599e-4
-1.395, 6.476e-4
-1.394, 6.353e-4
-1.393, 6.199e-4
-1.392, 6.075e-4
-1.391, 5.952e-4
-1.390, 5.829e-4
-1.389, 5.674e-4
-1.388, 5.582e-4
-1.387, 5.459e-4
-1.386, 5.366e-4
-1.385, 5.243e-4
-1.384, 5.120e-4
-1.383, 5.027e-4
-1.382, 4.904e-4
-1.381, 4.780e-4
-1.380, 4.657e-4
-1.379, 4.565e-4
-1.378, 4.410e-4
-1.377, 4.287e-4
-1.376, 4.195e-4
-1.375, 4.071e-4
-1.374, 3.948e-4
-1.373, 3.855e-4
-1.372, 3.732e-4
-1.371, 3.670e-4
-1.370, 3.547e-4
-1.369, 3.485e-4
-1.368, 3.362e-4
-1.367, 3.270e-4
-1.366, 3.146e-4
-1.365, 3.054e-4
-1.364, 2.931e-4
-1.363, 2.838e-4
-1.362, 2.684e-4
-1.361, 2.591e-4
-1.360, 2.499e-4
-1.359, 2.376e-4
-1.358, 2.314e-4
-1.357, 2.252e-4
-1.356, 2.129e-4
-1.355, 2.036e-4
-1.354, 1.944e-4
-1.353, 1.851e-4
-1.352, 1.759e-4
-1.351, 1.666e-4
-1.350, 1.574e-4
-1.349, 1.481e-4
-1.348, 1.389e-4
-1.347, 1.266e-4
-1.346, 1.204e-4
-1.345, 1.081e-4
-1.344, 9.882e-5
-1.343, 9.265e-5
-1.342, 8.340e-5
-1.341, 8.032e-5
-1.340, 6.798e-5
-1.339, 6.182e-5
-1.338, 5.565e-5
-1.337, 4.640e-5
-1.336, 3.715e-5
-1.335, 3.099e-5
-1.334, 2.174e-5
-1.333, 9.405e-6
-1.332, 1.559e-7
-1.331, -6.010e-6
-1.330, -1.526e-5
-1.329, -2.451e-5
-1.328, -3.068e-5
-1.327, -3.684e-5
-1.326, -4.301e-5
-1.325, -5.226e-5
-1.324, -5.842e-5
-1.323, -6.151e-5
-1.322, -7.076e-5
-1.321, -7.692e-5
-1.320, -8.617e-5
-1.319, -9.234e-5
-1.318, -1.047e-4
-1.317, -1.108e-4
-1.316, -1.170e-4
-1.315, -1.263e-4
-1.314, -1.324e-4
-1.313, -1.386e-4
-1.312, -1.417e-4
-1.311, -1.478e-4
-1.310, -1.571e-4
-1.309, -1.602e-4
-1.308, -1.663e-4
-1.307, -1.725e-4
-1.306, -1.787e-4
-1.305, -1.848e-4
-1.304, -1.910e-4
-1.303, -2.002e-4
-1.302, -2.095e-4
-1.301, -2.157e-4
-1.300, -2.218e-4
-1.299, -2.280e-4
-1.298, -2.311e-4
-1.297, -2.372e-4
-1.296, -2.403e-4
-1.295, -2.465e-4
-1.294, -2.496e-4
-1.293, -2.527e-4
-1.292, -2.588e-4
-1.291, -2.681e-4
-1.290, -2.712e-4
-1.289, -2.773e-4
-1.288, -2.835e-4
-1.287, -2.927e-4
-1.286, -2.989e-4
-1.285, -3.020e-4
-1.284, -3.112e-4
-1.283, -3.143e-4
-1.282, -3.143e-4
-1.281, -3.205e-4
-1.280, -3.267e-4
-1.279, -3.297e-4
-1.278, -3.328e-4
-1.277, -3.359e-4
-1.276, -3.421e-4
-1.275, -3.452e-4
-1.274, -3.482e-4
-1.273, -3.575e-4
-1.272, -3.606e-4
-1.271, -3.667e-4
-1.270, -3.698e-4
-1.269, -3.760e-4
-1.268, -3.760e-4
-1.267, -3.821e-4
-1.266, -3.821e-4
-1.265, -3.883e-4
-1.264, -3.883e-4
-1.263, -3.945e-4
-1.262, -3.976e-4
-1.261, -4.006e-4
-1.260, -4.037e-4
-1.259, -4.099e-4
-1.258, -4.161e-4
-1.257, -4.191e-4
-1.256, -4.222e-4
-1.255, -4.253e-4
-1.254, -4.284e-4
-1.253, -4.284e-4
-1.252, -4.315e-4
-1.251, -4.346e-4
-1.250, -4.376e-4
-1.249, -4.407e-4
-1.248, -4.438e-4
-1.247, -4.469e-4
-1.246, -4.500e-4
-1.245, -4.531e-4
-1.244, -4.561e-4
-1.243, -4.592e-4
-1.242, -4.654e-4
-1.241, -4.685e-4
-1.240, -4.716e-4
-1.239, -4.746e-4
-1.238, -4.746e-4
-1.237, -4.777e-4
-1.236, -4.777e-4
-1.235, -4.839e-4
-1.234, -4.839e-4
-1.233, -4.839e-4
-1.232, -4.839e-4
-1.231, -4.870e-4
-1.230, -4.931e-4
-1.229, -4.931e-4
-1.228, -4.993e-4
-1.227, -5.024e-4
-1.226, -5.055e-4
-1.225, -5.086e-4
-1.224, -5.086e-4
-1.223, -5.086e-4
-1.222, -5.086e-4
-1.221, -5.086e-4
-1.220, -5.116e-4
-1.219, -5.116e-4
-1.218, -5.116e-4
-1.217, -5.178e-4
-1.216, -5.178e-4
-1.215, -5.209e-4
-1.214, -5.240e-4
-1.213, -5.271e-4
-1.212, -5.301e-4
-1.211, -5.301e-4
-1.210, -5.301e-4
-1.209, -5.332e-4
-1.208, -5.301e-4
-1.207, -5.332e-4
-1.206, -5.301e-4
-1.205, -5.332e-4
-1.204, -5.332e-4
-1.203, -5.363e-4
-1.202, -5.363e-4
-1.201, -5.363e-4
-1.200, -5.394e-4
-1.199, -5.394e-4
-1.198, -5.425e-4
-1.197, -5.456e-4
-1.196, -5.486e-4
-1.195, -5.517e-4
-1.194, -5.517e-4
-1.193, -5.517e-4
-1.192, -5.486e-4
-1.191, -5.486e-4
-1.190, -5.517e-4
-1.189, -5.486e-4
-1.188, -5.486e-4
-1.187, -5.486e-4
-1.186, -5.517e-4
-1.185, -5.517e-4
-1.184, -5.517e-4
-1.183, -5.548e-4
-1.182, -5.579e-4
-1.181, -5.579e-4
-1.180, -5.579e-4
-1.179, -5.610e-4
-1.178, -5.610e-4
-1.177, -5.610e-4
-1.176, -5.579e-4
-1.175, -5.610e-4
-1.174, -5.579e-4
-1.173, -5.579e-4
-1.172, -5.610e-4
-1.171, -5.610e-4
-1.170, -5.610e-4
-1.169, -5.610e-4
-1.168, -5.641e-4
-1.167, -5.671e-4
-1.166, -5.641e-4
-1.165, -5.641e-4
-1.164, -5.671e-4
-1.163, -5.641e-4
-1.162, -5.641e-4
-1.161, -5.641e-4
-1.160, -5.641e-4
-1.159, -5.610e-4
-1.158, -5.610e-4
-1.157, -5.610e-4
-1.156, -5.610e-4
-1.155, -5.610e-4
-1.154, -5.610e-4
-1.153, -5.641e-4
-1.152, -5.671e-4
-1.151, -5.671e-4
-1.150, -5.671e-4
-1.149, -5.671e-4
-1.148, -5.671e-4
-1.147, -5.671e-4
-1.146, -5.610e-4
-1.145, -5.641e-4
-1.144, -5.610e-4
-1.143, -5.610e-4
-1.142, -5.610e-4
-1.141, -5.610e-4
-1.140, -5.579e-4
-1.139, -5.579e-4
-1.138, -5.579e-4
-1.137, -5.610e-4
-1.136, -5.610e-4
-1.135, -5.610e-4
-1.134, -5.641e-4
-1.133, -5.579e-4
-1.132, -5.610e-4
-1.131, -5.579e-4
-1.130, -5.579e-4
-1.129, -5.579e-4
-1.128, -5.548e-4
-1.127, -5.548e-4
-1.126, -5.548e-4
-1.125, -5.548e-4
-1.124, -5.548e-4
-1.123, -5.548e-4
-1.122, -5.579e-4
-1.121, -5.548e-4
-1.120, -5.548e-4
-1.119, -5.548e-4
-1.118, -5.517e-4
-1.117, -5.517e-4
-1.116, -5.517e-4
-1.115, -5.517e-4
-1.114, -5.486e-4
-1.113, -5.486e-4
-1.112, -5.486e-4
-1.111, -5.486e-4
-1.110, -5.456e-4
-1.109, -5.486e-4
-1.108, -5.486e-4
-1.107, -5.517e-4
-1.106, -5.486e-4
-1.105, -5.486e-4
-1.104, -5.486e-4
-1.103, -5.486e-4
-1.102, -5.456e-4
-1.101, -5.456e-4
-1.100, -5.456e-4
-1.099, -5.425e-4
-1.098, -5.425e-4
-1.097, -5.394e-4
-1.096, -5.394e-4
-1.095, -5.394e-4
-1.094, -5.394e-4
-1.093, -5.394e-4
-1.092, -5.425e-4
-1.091, -5.425e-4
-1.090, -5.394e-4
-1.089, -5.425e-4
-1.088, -5.394e-4
-1.087, -5.394e-4
-1.086, -5.363e-4
-1.085, -5.363e-4
-1.084, -5.332e-4
-1.083, -5.332e-4
-1.082, -5.301e-4
-1.081, -5.332e-4
-1.080, -5.332e-4
-1.079, -5.332e-4
-1.078, -5.332e-4
-1.077, -5.363e-4
-1.076, -5.363e-4
-1.075, -5.332e-4
-1.074, -5.363e-4
-1.073, -5.332e-4
-1.072, -5.301e-4
-1.071, -5.271e-4
-1.070, -5.301e-4
-1.069, -5.271e-4
-1.068, -5.240e-4
-1.067, -5.240e-4
-1.066, -5.271e-4
-1.065, -5.240e-4
-1.064, -5.240e-4
-1.063, -5.271e-4
-1.062, -5.301e-4
-1.061, -5.271e-4
-1.060, -5.271e-4
-1.059, -5.271e-4
-1.058, -5.271e-4
-1.057, -5.240e-4
-1.056, -5.240e-4
-1.055, -5.240e-4
-1.054, -5.209e-4
-1.053, -5.209e-4
-1.052, -5.178e-4
-1.051, -5.209e-4
-1.050, -5.178e-4
-1.049, -5.178e-4
-1.048, -5.209e-4
-1.047, -5.240e-4
-1.046, -5.240e-4
-1.045, -5.240e-4
-1.044, -5.240e-4
-1.043, -5.209e-4
-1.042, -5.209e-4
-1.041, -5.178e-4
-1.040, -5.209e-4
-1.039, -5.178e-4
-1.038, -5.178e-4
-1.037, -5.178e-4
-1.036, -5.178e-4
-1.035, -5.178e-4
-1.034, -5.178e-4
-1.033, -5.209e-4
-1.032, -5.209e-4
-1.031, -5.209e-4
-1.030, -5.209e-4
-1.029, -5.209e-4
-1.028, -5.209e-4
-1.027, -5.178e-4
-1.026, -5.178e-4
-1.025, -5.178e-4
-1.024, -5.178e-4
-1.023, -5.178e-4
-1.022, -5.178e-4
-1.021, -5.178e-4
-1.020, -5.178e-4
-1.019, -5.178e-4
-1.018, -5.209e-4
-1.017, -5.240e-4
-1.016, -5.240e-4
-1.015, -5.240e-4
-1.014, -5.240e-4
-1.013, -5.209e-4
-1.012, -5.209e-4
-1.011, -5.178e-4
-1.010, -5.209e-4
-1.009, -5.209e-4
-1.008, -5.178e-4
-1.007, -5.178e-4
-1.006, -5.209e-4
-1.005, -5.209e-4
-1.004, -5.209e-4
-1.003, -5.240e-4
-1.002, -5.240e-4
-1.001, -5.240e-4
