Potential V vs RHE, Current mA cm-2
0.013299999999999867,17.146300954364243
0.012299999999999978,16.750181790402035
0.011299999999999866,16.396503965435777
0.010299999999999976,16.099414592464115
0.009299999999999864,15.91550212348166
0.008299999999999974,15.87306078448571
0.007299999999999862,15.74573676749786
0.006299999999999972,15.519382959519453
0.00529999999999986,15.222293586547794
0.0042999999999999705,14.868615761581536
0.0032999999999998586,14.69885040559773
0.0022999999999999687,14.57152638860988
0.0012999999999998568,14.529085049613924
0.00029999999999996696,14.387613919627421
-0.000700000000000145,14.130136463051985
-0.0017000000000000348,13.824558822281137
-0.0027000000000001467,13.518981181510291
-0.0037000000000000366,13.388827741922707
-0.0047000000000001485,13.257259591035258
-0.005700000000000038,13.257259591035258
-0.00670000000000015,13.08325010115186
-0.00770000000000004,12.821528510676828
-0.008700000000000152,12.515950869905978
-0.009700000000000042,12.210373229135131
-0.010700000000000154,12.080219789547549
-0.011700000000000044,12.036363739251732
-0.012700000000000156,11.9486516386601
-0.013700000000000045,11.774642148776701
-0.014700000000000157,11.51292055830167
-0.015700000000000047,11.20734291753082
-0.01670000000000016,10.94562132705579
-0.01770000000000005,10.901765276759972
-0.01870000000000016,10.815467887468206
-0.01970000000000005,10.771611837172388
-0.020700000000000163,10.509890246697358
-0.021700000000000053,10.20431260592651
-0.022700000000000164,9.942591015451477
-0.023700000000000054,9.724725475272262
-0.024700000000000166,9.680869424976446
-0.025700000000000056,9.63701337468063
-0.026700000000000168,9.463003884797232
-0.027700000000000058,9.201282294322198
-0.02870000000000017,8.89570465355135
-0.02970000000000006,8.63398306307632
-0.03070000000000017,8.546270962484687
-0.03170000000000006,8.503829623488736
-0.03270000000000017,8.416117522897103
-0.03370000000000006,8.242108033013702
-0.034700000000000175,7.980386442538672
-0.035700000000000065,7.630952751472008
-0.03670000000000018,7.456943261588608
-0.03770000000000007,7.369231160996977
-0.03870000000000018,7.32537511070116
-0.03970000000000007,7.237663010109527
-0.04070000000000018,6.975941419634496
-0.04170000000000007,6.671778490163514
-0.04270000000000018,6.410056899688482
-0.04370000000000007,6.278488748801033
-0.044700000000000184,6.1907766482094
-0.045700000000000074,6.14833530921345
-0.046700000000000186,6.016767158326001
-0.047700000000000076,5.7111895175551535
-0.04870000000000019,5.449467927080121
-0.04970000000000008,5.145304997609139
-0.05070000000000019,5.101448947313322
-0.05170000000000008,5.01373684672169
-0.05270000000000019,4.926024746130058
-0.05370000000000008,4.795871306542475
-0.05470000000000019,4.490293665771627
-0.05570000000000008,4.2285720752965945
-0.056700000000000195,3.9668504848215624
-0.057700000000000085,3.8791383842299307
-0.058700000000000196,3.8791383842299307
-0.059700000000000086,3.748984944642347
-0.0607000000000002,3.5749754547589476
-0.06170000000000009,3.225541763692284
-0.0627000000000002,2.963820173217252
-0.06370000000000009,2.7898106833338523
-0.0647000000000002,2.70209858274222
-0.06570000000000009,2.70209858274222
-0.0667000000000002,2.5705304318547717
-0.0677000000000001,2.2663675023837886
-0.0687000000000002,1.9169338113171246
-0.0697000000000001,1.6990682711379093
-0.07070000000000021,1.5675001202504606
-0.0717000000000001,1.5675001202504606
-0.07270000000000021,1.4812027309586933
-0.0737000000000001,1.3063444142953748
-0.07470000000000021,1.0446228238203432
-0.0757000000000001,0.6956135461436386
-0.07670000000000021,0.4776065348344364
-0.0777000000000001,0.43403342679859325
-0.07870000000000021,0.3903188476327636
-0.0797000000000001,0.3031726315610774
-0.08070000000000022,0.04140859974704963
-0.0817000000000001,-0.26384365742482935
-0.08270000000000022,-0.5255652478998613
-0.08370000000000011,-0.7001406223032067
-0.08470000000000022,-0.7872868383748929
-0.08570000000000011,-0.7872868383748929
-0.08670000000000022,-0.9181476336124089
-0.08770000000000011,-1.2234423321232837
-0.08870000000000022,-1.4854468648582886
-0.08970000000000011,-1.7910245056291363
-0.09070000000000022,-1.92117794521672
-0.09170000000000011,-1.92117794521672
-0.09270000000000023,-2.008890045808352
-0.09370000000000012,-2.1828995356917518
-0.09470000000000023,-2.4446211261667834
-0.09570000000000012,-2.794054817233447
-0.09670000000000023,-3.0119203574126634
-0.09770000000000012,-3.0996324580042955
-0.09870000000000023,-3.0996324580042955
-0.09970000000000012,-3.1859298472960624
-0.10070000000000023,-3.447651437771094
-0.10170000000000012,-3.7532290785419424
-0.10270000000000024,-4.0588067193127895
-0.10370000000000013,-4.1889601589003735
-0.10470000000000024,-4.276672259492005
-0.10570000000000013,-4.276672259492005
-0.10670000000000024,-4.406825699079589
-0.10770000000000013,-4.712403339850438
-0.10870000000000024,-5.017980980621284
-0.10970000000000013,-5.323558621392133
-0.11070000000000024,-5.411270721983764
-0.11170000000000013,-5.411270721983764
-0.11270000000000002,-5.497568111275533
-0.11370000000000013,-5.672992312458796
-0.11470000000000002,-5.977155241929781
-0.11570000000000014,-6.282732882700628
-0.11670000000000003,-6.500598422879844
-0.11770000000000014,-6.54445447317566
-0.11870000000000003,-6.588310523471475
-0.11970000000000014,-6.6760226240631075
-0.12070000000000003,-6.93774421453814
-0.12170000000000014,-7.28576319430494
-0.12270000000000003,-7.50504344578402
-0.12370000000000014,-7.722908985963235
-0.12470000000000003,-7.7653503249591855
-0.12570000000000014,-7.7653503249591855
-0.12670000000000003,-7.940774526142452
-0.12770000000000015,-8.202496116617484
-0.12870000000000004,-8.508073757388331
-0.12970000000000015,-8.769795347863363
-0.13070000000000004,-8.899948787450944
-0.13170000000000015,-8.943804837746763
-0.13270000000000004,-8.987660888042578
-0.13370000000000015,-9.161670377925978
-0.13470000000000004,-9.423391968401008
-0.13570000000000015,-9.772825659467674
-0.13670000000000004,-9.99069119964689
-0.13770000000000016,-10.078403300238522
-0.13870000000000005,-10.078403300238522
-0.13970000000000016,-10.120844639234473
-0.14070000000000005,-10.382566229709504
-0.14170000000000016,-10.731999920776168
-0.14270000000000005,-11.037577561547016
-0.14370000000000016,-11.1677310011346
-0.14470000000000005,-11.255443101726232
-0.14570000000000016,-11.255443101726232
-0.14670000000000005,-11.385596541313816
-0.14770000000000016,-11.691174182084664
-0.14870000000000005,-11.996751822855511
-0.14970000000000017,-12.302329463626359
-0.15070000000000006,-12.390041564217992
-0.15170000000000017,-12.432482903213943
-0.15270000000000006,-12.476338953509758
-0.15370000000000017,-12.651763154693022
-0.15470000000000006,-12.955926084164007
-0.15570000000000017,-13.30535977523067
-0.15670000000000006,-13.523225315409885
-0.15770000000000017,-13.610937416001518
-0.15870000000000006,-13.610937416001518
-0.15970000000000018,-13.698649516593148
-0.16070000000000007,-13.916515056772363
-0.16170000000000018,-14.26028990263957
-0.16270000000000007,-14.529085049613924
-0.16370000000000018,-14.69885040559773
-0.16470000000000007,-14.783733083589633
-0.16570000000000018,-14.783733083589633
-0.16670000000000007,-14.925204213576137
-0.16770000000000018,-15.222293586547794
-0.16870000000000007,-15.575971411514052
-0.16970000000000018,-15.830619445489761
-0.17070000000000007,-15.972090575476265
-0.17170000000000019,-15.972090575476265
-0.17270000000000008,-16.014531914472215
-0.1737000000000002,-16.184297270456018
-0.17470000000000008,-16.495533756426326
-0.1757000000000002,-16.835064468393938
-0.17670000000000008,-17.061418276372343
-0.1777000000000002,-17.103859615368293
-0.17870000000000008,-17.146300954364243
-0.1797000000000002,-17.188742293360193
-0.18070000000000008,-17.4433903273359
-0.1817000000000002,-17.797068152302163
-0.18270000000000008,-18.06586329927652
-0.1837000000000002,-18.27806999425627
-0.1847000000000001,-18.320511333252224
-0.1857000000000002,-18.320511333252224
-0.1867000000000001,-18.44783535024008
-0.1877000000000002,-18.759071836210385
-0.1887000000000001,-19.056161209182044
-0.1897000000000002,-19.367397695152352
-0.1907000000000001,-19.452280373144255
-0.1917000000000001,-19.49472171214021
-0.19269999999999998,-19.579604390132108
-0.1937000000000001,-19.721075520118614
-0.19469999999999998,-20.01816489309027
-0.1957000000000001,-20.414284057052477
-0.19669999999999999,-20.584049413036283
-0.1977000000000001,-20.683079204026836
-0.1987,-20.683079204026836
-0.1997000000000001,-20.76796188201874
-0.2007,-21.022609915994444
-0.2017000000000001,-21.376287740960702
-0.2027,-21.63093577493641
-0.2037000000000001,-21.814848243918867
-0.2047,-21.899730921910766
-0.2057000000000001,-21.899730921910766
-0.2067,-22.027054938898623
-0.2077000000000001,-22.295850085872978
-0.2087,-22.67782213683654
-0.2097000000000001,-22.989058622806844
-0.2107,-23.073941300798747
-0.2117000000000001,-23.073941300798747
-0.2127,-23.15882397879065
-0.2137000000000001,-23.342736447773106
-0.2147,-23.639825820744765
-0.2157000000000001,-23.993503645711023
-0.2167,-24.20571034069078
-0.21770000000000012,-24.290593018682678
-0.2187,-24.34718147067728
-0.21970000000000012,-24.389622809673234
-0.2207,-24.601829504652986
-0.22170000000000012,-24.997948668615198
-0.2227,-25.252596702590903
-0.22370000000000012,-25.478950510569312
-0.2247,-25.521391849565262
-0.22570000000000012,-25.521391849565262
-0.2267,-25.648715866553115
-0.22770000000000012,-25.959952352523427
-0.22870000000000001,-26.29948306449103
-0.22970000000000013,-26.61071955046134
-0.23070000000000002,-26.69560222845324
-0.23170000000000013,-26.738043567449193
-0.23270000000000002,-26.780484906445146
-0.23370000000000013,-26.9643973754276
-0.23470000000000002,-27.261486748399253
-0.23570000000000013,-27.65760591236147
-0.23670000000000002,-27.869812607341224
-0.2376999999999999,-27.912253946337174
-0.23870000000000002,-27.912253946337174
-0.2396999999999999,-28.011283737327723
-0.24070000000000003,-28.265931771303435
-0.24169999999999991,-28.619609596269694
-0.24270000000000003,-28.959140308237306
-0.24369999999999992,-29.100611438223805
-0.24470000000000003,-29.14305277721976
-0.24569999999999992,-29.14305277721976
-0.24670000000000003,-29.27037679420761
-0.24769999999999992,-29.581613280177915
-0.24870000000000003,-29.921143992145527
-0.24969999999999992,-30.189939139119886
-0.25070000000000003,-30.317263156107735
-0.2516999999999999,-30.359704495103685
-0.25270000000000004,-30.402145834099635
-0.2536999999999999,-30.571911190083444
-0.25470000000000004,-30.88314767605375
-0.2556999999999999,-31.23682550102001
-0.25670000000000004,-31.449032195999767
-0.25769999999999993,-31.49147353499572
-0.25870000000000004,-31.533914873991666
-0.25969999999999993,-31.57635621298762
-0.26070000000000004,-31.84515135996197
-0.26169999999999993,-32.184682071929586
-0.26270000000000004,-32.49591855789989
-0.26369999999999993,-32.66568391388369
-0.26470000000000005,-32.70812525287965
-0.26569999999999994,-32.70812525287965
-0.26670000000000005,-32.84959638286615
-0.26769999999999994,-33.14668575583781
-0.26870000000000005,-33.50036358080407
-0.26969999999999994,-33.755011614779775
-0.27070000000000005,-33.89648274476628
-0.27169999999999994,-33.89648274476628
-0.27270000000000005,-33.93892408376223
-0.27369999999999994,-34.10868943974604
-0.27470000000000006,-34.377484586720385
-0.27569999999999995,-34.8018979766799
-0.27670000000000006,-35.02825178465831
-0.27769999999999995,-35.07069312365426
-0.27870000000000006,-35.07069312365426
-0.27969999999999995,-35.11313446265021
-0.28070000000000006,-35.38192960962457
-0.28169999999999995,-35.721460321592176
-0.28270000000000006,-36.03269680756248
-0.28369999999999995,-36.16002082455034
-0.28470000000000006,-36.20246216354629
-0.28569999999999995,-36.20246216354629
-0.28670000000000007,-36.329786180534136
-0.28769999999999996,-36.64102266650445
-0.28870000000000007,-36.99470049147071
-0.28969999999999996,-37.249348525446415
-0.29070000000000007,-37.334231203438314
-0.29169999999999996,-37.334231203438314
-0.29270000000000007,-37.41911388143023
-0.29369999999999996,-37.56058501141672
-0.2947000000000001,-37.90011572338433
-0.29569999999999996,-38.253793548350586
-0.2967000000000001,-38.46600024333035
-0.29769999999999996,-38.5650300343209
-0.2987000000000001,-38.5650300343209
-0.29969999999999997,-38.6499127123128
-0.3007000000000001,-38.86211940729255
-0.30169999999999997,-39.258238571254765
-0.3027000000000001,-39.47044526623452
-0.30369999999999997,-39.696799074212926
-0.3047000000000001,-39.696799074212926
-0.30569999999999997,-39.696799074212926
-0.3067000000000001,-39.82412309120078
-0.3077,-40.135359577171094
-0.3087000000000001,-40.4748902891387
-0.3097,-40.78612677510901
-0.3107000000000001,-40.87100945310091
-0.3117,-40.87100945310091
-0.3127000000000001,-40.91345079209687
-0.3137,-41.139804600075266
-0.3147000000000001,-41.39445263405098
-0.3157,-41.74813045901723
-0.3167000000000001,-41.96033715399699
-0.3177,-42.04521983198889
-0.3187000000000001,-42.04521983198889
-0.3197,-42.087661170984845
-0.3207000000000001,-42.3564563179592
-0.3217,-42.71013414292546
-0.3227000000000001,-43.007223515897124
-0.3237,-43.17698887188092
-0.3247000000000001,-43.23357732387552
-0.3257,-43.23357732387552
-0.3267000000000001,-43.31846000186743
-0.3277,-43.657990713835034
-0.3287000000000001,-44.011668538801295
-0.3297,-44.223875233781044
-0.3307000000000001,-44.36534636376755
-0.3317,-44.36534636376755
-0.3327000000000001,-44.45022904175945
-0.3337,-44.619994397743255
-0.3347000000000001,-44.93123088371356
-0.3357,-45.27076159568118
-0.3367000000000001,-45.45467406466363
-0.3377,-45.497115403659585
-0.3387000000000001,-45.497115403659585
-0.3397,-45.581998081651484
-0.3407000000000001,-45.89323456762179
-0.3417,-46.19032394059345
-0.3427000000000001,-46.501560426563756
-0.3437,-46.67132578254756
-0.3447000000000001,-46.713767121543505
-0.3457,-46.713767121543505
-0.3467000000000001,-46.84109113853137
-0.3477,-47.19476896349763
-0.3487000000000001,-47.506005449467935
-0.3497,-47.76065348344364
-0.3507000000000001,-47.80309482243959
-0.3517,-47.84553616143554
-0.3527000000000001,-47.8879775004315
-0.3537,-48.114331308409895
-0.3547000000000001,-48.41142068138156
-0.3557,-48.76509850634781
-0.35670000000000013,-48.97730520132757
-0.3577,-49.03389365332217
-0.35870000000000013,-49.03389365332217
-0.3597,-49.118776331314066
-0.36070000000000013,-49.33098302629383
-0.3617,-49.72710219025603
-0.3626999999999999,-49.98175022423175
-0.3637,-50.20810403221015
-0.3646999999999999,-50.2505453712061
-0.3657,-50.29298671020206
-0.3666999999999999,-50.42031072718991
-0.3677,-50.73154721316022
-0.3686999999999999,-51.071077925127824
-0.36970000000000003,-51.33987307210218
-0.3706999999999999,-51.424755750094086
-0.37170000000000003,-51.424755750094086
-0.3726999999999999,-51.46719708909004
-0.37370000000000003,-51.69355089706845
-0.3746999999999999,-51.990640270040096
-0.37570000000000003,-52.34431809500636
-0.3766999999999999,-52.514083450990164
-0.37770000000000004,-52.59896612898206
-0.3786999999999999,-52.55652478998611
-0.37970000000000004,-52.69799591997262
-0.3806999999999999,-52.95264395394832
-0.38170000000000004,-53.26388043991864
-0.38269999999999993,-53.56096981289029
-0.38370000000000004,-53.74488228187274
-0.38469999999999993,-53.7873236208687
-0.38570000000000004,-53.74488228187274
-0.38669999999999993,-53.518528473894335
-0.38570000000000004,-53.079967970936174
-0.38469999999999993,-52.78287859796452
-0.38370000000000004,-52.514083450990164
-0.38269999999999993,-51.990640270040096
-0.38170000000000004,-51.46719708909004
-0.3806999999999999,-50.943753908139975
-0.37970000000000004,-50.547634744177756
-0.3786999999999999,-50.335428049198
-0.37770000000000004,-50.1656626932142
-0.3766999999999999,-49.81198486824794
-0.37570000000000003,-49.33098302629383
-0.3746999999999999,-48.80753984534376
-0.37370000000000003,-48.41142068138156
-0.3726999999999999,-48.114331308409895
-0.37170000000000003,-47.987007291422046
-0.3706999999999999,-47.76065348344364
-0.36970000000000003,-47.40697565847737
-0.3686999999999999,-46.94012092952192
-0.3677,-46.41667774857186
-0.3666999999999999,-46.02055858460964
-0.3657,-45.79420477663124
-0.3646999999999999,-45.70932209863933
-0.3637,-45.497115403659585
-0.3626999999999999,-45.05855490070142
-0.3617,-44.577553058747306
-0.36070000000000013,-44.138992555789144
-0.3597,-43.88434452181344
-0.35870000000000013,-43.70043205283099
-0.3577,-43.57310803584313
-0.35670000000000013,-43.31846000186743
-0.3557,-42.837458159913304
-0.3547000000000001,-42.39889765695515
-0.3537,-42.00277849299294
-0.3527000000000001,-41.79057179801318
-0.3517,-41.66324778102533
-0.3507000000000001,-41.47933531204288
-0.3497,-41.182245939071215
-0.3487000000000001,-40.743685436113054
-0.3477,-40.26268359415894
-0.3467000000000001,-39.95144710818864
-0.3457,-39.82412309120078
-0.3447000000000001,-39.696799074212926
-0.3437,-39.51288660523048
-0.3427000000000001,-39.173355893262865
-0.3417,-38.734795390304704
-0.3407000000000001,-38.33867622634249
-0.3397,-38.08402819236679
-0.3387000000000001,-37.90011572338433
-0.3377,-37.81523304539243
-0.3367000000000001,-37.60302635041268
-0.3357,-37.206907186450465
-0.3347000000000001,-36.725905344496354
-0.3337,-36.4288159715247
-0.3327000000000001,-36.20246216354629
-0.3317,-36.11757948555439
-0.3307000000000001,-35.99025546856653
-0.3297,-35.679018982596226
-0.3287000000000001,-35.282899818634014
-0.3277,-34.85848642867451
-0.3267000000000001,-34.5472499427042
-0.3257,-34.462367264712285
-0.3247000000000001,-34.377484586720385
-0.3237,-34.193572117737936
-0.3227000000000001,-33.85404140577033
-0.3217,-33.41548090281216
-0.3207000000000001,-33.01936173884996
-0.3197,-32.764713704874254
-0.3187000000000001,-32.66568391388369
-0.3177,-32.58080123589179
-0.3167000000000001,-32.368594540912035
-0.3157,-31.972475376949827
-0.3147000000000001,-31.533914873991666
-0.3137,-31.19438416202406
-0.3127000000000001,-31.052913032037555
-0.3117,-30.968030354045652
-0.3107000000000001,-30.79826499806185
-0.3097,-30.571911190083444
-0.3087000000000001,-30.189939139119886
-0.3077,-29.793819975157668
-0.3067000000000001,-29.525024828183312
-0.30569999999999997,-29.39770081119546
-0.3047000000000001,-29.35525947219951
-0.30369999999999997,-29.18549411621571
-0.3027000000000001,-28.8742576302454
-0.30169999999999997,-28.435697127287238
-0.3007000000000001,-28.09616641531963
-0.29969999999999997,-27.869812607341224
-0.2987000000000001,-27.742488590353368
-0.29769999999999996,-27.700047251357418
-0.2967000000000001,-27.487840556377662
-0.29569999999999996,-27.134162731411404
-0.2947000000000001,-26.69560222845324
-0.29369999999999996,-26.38436574248293
-0.29270000000000007,-26.257041725495082
-0.29169999999999996,-26.17215904750318
-0.29070000000000007,-26.087276369511276
-0.28969999999999996,-25.81848122253692
-0.28870000000000007,-25.521391849565262
-0.28769999999999996,-25.0828313466071
-0.28670000000000007,-24.771594860636792
-0.28569999999999995,-24.729153521640843
-0.28470000000000006,-24.64427084364894
-0.28369999999999995,-24.516946826661083
-0.28270000000000006,-24.20571034069078
-0.28169999999999995,-23.823738289727217
-0.28070000000000006,-23.47006046476096
-0.27969999999999995,-23.24370665678255
-0.27870000000000006,-23.15882397879065
-0.27769999999999995,-23.1163826397947
-0.27670000000000006,-22.946617283810895
-0.27569999999999995,-22.550498119848687
-0.27470000000000006,-22.196820294882425
-0.27369999999999994,-21.857289582914817
-0.27270000000000005,-21.729965565926964
-0.27169999999999994,-21.67337711393236
-0.27070000000000005,-21.54605309694451
-0.26969999999999994,-21.333846401964752
-0.26870000000000005,-20.980168576998494
-0.26769999999999994,-20.584049413036283
-0.26670000000000005,-20.329401379060574
-0.26569999999999994,-20.244518701068674
-0.26470000000000005,-20.202077362072725
