Potential V vs RHE, Current mA cm-2
0.013299999999999867,16.311621287443874
0.012299999999999978,16.04282614046952
0.011299999999999866,15.74573676749786
0.010299999999999976,15.3920589425316
0.009299999999999864,15.094969569559943
0.008299999999999974,14.826174422585586
0.007299999999999862,14.65640906660178
0.006299999999999972,14.57152638860988
0.00529999999999986,14.472496597619326
0.0042999999999999705,14.30273124163552
0.0032999999999998586,14.042424362460354
0.0022999999999999687,13.780702771985322
0.0012999999999998568,13.431269080918659
0.00029999999999996696,13.213403540739444
-0.000700000000000145,13.039394050856043
-0.0017000000000000348,12.907825899968595
-0.0027000000000001467,12.865384560972643
-0.0037000000000000366,12.733816410085195
-0.0047000000000001485,12.515950869905978
-0.005700000000000038,12.254229279430946
-0.00670000000000015,11.9486516386601
-0.00770000000000004,11.686930048185067
-0.008700000000000152,11.51292055830167
-0.009700000000000042,11.38135240741422
-0.010700000000000154,11.33891106841827
-0.011700000000000044,11.20734291753082
-0.012700000000000156,11.077189477943236
-0.013700000000000045,10.771611837172388
-0.014700000000000157,10.509890246697358
-0.015700000000000047,10.20431260592651
-0.01670000000000016,9.986447065747294
-0.01770000000000005,9.854878914859846
-0.01870000000000016,9.768581525568079
-0.01970000000000005,9.724725475272262
-0.020700000000000163,9.593157324384812
-0.021700000000000053,9.331435733909782
-0.022700000000000164,9.025858093138934
-0.023700000000000054,8.764136502663902
-0.024700000000000166,8.503829623488736
-0.025700000000000056,8.372261472601286
-0.026700000000000168,8.284549372009655
-0.027700000000000058,8.242108033013702
-0.02870000000000017,8.110539882126256
-0.02970000000000006,7.936530392242855
-0.03070000000000017,7.674808801767824
-0.03170000000000006,7.369231160996977
-0.03270000000000017,7.107509570521944
-0.03370000000000006,6.933500080638546
-0.034700000000000175,6.845787980046913
-0.035700000000000065,6.75807587945528
-0.03670000000000018,6.671778490163514
-0.03770000000000007,6.496354288980249
-0.03870000000000018,6.278488748801033
-0.03970000000000007,5.9729111080301855
-0.04070000000000018,5.7111895175551535
-0.04170000000000007,5.537180027671754
-0.04270000000000018,5.3631705377883545
-0.04370000000000007,5.275458437196722
-0.044700000000000184,5.231602386900906
-0.045700000000000074,5.101448947313322
-0.046700000000000186,4.883583407134107
-0.047700000000000076,4.6218618166590755
-0.04870000000000019,4.316284175888227
-0.04970000000000008,4.054562585413195
-0.05070000000000019,3.922994434525747
-0.05170000000000008,3.8366970452339793
-0.05270000000000019,3.7928409949381634
-0.05370000000000008,3.7051288943465317
-0.05470000000000019,3.4872633541673155
-0.05570000000000008,3.225541763692284
-0.056700000000000195,2.919964122921436
-0.057700000000000085,2.658242532446404
-0.058700000000000196,2.4842330425630044
-0.059700000000000086,2.352664891675556
-0.0607000000000002,2.30880884137974
-0.06170000000000009,2.178655401792157
-0.0627000000000002,2.0909433012005243
-0.06370000000000009,1.7867803717295414
-0.0647000000000002,1.5675001202504606
-0.06570000000000009,1.2626298351295453
-0.0667000000000002,1.0446228238203432
-0.0677000000000001,0.870188920546984
-0.0687000000000002,0.8264743413811545
-0.0697000000000001,0.7829012333453113
-0.07070000000000021,0.6520404381077953
-0.0717000000000001,0.43403342679859325
-0.07270000000000021,0.12863969849672777
-0.0737000000000001,-0.1766974413531431
-0.07470000000000021,-0.4384190318281749
-0.0757000000000001,-0.5692798270656908
-0.07670000000000021,-0.6564260431373771
-0.0777000000000001,-0.7001406223032067
-0.07870000000000021,-0.8308599464107361
-0.0797000000000001,-0.9617207416482519
-0.08070000000000022,-1.2671569112891135
-0.0817000000000001,-1.5717442541500557
-0.08270000000000022,-1.7910245056291363
-0.08370000000000011,-2.008890045808352
-0.08470000000000022,-2.095187435100119
-0.08570000000000011,-2.1828995356917518
-0.08670000000000022,-2.2706116362833835
-0.08770000000000011,-2.4007650758709675
-0.08870000000000022,-2.618630616050183
-0.08970000000000011,-2.924208256821031
-0.09070000000000022,-3.2297858975918787
-0.09170000000000011,-3.447651437771094
-0.09270000000000023,-3.579219588658543
-0.09370000000000012,-3.6655169779503103
-0.09470000000000023,-3.6655169779503103
-0.09570000000000012,-3.7970851288377587
-0.09670000000000023,-4.0588067193127895
-0.09770000000000012,-4.364384360083638
-0.09870000000000023,-4.668547289554621
-0.09970000000000012,-4.887827541033701
-0.10070000000000023,-5.0618370309171015
-0.10170000000000012,-5.105693081212917
-0.10270000000000024,-5.191990470504685
-0.10370000000000013,-5.279702571096316
-0.10470000000000024,-5.497568111275533
-0.10570000000000013,-5.715433651454749
-0.10670000000000024,-6.021011292225596
-0.10770000000000013,-6.282732882700628
-0.10870000000000024,-6.500598422879844
-0.10970000000000013,-6.588310523471475
-0.11070000000000024,-6.6760226240631075
-0.11170000000000013,-6.762320013354876
-0.11270000000000002,-6.893888164242324
-0.11370000000000013,-7.155609754717355
-0.11470000000000002,-7.4173313451923875
-0.11570000000000014,-7.722908985963235
-0.11670000000000003,-7.940774526142452
-0.11770000000000014,-8.11478401602585
-0.11870000000000003,-8.158640066321666
-0.11970000000000014,-8.158640066321666
-0.12070000000000003,-8.332649556205066
-0.12170000000000014,-8.508073757388331
-0.12270000000000003,-8.85609273715513
-0.12370000000000014,-9.161670377925978
-0.12470000000000003,-9.379535918105192
-0.12570000000000014,-9.511104068992642
-0.12670000000000003,-9.641257508580225
-0.12770000000000015,-9.685113558876042
-0.12870000000000004,-9.728969609171857
-0.12970000000000015,-9.946835149351072
-0.13070000000000004,-10.25241279012192
-0.13170000000000015,-10.557990430892769
-0.13270000000000004,-10.775855971071984
-0.13370000000000015,-10.993721511251199
-0.13470000000000004,-11.081433611842833
-0.13570000000000015,-11.1677310011346
-0.13670000000000004,-11.255443101726232
-0.13770000000000016,-11.385596541313816
-0.13870000000000005,-11.647318131788847
-0.13970000000000016,-11.952895772559694
-0.14070000000000005,-12.214617363034726
-0.14170000000000016,-12.476338953509758
-0.14270000000000005,-12.56405105410139
-0.14370000000000016,-12.694204493688973
-0.14470000000000005,-12.694204493688973
-0.14570000000000016,-12.825772644576423
-0.14670000000000005,-13.087494235051453
-0.14770000000000016,-13.349215825526485
-0.14870000000000005,-13.698649516593148
-0.14970000000000017,-13.960371107068182
-0.15070000000000006,-14.046668496359947
-0.15170000000000017,-14.13438059695158
-0.15270000000000006,-14.217848563643619
-0.15370000000000017,-14.30273124163552
-0.15470000000000006,-14.486643710617974
-0.15570000000000017,-14.741291744593681
-0.15670000000000006,-15.094969569559943
-0.15770000000000017,-15.349617603535648
-0.15870000000000006,-15.533530072518102
-0.15970000000000018,-15.618412750510005
-0.16070000000000007,-15.660854089505953
-0.16170000000000018,-15.78817810649381
-0.16270000000000007,-15.87306078448571
-0.16370000000000018,-16.184297270456018
-0.16470000000000007,-16.495533756426326
-0.16570000000000018,-16.792623129397985
-0.16670000000000007,-17.018976937376394
-0.16770000000000018,-17.146300954364243
-0.16870000000000007,-17.188742293360193
-0.16970000000000018,-17.231183632356142
-0.17070000000000007,-17.358507649344002
-0.17170000000000019,-17.584861457322408
-0.17270000000000008,-17.881950830294063
-0.1737000000000002,-18.15074597726842
-0.17470000000000008,-18.49027668923603
-0.1757000000000002,-18.589306480226583
-0.17670000000000008,-18.674189158218486
-0.1777000000000002,-18.716630497214435
-0.17870000000000008,-18.80151317520634
-0.1797000000000002,-19.01371987018609
-0.18070000000000008,-19.3249563561564
-0.1817000000000002,-19.636192842126707
-0.18270000000000008,-19.890840876102416
-0.1837000000000002,-20.10304757108217
-0.1847000000000001,-20.159636023076775
-0.1857000000000002,-20.202077362072725
-0.1867000000000001,-20.286960040064624
-0.1877000000000002,-20.456725396048434
-0.1887000000000001,-20.72552054302279
-0.1897000000000002,-21.022609915994444
-0.1907000000000001,-21.376287740960702
-0.1917000000000001,-21.58849443594046
-0.19269999999999998,-21.729965565926964
-0.1937000000000001,-21.772406904922917
-0.19469999999999998,-21.814848243918867
-0.1957000000000001,-21.94217226090672
-0.19669999999999999,-22.15437895588647
-0.1977000000000001,-22.46561544185678
-0.1987,-22.776851927827092
-0.1997000000000001,-23.031499961802798
-0.2007,-23.2012653177866
-0.2017000000000001,-23.300295108777156
-0.2027,-23.342736447773106
-0.2037000000000001,-23.427619125765005
-0.2047,-23.597384481748815
-0.2057000000000001,-23.951062306715073
-0.2067,-24.24815167968673
-0.2077000000000001,-24.516946826661083
-0.2087,-24.729153521640843
-0.2097000000000001,-24.870624651627345
-0.2107,-24.870624651627345
-0.2117000000000001,-24.997948668615198
-0.2127,-25.12527268560305
-0.2137000000000001,-25.43650917157336
-0.2147,-25.73359854454502
-0.2157000000000001,-26.044835030515326
-0.2167,-26.257041725495082
-0.21770000000000012,-26.440954194477534
-0.2187,-26.440954194477534
-0.21970000000000012,-26.483395533473487
-0.2207,-26.61071955046134
-0.22170000000000012,-26.822926245441096
-0.2227,-27.176604070407354
-0.22370000000000012,-27.487840556377662
-0.2247,-27.78492992934932
-0.22570000000000012,-27.869812607341224
-0.2267,-27.954695285333123
-0.22770000000000012,-28.011283737327723
-0.22870000000000001,-28.09616641531963
-0.22970000000000013,-28.265931771303435
-0.23070000000000002,-28.619609596269694
-0.23170000000000013,-28.959140308237306
-0.23270000000000002,-29.22793545521166
-0.23370000000000013,-29.440142150191413
-0.23470000000000002,-29.482583489187363
-0.23570000000000013,-29.581613280177915
-0.23670000000000002,-29.66649595816982
-0.2376999999999999,-29.836261314153624
-0.23870000000000002,-30.04846800913338
-0.2396999999999999,-30.359704495103685
-0.24070000000000003,-30.71338232006995
-0.24169999999999991,-30.925589015049702
-0.24270000000000003,-31.052913032037555
-0.24369999999999992,-31.137795710029454
-0.24470000000000003,-31.19438416202406
-0.24569999999999992,-31.27926684001596
-0.24670000000000003,-31.533914873991666
-0.24769999999999992,-31.84515135996197
-0.24870000000000003,-32.24127052392419
-0.24969999999999992,-32.45347721890394
-0.25070000000000003,-32.62324257488775
-0.2516999999999999,-32.66568391388369
-0.25270000000000004,-32.70812525287965
-0.2536999999999999,-32.764713704874254
-0.25470000000000004,-33.01936173884996
-0.2556999999999999,-33.288156885824314
-0.25670000000000004,-33.627687597791926
-0.25769999999999993,-33.93892408376223
-0.25870000000000004,-34.10868943974604
-0.25969999999999993,-34.15113077874198
-0.26070000000000004,-34.193572117737936
-0.26169999999999993,-34.278454795729836
-0.26270000000000004,-34.462367264712285
-0.26369999999999993,-34.717015298688004
-0.26470000000000005,-35.02825178465831
-0.26569999999999994,-35.32534115762997
-0.26670000000000005,-35.55169496560837
-0.26769999999999994,-35.679018982596226
-0.26870000000000005,-35.721460321592176
-0.26969999999999994,-35.763901660588125
-0.27070000000000005,-35.90537279057463
-0.27169999999999994,-36.11757948555439
-0.27270000000000005,-36.47125731052064
-0.27369999999999994,-36.768346683492304
-0.27470000000000006,-37.037141830466666
-0.27569999999999995,-37.164465847454515
-0.27670000000000006,-37.206907186450465
-0.27769999999999995,-37.206907186450465
-0.27870000000000006,-37.291789864442364
-0.27969999999999995,-37.51814367242077
-0.28070000000000006,-37.77279170639648
-0.28169999999999995,-38.16891087035869
-0.28270000000000006,-38.38111756533845
-0.28369999999999995,-38.5650300343209
-0.28470000000000006,-38.607471373316855
-0.28569999999999995,-38.692354051308754
-0.28670000000000007,-38.734795390304704
-0.28769999999999996,-38.90456074628851
-0.28870000000000007,-39.173355893262865
-0.28969999999999996,-39.47044526623452
-0.29070000000000007,-39.78168175220483
-0.29169999999999996,-40.03632978618054
-0.29270000000000007,-40.177800916167044
-0.29369999999999996,-40.177800916167044
-0.2947000000000001,-40.26268359415894
-0.29569999999999996,-40.34756627215084
-0.2967000000000001,-40.616361419125205
-0.29769999999999996,-40.91345079209687
-0.2987000000000001,-41.267128617063115
-0.29969999999999997,-41.43689397304693
-0.3007000000000001,-41.606659329030734
-0.30169999999999997,-41.66324778102533
-0.3027000000000001,-41.66324778102533
-0.30369999999999997,-41.79057179801318
-0.3047000000000001,-41.96033715399699
-0.30569999999999997,-42.2715736399673
-0.3067000000000001,-42.6111043519349
-0.3077,-42.87989949890926
-0.3087000000000001,-43.04966485489307
-0.3097,-43.134547532884966
-0.3107000000000001,-43.134547532884966
-0.3117,-43.27601866287147
-0.3127000000000001,-43.40334267985933
-0.3137,-43.70043205283099
-0.3147000000000001,-43.96922719980534
-0.3157,-44.28046368577565
-0.3167000000000001,-44.4926703807554
-0.3177,-44.577553058747306
-0.3187000000000001,-44.66243573673921
-0.3197,-44.66243573673921
-0.3207000000000001,-44.84634820572166
-0.3217,-45.01611356170547
-0.3227000000000001,-45.412232725667685
-0.3237,-45.70932209863933
-0.3247000000000001,-45.97811724561369
-0.3257,-46.10544126260155
-0.3267000000000001,-46.147882601597495
-0.3277,-46.19032394059345
-0.3287000000000001,-46.27520661858535
-0.3297,-46.501560426563756
-0.3307000000000001,-46.79864979953541
-0.3317,-47.15232762450167
-0.3327000000000001,-47.40697565847737
-0.3337,-47.590888127459834
-0.3347000000000001,-47.67577080545174
-0.3357,-47.71821214444768
-0.3367000000000001,-47.80309482243959
-0.3377,-47.987007291422046
-0.3387000000000001,-48.24165532539775
-0.3397,-48.55289181136806
-0.3407000000000001,-48.84998118433972
-0.3417,-49.118776331314066
-0.3427000000000001,-49.20365900930597
-0.3437,-49.24610034830193
-0.3447000000000001,-49.28854168729788
-0.3457,-49.373424365289786
-0.3467000000000001,-49.68466085126009
-0.3477,-49.939308885235796
-0.3487000000000001,-50.29298671020206
-0.3497,-50.50519340518181
-0.3507000000000001,-50.64666453516831
-0.3517,-50.68910587416426
-0.3527000000000001,-50.68910587416426
-0.3537,-50.81642989115212
-0.3547000000000001,-51.071077925127824
-0.3557,-51.38231441109813
-0.35670000000000013,-51.69355089706845
-0.3577,-51.948198931044146
-0.35870000000000013,-52.11796428702795
-0.3597,-52.2169940780185
-0.36070000000000013,-52.2169940780185
-0.3617,-52.34431809500636
-0.3626999999999999,-52.514083450990164
-0.3637,-52.82531993696047
-0.3646999999999999,-53.12240930993213
-0.3657,-53.39120445690648
-0.3666999999999999,-53.603411151886235
-0.3677,-53.74488228187274
-0.3686999999999999,-53.7873236208687
-0.36970000000000003,-53.7873236208687
-0.3706999999999999,-53.9570889768525
-0.37170000000000003,-54.16929567183226
-0.3726999999999999,-54.52297349679851
-0.37370000000000003,-54.876651321764776
-0.3746999999999999,-55.088858016744524
-0.37570000000000003,-55.17374069473642
-0.3766999999999999,-55.25862337272834
-0.37770000000000004,-55.31521182472294
-0.3786999999999999,-55.442535841710786
-0.37970000000000004,-55.65474253669055
-0.3806999999999999,-55.9235376836649
-0.38170000000000004,-56.30550973462846
-0.38269999999999993,-56.53186354260687
-0.38370000000000004,-56.74407023758662
-0.38469999999999993,-56.786511576582576
-0.38570000000000004,-56.82895291557852
-0.38669999999999993,-56.53186354260687
-0.38570000000000004,-55.9235376836649
-0.38469999999999993,-55.527418519702685
-0.38370000000000004,-55.21618203373238
-0.38269999999999993,-54.919092660760725
-0.38170000000000004,-54.60785617479041
-0.3806999999999999,-54.1268543328363
-0.37970000000000004,-53.603411151886235
-0.3786999999999999,-53.079967970936174
-0.37770000000000004,-52.69799591997262
-0.3766999999999999,-52.386759434002315
-0.37570000000000003,-52.11796428702795
-0.3746999999999999,-51.948198931044146
-0.37370000000000003,-51.65110955807249
-0.3726999999999999,-51.25499039411028
-0.37170000000000003,-50.81642989115212
-0.3706999999999999,-50.335428049198
-0.36970000000000003,-49.89686754623985
-0.3686999999999999,-49.59977817326819
-0.3677,-49.373424365289786
-0.3666999999999999,-49.20365900930597
-0.3657,-48.97730520132757
-0.3646999999999999,-48.63777448935996
-0.3637,-48.156772647405845
-0.3626999999999999,-47.71821214444768
-0.3617,-47.36453431948143
-0.36070000000000013,-46.982562268517874
-0.3597,-46.79864979953541
-0.35870000000000013,-46.586443104555656
-0.3577,-46.37423640957591
-0.35670000000000013,-46.10544126260155
-0.3557,-45.70932209863933
-0.3547000000000001,-45.27076159568118
-0.3537,-44.80390686672572
-0.3527000000000001,-44.4926703807554
-0.3517,-44.28046368577565
-0.3507000000000001,-44.054109877797245
-0.3497,-43.92678586080939
-0.3487000000000001,-43.70043205283099
-0.3477,-43.27601866287147
-0.3467000000000001,-42.87989949890926
-0.3457,-42.4413389959511
-0.3447000000000001,-42.04521983198889
-0.3437,-41.83301313700913
-0.3427000000000001,-41.66324778102533
-0.3417,-41.52177665103883
-0.3407000000000001,-41.30956995605907
-0.3397,-40.99833347008877
-0.3387000000000001,-40.616361419125205
-0.3377,-40.177800916167044
-0.3367000000000001,-39.86656443019674
-0.3357,-39.56947505722508
-0.3347000000000001,-39.34312124924667
-0.3337,-39.21579723225882
-0.3327000000000001,-39.046031876275016
-0.3317,-38.81967806829661
-0.3307000000000001,-38.46600024333035
-0.3297,-38.04158685337084
-0.3287000000000001,-37.645467689408626
-0.3277,-37.334231203438314
-0.3267000000000001,-37.122024508458566
-0.3257,-36.95225915247476
-0.3247000000000001,-36.89567070048016
-0.3237,-36.64102266650445
-0.3227000000000001,-36.329786180534136
-0.3217,-35.90537279057463
-0.3207000000000001,-35.50925362661242
-0.3197,-35.198017140642115
-0.3187000000000001,-34.98581044566235
-0.3177,-34.8018979766799
-0.3167000000000001,-34.67457395969205
-0.3157,-34.50480860370825
-0.3147000000000001,-34.193572117737936
-0.3137,-33.85404140577033
-0.3127000000000001,-33.41548090281216
-0.3117,-33.10424441684186
-0.3107000000000001,-32.84959638286615
-0.3097,-32.70812525287965
-0.3087000000000001,-32.53835989689585
-0.3077,-32.368594540912035
-0.3067000000000001,-32.184682071929586
-0.30569999999999997,-31.84515135996197
-0.3047000000000001,-31.49147353499572
-0.30369999999999997,-31.052913032037555
-0.3027000000000001,-30.79826499806185
-0.30169999999999997,-30.571911190083444
-0.3007000000000001,-30.444587173095588
-0.29969999999999997,-30.359704495103685
-0.2987000000000001,-30.189939139119886
-0.29769999999999996,-29.878702653149578
-0.2967000000000001,-29.482583489187363
-0.29569999999999996,-29.100611438223805
-0.2947000000000001,-28.789374952253496
-0.29369999999999996,-28.619609596269694
-0.29270000000000007,-28.478138466283188
-0.29169999999999996,-28.393255788291288
-0.29070000000000007,-28.22349043230748
-0.28969999999999996,-27.954695285333123
-0.28870000000000007,-27.615164573365515
-0.28769999999999996,-27.261486748399253
-0.28670000000000007,-26.907808923433
-0.28569999999999995,-26.65316088945729
-0.28470000000000006,-26.525836872469437
-0.28369999999999995,-26.440954194477534
-0.28270000000000006,-26.29948306449103
-0.28169999999999995,-26.087276369511276
-0.28070000000000006,-25.77603988354097
-0.27969999999999995,-25.43650917157336
-0.27870000000000006,-25.04039000761115
-0.27769999999999995,-24.729153521640843
-0.27670000000000006,-24.601829504652986
-0.27569999999999995,-24.474505487665134
-0.27470000000000006,-24.432064148669184
-0.27369999999999994,-24.24815167968673
-0.27270000000000005,-23.951062306715073
-0.27169999999999994,-23.597384481748815
-0.27070000000000005,-23.2012653177866
-0.26969999999999994,-22.904175944814945
-0.26870000000000005,-22.776851927827092
-0.26769999999999994,-22.63538079784059
-0.26670000000000005,-22.550498119848687
-0.26569999999999994,-22.42317410286083
-0.26470000000000005,-22.15437895588647
